"SPL Vertical"
"On-Axis"		"10°"		"-10°"		"20°"		"-20°"		"30°"		"-30°"		"40°"		"-40°"		"50°"		"-50°"		"60°"		"-60°"		"70°"		"-70°"		"80°"		"-80°"		"90°"		"-90°"		"100°"		"-100°"		"110°"		"-110°"		"120°"		"-120°"		"130°"		"-130°"		"140°"		"-140°"		"150°"		"-150°"		"160°"		"-160°"		"170°"		"-170°"		"180°"
"Frequency / Hz"	"Sound Pressure Level / dB (re 20 µPa/V)  [2.83  V @ 1. m]"	"Frequency / Hz"	"Sound Pressure Level / dB (re 20 µPa/V)  [2.83  V @ 1. m]"	"Frequency / Hz"	"Sound Pressure Level / dB (re 20 µPa/V)  [2.83  V @ 1. m]"	"Frequency / Hz"	"Sound Pressure Level / dB (re 20 µPa/V)  [2.83  V @ 1. m]"	"Frequency / Hz"	"Sound Pressure Level / dB (re 20 µPa/V)  [2.83  V @ 1. m]"	"Frequency / Hz"	"Sound Pressure Level / dB (re 20 µPa/V)  [2.83  V @ 1. m]"	"Frequency / Hz"	"Sound Pressure Level / dB (re 20 µPa/V)  [2.83  V @ 1. m]"	"Frequency / Hz"	"Sound Pressure Level / dB (re 20 µPa/V)  [2.83  V @ 1. m]"	"Frequency / Hz"	"Sound Pressure Level / dB (re 20 µPa/V)  [2.83  V @ 1. m]"	"Frequency / Hz"	"Sound Pressure Level / dB (re 20 µPa/V)  [2.83  V @ 1. m]"	"Frequency / Hz"	"Sound Pressure Level / dB (re 20 µPa/V)  [2.83  V @ 1. m]"	"Frequency / Hz"	"Sound Pressure Level / dB (re 20 µPa/V)  [2.83  V @ 1. m]"	"Frequency / Hz"	"Sound Pressure Level / dB (re 20 µPa/V)  [2.83  V @ 1. m]"	"Frequency / Hz"	"Sound Pressure Level / dB (re 20 µPa/V)  [2.83  V @ 1. m]"	"Frequency / Hz"	"Sound Pressure Level / dB (re 20 µPa/V)  [2.83  V @ 1. m]"	"Frequency / Hz"	"Sound Pressure Level / dB (re 20 µPa/V)  [2.83  V @ 1. m]"	"Frequency / Hz"	"Sound Pressure Level / dB (re 20 µPa/V)  [2.83  V @ 1. m]"	"Frequency / Hz"	"Sound Pressure Level / dB (re 20 µPa/V)  [2.83  V @ 1. m]"	"Frequency / Hz"	"Sound Pressure Level / dB (re 20 µPa/V)  [2.83  V @ 1. m]"	"Frequency / Hz"	"Sound Pressure Level / dB (re 20 µPa/V)  [2.83  V @ 1. m]"	"Frequency / Hz"	"Sound Pressure Level / dB (re 20 µPa/V)  [2.83  V @ 1. m]"	"Frequency / Hz"	"Sound Pressure Level / dB (re 20 µPa/V)  [2.83  V @ 1. m]"	"Frequency / Hz"	"Sound Pressure Level / dB (re 20 µPa/V)  [2.83  V @ 1. m]"	"Frequency / Hz"	"Sound Pressure Level / dB (re 20 µPa/V)  [2.83  V @ 1. m]"	"Frequency / Hz"	"Sound Pressure Level / dB (re 20 µPa/V)  [2.83  V @ 1. m]"	"Frequency / Hz"	"Sound Pressure Level / dB (re 20 µPa/V)  [2.83  V @ 1. m]"	"Frequency / Hz"	"Sound Pressure Level / dB (re 20 µPa/V)  [2.83  V @ 1. m]"	"Frequency / Hz"	"Sound Pressure Level / dB (re 20 µPa/V)  [2.83  V @ 1. m]"	"Frequency / Hz"	"Sound Pressure Level / dB (re 20 µPa/V)  [2.83  V @ 1. m]"	"Frequency / Hz"	"Sound Pressure Level / dB (re 20 µPa/V)  [2.83  V @ 1. m]"	"Frequency / Hz"	"Sound Pressure Level / dB (re 20 µPa/V)  [2.83  V @ 1. m]"	"Frequency / Hz"	"Sound Pressure Level / dB (re 20 µPa/V)  [2.83  V @ 1. m]"	"Frequency / Hz"	"Sound Pressure Level / dB (re 20 µPa/V)  [2.83  V @ 1. m]"	"Frequency / Hz"	"Sound Pressure Level / dB (re 20 µPa/V)  [2.83  V @ 1. m]"	"Frequency / Hz"	"Sound Pressure Level / dB (re 20 µPa/V)  [2.83  V @ 1. m]"	"Frequency / Hz"	"Sound Pressure Level / dB (re 20 µPa/V)  [2.83  V @ 1. m]"
20.5078	75.415	20.5078	75.6935	20.5078	75.2155	20.5078	76.0549	20.5078	75.0927	20.5078	76.503	20.5078	75.0464	20.5078	77.0405	20.5078	75.0795	20.5078	77.6674	20.5078	75.1989	20.5078	78.3794	20.5078	75.4154	20.5078	79.1647	20.5078	75.743	20.5078	80.0031	20.5078	76.1956	20.5078	80.8651	20.5078	76.7811	20.5078	81.7139	20.5078	77.4956	20.5078	82.5086	20.5078	78.3192	20.5078	83.2083	20.5078	79.218	20.5078	83.7757	20.5078	80.1503	20.5078	84.1808	20.5078	81.0723	20.5078	84.4027	20.5078	81.9436	20.5078	84.4309	20.5078	82.728	20.5078	84.2649	20.5078	83.3938	20.5078	83.9137
21.9727	77.4323	21.9727	77.6984	21.9727	77.2593	21.9727	78.0701	21.9727	77.1665	21.9727	78.5565	21.9727	77.1434	21.9727	79.1607	21.9727	77.1857	21.9727	79.878	21.9727	77.2975	21.9727	80.695	21.9727	77.4936	21.9727	81.5893	21.9727	77.7982	21.9727	82.5302	21.9727	78.2398	21.9727	83.4805	21.9727	78.8391	21.9727	84.3995	21.9727	79.5971	21.9727	85.2452	21.9727	80.4894	21.9727	85.9779	21.9727	81.4712	21.9727	86.5623	21.9727	82.4896	21.9727	86.9702	21.9727	83.4941	21.9727	87.1818	21.9727	84.441	21.9727	87.1875	21.9727	85.2935	21.9727	86.9878	21.9727	86.02	21.9727	86.5927
23.4375	81.6455	23.4375	81.8649	23.4375	81.5071	23.4375	82.1769	23.4375	81.4396	23.4375	82.5921	23.4375	81.4364	23.4375	83.1169	23.4375	81.496	23.4375	83.7511	23.4375	81.6232	23.4375	84.4855	23.4375	81.8299	23.4375	85.3008	23.4375	82.1335	23.4375	86.169	23.4375	82.5534	23.4375	87.0546	23.4375	83.1032	23.4375	87.9182	23.4375	83.7833	23.4375	88.7192	23.4375	84.5762	23.4375	89.4185	23.4375	85.4489	23.4375	89.9814	23.4375	86.3594	23.4375	90.3799	23.4375	87.2645	23.4375	90.5946	23.4375	88.1239	23.4375	90.6156	23.4375	88.9015	23.4375	90.4432	23.4375	89.5654	23.4375	90.0872
24.9023	86.1842	24.9023	86.3897	24.9023	86.0555	24.9023	86.6785	24.9023	85.9968	24.9023	87.0562	24.9023	86.0035	24.9023	87.5255	24.9023	86.0733	24.9023	88.0847	24.9023	86.208	24.9023	88.7265	24.9023	86.4135	24.9023	89.4367	24.9023	86.6995	24.9023	90.1936	24.9023	87.0769	24.9023	90.9692	24.9023	87.5542	24.9023	91.7302	24.9023	88.1321	24.9023	92.4406	24.9023	88.8008	24.9023	93.0643	24.9023	89.539	24.9023	93.5681	24.9023	90.3172	24.9023	93.9246	24.9023	91.1018	24.9023	94.114	24.9023	91.8581	24.9023	94.1264	24.9023	92.5526	24.9023	93.9622	24.9023	93.1535	24.9023	93.6317
26.3672	90.3599	26.3672	90.5216	26.3672	90.2564	26.3672	90.7478	26.3672	90.2059	26.3672	91.0448	26.3672	90.2049	26.3672	91.4181	26.3672	90.2518	26.3672	91.8702	26.3672	90.3479	26.3672	92.3988	26.3672	90.4977	26.3672	92.995	26.3672	90.7089	26.3672	93.6424	26.3672	90.9914	26.3672	94.3169	26.3672	91.3549	26.3672	94.9882	26.3672	91.8052	26.3672	95.6218	26.3672	92.3405	26.3672	96.1819	26.3672	92.9491	26.3672	96.635	26.3672	93.6099	26.3672	96.9528	26.3672	94.2947	26.3672	97.115	26.3672	94.9715	26.3672	97.1115	26.3672	95.6067	26.3672	96.9432	26.3672	96.1671	26.3672	96.6216
27.832	94.2598	27.832	94.4065	27.832	94.1679	27.832	94.6142	27.832	94.1253	27.832	94.8889	27.832	94.1286	27.832	95.2356	27.832	94.1763	27.832	95.6562	27.832	94.2698	27.832	96.1482	27.832	94.4132	27.832	96.7031	27.832	94.6135	27.832	97.306	27.832	94.8791	27.832	97.9349	27.832	95.2184	27.832	98.5622	27.832	95.6363	27.832	99.1562	27.832	96.1312	27.832	99.6836	27.832	96.6935	27.832	100.112	27.832	97.3049	27.832	100.415	27.832	97.9407	27.832	100.572	27.832	98.5714	27.832	100.573	27.832	99.1652	27.832	100.417	27.832	99.6904	27.832	100.117
29.2969	97.8912	29.2969	98.0325	29.2969	97.8009	29.2969	98.2297	29.2969	97.7575	29.2969	98.4872	29.2969	97.7579	29.2969	98.8086	29.2969	97.8006	29.2969	99.1948	29.2969	97.8862	29.2969	99.6433	29.2969	98.0175	29.2969	100.147	29.2969	98.1993	29.2969	100.692	29.2969	98.4382	29.2969	101.26	29.2969	98.7406	29.2969	101.828	29.2969	99.1108	29.2969	102.365	29.2969	99.5487	29.2969	102.843	29.2969	100.048	29.2969	103.23	29.2969	100.594	29.2969	103.5	29.2969	101.167	29.2969	103.635	29.2969	101.741	29.2969	103.624	29.2969	102.288	29.2969	103.468	29.2969	102.777	29.2969	103.179
30.7617	101.033	30.7617	101.175	30.7617	100.938	30.7617	101.368	30.7617	100.889	30.7617	101.614	30.7617	100.884	30.7617	101.916	30.7617	100.921	30.7617	102.273	30.7617	101.001	30.7617	102.683	30.7617	101.126	30.7617	103.139	30.7617	101.3	30.7617	103.632	30.7617	101.526	30.7617	104.146	30.7617	101.81	30.7617	104.659	30.7617	102.154	30.7617	105.147	30.7617	102.557	30.7617	105.582	30.7617	103.012	30.7617	105.935	30.7617	103.509	30.7617	106.182	30.7617	104.031	30.7617	106.304	30.7617	104.555	30.7617	106.292	30.7617	105.056	30.7617	106.146	30.7617	105.506	30.7617	105.878
32.2266	103.269	32.2266	103.406	32.2266	103.177	32.2266	103.591	32.2266	103.131	32.2266	103.825	32.2266	103.128	32.2266	104.109	32.2266	103.168	32.2266	104.442	32.2266	103.253	32.2266	104.822	32.2266	103.382	32.2266	105.244	32.2266	103.559	32.2266	105.697	32.2266	103.786	32.2266	106.169	32.2266	104.063	32.2266	106.64	32.2266	104.391	32.2266	107.088	32.2266	104.768	32.2266	107.487	32.2266	105.187	32.2266	107.812	32.2266	105.639	32.2266	108.039	32.2266	106.11	32.2266	108.152	32.2266	106.58	32.2266	108.142	32.2266	107.03	32.2266	108.011	32.2266	107.434	32.2266	107.768
33.6914	104.706	33.6914	104.821	33.6914	104.633	33.6914	104.979	33.6914	104.599	33.6914	105.181	33.6914	104.605	33.6914	105.429	33.6914	104.648	33.6914	105.722	33.6914	104.73	33.6914	106.057	33.6914	104.849	33.6914	106.429	33.6914	105.008	33.6914	106.832	33.6914	105.208	33.6914	107.252	33.6914	105.45	33.6914	107.674	33.6914	105.733	33.6914	108.077	33.6914	106.057	33.6914	108.438	33.6914	106.418	33.6914	108.733	33.6914	106.809	33.6914	108.939	33.6914	107.219	33.6914	109.042	33.6914	107.632	33.6914	109.033	33.6914	108.03	33.6914	108.913	33.6914	108.392	33.6914	108.693
35.1562	105.346	35.1562	105.465	35.1562	105.267	35.1562	105.626	35.1562	105.228	35.1562	105.828	35.1562	105.227	35.1562	106.071	35.1562	105.264	35.1562	106.354	35.1562	105.339	35.1562	106.675	35.1562	105.452	35.1562	107.029	35.1562	105.604	35.1562	107.407	35.1562	105.795	35.1562	107.8	35.1562	106.025	35.1562	108.192	35.1562	106.294	35.1562	108.564	35.1562	106.6	35.1562	108.896	35.1562	106.94	35.1562	109.165	35.1562	107.308	35.1562	109.351	35.1562	107.693	35.1562	109.44	35.1562	108.082	35.1562	109.423	35.1562	108.459	35.1562	109.303	35.1562	108.802	35.1562	109.091
36.6211	105.823	36.6211	105.937	36.6211	105.748	36.6211	106.088	36.6211	105.709	36.6211	106.277	36.6211	105.707	36.6211	106.504	36.6211	105.741	36.6211	106.766	36.6211	105.811	36.6211	107.061	36.6211	105.917	36.6211	107.385	36.6211	106.06	36.6211	107.731	36.6211	106.237	36.6211	108.088	36.6211	106.45	36.6211	108.444	36.6211	106.697	36.6211	108.782	36.6211	106.977	36.6211	109.082	36.6211	107.285	36.6211	109.325	36.6211	107.617	36.6211	109.491	36.6211	107.965	36.6211	109.568	36.6211	108.317	36.6211	109.549	36.6211	108.659	36.6211	109.435	36.6211	108.972	36.6211	109.237
38.0859	106.111	38.0859	106.221	38.0859	106.037	38.0859	106.365	38.0859	105.997	38.0859	106.544	38.0859	105.993	38.0859	106.757	38.0859	106.022	38.0859	107.002	38.0859	106.087	38.0859	107.276	38.0859	106.185	38.0859	107.574	38.0859	106.317	38.0859	107.892	38.0859	106.483	38.0859	108.219	38.0859	106.68	38.0859	108.543	38.0859	106.909	38.0859	108.85	38.0859	107.167	38.0859	109.123	38.0859	107.45	38.0859	109.343	38.0859	107.755	38.0859	109.493	38.0859	108.073	38.0859	109.56	38.0859	108.396	38.0859	109.538	38.0859	108.71	38.0859	109.431	38.0859	109	38.0859	109.246
39.5508	106.299	39.5508	106.404	39.5508	106.228	39.5508	106.542	39.5508	106.189	39.5508	106.711	39.5508	106.183	39.5508	106.912	39.5508	106.211	39.5508	107.142	39.5508	106.271	39.5508	107.398	39.5508	106.363	39.5508	107.677	39.5508	106.487	39.5508	107.971	39.5508	106.642	39.5508	108.274	39.5508	106.826	39.5508	108.573	39.5508	107.039	39.5508	108.856	39.5508	107.277	39.5508	109.106	39.5508	107.538	39.5508	109.306	39.5508	107.818	39.5508	109.441	39.5508	108.11	39.5508	109.5	39.5508	108.408	39.5508	109.476	39.5508	108.698	39.5508	109.372	39.5508	108.967	39.5508	109.197
41.0156	106.39	41.0156	106.49	41.0156	106.324	41.0156	106.622	41.0156	106.291	41.0156	106.786	41.0156	106.29	41.0156	106.98	41.0156	106.323	41.0156	107.203	41.0156	106.389	41.0156	107.451	41.0156	106.486	41.0156	107.72	41.0156	106.615	41.0156	108.003	41.0156	106.774	41.0156	108.292	41.0156	106.96	41.0156	108.578	41.0156	107.172	41.0156	108.848	41.0156	107.406	41.0156	109.086	41.0156	107.659	41.0156	109.279	41.0156	107.928	41.0156	109.411	41.0156	108.205	41.0156	109.471	41.0156	108.484	41.0156	109.456	41.0156	108.753	41.0156	109.366	41.0156	109	41.0156	109.209
42.4805	106.521	42.4805	106.616	42.4805	106.457	42.4805	106.739	42.4805	106.423	42.4805	106.891	42.4805	106.421	42.4805	107.069	42.4805	106.448	42.4805	107.272	42.4805	106.507	42.4805	107.496	42.4805	106.595	42.4805	107.737	42.4805	106.712	42.4805	107.99	42.4805	106.855	42.4805	108.248	42.4805	107.024	42.4805	108.501	42.4805	107.214	42.4805	108.739	42.4805	107.424	42.4805	108.948	42.4805	107.65	42.4805	109.115	42.4805	107.888	42.4805	109.228	42.4805	108.134	42.4805	109.277	42.4805	108.38	42.4805	109.258	42.4805	108.62	42.4805	109.172	42.4805	108.84	42.4805	109.029
43.9453	106.549	43.9453	106.637	43.9453	106.489	43.9453	106.752	43.9453	106.458	43.9453	106.893	43.9453	106.456	43.9453	107.059	43.9453	106.483	43.9453	107.249	43.9453	106.539	43.9453	107.458	43.9453	106.624	43.9453	107.684	43.9453	106.736	43.9453	107.92	43.9453	106.873	43.9453	108.16	43.9453	107.033	43.9453	108.395	43.9453	107.213	43.9453	108.615	43.9453	107.41	43.9453	108.808	43.9453	107.621	43.9453	108.962	43.9453	107.841	43.9453	109.065	43.9453	108.066	43.9453	109.109	43.9453	108.291	43.9453	109.091	43.9453	108.509	43.9453	109.012	43.9453	108.71	43.9453	108.882
45.4102	106.627	45.4102	106.713	45.4102	106.568	45.4102	106.825	45.4102	106.535	45.4102	106.961	45.4102	106.53	45.4102	107.12	45.4102	106.553	45.4102	107.3	45.4102	106.604	45.4102	107.498	45.4102	106.683	45.4102	107.711	45.4102	106.788	45.4102	107.933	45.4102	106.917	45.4102	108.156	45.4102	107.068	45.4102	108.374	45.4102	107.237	45.4102	108.576	45.4102	107.422	45.4102	108.751	45.4102	107.619	45.4102	108.889	45.4102	107.824	45.4102	108.979	45.4102	108.034	45.4102	109.015	45.4102	108.243	45.4102	108.993	45.4102	108.445	45.4102	108.917	45.4102	108.631	45.4102	108.792
46.875	106.693	46.875	106.778	46.875	106.633	46.875	106.887	46.875	106.598	46.875	107.019	46.875	106.589	46.875	107.172	46.875	106.608	46.875	107.343	46.875	106.653	46.875	107.531	46.875	106.725	46.875	107.73	46.875	106.822	46.875	107.935	46.875	106.943	46.875	108.141	46.875	107.085	46.875	108.339	46.875	107.244	46.875	108.52	46.875	107.417	46.875	108.676	46.875	107.601	46.875	108.796	46.875	107.791	46.875	108.873	46.875	107.984	46.875	108.9	46.875	108.176	46.875	108.874	46.875	108.362	46.875	108.8	46.875	108.534	46.875	108.683
48.3398	106.749	48.3398	106.832	48.3398	106.69	48.3398	106.936	48.3398	106.655	48.3398	107.061	48.3398	106.644	48.3398	107.204	48.3398	106.658	48.3398	107.365	48.3398	106.699	48.3398	107.539	48.3398	106.764	48.3398	107.723	48.3398	106.855	48.3398	107.911	48.3398	106.968	48.3398	108.098	48.3398	107.1	48.3398	108.276	48.3398	107.249	48.3398	108.438	48.3398	107.411	48.3398	108.576	48.3398	107.582	48.3398	108.681	48.3398	107.757	48.3398	108.747	48.3398	107.934	48.3398	108.768	48.3398	108.109	48.3398	108.742	48.3398	108.277	48.3398	108.673	48.3398	108.432	48.3398	108.567
51.2695	106.803	51.2695	106.88	51.2695	106.744	51.2695	106.975	51.2695	106.704	51.2695	107.084	51.2695	106.686	51.2695	107.208	51.2695	106.69	51.2695	107.344	51.2695	106.717	51.2695	107.488	51.2695	106.768	51.2695	107.639	51.2695	106.842	51.2695	107.79	51.2695	106.937	51.2695	107.938	51.2695	107.051	51.2695	108.077	51.2695	107.179	51.2695	108.2	51.2695	107.317	51.2695	108.302	51.2695	107.461	51.2695	108.376	51.2695	107.608	51.2695	108.418	51.2695	107.752	51.2695	108.426	51.2695	107.892	51.2695	108.398	51.2695	108.025	51.2695	108.339	51.2695	108.147	51.2695	108.253
52.7344	106.852	52.7344	106.926	52.7344	106.793	52.7344	107.014	52.7344	106.751	52.7344	107.114	52.7344	106.727	52.7344	107.227	52.7344	106.722	52.7344	107.35	52.7344	106.739	52.7344	107.481	52.7344	106.778	52.7344	107.618	52.7344	106.839	52.7344	107.755	52.7344	106.921	52.7344	107.888	52.7344	107.021	52.7344	108.011	52.7344	107.135	52.7344	108.12	52.7344	107.26	52.7344	108.208	52.7344	107.392	52.7344	108.27	52.7344	107.525	52.7344	108.303	52.7344	107.658	52.7344	108.303	52.7344	107.787	52.7344	108.271	52.7344	107.91	52.7344	108.211	52.7344	108.025	52.7344	108.127
54.1992	106.735	54.1992	106.811	54.1992	106.675	54.1992	106.901	54.1992	106.633	54.1992	107.004	54.1992	106.609	54.1992	107.119	54.1992	106.606	54.1992	107.244	54.1992	106.625	54.1992	107.375	54.1992	106.666	54.1992	107.511	54.1992	106.731	54.1992	107.646	54.1992	106.818	54.1992	107.776	54.1992	106.925	54.1992	107.896	54.1992	107.047	54.1992	108.001	54.1992	107.179	54.1992	108.087	54.1992	107.318	54.1992	108.148	54.1992	107.457	54.1992	108.183	54.1992	107.594	54.1992	108.188	54.1992	107.724	54.1992	108.166	54.1992	107.844	54.1992	108.116	54.1992	107.951	54.1992	108.043
55.6641	106.719	55.6641	106.793	55.6641	106.657	55.6641	106.878	55.6641	106.61	55.6641	106.973	55.6641	106.579	55.6641	107.078	55.6641	106.566	55.6641	107.189	55.6641	106.573	55.6641	107.306	55.6641	106.602	55.6641	107.427	55.6641	106.652	55.6641	107.546	55.6641	106.724	55.6641	107.66	55.6641	106.814	55.6641	107.763	55.6641	106.92	55.6641	107.851	55.6641	107.036	55.6641	107.919	55.6641	107.158	55.6641	107.964	55.6641	107.282	55.6641	107.983	55.6641	107.404	55.6641	107.976	55.6641	107.52	55.6641	107.943	55.6641	107.629	55.6641	107.889	55.6641	107.728	55.6641	107.816
58.5938	106.711	58.5938	106.784	58.5938	106.65	58.5938	106.868	58.5938	106.604	58.5938	106.962	58.5938	106.574	58.5938	107.064	58.5938	106.563	58.5938	107.172	58.5938	106.574	58.5938	107.286	58.5938	106.608	58.5938	107.401	58.5938	106.665	58.5938	107.513	58.5938	106.745	58.5938	107.619	58.5938	106.844	58.5938	107.714	58.5938	106.958	58.5938	107.792	58.5938	107.08	58.5938	107.852	58.5938	107.205	58.5938	107.89	58.5938	107.328	58.5938	107.905	58.5938	107.442	58.5938	107.9	58.5938	107.545	58.5938	107.876	58.5938	107.637	58.5938	107.836	58.5938	107.715	58.5938	107.782
60.0586	106.666	60.0586	106.736	60.0586	106.607	60.0586	106.815	60.0586	106.561	60.0586	106.902	60.0586	106.529	60.0586	106.996	60.0586	106.515	60.0586	107.097	60.0586	106.521	60.0586	107.201	60.0586	106.55	60.0586	107.308	60.0586	106.601	60.0586	107.412	60.0586	106.675	60.0586	107.51	60.0586	106.767	60.0586	107.597	60.0586	106.875	60.0586	107.669	60.0586	106.991	60.0586	107.723	60.0586	107.11	60.0586	107.757	60.0586	107.226	60.0586	107.77	60.0586	107.335	60.0586	107.763	60.0586	107.432	60.0586	107.74	60.0586	107.517	60.0586	107.702	60.0586	107.59	60.0586	107.652
62.9883	106.628	62.9883	106.69	62.9883	106.573	62.9883	106.758	62.9883	106.526	62.9883	106.83	62.9883	106.49	62.9883	106.906	62.9883	106.469	62.9883	106.986	62.9883	106.467	62.9883	107.069	62.9883	106.485	62.9883	107.153	62.9883	106.526	62.9883	107.235	62.9883	106.589	62.9883	107.312	62.9883	106.671	62.9883	107.381	62.9883	106.769	62.9883	107.436	62.9883	106.876	62.9883	107.477	62.9883	106.986	62.9883	107.502	62.9883	107.091	62.9883	107.512	62.9883	107.187	62.9883	107.509	62.9883	107.27	62.9883	107.494	62.9883	107.339	62.9883	107.47	62.9883	107.394	62.9883	107.437
64.4531	106.595	64.4531	106.654	64.4531	106.542	64.4531	106.716	64.4531	106.495	64.4531	106.781	64.4531	106.458	64.4531	106.849	64.4531	106.434	64.4531	106.92	64.4531	106.427	64.4531	106.995	64.4531	106.441	64.4531	107.07	64.4531	106.476	64.4531	107.145	64.4531	106.534	64.4531	107.216	64.4531	106.613	64.4531	107.278	64.4531	106.707	64.4531	107.33	64.4531	106.811	64.4531	107.369	64.4531	106.918	64.4531	107.393	64.4531	107.021	64.4531	107.405	64.4531	107.114	64.4531	107.404	64.4531	107.194	64.4531	107.394	64.4531	107.258	64.4531	107.375	64.4531	107.309	64.4531	107.347
67.3828	106.46	67.3828	106.509	67.3828	106.414	67.3828	106.558	67.3828	106.372	67.3828	106.608	67.3828	106.337	67.3828	106.659	67.3828	106.314	67.3828	106.712	67.3828	106.307	67.3828	106.768	67.3828	106.32	67.3828	106.826	67.3828	106.357	67.3828	106.884	67.3828	106.417	67.3828	106.94	67.3828	106.498	67.3828	106.991	67.3828	106.596	67.3828	107.035	67.3828	106.703	67.3828	107.071	67.3828	106.812	67.3828	107.099	67.3828	106.914	67.3828	107.119	67.3828	107.001	67.3828	107.135	67.3828	107.069	67.3828	107.146	67.3828	107.116	67.3828	107.154	67.3828	107.143	67.3828	107.154
68.8477	106.395	68.8477	106.445	68.8477	106.345	68.8477	106.494	68.8477	106.297	68.8477	106.542	68.8477	106.256	68.8477	106.59	68.8477	106.225	68.8477	106.638	68.8477	106.211	68.8477	106.688	68.8477	106.217	68.8477	106.74	68.8477	106.247	68.8477	106.791	68.8477	106.302	68.8477	106.841	68.8477	106.381	68.8477	106.885	68.8477	106.478	68.8477	106.922	68.8477	106.586	68.8477	106.951	68.8477	106.695	68.8477	106.973	68.8477	106.798	68.8477	106.989	68.8477	106.885	68.8477	107.002	68.8477	106.951	68.8477	107.013	68.8477	106.995	68.8477	107.022	68.8477	107.019	68.8477	107.026
71.7773	106.429	71.7773	106.487	71.7773	106.368	71.7773	106.54	71.7773	106.305	71.7773	106.589	71.7773	106.247	71.7773	106.633	71.7773	106.197	71.7773	106.675	71.7773	106.161	71.7773	106.716	71.7773	106.146	71.7773	106.754	71.7773	106.155	71.7773	106.79	71.7773	106.19	71.7773	106.821	71.7773	106.249	71.7773	106.846	71.7773	106.33	71.7773	106.861	71.7773	106.423	71.7773	106.867	71.7773	106.521	71.7773	106.866	71.7773	106.614	71.7773	106.859	71.7773	106.694	71.7773	106.852	71.7773	106.756	71.7773	106.845	71.7773	106.798	71.7773	106.841	71.7773	106.823	71.7773	106.835
74.707	106.513	74.707	106.567	74.707	106.454	74.707	106.615	74.707	106.391	74.707	106.657	74.707	106.33	74.707	106.695	74.707	106.275	74.707	106.731	74.707	106.233	74.707	106.767	74.707	106.21	74.707	106.804	74.707	106.211	74.707	106.839	74.707	106.24	74.707	106.872	74.707	106.296	74.707	106.899	74.707	106.375	74.707	106.918	74.707	106.47	74.707	106.929	74.707	106.571	74.707	106.931	74.707	106.67	74.707	106.929	74.707	106.756	74.707	106.925	74.707	106.824	74.707	106.923	74.707	106.872	74.707	106.92	74.707	106.901	74.707	106.915
77.6367	106.51	77.6367	106.56	77.6367	106.447	77.6367	106.597	77.6367	106.375	77.6367	106.624	77.6367	106.298	77.6367	106.642	77.6367	106.222	77.6367	106.657	77.6367	106.157	77.6367	106.671	77.6367	106.111	77.6367	106.685	77.6367	106.09	77.6367	106.701	77.6367	106.1	77.6367	106.717	77.6367	106.141	77.6367	106.732	77.6367	106.211	77.6367	106.742	77.6367	106.302	77.6367	106.747	77.6367	106.404	77.6367	106.748	77.6367	106.505	77.6367	106.748	77.6367	106.596	77.6367	106.749	77.6367	106.668	77.6367	106.753	77.6367	106.718	77.6367	106.757	77.6367	106.746	77.6367	106.757
79.1016	106.457	79.1016	106.506	79.1016	106.393	79.1016	106.542	79.1016	106.319	79.1016	106.565	79.1016	106.238	79.1016	106.58	79.1016	106.159	79.1016	106.589	79.1016	106.09	79.1016	106.597	79.1016	106.039	79.1016	106.606	79.1016	106.015	79.1016	106.616	79.1016	106.023	79.1016	106.627	79.1016	106.064	79.1016	106.637	79.1016	106.134	79.1016	106.645	79.1016	106.227	79.1016	106.649	79.1016	106.331	79.1016	106.651	79.1016	106.435	79.1016	106.653	79.1016	106.527	79.1016	106.658	79.1016	106.6	79.1016	106.666	79.1016	106.648	79.1016	106.676	79.1016	106.674	79.1016	106.681
82.0312	106.376	82.0312	106.423	82.0312	106.314	82.0312	106.453	82.0312	106.237	82.0312	106.468	82.0312	106.153	82.0312	106.473	82.0312	106.067	82.0312	106.471	82.0312	105.99	82.0312	106.465	82.0312	105.93	82.0312	106.461	82.0312	105.897	82.0312	106.459	82.0312	105.896	82.0312	106.459	82.0312	105.929	82.0312	106.461	82.0312	105.993	82.0312	106.464	82.0312	106.082	82.0312	106.466	82.0312	106.184	82.0312	106.47	82.0312	106.286	82.0312	106.476	82.0312	106.378	82.0312	106.487	82.0312	106.451	82.0312	106.501	82.0312	106.499	82.0312	106.516	82.0312	106.522	82.0312	106.526
84.9609	106.407	84.9609	106.447	84.9609	106.345	84.9609	106.466	84.9609	106.265	84.9609	106.465	84.9609	106.173	84.9609	106.449	84.9609	106.076	84.9609	106.424	84.9609	105.986	84.9609	106.393	84.9609	105.912	84.9609	106.362	84.9609	105.865	84.9609	106.333	84.9609	105.851	84.9609	106.307	84.9609	105.873	84.9609	106.286	84.9609	105.927	84.9609	106.267	84.9609	106.005	84.9609	106.253	84.9609	106.096	84.9609	106.245	84.9609	106.187	84.9609	106.246	84.9609	106.264	84.9609	106.258	84.9609	106.32	84.9609	106.28	84.9609	106.349	84.9609	106.309	84.9609	106.353	84.9609	106.336
87.8906	106.26	87.8906	106.31	87.8906	106.186	87.8906	106.337	87.8906	106.093	87.8906	106.341	87.8906	105.989	87.8906	106.328	87.8906	105.883	87.8906	106.304	87.8906	105.789	87.8906	106.274	87.8906	105.719	87.8906	106.245	87.8906	105.684	87.8906	106.22	87.8906	105.693	87.8906	106.201	87.8906	105.747	87.8906	106.188	87.8906	105.842	87.8906	106.181	87.8906	105.964	87.8906	106.182	87.8906	106.099	87.8906	106.192	87.8906	106.229	87.8906	106.214	87.8906	106.337	87.8906	106.251	87.8906	106.412	87.8906	106.302	87.8906	106.447	87.8906	106.358	87.8906	106.444	87.8906	106.41
90.8203	106.276	90.8203	106.318	90.8203	106.206	90.8203	106.332	90.8203	106.11	90.8203	106.319	90.8203	105.997	90.8203	106.286	90.8203	105.876	90.8203	106.239	90.8203	105.76	90.8203	106.185	90.8203	105.662	90.8203	106.131	90.8203	105.594	90.8203	106.082	90.8203	105.566	90.8203	106.041	90.8203	105.584	90.8203	106.009	90.8203	105.645	90.8203	105.987	90.8203	105.742	90.8203	105.977	90.8203	105.859	90.8203	105.98	90.8203	105.98	90.8203	106	90.8203	106.088	90.8203	106.036	90.8203	106.167	90.8203	106.086	90.8203	106.21	90.8203	106.141	90.8203	106.216	90.8203	106.189
95.2148	106.358	95.2148	106.384	95.2148	106.296	95.2148	106.375	95.2148	106.202	95.2148	106.337	95.2148	106.083	95.2148	106.278	95.2148	105.95	95.2148	106.206	95.2148	105.819	95.2148	106.131	95.2148	105.705	95.2148	106.062	95.2148	105.624	95.2148	106.006	95.2148	105.587	95.2148	105.965	95.2148	105.6	95.2148	105.942	95.2148	105.661	95.2148	105.937	95.2148	105.758	95.2148	105.947	95.2148	105.877	95.2148	105.972	95.2148	105.999	95.2148	106.011	95.2148	106.106	95.2148	106.061	95.2148	106.185	95.2148	106.118	95.2148	106.23	95.2148	106.173	95.2148	106.239	95.2148	106.217
98.1445	106.282	98.1445	106.318	98.1445	106.207	98.1445	106.315	98.1445	106.096	98.1445	106.276	98.1445	105.959	98.1445	106.21	98.1445	105.808	98.1445	106.126	98.1445	105.659	98.1445	106.035	98.1445	105.53	98.1445	105.947	98.1445	105.437	98.1445	105.87	98.1445	105.394	98.1445	105.81	98.1445	105.406	98.1445	105.77	98.1445	105.472	98.1445	105.75	98.1445	105.581	98.1445	105.752	98.1445	105.715	98.1445	105.775	98.1445	105.853	98.1445	105.819	98.1445	105.975	98.1445	105.881	98.1445	106.066	98.1445	105.953	98.1445	106.114	98.1445	106.027	98.1445	106.119	98.1445	106.087
101.074	106.07	101.074	106.1	101.074	105.999	101.074	106.087	101.074	105.89	101.074	106.039	101.074	105.753	101.074	105.962	101.074	105.601	101.074	105.869	101.074	105.452	101.074	105.771	101.074	105.324	101.074	105.682	101.074	105.236	101.074	105.609	101.074	105.203	101.074	105.56	101.074	105.23	101.074	105.539	101.074	105.316	101.074	105.545	101.074	105.449	101.074	105.579	101.074	105.61	101.074	105.639	101.074	105.775	101.074	105.72	101.074	105.922	101.074	105.817	101.074	106.033	101.074	105.918	101.074	106.098	101.074	106.011	101.074	106.112	101.074	106.08
105.469	106.311	105.469	106.345	105.469	106.226	105.469	106.328	105.469	106.092	105.469	106.266	105.469	105.92	105.469	106.168	105.469	105.723	105.469	106.047	105.469	105.521	105.469	105.916	105.469	105.335	105.469	105.786	105.469	105.19	105.469	105.669	105.469	105.104	105.469	105.574	105.469	105.089	105.469	105.505	105.469	105.145	105.469	105.465	105.469	105.263	105.469	105.458	105.469	105.419	105.469	105.484	105.469	105.587	105.469	105.542	105.469	105.74	105.469	105.625	105.469	105.856	105.469	105.722	105.469	105.922	105.469	105.818	105.469	105.933	105.469	105.894
108.398	106.606	108.398	106.643	108.398	106.512	108.398	106.623	108.398	106.364	108.398	106.553	108.398	106.173	108.398	106.442	108.398	105.953	108.398	106.305	108.398	105.726	108.398	106.154	108.398	105.514	108.398	106.005	108.398	105.343	108.398	105.871	108.398	105.232	108.398	105.76	108.398	105.197	108.398	105.68	108.398	105.239	108.398	105.634	108.398	105.349	108.398	105.625	108.398	105.505	108.398	105.652	108.398	105.68	108.398	105.712	108.398	105.846	108.398	105.798	108.398	105.978	108.398	105.897	108.398	106.06	108.398	105.99	108.398	106.085	108.398	106.058
112.793	106.553	112.793	106.583	112.793	106.459	112.793	106.551	112.793	106.306	112.793	106.462	112.793	106.106	112.793	106.328	112.793	105.874	112.793	106.163	112.793	105.633	112.793	105.983	112.793	105.409	112.793	105.804	112.793	105.228	112.793	105.643	112.793	105.115	112.793	105.512	112.793	105.083	112.793	105.421	112.793	105.136	112.793	105.375	112.793	105.26	112.793	105.379	112.793	105.433	112.793	105.429	112.793	105.622	112.793	105.521	112.793	105.797	112.793	105.642	112.793	105.933	112.793	105.774	112.793	106.013	112.793	105.897	112.793	106.03	112.793	105.988
117.188	106.738	117.188	106.776	117.188	106.624	117.188	106.741	117.188	106.44	117.188	106.641	117.188	106.196	117.188	106.486	117.188	105.909	117.188	106.293	117.188	105.604	117.188	106.081	117.188	105.308	117.188	105.867	117.188	105.053	117.188	105.668	117.188	104.869	117.188	105.498	117.188	104.78	117.188	105.367	117.188	104.794	117.188	105.283	117.188	104.903	117.188	105.251	117.188	105.082	117.188	105.274	117.188	105.296	117.188	105.347	117.188	105.506	117.188	105.459	117.188	105.679	117.188	105.59	117.188	105.79	117.188	105.712	117.188	105.83	117.188	105.799
120.117	106.928	120.117	106.962	120.117	106.817	120.117	106.921	120.117	106.633	120.117	106.814	120.117	106.385	120.117	106.652	120.117	106.09	120.117	106.454	120.117	105.771	120.117	106.238	120.117	105.454	120.117	106.022	120.117	105.171	120.117	105.824	120.117	104.952	120.117	105.655	120.117	104.822	120.117	105.525	120.117	104.793	120.117	105.439	120.117	104.864	120.117	105.4	120.117	105.016	120.117	105.41	120.117	105.215	120.117	105.466	120.117	105.425	120.117	105.555	120.117	105.609	120.117	105.659	120.117	105.742	120.117	105.752	120.117	105.809	120.117	105.809
124.512	106.974	124.512	106.992	124.512	106.875	124.512	106.932	124.512	106.697	124.512	106.803	124.512	106.452	124.512	106.619	124.512	106.156	124.512	106.399	124.512	105.834	124.512	106.165	124.512	105.513	124.512	105.938	124.512	105.227	124.512	105.734	124.512	105.005	124.512	105.569	124.512	104.872	124.512	105.448	124.512	104.84	124.512	105.378	124.512	104.907	124.512	105.359	124.512	105.053	124.512	105.389	124.512	105.247	124.512	105.464	124.512	105.453	124.512	105.569	124.512	105.636	124.512	105.683	124.512	105.77	124.512	105.782	124.512	105.839	124.512	105.84
128.906	106.902	128.906	106.914	128.906	106.802	128.906	106.843	128.906	106.619	128.906	106.699	128.906	106.365	128.906	106.499	128.906	106.059	128.906	106.265	128.906	105.728	128.906	106.022	128.906	105.404	128.906	105.795	128.906	105.122	128.906	105.604	128.906	104.915	128.906	105.462	128.906	104.806	128.906	105.377	128.906	104.807	128.906	105.348	128.906	104.909	128.906	105.373	128.906	105.09	128.906	105.446	128.906	105.315	128.906	105.555	128.906	105.545	128.906	105.685	128.906	105.747	128.906	105.815	128.906	105.895	128.906	105.921	128.906	105.973	128.906	105.979
133.301	106.935	133.301	106.93	133.301	106.845	133.301	106.836	133.301	106.664	133.301	106.662	133.301	106.405	133.301	106.429	133.301	106.087	133.301	106.158	133.301	105.738	133.301	105.878	133.301	105.392	133.301	105.615	133.301	105.085	133.301	105.395	133.301	104.855	133.301	105.235	133.301	104.731	133.301	105.147	133.301	104.726	133.301	105.135	133.301	104.835	133.301	105.193	133.301	105.032	133.301	105.312	133.301	105.281	133.301	105.473	133.301	105.537	133.301	105.652	133.301	105.762	133.301	105.82	133.301	105.927	133.301	105.951	133.301	106.015	133.301	106.021
139.16	107.012	139.16	106.996	139.16	106.924	139.16	106.878	139.16	106.735	139.16	106.671	139.16	106.459	139.16	106.393	139.16	106.116	139.16	106.069	139.16	105.735	139.16	105.73	139.16	105.354	139.16	105.406	139.16	105.012	139.16	105.127	139.16	104.749	139.16	104.916	139.16	104.595	139.16	104.791	139.16	104.568	139.16	104.758	139.16	104.662	139.16	104.816	139.16	104.853	139.16	104.952	139.16	105.102	139.16	105.145	139.16	105.362	139.16	105.363	139.16	105.592	139.16	105.572	139.16	105.758	139.16	105.737	139.16	105.841	139.16	105.832
143.555	106.847	143.555	106.814	143.555	106.769	143.555	106.672	143.555	106.584	143.555	106.434	143.555	106.306	143.555	106.12	143.555	105.959	143.555	105.759	143.555	105.576	143.555	105.384	143.555	105.194	143.555	105.032	143.555	104.858	143.555	104.738	143.555	104.609	143.555	104.531	143.555	104.479	143.555	104.43	143.555	104.481	143.555	104.441	143.555	104.608	143.555	104.557	143.555	104.83	143.555	104.757	143.555	105.104	143.555	105.011	143.555	105.382	143.555	105.283	143.555	105.622	143.555	105.533	143.555	105.79	143.555	105.729	143.555	105.867	143.555	105.845
147.949	106.758	147.949	106.715	147.949	106.679	147.949	106.556	147.949	106.487	147.949	106.29	147.949	106.196	147.949	105.938	147.949	105.831	147.949	105.527	147.949	105.427	147.949	105.092	147.949	105.027	147.949	104.672	147.949	104.681	147.949	104.308	147.949	104.432	147.949	104.04	147.949	104.316	147.949	103.899	147.949	104.347	147.949	103.904	147.949	104.511	147.949	104.054	147.949	104.774	147.949	104.325	147.949	105.084	147.949	104.675	147.949	105.39	147.949	105.047	147.949	105.646	147.949	105.389	147.949	105.817	147.949	105.659	147.949	105.881	147.949	105.827
153.809	106.918	153.809	106.887	153.809	106.808	153.809	106.722	153.809	106.562	153.809	106.436	153.809	106.195	153.809	106.051	153.809	105.734	153.809	105.599	153.809	105.216	153.809	105.118	153.809	104.692	153.809	104.649	153.809	104.221	153.809	104.234	153.809	103.867	153.809	103.908	153.809	103.679	153.809	103.703	153.809	103.683	153.809	103.64	153.809	103.867	153.809	103.73	153.809	104.186	153.809	103.962	153.809	104.572	153.809	104.297	153.809	104.956	153.809	104.68	153.809	105.278	153.809	105.048	153.809	105.495	153.809	105.344	153.809	105.582	153.809	105.529
159.668	107.013	159.668	107.019	159.668	106.857	159.668	106.882	159.668	106.559	159.668	106.615	159.668	106.133	159.668	106.244	159.668	105.607	159.668	105.801	159.668	105.024	159.668	105.326	159.668	104.438	159.668	104.86	159.668	103.914	159.668	104.446	159.668	103.523	159.668	104.118	159.668	103.32	159.668	103.905	159.668	103.336	159.668	103.829	159.668	103.555	159.668	103.899	159.668	103.922	159.668	104.103	159.668	104.361	159.668	104.409	159.668	104.795	159.668	104.76	159.668	105.161	159.668	105.097	159.668	105.416	159.668	105.362	159.668	105.538	159.668	105.517
165.527	106.915	165.527	106.906	165.527	106.767	165.527	106.746	165.527	106.466	165.527	106.45	165.527	106.025	165.527	106.044	165.527	105.471	165.527	105.564	165.527	104.842	165.527	105.055	165.527	104.19	165.527	104.565	165.527	103.581	165.527	104.146	165.527	103.088	165.527	103.84	165.527	102.785	165.527	103.679	165.527	102.724	165.527	103.68	165.527	102.916	165.527	103.836	165.527	103.314	165.527	104.12	165.527	103.831	165.527	104.478	165.527	104.371	165.527	104.849	165.527	104.851	165.527	105.171	165.527	105.214	165.527	105.396	165.527	105.431	165.527	105.489
171.387	106.867	171.387	106.828	171.387	106.737	171.387	106.628	171.387	106.444	171.387	106.282	171.387	106.002	171.387	105.817	171.387	105.438	171.387	105.271	171.387	104.791	171.387	104.69	171.387	104.114	171.387	104.125	171.387	103.472	171.387	103.633	171.387	102.939	171.387	103.265	171.387	102.587	171.387	103.067	171.387	102.473	171.387	103.071	171.387	102.615	171.387	103.279	171.387	102.98	171.387	103.651	171.387	103.49	171.387	104.114	171.387	104.048	171.387	104.579	171.387	104.566	171.387	104.968	171.387	104.976	171.387	105.226	171.387	105.234	171.387	105.319
177.246	106.685	177.246	106.64	177.246	106.552	177.246	106.421	177.246	106.246	177.246	106.044	177.246	105.783	177.246	105.533	177.246	105.192	177.246	104.925	177.246	104.512	177.246	104.267	177.246	103.8	177.246	103.614	177.246	103.126	177.246	103.027	177.246	102.566	177.246	102.567	177.246	102.199	177.246	102.295	177.246	102.083	177.246	102.261	177.246	102.234	177.246	102.482	177.246	102.615	177.246	102.916	177.246	103.141	177.246	103.47	177.246	103.712	177.246	104.033	177.246	104.238	177.246	104.508	177.246	104.65	177.246	104.829	177.246	104.9	177.246	104.964
183.105	106.285	183.105	106.212	183.105	106.165	183.105	105.952	183.105	105.858	183.105	105.522	183.105	105.377	183.105	104.949	183.105	104.752	183.105	104.277	183.105	104.024	183.105	103.557	183.105	103.253	183.105	102.852	183.105	102.517	183.105	102.227	183.105	101.906	183.105	101.743	183.105	101.514	183.105	101.463	183.105	101.413	183.105	101.438	183.105	101.623	183.105	101.692	183.105	102.09	183.105	102.19	183.105	102.709	183.105	102.831	183.105	103.357	183.105	103.489	183.105	103.934	183.105	104.053	183.105	104.367	183.105	104.451	183.105	104.611	183.105	104.641
188.965	106.251	188.965	106.186	188.965	106.11	188.965	105.924	188.965	105.768	188.965	105.482	188.965	105.236	188.965	104.889	188.965	104.542	188.965	104.186	188.965	103.728	188.965	103.426	188.965	102.854	188.965	102.669	188.965	102	188.965	101.979	188.965	101.261	188.965	101.421	188.965	100.742	188.965	101.063	188.965	100.538	188.965	100.972	188.965	100.695	188.965	101.189	188.965	101.173	188.965	101.679	188.965	101.851	188.965	102.327	188.965	102.582	188.965	102.993	188.965	103.241	188.965	103.557	188.965	103.744	188.965	103.942	188.965	104.04	188.965	104.108
196.289	106.208	196.289	106.132	196.289	106.068	196.289	105.849	196.289	105.713	196.289	105.38	196.289	105.16	196.289	104.756	196.289	104.439	196.289	104.024	196.289	103.599	196.289	103.239	196.289	102.707	196.289	102.462	196.289	101.844	196.289	101.75	196.289	101.105	196.289	101.159	196.289	100.581	196.289	100.751	196.289	100.353	196.289	100.605	196.289	100.462	196.289	100.793	196.289	100.887	196.289	101.306	196.289	101.534	196.289	102.024	196.289	102.269	196.289	102.77	196.289	102.964	196.289	103.396	196.289	103.518	196.289	103.809	196.289	103.866	196.289	103.969
203.613	106.067	203.613	105.962	203.613	105.927	203.613	105.622	203.613	105.546	203.613	105.067	203.613	104.94	203.613	104.336	203.613	104.141	203.613	103.481	203.613	103.199	203.613	102.568	203.613	102.183	203.613	101.668	203.613	101.181	203.613	100.851	203.613	100.296	203.613	100.179	203.613	99.6377	203.613	99.7172	203.613	99.3169	203.613	99.5478	203.613	99.4046	203.613	99.7412	203.613	99.8814	203.613	100.286	203.613	100.622	203.613	101.054	203.613	101.452	203.613	101.861	203.613	102.214	203.613	102.549	203.613	102.8	203.613	103.019	203.613	103.147	203.613	103.223
210.938	105.951	210.938	105.872	210.938	105.772	210.938	105.541	210.938	105.34	210.938	104.979	210.938	104.674	210.938	104.218	210.938	103.812	210.938	103.31	210.938	102.812	210.938	102.319	210.938	101.752	210.938	101.318	210.938	100.734	210.938	100.378	210.938	99.8685	210.938	99.5601	210.938	99.263	210.938	98.9334	210.938	99.0082	210.938	98.6081	210.938	99.1493	210.938	98.7254	210.938	99.6526	210.938	99.333	210.938	100.4	210.938	100.275	210.938	101.231	210.938	101.284	210.938	101.998	210.938	102.14	210.938	102.592	210.938	102.725	210.938	102.939	210.938	102.991
218.262	105.465	218.262	105.381	218.262	105.283	218.262	105.038	218.262	104.841	218.262	104.46	218.262	104.162	218.262	103.69	218.262	103.285	218.262	102.792	218.262	102.271	218.262	101.851	218.262	101.202	218.262	100.96	218.262	100.179	218.262	100.206	218.262	99.3205	218.262	99.649	218.262	98.7525	218.262	99.3368	218.262	98.5952	218.262	99.3166	218.262	98.9125	218.262	99.6337	218.262	99.6461	218.262	100.279	218.262	100.621	218.262	101.143	218.262	101.633	218.262	102.051	218.262	102.521	218.262	102.835	218.262	103.183	218.262	103.381	218.262	103.562	218.262	103.63
225.586	105.962	225.586	105.859	225.586	105.787	225.586	105.487	225.586	105.339	225.586	104.869	225.586	104.635	225.586	104.043	225.586	103.709	225.586	103.065	225.586	102.615	225.586	102.005	225.586	101.426	225.586	100.942	225.586	100.238	225.586	99.9464	225.586	99.1625	225.586	99.0892	225.586	98.3416	225.586	98.4787	225.586	97.9552	225.586	98.3015	225.586	98.1669	225.586	98.735	225.586	98.9728	225.586	99.7285	225.586	100.149	225.586	100.985	225.586	101.403	225.586	102.19	225.586	102.516	225.586	103.148	225.586	103.359	225.586	103.765	225.586	103.866	225.586	104.006
232.91	105.965	232.91	105.878	232.91	105.764	232.91	105.513	232.91	105.278	232.91	104.895	232.91	104.529	232.91	104.062	232.91	103.551	232.91	103.072	232.91	102.406	232.91	101.996	232.91	101.172	232.91	100.905	232.91	99.9485	232.91	99.8529	232.91	98.8393	232.91	98.8708	232.91	97.9533	232.91	98.0059	232.91	97.4222	232.91	97.4113	232.91	97.3984	232.91	97.3852	232.91	97.9589	232.91	98.1205	232.91	98.9803	232.91	99.3831	232.91	100.188	232.91	100.725	232.91	101.319	232.91	101.83	232.91	102.198	232.91	102.555	232.91	102.728	232.91	102.855
241.699	105.85	241.699	105.728	241.699	105.677	241.699	105.321	241.699	105.209	241.699	104.655	241.699	104.458	241.699	103.77	241.699	103.46	241.699	102.728	241.699	102.271	241.699	101.606	241.699	100.976	241.699	100.494	241.699	99.6798	241.699	99.4607	241.699	98.4839	241.699	98.5444	241.699	97.4839	241.699	97.7722	241.699	96.799	241.699	97.2427	241.699	96.6137	241.699	97.1895	241.699	97.0942	241.699	97.8232	241.699	98.1712	241.699	99.0119	241.699	99.5231	241.699	100.349	241.699	100.81	241.699	101.489	241.699	101.811	241.699	102.251	241.699	102.412	241.699	102.564
250.488	105.904	250.488	105.743	250.488	105.769	250.488	105.3	250.488	105.34	250.488	104.606	250.488	104.634	250.488	103.707	250.488	103.688	250.488	102.675	250.488	102.561	250.488	101.596	250.488	101.332	250.488	100.554	250.488	100.09	250.488	99.5993	250.488	98.9319	250.488	98.7359	250.488	97.9767	250.488	97.9594	250.488	97.3927	250.488	97.3465	250.488	97.3595	250.488	97.143	250.488	97.9198	250.488	97.6391	250.488	98.8996	250.488	98.7786	250.488	100.031	250.488	100.139	250.488	101.09	250.488	101.325	250.488	101.918	250.488	102.134	250.488	102.41	250.488	102.496
259.277	106.512	259.277	106.355	259.277	106.376	259.277	105.918	259.277	105.947	259.277	105.229	259.277	105.24	259.277	104.332	259.277	104.29	259.277	103.288	259.277	103.147	259.277	102.168	259.277	101.881	259.277	101.045	259.277	100.567	259.277	99.97	259.277	99.2726	259.277	98.972	259.277	98.0723	259.277	98.0922	259.277	97.1036	259.277	97.4544	259.277	96.6381	259.277	97.3014	259.277	96.9604	259.277	97.8319	259.277	98.0147	259.277	98.926	259.277	99.3964	259.277	100.21	259.277	100.711	259.277	101.344	259.277	101.728	259.277	102.128	259.277	102.33	259.277	102.467
268.066	106.285	268.066	106.117	268.066	106.16	268.066	105.662	268.066	105.745	268.066	104.946	268.066	105.064	268.066	104.009	268.066	104.153	268.066	102.911	268.066	103.068	268.066	101.73	268.066	101.876	268.066	100.543	268.066	100.643	268.066	99.4107	268.066	99.4295	268.066	98.3714	268.066	98.3034	268.066	97.4743	268.066	97.4018	268.066	96.8688	268.066	96.9931	268.066	96.8397	268.066	97.3396	268.066	97.5703	268.066	98.3591	268.066	98.8388	268.066	99.6542	268.066	100.208	268.066	100.864	268.066	101.356	268.066	101.789	268.066	102.125	268.066	102.335	268.066	102.454
276.855	106.403	276.855	106.2	276.855	106.296	276.855	105.695	276.855	105.884	276.855	104.912	276.855	105.189	276.855	103.896	276.855	104.247	276.855	102.713	276.855	103.115	276.855	101.451	276.855	101.863	276.855	100.203	276.855	100.57	276.855	99.0422	276.855	99.3185	276.855	98.0066	276.855	98.1922	276.855	97.1406	276.855	97.3189	276.855	96.597	276.855	96.9205	276.855	96.6849	276.855	97.2361	276.855	97.588	276.855	98.2455	276.855	99.022	276.855	99.6011	276.855	100.5	276.855	100.918	276.855	101.696	276.855	101.953	276.855	102.467	276.855	102.587	276.855	102.766
287.109	106.546	287.109	106.442	287.109	106.327	287.109	106.022	287.109	105.791	287.109	105.313	287.109	104.964	287.109	104.359	287.109	103.89	287.109	103.215	287.109	102.628	287.109	101.944	287.109	101.249	287.109	100.594	287.109	99.8288	287.109	99.1947	287.109	98.4459	287.109	97.7674	287.109	97.2197	287.109	96.4219	287.109	96.3822	287.109	95.5384	287.109	96.2684	287.109	95.7345	287.109	97.0203	287.109	97.0852	287.109	98.3524	287.109	98.9039	287.109	99.8344	287.109	100.591	287.109	101.171	287.109	101.885	287.109	102.202	287.109	102.699	287.109	102.835	287.109	103.012
297.363	107.476	297.363	107.402	297.363	107.238	297.363	107.012	297.363	106.704	297.363	106.321	297.363	105.904	297.363	105.357	297.363	104.875	297.363	104.159	297.363	103.655	297.363	102.771	297.363	102.276	297.363	101.224	297.363	100.763	297.363	99.5257	297.363	99.1436	297.363	97.6741	297.363	97.4894	297.363	95.7329	297.363	96.0509	297.363	94.1369	297.363	95.41	297.363	94.0155	297.363	96.066	297.363	95.7389	297.363	97.6309	297.363	98.05	297.363	99.3589	297.363	100.057	297.363	100.839	297.363	101.516	297.363	101.928	297.363	102.403	297.363	102.573	297.363	102.743
307.617	107.688	307.617	107.527	307.617	107.532	307.617	107.056	307.617	107.065	307.617	106.294	307.617	106.306	307.617	105.276	307.617	105.28	307.617	104.045	307.617	104.022	307.617	102.653	307.617	102.569	307.617	101.154	307.617	100.965	307.617	99.5991	307.617	99.2626	307.617	98.0208	307.617	97.5396	307.617	96.4255	307.617	95.9702	307.617	94.8505	307.617	94.9722	307.617	93.6464	307.617	95.1237	307.617	93.776	307.617	96.4142	307.617	95.5308	307.617	98.1296	307.617	97.746	307.617	99.6724	307.617	99.5737	307.617	100.78	307.617	100.786	307.617	101.359	307.617	101.371
319.336	108.078	319.336	107.851	319.336	107.982	319.336	107.309	319.336	107.564	319.336	106.465	319.336	106.83	319.336	105.339	319.336	105.795	319.336	103.95	319.336	104.475	319.336	102.311	319.336	102.891	319.336	100.434	319.336	101.059	319.336	98.3491	319.336	98.9926	319.336	96.1789	319.336	96.7387	319.336	94.3452	319.336	94.5326	319.336	93.6991	319.336	93.1663	319.336	94.5961	319.336	93.6029	319.336	96.2439	319.336	95.3288	319.336	97.8932	319.336	97.2377	319.336	99.2586	319.336	98.8447	319.336	100.258	319.336	100.025	319.336	100.856	319.336	100.754	319.336	101.028
329.59	107.816	329.59	107.64	329.59	107.671	329.59	107.153	329.59	107.207	329.59	106.378	329.59	106.44	329.59	105.346	329.59	105.397	329.59	104.09	329.59	104.113	329.59	102.639	329.59	102.63	329.59	101.007	329.59	100.994	329.59	99.193	329.59	99.2448	329.59	97.1975	329.59	97.414	329.59	95.1096	329.59	95.5502	329.59	93.3304	329.59	93.8343	329.59	92.717	329.59	92.8201	329.59	93.6368	329.59	93.2195	329.59	95.2904	329.59	94.7766	329.59	96.9053	329.59	96.5556	329.59	98.1614	329.59	97.9887	329.59	98.9437	329.59	98.8825	329.59	99.1961
341.309	107.407	341.309	107.238	341.309	107.245	341.309	106.734	341.309	106.763	341.309	105.905	341.309	105.983	341.309	104.765	341.309	104.933	341.309	103.335	341.309	103.643	341.309	101.642	341.309	102.143	341.309	99.7259	341.309	100.456	341.309	97.6757	341.309	98.6163	341.309	95.7122	341.309	96.7058	341.309	94.2872	341.309	94.9474	341.309	93.9468	341.309	93.7818	341.309	94.7663	341.309	93.6645	341.309	96.2404	341.309	94.571	341.309	97.829	341.309	96.0352	341.309	99.1982	341.309	97.6067	341.309	100.167	341.309	98.9959	341.309	100.644	341.309	100.027	341.309	100.594
353.027	106.995	353.027	106.838	353.027	106.822	353.027	106.37	353.027	106.312	353.027	105.62	353.027	105.477	353.027	104.618	353.027	104.355	353.027	103.399	353.027	103.014	353.027	101.993	353.027	101.541	353.027	100.413	353.027	100.018	353.027	98.6526	353.027	98.4951	353.027	96.7061	353.027	96.9818	353.027	94.7267	353.027	95.5	353.027	93.3697	353.027	94.176	353.027	93.557	353.027	93.323	353.027	94.9793	353.027	93.3437	353.027	96.6235	353.027	94.3209	353.027	97.9908	353.027	95.8395	353.027	98.9276	353.027	97.3717	353.027	99.3631	353.027	98.5651	353.027	99.2472
366.211	106.947	366.211	106.742	366.211	106.803	366.211	106.205	366.211	106.307	366.211	105.375	366.211	105.478	366.211	104.304	366.211	104.354	366.211	103.053	366.211	102.999	366.211	101.687	366.211	101.527	366.211	100.26	366.211	100.097	366.211	98.8031	366.211	98.8753	366.211	97.3283	366.211	97.9238	366.211	95.8982	366.211	97.172	366.211	94.7946	366.211	96.5373	366.211	94.5472	366.211	96.0571	366.211	95.3151	366.211	95.8884	366.211	96.5469	366.211	96.1533	366.211	97.6769	366.211	96.7852	366.211	98.4506	366.211	97.5684	366.211	98.7962	366.211	98.2717	366.211	98.7182
379.395	107.576	379.395	107.399	379.395	107.426	379.395	106.891	379.395	106.97	379.395	106.077	379.395	106.253	379.395	104.999	379.395	105.325	379.395	103.72	379.395	104.236	379.395	102.329	379.395	103.029	379.395	100.939	379.395	101.75	379.395	99.6541	379.395	100.456	379.395	98.5088	379.395	99.2275	379.395	97.449	379.395	98.1891	379.395	96.4307	379.395	97.4894	379.395	95.589	379.395	97.2037	379.395	95.2413	379.395	97.2441	379.395	95.5204	379.395	97.4252	379.395	96.1529	379.395	97.5982	379.395	96.7964	379.395	97.6965	379.395	97.2806	379.395	97.6968	379.395	97.5717
392.578	107.08	392.578	106.936	392.578	106.952	392.578	106.534	392.578	106.556	392.578	105.904	392.578	105.906	392.578	105.082	392.578	105.029	392.578	104.091	392.578	103.991	392.578	102.932	392.578	102.908	392.578	101.606	392.578	101.951	392.578	100.19	392.578	101.239	392.578	98.9121	392.578	100.713	392.578	98.0614	392.578	100.155	392.578	97.7083	392.578	99.3761	392.578	97.6617	392.578	98.4229	392.578	97.7497	392.578	97.7519	392.578	97.9519	392.578	97.9221	392.578	98.3143	392.578	98.7226	392.578	98.822	392.578	99.4773	392.578	99.3579	392.578	99.8292	392.578	99.7501
405.762	107.715	405.762	107.355	405.762	107.725	405.762	106.677	405.762	107.368	405.762	105.724	405.762	106.639	405.762	104.567	405.762	105.564	405.762	103.313	405.762	104.21	405.762	102.082	405.762	102.704	405.762	100.962	405.762	101.24	405.762	99.9789	405.762	100.045	405.762	99.1526	405.762	99.2677	405.762	98.5603	405.762	98.8516	405.762	98.3243	405.762	98.5851	405.762	98.4842	405.762	98.3061	405.762	98.912	405.762	98.0898	405.762	99.422	405.762	98.2441	405.762	99.9081	405.762	98.9135	405.762	100.334	405.762	99.7819	405.762	100.643	405.762	100.442	405.762	100.719
420.41	107.213	420.41	107.057	420.41	107.076	420.41	106.624	420.41	106.666	420.41	105.963	420.41	106.028	420.41	105.157	420.41	105.218	420.41	104.297	420.41	104.281	420.41	103.444	420.41	103.257	420.41	102.59	420.41	102.196	420.41	101.659	420.41	101.189	420.41	100.542	420.41	100.336	420.41	99.1563	420.41	99.644	420.41	97.5885	420.41	98.9463	420.41	96.4102	420.41	97.9901	420.41	96.5586	420.41	96.6716	420.41	97.849	420.41	95.5229	420.41	99.2406	420.41	95.862	420.41	100.187	420.41	97.5666	420.41	100.538	420.41	99.2253	420.41	100.235
435.059	106.687	435.059	106.621	435.059	106.458	435.059	106.273	435.059	105.946	435.059	105.673	435.059	105.196	435.059	104.861	435.059	104.294	435.059	103.893	435.059	103.352	435.059	102.843	435.059	102.482	435.059	101.826	435.059	101.759	435.059	100.986	435.059	101.189	435.059	100.405	435.059	100.729	435.059	99.9824	435.059	100.325	435.059	99.4495	435.059	99.9217	435.059	98.5493	435.059	99.4188	435.059	97.2683	435.059	98.6678	435.059	96.1362	435.059	97.5935	435.059	96.0016	435.059	96.4781	435.059	96.6681	435.059	96.0651	435.059	97.2021	435.059	96.5525	435.059	97.1388
451.172	106.779	451.172	106.565	451.172	106.705	451.172	106.081	451.172	106.376	451.172	105.403	451.172	105.848	451.172	104.65	451.172	105.166	451.172	103.943	451.172	104.346	451.172	103.336	451.172	103.395	451.172	102.784	451.172	102.366	451.172	102.171	451.172	101.421	451.172	101.391	451.172	100.786	451.172	100.454	451.172	100.516	451.172	99.5494	451.172	100.38	451.172	98.9275	451.172	100.08	451.172	98.6571	451.172	99.5273	451.172	98.7403	451.172	99.014	451.172	99.2832	451.172	99.0999	451.172	100.15	451.172	99.8659	451.172	100.882	451.172	100.709	451.172	101.106
465.82	107.131	465.82	106.954	465.82	106.96	465.82	106.422	465.82	106.513	465.82	105.591	465.82	105.903	465.82	104.585	465.82	105.234	465.82	103.572	465.82	104.543	465.82	102.718	465.82	103.775	465.82	102.119	465.82	102.849	465.82	101.729	465.82	101.741	465.82	101.349	465.82	100.562	465.82	100.713	465.82	99.5649	465.82	99.5909	465.82	98.9854	465.82	97.8422	465.82	98.7486	465.82	95.4904	465.82	98.4827	465.82	93.2363	465.82	97.8658	465.82	93.0607	465.82	96.9702	465.82	94.8045	465.82	96.4393	465.82	96.323	465.82	96.6589	465.82	96.8826
483.398	106.962	483.398	106.8	483.398	106.704	483.398	106.256	483.398	106.027	483.398	105.391	483.398	104.994	483.398	104.294	483.398	103.756	483.398	103.126	483.398	102.544	483.398	102.149	483.398	101.613	483.398	101.604	483.398	101.095	483.398	101.467	483.398	100.916	483.398	101.476	483.398	100.847	483.398	101.389	483.398	100.617	483.398	101.069	483.398	99.9941	483.398	100.413	483.398	98.8573	483.398	99.3105	483.398	97.3435	483.398	97.8295	483.398	96.1657	483.398	96.7722	483.398	96.3064	483.398	97.2082	483.398	97.4463	483.398	98.3117	483.398	98.4988	483.398	98.8486
499.512	107.384	499.512	107.185	499.512	107.167	499.512	106.588	499.512	106.561	499.512	105.639	499.512	105.63	499.512	104.399	499.512	104.456	499.512	102.937	499.512	103.122	499.512	101.356	499.512	101.707	499.512	99.8924	499.512	100.321	499.512	99.0346	499.512	99.1522	499.512	99.1571	499.512	98.4832	499.512	99.8783	499.512	98.4696	499.512	100.492	499.512	98.8672	499.512	100.574	499.512	99.21	499.512	100.005	499.512	99.1499	499.512	98.9449	499.512	98.6044	499.512	97.959	499.512	97.8906	499.512	97.7499	499.512	97.6646	499.512	98.1398	499.512	98.0399	499.512	98.3382
517.09	107.273	517.09	107.138	517.09	107.144	517.09	106.757	517.09	106.747	517.09	106.144	517.09	106.104	517.09	105.281	517.09	105.254	517.09	104.124	517.09	104.254	517.09	102.674	517.09	103.158	517.09	101.087	517.09	101.962	517.09	99.73	517.09	100.58	517.09	98.9385	517.09	98.9782	517.09	98.6422	517.09	97.6233	517.09	98.5116	517.09	97.5751	517.09	98.2591	517.09	98.5961	517.09	97.7124	517.09	99.2707	517.09	97.0821	517.09	98.9206	517.09	97.3131	517.09	97.8823	517.09	98.6758	517.09	97.7728	517.09	99.8931	517.09	99.0796	517.09	100.066
536.133	107.137	536.133	106.77	536.133	107.23	536.133	106.208	536.133	106.996	536.133	105.538	536.133	106.41	536.133	104.816	536.133	105.47	536.133	104.016	536.133	104.219	536.133	103.009	536.133	102.793	536.133	101.61	536.133	101.423	536.133	99.6953	536.133	100.297	536.133	97.5786	536.133	99.359	536.133	96.5997	536.133	98.3966	536.133	97.3921	536.133	97.3861	536.133	98.375	536.133	96.7992	536.133	98.4802	536.133	97.1551	536.133	97.4588	536.133	97.9854	536.133	95.7684	536.133	98.5342	536.133	95.4351	536.133	98.6692	536.133	96.9464	536.133	98.5963	536.133	98.1644
555.176	107.007	555.176	106.785	555.176	106.817	555.176	106.209	555.176	106.226	555.176	105.398	555.176	105.311	555.176	104.498	555.176	104.183	555.176	103.621	555.176	102.945	555.176	102.762	555.176	101.694	555.176	101.812	555.176	100.573	555.176	100.664	555.176	99.7592	555.176	99.3292	555.176	99.237	555.176	98.0603	555.176	98.6726	555.176	97.3388	555.176	97.6808	555.176	97.2302	555.176	96.0928	555.176	97.1033	555.176	94.2248	555.176	96.3525	555.176	93.2065	555.176	94.9148	555.176	93.6842	555.176	93.8776	555.176	94.6817	555.176	94.4386	555.176	95.3594	555.176	95.2953
574.219	107.843	574.219	107.549	574.219	107.785	574.219	106.889	574.219	107.414	574.219	105.893	574.219	106.743	574.219	104.647	574.219	105.744	574.219	103.297	574.219	104.394	574.219	102.037	574.219	102.769	574.219	101.01	574.219	101.108	574.219	100.202	574.219	99.7154	574.219	99.4258	574.219	98.7	574.219	98.4613	574.219	98.0299	574.219	97.352	574.219	97.7683	574.219	96.5925	574.219	97.7014	574.219	96.5013	574.219	97.2373	574.219	96.5577	574.219	96.2511	574.219	96.3972	574.219	96.0047	574.219	96.6854	574.219	97.3066	574.219	97.8068	574.219	98.5405	574.219	98.6991
594.727	107.779	594.727	107.515	594.727	107.744	594.727	106.949	594.727	107.394	594.727	106.063	594.727	106.716	594.727	104.852	594.727	105.73	594.727	103.38	594.727	104.482	594.727	101.82	594.727	102.953	594.727	100.422	594.727	100.952	594.727	99.3235	594.727	98.1617	594.727	98.4527	594.727	94.8282	594.727	97.7139	594.727	93.8048	594.727	97.169	594.727	95.7803	594.727	96.8186	594.727	97.5958	594.727	96.3655	594.727	98.6356	594.727	95.7213	594.727	98.9099	594.727	95.7042	594.727	98.1404	594.727	96.7635	594.727	96.588	594.727	97.6471	594.727	96.2983	594.727	97.3732
615.234	106.914	615.234	106.951	615.234	106.548	615.234	106.654	615.234	105.888	615.234	106.012	615.234	105.004	615.234	104.983	615.234	104	615.234	103.549	615.234	102.987	615.234	101.821	615.234	101.991	615.234	100.098	615.234	100.825	615.234	98.6646	615.234	99.1486	615.234	97.5555	615.234	96.8691	615.234	96.7442	615.234	94.8753	615.234	96.4102	615.234	94.2367	615.234	96.6269	615.234	93.732	615.234	96.9299	615.234	92.809	615.234	96.5268	615.234	93.1823	615.234	94.8355	615.234	94.7058	615.234	93.1185	615.234	96.0314	615.234	94.6124	615.234	96.789	615.234	96.4481
637.207	107.856	637.207	107.722	637.207	107.581	637.207	107.185	637.207	106.891	637.207	106.234	637.207	105.813	637.207	104.857	637.207	104.434	637.207	103.106	637.207	102.918	637.207	101.088	637.207	101.483	637.207	98.7963	637.207	100.301	637.207	96.1867	637.207	99.3379	637.207	93.9193	637.207	98.4273	637.207	93.3323	637.207	97.4373	637.207	94.074	637.207	96.2087	637.207	95.229	637.207	94.5747	637.207	96.148	637.207	93.1633	637.207	95.9771	637.207	93.8818	637.207	94.9744	637.207	95.8207	637.207	94.9837	637.207	97.0169	637.207	96.0267	637.207	97.2238	637.207	96.8283
659.18	107.005	659.18	106.899	659.18	106.799	659.18	106.487	659.18	106.285	659.18	105.759	659.18	105.471	659.18	104.695	659.18	104.367	659.18	103.286	659.18	102.989	659.18	101.533	659.18	101.354	659.18	99.4919	659.18	99.551	659.18	97.5591	659.18	97.8686	659.18	96.4325	659.18	96.5705	659.18	95.6957	659.18	95.5744	659.18	94.0637	659.18	95.3929	659.18	92.3495	659.18	96.6017	659.18	93.306	659.18	97.5961	659.18	94.1376	659.18	96.9045	659.18	93.4605	659.18	93.9529	659.18	93.4563	659.18	91.5158	659.18	95.1927	659.18	94.3438	659.18	95.9475
682.617	106.973	682.617	106.672	682.617	107.016	682.617	106.182	682.617	106.635	682.617	105.34	682.617	105.758	682.617	103.897	682.617	104.485	682.617	101.883	682.617	102.982	682.617	99.8975	682.617	101.321	682.617	98.4683	682.617	99.4039	682.617	97.1176	682.617	97.0676	682.617	95.4708	682.617	94.4725	682.617	94.2786	682.617	92.8086	682.617	93.7697	682.617	92.412	682.617	93.7632	682.617	91.8297	682.617	94.8049	682.617	92.6175	682.617	95.3065	682.617	94.6641	682.617	93.4944	682.617	95.2246	682.617	91.3458	682.617	94.9685	682.617	94.5418	682.617	95.99	682.617	96.5088
707.52	107.261	707.52	107.36	707.52	106.734	707.52	106.893	707.52	105.945	707.52	105.778	707.52	105.017	707.52	104.102	707.52	103.906	707.52	102.2	707.52	102.43	707.52	100.263	707.52	100.586	707.52	98.0552	707.52	98.831	707.52	95.8392	707.52	97.4263	707.52	94.6828	707.52	95.5082	707.52	93.7345	707.52	92.5718	707.52	92.5097	707.52	92.4445	707.52	93.2619	707.52	94.3396	707.52	94.2499	707.52	93.8807	707.52	95.0212	707.52	92.3804	707.52	95.4771	707.52	93.934	707.52	94.7868	707.52	95.7018	707.52	94.7718	707.52	96.3831	707.52	95.9667
732.422	106.65	732.422	106.43	732.422	106.649	732.422	106.043	732.422	106.328	732.422	105.457	732.422	105.57	732.422	104.499	732.422	104.392	732.422	102.904	732.422	103.033	732.422	100.518	732.422	101.645	732.422	97.5862	732.422	99.9664	732.422	95.2348	732.422	97.9477	732.422	94.2714	732.422	96.6917	732.422	92.5287	732.422	95.8871	732.422	90.8216	732.422	92.8862	732.422	91.8301	732.422	90.4693	732.422	92.6173	732.422	94.6806	732.422	93.4473	732.422	95.6743	732.422	93.5052	732.422	94.0479	732.422	91.9354	732.422	92.6477	732.422	92.88	732.422	93.3059	732.422	94.1772
757.324	106.298	757.324	106.085	757.324	106.292	757.324	105.676	757.324	105.868	757.324	104.86	757.324	104.895	757.324	103.483	757.324	103.364	757.324	101.807	757.324	101.317	757.324	100.396	757.324	99.1641	757.324	99.284	757.324	97.8356	757.324	97.9152	757.324	97.3141	757.324	96.2189	757.324	96.759	757.324	94.8402	757.324	96.1383	757.324	94.0119	757.324	94.7701	757.324	92.7745	757.324	89.6214	757.324	91.2782	757.324	89.1813	757.324	92.4258	757.324	94.7307	757.324	93.3698	757.324	94.092	757.324	93.1728	757.324	91.8211	757.324	94.4943	757.324	95.1563	757.324	96.0774
785.156	106.828	785.156	107.013	785.156	106.451	785.156	106.848	785.156	105.912	785.156	106.102	785.156	105.232	785.156	104.697	785.156	104.397	785.156	102.857	785.156	103.213	785.156	100.783	785.156	101.305	785.156	98.1173	785.156	98.3501	785.156	94.2737	785.156	94.3132	785.156	91.6978	785.156	90.2723	785.156	93.527	785.156	91.1591	785.156	93.3604	785.156	93.2611	785.156	92.6335	785.156	93.2868	785.156	95.462	785.156	90.7617	785.156	95.7405	785.156	83.4152	785.156	93.322	785.156	90.5954	785.156	93.9064	785.156	93.6984	785.156	94.2043	785.156	92.7012	785.156	92.5821
811.523	107.315	811.523	106.96	811.523	106.991	811.523	106.056	811.523	106.157	811.523	104.837	811.523	105.189	811.523	103.601	811.523	104.194	811.523	102.754	811.523	102.868	811.523	102.213	811.523	101.058	811.523	100.933	811.523	99.2558	811.523	97.7871	811.523	97.9311	811.523	94.0435	811.523	96.4913	811.523	94.3524	811.523	94.7424	811.523	93.7254	811.523	92.8507	811.523	91.6296	811.523	90.8137	811.523	91.7828	811.523	93.2198	811.523	90.3007	811.523	94.8651	811.523	88.6095	811.523	93.0633	811.523	90.069	811.523	89.706	811.523	90.3526	811.523	89.5649	811.523	89.9474
840.82	107.023	840.82	106.864	840.82	106.657	840.82	106.213	840.82	105.919	840.82	105.239	840.82	104.872	840.82	103.996	840.82	103.567	840.82	102.54	840.82	102.271	840.82	101.121	840.82	100.979	840.82	99.6728	840.82	99.5251	840.82	97.1365	840.82	98.0444	840.82	94.4504	840.82	95.8861	840.82	94.7743	840.82	93.6282	840.82	92.6273	840.82	93.109	840.82	86.7601	840.82	91.686	840.82	91.7094	840.82	85.1756	840.82	93.8177	840.82	81.7163	840.82	92.8854	840.82	91.8222	840.82	87.9392	840.82	92.6775	840.82	94.2276	840.82	92.6146	840.82	96.105
870.117	107.603	870.117	107.191	870.117	107.228	870.117	106.224	870.117	106.278	870.117	105.092	870.117	105.416	870.117	104.008	870.117	105.025	870.117	102.774	870.117	104.459	870.117	101.084	870.117	102.912	870.117	99.2474	870.117	100.278	870.117	97.6917	870.117	97.0313	870.117	96.401	870.117	94.7036	870.117	95.0194	870.117	94.9016	870.117	93.5232	870.117	94.9437	870.117	92.0309	870.117	95.8427	870.117	92.8807	870.117	98.2776	870.117	95.9627	870.117	97.2995	870.117	95.5615	870.117	91.8509	870.117	89.8657	870.117	92.9398	870.117	91.3521	870.117	93.5051	870.117	93.8685
900.879	107.132	900.879	106.877	900.879	107.158	900.879	106.342	900.879	106.776	900.879	105.455	900.879	105.803	900.879	104.204	900.879	104.395	900.879	102.672	900.879	102.797	900.879	101.343	900.879	100.968	900.879	100.19	900.879	98.8278	900.879	97.6901	900.879	96.9923	900.879	94.3121	900.879	95.5378	900.879	93.1101	900.879	92.016	900.879	90.8457	900.879	89.8939	900.879	92.578	900.879	91.3483	900.879	93.6938	900.879	86.2793	900.879	91.2617	900.879	94.9696	900.879	92.9869	900.879	97.4099	900.879	92.9572	900.879	92.943	900.879	90.9064	900.879	89.973	900.879	91.5321
933.105	107.612	933.105	107.568	933.105	107.131	933.105	106.85	933.105	106.402	933.105	105.444	933.105	105.647	933.105	103.859	933.105	104.776	933.105	102.703	933.105	103.532	933.105	101.592	933.105	101.645	933.105	99.6619	933.105	99.5296	933.105	96.7626	933.105	97.8598	933.105	93.286	933.105	95.7174	933.105	91.4486	933.105	95.9249	933.105	93.0154	933.105	97.3501	933.105	92.8989	933.105	95.6457	933.105	91.3102	933.105	95.216	933.105	93.6822	933.105	91.8345	933.105	95.8574	933.105	90.1694	933.105	94.5662	933.105	94.9243	933.105	91.3011	933.105	91.165	933.105	90.2519
965.332	107.588	965.332	107.28	965.332	107.31	965.332	106.392	965.332	106.647	965.332	105.289	965.332	105.633	965.332	104.244	965.332	104.385	965.332	102.924	965.332	103.165	965.332	100.936	965.332	101.66	965.332	99.3701	965.332	98.9434	965.332	98.7326	965.332	95.3294	965.332	97.5182	965.332	93.7562	965.332	96.3074	965.332	91.0603	965.332	95.2901	965.332	89.0135	965.332	89.9104	965.332	88.54	965.332	84.5406	965.332	90.0285	965.332	89.0643	965.332	95.845	965.332	90.0361	965.332	94.4391	965.332	91.7735	965.332	91.1792	965.332	91.5176	965.332	93.0522	965.332	92.384
1,000.49	107.445	1,000.49	107.356	1,000.49	107.612	1,000.49	107.038	1,000.49	107.419	1,000.49	106.139	1,000.49	106.453	1,000.49	104.993	1,000.49	105.069	1,000.49	103.78	1,000.49	103.465	1,000.49	101.969	1,000.49	101.393	1,000.49	99.303	1,000.49	98.9545	1,000.49	95.5623	1,000.49	96.9755	1,000.49	90.2161	1,000.49	96.3888	1,000.49	91.522	1,000.49	94.5925	1,000.49	94.5405	1,000.49	91.0815	1,000.49	94.8142	1,000.49	94.3886	1,000.49	92.7993	1,000.49	96.0648	1,000.49	93.2216	1,000.49	91.6757	1,000.49	95.8678	1,000.49	89.4097	1,000.49	94.5747	1,000.49	92.893	1,000.49	93.8267	1,000.49	88.5319	1,000.49	91.3324
1,035.64	106.659	1,035.64	107.361	1,035.64	106.715	1,035.64	107.455	1,035.64	107.267	1,035.64	106.464	1,035.64	107.12	1,035.64	105.134	1,035.64	105.87	1,035.64	103.321	1,035.64	103.709	1,035.64	101.066	1,035.64	101.523	1,035.64	99.6293	1,035.64	100.341	1,035.64	98.1335	1,035.64	98.4658	1,035.64	94.9689	1,035.64	95.2892	1,035.64	89.1309	1,035.64	94.799	1,035.64	89.8357	1,035.64	94.6338	1,035.64	93.5129	1,035.64	94.163	1,035.64	92.3907	1,035.64	92.0443	1,035.64	91.3677	1,035.64	94.1331	1,035.64	92.9851	1,035.64	93.6607	1,035.64	89.9047	1,035.64	93.8703	1,035.64	88.9297	1,035.64	92.412	1,035.64	88.552
1,072.27	106.586	1,072.27	106.799	1,072.27	106.396	1,072.27	106.764	1,072.27	106.211	1,072.27	106.689	1,072.27	105.709	1,072.27	106.26	1,072.27	104.757	1,072.27	104.521	1,072.27	103.828	1,072.27	101.845	1,072.27	102.573	1,072.27	100.42	1,072.27	99.6603	1,072.27	99.9588	1,072.27	94.8533	1,072.27	96.8533	1,072.27	92.3457	1,072.27	89.2699	1,072.27	94.2847	1,072.27	90.8389	1,072.27	91.7832	1,072.27	93.4842	1,072.27	93.6943	1,072.27	92.8942	1,072.27	96.1458	1,072.27	93.1792	1,072.27	87.7048	1,072.27	94.0272	1,072.27	94.4379	1,072.27	93.4139	1,072.27	93.6063	1,072.27	93.2096	1,072.27	88.4446	1,072.27	92.7328
1,108.89	107.032	1,108.89	106.685	1,108.89	106.898	1,108.89	106.399	1,108.89	106.221	1,108.89	106.13	1,108.89	105.857	1,108.89	105.201	1,108.89	105.772	1,108.89	103.346	1,108.89	104.711	1,108.89	101.34	1,108.89	102.586	1,108.89	99.4322	1,108.89	100.824	1,108.89	98.6258	1,108.89	98.9417	1,108.89	98.5366	1,108.89	97.0565	1,108.89	96.8084	1,108.89	94.4173	1,108.89	92.8002	1,108.89	86.9119	1,108.89	84.8095	1,108.89	93.6783	1,108.89	92.4632	1,108.89	93.9692	1,108.89	86.7671	1,108.89	97.1752	1,108.89	93.8689	1,108.89	92.8659	1,108.89	91.8247	1,108.89	92.2923	1,108.89	86.2719	1,108.89	91.7289	1,108.89	88.6311
1,148.44	106.737	1,148.44	106.8	1,148.44	106.869	1,148.44	106.783	1,148.44	106.881	1,148.44	106.293	1,148.44	106.355	1,148.44	105.126	1,148.44	105.189	1,148.44	103.241	1,148.44	103.673	1,148.44	101.825	1,148.44	102.719	1,148.44	100.804	1,148.44	101.445	1,148.44	99.0035	1,148.44	98.4064	1,148.44	97.8436	1,148.44	93.9589	1,148.44	95.9741	1,148.44	92.9371	1,148.44	92.8942	1,148.44	93.3319	1,148.44	92.8626	1,148.44	93.2673	1,148.44	93.0415	1,148.44	94.4488	1,148.44	94.5662	1,148.44	87.1507	1,148.44	92.3614	1,148.44	95.3953	1,148.44	91.9117	1,148.44	95.34	1,148.44	89.3187	1,148.44	92.5867	1,148.44	88.771
1,189.45	107.4	1,189.45	106.703	1,189.45	106.931	1,189.45	105.965	1,189.45	106.431	1,189.45	105.984	1,189.45	106.62	1,189.45	105.128	1,189.45	106.446	1,189.45	104.037	1,189.45	105.369	1,189.45	103.076	1,189.45	102.991	1,189.45	99.0631	1,189.45	99.5278	1,189.45	95.5133	1,189.45	97.2565	1,189.45	95.1295	1,189.45	96.9983	1,189.45	92.3262	1,189.45	96.4613	1,189.45	94.2329	1,189.45	93.0493	1,189.45	93.9815	1,189.45	92.6918	1,189.45	77.0437	1,189.45	87.707	1,189.45	91.8187	1,189.45	96.5104	1,189.45	95.1776	1,189.45	92.5224	1,189.45	94.8831	1,189.45	92.6058	1,189.45	89.0563	1,189.45	91.4608	1,189.45	84.7092
1,230.47	107.573	1,230.47	107.417	1,230.47	107.388	1,230.47	106.681	1,230.47	106.838	1,230.47	105.889	1,230.47	105.788	1,230.47	105.071	1,230.47	104.917	1,230.47	104.026	1,230.47	103.587	1,230.47	102.493	1,230.47	101.63	1,230.47	101.481	1,230.47	100.828	1,230.47	99.5038	1,230.47	99.8296	1,230.47	94.4782	1,230.47	94.8196	1,230.47	89.2291	1,230.47	90.8411	1,230.47	91.9551	1,230.47	92.6272	1,230.47	93.8243	1,230.47	88.5454	1,230.47	95.3274	1,230.47	97.1455	1,230.47	96.274	1,230.47	94.4829	1,230.47	92.9177	1,230.47	91.1107	1,230.47	94.9273	1,230.47	96.7294	1,230.47	83.3988	1,230.47	87.3754	1,230.47	89.8869
1,274.41	107.789	1,274.41	107.368	1,274.41	107.489	1,274.41	106.612	1,274.41	106.889	1,274.41	105.732	1,274.41	106.064	1,274.41	104.822	1,274.41	104.654	1,274.41	104.403	1,274.41	103.733	1,274.41	103.856	1,274.41	102.933	1,274.41	101.71	1,274.41	100.533	1,274.41	97.2982	1,274.41	97.8763	1,274.41	94.0157	1,274.41	94.0536	1,274.41	96.8128	1,274.41	92.3746	1,274.41	91.9816	1,274.41	88.3208	1,274.41	85.8652	1,274.41	90.3617	1,274.41	92.0988	1,274.41	91.4803	1,274.41	82.9597	1,274.41	83.2838	1,274.41	92.6393	1,274.41	92.5885	1,274.41	92.7295	1,274.41	91.6997	1,274.41	79.7261	1,274.41	93.7549	1,274.41	76.4034
1,319.82	108.428	1,319.82	108.024	1,319.82	108.063	1,319.82	107.168	1,319.82	107.56	1,319.82	106.222	1,319.82	107.075	1,319.82	105.149	1,319.82	106.187	1,319.82	104.448	1,319.82	104.348	1,319.82	103.413	1,319.82	101.826	1,319.82	101.266	1,319.82	100.474	1,319.82	98.4838	1,319.82	99.1377	1,319.82	91.7727	1,319.82	96.3895	1,319.82	87.9284	1,319.82	95.1478	1,319.82	90.2488	1,319.82	94.1535	1,319.82	91.3322	1,319.82	93.7398	1,319.82	92.2759	1,319.82	97.0476	1,319.82	90.694	1,319.82	95.1666	1,319.82	92.6772	1,319.82	93.6194	1,319.82	93.8354	1,319.82	96.0706	1,319.82	90.1445	1,319.82	84.9817	1,319.82	86.2566
1,366.7	107.837	1,366.7	107.753	1,366.7	108.112	1,366.7	107.802	1,366.7	108.195	1,366.7	107.591	1,366.7	107.474	1,366.7	107.175	1,366.7	105.634	1,366.7	106.285	1,366.7	102.676	1,366.7	103.203	1,366.7	100.555	1,366.7	99.2208	1,366.7	101.085	1,366.7	97.0078	1,366.7	100.965	1,366.7	97.5605	1,366.7	97.8184	1,366.7	94.5784	1,366.7	86.6724	1,366.7	95.0033	1,366.7	91.6697	1,366.7	89.3978	1,366.7	91.7342	1,366.7	93.8064	1,366.7	92.6566	1,366.7	95.1823	1,366.7	86.5345	1,366.7	89.2678	1,366.7	95.3822	1,366.7	94.5211	1,366.7	90.3707	1,366.7	91.1019	1,366.7	85.6283	1,366.7	76.8593
1,413.57	107.446	1,413.57	107.87	1,413.57	108.446	1,413.57	108.449	1,413.57	108.332	1,413.57	106.919	1,413.57	106.674	1,413.57	105.967	1,413.57	105.359	1,413.57	103.939	1,413.57	103.674	1,413.57	100.766	1,413.57	101.914	1,413.57	101.123	1,413.57	101.383	1,413.57	97.2049	1,413.57	100.11	1,413.57	98.278	1,413.57	96.2223	1,413.57	96.0827	1,413.57	96.2265	1,413.57	93.8314	1,413.57	95.1604	1,413.57	71.6934	1,413.57	89.5097	1,413.57	94.8646	1,413.57	94.1597	1,413.57	93.4934	1,413.57	93.8027	1,413.57	90.079	1,413.57	88.5943	1,413.57	95.7392	1,413.57	85.3335	1,413.57	93.9202	1,413.57	79.6237	1,413.57	80.0878
1,463.38	107.288	1,463.38	108.27	1,463.38	107.269	1,463.38	107.999	1,463.38	107.879	1,463.38	106.482	1,463.38	107.681	1,463.38	105.056	1,463.38	106.391	1,463.38	101.551	1,463.38	104.463	1,463.38	99.0985	1,463.38	101.709	1,463.38	100.455	1,463.38	99.6131	1,463.38	96.3697	1,463.38	98.0144	1,463.38	92.1075	1,463.38	94.8322	1,463.38	94.4967	1,463.38	90.9008	1,463.38	94.5713	1,463.38	90.981	1,463.38	95.4803	1,463.38	91.2299	1,463.38	86.1836	1,463.38	94.5349	1,463.38	92.98	1,463.38	99.0488	1,463.38	91.6366	1,463.38	85.5371	1,463.38	90.4489	1,463.38	95.7829	1,463.38	86.7728	1,463.38	91.5164	1,463.38	83.7777
1,516.11	106.867	1,516.11	106.515	1,516.11	107.718	1,516.11	107.43	1,516.11	107.973	1,516.11	107.106	1,516.11	107.986	1,516.11	105.518	1,516.11	106.409	1,516.11	103.574	1,516.11	104.146	1,516.11	103.773	1,516.11	101.264	1,516.11	103.129	1,516.11	95.6062	1,516.11	96.241	1,516.11	94.923	1,516.11	93.8923	1,516.11	96.4794	1,516.11	92.4136	1,516.11	88.5878	1,516.11	94.2101	1,516.11	72.052	1,516.11	94.691	1,516.11	89.6618	1,516.11	88.4082	1,516.11	93.6126	1,516.11	95.7289	1,516.11	81.8721	1,516.11	91.1174	1,516.11	92.21	1,516.11	91.6314	1,516.11	91.7361	1,516.11	93.1618	1,516.11	84.4631	1,516.11	75.371
1,568.85	105.994	1,568.85	106.453	1,568.85	106.117	1,568.85	106.84	1,568.85	107.518	1,568.85	106.863	1,568.85	108.161	1,568.85	105.968	1,568.85	106.681	1,568.85	104.216	1,568.85	104.116	1,568.85	101.738	1,568.85	101.559	1,568.85	97.2477	1,568.85	98.5826	1,568.85	97.183	1,568.85	97.6692	1,568.85	96.5436	1,568.85	98.8531	1,568.85	94.7442	1,568.85	93.6141	1,568.85	90.7409	1,568.85	90.7641	1,568.85	89.4736	1,568.85	86.9498	1,568.85	95.9459	1,568.85	81.8896	1,568.85	90.4596	1,568.85	94.0518	1,568.85	94.6154	1,568.85	90.9055	1,568.85	94.3992	1,568.85	92.6929	1,568.85	92.1777	1,568.85	91.5348	1,568.85	80.1212
1,624.51	105.827	1,624.51	105.938	1,624.51	105.788	1,624.51	106.65	1,624.51	106.502	1,624.51	106.24	1,624.51	108.295	1,624.51	105.543	1,624.51	107.318	1,624.51	103.07	1,624.51	104.189	1,624.51	100.077	1,624.51	99.7294	1,624.51	94.8028	1,624.51	95.43	1,624.51	92.9594	1,624.51	96.0891	1,624.51	92.2849	1,624.51	91.8084	1,624.51	88.5362	1,624.51	91.5132	1,624.51	86.5919	1,624.51	94.238	1,624.51	91.5934	1,624.51	89.342	1,624.51	92.3621	1,624.51	98.874	1,624.51	87.7112	1,624.51	90.66	1,624.51	92.305	1,624.51	90.7261	1,624.51	85.1648	1,624.51	82.1696	1,624.51	86.188	1,624.51	84.0439	1,624.51	87.407
1,681.64	106.47	1,681.64	107.014	1,681.64	105.624	1,681.64	105.778	1,681.64	106.649	1,681.64	106.718	1,681.64	107.061	1,681.64	105.306	1,681.64	106.4	1,681.64	102.701	1,681.64	105.356	1,681.64	98.4026	1,681.64	103.74	1,681.64	98.3058	1,681.64	99.0963	1,681.64	100.007	1,681.64	96.1566	1,681.64	98.1884	1,681.64	94.6046	1,681.64	93.7937	1,681.64	90.4417	1,681.64	90.7516	1,681.64	91.1692	1,681.64	90.7495	1,681.64	95.7201	1,681.64	82.4747	1,681.64	88.9602	1,681.64	84.5231	1,681.64	96.0449	1,681.64	92.2473	1,681.64	91.9684	1,681.64	91.6468	1,681.64	92.2672	1,681.64	83.9606	1,681.64	95.0789	1,681.64	87.393
1,741.7	107.034	1,741.7	107.615	1,741.7	107.156	1,741.7	107.23	1,741.7	107.298	1,741.7	105.568	1,741.7	106.375	1,741.7	104.543	1,741.7	105.615	1,741.7	103.808	1,741.7	105.07	1,741.7	100.864	1,741.7	102.383	1,741.7	98.3613	1,741.7	100.258	1,741.7	97.638	1,741.7	94.6791	1,741.7	95.4246	1,741.7	92.4126	1,741.7	95.6091	1,741.7	96.051	1,741.7	85.5458	1,741.7	94.09	1,741.7	90.0387	1,741.7	87.5083	1,741.7	91.9175	1,741.7	88.2229	1,741.7	93.5843	1,741.7	92.3629	1,741.7	92.6361	1,741.7	93.9148	1,741.7	92.0685	1,741.7	92.0885	1,741.7	86.1586	1,741.7	82.1187	1,741.7	67.2723
1,803.22	107.51	1,803.22	107.698	1,803.22	107.005	1,803.22	107.657	1,803.22	108.012	1,803.22	106.601	1,803.22	107.125	1,803.22	104.79	1,803.22	105.388	1,803.22	103.579	1,803.22	104.318	1,803.22	102.774	1,803.22	103.204	1,803.22	100.095	1,803.22	100.023	1,803.22	97.4173	1,803.22	96.2209	1,803.22	94.0751	1,803.22	90.6608	1,803.22	90.3607	1,803.22	92.2185	1,803.22	91.2821	1,803.22	91.2461	1,803.22	87.5725	1,803.22	91.2425	1,803.22	86.272	1,803.22	92.7108	1,803.22	89.4634	1,803.22	93.2244	1,803.22	87.7069	1,803.22	94.7875	1,803.22	86.2961	1,803.22	91.164	1,803.22	88.4905	1,803.22	87.1141	1,803.22	82.9324
1,866.21	107.258	1,866.21	106.982	1,866.21	106.481	1,866.21	107.003	1,866.21	107.359	1,866.21	106.429	1,866.21	107.654	1,866.21	104.614	1,866.21	106.14	1,866.21	103.849	1,866.21	104.329	1,866.21	102.176	1,866.21	103.261	1,866.21	99.7114	1,866.21	100.51	1,866.21	96.9975	1,866.21	96.1077	1,866.21	91.1697	1,866.21	90.7023	1,866.21	90.4616	1,866.21	76.9762	1,866.21	88.3744	1,866.21	87.9361	1,866.21	84.6557	1,866.21	86.9733	1,866.21	85.8844	1,866.21	91.6835	1,866.21	84.5268	1,866.21	90.3292	1,866.21	85.5131	1,866.21	91.9747	1,866.21	86.1441	1,866.21	88.2885	1,866.21	81.5437	1,866.21	76.1377	1,866.21	87.3701
1,932.13	106.776	1,932.13	105.915	1,932.13	106.079	1,932.13	106.699	1,932.13	105.561	1,932.13	106.717	1,932.13	107.043	1,932.13	105.385	1,932.13	106.008	1,932.13	103.506	1,932.13	104.894	1,932.13	101.891	1,932.13	103.106	1,932.13	98.5134	1,932.13	100.515	1,932.13	93.7912	1,932.13	96.5767	1,932.13	93.4569	1,932.13	92.5949	1,932.13	90.5782	1,932.13	85.5004	1,932.13	84.7327	1,932.13	78.1944	1,932.13	86.1507	1,932.13	82.6653	1,932.13	82.6987	1,932.13	87.1395	1,932.13	86.4405	1,932.13	87.7952	1,932.13	86.334	1,932.13	89.6329	1,932.13	85.9657	1,932.13	86.5814	1,932.13	82.7895	1,932.13	85.8905	1,932.13	79.3945
1,999.51	106.675	1,999.51	105.665	1,999.51	106.188	1,999.51	105.726	1,999.51	104.697	1,999.51	105.838	1,999.51	105.78	1,999.51	106.285	1,999.51	105.843	1,999.51	103.367	1,999.51	104.532	1,999.51	101.433	1,999.51	102.678	1,999.51	99.0811	1,999.51	99.6832	1,999.51	95.6521	1,999.51	98.1635	1,999.51	89.9254	1,999.51	92.0581	1,999.51	86.8328	1,999.51	79.9751	1,999.51	85.4869	1,999.51	78.5217	1,999.51	86.3211	1,999.51	86.9318	1,999.51	84.9829	1,999.51	86.5278	1,999.51	86.3385	1,999.51	85.3326	1,999.51	88.4576	1,999.51	90.2381	1,999.51	87.4653	1,999.51	84.8076	1,999.51	84.078	1,999.51	86.1445	1,999.51	82.1333
2,069.82	106.655	2,069.82	106.222	2,069.82	106.369	2,069.82	104.38	2,069.82	105.086	2,069.82	105.338	2,069.82	105.493	2,069.82	105.539	2,069.82	105.655	2,069.82	103.559	2,069.82	104.154	2,069.82	101.318	2,069.82	102.389	2,069.82	100.024	2,069.82	98.9125	2,069.82	96.2201	2,069.82	95.938	2,069.82	91.0024	2,069.82	95.0695	2,069.82	88.4414	2,069.82	87.6449	2,069.82	89.3988	2,069.82	76.3618	2,069.82	83.2086	2,069.82	82.3103	2,069.82	82.6523	2,069.82	83.7701	2,069.82	87.8942	2,069.82	86.2943	2,069.82	85.2619	2,069.82	88.5946	2,069.82	86.083	2,069.82	87.0301	2,069.82	83.0349	2,069.82	85.1278	2,069.82	79.9433
2,143.07	106.837	2,143.07	106.408	2,143.07	106.692	2,143.07	105.134	2,143.07	105.533	2,143.07	104.318	2,143.07	104.323	2,143.07	104.354	2,143.07	104.932	2,143.07	103.538	2,143.07	103.76	2,143.07	100.512	2,143.07	101.578	2,143.07	97.2085	2,143.07	99.3126	2,143.07	96.5907	2,143.07	93.938	2,143.07	92.7386	2,143.07	93.6178	2,143.07	89.1788	2,143.07	89.8051	2,143.07	86.5317	2,143.07	87.2398	2,143.07	82.5081	2,143.07	70.4991	2,143.07	80.8682	2,143.07	78.1839	2,143.07	84.7976	2,143.07	86.5182	2,143.07	82.9711	2,143.07	87.5667	2,143.07	85.6049	2,143.07	85.6851	2,143.07	80.0674	2,143.07	84.5847	2,143.07	69.6669
2,219.24	106.166	2,219.24	105.319	2,219.24	106.285	2,219.24	105.654	2,219.24	105.441	2,219.24	104.517	2,219.24	104.288	2,219.24	103.698	2,219.24	103.882	2,219.24	103.191	2,219.24	103.427	2,219.24	99.0933	2,219.24	100.958	2,219.24	97.8499	2,219.24	99.2426	2,219.24	94.0561	2,219.24	92.1949	2,219.24	93.0488	2,219.24	89.9793	2,219.24	87.0355	2,219.24	92.7744	2,219.24	82.9157	2,219.24	91.0777	2,219.24	80.7676	2,219.24	84.2051	2,219.24	82.1351	2,219.24	85.2744	2,219.24	85.3513	2,219.24	87.5576	2,219.24	85.5105	2,219.24	85.8636	2,219.24	84.4856	2,219.24	85.5377	2,219.24	80.8114	2,219.24	84.1161	2,219.24	80.0056
2,296.88	105.324	2,296.88	105.052	2,296.88	105.853	2,296.88	105.913	2,296.88	105.687	2,296.88	106.023	2,296.88	106.056	2,296.88	104.28	2,296.88	104.941	2,296.88	102.268	2,296.88	103.251	2,296.88	101.151	2,296.88	100.555	2,296.88	97.6835	2,296.88	97.2582	2,296.88	96.36	2,296.88	96.5086	2,296.88	93.1461	2,296.88	85.504	2,296.88	89.171	2,296.88	91.0953	2,296.88	89.7109	2,296.88	92.1671	2,296.88	84.0993	2,296.88	86.8845	2,296.88	82.3155	2,296.88	85.5152	2,296.88	85.5516	2,296.88	89.0688	2,296.88	87.1399	2,296.88	88.7561	2,296.88	83.2745	2,296.88	87.8718	2,296.88	79.6722	2,296.88	80.6925	2,296.88	69.6474
2,378.91	105.77	2,378.91	105.511	2,378.91	105.201	2,378.91	104.459	2,378.91	104.363	2,378.91	106.475	2,378.91	106.032	2,378.91	104.206	2,378.91	106.156	2,378.91	102.496	2,378.91	103.486	2,378.91	101.766	2,378.91	101.107	2,378.91	98.9837	2,378.91	98.7449	2,378.91	94.4087	2,378.91	97.8557	2,378.91	93.6301	2,378.91	92.9931	2,378.91	88.2539	2,378.91	86.7176	2,378.91	86.7868	2,378.91	88.9487	2,378.91	86.4638	2,378.91	88.1006	2,378.91	79.9891	2,378.91	86.6946	2,378.91	84.8018	2,378.91	90.019	2,378.91	84.4932	2,378.91	89.4443	2,378.91	85.0292	2,378.91	86.9386	2,378.91	76.7083	2,378.91	83.3091	2,378.91	84.7505
2,462.4	107.821	2,462.4	106.961	2,462.4	106.609	2,462.4	105.335	2,462.4	105.065	2,462.4	106.262	2,462.4	105.352	2,462.4	105.843	2,462.4	106.325	2,462.4	102.752	2,462.4	104.019	2,462.4	101.228	2,462.4	101.536	2,462.4	97.9774	2,462.4	99.1529	2,462.4	95.1028	2,462.4	95.7131	2,462.4	93.998	2,462.4	94.2851	2,462.4	86.1934	2,462.4	87.324	2,462.4	89.4617	2,462.4	87.8786	2,462.4	80.6639	2,462.4	82.5506	2,462.4	73.3629	2,462.4	87.9256	2,462.4	85.5786	2,462.4	89.7512	2,462.4	87.0969	2,462.4	87.7521	2,462.4	85.0464	2,462.4	85.5885	2,462.4	77.6184	2,462.4	81.7227	2,462.4	84.926
2,548.83	107.457	2,548.83	107.484	2,548.83	107.714	2,548.83	107.234	2,548.83	106.797	2,548.83	105.037	2,548.83	104.624	2,548.83	106.222	2,548.83	105.303	2,548.83	103.823	2,548.83	103.565	2,548.83	101.289	2,548.83	101.437	2,548.83	97.9784	2,548.83	97.1134	2,548.83	94.0355	2,548.83	93.9128	2,548.83	87.6429	2,548.83	96.8004	2,548.83	89.5684	2,548.83	91.366	2,548.83	89.4248	2,548.83	85.718	2,548.83	82.8088	2,548.83	81.985	2,548.83	83.494	2,548.83	86.2032	2,548.83	87.774	2,548.83	89.7926	2,548.83	87.9549	2,548.83	89.775	2,548.83	81.6985	2,548.83	87.5285	2,548.83	69.0341	2,548.83	74.74	2,548.83	81.1555
2,639.65	105.953	2,639.65	106.963	2,639.65	106.954	2,639.65	107.353	2,639.65	108.537	2,639.65	105.167	2,639.65	105.829	2,639.65	105.336	2,639.65	104.481	2,639.65	105.253	2,639.65	105.06	2,639.65	100.836	2,639.65	103.26	2,639.65	100.696	2,639.65	98.6395	2,639.65	95.6819	2,639.65	92.5838	2,639.65	92.2091	2,639.65	89.9814	2,639.65	87.3252	2,639.65	91.0751	2,639.65	84.8043	2,639.65	78.8547	2,639.65	77.5422	2,639.65	85.5914	2,639.65	81.1578	2,639.65	83.8889	2,639.65	85.4048	2,639.65	86.4958	2,639.65	83.7175	2,639.65	86.7567	2,639.65	83.0894	2,639.65	87.3215	2,639.65	80.7073	2,639.65	77.049	2,639.65	85.9069
2,731.93	105.155	2,731.93	106.026	2,731.93	105.507	2,731.93	105.559	2,731.93	106.983	2,731.93	105.495	2,731.93	106.097	2,731.93	103.893	2,731.93	104.343	2,731.93	103.829	2,731.93	103.913	2,731.93	102.375	2,731.93	101.762	2,731.93	97.2992	2,731.93	99.0538	2,731.93	95.4999	2,731.93	96.4805	2,731.93	91.2751	2,731.93	85.7889	2,731.93	86.1568	2,731.93	87.3281	2,731.93	86.6208	2,731.93	84.8887	2,731.93	71.1992	2,731.93	82.6668	2,731.93	79.2288	2,731.93	80.3868	2,731.93	82.4672	2,731.93	84.7298	2,731.93	81.0877	2,731.93	88.1099	2,731.93	82.2652	2,731.93	86.6793	2,731.93	74.101	2,731.93	77.525	2,731.93	83.2825
2,828.61	106.165	2,828.61	106.353	2,828.61	105.709	2,828.61	105.566	2,828.61	105.135	2,828.61	105.411	2,828.61	105.803	2,828.61	104.446	2,828.61	104.711	2,828.61	103.188	2,828.61	103.011	2,828.61	102.322	2,828.61	100.176	2,828.61	97.5597	2,828.61	97.6557	2,828.61	94.4594	2,828.61	96.9465	2,828.61	91.0704	2,828.61	85.5801	2,828.61	87.6744	2,828.61	87.5676	2,828.61	82.4052	2,828.61	82.7516	2,828.61	77.9029	2,828.61	83.8128	2,828.61	81.0812	2,828.61	84.0228	2,828.61	81.7981	2,828.61	86.258	2,828.61	82.2684	2,828.61	86.4027	2,828.61	82.7533	2,828.61	84.9943	2,828.61	67.6256	2,828.61	73.6748	2,828.61	78.2182
2,928.22	106.757	2,928.22	107.193	2,928.22	106.197	2,928.22	106.447	2,928.22	105.601	2,928.22	105.119	2,928.22	105.239	2,928.22	104.752	2,928.22	104.822	2,928.22	103.149	2,928.22	102.928	2,928.22	101.267	2,928.22	99.744	2,928.22	98.9946	2,928.22	97.0323	2,928.22	95.9192	2,928.22	95.3003	2,928.22	90.2068	2,928.22	87.9352	2,928.22	88.354	2,928.22	89.0596	2,928.22	82.0627	2,928.22	83.815	2,928.22	80.7387	2,928.22	78.452	2,928.22	78.4616	2,928.22	77.2005	2,928.22	80.8296	2,928.22	85.5928	2,928.22	83.9389	2,928.22	87.6537	2,928.22	80.3776	2,928.22	84.8389	2,928.22	75.1463	2,928.22	67.7129	2,928.22	84.947
3,030.76	107.003	3,030.76	106.877	3,030.76	106.45	3,030.76	106.467	3,030.76	105.838	3,030.76	104.912	3,030.76	104.062	3,030.76	104.145	3,030.76	104.479	3,030.76	101.83	3,030.76	103.129	3,030.76	100.613	3,030.76	99.3344	3,030.76	97.3084	3,030.76	98.1313	3,030.76	93.7996	3,030.76	93.2787	3,030.76	88.476	3,030.76	92.8062	3,030.76	87.2201	3,030.76	93.7412	3,030.76	83.5856	3,030.76	74.9531	3,030.76	84.0768	3,030.76	73.6279	3,030.76	78.351	3,030.76	80.5942	3,030.76	80.9944	3,030.76	82.0882	3,030.76	85.7635	3,030.76	86.0159	3,030.76	83.5927	3,030.76	85.3078	3,030.76	68.4506	3,030.76	67.7834	3,030.76	80.3541
3,137.7	106.046	3,137.7	106.069	3,137.7	106.643	3,137.7	106.303	3,137.7	105.745	3,137.7	105.267	3,137.7	103.774	3,137.7	104.076	3,137.7	103.584	3,137.7	102.774	3,137.7	102.592	3,137.7	100.044	3,137.7	98.2418	3,137.7	96.6191	3,137.7	98.4255	3,137.7	93.2254	3,137.7	93.9488	3,137.7	93.2498	3,137.7	93.8071	3,137.7	86.3203	3,137.7	91.3982	3,137.7	87.1434	3,137.7	79.0501	3,137.7	82.2149	3,137.7	68.7594	3,137.7	76.9717	3,137.7	74.0304	3,137.7	76.0697	3,137.7	82.9195	3,137.7	84.5922	3,137.7	85.9861	3,137.7	86.3528	3,137.7	84.26	3,137.7	74.6873	3,137.7	67.3491	3,137.7	80.0406
3,249.02	105.623	3,249.02	105.616	3,249.02	106.023	3,249.02	105.233	3,249.02	105.588	3,249.02	104.803	3,249.02	104.881	3,249.02	103.462	3,249.02	103.381	3,249.02	102.392	3,249.02	101.445	3,249.02	100.619	3,249.02	99.31	3,249.02	97.753	3,249.02	99.1933	3,249.02	94.2673	3,249.02	96.3812	3,249.02	89.1287	3,249.02	93.961	3,249.02	84.6915	3,249.02	90.2121	3,249.02	82.953	3,249.02	79.1893	3,249.02	75.0887	3,249.02	73.3319	3,249.02	76.8471	3,249.02	77.7234	3,249.02	81.8884	3,249.02	75.7823	3,249.02	79.9342	3,249.02	84.4041	3,249.02	83.3053	3,249.02	83.5495	3,249.02	72.2983	3,249.02	70.3763	3,249.02	83.2885
3,363.28	105.975	3,363.28	106.045	3,363.28	106.138	3,363.28	105.377	3,363.28	105.272	3,363.28	104.258	3,363.28	104.87	3,363.28	103.35	3,363.28	102.788	3,363.28	101.797	3,363.28	100.191	3,363.28	99.2481	3,363.28	100.937	3,363.28	96.3274	3,363.28	98.9475	3,363.28	91.3232	3,363.28	95.5501	3,363.28	91.0771	3,363.28	95.4669	3,363.28	84.6719	3,363.28	81.9743	3,363.28	85.4915	3,363.28	81.4748	3,363.28	80.9009	3,363.28	70.9678	3,363.28	75.1578	3,363.28	80.3682	3,363.28	82.0295	3,363.28	80.3936	3,363.28	83.164	3,363.28	84.2321	3,363.28	77.8868	3,363.28	77.4242	3,363.28	73.7747	3,363.28	73.8396	3,363.28	78.5851
3,481.93	106.629	3,481.93	106.533	3,481.93	106.035	3,481.93	105.986	3,481.93	106.086	3,481.93	104.814	3,481.93	104.828	3,481.93	102.866	3,481.93	102.451	3,481.93	101.88	3,481.93	99.601	3,481.93	101.152	3,481.93	101.756	3,481.93	95.7273	3,481.93	96.4456	3,481.93	94.272	3,481.93	96.1718	3,481.93	88.18	3,481.93	92.6612	3,481.93	85.4957	3,481.93	86.6291	3,481.93	80.3272	3,481.93	84.676	3,481.93	76.0265	3,481.93	71.528	3,481.93	78.087	3,481.93	80.0485	3,481.93	62.1935	3,481.93	83.0108	3,481.93	79.0762	3,481.93	82.3503	3,481.93	80.5331	3,481.93	79.4149	3,481.93	67.3315	3,481.93	75.7883	3,481.93	72.3608
3,604.98	106.81	3,604.98	105.768	3,604.98	105.181	3,604.98	105.959	3,604.98	105.739	3,604.98	104.592	3,604.98	105.276	3,604.98	102.655	3,604.98	102.036	3,604.98	101.114	3,604.98	101.567	3,604.98	99.5224	3,604.98	101.751	3,604.98	97.244	3,604.98	96.583	3,604.98	89.6455	3,604.98	93.3258	3,604.98	88.0034	3,604.98	87.2606	3,604.98	81.5235	3,604.98	84.8023	3,604.98	76.4042	3,604.98	84.0895	3,604.98	81.9968	3,604.98	65.2157	3,604.98	73.734	3,604.98	79.3779	3,604.98	82.1963	3,604.98	82.0784	3,604.98	79.3379	3,604.98	80.4345	3,604.98	78.9728	3,604.98	80.3594	3,604.98	57.8086	3,604.98	68.9287	3,604.98	75.8049
3,732.42	107.41	3,732.42	105.967	3,732.42	106.813	3,732.42	105.666	3,732.42	104.917	3,732.42	104.823	3,732.42	104.752	3,732.42	102.593	3,732.42	101.85	3,732.42	101.787	3,732.42	101.52	3,732.42	98.7879	3,732.42	101.082	3,732.42	96.1579	3,732.42	94.002	3,732.42	91.5731	3,732.42	92.7612	3,732.42	88.5797	3,732.42	81.6636	3,732.42	80.5517	3,732.42	86.179	3,732.42	82.1167	3,732.42	81.6836	3,732.42	81.2767	3,732.42	75.4507	3,732.42	81.7917	3,732.42	77.7221	3,732.42	72.346	3,732.42	83.195	3,732.42	80.9143	3,732.42	81.6772	3,732.42	81.6286	3,732.42	79.6093	3,732.42	66.3415	3,732.42	73.5415	3,732.42	75.1008
3,864.26	106.337	3,864.26	105.854	3,864.26	106.663	3,864.26	105.552	3,864.26	106.539	3,864.26	104.61	3,864.26	104.398	3,864.26	102.724	3,864.26	103.605	3,864.26	100.581	3,864.26	102.288	3,864.26	98.8086	3,864.26	100.226	3,864.26	95.2051	3,864.26	97.3161	3,864.26	93.1686	3,864.26	89.5716	3,864.26	86.4938	3,864.26	84.7643	3,864.26	88.4687	3,864.26	80.1644	3,864.26	85.1271	3,864.26	65.6594	3,864.26	79.855	3,864.26	75.0121	3,864.26	81.6389	3,864.26	72.8613	3,864.26	80.1538	3,864.26	80.3519	3,864.26	77.2885	3,864.26	82.0454	3,864.26	79.539	3,864.26	80.1574	3,864.26	68.8355	3,864.26	75.0788	3,864.26	76.083
4,000.49	106.09	4,000.49	106.162	4,000.49	105.192	4,000.49	105.295	4,000.49	106.138	4,000.49	104.013	4,000.49	104.763	4,000.49	102.562	4,000.49	103.416	4,000.49	99.8696	4,000.49	102.807	4,000.49	99.7323	4,000.49	99.5661	4,000.49	96.0492	4,000.49	95.6732	4,000.49	91.0616	4,000.49	90.3186	4,000.49	90.6946	4,000.49	89.223	4,000.49	87.3938	4,000.49	89.0617	4,000.49	74.357	4,000.49	85.643	4,000.49	78.0138	4,000.49	73.8363	4,000.49	72.6198	4,000.49	61.0948	4,000.49	78.4844	4,000.49	82.5527	4,000.49	74.7314	4,000.49	81.476	4,000.49	77.3875	4,000.49	78.7383	4,000.49	72.2202	4,000.49	72.4549	4,000.49	75.997
4,141.11	106.773	4,141.11	106.139	4,141.11	106.495	4,141.11	104.657	4,141.11	105.327	4,141.11	104.46	4,141.11	105.694	4,141.11	101.443	4,141.11	103.404	4,141.11	100.485	4,141.11	102.011	4,141.11	96.6675	4,141.11	98.5639	4,141.11	94.6856	4,141.11	90.8967	4,141.11	89.8535	4,141.11	90.2593	4,141.11	85.3025	4,141.11	90.6717	4,141.11	77.0436	4,141.11	91.5204	4,141.11	81.2406	4,141.11	87.1422	4,141.11	81.6061	4,141.11	72.0175	4,141.11	80.2844	4,141.11	67.795	4,141.11	76.2969	4,141.11	83.9168	4,141.11	80.8029	4,141.11	79.086	4,141.11	81.7894	4,141.11	77.7928	4,141.11	62.7416	4,141.11	61.5795	4,141.11	72.6709
4,287.6	106.796	4,287.6	106.716	4,287.6	107.071	4,287.6	105.519	4,287.6	105.357	4,287.6	104.809	4,287.6	105.674	4,287.6	101.608	4,287.6	104.239	4,287.6	99.6264	4,287.6	101.971	4,287.6	99.3128	4,287.6	96.8187	4,287.6	94.4451	4,287.6	95.2588	4,287.6	89.6283	4,287.6	91.8965	4,287.6	87.1362	4,287.6	91.6767	4,287.6	85.2562	4,287.6	88.5408	4,287.6	83.5541	4,287.6	81.911	4,287.6	78.423	4,287.6	63.8397	4,287.6	73.9749	4,287.6	65.8272	4,287.6	77.9784	4,287.6	78.072	4,287.6	77.8838	4,287.6	81.5655	4,287.6	80.6137	4,287.6	78.4065	4,287.6	70.9534	4,287.6	63.594	4,287.6	76.8166
4,438.48	106.749	4,438.48	106.666	4,438.48	106.921	4,438.48	104.802	4,438.48	105.634	4,438.48	104.055	4,438.48	105.49	4,438.48	102.102	4,438.48	103.955	4,438.48	99.4651	4,438.48	101.059	4,438.48	97.9724	4,438.48	94.3451	4,438.48	95.0554	4,438.48	98.765	4,438.48	91.6539	4,438.48	94.743	4,438.48	86.9238	4,438.48	89.8643	4,438.48	82.1396	4,438.48	75.9605	4,438.48	73.8415	4,438.48	77.7551	4,438.48	80.2832	4,438.48	75.8022	4,438.48	66.5022	4,438.48	81.2854	4,438.48	77.5845	4,438.48	79.6605	4,438.48	74.4724	4,438.48	81.8979	4,438.48	76.4392	4,438.48	79.2443	4,438.48	68.4731	4,438.48	68.0036	4,438.48	79.0984
4,595.21	106.249	4,595.21	106.13	4,595.21	107.358	4,595.21	104.994	4,595.21	106.063	4,595.21	104.028	4,595.21	105.724	4,595.21	101.203	4,595.21	104.707	4,595.21	99.1924	4,595.21	99.7234	4,595.21	96.4286	4,595.21	98.5839	4,595.21	94.6476	4,595.21	99.8098	4,595.21	90.6608	4,595.21	97.0672	4,595.21	87.187	4,595.21	90.3997	4,595.21	82.9031	4,595.21	82.0502	4,595.21	77.265	4,595.21	83.9116	4,595.21	78.8123	4,595.21	77.7329	4,595.21	78.9498	4,595.21	84.41	4,595.21	73.9844	4,595.21	81.5332	4,595.21	77.9216	4,595.21	79.0764	4,595.21	80.7206	4,595.21	75.1194	4,595.21	70.1386	4,595.21	73.3087	4,595.21	68.0281
4,756.35	107.368	4,756.35	106.561	4,756.35	106.492	4,756.35	105.977	4,756.35	106.13	4,756.35	103.513	4,756.35	105.592	4,756.35	101.714	4,756.35	103.891	4,756.35	99.2875	4,756.35	99.7516	4,756.35	97.3782	4,756.35	101.158	4,756.35	94.1127	4,756.35	98.7262	4,756.35	91.6066	4,756.35	95.0491	4,756.35	84.3532	4,756.35	85.1605	4,756.35	85.9829	4,756.35	89.8884	4,756.35	62.988	4,756.35	76.6808	4,756.35	70.8793	4,756.35	83.0349	4,756.35	79.5733	4,756.35	83.2841	4,756.35	74.8909	4,756.35	82.8429	4,756.35	75.0616	4,756.35	79.07	4,756.35	77.8645	4,756.35	81.4817	4,756.35	74.3162	4,756.35	69.7313	4,756.35	75.1884
4,924.8	107.269	4,924.8	106.476	4,924.8	107.128	4,924.8	104.847	4,924.8	105.863	4,924.8	103.915	4,924.8	103.977	4,924.8	101.12	4,924.8	103.997	4,924.8	97.3084	4,924.8	98.8634	4,924.8	97.5703	4,924.8	102.046	4,924.8	93.7509	4,924.8	96.215	4,924.8	89.4306	4,924.8	90.311	4,924.8	87.0762	4,924.8	87.8207	4,924.8	78.7391	4,924.8	88.1102	4,924.8	81.573	4,924.8	84.9821	4,924.8	78.6725	4,924.8	83.5616	4,924.8	81.5395	4,924.8	76.8577	4,924.8	73.3134	4,924.8	80.4488	4,924.8	74.2379	4,924.8	77.2277	4,924.8	78.2796	4,924.8	79.6373	4,924.8	63.6423	4,924.8	66.9615	4,924.8	73.9848
5,097.66	106.708	5,097.66	105.916	5,097.66	106.685	5,097.66	105.21	5,097.66	106.993	5,097.66	103.457	5,097.66	103.516	5,097.66	101.055	5,097.66	103.049	5,097.66	99.0803	5,097.66	99.2937	5,097.66	96.2216	5,097.66	101.464	5,097.66	93.9025	5,097.66	94.7114	5,097.66	87.1613	5,097.66	90.7048	5,097.66	86.404	5,097.66	90.1222	5,097.66	81.8657	5,097.66	89.3943	5,097.66	80.4536	5,097.66	87.632	5,097.66	72.2937	5,097.66	80.2858	5,097.66	80.3873	5,097.66	77.2658	5,097.66	70.6374	5,097.66	79.0923	5,097.66	78.3513	5,097.66	77.4289	5,097.66	78.644	5,097.66	77.7275	5,097.66	65.2287	5,097.66	61.4907	5,097.66	73.781
5,277.83	107.165	5,277.83	106.992	5,277.83	107.016	5,277.83	104.992	5,277.83	106.431	5,277.83	104.515	5,277.83	105.518	5,277.83	101.465	5,277.83	102.486	5,277.83	97.939	5,277.83	101.543	5,277.83	97.1084	5,277.83	99.5641	5,277.83	94.8354	5,277.83	93.8475	5,277.83	90.6386	5,277.83	91.8113	5,277.83	84.127	5,277.83	88.5323	5,277.83	82.2831	5,277.83	87.0712	5,277.83	69.6811	5,277.83	85.871	5,277.83	71.2886	5,277.83	78.6152	5,277.83	75.9293	5,277.83	78.4265	5,277.83	77.0907	5,277.83	75.6335	5,277.83	73.0483	5,277.83	79.0193	5,277.83	73.0413	5,277.83	74.1199	5,277.83	71.3559	5,277.83	54.586	5,277.83	68.4476
5,463.87	106.892	5,463.87	106.709	5,463.87	107.135	5,463.87	104.919	5,463.87	106.402	5,463.87	103.614	5,463.87	106.878	5,463.87	101.569	5,463.87	103.539	5,463.87	98.8456	5,463.87	102.96	5,463.87	96.4191	5,463.87	98.1209	5,463.87	94.0861	5,463.87	96.0778	5,463.87	87.5254	5,463.87	91.6666	5,463.87	84.1114	5,463.87	88.173	5,463.87	82.6163	5,463.87	79.899	5,463.87	71.6226	5,463.87	67.3805	5,463.87	72.6484	5,463.87	77.1572	5,463.87	73.0026	5,463.87	70.4078	5,463.87	76.7441	5,463.87	81.8167	5,463.87	71.8171	5,463.87	73.7574	5,463.87	78.1035	5,463.87	77.6389	5,463.87	66.5418	5,463.87	68.5304	5,463.87	64.3072
5,657.23	107.523	5,657.23	106.503	5,657.23	107.608	5,657.23	104.989	5,657.23	106.961	5,657.23	103.693	5,657.23	105.704	5,657.23	101.961	5,657.23	104.486	5,657.23	97.9926	5,657.23	103.499	5,657.23	97.28	5,657.23	96.715	5,657.23	93.7987	5,657.23	98.3836	5,657.23	89.227	5,657.23	91.6821	5,657.23	85.731	5,657.23	80.839	5,657.23	82.4124	5,657.23	75.1675	5,657.23	76.5747	5,657.23	77.1148	5,657.23	73.8886	5,657.23	81.1447	5,657.23	67.2703	5,657.23	76.2983	5,657.23	76.7425	5,657.23	82.8299	5,657.23	73.0056	5,657.23	77.8331	5,657.23	78.3375	5,657.23	76.9561	5,657.23	73.7564	5,657.23	66.7735	5,657.23	60.7103
5,856.45	107.091	5,856.45	106.784	5,856.45	107.188	5,856.45	105.032	5,856.45	105.968	5,856.45	102.943	5,856.45	104.108	5,856.45	100.787	5,856.45	105.063	5,856.45	98.3345	5,856.45	103.321	5,856.45	96.1385	5,856.45	98.1138	5,856.45	94.8544	5,856.45	98.0201	5,856.45	87.2689	5,856.45	94.6069	5,856.45	86.1047	5,856.45	89.4599	5,856.45	79.9815	5,856.45	81.4835	5,856.45	73.876	5,856.45	73.0444	5,856.45	75.1609	5,856.45	79.9447	5,856.45	71.7867	5,856.45	75.3069	5,856.45	70.2613	5,856.45	79.6395	5,856.45	79.5457	5,856.45	68.4864	5,856.45	75.7402	5,856.45	72.7771	5,856.45	69.628	5,856.45	71.4781	5,856.45	70.5628
6,062.99	107.189	6,062.99	106.469	6,062.99	107.052	6,062.99	104.914	6,062.99	106.345	6,062.99	103.083	6,062.99	104.921	6,062.99	101.184	6,062.99	105.596	6,062.99	98.9493	6,062.99	102.112	6,062.99	95.2729	6,062.99	99.3332	6,062.99	93.2788	6,062.99	98.2329	6,062.99	89.0678	6,062.99	95.7727	6,062.99	82.8576	6,062.99	90.2647	6,062.99	77.5277	6,062.99	84.9184	6,062.99	78.331	6,062.99	82.7233	6,062.99	68.7916	6,062.99	73.436	6,062.99	64.9085	6,062.99	68.2718	6,062.99	75.8977	6,062.99	75.7528	6,062.99	63.8392	6,062.99	69.2275	6,062.99	70.6119	6,062.99	64.2825	6,062.99	64.0059	6,062.99	61.8295	6,062.99	68.2337
6,276.86	107.201	6,276.86	106.284	6,276.86	107.131	6,276.86	104.693	6,276.86	107.739	6,276.86	103.17	6,276.86	105.395	6,276.86	100.39	6,276.86	104.191	6,276.86	97.7673	6,276.86	99.8304	6,276.86	96.0459	6,276.86	98.1575	6,276.86	93.673	6,276.86	97.1935	6,276.86	88.2993	6,276.86	94.7979	6,276.86	84.3861	6,276.86	90.0783	6,276.86	78.2575	6,276.86	88.0559	6,276.86	77.1934	6,276.86	83.1904	6,276.86	69.7228	6,276.86	79.5538	6,276.86	78.0309	6,276.86	76.4626	6,276.86	77.7015	6,276.86	70.8651	6,276.86	78.1679	6,276.86	76.1285	6,276.86	72.3399	6,276.86	70.9576	6,276.86	66.6258	6,276.86	44.4604	6,276.86	66.4786
6,498.05	107.318	6,498.05	106.666	6,498.05	106.799	6,498.05	104.741	6,498.05	105.85	6,498.05	102.964	6,498.05	105.678	6,498.05	101.106	6,498.05	101.931	6,498.05	99.1949	6,498.05	101.048	6,498.05	94.7548	6,498.05	99.3899	6,498.05	92.2597	6,498.05	96.7017	6,498.05	89.0365	6,498.05	89.9747	6,498.05	85.5548	6,498.05	81.8647	6,498.05	77.8592	6,498.05	88.1353	6,498.05	77.6837	6,498.05	86.0024	6,498.05	69.3451	6,498.05	81.341	6,498.05	63.3556	6,498.05	60.5242	6,498.05	76.5193	6,498.05	60.1707	6,498.05	54.7816	6,498.05	77.3887	6,498.05	64.0342	6,498.05	75.7875	6,498.05	69.0653	6,498.05	66.1482	6,498.05	68.2617
6,726.56	107.524	6,726.56	106.566	6,726.56	107.528	6,726.56	104.313	6,726.56	105.415	6,726.56	102.728	6,726.56	104.944	6,726.56	100.838	6,726.56	102.941	6,726.56	98.7875	6,726.56	100.86	6,726.56	94.821	6,726.56	100.024	6,726.56	92.4149	6,726.56	95.2496	6,726.56	88.3715	6,726.56	88.0611	6,726.56	85.4335	6,726.56	82.8101	6,726.56	79.7286	6,726.56	84.9267	6,726.56	74.5667	6,726.56	86.938	6,726.56	70.1853	6,726.56	80.5626	6,726.56	74.1179	6,726.56	78.7246	6,726.56	68.1598	6,726.56	70.4947	6,726.56	69.5428	6,726.56	73.7491	6,726.56	60.8839	6,726.56	59.6671	6,726.56	71.8824	6,726.56	67.0271	6,726.56	68.7931
6,963.87	107.067	6,963.87	106.37	6,963.87	107.77	6,963.87	104.388	6,963.87	107.332	6,963.87	102.619	6,963.87	104.437	6,963.87	100.109	6,963.87	104.666	6,963.87	98.4168	6,963.87	100.91	6,963.87	94.9163	6,963.87	99.4816	6,963.87	91.2177	6,963.87	89.0235	6,963.87	87.59	6,963.87	91.2421	6,963.87	82.4685	6,963.87	88.0902	6,963.87	78.2449	6,963.87	70.0875	6,963.87	73.3023	6,963.87	76.3418	6,963.87	67.1691	6,963.87	73.6978	6,963.87	75.0003	6,963.87	66.6851	6,963.87	66.0909	6,963.87	73.133	6,963.87	65.9821	6,963.87	67.6856	6,963.87	76.3981	6,963.87	69.0706	6,963.87	76.1277	6,963.87	75.8677	6,963.87	67.5825
7,209.96	107.32	7,209.96	106.438	7,209.96	106.644	7,209.96	104.479	7,209.96	105.876	7,209.96	102.412	7,209.96	105.381	7,209.96	100.584	7,209.96	104.043	7,209.96	98.2158	7,209.96	102.198	7,209.96	94.8914	7,209.96	97.7504	7,209.96	91.2096	7,209.96	94.2726	7,209.96	86.8784	7,209.96	92.9875	7,209.96	82.9484	7,209.96	87.2457	7,209.96	72.2663	7,209.96	77.4452	7,209.96	76.8276	7,209.96	73.4619	7,209.96	70.6557	7,209.96	75.7768	7,209.96	71.896	7,209.96	73.2616	7,209.96	75.2321	7,209.96	76.1854	7,209.96	60.9221	7,209.96	65.3328	7,209.96	72.5783	7,209.96	68.3455	7,209.96	70.1847	7,209.96	69.0865	7,209.96	61.7223
7,464.84	107.311	7,464.84	106.055	7,464.84	107.572	7,464.84	104.253	7,464.84	106.204	7,464.84	102.943	7,464.84	104.988	7,464.84	100.608	7,464.84	102.427	7,464.84	98.0555	7,464.84	101.996	7,464.84	95.3159	7,464.84	95.0503	7,464.84	92.0366	7,464.84	97.7067	7,464.84	86.2396	7,464.84	90.0346	7,464.84	84.3891	7,464.84	88.0302	7,464.84	79.2902	7,464.84	79.6751	7,464.84	76.1816	7,464.84	85.7343	7,464.84	72.1048	7,464.84	82.4869	7,464.84	65.5105	7,464.84	77.2684	7,464.84	66.9435	7,464.84	63.1911	7,464.84	58.5777	7,464.84	64.5809	7,464.84	73.3172	7,464.84	69.5466	7,464.84	70.1995	7,464.84	72.7676	7,464.84	57.092
7,727.05	107.166	7,727.05	106.523	7,727.05	106.979	7,727.05	104.52	7,727.05	106.141	7,727.05	102.688	7,727.05	104.368	7,727.05	100.326	7,727.05	102.352	7,727.05	99.0489	7,727.05	101.977	7,727.05	94.9988	7,727.05	96.0779	7,727.05	91.388	7,727.05	99.2383	7,727.05	89.2227	7,727.05	90.8862	7,727.05	84.5729	7,727.05	86.404	7,727.05	71.3618	7,727.05	82.6916	7,727.05	79.2519	7,727.05	88.8633	7,727.05	71.8972	7,727.05	81.5773	7,727.05	71.9949	7,727.05	74.4216	7,727.05	71.973	7,727.05	72.0011	7,727.05	66.9806	7,727.05	67.4494	7,727.05	72.7646	7,727.05	65.4932	7,727.05	67.6969	7,727.05	72.1824	7,727.05	64.0344
7,999.51	107.195	7,999.51	106.074	7,999.51	106.771	7,999.51	104.309	7,999.51	105.774	7,999.51	102.878	7,999.51	104.486	7,999.51	100.729	7,999.51	104.011	7,999.51	98.7183	7,999.51	100.045	7,999.51	95.6898	7,999.51	99.9997	7,999.51	93.1778	7,999.51	93.8358	7,999.51	87.4223	7,999.51	90.3219	7,999.51	82.6451	7,999.51	73.2523	7,999.51	75.3604	7,999.51	82.9246	7,999.51	74.1205	7,999.51	88.4887	7,999.51	65.3685	7,999.51	81.3436	7,999.51	66.4171	7,999.51	66.6183	7,999.51	66.5375	7,999.51	67.4894	7,999.51	65.0596	7,999.51	70.6937	7,999.51	68.4964	7,999.51	71.0466	7,999.51	62.4568	7,999.51	58.8295	7,999.51	64.9463
8,282.23	107.063	8,282.23	106.358	8,282.23	106.754	8,282.23	104.539	8,282.23	105.947	8,282.23	103.226	8,282.23	106.186	8,282.23	100.816	8,282.23	104.287	8,282.23	99.0357	8,282.23	98.8353	8,282.23	96.1653	8,282.23	100.498	8,282.23	91.2928	8,282.23	87.9296	8,282.23	88.9068	8,282.23	92.9247	8,282.23	81.1957	8,282.23	85.6012	8,282.23	76.696	8,282.23	86.6989	8,282.23	81.9345	8,282.23	83.2522	8,282.23	67.5116	8,282.23	79.6857	8,282.23	72.3408	8,282.23	73.5143	8,282.23	73.3189	8,282.23	66.6779	8,282.23	66.7317	8,282.23	67.6356	8,282.23	64.7069	8,282.23	62.6682	8,282.23	64.3119	8,282.23	73.6202	8,282.23	65.1034
8,573.73	107.16	8,573.73	106.32	8,573.73	107.125	8,573.73	104.761	8,573.73	106.042	8,573.73	103.493	8,573.73	105.917	8,573.73	100.929	8,573.73	103.525	8,573.73	98.991	8,573.73	100.298	8,573.73	95.8817	8,573.73	97.967	8,573.73	92.6959	8,573.73	96.2015	8,573.73	87.4159	8,573.73	92.3551	8,573.73	84.4209	8,573.73	80.2348	8,573.73	73.7919	8,573.73	84.1379	8,573.73	71.0173	8,573.73	71.4245	8,573.73	65.6923	8,573.73	78.6211	8,573.73	67.7456	8,573.73	76.1259	8,573.73	60.7108	8,573.73	73.423	8,573.73	67.6214	8,573.73	62.1517	8,573.73	63.6161	8,573.73	69.7237	8,573.73	62.1466	8,573.73	71.6301	8,573.73	38.0978
8,876.95	107.064	8,876.95	106.353	8,876.95	106.995	8,876.95	105.125	8,876.95	106.24	8,876.95	103.61	8,876.95	104.12	8,876.95	101.02	8,876.95	102.47	8,876.95	99.3022	8,876.95	101.436	8,876.95	95.7154	8,876.95	94.1716	8,876.95	92.7036	8,876.95	97.9054	8,876.95	86.5024	8,876.95	89.1901	8,876.95	82.1355	8,876.95	85.0695	8,876.95	72.0045	8,876.95	79.8396	8,876.95	78.5116	8,876.95	84.9695	8,876.95	70.4708	8,876.95	83.9279	8,876.95	67.5014	8,876.95	69.7141	8,876.95	69.3411	8,876.95	75.0354	8,876.95	70.7245	8,876.95	62.7536	8,876.95	65.5522	8,876.95	70.1756	8,876.95	66.6082	8,876.95	68.88	8,876.95	59.7334
9,188.96	106.844	9,188.96	106.18	9,188.96	106.877	9,188.96	105.013	9,188.96	106.756	9,188.96	103.528	9,188.96	105.512	9,188.96	101.055	9,188.96	102.764	9,188.96	99.2053	9,188.96	102.469	9,188.96	96.0691	9,188.96	97.3985	9,188.96	92.1462	9,188.96	94.1754	9,188.96	88.7481	9,188.96	90.9378	9,188.96	80.0833	9,188.96	84.8864	9,188.96	78.5373	9,188.96	62.4865	9,188.96	76.7783	9,188.96	88.0444	9,188.96	71.118	9,188.96	85.325	9,188.96	76.7576	9,188.96	69.6238	9,188.96	64.487	9,188.96	70.9633	9,188.96	62.1857	9,188.96	67.8456	9,188.96	64.3881	9,188.96	69.5124	9,188.96	57.0217	9,188.96	72.4657	9,188.96	58.5317
9,514.16	106.844	9,514.16	106.23	9,514.16	106.718	9,514.16	105.063	9,514.16	106.263	9,514.16	103.832	9,514.16	106.158	9,514.16	101.014	9,514.16	103.87	9,514.16	99.2409	9,514.16	101.272	9,514.16	96.3818	9,514.16	99.0903	9,514.16	91.5241	9,514.16	90.5166	9,514.16	87.199	9,514.16	90.4826	9,514.16	77.4762	9,514.16	77.7429	9,514.16	75.4534	9,514.16	84.2782	9,514.16	80.577	9,514.16	88.3836	9,514.16	68.1243	9,514.16	83.6026	9,514.16	74.7633	9,514.16	73.0089	9,514.16	71.6982	9,514.16	73.6213	9,514.16	68.0547	9,514.16	63.87	9,514.16	66.5627	9,514.16	67.9503	9,514.16	50.0378	9,514.16	72.4861	9,514.16	53.1485
9,849.61	106.795	9,849.61	106.262	9,849.61	106.953	9,849.61	105.535	9,849.61	106.575	9,849.61	104.249	9,849.61	105.409	9,849.61	101.315	9,849.61	103.921	9,849.61	99.6536	9,849.61	98.8781	9,849.61	96.1961	9,849.61	98.1652	9,849.61	90.6628	9,849.61	93.2769	9,849.61	86.4414	9,849.61	87.9295	9,849.61	80.3463	9,849.61	85.9245	9,849.61	78.2713	9,849.61	84.5156	9,849.61	76.4812	9,849.61	87.0625	9,849.61	67.4367	9,849.61	83.7004	9,849.61	65.7295	9,849.61	66.0909	9,849.61	77.2793	9,849.61	64.8445	9,849.61	65.5483	9,849.61	59.7239	9,849.61	63.011	9,849.61	66.7234	9,849.61	62.4646	9,849.61	69.8894	9,849.61	62.87
10,196.8	106.596	10,196.8	106.562	10,196.8	106.796	10,196.8	105.949	10,196.8	106.797	10,196.8	104.488	10,196.8	105.192	10,196.8	101.696	10,196.8	102.473	10,196.8	99.9211	10,196.8	100.642	10,196.8	96.4177	10,196.8	97.939	10,196.8	90.7622	10,196.8	93.9538	10,196.8	85.665	10,196.8	88.5916	10,196.8	77.5802	10,196.8	87.016	10,196.8	71.6427	10,196.8	86.701	10,196.8	78.1465	10,196.8	82.1969	10,196.8	71.129	10,196.8	83.6989	10,196.8	63.9038	10,196.8	62.1061	10,196.8	75.4498	10,196.8	66.4931	10,196.8	58.5007	10,196.8	59.7723	10,196.8	65.5993	10,196.8	63.0421	10,196.8	63.8896	10,196.8	71.0623	10,196.8	61.2644
10,555.7	106.619	10,555.7	106.739	10,555.7	106.891	10,555.7	106.315	10,555.7	106.936	10,555.7	104.847	10,555.7	106.497	10,555.7	102.041	10,555.7	103.555	10,555.7	100.239	10,555.7	102.383	10,555.7	96.2132	10,555.7	95.3921	10,555.7	91.5854	10,555.7	93.773	10,555.7	86.5597	10,555.7	88.2532	10,555.7	80.8857	10,555.7	83.9794	10,555.7	80.8806	10,555.7	87.1853	10,555.7	77.9452	10,555.7	87.6494	10,555.7	77.6718	10,555.7	86.3712	10,555.7	66.2638	10,555.7	72.7839	10,555.7	70.7839	10,555.7	63.559	10,555.7	63.1562	10,555.7	64.9387	10,555.7	68.4149	10,555.7	68.7316	10,555.7	57.5881	10,555.7	71.2906	10,555.7	54.6039
10,927.7	106.75	10,927.7	106.955	10,927.7	107.073	10,927.7	106.554	10,927.7	106.764	10,927.7	105.132	10,927.7	105.654	10,927.7	102.33	10,927.7	104.525	10,927.7	100.525	10,927.7	101.779	10,927.7	96.7341	10,927.7	96.9232	10,927.7	90.1785	10,927.7	92.6543	10,927.7	86.7533	10,927.7	86.5996	10,927.7	81.3218	10,927.7	84.5455	10,927.7	75.2865	10,927.7	86.5699	10,927.7	74.8482	10,927.7	88.6209	10,927.7	74.5539	10,927.7	85.5488	10,927.7	70.8905	10,927.7	60.8209	10,927.7	69.6594	10,927.7	69.0826	10,927.7	70.9881	10,927.7	68.2484	10,927.7	69.4273	10,927.7	70.7024	10,927.7	65.6287	10,927.7	73.6722	10,927.7	59.1764
11,313	106.53	11,313	106.922	11,313	107.187	11,313	106.551	11,313	107.311	11,313	105.127	11,313	105.543	11,313	102.349	11,313	104.067	11,313	100.064	11,313	100.781	11,313	96.5612	11,313	97.4035	11,313	89.9692	11,313	91.3909	11,313	84.0868	11,313	89.4752	11,313	77.707	11,313	88.0438	11,313	78.4068	11,313	89.6059	11,313	74.8514	11,313	86.6009	11,313	76.9532	11,313	83.5781	11,313	71.5823	11,313	67.5183	11,313	73.0456	11,313	66.1559	11,313	66.5052	11,313	70.2644	11,313	66.4439	11,313	69.0636	11,313	45.1562	11,313	70.3758	11,313	61.8489
11,712.9	106.397	11,712.9	106.767	11,712.9	107.025	11,712.9	106.562	11,712.9	106.986	11,712.9	105.446	11,712.9	105.811	11,712.9	102.305	11,712.9	102.941	11,712.9	99.6876	11,712.9	100.299	11,712.9	96.4593	11,712.9	97.4917	11,712.9	90.4457	11,712.9	92.1124	11,712.9	85.8548	11,712.9	90.4658	11,712.9	82.8952	11,712.9	85.8964	11,712.9	78.5865	11,712.9	91.5581	11,712.9	73.3105	11,712.9	87.0611	11,712.9	66.3519	11,712.9	84.3941	11,712.9	71.8481	11,712.9	65.4033	11,712.9	76.5687	11,712.9	74.062	11,712.9	70.2602	11,712.9	69.5094	11,712.9	66.035	11,712.9	66.7665	11,712.9	66.6724	11,712.9	70.9092	11,712.9	61.8878
12,126	106.034	12,126	106.589	12,126	106.883	12,126	106.483	12,126	107.055	12,126	105.374	12,126	105.387	12,126	102.317	12,126	103.894	12,126	99.4809	12,126	100.01	12,126	96.5747	12,126	96.3286	12,126	90.6034	12,126	94.0049	12,126	85.7468	12,126	84.2652	12,126	81.3343	12,126	86.069	12,126	73.6444	12,126	91.1291	12,126	75.7952	12,126	87.4429	12,126	71.3587	12,126	84.6911	12,126	74.737	12,126	63.0996	12,126	75.407	12,126	65.9326	12,126	72.7384	12,126	67.6749	12,126	66.0843	12,126	66.348	12,126	63.7194	12,126	69.8034	12,126	65.3137
12,553.7	105.944	12,553.7	106.445	12,553.7	106.724	12,553.7	106.343	12,553.7	106.888	12,553.7	105.203	12,553.7	106.148	12,553.7	101.565	12,553.7	103.061	12,553.7	99.2882	12,553.7	100.433	12,553.7	96.4719	12,553.7	94.7259	12,553.7	90.3326	12,553.7	91.1935	12,553.7	81.8865	12,553.7	87.4043	12,553.7	81.2405	12,553.7	87.1244	12,553.7	78.9985	12,553.7	90.2239	12,553.7	76.0173	12,553.7	86.4622	12,553.7	74.3414	12,553.7	83.8969	12,553.7	76.77	12,553.7	64.885	12,553.7	75.4759	12,553.7	64.3074	12,553.7	75.2737	12,553.7	68.7234	12,553.7	70.2688	12,553.7	69.2432	12,553.7	66.3441	12,553.7	69.1924	12,553.7	61.7445
12,996.1	106.592	12,996.1	106.759	12,996.1	107.018	12,996.1	106.161	12,996.1	106.448	12,996.1	104.735	12,996.1	104.708	12,996.1	100.601	12,996.1	102.841	12,996.1	98.3132	12,996.1	99.8441	12,996.1	95.8837	12,996.1	97.2852	12,996.1	89.3856	12,996.1	89.938	12,996.1	82.1555	12,996.1	86.1887	12,996.1	82.143	12,996.1	84.1249	12,996.1	72.6761	12,996.1	90.9679	12,996.1	75.2067	12,996.1	89.2773	12,996.1	67.3302	12,996.1	82.8181	12,996.1	75.6849	12,996.1	67.4532	12,996.1	69.2732	12,996.1	68.4184	12,996.1	65.4587	12,996.1	67.7772	12,996.1	62.0938	12,996.1	72.3961	12,996.1	62.2335	12,996.1	72.1494	12,996.1	67.0981
13,454.6	106.882	13,454.6	106.859	13,454.6	106.74	13,454.6	105.84	13,454.6	106.23	13,454.6	104.112	13,454.6	105.297	13,454.6	99.6681	13,454.6	102.084	13,454.6	97.3978	13,454.6	98.8838	13,454.6	94.9794	13,454.6	95.3963	13,454.6	88.6238	13,454.6	89.5687	13,454.6	79.9526	13,454.6	84.2164	13,454.6	81.0509	13,454.6	81.8042	13,454.6	75.9027	13,454.6	90.1919	13,454.6	77.9566	13,454.6	90.6477	13,454.6	69.1709	13,454.6	84.3461	13,454.6	72.8036	13,454.6	61.3501	13,454.6	69.1933	13,454.6	59.8384	13,454.6	75.6616	13,454.6	64.0802	13,454.6	67.5835	13,454.6	67.7319	13,454.6	68.747	13,454.6	70.5682	13,454.6	69.0861
13,929.2	106.413	13,929.2	106.862	13,929.2	106.217	13,929.2	106.212	13,929.2	105.344	13,929.2	104.43	13,929.2	104.698	13,929.2	99.6765	13,929.2	101.622	13,929.2	97.4727	13,929.2	98.4122	13,929.2	94.6528	13,929.2	93.143	13,929.2	88.7412	13,929.2	89.8728	13,929.2	78.8521	13,929.2	79.6289	13,929.2	81.3264	13,929.2	81.0799	13,929.2	75.2016	13,929.2	89.5011	13,929.2	79.3163	13,929.2	89.7812	13,929.2	76.8788	13,929.2	83.5623	13,929.2	75.8692	13,929.2	66.2961	13,929.2	72.2504	13,929.2	58.4018	13,929.2	70.8583	13,929.2	67	13,929.2	67.1988	13,929.2	67.1147	13,929.2	66.4945	13,929.2	69.5457	13,929.2	65.7296
14,419.9	106.179	14,419.9	106.662	14,419.9	106.557	14,419.9	106.512	14,419.9	106.065	14,419.9	104.648	14,419.9	104.958	14,419.9	99.7925	14,419.9	101.997	14,419.9	97.2887	14,419.9	99.4835	14,419.9	94.491	14,419.9	94.335	14,419.9	89.6189	14,419.9	86.7533	14,419.9	80.2481	14,419.9	85.103	14,419.9	84.0013	14,419.9	79.8553	14,419.9	73.0651	14,419.9	89.0789	14,419.9	79.03	14,419.9	92.2438	14,419.9	77.44	14,419.9	83.666	14,419.9	78.8547	14,419.9	68.9624	14,419.9	77.9851	14,419.9	65.4557	14,419.9	78.6872	14,419.9	68.6921	14,419.9	76.1013	14,419.9	68.0416	14,419.9	72.997	14,419.9	74.4299	14,419.9	71.4827
14,928.2	105.648	14,928.2	106.565	14,928.2	106.39	14,928.2	106.783	14,928.2	106.164	14,928.2	104.743	14,928.2	105.578	14,928.2	99.5286	14,928.2	102.645	14,928.2	96.6333	14,928.2	99.1262	14,928.2	94.3319	14,928.2	95.3266	14,928.2	90.8066	14,928.2	90.32	14,928.2	81.0761	14,928.2	81.5885	14,928.2	84.5123	14,928.2	78.1857	14,928.2	72.8088	14,928.2	89.6735	14,928.2	81.9986	14,928.2	92.8907	14,928.2	79.685	14,928.2	83.688	14,928.2	79.363	14,928.2	59.711	14,928.2	79.121	14,928.2	52.5583	14,928.2	78.9222	14,928.2	65.4375	14,928.2	76.8735	14,928.2	70.9511	14,928.2	76.0301	14,928.2	73.7653	14,928.2	71.6901
15,455.6	104.867	15,455.6	106.425	15,455.6	105.835	15,455.6	106.856	15,455.6	105.517	15,455.6	104.411	15,455.6	105.377	15,455.6	98.6953	15,455.6	102.502	15,455.6	95.5764	15,455.6	98.1695	15,455.6	94.0856	15,455.6	92.1931	15,455.6	90.8404	15,455.6	88.8184	15,455.6	82.4242	15,455.6	83.5563	15,455.6	84.9721	15,455.6	79.3753	15,455.6	73.9775	15,455.6	87.0392	15,455.6	84.2284	15,455.6	92.3043	15,455.6	79.2905	15,455.6	82.9391	15,455.6	82.0746	15,455.6	69.3526	15,455.6	80.191	15,455.6	57.458	15,455.6	80.8764	15,455.6	64.0292	15,455.6	79.3745	15,455.6	71.1752	15,455.6	78.721	15,455.6	74.0523	15,455.6	73.9934
16,000.5	105.044	16,000.5	106.259	16,000.5	105.843	16,000.5	106.423	16,000.5	105.221	16,000.5	103.39	16,000.5	104.944	16,000.5	97.352	16,000.5	101.919	16,000.5	93.1989	16,000.5	98.0239	16,000.5	93.1183	16,000.5	94.1703	16,000.5	91.16	16,000.5	87.6177	16,000.5	84.5272	16,000.5	79.7262	16,000.5	84.1355	16,000.5	79.5858	16,000.5	73.603	16,000.5	83.7893	16,000.5	84.453	16,000.5	91.9484	16,000.5	74.6213	16,000.5	82.0072	16,000.5	81.3465	16,000.5	68.0213	16,000.5	81.2699	16,000.5	54.8649	16,000.5	82.9146	16,000.5	67.2791	16,000.5	81.6414	16,000.5	71.7506	16,000.5	81.4387	16,000.5	75.8643	16,000.5	75.8255
16,564.5	105.208	16,564.5	105.934	16,564.5	105.631	16,564.5	105.558	16,564.5	104.405	16,564.5	102.2	16,564.5	104.584	16,564.5	95.3748	16,564.5	101.409	16,564.5	90.1321	16,564.5	97.2005	16,564.5	91.0613	16,564.5	92.4785	16,564.5	90.6609	16,564.5	87.8695	16,564.5	84.9825	16,564.5	80.9489	16,564.5	84.3387	16,564.5	78.5909	16,564.5	75.1919	16,564.5	80.0069	16,564.5	85.5472	16,564.5	90.6533	16,564.5	78.8765	16,564.5	80.6324	16,564.5	84.3664	16,564.5	70.9753	16,564.5	84.0528	16,564.5	66.1697	16,564.5	84.0882	16,564.5	68.6548	16,564.5	82.3834	16,564.5	69.8367	16,564.5	82.3271	16,564.5	75.3683	16,564.5	76.1354
17,148.9	104.731	17,148.9	105.568	17,148.9	105.1	17,148.9	105.228	17,148.9	103.596	17,148.9	101.466	17,148.9	104.051	17,148.9	93.0822	17,148.9	101.153	17,148.9	87.472	17,148.9	96.4417	17,148.9	89.385	17,148.9	92.2922	17,148.9	90.2243	17,148.9	86.4955	17,148.9	86.1013	17,148.9	79.974	17,148.9	83.818	17,148.9	76.5734	17,148.9	75.0512	17,148.9	72.5748	17,148.9	85.8377	17,148.9	89.8633	17,148.9	78.2066	17,148.9	79.089	17,148.9	84.765	17,148.9	72.0111	17,148.9	84.3239	17,148.9	66.5812	17,148.9	85.1281	17,148.9	69.807	17,148.9	83.1766	17,148.9	73.2505	17,148.9	82.8678	17,148.9	75.8778	17,148.9	77.2155
17,752.4	104.154	17,752.4	105.53	17,752.4	104.667	17,752.4	105.003	17,752.4	103.181	17,752.4	100.529	17,752.4	104.032	17,752.4	90.2418	17,752.4	100.133	17,752.4	82.317	17,752.4	96.0232	17,752.4	85.9928	17,752.4	90.8487	17,752.4	89.0825	17,752.4	87.1469	17,752.4	85.6936	17,752.4	80.2716	17,752.4	83.2355	17,752.4	75.1301	17,752.4	76.4049	17,752.4	67.6497	17,752.4	86.0856	17,752.4	87.9182	17,752.4	78.6146	17,752.4	72.3346	17,752.4	84.8526	17,752.4	70.8168	17,752.4	84.1329	17,752.4	68.6212	17,752.4	85.1866	17,752.4	66.6949	17,752.4	83.9804	17,752.4	68.3128	17,752.4	83.9562	17,752.4	75.6986	17,752.4	77.3827
18,379.4	104.131	18,379.4	105.428	18,379.4	104.655	18,379.4	104.489	18,379.4	103.021	18,379.4	99.4398	18,379.4	103.74	18,379.4	86.8644	18,379.4	99.6479	18,379.4	70.7508	18,379.4	95.5219	18,379.4	82.3106	18,379.4	91.0446	18,379.4	88.2128	18,379.4	86.3922	18,379.4	85.6283	18,379.4	79.0231	18,379.4	82.7923	18,379.4	75.9065	18,379.4	76.428	18,379.4	76.0889	18,379.4	84.7416	18,379.4	86.6687	18,379.4	78.8442	18,379.4	69.136	18,379.4	81.9228	18,379.4	72.1861	18,379.4	84.5984	18,379.4	68.2049	18,379.4	85.642	18,379.4	68.8719	18,379.4	84.2011	18,379.4	67.9694	18,379.4	83.9942	18,379.4	75.0748	18,379.4	76.8003
19,026.9	103.876	19,026.9	105.289	19,026.9	104.525	19,026.9	103.723	19,026.9	102.762	19,026.9	98.3606	19,026.9	103.248	19,026.9	81.8835	19,026.9	98.9404	19,026.9	80.3753	19,026.9	94.2007	19,026.9	77.364	19,026.9	89.5154	19,026.9	86.6128	19,026.9	85.7082	19,026.9	84.685	19,026.9	80.8028	19,026.9	83.0601	19,026.9	76.4215	19,026.9	76.6908	19,026.9	78.8477	19,026.9	84.9497	19,026.9	84.4505	19,026.9	77.9927	19,026.9	64.8215	19,026.9	84.2155	19,026.9	71.5704	19,026.9	84.2851	19,026.9	69.8619	19,026.9	85.4686	19,026.9	69.4475	19,026.9	84.4271	19,026.9	65.9885	19,026.9	84.3154	19,026.9	74.5686	19,026.9	76.1318
19,697.8	103.476	19,697.8	104.867	19,697.8	104.196	19,697.8	103.019	19,697.8	102.858	19,697.8	97.3186	19,697.8	102.844	19,697.8	80.854	19,697.8	97.7084	19,697.8	84.8296	19,697.8	93.1399	19,697.8	72.4808	19,697.8	89.9113	19,697.8	84.7156	19,697.8	84.9729	19,697.8	83.1606	19,697.8	79.314	19,697.8	81.9418	19,697.8	73.0988	19,697.8	75.5257	19,697.8	81.6009	19,697.8	83.6549	19,697.8	82.3868	19,697.8	76.4962	19,697.8	70.0482	19,697.8	83.5311	19,697.8	73.6237	19,697.8	84.1814	19,697.8	71.5282	19,697.8	85.2657	19,697.8	70.0004	19,697.8	84.387	19,697.8	63.4338	19,697.8	84.2466	19,697.8	73.5138	19,697.8	75.1652
19,999.5	103.576	19,999.5	104.726	19,999.5	104.124	19,999.5	102.75	19,999.5	102.969	19,999.5	97.0383	19,999.5	102.613	19,999.5	83.5146	19,999.5	96.8735	19,999.5	86.6137	19,999.5	92.0689	19,999.5	75.0935	19,999.5	91.2281	19,999.5	84.3454	19,999.5	84.286	19,999.5	82.8312	19,999.5	80.7953	19,999.5	82.0348	19,999.5	70.5735	19,999.5	76.4722	19,999.5	82.5033	19,999.5	82.5067	19,999.5	83.582	19,999.5	74.7363	19,999.5	64.0725	19,999.5	83.0015	19,999.5	73.5394	19,999.5	84.9902	19,999.5	72.8943	19,999.5	84.8138	19,999.5	69.9975	19,999.5	81.8753	19,999.5	67.0247	19,999.5	84.067	19,999.5	72.8793	19,999.5	75.6369
