"SPL Vertical"
"On-Axis"		"10°"		"-10°"		"20°"		"-20°"		"30°"		"-30°"		"40°"		"-40°"		"50°"		"-50°"		"60°"		"-60°"		"70°"		"-70°"		"80°"		"-80°"		"90°"		"-90°"		"100°"		"-100°"		"110°"		"-110°"		"120°"		"-120°"		"130°"		"-130°"		"140°"		"-140°"		"150°"		"-150°"		"160°"		"-160°"		"170°"		"-170°"		"180°"
"Frequency / Hz"	"Sound Pressure Level / dB (re 20 µPa/V)  [2.83  V @ 1. m]"	"Frequency / Hz"	"Sound Pressure Level / dB (re 20 µPa/V)  [2.83  V @ 1. m]"	"Frequency / Hz"	"Sound Pressure Level / dB (re 20 µPa/V)  [2.83  V @ 1. m]"	"Frequency / Hz"	"Sound Pressure Level / dB (re 20 µPa/V)  [2.83  V @ 1. m]"	"Frequency / Hz"	"Sound Pressure Level / dB (re 20 µPa/V)  [2.83  V @ 1. m]"	"Frequency / Hz"	"Sound Pressure Level / dB (re 20 µPa/V)  [2.83  V @ 1. m]"	"Frequency / Hz"	"Sound Pressure Level / dB (re 20 µPa/V)  [2.83  V @ 1. m]"	"Frequency / Hz"	"Sound Pressure Level / dB (re 20 µPa/V)  [2.83  V @ 1. m]"	"Frequency / Hz"	"Sound Pressure Level / dB (re 20 µPa/V)  [2.83  V @ 1. m]"	"Frequency / Hz"	"Sound Pressure Level / dB (re 20 µPa/V)  [2.83  V @ 1. m]"	"Frequency / Hz"	"Sound Pressure Level / dB (re 20 µPa/V)  [2.83  V @ 1. m]"	"Frequency / Hz"	"Sound Pressure Level / dB (re 20 µPa/V)  [2.83  V @ 1. m]"	"Frequency / Hz"	"Sound Pressure Level / dB (re 20 µPa/V)  [2.83  V @ 1. m]"	"Frequency / Hz"	"Sound Pressure Level / dB (re 20 µPa/V)  [2.83  V @ 1. m]"	"Frequency / Hz"	"Sound Pressure Level / dB (re 20 µPa/V)  [2.83  V @ 1. m]"	"Frequency / Hz"	"Sound Pressure Level / dB (re 20 µPa/V)  [2.83  V @ 1. m]"	"Frequency / Hz"	"Sound Pressure Level / dB (re 20 µPa/V)  [2.83  V @ 1. m]"	"Frequency / Hz"	"Sound Pressure Level / dB (re 20 µPa/V)  [2.83  V @ 1. m]"	"Frequency / Hz"	"Sound Pressure Level / dB (re 20 µPa/V)  [2.83  V @ 1. m]"	"Frequency / Hz"	"Sound Pressure Level / dB (re 20 µPa/V)  [2.83  V @ 1. m]"	"Frequency / Hz"	"Sound Pressure Level / dB (re 20 µPa/V)  [2.83  V @ 1. m]"	"Frequency / Hz"	"Sound Pressure Level / dB (re 20 µPa/V)  [2.83  V @ 1. m]"	"Frequency / Hz"	"Sound Pressure Level / dB (re 20 µPa/V)  [2.83  V @ 1. m]"	"Frequency / Hz"	"Sound Pressure Level / dB (re 20 µPa/V)  [2.83  V @ 1. m]"	"Frequency / Hz"	"Sound Pressure Level / dB (re 20 µPa/V)  [2.83  V @ 1. m]"	"Frequency / Hz"	"Sound Pressure Level / dB (re 20 µPa/V)  [2.83  V @ 1. m]"	"Frequency / Hz"	"Sound Pressure Level / dB (re 20 µPa/V)  [2.83  V @ 1. m]"	"Frequency / Hz"	"Sound Pressure Level / dB (re 20 µPa/V)  [2.83  V @ 1. m]"	"Frequency / Hz"	"Sound Pressure Level / dB (re 20 µPa/V)  [2.83  V @ 1. m]"	"Frequency / Hz"	"Sound Pressure Level / dB (re 20 µPa/V)  [2.83  V @ 1. m]"	"Frequency / Hz"	"Sound Pressure Level / dB (re 20 µPa/V)  [2.83  V @ 1. m]"	"Frequency / Hz"	"Sound Pressure Level / dB (re 20 µPa/V)  [2.83  V @ 1. m]"	"Frequency / Hz"	"Sound Pressure Level / dB (re 20 µPa/V)  [2.83  V @ 1. m]"	"Frequency / Hz"	"Sound Pressure Level / dB (re 20 µPa/V)  [2.83  V @ 1. m]"	"Frequency / Hz"	"Sound Pressure Level / dB (re 20 µPa/V)  [2.83  V @ 1. m]"	"Frequency / Hz"	"Sound Pressure Level / dB (re 20 µPa/V)  [2.83  V @ 1. m]"
20.5078	53.2152	20.5078	53.1862	20.5078	53.2333	20.5078	53.1469	20.5078	53.2399	20.5078	53.0979	20.5078	53.234	20.5078	53.0393	20.5078	53.2149	20.5078	52.9716	20.5078	53.1821	20.5078	52.8952	20.5078	53.1356	20.5078	52.811	20.5078	53.0757	20.5078	52.7207	20.5078	53.0034	20.5078	52.6265	20.5078	52.9203	20.5078	52.5314	20.5078	52.8285	20.5078	52.4389	20.5078	52.7309	20.5078	52.3532	20.5078	52.6305	20.5078	52.2784	20.5078	52.5309	20.5078	52.2182	20.5078	52.4358	20.5078	52.176	20.5078	52.3491	20.5078	52.1539	20.5078	52.2744	20.5078	52.1533	20.5078	52.2151	20.5078	52.174
21.9727	55.3486	21.9727	55.3484	21.9727	55.3397	21.9727	55.3389	21.9727	55.3218	21.9727	55.32	21.9727	55.2955	21.9727	55.292	21.9727	55.2613	21.9727	55.2554	21.9727	55.2199	21.9727	55.211	21.9727	55.1723	21.9727	55.1599	21.9727	55.1197	21.9727	55.1037	21.9727	55.0635	21.9727	55.0442	21.9727	55.0055	21.9727	54.9834	21.9727	54.9473	21.9727	54.9236	21.9727	54.891	21.9727	54.8667	21.9727	54.8384	21.9727	54.8148	21.9727	54.7913	21.9727	54.7698	21.9727	54.751	21.9727	54.7328	21.9727	54.719	21.9727	54.7051	21.9727	54.696	21.9727	54.6874	21.9727	54.6829	21.9727	54.6799
23.4375	54.8287	23.4375	54.8077	23.4375	54.8372	23.4375	54.7747	23.4375	54.8326	23.4375	54.7303	23.4375	54.8149	23.4375	54.6754	23.4375	54.7841	23.4375	54.6111	23.4375	54.7407	23.4375	54.5388	23.4375	54.6855	23.4375	54.4603	23.4375	54.6197	23.4375	54.3778	23.4375	54.5453	23.4375	54.2937	23.4375	54.4643	23.4375	54.2107	23.4375	54.3793	23.4375	54.1318	23.4375	54.2932	23.4375	54.0597	23.4375	54.2088	23.4375	53.997	23.4375	54.1292	23.4375	53.9459	23.4375	54.0569	23.4375	53.908	23.4375	53.9945	23.4375	53.8847	23.4375	53.9438	23.4375	53.8766	23.4375	53.9067	23.4375	53.884
24.9023	55.6474	24.9023	55.6255	24.9023	55.652	24.9023	55.5865	24.9023	55.6394	24.9023	55.531	24.9023	55.6097	24.9023	55.46	24.9023	55.5638	24.9023	55.3749	24.9023	55.5024	24.9023	55.2776	24.9023	55.4268	24.9023	55.1707	24.9023	55.3389	24.9023	55.0571	24.9023	55.2406	24.9023	54.9402	24.9023	55.1345	24.9023	54.8241	24.9023	55.0235	24.9023	54.7127	24.9023	54.9107	24.9023	54.6102	24.9023	54.7996	24.9023	54.5204	24.9023	54.6937	24.9023	54.4468	24.9023	54.5965	24.9023	54.3922	24.9023	54.5114	24.9023	54.3586	24.9023	54.4415	24.9023	54.3469	24.9023	54.3894	24.9023	54.3574
26.3672	56.3893	26.3672	56.365	26.3672	56.3985	26.3672	56.3263	26.3672	56.3923	26.3672	56.274	26.3672	56.3703	26.3672	56.209	26.3672	56.3328	26.3672	56.1325	26.3672	56.2803	26.3672	56.0463	26.3672	56.2135	26.3672	55.9523	26.3672	56.1341	26.3672	55.8527	26.3672	56.0441	26.3672	55.7505	26.3672	55.9458	26.3672	55.6487	26.3672	55.8422	26.3672	55.5507	26.3672	55.7365	26.3672	55.4599	26.3672	55.6324	26.3672	55.3795	26.3672	55.5333	26.3672	55.3128	26.3672	55.4427	26.3672	55.2624	26.3672	55.364	26.3672	55.2303	26.3672	55.3001	26.3672	55.2178	26.3672	55.2534	26.3672	55.2256
27.832	56.7081	27.832	56.6808	27.832	56.7171	27.832	56.6358	27.832	56.7074	27.832	56.5742	27.832	56.6793	27.832	56.4977	27.832	56.6335	27.832	56.4085	27.832	56.5711	27.832	56.3089	27.832	56.4938	27.832	56.2022	27.832	56.4037	27.832	56.0916	27.832	56.3035	27.832	55.9808	27.832	56.1962	27.832	55.8734	27.832	56.0853	27.832	55.773	27.832	55.9744	27.832	55.6826	27.832	55.8671	27.832	55.6052	27.832	55.767	27.832	55.5427	27.832	55.6772	27.832	55.4969	27.832	55.6005	27.832	55.4687	27.832	55.539	27.832	55.4588	27.832	55.4943	27.832	55.4674
29.2969	57.4358	29.2969	57.4162	29.2969	57.4359	29.2969	57.3775	29.2969	57.4166	29.2969	57.3208	29.2969	57.3784	29.2969	57.2474	29.2969	57.3222	29.2969	57.1593	29.2969	57.2494	29.2969	57.0591	29.2969	57.1618	29.2969	56.9497	29.2969	57.062	29.2969	56.8346	29.2969	56.9526	29.2969	56.7173	29.2969	56.837	29.2969	56.6015	29.2969	56.7189	29.2969	56.4911	29.2969	56.6019	29.2969	56.3894	29.2969	56.4901	29.2969	56.2995	29.2969	56.3871	29.2969	56.2241	29.2969	56.2963	29.2969	56.1654	29.2969	56.2206	29.2969	56.125	29.2969	56.1622	29.2969	56.1041	29.2969	56.1228	29.2969	56.1033
30.7617	57.7637	30.7617	57.7402	30.7617	57.7673	30.7617	57.6972	30.7617	57.751	30.7617	57.6357	30.7617	57.7154	30.7617	57.5573	30.7617	57.6614	30.7617	57.4639	30.7617	57.5903	30.7617	57.3582	30.7617	57.5041	30.7617	57.2434	30.7617	57.405	30.7617	57.1229	30.7617	57.2957	30.7617	57.0006	30.7617	57.1795	30.7617	56.8805	30.7617	57.0597	30.7617	56.7664	30.7617	56.94	30.7617	56.6622	30.7617	56.8242	30.7617	56.5712	30.7617	56.716	30.7617	56.4962	30.7617	56.6188	30.7617	56.4397	30.7617	56.5356	30.7617	56.4033	30.7617	56.4692	30.7617	56.388	30.7617	56.4215	30.7617	56.3942
32.2266	58.3124	32.2266	58.289	32.2266	58.3148	32.2266	58.2454	32.2266	58.2962	32.2266	58.1826	32.2266	58.2568	32.2266	58.1024	32.2266	58.1976	32.2266	58.0072	32.2266	58.1201	32.2266	57.8997	32.2266	58.0262	32.2266	57.7835	32.2266	57.9186	32.2266	57.6621	32.2266	57.8005	32.2266	57.5395	32.2266	57.6757	32.2266	57.4197	32.2266	57.5484	32.2266	57.3063	32.2266	57.4231	32.2266	57.2026	32.2266	57.3041	32.2266	57.1114	32.2266	57.1955	32.2266	57.035	32.2266	57.101	32.2266	56.9752	32.2266	57.0234	32.2266	56.9335	32.2266	56.9648	32.2266	56.9109	32.2266	56.9263	32.2266	56.9084
33.6914	58.96	33.6914	58.9322	33.6914	58.9652	33.6914	58.8826	33.6914	58.9476	33.6914	58.8124	33.6914	58.9076	33.6914	58.7237	33.6914	58.8461	33.6914	58.619	33.6914	58.7646	33.6914	58.5014	33.6914	58.6653	33.6914	58.3748	33.6914	58.5512	33.6914	58.2432	33.6914	58.4256	33.6914	58.1112	33.6914	58.2927	33.6914	57.9831	33.6914	58.1571	33.6914	57.863	33.6914	58.0233	33.6914	57.7546	33.6914	57.8962	33.6914	57.6606	33.6914	57.7801	33.6914	57.5834	33.6914	57.6788	33.6914	57.5243	33.6914	57.5951	33.6914	57.4845	33.6914	57.531	33.6914	57.4648	33.6914	57.4878	33.6914	57.4657
35.1562	59.816	35.1562	59.7818	35.1562	59.8248	35.1562	59.7229	35.1562	59.8078	35.1562	59.6409	35.1562	59.7654	35.1562	59.5377	35.1562	59.6987	35.1562	59.4163	35.1562	59.6092	35.1562	59.2802	35.1562	59.4992	35.1562	59.1333	35.1562	59.3717	35.1562	58.9803	35.1562	59.2304	35.1562	58.8261	35.1562	59.0795	35.1562	58.6758	35.1562	58.9238	35.1562	58.5343	35.1562	58.7686	35.1562	58.406	35.1562	58.619	35.1562	58.2949	35.1562	58.4802	35.1562	58.2039	35.1562	58.3567	35.1562	58.1355	35.1562	58.2524	35.1562	58.0914	35.1562	58.1702	35.1562	58.0725	35.1562	58.1121	35.1562	58.0794
36.6211	60.3769	36.6211	60.3427	36.6211	60.3863	36.6211	60.2845	36.6211	60.3708	36.6211	60.2038	36.6211	60.3306	36.6211	60.1028	36.6211	60.2668	36.6211	59.9842	36.6211	60.1809	36.6211	59.8514	36.6211	60.0752	36.6211	59.7086	36.6211	59.9526	36.6211	59.5602	36.6211	59.8167	36.6211	59.4112	36.6211	59.6715	36.6211	59.2663	36.6211	59.5218	36.6211	59.1304	36.6211	59.3724	36.6211	59.0077	36.6211	59.2284	36.6211	58.9019	36.6211	59.0946	36.6211	58.8159	36.6211	58.9753	36.6211	58.7518	36.6211	58.8741	36.6211	58.7112	36.6211	58.7939	36.6211	58.6949	36.6211	58.7365	36.6211	58.7034
38.0859	60.7042	38.0859	60.6681	38.0859	60.7138	38.0859	60.6065	38.0859	60.6966	38.0859	60.521	38.0859	60.6532	38.0859	60.4143	38.0859	60.5847	38.0859	60.2896	38.0859	60.493	38.0859	60.1509	38.0859	60.3807	38.0859	60.0028	38.0859	60.2514	38.0859	59.8505	38.0859	60.1091	38.0859	59.6993	38.0859	59.9586	38.0859	59.5546	38.0859	59.8052	38.0859	59.4209	38.0859	59.6542	38.0859	59.3024	38.0859	59.5109	38.0859	59.2019	38.0859	59.3801	38.0859	59.1216	38.0859	59.2658	38.0859	59.0625	38.0859	59.1709	38.0859	59.0251	38.0859	59.0972	38.0859	59.0098	38.0859	59.0457	38.0859	59.0166
39.5508	61.0317	39.5508	60.991	39.5508	61.0446	39.5508	60.9235	39.5508	61.0295	39.5508	60.831	39.5508	60.9868	39.5508	60.7159	39.5508	60.9179	39.5508	60.5818	39.5508	60.8246	39.5508	60.4329	39.5508	60.7098	39.5508	60.2742	39.5508	60.577	39.5508	60.1113	39.5508	60.4303	39.5508	59.95	39.5508	60.2747	39.5508	59.7962	39.5508	60.1155	39.5508	59.6552	39.5508	59.9582	39.5508	59.5315	39.5508	59.8081	39.5508	59.4284	39.5508	59.6701	39.5508	59.3481	39.5508	59.548	39.5508	59.2917	39.5508	59.4449	39.5508	59.2592	39.5508	59.3627	39.5508	59.2504	39.5508	59.3026	39.5508	59.265
41.0156	61.7119	41.0156	61.6795	41.0156	61.7169	41.0156	61.6206	41.0156	61.6943	41.0156	61.5367	41.0156	61.6442	41.0156	61.4299	41.0156	61.5677	41.0156	61.3028	41.0156	61.4663	41.0156	61.1591	41.0156	61.3425	41.0156	61.0029	41.0156	61.1998	41.0156	60.8391	41.0156	61.0422	41.0156	60.6731	41.0156	60.8749	41.0156	60.5103	41.0156	60.7035	41.0156	60.3564	41.0156	60.5344	41.0156	60.2163	41.0156	60.3736	41.0156	60.0941	41.0156	60.227	41.0156	59.9932	41.0156	60.0993	41.0156	59.9157	41.0156	59.9945	41.0156	59.863	41.0156	59.9149	41.0156	59.8361	41.0156	59.8618	41.0156	59.8356
42.4805	62.3468	42.4805	62.3067	42.4805	62.3579	42.4805	62.2384	42.4805	62.3393	42.4805	62.144	42.4805	62.2915	42.4805	62.0262	42.4805	62.2157	42.4805	61.8884	42.4805	62.1137	42.4805	61.7351	42.4805	61.9884	42.4805	61.5711	42.4805	61.8436	42.4805	61.4022	42.4805	61.684	42.4805	61.2344	42.4805	61.515	42.4805	61.0734	42.4805	61.3426	42.4805	60.9247	42.4805	61.1731	42.4805	60.7928	42.4805	61.0127	42.4805	60.681	42.4805	60.867	42.4805	60.5915	42.4805	60.7404	42.4805	60.5254	42.4805	60.6362	42.4805	60.4832	42.4805	60.5562	42.4805	60.4649	42.4805	60.501	42.4805	60.4707
43.9453	62.7115	43.9453	62.6658	43.9453	62.7268	43.9453	62.5908	43.9453	62.7111	43.9453	62.4884	43.9453	62.6647	43.9453	62.3615	43.9453	62.5888	43.9453	62.2139	43.9453	62.4852	43.9453	62.0503	43.9453	62.3567	43.9453	61.8761	43.9453	62.2072	43.9453	61.6976	43.9453	62.0413	43.9453	61.5213	43.9453	61.8647	43.9453	61.3535	43.9453	61.6838	43.9453	61.2	43.9453	61.5053	43.9453	61.0653	43.9453	61.3359	43.9453	60.9527	43.9453	61.1814	43.9453	60.8639	43.9453	61.0469	43.9453	60.7999	43.9453	60.9358	43.9453	60.7604	43.9453	60.8498	43.9453	60.7455	43.9453	60.7897	43.9453	60.7551
45.4102	63.2609	45.4102	63.2131	45.4102	63.2762	45.4102	63.1342	45.4102	63.2589	45.4102	63.0264	45.4102	63.2094	45.4102	62.8929	45.4102	63.1291	45.4102	62.7379	45.4102	63.0203	45.4102	62.5667	45.4102	62.8863	45.4102	62.3854	45.4102	62.7314	45.4102	62.201	45.4102	62.5608	45.4102	62.0202	45.4102	62.3804	45.4102	61.85	45.4102	62.1969	45.4102	61.696	45.4102	62.0171	45.4102	61.5628	45.4102	61.8477	45.4102	61.4531	45.4102	61.6943	45.4102	61.3684	45.4102	61.5614	45.4102	61.3086	45.4102	61.4521	45.4102	61.2731	45.4102	61.3676	45.4102	61.2612	45.4102	61.308	45.4102	61.2728
46.875	63.4545	46.875	63.4017	46.875	63.4724	46.875	63.3153	46.875	63.455	46.875	63.1977	46.875	63.403	46.875	63.0526	46.875	63.3178	46.875	62.8846	46.875	63.2022	46.875	62.6996	46.875	63.0597	46.875	62.5045	46.875	62.8951	46.875	62.3069	46.875	62.7139	46.875	62.1147	46.875	62.5228	46.875	61.9353	46.875	62.3291	46.875	61.7751	46.875	62.1401	46.875	61.6387	46.875	61.9628	46.875	61.5289	46.875	61.8034	46.875	61.4463	46.875	61.6661	46.875	61.3902	46.875	61.5536	46.875	61.3591	46.875	61.4666	46.875	61.3514	46.875	61.4046	46.875	61.3665
48.3398	62.6486	48.3398	62.5554	48.3398	62.6938	48.3398	62.4162	48.3398	62.6899	48.3398	62.2348	48.3398	62.6373	48.3398	62.0161	48.3398	62.5373	48.3398	61.767	48.3398	62.3926	48.3398	61.496	48.3398	62.2072	48.3398	61.2134	48.3398	61.9867	48.3398	60.9309	48.3398	61.7383	48.3398	60.6608	48.3398	61.471	48.3398	60.4144	48.3398	61.1953	48.3398	60.2016	48.3398	60.9225	48.3398	60.0283	48.3398	60.664	48.3398	59.8971	48.3398	60.4299	48.3398	59.8065	48.3398	60.2278	48.3398	59.7528	48.3398	60.0617	48.3398	59.7315	48.3398	59.9323	48.3398	59.7391	48.3398	59.8375	48.3398	59.7741
51.2695	63.492	51.2695	63.3894	51.2695	63.54	51.2695	63.2344	51.2695	63.5325	51.2695	63.0302	51.2695	63.4697	51.2695	62.7818	51.2695	63.3528	51.2695	62.496	51.2695	63.1843	51.2695	62.182	51.2695	62.968	51.2695	61.8514	51.2695	62.7099	51.2695	61.5178	51.2695	62.4178	51.2695	61.1964	51.2695	62.102	51.2695	60.9019	51.2695	61.775	51.2695	60.6473	51.2695	61.4509	51.2695	60.4408	51.2695	61.1443	51.2695	60.2855	51.2695	60.8683	51.2695	60.1794	51.2695	60.633	51.2695	60.1166	51.2695	60.4433	51.2695	60.0905	51.2695	60.2992	51.2695	60.0958	51.2695	60.1969	51.2695	60.1306
52.7344	63.964	52.7344	63.8553	52.7344	64.0136	52.7344	63.6896	52.7344	64.0032	52.7344	63.4705	52.7344	63.9331	52.7344	63.2032	52.7344	63.8047	52.7344	62.8953	52.7344	63.6206	52.7344	62.557	52.7344	63.3852	52.7344	62.2013	52.7344	63.1049	52.7344	61.8435	52.7344	62.7884	52.7344	61.5009	52.7344	62.4471	52.7344	61.19	52.7344	62.0951	52.7344	60.9249	52.7344	61.7484	52.7344	60.7141	52.7344	61.4235	52.7344	60.5596	52.7344	61.1353	52.7344	60.457	52.7344	60.8943	52.7344	60.3984	52.7344	60.705	52.7344	60.3746	52.7344	60.5658	52.7344	60.3793	52.7344	60.4702	52.7344	60.4103
54.1992	64.0947	54.1992	63.9663	54.1992	64.1589	54.1992	63.7757	54.1992	64.1577	54.1992	63.5266	54.1992	64.0912	54.1992	63.2245	54.1992	63.9606	54.1992	62.8771	54.1992	63.7682	54.1992	62.4952	54.1992	63.518	54.1992	62.0929	54.1992	63.216	54.1992	61.6877	54.1992	62.8708	54.1992	61.2992	54.1992	62.494	54.1992	60.9473	54.1992	62.1006	54.1992	60.649	54.1992	61.7081	54.1992	60.4148	54.1992	61.3354	54.1992	60.2473	54.1992	61.0005	54.1992	60.1408	54.1992	60.7168	54.1992	60.0851	54.1992	60.4913	54.1992	60.0688	54.1992	60.3232	54.1992	60.0841	54.1992	60.2054	54.1992	60.1284
55.6641	64.4034	55.6641	64.2632	55.6641	64.4694	55.6641	64.0506	55.6641	64.4602	55.6641	63.7692	55.6641	64.3759	55.6641	63.4243	55.6641	64.2177	55.6641	63.0238	55.6641	63.9878	55.6641	62.5794	55.6641	63.69	55.6641	62.1069	55.6641	63.3306	55.6641	61.6268	55.6641	62.9185	55.6641	61.1636	55.6641	62.4669	55.6641	60.7431	55.6641	61.9935	55.6641	60.3883	55.6641	61.5205	55.6641	60.1138	55.6641	61.0734	55.6641	59.9222	55.6641	60.6771	55.6641	59.8043	55.6641	60.3509	55.6641	59.7436	55.6641	60.1039	55.6641	59.7229	55.6641	59.9326	55.6641	59.7298	55.6641	59.8241	55.6641	59.7613
58.5938	64.6591	58.5938	64.5088	58.5938	64.734	58.5938	64.2849	58.5938	64.7327	58.5938	63.9906	58.5938	64.6554	58.5938	63.631	58.5938	64.503	58.5938	63.2143	58.5938	64.2778	58.5938	62.7524	58.5938	63.9832	58.5938	62.262	58.5938	63.6249	58.5938	61.7647	58.5938	63.2114	58.5938	61.2864	58.5938	62.7553	58.5938	60.8542	58.5938	62.2735	58.5938	60.4918	58.5938	61.7876	58.5938	60.2137	58.5938	61.3231	58.5938	60.0217	58.5938	60.9053	58.5938	59.9057	58.5938	60.5553	58.5938	59.8484	58.5938	60.2841	58.5938	59.8324	58.5938	60.0909	58.5938	59.8461	58.5938	59.9642	58.5938	59.8875
60.0586	64.5569	60.0586	64.3816	60.0586	64.6434	60.0586	64.1187	60.0586	64.6408	60.0586	63.7709	60.0586	64.5494	60.0586	63.3429	60.0586	64.3702	60.0586	62.843	60.0586	64.1052	60.0586	62.2844	60.0586	63.7577	60.0586	61.6874	60.0586	63.3336	60.0586	61.0805	60.0586	62.8421	60.0586	60.5006	60.0586	62.298	60.0586	59.9884	60.0586	61.7224	60.0586	59.5797	60.0586	61.1442	60.0586	59.2944	60.0586	60.5985	60.0586	59.1292	60.0586	60.1212	60.0586	59.06	60.0586	59.7409	60.0586	59.0524	60.0586	59.469	60.0586	59.0744	60.0586	59.2964	60.0586	59.1059	60.0586	59.198	60.0586	59.143
62.9883	64.635	62.9883	64.4217	62.9883	64.7383	62.9883	64.0972	62.9883	64.7322	62.9883	63.6607	62.9883	64.617	62.9883	63.1116	62.9883	64.3922	62.9883	62.4518	62.9883	64.0574	62.9883	61.6873	62.9883	63.612	62.9883	60.8324	62.9883	63.0566	62.9883	59.9156	62.9883	62.3944	62.9883	58.9863	62.9883	61.6339	62.9883	58.1188	62.9883	60.7931	62.9883	57.4024	62.9883	59.9047	62.9883	56.9102	62.9883	59.022	62.9883	56.6595	62.9883	58.2182	62.9883	56.6003	62.9883	57.5711	62.9883	56.6464	62.9883	57.1319	62.9883	56.7178	62.9883	56.8965	62.9883	56.7667	62.9883	56.8073	62.9883	56.7858
64.4531	64.7089	64.4531	64.4743	64.4531	64.8264	64.4531	64.1203	64.4531	64.8281	64.4531	63.6437	64.4531	64.7138	64.4531	63.0408	64.4531	64.4824	64.4531	62.3079	64.4531	64.1317	64.4531	61.4439	64.4531	63.6586	64.4531	60.453	64.4531	63.0599	64.4531	59.3524	64.4531	62.3331	64.4531	58.1828	64.4531	61.4791	64.4531	57.0236	64.4531	60.5054	64.4531	55.9987	64.4531	59.434	64.4531	55.2468	64.4531	58.3112	64.4531	54.8433	64.4531	57.2187	64.4531	54.7411	64.4531	56.2713	64.4531	54.8077	64.4531	55.5801	64.4531	54.9121	64.4531	55.1875	64.4531	54.979	64.4531	55.034	64.4531	55.0007
67.3828	65.2382	67.3828	64.9623	67.3828	65.3806	67.3828	64.5477	67.3828	65.3921	67.3828	63.9856	67.3828	65.2724	67.3828	63.2639	67.3828	65.0187	67.3828	62.3656	67.3828	64.6255	67.3828	61.2682	67.3828	64.0842	67.3828	59.9422	67.3828	63.3827	67.3828	58.3513	67.3828	62.505	67.3828	56.4573	67.3828	61.4304	67.3828	54.2437	67.3828	60.1337	67.3828	51.8099	67.3828	58.5864	67.3828	49.6202	67.3828	56.7655	67.3828	48.5824	67.3828	54.6835	67.3828	48.9019	67.3828	52.4762	67.3828	49.6806	67.3828	50.5706	67.3828	50.241	67.3828	49.6121	67.3828	50.3783	67.3828	49.6774	67.3828	50.116
68.8477	65.7734	68.8477	65.4918	68.8477	65.9186	68.8477	65.0676	68.8477	65.9301	68.8477	64.4909	68.8477	65.8077	68.8477	63.7469	68.8477	65.5479	68.8477	62.8145	68.8477	65.1441	68.8477	61.6635	68.8477	64.5862	68.8477	60.2503	68.8477	63.8589	68.8477	58.5093	68.8477	62.9414	68.8477	56.3365	68.8477	61.8041	68.8477	53.552	68.8477	60.4052	68.8477	49.8067	68.8477	58.683	68.8477	44.3375	68.8477	56.5435	68.8477	37.3307	68.8477	53.8343	68.8477	40.8068	68.8477	50.3011	68.8477	44.6444	68.8477	45.6251	68.8477	46.2765	68.8477	41.2364	68.8477	46.4245	68.8477	42.6355	68.8477	45.2259
71.7773	67.011	71.7773	66.7306	71.7773	67.158	71.7773	66.3117	71.7773	67.1739	71.7773	65.7462	71.7773	67.0583	71.7773	65.0226	71.7773	66.8081	71.7773	64.1258	71.7773	66.4173	71.7773	63.0364	71.7773	65.8766	71.7773	61.732	71.7773	65.173	71.7773	60.1901	71.7773	64.2887	71.7773	58.4016	71.7773	63.2003	71.7773	56.4093	71.7773	61.8775	71.7773	54.4039	71.7773	60.2837	71.7773	52.8403	71.7773	58.3817	71.7773	52.2078	71.7773	56.1635	71.7773	52.3871	71.7773	53.7588	71.7773	52.7936	71.7773	51.7024	71.7773	52.9972	71.7773	50.9025	71.7773	52.8172	71.7773	51.3877	71.7773	52.226
74.707	68.4476	74.707	68.2029	74.707	68.5749	74.707	67.8395	74.707	68.5849	74.707	67.3559	74.707	68.4768	74.707	66.751	74.707	68.2483	74.707	66.0262	74.707	67.8959	74.707	65.1882	74.707	67.4151	74.707	64.2549	74.707	66.8012	74.707	63.2635	74.707	66.0499	74.707	62.2801	74.707	65.1609	74.707	61.4021	74.707	64.1433	74.707	60.7355	74.707	63.0254	74.707	60.3436	74.707	61.8725	74.707	60.2018	74.707	60.8028	74.707	60.2109	74.707	59.979	74.707	60.2538	74.707	59.5335	74.707	60.2405	74.707	59.4681	74.707	60.1249	74.707	59.6493	74.707	59.9088
77.6367	71.5994	77.6367	71.5152	77.6367	71.6177	77.6367	71.3674	77.6367	71.5697	77.6367	71.1604	77.6367	71.4568	77.6367	70.9018	77.6367	71.2819	77.6367	70.603	77.6367	71.0501	77.6367	70.2798	77.6367	70.7689	77.6367	69.9525	77.6367	70.4493	77.6367	69.6448	77.6367	70.1067	77.6367	69.3801	77.6367	69.7607	77.6367	69.1773	77.6367	69.435	77.6367	69.0453	77.6367	69.1543	77.6367	68.9804	77.6367	68.9401	77.6367	68.9672	77.6367	68.8053	77.6367	68.9832	77.6367	68.7495	77.6367	69.0051	77.6367	68.7597	77.6367	69.0134	77.6367	68.8133	77.6367	68.9963	77.6367	68.8847	77.6367	68.951
79.1016	72.7	79.1016	72.6323	79.1016	72.7135	79.1016	72.5126	79.1016	72.6723	79.1016	72.3455	79.1016	72.5777	79.1016	72.1382	79.1016	72.4326	79.1016	71.9008	79.1016	72.242	79.1016	71.6469	79.1016	72.0131	79.1016	71.3926	79.1016	71.7559	79.1016	71.1557	79.1016	71.4836	79.1016	70.953	79.1016	71.212	79.1016	70.7969	79.1016	70.9593	79.1016	70.6927	79.1016	70.7433	79.1016	70.6371	79.1016	70.5788	79.1016	70.6187	79.1016	70.4739	79.1016	70.6217	79.1016	70.4279	79.1016	70.6295	79.1016	70.4314	79.1016	70.6282	79.1016	70.4685	79.1016	70.6096	79.1016	70.5209	79.1016	70.572
82.0312	74.8636	82.0312	74.8198	82.0312	74.8689	82.0312	74.7393	82.0312	74.8357	82.0312	74.6255	82.0312	74.765	82.0312	74.4835	82.0312	74.6593	82.0312	74.3203	82.0312	74.5226	82.0312	74.145	82.0312	74.3603	82.0312	73.9678	82.0312	74.1796	82.0312	73.7997	82.0312	73.9894	82.0312	73.6506	82.0312	73.8001	82.0312	73.528	82.0312	73.6225	82.0312	73.4354	82.0312	73.4672	82.0312	73.372	82.0312	73.3427	82.0312	73.3325	82.0312	73.2541	82.0312	73.3091	82.0312	73.2019	82.0312	73.2931	82.0312	73.1821	82.0312	73.2773	82.0312	73.1869	82.0312	73.2573	82.0312	73.2068	82.0312	73.2326
84.9609	76.8462	84.9609	76.8162	84.9609	76.8468	84.9609	76.7578	84.9609	76.8183	84.9609	76.6728	84.9609	76.7614	84.9609	76.5646	84.9609	76.6781	84.9609	76.4376	84.9609	76.571	84.9609	76.2978	84.9609	76.4438	84.9609	76.152	84.9609	76.3013	84.9609	76.0078	84.9609	76.1492	84.9609	75.8722	84.9609	75.9943	84.9609	75.7513	84.9609	75.844	84.9609	75.649	84.9609	75.7056	84.9609	75.5664	84.9609	75.5855	84.9609	75.5024	84.9609	75.4886	84.9609	75.4538	84.9609	75.4172	84.9609	75.4167	84.9609	75.371	84.9609	75.3877	84.9609	75.3472	84.9609	75.365	84.9609	75.3414	84.9609	75.3487
87.8906	78.372	87.8906	78.3486	87.8906	78.3689	87.8906	78.2993	87.8906	78.3397	87.8906	78.2258	87.8906	78.2858	87.8906	78.1313	87.8906	78.2094	87.8906	78.0202	87.8906	78.1136	87.8906	77.898	87.8906	78.0022	87.8906	77.7709	87.8906	77.8794	87.8906	77.6455	87.8906	77.7504	87.8906	77.5278	87.8906	77.6205	87.8906	77.4226	87.8906	77.4954	87.8906	77.3328	87.8906	77.3805	87.8906	77.2594	87.8906	77.2804	87.8906	77.2015	87.8906	77.1986	87.8906	77.1568	87.8906	77.1368	87.8906	77.1225	87.8906	77.0948	87.8906	77.0964	87.8906	77.0708	87.8906	77.0772	87.8906	77.0621	87.8906	77.0651
90.8203	79.6523	90.8203	79.6375	90.8203	79.6506	90.8203	79.6065	90.8203	79.6326	90.8203	79.5601	90.8203	79.5993	90.8203	79.5003	90.8203	79.552	90.8203	79.4295	90.8203	79.4924	90.8203	79.3508	90.8203	79.4225	90.8203	79.2678	90.8203	79.3445	90.8203	79.1844	90.8203	79.2612	90.8203	79.1039	90.8203	79.1756	90.8203	79.0294	90.8203	79.0908	90.8203	78.9629	90.8203	79.0101	90.8203	78.9055	90.8203	78.9367	90.8203	78.8576	90.8203	78.8733	90.8203	78.8186	90.8203	78.8218	90.8203	78.7879	90.8203	78.7833	90.8203	78.7648	90.8203	78.7579	90.8203	78.7495	90.8203	78.7447	90.8203	78.7424
95.2148	81.1802	95.2148	81.1729	95.2148	81.1755	95.2148	81.1534	95.2148	81.1592	95.2148	81.122	95.2148	81.132	95.2148	81.0793	95.2148	81.0944	95.2148	81.0263	95.2148	81.0475	95.2148	80.9647	95.2148	80.9922	95.2148	80.8965	95.2148	80.9296	95.2148	80.8242	95.2148	80.8613	95.2148	80.7501	95.2148	80.7888	95.2148	80.677	95.2148	80.7145	95.2148	80.6071	95.2148	80.6407	95.2148	80.5425	95.2148	80.57	95.2148	80.4849	95.2148	80.5053	95.2148	80.4356	95.2148	80.449	95.2148	80.3958	95.2148	80.4034	95.2148	80.3663	95.2148	80.3699	95.2148	80.3483	95.2148	80.3496	95.2148	80.3425
98.1445	81.9363	98.1445	81.9349	98.1445	81.9277	98.1445	81.9229	98.1445	81.9096	98.1445	81.9	98.1445	81.8829	98.1445	81.8663	98.1445	81.8481	98.1445	81.8223	98.1445	81.8059	98.1445	81.7691	98.1445	81.757	98.1445	81.708	98.1445	81.7021	98.1445	81.6412	98.1445	81.6421	98.1445	81.5707	98.1445	81.5781	98.1445	81.4992	98.1445	81.5117	98.1445	81.429	98.1445	81.4446	98.1445	81.3627	98.1445	81.3792	98.1445	81.3024	98.1445	81.3179	98.1445	81.2503	98.1445	81.2632	98.1445	81.2079	98.1445	81.2177	98.1445	81.1768	98.1445	81.1832	98.1445	81.1582	98.1445	81.1614	98.1445	81.153
101.074	82.588	101.074	82.5923	101.074	82.5747	101.074	82.5869	101.074	82.5535	101.074	82.5711	101.074	82.525	101.074	82.5446	101.074	82.4899	101.074	82.5075	101.074	82.449	101.074	82.4603	101.074	82.4026	101.074	82.4043	101.074	82.3513	101.074	82.3409	101.074	82.2956	101.074	82.2723	101.074	82.2363	101.074	82.2009	101.074	82.1746	101.074	82.1293	101.074	82.1119	101.074	82.0601	101.074	82.0502	101.074	81.9962	101.074	81.9918	101.074	81.94	101.074	81.939	101.074	81.8938	101.074	81.8946	101.074	81.8595	101.074	81.8608	101.074	81.8385	101.074	81.8394	101.074	81.8318
105.469	83.1937	105.469	83.2134	105.469	83.1654	105.469	83.2236	105.469	83.1295	105.469	83.2235	105.469	83.0869	105.469	83.2125	105.469	83.0388	105.469	83.1904	105.469	82.986	105.469	83.157	105.469	82.9296	105.469	83.1126	105.469	82.8705	105.469	83.0581	105.469	82.8097	105.469	82.9945	105.469	82.7481	105.469	82.9238	105.469	82.6871	105.469	82.8482	105.469	82.628	105.469	82.7704	105.469	82.5726	105.469	82.6936	105.469	82.5229	105.469	82.6212	105.469	82.4811	105.469	82.5565	105.469	82.4495	105.469	82.5025	105.469	82.4304	105.469	82.4618	105.469	82.4255	105.469	82.4358
108.398	83.6891	108.398	83.7164	108.398	83.6536	108.398	83.7345	108.398	83.6112	108.398	83.7423	108.398	83.5631	108.398	83.7392	108.398	83.5104	108.398	83.7243	108.398	83.4544	108.398	83.6976	108.398	83.396	108.398	83.659	108.398	83.3365	108.398	83.6092	108.398	83.2769	108.398	83.5494	108.398	83.2182	108.398	83.4813	108.398	83.1616	108.398	83.4071	108.398	83.1085	108.398	83.3297	108.398	83.0602	108.398	83.2523	108.398	83.0187	108.398	83.1781	108.398	82.9857	108.398	83.1104	108.398	82.9631	108.398	83.0524	108.398	82.9528	108.398	83.0063	108.398	82.9561	108.398	82.974
112.793	84.2945	112.793	84.3138	112.793	84.2666	112.793	84.3232	112.793	84.2315	112.793	84.3214	112.793	84.1903	112.793	84.3076	112.793	84.1443	112.793	84.2813	112.793	84.0945	112.793	84.2424	112.793	84.0415	112.793	84.1915	112.793	83.986	112.793	84.1296	112.793	83.9285	112.793	84.0588	112.793	83.8697	112.793	83.9812	112.793	83.8103	112.793	83.9	112.793	83.7514	112.793	83.8186	112.793	83.6943	112.793	83.7405	112.793	83.6409	112.793	83.6694	112.793	83.5935	112.793	83.6086	112.793	83.5545	112.793	83.5609	112.793	83.5264	112.793	83.5284	112.793	83.5117	112.793	83.512
117.188	85.4918	117.188	85.513	117.188	85.4618	117.188	85.5245	117.188	85.4241	117.188	85.5255	117.188	85.3798	117.188	85.5155	117.188	85.3301	117.188	85.4943	117.188	85.2763	117.188	85.4617	117.188	85.2195	117.188	85.4182	117.188	85.1608	117.188	85.3646	117.188	85.1013	117.188	85.3022	117.188	85.0421	117.188	85.2328	117.188	84.9845	117.188	85.1588	117.188	84.9296	117.188	85.0829	117.188	84.8789	117.188	85.0084	117.188	84.834	117.188	84.9386	117.188	84.7968	117.188	84.8764	117.188	84.7692	117.188	84.8248	117.188	84.753	117.188	84.7857	117.188	84.7498	117.188	84.7606
120.117	85.7799	120.117	85.8047	120.117	85.7461	120.117	85.8197	120.117	85.7046	120.117	85.8238	120.117	85.6567	120.117	85.8167	120.117	85.6038	120.117	85.7979	120.117	85.5472	120.117	85.7674	120.117	85.4881	120.117	85.7256	120.117	85.4279	120.117	85.6732	120.117	85.3677	120.117	85.6115	120.117	85.3085	120.117	85.5423	120.117	85.2516	120.117	85.4678	120.117	85.1981	120.117	85.3909	120.117	85.1494	120.117	85.3147	120.117	85.1071	120.117	85.2426	120.117	85.073	120.117	85.1777	120.117	85.0488	120.117	85.1228	120.117	85.0363	120.117	85.0803	120.117	85.0368	120.117	85.0514
124.512	86.1326	124.512	86.1528	124.512	86.1041	124.512	86.1637	124.512	86.0684	124.512	86.1645	124.512	86.0267	124.512	86.1549	124.512	85.9803	124.512	86.1346	124.512	85.9305	124.512	86.1037	124.512	85.8785	124.512	86.0628	124.512	85.8252	124.512	86.0126	124.512	85.7717	124.512	85.9545	124.512	85.7187	124.512	85.8902	124.512	85.6671	124.512	85.8219	124.512	85.618	124.512	85.7522	124.512	85.5724	124.512	85.6841	124.512	85.5319	124.512	85.6204	124.512	85.4979	124.512	85.5641	124.512	85.4722	124.512	85.5177	124.512	85.4566	124.512	85.483	124.512	85.4526	124.512	85.4612
128.906	86.4831	128.906	86.5031	128.906	86.4551	128.906	86.5139	128.906	86.4203	128.906	86.515	128.906	86.3798	128.906	86.5057	128.906	86.3352	128.906	86.486	128.906	86.2875	128.906	86.4558	128.906	86.238	128.906	86.4159	128.906	86.1877	128.906	86.3669	128.906	86.1374	128.906	86.3102	128.906	86.0879	128.906	86.2477	128.906	86.0398	128.906	86.1815	128.906	85.9941	128.906	86.1145	128.906	85.9516	128.906	86.0494	128.906	85.9137	128.906	85.9892	128.906	85.8817	128.906	85.9366	128.906	85.8571	128.906	85.8938	128.906	85.8416	128.906	85.8625	128.906	85.8367	128.906	85.8434
133.301	86.859	133.301	86.8731	133.301	86.8372	133.301	86.8786	133.301	86.8085	133.301	86.8751	133.301	86.7741	133.301	86.8621	133.301	86.7349	133.301	86.8395	133.301	86.6921	133.301	86.8076	133.301	86.6467	133.301	86.7668	133.301	86.5996	133.301	86.7179	133.301	86.5516	133.301	86.6623	133.301	86.5035	133.301	86.6018	133.301	86.4559	133.301	86.5385	133.301	86.4099	133.301	86.475	133.301	86.3663	133.301	86.4142	133.301	86.3263	133.301	86.3589	133.301	86.2915	133.301	86.3115	133.301	86.2634	133.301	86.2744	133.301	86.2437	133.301	86.2487	133.301	86.2338	133.301	86.2353
139.16	87.3288	139.16	87.3425	139.16	87.306	139.16	87.3464	139.16	87.2751	139.16	87.34	139.16	87.2373	139.16	87.3234	139.16	87.194	139.16	87.2968	139.16	87.1466	139.16	87.2606	139.16	87.0966	139.16	87.2157	139.16	87.0454	139.16	87.1634	139.16	86.9942	139.16	87.1052	139.16	86.944	139.16	87.0432	139.16	86.8958	139.16	86.9797	139.16	86.8504	139.16	86.9171	139.16	86.8085	139.16	86.8581	139.16	86.7711	139.16	86.8052	139.16	86.7391	139.16	86.7606	139.16	86.7138	139.16	86.7258	139.16	86.6962	139.16	86.702	139.16	86.6877	139.16	86.6894
143.555	87.6609	143.555	87.6728	143.555	87.6388	143.555	87.6737	143.555	87.6074	143.555	87.6635	143.555	87.568	143.555	87.6421	143.555	87.5222	143.555	87.6102	143.555	87.4718	143.555	87.5686	143.555	87.4186	143.555	87.5184	143.555	87.3641	143.555	87.4614	143.555	87.31	143.555	87.3993	143.555	87.2574	143.555	87.3345	143.555	87.2075	143.555	87.2695	143.555	87.1609	143.555	87.2067	143.555	87.1184	143.555	87.1488	143.555	87.0806	143.555	87.0979	143.555	87.0484	143.555	87.056	143.555	87.0225	143.555	87.0243	143.555	87.004	143.555	87.0034	143.555	86.994	143.555	86.9935
147.949	87.9792	147.949	87.9919	147.949	87.9542	147.949	87.9918	147.949	87.9181	147.949	87.9785	147.949	87.8726	147.949	87.9525	147.949	87.8196	147.949	87.9144	147.949	87.7612	147.949	87.8654	147.949	87.6998	147.949	87.8072	147.949	87.6374	147.949	87.7418	147.949	87.5761	147.949	87.6715	147.949	87.5173	147.949	87.5991	147.949	87.4623	147.949	87.5274	147.949	87.4119	147.949	87.4591	147.949	87.3668	147.949	87.3969	147.949	87.3273	147.949	87.3432	147.949	87.294	147.949	87.2996	147.949	87.2674	147.949	87.2672	147.949	87.2483	147.949	87.2463	147.949	87.2377	147.949	87.2368
153.809	88.3104	153.809	88.3223	153.809	88.2855	153.809	88.3208	153.809	88.249	153.809	88.3055	153.809	88.2026	153.809	88.2769	153.809	88.1484	153.809	88.236	153.809	88.0887	153.809	88.184	153.809	88.026	153.809	88.1229	153.809	87.9627	153.809	88.0548	153.809	87.9007	153.809	87.9823	153.809	87.8417	153.809	87.9084	153.809	87.7869	153.809	87.8361	153.809	87.7372	153.809	87.7682	153.809	87.6928	153.809	87.7074	153.809	87.6542	153.809	87.6558	153.809	87.6216	153.809	87.615	153.809	87.5952	153.809	87.5857	153.809	87.5757	153.809	87.5679	153.809	87.5639	153.809	87.5609
159.668	88.6436	159.668	88.6554	159.668	88.6186	159.668	88.6528	159.668	88.5819	159.668	88.6357	159.668	88.536	159.668	88.6047	159.668	88.4835	159.668	88.5609	159.668	88.4275	159.668	88.5063	159.668	88.3706	159.668	88.4433	159.668	88.3155	159.668	88.375	159.668	88.264	159.668	88.3044	159.668	88.2174	159.668	88.2351	159.668	88.1763	159.668	88.1702	159.668	88.1406	159.668	88.1128	159.668	88.1097	159.668	88.0651	159.668	88.0828	159.668	88.0287	159.668	88.059	159.668	88.0041	159.668	88.0378	159.668	87.9909	159.668	88.0192	159.668	87.9876	159.668	88.0037	159.668	87.9926
165.527	89.0498	165.527	89.0705	165.527	89.0136	165.527	89.0746	165.527	88.9642	165.527	89.0615	165.527	88.9044	165.527	89.0321	165.527	88.8374	165.527	88.9878	165.527	88.767	165.527	88.931	165.527	88.6965	165.527	88.8647	165.527	88.6291	165.527	88.7924	165.527	88.5674	165.527	88.7178	165.527	88.513	165.527	88.6444	165.527	88.4669	165.527	88.5757	165.527	88.4295	165.527	88.5142	165.527	88.4003	165.527	88.462	165.527	88.3783	165.527	88.4201	165.527	88.3625	165.527	88.3884	165.527	88.3519	165.527	88.3663	165.527	88.3455	165.527	88.3523	165.527	88.3431	165.527	88.3451
171.387	89.3206	171.387	89.34	171.387	89.2836	171.387	89.341	171.387	89.231	171.387	89.3232	171.387	89.1658	171.387	89.2877	171.387	89.0914	171.387	89.2362	171.387	89.0116	171.387	89.1716	171.387	88.9304	171.387	89.0972	171.387	88.8518	171.387	89.017	171.387	88.779	171.387	88.935	171.387	88.7148	171.387	88.8553	171.387	88.6607	171.387	88.7814	171.387	88.6175	171.387	88.7162	171.387	88.5848	171.387	88.6615	171.387	88.5617	171.387	88.618	171.387	88.5466	171.387	88.5854	171.387	88.5378	171.387	88.5624	171.387	88.534	171.387	88.5473	171.387	88.5342	171.387	88.5384
177.246	89.5316	177.246	89.546	177.246	89.4977	177.246	89.54	177.246	89.4464	177.246	89.5135	177.246	89.3807	177.246	89.4677	177.246	89.3043	177.246	89.4051	177.246	89.2213	177.246	89.3289	177.246	89.1359	177.246	89.2433	177.246	89.0522	177.246	89.1528	177.246	88.9736	177.246	89.0624	177.246	88.9029	177.246	88.9764	177.246	88.8419	177.246	88.8987	177.246	88.7914	177.246	88.832	177.246	88.7515	177.246	88.7778	177.246	88.7214	177.246	88.7364	177.246	88.6998	177.246	88.7069	177.246	88.6852	177.246	88.6876	177.246	88.6762	177.246	88.6765	177.246	88.6717	177.246	88.6717
183.105	89.6505	183.105	89.6689	183.105	89.6109	183.105	89.6649	183.105	89.5527	183.105	89.6384	183.105	89.4796	183.105	89.5906	183.105	89.3961	183.105	89.5241	183.105	89.3074	183.105	89.4426	183.105	89.2185	183.105	89.3507	183.105	89.1344	183.105	89.254	183.105	89.0588	183.105	89.158	183.105	88.9945	183.105	89.0682	183.105	88.9427	183.105	88.9892	183.105	88.9033	183.105	88.9242	183.105	88.875	183.105	88.8749	183.105	88.8555	183.105	88.8411	183.105	88.8423	183.105	88.8211	183.105	88.8331	183.105	88.812	183.105	88.8258	183.105	88.8107	183.105	88.8194	183.105	88.8139
188.965	89.8018	188.965	89.8278	188.965	89.752	188.965	89.8283	188.965	89.6815	188.965	89.803	188.965	89.5944	188.965	89.7533	188.965	89.496	188.965	89.6818	188.965	89.3922	188.965	89.5927	188.965	89.2893	188.965	89.4913	188.965	89.1928	188.965	89.384	188.965	89.1077	188.965	89.2772	188.965	89.0375	188.965	89.1776	188.965	88.9838	188.965	89.0904	188.965	88.9465	188.965	89.0195	188.965	88.9236	188.965	88.9668	188.965	88.9121	188.965	88.9318	188.965	88.9081	188.965	88.9121	188.965	88.9077	188.965	88.9039	188.965	88.9081	188.965	88.9029	188.965	88.9072	188.965	88.905
196.289	90.0359	196.289	90.0625	196.289	89.9818	196.289	90.06	196.289	89.9036	196.289	90.028	196.289	89.8059	196.289	89.9679	196.289	89.6942	196.289	89.8828	196.289	89.5751	196.289	89.777	196.289	89.4554	196.289	89.6567	196.289	89.3416	196.289	89.5288	196.289	89.2393	196.289	89.4009	196.289	89.1527	196.289	89.2805	196.289	89.0841	196.289	89.1741	196.289	89.0336	196.289	89.0867	196.289	88.9996	196.289	89.0208	196.289	88.9788	196.289	88.9764	196.289	88.9672	196.289	88.9512	196.289	88.9606	196.289	88.9408	196.289	88.9556	196.289	88.9402	196.289	88.9504	196.289	88.9446
203.613	90.2031	203.613	90.2546	203.613	90.1203	203.613	90.2732	203.613	90.0093	203.613	90.2589	203.613	89.8749	203.613	90.2136	203.613	89.7234	203.613	90.1402	203.613	89.5626	203.613	90.0434	203.613	89.4009	203.613	89.9287	203.613	89.2473	203.613	89.8027	203.613	89.11	203.613	89.672	203.613	88.9959	203.613	89.5433	203.613	88.9095	203.613	89.4224	203.613	88.8522	203.613	89.3139	203.613	88.8227	203.613	89.2208	203.613	88.8169	203.613	89.1438	203.613	88.8291	203.613	89.0818	203.613	88.8533	203.613	89.0319	203.613	88.8842	203.613	88.9902	203.613	88.9179	203.613	88.9531
210.938	90.2145	210.938	90.2549	210.938	90.1446	210.938	90.2647	210.938	90.0476	210.938	90.2441	210.938	89.9277	210.938	90.195	210.938	89.7903	210.938	90.1206	210.938	89.6421	210.938	90.0255	210.938	89.491	210.938	89.9157	210.938	89.3453	210.938	89.7977	210.938	89.2131	210.938	89.6782	210.938	89.1016	210.938	89.5635	210.938	89.0158	210.938	89.4586	210.938	88.9579	210.938	89.3667	210.938	88.9272	210.938	89.2891	210.938	88.9201	210.938	89.2253	210.938	88.9314	210.938	89.1731	210.938	88.9551	210.938	89.1295	210.938	88.986	210.938	89.091	210.938	89.0201	210.938	89.0551
218.262	90.0553	218.262	90.0834	218.262	89.9974	218.262	90.0811	218.262	89.9116	218.262	90.0499	218.262	89.802	218.262	89.9927	218.262	89.6743	218.262	89.914	218.262	89.5356	218.262	89.8196	218.262	89.3946	218.262	89.7163	218.262	89.2604	218.262	89.6114	218.262	89.1422	218.262	89.5118	218.262	89.0476	218.262	89.4234	218.262	88.9821	218.262	89.3503	218.262	88.9476	218.262	89.2943	218.262	88.9423	218.262	89.2545	218.262	88.961	218.262	89.2281	218.262	88.9962	218.262	89.2102	218.262	89.0399	218.262	89.1954	218.262	89.0843	218.262	89.1785	218.262	89.1238	218.262	89.1554
225.586	90.1628	225.586	90.1941	225.586	90.0959	225.586	90.1894	225.586	89.9956	225.586	90.1501	225.586	89.8663	225.586	90.0796	225.586	89.7146	225.586	89.9831	225.586	89.549	225.586	89.8672	225.586	89.38	225.586	89.7403	225.586	89.2191	225.586	89.6113	225.586	89.0781	225.586	89.4893	225.586	88.9673	225.586	89.3826	225.586	88.8937	225.586	89.2973	225.586	88.8599	225.586	89.2363	225.586	88.8631	225.586	89.1988	225.586	88.8959	225.586	89.1806	225.586	88.9481	225.586	89.1744	225.586	89.0082	225.586	89.1718	225.586	89.0659	225.586	89.1646	225.586	89.1133	225.586	89.1463
232.91	90.1897	232.91	90.2336	232.91	90.1056	232.91	90.2379	232.91	89.9829	232.91	90.2047	232.91	89.8249	232.91	90.1378	232.91	89.6375	232.91	90.0427	232.91	89.429	232.91	89.9262	232.91	89.2104	232.91	89.796	232.91	88.9952	232.91	89.6605	232.91	88.7985	232.91	89.5279	232.91	88.6351	232.91	89.4055	232.91	88.5175	232.91	89.299	232.91	88.4528	232.91	89.2114	232.91	88.4414	232.91	89.1428	232.91	88.4766	232.91	89.0898	232.91	88.5462	232.91	89.0462	232.91	88.6355	232.91	89.0041	232.91	88.7303	232.91	88.9557	232.91	88.8191	232.91	88.8949
241.699	90.0112	241.699	90.0222	241.699	89.9574	241.699	89.9927	241.699	89.8606	241.699	89.927	241.699	89.7224	241.699	89.8312	241.699	89.5469	241.699	89.7132	241.699	89.3403	241.699	89.582	241.699	89.112	241.699	89.4471	241.699	88.8742	241.699	89.3175	241.699	88.6419	241.699	89.1999	241.699	88.432	241.699	89.0985	241.699	88.2609	241.699	89.0145	241.699	88.1424	241.699	88.946	241.699	88.0837	241.699	88.8886	241.699	88.0843	241.699	88.8363	241.699	88.1358	241.699	88.7822	241.699	88.2239	241.699	88.7196	241.699	88.3321	241.699	88.6432	241.699	88.4451	241.699	88.5511
250.488	89.9888	250.488	89.9358	250.488	89.9888	250.488	89.8312	250.488	89.9367	250.488	89.6791	250.488	89.8351	250.488	89.4869	250.488	89.6887	250.488	89.2659	250.488	89.5042	250.488	89.0309	250.488	89.2904	250.488	88.8	250.488	89.0588	250.488	88.5917	250.488	88.8232	250.488	88.4223	250.488	88.5994	250.488	88.3022	250.488	88.4031	250.488	88.2339	250.488	88.2483	250.488	88.2116	250.488	88.1441	250.488	88.2227	250.488	88.0928	250.488	88.2513	250.488	88.0889	250.488	88.2814	250.488	88.1207	250.488	88.2998	250.488	88.1724	250.488	88.2978	250.488	88.2277	250.488	88.2726
259.277	89.9775	259.277	89.927	259.277	89.9777	259.277	89.826	259.277	89.9296	259.277	89.6769	259.277	89.8369	259.277	89.4854	259.277	89.7045	259.277	89.2611	259.277	89.5389	259.277	89.0178	259.277	89.348	259.277	88.7727	259.277	89.1417	259.277	88.545	259.277	88.9314	259.277	88.3527	259.277	88.7297	259.277	88.2096	259.277	88.5495	259.277	88.122	259.277	88.4019	259.277	88.0874	259.277	88.2947	259.277	88.096	259.277	88.2302	259.277	88.1324	259.277	88.2044	259.277	88.1798	259.277	88.208	259.277	88.223	259.277	88.2275	259.277	88.251	259.277	88.2485	259.277	88.259
268.066	89.8537	268.066	89.7843	268.066	89.8644	268.066	89.6552	268.066	89.8192	268.066	89.468	268.066	89.7228	268.066	89.2278	268.066	89.5811	268.066	88.9448	268.066	89.4022	268.066	88.6349	268.066	89.196	268.066	88.3199	268.066	88.9744	268.066	88.026	268.066	88.7509	268.066	87.7801	268.066	88.5395	268.066	87.6036	268.066	88.3531	268.066	87.5077	268.066	88.2018	268.066	87.4899	268.066	88.0908	268.066	87.5351	268.066	88.0201	268.066	87.6206	268.066	87.9838	268.066	87.7217	268.066	87.9716	268.066	87.817	268.066	87.9697	268.066	87.8921	268.066	87.9635	268.066	87.9404
276.855	90.0474	276.855	90.0107	276.855	90.0275	276.855	89.9147	276.855	89.9543	276.855	89.758	276.855	89.8322	276.855	89.5416	276.855	89.6662	276.855	89.2701	276.855	89.4635	276.855	88.9533	276.855	89.2335	276.855	88.6071	276.855	88.9884	276.855	88.2538	276.855	88.7426	276.855	87.9206	276.855	88.5115	276.855	87.6354	276.855	88.3082	276.855	87.4218	276.855	88.1418	276.855	87.2926	276.855	88.0147	276.855	87.247	276.855	87.9229	276.855	87.271	276.855	87.8572	276.855	87.3426	276.855	87.8056	276.855	87.4379	276.855	87.7561	276.855	87.5367	276.855	87.6982	276.855	87.6254
287.109	89.7005	287.109	89.6772	287.109	89.6684	287.109	89.5971	287.109	89.5841	287.109	89.4609	287.109	89.4522	287.109	89.2722	287.109	89.2794	287.109	89.0384	287.109	89.0747	287.109	88.772	287.109	88.8497	287.109	88.4907	287.109	88.6189	287.109	88.2168	287.109	88.399	287.109	87.9749	287.109	88.2071	287.109	87.7871	287.109	88.0578	287.109	87.6688	287.109	87.9601	287.109	87.6237	287.109	87.9149	287.109	87.6439	287.109	87.9142	287.109	87.7112	287.109	87.9436	287.109	87.8028	287.109	87.985	287.109	87.8961	287.109	88.0205	287.109	87.9726	287.109	88.0356	287.109	88.0206
297.363	89.8488	297.363	89.8161	297.363	89.8125	297.363	89.7156	297.363	89.7081	297.363	89.5508	297.363	89.5389	297.363	89.3276	297.363	89.3114	297.363	89.0557	297.363	89.0364	297.363	88.7491	297.363	88.7297	297.363	88.4269	297.363	88.4134	297.363	88.1139	297.363	88.1142	297.363	87.8381	297.363	87.8612	297.363	87.6264	297.363	87.6793	297.363	87.4981	297.363	87.5824	297.363	87.4585	297.363	87.5689	297.363	87.4973	297.363	87.6217	297.363	87.5908	297.363	87.7141	297.363	87.7095	297.363	87.8165	297.363	87.8245	297.363	87.9029	297.363	87.9123	297.363	87.9536	297.363	87.9575
307.617	89.8885	307.617	89.8307	307.617	89.8782	307.617	89.7048	307.617	89.8002	307.617	89.5112	307.617	89.6551	307.617	89.2526	307.617	89.4445	307.617	88.9352	307.617	89.1724	307.617	88.5708	307.617	88.8471	307.617	88.1786	307.617	88.483	307.617	87.7851	307.617	88.1018	307.617	87.4224	307.617	87.7323	307.617	87.1241	307.617	87.4077	307.617	86.9172	307.617	87.159	307.617	86.8143	307.617	87.0056	307.617	86.8083	307.617	86.9485	307.617	86.8746	307.617	86.9693	307.617	86.978	307.617	87.0365	307.617	87.0825	307.617	87.1147	307.617	87.1594	307.617	87.1733	307.617	87.1911
319.336	89.1835	319.336	89.1056	319.336	89.1951	319.336	88.9597	319.336	89.1427	319.336	88.7466	319.336	89.0299	319.336	88.47	319.336	88.8605	319.336	88.1392	319.336	88.6403	319.336	87.7697	319.336	88.3778	319.336	87.3848	319.336	88.0855	319.336	87.0153	319.336	87.7815	319.336	86.696	319.336	87.4893	319.336	86.4602	319.336	87.2355	319.336	86.331	319.336	87.0449	319.336	86.3137	319.336	86.9328	319.336	86.393	319.336	86.8994	319.336	86.5379	319.336	86.9282	319.336	86.7101	319.336	86.9904	319.336	86.8734	319.336	87.0532	319.336	86.9998	319.336	87.0873	319.336	87.0724
329.59	89.2129	329.59	89.155	329.59	89.1986	329.59	89.0217	329.59	89.1153	329.59	88.8108	329.59	88.9668	329.59	88.5224	329.59	88.7577	329.59	88.1602	329.59	88.4947	329.59	87.7351	329.59	88.1877	329.59	87.2674	329.59	87.8507	329.59	86.7893	329.59	87.503	329.59	86.3444	329.59	87.1679	329.59	85.9819	329.59	86.871	329.59	85.7441	329.59	86.6355	329.59	85.6511	329.59	86.4762	329.59	85.6916	329.59	86.395	329.59	85.8278	329.59	86.3793	329.59	86.0094	329.59	86.4042	329.59	86.1891	329.59	86.4385	329.59	86.3323	329.59	86.4519	329.59	86.4206
341.309	89.0639	341.309	89.0512	341.309	88.9996	341.309	88.9571	341.309	88.8638	341.309	88.7788	341.309	88.6628	341.309	88.5162	341.309	88.4043	341.309	88.1739	341.309	88.0986	341.309	87.7627	341.309	87.7595	341.309	87.3019	341.309	87.4055	341.309	86.8207	341.309	87.0599	341.309	86.3591	341.309	86.7497	341.309	85.9649	341.309	86.5014	341.309	85.6856	341.309	86.335	341.309	85.5531	341.309	86.2569	341.309	85.5694	341.309	86.2571	341.309	85.7037	341.309	86.3107	341.309	85.9041	341.309	86.3844	341.309	86.1153	341.309	86.4435	341.309	86.2933	341.309	86.4589	341.309	86.4109
353.027	89.2967	353.027	89.2849	353.027	89.2214	353.027	89.1845	353.027	89.0599	353.027	88.9943	353.027	88.814	353.027	88.7134	353.027	88.4873	353.027	88.344	353.027	88.0877	353.027	87.8933	353.027	87.6296	353.027	87.3772	353.027	87.1362	353.027	86.8236	353.027	86.6418	353.027	86.2751	353.027	86.1897	353.027	85.7885	353.027	85.8259	353.027	85.4243	353.027	85.5863	353.027	85.2272	353.027	85.4836	353.027	85.2043	353.027	85.502	353.027	85.3192	353.027	85.6029	353.027	85.5082	353.027	85.7384	353.027	85.7051	353.027	85.8622	353.027	85.8587	353.027	85.9373	353.027	85.9391
366.211	89.2332	366.211	89.2034	366.211	89.1806	366.211	89.0949	366.211	89.0416	366.211	88.9108	366.211	88.8123	366.211	88.6541	366.211	88.4905	366.211	88.3292	366.211	88.0776	366.211	87.943	366.211	87.5815	366.211	87.507	366.211	87.0207	366.211	87.0389	366.211	86.4287	366.211	86.564	366.211	85.8565	366.211	86.1151	366.211	85.3682	366.211	85.7302	366.211	85.025	366.211	85.4447	366.211	84.86	366.211	85.2794	366.211	84.8608	366.211	85.2305	366.211	84.9766	366.211	85.2681	366.211	85.1414	366.211	85.3459	366.211	85.2969	366.211	85.4165	366.211	85.4033	366.211	85.4425
379.395	89.1694	379.395	89.0559	379.395	89.1968	379.395	88.8579	379.395	89.1354	379.395	88.5767	379.395	88.9814	379.395	88.2155	379.395	88.7304	379.395	87.7817	379.395	88.3791	379.395	87.2906	379.395	87.9277	379.395	86.7681	379.395	87.3835	379.395	86.2527	379.395	86.7668	379.395	85.7931	379.395	86.1179	379.395	85.4392	379.395	85.502	379.395	85.228	379.395	85.0042	379.395	85.1684	379.395	84.7042	379.395	85.2358	379.395	84.6369	379.395	85.3806	379.395	84.7696	379.395	85.5442	379.395	85.0205	379.395	85.673	379.395	85.2989	379.395	85.7267	379.395	85.5336	379.395	85.6819
392.578	88.8945	392.578	88.7583	392.578	88.9478	392.578	88.5364	392.578	88.9193	392.578	88.2248	392.578	88.8075	392.578	87.8204	392.578	88.6096	392.578	87.3229	392.578	88.3216	392.578	86.7388	392.578	87.9413	392.578	86.0857	392.578	87.4708	392.578	85.3992	392.578	86.9207	392.578	84.7393	392.578	86.3151	392.578	84.1899	392.578	85.6977	392.578	83.839	392.578	85.1327	392.578	83.7367	392.578	84.6953	392.578	83.8609	392.578	84.444	392.578	84.1266	392.578	84.3895	392.578	84.4298	392.578	84.4852	392.578	84.6856	392.578	84.65	392.578	84.8415	392.578	84.8015	392.578	84.8773
405.762	88.8316	405.762	88.7374	405.762	88.8428	405.762	88.554	405.762	88.7758	405.762	88.2751	405.762	88.6342	405.762	87.8952	405.762	88.4203	405.762	87.4112	405.762	88.1358	405.762	86.8239	405.762	87.7831	405.762	86.1416	405.762	87.3672	405.762	85.386	405.762	86.8983	405.762	84.6037	405.762	86.3957	405.762	83.8783	405.762	85.8914	405.762	83.3293	405.762	85.4309	405.762	83.0699	405.762	85.0659	405.762	83.1332	405.762	84.8355	405.762	83.4408	405.762	84.7445	405.762	83.8557	405.762	84.7561	405.762	84.2558	405.762	84.805	405.762	84.5652	405.762	84.8222	405.762	84.7528
420.41	89.3161	420.41	89.3145	420.41	89.2268	420.41	89.2191	420.41	89.0479	420.41	89.0259	420.41	88.7794	420.41	88.7305	420.41	88.4204	420.41	88.3289	420.41	87.9706	420.41	87.8192	420.41	87.4327	420.41	87.2036	420.41	86.8172	420.41	86.4924	420.41	86.1488	420.41	85.7109	420.41	85.4733	420.41	84.9104	420.41	84.8594	420.41	84.1777	420.41	84.3857	420.41	83.6285	420.41	84.1117	420.41	83.3624	420.41	84.0455	420.41	83.3962	420.41	84.1368	420.41	83.645	420.41	84.301	420.41	83.9757	420.41	84.451	420.41	84.2719	420.41	84.5184	420.41	84.4619
435.059	89.0351	435.059	88.9984	435.059	88.996	435.059	88.8847	435.059	88.8795	435.059	88.6901	435.059	88.6812	435.059	88.4085	435.059	88.3941	435.059	88.0323	435.059	88.0096	435.059	87.5548	435.059	87.5192	435.059	86.9734	435.059	86.9186	435.059	86.2943	435.059	86.2137	435.059	85.5402	435.059	85.4303	435.059	84.7606	435.059	84.6256	435.059	84.0406	435.059	83.8954	435.059	83.4917	435.059	83.3592	435.059	83.2069	435.059	83.1059	435.059	83.1977	435.059	83.1327	435.059	83.3786	435.059	83.3415	435.059	83.6197	435.059	83.6002	435.059	83.8083	435.059	83.7999	435.059	83.876
451.172	89.6111	451.172	89.5127	451.172	89.6191	451.172	89.3224	451.172	89.5342	451.172	89.0362	451.172	89.3493	451.172	88.6498	451.172	89.0546	451.172	88.162	451.172	88.6395	451.172	87.5761	451.172	88.0955	451.172	86.9013	451.172	87.4186	451.172	86.1522	451.172	86.6119	451.172	85.3506	451.172	85.6885	451.172	84.5309	451.172	84.6782	451.172	83.749	451.172	83.6396	451.172	83.0844	451.172	82.6753	451.172	82.6174	451.172	81.9292	451.172	82.3813	451.172	81.5299	451.172	82.3276	451.172	81.4948	451.172	82.3489	451.172	81.7046	451.172	82.3359	451.172	81.9896	451.172	82.2195
465.82	89.612	465.82	89.5031	465.82	89.6434	465.82	89.3177	465.82	89.5921	465.82	89.0529	465.82	89.45	465.82	88.7028	465.82	89.2079	465.82	88.2612	465.82	88.8582	465.82	87.7249	465.82	88.3974	465.82	87.0972	465.82	87.8277	465.82	86.3927	465.82	87.1591	465.82	85.6433	465.82	86.4136	465.82	84.9037	465.82	85.6315	465.82	84.2514	465.82	84.8773	465.82	83.7713	465.82	84.2347	465.82	83.5178	465.82	83.7825	465.82	83.4783	465.82	83.5564	465.82	83.5756	465.82	83.527	465.82	83.71	465.82	83.6161	465.82	83.8013	465.82	83.734	465.82	83.8089
483.398	89.5414	483.398	89.4267	483.398	89.5965	483.398	89.2406	483.398	89.5982	483.398	88.9674	483.398	89.5465	483.398	88.5899	483.398	89.4354	483.398	88.0934	483.398	89.2526	483.398	87.4714	483.398	88.9807	483.398	86.7313	483.398	88.5998	483.398	85.902	483.398	88.0928	483.398	85.0416	483.398	87.4541	483.398	84.2456	483.398	86.7029	483.398	83.6408	483.398	85.8967	483.398	83.3396	483.398	85.1378	483.398	83.3653	483.398	84.5524	483.398	83.6246	483.398	84.2308	483.398	83.9689	483.398	84.1682	483.398	84.2703	483.398	84.27	483.398	84.4533	483.398	84.4124	483.398	84.4941
499.512	89.5712	499.512	89.5395	499.512	89.5328	499.512	89.4288	499.512	89.4305	499.512	89.2292	499.512	89.2687	499.512	88.9303	499.512	89.0495	499.512	88.5231	499.512	88.7724	499.512	88.0008	499.512	88.4336	499.512	87.3594	499.512	88.026	499.512	86.5998	499.512	87.5423	499.512	85.7371	499.512	86.9832	499.512	84.822	499.512	86.369	499.512	83.9722	499.512	85.7527	499.512	83.3743	499.512	85.2212	499.512	83.1895	499.512	84.8684	499.512	83.4082	499.512	84.7375	499.512	83.8537	499.512	84.7831	499.512	84.3268	499.512	84.897	499.512	84.6986	499.512	84.9667	499.512	84.9132
517.09	88.8627	517.09	88.8826	517.09	88.7877	517.09	88.8386	517.09	88.6634	517.09	88.7187	517.09	88.4931	517.09	88.5093	517.09	88.2796	517.09	88.1962	517.09	88.0254	517.09	87.7641	517.09	87.7318	517.09	87.1955	517.09	87.3959	517.09	86.4711	517.09	87.0098	517.09	85.5749	517.09	86.5615	517.09	84.5137	517.09	86.0436	517.09	83.3586	517.09	85.4653	517.09	82.3053	517.09	84.8671	517.09	81.6679	517.09	84.3251	517.09	81.6515	517.09	83.9275	517.09	82.1087	517.09	83.7195	517.09	82.7062	517.09	83.6578	517.09	83.202	517.09	83.6278	517.09	83.5043
536.133	88.5418	536.133	88.6359	536.133	88.3519	536.133	88.6474	536.133	88.0504	536.133	88.5838	536.133	87.6253	536.133	88.4471	536.133	87.0754	536.133	88.2354	536.133	86.4153	536.133	87.9433	536.133	85.678	536.133	87.5617	536.133	84.9124	536.133	87.0761	536.133	84.1789	536.133	86.4715	536.133	83.5425	536.133	85.7469	536.133	83.0665	536.133	84.9417	536.133	82.8046	536.133	84.1621	536.133	82.7847	536.133	83.5738	536.133	82.9837	536.133	83.3155	536.133	83.3197	536.133	83.3849	536.133	83.6812	536.133	83.6412	536.133	83.9679	536.133	83.9166	536.133	84.1144	536.133	84.0936
555.176	88.472	555.176	88.4432	555.176	88.4437	555.176	88.3668	555.176	88.3473	555.176	88.2486	555.176	88.1715	555.176	88.0902	555.176	87.9061	555.176	87.8892	555.176	87.5379	555.176	87.6398	555.176	87.0469	555.176	87.3319	555.176	86.4057	555.176	86.9505	555.176	85.5876	555.176	86.4795	555.176	84.5876	555.176	85.9161	555.176	83.4627	555.176	85.2956	555.176	82.395	555.176	84.7074	555.176	81.7109	555.176	84.2738	555.176	81.6805	555.176	84.0786	555.176	82.2091	555.176	84.1007	555.176	82.947	555.176	84.2292	555.176	83.6108	555.176	84.3317	555.176	84.0714	555.176	84.302
574.219	87.8727	574.219	87.6934	574.219	87.969	574.219	87.4429	574.219	87.976	574.219	87.1399	574.219	87.8926	574.219	86.8107	574.219	87.723	574.219	86.4847	574.219	87.4715	574.219	86.1803	574.219	87.1336	574.219	85.8882	574.219	86.6854	574.219	85.5671	574.219	86.0794	574.219	85.1611	574.219	85.2542	574.219	84.6391	574.219	84.1625	574.219	84.0411	574.219	82.8335	574.219	83.5056	574.219	81.5028	574.219	83.218	574.219	80.7177	574.219	83.263	574.219	80.9211	574.219	83.5358	574.219	81.805	574.219	83.8363	574.219	82.771	574.219	83.9939	574.219	83.4982	574.219	83.9011
594.727	88.3286	594.727	88.219	594.727	88.273	594.727	87.9477	594.727	88.0584	594.727	87.5249	594.727	87.7067	594.727	86.9705	594.727	87.2577	594.727	86.3203	594.727	86.7607	594.727	85.6258	594.727	86.2547	594.727	84.9398	594.727	85.7484	594.727	84.2904	594.727	85.2113	594.727	83.6648	594.727	84.5781	594.727	83.0254	594.727	83.7652	594.727	82.3565	594.727	82.7008	594.727	81.7085	594.727	81.3849	594.727	81.2001	594.727	80.0186	594.727	80.9436	594.727	79.126	594.727	80.9407	594.727	79.1656	594.727	81.0646	594.727	79.8441	594.727	81.1367	594.727	80.5569	594.727	80.9992
615.234	88.5166	615.234	88.3251	615.234	88.607	615.234	88.0463	615.234	88.582	615.234	87.691	615.234	88.4321	615.234	87.2691	615.234	88.1546	615.234	86.7955	615.234	87.7481	615.234	86.2881	615.234	87.2024	615.234	85.7576	615.234	86.492	615.234	85.1926	615.234	85.5783	615.234	84.5592	615.234	84.4225	615.234	83.8252	615.234	83.0152	615.234	83.0106	615.234	81.4383	615.234	82.2438	615.234	79.9686	615.234	81.7457	615.234	79.0927	615.234	81.6504	615.234	79.1136	615.234	81.8345	615.234	79.7683	615.234	82.0366	615.234	80.5984	615.234	82.0608	615.234	81.3236	615.234	81.8254
637.207	87.4305	637.207	87.1224	637.207	87.6572	637.207	86.7243	637.207	87.8194	637.207	86.2407	637.207	87.9342	637.207	85.6915	637.207	88.0099	637.207	85.1107	637.207	88.038	637.207	84.539	637.207	87.9884	637.207	84.0075	637.207	87.8092	637.207	83.5157	637.207	87.4345	637.207	83.0253	637.207	86.795	637.207	82.4884	637.207	85.8261	637.207	81.9111	637.207	84.4748	637.207	81.4089	637.207	82.7278	637.207	81.1723	637.207	80.7293	637.207	81.2841	637.207	79.073	637.207	81.5931	637.207	78.7023	637.207	81.8403	637.207	79.5405	637.207	81.8235	637.207	80.629	637.207	81.4304
659.18	87.1414	659.18	87.0413	659.18	87.1215	659.18	86.8153	659.18	87.0008	659.18	86.4651	659.18	86.8153	659.18	85.9976	659.18	86.6132	659.18	85.4267	659.18	86.4385	659.18	84.7776	659.18	86.3075	659.18	84.077	659.18	86.1944	659.18	83.3257	659.18	86.0363	659.18	82.4717	659.18	85.7527	659.18	81.4208	659.18	85.2608	659.18	80.1212	659.18	84.4862	659.18	78.7745	659.18	83.3877	659.18	78.07	659.18	82.0338	659.18	78.5725	659.18	80.7517	659.18	79.7296	659.18	80.121	659.18	80.7506	659.18	80.3503	659.18	81.3056	659.18	80.9378	659.18	81.3419
682.617	86.8516	682.617	86.8397	682.617	86.7208	682.617	86.6884	682.617	86.4792	682.617	86.4272	682.617	86.1931	682.617	86.0983	682.617	85.9429	682.617	85.7441	682.617	85.7816	682.617	85.3954	682.617	85.6995	682.617	85.0577	682.617	85.6251	682.617	84.6905	682.617	85.4522	682.617	84.1964	682.617	85.0674	682.617	83.4335	682.617	84.377	682.617	82.2467	682.617	83.3386	682.617	80.529	682.617	82.0142	682.617	78.4479	682.617	80.6913	682.617	77.0918	682.617	79.9461	682.617	77.7892	682.617	80.1248	682.617	79.4509	682.617	80.7936	682.617	80.7486	682.617	81.3235	682.617	81.3612
707.52	86.7535	707.52	86.5488	707.52	86.7036	707.52	86.0623	707.52	86.474	707.52	85.3343	707.52	86.1695	707.52	84.4944	707.52	85.8926	707.52	83.7514	707.52	85.6967	707.52	83.3023	707.52	85.5595	707.52	83.1956	707.52	85.4104	707.52	83.2921	707.52	85.1859	707.52	83.3628	707.52	84.8522	707.52	83.1951	707.52	84.3715	707.52	82.6243	707.52	83.6468	707.52	81.5216	707.52	82.4991	707.52	79.8081	707.52	80.6956	707.52	77.6218	707.52	78.0528	707.52	75.8128	707.52	74.9946	707.52	75.5553	707.52	73.8688	707.52	76.1107	707.52	75.1201	707.52	76.116
732.422	89.4537	732.422	89.4624	732.422	89.1229	732.422	89.1325	732.422	88.52	732.422	88.4696	732.422	87.7488	732.422	87.5055	732.422	86.9747	732.422	86.3093	732.422	86.3821	732.422	85.0002	732.422	86.0783	732.422	83.7597	732.422	86.0198	732.422	82.8176	732.422	86.0472	732.422	82.32	732.422	85.9934	732.422	82.133	732.422	85.7539	732.422	81.9135	732.422	85.2849	732.422	81.3694	732.422	84.5657	732.422	80.3855	732.422	83.5831	732.422	79.0921	732.422	82.3738	732.422	78.0012	732.422	81.111	732.422	77.7596	732.422	80.0878	732.422	78.2614	732.422	79.4251	732.422	78.8904
757.324	90.0903	757.324	89.925	757.324	89.9282	757.324	89.4273	757.324	89.4724	757.324	88.6214	757.324	88.7928	757.324	87.586	757.324	87.9819	757.324	86.4834	757.324	87.1215	757.324	85.516	757.324	86.2798	757.324	84.7832	757.324	85.5394	757.324	84.2112	757.324	84.9735	757.324	83.6811	757.324	84.5589	757.324	83.1328	757.324	84.149	757.324	82.5204	757.324	83.5735	757.324	81.7783	757.324	82.7794	757.324	80.879	757.324	81.9238	757.324	79.9182	757.324	81.3007	757.324	79.1725	757.324	81.0285	757.324	78.992	757.324	80.8966	757.324	79.4196	757.324	80.622	757.324	80.0873
785.156	89.6222	785.156	89.399	785.156	89.5561	785.156	88.8559	785.156	89.2507	785.156	87.9999	785.156	88.7653	785.156	86.9108	785.156	88.1419	785.156	85.7434	785.156	87.3757	785.156	84.6253	785.156	86.4314	785.156	83.5138	785.156	85.3229	785.156	82.2308	785.156	84.2081	785.156	80.7121	785.156	83.3864	785.156	79.2969	785.156	83.036	785.156	78.5867	785.156	82.9134	785.156	78.5568	785.156	82.5287	785.156	78.5659	785.156	81.5085	785.156	78.188	785.156	79.7365	785.156	77.3466	785.156	77.4196	785.156	76.1725	785.156	75.2162	785.156	74.9452	785.156	74.0148	785.156	74.0646
811.523	88.663	811.523	88.542	811.523	88.6441	811.523	88.2632	811.523	88.515	811.523	87.8407	811.523	88.3063	811.523	87.3554	811.523	88.0324	811.523	86.935	811.523	87.6866	811.523	86.5957	811.523	87.2602	811.523	86.1328	811.523	86.742	811.523	85.2761	811.523	86.0884	811.523	83.8956	811.523	85.2254	811.523	82.0663	811.523	84.1453	811.523	80.07	811.523	83.033	811.523	78.4418	811.523	82.1769	811.523	77.8167	811.523	81.6186	811.523	78.165	811.523	81.1382	811.523	78.8006	811.523	80.6169	811.523	79.2725	811.523	80.1434	811.523	79.5208	811.523	79.8287	811.523	79.6585
840.82	86.4244	840.82	86.4861	840.82	86.2926	840.82	86.467	840.82	86.1226	840.82	86.4095	840.82	85.9563	840.82	86.4103	840.82	85.8447	840.82	86.5238	840.82	85.8162	840.82	86.6466	840.82	85.8283	840.82	86.5556	840.82	85.7707	840.82	86.0597	840.82	85.5378	840.82	85.0952	840.82	85.091	840.82	83.7151	840.82	84.4482	840.82	82.0361	840.82	83.619	840.82	80.3486	840.82	82.5918	840.82	79.3799	840.82	81.4734	840.82	79.6689	840.82	80.673	840.82	80.5987	840.82	80.6139	840.82	81.4129	840.82	81.0994	840.82	81.8533	840.82	81.6245	840.82	81.9082
870.117	87.0175	870.117	87.239	870.117	86.7264	870.117	87.3719	870.117	86.4092	870.117	87.4131	870.117	86.1237	870.117	87.3923	870.117	85.8662	870.117	87.3732	870.117	85.5237	870.117	87.3916	870.117	84.9606	870.117	87.3792	870.117	84.1491	870.117	87.1819	870.117	83.2102	870.117	86.6513	870.117	82.3258	870.117	85.7124	870.117	81.6082	870.117	84.3608	870.117	81.0823	870.117	82.6131	870.117	80.7194	870.117	80.5203	870.117	80.4687	870.117	78.463	870.117	80.3691	870.117	77.5971	870.117	80.5281	870.117	78.4646	870.117	80.8607	870.117	79.8159	870.117	81.0361	870.117	80.734
900.879	86.0324	900.879	85.813	900.879	86.0675	900.879	85.4559	900.879	85.9256	900.879	85.0769	900.879	85.6667	900.879	84.8597	900.879	85.41	900.879	84.9542	900.879	85.3106	900.879	85.2955	900.879	85.4532	900.879	85.6123	900.879	85.7316	900.879	85.6418	900.879	85.8724	900.879	85.2823	900.879	85.5971	900.879	84.5793	900.879	84.7762	900.879	83.5933	900.879	83.4716	900.879	82.3715	900.879	81.8468	900.879	81.1756	900.879	80.0964	900.879	80.5423	900.879	78.7528	900.879	80.6764	900.879	78.786	900.879	81.1725	900.879	79.9442	900.879	81.5692	900.879	81.0436	900.879	81.5831
933.105	87.5424	933.105	87.375	933.105	87.458	933.105	86.9979	933.105	87.1168	933.105	86.5015	933.105	86.5652	933.105	86.0411	933.105	85.8918	933.105	85.7667	933.105	85.1806	933.105	85.6692	933.105	84.5011	933.105	85.5537	933.105	83.95	933.105	85.228	933.105	83.6046	933.105	84.6703	933.105	83.4	933.105	83.961	933.105	83.132	933.105	83.0467	933.105	82.5736	933.105	81.6504	933.105	81.61	933.105	79.4468	933.105	80.3756	933.105	76.5468	933.105	79.3897	933.105	75.1955	933.105	79.3475	933.105	77.181	933.105	80.1006	933.105	79.399	933.105	80.7272	933.105	80.5828
965.332	85.6718	965.332	85.2307	965.332	85.9377	965.332	84.7586	965.332	85.9715	965.332	84.4255	965.332	85.8269	965.332	84.3548	965.332	85.6393	965.332	84.5408	965.332	85.5401	965.332	84.809	965.332	85.5654	965.332	84.9492	965.332	85.6328	965.332	84.8445	965.332	85.5892	965.332	84.4743	965.332	85.2577	965.332	83.8918	965.332	84.5036	965.332	83.1718	965.332	83.3101	965.332	82.4175	965.332	81.7125	965.332	81.7313	965.332	79.6249	965.332	81.0583	965.332	77.0102	965.332	80.2584	965.332	75.0609	965.332	79.3502	965.332	75.6315	965.332	78.5447	965.332	77.0112	965.332	77.8948
1,000.49	85.7969	1,000.49	85.6638	1,000.49	85.6135	1,000.49	85.3066	1,000.49	85.1304	1,000.49	84.9362	1,000.49	84.4837	1,000.49	84.8308	1,000.49	83.9109	1,000.49	85.1218	1,000.49	83.7092	1,000.49	85.6493	1,000.49	84.0857	1,000.49	86.134	1,000.49	84.8545	1,000.49	86.3886	1,000.49	85.6125	1,000.49	86.3074	1,000.49	86.0553	1,000.49	85.7388	1,000.49	85.9895	1,000.49	84.4721	1,000.49	85.3813	1,000.49	82.3398	1,000.49	84.3592	1,000.49	79.308	1,000.49	83.0384	1,000.49	76.2281	1,000.49	81.477	1,000.49	76.3351	1,000.49	80.1187	1,000.49	78.672	1,000.49	79.8846	1,000.49	80.3291	1,000.49	80.5276	1,000.49	80.882
1,035.64	85.9087	1,035.64	85.671	1,035.64	85.6573	1,035.64	85.0122	1,035.64	84.9956	1,035.64	84.2067	1,035.64	84.1131	1,035.64	83.7336	1,035.64	83.2663	1,035.64	83.9364	1,035.64	82.7589	1,035.64	84.581	1,035.64	82.7123	1,035.64	85.133	1,035.64	82.8555	1,035.64	85.3708	1,035.64	83.0022	1,035.64	85.4741	1,035.64	83.2192	1,035.64	85.5975	1,035.64	83.4753	1,035.64	85.4795	1,035.64	83.5082	1,035.64	84.6557	1,035.64	82.956	1,035.64	82.8703	1,035.64	81.5045	1,035.64	80.2718	1,035.64	79.2067	1,035.64	77.9183	1,035.64	77.5852	1,035.64	77.717	1,035.64	78.335	1,035.64	78.9341	1,035.64	79.5082	1,035.64	79.734
1,072.27	86.6831	1,072.27	86.2898	1,072.27	86.571	1,072.27	85.2752	1,072.27	86.0952	1,072.27	83.6114	1,072.27	85.3432	1,072.27	81.5078	1,072.27	84.2649	1,072.27	79.9436	1,072.27	82.8666	1,072.27	80.5457	1,072.27	81.8343	1,072.27	82.5169	1,072.27	82.3817	1,072.27	84.273	1,072.27	84.0332	1,072.27	85.4717	1,072.27	85.2823	1,072.27	86.1518	1,072.27	85.5308	1,072.27	86.2664	1,072.27	85.0145	1,072.27	85.6667	1,072.27	84.2479	1,072.27	84.1907	1,072.27	83.3761	1,072.27	81.8278	1,072.27	82.0508	1,072.27	79.4173	1,072.27	80.3883	1,072.27	79.0561	1,072.27	79.757	1,072.27	80.1546	1,072.27	80.3863	1,072.27	80.7422
1,108.89	89.8323	1,108.89	89.6599	1,108.89	89.4896	1,108.89	88.9209	1,108.89	88.708	1,108.89	87.646	1,108.89	87.5469	1,108.89	85.937	1,108.89	86.0391	1,108.89	83.7765	1,108.89	84.3355	1,108.89	81.0678	1,108.89	82.9844	1,108.89	78.6189	1,108.89	82.4918	1,108.89	78.2598	1,108.89	82.6123	1,108.89	79.7164	1,108.89	83.1346	1,108.89	81.7633	1,108.89	84.0819	1,108.89	83.6035	1,108.89	84.9397	1,108.89	84.6902	1,108.89	84.9459	1,108.89	84.8129	1,108.89	83.7989	1,108.89	84.0907	1,108.89	81.9657	1,108.89	83.071	1,108.89	80.8507	1,108.89	82.5973	1,108.89	81.2986	1,108.89	82.7607	1,108.89	82.2683	1,108.89	82.8091
1,148.44	90.9237	1,148.44	90.8201	1,148.44	90.5462	1,148.44	90.216	1,148.44	89.8318	1,148.44	89.2526	1,148.44	88.9039	1,148.44	88.0342	1,148.44	87.7676	1,148.44	86.2408	1,148.44	86.4848	1,148.44	83.2325	1,148.44	85.3676	1,148.44	79.0271	1,148.44	84.7999	1,148.44	76.1119	1,148.44	84.8452	1,148.44	76.8269	1,148.44	85.0101	1,148.44	79.1155	1,148.44	84.6459	1,148.44	81.3179	1,148.44	83.6257	1,148.44	82.6021	1,148.44	82.4514	1,148.44	82.8074	1,148.44	81.3781	1,148.44	82.4444	1,148.44	79.998	1,148.44	82.5789	1,148.44	79.0059	1,148.44	83.4017	1,148.44	80.1388	1,148.44	83.9515	1,148.44	82.234	1,148.44	83.6174
1,189.45	90.1175	1,189.45	90.0209	1,189.45	89.8232	1,189.45	89.5106	1,189.45	89.2221	1,189.45	88.7262	1,189.45	88.3132	1,189.45	87.8413	1,189.45	87.065	1,189.45	86.7151	1,189.45	85.7341	1,189.45	85.0368	1,189.45	84.8545	1,189.45	83.0731	1,189.45	84.476	1,189.45	81.608	1,189.45	84.0611	1,189.45	80.4927	1,189.45	83.4797	1,189.45	79.0137	1,189.45	83.1378	1,189.45	77.9601	1,189.45	82.9969	1,189.45	78.2363	1,189.45	82.4025	1,189.45	78.1788	1,189.45	80.9828	1,189.45	77.3728	1,189.45	79.0775	1,189.45	78.6386	1,189.45	77.7801	1,189.45	81.1644	1,189.45	78.5417	1,189.45	82.4682	1,189.45	80.6535	1,189.45	82.2261
1,230.47	89.5953	1,230.47	89.0793	1,230.47	89.6156	1,230.47	88.2082	1,230.47	89.1098	1,230.47	87.298	1,230.47	88.0762	1,230.47	86.6175	1,230.47	86.5511	1,230.47	85.996	1,230.47	84.8301	1,230.47	85.0847	1,230.47	83.7824	1,230.47	84.1232	1,230.47	83.8553	1,230.47	83.8427	1,230.47	84.2267	1,230.47	84.0147	1,230.47	84.1925	1,230.47	83.7183	1,230.47	83.6708	1,230.47	82.9283	1,230.47	82.7903	1,230.47	82.0211	1,230.47	81.622	1,230.47	80.3661	1,230.47	80.1767	1,230.47	77.0545	1,230.47	78.6404	1,230.47	76.1624	1,230.47	77.9224	1,230.47	79.9244	1,230.47	79.2463	1,230.47	82.2382	1,230.47	81.4347	1,230.47	82.644
1,274.41	89.779	1,274.41	89.2963	1,274.41	89.7707	1,274.41	88.4375	1,274.41	89.3298	1,274.41	87.5401	1,274.41	88.4928	1,274.41	86.7991	1,274.41	87.2347	1,274.41	85.8814	1,274.41	85.6776	1,274.41	84.4286	1,274.41	84.1146	1,274.41	82.8319	1,274.41	82.6351	1,274.41	82.039	1,274.41	81.1198	1,274.41	82.2373	1,274.41	80.0867	1,274.41	82.6631	1,274.41	80.1513	1,274.41	82.8358	1,274.41	80.3328	1,274.41	82.4113	1,274.41	79.7574	1,274.41	80.5746	1,274.41	78.915	1,274.41	75.8119	1,274.41	78.1972	1,274.41	69.9454	1,274.41	77.5531	1,274.41	77.4056	1,274.41	78.731	1,274.41	81.1263	1,274.41	81.0838	1,274.41	82.115
1,319.82	89.902	1,319.82	89.5467	1,319.82	89.7073	1,319.82	88.7825	1,319.82	89.1152	1,319.82	88.0328	1,319.82	88.3368	1,319.82	87.396	1,319.82	87.4102	1,319.82	86.3449	1,319.82	86.2645	1,319.82	84.5644	1,319.82	85.025	1,319.82	82.4593	1,319.82	84.0715	1,319.82	80.5799	1,319.82	83.603	1,319.82	79.5279	1,319.82	83.2176	1,319.82	80.0004	1,319.82	82.5818	1,319.82	81.0175	1,319.82	82.1186	1,319.82	81.3513	1,319.82	81.9847	1,319.82	80.2138	1,319.82	81.1463	1,319.82	76.9149	1,319.82	78.6099	1,319.82	73.1717	1,319.82	75.751	1,319.82	77.4994	1,319.82	78.1417	1,319.82	81.1301	1,319.82	81.1772	1,319.82	82.2275
1,366.7	89.4914	1,366.7	88.9716	1,366.7	89.5784	1,366.7	88.2657	1,366.7	89.1714	1,366.7	87.6619	1,366.7	88.187	1,366.7	86.8999	1,366.7	86.7112	1,366.7	85.6274	1,366.7	85.3634	1,366.7	84.4315	1,366.7	85.0275	1,366.7	83.9709	1,366.7	85.4371	1,366.7	83.2358	1,366.7	85.4194	1,366.7	81.8001	1,366.7	84.6079	1,366.7	80.2805	1,366.7	83.3423	1,366.7	79.6626	1,366.7	82.436	1,366.7	80.3564	1,366.7	81.7512	1,366.7	80.3233	1,366.7	80.4742	1,366.7	77.557	1,366.7	78.615	1,366.7	69.8749	1,366.7	76.7418	1,366.7	74.4096	1,366.7	76.8899	1,366.7	79.5321	1,366.7	79.5936	1,366.7	80.8772
1,413.57	90.1227	1,413.57	89.4898	1,413.57	90.1191	1,413.57	88.4464	1,413.57	89.5152	1,413.57	87.4517	1,413.57	88.2039	1,413.57	86.4905	1,413.57	86.0392	1,413.57	85.4739	1,413.57	83.7646	1,413.57	84.983	1,413.57	83.2721	1,413.57	84.9134	1,413.57	84.5603	1,413.57	84.7295	1,413.57	85.7711	1,413.57	84.2877	1,413.57	86.1099	1,413.57	83.1097	1,413.57	85.507	1,413.57	81.5376	1,413.57	84.0667	1,413.57	81.1026	1,413.57	82.3747	1,413.57	81.1033	1,413.57	81.1682	1,413.57	79.2313	1,413.57	79.6973	1,413.57	74.8051	1,413.57	77.0546	1,413.57	76.245	1,413.57	77.03	1,413.57	80.1018	1,413.57	79.9875	1,413.57	81.2439
1,463.38	89.458	1,463.38	88.8571	1,463.38	89.6531	1,463.38	88.041	1,463.38	89.3211	1,463.38	87.2621	1,463.38	88.2289	1,463.38	86.6342	1,463.38	86.3655	1,463.38	86.4531	1,463.38	84.5711	1,463.38	86.5226	1,463.38	84.1543	1,463.38	85.8782	1,463.38	84.6086	1,463.38	84.2309	1,463.38	84.6319	1,463.38	82.3538	1,463.38	83.9488	1,463.38	81.471	1,463.38	82.6668	1,463.38	81.3697	1,463.38	81.5526	1,463.38	81.0381	1,463.38	80.8662	1,463.38	80.124	1,463.38	79.5005	1,463.38	77.9475	1,463.38	76.7281	1,463.38	73.9129	1,463.38	73.2704	1,463.38	75.2392	1,463.38	73.6824	1,463.38	78.9138	1,463.38	77.6176	1,463.38	79.6551
1,516.11	89.1166	1,516.11	87.7476	1,516.11	89.8565	1,516.11	86.4281	1,516.11	89.7048	1,516.11	87.0341	1,516.11	88.2002	1,516.11	89.1168	1,516.11	84.9792	1,516.11	90.456	1,516.11	80.6531	1,516.11	90.469	1,516.11	80.5365	1,516.11	89.3031	1,516.11	84.0978	1,516.11	87.3707	1,516.11	85.4467	1,516.11	85.6878	1,516.11	84.9163	1,516.11	85.2856	1,516.11	83.5102	1,516.11	85.0683	1,516.11	80.8794	1,516.11	84.0405	1,516.11	75.7165	1,516.11	82.236	1,516.11	70.4206	1,516.11	78.4029	1,516.11	72.3535	1,516.11	63.515	1,516.11	69.535	1,516.11	75.8118	1,516.11	72.1917	1,516.11	81.2889	1,516.11	78.9632	1,516.11	81.8165
1,568.85	87.8001	1,568.85	86.4077	1,568.85	88.8453	1,568.85	85.9002	1,568.85	89.0271	1,568.85	87.2471	1,568.85	87.9272	1,568.85	89.0063	1,568.85	85.3846	1,568.85	89.8932	1,568.85	81.2431	1,568.85	89.5827	1,568.85	79.5862	1,568.85	88.0196	1,568.85	83.2105	1,568.85	85.9603	1,568.85	84.4055	1,568.85	84.5475	1,568.85	83.1739	1,568.85	83.5281	1,568.85	79.0121	1,568.85	82.7324	1,568.85	71.4075	1,568.85	82.5671	1,568.85	72.9292	1,568.85	82.081	1,568.85	77.2744	1,568.85	79.8573	1,568.85	76.3519	1,568.85	73.4875	1,568.85	72.9454	1,568.85	68.5386	1,568.85	73.5035	1,568.85	78.6262	1,568.85	78.0885	1,568.85	80.4464
1,624.51	87.5322	1,624.51	86.6408	1,624.51	88.4016	1,624.51	86.6134	1,624.51	88.7453	1,624.51	87.4177	1,624.51	88.2586	1,624.51	88.1733	1,624.51	86.7252	1,624.51	88.0302	1,624.51	83.682	1,624.51	86.3737	1,624.51	79.0217	1,624.51	83.0909	1,624.51	78.4802	1,624.51	79.7416	1,624.51	78.8815	1,624.51	79.6523	1,624.51	77.2691	1,624.51	81.4588	1,624.51	74.8574	1,624.51	82.6199	1,624.51	69.8448	1,624.51	83.4197	1,624.51	68.6263	1,624.51	83.1072	1,624.51	75.027	1,624.51	80.7326	1,624.51	75.3646	1,624.51	73.9263	1,624.51	72.1606	1,624.51	68.2186	1,624.51	71.2775	1,624.51	78.6239	1,624.51	76.7424	1,624.51	79.8026
1,681.64	88.3542	1,681.64	86.8804	1,681.64	89.9968	1,681.64	87.8538	1,681.64	90.5988	1,681.64	89.9199	1,681.64	89.7187	1,681.64	91.1244	1,681.64	86.8433	1,681.64	90.9149	1,681.64	79.9035	1,681.64	89.0851	1,681.64	72.8231	1,681.64	85.9961	1,681.64	83.2651	1,681.64	83.7474	1,681.64	85.4879	1,681.64	84.2054	1,681.64	85.3476	1,681.64	83.9818	1,681.64	83.5089	1,681.64	83.7849	1,681.64	79.4241	1,681.64	84.3038	1,681.64	74.4227	1,681.64	84.5072	1,681.64	79.7813	1,681.64	84.2195	1,681.64	81.0294	1,681.64	80.9203	1,681.64	78.2851	1,681.64	62.3754	1,681.64	77.2474	1,681.64	77.7073	1,681.64	79.1574	1,681.64	80.6577
1,741.7	88.7637	1,741.7	88.8632	1,741.7	89.6141	1,741.7	89.9842	1,741.7	90.387	1,741.7	90.7014	1,741.7	90.2475	1,741.7	90.0613	1,741.7	88.8743	1,741.7	87.7936	1,741.7	85.1035	1,741.7	82.3159	1,741.7	74.9379	1,741.7	75.6469	1,741.7	76.3214	1,741.7	80.6293	1,741.7	78.9845	1,741.7	83.3419	1,741.7	81.521	1,741.7	83.0567	1,741.7	84.2931	1,741.7	81.4777	1,741.7	84.5518	1,741.7	82.1588	1,741.7	81.5896	1,741.7	83.866	1,741.7	80.9084	1,741.7	84.3696	1,741.7	81.172	1,741.7	81.3046	1,741.7	79.9156	1,741.7	70.0565	1,741.7	76.9259	1,741.7	74.6993	1,741.7	77.6489	1,741.7	78.8252
1,803.22	88.5713	1,803.22	89.5161	1,803.22	88.7536	1,803.22	90.5338	1,803.22	89.5547	1,803.22	89.8702	1,803.22	90.057	1,803.22	86.5259	1,803.22	89.9547	1,803.22	78.4496	1,803.22	88.8646	1,803.22	78.9889	1,803.22	86.3579	1,803.22	87.4322	1,803.22	84.9072	1,803.22	90.0905	1,803.22	86.0674	1,803.22	90.8056	1,803.22	88.642	1,803.22	89.922	1,803.22	90.2349	1,803.22	87.6758	1,803.22	89.538	1,803.22	83.5456	1,803.22	87.067	1,803.22	81.6079	1,803.22	85.3861	1,803.22	84.2573	1,803.22	83.5778	1,803.22	83.0486	1,803.22	81.3444	1,803.22	76.127	1,803.22	77.7878	1,803.22	71.8086	1,803.22	79.244	1,803.22	79.1501
1,866.21	88.9912	1,866.21	88.9814	1,866.21	88.8435	1,866.21	88.8463	1,866.21	88.2922	1,866.21	87.8923	1,866.21	87.6589	1,866.21	85.453	1,866.21	87.5478	1,866.21	83.2909	1,866.21	87.2754	1,866.21	85.0373	1,866.21	85.9018	1,866.21	87.4935	1,866.21	85.4081	1,866.21	88.4509	1,866.21	86.9298	1,866.21	88.2369	1,866.21	88.7075	1,866.21	87.8601	1,866.21	89.1752	1,866.21	87.0878	1,866.21	87.9529	1,866.21	83.0071	1,866.21	85.2945	1,866.21	67.5476	1,866.21	83.907	1,866.21	78.636	1,866.21	82.0402	1,866.21	81.4402	1,866.21	79.4101	1,866.21	77.3933	1,866.21	75.9343	1,866.21	63.4753	1,866.21	78.2119	1,866.21	78.0511
1,932.13	88.6646	1,932.13	88.3809	1,932.13	88.9607	1,932.13	88.8205	1,932.13	88.8385	1,932.13	89.2911	1,932.13	87.9983	1,932.13	87.9022	1,932.13	86.1214	1,932.13	83.6045	1,932.13	82.501	1,932.13	76.4386	1,932.13	78.919	1,932.13	65.6902	1,932.13	83.3316	1,932.13	57.3687	1,932.13	86.2783	1,932.13	62.557	1,932.13	86.5121	1,932.13	71.6968	1,932.13	85.2825	1,932.13	78.8673	1,932.13	83.3371	1,932.13	80.453	1,932.13	81.9016	1,932.13	77.9012	1,932.13	79.8272	1,932.13	73.5935	1,932.13	75.5826	1,932.13	73.1279	1,932.13	73.9611	1,932.13	73.2152	1,932.13	69.9377	1,932.13	71.1646	1,932.13	71.0537	1,932.13	73.1048
1,999.51	89.569	1,999.51	89.9942	1,999.51	89.0469	1,999.51	89.425	1,999.51	88.8444	1,999.51	87.5479	1,999.51	88.2435	1,999.51	86.3898	1,999.51	87.2773	1,999.51	85.7886	1,999.51	86.6468	1,999.51	83.1984	1,999.51	85.1095	1,999.51	82.5171	1,999.51	81.8291	1,999.51	81.7225	1,999.51	79.4158	1,999.51	79.9866	1,999.51	78.9298	1,999.51	78.9738	1,999.51	77.7003	1,999.51	77.125	1,999.51	79.3866	1,999.51	76.0215	1,999.51	78.5327	1,999.51	79.4908	1,999.51	77.9583	1,999.51	79.3854	1,999.51	76.4538	1,999.51	74.0975	1,999.51	71.2531	1,999.51	72.0717	1,999.51	67.4533	1,999.51	72.2042	1,999.51	72.3682	1,999.51	73.1548
2,069.82	90.262	2,069.82	90.2324	2,069.82	89.4327	2,069.82	88.748	2,069.82	88.6608	2,069.82	86.9369	2,069.82	87.6392	2,069.82	86.4043	2,069.82	86.8175	2,069.82	85.5376	2,069.82	86.6033	2,069.82	84.8875	2,069.82	85.2236	2,069.82	84.4729	2,069.82	83.274	2,069.82	80.7471	2,069.82	82.73	2,069.82	75.1582	2,069.82	82.649	2,069.82	75.6919	2,069.82	79.1512	2,069.82	76.9874	2,069.82	74.9523	2,069.82	73.0941	2,069.82	73.9764	2,069.82	77.4995	2,069.82	76.3792	2,069.82	79.4896	2,069.82	76.5997	2,069.82	74.4423	2,069.82	71.7776	2,069.82	71.7744	2,069.82	67.7965	2,069.82	72.2008	2,069.82	71.785	2,069.82	72.6582
2,143.07	89.9156	2,143.07	89.7212	2,143.07	89.2633	2,143.07	88.4294	2,143.07	88.4677	2,143.07	87.3503	2,143.07	87.4613	2,143.07	86.843	2,143.07	86.6576	2,143.07	86.0886	2,143.07	85.9299	2,143.07	84.751	2,143.07	84.9041	2,143.07	82.4501	2,143.07	83.8307	2,143.07	80.8892	2,143.07	81.7533	2,143.07	80.0815	2,143.07	80.2751	2,143.07	77.7694	2,143.07	78.1125	2,143.07	77.2748	2,143.07	75.0883	2,143.07	75.3102	2,143.07	73.0006	2,143.07	73.8752	2,143.07	74.713	2,143.07	79.1009	2,143.07	75.9354	2,143.07	76.0442	2,143.07	70.6388	2,143.07	70.3205	2,143.07	67.6266	2,143.07	72.2173	2,143.07	70.9246	2,143.07	72.2704
2,219.24	89.0054	2,219.24	88.9928	2,219.24	88.82	2,219.24	88.5847	2,219.24	87.9831	2,219.24	87.9702	2,219.24	86.3437	2,219.24	86.9226	2,219.24	85.0492	2,219.24	84.9891	2,219.24	83.9142	2,219.24	83.7782	2,219.24	83.258	2,219.24	83.8588	2,219.24	81.4644	2,219.24	80.8803	2,219.24	77.7888	2,219.24	76.2301	2,219.24	77.5171	2,219.24	76.81	2,219.24	74.2774	2,219.24	76.3738	2,219.24	72.2037	2,219.24	74.86	2,219.24	70.5476	2,219.24	70.5188	2,219.24	72.9343	2,219.24	76.9086	2,219.24	75.1026	2,219.24	76.5625	2,219.24	67.2914	2,219.24	70.0561	2,219.24	66.9527	2,219.24	70.1684	2,219.24	69.6295	2,219.24	71.0428
2,296.88	88.7135	2,296.88	88.4105	2,296.88	88.6082	2,296.88	88.1357	2,296.88	87.8106	2,296.88	88.4337	2,296.88	86.4101	2,296.88	87.2623	2,296.88	85.3764	2,296.88	84.1346	2,296.88	84.7239	2,296.88	82.6513	2,296.88	83.4061	2,296.88	79.6649	2,296.88	82.4765	2,296.88	79.0708	2,296.88	82.7417	2,296.88	80.2543	2,296.88	80.467	2,296.88	74.2834	2,296.88	73.6497	2,296.88	75.5288	2,296.88	65.8874	2,296.88	77.4386	2,296.88	66.0204	2,296.88	70.7073	2,296.88	70.7337	2,296.88	72.3456	2,296.88	73.1678	2,296.88	75.5272	2,296.88	66.3822	2,296.88	69.7837	2,296.88	52.4653	2,296.88	64.3497	2,296.88	63.9158	2,296.88	66.6464
2,378.91	89.4343	2,378.91	88.4878	2,378.91	89.2909	2,378.91	88.1353	2,378.91	87.9483	2,378.91	87.989	2,378.91	85.882	2,378.91	85.6766	2,378.91	84.8986	2,378.91	83.4418	2,378.91	84.507	2,378.91	81.2601	2,378.91	83.6281	2,378.91	81.6432	2,378.91	83.6209	2,378.91	82.6324	2,378.91	82.4729	2,378.91	79.2103	2,378.91	77.3272	2,378.91	76.2587	2,378.91	73.4705	2,378.91	72.7379	2,378.91	73.1347	2,378.91	77.7854	2,378.91	64.7074	2,378.91	77.7865	2,378.91	68.0721	2,378.91	69.7244	2,378.91	68.4388	2,378.91	76.2827	2,378.91	67.8648	2,378.91	73.0778	2,378.91	61.0659	2,378.91	65.3132	2,378.91	64.8632	2,378.91	68.6673
2,462.4	90.4053	2,462.4	89.9811	2,462.4	90.2434	2,462.4	88.784	2,462.4	89.0599	2,462.4	86.5571	2,462.4	86.7534	2,462.4	84.5595	2,462.4	84.5951	2,462.4	83.8429	2,462.4	82.9829	2,462.4	83.4041	2,462.4	82.673	2,462.4	81.3747	2,462.4	81.3782	2,462.4	76.8516	2,462.4	81.5791	2,462.4	78.2818	2,462.4	81.9657	2,462.4	74.677	2,462.4	76.368	2,462.4	73.8375	2,462.4	72.5111	2,462.4	75.0753	2,462.4	72.1468	2,462.4	77.904	2,462.4	69.4736	2,462.4	72.0668	2,462.4	70.5364	2,462.4	74.8411	2,462.4	66.0039	2,462.4	75.4058	2,462.4	63.4908	2,462.4	67.7287	2,462.4	69.1462	2,462.4	70.341
2,548.83	90.4572	2,548.83	90.5293	2,548.83	90.4893	2,548.83	89.5137	2,548.83	89.8287	2,548.83	86.831	2,548.83	88.0225	2,548.83	85.0422	2,548.83	85.3009	2,548.83	85.1519	2,548.83	82.8054	2,548.83	84.0256	2,548.83	80.3674	2,548.83	82.7291	2,548.83	79.0341	2,548.83	80.8599	2,548.83	83.1185	2,548.83	77.6008	2,548.83	81.9077	2,548.83	75.9066	2,548.83	79.3967	2,548.83	72.2016	2,548.83	76.5324	2,548.83	74.3549	2,548.83	73.3451	2,548.83	77.3938	2,548.83	72.0141	2,548.83	75.6596	2,548.83	70.5383	2,548.83	72.4545	2,548.83	68.8078	2,548.83	75.3698	2,548.83	63.767	2,548.83	69.1181	2,548.83	71.6901	2,548.83	72.3377
2,639.65	90.0994	2,639.65	90.0735	2,639.65	90.4433	2,639.65	89.4858	2,639.65	90.4842	2,639.65	88.6092	2,639.65	89.319	2,639.65	87.5685	2,639.65	87.813	2,639.65	85.6787	2,639.65	85.3398	2,639.65	84.0005	2,639.65	81.0694	2,639.65	81.1313	2,639.65	79.8558	2,639.65	76.6071	2,639.65	77.3555	2,639.65	77.3857	2,639.65	73.798	2,639.65	75.8121	2,639.65	78.3967	2,639.65	76.401	2,639.65	76.8378	2,639.65	73.2673	2,639.65	70.6611	2,639.65	74.9138	2,639.65	74.0354	2,639.65	76.5614	2,639.65	73.1368	2,639.65	73.6028	2,639.65	70.5013	2,639.65	74.8699	2,639.65	64.0462	2,639.65	68.1962	2,639.65	71.1734	2,639.65	68.4961
2,731.93	90.6206	2,731.93	89.7359	2,731.93	90.4406	2,731.93	89.3087	2,731.93	89.5688	2,731.93	89.3112	2,731.93	88.3136	2,731.93	87.3924	2,731.93	87.4014	2,731.93	85.6986	2,731.93	85.8657	2,731.93	82.7306	2,731.93	82.1197	2,731.93	81.4288	2,731.93	80.8237	2,731.93	81.844	2,731.93	78.5618	2,731.93	79.3089	2,731.93	76.5	2,731.93	76.6379	2,731.93	79.5393	2,731.93	72.4761	2,731.93	73.449	2,731.93	75.4381	2,731.93	64.9701	2,731.93	75.3391	2,731.93	70.447	2,731.93	76.3439	2,731.93	70.2032	2,731.93	75.2326	2,731.93	68.0114	2,731.93	75.2216	2,731.93	61.4805	2,731.93	71.1921	2,731.93	68.5774	2,731.93	68.4839
2,828.61	91.6244	2,828.61	90.7337	2,828.61	91.4915	2,828.61	90.0005	2,828.61	90.115	2,828.61	88.6741	2,828.61	88.3315	2,828.61	87.3941	2,828.61	87.6617	2,828.61	85.9989	2,828.61	85.7712	2,828.61	83.7735	2,828.61	83.3077	2,828.61	81.9834	2,828.61	83.1097	2,828.61	80.7515	2,828.61	80.7737	2,828.61	81.2592	2,828.61	81.3084	2,828.61	73.3415	2,828.61	79.8793	2,828.61	73.1205	2,828.61	73.572	2,828.61	73.7927	2,828.61	66.8985	2,828.61	74.691	2,828.61	60.737	2,828.61	75.8481	2,828.61	70.203	2,828.61	73.9247	2,828.61	71.0177	2,828.61	74.6013	2,828.61	64.3148	2,828.61	69.5092	2,828.61	68.914	2,828.61	70.7808
2,928.22	92.1615	2,928.22	92.0315	2,928.22	92.3587	2,928.22	91.5031	2,928.22	91.2225	2,928.22	89.7126	2,928.22	88.9319	2,928.22	88.2618	2,928.22	87.436	2,928.22	86.4396	2,928.22	85.4374	2,928.22	84.0026	2,928.22	83.8542	2,928.22	83.4163	2,928.22	81.978	2,928.22	81.9839	2,928.22	80.9866	2,928.22	77.4665	2,928.22	84.8941	2,928.22	76.1579	2,928.22	81.1334	2,928.22	70.1948	2,928.22	74.7158	2,928.22	74.93	2,928.22	75.3417	2,928.22	74.7548	2,928.22	67.0466	2,928.22	75.279	2,928.22	68.6064	2,928.22	73.5841	2,928.22	72.4195	2,928.22	76.2735	2,928.22	67.585	2,928.22	72.2078	2,928.22	69.885	2,928.22	70.0871
3,030.76	91.9762	3,030.76	92.184	3,030.76	91.851	3,030.76	91.8224	3,030.76	90.9527	3,030.76	90.4744	3,030.76	89.3783	3,030.76	88.2351	3,030.76	87.8561	3,030.76	85.7066	3,030.76	85.1549	3,030.76	83.5909	3,030.76	82.3785	3,030.76	82.7947	3,030.76	80.8829	3,030.76	77.739	3,030.76	81.0371	3,030.76	75.2873	3,030.76	85.0609	3,030.76	76.4433	3,030.76	80.3155	3,030.76	74.4255	3,030.76	75.0884	3,030.76	70.7022	3,030.76	76.5358	3,030.76	74.3549	3,030.76	69.6673	3,030.76	71.7945	3,030.76	72.5047	3,030.76	74.4589	3,030.76	72.3022	3,030.76	74.7895	3,030.76	71.3919	3,030.76	71.282	3,030.76	74.0797	3,030.76	71.9224
3,137.7	91.9667	3,137.7	91.7834	3,137.7	91.7526	3,137.7	91.5682	3,137.7	90.9236	3,137.7	90.0767	3,137.7	89.7161	3,137.7	87.8693	3,137.7	87.8083	3,137.7	86.3975	3,137.7	84.7938	3,137.7	84.4328	3,137.7	83.1502	3,137.7	80.5788	3,137.7	81.8041	3,137.7	75.5272	3,137.7	82.7441	3,137.7	77.1879	3,137.7	83.9143	3,137.7	74.8227	3,137.7	78.7241	3,137.7	74.6294	3,137.7	78.9097	3,137.7	67.648	3,137.7	78.2992	3,137.7	75.4299	3,137.7	68.4406	3,137.7	74.2874	3,137.7	61.2508	3,137.7	73.8216	3,137.7	69.1524	3,137.7	75.1384	3,137.7	70.5037	3,137.7	68.5929	3,137.7	74.7213	3,137.7	72.1529
3,249.02	91.7083	3,249.02	91.5268	3,249.02	91.3538	3,249.02	91.1388	3,249.02	90.1038	3,249.02	89.5704	3,249.02	88.943	3,249.02	87.2495	3,249.02	87.5102	3,249.02	84.9076	3,249.02	85.1745	3,249.02	82.3229	3,249.02	84.325	3,249.02	77.7362	3,249.02	83.5912	3,249.02	80.2743	3,249.02	84.0515	3,249.02	78.7571	3,249.02	82.2192	3,249.02	73.5152	3,249.02	79.1537	3,249.02	73.6879	3,249.02	76.6695	3,249.02	73.2361	3,249.02	78.0416	3,249.02	70.9582	3,249.02	68.0491	3,249.02	74.7683	3,249.02	72.0779	3,249.02	70.2711	3,249.02	72.0546	3,249.02	73.3301	3,249.02	70.6861	3,249.02	64.4909	3,249.02	75.7186	3,249.02	72.0132
3,363.28	91.5757	3,363.28	91.3213	3,363.28	91.1544	3,363.28	90.1889	3,363.28	89.9084	3,363.28	88.296	3,363.28	88.1852	3,363.28	85.8226	3,363.28	86.3717	3,363.28	83.1611	3,363.28	83.4848	3,363.28	80.1866	3,363.28	84.2837	3,363.28	79.6344	3,363.28	83.6951	3,363.28	79.6624	3,363.28	83.0768	3,363.28	74.2589	3,363.28	79.3056	3,363.28	74.4978	3,363.28	79.0866	3,363.28	72.6216	3,363.28	77.2924	3,363.28	72.4919	3,363.28	75.8512	3,363.28	71.6595	3,363.28	65.7746	3,363.28	72.6533	3,363.28	73.5189	3,363.28	68.7144	3,363.28	71.5149	3,363.28	70.9626	3,363.28	72.1411	3,363.28	66.8206	3,363.28	75.8185	3,363.28	70.517
3,481.93	91.2828	3,481.93	91.1277	3,481.93	91.1812	3,481.93	90.466	3,481.93	90.1724	3,481.93	86.9631	3,481.93	88.7305	3,481.93	84.5511	3,481.93	85.6441	3,481.93	83.2728	3,481.93	82.8805	3,481.93	80.5237	3,481.93	83.1502	3,481.93	81.9166	3,481.93	81.0995	3,481.93	77.6929	3,481.93	81.1959	3,481.93	74.1564	3,481.93	75.6447	3,481.93	75.9002	3,481.93	75.2559	3,481.93	71.2844	3,481.93	75.9907	3,481.93	72.652	3,481.93	72.3818	3,481.93	72.1223	3,481.93	68.1626	3,481.93	72.5816	3,481.93	74.6733	3,481.93	72.7859	3,481.93	70.0583	3,481.93	71.1126	3,481.93	68.6104	3,481.93	70.5957	3,481.93	74.5176	3,481.93	66.9814
3,604.98	90.7389	3,604.98	90.7245	3,604.98	90.3324	3,604.98	89.6275	3,604.98	89.1988	3,604.98	86.9649	3,604.98	88.234	3,604.98	84.5269	3,604.98	85.2582	3,604.98	81.2132	3,604.98	84.8268	3,604.98	81.6691	3,604.98	82.7209	3,604.98	79.8852	3,604.98	78.8493	3,604.98	76.3819	3,604.98	70.8048	3,604.98	77.3262	3,604.98	63.3939	3,604.98	74.513	3,604.98	67.1439	3,604.98	72.3968	3,604.98	71.5034	3,604.98	71.7014	3,604.98	69.4572	3,604.98	74.454	3,604.98	65.102	3,604.98	74.1976	3,604.98	72.0895	3,604.98	73.4549	3,604.98	67.831	3,604.98	73.7133	3,604.98	66.9333	3,604.98	71.012	3,604.98	72.8152	3,604.98	67.3465
3,732.42	91.4927	3,732.42	90.8698	3,732.42	91.2173	3,732.42	88.358	3,732.42	89.1828	3,732.42	86.6807	3,732.42	86.4386	3,732.42	84.5021	3,732.42	84.107	3,732.42	83.2221	3,732.42	84.718	3,732.42	81.8576	3,732.42	82.048	3,732.42	78.4273	3,732.42	79.2145	3,732.42	79.588	3,732.42	73.0693	3,732.42	76.2986	3,732.42	78.4367	3,732.42	74.2698	3,732.42	76.0464	3,732.42	73.6111	3,732.42	74.133	3,732.42	70.7846	3,732.42	62.9437	3,732.42	73.7812	3,732.42	69.0464	3,732.42	74.6288	3,732.42	69.7803	3,732.42	72.5826	3,732.42	67.746	3,732.42	71.2651	3,732.42	65.1699	3,732.42	71.6919	3,732.42	72.9294	3,732.42	65.5421
3,864.26	90.7711	3,864.26	89.9662	3,864.26	90.7278	3,864.26	88.5421	3,864.26	90.2348	3,864.26	85.0693	3,864.26	88.1463	3,864.26	85.0973	3,864.26	85.7927	3,864.26	84.4148	3,864.26	84.8279	3,864.26	83.0108	3,864.26	82.4505	3,864.26	79.9351	3,864.26	78.1507	3,864.26	81.3461	3,864.26	74.2974	3,864.26	74.9038	3,864.26	78.3585	3,864.26	75.2111	3,864.26	81.9331	3,864.26	72.356	3,864.26	77.3812	3,864.26	71.8979	3,864.26	64.6899	3,864.26	72.0623	3,864.26	63.436	3,864.26	73.7231	3,864.26	69.8762	3,864.26	72.7983	3,864.26	68.5589	3,864.26	71.3387	3,864.26	64.1329	3,864.26	72.9648	3,864.26	72.8645	3,864.26	64.45
4,000.49	90.4485	4,000.49	89.5795	4,000.49	89.8267	4,000.49	87.9569	4,000.49	88.9178	4,000.49	86.8898	4,000.49	88.0029	4,000.49	85.6748	4,000.49	85.9982	4,000.49	84.753	4,000.49	85.0788	4,000.49	80.6309	4,000.49	81.1961	4,000.49	81.4699	4,000.49	72.9435	4,000.49	78.7451	4,000.49	71.917	4,000.49	76.3756	4,000.49	73.6146	4,000.49	73.0668	4,000.49	79.7039	4,000.49	74.0838	4,000.49	69.7829	4,000.49	68.5877	4,000.49	57.4915	4,000.49	72.9804	4,000.49	64.7903	4,000.49	75.4383	4,000.49	64.8477	4,000.49	73.8862	4,000.49	72.2279	4,000.49	69.0185	4,000.49	66.6628	4,000.49	73.2746	4,000.49	70.0868	4,000.49	57.4748
4,141.11	91.524	4,141.11	89.7494	4,141.11	91.3768	4,141.11	88.1557	4,141.11	89.4136	4,141.11	87.3996	4,141.11	87.2834	4,141.11	86.3595	4,141.11	86.5057	4,141.11	85.4651	4,141.11	85.85	4,141.11	84.8057	4,141.11	81.1529	4,141.11	83.6993	4,141.11	71.2355	4,141.11	77.29	4,141.11	77.2133	4,141.11	78.182	4,141.11	76.1592	4,141.11	72.9688	4,141.11	72.2454	4,141.11	72.6399	4,141.11	71.6357	4,141.11	73.2263	4,141.11	70.5792	4,141.11	72.0961	4,141.11	69.635	4,141.11	75.2694	4,141.11	62.6417	4,141.11	75.6962	4,141.11	71.7826	4,141.11	70.8222	4,141.11	68.7303	4,141.11	74.1423	4,141.11	72.6067	4,141.11	59.4819
4,287.6	91.0712	4,287.6	90.2432	4,287.6	91.9632	4,287.6	90.1568	4,287.6	90.5207	4,287.6	88.2513	4,287.6	87.8372	4,287.6	88.0103	4,287.6	88.3636	4,287.6	85.8878	4,287.6	87.2659	4,287.6	86.0257	4,287.6	79.9175	4,287.6	79.5072	4,287.6	79.5037	4,287.6	81.9893	4,287.6	82.0208	4,287.6	77.6252	4,287.6	72.0669	4,287.6	73.8446	4,287.6	75.1923	4,287.6	73.5994	4,287.6	79.6991	4,287.6	72.2514	4,287.6	73.8743	4,287.6	70.1927	4,287.6	69.3139	4,287.6	75.0671	4,287.6	66.3826	4,287.6	76.4316	4,287.6	69.4894	4,287.6	70.6216	4,287.6	62.6109	4,287.6	72.8813	4,287.6	72.0699	4,287.6	64.1204
4,438.48	90.9857	4,438.48	89.6653	4,438.48	92.3627	4,438.48	89.7902	4,438.48	90.7747	4,438.48	89.476	4,438.48	88.187	4,438.48	88.0045	4,438.48	89.5318	4,438.48	86.2228	4,438.48	87.0881	4,438.48	83.4511	4,438.48	80.5724	4,438.48	81.9836	4,438.48	84.7587	4,438.48	80.642	4,438.48	81.3584	4,438.48	75.1733	4,438.48	70.9035	4,438.48	74.9589	4,438.48	80.4416	4,438.48	70.7471	4,438.48	77.9618	4,438.48	72.4893	4,438.48	62.6422	4,438.48	70.8561	4,438.48	72.1921	4,438.48	73.1704	4,438.48	59.2232	4,438.48	74.0683	4,438.48	67.5817	4,438.48	68.5825	4,438.48	65.6422	4,438.48	70.4182	4,438.48	69.4021	4,438.48	60.7128
4,595.21	90.4928	4,595.21	89.8919	4,595.21	92.0057	4,595.21	89.287	4,595.21	91.0853	4,595.21	88.8648	4,595.21	87.8682	4,595.21	87.0181	4,595.21	90.2299	4,595.21	85.9412	4,595.21	86.1764	4,595.21	83.1034	4,595.21	85.8883	4,595.21	83.952	4,595.21	85.3997	4,595.21	77.7172	4,595.21	78.8896	4,595.21	78.5123	4,595.21	78.9991	4,595.21	72.4123	4,595.21	81.1173	4,595.21	73.2327	4,595.21	73.395	4,595.21	70.6591	4,595.21	76.1797	4,595.21	69.604	4,595.21	74.4428	4,595.21	76.372	4,595.21	64.7245	4,595.21	70.0425	4,595.21	68.6044	4,595.21	69.015	4,595.21	66.4105	4,595.21	73.0707	4,595.21	68.6612	4,595.21	64.3597
4,756.35	90.5443	4,756.35	89.9525	4,756.35	90.8753	4,756.35	90.1841	4,756.35	90.583	4,756.35	88.5113	4,756.35	88.2336	4,756.35	88.1149	4,756.35	89.4893	4,756.35	85.6668	4,756.35	83.8848	4,756.35	85.0405	4,756.35	87.441	4,756.35	80.078	4,756.35	83.6279	4,756.35	77.3219	4,756.35	76.3247	4,756.35	74.0392	4,756.35	79.1252	4,756.35	74.1794	4,756.35	77.5042	4,756.35	70.1917	4,756.35	77.0186	4,756.35	70.4475	4,756.35	77.7142	4,756.35	68.5092	4,756.35	70.4673	4,756.35	75.3175	4,756.35	62.1908	4,756.35	71.2364	4,756.35	70.9243	4,756.35	69.9187	4,756.35	61.5873	4,756.35	72.312	4,756.35	69.8973	4,756.35	62.4448
4,924.8	89.3505	4,924.8	90.6593	4,924.8	91.3441	4,924.8	89.6162	4,924.8	90.5173	4,924.8	88.8284	4,924.8	87.5299	4,924.8	87.961	4,924.8	89.1742	4,924.8	85.2636	4,924.8	82.6591	4,924.8	82.0806	4,924.8	87.7513	4,924.8	78.6035	4,924.8	80.9612	4,924.8	79.5001	4,924.8	78.6228	4,924.8	75.3459	4,924.8	78.1516	4,924.8	72.9099	4,924.8	74.9655	4,924.8	66.9893	4,924.8	76.3717	4,924.8	74.144	4,924.8	68.2906	4,924.8	66.5639	4,924.8	68.3534	4,924.8	71.9713	4,924.8	67.7238	4,924.8	73.1282	4,924.8	62.3827	4,924.8	64.0768	4,924.8	61.8745	4,924.8	69.2845	4,924.8	71.8526	4,924.8	63.8432
5,097.66	88.2543	5,097.66	89.5205	5,097.66	90.8214	5,097.66	90.5701	5,097.66	90.8874	5,097.66	89.4087	5,097.66	88.8451	5,097.66	86.7671	5,097.66	88.3864	5,097.66	85.2105	5,097.66	85.9854	5,097.66	83.0304	5,097.66	86.0936	5,097.66	82.6238	5,097.66	80.2705	5,097.66	78.3525	5,097.66	78.6049	5,097.66	73.5947	5,097.66	76.771	5,097.66	72.596	5,097.66	80.0487	5,097.66	70.7394	5,097.66	76.53	5,097.66	69.4858	5,097.66	76.6572	5,097.66	72.0708	5,097.66	71.3583	5,097.66	73.3215	5,097.66	71.6013	5,097.66	70.8072	5,097.66	58.0366	5,097.66	66.3903	5,097.66	60.6389	5,097.66	68.7597	5,097.66	70.9941	5,097.66	65.9596
5,277.83	89.0088	5,277.83	89.6153	5,277.83	89.644	5,277.83	90.1588	5,277.83	90.0541	5,277.83	89.1324	5,277.83	89.1552	5,277.83	87.5513	5,277.83	86.347	5,277.83	83.9067	5,277.83	88.771	5,277.83	82.6469	5,277.83	84.5067	5,277.83	78.7547	5,277.83	81.1114	5,277.83	75.6999	5,277.83	77.7093	5,277.83	73.1293	5,277.83	73.7286	5,277.83	73.1584	5,277.83	78.2376	5,277.83	67.7887	5,277.83	80.9983	5,277.83	70.6701	5,277.83	77.6635	5,277.83	72.4891	5,277.83	70.1102	5,277.83	72.9937	5,277.83	67.4535	5,277.83	71.3013	5,277.83	65.2164	5,277.83	64.5307	5,277.83	59.8645	5,277.83	67.7287	5,277.83	69.0064	5,277.83	67.4858
5,463.87	89.0946	5,463.87	90.2117	5,463.87	88.6842	5,463.87	89.1494	5,463.87	89.1424	5,463.87	88.4436	5,463.87	89.4501	5,463.87	85.4194	5,463.87	85.3914	5,463.87	83.3798	5,463.87	87.7677	5,463.87	80.4762	5,463.87	80.622	5,463.87	76.4585	5,463.87	80.3568	5,463.87	78.1178	5,463.87	71.2885	5,463.87	73.833	5,463.87	64.9257	5,463.87	70.2402	5,463.87	76.4835	5,463.87	70.7323	5,463.87	79.7675	5,463.87	64.2992	5,463.87	72.9443	5,463.87	69.5524	5,463.87	66.5519	5,463.87	73.3104	5,463.87	67.9041	5,463.87	70.2924	5,463.87	64.3969	5,463.87	68.9039	5,463.87	52.9849	5,463.87	71.4632	5,463.87	68.3892	5,463.87	66.3246
5,657.23	89.2763	5,657.23	90.0165	5,657.23	88.2406	5,657.23	89.3109	5,657.23	89.5933	5,657.23	86.8869	5,657.23	88.9216	5,657.23	85.442	5,657.23	85.735	5,657.23	81.5116	5,657.23	85.8667	5,657.23	80.4564	5,657.23	77.801	5,657.23	79.8178	5,657.23	76.5082	5,657.23	71.9534	5,657.23	67.0951	5,657.23	72.0295	5,657.23	70.7989	5,657.23	69.1542	5,657.23	73.5427	5,657.23	68.2612	5,657.23	78.0896	5,657.23	68.5285	5,657.23	68.1461	5,657.23	69.9488	5,657.23	66.8964	5,657.23	70.9762	5,657.23	60.7359	5,657.23	70.4859	5,657.23	61.8122	5,657.23	69.2207	5,657.23	58.0076	5,657.23	70.1555	5,657.23	68.7674	5,657.23	65.9797
5,856.45	89.4002	5,856.45	89.6957	5,856.45	87.8429	5,856.45	90.0019	5,856.45	89.1456	5,856.45	86.9138	5,856.45	88.7253	5,856.45	84.9602	5,856.45	86.5315	5,856.45	83.0512	5,856.45	84.6129	5,856.45	80.6044	5,856.45	80.5455	5,856.45	77.3736	5,856.45	76.9645	5,856.45	75.4406	5,856.45	75.8713	5,856.45	72.9369	5,856.45	74.0573	5,856.45	66.9232	5,856.45	73.4022	5,856.45	66.1685	5,856.45	76.3787	5,856.45	68.6482	5,856.45	75.8489	5,856.45	67.5163	5,856.45	68.8245	5,856.45	64.5426	5,856.45	66.9768	5,856.45	71.5781	5,856.45	62.5004	5,856.45	66.4469	5,856.45	58.8563	5,856.45	69.2899	5,856.45	68.7383	5,856.45	60.7554
6,062.99	90.4611	6,062.99	89.6657	6,062.99	90.1516	6,062.99	89.3571	6,062.99	89.7503	6,062.99	87.5666	6,062.99	89.2882	6,062.99	85.8542	6,062.99	87.3258	6,062.99	83.2449	6,062.99	83.1869	6,062.99	81.7749	6,062.99	83.8584	6,062.99	79.0516	6,062.99	80.2446	6,062.99	76.4943	6,062.99	76.7599	6,062.99	74.4662	6,062.99	74.9646	6,062.99	68.9211	6,062.99	72.3454	6,062.99	59.2214	6,062.99	79.4791	6,062.99	67.9197	6,062.99	77.6309	6,062.99	67.6896	6,062.99	70.2578	6,062.99	69.4379	6,062.99	70.048	6,062.99	71.7582	6,062.99	62.6193	6,062.99	58.3088	6,062.99	62.5488	6,062.99	67.3825	6,062.99	68.5305	6,062.99	56.1487
6,276.86	89.9019	6,276.86	90.6274	6,276.86	90.8787	6,276.86	89.7127	6,276.86	89.5549	6,276.86	88.0779	6,276.86	89.2439	6,276.86	86.6128	6,276.86	88.2769	6,276.86	83.4153	6,276.86	84.5618	6,276.86	81.4718	6,276.86	82.7648	6,276.86	78.7255	6,276.86	82.6452	6,276.86	72.8205	6,276.86	77.0535	6,276.86	74.9458	6,276.86	69.773	6,276.86	64.4025	6,276.86	76.0404	6,276.86	65.129	6,276.86	80.92	6,276.86	68.2679	6,276.86	77.5084	6,276.86	67.5419	6,276.86	70.0869	6,276.86	67.4811	6,276.86	68.9845	6,276.86	69.9509	6,276.86	66.4512	6,276.86	65.2215	6,276.86	54.2399	6,276.86	69.2648	6,276.86	67.5965	6,276.86	50.6115
6,498.05	90.1891	6,498.05	91.1408	6,498.05	90.7124	6,498.05	89.78	6,498.05	89.3898	6,498.05	88.2929	6,498.05	87.7057	6,498.05	86.4752	6,498.05	88.7486	6,498.05	83.9993	6,498.05	84.285	6,498.05	80.4487	6,498.05	80.8922	6,498.05	76.9366	6,498.05	82.4442	6,498.05	76.4201	6,498.05	69.9281	6,498.05	72.2643	6,498.05	64.8663	6,498.05	67.8825	6,498.05	77.1582	6,498.05	63.6013	6,498.05	79.042	6,498.05	65.4842	6,498.05	75.6113	6,498.05	64.8718	6,498.05	69.5087	6,498.05	69.8608	6,498.05	61.943	6,498.05	70.0242	6,498.05	67.9255	6,498.05	64.1098	6,498.05	58.2823	6,498.05	68.4972	6,498.05	63.4963	6,498.05	53.0792
6,726.56	90.0871	6,726.56	89.9491	6,726.56	90.2808	6,726.56	89.1897	6,726.56	88.9664	6,726.56	87.9546	6,726.56	86.5941	6,726.56	85.2607	6,726.56	88.5301	6,726.56	83.3094	6,726.56	84.2296	6,726.56	80.7871	6,726.56	82.6411	6,726.56	78.59	6,726.56	77.1431	6,726.56	74.4247	6,726.56	69.0394	6,726.56	72.4953	6,726.56	66.609	6,726.56	67.1918	6,726.56	76.5937	6,726.56	62.7876	6,726.56	77.8275	6,726.56	65.0408	6,726.56	74.9185	6,726.56	68.4696	6,726.56	69.8237	6,726.56	67.0643	6,726.56	62.0984	6,726.56	68.4647	6,726.56	68.2186	6,726.56	59.4033	6,726.56	61.5858	6,726.56	65.5083	6,726.56	56.973	6,726.56	47.8505
6,963.87	89.7089	6,963.87	89.4092	6,963.87	89.4717	6,963.87	89.4731	6,963.87	89.7222	6,963.87	87.3054	6,963.87	86.4615	6,963.87	85.9422	6,963.87	88.5563	6,963.87	82.8432	6,963.87	82.6472	6,963.87	79.7496	6,963.87	82.3502	6,963.87	75.2572	6,963.87	71.6301	6,963.87	73.5068	6,963.87	75.125	6,963.87	69.4272	6,963.87	59.1846	6,963.87	66.7131	6,963.87	67.7475	6,963.87	59.9628	6,963.87	75.2917	6,963.87	66.1676	6,963.87	72.3827	6,963.87	65.4027	6,963.87	67.0562	6,963.87	67.0242	6,963.87	63.7846	6,963.87	68.5145	6,963.87	63.4352	6,963.87	67.6504	6,963.87	67.9048	6,963.87	66.4591	6,963.87	61.2878	6,963.87	56.7928
7,209.96	90.1019	7,209.96	90.1042	7,209.96	90.3458	7,209.96	89.8823	7,209.96	90.1789	7,209.96	87.2248	7,209.96	86.9435	7,209.96	84.6692	7,209.96	87.1655	7,209.96	81.9694	7,209.96	84.5566	7,209.96	79.4988	7,209.96	79.3175	7,209.96	76.7097	7,209.96	79.4252	7,209.96	73.1973	7,209.96	76.1369	7,209.96	70.8971	7,209.96	68.7603	7,209.96	66.2565	7,209.96	70.7449	7,209.96	63.1521	7,209.96	78.5483	7,209.96	58.9596	7,209.96	77.1312	7,209.96	66.4511	7,209.96	70.9959	7,209.96	69.7332	7,209.96	64.504	7,209.96	69.3217	7,209.96	63.7879	7,209.96	66.149	7,209.96	63.1142	7,209.96	66.2534	7,209.96	65.1869	7,209.96	60.029
7,464.84	90.0638	7,464.84	90.1933	7,464.84	91.286	7,464.84	89.6654	7,464.84	90.8676	7,464.84	88.1049	7,464.84	87.9239	7,464.84	86.2135	7,464.84	86.3905	7,464.84	82.874	7,464.84	86.9168	7,464.84	80.1368	7,464.84	76.9888	7,464.84	76.2359	7,464.84	82.5761	7,464.84	73.5612	7,464.84	77.499	7,464.84	71.4187	7,464.84	71.1112	7,464.84	66.0342	7,464.84	74.9773	7,464.84	62.0503	7,464.84	78.5839	7,464.84	64.9901	7,464.84	77.2976	7,464.84	66.7351	7,464.84	70.5393	7,464.84	68.6177	7,464.84	61.4151	7,464.84	66.3485	7,464.84	49.9608	7,464.84	66.7778	7,464.84	60.5583	7,464.84	67.3966	7,464.84	65.7798	7,464.84	59.5258
7,727.05	91.046	7,727.05	90.3619	7,727.05	91.8092	7,727.05	89.605	7,727.05	90.9564	7,727.05	88.5205	7,727.05	89.1109	7,727.05	86.078	7,727.05	85.7325	7,727.05	83.8138	7,727.05	87.0774	7,727.05	80.5468	7,727.05	82.5509	7,727.05	77.6464	7,727.05	80.781	7,727.05	75.5093	7,727.05	74.4951	7,727.05	70.0026	7,727.05	67.0351	7,727.05	68.2749	7,727.05	70.5184	7,727.05	62.9783	7,727.05	79.0574	7,727.05	64.486	7,727.05	75.5759	7,727.05	68.3418	7,727.05	69.5793	7,727.05	66.9002	7,727.05	61.2788	7,727.05	65.8164	7,727.05	61.147	7,727.05	66.5006	7,727.05	61.3639	7,727.05	65.7129	7,727.05	65.0471	7,727.05	60.7379
7,999.51	90.704	7,999.51	90.7412	7,999.51	91.8238	7,999.51	90.7318	7,999.51	90.1756	7,999.51	88.3448	7,999.51	89.1426	7,999.51	86.0365	7,999.51	86.2361	7,999.51	83.0079	7,999.51	86.1281	7,999.51	80.6166	7,999.51	84.3034	7,999.51	75.4765	7,999.51	74.2192	7,999.51	73.2889	7,999.51	69.7837	7,999.51	69.4789	7,999.51	62.6048	7,999.51	66.194	7,999.51	72.4467	7,999.51	62.3058	7,999.51	78.6021	7,999.51	65.3341	7,999.51	74.6327	7,999.51	67.4731	7,999.51	64.1052	7,999.51	65.1209	7,999.51	66.2663	7,999.51	66.1745	7,999.51	64.1325	7,999.51	67.404	7,999.51	61.6786	7,999.51	62.6284	7,999.51	56.436	7,999.51	50.4447
8,282.23	91.5824	8,282.23	91.4993	8,282.23	91.4823	8,282.23	90.7253	8,282.23	90.1883	8,282.23	87.696	8,282.23	87.4658	8,282.23	85.039	8,282.23	87.6114	8,282.23	81.6213	8,282.23	80.6059	8,282.23	78.1374	8,282.23	83.5549	8,282.23	74.3657	8,282.23	74.3444	8,282.23	71.9105	8,282.23	69.8155	8,282.23	61.9919	8,282.23	61.1511	8,282.23	62.5317	8,282.23	73.3229	8,282.23	53.6407	8,282.23	78.0123	8,282.23	58.8944	8,282.23	76.1914	8,282.23	65.1022	8,282.23	70.1008	8,282.23	64.1169	8,282.23	64.0158	8,282.23	61.4012	8,282.23	63.563	8,282.23	58.9318	8,282.23	61.2786	8,282.23	51.7737	8,282.23	58.5279	8,282.23	59.3546
8,573.73	92.1543	8,573.73	91.2659	8,573.73	91.8675	8,573.73	89.9754	8,573.73	90.2143	8,573.73	87.5185	8,573.73	85.6678	8,573.73	83.5888	8,573.73	87.3578	8,573.73	80.1793	8,573.73	80.8481	8,573.73	76.8088	8,573.73	78.4533	8,573.73	71.9053	8,573.73	77.9225	8,573.73	65.4366	8,573.73	70.4809	8,573.73	65.8171	8,573.73	70.6036	8,573.73	60.3849	8,573.73	74.6209	8,573.73	49.9602	8,573.73	78.7146	8,573.73	54.4001	8,573.73	76.8062	8,573.73	60.3277	8,573.73	69.9879	8,573.73	62.8426	8,573.73	63.0492	8,573.73	62.0214	8,573.73	58.5969	8,573.73	53.193	8,573.73	62.8897	8,573.73	58.7989	8,573.73	56.6624	8,573.73	58.4258
8,876.95	92.1485	8,876.95	92.0531	8,876.95	92.429	8,876.95	90.7044	8,876.95	90.9714	8,876.95	86.1578	8,876.95	86.656	8,876.95	82.8714	8,876.95	85.7003	8,876.95	79.46	8,876.95	84.6227	8,876.95	75.2845	8,876.95	66.2585	8,876.95	69.1806	8,876.95	75.4449	8,876.95	66.6551	8,876.95	70.7352	8,876.95	63.0942	8,876.95	71.9105	8,876.95	51.8558	8,876.95	75.9032	8,876.95	58.7565	8,876.95	79.3772	8,876.95	56.6951	8,876.95	76.8171	8,876.95	60.42	8,876.95	70.1443	8,876.95	61.1446	8,876.95	61.3344	8,876.95	62.502	8,876.95	62.3005	8,876.95	63.1481	8,876.95	55.6443	8,876.95	59.1001	8,876.95	52.3242	8,876.95	56.0681
9,188.96	92.2801	9,188.96	91.8693	9,188.96	93.2272	9,188.96	90.2008	9,188.96	92.0929	9,188.96	85.7053	9,188.96	88.9588	9,188.96	82.2948	9,188.96	83.391	9,188.96	78.4351	9,188.96	84.6541	9,188.96	73.3601	9,188.96	77.3263	9,188.96	66.4304	9,188.96	61.4647	9,188.96	66.8736	9,188.96	65.2691	9,188.96	59.9817	9,188.96	74.2941	9,188.96	58.0998	9,188.96	77.9283	9,188.96	55.2459	9,188.96	80.0894	9,188.96	58.305	9,188.96	76.8063	9,188.96	60.1784	9,188.96	69.5691	9,188.96	60.034	9,188.96	65.8509	9,188.96	62.7485	9,188.96	61.5467	9,188.96	64.0012	9,188.96	56.4187	9,188.96	51.6599	9,188.96	58.7301	9,188.96	56.9451
9,514.16	92.8767	9,514.16	92.5282	9,514.16	93.3294	9,514.16	90.3837	9,514.16	93.0746	9,514.16	86.0156	9,514.16	89.6869	9,514.16	82.3553	9,514.16	83.2139	9,514.16	77.4942	9,514.16	81.191	9,514.16	71.6313	9,514.16	78.2814	9,514.16	63.6319	9,514.16	71.306	9,514.16	61.3159	9,514.16	61.3238	9,514.16	58.6956	9,514.16	72.0389	9,514.16	62.1465	9,514.16	77.5519	9,514.16	52.2233	9,514.16	80.1326	9,514.16	50.5217	9,514.16	76.6316	9,514.16	60.2923	9,514.16	70.5111	9,514.16	60.1678	9,514.16	63.2045	9,514.16	61.5709	9,514.16	59.702	9,514.16	60.5813	9,514.16	61.2306	9,514.16	49.6567	9,514.16	58.0944	9,514.16	57.6456
9,849.61	93.2083	9,849.61	93.2249	9,849.61	93.6086	9,849.61	90.6824	9,849.61	92.996	9,849.61	86.3467	9,849.61	88.4947	9,849.61	81.9921	9,849.61	83.8457	9,849.61	76.4822	9,849.61	79.1647	9,849.61	70.1023	9,849.61	74.9931	9,849.61	66.7657	9,849.61	72.0857	9,849.61	64.3063	9,849.61	71.0172	9,849.61	62.6689	9,849.61	73.7304	9,849.61	63.4955	9,849.61	79.0132	9,849.61	58.6949	9,849.61	80.6558	9,849.61	52.8423	9,849.61	77.4382	9,849.61	60.9587	9,849.61	72.4599	9,849.61	63.4425	9,849.61	63.56	9,849.61	60.0922	9,849.61	59.1552	9,849.61	61.4567	9,849.61	59.7143	9,849.61	58.0795	9,849.61	59.3063	9,849.61	55.1616
10,196.8	94.1491	10,196.8	93.4773	10,196.8	93.5131	10,196.8	91.0684	10,196.8	92.376	10,196.8	86.5055	10,196.8	87.2908	10,196.8	81.7925	10,196.8	84.1409	10,196.8	74.5329	10,196.8	78.1149	10,196.8	68.3398	10,196.8	71.4448	10,196.8	68.9323	10,196.8	68.8109	10,196.8	68.6095	10,196.8	73.5113	10,196.8	64.3967	10,196.8	76.4839	10,196.8	61.9428	10,196.8	78.9028	10,196.8	58.7695	10,196.8	81.4193	10,196.8	56.831	10,196.8	78.5167	10,196.8	61.2578	10,196.8	73.3387	10,196.8	62.4894	10,196.8	60.0364	10,196.8	62.3566	10,196.8	49.8291	10,196.8	61.6738	10,196.8	58.2216	10,196.8	58.141	10,196.8	58.2279	10,196.8	57.0848
10,555.7	94.8278	10,555.7	93.3826	10,555.7	93.4936	10,555.7	90.6807	10,555.7	91.4247	10,555.7	86.2723	10,555.7	87.076	10,555.7	81.1069	10,555.7	82.9144	10,555.7	74.1303	10,555.7	77.8175	10,555.7	71.2566	10,555.7	72.7884	10,555.7	72.1832	10,555.7	74.8752	10,555.7	69.2282	10,555.7	75.1527	10,555.7	65.7712	10,555.7	76.9615	10,555.7	63.5862	10,555.7	80.8461	10,555.7	57.495	10,555.7	81.9987	10,555.7	55.8115	10,555.7	80.117	10,555.7	64.6225	10,555.7	72.6645	10,555.7	64.7169	10,555.7	49.8526	10,555.7	63.3674	10,555.7	49.8668	10,555.7	60.9164	10,555.7	41.2187	10,555.7	58.7418	10,555.7	56.7285	10,555.7	58.6695
10,927.7	95.0096	10,927.7	93.0752	10,927.7	93.6778	10,927.7	90.3677	10,927.7	90.6291	10,927.7	85.5911	10,927.7	87.2741	10,927.7	80.5299	10,927.7	82.4238	10,927.7	76.7244	10,927.7	76.8457	10,927.7	75.2229	10,927.7	75.3288	10,927.7	73.4847	10,927.7	76.4375	10,927.7	72.4617	10,927.7	73.8122	10,927.7	67.3776	10,927.7	78.324	10,927.7	65.4086	10,927.7	81.7375	10,927.7	60.9425	10,927.7	82.7722	10,927.7	58.1832	10,927.7	80.538	10,927.7	65.4087	10,927.7	70.3232	10,927.7	65.9578	10,927.7	51.4984	10,927.7	65.4935	10,927.7	43.6773	10,927.7	62.9765	10,927.7	49.039	10,927.7	59.6088	10,927.7	54.1384	10,927.7	54.721
11,313	94.4701	11,313	92.4315	11,313	93.8939	11,313	90.0031	11,313	90.0832	11,313	84.6421	11,313	87.6077	11,313	80.4302	11,313	83.0261	11,313	78.9072	11,313	73.4676	11,313	77.6116	11,313	77.4139	11,313	75.1274	11,313	76.0105	11,313	73.7604	11,313	77.6738	11,313	69.8076	11,313	80.3267	11,313	65.9419	11,313	82.8814	11,313	60.943	11,313	83.1098	11,313	58.0147	11,313	80.4418	11,313	66.8418	11,313	72.3392	11,313	66.2001	11,313	62.0486	11,313	65.2302	11,313	56.5588	11,313	61.5075	11,313	58.213	11,313	64.7524	11,313	48.6989	11,313	56.7404
11,712.9	93.7707	11,712.9	92.0243	11,712.9	93.8136	11,712.9	89.3105	11,712.9	89.5906	11,712.9	84.224	11,712.9	87.1346	11,712.9	80.6652	11,712.9	81.6699	11,712.9	80.2409	11,712.9	76.9513	11,712.9	79.202	11,712.9	78.607	11,712.9	76.9182	11,712.9	80.5592	11,712.9	72.4781	11,712.9	78.6276	11,712.9	70.4016	11,712.9	79.7775	11,712.9	67.6472	11,712.9	83.3771	11,712.9	57.8191	11,712.9	83.4361	11,712.9	56.3983	11,712.9	81.8399	11,712.9	66.5519	11,712.9	72.424	11,712.9	68.043	11,712.9	64.5382	11,712.9	64.6069	11,712.9	50.1374	11,712.9	59.1835	11,712.9	58.7667	11,712.9	57.247	11,712.9	52.7874	11,712.9	60.0843
12,126	93.0434	12,126	91.6175	12,126	93.581	12,126	89.0668	12,126	90.0418	12,126	83.7724	12,126	86.4848	12,126	80.9428	12,126	82.0843	12,126	81.3949	12,126	80.171	12,126	80.8162	12,126	77.8145	12,126	77.6551	12,126	80.753	12,126	72.8057	12,126	77.3502	12,126	69.6873	12,126	81.0637	12,126	66.3475	12,126	84.4632	12,126	59.6991	12,126	84.4071	12,126	53.2796	12,126	81.952	12,126	66.4496	12,126	74.6204	12,126	66.6228	12,126	57.2253	12,126	63.1647	12,126	55.2998	12,126	66.721	12,126	56.6177	12,126	67.4991	12,126	51.6955	12,126	62.0856
12,553.7	92.7749	12,553.7	91.0923	12,553.7	93.0681	12,553.7	88.4247	12,553.7	89.4743	12,553.7	84.8482	12,553.7	84.4725	12,553.7	82.169	12,553.7	82.2181	12,553.7	82.3439	12,553.7	82.4331	12,553.7	80.6518	12,553.7	81.4108	12,553.7	77.2005	12,553.7	80.3816	12,553.7	73.2658	12,553.7	79.2436	12,553.7	68.646	12,553.7	80.9848	12,553.7	64.2341	12,553.7	84.8416	12,553.7	63.8813	12,553.7	84.4201	12,553.7	55.9538	12,553.7	82.8808	12,553.7	66.7421	12,553.7	73.76	12,553.7	66.641	12,553.7	46.8062	12,553.7	64.0974	12,553.7	59.9216	12,553.7	65.1045	12,553.7	59.1959	12,553.7	64.766	12,553.7	60.9909	12,553.7	59.7236
12,996.1	92.6389	12,996.1	91.4148	12,996.1	92.2639	12,996.1	88.4488	12,996.1	89.3446	12,996.1	85.6282	12,996.1	85.5809	12,996.1	84.437	12,996.1	83.2547	12,996.1	84.1604	12,996.1	82.4581	12,996.1	81.2504	12,996.1	82.0202	12,996.1	78.3428	12,996.1	80.8005	12,996.1	74.4573	12,996.1	79.4447	12,996.1	70.1339	12,996.1	82.448	12,996.1	66.3684	12,996.1	85.8471	12,996.1	61.4579	12,996.1	85.7445	12,996.1	60.4409	12,996.1	84.8164	12,996.1	67.4288	12,996.1	74.2159	12,996.1	67.5622	12,996.1	58.8184	12,996.1	64.9083	12,996.1	56.2353	12,996.1	68.5928	12,996.1	60.0382	12,996.1	62.2552	12,996.1	64.3953	12,996.1	61.1397
13,454.6	93.2299	13,454.6	90.2901	13,454.6	92.4103	13,454.6	89.0174	13,454.6	87.882	13,454.6	85.9908	13,454.6	87.5818	13,454.6	87.1575	13,454.6	87.7803	13,454.6	86.1219	13,454.6	85.2571	13,454.6	82.4749	13,454.6	84.8782	13,454.6	79.6557	13,454.6	81.7707	13,454.6	75.0514	13,454.6	81.4082	13,454.6	72.2774	13,454.6	84.5068	13,454.6	67.7527	13,454.6	87.7789	13,454.6	61.5116	13,454.6	86.9598	13,454.6	56.1356	13,454.6	86.2196	13,454.6	67.5828	13,454.6	75.884	13,454.6	69.1687	13,454.6	57.6471	13,454.6	65.7425	13,454.6	60.6879	13,454.6	69.7107	13,454.6	62.4364	13,454.6	64.7241	13,454.6	63.3942	13,454.6	66.3587
13,929.2	93.2252	13,929.2	92.4284	13,929.2	92.7069	13,929.2	90.1431	13,929.2	90.4402	13,929.2	87.8734	13,929.2	88.9235	13,929.2	89.3307	13,929.2	88.6559	13,929.2	87.9937	13,929.2	87.3371	13,929.2	84.0441	13,929.2	85.0522	13,929.2	80.0495	13,929.2	84.2221	13,929.2	75.4999	13,929.2	81.4285	13,929.2	72.0536	13,929.2	85.1928	13,929.2	67.8126	13,929.2	89.3175	13,929.2	62.181	13,929.2	89.0233	13,929.2	55.8371	13,929.2	87.6791	13,929.2	69.6295	13,929.2	77.1362	13,929.2	68.8682	13,929.2	63.7288	13,929.2	66.3191	13,929.2	66.8237	13,929.2	69.8518	13,929.2	55.5317	13,929.2	66.5328	13,929.2	65.9135	13,929.2	66.7442
14,419.9	94.1608	14,419.9	94.0004	14,419.9	92.7017	14,419.9	92.9	14,419.9	92.9848	14,419.9	89.9651	14,419.9	92.1012	14,419.9	90.7579	14,419.9	90.7801	14,419.9	89.2543	14,419.9	88.8513	14,419.9	85.1506	14,419.9	87.0058	14,419.9	81.4051	14,419.9	83.1068	14,419.9	75.7106	14,419.9	84.4603	14,419.9	73.5872	14,419.9	86.4072	14,419.9	67.6309	14,419.9	91.1821	14,419.9	39.9314	14,419.9	89.8641	14,419.9	59.9032	14,419.9	88.9125	14,419.9	70.3666	14,419.9	78.5478	14,419.9	69.8044	14,419.9	66.8841	14,419.9	68.7764	14,419.9	50.6432	14,419.9	66.0111	14,419.9	64.1991	14,419.9	64.1026	14,419.9	60.4044	14,419.9	63.8046
14,928.2	93.2662	14,928.2	93.698	14,928.2	94.564	14,928.2	92.6105	14,928.2	93.2335	14,928.2	90.2677	14,928.2	90.7159	14,928.2	90.1072	14,928.2	90.7348	14,928.2	87.7153	14,928.2	86.8388	14,928.2	83.6861	14,928.2	85.4101	14,928.2	79.5354	14,928.2	82.3094	14,928.2	74.0324	14,928.2	80.7807	14,928.2	71.1693	14,928.2	84.5527	14,928.2	63.7818	14,928.2	89.6026	14,928.2	58.1931	14,928.2	88.5415	14,928.2	52.771	14,928.2	87.8933	14,928.2	66.4904	14,928.2	78.0218	14,928.2	67.7319	14,928.2	65.0891	14,928.2	63.1481	14,928.2	58.4106	14,928.2	60.7234	14,928.2	59.1681	14,928.2	61.8622	14,928.2	57.0856	14,928.2	58.7809
15,455.6	91.4549	15,455.6	92.4221	15,455.6	92.3574	15,455.6	90.3698	15,455.6	90.472	15,455.6	87.7899	15,455.6	88.6043	15,455.6	86.4717	15,455.6	87.002	15,455.6	83.7961	15,455.6	83.4531	15,455.6	79.1674	15,455.6	80.4589	15,455.6	74.8366	15,455.6	76.6089	15,455.6	67.6121	15,455.6	77.3447	15,455.6	65.4095	15,455.6	80.6311	15,455.6	59.0049	15,455.6	86.2979	15,455.6	44.1076	15,455.6	85.4869	15,455.6	50.7869	15,455.6	84.2029	15,455.6	60.8466	15,455.6	74.0939	15,455.6	62.049	15,455.6	60.5388	15,455.6	53.5728	15,455.6	41.3751	15,455.6	53.5077	15,455.6	42.1086	15,455.6	57.8206	15,455.6	56.0343	15,455.6	47.8814
16,000.5	89.843	16,000.5	89.7785	16,000.5	89.6822	16,000.5	88.2303	16,000.5	88.0941	16,000.5	84.5221	16,000.5	87.6344	16,000.5	82.401	16,000.5	83.5257	16,000.5	79.6039	16,000.5	79.2835	16,000.5	73.9221	16,000.5	75.5035	16,000.5	69.0205	16,000.5	71.2859	16,000.5	62.9266	16,000.5	73.5081	16,000.5	60.3537	16,000.5	77.2945	16,000.5	51.2978	16,000.5	82.8603	16,000.5	36.7273	16,000.5	81.5916	16,000.5	47.3099	16,000.5	80.5379	16,000.5	57.5326	16,000.5	69.5838	16,000.5	57.0634	16,000.5	49.79	16,000.5	48.7567	16,000.5	43.0959	16,000.5	56.0248	16,000.5	45.2267	16,000.5	55.8415	16,000.5	45.2669	16,000.5	47.1719
16,564.5	89.2995	16,564.5	88.1404	16,564.5	89.3524	16,564.5	86.2243	16,564.5	86.2814	16,564.5	81.9038	16,564.5	85.426	16,564.5	78.886	16,564.5	80.7429	16,564.5	75.0373	16,564.5	72.9567	16,564.5	68.4864	16,564.5	71.1819	16,564.5	63.5002	16,564.5	64.9506	16,564.5	58.7403	16,564.5	67.8898	16,564.5	55.6818	16,564.5	73.7718	16,564.5	41.864	16,564.5	79.2967	16,564.5	24.2571	16,564.5	78.5387	16,564.5	47.632	16,564.5	77.1634	16,564.5	51.1517	16,564.5	65.5608	16,564.5	52.5833	16,564.5	51.2697	16,564.5	47.7489	16,564.5	42.4329	16,564.5	50.5008	16,564.5	44.8006	16,564.5	51.6178	16,564.5	47.3706	16,564.5	46.6791
17,148.9	88.4985	17,148.9	87.3845	17,148.9	88.4333	17,148.9	85.2797	17,148.9	84.7911	17,148.9	80.1083	17,148.9	82.0682	17,148.9	75.8365	17,148.9	77.7314	17,148.9	70.9859	17,148.9	68.2561	17,148.9	64.6674	17,148.9	62.9238	17,148.9	59.3208	17,148.9	55.4236	17,148.9	55.6875	17,148.9	63.0716	17,148.9	52.1166	17,148.9	70.3144	17,148.9	36.7914	17,148.9	76.001	17,148.9	32.4493	17,148.9	75.4239	17,148.9	45.808	17,148.9	73.894	17,148.9	49.1717	17,148.9	61.9202	17,148.9	49.6564	17,148.9	43.4928	17,148.9	44.2913	17,148.9	45.4658	17,148.9	53.1595	17,148.9	40.7489	17,148.9	53.3489	17,148.9	44.6413	17,148.9	44.5
17,752.4	88.5073	17,752.4	87.0119	17,752.4	87.7342	17,752.4	84.4453	17,752.4	84.421	17,752.4	78.7341	17,752.4	80.8997	17,752.4	74.1733	17,752.4	72.7984	17,752.4	69.7835	17,752.4	63.8715	17,752.4	65.6759	17,752.4	62.8515	17,752.4	60.7376	17,752.4	52.7166	17,752.4	56.8269	17,752.4	59.5181	17,752.4	52.5889	17,752.4	67.8072	17,752.4	40.8877	17,752.4	72.9358	17,752.4	31.7337	17,752.4	72.3374	17,752.4	43.4444	17,752.4	70.5062	17,752.4	49.0905	17,752.4	55.0542	17,752.4	50.1877	17,752.4	48.2061	17,752.4	48.3936	17,752.4	44.5204	17,752.4	54.6007	17,752.4	48.3116	17,752.4	52.4684	17,752.4	46.0222	17,752.4	48.6936
18,379.4	88.5371	18,379.4	87.0604	18,379.4	87.6393	18,379.4	84.0161	18,379.4	83.5192	18,379.4	77.6657	18,379.4	79.1133	18,379.4	73.1095	18,379.4	69.7296	18,379.4	69.8675	18,379.4	64.7075	18,379.4	66.9623	18,379.4	66.4082	18,379.4	62.5733	18,379.4	59.578	18,379.4	57.4805	18,379.4	58.6337	18,379.4	53.0153	18,379.4	66.3555	18,379.4	43.4069	18,379.4	71.1929	18,379.4	38.088	18,379.4	70.1626	18,379.4	45.8386	18,379.4	67.6441	18,379.4	48.4894	18,379.4	46.691	18,379.4	49.2193	18,379.4	46.2619	18,379.4	49.8071	18,379.4	45.5047	18,379.4	56.8288	18,379.4	47.0978	18,379.4	54.3321	18,379.4	41.7235	18,379.4	46.962
19,026.9	88.5768	19,026.9	87.0145	19,026.9	87.5934	19,026.9	83.7649	19,026.9	82.1036	19,026.9	76.5669	19,026.9	76.1795	19,026.9	71.1485	19,026.9	69.8324	19,026.9	69.2921	19,026.9	70.3415	19,026.9	67.2216	19,026.9	70.2031	19,026.9	61.9302	19,026.9	64.303	19,026.9	56.3159	19,026.9	61.9035	19,026.9	51.6572	19,026.9	67.246	19,026.9	41.5957	19,026.9	72.0805	19,026.9	40.4749	19,026.9	70.3165	19,026.9	40.6123	19,026.9	67.7821	19,026.9	48.0704	19,026.9	53.0057	19,026.9	49.5863	19,026.9	45.5452	19,026.9	52.8711	19,026.9	44.452	19,026.9	55.8523	19,026.9	46.7663	19,026.9	52.3587	19,026.9	44.2473	19,026.9	45.6371
19,697.8	88.05	19,697.8	86.5414	19,697.8	85.9569	19,697.8	82.7989	19,697.8	80.1287	19,697.8	74.1237	19,697.8	75.1211	19,697.8	69.5555	19,697.8	72.6108	19,697.8	72.7774	19,697.8	71.9119	19,697.8	69.9928	19,697.8	72.3114	19,697.8	65.364	19,697.8	66.5201	19,697.8	58.6062	19,697.8	62.3724	19,697.8	54.1122	19,697.8	68.0863	19,697.8	40.3329	19,697.8	73.2401	19,697.8	41.7499	19,697.8	71.4306	19,697.8	43.9477	19,697.8	68.4646	19,697.8	47.303	19,697.8	52.9062	19,697.8	50.7968	19,697.8	39.8461	19,697.8	54.0223	19,697.8	45.2725	19,697.8	58.4765	19,697.8	47.6351	19,697.8	50.785	19,697.8	51.5991	19,697.8	47.6398
19,999.5	87.6588	19,999.5	86.1048	19,999.5	84.906	19,999.5	82.6329	19,999.5	78.9151	19,999.5	71.3109	19,999.5	75.7006	19,999.5	73.6173	19,999.5	70.9709	19,999.5	75.6591	19,999.5	72.9491	19,999.5	72.1033	19,999.5	71.6541	19,999.5	66.5696	19,999.5	67.9933	19,999.5	60.5091	19,999.5	61.5331	19,999.5	55.4614	19,999.5	68.0052	19,999.5	47.966	19,999.5	73.6964	19,999.5	48.7303	19,999.5	71.2929	19,999.5	34.8814	19,999.5	67.9701	19,999.5	42.341	19,999.5	47.8166	19,999.5	45.1277	19,999.5	40.9717	19,999.5	51.8028	19,999.5	48.9877	19,999.5	60.4205	19,999.5	49.1715	19,999.5	54.1374	19,999.5	55.2878	19,999.5	47.1812
