"SPL Horizontal"
"On-Axis"		"10°"		"-10°"		"20°"		"-20°"		"30°"		"-30°"		"40°"		"-40°"		"50°"		"-50°"		"60°"		"-60°"		"70°"		"-70°"		"80°"		"-80°"		"90°"		"-90°"		"100°"		"-100°"		"110°"		"-110°"		"120°"		"-120°"		"130°"		"-130°"		"140°"		"-140°"		"150°"		"-150°"		"160°"		"-160°"		"170°"		"-170°"		"180°"
"Frequency / Hz"	"Sound Pressure Level / dB (re 20 µPa/V)  [2.83  V @ 1. m]"	"Frequency / Hz"	"Sound Pressure Level / dB (re 20 µPa/V)  [2.83  V @ 1. m]"	"Frequency / Hz"	"Sound Pressure Level / dB (re 20 µPa/V)  [2.83  V @ 1. m]"	"Frequency / Hz"	"Sound Pressure Level / dB (re 20 µPa/V)  [2.83  V @ 1. m]"	"Frequency / Hz"	"Sound Pressure Level / dB (re 20 µPa/V)  [2.83  V @ 1. m]"	"Frequency / Hz"	"Sound Pressure Level / dB (re 20 µPa/V)  [2.83  V @ 1. m]"	"Frequency / Hz"	"Sound Pressure Level / dB (re 20 µPa/V)  [2.83  V @ 1. m]"	"Frequency / Hz"	"Sound Pressure Level / dB (re 20 µPa/V)  [2.83  V @ 1. m]"	"Frequency / Hz"	"Sound Pressure Level / dB (re 20 µPa/V)  [2.83  V @ 1. m]"	"Frequency / Hz"	"Sound Pressure Level / dB (re 20 µPa/V)  [2.83  V @ 1. m]"	"Frequency / Hz"	"Sound Pressure Level / dB (re 20 µPa/V)  [2.83  V @ 1. m]"	"Frequency / Hz"	"Sound Pressure Level / dB (re 20 µPa/V)  [2.83  V @ 1. m]"	"Frequency / Hz"	"Sound Pressure Level / dB (re 20 µPa/V)  [2.83  V @ 1. m]"	"Frequency / Hz"	"Sound Pressure Level / dB (re 20 µPa/V)  [2.83  V @ 1. m]"	"Frequency / Hz"	"Sound Pressure Level / dB (re 20 µPa/V)  [2.83  V @ 1. m]"	"Frequency / Hz"	"Sound Pressure Level / dB (re 20 µPa/V)  [2.83  V @ 1. m]"	"Frequency / Hz"	"Sound Pressure Level / dB (re 20 µPa/V)  [2.83  V @ 1. m]"	"Frequency / Hz"	"Sound Pressure Level / dB (re 20 µPa/V)  [2.83  V @ 1. m]"	"Frequency / Hz"	"Sound Pressure Level / dB (re 20 µPa/V)  [2.83  V @ 1. m]"	"Frequency / Hz"	"Sound Pressure Level / dB (re 20 µPa/V)  [2.83  V @ 1. m]"	"Frequency / Hz"	"Sound Pressure Level / dB (re 20 µPa/V)  [2.83  V @ 1. m]"	"Frequency / Hz"	"Sound Pressure Level / dB (re 20 µPa/V)  [2.83  V @ 1. m]"	"Frequency / Hz"	"Sound Pressure Level / dB (re 20 µPa/V)  [2.83  V @ 1. m]"	"Frequency / Hz"	"Sound Pressure Level / dB (re 20 µPa/V)  [2.83  V @ 1. m]"	"Frequency / Hz"	"Sound Pressure Level / dB (re 20 µPa/V)  [2.83  V @ 1. m]"	"Frequency / Hz"	"Sound Pressure Level / dB (re 20 µPa/V)  [2.83  V @ 1. m]"	"Frequency / Hz"	"Sound Pressure Level / dB (re 20 µPa/V)  [2.83  V @ 1. m]"	"Frequency / Hz"	"Sound Pressure Level / dB (re 20 µPa/V)  [2.83  V @ 1. m]"	"Frequency / Hz"	"Sound Pressure Level / dB (re 20 µPa/V)  [2.83  V @ 1. m]"	"Frequency / Hz"	"Sound Pressure Level / dB (re 20 µPa/V)  [2.83  V @ 1. m]"	"Frequency / Hz"	"Sound Pressure Level / dB (re 20 µPa/V)  [2.83  V @ 1. m]"	"Frequency / Hz"	"Sound Pressure Level / dB (re 20 µPa/V)  [2.83  V @ 1. m]"	"Frequency / Hz"	"Sound Pressure Level / dB (re 20 µPa/V)  [2.83  V @ 1. m]"	"Frequency / Hz"	"Sound Pressure Level / dB (re 20 µPa/V)  [2.83  V @ 1. m]"	"Frequency / Hz"	"Sound Pressure Level / dB (re 20 µPa/V)  [2.83  V @ 1. m]"	"Frequency / Hz"	"Sound Pressure Level / dB (re 20 µPa/V)  [2.83  V @ 1. m]"
20.5078	57.0005	20.5078	57.0787	20.5078	56.9356	20.5078	57.1708	20.5078	56.881	20.5078	57.2755	20.5078	56.8321	20.5078	57.3891	20.5078	56.7824	20.5078	57.5068	20.5078	56.7257	20.5078	57.6219	20.5078	56.6563	20.5078	57.727	20.5078	56.5707	20.5078	57.8141	20.5078	56.4693	20.5078	57.8756	20.5078	56.3568	20.5078	57.9049	20.5078	56.2433	20.5078	57.8969	20.5078	56.1432	20.5078	57.848	20.5078	56.0738	20.5078	57.7562	20.5078	56.0511	20.5078	57.6217	20.5078	56.0865	20.5078	57.4471	20.5078	56.1838	20.5078	57.2388	20.5078	56.3386	20.5078	57.0075	20.5078	56.539	20.5078	56.7682
21.9727	49.675	21.9727	49.3371	21.9727	50.0213	21.9727	49.0091	21.9727	50.3649	21.9727	48.6857	21.9727	50.6852	21.9727	48.3572	21.9727	50.9551	21.9727	48.0122	21.9727	51.1462	21.9727	47.6384	21.9727	51.2327	21.9727	47.2228	21.9727	51.1952	21.9727	46.752	21.9727	51.0224	21.9727	46.2131	21.9727	50.7127	21.9727	45.5909	21.9727	50.275	21.9727	44.8625	21.9727	49.7277	21.9727	43.9897	21.9727	49.0918	21.9727	42.9227	21.9727	48.3759	21.9727	41.6428	21.9727	47.5584	21.9727	40.3188	21.9727	46.5785	21.9727	39.5977	21.9727	45.3486	21.9727	40.2661	21.9727	43.7964	21.9727	41.9668
23.4375	46.588	23.4375	46.7399	23.4375	46.4258	23.4375	46.882	23.4375	46.2515	23.4375	47.0138	23.4375	46.0617	23.4375	47.1338	23.4375	45.8526	23.4375	47.2393	23.4375	45.6214	23.4375	47.3258	23.4375	45.3685	23.4375	47.3878	23.4375	45.0998	23.4375	47.4195	23.4375	44.8278	23.4375	47.4163	23.4375	44.5724	23.4375	47.3758	23.4375	44.3597	23.4375	47.2975	23.4375	44.2177	23.4375	47.1822	23.4375	44.1702	23.4375	47.0306	23.4375	44.2302	23.4375	46.8418	23.4375	44.3964	23.4375	46.6138	23.4375	44.6534	23.4375	46.3448	23.4375	44.9753	23.4375	46.0354	23.4375	45.3315	23.4375	45.6927
24.9023	44.3857	24.9023	44.4403	24.9023	44.2741	24.9023	44.4485	24.9023	44.09	24.9023	44.4145	24.9023	43.8157	24.9023	44.334	24.9023	43.4318	24.9023	44.1948	24.9023	42.9182	24.9023	43.9782	24.9023	42.2537	24.9023	43.6622	24.9023	41.416	24.9023	43.2242	24.9023	40.383	24.9023	42.6438	24.9023	39.1361	24.9023	41.9043	24.9023	37.6656	24.9023	40.994	24.9023	35.983	24.9023	39.9068	24.9023	34.1418	24.9023	38.6431	24.9023	32.2714	24.9023	37.2116	24.9023	30.6075	24.9023	35.6347	24.9023	29.4678	24.9023	33.9586	24.9023	29.1146	24.9023	32.2734	24.9023	29.5965	24.9023	30.7394
26.3672	50.2767	26.3672	50.3052	26.3672	50.1358	26.3672	50.2243	26.3672	49.8753	26.3672	50.0327	26.3672	49.4849	26.3672	49.7245	26.3672	48.9513	26.3672	49.2883	26.3672	48.2586	26.3672	48.7078	26.3672	47.3881	26.3672	47.9606	26.3672	46.3184	26.3672	47.0172	26.3672	45.0274	26.3672	45.8399	26.3672	43.5022	26.3672	44.3808	26.3672	41.7682	26.3672	42.5805	26.3672	39.9606	26.3672	40.3795	26.3672	38.4276	26.3672	37.7916	26.3672	37.6316	26.3672	35.2253	26.3672	37.6331	26.3672	34.004	26.3672	37.9706	26.3672	34.8027	26.3672	38.183	26.3672	36.2496	26.3672	38.026	26.3672	37.3904
27.832	47.9992	27.832	48.0402	27.832	47.7883	27.832	47.919	27.832	47.3926	27.832	47.6355	27.832	46.7899	27.832	47.1808	27.832	45.9502	27.832	46.5361	27.832	44.835	27.832	45.6747	27.832	43.4051	27.832	44.5679	27.832	41.6624	27.832	43.2103	27.832	39.8213	27.832	41.6979	27.832	38.7011	27.832	40.4155	27.832	39.3173	27.832	40.1008	27.832	41.1421	27.832	41.0476	27.832	43.0799	27.832	42.6125	27.832	44.6986	27.832	44.1618	27.832	45.9292	27.832	45.4496	27.832	46.7925	27.832	46.4241	27.832	47.3203	27.832	47.0899	27.832	47.5375	27.832	47.4592
29.2969	53.6629	29.2969	53.6414	29.2969	53.5487	29.2969	53.4835	29.2969	53.2952	29.2969	53.184	29.2969	52.8956	29.2969	52.7324	29.2969	52.3407	29.2969	52.1146	29.2969	51.6214	29.2969	51.315	29.2969	50.7341	29.2969	50.326	29.2969	49.6958	29.2969	49.1702	29.2969	48.5773	29.2969	47.9522	29.2969	47.5622	29.2969	46.9397	29.2969	46.9703	29.2969	46.5434	29.2969	47.076	29.2969	46.9674	29.2969	47.8044	29.2969	47.9404	29.2969	48.8105	29.2969	49.0452	29.2969	49.7938	29.2969	50.0257	29.2969	50.5979	29.2969	50.7786	29.2969	51.1609	29.2969	51.2724	29.2969	51.4633	29.2969	51.5007
30.7617	54.9574	30.7617	54.9015	30.7617	54.8558	30.7617	54.6872	30.7617	54.5943	30.7617	54.3103	30.7617	54.1669	30.7617	53.7663	30.7617	53.5664	30.7617	53.0567	30.7617	52.7904	30.7617	52.2053	30.7617	51.8567	30.7617	51.2935	30.7617	50.8409	30.7617	50.5136	30.7617	49.943	30.7617	50.1751	30.7617	49.5172	30.7617	50.5132	30.7617	49.8607	30.7617	51.4307	30.7617	50.8704	30.7617	52.6037	30.7617	52.1634	30.7617	53.7603	30.7617	53.4303	30.7617	54.7594	30.7617	54.5212	30.7617	55.5456	30.7617	55.3822	30.7617	56.1022	30.7617	56.0007	30.7617	56.4265	30.7617	56.378	30.7617	56.5188
32.2266	56.1945	32.2266	56.1306	32.2266	56.0952	32.2266	55.9057	32.2266	55.8293	32.2266	55.5224	32.2266	55.3927	32.2266	54.9904	32.2266	54.7843	32.2266	54.3386	32.2266	54.017	32.2266	53.641	32.2266	53.144	32.2266	53.0503	32.2266	52.31	32.2266	52.8002	32.2266	51.7987	32.2266	53.0881	32.2266	51.9332	32.2266	53.8934	32.2266	52.7699	32.2266	54.9923	32.2266	54.0235	32.2266	56.1461	32.2266	55.3636	32.2266	57.2029	32.2266	56.5939	32.2266	58.0891	32.2266	57.6313	32.2266	58.7754	32.2266	58.449	32.2266	59.2525	32.2266	59.0429	32.2266	59.5187	32.2266	59.4162	32.2266	59.5737
33.6914	58.5543	33.6914	58.5093	33.6914	58.4548	33.6914	58.3229	33.6914	58.2093	33.6914	58.0024	33.6914	57.8184	33.6914	57.5659	33.6914	57.2894	33.6914	57.0552	33.6914	56.6481	33.6914	56.5555	33.6914	55.9623	33.6914	56.211	33.6914	55.3752	33.6914	56.1974	33.6914	55.113	33.6914	56.62	33.6914	55.3812	33.6914	57.4219	33.6914	56.182	33.6914	58.4286	33.6914	57.3054	33.6914	59.4645	33.6914	58.51	33.6914	60.4121	33.6914	59.6362	33.6914	61.2084	33.6914	60.6045	33.6914	61.824	33.6914	61.382	33.6914	62.2472	33.6914	61.9578	33.6914	62.4737	33.6914	62.3306	33.6914	62.5019
35.1562	60.5734	35.1562	60.5567	35.1562	60.453	35.1562	60.4083	35.1562	60.1951	35.1562	60.1406	35.1562	59.8059	35.1562	59.7801	35.1562	59.3046	35.1562	59.3791	35.1562	58.7385	35.1562	59.0299	35.1562	58.2049	35.1562	58.8666	35.1562	57.8682	35.1562	59.0237	35.1562	57.9197	35.1562	59.5535	35.1562	58.4543	35.1562	60.3808	35.1562	59.3814	35.1562	61.3568	35.1562	60.5015	35.1562	62.341	35.1562	61.6356	35.1562	63.2382	35.1562	62.6728	35.1562	63.9946	35.1562	63.557	35.1562	64.5837	35.1562	64.2637	35.1562	64.9938	35.1562	64.7842	35.1562	65.2203	35.1562	65.1166	35.1562	65.2616
36.6211	63.4804	36.6211	63.441	36.6211	63.4092	36.6211	63.2932	36.6211	63.2309	36.6211	63.0469	36.6211	62.9561	36.6211	62.7239	36.6211	62.6073	36.6211	62.3672	36.6211	62.2262	36.6211	62.0503	36.6211	61.884	36.6211	61.8783	36.6211	61.6828	36.6211	61.9616	36.6211	61.7326	36.6211	62.3583	36.6211	62.0972	36.6211	63.0312	36.6211	62.7489	36.6211	63.8696	36.6211	63.5835	36.6211	64.7506	36.6211	64.4783	36.6211	65.5786	36.6211	65.335	36.6211	66.2936	36.6211	66.0892	36.6211	66.8619	36.6211	66.704	36.6211	67.2669	36.6211	67.1597	36.6211	67.5009	36.6211	67.4468	36.6211	67.561
38.0859	65.8035	38.0859	65.7446	38.0859	65.7672	38.0859	65.5932	38.0859	65.6389	38.0859	65.3609	38.0859	65.4292	38.0859	65.0725	38.0859	65.1593	38.0859	64.7738	38.0859	64.8674	38.0859	64.5368	38.0859	64.6154	38.0859	64.455	38.0859	64.4882	38.0859	64.6142	38.0859	64.5737	38.0859	65.0468	38.0859	64.9222	38.0859	65.7079	38.0859	65.5137	38.0859	66.5004	38.0859	66.2664	38.0859	67.3207	38.0859	67.0786	38.0859	68.0883	38.0859	67.863	38.0859	68.7509	38.0859	68.5591	38.0859	69.2783	38.0859	69.1297	38.0859	69.6547	38.0859	69.5541	38.0859	69.8725	38.0859	69.8219	38.0859	69.9285
39.5508	67.702	39.5508	67.6175	39.5508	67.6897	39.5508	67.4423	39.5508	67.5813	39.5508	67.1914	39.5508	67.3847	39.5508	66.8939	39.5508	67.1188	39.5508	66.599	39.5508	66.8185	39.5508	66.3801	39.5508	66.5423	39.5508	66.3264	39.5508	66.3729	39.5508	66.5129	39.5508	66.4015	39.5508	66.9601	39.5508	66.6891	39.5508	67.618	39.5508	67.229	39.5508	68.3926	39.5508	67.9477	39.5508	69.187	39.5508	68.7433	39.5508	69.9263	39.5508	69.5243	39.5508	70.5613	39.5508	70.2253	39.5508	71.0632	39.5508	70.8059	39.5508	71.4164	39.5508	71.2435	39.5508	71.6133	39.5508	71.5266	39.5508	71.6503
41.0156	69.2592	41.0156	69.2253	41.0156	69.2251	41.0156	69.1299	41.0156	69.1251	41.0156	68.9893	41.0156	68.971	41.0156	68.8331	41.0156	68.7864	41.0156	68.7058	41.0156	68.6111	41.0156	68.6659	41.0156	68.5022	41.0156	68.7743	41.0156	68.5272	41.0156	69.0725	41.0156	68.7441	41.0156	69.562	41.0156	69.1735	41.0156	70.1998	41.0156	69.7848	41.0156	70.9168	41.0156	70.5093	41.0156	71.6417	41.0156	71.2681	41.0156	72.3158	41.0156	71.9932	41.0156	72.8978	41.0156	72.6357	41.0156	73.3614	41.0156	73.164	41.0156	73.6911	41.0156	73.5597	41.0156	73.8786	41.0156	73.8131	41.0156	73.9197
42.4805	71.1932	42.4805	71.1714	42.4805	71.1769	42.4805	71.1187	42.4805	71.1238	42.4805	71.0517	42.4805	71.0442	42.4805	70.9966	42.4805	70.9591	42.4805	70.9893	42.4805	70.9007	42.4805	71.0705	42.4805	70.9114	42.4805	71.2772	42.4805	71.0363	42.4805	71.6289	42.4805	71.3097	42.4805	72.1181	42.4805	71.7397	42.4805	72.7105	42.4805	72.3024	42.4805	73.3558	42.4805	72.9489	42.4805	74.001	42.4805	73.6215	42.4805	74.6002	42.4805	74.267	42.4805	75.1186	42.4805	74.8439	42.4805	75.5323	42.4805	75.3229	42.4805	75.8261	42.4805	75.6854	42.4805	75.9911	42.4805	75.9206	42.4805	76.023
43.9453	74.2018	43.9453	74.1943	43.9453	74.176	43.9453	74.1576	43.9453	74.1184	43.9453	74.1012	43.9453	74.0362	43.9453	74.0411	43.9453	73.9433	43.9453	73.9995	43.9453	73.8618	43.9453	74.0045	43.9453	73.8212	43.9453	74.0855	43.9453	73.8555	43.9453	74.2666	43.9453	73.9959	43.9453	74.5579	43.9453	74.2597	43.9453	74.9494	43.9453	74.6421	43.9453	75.4128	43.9453	75.1151	43.9453	75.9078	43.9453	75.6357	43.9453	76.3923	43.9453	76.1572	43.9453	76.8291	43.9453	76.6377	43.9453	77.1891	43.9453	77.0447	43.9453	77.4519	43.9453	77.3557	43.9453	77.6048	43.9453	77.5568	43.9453	77.6405
45.4102	75.7825	45.4102	75.7609	45.4102	75.7656	45.4102	75.7051	45.4102	75.7109	45.4102	75.6248	45.4102	75.6249	45.4102	75.5359	45.4102	75.5203	45.4102	75.461	45.4102	75.418	45.4102	75.4288	45.4102	75.347	45.4102	75.4705	45.4102	75.3418	45.4102	75.613	45.4102	75.4362	45.4102	75.8693	45.4102	75.6521	45.4102	76.2321	45.4102	75.9898	45.4102	76.674	45.4102	76.4257	45.4102	77.1544	45.4102	76.9182	45.4102	77.6297	45.4102	77.42	45.4102	78.0612	45.4102	77.8875	45.4102	78.4186	45.4102	78.2862	45.4102	78.6806	45.4102	78.5919	45.4102	78.8339	45.4102	78.7895	45.4102	78.871
46.875	77.0338	46.875	77.0197	46.875	77.0161	46.875	76.9786	46.875	76.9673	46.875	76.9206	46.875	76.894	46.875	76.8618	46.875	76.8096	46.875	76.824	46.875	76.7349	46.875	76.8335	46.875	76.6982	46.875	76.9175	46.875	76.7317	46.875	77.097	46.875	76.8649	46.875	77.3799	46.875	77.1141	46.875	77.7564	46.875	77.4755	46.875	78.1996	46.875	77.9237	46.875	78.6725	46.875	78.4187	46.875	79.1358	46.875	78.9163	46.875	79.5544	46.875	79.3762	46.875	79.9005	46.875	79.7668	46.875	80.1542	46.875	80.0656	46.875	80.3025	46.875	80.2585	46.875	80.3381
48.3398	78.3926	48.3398	78.4012	48.3398	78.3656	48.3398	78.3947	48.3398	78.3214	48.3398	78.3809	48.3398	78.2665	48.3398	78.3723	48.3398	78.2129	48.3398	78.3853	48.3398	78.1782	48.3398	78.439	48.3398	78.1854	48.3398	78.5527	48.3398	78.2589	48.3398	78.741	48.3398	78.4195	48.3398	79.0093	48.3398	78.6772	48.3398	79.3502	48.3398	79.0262	48.3398	79.7441	48.3398	79.4446	48.3398	80.1624	48.3398	79.8995	48.3398	80.5734	48.3398	80.354	48.3398	80.9468	48.3398	80.7736	48.3398	81.2576	48.3398	81.1303	48.3398	81.4867	48.3398	81.4035	48.3398	81.6212	48.3398	81.5802	48.3398	81.6534
51.2695	81.4207	51.2695	81.418	51.2695	81.4113	51.2695	81.4046	51.2695	81.3912	51.2695	81.3843	51.2695	81.3645	51.2695	81.3637	51.2695	81.338	51.2695	81.3525	51.2695	81.3218	51.2695	81.3628	51.2695	81.3283	51.2695	81.4086	51.2695	81.3712	51.2695	81.5028	51.2695	81.4633	51.2695	81.6543	51.2695	81.6132	51.2695	81.8646	51.2695	81.8222	51.2695	82.1254	51.2695	82.0823	51.2695	82.4195	51.2695	82.3768	51.2695	82.7231	51.2695	82.6828	51.2695	83.0108	51.2695	82.9751	51.2695	83.2589	51.2695	83.2301	51.2695	83.4481	51.2695	83.428	51.2695	83.5649	51.2695	83.5545	51.2695	83.6012
52.7344	82.6734	52.7344	82.6557	52.7344	82.6686	52.7344	82.6178	52.7344	82.6416	52.7344	82.5645	52.7344	82.595	52.7344	82.5033	52.7344	82.5347	52.7344	82.445	52.7344	82.4695	52.7344	82.4033	52.7344	82.4121	52.7344	82.3938	52.7344	82.3781	52.7344	82.4318	52.7344	82.3842	52.7344	82.5288	52.7344	82.4456	52.7344	82.6886	52.7344	82.5712	52.7344	82.9046	52.7344	82.7602	52.7344	83.1602	52.7344	83.0007	52.7344	83.4313	52.7344	83.2711	52.7344	83.6914	52.7344	83.5448	52.7344	83.9153	52.7344	83.7946	52.7344	84.0829	52.7344	83.9973	52.7344	84.1796	52.7344	84.1354	52.7344	84.1977
54.1992	83.014	54.1992	82.9938	54.1992	83.0079	54.1992	82.9503	54.1992	82.9755	54.1992	82.8901	54.1992	82.9205	54.1992	82.8234	54.1992	82.8502	54.1992	82.7638	54.1992	82.776	54.1992	82.728	54.1992	82.7135	54.1992	82.7338	54.1992	82.6811	54.1992	82.797	54.1992	82.6985	54.1992	82.9274	54.1992	82.7815	54.1992	83.1252	54.1992	82.9381	54.1992	83.3792	54.1992	83.1642	54.1992	83.6687	54.1992	83.4433	54.1992	83.9672	54.1992	83.7499	54.1992	84.2473	54.1992	84.0546	54.1992	84.4843	54.1992	84.3294	54.1992	84.6587	54.1992	84.5508	54.1992	84.7571	54.1992	84.7018	54.1992	84.772
55.6641	82.8649	55.6641	82.8689	55.6641	82.857	55.6641	82.8723	55.6641	82.8447	55.6641	82.8814	55.6641	82.8311	55.6641	82.9044	55.6641	82.8227	55.6641	82.9513	55.6641	82.8292	55.6641	83.0319	55.6641	82.863	55.6641	83.1547	55.6641	82.9373	55.6641	83.3251	55.6641	83.0636	55.6641	83.5431	55.6641	83.2485	55.6641	83.8029	55.6641	83.4907	55.6641	84.0923	55.6641	83.7803	55.6641	84.3941	55.6641	84.0994	55.6641	84.6884	55.6641	84.4256	55.6641	84.955	55.6641	84.735	55.6641	85.1758	55.6641	85.0059	55.6641	85.3358	55.6641	85.2206	55.6641	85.4243	55.6641	85.3662	55.6641	85.4351
58.5938	84.5073	58.5938	84.5112	58.5938	84.5035	58.5938	84.5167	58.5938	84.4993	58.5938	84.5267	58.5938	84.4961	58.5938	84.5453	58.5938	84.4968	58.5938	84.5774	58.5938	84.5063	58.5938	84.6282	58.5938	84.5309	58.5938	84.7029	58.5938	84.5778	58.5938	84.8059	58.5938	84.6544	58.5938	84.9391	58.5938	84.7659	58.5938	85.1016	58.5938	84.9144	58.5938	85.2882	58.5938	85.0966	58.5938	85.4895	58.5938	85.3042	58.5938	85.6926	58.5938	85.5235	58.5938	85.8827	58.5938	85.7382	58.5938	86.0445	58.5938	85.9312	58.5938	86.1647	58.5938	86.087	58.5938	86.2331	58.5938	86.1936	58.5938	86.2433
60.0586	84.9936	60.0586	84.9947	60.0586	84.9917	60.0586	84.9967	60.0586	84.9886	60.0586	85.0022	60.0586	84.9855	60.0586	85.0149	60.0586	84.9848	60.0586	85.0393	60.0586	84.9907	60.0586	85.0801	60.0586	85.009	60.0586	85.1425	60.0586	85.0462	60.0586	85.2304	60.0586	85.1093	60.0586	85.3465	60.0586	85.2035	60.0586	85.4902	60.0586	85.3314	60.0586	85.6575	60.0586	85.4911	60.0586	85.8402	60.0586	85.6756	60.0586	86.0264	60.0586	85.8732	60.0586	86.202	60.0586	86.0688	60.0586	86.3524	60.0586	86.2463	60.0586	86.4645	60.0586	86.3909	60.0586	86.5282	60.0586	86.4906	60.0586	86.5374
62.9883	86.0545	62.9883	86.0507	62.9883	86.059	62.9883	86.0491	62.9883	86.0635	62.9883	86.0522	62.9883	86.0682	62.9883	86.0629	62.9883	86.0748	62.9883	86.0848	62.9883	86.086	62.9883	86.1218	62.9883	86.1057	62.9883	86.1779	62.9883	86.1393	62.9883	86.2564	62.9883	86.1921	62.9883	86.3591	62.9883	86.2694	62.9883	86.4856	62.9883	86.3741	62.9883	86.6326	62.9883	86.5062	62.9883	86.7931	62.9883	86.6609	62.9883	86.9571	62.9883	86.8291	62.9883	87.1126	62.9883	86.9982	62.9883	87.2464	62.9883	87.1537	62.9883	87.3467	62.9883	87.2816	62.9883	87.4039	62.9883	87.3704	62.9883	87.4123
64.4531	86.3523	64.4531	86.348	64.4531	86.358	64.4531	86.3468	64.4531	86.3646	64.4531	86.3505	64.4531	86.372	64.4531	86.362	64.4531	86.3812	64.4531	86.3841	64.4531	86.3945	64.4531	86.4201	64.4531	86.4151	64.4531	86.4734	64.4531	86.4472	64.4531	86.5467	64.4531	86.4957	64.4531	86.6415	64.4531	86.5652	64.4531	86.7574	64.4531	86.6587	64.4531	86.8916	64.4531	86.7765	64.4531	87.038	64.4531	86.9152	64.4531	87.1877	64.4531	87.0669	64.4531	87.3298	64.4531	87.2205	64.4531	87.4522	64.4531	87.3628	64.4531	87.5439	64.4531	87.4807	64.4531	87.5958	64.4531	87.5632	64.4531	87.6027
67.3828	86.822	67.3828	86.8162	67.3828	86.8315	67.3828	86.8156	67.3828	86.8437	67.3828	86.8216	67.3828	86.858	67.3828	86.836	67.3828	86.8746	67.3828	86.8607	67.3828	86.8944	67.3828	86.8975	67.3828	86.9191	67.3828	86.9484	67.3828	86.9515	67.3828	87.0147	67.3828	86.9949	67.3828	87.0971	67.3828	87.0527	67.3828	87.1952	67.3828	87.1278	67.3828	87.3066	67.3828	87.2209	67.3828	87.427	67.3828	87.3303	67.3828	87.5497	67.3828	87.4507	67.3828	87.666	67.3828	87.5738	67.3828	87.7663	67.3828	87.6892	67.3828	87.8413	67.3828	87.7861	67.3828	87.8835	67.3828	87.8547	67.3828	87.8882
68.8477	87.0381	68.8477	87.0311	68.8477	87.0492	68.8477	87.0294	68.8477	87.0633	68.8477	87.0344	68.8477	87.0797	68.8477	87.0475	68.8477	87.0981	68.8477	87.0701	68.8477	87.1191	68.8477	87.1037	68.8477	87.1438	68.8477	87.1496	68.8477	87.1742	68.8477	87.2089	68.8477	87.213	68.8477	87.2822	68.8477	87.2631	68.8477	87.3689	68.8477	87.3273	68.8477	87.4674	68.8477	87.4066	68.8477	87.574	68.8477	87.5001	68.8477	87.6829	68.8477	87.6037	68.8477	87.7866	68.8477	87.7105	68.8477	87.8764	68.8477	87.8115	68.8477	87.944	68.8477	87.8968	68.8477	87.9822	68.8477	87.9574	68.8477	87.9869
71.7773	87.3426	71.7773	87.3307	71.7773	87.3587	71.7773	87.3242	71.7773	87.3779	71.7773	87.3244	71.7773	87.399	71.7773	87.3322	71.7773	87.4212	71.7773	87.3486	71.7773	87.4442	71.7773	87.3745	71.7773	87.4681	71.7773	87.4106	71.7773	87.4942	71.7773	87.4574	71.7773	87.5241	71.7773	87.5152	71.7773	87.5603	71.7773	87.5837	71.7773	87.6053	71.7773	87.6616	71.7773	87.6607	71.7773	87.7464	71.7773	87.7269	71.7773	87.8338	71.7773	87.8017	71.7773	87.918	71.7773	87.8804	71.7773	87.992	71.7773	87.9561	71.7773	88.0485	71.7773	88.0207	71.7773	88.0817	71.7773	88.0665	71.7773	88.0879
74.707	87.4714	74.707	87.4549	74.707	87.4928	74.707	87.4445	74.707	87.5176	74.707	87.4416	74.707	87.5444	74.707	87.4469	74.707	87.5717	74.707	87.461	74.707	87.5987	74.707	87.4842	74.707	87.6249	74.707	87.5167	74.707	87.6505	74.707	87.5583	74.707	87.6764	74.707	87.6087	74.707	87.7045	74.707	87.6673	74.707	87.7368	74.707	87.7328	74.707	87.7754	74.707	87.8034	74.707	87.8214	74.707	87.8756	74.707	87.8743	74.707	87.9451	74.707	87.9312	74.707	88.0061	74.707	87.9872	74.707	88.0531	74.707	88.036	74.707	88.081	74.707	88.071	74.707	88.087
77.6367	87.5153	77.6367	87.496	77.6367	87.54	77.6367	87.4837	77.6367	87.5685	77.6367	87.4793	77.6367	87.599	77.6367	87.4836	77.6367	87.6298	77.6367	87.4969	77.6367	87.6593	77.6367	87.519	77.6367	87.6866	77.6367	87.5495	77.6367	87.7112	77.6367	87.5875	77.6367	87.7334	77.6367	87.6321	77.6367	87.7544	77.6367	87.6823	77.6367	87.7762	77.6367	87.7368	77.6367	87.8008	77.6367	87.7941	77.6367	87.83	77.6367	87.8517	77.6367	87.8645	77.6367	87.9065	77.6367	87.9031	77.6367	87.9542	77.6367	87.9425	77.6367	87.9907	77.6367	87.978	77.6367	88.0121	77.6367	88.0042	77.6367	88.0165
79.1016	87.5436	79.1016	87.5225	79.1016	87.5708	79.1016	87.5089	79.1016	87.602	79.1016	87.5038	79.1016	87.6353	79.1016	87.508	79.1016	87.6686	79.1016	87.5214	79.1016	87.7002	79.1016	87.5436	79.1016	87.7286	79.1016	87.5738	79.1016	87.7529	79.1016	87.6107	79.1016	87.7732	79.1016	87.653	79.1016	87.7904	79.1016	87.6993	79.1016	87.8062	79.1016	87.7484	79.1016	87.8229	79.1016	87.7989	79.1016	87.8426	79.1016	87.8488	79.1016	87.8668	79.1016	87.8955	79.1016	87.8952	79.1016	87.9359	79.1016	87.9256	79.1016	87.9662	79.1016	87.954	79.1016	87.9836	79.1016	87.9758	79.1016	87.9866
82.0312	87.5899	82.0312	87.5713	82.0312	87.6128	82.0312	87.5583	82.0312	87.6381	82.0312	87.5519	82.0312	87.6636	82.0312	87.5526	82.0312	87.6873	82.0312	87.5601	82.0312	87.7072	82.0312	87.5735	82.0312	87.7218	82.0312	87.5919	82.0312	87.7302	82.0312	87.6137	82.0312	87.7324	82.0312	87.6376	82.0312	87.7295	82.0312	87.6627	82.0312	87.7235	82.0312	87.6881	82.0312	87.7173	82.0312	87.7132	82.0312	87.714	82.0312	87.7373	82.0312	87.7162	82.0312	87.7591	82.0312	87.7249	82.0312	87.7768	82.0312	87.7395	82.0312	87.7883	82.0312	87.7572	82.0312	87.7918	82.0312	87.7742	82.0312	87.7867
84.9609	87.493	84.9609	87.4715	84.9609	87.5187	84.9609	87.4557	84.9609	87.5467	84.9609	87.4466	84.9609	87.5747	84.9609	87.4447	84.9609	87.6004	84.9609	87.4497	84.9609	87.6218	84.9609	87.4608	84.9609	87.637	84.9609	87.4768	84.9609	87.6448	84.9609	87.4961	84.9609	87.6448	84.9609	87.5169	84.9609	87.6375	84.9609	87.5378	84.9609	87.625	84.9609	87.5579	84.9609	87.6099	84.9609	87.5764	84.9609	87.5957	84.9609	87.5929	84.9609	87.5857	84.9609	87.6066	84.9609	87.5821	84.9609	87.6166	84.9609	87.5853	84.9609	87.6216	84.9609	87.5938	84.9609	87.621	84.9609	87.6048	84.9609	87.6149
87.8906	87.4342	87.8906	87.4051	87.8906	87.467	87.8906	87.3813	87.8906	87.5013	87.8906	87.3642	87.8906	87.5346	87.8906	87.3543	87.8906	87.5645	87.8906	87.3515	87.8906	87.5886	87.8906	87.3553	87.8906	87.6049	87.8906	87.3644	87.8906	87.6119	87.8906	87.3774	87.8906	87.6091	87.8906	87.3927	87.8906	87.597	87.8906	87.4088	87.8906	87.5772	87.8906	87.4246	87.8906	87.5528	87.8906	87.4395	87.8906	87.5273	87.8906	87.4529	87.8906	87.5046	87.8906	87.4644	87.8906	87.4877	87.8906	87.4733	87.8906	87.4779	87.8906	87.4787	87.8906	87.4748	87.8906	87.4804	87.8906	87.4761	87.8906	87.4789
90.8203	87.3599	90.8203	87.3233	90.8203	87.4002	90.8203	87.2922	90.8203	87.4415	90.8203	87.2682	90.8203	87.4813	90.8203	87.2521	90.8203	87.5168	90.8203	87.2442	90.8203	87.5453	90.8203	87.2437	90.8203	87.5645	90.8203	87.2495	90.8203	87.5726	90.8203	87.2598	90.8203	87.5686	90.8203	87.2724	90.8203	87.5528	90.8203	87.2857	90.8203	87.5267	90.8203	87.2981	90.8203	87.493	90.8203	87.3089	90.8203	87.4558	90.8203	87.3178	90.8203	87.4196	90.8203	87.3247	90.8203	87.3883	90.8203	87.3297	90.8203	87.3645	90.8203	87.3329	90.8203	87.3489	90.8203	87.3348	90.8203	87.3404	90.8203	87.3366
95.2148	87.3641	95.2148	87.3309	95.2148	87.3992	95.2148	87.3013	95.2148	87.434	95.2148	87.2767	95.2148	87.466	95.2148	87.2577	95.2148	87.493	95.2148	87.2444	95.2148	87.5124	95.2148	87.2359	95.2148	87.5219	95.2148	87.2307	95.2148	87.5197	95.2148	87.2272	95.2148	87.5046	95.2148	87.2235	95.2148	87.4764	95.2148	87.2186	95.2148	87.4368	95.2148	87.2119	95.2148	87.3886	95.2148	87.2038	95.2148	87.3365	95.2148	87.1949	95.2148	87.2856	95.2148	87.1862	95.2148	87.241	95.2148	87.1782	95.2148	87.2062	95.2148	87.1716	95.2148	87.1828	95.2148	87.167	95.2148	87.1701	95.2148	87.1657
98.1445	87.2956	98.1445	87.2589	98.1445	87.332	98.1445	87.2236	98.1445	87.3656	98.1445	87.1918	98.1445	87.3943	98.1445	87.1644	98.1445	87.4161	98.1445	87.1421	98.1445	87.4288	98.1445	87.1248	98.1445	87.4309	98.1445	87.1114	98.1445	87.4211	98.1445	87.1008	98.1445	87.3986	98.1445	87.0916	98.1445	87.364	98.1445	87.0828	98.1445	87.3188	98.1445	87.0737	98.1445	87.2663	98.1445	87.0646	98.1445	87.2108	98.1445	87.0558	98.1445	87.1574	98.1445	87.0476	98.1445	87.1108	98.1445	87.0406	98.1445	87.0745	98.1445	87.0348	98.1445	87.0498	98.1445	87.0311	98.1445	87.036	98.1445	87.0307
101.074	87.2594	101.074	87.2108	101.074	87.3043	101.074	87.1608	101.074	87.3435	101.074	87.1115	101.074	87.3751	101.074	87.0649	101.074	87.3975	101.074	87.0225	101.074	87.4092	101.074	86.985	101.074	87.409	101.074	86.9527	101.074	87.3959	101.074	86.9252	101.074	87.3694	101.074	86.9019	101.074	87.33	101.074	86.8821	101.074	87.2788	101.074	86.8658	101.074	87.2186	101.074	86.853	101.074	87.1532	101.074	86.8442	101.074	87.0873	101.074	86.8397	101.074	87.0255	101.074	86.8399	101.074	86.9717	101.074	86.8448	101.074	86.9281	101.074	86.855	101.074	86.8949	101.074	86.8711
105.469	87.0217	105.469	86.9619	105.469	87.0779	105.469	86.9012	105.469	87.1274	105.469	86.8423	105.469	87.1677	105.469	86.7874	105.469	87.196	105.469	86.7376	105.469	87.2101	105.469	86.6936	105.469	87.2079	105.469	86.6547	105.469	87.188	105.469	86.6197	105.469	87.1495	105.469	86.587	105.469	87.0929	105.469	86.5553	105.469	87.0199	105.469	86.5239	105.469	86.9342	105.469	86.4932	105.469	86.8407	105.469	86.4649	105.469	86.7459	105.469	86.441	105.469	86.6563	105.469	86.424	105.469	86.5775	105.469	86.4159	105.469	86.5135	105.469	86.4189	105.469	86.4661	105.469	86.435
108.398	87.0714	108.398	87.0134	108.398	87.123	108.398	86.9517	108.398	87.1659	108.398	86.8889	108.398	87.1979	108.398	86.8275	108.398	87.2171	108.398	86.7696	108.398	87.222	108.398	86.7164	108.398	87.2111	108.398	86.6685	108.398	87.1834	108.398	86.6254	108.398	87.1385	108.398	86.5864	108.398	87.077	108.398	86.5506	108.398	87.0008	108.398	86.5177	108.398	86.9134	108.398	86.4877	108.398	86.8201	108.398	86.4615	108.398	86.7269	108.398	86.4403	108.398	86.6404	108.398	86.4256	108.398	86.5657	108.398	86.4188	108.398	86.5063	108.398	86.4215	108.398	86.4632	108.398	86.4356
112.793	87.0625	112.793	86.9743	112.793	87.1447	112.793	86.884	112.793	87.2171	112.793	86.7958	112.793	87.2763	112.793	86.7135	112.793	87.3198	112.793	86.6403	112.793	87.3451	112.793	86.5781	112.793	87.3507	112.793	86.5281	112.793	87.3356	112.793	86.4898	112.793	87.2995	112.793	86.4623	112.793	87.2432	112.793	86.4437	112.793	87.1688	112.793	86.4326	112.793	87.0801	112.793	86.4274	112.793	86.982	112.793	86.4274	112.793	86.881	112.793	86.4321	112.793	86.7834	112.793	86.4418	112.793	86.695	112.793	86.4575	112.793	86.6199	112.793	86.4807	112.793	86.5597	112.793	86.514
117.188	86.8595	117.188	86.7905	117.188	86.9187	117.188	86.7149	117.188	86.9659	117.188	86.636	117.188	86.9993	117.188	86.5573	117.188	87.0174	117.188	86.4821	117.188	87.0193	117.188	86.4129	117.188	87.0041	117.188	86.3514	117.188	86.9713	117.188	86.2982	117.188	86.9208	117.188	86.2533	117.188	86.8533	117.188	86.2158	117.188	86.7707	117.188	86.1848	117.188	86.6762	117.188	86.1593	117.188	86.5747	117.188	86.1386	117.188	86.4722	117.188	86.1228	117.188	86.3752	117.188	86.1125	117.188	86.2898	117.188	86.1093	117.188	86.2201	117.188	86.1155	117.188	86.1684	117.188	86.1342
120.117	86.842	120.117	86.7649	120.117	86.9061	120.117	86.6783	120.117	86.9547	120.117	86.5862	120.117	86.9859	120.117	86.4932	120.117	86.9987	120.117	86.4035	120.117	86.9924	120.117	86.3208	120.117	86.9669	120.117	86.2475	120.117	86.9222	120.117	86.1849	120.117	86.8588	120.117	86.1332	120.117	86.7782	120.117	86.0913	120.117	86.6829	120.117	86.0578	120.117	86.5769	120.117	86.0312	120.117	86.4657	120.117	86.0104	120.117	86.3557	120.117	85.9948	120.117	86.2535	120.117	85.9848	120.117	86.1649	120.117	85.9818	120.117	86.0936	120.117	85.9881	120.117	86.0412	120.117	86.0068
124.512	86.8024	124.512	86.7144	124.512	86.8753	124.512	86.6154	124.512	86.93	124.512	86.5105	124.512	86.9647	124.512	86.4051	124.512	86.9783	124.512	86.3043	124.512	86.9708	124.512	86.2125	124.512	86.9426	124.512	86.1328	124.512	86.8946	124.512	86.0667	124.512	86.8281	124.512	86.0143	124.512	86.7452	124.512	85.9745	124.512	86.6489	124.512	85.9458	124.512	86.5434	124.512	85.9262	124.512	86.4337	124.512	85.9143	124.512	86.3258	124.512	85.9091	124.512	86.2252	124.512	85.9103	124.512	86.1367	124.512	85.9188	124.512	86.0633	124.512	85.9361	124.512	86.0061	124.512	85.9643
128.906	86.762	128.906	86.6652	128.906	86.8408	128.906	86.5549	128.906	86.8983	128.906	86.4366	128.906	86.9324	128.906	86.3163	128.906	86.9425	128.906	86.1998	128.906	86.9285	128.906	86.0922	128.906	86.8912	128.906	85.9974	128.906	86.832	128.906	85.9174	128.906	86.7529	128.906	85.8528	128.906	86.6564	128.906	85.8029	128.906	86.5465	128.906	85.7658	128.906	86.4275	128.906	85.7398	128.906	86.3051	128.906	85.7232	128.906	86.1852	128.906	85.7149	128.906	86.0735	128.906	85.7148	128.906	85.9745	128.906	85.7239	128.906	85.8915	128.906	85.7439	128.906	85.8258	128.906	85.7772
133.301	86.6947	133.301	86.586	133.301	86.7812	133.301	86.4601	133.301	86.842	133.301	86.3232	133.301	86.8755	133.301	86.1827	133.301	86.881	133.301	86.0457	133.301	86.8594	133.301	85.919	133.301	86.812	133.301	85.8077	133.301	86.7411	133.301	85.7151	133.301	86.6492	133.301	85.6423	133.301	86.5397	133.301	85.5884	133.301	86.4168	133.301	85.551	133.301	86.2857	133.301	85.5272	133.301	86.1521	133.301	85.514	133.301	86.0222	133.301	85.5093	133.301	85.9017	133.301	85.5125	133.301	85.7953	133.301	85.5244	133.301	85.7062	133.301	85.547	133.301	85.6356	133.301	85.5832
139.16	86.5313	139.16	86.4042	139.16	86.6322	139.16	86.2568	139.16	86.7026	139.16	86.0969	139.16	86.7403	139.16	85.9332	139.16	86.7451	139.16	85.7746	139.16	86.7179	139.16	85.6291	139.16	86.661	139.16	85.503	139.16	86.5777	139.16	85.4001	139.16	86.4718	139.16	85.3218	139.16	86.348	139.16	85.2672	139.16	86.2118	139.16	85.2336	139.16	86.0694	139.16	85.2173	139.16	85.927	139.16	85.2144	139.16	85.7909	139.16	85.2215	139.16	85.6663	139.16	85.2367	139.16	85.5571	139.16	85.2594	139.16	85.4654	139.16	85.2911	139.16	85.3915	139.16	85.3342
143.555	86.2578	143.555	86.113	143.555	86.3769	143.555	85.9495	143.555	86.4655	143.555	85.7761	143.555	86.5211	143.555	85.6029	143.555	86.5432	143.555	85.4401	143.555	86.5328	143.555	85.2966	143.555	86.4922	143.555	85.1792	143.555	86.4246	143.555	85.0919	143.555	86.3341	143.555	85.0354	143.555	86.2252	143.555	85.0075	143.555	86.1035	143.555	85.004	143.555	85.975	143.555	85.0194	143.555	85.8459	143.555	85.048	143.555	85.7218	143.555	85.0847	143.555	85.6073	143.555	85.1264	143.555	85.5052	143.555	85.1716	143.555	85.4166	143.555	85.221	143.555	85.341	143.555	85.2766
147.949	86.1814	147.949	86.0235	147.949	86.3118	147.949	85.8453	147.949	86.4097	147.949	85.6561	147.949	86.4726	147.949	85.4666	147.949	86.4999	147.949	85.2878	147.949	86.4925	147.949	85.1294	147.949	86.4527	147.949	84.999	147.949	86.3836	147.949	84.9008	147.949	86.289	147.949	84.8359	147.949	86.1741	147.949	84.8021	147.949	86.0445	147.949	84.795	147.949	85.9068	147.949	84.8091	147.949	85.7674	147.949	84.8388	147.949	85.6321	147.949	84.8793	147.949	85.5052	147.949	84.9275	147.949	85.3894	147.949	84.9823	147.949	85.2857	147.949	85.044	147.949	85.1942	147.949	85.1141
153.809	86.2277	153.809	86.061	153.809	86.3527	153.809	85.86	153.809	86.4323	153.809	85.6345	153.809	86.4652	153.809	85.3973	153.809	86.4529	153.809	85.1621	153.809	86.3986	153.809	84.943	153.809	86.307	153.809	84.7519	153.809	86.1843	153.809	84.5974	153.809	86.0372	153.809	84.4837	153.809	85.8735	153.809	84.4107	153.809	85.7013	153.809	84.3743	153.809	85.5289	153.809	84.3683	153.809	85.3634	153.809	84.3859	153.809	85.2103	153.809	84.4206	153.809	85.0723	153.809	84.4678	153.809	84.9501	153.809	84.5246	153.809	84.8425	153.809	84.59	153.809	84.7477	153.809	84.664
159.668	86.2068	159.668	86.0177	159.668	86.3513	159.668	85.7923	159.668	86.4463	159.668	85.5426	159.668	86.4901	159.668	85.2829	159.668	86.484	159.668	85.0294	159.668	86.4315	159.668	84.7977	159.668	86.3377	159.668	84.6014	159.668	86.2091	159.668	84.4499	159.668	86.0537	159.668	84.3476	159.668	85.8804	159.668	84.2932	159.668	85.6993	159.668	84.281	159.668	85.5204	159.668	84.3021	159.668	85.3527	159.668	84.3467	159.668	85.2021	159.668	84.406	159.668	85.0711	159.668	84.4733	159.668	84.9585	159.668	84.5444	159.668	84.8608	159.668	84.6178	159.668	84.7738	159.668	84.6937
165.527	86.2887	165.527	86.087	165.527	86.4434	165.527	85.8471	165.527	86.5461	165.527	85.5812	165.527	86.5949	165.527	85.3046	165.527	86.5912	165.527	85.0341	165.527	86.5385	165.527	84.7868	165.527	86.4423	165.527	84.5775	165.527	86.31	165.527	84.4168	165.527	86.15	165.527	84.3098	165.527	85.9724	165.527	84.2557	165.527	85.7879	165.527	84.2488	165.527	85.6072	165.527	84.2798	165.527	85.4394	165.527	84.3383	165.527	85.2902	165.527	84.4144	165.527	85.1614	165.527	84.5003	165.527	85.0503	165.527	84.5901	165.527	84.9516	165.527	84.6806	165.527	84.8598	165.527	84.7703
171.387	86.1324	171.387	85.9128	171.387	86.2961	171.387	85.6461	171.387	86.3998	171.387	85.3456	171.387	86.4434	171.387	85.0291	171.387	86.4301	171.387	84.7171	171.387	86.3653	171.387	84.431	171.387	86.2566	171.387	84.1903	171.387	86.1124	171.387	84.0096	171.387	85.9429	171.387	83.8965	171.387	85.7588	171.387	83.8506	171.387	85.5715	171.387	83.8643	171.387	85.3919	171.387	83.9249	171.387	85.2287	171.387	84.0179	171.387	85.0868	171.387	84.1292	171.387	84.9663	171.387	84.2474	171.387	84.8625	171.387	84.3645	171.387	84.7682	171.387	84.4759	171.387	84.6758	171.387	84.5794
177.246	85.8525	177.246	85.6182	177.246	86.0288	177.246	85.3349	177.246	86.1431	177.246	85.0171	177.246	86.1957	177.246	84.6838	177.246	86.1906	177.246	84.3575	177.246	86.1342	177.246	84.0616	177.246	86.0347	177.246	83.8175	177.246	85.9014	177.246	83.641	177.246	85.7444	177.246	83.5401	177.246	85.5742	177.246	83.5133	177.246	85.4012	177.246	83.5513	177.246	85.2351	177.246	83.6393	177.246	85.0834	177.246	83.7603	177.246	84.9499	177.246	83.8986	177.246	84.834	177.246	84.0414	177.246	84.7309	177.246	84.1802	177.246	84.6336	177.246	84.3095	177.246	84.5343	177.246	84.4274
183.105	85.762	183.105	85.5128	183.105	85.9443	183.105	85.2061	183.105	86.0555	183.105	84.8573	183.105	86.0964	183.105	84.4871	183.105	86.0721	183.105	84.1202	183.105	85.9906	183.105	83.7831	183.105	85.8622	183.105	83.5011	183.105	85.6992	183.105	83.2946	183.105	85.5146	183.105	83.1754	183.105	85.3225	183.105	83.1445	183.105	85.1362	183.105	83.1925	183.105	84.9673	183.105	83.3021	183.105	84.8231	183.105	83.4526	183.105	84.7051	183.105	83.6235	183.105	84.6088	183.105	83.7981	183.105	84.525	183.105	83.9639	183.105	84.4423	183.105	84.1132	183.105	84.3505	183.105	84.2421
188.965	85.8258	188.965	85.5723	188.965	86.0037	188.965	85.2528	188.965	86.1017	188.965	84.8828	188.965	86.1204	188.965	84.4833	188.965	86.0645	188.965	84.0795	188.965	85.9421	188.965	83.6992	188.965	85.7642	188.965	83.3692	188.965	85.5448	188.965	83.1124	188.965	85.3004	188.965	82.9434	188.965	85.0499	188.965	82.8667	188.965	84.8128	188.965	82.8762	188.965	84.6061	188.965	82.9569	188.965	84.44	188.965	83.0891	188.965	84.3157	188.965	83.2517	188.965	84.2242	188.965	83.4257	188.965	84.1503	188.965	83.5957	188.965	84.0773	188.965	83.7505	188.965	83.9911	188.965	83.8832
196.289	85.8403	196.289	85.5455	196.289	86.0586	196.289	85.1852	196.289	86.1948	196.289	84.7763	196.289	86.2482	196.289	84.3411	196.289	86.2219	196.289	83.9063	196.289	86.1223	196.289	83.5007	196.289	85.9588	196.289	83.1518	196.289	85.7438	196.289	82.8827	196.289	85.4932	196.289	82.7081	196.289	85.2264	196.289	82.6328	196.289	84.9655	196.289	82.6509	196.289	84.7314	196.289	82.7481	196.289	84.5392	196.289	82.9046	196.289	84.3934	196.289	83.0988	196.289	84.2862	196.289	83.31	196.289	84.2003	196.289	83.5197	196.289	84.1146	196.289	83.7126	196.289	84.0109	196.289	83.8779
203.613	85.72	203.613	85.4001	203.613	85.9555	203.613	85.0074	203.613	86.1013	203.613	84.5609	203.613	86.1576	203.613	84.087	203.613	86.1286	203.613	83.6185	203.613	86.0218	203.613	83.191	203.613	85.8476	203.613	82.8378	203.613	85.6196	203.613	82.5832	203.613	85.3547	203.613	82.4376	203.613	85.0733	203.613	82.3963	203.613	84.7987	203.613	82.4435	203.613	84.5535	203.613	82.5581	203.613	84.3542	203.613	82.7197	203.613	84.2054	203.613	82.9108	203.613	84.0983	203.613	83.1162	203.613	84.013	203.613	83.3221	203.613	83.9267	203.613	83.5151	203.613	83.8204	203.613	83.6835
210.938	85.6692	210.938	85.3243	210.938	85.9214	210.938	84.8986	210.938	86.0757	210.938	84.4115	210.938	86.1328	210.938	83.8897	210.938	86.0981	210.938	83.3665	210.938	85.9812	210.938	82.8792	210.938	85.7953	210.938	82.4652	210.938	85.5571	210.938	82.1561	210.938	85.2869	210.938	81.9712	210.938	85.008	210.938	81.9135	210.938	84.745	210.938	81.9697	210.938	84.5193	210.938	82.1158	210.938	84.3439	210.938	82.3249	210.938	84.2175	210.938	82.5732	210.938	84.1239	210.938	82.8414	210.938	84.0376	210.938	83.1129	210.938	83.9324	210.938	83.3714	210.938	83.7893	210.938	83.601
218.262	85.6354	218.262	85.2746	218.262	85.8972	218.262	84.8276	218.262	86.0551	218.262	84.3159	218.262	86.1101	218.262	83.7697	218.262	86.0681	218.262	83.2273	218.262	85.939	218.262	82.7315	218.262	85.7358	218.262	82.3243	218.262	85.4756	218.262	82.0382	218.262	85.1802	218.262	81.8896	218.262	84.8764	218.262	81.875	218.262	84.5947	218.262	81.9744	218.262	84.3635	218.262	82.1589	218.262	84.2	218.262	82.3992	218.262	84.1027	218.262	82.6701	218.262	84.0503	218.262	82.9511	218.262	84.0097	218.262	83.2245	218.262	83.9482	218.262	83.4738	218.262	83.8427	218.262	83.6836
225.586	85.65	225.586	85.2761	225.586	85.9137	225.586	84.8039	225.586	86.0633	225.586	84.2548	225.586	86.1013	225.586	83.6599	225.586	86.0355	225.586	83.0603	225.586	85.8778	225.586	82.5049	225.586	85.6436	225.586	82.0447	225.586	85.3522	225.586	81.7229	225.586	85.028	225.586	81.564	225.586	84.7017	225.586	81.5674	225.586	84.4089	225.586	81.7094	225.586	84.1843	225.586	81.9545	225.586	84.0495	225.586	82.2659	225.586	84.0023	225.586	82.6116	225.586	84.0141	225.586	82.9639	225.586	84.0398	225.586	83.2976	225.586	84.0342	225.586	83.5885	225.586	83.9645	225.586	83.8155
232.91	85.6732	232.91	85.2697	232.91	85.9547	232.91	84.756	232.91	86.1101	232.91	84.1533	232.91	86.142	232.91	83.4936	232.91	86.0579	232.91	82.8205	232.91	85.8699	232.91	82.1876	232.91	85.594	232.91	81.653	232.91	85.2509	232.91	81.2688	232.91	84.8673	232.91	81.0658	232.91	84.4778	232.91	81.0446	232.91	84.1239	232.91	81.1787	232.91	83.8485	232.91	81.429	232.91	83.6824	232.91	81.7584	232.91	83.6284	232.91	82.1362	232.91	83.6552	232.91	82.5334	232.91	83.7076	232.91	82.9176	232.91	83.727	232.91	83.2541	232.91	83.669	232.91	83.5111
241.699	85.5118	241.699	85.0725	241.699	85.8231	241.699	84.5184	241.699	86.0017	241.699	83.8731	241.699	86.0499	241.699	83.1718	241.699	85.9746	241.699	82.4615	241.699	85.7871	241.699	81.7992	241.699	85.5021	241.699	81.2458	241.699	85.1391	241.699	80.8546	241.699	84.7241	241.699	80.6564	241.699	84.2924	241.699	80.6477	241.699	83.8883	241.699	80.7941	241.699	83.5596	241.699	81.048	241.699	83.3435	241.699	81.3671	241.699	83.2483	241.699	81.723	241.699	83.2452	241.699	82.0956	241.699	83.2778	241.699	82.4619	241.699	83.2842	241.699	82.7914	241.699	83.2161	241.699	83.0508
250.488	85.5036	250.488	85.0306	250.488	85.8302	250.488	84.4248	250.488	86.0058	250.488	83.7108	250.488	86.0337	250.488	82.9262	250.488	85.9225	250.488	82.1223	250.488	85.686	250.488	81.3639	250.488	85.3428	250.488	80.7248	250.488	84.9178	250.488	80.2735	250.488	84.4445	250.488	80.0516	250.488	83.9663	250.488	80.0558	250.488	83.5353	250.488	80.2407	250.488	83.2043	250.488	80.5446	250.488	83.0094	250.488	80.9156	250.488	82.9513	250.488	81.3222	250.488	82.9892	250.488	81.7443	250.488	83.055	250.488	82.1587	250.488	83.0788	250.488	82.5316	250.488	83.0095	250.488	82.8249
259.277	85.9939	259.277	85.4821	259.277	86.3525	259.277	84.8316	259.277	86.5531	259.277	84.0691	259.277	86.598	259.277	83.2354	259.277	86.4951	259.277	82.3866	259.277	86.2566	259.277	81.5931	259.277	85.8992	259.277	80.9326	259.277	85.4462	259.277	80.4749	259.277	84.931	259.277	80.2606	259.277	84.4	259.277	80.2825	259.277	83.9124	259.277	80.4895	259.277	83.5296	259.277	80.8118	259.277	83.2945	259.277	81.1907	259.277	83.2086	259.277	81.591	259.277	83.2276	259.277	81.9959	259.277	83.2796	259.277	82.3898	259.277	83.2932	259.277	82.7469	259.277	83.2178	259.277	83.0327
268.066	85.7805	268.066	85.2204	268.066	86.1669	268.066	84.5003	268.066	86.3774	268.066	83.6497	268.066	86.4178	268.066	82.7164	268.066	86.2984	268.066	81.7681	268.066	86.0322	268.066	80.8894	268.066	85.635	268.066	80.1736	268.066	85.128	268.066	79.7022	268.066	84.5438	268.066	79.5148	268.066	83.9361	268.066	79.5893	268.066	83.3842	268.066	79.8562	268.066	82.9805	268.066	80.2379	268.066	82.7897	268.066	80.6786	268.066	82.8036	268.066	81.1497	268.066	82.9402	268.066	81.6352	268.066	83.0895	268.066	82.1128	268.066	83.1597	268.066	82.5452	268.066	83.0969	268.066	82.8863
276.855	85.8366	276.855	85.2794	276.855	86.2459	276.855	84.5841	276.855	86.5006	276.855	83.7659	276.855	86.5965	276.855	82.8513	276.855	86.5311	276.855	81.8885	276.855	86.304	276.855	80.9575	276.855	85.9189	276.855	80.1719	276.855	85.3868	276.855	79.6516	276.855	84.7326	276.855	79.4673	276.855	84.0038	276.855	79.5936	276.855	83.2793	276.855	79.9256	276.855	82.6672	276.855	80.3455	276.855	82.2743	276.855	80.7755	276.855	82.1474	276.855	81.1879	276.855	82.2344	276.855	81.5827	276.855	82.4153	276.855	81.9556	276.855	82.5678	276.855	82.2792	276.855	82.6099	276.855	82.51
287.109	85.7794	287.109	85.1644	287.109	86.2162	287.109	84.3848	287.109	86.4731	287.109	83.4698	287.109	86.5564	287.109	82.4662	287.109	86.4772	287.109	81.4387	287.109	86.2478	287.109	80.4719	287.109	85.8808	287.109	79.6769	287.109	85.3902	287.109	79.183	287.109	84.7983	287.109	79.0794	287.109	84.1485	287.109	79.3373	287.109	83.5192	287.109	79.8171	287.109	83.0217	287.109	80.3652	287.109	82.756	287.109	80.8885	287.109	82.7408	287.109	81.3643	287.109	82.8913	287.109	81.8096	287.109	83.0755	287.109	82.2393	287.109	83.1814	287.109	82.6365	287.109	83.1458	287.109	82.9553
297.363	85.974	297.363	85.3831	297.363	86.3854	297.363	84.6143	297.363	86.6216	297.363	83.6813	297.363	86.6893	297.363	82.6167	297.363	86.5941	297.363	81.4813	297.363	86.3398	297.363	80.3742	297.363	85.9292	297.363	79.4389	297.363	85.3672	297.363	78.8412	297.363	84.6685	297.363	78.6934	297.363	83.8731	297.363	78.9697	297.363	83.0724	297.363	79.518	297.363	82.4277	297.363	80.165	297.363	82.1245	297.363	80.7992	297.363	82.2311	297.363	81.3841	297.363	82.6122	297.363	81.928	297.363	83.0371	297.363	82.4394	297.363	83.3257	297.363	82.8944	297.363	83.3936	297.363	83.2349
307.617	85.8722	307.617	85.1412	307.617	86.3875	307.617	84.2028	307.617	86.6896	307.617	83.0809	307.617	86.7881	307.617	81.8201	307.617	86.6959	307.617	80.4948	307.617	86.4278	307.617	79.2257	307.617	85.9999	307.617	78.198	307.617	85.4319	307.617	77.636	307.617	84.7494	307.617	77.6669	307.617	83.9913	307.617	78.1867	307.617	83.2227	307.617	78.9459	307.617	82.5532	307.617	79.7327	307.617	82.1295	307.617	80.4452	307.617	82.0565	307.617	81.0682	307.617	82.2895	307.617	81.626	307.617	82.6457	307.617	82.136	307.617	82.9297	307.617	82.5779	307.617	83.0231	307.617	82.8948
319.336	85.6899	319.336	84.9156	319.336	86.2386	319.336	83.9192	319.336	86.5667	319.336	82.7162	319.336	86.6843	319.336	81.3361	319.336	86.6018	319.336	79.8298	319.336	86.3267	319.336	78.2964	319.336	85.863	319.336	76.9493	319.336	85.2162	319.336	76.1697	319.336	84.4036	319.336	76.287	319.336	83.4727	319.336	77.1536	319.336	82.5318	319.336	78.2965	319.336	81.7731	319.336	79.3717	319.336	81.4213	319.336	80.2599	319.336	81.5618	319.336	80.9792	319.336	82.0365	319.336	81.5978	319.336	82.5772	319.336	82.1624	319.336	82.9743	319.336	82.6546	319.336	83.1222	319.336	83.0012
329.59	85.5575	329.59	84.7466	329.59	86.1664	329.59	83.7343	329.59	86.5743	329.59	82.5243	329.59	86.7826	329.59	81.1259	329.59	86.7906	329.59	79.562	329.59	86.5937	329.59	77.9014	329.59	86.182	329.59	76.3482	329.59	85.5417	329.59	75.3682	329.59	84.6603	329.59	75.4709	329.59	83.5463	329.59	76.5201	329.59	82.2775	329.59	77.884	329.59	81.0921	329.59	79.1267	329.59	80.4206	329.59	80.1098	329.59	80.558	329.59	80.855	329.59	81.2605	329.59	81.4487	329.59	82.0464	329.59	81.9695	329.59	82.6083	329.59	82.4276	329.59	82.8394	329.59	82.7524
341.309	85.3654	341.309	84.565	341.309	85.9367	341.309	83.5031	341.309	86.308	341.309	82.1504	341.309	86.5005	341.309	80.4841	341.309	86.5236	341.309	78.4916	341.309	86.3739	341.309	76.2015	341.309	86.0366	341.309	73.8848	341.309	85.4883	341.309	72.6161	341.309	84.7025	341.309	73.5517	341.309	83.6619	341.309	75.6478	341.309	82.3956	341.309	77.6407	341.309	81.073	341.309	79.1886	341.309	80.1317	341.309	80.3037	341.309	80.075	341.309	81.0869	341.309	80.8034	341.309	81.6605	341.309	81.7257	341.309	82.1246	341.309	82.422	341.309	82.5088	341.309	82.7576	341.309	82.7552
353.027	85.8202	353.027	84.9923	353.027	86.4059	353.027	83.8991	353.027	86.7773	353.027	82.5188	353.027	86.962	353.027	80.815	353.027	86.9772	353.027	78.7028	353.027	86.8226	353.027	75.9817	353.027	86.4765	353.027	72.1828	353.027	85.8968	353.027	66.5375	353.027	85.0235	353.027	66.0483	353.027	83.7825	353.027	72.0181	353.027	82.1022	353.027	75.9699	353.027	80.0067	353.027	78.5016	353.027	77.9951	353.027	80.1165	353.027	77.4723	353.027	81.1023	353.027	78.7907	353.027	81.6933	353.027	80.4727	353.027	82.0912	353.027	81.7028	353.027	82.3932	353.027	82.3608	353.027	82.5372
366.211	86.5541	366.211	85.7383	366.211	87.1359	366.211	84.6578	366.211	87.5249	366.211	83.3058	366.211	87.7573	366.211	81.7072	366.211	87.8524	366.211	79.8962	366.211	87.8063	366.211	77.8184	366.211	87.5957	366.211	75.1215	366.211	87.1838	366.211	70.6649	366.211	86.5232	366.211	58.0405	366.211	85.5519	366.211	66.8112	366.211	84.1855	366.211	74.2699	366.211	82.3171	366.211	77.9408	366.211	79.8847	366.211	80.0484	366.211	77.2848	366.211	81.211	366.211	76.2655	366.211	81.7275	366.211	77.5813	366.211	81.8085	366.211	79.2863	366.211	81.6139	366.211	80.4858	366.211	81.2026
379.395	86.2859	379.395	85.6216	379.395	86.8183	379.395	84.8153	379.395	87.244	379.395	83.8763	379.395	87.5898	379.395	82.8255	379.395	87.8668	379.395	81.6697	379.395	88.0589	379.395	80.361	379.395	88.1245	379.395	78.7514	379.395	88.0077	379.395	76.5388	379.395	87.6502	379.395	73.183	379.395	86.9946	379.395	68.623	379.395	85.9822	379.395	70.2479	379.395	84.5498	379.395	75.2841	379.395	82.6546	379.395	78.6165	379.395	80.4194	379.395	80.6445	379.395	78.5723	379.395	81.7608	379.395	78.3614	379.395	82.2033	379.395	79.4935	379.395	82.1328	379.395	80.7433	379.395	81.6398
392.578	85.9482	392.578	85.5551	392.578	86.2262	392.578	85.0339	392.578	86.4342	392.578	84.4093	392.578	86.6344	392.578	83.7399	392.578	86.8765	392.578	83.088	392.578	87.1623	392.578	82.45	392.578	87.4358	392.578	81.6946	392.578	87.6064	392.578	80.558	392.578	87.5816	392.578	78.647	392.578	87.284	392.578	75.3078	392.578	86.651	392.578	69.5636	392.578	85.632	392.578	69.9628	392.578	84.2092	392.578	75.8727	392.578	82.4963	392.578	79.3227	392.578	80.9641	392.578	81.259	392.578	80.4008	392.578	82.2379	392.578	80.9013	392.578	82.542	392.578	81.7228	392.578	82.3335
405.762	85.817	405.762	85.4353	405.762	86.0601	405.762	84.9523	405.762	86.1718	405.762	84.4377	405.762	86.2048	405.762	83.9676	405.762	86.2402	405.762	83.5802	405.762	86.3459	405.762	83.2332	405.762	86.5289	405.762	82.7924	405.762	86.7249	405.762	82.0479	405.762	86.8303	405.762	80.7134	405.762	86.7408	405.762	78.3407	405.762	86.3688	405.762	73.9212	405.762	85.6486	405.762	64.3052	405.762	84.5567	405.762	70.5949	405.762	83.1814	405.762	76.7807	405.762	81.8602	405.762	79.8481	405.762	81.1663	405.762	81.4572	405.762	81.315	405.762	82.1593	405.762	81.8417	405.762	82.2209
420.41	86.3006	420.41	85.8489	420.41	86.5498	420.41	85.2533	420.41	86.5853	420.41	84.6135	420.41	86.445	420.41	84.0474	420.41	86.2118	420.41	83.6361	420.41	85.9901	420.41	83.3555	420.41	85.8583	420.41	83.0599	420.41	85.8228	420.41	82.5302	420.41	85.8145	420.41	81.5141	420.41	85.7255	420.41	79.6853	420.41	85.4464	420.41	76.4147	420.41	84.8889	420.41	69.5319	420.41	84.0139	420.41	59.4182	420.41	82.8936	420.41	73.5449	420.41	81.8117	420.41	78.1434	420.41	81.2238	420.41	80.4629	420.41	81.3074	420.41	81.5781	420.41	81.695	420.41	81.8977
435.059	84.9201	435.059	84.3062	435.059	85.3465	435.059	83.6012	435.059	85.5533	435.059	82.935	435.059	85.5771	435.059	82.4162	435.059	85.5057	435.059	82.0786	435.059	85.4374	435.059	81.8618	435.059	85.4276	435.059	81.6306	435.059	85.4575	435.059	81.2088	435.059	85.454	435.059	80.4002	435.059	85.3366	435.059	78.9649	435.059	85.0504	435.059	76.514	435.059	84.5774	435.059	72.2355	435.059	83.9438	435.059	66.7038	435.059	83.2373	435.059	71.9242	435.059	82.6182	435.059	76.8463	435.059	82.2607	435.059	79.6665	435.059	82.1912	435.059	81.2382	435.059	82.2048	435.059	81.9865
451.172	85.1571	451.172	84.5657	451.172	85.5069	451.172	83.8062	451.172	85.5833	451.172	82.9989	451.172	85.4048	451.172	82.3055	451.172	85.0573	451.172	81.8621	451.172	84.6917	451.172	81.6613	451.172	84.4609	451.172	81.5263	451.172	84.407	451.172	81.2151	451.172	84.4277	451.172	80.5036	451.172	84.3713	451.172	79.1661	451.172	84.1335	451.172	76.8681	451.172	83.6883	451.172	72.941	451.172	83.1041	451.172	67.4901	451.172	82.5681	451.172	71.3272	451.172	82.3258	451.172	76.4649	451.172	82.4463	451.172	79.5557	451.172	82.7011	451.172	81.3967	451.172	82.7656	451.172	82.3927
465.82	84.9851	465.82	84.3366	465.82	85.4138	465.82	83.5604	465.82	85.5791	465.82	82.7959	465.82	85.4763	465.82	82.1856	465.82	85.14	465.82	81.794	465.82	84.6554	465.82	81.5639	465.82	84.1564	465.82	81.3479	465.82	83.7751	465.82	80.9612	465.82	83.5496	465.82	80.2109	465.82	83.3914	465.82	78.9009	465.82	83.1546	465.82	76.7962	465.82	82.7335	465.82	73.5645	465.82	82.1416	465.82	69.5542	465.82	81.5693	465.82	70.5999	465.82	81.3121	465.82	75.0118	465.82	81.4622	465.82	78.2066	465.82	81.7497	465.82	80.2248	465.82	81.804	465.82	81.3581
483.398	84.4921	483.398	83.73	483.398	84.9756	483.398	82.8198	483.398	85.1277	483.398	81.9561	483.398	84.9696	483.398	81.3295	483.398	84.5887	483.398	81.0123	483.398	84.1214	483.398	80.9078	483.398	83.7022	483.398	80.831	483.398	83.3866	483.398	80.6097	483.398	83.1161	483.398	80.108	483.398	82.7707	483.398	79.1902	483.398	82.2508	483.398	77.6735	483.398	81.5384	483.398	75.3294	483.398	80.7475	483.398	72.3292	483.398	80.1606	483.398	71.6066	483.398	80.0935	483.398	74.6734	483.398	80.525	483.398	77.6831	483.398	81.0478	483.398	79.7059	483.398	81.2408	483.398	80.845
499.512	85.4266	499.512	84.7157	499.512	85.8771	499.512	83.8666	499.512	86.0044	499.512	83.0322	499.512	85.8106	499.512	82.3466	499.512	85.3602	499.512	81.8771	499.512	84.781	499.512	81.5942	499.512	84.2473	499.512	81.3767	499.512	83.8978	499.512	81.0701	499.512	83.7192	499.512	80.5601	499.512	83.5499	499.512	79.8018	499.512	83.2009	499.512	78.7876	499.512	82.5565	499.512	77.5411	499.512	81.6465	499.512	76.3379	499.512	80.7486	499.512	76.0894	499.512	80.3494	499.512	77.3516	499.512	80.624	499.512	79.1311	499.512	81.1566	499.512	80.5265	499.512	81.4675	499.512	81.2974
517.09	85.7706	517.09	84.7417	517.09	86.4353	517.09	83.4501	517.09	86.6939	517.09	82.0598	517.09	86.5718	517.09	80.8081	517.09	86.1584	517.09	79.9333	517.09	85.5864	517.09	79.4762	517.09	84.9981	517.09	79.2321	517.09	84.5092	517.09	78.9602	517.09	84.1691	517.09	78.5225	517.09	83.9305	517.09	77.8459	517.09	83.6674	517.09	76.8421	517.09	83.2598	517.09	75.4966	517.09	82.7127	517.09	74.4792	517.09	82.271	517.09	75.4291	517.09	82.3241	517.09	77.9479	517.09	82.8934	517.09	80.3641	517.09	83.4969	517.09	82.1434	517.09	83.6797	517.09	83.2442
536.133	86.3725	536.133	85.2582	536.133	87.1018	536.133	83.9431	536.133	87.3783	536.133	82.7762	536.133	87.204	536.133	82.0981	536.133	86.6684	536.133	81.8736	536.133	85.9979	536.133	81.7437	536.133	85.5101	536.133	81.399	536.133	85.3632	536.133	80.7304	536.133	85.396	536.133	79.8229	536.133	85.3309	536.133	78.8926	536.133	84.9907	536.133	78.103	536.133	84.3572	536.133	77.485	536.133	83.616	536.133	77.3428	536.133	83.1773	536.133	78.3698	536.133	83.3738	536.133	80.3607	536.133	84.0129	536.133	82.3303	536.133	84.6143	536.133	83.7667	536.133	84.8526	536.133	84.5919
555.176	87.3025	555.176	86.4461	555.176	87.9281	555.176	85.5405	555.176	88.1887	555.176	84.7803	555.176	87.9901	555.176	84.2554	555.176	87.3002	555.176	83.8607	555.176	86.2301	555.176	83.3494	555.176	85.1534	555.176	82.4657	555.176	84.601	555.176	81.0925	555.176	84.6534	555.176	79.5122	555.176	84.8045	555.176	78.6098	555.176	84.6052	555.176	78.7343	555.176	83.9466	555.176	78.9722	555.176	83.1113	555.176	79.0327	555.176	82.8584	555.176	80.0141	555.176	83.6902	555.176	82.2439	555.176	84.9895	555.176	84.4285	555.176	86.0345	555.176	85.8784	555.176	86.577	555.176	86.555
574.219	86.1919	574.219	85.2666	574.219	87.0381	574.219	84.544	574.219	87.5712	574.219	84.2862	574.219	87.6104	574.219	84.5165	574.219	87.0423	574.219	84.8674	574.219	85.8982	574.219	84.8108	574.219	84.5746	574.219	83.9134	574.219	83.93	574.219	81.844	574.219	84.2766	574.219	78.4807	574.219	84.8338	574.219	75.5949	574.219	84.9104	574.219	76.4501	574.219	84.2938	574.219	77.6152	574.219	83.312	574.219	77.7457	574.219	83.2741	574.219	79.4539	574.219	85.0092	574.219	83.3318	574.219	87.1919	574.219	86.6679	574.219	88.8324	574.219	88.7633	574.219	89.7017	574.219	89.7196
594.727	84.1215	594.727	83.5947	594.727	85.0378	594.727	83.7798	594.727	85.8836	594.727	84.545	594.727	86.3393	594.727	85.4808	594.727	86.204	594.727	86.2297	594.727	85.3046	594.727	86.5179	594.727	83.5575	594.727	86.0452	594.727	81.5799	594.727	84.3771	594.727	81.4106	594.727	80.6221	594.727	82.885	594.727	71.3567	594.727	83.9119	594.727	72.1726	594.727	83.8539	594.727	78.7384	594.727	83.0293	594.727	79.8241	594.727	83.1543	594.727	79.6048	594.727	85.5255	594.727	83.3427	594.727	88.3112	594.727	87.6533	594.727	90.3594	594.727	90.3023	594.727	91.4485	594.727	91.4806
615.234	85.3369	615.234	84.9631	615.234	85.6878	615.234	84.8074	615.234	86.0088	615.234	85.1779	615.234	86.2892	615.234	86.0182	615.234	86.3676	615.234	86.9699	615.234	85.9963	615.234	87.6634	615.234	84.9441	615.234	87.7766	615.234	83.1588	615.234	86.9597	615.234	81.2532	615.234	84.6899	615.234	80.6637	615.234	79.7243	615.234	81.0296	615.234	65.6255	615.234	80.4984	615.234	75.4333	615.234	78.1109	615.234	79.2808	615.234	77.257	615.234	78.0341	615.234	82.8736	615.234	76.9752	615.234	87.445	615.234	83.7916	615.234	90.0844	615.234	88.3473	615.234	91.1011	615.234	90.5828
637.207	85.2376	637.207	83.6248	637.207	86.343	637.207	81.8328	637.207	86.9611	637.207	80.8509	637.207	87.1722	637.207	81.5559	637.207	86.9797	637.207	83.3474	637.207	86.3264	637.207	85.146	637.207	85.1774	637.207	86.291	637.207	83.6246	637.207	86.4474	637.207	82.1401	637.207	85.3255	637.207	81.5718	637.207	82.3215	637.207	81.8255	637.207	75.369	637.207	81.674	637.207	62.2196	637.207	79.8758	637.207	75.8927	637.207	74.6082	637.207	77.916	637.207	74.8307	637.207	77.4866	637.207	82.3383	637.207	80.5123	637.207	86.0618	637.207	84.7733	637.207	87.5252	637.207	87.1223
659.18	85.4646	659.18	83.7016	659.18	86.5645	659.18	81.4847	659.18	87.0345	659.18	79.3644	659.18	87.0738	659.18	78.596	659.18	86.8164	659.18	79.9936	659.18	86.1648	659.18	82.2132	659.18	84.9074	659.18	83.9489	659.18	82.9247	659.18	84.6431	659.18	80.5987	659.18	83.9492	659.18	79.5774	659.18	81.3581	659.18	80.4934	659.18	75.7357	659.18	81.331	659.18	71.5216	659.18	80.794	659.18	76.2368	659.18	78.3556	659.18	77.2193	659.18	76.4527	659.18	76.6352	659.18	80.5118	659.18	79.7951	659.18	84.1398	659.18	83.5779	659.18	85.7475	659.18	85.5541
682.617	86.9264	682.617	85.72	682.617	87.4726	682.617	83.993	682.617	87.3802	682.617	82.1921	682.617	86.8583	682.617	81.1943	682.617	86.2839	682.617	81.6513	682.617	85.8434	682.617	82.961	682.617	85.2237	682.617	84.0513	682.617	84.0016	682.617	84.2731	682.617	82.2268	682.617	83.1426	682.617	80.7593	682.617	79.7381	682.617	80.228	682.617	69.8223	682.617	79.6271	682.617	71.6239	682.617	77.8939	682.617	78.9037	682.617	75.6717	682.617	80.3063	682.617	78.0138	682.617	79.2811	682.617	82.4679	682.617	80.4061	682.617	85.4013	682.617	84.0284	682.617	86.6433	682.617	86.2355
707.52	88.4648	707.52	86.7673	707.52	89.1451	707.52	84.2006	707.52	88.8914	707.52	81.4354	707.52	87.9653	707.52	80.0529	707.52	86.8788	707.52	81.2153	707.52	86.165	707.52	83.5349	707.52	85.6863	707.52	85.4246	707.52	84.8301	707.52	86.3008	707.52	83.3495	707.52	85.8904	707.52	81.7619	707.52	83.6766	707.52	80.9074	707.52	78.3076	707.52	80.1192	707.52	73.4739	707.52	77.3715	707.52	79.8964	707.52	68.9588	707.52	81.8121	707.52	77.762	707.52	80.2516	707.52	84.4989	707.52	80.4623	707.52	87.7227	707.52	85.2159	707.52	88.8517	707.52	88.1063
732.422	88.8748	732.422	86.77	732.422	89.8688	732.422	83.6385	732.422	89.756	732.422	79.9119	732.422	88.5338	732.422	76.3644	732.422	86.4291	732.422	76.4043	732.422	84.5996	732.422	80.9006	732.422	84.3111	732.422	84.472	732.422	84.4215	732.422	86.4479	732.422	83.8324	732.422	86.9682	732.422	82.8555	732.422	85.8824	732.422	82.4885	732.422	82.4703	732.422	82.5753	732.422	76.0264	732.422	81.5406	732.422	79.1783	732.422	76.6606	732.422	82.6837	732.422	68.4072	732.422	82.3761	732.422	82.3725	732.422	80.3812	732.422	87.0249	732.422	83.8174	732.422	88.5424	732.422	87.515
757.324	87.514	757.324	84.7193	757.324	89.3331	757.324	81.9615	757.324	89.9727	757.324	80.7542	757.324	89.3419	757.324	79.8253	757.324	87.2539	757.324	77.4244	757.324	83.5469	757.324	76.2999	757.324	80.1872	757.324	80.7995	757.324	81.6104	757.324	84.4976	757.324	83.5707	757.324	86.2483	757.324	84.3937	757.324	86.2421	757.324	84.5344	757.324	84.3064	757.324	84.1801	757.324	79.8396	757.324	82.8624	757.324	77.7996	757.324	79.1974	757.324	82.0161	757.324	71.5922	757.324	83.1391	757.324	80.2188	757.324	80.5089	757.324	84.9589	757.324	78.9629	757.324	86.0487	757.324	83.996
785.156	85.8172	785.156	84.7264	785.156	87.5231	785.156	84.4081	785.156	88.9151	785.156	84.2884	785.156	89.3896	785.156	83.9461	785.156	88.7169	785.156	82.8827	785.156	86.619	785.156	80.7638	785.156	82.2929	785.156	78.6733	785.156	73.1498	785.156	79.1547	785.156	76.0184	785.156	80.8365	785.156	82.215	785.156	81.5551	785.156	85.0246	785.156	80.5393	785.156	86.0912	785.156	76.7878	785.156	85.6839	785.156	73.0432	785.156	83.3572	785.156	78.5827	785.156	77.2759	785.156	81.4176	785.156	75.5718	785.156	81.9545	785.156	82.3544	785.156	81.6644	785.156	83.8503	785.156	82.5554
811.523	85.5602	811.523	85.2381	811.523	86.1612	811.523	84.9108	811.523	87.0724	811.523	84.2867	811.523	87.9989	811.523	83.3916	811.523	88.3862	811.523	82.4454	811.523	87.7178	811.523	81.8167	811.523	85.5638	811.523	82.0395	811.523	81.0939	811.523	82.4912	811.523	69.1934	811.523	81.9565	811.523	74.4578	811.523	79.9393	811.523	81.7674	811.523	76.1382	811.523	84.522	811.523	68.1749	811.523	85.0025	811.523	65.1945	811.523	83.3713	811.523	75.4806	811.523	78.5831	811.523	78.5586	811.523	63.5271	811.523	79.362	811.523	74.3909	811.523	79.6771	811.523	78.4797	811.523	79.5655
840.82	87.7689	840.82	86.2876	840.82	88.4068	840.82	84.0904	840.82	88.3942	840.82	81.6984	840.82	88.2415	840.82	79.8242	840.82	88.335	840.82	79.0885	840.82	88.5423	840.82	79.9526	840.82	88.3975	840.82	81.6073	840.82	87.1675	840.82	82.8531	840.82	83.9638	840.82	83.0249	840.82	76.6525	840.82	81.8168	840.82	68.5104	840.82	79.3627	840.82	80.0416	840.82	77.9943	840.82	82.9539	840.82	80.9864	840.82	82.515	840.82	83.8829	840.82	78.5074	840.82	84.8954	840.82	68.1497	840.82	84.4786	840.82	78.1415	840.82	83.1591	840.82	81.7871	840.82	82.3674
870.117	87.8895	870.117	86.3106	870.117	88.8047	870.117	84.6329	870.117	88.9765	870.117	83.9268	870.117	88.4539	870.117	83.5044	870.117	87.7089	870.117	80.949	870.117	87.5514	870.117	74.2194	870.117	87.7662	870.117	78.694	870.117	87.2178	870.117	84.399	870.117	84.8363	870.117	87.445	870.117	79.0651	870.117	88.8107	870.117	73.1879	870.117	88.7805	870.117	80.7379	870.117	87.7188	870.117	83.796	870.117	86.2565	870.117	83.8245	870.117	85.061	870.117	79.9982	870.117	84.4924	870.117	59.7368	870.117	84.558	870.117	79.8855	870.117	84.7951	870.117	83.7959	870.117	84.6631
900.879	86.4293	900.879	85.2584	900.879	87.5461	900.879	85.1397	900.879	87.9095	900.879	85.6282	900.879	87.5701	900.879	85.4535	900.879	86.6289	900.879	84.0885	900.879	85.3444	900.879	81.1511	900.879	84.8071	900.879	76.4261	900.879	84.8814	900.879	79.3474	900.879	83.9587	900.879	83.8783	900.879	81.1572	900.879	86.0109	900.879	76.1743	900.879	86.3976	900.879	74.8359	900.879	85.2491	900.879	78.8817	900.879	82.4118	900.879	80.3556	900.879	77.2276	900.879	78.5532	900.879	71.7933	900.879	70.8716	900.879	70.7249	900.879	70.5818	900.879	72.2253	900.879	76.6174	900.879	76.2904
933.105	85.9305	933.105	85.2601	933.105	86.8534	933.105	85.0246	933.105	87.5129	933.105	85.1572	933.105	87.4497	933.105	85.2936	933.105	86.6855	933.105	84.5415	933.105	85.4746	933.105	82.1225	933.105	84.0332	933.105	78.183	933.105	83.0468	933.105	76.2118	933.105	82.6969	933.105	78.9317	933.105	81.7607	933.105	81.2644	933.105	79.7083	933.105	82.3607	933.105	79.07	933.105	82.2047	933.105	80.5317	933.105	80.0831	933.105	80.9674	933.105	75.1585	933.105	79.1609	933.105	73.0022	933.105	74.3062	933.105	77.2423	933.105	69.0056	933.105	77.8005	933.105	71.4105	933.105	75.0026
965.332	85.6951	965.332	85.0646	965.332	86.5411	965.332	85.1957	965.332	86.8032	965.332	85.562	965.332	86.7083	965.332	85.4831	965.332	86.422	965.332	84.8262	965.332	85.2612	965.332	83.6912	965.332	83.6803	965.332	81.7843	965.332	82.9274	965.332	80.0513	965.332	81.7073	965.332	80.6344	965.332	79.7615	965.332	80.9739	965.332	79.2859	965.332	79.8061	965.332	79.2845	965.332	78.8996	965.332	79.2226	965.332	77.6318	965.332	79.6493	965.332	74.2872	965.332	78.8194	965.332	63.8975	965.332	75.0993	965.332	72.5111	965.332	72.6121	965.332	77.9233	965.332	75.5724	965.332	77.9144
1,000.49	85.9086	1,000.49	85.439	1,000.49	86.3845	1,000.49	85.0367	1,000.49	86.6132	1,000.49	84.9958	1,000.49	86.0253	1,000.49	85.1263	1,000.49	84.8423	1,000.49	84.5597	1,000.49	83.9325	1,000.49	82.7915	1,000.49	82.5367	1,000.49	80.2523	1,000.49	79.8839	1,000.49	79.0975	1,000.49	77.736	1,000.49	80.2656	1,000.49	77.1963	1,000.49	80.5658	1,000.49	78.9502	1,000.49	78.942	1,000.49	81.4222	1,000.49	77.6402	1,000.49	82.573	1,000.49	77.5281	1,000.49	82.1333	1,000.49	75.4392	1,000.49	79.327	1,000.49	67.999	1,000.49	75.3769	1,000.49	71.427	1,000.49	76.5614	1,000.49	78.4357	1,000.49	78.6631	1,000.49	79.4088
1,035.64	85.4762	1,035.64	85.707	1,035.64	85.9726	1,035.64	86.0223	1,035.64	86.2496	1,035.64	86.2305	1,035.64	85.6558	1,035.64	86.1165	1,035.64	85.0147	1,035.64	84.9645	1,035.64	84.5658	1,035.64	82.7943	1,035.64	83.607	1,035.64	80.1175	1,035.64	82.8401	1,035.64	78.7321	1,035.64	81.5476	1,035.64	79.5082	1,035.64	79.3126	1,035.64	80.2256	1,035.64	79.4479	1,035.64	79.3299	1,035.64	80.1055	1,035.64	75.0372	1,035.64	80.395	1,035.64	66.1318	1,035.64	80.2768	1,035.64	75.027	1,035.64	77.8309	1,035.64	73.7927	1,035.64	73.7857	1,035.64	67.7735	1,035.64	76.9442	1,035.64	77.9463	1,035.64	79.9879	1,035.64	80.5141
1,072.27	85.9447	1,072.27	85.7403	1,072.27	86.1676	1,072.27	85.7497	1,072.27	86.4467	1,072.27	85.8658	1,072.27	86.0655	1,072.27	85.2893	1,072.27	84.5097	1,072.27	83.8123	1,072.27	83.1253	1,072.27	81.4981	1,072.27	82.7196	1,072.27	78.4131	1,072.27	81.5849	1,072.27	76.7097	1,072.27	79.9304	1,072.27	78.341	1,072.27	76.5029	1,072.27	80.0932	1,072.27	75.7315	1,072.27	79.2808	1,072.27	79.0832	1,072.27	76.2574	1,072.27	79.5085	1,072.27	74.3602	1,072.27	78.8694	1,072.27	76.0977	1,072.27	76.5222	1,072.27	77.3417	1,072.27	73.0666	1,072.27	68.6252	1,072.27	76.5359	1,072.27	71.7797	1,072.27	78.9389	1,072.27	77.9128
1,108.89	86.0441	1,108.89	85.7605	1,108.89	86.1495	1,108.89	85.259	1,108.89	86.3557	1,108.89	84.7721	1,108.89	85.9967	1,108.89	83.7385	1,108.89	84.5661	1,108.89	81.8027	1,108.89	82.7449	1,108.89	79.6791	1,108.89	81.7903	1,108.89	77.8529	1,108.89	80.6698	1,108.89	75.8	1,108.89	78.3794	1,108.89	76.2133	1,108.89	73.73	1,108.89	79.3616	1,108.89	72.6063	1,108.89	79.9489	1,108.89	77.2891	1,108.89	76.3581	1,108.89	78.4781	1,108.89	65.342	1,108.89	77.9979	1,108.89	73.2338	1,108.89	74.7035	1,108.89	76.6802	1,108.89	70.7765	1,108.89	72.7064	1,108.89	77.0382	1,108.89	71.942	1,108.89	78.743	1,108.89	76.8589
1,148.44	85.8242	1,148.44	85.4699	1,148.44	86.0653	1,148.44	84.6575	1,148.44	86.3011	1,148.44	83.4466	1,148.44	86.0802	1,148.44	82.1131	1,148.44	84.9988	1,148.44	81.3589	1,148.44	82.8387	1,148.44	80.7833	1,148.44	81.6928	1,148.44	79.5384	1,148.44	81.4411	1,148.44	78.614	1,148.44	80.2524	1,148.44	78.0609	1,148.44	77.71	1,148.44	78.6551	1,148.44	73.7261	1,148.44	78.8464	1,148.44	75.572	1,148.44	76.1114	1,148.44	76.8747	1,148.44	65.7597	1,148.44	76.9618	1,148.44	73.2238	1,148.44	75.7383	1,148.44	78.2667	1,148.44	70.2756	1,148.44	75.666	1,148.44	74.0928	1,148.44	72.9406	1,148.44	77.249	1,148.44	76.2593
1,189.45	86.3779	1,189.45	85.9549	1,189.45	86.6538	1,189.45	85.3184	1,189.45	86.9762	1,189.45	84.4166	1,189.45	86.9646	1,189.45	83.3497	1,189.45	85.9571	1,189.45	82.8958	1,189.45	83.9287	1,189.45	82.1314	1,189.45	81.9883	1,189.45	80.0602	1,189.45	81.2828	1,189.45	78.4206	1,189.45	79.9947	1,189.45	79.1607	1,189.45	76.9946	1,189.45	79.0988	1,189.45	72.2525	1,189.45	78.2498	1,189.45	75.4814	1,189.45	75.1799	1,189.45	78.7292	1,189.45	65.0661	1,189.45	77.9408	1,189.45	71.1917	1,189.45	72.2399	1,189.45	77.7836	1,189.45	71.4142	1,189.45	76.4151	1,189.45	78.2455	1,189.45	74.8863	1,189.45	79.7069	1,189.45	78.2759
1,230.47	87.6596	1,230.47	86.0359	1,230.47	88.264	1,230.47	84.422	1,230.47	88.2024	1,230.47	83.3612	1,230.47	87.8816	1,230.47	83.503	1,230.47	87.1189	1,230.47	83.7092	1,230.47	85.3463	1,230.47	82.9157	1,230.47	82.3646	1,230.47	80.5763	1,230.47	81.1108	1,230.47	75.8676	1,230.47	80.3956	1,230.47	78.1125	1,230.47	78.7399	1,230.47	81.0022	1,230.47	75.1104	1,230.47	81.0971	1,230.47	78.8234	1,230.47	78.8699	1,230.47	81.5829	1,230.47	74.2447	1,230.47	81.5456	1,230.47	64.5528	1,230.47	78.0013	1,230.47	76.7404	1,230.47	68.624	1,230.47	75.608	1,230.47	77.4596	1,230.47	74.8578	1,230.47	79.1225	1,230.47	78.2627
1,274.41	87.5756	1,274.41	86.9014	1,274.41	87.4259	1,274.41	85.366	1,274.41	87.27	1,274.41	83.8235	1,274.41	87.5981	1,274.41	83.7056	1,274.41	87.1722	1,274.41	84.9705	1,274.41	85.2573	1,274.41	85.0766	1,274.41	82.4102	1,274.41	83.9682	1,274.41	81.1217	1,274.41	81.9241	1,274.41	80.5779	1,274.41	80.5126	1,274.41	78.0387	1,274.41	81.0756	1,274.41	72.8729	1,274.41	80.5392	1,274.41	71.1512	1,274.41	78.6394	1,274.41	78.0137	1,274.41	71.4905	1,274.41	79.1526	1,274.41	65.5486	1,274.41	77.0244	1,274.41	75.6584	1,274.41	67.5949	1,274.41	77.0907	1,274.41	72.8991	1,274.41	75.4892	1,274.41	75.6267	1,274.41	74.8183
1,319.82	87.0598	1,319.82	85.8218	1,319.82	87.4711	1,319.82	84.3036	1,319.82	86.8334	1,319.82	83.6452	1,319.82	86.2984	1,319.82	83.6333	1,319.82	85.7957	1,319.82	83.5178	1,319.82	84.3176	1,319.82	82.8725	1,319.82	82.3025	1,319.82	81.0814	1,319.82	80.149	1,319.82	78.5437	1,319.82	79.066	1,319.82	77.3292	1,319.82	78.2319	1,319.82	79.2957	1,319.82	76.5282	1,319.82	80.4415	1,319.82	76.034	1,319.82	79.5801	1,319.82	79.5475	1,319.82	75.2373	1,319.82	80.6604	1,319.82	69.6435	1,319.82	76.2643	1,319.82	74.1914	1,319.82	67.5254	1,319.82	74.3687	1,319.82	74.4552	1,319.82	72.8673	1,319.82	77.6703	1,319.82	77.0748
1,366.7	86.7153	1,366.7	85.9241	1,366.7	86.5596	1,366.7	84.2715	1,366.7	85.9171	1,366.7	83.7369	1,366.7	85.4767	1,366.7	84.2362	1,366.7	85.2664	1,366.7	84.3208	1,366.7	83.8117	1,366.7	83.5315	1,366.7	81.3585	1,366.7	81.6318	1,366.7	79.3905	1,366.7	78.8069	1,366.7	78.8386	1,366.7	77.3917	1,366.7	76.9635	1,366.7	78.9343	1,366.7	74.1782	1,366.7	79.2628	1,366.7	74.345	1,366.7	78.6396	1,366.7	78.3336	1,366.7	75.6852	1,366.7	80.0618	1,366.7	69.1606	1,366.7	77.329	1,366.7	75.0213	1,366.7	71.8987	1,366.7	75.9451	1,366.7	73.8293	1,366.7	75.9359	1,366.7	75.6657	1,366.7	76.1599
1,413.57	87.0382	1,413.57	85.7893	1,413.57	87.3525	1,413.57	84.6105	1,413.57	86.612	1,413.57	84.2095	1,413.57	85.5595	1,413.57	84.1886	1,413.57	85.5087	1,413.57	83.7495	1,413.57	84.9662	1,413.57	82.3016	1,413.57	82.1348	1,413.57	79.718	1,413.57	79.8512	1,413.57	76.0938	1,413.57	79.6809	1,413.57	75.7409	1,413.57	77.9365	1,413.57	76.9183	1,413.57	73.6811	1,413.57	75.3222	1,413.57	73.1894	1,413.57	74.5172	1,413.57	78.0591	1,413.57	74.5229	1,413.57	79.5007	1,413.57	54.517	1,413.57	75.5748	1,413.57	76.0856	1,413.57	69.2772	1,413.57	77.461	1,413.57	73.8465	1,413.57	74.6976	1,413.57	76.8614	1,413.57	75.5658
1,463.38	87.6283	1,463.38	86.7223	1,463.38	88.0476	1,463.38	85.563	1,463.38	87.4619	1,463.38	85.109	1,463.38	86.5153	1,463.38	84.0501	1,463.38	86.1845	1,463.38	83.4752	1,463.38	85.2731	1,463.38	82.778	1,463.38	82.0084	1,463.38	81.9695	1,463.38	77.8559	1,463.38	78.6387	1,463.38	78.0792	1,463.38	75.4235	1,463.38	78.6957	1,463.38	79.3449	1,463.38	73.5855	1,463.38	79.1582	1,463.38	70.1336	1,463.38	74.2057	1,463.38	77.959	1,463.38	76.8239	1,463.38	79.5487	1,463.38	76.7937	1,463.38	76.5771	1,463.38	68.8989	1,463.38	75.7735	1,463.38	77.8166	1,463.38	77.6466	1,463.38	76.0773	1,463.38	78.1903	1,463.38	70.3692
1,516.11	87.7079	1,516.11	86.7858	1,516.11	87.6139	1,516.11	86.0961	1,516.11	86.5686	1,516.11	85.2147	1,516.11	85.9585	1,516.11	84.0082	1,516.11	85.2564	1,516.11	83.9196	1,516.11	84.7479	1,516.11	83.3432	1,516.11	82.7589	1,516.11	81.4836	1,516.11	78.2877	1,516.11	79.6591	1,516.11	77.9941	1,516.11	77.458	1,516.11	79.7803	1,516.11	76.3467	1,516.11	77.8194	1,516.11	76.9313	1,516.11	71.3673	1,516.11	73.892	1,516.11	75.1328	1,516.11	68.7142	1,516.11	77.7396	1,516.11	79.2943	1,516.11	73.5799	1,516.11	77.9542	1,516.11	76.7554	1,516.11	75.776	1,516.11	78.0779	1,516.11	79.5459	1,516.11	69.7143	1,516.11	76.0808
1,568.85	87.7702	1,568.85	87.058	1,568.85	87.4323	1,568.85	85.9935	1,568.85	86.0041	1,568.85	84.9848	1,568.85	85.1585	1,568.85	84.5113	1,568.85	83.8523	1,568.85	84.0795	1,568.85	83.1562	1,568.85	82.955	1,568.85	81.9897	1,568.85	81.0278	1,568.85	78.9114	1,568.85	77.2218	1,568.85	72.7017	1,568.85	75.3974	1,568.85	76.1096	1,568.85	75.8112	1,568.85	75.7351	1,568.85	74.536	1,568.85	68.61	1,568.85	72.8742	1,568.85	74.4984	1,568.85	65.4983	1,568.85	76.3777	1,568.85	72.3339	1,568.85	61.632	1,568.85	77.3557	1,568.85	75.5032	1,568.85	74.5499	1,568.85	77.5249	1,568.85	79.3083	1,568.85	76.059	1,568.85	79.4141
1,624.51	87.1172	1,624.51	85.7786	1,624.51	87.1116	1,624.51	84.0314	1,624.51	85.2804	1,624.51	83.1692	1,624.51	83.5359	1,624.51	82.367	1,624.51	83.9979	1,624.51	81.6417	1,624.51	83.0151	1,624.51	80.9286	1,624.51	82.9005	1,624.51	79.301	1,624.51	80.7629	1,624.51	75.1458	1,624.51	73.7284	1,624.51	72.7427	1,624.51	75.263	1,624.51	78.4372	1,624.51	77.0526	1,624.51	77.6411	1,624.51	67.6139	1,624.51	71.0712	1,624.51	69.2934	1,624.51	66.1794	1,624.51	72.2614	1,624.51	74.0473	1,624.51	71.883	1,624.51	81.5207	1,624.51	75.9308	1,624.51	78.2899	1,624.51	76.8802	1,624.51	80.1251	1,624.51	72.9497	1,624.51	80.154
1,681.64	86.1607	1,681.64	85.2141	1,681.64	86.4091	1,681.64	84.4229	1,681.64	84.6991	1,681.64	83.9198	1,681.64	83.0624	1,681.64	82.4512	1,681.64	83.3656	1,681.64	79.7993	1,681.64	82.8622	1,681.64	80.9106	1,681.64	81.306	1,681.64	81.8731	1,681.64	80.0221	1,681.64	79.7041	1,681.64	75.6719	1,681.64	73.0248	1,681.64	73.0872	1,681.64	76.8972	1,681.64	75.7693	1,681.64	78.2054	1,681.64	75.0101	1,681.64	72.449	1,681.64	66.3625	1,681.64	64.1738	1,681.64	77.1444	1,681.64	66.6955	1,681.64	77.3466	1,681.64	80.7083	1,681.64	78.1754	1,681.64	81.2548	1,681.64	73.4853	1,681.64	77.2216	1,681.64	77.4941	1,681.64	80.6068
1,741.7	87.0804	1,741.7	84.9997	1,741.7	87.223	1,741.7	84.859	1,741.7	85.6932	1,741.7	84.7243	1,741.7	83.6143	1,741.7	83.2777	1,741.7	82.7424	1,741.7	80.7741	1,741.7	82.2272	1,741.7	76.869	1,741.7	80.9849	1,741.7	78.3656	1,741.7	78.4698	1,741.7	78.5071	1,741.7	74.9041	1,741.7	71.7782	1,741.7	70.8472	1,741.7	64.4057	1,741.7	75.6248	1,741.7	76.8171	1,741.7	76.3952	1,741.7	74.76	1,741.7	70.7899	1,741.7	68.405	1,741.7	77.9883	1,741.7	71.8193	1,741.7	78.5167	1,741.7	76.5948	1,741.7	71.4173	1,741.7	80.2787	1,741.7	71.3029	1,741.7	77.9242	1,741.7	75.8201	1,741.7	78.7677
1,803.22	87.1449	1,803.22	86.0689	1,803.22	87.1961	1,803.22	85.5512	1,803.22	86.0646	1,803.22	85.6691	1,803.22	84.6245	1,803.22	84.8789	1,803.22	83.4709	1,803.22	82.5419	1,803.22	82.7262	1,803.22	79.6276	1,803.22	80.893	1,803.22	79.3676	1,803.22	79.6791	1,803.22	79.5087	1,803.22	76.8569	1,803.22	74.8114	1,803.22	70.0199	1,803.22	72.1998	1,803.22	72.7871	1,803.22	76.4442	1,803.22	71.9227	1,803.22	76.8997	1,803.22	64.5153	1,803.22	66.9666	1,803.22	77.166	1,803.22	66.4887	1,803.22	77.4804	1,803.22	72.5692	1,803.22	59.7101	1,803.22	77.7011	1,803.22	70.5365	1,803.22	77.1112	1,803.22	74.9386	1,803.22	77.8979
1,866.21	86.1376	1,866.21	85.2495	1,866.21	86.6957	1,866.21	85.0178	1,866.21	85.4448	1,866.21	84.7147	1,866.21	83.5109	1,866.21	83.9457	1,866.21	82.8765	1,866.21	82.6557	1,866.21	81.552	1,866.21	80.6365	1,866.21	79.5233	1,866.21	79.0651	1,866.21	78.2425	1,866.21	79.7271	1,866.21	75.9205	1,866.21	76.9373	1,866.21	68.1672	1,866.21	72.7543	1,866.21	69.6912	1,866.21	75.8359	1,866.21	72.4695	1,866.21	76.0764	1,866.21	51.135	1,866.21	70.1745	1,866.21	75.5139	1,866.21	65.6579	1,866.21	75.9214	1,866.21	73.0117	1,866.21	58.8028	1,866.21	76.4669	1,866.21	71.7832	1,866.21	76.9917	1,866.21	76.3893	1,866.21	76.2676
1,932.13	86.0272	1,932.13	85.3046	1,932.13	86.1755	1,932.13	84.4639	1,932.13	84.6944	1,932.13	83.6338	1,932.13	82.8896	1,932.13	83.1965	1,932.13	81.8704	1,932.13	82.1682	1,932.13	80.9781	1,932.13	79.5422	1,932.13	78.6181	1,932.13	78.4404	1,932.13	76.7308	1,932.13	79.5204	1,932.13	76.0743	1,932.13	76.5668	1,932.13	69.3315	1,932.13	73.7378	1,932.13	68.0503	1,932.13	76.7748	1,932.13	72.4692	1,932.13	75.4886	1,932.13	61.1783	1,932.13	72.6604	1,932.13	74.3124	1,932.13	69.623	1,932.13	75.7192	1,932.13	74.5128	1,932.13	55.9031	1,932.13	75.7995	1,932.13	70.1286	1,932.13	77.7013	1,932.13	75.5629	1,932.13	76.9512
1,999.51	87.8552	1,999.51	86.4905	1,999.51	87.8516	1,999.51	85.2039	1,999.51	86.3165	1,999.51	84.2277	1,999.51	83.9953	1,999.51	83.5001	1,999.51	82.6107	1,999.51	82.9402	1,999.51	81.6673	1,999.51	81.0143	1,999.51	79.1986	1,999.51	78.9198	1,999.51	76.8445	1,999.51	79.6709	1,999.51	75.9955	1,999.51	77.7162	1,999.51	72.3282	1,999.51	70.7944	1,999.51	68.4826	1,999.51	75.2878	1,999.51	71.8074	1,999.51	72.752	1,999.51	66.3568	1,999.51	71.0217	1,999.51	73.161	1,999.51	71.0731	1,999.51	75.6543	1,999.51	76.5282	1,999.51	59.0931	1,999.51	76.0119	1,999.51	69.1809	1,999.51	77.6195	1,999.51	73.9948	1,999.51	76.8868
2,069.82	89.1076	2,069.82	88.2583	2,069.82	89.1144	2,069.82	86.4899	2,069.82	87.6002	2,069.82	84.9149	2,069.82	85.4403	2,069.82	84.2515	2,069.82	83.5081	2,069.82	84.59	2,069.82	82.8654	2,069.82	82.3357	2,069.82	79.9622	2,069.82	79.9561	2,069.82	77.7294	2,069.82	80.8851	2,069.82	76.4433	2,069.82	79.9971	2,069.82	73.2192	2,069.82	74.2698	2,069.82	70.8963	2,069.82	75.4944	2,069.82	74.5656	2,069.82	76.8772	2,069.82	66.7332	2,069.82	68.9508	2,069.82	74.0918	2,069.82	72.0256	2,069.82	77.1814	2,069.82	76.2457	2,069.82	60.0545	2,069.82	77.3976	2,069.82	71.7355	2,069.82	76.493	2,069.82	74.2153	2,069.82	78.1515
2,143.07	89.1179	2,143.07	88.2341	2,143.07	89.009	2,143.07	85.7469	2,143.07	87.4188	2,143.07	83.9304	2,143.07	85.3315	2,143.07	83.8091	2,143.07	82.9735	2,143.07	84.1756	2,143.07	82.3297	2,143.07	82.8599	2,143.07	80.7598	2,143.07	80.7631	2,143.07	77.0635	2,143.07	80.921	2,143.07	75.9977	2,143.07	80.347	2,143.07	72.8879	2,143.07	77.4309	2,143.07	69.1204	2,143.07	77.1289	2,143.07	74.4401	2,143.07	77.2695	2,143.07	54.719	2,143.07	68.0699	2,143.07	74.0147	2,143.07	74.8333	2,143.07	73.491	2,143.07	75.008	2,143.07	60.9586	2,143.07	77.7603	2,143.07	73.3281	2,143.07	78.4963	2,143.07	77.3637	2,143.07	77.3834
2,219.24	88.9657	2,219.24	87.2163	2,219.24	88.3809	2,219.24	84.2753	2,219.24	87.0009	2,219.24	82.7557	2,219.24	84.8117	2,219.24	82.8603	2,219.24	81.3873	2,219.24	84.9684	2,219.24	80.4492	2,219.24	84.3022	2,219.24	80.6561	2,219.24	81.1565	2,219.24	76.4606	2,219.24	81.067	2,219.24	76.2052	2,219.24	79.6132	2,219.24	74.6129	2,219.24	77.1019	2,219.24	67.3866	2,219.24	79.8131	2,219.24	75.8771	2,219.24	78.3316	2,219.24	68.6099	2,219.24	67.9644	2,219.24	76.4341	2,219.24	76.5078	2,219.24	76.7183	2,219.24	78.7769	2,219.24	69.7271	2,219.24	80.7953	2,219.24	75.9673	2,219.24	80.0219	2,219.24	79.5148	2,219.24	81.2813
2,296.88	89.2556	2,296.88	88.2539	2,296.88	88.5328	2,296.88	85.0754	2,296.88	87.512	2,296.88	83.2522	2,296.88	85.2547	2,296.88	83.1171	2,296.88	82.2674	2,296.88	84.3548	2,296.88	78.7094	2,296.88	85.0865	2,296.88	80.3547	2,296.88	82.025	2,296.88	78.6567	2,296.88	78.4208	2,296.88	75.3708	2,296.88	79.8259	2,296.88	77.2663	2,296.88	70.6738	2,296.88	68.6188	2,296.88	79.3669	2,296.88	77.83	2,296.88	77.6244	2,296.88	71.0969	2,296.88	65.2959	2,296.88	77.7251	2,296.88	77.8459	2,296.88	76.9511	2,296.88	76.8993	2,296.88	72.8142	2,296.88	79.3002	2,296.88	74.346	2,296.88	79.148	2,296.88	79.1953	2,296.88	80.0164
2,378.91	88.9374	2,378.91	88.1779	2,378.91	87.4666	2,378.91	84.6763	2,378.91	86.4298	2,378.91	83.4319	2,378.91	85.228	2,378.91	84.1715	2,378.91	81.1807	2,378.91	84.8553	2,378.91	76.8511	2,378.91	86.1053	2,378.91	79.7493	2,378.91	84.4991	2,378.91	79.3777	2,378.91	82.0327	2,378.91	76.4174	2,378.91	81.2832	2,378.91	76.9257	2,378.91	76.5258	2,378.91	69.7866	2,378.91	79.0495	2,378.91	77.0033	2,378.91	79.0628	2,378.91	72.4052	2,378.91	71.9964	2,378.91	77.0552	2,378.91	76.0867	2,378.91	73.8521	2,378.91	77.5101	2,378.91	73.733	2,378.91	79.2161	2,378.91	69.697	2,378.91	79.7488	2,378.91	79.5475	2,378.91	79.943
2,462.4	88.6288	2,462.4	87.1804	2,462.4	86.8856	2,462.4	82.8028	2,462.4	85.0919	2,462.4	82.3548	2,462.4	84.3963	2,462.4	85.163	2,462.4	80.7314	2,462.4	84.5855	2,462.4	69.9349	2,462.4	85.7798	2,462.4	78.6137	2,462.4	84.3909	2,462.4	81.0046	2,462.4	80.9612	2,462.4	77.8242	2,462.4	81.1845	2,462.4	77.5339	2,462.4	75.4905	2,462.4	71.5227	2,462.4	79.606	2,462.4	77.0453	2,462.4	79.597	2,462.4	74.7422	2,462.4	73.3817	2,462.4	76.3465	2,462.4	75.7411	2,462.4	71.5705	2,462.4	77.9931	2,462.4	75.0091	2,462.4	78.6709	2,462.4	71.2258	2,462.4	78.8946	2,462.4	80.2865	2,462.4	81.1629
2,548.83	89.5673	2,548.83	87.6316	2,548.83	88.4931	2,548.83	82.8139	2,548.83	85.1894	2,548.83	82.1589	2,548.83	84.5363	2,548.83	86.3274	2,548.83	80.5308	2,548.83	85.3324	2,548.83	69.8573	2,548.83	85.6478	2,548.83	79.8866	2,548.83	84.5214	2,548.83	82.6592	2,548.83	79.7643	2,548.83	80.1538	2,548.83	82.2903	2,548.83	80.0969	2,548.83	76.1034	2,548.83	77.1752	2,548.83	79.1894	2,548.83	77.1123	2,548.83	79.0449	2,548.83	77.599	2,548.83	74.592	2,548.83	77.5839	2,548.83	77.3254	2,548.83	74.512	2,548.83	78.4951	2,548.83	76.448	2,548.83	79.2742	2,548.83	71.2334	2,548.83	77.8649	2,548.83	77.111	2,548.83	80.9652
2,639.65	89.3719	2,639.65	85.963	2,639.65	88.4788	2,639.65	80.1021	2,639.65	84.3763	2,639.65	80.701	2,639.65	82.7731	2,639.65	86.1617	2,639.65	77.5938	2,639.65	86.4552	2,639.65	71.8146	2,639.65	84.7918	2,639.65	81.4167	2,639.65	85.243	2,639.65	83.1924	2,639.65	81.0224	2,639.65	81.5362	2,639.65	80.5595	2,639.65	78.5119	2,639.65	78.8886	2,639.65	78.4927	2,639.65	72.0788	2,639.65	76.3947	2,639.65	81.2019	2,639.65	79.3001	2,639.65	70.634	2,639.65	77.9758	2,639.65	70.8738	2,639.65	76.5436	2,639.65	79.8517	2,639.65	78.0038	2,639.65	78.7456	2,639.65	65.9441	2,639.65	79.674	2,639.65	79.496	2,639.65	80.6349
2,731.93	87.2732	2,731.93	84.109	2,731.93	87.2514	2,731.93	78.7052	2,731.93	82.8382	2,731.93	80.7922	2,731.93	79.8371	2,731.93	84.7382	2,731.93	74.5519	2,731.93	86.8141	2,731.93	75.4392	2,731.93	85.218	2,731.93	82.3525	2,731.93	85.1851	2,731.93	83.049	2,731.93	82.7287	2,731.93	81.344	2,731.93	78.8096	2,731.93	77.5589	2,731.93	79.2853	2,731.93	77.3396	2,731.93	75.2845	2,731.93	72.8222	2,731.93	79.3948	2,731.93	78.6505	2,731.93	77.367	2,731.93	63.8991	2,731.93	74.5845	2,731.93	76.3344	2,731.93	73.9179	2,731.93	74.9121	2,731.93	75.4543	2,731.93	61.6732	2,731.93	75.2883	2,731.93	76.2323	2,731.93	78.0846
2,828.61	87.1834	2,828.61	84.4786	2,828.61	86.8181	2,828.61	78.4697	2,828.61	83.4629	2,828.61	78.4798	2,828.61	78.0212	2,828.61	84.0764	2,828.61	68.8609	2,828.61	86.6731	2,828.61	79.8806	2,828.61	86.1218	2,828.61	84.7437	2,828.61	85.1074	2,828.61	84.3847	2,828.61	82.3612	2,828.61	82.6329	2,828.61	78.5969	2,828.61	79.6599	2,828.61	76.8063	2,828.61	76.8211	2,828.61	73.9623	2,828.61	76.0425	2,828.61	76.4755	2,828.61	77.0467	2,828.61	75.5967	2,828.61	71.3121	2,828.61	75.3749	2,828.61	76.2217	2,828.61	75.2461	2,828.61	72.6402	2,828.61	73.0917	2,828.61	65.228	2,828.61	70.3934	2,828.61	70.4163	2,828.61	75.079
2,928.22	85.9676	2,928.22	84.6399	2,928.22	86.7041	2,928.22	76.0259	2,928.22	81.6097	2,928.22	74.4771	2,928.22	71.5414	2,928.22	83.1664	2,928.22	63.2507	2,928.22	86.6051	2,928.22	81.895	2,928.22	85.8043	2,928.22	85.2903	2,928.22	83.9178	2,928.22	84.7146	2,928.22	81.855	2,928.22	82.3901	2,928.22	78.6128	2,928.22	79.4534	2,928.22	75.348	2,928.22	75.6246	2,928.22	74.7989	2,928.22	74.1386	2,928.22	73.552	2,928.22	75.7801	2,928.22	75.3463	2,928.22	72.6094	2,928.22	75.9464	2,928.22	75.4793	2,928.22	74.0513	2,928.22	71.406	2,928.22	67.9414	2,928.22	67.1209	2,928.22	67.6748	2,928.22	68.3342	2,928.22	72.7058
3,030.76	85.3312	3,030.76	84.2482	3,030.76	85.2073	3,030.76	77.0832	3,030.76	81.3533	3,030.76	70.4806	3,030.76	63.4731	3,030.76	82.9889	3,030.76	73.5585	3,030.76	86.1495	3,030.76	82.4961	3,030.76	85.091	3,030.76	85.3562	3,030.76	82.4933	3,030.76	84.1096	3,030.76	80.6511	3,030.76	81.3653	3,030.76	78.1813	3,030.76	78.4183	3,030.76	75.8265	3,030.76	75.294	3,030.76	75.6827	3,030.76	72.8953	3,030.76	73.6225	3,030.76	76.8136	3,030.76	74.7536	3,030.76	70.2802	3,030.76	77.2375	3,030.76	73.3653	3,030.76	73.9357	3,030.76	72.2592	3,030.76	64.8412	3,030.76	66.3536	3,030.76	58.9603	3,030.76	51.2698	3,030.76	69.9268
3,137.7	85.0147	3,137.7	84.6842	3,137.7	85.2983	3,137.7	77.4095	3,137.7	81.1437	3,137.7	74.9106	3,137.7	71.8463	3,137.7	84.3126	3,137.7	78.5398	3,137.7	86.854	3,137.7	85.0109	3,137.7	85.9818	3,137.7	86.0676	3,137.7	82.8695	3,137.7	84.8792	3,137.7	82.0998	3,137.7	82.2205	3,137.7	78.0674	3,137.7	79.5894	3,137.7	75.4158	3,137.7	76.6052	3,137.7	74.0743	3,137.7	73.6873	3,137.7	71.975	3,137.7	77.2794	3,137.7	75.4524	3,137.7	72.8178	3,137.7	77.8172	3,137.7	76.7686	3,137.7	73.9115	3,137.7	73.7472	3,137.7	62.943	3,137.7	65.6981	3,137.7	62.0315	3,137.7	63.1716	3,137.7	61.8313
3,249.02	84.5729	3,249.02	84.5244	3,249.02	85.7438	3,249.02	79.8345	3,249.02	82.0988	3,249.02	75.5346	3,249.02	77.7639	3,249.02	84.7036	3,249.02	81.4547	3,249.02	87.9567	3,249.02	86.0796	3,249.02	87.1031	3,249.02	86.6967	3,249.02	84.9619	3,249.02	85.3747	3,249.02	83.0378	3,249.02	82.8426	3,249.02	78.4608	3,249.02	80.3098	3,249.02	77.0211	3,249.02	75.9477	3,249.02	73.2393	3,249.02	75.4866	3,249.02	74.5096	3,249.02	76.4017	3,249.02	74.9546	3,249.02	73.4228	3,249.02	77.4256	3,249.02	78.3626	3,249.02	74.8917	3,249.02	75.2806	3,249.02	66.6325	3,249.02	54.5874	3,249.02	61.8429	3,249.02	65.2945	3,249.02	67.236
3,363.28	85.3378	3,363.28	84.1803	3,363.28	85.1853	3,363.28	81.9892	3,363.28	83.242	3,363.28	78.5205	3,363.28	80.8029	3,363.28	85.4309	3,363.28	82.1355	3,363.28	88.0861	3,363.28	85.9701	3,363.28	87.6509	3,363.28	87.2313	3,363.28	86.2737	3,363.28	85.9066	3,363.28	83.0078	3,363.28	83.9048	3,363.28	79.6744	3,363.28	80.9435	3,363.28	76.6597	3,363.28	77.9297	3,363.28	75.0515	3,363.28	76.7166	3,363.28	76.8008	3,363.28	75.9489	3,363.28	75.0967	3,363.28	74.5224	3,363.28	78.2561	3,363.28	76.6154	3,363.28	73.9464	3,363.28	74.6568	3,363.28	62.1919	3,363.28	65.0166	3,363.28	65.1163	3,363.28	57.009	3,363.28	68.5683
3,481.93	86.5328	3,481.93	84.0005	3,481.93	84.8725	3,481.93	83.0902	3,481.93	83.9296	3,481.93	81.1771	3,481.93	83.3771	3,481.93	84.5377	3,481.93	82.706	3,481.93	88.4316	3,481.93	86.3757	3,481.93	88.8662	3,481.93	88.4334	3,481.93	87.4868	3,481.93	87.5008	3,481.93	83.8054	3,481.93	85.9305	3,481.93	80.3404	3,481.93	82.1799	3,481.93	77.9878	3,481.93	79.771	3,481.93	75.7994	3,481.93	78.586	3,481.93	77.4601	3,481.93	78.2976	3,481.93	77.944	3,481.93	77.5718	3,481.93	78.1916	3,481.93	77.1458	3,481.93	73.1466	3,481.93	75.4826	3,481.93	57.8134	3,481.93	64.0743	3,481.93	60.0153	3,481.93	70.6442	3,481.93	65.6392
3,604.98	86.5462	3,604.98	84.1702	3,604.98	83.6271	3,604.98	85.065	3,604.98	84.6839	3,604.98	83.8893	3,604.98	85.2086	3,604.98	83.9053	3,604.98	81.7853	3,604.98	87.5715	3,604.98	85.1033	3,604.98	89.6594	3,604.98	88.9345	3,604.98	88.2073	3,604.98	88.3549	3,604.98	84.3578	3,604.98	85.7168	3,604.98	81.399	3,604.98	81.6709	3,604.98	78.8597	3,604.98	80.0766	3,604.98	76.5228	3,604.98	77.7677	3,604.98	79.0194	3,604.98	78.3222	3,604.98	77.9201	3,604.98	78.4749	3,604.98	78.0005	3,604.98	77.7601	3,604.98	71.9155	3,604.98	75.2963	3,604.98	60.6865	3,604.98	56.7446	3,604.98	67.2948	3,604.98	71.416	3,604.98	63.2121
3,732.42	86.3639	3,732.42	83.8053	3,732.42	84.6249	3,732.42	85.6359	3,732.42	84.2885	3,732.42	84.1672	3,732.42	85.5372	3,732.42	83.6827	3,732.42	81.7909	3,732.42	86.855	3,732.42	84.6114	3,732.42	89.2103	3,732.42	89.2207	3,732.42	87.3839	3,732.42	88.6195	3,732.42	83.1779	3,732.42	85.3608	3,732.42	79.9465	3,732.42	81.6207	3,732.42	77.5251	3,732.42	79.4881	3,732.42	76.0561	3,732.42	77.3385	3,732.42	78.8184	3,732.42	78.3534	3,732.42	77.3719	3,732.42	78.6396	3,732.42	76.2498	3,732.42	77.4582	3,732.42	69.4391	3,732.42	75.8652	3,732.42	64.4586	3,732.42	64.1259	3,732.42	69.5799	3,732.42	70.6314	3,732.42	60.7767
3,864.26	86.6212	3,864.26	85.1531	3,864.26	84.8578	3,864.26	85.9322	3,864.26	84.8984	3,864.26	85.3398	3,864.26	85.8099	3,864.26	83.5762	3,864.26	82.6928	3,864.26	86.7793	3,864.26	85.1752	3,864.26	88.7443	3,864.26	88.9361	3,864.26	86.787	3,864.26	88.1645	3,864.26	82.5394	3,864.26	85.3644	3,864.26	79.2264	3,864.26	81.2292	3,864.26	76.9788	3,864.26	77.4835	3,864.26	77.0336	3,864.26	74.3882	3,864.26	76.8327	3,864.26	76.9268	3,864.26	76.4531	3,864.26	78.0052	3,864.26	76.247	3,864.26	76.3474	3,864.26	67.826	3,864.26	74.2499	3,864.26	69.9124	3,864.26	65.9971	3,864.26	69.5022	3,864.26	70.144	3,864.26	55.4756
4,000.49	85.6848	4,000.49	85.5009	4,000.49	86.3807	4,000.49	86.3542	4,000.49	84.8809	4,000.49	86.0982	4,000.49	85.9024	4,000.49	83.9944	4,000.49	83.9445	4,000.49	85.7439	4,000.49	84.4323	4,000.49	86.7864	4,000.49	87.7651	4,000.49	84.2965	4,000.49	86.7508	4,000.49	82.1787	4,000.49	82.7911	4,000.49	78.0043	4,000.49	80.9674	4,000.49	76.3296	4,000.49	75.8336	4,000.49	75.7819	4,000.49	72.5132	4,000.49	76.4238	4,000.49	75.0773	4,000.49	77.2098	4,000.49	76.4089	4,000.49	75.413	4,000.49	76.5987	4,000.49	66.2541	4,000.49	71.0642	4,000.49	69.447	4,000.49	66.2843	4,000.49	65.2011	4,000.49	70.6242	4,000.49	56.6935
4,141.11	84.9936	4,141.11	86.0362	4,141.11	86.6391	4,141.11	85.8176	4,141.11	85.0477	4,141.11	86.6495	4,141.11	85.8318	4,141.11	84.2035	4,141.11	85.0434	4,141.11	85.1136	4,141.11	84.4143	4,141.11	85.4435	4,141.11	85.8275	4,141.11	83.748	4,141.11	84.7123	4,141.11	82.3304	4,141.11	82.8296	4,141.11	77.8703	4,141.11	79.8536	4,141.11	76.1858	4,141.11	76.3874	4,141.11	74.7546	4,141.11	74.104	4,141.11	74.8175	4,141.11	73.8242	4,141.11	75.4934	4,141.11	74.3963	4,141.11	74.8626	4,141.11	75.022	4,141.11	67.2251	4,141.11	71.2616	4,141.11	69.0181	4,141.11	59.3782	4,141.11	67.7651	4,141.11	68.4227	4,141.11	61.9553
4,287.6	84.991	4,287.6	85.7873	4,287.6	87.4453	4,287.6	84.8531	4,287.6	85.3472	4,287.6	87.0075	4,287.6	86.2898	4,287.6	82.4822	4,287.6	85.277	4,287.6	83.4941	4,287.6	82.9184	4,287.6	84.3466	4,287.6	84.3168	4,287.6	84.3101	4,287.6	84.0765	4,287.6	81.3876	4,287.6	82.0623	4,287.6	78.2182	4,287.6	79.0411	4,287.6	74.8828	4,287.6	76.4719	4,287.6	73.66	4,287.6	75.6329	4,287.6	74.4212	4,287.6	70.459	4,287.6	74.7845	4,287.6	74.4304	4,287.6	74.4791	4,287.6	74.4389	4,287.6	65.6464	4,287.6	72.0941	4,287.6	70.1002	4,287.6	65.1018	4,287.6	67.7321	4,287.6	63.2413	4,287.6	59.7243
4,438.48	84.463	4,438.48	84.3425	4,438.48	86.3541	4,438.48	84.6031	4,438.48	84.5399	4,438.48	86.0755	4,438.48	86.2731	4,438.48	80.3277	4,438.48	84.7439	4,438.48	81.6233	4,438.48	78.7097	4,438.48	84.0994	4,438.48	82.5089	4,438.48	84.3376	4,438.48	83.8944	4,438.48	80.9706	4,438.48	81.2728	4,438.48	78.1969	4,438.48	78.3796	4,438.48	74.6051	4,438.48	73.3358	4,438.48	72.7385	4,438.48	73.0911	4,438.48	73.492	4,438.48	70.6033	4,438.48	73.2197	4,438.48	74.9508	4,438.48	71.9506	4,438.48	75.2999	4,438.48	50.2155	4,438.48	69.1537	4,438.48	67.5355	4,438.48	66.3768	4,438.48	65.5302	4,438.48	63.7061	4,438.48	49.6814
4,595.21	83.7835	4,595.21	84.2542	4,595.21	84.3439	4,595.21	83.9214	4,595.21	84.5719	4,595.21	85.5215	4,595.21	86.2021	4,595.21	80.2058	4,595.21	84.2627	4,595.21	78.7926	4,595.21	78.646	4,595.21	82.6614	4,595.21	81.8181	4,595.21	82.2742	4,595.21	83.6032	4,595.21	79.5167	4,595.21	81.9958	4,595.21	75.134	4,595.21	77.5345	4,595.21	68.3287	4,595.21	74.0769	4,595.21	72.5065	4,595.21	70.9696	4,595.21	71.8973	4,595.21	73.2379	4,595.21	72.746	4,595.21	73.861	4,595.21	73.0044	4,595.21	73.9663	4,595.21	61.4759	4,595.21	66.9782	4,595.21	66.8635	4,595.21	64.0142	4,595.21	59.4427	4,595.21	60.9972	4,595.21	51.8966
4,756.35	82.5061	4,756.35	81.9986	4,756.35	80.6078	4,756.35	81.287	4,756.35	82.9485	4,756.35	83.6336	4,756.35	84.7743	4,756.35	81.2979	4,756.35	82.5963	4,756.35	77.7822	4,756.35	75.8357	4,756.35	82.1261	4,756.35	81.1056	4,756.35	81.6389	4,756.35	81.4046	4,756.35	77.9259	4,756.35	79.7073	4,756.35	75.589	4,756.35	74.8157	4,756.35	70.3341	4,756.35	72.2169	4,756.35	71.4483	4,756.35	70.1831	4,756.35	70.9905	4,756.35	68.9582	4,756.35	74.4353	4,756.35	72.9283	4,756.35	70.1195	4,756.35	71.531	4,756.35	55.8608	4,756.35	66.9018	4,756.35	66.3301	4,756.35	63.8849	4,756.35	60.419	4,756.35	54.3479	4,756.35	54.7241
4,924.8	84.4164	4,924.8	81.8726	4,924.8	83.6283	4,924.8	83.9872	4,924.8	83.2683	4,924.8	84.6993	4,924.8	85.224	4,924.8	83.4089	4,924.8	83.1794	4,924.8	79.198	4,924.8	77.4352	4,924.8	81.8769	4,924.8	82.1873	4,924.8	80.9223	4,924.8	83.2013	4,924.8	79.182	4,924.8	80.1669	4,924.8	74.3922	4,924.8	76.4641	4,924.8	73.4093	4,924.8	71.5653	4,924.8	68.7419	4,924.8	69.5465	4,924.8	70.8356	4,924.8	69.9109	4,924.8	73.6439	4,924.8	71.7331	4,924.8	69.6617	4,924.8	70.6241	4,924.8	60.0826	4,924.8	63.8524	4,924.8	67.1025	4,924.8	64.8643	4,924.8	58.7332	4,924.8	62.3624	4,924.8	48.7009
5,097.66	85.5219	5,097.66	82.498	5,097.66	84.719	5,097.66	85.5085	5,097.66	84.2995	5,097.66	84.4757	5,097.66	84.2983	5,097.66	82.4111	5,097.66	85.1942	5,097.66	78.8912	5,097.66	80.5473	5,097.66	82.1436	5,097.66	82.4561	5,097.66	81.4975	5,097.66	83.2426	5,097.66	80.4828	5,097.66	80.7525	5,097.66	74.3695	5,097.66	78.3352	5,097.66	74.2602	5,097.66	72.8847	5,097.66	67.5771	5,097.66	68.8988	5,097.66	71.7539	5,097.66	69.1175	5,097.66	73.135	5,097.66	71.2253	5,097.66	69.2878	5,097.66	71.1478	5,097.66	59.5114	5,097.66	62.4247	5,097.66	68.2146	5,097.66	65.6679	5,097.66	60.6906	5,097.66	63.978	5,097.66	56.2867
5,277.83	86.5931	5,277.83	85.2817	5,277.83	84.2956	5,277.83	86.23	5,277.83	86.2118	5,277.83	86.1579	5,277.83	83.7001	5,277.83	84.3074	5,277.83	87.4833	5,277.83	78.0766	5,277.83	83.4553	5,277.83	84.495	5,277.83	82.9762	5,277.83	84.9583	5,277.83	84.2307	5,277.83	82.0362	5,277.83	83.1194	5,277.83	76.5355	5,277.83	79.4798	5,277.83	66.6238	5,277.83	75.3002	5,277.83	70.2559	5,277.83	72.9243	5,277.83	71.1841	5,277.83	71.8327	5,277.83	72.5423	5,277.83	74.2512	5,277.83	71.3706	5,277.83	73.8798	5,277.83	63.9879	5,277.83	63.0982	5,277.83	69.2193	5,277.83	67.1217	5,277.83	63.7456	5,277.83	56.8747	5,277.83	57.8001
5,463.87	86.9983	5,463.87	86.2343	5,463.87	85.5503	5,463.87	83.402	5,463.87	86.7936	5,463.87	86.4939	5,463.87	85.3852	5,463.87	85.2661	5,463.87	88.2413	5,463.87	78.427	5,463.87	83.7423	5,463.87	83.7913	5,463.87	83.5287	5,463.87	84.1795	5,463.87	84.7913	5,463.87	80.2062	5,463.87	82.7312	5,463.87	78.0551	5,463.87	79.7518	5,463.87	71.0185	5,463.87	75.6136	5,463.87	74.4303	5,463.87	73.77	5,463.87	75.5151	5,463.87	70.6519	5,463.87	72.6658	5,463.87	74.959	5,463.87	72.5741	5,463.87	73.2263	5,463.87	65.5467	5,463.87	62.0299	5,463.87	65.9146	5,463.87	68.25	5,463.87	58.7236	5,463.87	59.0675	5,463.87	56.0677
5,657.23	86.9801	5,657.23	87.0035	5,657.23	87.8334	5,657.23	83.963	5,657.23	85.8256	5,657.23	87.2369	5,657.23	87.3791	5,657.23	86.5332	5,657.23	88.0025	5,657.23	80.8457	5,657.23	82.9236	5,657.23	84.5274	5,657.23	82.7259	5,657.23	84.6206	5,657.23	86.0732	5,657.23	82.2732	5,657.23	83.2842	5,657.23	80.2675	5,657.23	80.628	5,657.23	78.0009	5,657.23	76.9427	5,657.23	73.5385	5,657.23	72.0864	5,657.23	74.6787	5,657.23	71.8017	5,657.23	73.3194	5,657.23	74.3446	5,657.23	64.0152	5,657.23	73.6553	5,657.23	69.8241	5,657.23	65.959	5,657.23	68.4116	5,657.23	70.1656	5,657.23	60.8729	5,657.23	56.7968	5,657.23	57.7169
5,856.45	87.1978	5,856.45	87.0628	5,856.45	88.2234	5,856.45	86.4723	5,856.45	84.9999	5,856.45	87.1671	5,856.45	86.7279	5,856.45	87.8054	5,856.45	87.048	5,856.45	82.4809	5,856.45	84.3699	5,856.45	83.8728	5,856.45	79.9234	5,856.45	83.9786	5,856.45	85.3312	5,856.45	82.7538	5,856.45	83.9998	5,856.45	77.4282	5,856.45	80.5472	5,856.45	76.8064	5,856.45	77.1279	5,856.45	71.0859	5,856.45	71.5376	5,856.45	73.3882	5,856.45	71.9647	5,856.45	72.5068	5,856.45	74.1386	5,856.45	58.3029	5,856.45	72.1683	5,856.45	65.4628	5,856.45	64.366	5,856.45	61.9439	5,856.45	67.9612	5,856.45	59.9726	5,856.45	53.903	5,856.45	53.491
6,062.99	87.1614	6,062.99	86.8223	6,062.99	87.0621	6,062.99	86.2642	6,062.99	85.7474	6,062.99	86.6811	6,062.99	85.1019	6,062.99	87.4735	6,062.99	86.6234	6,062.99	82.5386	6,062.99	85.17	6,062.99	83.4483	6,062.99	79.5844	6,062.99	84.0728	6,062.99	84.734	6,062.99	82.3279	6,062.99	84.4953	6,062.99	76.0828	6,062.99	79.519	6,062.99	76.8962	6,062.99	75.1732	6,062.99	72.7146	6,062.99	69.0919	6,062.99	71.9958	6,062.99	74.55	6,062.99	72.3005	6,062.99	74.3194	6,062.99	61.6161	6,062.99	71.1759	6,062.99	62.1169	6,062.99	65.5725	6,062.99	65.9037	6,062.99	68.7532	6,062.99	55.3534	6,062.99	56.953	6,062.99	61.0648
6,276.86	87.2788	6,276.86	86.6181	6,276.86	86.101	6,276.86	85.391	6,276.86	86.2415	6,276.86	85.6613	6,276.86	85.0892	6,276.86	86.582	6,276.86	86.7926	6,276.86	81.8926	6,276.86	85.5537	6,276.86	83.1119	6,276.86	81.6224	6,276.86	84.8976	6,276.86	85.5575	6,276.86	81.2751	6,276.86	82.8952	6,276.86	78.1421	6,276.86	80.0851	6,276.86	71.829	6,276.86	73.1298	6,276.86	70.7083	6,276.86	72.4962	6,276.86	68.563	6,276.86	72.5577	6,276.86	71.5704	6,276.86	71.337	6,276.86	60.0938	6,276.86	71.2692	6,276.86	62.3037	6,276.86	61.127	6,276.86	63.1242	6,276.86	68.8113	6,276.86	50.5261	6,276.86	59.7622	6,276.86	60.1531
6,498.05	85.8729	6,498.05	85.0239	6,498.05	85.9693	6,498.05	84.441	6,498.05	84.6475	6,498.05	83.612	6,498.05	84.8117	6,498.05	85.8794	6,498.05	85.2675	6,498.05	82.1561	6,498.05	83.9449	6,498.05	81.3967	6,498.05	80.026	6,498.05	84.7536	6,498.05	84.2602	6,498.05	80.5185	6,498.05	81.0934	6,498.05	78.297	6,498.05	79.1982	6,498.05	67.4196	6,498.05	73.3683	6,498.05	70.1781	6,498.05	70.3092	6,498.05	68.8703	6,498.05	70.7215	6,498.05	69.0672	6,498.05	68.0822	6,498.05	59.4562	6,498.05	67.096	6,498.05	63.6492	6,498.05	54.4376	6,498.05	64.5261	6,498.05	66.2193	6,498.05	59.7123	6,498.05	58.4829	6,498.05	56.2482
6,726.56	85.5654	6,726.56	84.2483	6,726.56	84.7074	6,726.56	85.4388	6,726.56	83.9745	6,726.56	82.8496	6,726.56	83.1012	6,726.56	86.4749	6,726.56	84.1659	6,726.56	82.8364	6,726.56	84.1023	6,726.56	80.4001	6,726.56	77.6129	6,726.56	83.3642	6,726.56	81.744	6,726.56	80.8628	6,726.56	80.9903	6,726.56	75.2623	6,726.56	77.6768	6,726.56	72.1581	6,726.56	72.6114	6,726.56	69.8675	6,726.56	69.5119	6,726.56	71.358	6,726.56	71.1894	6,726.56	66.7718	6,726.56	66.2495	6,726.56	64.3978	6,726.56	64.5336	6,726.56	63.7032	6,726.56	58.2821	6,726.56	61.7221	6,726.56	67.7314	6,726.56	59.4054	6,726.56	43.7148	6,726.56	59.3497
6,963.87	85.4923	6,963.87	84.458	6,963.87	82.729	6,963.87	84.8271	6,963.87	84.6015	6,963.87	82.9929	6,963.87	81.6247	6,963.87	85.7126	6,963.87	84.526	6,963.87	82.0984	6,963.87	85.2029	6,963.87	77.8635	6,963.87	78.4515	6,963.87	79.8419	6,963.87	79.9316	6,963.87	77.7338	6,963.87	80.5169	6,963.87	72.1431	6,963.87	75.9033	6,963.87	70.0547	6,963.87	72.1122	6,963.87	65.4651	6,963.87	67.2542	6,963.87	67.4296	6,963.87	63.8825	6,963.87	63.8556	6,963.87	61.1393	6,963.87	54.3814	6,963.87	63.4688	6,963.87	53.6731	6,963.87	48.6755	6,963.87	62.064	6,963.87	61.5677	6,963.87	59.5213	6,963.87	45.9419	6,963.87	57.9907
7,209.96	84.6186	7,209.96	84.0681	7,209.96	84.0219	7,209.96	82.7114	7,209.96	84.0275	7,209.96	82.2408	7,209.96	82.6922	7,209.96	83.7463	7,209.96	83.2384	7,209.96	81.9756	7,209.96	84.4458	7,209.96	75.8152	7,209.96	79.0203	7,209.96	76.8405	7,209.96	79.9715	7,209.96	74.666	7,209.96	78.7758	7,209.96	73.5492	7,209.96	73.3175	7,209.96	68.5604	7,209.96	71.5166	7,209.96	63.7378	7,209.96	64.6551	7,209.96	62.1869	7,209.96	63.5262	7,209.96	65.2457	7,209.96	67.4537	7,209.96	51.3927	7,209.96	63.4868	7,209.96	57.8577	7,209.96	59.5236	7,209.96	62.5995	7,209.96	61.3937	7,209.96	60.7403	7,209.96	51.7598	7,209.96	56.9031
7,464.84	84.3325	7,464.84	84.0091	7,464.84	85.3442	7,464.84	82.6367	7,464.84	82.6314	7,464.84	83.3746	7,464.84	83.5146	7,464.84	83.5095	7,464.84	82.1447	7,464.84	82.3459	7,464.84	82.8067	7,464.84	74.3021	7,464.84	77.6473	7,464.84	79.8283	7,464.84	78.1592	7,464.84	76.0666	7,464.84	77.3499	7,464.84	75.9633	7,464.84	73.6615	7,464.84	66.3647	7,464.84	68.3729	7,464.84	61.1103	7,464.84	61.5039	7,464.84	52.7576	7,464.84	62.4727	7,464.84	59.7311	7,464.84	66.9731	7,464.84	61.3341	7,464.84	65.0238	7,464.84	58.4756	7,464.84	56.0998	7,464.84	57.6005	7,464.84	60.952	7,464.84	61.0808	7,464.84	58.5257	7,464.84	52.8045
7,727.05	85.3628	7,727.05	84.6685	7,727.05	85.4849	7,727.05	83.8146	7,727.05	82.9166	7,727.05	83.2864	7,727.05	83.1184	7,727.05	83.8003	7,727.05	82.731	7,727.05	81.4245	7,727.05	82.72	7,727.05	73.0905	7,727.05	76.7765	7,727.05	80.2365	7,727.05	76.7806	7,727.05	77.5292	7,727.05	77.3201	7,727.05	76.2683	7,727.05	74.1727	7,727.05	67.3683	7,727.05	65.924	7,727.05	60.9253	7,727.05	62.5647	7,727.05	60.6878	7,727.05	63.3803	7,727.05	61.8656	7,727.05	66.77	7,727.05	56.4686	7,727.05	62.8622	7,727.05	56.7908	7,727.05	52.9673	7,727.05	54.3421	7,727.05	57.0368	7,727.05	59.2632	7,727.05	50.5447	7,727.05	52.881
7,999.51	85.4686	7,999.51	84.7896	7,999.51	84.8169	7,999.51	84.3562	7,999.51	83.6976	7,999.51	82.1995	7,999.51	82.2077	7,999.51	83.5898	7,999.51	82.062	7,999.51	80.039	7,999.51	82.19	7,999.51	76.0159	7,999.51	77.5292	7,999.51	78.9689	7,999.51	76.3009	7,999.51	76.7248	7,999.51	74.7912	7,999.51	73.539	7,999.51	73.0607	7,999.51	67.4385	7,999.51	68.8934	7,999.51	63.3528	7,999.51	64.9631	7,999.51	63.5254	7,999.51	63.4048	7,999.51	64.1721	7,999.51	62.6853	7,999.51	56.6971	7,999.51	61.0329	7,999.51	48.6182	7,999.51	51.0364	7,999.51	54.2971	7,999.51	54.7437	7,999.51	55.7733	7,999.51	41.2703	7,999.51	48.4269
8,282.23	85.1311	8,282.23	84.0862	8,282.23	84.7828	8,282.23	83.9194	8,282.23	83.3911	8,282.23	81.3941	8,282.23	82.4291	8,282.23	81.7351	8,282.23	80.7142	8,282.23	80.7515	8,282.23	80.5625	8,282.23	75.4981	8,282.23	77.7342	8,282.23	78.7735	8,282.23	74.6581	8,282.23	77.1628	8,282.23	76.3055	8,282.23	70.067	8,282.23	74.0384	8,282.23	67.0776	8,282.23	70.5889	8,282.23	66.4543	8,282.23	67.1169	8,282.23	61.5261	8,282.23	62.3019	8,282.23	64.7459	8,282.23	64.1173	8,282.23	57.6378	8,282.23	59.6552	8,282.23	47.9719	8,282.23	49.5351	8,282.23	50.7565	8,282.23	49.0091	8,282.23	55.7317	8,282.23	42.8705	8,282.23	38.5079
8,573.73	85.2562	8,573.73	83.9612	8,573.73	84.6816	8,573.73	84.0655	8,573.73	84.1481	8,573.73	82.0113	8,573.73	83.5305	8,573.73	80.175	8,573.73	79.9038	8,573.73	81.968	8,573.73	80.4108	8,573.73	76.0134	8,573.73	79.0759	8,573.73	78.2924	8,573.73	75.5915	8,573.73	77.3368	8,573.73	77.7571	8,573.73	66.8354	8,573.73	73.8144	8,573.73	68.1757	8,573.73	71.0358	8,573.73	65.4957	8,573.73	65.3386	8,573.73	63.0771	8,573.73	61.6545	8,573.73	62.4323	8,573.73	64.2794	8,573.73	54.3655	8,573.73	57.8412	8,573.73	41.5851	8,573.73	48.332	8,573.73	52.7021	8,573.73	53.894	8,573.73	53.6018	8,573.73	49.5259	8,573.73	41.8508
8,876.95	85.4392	8,876.95	84.4373	8,876.95	84.4847	8,876.95	84.1138	8,876.95	84.8424	8,876.95	81.1463	8,876.95	83.0305	8,876.95	80.5058	8,876.95	80.1788	8,876.95	81.603	8,876.95	81.9758	8,876.95	78.127	8,876.95	79.6359	8,876.95	75.6085	8,876.95	75.5048	8,876.95	75.6162	8,876.95	76.0462	8,876.95	68.969	8,876.95	70.9553	8,876.95	67.2518	8,876.95	69.9175	8,876.95	62.5989	8,876.95	62.9853	8,876.95	62.2037	8,876.95	57.9411	8,876.95	59.2622	8,876.95	63.0904	8,876.95	53.3063	8,876.95	54.9817	8,876.95	51.6299	8,876.95	47.6738	8,876.95	51.1656	8,876.95	57.1268	8,876.95	52.0079	8,876.95	52.1191	8,876.95	48.1945
9,188.96	84.6261	9,188.96	84.9873	9,188.96	85.4972	9,188.96	83.4309	9,188.96	84.649	9,188.96	80.8794	9,188.96	82.5151	9,188.96	80.7894	9,188.96	79.8995	9,188.96	80.4814	9,188.96	81.5903	9,188.96	78.3445	9,188.96	79.1138	9,188.96	74.9548	9,188.96	75.2856	9,188.96	75.0765	9,188.96	75.4071	9,188.96	70.58	9,188.96	71.37	9,188.96	66.1938	9,188.96	68.8549	9,188.96	59.3996	9,188.96	62.694	9,188.96	57.6677	9,188.96	58.8536	9,188.96	58.1204	9,188.96	64.1653	9,188.96	50.6651	9,188.96	51.9568	9,188.96	53.0475	9,188.96	46.1821	9,188.96	53.2355	9,188.96	56.5164	9,188.96	55.8712	9,188.96	52.6387	9,188.96	46.9345
9,514.16	84.0813	9,514.16	85.1951	9,514.16	85.5015	9,514.16	83.7581	9,514.16	84.8621	9,514.16	81.7843	9,514.16	83.1212	9,514.16	80.3339	9,514.16	79.6079	9,514.16	80.7063	9,514.16	80.0334	9,514.16	78.0261	9,514.16	77.9313	9,514.16	75.515	9,514.16	73.7963	9,514.16	74.3965	9,514.16	75.5243	9,514.16	69.5953	9,514.16	70.8297	9,514.16	64.6066	9,514.16	66.4651	9,514.16	60.1028	9,514.16	59.0243	9,514.16	58.7298	9,514.16	59.3365	9,514.16	60.6959	9,514.16	65.7498	9,514.16	53.5098	9,514.16	43.2079	9,514.16	52.192	9,514.16	50.3867	9,514.16	49.6941	9,514.16	55.6477	9,514.16	49.1605	9,514.16	49.0903	9,514.16	37.6615
9,849.61	84.5749	9,849.61	85.487	9,849.61	85.5662	9,849.61	83.9555	9,849.61	84.7559	9,849.61	82.3637	9,849.61	83.1412	9,849.61	80.3697	9,849.61	80.8841	9,849.61	80.2053	9,849.61	80.2026	9,849.61	76.91	9,849.61	78.6769	9,849.61	74.0381	9,849.61	73.4035	9,849.61	72.8959	9,849.61	74.3777	9,849.61	67.8114	9,849.61	69.7948	9,849.61	60.0618	9,849.61	66.1585	9,849.61	61.0087	9,849.61	56.7709	9,849.61	59.964	9,849.61	51.6858	9,849.61	61.6467	9,849.61	62.768	9,849.61	55.694	9,849.61	47.5465	9,849.61	50.4242	9,849.61	50.0557	9,849.61	49.331	9,849.61	55.3095	9,849.61	39.8195	9,849.61	36.738	9,849.61	41.4064
10,196.8	85.5398	10,196.8	85.4955	10,196.8	85.5657	10,196.8	85.2893	10,196.8	85.4172	10,196.8	83.0744	10,196.8	83.3405	10,196.8	81.5903	10,196.8	80.85	10,196.8	80.1376	10,196.8	79.5486	10,196.8	77.3348	10,196.8	77.0069	10,196.8	73.2427	10,196.8	71.8574	10,196.8	73.9111	10,196.8	71.538	10,196.8	69.936	10,196.8	67.056	10,196.8	63.4127	10,196.8	61.923	10,196.8	62.3699	10,196.8	59.4327	10,196.8	58.9986	10,196.8	51.2986	10,196.8	60.144	10,196.8	63.1519	10,196.8	53.9261	10,196.8	50.1117	10,196.8	48.5278	10,196.8	42.8931	10,196.8	41.9338	10,196.8	54.3873	10,196.8	34.0278	10,196.8	21.1687	10,196.8	39.8902
10,555.7	86.6007	10,555.7	86.1575	10,555.7	86.1549	10,555.7	85.8218	10,555.7	86.0003	10,555.7	83.679	10,555.7	83.9896	10,555.7	81.4951	10,555.7	81.9607	10,555.7	80.2233	10,555.7	78.5804	10,555.7	76.7144	10,555.7	76.2615	10,555.7	73.4992	10,555.7	68.967	10,555.7	74.4457	10,555.7	71.0837	10,555.7	69.6638	10,555.7	68.441	10,555.7	64.6404	10,555.7	61.7728	10,555.7	63.7683	10,555.7	59.8327	10,555.7	60.7136	10,555.7	54.888	10,555.7	61.2605	10,555.7	64.418	10,555.7	55.8883	10,555.7	50.1259	10,555.7	45.7089	10,555.7	44.7486	10,555.7	33.4456	10,555.7	54.3253	10,555.7	39.931	10,555.7	47.6482	10,555.7	42.2197
10,927.7	86.423	10,927.7	86.2275	10,927.7	86.1445	10,927.7	85.2837	10,927.7	85.1718	10,927.7	83.7635	10,927.7	84.0488	10,927.7	81.1366	10,927.7	82.2056	10,927.7	80.1797	10,927.7	78.67	10,927.7	76.3497	10,927.7	75.2138	10,927.7	73.5345	10,927.7	70.4724	10,927.7	74.1035	10,927.7	72.0222	10,927.7	69.2135	10,927.7	68.6858	10,927.7	61.9665	10,927.7	65.1126	10,927.7	62.641	10,927.7	58.6546	10,927.7	60.3179	10,927.7	57.356	10,927.7	57.7177	10,927.7	63.8781	10,927.7	54.7004	10,927.7	50.7378	10,927.7	45.1122	10,927.7	49.9836	10,927.7	33.1869	10,927.7	56.0343	10,927.7	38.5428	10,927.7	47.8356	10,927.7	44.8505
11,313	86.804	11,313	86.0035	11,313	86.0014	11,313	85.5096	11,313	84.9365	11,313	83.4387	11,313	83.5149	11,313	81.9107	11,313	82.13	11,313	78.8633	11,313	78.438	11,313	77.0832	11,313	75.2967	11,313	72.7101	11,313	70.351	11,313	71.3715	11,313	69.4157	11,313	68.5698	11,313	66.3597	11,313	61.4059	11,313	62.2132	11,313	60.0809	11,313	57.2221	11,313	58.8899	11,313	53.117	11,313	48.237	11,313	59.8516	11,313	51.7696	11,313	51.4666	11,313	41.8222	11,313	48.0299	11,313	47.6021	11,313	49.5278	11,313	46.5907	11,313	49.9176	11,313	37.7175
11,712.9	86.6772	11,712.9	85.4722	11,712.9	85.6751	11,712.9	84.5546	11,712.9	84.2258	11,712.9	82.7884	11,712.9	83.2519	11,712.9	81.3007	11,712.9	82.3305	11,712.9	77.9538	11,712.9	77.372	11,712.9	75.6874	11,712.9	75.9746	11,712.9	70.0777	11,712.9	71.2166	11,712.9	70.5401	11,712.9	66.91	11,712.9	66.567	11,712.9	65.9519	11,712.9	57.4638	11,712.9	59.1889	11,712.9	60.0457	11,712.9	54.6979	11,712.9	54.9929	11,712.9	50.1664	11,712.9	54.7259	11,712.9	60.6828	11,712.9	52.9664	11,712.9	49.1532	11,712.9	29.6973	11,712.9	47.1294	11,712.9	52.2737	11,712.9	50.454	11,712.9	46.5099	11,712.9	42.5566	11,712.9	31.6763
12,126	86.2899	12,126	85.0419	12,126	85.4663	12,126	83.1979	12,126	83.807	12,126	82.0826	12,126	82.8748	12,126	80.2327	12,126	80.638	12,126	77.0491	12,126	78.4757	12,126	74.2653	12,126	76.0137	12,126	69.5276	12,126	71.3668	12,126	66.5682	12,126	63.382	12,126	63.4838	12,126	63.3689	12,126	55.2967	12,126	58.106	12,126	54.701	12,126	53.072	12,126	54.962	12,126	38.9068	12,126	52.5457	12,126	56.8478	12,126	50.8633	12,126	49.4767	12,126	25.9898	12,126	49.4056	12,126	50.6985	12,126	51.6504	12,126	47.5831	12,126	39.0497	12,126	42.1744
12,553.7	86.1424	12,553.7	84.614	12,553.7	85.0792	12,553.7	83.0937	12,553.7	84.0103	12,553.7	81.5312	12,553.7	83.1665	12,553.7	79.3988	12,553.7	80.1005	12,553.7	75.8192	12,553.7	78.5399	12,553.7	74.183	12,553.7	76.8047	12,553.7	68.6396	12,553.7	71.191	12,553.7	65.9274	12,553.7	66.1088	12,553.7	62.6803	12,553.7	64.3407	12,553.7	55.1464	12,553.7	58.8253	12,553.7	56.4568	12,553.7	52.4558	12,553.7	44.8001	12,553.7	39.2868	12,553.7	48.9787	12,553.7	56.2783	12,553.7	44.2551	12,553.7	45.2147	12,553.7	38.5574	12,553.7	48.5341	12,553.7	52.5125	12,553.7	50.5053	12,553.7	49.5018	12,553.7	43.6878	12,553.7	43.5421
12,996.1	85.9588	12,996.1	84.5373	12,996.1	84.8313	12,996.1	83.253	12,996.1	84.3899	12,996.1	81.1511	12,996.1	82.6161	12,996.1	78.6829	12,996.1	79.1992	12,996.1	75.7754	12,996.1	78.3868	12,996.1	73.0562	12,996.1	76.4642	12,996.1	69.4572	12,996.1	71.1395	12,996.1	64.7572	12,996.1	66.3583	12,996.1	61.861	12,996.1	66.0251	12,996.1	58.2224	12,996.1	59.0443	12,996.1	51.6065	12,996.1	53.7848	12,996.1	47.4819	12,996.1	29.4243	12,996.1	52.3642	12,996.1	56.3204	12,996.1	52.8629	12,996.1	49.1914	12,996.1	43.813	12,996.1	52.8167	12,996.1	47.8882	12,996.1	53.7606	12,996.1	39.8876	12,996.1	44.9173	12,996.1	43.1709
13,454.6	85.7115	13,454.6	84.2215	13,454.6	84.8658	13,454.6	84.245	13,454.6	84.5212	13,454.6	80.3132	13,454.6	82.3017	13,454.6	79.2272	13,454.6	79.5096	13,454.6	76.1616	13,454.6	78.4043	13,454.6	73.3395	13,454.6	76.638	13,454.6	69.3512	13,454.6	71.9751	13,454.6	66.0472	13,454.6	69.6707	13,454.6	63.6288	13,454.6	67.3281	13,454.6	58.1264	13,454.6	60.8707	13,454.6	55.9867	13,454.6	56.5879	13,454.6	46.5967	13,454.6	48.7544	13,454.6	50.4783	13,454.6	56.4104	13,454.6	48.9978	13,454.6	43.3673	13,454.6	45.8725	13,454.6	48.4683	13,454.6	49.4991	13,454.6	48.3593	13,454.6	42.585	13,454.6	42.1279	13,454.6	38.9204
13,929.2	85.8302	13,929.2	85.114	13,929.2	85.7559	13,929.2	84.4548	13,929.2	84.8637	13,929.2	81.4608	13,929.2	81.982	13,929.2	79.0607	13,929.2	80.4287	13,929.2	75.6212	13,929.2	78.2743	13,929.2	73.8237	13,929.2	76.577	13,929.2	70.9282	13,929.2	72.7882	13,929.2	66.8747	13,929.2	70.4613	13,929.2	63.9234	13,929.2	67.2694	13,929.2	56.6177	13,929.2	61.7013	13,929.2	52.0144	13,929.2	55.5304	13,929.2	39.0083	13,929.2	47.3255	13,929.2	49.0538	13,929.2	57.9427	13,929.2	47.8044	13,929.2	47.2531	13,929.2	41.1765	13,929.2	47.1869	13,929.2	39.3501	13,929.2	45.2937	13,929.2	42.8704	13,929.2	42.7261	13,929.2	40.921
14,419.9	86.0914	14,419.9	85.7947	14,419.9	86.1593	14,419.9	84.2081	14,419.9	85.1673	14,419.9	81.4463	14,419.9	82.4495	14,419.9	78.9299	14,419.9	80.312	14,419.9	75.0381	14,419.9	77.5136	14,419.9	73.4086	14,419.9	74.8787	14,419.9	70.0407	14,419.9	71.7773	14,419.9	64.9749	14,419.9	68.4997	14,419.9	61.2472	14,419.9	65.1491	14,419.9	57.0165	14,419.9	58.3936	14,419.9	48.0838	14,419.9	53.4745	14,419.9	44.8664	14,419.9	45.4127	14,419.9	43.3752	14,419.9	56.0638	14,419.9	43.0717	14,419.9	45.5533	14,419.9	30.9962	14,419.9	44.8621	14,419.9	44.5366	14,419.9	48.8796	14,419.9	46.8892	14,419.9	43.2448	14,419.9	36.4465
14,928.2	86.3644	14,928.2	86.2249	14,928.2	86.509	14,928.2	84.0648	14,928.2	85.1698	14,928.2	81.7326	14,928.2	82.5522	14,928.2	78.5858	14,928.2	79.5626	14,928.2	74.6918	14,928.2	76.1546	14,928.2	72.8494	14,928.2	72.7422	14,928.2	68.8656	14,928.2	68.5649	14,928.2	63.6671	14,928.2	64.1718	14,928.2	58.8633	14,928.2	61.0625	14,928.2	54.1845	14,928.2	52.6216	14,928.2	48.8936	14,928.2	44.9075	14,928.2	50.2134	14,928.2	44.9629	14,928.2	47.2493	14,928.2	54.6616	14,928.2	44.3233	14,928.2	41.5423	14,928.2	45.929	14,928.2	45.0724	14,928.2	44.9295	14,928.2	51.5867	14,928.2	42.2817	14,928.2	46.0128	14,928.2	37.8376
15,455.6	86.5566	15,455.6	86.0526	15,455.6	86.418	15,455.6	83.8887	15,455.6	84.9662	15,455.6	81.1312	15,455.6	82.5288	15,455.6	77.8622	15,455.6	79.2641	15,455.6	73.8749	15,455.6	75.4778	15,455.6	71.3157	15,455.6	72.9776	15,455.6	66.0744	15,455.6	68.1674	15,455.6	59.8176	15,455.6	62.7013	15,455.6	54.9352	15,455.6	59.8465	15,455.6	53.3002	15,455.6	53.6969	15,455.6	49.7108	15,455.6	46.0258	15,455.6	49.9653	15,455.6	45.5958	15,455.6	46.9109	15,455.6	52.9166	15,455.6	42.1298	15,455.6	38.7668	15,455.6	46.0416	15,455.6	42.4905	15,455.6	41.4212	15,455.6	50.7425	15,455.6	42.738	15,455.6	38.4532	15,455.6	31.0816
16,000.5	86.4748	16,000.5	86.1566	16,000.5	86.4621	16,000.5	83.8924	16,000.5	84.6875	16,000.5	80.8362	16,000.5	82.3478	16,000.5	77.3388	16,000.5	78.367	16,000.5	73.5606	16,000.5	74.7055	16,000.5	69.6518	16,000.5	70.6684	16,000.5	63.3223	16,000.5	60.9163	16,000.5	58.915	16,000.5	49.6412	16,000.5	55.7345	16,000.5	55.6748	16,000.5	54.0724	16,000.5	46.9712	16,000.5	49.8095	16,000.5	40.7096	16,000.5	49.0046	16,000.5	35.9876	16,000.5	46.1965	16,000.5	49.2806	16,000.5	41.2821	16,000.5	41.5005	16,000.5	43.8267	16,000.5	36.4909	16,000.5	38.6739	16,000.5	48.5927	16,000.5	35.3753	16,000.5	37.0148	16,000.5	32.6759
16,564.5	86.4415	16,564.5	85.7925	16,564.5	86.4539	16,564.5	83.9335	16,564.5	84.2783	16,564.5	80.7893	16,564.5	81.9342	16,564.5	77.6654	16,564.5	77.4912	16,564.5	73.6105	16,564.5	74.2847	16,564.5	68.0854	16,564.5	67.6796	16,564.5	61.389	16,564.5	60.4498	16,564.5	60.2394	16,564.5	59.9864	16,564.5	57.1369	16,564.5	59.164	16,564.5	55.0135	16,564.5	53.684	16,564.5	49.0268	16,564.5	44.0118	16,564.5	47.8758	16,564.5	35.8696	16,564.5	48.6869	16,564.5	50.8963	16,564.5	42.0338	16,564.5	41.8714	16,564.5	44.702	16,564.5	46.6998	16,564.5	28.8099	16,564.5	42.6372	16,564.5	36.9538	16,564.5	34.6225	16,564.5	31.2892
17,148.9	86.1351	17,148.9	85.0088	17,148.9	85.7787	17,148.9	83.4242	17,148.9	83.7805	17,148.9	79.8367	17,148.9	81.2769	17,148.9	77.0716	17,148.9	77.222	17,148.9	71.3776	17,148.9	72.8807	17,148.9	64.812	17,148.9	65.3914	17,148.9	59.7873	17,148.9	64.8471	17,148.9	58.8464	17,148.9	62.7559	17,148.9	56.6723	17,148.9	60.0682	17,148.9	53.2924	17,148.9	53.4873	17,148.9	45.0321	17,148.9	45.404	17,148.9	42.8731	17,148.9	41.4189	17,148.9	45.5619	17,148.9	48.6017	17,148.9	37.3351	17,148.9	39.7546	17,148.9	35.4678	17,148.9	48.8646	17,148.9	32.1232	17,148.9	45.8374	17,148.9	32.2569	17,148.9	36.8718	17,148.9	36.4351
17,752.4	86.9253	17,752.4	85.44	17,752.4	86.3661	17,752.4	83.8577	17,752.4	84.5127	17,752.4	79.717	17,752.4	81.4844	17,752.4	76.0412	17,752.4	77.4696	17,752.4	67.4858	17,752.4	71.4585	17,752.4	60.7681	17,752.4	64.8828	17,752.4	56.8255	17,752.4	65.5934	17,752.4	56.089	17,752.4	61.168	17,752.4	51.4365	17,752.4	58.4307	17,752.4	47.379	17,752.4	51.7368	17,752.4	35.0102	17,752.4	42.2876	17,752.4	43.2347	17,752.4	42.2316	17,752.4	40.2422	17,752.4	46.652	17,752.4	43.1855	17,752.4	41.7913	17,752.4	34.3457	17,752.4	43.06	17,752.4	34.7618	17,752.4	45.8742	17,752.4	29.0072	17,752.4	36.0442	17,752.4	41.7528
18,379.4	87.2998	18,379.4	85.531	18,379.4	86.4748	18,379.4	83.7078	18,379.4	84.4173	18,379.4	79.5334	18,379.4	80.9098	18,379.4	74.4393	18,379.4	76.7535	18,379.4	62.8941	18,379.4	67.84	18,379.4	62.9258	18,379.4	62.9047	18,379.4	60.6121	18,379.4	64.3594	18,379.4	61.0708	18,379.4	58.8961	18,379.4	54.6206	18,379.4	54.6661	18,379.4	48.1328	18,379.4	46.9297	18,379.4	28.373	18,379.4	35.939	18,379.4	41.9139	18,379.4	27.1681	18,379.4	38.9287	18,379.4	46.6323	18,379.4	39.4106	18,379.4	42.7322	18,379.4	17.2756	18,379.4	43.5077	18,379.4	35.2034	18,379.4	31.2605	18,379.4	40.7375	18,379.4	42.2704	18,379.4	36.1017
19,026.9	87.5193	19,026.9	85.559	19,026.9	86.3726	19,026.9	83.4063	19,026.9	84.5703	19,026.9	79.0474	19,026.9	80.8188	19,026.9	72.8763	19,026.9	75.7885	19,026.9	62.5494	19,026.9	63.135	19,026.9	65.687	19,026.9	63.8148	19,026.9	62.1835	19,026.9	64.1304	19,026.9	62.071	19,026.9	61.2916	19,026.9	56.4918	19,026.9	59.1371	19,026.9	51.3097	19,026.9	51.4508	19,026.9	43.918	19,026.9	43.7153	19,026.9	34.4026	19,026.9	37.4538	19,026.9	37.3188	19,026.9	47.3677	19,026.9	41.6202	19,026.9	40.9153	19,026.9	16.2352	19,026.9	42.3638	19,026.9	46.9446	19,026.9	42.1161	19,026.9	41.4327	19,026.9	42.8639	19,026.9	39.2144
19,697.8	88.369	19,697.8	86.3944	19,697.8	87.2463	19,697.8	83.8815	19,697.8	85.2164	19,697.8	79.1797	19,697.8	81.3615	19,697.8	72.0972	19,697.8	75.7401	19,697.8	62.7266	19,697.8	63.9452	19,697.8	60.7762	19,697.8	65.0078	19,697.8	58.9078	19,697.8	67.7912	19,697.8	60.2372	19,697.8	64.927	19,697.8	53.6701	19,697.8	61.6782	19,697.8	48.0047	19,697.8	53.4996	19,697.8	43.935	19,697.8	48.1708	19,697.8	39.4845	19,697.8	48.2795	19,697.8	37.0019	19,697.8	48.7872	19,697.8	44.7035	19,697.8	42.6428	19,697.8	43.2034	19,697.8	43.7674	19,697.8	41.6048	19,697.8	46.8025	19,697.8	46.1224	19,697.8	42.1675	19,697.8	42.6794
19,999.5	88.9903	19,999.5	87.1507	19,999.5	87.8769	19,999.5	84.5348	19,999.5	85.8394	19,999.5	80.1837	19,999.5	81.9665	19,999.5	72.0778	19,999.5	75.5396	19,999.5	60.5476	19,999.5	65.9045	19,999.5	62.1672	19,999.5	66.3197	19,999.5	58.898	19,999.5	67.7287	19,999.5	57.8159	19,999.5	67.1238	19,999.5	52.2128	19,999.5	58.4803	19,999.5	43.5922	19,999.5	60.1001	19,999.5	57.7835	19,999.5	53.3318	19,999.5	43.3395	19,999.5	56.1016	19,999.5	49.0817	19,999.5	53.8895	19,999.5	51.6105	19,999.5	52.9398	19,999.5	58.7912	19,999.5	48.2815	19,999.5	54.1225	19,999.5	47.4799	19,999.5	53.3244	19,999.5	53.4165	19,999.5	36.1141
