"SPL Vertical"
"On-Axis"		"10°"		"-10°"		"20°"		"-20°"		"30°"		"-30°"		"40°"		"-40°"		"50°"		"-50°"		"60°"		"-60°"		"70°"		"-70°"		"80°"		"-80°"		"90°"		"-90°"		"100°"		"-100°"		"110°"		"-110°"		"120°"		"-120°"		"130°"		"-130°"		"140°"		"-140°"		"150°"		"-150°"		"160°"		"-160°"		"170°"		"-170°"		"180°"
"Frequency / Hz"	"Sound Pressure Level / dB (re 20 µPa/V)  [2.83  V @ 1. m]"	"Frequency / Hz"	"Sound Pressure Level / dB (re 20 µPa/V)  [2.83  V @ 1. m]"	"Frequency / Hz"	"Sound Pressure Level / dB (re 20 µPa/V)  [2.83  V @ 1. m]"	"Frequency / Hz"	"Sound Pressure Level / dB (re 20 µPa/V)  [2.83  V @ 1. m]"	"Frequency / Hz"	"Sound Pressure Level / dB (re 20 µPa/V)  [2.83  V @ 1. m]"	"Frequency / Hz"	"Sound Pressure Level / dB (re 20 µPa/V)  [2.83  V @ 1. m]"	"Frequency / Hz"	"Sound Pressure Level / dB (re 20 µPa/V)  [2.83  V @ 1. m]"	"Frequency / Hz"	"Sound Pressure Level / dB (re 20 µPa/V)  [2.83  V @ 1. m]"	"Frequency / Hz"	"Sound Pressure Level / dB (re 20 µPa/V)  [2.83  V @ 1. m]"	"Frequency / Hz"	"Sound Pressure Level / dB (re 20 µPa/V)  [2.83  V @ 1. m]"	"Frequency / Hz"	"Sound Pressure Level / dB (re 20 µPa/V)  [2.83  V @ 1. m]"	"Frequency / Hz"	"Sound Pressure Level / dB (re 20 µPa/V)  [2.83  V @ 1. m]"	"Frequency / Hz"	"Sound Pressure Level / dB (re 20 µPa/V)  [2.83  V @ 1. m]"	"Frequency / Hz"	"Sound Pressure Level / dB (re 20 µPa/V)  [2.83  V @ 1. m]"	"Frequency / Hz"	"Sound Pressure Level / dB (re 20 µPa/V)  [2.83  V @ 1. m]"	"Frequency / Hz"	"Sound Pressure Level / dB (re 20 µPa/V)  [2.83  V @ 1. m]"	"Frequency / Hz"	"Sound Pressure Level / dB (re 20 µPa/V)  [2.83  V @ 1. m]"	"Frequency / Hz"	"Sound Pressure Level / dB (re 20 µPa/V)  [2.83  V @ 1. m]"	"Frequency / Hz"	"Sound Pressure Level / dB (re 20 µPa/V)  [2.83  V @ 1. m]"	"Frequency / Hz"	"Sound Pressure Level / dB (re 20 µPa/V)  [2.83  V @ 1. m]"	"Frequency / Hz"	"Sound Pressure Level / dB (re 20 µPa/V)  [2.83  V @ 1. m]"	"Frequency / Hz"	"Sound Pressure Level / dB (re 20 µPa/V)  [2.83  V @ 1. m]"	"Frequency / Hz"	"Sound Pressure Level / dB (re 20 µPa/V)  [2.83  V @ 1. m]"	"Frequency / Hz"	"Sound Pressure Level / dB (re 20 µPa/V)  [2.83  V @ 1. m]"	"Frequency / Hz"	"Sound Pressure Level / dB (re 20 µPa/V)  [2.83  V @ 1. m]"	"Frequency / Hz"	"Sound Pressure Level / dB (re 20 µPa/V)  [2.83  V @ 1. m]"	"Frequency / Hz"	"Sound Pressure Level / dB (re 20 µPa/V)  [2.83  V @ 1. m]"	"Frequency / Hz"	"Sound Pressure Level / dB (re 20 µPa/V)  [2.83  V @ 1. m]"	"Frequency / Hz"	"Sound Pressure Level / dB (re 20 µPa/V)  [2.83  V @ 1. m]"	"Frequency / Hz"	"Sound Pressure Level / dB (re 20 µPa/V)  [2.83  V @ 1. m]"	"Frequency / Hz"	"Sound Pressure Level / dB (re 20 µPa/V)  [2.83  V @ 1. m]"	"Frequency / Hz"	"Sound Pressure Level / dB (re 20 µPa/V)  [2.83  V @ 1. m]"	"Frequency / Hz"	"Sound Pressure Level / dB (re 20 µPa/V)  [2.83  V @ 1. m]"	"Frequency / Hz"	"Sound Pressure Level / dB (re 20 µPa/V)  [2.83  V @ 1. m]"	"Frequency / Hz"	"Sound Pressure Level / dB (re 20 µPa/V)  [2.83  V @ 1. m]"	"Frequency / Hz"	"Sound Pressure Level / dB (re 20 µPa/V)  [2.83  V @ 1. m]"
20.5078	57.0005	20.5078	56.9514	20.5078	57.0398	20.5078	56.8987	20.5078	57.0638	20.5078	56.8486	20.5078	57.069	20.5078	56.8058	20.5078	57.0542	20.5078	56.7731	20.5078	57.0207	20.5078	56.7517	20.5078	56.972	20.5078	56.7409	20.5078	56.9129	20.5078	56.7393	20.5078	56.849	20.5078	56.7448	20.5078	56.7865	20.5078	56.7553	20.5078	56.731	20.5078	56.7688	20.5078	56.6876	20.5078	56.7833	20.5078	56.6597	20.5078	56.7966	20.5078	56.6493	20.5078	56.8064	20.5078	56.6557	20.5078	56.8102	20.5078	56.676	20.5078	56.8057	20.5078	56.7054	20.5078	56.7916	20.5078	56.738	20.5078	56.7682
21.9727	49.675	21.9727	49.4385	21.9727	49.8238	21.9727	49.1086	21.9727	49.8905	21.9727	48.6791	21.9727	49.8806	21.9727	48.1431	21.9727	49.7993	21.9727	47.4922	21.9727	49.6515	21.9727	46.7172	21.9727	49.4406	21.9727	45.8089	21.9727	49.1688	21.9727	44.7619	21.9727	48.8363	21.9727	43.5816	21.9727	48.4411	21.9727	42.3006	21.9727	47.9798	21.9727	41.0069	21.9727	47.4482	21.9727	39.8793	21.9727	46.843	21.9727	39.1696	21.9727	46.1634	21.9727	39.0535	21.9727	45.4136	21.9727	39.4707	21.9727	44.6037	21.9727	40.2046	21.9727	43.7487	21.9727	41.0683	21.9727	42.8651	21.9727	41.9668
23.4375	46.588	23.4375	46.4005	23.4375	46.7324	23.4375	46.1803	23.4375	46.8273	23.4375	45.9406	23.4375	46.8704	23.4375	45.6961	23.4375	46.8634	23.4375	45.4615	23.4375	46.8117	23.4375	45.2506	23.4375	46.7231	23.4375	45.0752	23.4375	46.6075	23.4375	44.9448	23.4375	46.4758	23.4375	44.866	23.4375	46.3391	23.4375	44.8425	23.4375	46.2081	23.4375	44.8735	23.4375	46.0919	23.4375	44.953	23.4375	45.9968	23.4375	45.0699	23.4375	45.925	23.4375	45.2091	23.4375	45.8737	23.4375	45.354	23.4375	45.8356	23.4375	45.4894	23.4375	45.8002	23.4375	45.6041	23.4375	45.756	23.4375	45.6927
24.9023	44.3857	24.9023	44.1382	24.9023	44.5719	24.9023	43.843	24.9023	44.6811	24.9023	43.5088	24.9023	44.6975	24.9023	43.1369	24.9023	44.6073	24.9023	42.7209	24.9023	44.3982	24.9023	42.2474	24.9023	44.0595	24.9023	41.6985	24.9023	43.581	24.9023	41.0544	24.9023	42.9522	24.9023	40.2965	24.9023	42.1626	24.9023	39.4091	24.9023	41.202	24.9023	38.3818	24.9023	40.0625	24.9023	37.2127	24.9023	38.7425	24.9023	35.9144	24.9023	37.254	24.9023	34.5243	24.9023	35.6361	24.9023	33.1237	24.9023	33.9755	24.9023	31.8641	24.9023	32.435	24.9023	30.9815	24.9023	31.2654	24.9023	30.7394
26.3672	50.2767	26.3672	50.2041	26.3672	50.2349	26.3672	50.0169	26.3672	50.0765	26.3672	49.7123	26.3672	49.7966	26.3672	49.2844	26.3672	49.3877	26.3672	48.7237	26.3672	48.8384	26.3672	48.0161	26.3672	48.1327	26.3672	47.1424	26.3672	47.2486	26.3672	46.0778	26.3672	46.1571	26.3672	44.7923	26.3672	44.8209	26.3672	43.2563	26.3672	43.1964	26.3672	41.4585	26.3672	41.249	26.3672	39.4653	26.3672	39.013	26.3672	37.5627	26.3672	36.7876	26.3672	36.3537	26.3672	35.3944	26.3672	36.2327	26.3672	35.4576	26.3672	36.753	26.3672	36.3004	26.3672	37.2533	26.3672	37.0569	26.3672	37.3904
27.832	47.9992	27.832	47.8887	27.832	47.9491	27.832	47.6182	27.832	47.7313	27.832	47.1815	27.832	47.3312	27.832	46.5654	27.832	46.7262	27.832	45.7502	27.832	45.8832	27.832	44.7132	27.832	44.7576	27.832	43.4436	27.832	43.2975	27.832	41.9919	27.832	41.4804	27.832	40.6044	27.832	39.4905	27.832	39.8859	27.832	38.2094	27.832	40.3993	27.832	38.8773	27.832	41.8237	27.832	40.8801	27.832	43.4484	27.832	42.9488	27.832	44.887	27.832	44.6415	27.832	46.0197	27.832	45.9082	27.832	46.8244	27.832	46.7794	27.832	47.3033	27.832	47.2887	27.832	47.4592
29.2969	53.6629	29.2969	53.5414	29.2969	53.6488	29.2969	53.2838	29.2969	53.4957	29.2969	52.8859	29.2969	53.1966	29.2969	52.3399	29.2969	52.7417	29.2969	51.6357	29.2969	52.1186	29.2969	50.7654	29.2969	51.3151	29.2969	49.734	29.2969	50.3273	29.2969	48.5875	29.2969	49.1797	29.2969	47.4692	29.2969	47.9754	29.2969	46.6786	29.2969	46.9736	29.2969	46.5699	29.2969	46.5769	29.2969	47.2003	29.2969	46.9992	29.2969	48.2445	29.2969	47.984	29.2969	49.3395	29.2969	49.1097	29.2969	50.2769	29.2969	50.1066	29.2969	50.9679	29.2969	50.8588	29.2969	51.3796	29.2969	51.3269	29.2969	51.5007
30.7617	54.9574	30.7617	54.881	30.7617	54.878	30.7617	54.646	30.7617	54.6427	30.7617	54.2472	30.7617	54.2485	30.7617	53.6791	30.7617	53.6915	30.7617	52.9423	30.7617	52.9728	30.7617	52.0575	30.7617	52.1115	30.7617	51.098	30.7617	51.1758	30.7617	50.2453	30.7617	50.3346	30.7617	49.8126	30.7617	49.8854	30.7617	50.0768	30.7617	50.1066	30.7617	50.9835	30.7617	50.9713	30.7617	52.2044	30.7617	52.1696	30.7617	53.4394	30.7617	53.3995	30.7617	54.5259	30.7617	54.49	30.7617	55.3949	30.7617	55.367	30.7617	56.0212	30.7617	56.0024	30.7617	56.3966	30.7617	56.3872	30.7617	56.5188
32.2266	56.1945	32.2266	56.1072	32.2266	56.1245	32.2266	55.8605	32.2266	55.8983	32.2266	55.4525	32.2266	55.5164	32.2266	54.8862	32.2266	54.9834	32.2266	54.1806	32.2266	54.3176	32.2266	53.3946	32.2266	53.5718	32.2266	52.6669	32.2266	52.8691	32.2266	52.2437	32.2266	52.4311	32.2266	52.3873	32.2266	52.5099	32.2266	53.1464	32.2266	53.1851	32.2266	54.2967	32.2266	54.2733	32.2266	55.5558	32.2266	55.5025	32.2266	56.7364	32.2266	56.6765	32.2266	57.7463	32.2266	57.6922	32.2266	58.5463	32.2266	58.5037	32.2266	59.1208	32.2266	59.0919	32.2266	59.464	32.2266	59.4495	32.2266	59.5737
33.6914	58.5543	33.6914	58.4805	33.6914	58.4896	33.6914	58.2679	33.6914	58.2883	33.6914	57.9195	33.6914	57.9552	33.6914	57.4471	33.6914	57.5027	33.6914	56.8831	33.6914	56.9613	33.6914	56.2998	33.6914	56.3979	33.6914	55.8324	33.6914	55.9369	33.6914	55.6701	33.6914	55.757	33.6914	55.9663	33.6914	56.0129	33.6914	56.7123	33.6914	56.7144	33.6914	57.7406	33.6914	57.7117	33.6914	58.8524	33.6914	58.8099	33.6914	59.9049	33.6914	59.8615	33.6914	60.8174	33.6914	60.7797	33.6914	61.5488	33.6914	61.5199	33.6914	62.079	33.6914	62.0598	33.6914	62.3982	33.6914	62.3887	33.6914	62.5019
35.1562	60.5734	35.1562	60.5045	35.1562	60.5124	35.1562	60.306	35.1562	60.3263	35.1562	59.9843	35.1562	60.026	35.1562	59.559	35.1562	59.6346	35.1562	59.0746	35.1562	59.1981	35.1562	58.618	35.1562	58.7996	35.1562	58.3287	35.1562	58.566	35.1562	58.3679	35.1562	58.6378	35.1562	58.8267	35.1562	59.0919	35.1562	59.6504	35.1562	59.8807	35.1562	60.6801	35.1562	60.8645	35.1562	61.7538	35.1562	61.8952	35.1562	62.7583	35.1562	62.8644	35.1562	63.6277	35.1562	63.7058	35.1562	64.3271	35.1562	64.3823	35.1562	64.8381	35.1562	64.8734	35.1562	65.1511	35.1562	65.1684	35.1562	65.2616
36.6211	63.4804	36.6211	63.4175	36.6211	63.4397	36.6211	63.2519	36.6211	63.2999	36.6211	62.9917	36.6211	63.0722	36.6211	62.6564	36.6211	62.778	36.6211	62.2848	36.6211	62.4555	36.6211	61.9437	36.6211	62.167	36.6211	61.7308	36.6211	61.9994	36.6211	61.7546	36.6211	62.0471	36.6211	62.0849	36.6211	62.3709	36.6211	62.7055	36.6211	62.9588	36.6211	63.5225	36.6211	63.7306	36.6211	64.4162	36.6211	64.579	36.6211	65.2851	36.6211	65.4084	36.6211	66.0591	36.6211	66.1498	36.6211	66.6945	36.6211	66.7582	36.6211	67.1653	36.6211	67.2058	36.6211	67.4567	36.6211	67.4764	36.6211	67.561
38.0859	65.8035	38.0859	65.7242	38.0859	65.7923	38.0859	65.5578	38.0859	65.6938	38.0859	65.316	38.0859	65.5186	38.0859	65.0222	38.0859	65.2877	38.0859	64.718	38.0859	65.0376	38.0859	64.4678	38.0859	64.8242	38.0859	64.3557	38.0859	64.7215	38.0859	64.464	38.0859	64.8055	38.0859	64.8348	38.0859	65.1231	38.0859	65.4429	38.0859	65.6648	38.0859	66.2081	38.0859	66.3669	38.0859	67.0327	38.0859	67.141	38.0859	67.8323	38.0859	67.9042	38.0859	68.5459	38.0859	68.5926	38.0859	69.1329	38.0859	69.1625	38.0859	69.5679	38.0859	69.5854	38.0859	69.8358	38.0859	69.8439	38.0859	69.9285
39.5508	67.702	39.5508	67.6293	39.5508	67.6822	39.5508	67.4691	39.5508	67.5716	39.5508	67.2349	39.5508	67.38	39.5508	66.952	39.5508	67.128	39.5508	66.662	39.5508	66.8521	39.5508	66.4273	39.5508	66.6094	39.5508	66.3267	39.5508	66.4763	39.5508	66.4351	39.5508	66.5327	39.5508	66.7898	39.5508	66.8294	39.5508	67.3679	39.5508	67.3587	39.5508	68.0959	39.5508	68.0558	39.5508	68.8831	39.5508	68.8298	39.5508	69.6493	39.5508	69.5954	39.5508	70.3347	39.5508	70.2876	39.5508	70.8988	39.5508	70.8623	39.5508	71.3156	39.5508	71.291	39.5508	71.569	39.5508	71.5567	39.5508	71.6503
41.0156	69.2592	41.0156	69.1978	41.0156	69.2579	41.0156	69.0795	41.0156	69.1964	41.0156	68.9201	41.0156	69.0867	41.0156	68.7473	41.0156	68.952	41.0156	68.6023	41.0156	68.8286	41.0156	68.5391	41.0156	68.766	41.0156	68.6149	41.0156	68.8199	41.0156	68.8727	41.0156	69.0375	41.0156	69.321	41.0156	69.4372	41.0156	69.9279	41.0156	69.9983	41.0156	70.6332	41.0156	70.668	41.0156	71.3691	41.0156	71.3802	41.0156	72.075	41.0156	72.0729	41.0156	72.704	41.0156	72.6962	41.0156	73.2222	41.0156	73.2135	41.0156	73.6064	41.0156	73.5995	41.0156	73.8417	41.0156	73.8379	41.0156	73.9197
42.4805	71.1932	42.4805	71.1486	42.4805	71.2054	42.4805	71.0792	42.4805	71.1859	42.4805	71.0009	42.4805	71.1442	42.4805	70.9383	42.4805	71.0992	42.4805	70.9235	42.4805	71.0798	42.4805	70.9931	42.4805	71.122	42.4805	71.1797	42.4805	71.2638	42.4805	71.5026	42.4805	71.5337	42.4805	71.9589	42.4805	71.9398	42.4805	72.5225	42.4805	72.465	42.4805	73.1511	42.4805	73.0707	42.4805	73.7968	42.4805	73.7082	42.4805	74.4144	42.4805	74.329	42.4805	74.9655	42.4805	74.8912	42.4805	75.4205	42.4805	75.3619	42.4805	75.7573	42.4805	75.7172	42.4805	75.961	42.4805	75.9407	42.4805	76.023
43.9453	74.2018	43.9453	74.1804	43.9453	74.1961	43.9453	74.1367	43.9453	74.1634	43.9453	74.0801	43.9453	74.1096	43.9453	74.0252	43.9453	74.0463	43.9453	73.9914	43.9453	73.9922	43.9453	74.0022	43.9453	73.9726	43.9453	74.0824	43.9453	74.0163	43.9453	74.2528	43.9453	74.1503	43.9453	74.5237	43.9453	74.3917	43.9453	74.8904	43.9453	74.7403	43.9453	75.3316	43.9453	75.1768	43.9453	75.814	43.9453	75.6667	43.9453	76.299	43.9453	76.1682	43.9453	76.7486	43.9453	76.6402	43.9453	77.1299	43.9453	77.0471	43.9453	77.4168	43.9453	77.3611	43.9453	77.5906	43.9453	77.5627	43.9453	77.6405
45.4102	75.7825	45.4102	75.7671	45.4102	75.7651	45.4102	75.7216	45.4102	75.717	45.4102	75.6535	45.4102	75.6454	45.4102	75.5755	45.4102	75.563	45.4102	75.5062	45.4102	75.4894	45.4102	75.4699	45.4102	75.4497	45.4102	75.494	45.4102	75.4727	45.4102	75.6046	45.4102	75.5852	45.4102	75.8189	45.4102	75.804	45.4102	76.1381	45.4102	76.1294	45.4102	76.5448	45.4102	76.5427	45.4102	77.0065	45.4102	77.0099	45.4102	77.4827	45.4102	77.4899	45.4102	77.9326	45.4102	77.9416	45.4102	78.3207	45.4102	78.3293	45.4102	78.6185	45.4102	78.6252	45.4102	78.8059	45.4102	78.8096	45.4102	78.871
46.875	77.0338	46.875	77.0002	46.875	77.0411	46.875	76.9441	46.875	77.0235	46.875	76.8741	46.875	76.9876	46.875	76.8043	46.875	76.9455	46.875	76.7541	46.875	76.915	46.875	76.7474	46.875	76.919	46.875	76.8098	46.875	76.9824	46.875	76.9628	46.875	77.1276	46.875	77.2179	46.875	77.3677	46.875	77.5708	46.875	77.7009	46.875	78.0009	46.875	78.1096	46.875	78.4753	46.875	78.5633	46.875	78.9557	46.875	79.0249	46.875	79.4047	46.875	79.4572	46.875	79.7895	46.875	79.8273	46.875	80.0843	46.875	80.1088	46.875	80.2708	46.875	80.2828	46.875	80.3381
48.3398	78.3926	48.3398	78.345	48.3398	78.4267	48.3398	78.2875	48.3398	78.4477	48.3398	78.2281	48.3398	78.4605	48.3398	78.1791	48.3398	78.4739	48.3398	78.1571	48.3398	78.501	48.3398	78.1817	48.3398	78.5578	48.3398	78.2726	48.3398	78.6617	48.3398	78.4454	48.3398	78.8273	48.3398	78.7066	48.3398	79.0634	48.3398	79.0505	48.3398	79.3683	48.3398	79.4584	48.3398	79.7295	48.3398	79.9024	48.3398	80.1245	48.3398	80.3496	48.3398	80.5247	48.3398	80.7674	48.3398	80.8996	48.3398	81.1268	48.3398	81.2208	48.3398	81.4043	48.3398	81.4644	48.3398	81.5831	48.3398	81.6124	48.3398	81.6534
51.2695	81.4207	51.2695	81.3978	51.2695	81.4358	51.2695	81.3701	51.2695	81.4423	51.2695	81.343	51.2695	81.4419	51.2695	81.3234	51.2695	81.4392	51.2695	81.3201	51.2695	81.4418	51.2695	81.3432	51.2695	81.4598	51.2695	81.403	51.2695	81.5051	51.2695	81.5088	51.2695	81.5896	51.2695	81.6663	51.2695	81.7224	51.2695	81.8759	51.2695	81.9074	51.2695	82.1306	51.2695	82.1408	51.2695	82.4164	51.2695	82.4106	51.2695	82.7134	51.2695	82.6976	51.2695	82.9984	51.2695	82.9785	51.2695	83.248	51.2695	83.2288	51.2695	83.4414	51.2695	83.4266	51.2695	83.5625	51.2695	83.5545	51.2695	83.6012
52.7344	82.6734	52.7344	82.6518	52.7344	82.676	52.7344	82.6134	52.7344	82.6599	52.7344	82.5627	52.7344	82.6278	52.7344	82.5067	52.7344	82.5852	52.7344	82.4548	52.7344	82.5406	52.7344	82.4187	52.7344	82.5049	52.7344	82.4114	52.7344	82.4915	52.7344	82.446	52.7344	82.5141	52.7344	82.5325	52.7344	82.5846	52.7344	82.6758	52.7344	82.71	52.7344	82.8727	52.7344	82.8895	52.7344	83.1111	52.7344	83.1135	52.7344	83.3717	52.7344	83.3639	52.7344	83.6304	52.7344	83.6172	52.7344	83.8624	52.7344	83.8482	52.7344	84.0449	52.7344	84.0333	52.7344	84.1603	52.7344	84.1539	52.7344	84.1977
54.1992	83.014	54.1992	82.9846	54.1992	83.0225	54.1992	82.9372	54.1992	83.0106	54.1992	82.8777	54.1992	82.9821	54.1992	82.8152	54.1992	82.9439	54.1992	82.7616	54.1992	82.9063	54.1992	82.7306	54.1992	82.882	54.1992	82.737	54.1992	82.8853	54.1992	82.7937	54.1992	82.9302	54.1992	82.9095	54.1992	83.0274	54.1992	83.0865	54.1992	83.1817	54.1992	83.318	54.1992	83.3897	54.1992	83.5889	54.1992	83.6391	54.1992	83.8777	54.1992	83.91	54.1992	84.1593	54.1992	84.1784	54.1992	84.4089	54.1992	84.419	54.1992	84.6044	54.1992	84.6091	54.1992	84.7289	54.1992	84.7306	54.1992	84.772
55.6641	82.8649	55.6641	82.8381	55.6641	82.8946	55.6641	82.8171	55.6641	82.9268	55.6641	82.8074	55.6641	82.9634	55.6641	82.8161	55.6641	83.0089	55.6641	82.8515	55.6641	83.0695	55.6641	82.9219	55.6641	83.1525	55.6641	83.0345	55.6641	83.2651	55.6641	83.1938	55.6641	83.4132	55.6641	83.4005	55.6641	83.5999	55.6641	83.6501	55.6641	83.8238	55.6641	83.9331	55.6641	84.0787	55.6641	84.2352	55.6641	84.3529	55.6641	84.5387	55.6641	84.6305	55.6641	84.8238	55.6641	84.8925	55.6641	85.0712	55.6641	85.1199	55.6641	85.2637	55.6641	85.2947	55.6641	85.3878	55.6641	85.4029	55.6641	85.4351
58.5938	84.5073	58.5938	84.4916	58.5938	84.5289	58.5938	84.4837	58.5938	84.555	58.5938	84.4862	58.5938	84.5857	58.5938	84.5023	58.5938	84.6217	58.5938	84.5353	58.5938	84.6655	58.5938	84.5889	58.5938	84.7202	58.5938	84.6664	58.5938	84.79	58.5938	84.7704	58.5938	84.879	58.5938	84.9023	58.5938	84.9908	58.5938	85.0611	58.5938	85.127	58.5938	85.2428	58.5938	85.2865	58.5938	85.4398	58.5938	85.4639	58.5938	85.6414	58.5938	85.65	58.5938	85.8339	58.5938	85.8324	58.5938	86.0027	58.5938	85.9962	58.5938	86.134	58.5938	86.127	58.5938	86.2166	58.5938	86.2123	58.5938	86.2433
60.0586	84.9936	60.0586	84.9822	60.0586	85.0103	60.0586	84.9778	60.0586	85.0314	60.0586	84.9826	60.0586	85.0566	60.0586	84.9993	60.0586	85.0869	60.0586	85.0306	60.0586	85.124	60.0586	85.0794	60.0586	85.1709	60.0586	85.1486	60.0586	85.2311	60.0586	85.2406	60.0586	85.3084	60.0586	85.3565	60.0586	85.406	60.0586	85.4957	60.0586	85.5257	60.0586	85.6552	60.0586	85.6667	60.0586	85.8286	60.0586	85.8248	60.0586	86.0065	60.0586	85.9919	60.0586	86.177	60.0586	86.1569	60.0586	86.3268	60.0586	86.3065	60.0586	86.4432	60.0586	86.427	60.0586	86.5157	60.0586	86.5067	60.0586	86.5374
62.9883	86.0545	62.9883	86.0543	62.9883	86.0617	62.9883	86.0609	62.9883	86.0764	62.9883	86.0747	62.9883	86.0994	62.9883	86.0966	62.9883	86.1315	62.9883	86.1282	62.9883	86.1739	62.9883	86.1718	62.9883	86.2275	62.9883	86.2299	62.9883	86.2938	62.9883	86.3051	62.9883	86.374	62.9883	86.3991	62.9883	86.4691	62.9883	86.5124	62.9883	86.5795	62.9883	86.6434	62.9883	86.7038	62.9883	86.7875	62.9883	86.8388	62.9883	86.9376	62.9883	86.9784	62.9883	87.0839	62.9883	87.1141	62.9883	87.2148	62.9883	87.2355	62.9883	87.3191	62.9883	87.3317	62.9883	87.387	62.9883	87.393	62.9883	87.4123
64.4531	86.3523	64.4531	86.3532	64.4531	86.3592	64.4531	86.3617	64.4531	86.3746	64.4531	86.378	64.4531	86.3988	64.4531	86.4025	64.4531	86.4324	64.4531	86.4362	64.4531	86.4759	64.4531	86.4807	64.4531	86.5297	64.4531	86.5379	64.4531	86.5946	64.4531	86.6094	64.4531	86.6711	64.4531	86.6965	64.4531	86.7599	64.4531	86.7996	64.4531	86.8609	64.4531	86.9173	64.4531	86.9732	64.4531	87.0459	64.4531	87.0939	64.4531	87.1794	64.4531	87.2181	64.4531	87.3093	64.4531	87.3386	64.4531	87.4259	64.4531	87.4463	64.4531	87.5189	64.4531	87.5316	64.4531	87.5798	64.4531	87.5858	64.4531	87.6027
67.3828	86.822	67.3828	86.8237	67.3828	86.8308	67.3828	86.8354	67.3828	86.8505	67.3828	86.8565	67.3828	86.8808	67.3828	86.8867	67.3828	86.9214	67.3828	86.9254	67.3828	86.9714	67.3828	86.9728	67.3828	87.03	67.3828	87.0291	67.3828	87.0962	67.3828	87.0947	67.3828	87.1694	67.3828	87.1699	67.3828	87.249	67.3828	87.2547	67.3828	87.3344	67.3828	87.3484	67.3828	87.4248	67.3828	87.4489	67.3828	87.5184	67.3828	87.5522	67.3828	87.6122	67.3828	87.6529	67.3828	87.7016	67.3828	87.7438	67.3828	87.7803	67.3828	87.8174	67.3828	87.8417	67.3828	87.8671	67.3828	87.8792	67.3828	87.8882
68.8477	87.0381	68.8477	87.0398	68.8477	87.0474	68.8477	87.0519	68.8477	87.068	68.8477	87.0738	68.8477	87.0994	68.8477	87.1044	68.8477	87.1408	68.8477	87.143	68.8477	87.1911	68.8477	87.1891	68.8477	87.2487	68.8477	87.2423	68.8477	87.3122	68.8477	87.3026	68.8477	87.3804	68.8477	87.37	68.8477	87.4524	68.8477	87.4445	68.8477	87.5275	68.8477	87.5253	68.8477	87.605	68.8477	87.6111	68.8477	87.6838	68.8477	87.699	68.8477	87.7618	68.8477	87.7845	68.8477	87.8355	68.8477	87.8619	68.8477	87.9002	68.8477	87.9249	68.8477	87.9503	68.8477	87.9679	68.8477	87.9806	68.8477	87.9869
71.7773	87.3426	71.7773	87.3478	71.7773	87.3488	71.7773	87.3635	71.7773	87.3666	71.7773	87.3887	71.7773	87.3956	71.7773	87.4217	71.7773	87.4344	71.7773	87.4612	71.7773	87.4813	71.7773	87.5056	71.7773	87.5342	71.7773	87.5539	71.7773	87.5909	71.7773	87.6054	71.7773	87.6495	71.7773	87.6594	71.7773	87.7084	71.7773	87.7159	71.7773	87.7669	71.7773	87.7744	71.7773	87.8243	71.7773	87.8344	71.7773	87.8804	71.7773	87.8945	71.7773	87.9342	71.7773	87.9523	71.7773	87.9844	71.7773	88.0043	71.7773	88.0282	71.7773	88.0467	71.7773	88.0623	71.7773	88.0754	71.7773	88.0831	71.7773	88.0879
74.707	87.4714	74.707	87.479	74.707	87.4763	74.707	87.4982	74.707	87.4939	74.707	87.5273	74.707	87.5233	74.707	87.5646	74.707	87.5631	74.707	87.6077	74.707	87.6109	74.707	87.6545	74.707	87.6638	74.707	87.7031	74.707	87.7191	74.707	87.7516	74.707	87.774	74.707	87.7991	74.707	87.8264	74.707	87.8446	74.707	87.8749	74.707	87.8881	74.707	87.919	74.707	87.9295	74.707	87.9586	74.707	87.9685	74.707	87.9942	74.707	88.0046	74.707	88.0255	74.707	88.0363	74.707	88.052	74.707	88.0619	74.707	88.0722	74.707	88.0793	74.707	88.0843	74.707	88.087
77.6367	87.5153	77.6367	87.5225	77.6367	87.5215	77.6367	87.5424	77.6367	87.5413	77.6367	87.5731	77.6367	87.5736	77.6367	87.6122	77.6367	87.6163	77.6367	87.6571	77.6367	87.6666	77.6367	87.7049	77.6367	87.7209	77.6367	87.7528	77.6367	87.7758	77.6367	87.7985	77.6367	87.8279	77.6367	87.8401	77.6367	87.8746	77.6367	87.8766	77.6367	87.9141	77.6367	87.9076	77.6367	87.9458	77.6367	87.9336	77.6367	87.9702	77.6367	87.9554	77.6367	87.9882	77.6367	87.9737	77.6367	88.0012	77.6367	87.9892	77.6367	88.0103	77.6367	88.0017	77.6367	88.0159	77.6367	88.011	77.6367	88.0181	77.6367	88.0165
79.1016	87.5436	79.1016	87.5509	79.1016	87.5506	79.1016	87.5715	79.1016	87.5716	79.1016	87.6034	79.1016	87.6055	79.1016	87.6441	79.1016	87.6499	79.1016	87.6906	79.1016	87.7016	79.1016	87.7394	79.1016	87.7568	79.1016	87.7875	79.1016	87.8117	79.1016	87.832	79.1016	87.8626	79.1016	87.8706	79.1016	87.9065	79.1016	87.9022	79.1016	87.9416	79.1016	87.9265	79.1016	87.9671	79.1016	87.9441	79.1016	87.9836	79.1016	87.9565	79.1016	87.9925	79.1016	87.9652	79.1016	87.996	79.1016	87.9717	79.1016	87.9959	79.1016	87.9772	79.1016	87.9938	79.1016	87.9821	79.1016	87.9905	79.1016	87.9866
82.0312	87.5899	82.0312	87.5988	82.0312	87.5938	82.0312	87.6193	82.0312	87.6105	82.0312	87.6492	82.0312	87.6388	82.0312	87.6856	82.0312	87.6764	82.0312	87.725	82.0312	87.7199	82.0312	87.7639	82.0312	87.7654	82.0312	87.7989	82.0312	87.8088	82.0312	87.827	82.0312	87.846	82.0312	87.8461	82.0312	87.8739	82.0312	87.8553	82.0312	87.8905	82.0312	87.8548	82.0312	87.8952	82.0312	87.8462	82.0312	87.889	82.0312	87.8322	82.0312	87.8741	82.0312	87.8159	82.0312	87.8539	82.0312	87.8008	82.0312	87.8319	82.0312	87.7896	82.0312	87.8117	82.0312	87.7846	82.0312	87.7961	82.0312	87.7867
84.9609	87.493	84.9609	87.5006	84.9609	87.499	84.9609	87.5204	84.9609	87.5186	84.9609	87.5499	84.9609	87.5505	84.9609	87.586	84.9609	87.592	84.9609	87.625	84.9609	87.6393	84.9609	87.6629	84.9609	87.688	84.9609	87.696	84.9609	87.7333	84.9609	87.721	84.9609	87.7707	84.9609	87.7356	84.9609	87.7964	84.9609	87.7386	84.9609	87.808	84.9609	87.7302	84.9609	87.8047	84.9609	87.7122	84.9609	87.7877	84.9609	87.6879	84.9609	87.7598	84.9609	87.6613	84.9609	87.7252	84.9609	87.6371	84.9609	87.6889	84.9609	87.6193	84.9609	87.6558	84.9609	87.6113	84.9609	87.6302	84.9609	87.6149
87.8906	87.4342	87.8906	87.4385	87.8906	87.4432	87.8906	87.4549	87.8906	87.4654	87.8906	87.4811	87.8906	87.4992	87.8906	87.5139	87.8906	87.5419	87.8906	87.5497	87.8906	87.5895	87.8906	87.5843	87.8906	87.6377	87.8906	87.614	87.8906	87.6814	87.8906	87.6352	87.8906	87.716	87.8906	87.6453	87.8906	87.7376	87.8906	87.643	87.8906	87.7436	87.8906	87.6284	87.8906	87.7332	87.8906	87.6033	87.8906	87.7074	87.8906	87.5713	87.8906	87.6693	87.8906	87.5371	87.8906	87.6236	87.8906	87.5063	87.8906	87.5761	87.8906	87.4838	87.8906	87.5329	87.8906	87.4739	87.8906	87.4992	87.8906	87.4789
90.8203	87.3599	90.8203	87.3641	90.8203	87.3697	90.8203	87.381	90.8203	87.393	90.8203	87.4083	90.8203	87.4284	90.8203	87.4426	90.8203	87.4727	90.8203	87.4798	90.8203	87.5219	90.8203	87.5157	90.8203	87.571	90.8203	87.5458	90.8203	87.6147	90.8203	87.5661	90.8203	87.648	90.8203	87.5736	90.8203	87.6666	90.8203	87.5666	90.8203	87.6676	90.8203	87.545	90.8203	87.6501	90.8203	87.5109	90.8203	87.6152	90.8203	87.4683	90.8203	87.5665	90.8203	87.4228	90.8203	87.5095	90.8203	87.3811	90.8203	87.4512	90.8203	87.3495	90.8203	87.3989	90.8203	87.3336	90.8203	87.3591	90.8203	87.3366
95.2148	87.3641	95.2148	87.3633	95.2148	87.3781	95.2148	87.3749	95.2148	87.4042	95.2148	87.397	95.2148	87.4403	95.2148	87.4265	95.2148	87.483	95.2148	87.4591	95.2148	87.5277	95.2148	87.49	95.2148	87.5696	95.2148	87.5144	95.2148	87.6034	95.2148	87.5277	95.2148	87.6242	95.2148	87.5262	95.2148	87.6281	95.2148	87.508	95.2148	87.6123	95.2148	87.4728	95.2148	87.5764	95.2148	87.4228	95.2148	87.522	95.2148	87.3626	95.2148	87.4535	95.2148	87.299	95.2148	87.3776	95.2148	87.2399	95.2148	87.3026	95.2148	87.1937	95.2148	87.2374	95.2148	87.1674	95.2148	87.1898	95.2148	87.1657
98.1445	87.2956	98.1445	87.2927	98.1445	87.3109	98.1445	87.3016	98.1445	87.3373	98.1445	87.3205	98.1445	87.3729	98.1445	87.3465	98.1445	87.4141	98.1445	87.3755	98.1445	87.4567	98.1445	87.4028	98.1445	87.4958	98.1445	87.4237	98.1445	87.5262	98.1445	87.4334	98.1445	87.5431	98.1445	87.4283	98.1445	87.5425	98.1445	87.4061	98.1445	87.5216	98.1445	87.3666	98.1445	87.4799	98.1445	87.3117	98.1445	87.419	98.1445	87.2463	98.1445	87.3436	98.1445	87.1771	98.1445	87.2606	98.1445	87.1127	98.1445	87.1789	98.1445	87.0621	98.1445	87.108	98.1445	87.033	98.1445	87.0565	98.1445	87.0307
101.074	87.2594	101.074	87.256	101.074	87.273	101.074	87.2624	101.074	87.2961	101.074	87.277	101.074	87.3265	101.074	87.2972	101.074	87.3612	101.074	87.319	101.074	87.3963	101.074	87.3383	101.074	87.4271	101.074	87.3504	101.074	87.449	101.074	87.3509	101.074	87.457	101.074	87.3364	101.074	87.4475	101.074	87.3046	101.074	87.4176	101.074	87.2554	101.074	87.3668	101.074	87.1909	101.074	87.2968	101.074	87.1159	101.074	87.2123	101.074	87.0377	101.074	87.1207	101.074	86.9653	101.074	87.0312	101.074	86.9083	101.074	86.954	101.074	86.875	101.074	86.8984	101.074	86.8711
105.469	87.0217	105.469	87.0242	105.469	87.0262	105.469	87.0334	105.469	87.0373	105.469	87.0478	105.469	87.0533	105.469	87.0649	105.469	87.0718	105.469	87.0815	105.469	87.0896	105.469	87.0935	105.469	87.1028	105.469	87.0964	105.469	87.1071	105.469	87.086	105.469	87.0982	105.469	87.0587	105.469	87.0724	105.469	87.0122	105.469	87.0272	105.469	86.9462	105.469	86.9622	105.469	86.863	105.469	86.8794	105.469	86.7679	105.469	86.7837	105.469	86.6689	105.469	86.6831	105.469	86.576	105.469	86.5876	105.469	86.5001	105.469	86.5083	105.469	86.4508	105.469	86.4551	105.469	86.435
108.398	87.0714	108.398	87.0732	108.398	87.0761	108.398	87.0813	108.398	87.0865	108.398	87.0944	108.398	87.1012	108.398	87.1104	108.398	87.1176	108.398	87.126	108.398	87.1326	108.398	87.1373	108.398	87.1424	108.398	87.1397	108.398	87.1428	108.398	87.1287	108.398	87.1296	108.398	87.1003	108.398	87.0991	108.398	87.0521	108.398	87.049	108.398	86.9834	108.398	86.9789	108.398	86.8964	108.398	86.891	108.398	86.7963	108.398	86.7906	108.398	86.6914	108.398	86.6859	108.398	86.5922	108.398	86.5874	108.398	86.51	108.398	86.5064	108.398	86.4553	108.398	86.4534	108.398	86.4356
112.793	87.0625	112.793	87.0622	112.793	87.0709	112.793	87.0697	112.793	87.0865	112.793	87.0838	112.793	87.1078	112.793	87.1024	112.793	87.1321	112.793	87.1221	112.793	87.1562	112.793	87.1388	112.793	87.1757	112.793	87.1477	112.793	87.1863	112.793	87.1439	112.793	87.1832	112.793	87.1232	112.793	87.1625	112.793	87.0825	112.793	87.1211	112.793	87.0212	112.793	87.0584	112.793	86.941	112.793	86.9762	112.793	86.8473	112.793	86.8794	112.793	86.7483	112.793	86.7761	112.793	86.6546	112.793	86.677	112.793	86.5778	112.793	86.5936	112.793	86.5285	112.793	86.5366	112.793	86.514
117.188	86.8595	117.188	86.8568	117.188	86.8668	117.188	86.8587	117.188	86.8782	117.188	86.8644	117.188	86.8923	117.188	86.8723	117.188	86.9068	117.188	86.8798	117.188	86.919	117.188	86.8833	117.188	86.9252	117.188	86.8786	117.188	86.9213	117.188	86.8614	117.188	86.903	117.188	86.8275	117.188	86.8667	117.188	86.7742	117.188	86.8099	117.188	86.7007	117.188	86.7322	117.188	86.6089	117.188	86.6359	117.188	86.5042	117.188	86.5264	117.188	86.3948	117.188	86.4124	117.188	86.2919	117.188	86.3049	117.188	86.2073	117.188	86.2159	117.188	86.1521	117.188	86.1564	117.188	86.1342
120.117	86.842	120.117	86.8392	120.117	86.8484	120.117	86.84	120.117	86.8576	120.117	86.8438	120.117	86.8682	120.117	86.849	120.117	86.8781	120.117	86.853	120.117	86.8844	120.117	86.8523	120.117	86.8836	120.117	86.8426	120.117	86.8716	120.117	86.8195	120.117	86.8444	120.117	86.7787	120.117	86.7985	120.117	86.7174	120.117	86.7315	120.117	86.6348	120.117	86.6434	120.117	86.5331	120.117	86.5369	120.117	86.4179	120.117	86.4179	120.117	86.2979	120.117	86.2955	120.117	86.1848	120.117	86.1814	120.117	86.0914	120.117	86.0882	120.117	86.0292	120.117	86.0274	120.117	86.0068
124.512	86.8024	124.512	86.7969	124.512	86.8116	124.512	86.7954	124.512	86.8235	124.512	86.7976	124.512	86.8362	124.512	86.8018	124.512	86.8474	124.512	86.8056	124.512	86.8541	124.512	86.8053	124.512	86.8526	124.512	86.7964	124.512	86.8392	124.512	86.7742	124.512	86.81	124.512	86.7345	124.512	86.7616	124.512	86.6742	124.512	86.6922	124.512	86.5925	124.512	86.6018	124.512	86.4914	124.512	86.4935	124.512	86.3766	124.512	86.3733	124.512	86.2568	124.512	86.2504	124.512	86.1438	124.512	86.1364	124.512	86.0501	124.512	86.0439	124.512	85.9875	124.512	85.984	124.512	85.9643
128.906	86.762	128.906	86.7461	128.906	86.7798	128.906	86.733	128.906	86.798	128.906	86.7225	128.906	86.8147	128.906	86.7135	128.906	86.8272	128.906	86.7036	128.906	86.8324	128.906	86.6895	128.906	86.8268	128.906	86.667	128.906	86.8068	128.906	86.6315	128.906	86.7685	128.906	86.5789	128.906	86.709	128.906	86.5066	128.906	86.6265	128.906	86.4141	128.906	86.5214	128.906	86.3038	128.906	86.3971	128.906	86.1817	128.906	86.26	128.906	86.0573	128.906	86.1199	128.906	85.9425	128.906	85.9893	128.906	85.8502	128.906	85.8813	128.906	85.7923	128.906	85.8078	128.906	85.7772
133.301	86.6947	133.301	86.6754	133.301	86.7126	133.301	86.6554	133.301	86.7281	133.301	86.6348	133.301	86.7395	133.301	86.6129	133.301	86.7452	133.301	86.5881	133.301	86.7426	133.301	86.5579	133.301	86.7289	133.301	86.5189	133.301	86.7008	133.301	86.4674	133.301	86.6549	133.301	86.4002	133.301	86.5882	133.301	86.3151	133.301	86.4988	133.301	86.2122	133.301	86.3868	133.301	86.0943	133.301	86.2554	133.301	85.9678	133.301	86.1108	133.301	85.842	133.301	85.9627	133.301	85.7288	133.301	85.8234	133.301	85.641	133.301	85.7061	133.301	85.5899	133.301	85.6231	133.301	85.5832
139.16	86.5313	139.16	86.5129	139.16	86.5448	139.16	86.4899	139.16	86.553	139.16	86.4623	139.16	86.5555	139.16	86.4301	139.16	86.5514	139.16	86.3924	139.16	86.5394	139.16	86.3478	139.16	86.5174	139.16	86.294	139.16	86.4825	139.16	86.2284	139.16	86.4316	139.16	86.1486	139.16	86.3615	139.16	86.0531	139.16	86.2701	139.16	85.9425	139.16	86.1572	139.16	85.8199	139.16	86.0253	139.16	85.6917	139.16	85.8802	139.16	85.5675	139.16	85.7311	139.16	85.4586	139.16	85.5896	139.16	85.3772	139.16	85.4688	139.16	85.3335	139.16	85.3807	139.16	85.3342
143.555	86.2578	143.555	86.2328	143.555	86.2793	143.555	86.2048	143.555	86.297	143.555	86.1744	143.555	86.3105	143.555	86.1423	143.555	86.3192	143.555	86.1083	143.555	86.3217	143.555	86.0714	143.555	86.3158	143.555	86.0294	143.555	86.2982	143.555	85.9794	143.555	86.2651	143.555	85.9183	143.555	86.2129	143.555	85.8438	143.555	86.1391	143.555	85.7556	143.555	86.0431	143.555	85.6562	143.555	85.927	143.555	85.5512	143.555	85.7962	143.555	85.4492	143.555	85.6594	143.555	85.3609	143.555	85.5277	143.555	85.2971	143.555	85.413	143.555	85.2671	143.555	85.3266	143.555	85.2766
147.949	86.1814	147.949	86.1475	147.949	86.2129	147.949	86.1123	147.949	86.2407	147.949	86.0764	147.949	86.263	147.949	86.0397	147.949	86.2777	147.949	86.0012	147.949	86.2824	147.949	85.9588	147.949	86.2742	147.949	85.9096	147.949	86.2497	147.949	85.8504	147.949	86.2059	147.949	85.7786	147.949	86.1401	147.949	85.6928	147.949	86.0512	147.949	85.5939	147.949	85.9399	147.949	85.4858	147.949	85.8096	147.949	85.3752	147.949	85.6668	147.949	85.2713	147.949	85.5203	147.949	85.1842	147.949	85.3812	147.949	85.1243	147.949	85.2607	147.949	85.0993	147.949	85.1692	147.949	85.1141
153.809	86.2277	153.809	86.1995	153.809	86.242	153.809	86.1586	153.809	86.2417	153.809	86.1061	153.809	86.2263	153.809	86.043	153.809	86.1957	153.809	85.9695	153.809	86.1498	153.809	85.8853	153.809	86.0887	153.809	85.7897	153.809	86.0117	153.809	85.6815	153.809	85.9184	153.809	85.5603	153.809	85.8081	153.809	85.427	153.809	85.6809	153.809	85.2844	153.809	85.5384	153.809	85.138	153.809	85.3842	153.809	84.9957	153.809	85.2246	153.809	84.867	153.809	85.0679	153.809	84.762	153.809	84.9242	153.809	84.6893	153.809	84.8034	153.809	84.6556	153.809	84.7145	153.809	84.664
159.668	86.2068	159.668	86.1816	159.668	86.2194	159.668	86.1436	159.668	86.2193	159.668	86.0931	159.668	86.2069	159.668	86.0303	159.668	86.1823	159.668	85.955	159.668	86.1453	159.668	85.8669	159.668	86.0953	159.668	85.7655	159.668	86.0309	159.668	85.6504	159.668	85.9504	159.668	85.5221	159.668	85.852	159.668	85.3828	159.668	85.7351	159.668	85.2366	159.668	85.6005	159.668	85.0901	159.668	85.4515	159.668	84.9522	159.668	85.294	159.668	84.8326	159.668	85.1363	159.668	84.7409	159.668	84.9881	159.668	84.6846	159.668	84.8593	159.668	84.6684	159.668	84.7589	159.668	84.6937
165.527	86.2887	165.527	86.2705	165.527	86.2926	165.527	86.2385	165.527	86.2823	165.527	86.193	165.527	86.258	165.527	86.1343	165.527	86.2203	165.527	86.0623	165.527	86.1697	165.527	85.9763	165.527	86.1065	165.527	85.8754	165.527	86.0308	165.527	85.7589	165.527	85.942	165.527	85.627	165.527	85.8395	165.527	85.482	165.527	85.7232	165.527	85.329	165.527	85.5941	165.527	85.1756	165.527	85.4551	165.527	85.0321	165.527	85.3111	165.527	84.9094	165.527	85.1689	165.527	84.817	165.527	85.0362	165.527	84.7618	165.527	84.9208	165.527	84.7465	165.527	84.8301	165.527	84.7703
171.387	86.1324	171.387	86.1105	171.387	86.1333	171.387	86.0686	171.387	86.1133	171.387	86.0088	171.387	86.0736	171.387	85.9334	171.387	86.0161	171.387	85.8447	171.387	85.9433	171.387	85.7444	171.387	85.8574	171.387	85.6336	171.387	85.7601	171.387	85.5128	171.387	85.6523	171.387	85.3829	171.387	85.5348	171.387	85.2456	171.387	85.4084	171.387	85.1048	171.387	85.2754	171.387	84.9666	171.387	85.1395	171.387	84.8388	171.387	85.006	171.387	84.7296	171.387	84.8813	171.387	84.6461	171.387	84.7717	171.387	84.5925	171.387	84.6824	171.387	84.5705	171.387	84.6175	171.387	84.5794
177.246	85.8525	177.246	85.829	177.246	85.8572	177.246	85.7872	177.246	85.8437	177.246	85.7286	177.246	85.8136	177.246	85.6554	177.246	85.769	177.246	85.5696	177.246	85.7121	177.246	85.4728	177.246	85.6444	177.246	85.3658	177.246	85.5667	177.246	85.249	177.246	85.4789	177.246	85.1229	177.246	85.3805	177.246	84.9897	177.246	85.2715	177.246	84.8537	177.246	85.1529	177.246	84.7219	177.246	85.0275	177.246	84.6031	177.246	84.8997	177.246	84.5061	177.246	84.7754	177.246	84.438	177.246	84.6608	177.246	84.4024	177.246	84.5617	177.246	84.3996	177.246	84.4826	177.246	84.4274
183.105	85.762	183.105	85.7231	183.105	85.7732	183.105	85.6577	183.105	85.7568	183.105	85.5684	183.105	85.7142	183.105	85.4584	183.105	85.6484	183.105	85.3314	183.105	85.5632	183.105	85.1915	183.105	85.4627	183.105	85.0427	183.105	85.3511	183.105	84.8894	183.105	85.2323	183.105	84.7364	183.105	85.1095	183.105	84.5894	183.105	84.9857	183.105	84.4549	183.105	84.8639	183.105	84.3402	183.105	84.7469	183.105	84.2516	183.105	84.6374	183.105	84.1938	183.105	84.5375	183.105	84.1676	183.105	84.448	183.105	84.1706	183.105	84.369	183.105	84.1973	183.105	84.3001	183.105	84.2421
188.965	85.8258	188.965	85.8088	188.965	85.8044	188.965	85.7525	188.965	85.7472	188.965	85.6579	188.965	85.6584	188.965	85.5275	188.965	85.5435	188.965	85.365	188.965	85.4085	188.965	85.1755	188.965	85.2594	188.965	84.9655	188.965	85.1017	188.965	84.7429	188.965	84.94	188.965	84.5176	188.965	84.7789	188.965	84.302	188.965	84.6228	188.965	84.1095	188.965	84.4763	188.965	83.9535	188.965	84.3441	188.965	83.8438	188.965	84.2302	188.965	83.7839	188.965	84.1358	188.965	83.7695	188.965	84.0591	188.965	83.7899	188.965	83.9951	188.965	83.8316	188.965	83.9378	188.965	83.8832
196.289	85.8403	196.289	85.8303	196.289	85.8222	196.289	85.7915	196.289	85.7774	196.289	85.7238	196.289	85.7084	196.289	85.6281	196.289	85.6181	196.289	85.5052	196.289	85.5096	196.289	85.3559	196.289	85.3857	196.289	85.181	196.289	85.2494	196.289	84.9827	196.289	85.1032	196.289	84.7653	196.289	84.9502	196.289	84.5379	196.289	84.7939	196.289	84.3143	196.289	84.6386	196.289	84.1124	196.289	84.4896	196.289	83.9503	196.289	84.352	196.289	83.8412	196.289	84.2294	196.289	83.7886	196.289	84.1227	196.289	83.7861	196.289	84.0303	196.289	83.8204	196.289	83.949	196.289	83.8779
203.613	85.72	203.613	85.7638	203.613	85.6416	203.613	85.7731	203.613	85.5302	203.613	85.7484	203.613	85.3894	203.613	85.6903	203.613	85.2251	203.613	85.5985	203.613	85.0449	203.613	85.4722	203.613	84.8574	203.613	85.3104	203.613	84.6712	203.613	85.114	203.613	84.4942	203.613	84.8871	203.613	84.3326	203.613	84.6389	203.613	84.1907	203.613	84.3846	203.613	84.0713	203.613	84.1444	203.613	83.975	203.613	83.9395	203.613	83.9003	203.613	83.7869	203.613	83.8433	203.613	83.6937	203.613	83.7979	203.613	83.6551	203.613	83.7581	203.613	83.6573	203.613	83.7196	203.613	83.6835
210.938	85.6692	210.938	85.6784	210.938	85.6225	210.938	85.6506	210.938	85.5391	210.938	85.5869	210.938	85.4209	210.938	85.489	210.938	85.2714	210.938	85.3589	210.938	85.0953	210.938	85.1984	210.938	84.8987	210.938	85.0097	210.938	84.6896	210.938	84.7964	210.938	84.4772	210.938	84.5649	210.938	84.2721	210.938	84.3255	210.938	84.0854	210.938	84.0935	210.938	83.9274	210.938	83.8874	210.938	83.8055	210.938	83.7249	210.938	83.7221	210.938	83.6176	210.938	83.6733	210.938	83.5655	210.938	83.649	210.938	83.5576	210.938	83.6359	210.938	83.5755	210.938	83.622	210.938	83.601
218.262	85.6354	218.262	85.6388	218.262	85.5918	218.262	85.6048	218.262	85.5068	218.262	85.537	218.262	85.3813	218.262	85.439	218.262	85.2183	218.262	85.3139	218.262	85.0237	218.262	85.1634	218.262	84.8055	218.262	84.989	218.262	84.5742	218.262	84.7925	218.262	84.3424	218.262	84.5787	218.262	84.124	218.262	84.3567	218.262	83.9336	218.262	84.1408	218.262	83.7837	218.262	83.9497	218.262	83.6826	218.262	83.8009	218.262	83.6312	218.262	83.7053	218.262	83.6217	218.262	83.6618	218.262	83.639	218.262	83.6571	218.262	83.6644	218.262	83.6711	218.262	83.6822	218.262	83.6836
225.586	85.65	225.586	85.6357	225.586	85.6177	225.586	85.5786	225.586	85.5374	225.586	85.4834	225.586	85.4098	225.586	85.3557	225.586	85.2387	225.586	85.2005	225.586	85.0305	225.586	85.0223	225.586	84.7949	225.586	84.8246	225.586	84.5445	225.586	84.6116	225.586	84.2951	225.586	84.3901	225.586	84.0641	225.586	84.1716	225.586	83.8698	225.586	83.9732	225.586	83.7278	225.586	83.8145	225.586	83.6476	225.586	83.7125	225.586	83.6286	225.586	83.6733	225.586	83.6584	225.586	83.688	225.586	83.7154	225.586	83.7346	225.586	83.774	225.586	83.7852	225.586	83.8117	225.586	83.8155
232.91	85.6732	232.91	85.6721	232.91	85.6183	232.91	85.6197	232.91	85.5045	232.91	85.5219	232.91	85.3315	232.91	85.3849	232.91	85.102	232.91	85.2146	232.91	84.8228	232.91	85.016	232.91	84.5052	232.91	84.793	232.91	84.166	232.91	84.5502	232.91	83.8276	232.91	84.2944	232.91	83.5176	232.91	84.0378	232.91	83.2653	232.91	83.7993	232.91	83.0963	232.91	83.6029	232.91	83.0244	232.91	83.47	232.91	83.0456	232.91	83.4105	232.91	83.1371	232.91	83.415	232.91	83.2631	232.91	83.4563	232.91	83.3856	232.91	83.499	232.91	83.4737	232.91	83.5111
241.699	85.5118	241.699	85.4898	241.699	85.4806	241.699	85.4203	241.699	85.3923	241.699	85.3099	241.699	85.2447	241.699	85.1656	241.699	85.0375	241.699	84.9939	241.699	84.7728	241.699	84.8001	241.699	84.4552	241.699	84.5882	241.699	84.094	241.699	84.3615	241.699	83.7047	241.699	84.1251	241.699	83.3118	241.699	83.8873	241.699	82.9499	241.699	83.6619	241.699	82.6597	241.699	83.4668	241.699	82.4777	241.699	83.3183	241.699	82.4218	241.699	83.2239	241.699	82.481	241.699	83.1753	241.699	82.6181	241.699	83.1498	241.699	82.7848	241.699	83.1171	241.699	82.938	241.699	83.0508
250.488	85.5036	250.488	85.4014	250.488	85.5419	250.488	85.2411	250.488	85.5122	250.488	85.0309	250.488	85.412	250.488	84.7811	250.488	85.2403	250.488	84.5035	250.488	84.9976	250.488	84.2108	250.488	84.6865	250.488	83.9163	250.488	84.3133	250.488	83.6329	250.488	83.8906	250.488	83.3741	250.488	83.4405	250.488	83.1539	250.488	82.9976	250.488	82.9861	250.488	82.6089	250.488	82.8811	250.488	82.3255	250.488	82.84	250.488	82.1852	250.488	82.8504	250.488	82.1937	250.488	82.8862	250.488	82.3184	250.488	82.9136	250.488	82.5019	250.488	82.9001	250.488	82.6853	250.488	82.8249
259.277	85.9939	259.277	85.9159	259.277	86.0119	259.277	85.7798	259.277	85.9692	259.277	85.5884	259.277	85.8659	259.277	85.3455	259.277	85.7029	259.277	85.0565	259.277	85.4821	259.277	84.7287	259.277	85.2067	259.277	84.3723	259.277	84.8823	259.277	84.0017	259.277	84.5185	259.277	83.6375	259.277	84.1318	259.277	83.3063	259.277	83.7467	259.277	83.0385	259.277	83.3962	259.277	82.8603	259.277	83.1159	259.277	82.7836	259.277	82.9338	259.277	82.7974	259.277	82.8576	259.277	82.8689	259.277	82.8694	259.277	82.9553	259.277	82.9308	259.277	83.0178	259.277	82.9974	259.277	83.0327
268.066	85.7805	268.066	85.6932	268.066	85.7957	268.066	85.5328	268.066	85.7407	268.066	85.2996	268.066	85.6188	268.066	84.9956	268.066	85.4337	268.066	84.6259	268.066	85.19	268.066	84.1999	268.066	84.8928	268.066	83.7344	268.066	84.549	268.066	83.2561	268.066	84.1685	268.066	82.8038	268.066	83.7685	268.066	82.4262	268.066	83.3763	268.066	82.1721	268.066	83.0299	268.066	82.072	268.066	82.771	268.066	82.1221	268.066	82.6299	268.066	82.2819	268.066	82.6084	268.066	82.4906	268.066	82.6754	268.066	82.6877	268.066	82.7785	268.066	82.8276	268.066	82.8627	268.066	82.8863
276.855	85.8366	276.855	85.7916	276.855	85.8173	276.855	85.6818	276.855	85.734	276.855	85.5059	276.855	85.5884	276.855	85.2607	276.855	85.3836	276.855	84.9414	276.855	85.1253	276.855	84.5424	276.855	84.8215	276.855	84.0614	276.855	84.4824	276.855	83.5052	276.855	84.121	276.855	82.8992	276.855	83.7532	276.855	82.297	276.855	83.3987	276.855	81.7837	276.855	83.0817	276.855	81.4551	276.855	82.8281	276.855	81.3704	276.855	82.6587	276.855	81.5098	276.855	82.5782	276.855	81.7848	276.855	82.5676	276.855	82.0899	276.855	82.5857	276.855	82.3451	276.855	82.5816	276.855	82.51
287.109	85.7794	287.109	85.784	287.109	85.7065	287.109	85.72	287.109	85.5674	287.109	85.5884	287.109	85.3665	287.109	85.3908	287.109	85.1104	287.109	85.1281	287.109	84.8075	287.109	84.8007	287.109	84.4692	287.109	84.4093	287.109	84.1118	287.109	83.9583	287.109	83.7579	287.109	83.4624	287.109	83.4376	287.109	82.9543	287.109	83.1831	287.109	82.4906	287.109	83.0197	287.109	82.1451	287.109	82.9545	287.109	81.9817	287.109	82.9707	287.109	82.018	287.109	83.0329	287.109	82.2104	287.109	83.0976	287.109	82.4791	287.109	83.1242	287.109	82.7456	287.109	83.0822	287.109	82.9553
297.363	85.974	297.363	85.9822	297.363	85.8898	297.363	85.9167	297.363	85.7264	297.363	85.7787	297.363	85.4811	297.363	85.568	297.363	85.1519	297.363	85.2821	297.363	84.7399	297.363	84.9177	297.363	84.2527	297.363	84.4732	297.363	83.7098	297.363	83.954	297.363	83.1498	297.363	83.381	297.363	82.6368	297.363	82.8008	297.363	82.2544	297.363	82.2916	297.363	82.0786	297.363	81.9508	297.363	82.1344	297.363	81.8527	297.363	82.3737	297.363	81.9993	297.363	82.6996	297.363	82.3139	297.363	83.0104	297.363	82.6855	297.363	83.2287	297.363	83.015	297.363	83.3092	297.363	83.2349
307.617	85.8722	307.617	85.8306	307.617	85.8438	307.617	85.7281	307.617	85.7372	307.617	85.5743	307.617	85.5451	307.617	85.3775	307.617	85.2617	307.617	85.1429	307.617	84.8827	307.617	84.8716	307.617	84.407	307.617	84.5604	307.617	83.8408	307.617	84.2049	307.617	83.2033	307.617	83.8069	307.617	82.5375	307.617	83.3831	307.617	81.92	307.617	82.9743	307.617	81.4586	307.617	82.644	307.617	81.2568	307.617	82.4572	307.617	81.3499	307.617	82.4419	307.617	81.6713	307.617	82.5633	307.617	82.0915	307.617	82.7381	307.617	82.4848	307.617	82.8727	307.617	82.7659	307.617	82.8948
319.336	85.6899	319.336	85.6319	319.336	85.6676	319.336	85.4957	319.336	85.5622	319.336	85.2836	319.336	85.3702	319.336	84.9977	319.336	85.0879	319.336	84.6408	319.336	84.7119	319.336	84.2182	319.336	84.2412	319.336	83.7402	319.336	83.6825	319.336	83.2272	319.336	83.0584	319.336	82.715	319.336	82.4199	319.336	82.2597	319.336	81.8546	319.336	81.9319	319.336	81.4746	319.336	81.7941	319.336	81.3674	319.336	81.866	319.336	81.535	319.336	82.1046	319.336	81.888	319.336	82.4224	319.336	82.3003	319.336	82.7238	319.336	82.6642	319.336	82.9326	319.336	82.9095	319.336	83.0012
329.59	85.5575	329.59	85.4871	329.59	85.5556	329.59	85.3472	329.59	85.4764	329.59	85.1381	329.59	85.3126	329.59	84.8571	329.59	85.0546	329.59	84.4982	329.59	84.6908	329.59	84.0546	329.59	84.2092	329.59	83.5231	329.59	83.6028	329.59	82.9137	329.59	82.8789	329.59	82.2635	329.59	82.0782	329.59	81.6522	329.59	81.3002	329.59	81.2005	329.59	80.7132	329.59	81.0263	329.59	80.4958	329.59	81.1651	329.59	80.7005	329.59	81.5352	329.59	81.197	329.59	81.9916	329.59	81.7795	329.59	82.4007	329.59	82.285	329.59	82.6714	329.59	82.6221	329.59	82.7524
341.309	85.3654	341.309	85.2387	341.309	85.4114	341.309	85.0369	341.309	85.3724	341.309	84.7675	341.309	85.2445	341.309	84.439	341.309	85.0228	341.309	84.0583	341.309	84.7008	341.309	83.6277	341.309	84.2712	341.309	83.1458	341.309	83.7287	341.309	82.6146	341.309	83.076	341.309	82.0553	341.309	82.3374	341.309	81.5268	341.309	81.5809	341.309	81.1335	341.309	80.9397	341.309	80.9906	341.309	80.593	341.309	81.1464	341.309	80.6582	341.309	81.5328	341.309	81.077	341.309	82.0066	341.309	81.6555	341.309	82.4271	341.309	82.1999	341.309	82.6953	341.309	82.5858	341.309	82.7552
353.027	85.8202	353.027	85.6725	353.027	85.8514	353.027	85.403	353.027	85.7677	353.027	85.0034	353.027	85.5673	353.027	84.4631	353.027	85.2457	353.027	83.7722	353.027	84.7969	353.027	82.9268	353.027	84.2165	353.027	81.9384	353.027	83.5057	353.027	80.8549	353.027	82.68	353.027	79.7949	353.027	81.7839	353.027	78.9835	353.027	80.9126	353.027	78.6967	353.027	80.2259	353.027	79.0415	353.027	79.9086	353.027	79.8258	353.027	80.0495	353.027	80.7414	353.027	80.5545	353.027	81.56	353.027	81.2173	353.027	82.1608	353.027	81.8452	353.027	82.4913	353.027	82.3096	353.027	82.5372
366.211	86.5541	366.211	86.595	366.211	86.4236	366.211	86.5407	366.211	86.2024	366.211	86.3786	366.211	85.8843	366.211	86.0894	366.211	85.4604	366.211	85.647	366.211	84.9213	366.211	85.0192	366.211	84.2605	366.211	84.1682	366.211	83.4789	366.211	83.0544	366.211	82.5941	366.211	81.6461	366.211	81.6588	366.211	79.9582	366.211	80.7853	366.211	78.1682	366.211	80.1461	366.211	76.8338	366.211	79.8976	366.211	76.7002	366.211	80.0494	366.211	77.6579	366.211	80.4457	366.211	78.9207	366.211	80.8843	366.211	80.0043	366.211	81.2124	366.211	80.7678	366.211	81.3374	366.211	81.2026
379.395	86.2859	379.395	86.3216	379.395	86.2043	379.395	86.3115	379.395	86.0686	379.395	86.2467	379.395	85.8631	379.395	86.1084	379.395	85.5656	379.395	85.8679	379.395	85.1487	379.395	85.4884	379.395	84.5824	379.395	84.9288	379.395	83.837	379.395	84.1509	379.395	82.892	379.395	83.1316	379.395	81.7573	379.395	81.8879	379.395	80.5249	379.395	80.5308	379.395	79.451	379.395	79.3473	379.395	78.9423	379.395	78.7706	379.395	79.2061	379.395	79.0043	379.395	79.9633	379.395	79.7561	379.395	80.7805	379.395	80.5962	379.395	81.3903	379.395	81.2621	379.395	81.6858	379.395	81.6398
392.578	85.9482	392.578	85.8746	392.578	85.9658	392.578	85.7515	392.578	85.9132	392.578	85.5771	392.578	85.7695	392.578	85.3411	392.578	85.5112	392.578	85.024	392.578	85.1143	392.578	84.5976	392.578	84.5564	392.578	84.0267	392.578	83.8168	392.578	83.2782	392.578	82.8801	392.578	82.341	392.578	81.751	392.578	81.2678	392.578	80.499	392.578	80.2416	392.578	79.3466	392.578	79.5991	392.578	78.712	392.578	79.6219	392.578	78.9145	392.578	80.2142	392.578	79.7537	392.578	81.0151	392.578	80.7564	392.578	81.7248	392.578	81.597	392.578	82.1871	392.578	82.1368	392.578	82.3335
405.762	85.817	405.762	85.8737	405.762	85.7214	405.762	85.8839	405.762	85.5851	405.762	85.8302	405.762	85.3989	405.762	85.6866	405.762	85.1473	405.762	85.4197	405.762	84.8078	405.762	84.9901	405.762	84.3476	405.762	84.352	405.762	83.7225	405.762	83.4551	405.762	82.8847	405.762	82.2542	405.762	81.8064	405.762	80.7444	405.762	80.5382	405.762	79.0755	405.762	79.3209	405.762	77.7867	405.762	78.6492	405.762	77.6839	405.762	78.8959	405.762	78.7247	405.762	79.7971	405.762	80.0738	405.762	80.8191	405.762	81.1928	405.762	81.6362	405.762	81.9165	405.762	82.1194	405.762	82.2209
420.41	86.3006	420.41	86.3587	420.41	86.2285	420.41	86.4014	420.41	86.1334	420.41	86.4157	420.41	85.9976	420.41	86.3765	420.41	85.7943	420.41	86.2468	420.41	85.4868	420.41	85.9801	420.41	85.0266	420.41	85.5226	420.41	84.3534	420.41	84.8172	420.41	83.3983	420.41	83.8095	420.41	82.0949	420.41	82.4649	420.41	80.42	420.41	80.821	420.41	78.5433	420.41	79.1388	420.41	77.1772	420.41	78.1052	420.41	77.3304	420.41	78.3556	420.41	78.6762	420.41	79.4716	420.41	80.139	420.41	80.6531	420.41	81.2198	420.41	81.502	420.41	81.808	420.41	81.8977
435.059	84.9201	435.059	84.9893	435.059	84.8513	435.059	85.0547	435.059	84.7827	435.059	85.1064	435.059	84.7091	435.059	85.1247	435.059	84.6174	435.059	85.0776	435.059	84.4824	435.059	84.9199	435.059	84.2635	435.059	84.597	435.059	83.9065	435.059	84.0523	435.059	83.3518	435.059	83.2409	435.059	82.5509	435.059	82.1533	435.059	81.5001	435.059	80.8705	435.059	80.3126	435.059	79.6696	435.059	79.3287	435.059	79.055	435.059	79.0456	435.059	79.3367	435.059	79.5845	435.059	80.1889	435.059	80.5009	435.059	81.0848	435.059	81.332	435.059	81.7213	435.059	81.8523	435.059	81.9865
451.172	85.1571	451.172	85.1396	451.172	85.138	451.172	85.094	451.172	85.0671	451.172	85.0179	451.172	84.9255	451.172	84.8956	451.172	84.6919	451.172	84.6992	451.172	84.3401	451.172	84.3904	451.172	83.8351	451.172	83.923	451.172	83.1313	451.172	83.2478	451.172	82.1734	451.172	82.3218	451.172	80.906	451.172	81.137	451.172	79.314	451.172	79.7985	451.172	77.5768	451.172	78.678	451.172	76.4259	451.172	78.3999	451.172	76.847	451.172	79.1483	451.172	78.439	451.172	80.3502	451.172	80.1146	451.172	81.435	451.172	81.3857	451.172	82.1449	451.172	82.1458	451.172	82.3927
465.82	84.9851	465.82	84.9194	465.82	85.0311	465.82	84.8308	465.82	85.0538	465.82	84.7088	465.82	85.0399	465.82	84.5343	465.82	84.963	465.82	84.2782	465.82	84.7809	465.82	83.9022	465.82	84.4378	465.82	83.3612	465.82	83.8693	465.82	82.6063	465.82	83.0088	465.82	81.5941	465.82	81.7965	465.82	80.3136	465.82	80.2031	465.82	78.868	465.82	78.3256	465.82	77.6512	465.82	76.6724	465.82	77.3507	465.82	76.2873	465.82	78.1558	465.82	77.3825	465.82	79.4097	465.82	78.9261	465.82	80.5009	465.82	80.2126	465.82	81.1747	465.82	81.0363	465.82	81.3581
483.398	84.4921	483.398	84.512	483.398	84.4612	483.398	84.5127	483.398	84.4189	483.398	84.4766	483.398	84.3568	483.398	84.3722	483.398	84.2558	483.398	84.1524	483.398	84.0839	483.398	83.7547	483.398	83.7945	483.398	83.1055	483.398	83.3272	483.398	82.125	483.398	82.6128	483.398	80.7337	483.398	81.5862	483.398	78.8759	483.398	80.2183	483.398	76.6505	483.398	78.6069	483.398	74.8107	483.398	77.1899	483.398	74.8939	483.398	76.7777	483.398	76.6228	483.398	77.5817	483.398	78.4545	483.398	78.8423	483.398	79.7979	483.398	79.9297	483.398	80.5836	483.398	80.6175	483.398	80.845
499.512	85.4266	499.512	85.4434	499.512	85.3926	499.512	85.4444	499.512	85.3368	499.512	85.4233	499.512	85.2507	499.512	85.3601	499.512	85.1162	499.512	85.2195	499.512	84.898	499.512	84.9538	499.512	84.5412	499.512	84.5087	499.512	83.9761	499.512	83.8286	499.512	83.128	499.512	82.8602	499.512	81.9319	499.512	81.5642	499.512	80.3723	499.512	79.9602	499.512	78.6196	499.512	78.2755	499.512	77.3324	499.512	77.1865	499.512	77.4194	499.512	77.4118	499.512	78.6147	499.512	78.5802	499.512	79.9308	499.512	79.8468	499.512	80.8742	499.512	80.7924	499.512	81.3304	499.512	81.2974
517.09	85.7706	517.09	85.7992	517.09	85.7388	517.09	85.8207	517.09	85.7086	517.09	85.8274	517.09	85.6804	517.09	85.7953	517.09	85.6407	517.09	85.673	517.09	85.556	517.09	85.3841	517.09	85.3733	517.09	84.8411	517.09	85.0268	517.09	83.9647	517.09	84.443	517.09	82.7012	517.09	83.5461	517.09	81.0592	517.09	82.2797	517.09	79.251	517.09	80.699	517.09	78.0095	517.09	79.2319	517.09	78.2646	517.09	78.8224	517.09	79.6486	517.09	79.7665	517.09	81.1518	517.09	81.1607	517.09	82.3075	517.09	82.3109	517.09	83.0084	517.09	83.0137	517.09	83.2442
536.133	86.3725	536.133	86.4433	536.133	86.2447	536.133	86.4697	536.133	86.0371	536.133	86.4421	536.133	85.7276	536.133	86.3207	536.133	85.3007	536.133	86.0397	536.133	84.7465	536.133	85.5217	536.133	84.0552	536.133	84.6946	536.133	83.2202	536.133	83.4942	536.133	82.2719	536.133	81.8533	536.133	81.3551	536.133	79.7432	536.133	80.7961	536.133	77.5313	536.133	80.9312	536.133	76.7916	536.133	81.704	536.133	78.3722	536.133	82.7126	536.133	80.5173	536.133	83.6158	536.133	82.234	536.133	84.2637	536.133	83.4235	536.133	84.6301	536.133	84.177	536.133	84.7351	536.133	84.5919
555.176	87.3025	555.176	87.2919	555.176	87.3805	555.176	87.362	555.176	87.4887	555.176	87.494	555.176	87.5658	555.176	87.6298	555.176	87.5256	555.176	87.6774	555.176	87.2564	555.176	87.5308	555.176	86.6176	555.176	87.0779	555.176	85.4171	555.176	86.1849	555.176	83.3397	555.176	84.6641	555.176	79.7069	555.176	82.2467	555.176	72.5425	555.176	78.6686	555.176	71.875	555.176	75.3375	555.176	79.4585	555.176	77.2398	555.176	83.2733	555.176	80.6344	555.176	85.4026	555.176	83.0515	555.176	86.5445	555.176	84.6841	555.176	87.008	555.176	85.8037	555.176	86.9731	555.176	86.555
574.219	86.1919	574.219	85.9693	574.219	86.5964	574.219	85.9716	574.219	87.127	574.219	86.2141	574.219	87.6981	574.219	86.6349	574.219	88.1931	574.219	87.0757	574.219	88.4872	574.219	87.3293	574.219	88.4669	574.219	87.195	574.219	88.0142	574.219	86.486	574.219	86.9529	574.219	84.9659	574.219	84.938	574.219	82.1865	574.219	81.115	574.219	77.1875	574.219	71.9561	574.219	73.727	574.219	74.4409	574.219	80.0408	574.219	82.4763	574.219	84.2603	574.219	86.1973	574.219	86.7747	574.219	88.2423	574.219	88.3238	574.219	89.3265	574.219	89.2523	574.219	89.7647	574.219	89.7196
594.727	84.1215	594.727	84.2763	594.727	84.1466	594.727	84.5717	594.727	84.519	594.727	85.0894	594.727	85.3435	594.727	85.8665	594.727	86.4819	594.727	86.7659	594.727	87.629	594.727	87.5491	594.727	88.4861	594.727	87.9904	594.727	88.825	594.727	87.8688	594.727	88.4729	594.727	86.8785	594.727	87.2477	594.727	84.4626	594.727	84.8203	594.727	79.0678	594.727	80.5243	594.727	67.007	594.727	76.8548	594.727	80.6409	594.727	82.0709	594.727	85.9504	594.727	86.3569	594.727	88.7735	594.727	88.9235	594.727	90.3832	594.727	90.434	594.727	91.2204	594.727	91.2321	594.727	91.4806
615.234	85.3369	615.234	85.1805	615.234	85.2272	615.234	84.8436	615.234	84.9586	615.234	84.6152	615.234	84.8421	615.234	84.8929	615.234	85.2457	615.234	85.7969	615.234	86.1923	615.234	86.9876	615.234	87.288	615.234	88.0148	615.234	88.1115	615.234	88.5484	615.234	88.404	615.234	88.3515	615.234	87.9991	615.234	87.2055	615.234	86.699	615.234	84.8557	615.234	84.1979	615.234	81.3886	615.234	80.6504	615.234	80.5869	615.234	80.6982	615.234	84.1901	615.234	84.6246	615.234	87.2566	615.234	87.5961	615.234	89.1736	615.234	89.3898	615.234	90.2202	615.234	90.324	615.234	90.5828
637.207	85.2376	637.207	84.973	637.207	85.1525	637.207	84.3941	637.207	84.8119	637.207	83.7302	637.207	84.4636	637.207	83.5112	637.207	84.4903	637.207	84.255	637.207	85.1245	637.207	85.7263	637.207	86.1368	637.207	87.2222	637.207	87.0814	637.207	88.2625	637.207	87.6382	637.207	88.6255	637.207	87.6121	637.207	88.1769	637.207	86.813	637.207	86.743	637.207	84.9807	637.207	84.0255	637.207	81.8455	637.207	79.8841	637.207	78.636	637.207	78.3779	637.207	80.3815	637.207	82.06	637.207	83.6856	637.207	84.947	637.207	85.8186	637.207	86.5234	637.207	86.8971	637.207	87.1223
659.18	85.4646	659.18	85.2148	659.18	85.2725	659.18	84.5211	659.18	84.7101	659.18	83.51	659.18	83.9873	659.18	82.6655	659.18	83.5706	659.18	82.8216	659.18	83.9843	659.18	84.0767	659.18	85.142	659.18	85.6058	659.18	86.4237	659.18	86.7787	659.18	87.3406	659.18	87.2973	659.18	87.6504	659.18	86.9665	659.18	87.1899	659.18	85.5663	659.18	85.7379	659.18	82.6579	659.18	82.8969	659.18	77.035	659.18	78.123	659.18	71.9945	659.18	75.7918	659.18	79.2206	659.18	80.369	659.18	83.1187	659.18	83.5382	659.18	84.962	659.18	85.1163	659.18	85.5541
682.617	86.9264	682.617	86.5496	682.617	86.716	682.617	85.5144	682.617	85.9429	682.617	83.7141	682.617	84.6522	682.617	81.2367	682.617	83.1512	682.617	79.509	682.617	82.4525	682.617	80.8843	682.617	83.4348	682.617	83.477	682.617	85.1424	682.617	85.4656	682.617	86.4372	682.617	86.5436	682.617	86.9028	682.617	86.6589	682.617	86.3973	682.617	85.6694	682.617	84.7222	682.617	83.1516	682.617	81.2627	682.617	77.9714	682.617	73.4532	682.617	72.6414	682.617	71.1022	682.617	79.6392	682.617	80.2633	682.617	83.6836	682.617	84.0057	682.617	85.6158	682.617	85.7495	682.617	86.2355
707.52	88.4648	707.52	88.3455	707.52	88.0549	707.52	87.6317	707.52	87.1145	707.52	86.1901	707.52	85.6032	707.52	83.8419	707.52	83.584	707.52	80.5192	707.52	81.8395	707.52	77.7766	707.52	82.1278	707.52	79.8286	707.52	83.993	707.52	83.2953	707.52	85.7347	707.52	85.5146	707.52	86.7586	707.52	86.3364	707.52	86.8202	707.52	85.8015	707.52	85.5973	707.52	83.6953	707.52	82.4705	707.52	79.194	707.52	76.4384	707.52	74.5021	707.52	77.9854	707.52	80.6833	707.52	83.6997	707.52	84.9483	707.52	86.6624	707.52	87.1711	707.52	87.972	707.52	88.1063
732.422	88.8748	732.422	88.8229	732.422	88.5231	732.422	88.3558	732.422	87.7431	732.422	87.4097	732.422	86.4864	732.422	85.8524	732.422	84.684	732.422	83.4602	732.422	82.384	732.422	80.1042	732.422	80.6781	732.422	78.1172	732.422	81.7591	732.422	81.007	732.422	84.1457	732.422	84.0233	732.422	85.8618	732.422	85.5126	732.422	86.5315	732.422	85.4888	732.422	86.1115	732.422	83.9539	732.422	84.4657	732.422	80.9183	732.422	81.4494	732.422	78.5535	732.422	79.2081	732.422	81.3768	732.422	82.1139	732.422	84.7483	732.422	85.3322	732.422	86.7594	732.422	87.0787	732.422	87.515
757.324	87.514	757.324	87.4887	757.324	87.5186	757.324	87.4304	757.324	87.4475	757.324	87.1975	757.324	87.2142	757.324	86.5675	757.324	86.6666	757.324	85.3624	757.324	85.6089	757.324	83.4986	757.324	83.9406	757.324	80.995	757.324	82.0257	757.324	78.7593	757.324	81.2409	757.324	79.267	757.324	82.1166	757.324	81.1194	757.324	82.948	757.324	81.9802	757.324	82.6269	757.324	81.3817	757.324	80.8058	757.324	79.2478	757.324	77.346	757.324	76.5252	757.324	74.3302	757.324	77.8587	757.324	77.4584	757.324	81.2557	757.324	81.1541	757.324	83.3541	757.324	83.2836	757.324	83.996
785.156	85.8172	785.156	85.7682	785.156	85.7742	785.156	85.5521	785.156	85.6844	785.156	85.1539	785.156	85.5315	785.156	84.7023	785.156	85.3144	785.156	84.4427	785.156	85.1298	785.156	84.4733	785.156	85.0794	785.156	84.5831	785.156	85.1097	785.156	84.5875	785.156	85.0745	785.156	84.5285	785.156	84.9279	785.156	84.4062	785.156	84.6794	785.156	84.0005	785.156	84.1084	785.156	82.8927	785.156	82.62	785.156	80.5221	785.156	79.1284	785.156	76.1606	785.156	72.0203	785.156	72.4134	785.156	75.7624	785.156	77.1975	785.156	80.7863	785.156	80.8724	785.156	82.6245	785.156	82.5554
811.523	85.5602	811.523	85.8367	811.523	84.8306	811.523	85.5332	811.523	83.7832	811.523	84.6441	811.523	82.5299	811.523	83.4305	811.523	81.3383	811.523	82.4558	811.523	81.0034	811.523	82.2794	811.523	82.1351	811.523	82.9613	811.523	83.8328	811.523	83.9275	811.523	85.148	811.523	84.5968	811.523	85.8189	811.523	84.8734	811.523	85.7403	811.523	84.6746	811.523	84.7599	811.523	83.4359	811.523	82.8741	811.523	80.4372	811.523	80.598	811.523	75.582	811.523	78.9792	811.523	74.5052	811.523	78.4413	811.523	77.5751	811.523	78.6106	811.523	79.2377	811.523	79.1479	811.523	79.5655
840.82	87.7689	840.82	87.2184	840.82	87.5316	840.82	85.772	840.82	86.5125	840.82	83.2618	840.82	84.4994	840.82	79.6355	840.82	80.7545	840.82	75.3612	840.82	72.3583	840.82	70.2023	840.82	69.5794	840.82	71.1058	840.82	78.9088	840.82	79.223	840.82	82.1174	840.82	84.1305	840.82	82.965	840.82	86.8975	840.82	83.1488	840.82	87.9131	840.82	84.6826	840.82	87.3101	840.82	86.4484	840.82	85.3063	840.82	86.5541	840.82	82.6153	840.82	84.1218	840.82	81.2837	840.82	77.5956	840.82	82.127	840.82	72.1112	840.82	82.9096	840.82	79.6351	840.82	82.3674
870.117	87.8895	870.117	87.4136	870.117	88.0334	870.117	86.7061	870.117	87.8833	870.117	86.1714	870.117	87.4234	870.117	86.0856	870.117	86.5089	870.117	85.8401	870.117	84.7974	870.117	84.2777	870.117	81.6204	870.117	79.9859	870.117	75.4562	870.117	77.6067	870.117	55.2124	870.117	84.4466	870.117	78.7246	870.117	88.4119	870.117	85.5384	870.117	90.1035	870.117	89.1507	870.117	90.0918	870.117	90.4971	870.117	88.7476	870.117	89.5705	870.117	86.4869	870.117	85.6125	870.117	83.9604	870.117	74.9472	870.117	82.7844	870.117	78.9031	870.117	83.7348	870.117	83.8217	870.117	84.6631
900.879	86.4293	900.879	86.1934	900.879	86.7111	900.879	86.1286	900.879	86.8793	900.879	86.241	900.879	86.7987	900.879	86.3161	900.879	86.357	900.879	85.9455	900.879	85.3713	900.879	84.6464	900.879	83.5759	900.879	81.8976	900.879	80.6995	900.879	77.1685	900.879	76.8548	900.879	74.4172	900.879	77.5263	900.879	79.2369	900.879	82.0531	900.879	82.9632	900.879	84.5983	900.879	84.866	900.879	85.0191	900.879	85.1109	900.879	83.4715	900.879	83.6773	900.879	79.6962	900.879	80.4178	900.879	72.7369	900.879	75.9599	900.879	70.7882	900.879	75.0799	900.879	75.2528	900.879	76.2904
933.105	85.9305	933.105	85.6683	933.105	86.2587	933.105	85.5591	933.105	86.5561	933.105	85.7017	933.105	86.6473	933.105	86.0124	933.105	86.2641	933.105	86.0498	933.105	85.1182	933.105	85.2104	933.105	83.0117	933.105	83.0861	933.105	79.8148	933.105	80.207	933.105	75.5552	933.105	79.5772	933.105	74.0902	933.105	81.6662	933.105	78.2943	933.105	83.3641	933.105	81.8535	933.105	83.8153	933.105	83.4763	933.105	82.961	933.105	82.827	933.105	80.5773	933.105	79.4536	933.105	75.8638	933.105	72.791	933.105	66.6622	933.105	71.9272	933.105	70.6728	933.105	75.2314	933.105	75.0026
965.332	85.6951	965.332	86.0865	965.332	85.3076	965.332	86.2974	965.332	85.1639	965.332	86.2747	965.332	85.311	965.332	85.9744	965.332	85.4402	965.332	85.1817	965.332	85.0637	965.332	83.5436	965.332	83.8151	965.332	80.8542	965.332	81.7289	965.332	77.3848	965.332	79.6764	965.332	74.8669	965.332	79.1374	965.332	76.6449	965.332	80.0624	965.332	79.1288	965.332	81.1438	965.332	80.1149	965.332	80.946	965.332	79.6526	965.332	78.467	965.332	77.367	965.332	72.9097	965.332	71.1526	965.332	68.6995	965.332	68.1703	965.332	74.3496	965.332	75.7535	965.332	77.328	965.332	77.9144
1,000.49	85.9086	1,000.49	85.9971	1,000.49	85.7402	1,000.49	85.898	1,000.49	85.6365	1,000.49	85.6642	1,000.49	85.578	1,000.49	85.3708	1,000.49	85.2704	1,000.49	84.8604	1,000.49	84.3045	1,000.49	83.7715	1,000.49	82.495	1,000.49	81.7481	1,000.49	80.1154	1,000.49	79.3143	1,000.49	77.8519	1,000.49	79.7707	1,000.49	76.8017	1,000.49	82.406	1,000.49	77.9824	1,000.49	84.0749	1,000.49	80.683	1,000.49	84.2924	1,000.49	82.6478	1,000.49	82.9142	1,000.49	82.025	1,000.49	79.4205	1,000.49	77.0359	1,000.49	71.387	1,000.49	70.3901	1,000.49	65.7613	1,000.49	77.7983	1,000.49	76.1993	1,000.49	80.0047	1,000.49	79.4088
1,035.64	85.4762	1,035.64	86.094	1,035.64	85.012	1,035.64	86.4634	1,035.64	84.9204	1,035.64	86.2737	1,035.64	85.0806	1,035.64	85.3717	1,035.64	85.1767	1,035.64	83.7407	1,035.64	84.8401	1,035.64	81.5281	1,035.64	83.6639	1,035.64	78.9352	1,035.64	81.3516	1,035.64	74.8572	1,035.64	78.5291	1,035.64	63.0112	1,035.64	78.6007	1,035.64	75.9889	1,035.64	80.7263	1,035.64	80.9739	1,035.64	81.6906	1,035.64	82.27	1,035.64	80.9594	1,035.64	81.2533	1,035.64	78.0971	1,035.64	77.7532	1,035.64	71.4216	1,035.64	67.535	1,035.64	70.2538	1,035.64	71.3188	1,035.64	76.9999	1,035.64	78.5483	1,035.64	79.8989	1,035.64	80.5141
1,072.27	85.9447	1,072.27	85.8208	1,072.27	85.7423	1,072.27	85.5701	1,072.27	85.1055	1,072.27	85.3412	1,072.27	84.1956	1,072.27	85.0455	1,072.27	83.3269	1,072.27	84.3089	1,072.27	82.4648	1,072.27	83.1598	1,072.27	81.1774	1,072.27	82.1255	1,072.27	79.3974	1,072.27	80.6511	1,072.27	77.9651	1,072.27	76.8557	1,072.27	77.8055	1,072.27	70.0575	1,072.27	78.9335	1,072.27	77.0005	1,072.27	81.044	1,072.27	80.5683	1,072.27	82.5585	1,072.27	80.5875	1,072.27	81.3192	1,072.27	77.7998	1,072.27	73.6535	1,072.27	70.9837	1,072.27	70.6169	1,072.27	58.0325	1,072.27	78.6596	1,072.27	73.443	1,072.27	79.6488	1,072.27	77.9128
1,108.89	86.0441	1,108.89	86.1393	1,108.89	85.452	1,108.89	85.8229	1,108.89	84.5165	1,108.89	85.2045	1,108.89	83.707	1,108.89	84.2706	1,108.89	83.4134	1,108.89	83.3074	1,108.89	83.3255	1,108.89	83.1893	1,108.89	82.8708	1,108.89	83.4369	1,108.89	81.6725	1,108.89	82.2153	1,108.89	79.4871	1,108.89	78.2175	1,108.89	77.569	1,108.89	70.4082	1,108.89	78.5243	1,108.89	72.8534	1,108.89	80.8105	1,108.89	77.1367	1,108.89	81.5556	1,108.89	77.8667	1,108.89	79.0581	1,108.89	76.4032	1,108.89	71.5646	1,108.89	72.4527	1,108.89	72.7841	1,108.89	67.6037	1,108.89	76.9686	1,108.89	73.2608	1,108.89	77.9222	1,108.89	76.8589
1,148.44	85.8242	1,148.44	85.7374	1,148.44	85.1353	1,148.44	85.0498	1,148.44	84.0074	1,148.44	84.1437	1,148.44	83.1902	1,148.44	83.3255	1,148.44	82.921	1,148.44	83.0608	1,148.44	82.5223	1,148.44	83.6158	1,148.44	81.4478	1,148.44	84.0811	1,148.44	79.5455	1,148.44	83.5011	1,148.44	76.4604	1,148.44	81.5937	1,148.44	73.3244	1,148.44	79.0681	1,148.44	74.9131	1,148.44	78.6177	1,148.44	77.7547	1,148.44	79.4695	1,148.44	78.8231	1,148.44	78.1331	1,148.44	76.8821	1,148.44	72.5256	1,148.44	68.0546	1,148.44	62.6091	1,148.44	67.6702	1,148.44	71.8151	1,148.44	74.9423	1,148.44	74.9824	1,148.44	76.496	1,148.44	76.2593
1,189.45	86.3779	1,189.45	86.2541	1,189.45	86.0548	1,189.45	85.755	1,189.45	85.3252	1,189.45	85.0723	1,189.45	84.2953	1,189.45	84.4364	1,189.45	83.0728	1,189.45	84.1512	1,189.45	81.8089	1,189.45	84.3794	1,189.45	80.7412	1,189.45	84.5069	1,189.45	79.6719	1,189.45	83.5767	1,189.45	77.7975	1,189.45	81.1909	1,189.45	75.402	1,189.45	77.797	1,189.45	74.9247	1,189.45	76.3434	1,189.45	76.9013	1,189.45	77.5786	1,189.45	78.6859	1,189.45	77.5062	1,189.45	77.8836	1,189.45	74.3841	1,189.45	71.5825	1,189.45	64.3207	1,189.45	65.6009	1,189.45	67.2775	1,189.45	76.3916	1,189.45	75.2094	1,189.45	78.8359	1,189.45	78.2759
1,230.47	87.6596	1,230.47	86.7879	1,230.47	87.5007	1,230.47	85.3266	1,230.47	86.4548	1,230.47	84.3513	1,230.47	84.6857	1,230.47	84.3168	1,230.47	82.4793	1,230.47	84.5448	1,230.47	81.021	1,230.47	84.4207	1,230.47	80.5536	1,230.47	83.6356	1,230.47	79.3921	1,230.47	81.9061	1,230.47	76.8685	1,230.47	79.1204	1,230.47	74.1714	1,230.47	75.7115	1,230.47	70.958	1,230.47	75.9785	1,230.47	73.2024	1,230.47	78.5807	1,230.47	77.6192	1,230.47	78.7523	1,230.47	77.913	1,230.47	76.0358	1,230.47	72.7707	1,230.47	68.7416	1,230.47	64.3778	1,230.47	63.3341	1,230.47	75.7005	1,230.47	74.5932	1,230.47	78.6894	1,230.47	78.2627
1,274.41	87.5756	1,274.41	87.0691	1,274.41	87.5341	1,274.41	86.467	1,274.41	86.6908	1,274.41	85.9827	1,274.41	85.1754	1,274.41	85.5079	1,274.41	83.363	1,274.41	85.0902	1,274.41	81.3811	1,274.41	84.5816	1,274.41	79.5124	1,274.41	83.544	1,274.41	78.3076	1,274.41	81.9292	1,274.41	77.3632	1,274.41	80.4134	1,274.41	76.2907	1,274.41	79.61	1,274.41	75.7286	1,274.41	80.0224	1,274.41	76.7561	1,274.41	81.1894	1,274.41	78.1786	1,274.41	81.2641	1,274.41	77.2136	1,274.41	78.5257	1,274.41	72.8585	1,274.41	69.6568	1,274.41	68.3166	1,274.41	65.4524	1,274.41	72.595	1,274.41	73.191	1,274.41	74.7864	1,274.41	74.8183
1,319.82	87.0598	1,319.82	86.8101	1,319.82	87.0302	1,319.82	86.4379	1,319.82	86.382	1,319.82	85.7674	1,319.82	84.8379	1,319.82	84.7796	1,319.82	82.4575	1,319.82	83.9195	1,319.82	80.5342	1,319.82	83.2115	1,319.82	80.6111	1,319.82	82.3482	1,319.82	81.0428	1,319.82	81.5802	1,319.82	80.2968	1,319.82	80.4622	1,319.82	78.4759	1,319.82	77.5179	1,319.82	75.8073	1,319.82	73.0822	1,319.82	74.9869	1,319.82	74.4871	1,319.82	77.8943	1,319.82	77.1052	1,319.82	78.3657	1,319.82	77.4497	1,319.82	74.2106	1,319.82	74.5568	1,319.82	68.6406	1,319.82	68.9702	1,319.82	74.1239	1,319.82	73.6699	1,319.82	77.1101	1,319.82	77.0748
1,366.7	86.7153	1,366.7	86.9986	1,366.7	86.463	1,366.7	87.0886	1,366.7	86.1463	1,366.7	86.3523	1,366.7	85.5931	1,366.7	84.35	1,366.7	84.5232	1,366.7	81.7846	1,366.7	82.8818	1,366.7	79.5328	1,366.7	80.9974	1,366.7	77.8508	1,366.7	78.0259	1,366.7	76.4151	1,366.7	73.7264	1,366.7	76.1301	1,366.7	71.3842	1,366.7	77.1596	1,366.7	70.6251	1,366.7	77.2952	1,366.7	67.5367	1,366.7	77.2715	1,366.7	70.8952	1,366.7	77.5819	1,366.7	73.6934	1,366.7	75.5452	1,366.7	70.4946	1,366.7	66.2335	1,366.7	57.3532	1,366.7	68.6157	1,366.7	73.1349	1,366.7	74.8155	1,366.7	75.9395	1,366.7	76.1599
1,413.57	87.0382	1,413.57	87.2318	1,413.57	86.4702	1,413.57	86.7865	1,413.57	85.9562	1,413.57	85.7601	1,413.57	85.411	1,413.57	84.842	1,413.57	84.2204	1,413.57	84.4922	1,413.57	82.4476	1,413.57	83.0848	1,413.57	80.1456	1,413.57	79.115	1,413.57	77.9939	1,413.57	74.0788	1,413.57	77.5607	1,413.57	69.3639	1,413.57	77.7461	1,413.57	70.0964	1,413.57	77.4087	1,413.57	76.0908	1,413.57	77.0942	1,413.57	78.389	1,413.57	77.9894	1,413.57	78.9805	1,413.57	78.0085	1,413.57	78.6037	1,413.57	72.1416	1,413.57	75.4221	1,413.57	67.4041	1,413.57	66.1511	1,413.57	74.1287	1,413.57	71.2842	1,413.57	76.0745	1,413.57	75.5658
1,463.38	87.6283	1,463.38	87.4895	1,463.38	87.0258	1,463.38	86.598	1,463.38	85.8793	1,463.38	85.7231	1,463.38	84.1835	1,463.38	85.6305	1,463.38	82.4502	1,463.38	85.4382	1,463.38	81.5702	1,463.38	83.7829	1,463.38	80.822	1,463.38	80.518	1,463.38	78.7757	1,463.38	78.3517	1,463.38	75.5659	1,463.38	76.523	1,463.38	74.3618	1,463.38	73.4227	1,463.38	76.4109	1,463.38	72.7273	1,463.38	77.5031	1,463.38	74.0884	1,463.38	77.1724	1,463.38	75.3758	1,463.38	75.985	1,463.38	76.1566	1,463.38	72.2906	1,463.38	73.6703	1,463.38	67.1632	1,463.38	64.2087	1,463.38	69.6032	1,463.38	63.5639	1,463.38	71.6392	1,463.38	70.3692
1,516.11	87.7079	1,516.11	87.6347	1,516.11	87.5646	1,516.11	87.3782	1,516.11	86.8082	1,516.11	86.7381	1,516.11	85.0496	1,516.11	85.0673	1,516.11	82.3387	1,516.11	82.0224	1,516.11	78.8811	1,516.11	77.9963	1,516.11	76.0553	1,516.11	76.9298	1,516.11	73.1227	1,516.11	80.5879	1,516.11	72.4477	1,516.11	80.5623	1,516.11	73.1642	1,516.11	78.0658	1,516.11	67.8853	1,516.11	74.7257	1,516.11	71.9853	1,516.11	70.4673	1,516.11	73.9193	1,516.11	68.3152	1,516.11	74.346	1,516.11	70.5962	1,516.11	74.1026	1,516.11	72.7458	1,516.11	73.5783	1,516.11	74.9648	1,516.11	73.4713	1,516.11	76.3384	1,516.11	74.6048	1,516.11	76.0808
1,568.85	87.7702	1,568.85	88.2502	1,568.85	87.0187	1,568.85	87.7861	1,568.85	85.8746	1,568.85	85.4555	1,568.85	84.3909	1,568.85	81.7384	1,568.85	83.2114	1,568.85	80.9446	1,568.85	82.7581	1,568.85	82.9084	1,568.85	82.9326	1,568.85	84.2571	1,568.85	83.3442	1,568.85	84.429	1,568.85	83.3598	1,568.85	82.768	1,568.85	81.4548	1,568.85	79.3139	1,568.85	76.4383	1,568.85	76.8374	1,568.85	73.6425	1,568.85	74.9165	1,568.85	72.7102	1,568.85	68.9945	1,568.85	71.8474	1,568.85	70.0683	1,568.85	68.9189	1,568.85	74.022	1,568.85	68.5205	1,568.85	73.9885	1,568.85	77.7635	1,568.85	76.1898	1,568.85	80.4188	1,568.85	79.4141
1,624.51	87.1172	1,624.51	86.8028	1,624.51	86.847	1,624.51	85.7875	1,624.51	85.7695	1,624.51	85.4219	1,624.51	83.8876	1,624.51	86.0232	1,624.51	82.1853	1,624.51	84.5728	1,624.51	81.9275	1,624.51	81.8949	1,624.51	81.8351	1,624.51	81.1303	1,624.51	81.754	1,624.51	80.2705	1,624.51	82.4592	1,624.51	77.0665	1,624.51	82.1671	1,624.51	74.1548	1,624.51	82.2186	1,624.51	80.3092	1,624.51	83.7709	1,624.51	83.6564	1,624.51	83.8837	1,624.51	83.134	1,624.51	80.6346	1,624.51	77.4437	1,624.51	72.8439	1,624.51	75.1657	1,624.51	77.2396	1,624.51	81.2553	1,624.51	79.7797	1,624.51	81.9924	1,624.51	79.2231	1,624.51	80.154
1,681.64	86.1607	1,681.64	85.4062	1,681.64	86.4484	1,681.64	85.5587	1,681.64	86.0702	1,681.64	87.024	1,681.64	84.772	1,681.64	86.925	1,681.64	82.1859	1,681.64	83.5192	1,681.64	79.7034	1,681.64	78.1282	1,681.64	79.7575	1,681.64	73.9721	1,681.64	79.9728	1,681.64	74.8241	1,681.64	80.3271	1,681.64	77.7046	1,681.64	80.4108	1,681.64	75.9244	1,681.64	79.9078	1,681.64	74.1014	1,681.64	80.4472	1,681.64	80.4496	1,681.64	82.1571	1,681.64	81.7363	1,681.64	80.852	1,681.64	77.7542	1,681.64	73.7052	1,681.64	76.507	1,681.64	72.8998	1,681.64	80.7709	1,681.64	80.5106	1,681.64	81.0225	1,681.64	81.0343	1,681.64	80.6068
1,741.7	87.0804	1,741.7	86.4177	1,741.7	86.4417	1,741.7	84.921	1,741.7	84.9838	1,741.7	84.4138	1,741.7	83.6537	1,741.7	84.4829	1,741.7	83.3476	1,741.7	82.5763	1,741.7	82.0404	1,741.7	78.6009	1,741.7	79.4144	1,741.7	74.982	1,741.7	77.8022	1,741.7	71.5148	1,741.7	77.5088	1,741.7	75.589	1,741.7	76.2711	1,741.7	75.7374	1,741.7	73.1402	1,741.7	70.2371	1,741.7	76.9151	1,741.7	75.2	1,741.7	80.4674	1,741.7	79.3089	1,741.7	80.1769	1,741.7	77.9652	1,741.7	70.3753	1,741.7	71.6268	1,741.7	72.4944	1,741.7	76.0546	1,741.7	75.3025	1,741.7	79.7908	1,741.7	74.0632	1,741.7	78.7677
1,803.22	87.1449	1,803.22	87.1773	1,803.22	86.6909	1,803.22	86.4101	1,803.22	85.6976	1,803.22	84.3268	1,803.22	84.4913	1,803.22	82.5501	1,803.22	83.5361	1,803.22	82.8193	1,803.22	82.3129	1,803.22	80.6337	1,803.22	80.2196	1,803.22	76.6402	1,803.22	78.1281	1,803.22	77.9586	1,803.22	77.1329	1,803.22	78.4054	1,803.22	74.8942	1,803.22	77.6245	1,803.22	71.818	1,803.22	73.7539	1,803.22	67.7088	1,803.22	71.9661	1,803.22	66.7406	1,803.22	76.5909	1,803.22	71.4228	1,803.22	74.8686	1,803.22	70.6487	1,803.22	62.6641	1,803.22	61.6482	1,803.22	68.4379	1,803.22	67.3964	1,803.22	75.4062	1,803.22	76.0951	1,803.22	77.8979
1,866.21	86.1376	1,866.21	86.9653	1,866.21	85.7478	1,866.21	86.8313	1,866.21	85.5557	1,866.21	84.456	1,866.21	84.9567	1,866.21	82.7911	1,866.21	84.0099	1,866.21	82.9027	1,866.21	82.3549	1,866.21	80.2452	1,866.21	79.6217	1,866.21	78.3671	1,866.21	76.458	1,866.21	77.5977	1,866.21	74.5131	1,866.21	73.1032	1,866.21	73.2569	1,866.21	73.7779	1,866.21	71.0159	1,866.21	74.782	1,866.21	70.8299	1,866.21	71.3958	1,866.21	70.2823	1,866.21	75.2022	1,866.21	72.5158	1,866.21	74.9922	1,866.21	72.3494	1,866.21	66.8656	1,866.21	62.8905	1,866.21	65.5587	1,866.21	69.131	1,866.21	73.3591	1,866.21	75.5388	1,866.21	76.2676
1,932.13	86.0272	1,932.13	86.4473	1,932.13	85.6738	1,932.13	86.0755	1,932.13	85.2985	1,932.13	84.2462	1,932.13	84.5985	1,932.13	83.5828	1,932.13	83.5501	1,932.13	82.5599	1,932.13	82.0721	1,932.13	79.6556	1,932.13	79.818	1,932.13	79.0269	1,932.13	78.0811	1,932.13	77.6013	1,932.13	74.7947	1,932.13	75.2337	1,932.13	72.878	1,932.13	73.1088	1,932.13	73.9947	1,932.13	71.2475	1,932.13	73.3677	1,932.13	71.2659	1,932.13	71.3364	1,932.13	74.0948	1,932.13	72.8426	1,932.13	75.0131	1,932.13	72.4777	1,932.13	67.3936	1,932.13	63.4915	1,932.13	68.2943	1,932.13	71.0922	1,932.13	75.1091	1,932.13	76.0397	1,932.13	76.9512
1,999.51	87.8552	1,999.51	87.139	1,999.51	86.4177	1,999.51	84.7474	1,999.51	84.5401	1,999.51	83.9723	1,999.51	84.0285	1,999.51	84.2932	1,999.51	84.0957	1,999.51	81.9984	1,999.51	82.3298	1,999.51	80.7536	1,999.51	80.0806	1,999.51	80.5393	1,999.51	78.0789	1,999.51	78.5571	1,999.51	74.4177	1,999.51	77.4035	1,999.51	73.9476	1,999.51	75.1684	1,999.51	76.1941	1,999.51	73.0625	1,999.51	77.1032	1,999.51	69.0254	1,999.51	75.2479	1,999.51	73.5254	1,999.51	72.498	1,999.51	75.7957	1,999.51	72.9337	1,999.51	69.1907	1,999.51	68.8209	1,999.51	66.8858	1,999.51	73.3392	1,999.51	74.3224	1,999.51	76.7528	1,999.51	76.8868
2,069.82	89.1076	2,069.82	88.1132	2,069.82	88.2007	2,069.82	85.8916	2,069.82	86.3034	2,069.82	85.6183	2,069.82	84.8358	2,069.82	85.109	2,069.82	84.1295	2,069.82	82.5733	2,069.82	82.8873	2,069.82	81.89	2,069.82	80.9833	2,069.82	80.0871	2,069.82	77.9223	2,069.82	75.5586	2,069.82	73.4313	2,069.82	75.7918	2,069.82	68.7523	2,069.82	74.3961	2,069.82	69.84	2,069.82	72.1111	2,069.82	76.5771	2,069.82	73.9486	2,069.82	77.2911	2,069.82	72.2834	2,069.82	76.5982	2,069.82	74.6299	2,069.82	75.271	2,069.82	67.5145	2,069.82	70.4803	2,069.82	69.7026	2,069.82	75.5483	2,069.82	76.3715	2,069.82	77.8156	2,069.82	78.1515
2,143.07	89.1179	2,143.07	88.2805	2,143.07	89.302	2,143.07	87.7583	2,143.07	88.4364	2,143.07	87.0044	2,143.07	86.607	2,143.07	84.5963	2,143.07	84.3748	2,143.07	82.5392	2,143.07	83.1378	2,143.07	81.9605	2,143.07	81.7597	2,143.07	80.8853	2,143.07	79.9893	2,143.07	79.4225	2,143.07	77.366	2,143.07	77.6874	2,143.07	76.9121	2,143.07	78.7491	2,143.07	74.9397	2,143.07	75.8931	2,143.07	74.2556	2,143.07	74.8114	2,143.07	77.7745	2,143.07	75.1222	2,143.07	77.0001	2,143.07	73.699	2,143.07	74.1682	2,143.07	69.8682	2,143.07	68.5361	2,143.07	67.7972	2,143.07	75.9138	2,143.07	74.8114	2,143.07	78.0604	2,143.07	77.3834
2,219.24	88.9657	2,219.24	88.1724	2,219.24	89.2746	2,219.24	88.3132	2,219.24	88.848	2,219.24	87.5923	2,219.24	87.545	2,219.24	84.9018	2,219.24	85.5114	2,219.24	84.0577	2,219.24	83.71	2,219.24	83.7001	2,219.24	82.1432	2,219.24	80.6719	2,219.24	79.7819	2,219.24	78.5862	2,219.24	75.5373	2,219.24	77.4214	2,219.24	75.3466	2,219.24	77.6101	2,219.24	75.5028	2,219.24	76.4976	2,219.24	76.1596	2,219.24	75.609	2,219.24	76.8156	2,219.24	76.5547	2,219.24	76.8049	2,219.24	74.0403	2,219.24	70.7105	2,219.24	67.8334	2,219.24	67.9391	2,219.24	73.5876	2,219.24	74.8871	2,219.24	80.2291	2,219.24	79.6073	2,219.24	81.2813
2,296.88	89.2556	2,296.88	88.6055	2,296.88	89.3575	2,296.88	88.1769	2,296.88	88.7561	2,296.88	87.5552	2,296.88	87.638	2,296.88	86.2293	2,296.88	86.1941	2,296.88	85.5753	2,296.88	84.7892	2,296.88	83.6217	2,296.88	83.8412	2,296.88	82.4491	2,296.88	80.2146	2,296.88	82.5358	2,296.88	77.7929	2,296.88	79.9469	2,296.88	79.8653	2,296.88	77.5596	2,296.88	75.6158	2,296.88	76.0131	2,296.88	76.1176	2,296.88	74.5179	2,296.88	76.7092	2,296.88	76.601	2,296.88	76.1439	2,296.88	75.8952	2,296.88	72.9972	2,296.88	70.1728	2,296.88	64.6121	2,296.88	66.1648	2,296.88	76.5063	2,296.88	77.8131	2,296.88	79.1369	2,296.88	80.0164
2,378.91	88.9374	2,378.91	89.1682	2,378.91	89.4665	2,378.91	88.9026	2,378.91	89.5726	2,378.91	87.5067	2,378.91	88.7389	2,378.91	86.8984	2,378.91	87.0109	2,378.91	86.4191	2,378.91	84.9099	2,378.91	85.0837	2,378.91	83.5272	2,378.91	84.0047	2,378.91	82.4965	2,378.91	80.4951	2,378.91	81.2509	2,378.91	76.45	2,378.91	83.0014	2,378.91	76.4908	2,378.91	81.1675	2,378.91	76.3122	2,378.91	66.8828	2,378.91	74.2708	2,378.91	77.3505	2,378.91	76.6659	2,378.91	76.8353	2,378.91	76.1481	2,378.91	72.3207	2,378.91	71.5384	2,378.91	64.6699	2,378.91	71.8341	2,378.91	72.1519	2,378.91	78.1013	2,378.91	78.9053	2,378.91	79.943
2,462.4	88.6288	2,462.4	89.3668	2,462.4	88.8408	2,462.4	89.1304	2,462.4	89.5421	2,462.4	88.418	2,462.4	89.5319	2,462.4	88.3101	2,462.4	87.9314	2,462.4	87.1268	2,462.4	85.6317	2,462.4	84.7702	2,462.4	83.9153	2,462.4	82.1728	2,462.4	83.1953	2,462.4	82.4381	2,462.4	79.8442	2,462.4	80.5398	2,462.4	77.1177	2,462.4	78.2953	2,462.4	80.6763	2,462.4	77.8034	2,462.4	76.7324	2,462.4	73.1048	2,462.4	71.5826	2,462.4	76.8741	2,462.4	76.2787	2,462.4	78.3041	2,462.4	74.4045	2,462.4	71.2962	2,462.4	69.7622	2,462.4	70.6702	2,462.4	73.1789	2,462.4	78.7429	2,462.4	79.8295	2,462.4	81.1629
2,548.83	89.5673	2,548.83	88.9906	2,548.83	88.803	2,548.83	88.8042	2,548.83	88.8412	2,548.83	89.434	2,548.83	89.1887	2,548.83	88.618	2,548.83	88.0093	2,548.83	87.0467	2,548.83	86.4624	2,548.83	84.7364	2,548.83	84.1703	2,548.83	84.8151	2,548.83	80.9669	2,548.83	81.4719	2,548.83	81.2587	2,548.83	77.9855	2,548.83	82.3024	2,548.83	78.6656	2,548.83	78.3269	2,548.83	78.1819	2,548.83	73.1512	2,548.83	75.7467	2,548.83	76.2791	2,548.83	74.7502	2,548.83	76.5616	2,548.83	78.4567	2,548.83	74.7756	2,548.83	73.7268	2,548.83	72.9055	2,548.83	72.4483	2,548.83	72.3988	2,548.83	78.8388	2,548.83	78.9776	2,548.83	80.9652
2,639.65	89.3719	2,639.65	88.6713	2,639.65	89.488	2,639.65	88.8416	2,639.65	88.9173	2,639.65	88.7111	2,639.65	88.4917	2,639.65	87.638	2,639.65	88.3945	2,639.65	86.7057	2,639.65	87.6871	2,639.65	86.3271	2,639.65	84.1025	2,639.65	84.01	2,639.65	81.9339	2,639.65	84.1015	2,639.65	82.7227	2,639.65	82.2732	2,639.65	79.7435	2,639.65	79.4299	2,639.65	79.2187	2,639.65	77.1041	2,639.65	75.3236	2,639.65	76.5102	2,639.65	73.975	2,639.65	74.1831	2,639.65	75.8014	2,639.65	77.848	2,639.65	74.0236	2,639.65	73.9394	2,639.65	72.3436	2,639.65	70.1425	2,639.65	75.128	2,639.65	76.7077	2,639.65	80.2011	2,639.65	80.6349
2,731.93	87.2732	2,731.93	87.4824	2,731.93	88.3253	2,731.93	88.1734	2,731.93	88.6201	2,731.93	87.1711	2,731.93	87.9421	2,731.93	87.1156	2,731.93	87.7166	2,731.93	87.257	2,731.93	87.1589	2,731.93	86.3853	2,731.93	85.0393	2,731.93	84.7096	2,731.93	81.9155	2,731.93	82.3981	2,731.93	81.3449	2,731.93	80.0073	2,731.93	77.9816	2,731.93	76.9713	2,731.93	71.9011	2,731.93	76.8944	2,731.93	76.0366	2,731.93	74.3476	2,731.93	70.357	2,731.93	74.2996	2,731.93	75.6158	2,731.93	76.6798	2,731.93	70.0089	2,731.93	72.5581	2,731.93	71.2467	2,731.93	69.9457	2,731.93	71.0064	2,731.93	73.8353	2,731.93	77.0309	2,731.93	78.0846
2,828.61	87.1834	2,828.61	87.4497	2,828.61	86.9476	2,828.61	87.5174	2,828.61	87.6915	2,828.61	87.4536	2,828.61	87.5705	2,828.61	87.7295	2,828.61	87.381	2,828.61	87.3205	2,828.61	86.0712	2,828.61	85.7915	2,828.61	84.0556	2,828.61	83.5624	2,828.61	81.9792	2,828.61	81.8399	2,828.61	81.0873	2,828.61	79.7859	2,828.61	77.23	2,828.61	77.4689	2,828.61	76.5513	2,828.61	76.0581	2,828.61	78.2115	2,828.61	75.3609	2,828.61	67.9112	2,828.61	71.844	2,828.61	70.8946	2,828.61	75.6443	2,828.61	68.2218	2,828.61	72.6702	2,828.61	69.8909	2,828.61	72.6686	2,828.61	71.9674	2,828.61	70.991	2,828.61	75.1393	2,828.61	75.079
2,928.22	85.9676	2,928.22	86.6613	2,928.22	85.8519	2,928.22	86.5374	2,928.22	87.2479	2,928.22	87.2549	2,928.22	86.9709	2,928.22	87.2756	2,928.22	86.9675	2,928.22	86.3236	2,928.22	84.7523	2,928.22	85.6448	2,928.22	83.6409	2,928.22	83.325	2,928.22	82.721	2,928.22	79.4049	2,928.22	78.1393	2,928.22	79.6349	2,928.22	73.4166	2,928.22	76.4187	2,928.22	77.8882	2,928.22	75.9551	2,928.22	78.8174	2,928.22	74.2599	2,928.22	67.6137	2,928.22	72.4874	2,928.22	71.3305	2,928.22	74.0656	2,928.22	67.6534	2,928.22	70.2653	2,928.22	72.4812	2,928.22	69.3351	2,928.22	71.608	2,928.22	71.1384	2,928.22	74.7688	2,928.22	72.7058
3,030.76	85.3312	3,030.76	85.5186	3,030.76	85.3861	3,030.76	85.898	3,030.76	86.0935	3,030.76	86.6596	3,030.76	86.9254	3,030.76	86.3888	3,030.76	86.8029	3,030.76	86.4145	3,030.76	84.5383	3,030.76	84.36	3,030.76	82.1314	3,030.76	81.9914	3,030.76	81.6792	3,030.76	81.9379	3,030.76	75.3273	3,030.76	79.5251	3,030.76	76.9897	3,030.76	77.1037	3,030.76	78.7843	3,030.76	74.1155	3,030.76	76.5224	3,030.76	74.8475	3,030.76	73.8795	3,030.76	70.3642	3,030.76	71.6152	3,030.76	73.2834	3,030.76	71.0946	3,030.76	70.7226	3,030.76	66.7431	3,030.76	68.7842	3,030.76	69.9929	3,030.76	70.452	3,030.76	71.7598	3,030.76	69.9268
3,137.7	85.0147	3,137.7	85.0755	3,137.7	85.7187	3,137.7	85.2952	3,137.7	85.8084	3,137.7	85.9296	3,137.7	87.0394	3,137.7	86.9341	3,137.7	87.058	3,137.7	86.2255	3,137.7	85.5469	3,137.7	84.058	3,137.7	83.7778	3,137.7	82.9969	3,137.7	81.0848	3,137.7	81.5569	3,137.7	76.9898	3,137.7	76.9222	3,137.7	79.3569	3,137.7	75.4542	3,137.7	78.1266	3,137.7	72.5387	3,137.7	73.0117	3,137.7	74.9971	3,137.7	75.0507	3,137.7	67.7777	3,137.7	72.1246	3,137.7	72.4321	3,137.7	70.2074	3,137.7	70.0412	3,137.7	68.7106	3,137.7	66.33	3,137.7	71.2813	3,137.7	69.2839	3,137.7	69.3647	3,137.7	61.8313
3,249.02	84.5729	3,249.02	84.3122	3,249.02	86.1139	3,249.02	86.1242	3,249.02	86.5524	3,249.02	87.7078	3,249.02	87.0597	3,249.02	86.9004	3,249.02	87.0063	3,249.02	86.2722	3,249.02	85.7775	3,249.02	83.9835	3,249.02	84.0374	3,249.02	83.1622	3,249.02	81.5036	3,249.02	79.0466	3,249.02	81.398	3,249.02	75.003	3,249.02	80.7465	3,249.02	75.8303	3,249.02	75.0755	3,249.02	74.6611	3,249.02	70.0622	3,249.02	73.9453	3,249.02	73.2614	3,249.02	71.7841	3,249.02	70.9018	3,249.02	70.4257	3,249.02	68.3258	3,249.02	71.993	3,249.02	70.0148	3,249.02	67.2741	3,249.02	71.3	3,249.02	69.859	3,249.02	71.5244	3,249.02	67.236
3,363.28	85.3378	3,363.28	85.5526	3,363.28	86.2614	3,363.28	87.2855	3,363.28	87.5601	3,363.28	87.6817	3,363.28	87.7678	3,363.28	87.1151	3,363.28	86.4753	3,363.28	86.2788	3,363.28	84.1159	3,363.28	84.195	3,363.28	83.2054	3,363.28	81.7961	3,363.28	82.0642	3,363.28	78.1282	3,363.28	81.9748	3,363.28	78.8466	3,363.28	80.8702	3,363.28	75.8896	3,363.28	76.8848	3,363.28	73.225	3,363.28	70.9084	3,363.28	73.4167	3,363.28	74.7759	3,363.28	73.8875	3,363.28	64.788	3,363.28	70.1363	3,363.28	68.8778	3,363.28	70.9006	3,363.28	64.2701	3,363.28	56.0935	3,363.28	69.0597	3,363.28	64.5925	3,363.28	74.0627	3,363.28	68.5683
3,481.93	86.5328	3,481.93	86.8279	3,481.93	85.9748	3,481.93	87.9829	3,481.93	86.645	3,481.93	87.9672	3,481.93	87.5846	3,481.93	87.3464	3,481.93	87.0946	3,481.93	85.2217	3,481.93	84.6357	3,481.93	84.0091	3,481.93	84.0297	3,481.93	80.2778	3,481.93	80.8208	3,481.93	81.3513	3,481.93	79.6684	3,481.93	77.7929	3,481.93	77.7845	3,481.93	74.5173	3,481.93	75.2741	3,481.93	74.257	3,481.93	76.5112	3,481.93	73.7824	3,481.93	71.3963	3,481.93	74.8353	3,481.93	54.1804	3,481.93	65.589	3,481.93	65.0235	3,481.93	71.3855	3,481.93	68.1575	3,481.93	61.1111	3,481.93	64.4084	3,481.93	65.2921	3,481.93	71.2986	3,481.93	65.6392
3,604.98	86.5462	3,604.98	87.7461	3,604.98	86.2091	3,604.98	87.8792	3,604.98	86.6692	3,604.98	87.2989	3,604.98	87.3251	3,604.98	85.8979	3,604.98	86.9354	3,604.98	85.1248	3,604.98	84.9535	3,604.98	82.5203	3,604.98	84.6462	3,604.98	82.0171	3,604.98	81.5663	3,604.98	81.1337	3,604.98	77.4933	3,604.98	75.9887	3,604.98	64.5343	3,604.98	75.4875	3,604.98	64.6646	3,604.98	73.1929	3,604.98	67.5152	3,604.98	73.8991	3,604.98	67.1512	3,604.98	73.6862	3,604.98	61.9629	3,604.98	70.1102	3,604.98	67.0574	3,604.98	72.0124	3,604.98	62.16	3,604.98	68.7353	3,604.98	65.0717	3,604.98	65.2992	3,604.98	71.8671	3,604.98	63.2121
3,732.42	86.3639	3,732.42	87.0095	3,732.42	86.0261	3,732.42	87.6452	3,732.42	86.5519	3,732.42	86.8122	3,732.42	86.963	3,732.42	85.8987	3,732.42	85.3896	3,732.42	84.9748	3,732.42	85.4814	3,732.42	83.2237	3,732.42	83.6722	3,732.42	82.5652	3,732.42	79.846	3,732.42	78.6215	3,732.42	71.6126	3,732.42	79.1347	3,732.42	74.5938	3,732.42	75.4095	3,732.42	71.299	3,732.42	72.9556	3,732.42	70.5101	3,732.42	72.6155	3,732.42	65.4278	3,732.42	74.8712	3,732.42	66.7721	3,732.42	72.2792	3,732.42	62.4555	3,732.42	72.6288	3,732.42	62.24	3,732.42	70.4291	3,732.42	59.091	3,732.42	68.7697	3,732.42	66.8109	3,732.42	60.7767
3,864.26	86.6212	3,864.26	87.4071	3,864.26	85.9344	3,864.26	87.0098	3,864.26	85.9029	3,864.26	86.4492	3,864.26	86.4643	3,864.26	85.513	3,864.26	84.9634	3,864.26	84.8452	3,864.26	85.8191	3,864.26	83.6252	3,864.26	82.9454	3,864.26	82.0096	3,864.26	79.3237	3,864.26	80.296	3,864.26	75.4455	3,864.26	77.7687	3,864.26	75.9241	3,864.26	75.1931	3,864.26	75.108	3,864.26	74.2738	3,864.26	78.3575	3,864.26	71.8109	3,864.26	73.5607	3,864.26	74.367	3,864.26	69.4721	3,864.26	70.0567	3,864.26	58.4909	3,864.26	71.9796	3,864.26	68.3652	3,864.26	68.5164	3,864.26	65.1185	3,864.26	70.9809	3,864.26	61.681	3,864.26	55.4756
4,000.49	85.6848	4,000.49	85.7176	4,000.49	85.1161	4,000.49	86.4523	4,000.49	84.8376	4,000.49	85.1608	4,000.49	85.8181	4,000.49	85.152	4,000.49	84.8135	4,000.49	84.916	4,000.49	85.8203	4,000.49	84.3136	4,000.49	82.4223	4,000.49	82.1859	4,000.49	81.2346	4,000.49	81.4647	4,000.49	76.6059	4,000.49	78.488	4,000.49	69.6155	4,000.49	75.3955	4,000.49	75.2446	4,000.49	73.7663	4,000.49	80.0502	4,000.49	72.4493	4,000.49	71.9301	4,000.49	72.8645	4,000.49	64.4704	4,000.49	70.9983	4,000.49	66.3278	4,000.49	72.0831	4,000.49	69.0757	4,000.49	66.8752	4,000.49	68.3373	4,000.49	69.1852	4,000.49	64.4697	4,000.49	56.6935
4,141.11	84.9936	4,141.11	84.8409	4,141.11	85.2916	4,141.11	83.6818	4,141.11	84.0702	4,141.11	83.8494	4,141.11	84.1196	4,141.11	84.881	4,141.11	84.5799	4,141.11	84.3301	4,141.11	85.701	4,141.11	82.5739	4,141.11	83.2213	4,141.11	81.9579	4,141.11	79.1727	4,141.11	80.347	4,141.11	78.4931	4,141.11	76.1339	4,141.11	76.6459	4,141.11	73.7226	4,141.11	77.8535	4,141.11	71.7617	4,141.11	78.9116	4,141.11	72.0405	4,141.11	67.3501	4,141.11	71.4355	4,141.11	70.9171	4,141.11	71.1753	4,141.11	68.0947	4,141.11	70.4902	4,141.11	63.3416	4,141.11	67.8944	4,141.11	67.0331	4,141.11	68.9539	4,141.11	64.0296	4,141.11	61.9553
4,287.6	84.991	4,287.6	83.1963	4,287.6	84.1213	4,287.6	83.7272	4,287.6	83.9889	4,287.6	84.1468	4,287.6	83.0233	4,287.6	84.4105	4,287.6	84.7711	4,287.6	84.9344	4,287.6	85.8553	4,287.6	83.8109	4,287.6	81.6872	4,287.6	82.8495	4,287.6	80.5207	4,287.6	76.624	4,287.6	80.8223	4,287.6	78.2454	4,287.6	77.5565	4,287.6	74.1021	4,287.6	73.9125	4,287.6	73.1542	4,287.6	71.0586	4,287.6	70.4148	4,287.6	67.1785	4,287.6	69.2996	4,287.6	74.8989	4,287.6	70.7425	4,287.6	67.5889	4,287.6	70.7159	4,287.6	61.4262	4,287.6	66.942	4,287.6	67.9637	4,287.6	70.035	4,287.6	56.9741	4,287.6	59.7243
4,438.48	84.463	4,438.48	83.5688	4,438.48	83.4634	4,438.48	83.0286	4,438.48	83.3803	4,438.48	84.0044	4,438.48	81.649	4,438.48	84.1822	4,438.48	83.9903	4,438.48	83.31	4,438.48	84.6258	4,438.48	82.1769	4,438.48	78.0527	4,438.48	78.7426	4,438.48	80.9016	4,438.48	80.1725	4,438.48	80.6241	4,438.48	76.3928	4,438.48	74.4815	4,438.48	70.9204	4,438.48	65.3752	4,438.48	71.5242	4,438.48	65.8762	4,438.48	69.9522	4,438.48	69.332	4,438.48	69.4121	4,438.48	73.3919	4,438.48	69.2262	4,438.48	65.9762	4,438.48	67.8548	4,438.48	65.4888	4,438.48	66.0381	4,438.48	65.5037	4,438.48	69.1413	4,438.48	61.0361	4,438.48	49.6814
4,595.21	83.7835	4,595.21	83.4191	4,595.21	83.872	4,595.21	81.7197	4,595.21	81.0208	4,595.21	80.5504	4,595.21	81.4952	4,595.21	81.7128	4,595.21	82.3988	4,595.21	83.021	4,595.21	81.4912	4,595.21	80.9592	4,595.21	78.8536	4,595.21	80.9545	4,595.21	81.0452	4,595.21	76.5468	4,595.21	77.806	4,595.21	72.7712	4,595.21	68.0753	4,595.21	71.6318	4,595.21	66.959	4,595.21	67.0863	4,595.21	70.4686	4,595.21	67.6359	4,595.21	64.067	4,595.21	66.6718	4,595.21	69.9447	4,595.21	67.3177	4,595.21	66.2463	4,595.21	67.188	4,595.21	63.2847	4,595.21	67.1326	4,595.21	64.3583	4,595.21	67.9838	4,595.21	58.0611	4,595.21	51.8966
4,756.35	82.5061	4,756.35	81.1435	4,756.35	83.3673	4,756.35	79.5026	4,756.35	81.5103	4,756.35	79.9226	4,756.35	80.4921	4,756.35	81.7874	4,756.35	81.7622	4,756.35	81.7612	4,756.35	75.993	4,756.35	79.6689	4,756.35	80.9073	4,756.35	78.8726	4,756.35	79.8736	4,756.35	75.3465	4,756.35	75.3316	4,756.35	75.4162	4,756.35	69.0542	4,756.35	68.771	4,756.35	64.718	4,756.35	68.3027	4,756.35	66.0402	4,756.35	67.1596	4,756.35	57.7219	4,756.35	66.1938	4,756.35	60.1521	4,756.35	63.979	4,756.35	64.7888	4,756.35	68.1078	4,756.35	61.2987	4,756.35	62.8422	4,756.35	62.1504	4,756.35	66.2935	4,756.35	52.8	4,756.35	54.7241
4,924.8	84.4164	4,924.8	82.2577	4,924.8	84.1142	4,924.8	81.9396	4,924.8	82.3674	4,924.8	83.2436	4,924.8	81.2045	4,924.8	82.4149	4,924.8	81.9529	4,924.8	81.4287	4,924.8	75.4243	4,924.8	80.4522	4,924.8	81.2956	4,924.8	76.7208	4,924.8	77.2635	4,924.8	75.7574	4,924.8	73.2037	4,924.8	69.7153	4,924.8	71.9352	4,924.8	68.8809	4,924.8	67.6489	4,924.8	63.0336	4,924.8	63.5916	4,924.8	63.5764	4,924.8	66.9528	4,924.8	62.0746	4,924.8	60.0568	4,924.8	62.8367	4,924.8	60.3982	4,924.8	65.5816	4,924.8	56.8441	4,924.8	59.2104	4,924.8	63.9248	4,924.8	62.7496	4,924.8	57.112	4,924.8	48.7009
5,097.66	85.5219	5,097.66	84.7888	5,097.66	84.5796	5,097.66	85.1266	5,097.66	83.3595	5,097.66	83.2741	5,097.66	82.2994	5,097.66	81.6277	5,097.66	82.3982	5,097.66	81.7632	5,097.66	81.6441	5,097.66	79.1599	5,097.66	81.2914	5,097.66	78.7826	5,097.66	73.7546	5,097.66	73.9564	5,097.66	72.5722	5,097.66	72.9703	5,097.66	69.418	5,097.66	67.9571	5,097.66	69.0834	5,097.66	68.5994	5,097.66	69.9852	5,097.66	64.9458	5,097.66	66.877	5,097.66	66.1872	5,097.66	61.0291	5,097.66	64.2556	5,097.66	63.4912	5,097.66	61.8365	5,097.66	60.5455	5,097.66	66.5742	5,097.66	65.6678	5,097.66	64.5688	5,097.66	61.7583	5,097.66	56.2867
5,277.83	86.5931	5,277.83	87.3936	5,277.83	85.9381	5,277.83	86.2318	5,277.83	83.9221	5,277.83	82.0517	5,277.83	84.1825	5,277.83	83.4437	5,277.83	81.0384	5,277.83	81.5384	5,277.83	83.6293	5,277.83	80.073	5,277.83	80.0323	5,277.83	77.1857	5,277.83	75.696	5,277.83	71.5731	5,277.83	73.8859	5,277.83	70.3975	5,277.83	69.6646	5,277.83	65.5938	5,277.83	60.1833	5,277.83	65.1366	5,277.83	62.2536	5,277.83	63.6005	5,277.83	53.0162	5,277.83	66.2394	5,277.83	62.8311	5,277.83	59.7145	5,277.83	67.4266	5,277.83	60.3287	5,277.83	63.0863	5,277.83	64.7566	5,277.83	64.3055	5,277.83	63.556	5,277.83	63.0873	5,277.83	57.8001
5,463.87	86.9983	5,463.87	86.9824	5,463.87	85.5477	5,463.87	85.0992	5,463.87	85.1765	5,463.87	84.8616	5,463.87	84.6997	5,463.87	83.3969	5,463.87	81.3359	5,463.87	82.5787	5,463.87	84.2879	5,463.87	77.9593	5,463.87	77.1231	5,463.87	76.6859	5,463.87	75.8829	5,463.87	72.778	5,463.87	73.9464	5,463.87	70.2233	5,463.87	71.7294	5,463.87	66.3028	5,463.87	49.719	5,463.87	61.9203	5,463.87	71.7001	5,463.87	63.0697	5,463.87	68.3458	5,463.87	66.0018	5,463.87	63.8484	5,463.87	61.3698	5,463.87	63.0139	5,463.87	58.0014	5,463.87	60.3437	5,463.87	60.6925	5,463.87	62.5539	5,463.87	62.5165	5,463.87	65.5044	5,463.87	56.0677
5,657.23	86.9801	5,657.23	86.07	5,657.23	85.9876	5,657.23	85.4096	5,657.23	86.0108	5,657.23	85.4784	5,657.23	85.1266	5,657.23	83.4593	5,657.23	83.5349	5,657.23	81.8137	5,657.23	82.2111	5,657.23	79.0877	5,657.23	76.985	5,657.23	76.8401	5,657.23	76.3532	5,657.23	72.0541	5,657.23	73.4904	5,657.23	67.714	5,657.23	70.5064	5,657.23	68.0993	5,657.23	66.2011	5,657.23	64.0966	5,657.23	68.1432	5,657.23	62.3084	5,657.23	69.1701	5,657.23	66.8483	5,657.23	58.4141	5,657.23	60.8412	5,657.23	55.741	5,657.23	63.3023	5,657.23	58.1842	5,657.23	61.547	5,657.23	61.6599	5,657.23	62.2478	5,657.23	64.8848	5,657.23	57.7169
5,856.45	87.1978	5,856.45	86.7759	5,856.45	86.7909	5,856.45	85.9317	5,856.45	86.2611	5,856.45	84.4882	5,856.45	85.082	5,856.45	83.7268	5,856.45	83.6757	5,856.45	83.1844	5,856.45	82.1624	5,856.45	79.9648	5,856.45	78.6976	5,856.45	77.0599	5,856.45	76.5191	5,856.45	76.2852	5,856.45	75.8238	5,856.45	73.0508	5,856.45	69.0992	5,856.45	68.5781	5,856.45	63.5063	5,856.45	66.0501	5,856.45	61.4071	5,856.45	65.4384	5,856.45	65.3784	5,856.45	64.6515	5,856.45	62.7728	5,856.45	61.8817	5,856.45	62.7702	5,856.45	65.9069	5,856.45	59.4524	5,856.45	65.6594	5,856.45	61.6065	5,856.45	47.6968	5,856.45	63.6824	5,856.45	53.491
6,062.99	87.1614	6,062.99	87.0383	6,062.99	86.9815	6,062.99	86.3038	6,062.99	85.5119	6,062.99	85.4708	6,062.99	85.1453	6,062.99	84.9302	6,062.99	85.1459	6,062.99	82.3616	6,062.99	82.0489	6,062.99	81.4366	6,062.99	81.4106	6,062.99	79.4941	6,062.99	78.1797	6,062.99	75.2086	6,062.99	76.7974	6,062.99	72.2514	6,062.99	72.2117	6,062.99	69.487	6,062.99	63.4943	6,062.99	66.5494	6,062.99	64.0693	6,062.99	67.63	6,062.99	67.9736	6,062.99	64.2484	6,062.99	55.125	6,062.99	63.1425	6,062.99	65.3508	6,062.99	64.109	6,062.99	56.6053	6,062.99	63.094	6,062.99	60.5792	6,062.99	52.1679	6,062.99	62.7476	6,062.99	61.0648
6,276.86	87.2788	6,276.86	87.037	6,276.86	86.2915	6,276.86	86.1443	6,276.86	85.4961	6,276.86	85.6954	6,276.86	85.3989	6,276.86	83.8359	6,276.86	85.1584	6,276.86	83.3042	6,276.86	81.87	6,276.86	81.2116	6,276.86	80.8367	6,276.86	79.0085	6,276.86	80.0203	6,276.86	76.1114	6,276.86	77.336	6,276.86	72.7652	6,276.86	70.4881	6,276.86	68.2885	6,276.86	60.7958	6,276.86	66.5623	6,276.86	60.6257	6,276.86	65.0762	6,276.86	62.2643	6,276.86	65.9194	6,276.86	47.0886	6,276.86	63.2742	6,276.86	61.1773	6,276.86	59.7783	6,276.86	46.4885	6,276.86	63.9218	6,276.86	59.778	6,276.86	62.5345	6,276.86	58.9682	6,276.86	60.1531
6,498.05	85.8729	6,498.05	86.0256	6,498.05	85.4338	6,498.05	86.0869	6,498.05	85.5427	6,498.05	84.9435	6,498.05	84.6261	6,498.05	82.7454	6,498.05	84.2622	6,498.05	82.2157	6,498.05	83.1393	6,498.05	80.344	6,498.05	80.818	6,498.05	78.9163	6,498.05	79.3503	6,498.05	74.7113	6,498.05	74.3488	6,498.05	71.1506	6,498.05	68.6613	6,498.05	63.5936	6,498.05	62.6745	6,498.05	65.7279	6,498.05	65.8735	6,498.05	62.8472	6,498.05	65.9168	6,498.05	65.0797	6,498.05	59.0139	6,498.05	62.0694	6,498.05	46.4417	6,498.05	60.9281	6,498.05	54.6375	6,498.05	61.5623	6,498.05	62.7158	6,498.05	53.5709	6,498.05	62.8975	6,498.05	56.2482
6,726.56	85.5654	6,726.56	86.3617	6,726.56	85.916	6,726.56	85.8907	6,726.56	84.815	6,726.56	83.6484	6,726.56	83.6485	6,726.56	82.5227	6,726.56	83.8909	6,726.56	80.8278	6,726.56	80.9726	6,726.56	80.0716	6,726.56	80.0316	6,726.56	75.9146	6,726.56	74.9821	6,726.56	73.3501	6,726.56	64.9491	6,726.56	69.5668	6,726.56	68.984	6,726.56	65.7792	6,726.56	64.8755	6,726.56	63.6138	6,726.56	67.1871	6,726.56	61.8195	6,726.56	65.6438	6,726.56	65.4763	6,726.56	46.3304	6,726.56	61.4218	6,726.56	52.517	6,726.56	57.4514	6,726.56	55.6171	6,726.56	60.5396	6,726.56	59.9902	6,726.56	51.1057	6,726.56	58.6429	6,726.56	59.3497
6,963.87	85.4923	6,963.87	86.1781	6,963.87	86.2013	6,963.87	84.9196	6,963.87	84.2473	6,963.87	82.5424	6,963.87	82.3938	6,963.87	81.1214	6,963.87	82.4303	6,963.87	80.5806	6,963.87	78.7113	6,963.87	78.9606	6,963.87	78.7837	6,963.87	75.7771	6,963.87	68.194	6,963.87	71.796	6,963.87	72.5495	6,963.87	66.8184	6,963.87	66.1057	6,963.87	63.8008	6,963.87	58.5134	6,963.87	60.1744	6,963.87	66.92	6,963.87	61.9334	6,963.87	68.3352	6,963.87	62.8857	6,963.87	56.4612	6,963.87	61.9116	6,963.87	49.8118	6,963.87	59.7342	6,963.87	51.1288	6,963.87	59.0308	6,963.87	53.7887	6,963.87	51.8989	6,963.87	52.9027	6,963.87	57.9907
7,209.96	84.6186	7,209.96	84.9656	7,209.96	85.0965	7,209.96	83.9558	7,209.96	83.1063	7,209.96	82.1477	7,209.96	82.2814	7,209.96	80.8031	7,209.96	81.496	7,209.96	80.2498	7,209.96	78.2837	7,209.96	77.6683	7,209.96	76.0673	7,209.96	74.8792	7,209.96	71.7898	7,209.96	70.0177	7,209.96	72.1757	7,209.96	66.397	7,209.96	61.7715	7,209.96	62.5466	7,209.96	62.1906	7,209.96	58.8698	7,209.96	59.8951	7,209.96	60.5127	7,209.96	64.1191	7,209.96	59.8575	7,209.96	48.7374	7,209.96	58.5588	7,209.96	50.6276	7,209.96	58.1449	7,209.96	48.8943	7,209.96	60.9269	7,209.96	57.7356	7,209.96	40.1225	7,209.96	57.7456	7,209.96	56.9031
7,464.84	84.3325	7,464.84	84.7777	7,464.84	83.4717	7,464.84	84.0044	7,464.84	83.4914	7,464.84	81.3051	7,464.84	82.4657	7,464.84	80.4857	7,464.84	80.1109	7,464.84	79.102	7,464.84	78.9817	7,464.84	76.2734	7,464.84	71.9514	7,464.84	73.0772	7,464.84	74.8257	7,464.84	67.7501	7,464.84	69.0646	7,464.84	65.2453	7,464.84	63.4104	7,464.84	59.3645	7,464.84	59.9757	7,464.84	57.4316	7,464.84	63.058	7,464.84	55.8032	7,464.84	57.261	7,464.84	55.0224	7,464.84	50.6533	7,464.84	54.6976	7,464.84	48.997	7,464.84	58.8777	7,464.84	55.9483	7,464.84	53.7049	7,464.84	58.3593	7,464.84	54.7442	7,464.84	57.8947	7,464.84	52.8045
7,727.05	85.3628	7,727.05	84.577	7,727.05	83.9636	7,727.05	83.6624	7,727.05	83.8434	7,727.05	81.4359	7,727.05	82.3477	7,727.05	80.2133	7,727.05	78.3985	7,727.05	78.0665	7,727.05	78.3224	7,727.05	75.5715	7,727.05	72.0991	7,727.05	71.2871	7,727.05	73.2707	7,727.05	69.4489	7,727.05	63.7162	7,727.05	63.1644	7,727.05	63.018	7,727.05	61.2933	7,727.05	54.2728	7,727.05	54.8875	7,727.05	55.5412	7,727.05	56.5234	7,727.05	59.1656	7,727.05	58.315	7,727.05	35.5552	7,727.05	50.2102	7,727.05	51.3531	7,727.05	54.1144	7,727.05	33.0292	7,727.05	51.4432	7,727.05	54.4926	7,727.05	55.2536	7,727.05	56.2516	7,727.05	52.881
7,999.51	85.4686	7,999.51	84.5478	7,999.51	84.6572	7,999.51	83.3005	7,999.51	83.1641	7,999.51	82.0394	7,999.51	81.1706	7,999.51	79.9972	7,999.51	78.6161	7,999.51	77.9562	7,999.51	76.2575	7,999.51	74.4385	7,999.51	73.8754	7,999.51	69.8846	7,999.51	66.8765	7,999.51	66.4509	7,999.51	61.035	7,999.51	60.8115	7,999.51	55.2537	7,999.51	59.9702	7,999.51	55.4178	7,999.51	54.038	7,999.51	60.8155	7,999.51	58.2131	7,999.51	63.0334	7,999.51	56.0792	7,999.51	46.5955	7,999.51	51.5209	7,999.51	45.3622	7,999.51	53.2821	7,999.51	50.2873	7,999.51	54.2488	7,999.51	49.3779	7,999.51	53.7879	7,999.51	54.1625	7,999.51	48.4269
8,282.23	85.1311	8,282.23	84.5017	8,282.23	84.9233	8,282.23	84.0576	8,282.23	82.4817	8,282.23	82.7755	8,282.23	80.2232	8,282.23	80.4295	8,282.23	79.4247	8,282.23	77.979	8,282.23	74.4464	8,282.23	74.6525	8,282.23	72.5824	8,282.23	69.6378	8,282.23	59.4509	8,282.23	64.51	8,282.23	62.8791	8,282.23	60.1883	8,282.23	54.5755	8,282.23	55.7662	8,282.23	59.3716	8,282.23	55.1937	8,282.23	61.3589	8,282.23	58.5999	8,282.23	62.1472	8,282.23	52.4718	8,282.23	47.4096	8,282.23	56.7773	8,282.23	39.8174	8,282.23	53.8179	8,282.23	40.5735	8,282.23	53.4394	8,282.23	42.4243	8,282.23	49.911	8,282.23	53.5099	8,282.23	38.5079
8,573.73	85.2562	8,573.73	85.3322	8,573.73	84.6096	8,573.73	84.1759	8,573.73	82.759	8,573.73	82.8244	8,573.73	80.8654	8,573.73	79.7119	8,573.73	80.0321	8,573.73	76.716	8,573.73	75.0144	8,573.73	73.3493	8,573.73	72.4265	8,573.73	69.365	8,573.73	68.4489	8,573.73	63.951	8,573.73	66.0307	8,573.73	61.5067	8,573.73	60.8084	8,573.73	51.8648	8,573.73	59.5761	8,573.73	52.5683	8,573.73	61.4704	8,573.73	54.6082	8,573.73	62.2247	8,573.73	46.2159	8,573.73	53.7801	8,573.73	55.1488	8,573.73	30.3983	8,573.73	50.5894	8,573.73	49.2881	8,573.73	52.7627	8,573.73	43.1485	8,573.73	38.842	8,573.73	46.631	8,573.73	41.8508
8,876.95	85.4392	8,876.95	85.1112	8,876.95	83.6979	8,876.95	83.7806	8,876.95	82.3685	8,876.95	81.3197	8,876.95	80.7334	8,876.95	78.7989	8,876.95	79.366	8,876.95	74.9839	8,876.95	75.578	8,876.95	72.091	8,876.95	70.4661	8,876.95	66.8273	8,876.95	70.9571	8,876.95	63.8657	8,876.95	65.7933	8,876.95	59.2731	8,876.95	62.0475	8,876.95	53.2279	8,876.95	54.9785	8,876.95	53.0196	8,876.95	64.8697	8,876.95	49.1199	8,876.95	63.2025	8,876.95	51.4206	8,876.95	55.1099	8,876.95	54.3511	8,876.95	45.749	8,876.95	51.5744	8,876.95	49.3717	8,876.95	45.3823	8,876.95	51.1	8,876.95	36.8993	8,876.95	48.8129	8,876.95	48.1945
9,188.96	84.6261	9,188.96	83.6298	9,188.96	83.6364	9,188.96	82.7042	9,188.96	82.8092	9,188.96	80.3284	9,188.96	81.1207	9,188.96	78.0884	9,188.96	78.1433	9,188.96	74.4392	9,188.96	75.6871	9,188.96	72.0726	9,188.96	69.467	9,188.96	67.004	9,188.96	68.4855	9,188.96	64.8592	9,188.96	62.9157	9,188.96	59.3878	9,188.96	62.1121	9,188.96	56.6155	9,188.96	56.8232	9,188.96	48.4123	9,188.96	64.0259	9,188.96	51.2656	9,188.96	65.3975	9,188.96	55.9847	9,188.96	52.9188	9,188.96	54.5594	9,188.96	49.3453	9,188.96	51.5077	9,188.96	48.8992	9,188.96	41.4051	9,188.96	51.9645	9,188.96	45.0516	9,188.96	49.5235	9,188.96	46.9345
9,514.16	84.0813	9,514.16	83.507	9,514.16	84.1702	9,514.16	82.6278	9,514.16	82.1187	9,514.16	80.3022	9,514.16	81.2121	9,514.16	77.5136	9,514.16	77.5018	9,514.16	74.1694	9,514.16	74.047	9,514.16	71.1729	9,514.16	68.9777	9,514.16	65.3686	9,514.16	62.5998	9,514.16	61.0281	9,514.16	59.5269	9,514.16	56.8537	9,514.16	56.5985	9,514.16	52.1027	9,514.16	60.9853	9,514.16	52.342	9,514.16	62.7891	9,514.16	48.5234	9,514.16	63.3206	9,514.16	53.477	9,514.16	50.2442	9,514.16	52.0369	9,514.16	46.3918	9,514.16	50.2971	9,514.16	47.1182	9,514.16	44.8536	9,514.16	45.0775	9,514.16	47.2659	9,514.16	48.5135	9,514.16	37.6615
9,849.61	84.5749	9,849.61	83.7374	9,849.61	83.7405	9,849.61	82.4914	9,849.61	82.9082	9,849.61	80.644	9,849.61	80.9598	9,849.61	76.5799	9,849.61	76.7685	9,849.61	72.3216	9,849.61	72.3726	9,849.61	66.6718	9,849.61	68.3487	9,849.61	59.9385	9,849.61	55.7625	9,849.61	51.5388	9,849.61	56.8514	9,849.61	45.4207	9,849.61	57.804	9,849.61	35.6359	9,849.61	62.0274	9,849.61	39.8862	9,849.61	65.0164	9,849.61	47.4996	9,849.61	65.5241	9,849.61	51.603	9,849.61	58.7322	9,849.61	44.4548	9,849.61	45.3694	9,849.61	44.9969	9,849.61	45.5399	9,849.61	50.1942	9,849.61	41.3325	9,849.61	35.8521	9,849.61	48.0443	9,849.61	41.4064
10,196.8	85.5398	10,196.8	84.711	10,196.8	84.4305	10,196.8	82.8656	10,196.8	82.3516	10,196.8	80.4743	10,196.8	79.8397	10,196.8	76.2464	10,196.8	76.1369	10,196.8	71.8444	10,196.8	71.4449	10,196.8	63.9635	10,196.8	64.6663	10,196.8	48.9409	10,196.8	50.2555	10,196.8	49.0196	10,196.8	47.413	10,196.8	38.8526	10,196.8	50.9209	10,196.8	46.298	10,196.8	60.6725	10,196.8	42.1817	10,196.8	66.9845	10,196.8	48.1883	10,196.8	66.2355	10,196.8	40.0195	10,196.8	59.1605	10,196.8	47.7468	10,196.8	45.9898	10,196.8	44.3969	10,196.8	32.5062	10,196.8	50.7169	10,196.8	30.5031	10,196.8	45.1769	10,196.8	40.1837	10,196.8	39.8902
10,555.7	86.6007	10,555.7	85.383	10,555.7	85.1969	10,555.7	83.4346	10,555.7	82.4772	10,555.7	80.2825	10,555.7	79.2642	10,555.7	76.5149	10,555.7	75.7164	10,555.7	70.7315	10,555.7	68.417	10,555.7	61.4708	10,555.7	49.5343	10,555.7	61.3133	10,555.7	61.8294	10,555.7	60.6814	10,555.7	57.8556	10,555.7	57.6562	10,555.7	61.3552	10,555.7	52.6883	10,555.7	66.0717	10,555.7	51.8586	10,555.7	69.458	10,555.7	52.2175	10,555.7	68.1702	10,555.7	52.7427	10,555.7	58.9889	10,555.7	50.5877	10,555.7	38.0868	10,555.7	43.0974	10,555.7	45.5235	10,555.7	45.5496	10,555.7	44.8015	10,555.7	47.0921	10,555.7	43.7675	10,555.7	42.2197
10,927.7	86.423	10,927.7	85.7235	10,927.7	85.0635	10,927.7	83.7121	10,927.7	82.5199	10,927.7	79.7591	10,927.7	79.1928	10,927.7	75.8601	10,927.7	75.404	10,927.7	68.265	10,927.7	67.0544	10,927.7	64.0234	10,927.7	64.2982	10,927.7	64.7147	10,927.7	64.2657	10,927.7	61.9486	10,927.7	58.7043	10,927.7	59.1334	10,927.7	63.8869	10,927.7	56.0476	10,927.7	67.3958	10,927.7	45.1538	10,927.7	70.0321	10,927.7	51.5974	10,927.7	68.9702	10,927.7	56.9877	10,927.7	59.439	10,927.7	52.5604	10,927.7	47.2655	10,927.7	51.0619	10,927.7	46.9478	10,927.7	24.1462	10,927.7	39.2575	10,927.7	48.3741	10,927.7	46.7507	10,927.7	44.8505
11,313	86.804	11,313	86.2213	11,313	85.5807	11,313	83.9341	11,313	83.3438	11,313	80.3529	11,313	78.9067	11,313	75.6148	11,313	72.8695	11,313	69.2384	11,313	66.4649	11,313	65.3898	11,313	69.9853	11,313	64.9851	11,313	66.3457	11,313	64.4602	11,313	65.4391	11,313	61.1894	11,313	65.5305	11,313	58.5687	11,313	67.4939	11,313	46.5265	11,313	71.0836	11,313	55.1491	11,313	70.0605	11,313	57.2085	11,313	61.0925	11,313	53.0763	11,313	52.7409	11,313	53.4852	11,313	43.5879	11,313	47.5277	11,313	47.0752	11,313	32.0026	11,313	40.6348	11,313	37.7175
11,712.9	86.6772	11,712.9	86.0307	11,712.9	85.6974	11,712.9	83.3488	11,712.9	83.0003	11,712.9	80.1804	11,712.9	79.5085	11,712.9	74.2864	11,712.9	73.0264	11,712.9	66.9802	11,712.9	70.524	11,712.9	68.8633	11,712.9	70.9547	11,712.9	70.2437	11,712.9	70.2209	11,712.9	68.4304	11,712.9	65.0399	11,712.9	64.1515	11,712.9	66.7111	11,712.9	58.6785	11,712.9	68.1181	11,712.9	53.6684	11,712.9	71.6492	11,712.9	56.6592	11,712.9	71.3852	11,712.9	56.5319	11,712.9	62.7673	11,712.9	56.3711	11,712.9	44.0204	11,712.9	54.8816	11,712.9	43.0796	11,712.9	45.1366	11,712.9	43.5841	11,712.9	41.0961	11,712.9	44.1721	11,712.9	31.6763
12,126	86.2899	12,126	85.6761	12,126	85.6176	12,126	83.2449	12,126	83.0532	12,126	79.7257	12,126	80.6549	12,126	72.8383	12,126	72.8413	12,126	66.8816	12,126	70.5164	12,126	69.9712	12,126	64.6608	12,126	70.7692	12,126	68.0201	12,126	67.5484	12,126	62.2359	12,126	62.2859	12,126	62.8509	12,126	58.4411	12,126	66.908	12,126	51.3186	12,126	71.3486	12,126	54.6527	12,126	70.7096	12,126	54.839	12,126	62.6705	12,126	54.651	12,126	49.4281	12,126	53.6273	12,126	40.4834	12,126	47.1456	12,126	45.5675	12,126	46.0583	12,126	43.9341	12,126	42.1744
12,553.7	86.1424	12,553.7	85.5211	12,553.7	85.1572	12,553.7	83.6485	12,553.7	82.7487	12,553.7	79.5274	12,553.7	79.8748	12,553.7	74.2355	12,553.7	72.517	12,553.7	69.8304	12,553.7	66.0727	12,553.7	69.0595	12,553.7	68.5617	12,553.7	69.5112	12,553.7	64.3448	12,553.7	64.8133	12,553.7	60.9408	12,553.7	59.1906	12,553.7	64.2779	12,553.7	57.5999	12,553.7	65.2013	12,553.7	45.1295	12,553.7	70.2153	12,553.7	53.6422	12,553.7	68.6088	12,553.7	54.7386	12,553.7	57.7213	12,553.7	52.2599	12,553.7	51.9978	12,553.7	52.799	12,553.7	41.6794	12,553.7	42.0082	12,553.7	43.8843	12,553.7	50.0448	12,553.7	46.2264	12,553.7	43.5421
12,996.1	85.9588	12,996.1	85.5124	12,996.1	84.7445	12,996.1	83.5708	12,996.1	83.2088	12,996.1	79.3749	12,996.1	79.4707	12,996.1	75.3956	12,996.1	73.2747	12,996.1	69.6522	12,996.1	62.2636	12,996.1	67.8954	12,996.1	65.5722	12,996.1	64.622	12,996.1	65.7476	12,996.1	60.7216	12,996.1	60.0355	12,996.1	56.9478	12,996.1	63.2227	12,996.1	53.0681	12,996.1	65.256	12,996.1	43.2669	12,996.1	69.0544	12,996.1	47.7955	12,996.1	68.5961	12,996.1	51.3935	12,996.1	58.9722	12,996.1	50.288	12,996.1	42.4142	12,996.1	50.1083	12,996.1	40.9024	12,996.1	45.0809	12,996.1	36.7895	12,996.1	49.7659	12,996.1	51.8959	12,996.1	43.1709
13,454.6	85.7115	13,454.6	85.3954	13,454.6	84.5127	13,454.6	83.259	13,454.6	82.8173	13,454.6	80.0009	13,454.6	79.1992	13,454.6	75.8775	13,454.6	73.5366	13,454.6	68.4469	13,454.6	68.7318	13,454.6	66.989	13,454.6	65.067	13,454.6	62.9176	13,454.6	63.7139	13,454.6	59.3703	13,454.6	60.8413	13,454.6	56.3124	13,454.6	61.505	13,454.6	50.8399	13,454.6	64.5662	13,454.6	39.9669	13,454.6	69.4358	13,454.6	47.9619	13,454.6	68.5863	13,454.6	46.9129	13,454.6	58.9794	13,454.6	45.6602	13,454.6	46.7004	13,454.6	41.199	13,454.6	39.3727	13,454.6	30.8606	13,454.6	41.8754	13,454.6	48.5058	13,454.6	39.7308	13,454.6	38.9204
13,929.2	85.8302	13,929.2	85.3242	13,929.2	84.2716	13,929.2	82.978	13,929.2	82.3295	13,929.2	79.8146	13,929.2	79.789	13,929.2	75.5998	13,929.2	72.6972	13,929.2	67.8149	13,929.2	67.1705	13,929.2	62.2432	13,929.2	59.6789	13,929.2	59.6036	13,929.2	57.6571	13,929.2	56.0338	13,929.2	54.8488	13,929.2	53.2095	13,929.2	56.9444	13,929.2	44.5032	13,929.2	63.0905	13,929.2	42.9868	13,929.2	68.7822	13,929.2	45.8299	13,929.2	68.1414	13,929.2	37.0668	13,929.2	58.9223	13,929.2	42.4678	13,929.2	39.2298	13,929.2	37.6551	13,929.2	39.8076	13,929.2	33.9533	13,929.2	43.2499	13,929.2	47.8412	13,929.2	45.3408	13,929.2	40.921
14,419.9	86.0914	14,419.9	85.5509	14,419.9	84.4624	14,419.9	82.9714	14,419.9	82.2956	14,419.9	78.8545	14,419.9	78.8053	14,419.9	74.2123	14,419.9	69.8408	14,419.9	64.7421	14,419.9	55.6446	14,419.9	53.4358	14,419.9	57.9537	14,419.9	56.1802	14,419.9	54.6438	14,419.9	52.6154	14,419.9	35.3825	14,419.9	42.789	14,419.9	56.7839	14,419.9	42.8176	14,419.9	63.1337	14,419.9	34.2238	14,419.9	69.2711	14,419.9	39.2683	14,419.9	68.8016	14,419.9	42.167	14,419.9	59.6876	14,419.9	42.6157	14,419.9	34.1938	14,419.9	43.5953	14,419.9	40.2025	14,419.9	40.6933	14,419.9	39.605	14,419.9	43.112	14,419.9	47.9859	14,419.9	36.4465
14,928.2	86.3644	14,928.2	85.8153	14,928.2	84.7329	14,928.2	82.7543	14,928.2	82.5489	14,928.2	77.5933	14,928.2	77.7076	14,928.2	71.3378	14,928.2	66.4447	14,928.2	56.8115	14,928.2	59.8286	14,928.2	57.8112	14,928.2	64.504	14,928.2	61.221	14,928.2	63.0597	14,928.2	52.4654	14,928.2	31.3734	14,928.2	46.8026	14,928.2	55.9008	14,928.2	42.7109	14,928.2	64.515	14,928.2	12.7321	14,928.2	70.3134	14,928.2	44.4426	14,928.2	69.7762	14,928.2	49.4743	14,928.2	60.0197	14,928.2	43.6505	14,928.2	43.5115	14,928.2	44.393	14,928.2	37.007	14,928.2	43.2886	14,928.2	43.5473	14,928.2	43.6857	14,928.2	46.8349	14,928.2	37.8376
15,455.6	86.5566	15,455.6	85.8099	15,455.6	84.4897	15,455.6	82.4678	15,455.6	81.504	15,455.6	76.6585	15,455.6	75.4121	15,455.6	67.4893	15,455.6	59.7888	15,455.6	34	15,455.6	62.3605	15,455.6	59.9825	15,455.6	63.2214	15,455.6	63.6571	15,455.6	60.3254	15,455.6	58.4519	15,455.6	48.1565	15,455.6	53.5825	15,455.6	53.2463	15,455.6	50.0742	15,455.6	63.6543	15,455.6	27.5402	15,455.6	70.3078	15,455.6	47.4522	15,455.6	70.201	15,455.6	49.8167	15,455.6	61.7215	15,455.6	46.4928	15,455.6	45.2457	15,455.6	45.8684	15,455.6	36.0988	15,455.6	45.0589	15,455.6	40.5628	15,455.6	43.9976	15,455.6	42.8689	15,455.6	31.0816
16,000.5	86.4748	16,000.5	85.9154	16,000.5	84.1492	16,000.5	82.3232	16,000.5	80.5604	16,000.5	75.5	16,000.5	73.4967	16,000.5	62.9775	16,000.5	51.1904	16,000.5	55.2349	16,000.5	62.9813	16,000.5	62.8753	16,000.5	61.9219	16,000.5	63.899	16,000.5	57.4121	16,000.5	59.3535	16,000.5	53.7861	16,000.5	53.6431	16,000.5	44.8931	16,000.5	48.9892	16,000.5	61.5044	16,000.5	38.5323	16,000.5	68.8943	16,000.5	46.1707	16,000.5	68.8485	16,000.5	47.8703	16,000.5	60.5978	16,000.5	42.4636	16,000.5	46.4255	16,000.5	46.0734	16,000.5	33.2011	16,000.5	45.5879	16,000.5	37.376	16,000.5	43.7362	16,000.5	37.01	16,000.5	32.6759
16,564.5	86.4415	16,564.5	85.8608	16,564.5	84.1416	16,564.5	81.9638	16,564.5	79.8741	16,564.5	73.4955	16,564.5	69.7527	16,564.5	38.9931	16,564.5	59.0454	16,564.5	61.1259	16,564.5	65.2427	16,564.5	64.4611	16,564.5	59.4328	16,564.5	63.9091	16,564.5	50.5896	16,564.5	59.8122	16,564.5	53.1475	16,564.5	53.8888	16,564.5	41.0818	16,564.5	50.3427	16,564.5	58.2164	16,564.5	39.6661	16,564.5	67.3377	16,564.5	45.3385	16,564.5	67.0709	16,564.5	43.4651	16,564.5	57.7542	16,564.5	41.2373	16,564.5	46.0068	16,564.5	43.5168	16,564.5	26.545	16,564.5	44.8343	16,564.5	34.4113	16,564.5	40.7852	16,564.5	30.8244	16,564.5	31.2892
17,148.9	86.1351	17,148.9	85.5396	17,148.9	83.8523	17,148.9	81.9167	17,148.9	78.8457	17,148.9	73.9469	17,148.9	67.0076	17,148.9	54.2305	17,148.9	60.7323	17,148.9	62.0366	17,148.9	58.474	17,148.9	62.4781	17,148.9	53.6176	17,148.9	63.7091	17,148.9	58.2579	17,148.9	61.9503	17,148.9	59.2413	17,148.9	55.3937	17,148.9	49.0318	17,148.9	51.839	17,148.9	52.9057	17,148.9	38.9336	17,148.9	63.5435	17,148.9	45.753	17,148.9	63.9566	17,148.9	45.0235	17,148.9	55.3892	17,148.9	44.3975	17,148.9	44.8391	17,148.9	42.4977	17,148.9	38.4614	17,148.9	45.9245	17,148.9	28.7005	17,148.9	41.3778	17,148.9	38.2138	17,148.9	36.4351
17,752.4	86.9253	17,752.4	85.875	17,752.4	84.7096	17,752.4	81.9584	17,752.4	77.5388	17,752.4	70.6596	17,752.4	53.9515	17,752.4	67.6606	17,752.4	60.8706	17,752.4	69.8881	17,752.4	61.1491	17,752.4	68.3924	17,752.4	61.7837	17,752.4	65.1934	17,752.4	62.1094	17,752.4	63.2022	17,752.4	59.5586	17,752.4	55.8641	17,752.4	46.9976	17,752.4	53.0851	17,752.4	57.052	17,752.4	41.4898	17,752.4	65.8425	17,752.4	47.0263	17,752.4	65.7971	17,752.4	47.8695	17,752.4	57.0639	17,752.4	44.2769	17,752.4	44.5207	17,752.4	45.3017	17,752.4	36.7425	17,752.4	39.6001	17,752.4	40.7275	17,752.4	40.7622	17,752.4	38.7823	17,752.4	41.7528
18,379.4	87.2998	18,379.4	86.0521	18,379.4	84.59	18,379.4	81.4024	18,379.4	76.8244	18,379.4	67.1798	18,379.4	63.0877	18,379.4	70.7424	18,379.4	64.8635	18,379.4	70.2729	18,379.4	64.4535	18,379.4	67.2556	18,379.4	59.2972	18,379.4	61.1409	18,379.4	55.5662	18,379.4	56.5768	18,379.4	53.456	18,379.4	50.0275	18,379.4	44.1864	18,379.4	45.9113	18,379.4	53.4925	18,379.4	43.223	18,379.4	64.8722	18,379.4	44.81	18,379.4	65.2291	18,379.4	44.5762	18,379.4	55.3113	18,379.4	41.9586	18,379.4	48.8275	18,379.4	42.2785	18,379.4	33.1958	18,379.4	39.6811	18,379.4	36.7089	18,379.4	31.6538	18,379.4	32.4994	18,379.4	36.1017
19,026.9	87.5193	19,026.9	86.1898	19,026.9	84.7328	19,026.9	81.4314	19,026.9	77.5477	19,026.9	68.552	19,026.9	66.2709	19,026.9	71.1004	19,026.9	65.2937	19,026.9	68.356	19,026.9	62.8229	19,026.9	62.039	19,026.9	59.6253	19,026.9	61.5158	19,026.9	56.0674	19,026.9	59.0105	19,026.9	58.0057	19,026.9	55.0716	19,026.9	47.4909	19,026.9	48.2203	19,026.9	54.2713	19,026.9	44.9874	19,026.9	62.7575	19,026.9	48.6222	19,026.9	64.1459	19,026.9	47.1715	19,026.9	55.2549	19,026.9	42.9014	19,026.9	36.5457	19,026.9	41.1622	19,026.9	31.8673	19,026.9	39.197	19,026.9	41.6168	19,026.9	40.9767	19,026.9	41.449	19,026.9	39.2144
19,697.8	88.369	19,697.8	86.9381	19,697.8	85.3086	19,697.8	81.9211	19,697.8	78.781	19,697.8	70.333	19,697.8	70.7389	19,697.8	71.2116	19,697.8	57.1887	19,697.8	61.8392	19,697.8	63.4876	19,697.8	65.3505	19,697.8	66.7828	19,697.8	66.5306	19,697.8	64.2681	19,697.8	64.5902	19,697.8	64.2063	19,697.8	59.5642	19,697.8	53.0685	19,697.8	52.3902	19,697.8	61.6667	19,697.8	49.0281	19,697.8	62.8656	19,697.8	50.2822	19,697.8	66.2262	19,697.8	48.179	19,697.8	58.0018	19,697.8	38.6789	19,697.8	49.2963	19,697.8	44.184	19,697.8	41.313	19,697.8	44.1627	19,697.8	38.582	19,697.8	50.1324	19,697.8	32.6085	19,697.8	42.6794
19,999.5	88.9903	19,999.5	87.6948	19,999.5	85.5169	19,999.5	82.3992	19,999.5	79.784	19,999.5	68.6163	19,999.5	70.4897	19,999.5	70.0918	19,999.5	61.5877	19,999.5	62.3528	19,999.5	67.8827	19,999.5	68.2098	19,999.5	68.3782	19,999.5	67.4761	19,999.5	69.3026	19,999.5	65.4775	19,999.5	64.6982	19,999.5	58.5207	19,999.5	55.6395	19,999.5	47.3449	19,999.5	64.0655	19,999.5	52.6659	19,999.5	61.3833	19,999.5	57.4736	19,999.5	66.0868	19,999.5	54.2132	19,999.5	58.484	19,999.5	52.5202	19,999.5	52.713	19,999.5	58.7117	19,999.5	44.5569	19,999.5	48.4438	19,999.5	57.343	19,999.5	54.0419	19,999.5	53.3714	19,999.5	36.1141
