"SPL Vertical"
"On-Axis"		"10°"		"-10°"		"20°"		"-20°"		"30°"		"-30°"		"40°"		"-40°"		"50°"		"-50°"		"60°"		"-60°"		"70°"		"-70°"		"80°"		"-80°"		"90°"		"-90°"		"100°"		"-100°"		"110°"		"-110°"		"120°"		"-120°"		"130°"		"-130°"		"140°"		"-140°"		"150°"		"-150°"		"160°"		"-160°"		"170°"		"-170°"		"180°"
"Frequency / Hz"	"Sound Pressure Level / dB (re 20 µPa/V)  [2.83  V @ 1. m]"	"Frequency / Hz"	"Sound Pressure Level / dB (re 20 µPa/V)  [2.83  V @ 1. m]"	"Frequency / Hz"	"Sound Pressure Level / dB (re 20 µPa/V)  [2.83  V @ 1. m]"	"Frequency / Hz"	"Sound Pressure Level / dB (re 20 µPa/V)  [2.83  V @ 1. m]"	"Frequency / Hz"	"Sound Pressure Level / dB (re 20 µPa/V)  [2.83  V @ 1. m]"	"Frequency / Hz"	"Sound Pressure Level / dB (re 20 µPa/V)  [2.83  V @ 1. m]"	"Frequency / Hz"	"Sound Pressure Level / dB (re 20 µPa/V)  [2.83  V @ 1. m]"	"Frequency / Hz"	"Sound Pressure Level / dB (re 20 µPa/V)  [2.83  V @ 1. m]"	"Frequency / Hz"	"Sound Pressure Level / dB (re 20 µPa/V)  [2.83  V @ 1. m]"	"Frequency / Hz"	"Sound Pressure Level / dB (re 20 µPa/V)  [2.83  V @ 1. m]"	"Frequency / Hz"	"Sound Pressure Level / dB (re 20 µPa/V)  [2.83  V @ 1. m]"	"Frequency / Hz"	"Sound Pressure Level / dB (re 20 µPa/V)  [2.83  V @ 1. m]"	"Frequency / Hz"	"Sound Pressure Level / dB (re 20 µPa/V)  [2.83  V @ 1. m]"	"Frequency / Hz"	"Sound Pressure Level / dB (re 20 µPa/V)  [2.83  V @ 1. m]"	"Frequency / Hz"	"Sound Pressure Level / dB (re 20 µPa/V)  [2.83  V @ 1. m]"	"Frequency / Hz"	"Sound Pressure Level / dB (re 20 µPa/V)  [2.83  V @ 1. m]"	"Frequency / Hz"	"Sound Pressure Level / dB (re 20 µPa/V)  [2.83  V @ 1. m]"	"Frequency / Hz"	"Sound Pressure Level / dB (re 20 µPa/V)  [2.83  V @ 1. m]"	"Frequency / Hz"	"Sound Pressure Level / dB (re 20 µPa/V)  [2.83  V @ 1. m]"	"Frequency / Hz"	"Sound Pressure Level / dB (re 20 µPa/V)  [2.83  V @ 1. m]"	"Frequency / Hz"	"Sound Pressure Level / dB (re 20 µPa/V)  [2.83  V @ 1. m]"	"Frequency / Hz"	"Sound Pressure Level / dB (re 20 µPa/V)  [2.83  V @ 1. m]"	"Frequency / Hz"	"Sound Pressure Level / dB (re 20 µPa/V)  [2.83  V @ 1. m]"	"Frequency / Hz"	"Sound Pressure Level / dB (re 20 µPa/V)  [2.83  V @ 1. m]"	"Frequency / Hz"	"Sound Pressure Level / dB (re 20 µPa/V)  [2.83  V @ 1. m]"	"Frequency / Hz"	"Sound Pressure Level / dB (re 20 µPa/V)  [2.83  V @ 1. m]"	"Frequency / Hz"	"Sound Pressure Level / dB (re 20 µPa/V)  [2.83  V @ 1. m]"	"Frequency / Hz"	"Sound Pressure Level / dB (re 20 µPa/V)  [2.83  V @ 1. m]"	"Frequency / Hz"	"Sound Pressure Level / dB (re 20 µPa/V)  [2.83  V @ 1. m]"	"Frequency / Hz"	"Sound Pressure Level / dB (re 20 µPa/V)  [2.83  V @ 1. m]"	"Frequency / Hz"	"Sound Pressure Level / dB (re 20 µPa/V)  [2.83  V @ 1. m]"	"Frequency / Hz"	"Sound Pressure Level / dB (re 20 µPa/V)  [2.83  V @ 1. m]"	"Frequency / Hz"	"Sound Pressure Level / dB (re 20 µPa/V)  [2.83  V @ 1. m]"	"Frequency / Hz"	"Sound Pressure Level / dB (re 20 µPa/V)  [2.83  V @ 1. m]"	"Frequency / Hz"	"Sound Pressure Level / dB (re 20 µPa/V)  [2.83  V @ 1. m]"	"Frequency / Hz"	"Sound Pressure Level / dB (re 20 µPa/V)  [2.83  V @ 1. m]"
20.5078	68.4932	20.5078	68.5208	20.5078	68.4682	20.5078	68.5504	20.5078	68.447	20.5078	68.5826	20.5078	68.4319	20.5078	68.6188	20.5078	68.4252	20.5078	68.661	20.5078	68.4291	20.5078	68.7113	20.5078	68.4458	20.5078	68.7713	20.5078	68.4767	20.5078	68.842	20.5078	68.5226	20.5078	68.923	20.5078	68.584	20.5078	69.0128	20.5078	68.6604	20.5078	69.1079	20.5078	68.7508	20.5078	69.2036	20.5078	68.8528	20.5078	69.2936	20.5078	68.9631	20.5078	69.3708	20.5078	69.0768	20.5078	69.4281	20.5078	69.1877	20.5078	69.4593	20.5078	69.2885	20.5078	69.4605	20.5078	69.3717	20.5078	69.4306
21.9727	65.5969	21.9727	65.5849	21.9727	65.6022	21.9727	65.5663	21.9727	65.6014	21.9727	65.5416	21.9727	65.5954	21.9727	65.5123	21.9727	65.5852	21.9727	65.4803	21.9727	65.5718	21.9727	65.4478	21.9727	65.556	21.9727	65.4172	21.9727	65.5385	21.9727	65.3909	21.9727	65.5196	21.9727	65.3706	21.9727	65.4999	21.9727	65.3576	21.9727	65.4799	21.9727	65.3521	21.9727	65.4604	21.9727	65.3534	21.9727	65.4423	21.9727	65.36	21.9727	65.4267	21.9727	65.3696	21.9727	65.4145	21.9727	65.3798	21.9727	65.4063	21.9727	65.3883	21.9727	65.4016	21.9727	65.3942	21.9727	65.3993	21.9727	65.3974
23.4375	67.7307	23.4375	67.7266	23.4375	67.7287	23.4375	67.7162	23.4375	67.7209	23.4375	67.6997	23.4375	67.7081	23.4375	67.6779	23.4375	67.6909	23.4375	67.6515	23.4375	67.6699	23.4375	67.6219	23.4375	67.6458	23.4375	67.5904	23.4375	67.6192	23.4375	67.5586	23.4375	67.5909	23.4375	67.5279	23.4375	67.5615	23.4375	67.4995	23.4375	67.532	23.4375	67.4743	23.4375	67.5034	23.4375	67.4531	23.4375	67.4766	23.4375	67.4358	23.4375	67.4529	23.4375	67.4225	23.4375	67.4331	23.4375	67.4125	23.4375	67.4179	23.4375	67.4054	23.4375	67.4075	23.4375	67.4012	23.4375	67.4016	23.4375	67.3997
24.9023	69.1838	24.9023	69.189	24.9023	69.1715	24.9023	69.187	24.9023	69.1529	24.9023	69.1779	24.9023	69.1287	24.9023	69.1627	24.9023	69.1001	24.9023	69.1423	24.9023	69.0685	24.9023	69.1181	24.9023	69.035	24.9023	69.0915	24.9023	69.0009	24.9023	69.064	24.9023	68.9676	24.9023	69.0369	24.9023	68.9362	24.9023	69.0113	24.9023	68.9079	24.9023	68.9877	24.9023	68.8839	24.9023	68.9664	24.9023	68.865	24.9023	68.9473	24.9023	68.8519	24.9023	68.93	24.9023	68.845	24.9023	68.9138	24.9023	68.8441	24.9023	68.8983	24.9023	68.8487	24.9023	68.8834	24.9023	68.8576	24.9023	68.8695
26.3672	69.7332	26.3672	69.7383	26.3672	69.7201	26.3672	69.735	26.3672	69.6992	26.3672	69.724	26.3672	69.6714	26.3672	69.7059	26.3672	69.6379	26.3672	69.6819	26.3672	69.5999	26.3672	69.6535	26.3672	69.5588	26.3672	69.622	26.3672	69.5162	26.3672	69.589	26.3672	69.4737	26.3672	69.5559	26.3672	69.4329	26.3672	69.5237	26.3672	69.3954	26.3672	69.4934	26.3672	69.3628	26.3672	69.4654	26.3672	69.3366	26.3672	69.4396	26.3672	69.3178	26.3672	69.4157	26.3672	69.3071	26.3672	69.3934	26.3672	69.3043	26.3672	69.3723	26.3672	69.3088	26.3672	69.3524	26.3672	69.3193	26.3672	69.3344
27.832	69.9909	27.832	69.9906	27.832	69.987	27.832	69.9859	27.832	69.979	27.832	69.9768	27.832	69.9669	27.832	69.9634	27.832	69.9511	27.832	69.9461	27.832	69.9318	27.832	69.9251	27.832	69.9091	27.832	69.9011	27.832	69.8837	27.832	69.8749	27.832	69.856	27.832	69.8473	27.832	69.827	27.832	69.8192	27.832	69.7974	27.832	69.7915	27.832	69.7684	27.832	69.7651	27.832	69.7412	27.832	69.7408	27.832	69.717	27.832	69.719	27.832	69.6967	27.832	69.7004	27.832	69.6814	27.832	69.6854	27.832	69.6714	27.832	69.6745	27.832	69.6671	27.832	69.6683
29.2969	71.2754	29.2969	71.2743	29.2969	71.2701	29.2969	71.2669	29.2969	71.2586	29.2969	71.2534	29.2969	71.2409	29.2969	71.2341	29.2969	71.2176	29.2969	71.2095	29.2969	71.1891	29.2969	71.1802	29.2969	71.156	29.2969	71.147	29.2969	71.1192	29.2969	71.1108	29.2969	71.0796	29.2969	71.0726	29.2969	71.0384	29.2969	71.0336	29.2969	70.9968	29.2969	70.9948	29.2969	70.9563	29.2969	70.9573	29.2969	70.9184	29.2969	70.9223	29.2969	70.8846	29.2969	70.8906	29.2969	70.8562	29.2969	70.8632	29.2969	70.8345	29.2969	70.841	29.2969	70.8203	29.2969	70.8249	29.2969	70.814	29.2969	70.8157
30.7617	72.1122	30.7617	72.1087	30.7617	72.1071	30.7617	72.0968	30.7617	72.0937	30.7617	72.0768	30.7617	72.0725	30.7617	72.0494	30.7617	72.0443	30.7617	72.0158	30.7617	72.0099	30.7617	71.9769	30.7617	71.9705	30.7617	71.9343	30.7617	71.9273	30.7617	71.8893	30.7617	71.8818	30.7617	71.8435	30.7617	71.8352	30.7617	71.7984	30.7617	71.7891	30.7617	71.7554	30.7617	71.7451	30.7617	71.7157	30.7617	71.7045	30.7617	71.6802	30.7617	71.6686	30.7617	71.6498	30.7617	71.6387	30.7617	71.6251	30.7617	71.6154	30.7617	71.6065	30.7617	71.5992	30.7617	71.5943	30.7617	71.5904	30.7617	71.5888
32.2266	72.6139	32.2266	72.6093	32.2266	72.6104	32.2266	72.5967	32.2266	72.5989	32.2266	72.5765	32.2266	72.5797	32.2266	72.5494	32.2266	72.5533	32.2266	72.5163	32.2266	72.5207	32.2266	72.4783	32.2266	72.4827	32.2266	72.4367	32.2266	72.4405	32.2266	72.3928	32.2266	72.3954	32.2266	72.3481	32.2266	72.3489	32.2266	72.3042	32.2266	72.3027	32.2266	72.2622	32.2266	72.2582	32.2266	72.2236	32.2266	72.2171	32.2266	72.1892	32.2266	72.1809	32.2266	72.1597	32.2266	72.1506	32.2266	72.1358	32.2266	72.1271	32.2266	72.1177	32.2266	72.1109	32.2266	72.1058	32.2266	72.1021	32.2266	72.1005
33.6914	73.4012	33.6914	73.3908	33.6914	73.4031	33.6914	73.3722	33.6914	73.3964	33.6914	73.3459	33.6914	73.3813	33.6914	73.3126	33.6914	73.358	33.6914	73.2734	33.6914	73.3273	33.6914	73.2294	33.6914	73.2898	33.6914	73.1819	33.6914	73.2465	33.6914	73.1324	33.6914	73.1988	33.6914	73.0824	33.6914	73.1479	33.6914	73.0336	33.6914	73.0956	33.6914	72.9874	33.6914	73.0436	33.6914	72.9452	33.6914	72.9937	33.6914	72.9081	33.6914	72.9478	33.6914	72.8769	33.6914	72.9076	33.6914	72.8524	33.6914	72.8744	33.6914	72.8353	33.6914	72.8492	33.6914	72.826	33.6914	72.8327	33.6914	72.825
35.1562	74.1366	35.1562	74.1334	35.1562	74.1314	35.1562	74.1218	35.1562	74.1179	35.1562	74.102	35.1562	74.0966	35.1562	74.0748	35.1562	74.0681	35.1562	74.0407	35.1562	74.033	35.1562	74.0009	35.1562	73.9924	35.1562	73.9567	35.1562	73.9474	35.1562	73.9094	35.1562	73.8993	35.1562	73.8607	35.1562	73.8495	35.1562	73.812	35.1562	73.7996	35.1562	73.7648	35.1562	73.7512	35.1562	73.7207	35.1562	73.7059	35.1562	73.6807	35.1562	73.6654	35.1562	73.6459	35.1562	73.6312	35.1562	73.6171	35.1562	73.6042	35.1562	73.5951	35.1562	73.5855	35.1562	73.5804	35.1562	73.5752	35.1562	73.5736
36.6211	74.7716	36.6211	74.7668	36.6211	74.7674	36.6211	74.7531	36.6211	74.7545	36.6211	74.7309	36.6211	74.7334	36.6211	74.7008	36.6211	74.7045	36.6211	74.6637	36.6211	74.6689	36.6211	74.6207	36.6211	74.6276	36.6211	74.5729	36.6211	74.5817	36.6211	74.522	36.6211	74.5327	36.6211	74.4696	36.6211	74.4818	36.6211	74.4173	36.6211	74.4307	36.6211	74.3668	36.6211	74.3808	36.6211	74.3197	36.6211	74.3337	36.6211	74.2776	36.6211	74.2907	36.6211	74.2417	36.6211	74.2532	36.6211	74.2131	36.6211	74.2224	36.6211	74.1926	36.6211	74.1991	36.6211	74.1808	36.6211	74.1841	36.6211	74.1779
38.0859	75.3492	38.0859	75.3439	38.0859	75.3447	38.0859	75.3289	38.0859	75.3308	38.0859	75.3046	38.0859	75.308	38.0859	75.2714	38.0859	75.277	38.0859	75.2303	38.0859	75.2388	38.0859	75.1823	38.0859	75.1945	38.0859	75.129	38.0859	75.1453	38.0859	75.0718	38.0859	75.0926	38.0859	75.0127	38.0859	75.0379	38.0859	74.9535	38.0859	74.9826	38.0859	74.8963	38.0859	74.9283	38.0859	74.8431	38.0859	74.8764	38.0859	74.7956	38.0859	74.8285	38.0859	74.7556	38.0859	74.7857	38.0859	74.7245	38.0859	74.7496	38.0859	74.7031	38.0859	74.7212	38.0859	74.6922	38.0859	74.7016	38.0859	74.6917
39.5508	75.9179	39.5508	75.9128	39.5508	75.9151	39.5508	75.8996	39.5508	75.9046	39.5508	75.8787	39.5508	75.8867	39.5508	75.8504	39.5508	75.8622	39.5508	75.8154	39.5508	75.8316	39.5508	75.7745	39.5508	75.7959	39.5508	75.7289	39.5508	75.756	39.5508	75.68	39.5508	75.713	39.5508	75.6293	39.5508	75.6681	39.5508	75.5785	39.5508	75.6223	39.5508	75.5295	39.5508	75.5769	39.5508	75.484	39.5508	75.533	39.5508	75.4437	39.5508	75.4917	39.5508	75.4102	39.5508	75.4541	39.5508	75.3848	39.5508	75.4214	39.5508	75.3684	39.5508	75.3947	39.5508	75.3613	39.5508	75.3751	39.5508	75.3638
41.0156	76.467	41.0156	76.4694	41.0156	76.4585	41.0156	76.4655	41.0156	76.4443	41.0156	76.4553	41.0156	76.4249	41.0156	76.439	41.0156	76.401	41.0156	76.4172	41.0156	76.3734	41.0156	76.3905	41.0156	76.3431	41.0156	76.3598	41.0156	76.3112	41.0156	76.3263	41.0156	76.2788	41.0156	76.2914	41.0156	76.2471	41.0156	76.2564	41.0156	76.2171	41.0156	76.2227	41.0156	76.1898	41.0156	76.1916	41.0156	76.1658	41.0156	76.1642	41.0156	76.1454	41.0156	76.1414	41.0156	76.1289	41.0156	76.1236	41.0156	76.1161	41.0156	76.111	41.0156	76.1071	41.0156	76.1034	41.0156	76.1018	41.0156	76.1004
42.4805	76.926	42.4805	76.9177	42.4805	76.9256	42.4805	76.9009	42.4805	76.9168	42.4805	76.8756	42.4805	76.9001	42.4805	76.8426	42.4805	76.8763	42.4805	76.8027	42.4805	76.8463	42.4805	76.7571	42.4805	76.8112	42.4805	76.7074	42.4805	76.7724	42.4805	76.6555	42.4805	76.7313	42.4805	76.6035	42.4805	76.6892	42.4805	76.5536	42.4805	76.6476	42.4805	76.5079	42.4805	76.6075	42.4805	76.4685	42.4805	76.5696	42.4805	76.4368	42.4805	76.5346	42.4805	76.414	42.4805	76.5027	42.4805	76.4005	42.4805	76.474	42.4805	76.396	42.4805	76.4487	42.4805	76.3997	42.4805	76.4273	42.4805	76.4106
43.9453	77.4811	43.9453	77.4744	43.9453	77.4768	43.9453	77.4567	43.9453	77.4619	43.9453	77.428	43.9453	77.4372	43.9453	77.389	43.9453	77.4038	43.9453	77.3408	43.9453	77.3628	43.9453	77.2847	43.9453	77.3158	43.9453	77.2228	43.9453	77.2643	43.9453	77.1573	43.9453	77.21	43.9453	77.0906	43.9453	77.1547	43.9453	77.0254	43.9453	77.1001	43.9453	76.9646	43.9453	77.0475	43.9453	76.9106	43.9453	76.9981	43.9453	76.8655	43.9453	76.9528	43.9453	76.831	43.9453	76.912	43.9453	76.8079	43.9453	76.8762	43.9453	76.7962	43.9453	76.8457	43.9453	76.7954	43.9453	76.8214	43.9453	76.8042
45.4102	78.1356	45.4102	78.1293	45.4102	78.1296	45.4102	78.1106	45.4102	78.1119	45.4102	78.0798	45.4102	78.0829	45.4102	78.0375	45.4102	78.0435	45.4102	77.9844	45.4102	77.9949	45.4102	77.922	45.4102	77.9385	45.4102	77.852	45.4102	77.8757	45.4102	77.7765	45.4102	77.8084	45.4102	77.6979	45.4102	77.7384	45.4102	77.6192	45.4102	77.6679	45.4102	77.5432	45.4102	77.5987	45.4102	77.4729	45.4102	77.5328	45.4102	77.4112	45.4102	77.4719	45.4102	77.3604	45.4102	77.4175	45.4102	77.3223	45.4102	77.3708	45.4102	77.2978	45.4102	77.3333	45.4102	77.2873	45.4102	77.3061	45.4102	77.2904
46.875	78.6777	46.875	78.6725	46.875	78.6731	46.875	78.6575	46.875	78.659	46.875	78.6329	46.875	78.6357	46.875	78.5991	46.875	78.604	46.875	78.5567	46.875	78.5646	46.875	78.5068	46.875	78.5185	46.875	78.4505	46.875	78.467	46.875	78.3896	46.875	78.4114	46.875	78.326	46.875	78.3533	46.875	78.2617	46.875	78.2943	46.875	78.1991	46.875	78.2361	46.875	78.1406	46.875	78.1803	46.875	78.0883	46.875	78.1285	46.875	78.0444	46.875	78.082	46.875	78.0105	46.875	78.0424	46.875	77.9876	46.875	78.0109	46.875	77.9764	46.875	77.9887	46.875	77.977
48.3398	79.1581	48.3398	79.1512	48.3398	79.1576	48.3398	79.137	48.3398	79.1498	48.3398	79.1153	48.3398	79.1346	48.3398	79.0864	48.3398	79.112	48.3398	79.0503	48.3398	79.0826	48.3398	79.0077	48.3398	79.0466	48.3398	78.9594	48.3398	79.0052	48.3398	78.907	48.3398	78.9592	48.3398	78.8521	48.3398	78.9103	48.3398	78.797	48.3398	78.8598	48.3398	78.7437	48.3398	78.8093	48.3398	78.6946	48.3398	78.7605	48.3398	78.6517	48.3398	78.7148	48.3398	78.6168	48.3398	78.6734	48.3398	78.591	48.3398	78.6376	48.3398	78.5751	48.3398	78.6083	48.3398	78.5693	48.3398	78.5866	48.3398	78.5733
51.2695	80.5218	51.2695	80.5131	51.2695	80.5179	51.2695	80.4919	51.2695	80.5018	51.2695	80.4588	51.2695	80.4743	51.2695	80.4148	51.2695	80.4366	51.2695	80.3613	51.2695	80.3902	51.2695	80.2999	51.2695	80.3369	51.2695	80.2328	51.2695	80.2785	51.2695	80.1624	51.2695	80.2172	51.2695	80.0911	51.2695	80.1548	51.2695	80.0215	51.2695	80.0931	51.2695	79.9563	51.2695	80.0337	51.2695	79.8977	51.2695	79.978	51.2695	79.848	51.2695	79.9269	51.2695	79.8087	51.2695	79.8811	51.2695	79.7809	51.2695	79.8415	51.2695	79.7649	51.2695	79.8087	51.2695	79.7606	51.2695	79.7836	51.2695	79.7672
52.7344	81.0709	52.7344	81.0695	52.7344	81.0583	52.7344	81.054	52.7344	81.0325	52.7344	81.025	52.7344	80.9949	52.7344	80.9839	52.7344	80.9473	52.7344	80.9324	52.7344	80.8922	52.7344	80.8728	52.7344	80.8319	52.7344	80.8078	52.7344	80.7691	52.7344	80.74	52.7344	80.7064	52.7344	80.6721	52.7344	80.6461	52.7344	80.6068	52.7344	80.59	52.7344	80.5465	52.7344	80.5396	52.7344	80.4931	52.7344	80.4956	52.7344	80.4481	52.7344	80.4584	52.7344	80.4127	52.7344	80.4276	52.7344	80.3869	52.7344	80.4029	52.7344	80.3707	52.7344	80.384	52.7344	80.3633	52.7344	80.3708	52.7344	80.3637
54.1992	81.3585	54.1992	81.3573	54.1992	81.3453	54.1992	81.342	54.1992	81.3182	54.1992	81.3134	54.1992	81.2785	54.1992	81.2731	54.1992	81.2281	54.1992	81.2231	54.1992	81.1693	54.1992	81.1659	54.1992	81.105	54.1992	81.1042	54.1992	81.0381	54.1992	81.0409	54.1992	80.9719	54.1992	80.9788	54.1992	80.9093	54.1992	80.9202	54.1992	80.8528	54.1992	80.8674	54.1992	80.8044	54.1992	80.8217	54.1992	80.7651	54.1992	80.7839	54.1992	80.7354	54.1992	80.7539	54.1992	80.7147	54.1992	80.7313	54.1992	80.7018	54.1992	80.7149	54.1992	80.6953	54.1992	80.7037	54.1992	80.6939	54.1992	80.6968
55.6641	81.7384	55.6641	81.7363	55.6641	81.7253	55.6641	81.7191	55.6641	81.6977	55.6641	81.6875	55.6641	81.6563	55.6641	81.6428	55.6641	81.603	55.6641	81.5866	55.6641	81.5395	55.6641	81.5213	55.6641	81.4686	55.6641	81.4494	55.6641	81.3929	55.6641	81.3742	55.6641	81.3157	55.6641	81.2988	55.6641	81.24	55.6641	81.2262	55.6641	81.1689	55.6641	81.1593	55.6641	81.1051	55.6641	81.1002	55.6641	81.0506	55.6641	81.0503	55.6641	81.0065	55.6641	81.0099	55.6641	80.9732	55.6641	80.9788	55.6641	80.9503	55.6641	80.9561	55.6641	80.9367	55.6641	80.941	55.6641	80.9311	55.6641	80.9327
58.5938	82.5335	58.5938	82.5256	58.5938	82.5273	58.5938	82.5036	58.5938	82.5074	58.5938	82.4681	58.5938	82.4744	58.5938	82.4197	58.5938	82.4294	58.5938	82.3597	58.5938	82.3738	58.5938	82.2899	58.5938	82.3093	58.5938	82.2122	58.5938	82.2381	58.5938	82.1294	58.5938	82.1623	58.5938	82.0443	58.5938	82.0845	58.5938	81.9601	58.5938	82.0071	58.5938	81.8801	58.5938	81.9325	58.5938	81.8073	58.5938	81.8627	58.5938	81.7444	58.5938	81.7996	58.5938	81.6934	58.5938	81.7445	58.5938	81.6555	58.5938	81.6985	58.5938	81.6312	58.5938	81.6624	58.5938	81.6205	58.5938	81.6368	58.5938	81.6226
60.0586	83.0334	60.0586	83.0258	60.0586	83.0272	60.0586	83.0047	60.0586	83.0076	60.0586	82.9703	60.0586	82.9753	60.0586	82.9237	60.0586	82.9313	60.0586	82.8661	60.0586	82.877	60.0586	82.7992	60.0586	82.8143	60.0586	82.7251	60.0586	82.7452	60.0586	82.6462	60.0586	82.6719	60.0586	82.5652	60.0586	82.5968	60.0586	82.485	60.0586	82.5222	60.0586	82.4084	60.0586	82.4505	60.0586	82.3384	60.0586	82.3834	60.0586	82.2773	60.0586	82.3228	60.0586	82.2272	60.0586	82.2698	60.0586	82.1894	60.0586	82.2256	60.0586	82.1646	60.0586	82.191	60.0586	82.1529	60.0586	82.1668	60.0586	82.1538
62.9883	83.8709	62.9883	83.8636	62.9883	83.865	62.9883	83.8432	62.9883	83.8462	62.9883	83.8103	62.9883	83.8155	62.9883	83.7661	62.9883	83.7742	62.9883	83.7123	62.9883	83.7241	62.9883	83.6509	62.9883	83.6673	62.9883	83.5845	62.9883	83.6061	62.9883	83.5157	62.9883	83.543	62.9883	83.4476	62.9883	83.4805	62.9883	83.3828	62.9883	83.4209	62.9883	83.3239	62.9883	83.366	62.9883	83.2729	62.9883	83.3173	62.9883	83.2314	62.9883	83.2754	62.9883	83.1998	62.9883	83.2405	62.9883	83.1783	62.9883	83.2124	62.9883	83.166	62.9883	83.1907	62.9883	83.162	62.9883	83.175	62.9883	83.1653
64.4531	84.2403	64.4531	84.2308	64.4531	84.2362	64.4531	84.208	64.4531	84.219	64.4531	84.1726	64.4531	84.1896	64.4531	84.1259	64.4531	84.1491	64.4531	84.0697	64.4531	84.0995	64.4531	84.0063	64.4531	84.043	64.4531	83.9385	64.4531	83.982	64.4531	83.869	64.4531	83.9191	64.4531	83.8012	64.4531	83.8569	64.4531	83.7378	64.4531	83.7978	64.4531	83.6813	64.4531	83.7438	64.4531	83.6338	64.4531	83.6962	64.4531	83.5964	64.4531	83.6556	64.4531	83.5693	64.4531	83.6221	64.4531	83.552	64.4531	83.5952	64.4531	83.5436	64.4531	83.5742	64.4531	83.5426	64.4531	83.5585	64.4531	83.5478
67.3828	84.9779	67.3828	84.9639	67.3828	84.9776	67.3828	84.9356	67.3828	84.9634	67.3828	84.8939	67.3828	84.9362	67.3828	84.8402	67.3828	84.8975	67.3828	84.7765	67.3828	84.8494	67.3828	84.7054	67.3828	84.7941	67.3828	84.63	67.3828	84.7342	67.3828	84.5539	67.3828	84.6725	67.3828	84.4806	67.3828	84.6114	67.3828	84.4136	67.3828	84.5534	67.3828	84.3559	67.3828	84.5	67.3828	84.3097	67.3828	84.4522	67.3828	84.2761	67.3828	84.4105	67.3828	84.2554	67.3828	84.3744	67.3828	84.2465	67.3828	84.3433	67.3828	84.2478	67.3828	84.3161	67.3828	84.2572	67.3828	84.2926	67.3828	84.2727
68.8477	85.3075	68.8477	85.295	68.8477	85.3052	68.8477	85.2678	68.8477	85.2885	68.8477	85.2266	68.8477	85.2585	68.8477	85.1729	68.8477	85.217	68.8477	85.109	68.8477	85.1663	68.8477	85.0375	68.8477	85.1088	68.8477	84.9617	68.8477	85.0475	68.8477	84.8854	68.8477	84.9854	68.8477	84.8122	68.8477	84.9252	68.8477	84.7459	68.8477	84.8693	68.8477	84.6895	68.8477	84.8192	68.8477	84.6452	68.8477	84.7757	68.8477	84.614	68.8477	84.7389	68.8477	84.5959	68.8477	84.7079	68.8477	84.5896	68.8477	84.6814	68.8477	84.5929	68.8477	84.6582	68.8477	84.6034	68.8477	84.6374	68.8477	84.6188
71.7773	85.9215	71.7773	85.9132	71.7773	85.9138	71.7773	85.8889	71.7773	85.8905	71.7773	85.8496	71.7773	85.8531	71.7773	85.7967	71.7773	85.8034	71.7773	85.7325	71.7773	85.7439	71.7773	85.66	71.7773	85.6779	71.7773	85.5826	71.7773	85.6086	71.7773	85.5042	71.7773	85.5395	71.7773	85.4289	71.7773	85.474	71.7773	85.3603	71.7773	85.4149	71.7773	85.3017	71.7773	85.3641	71.7773	85.2553	71.7773	85.3224	71.7773	85.2221	71.7773	85.2898	71.7773	85.2017	71.7773	85.2649	71.7773	85.1925	71.7773	85.2459	71.7773	85.192	71.7773	85.2308	71.7773	85.1976	71.7773	85.218	71.7773	85.2067
74.707	86.5125	74.707	86.5049	74.707	86.5032	74.707	86.4807	74.707	86.4778	74.707	86.4408	74.707	86.4373	74.707	86.3868	74.707	86.3839	74.707	86.321	74.707	86.3201	74.707	86.2464	74.707	86.2491	74.707	86.1665	74.707	86.1744	74.707	86.0852	74.707	86.1	74.707	86.0066	74.707	86.0292	74.707	85.9344	74.707	85.9652	74.707	85.8721	74.707	85.9103	74.707	85.8218	74.707	85.8656	74.707	85.7848	74.707	85.8309	74.707	85.7606	74.707	85.8051	74.707	85.7477	74.707	85.7863	74.707	85.7438	74.707	85.7723	74.707	85.7462	74.707	85.7613	74.707	85.7525
77.6367	87.0139	77.6367	87.0057	77.6367	87.0053	77.6367	86.981	77.6367	86.9805	77.6367	86.9408	77.6367	86.9408	77.6367	86.8868	77.6367	86.8882	77.6367	86.8215	77.6367	86.8254	77.6367	86.7479	77.6367	86.7556	77.6367	86.6697	77.6367	86.6825	77.6367	86.5908	77.6367	86.6101	77.6367	86.5154	77.6367	86.5419	77.6367	86.4471	77.6367	86.4812	77.6367	86.3892	77.6367	86.43	77.6367	86.3438	77.6367	86.3893	77.6367	86.3116	77.6367	86.3589	77.6367	86.292	77.6367	86.3372	77.6367	86.2831	77.6367	86.322	77.6367	86.2822	77.6367	86.3109	77.6367	86.2865	77.6367	86.3017	77.6367	86.2935
79.1016	87.2447	79.1016	87.2357	79.1016	87.2365	79.1016	87.2099	79.1016	87.2117	79.1016	87.1682	79.1016	87.1716	79.1016	87.1125	79.1016	87.1182	79.1016	87.0453	79.1016	87.0544	79.1016	86.9697	79.1016	86.9835	79.1016	86.8897	79.1016	86.9092	79.1016	86.8093	79.1016	86.8357	79.1016	86.7329	79.1016	86.7668	79.1016	86.6644	79.1016	86.7057	79.1016	86.607	79.1016	86.6546	79.1016	86.5629	79.1016	86.6147	79.1016	86.5327	79.1016	86.5854	79.1016	86.5154	79.1016	86.5651	79.1016	86.509	79.1016	86.5512	79.1016	86.5103	79.1016	86.5411	79.1016	86.5163	79.1016	86.5325	79.1016	86.5242
82.0312	87.6785	82.0312	87.6667	82.0312	87.6719	82.0312	87.6366	82.0312	87.6475	82.0312	87.5894	82.0312	87.6068	82.0312	87.5268	82.0312	87.5519	82.0312	87.4515	82.0312	87.4857	82.0312	87.3671	82.0312	87.4118	82.0312	87.2777	82.0312	87.3339	82.0312	87.1878	82.0312	87.2561	82.0312	87.1022	82.0312	87.1824	82.0312	87.0253	82.0312	87.1159	82.0312	86.961	82.0312	87.0591	82.0312	86.9117	82.0312	87.0129	82.0312	86.8783	82.0312	86.9771	82.0312	86.8601	82.0312	86.95	82.0312	86.8547	82.0312	86.9293	82.0312	86.8589	82.0312	86.9123	82.0312	86.8692	82.0312	86.8971	82.0312	86.8825
84.9609	87.9364	84.9609	87.9254	84.9609	87.9293	84.9609	87.8963	84.9609	87.9047	84.9609	87.8502	84.9609	87.8644	84.9609	87.7889	84.9609	87.8106	84.9609	87.7152	84.9609	87.7465	84.9609	87.6325	84.9609	87.6758	84.9609	87.5451	84.9609	87.6024	84.9609	87.4576	84.9609	87.5304	84.9609	87.3748	84.9609	87.4634	84.9609	87.3011	84.9609	87.4043	84.9609	87.2403	84.9609	87.3548	84.9609	87.1948	84.9609	87.3153	84.9609	87.1654	84.9609	87.2849	84.9609	87.1513	84.9609	87.2614	84.9609	87.1502	84.9609	87.2423	84.9609	87.1587	84.9609	87.225	84.9609	87.1732	84.9609	87.2079	84.9609	87.1903
87.8906	88.2239	87.8906	88.2148	87.8906	88.2131	87.8906	88.1861	87.8906	88.1833	87.8906	88.1387	87.8906	88.1363	87.8906	88.075	87.8906	88.0749	87.8906	87.9979	87.8906	88.003	87.8906	87.9115	87.8906	87.9249	87.8906	87.8205	87.8906	87.8455	87.8906	87.7301	87.8906	87.7698	87.8906	87.6458	87.8906	87.7022	87.8906	87.5725	87.8906	87.646	87.8906	87.5143	87.8906	87.603	87.8906	87.4735	87.8906	87.5729	87.8906	87.4506	87.8906	87.554	87.8906	87.4441	87.8906	87.5427	87.8906	87.4504	87.8906	87.5351	87.8906	87.4652	87.8906	87.5273	87.8906	87.4837	87.8906	87.5165	87.8906	87.5017
90.8203	88.4272	90.8203	88.4178	90.8203	88.4154	90.8203	88.3876	90.8203	88.3833	90.8203	88.3376	90.8203	88.3329	90.8203	88.27	90.8203	88.267	90.8203	88.188	90.8203	88.1895	90.8203	88.0958	90.8203	88.1051	90.8203	87.9983	90.8203	88.0191	90.8203	87.9012	90.8203	87.9367	90.8203	87.8103	90.8203	87.8631	90.8203	87.7312	90.8203	87.802	90.8203	87.6683	90.8203	87.7556	90.8203	87.6245	90.8203	87.7238	90.8203	87.6004	90.8203	87.7047	90.8203	87.5941	90.8203	87.6946	90.8203	87.602	90.8203	87.6886	90.8203	87.6188	90.8203	87.6825	90.8203	87.639	90.8203	87.6728	90.8203	87.658
95.2148	88.6407	95.2148	88.633	95.2148	88.625	95.2148	88.6022	95.2148	88.5869	95.2148	88.5496	95.2148	88.5284	95.2148	88.4776	95.2148	88.4527	95.2148	88.3897	95.2148	88.3643	95.2148	88.2902	95.2148	88.2685	95.2148	88.1846	95.2148	88.1714	95.2148	88.079	95.2148	88.0792	95.2148	87.9797	95.2148	87.9977	95.2148	87.8928	95.2148	87.9313	95.2148	87.8233	95.2148	87.8824	95.2148	87.7746	95.2148	87.851	95.2148	87.7474	95.2148	87.8344	95.2148	87.7399	95.2148	87.8282	95.2148	87.7477	95.2148	87.8267	95.2148	87.7652	95.2148	87.8246	95.2148	87.7859	95.2148	87.8178	95.2148	87.8046
98.1445	88.7621	98.1445	88.7607	98.1445	88.7387	98.1445	88.7348	98.1445	88.6917	98.1445	88.6855	98.1445	88.6233	98.1445	88.6152	98.1445	88.5371	98.1445	88.5271	98.1445	88.438	98.1445	88.4259	98.1445	88.3319	98.1445	88.3168	98.1445	88.2255	98.1445	88.2062	98.1445	88.1258	98.1445	88.1005	98.1445	88.039	98.1445	88.0065	98.1445	87.97	98.1445	87.9296	98.1445	87.9213	98.1445	87.8737	98.1445	87.8926	98.1445	87.84	98.1445	87.8806	98.1445	87.827	98.1445	87.88	98.1445	87.8304	98.1445	87.8844	98.1445	87.8441	98.1445	87.8878	98.1445	87.8615	98.1445	87.8859	98.1445	87.8767
101.074	88.7882	101.074	88.7976	101.074	88.7518	101.074	88.78	101.074	88.6893	101.074	88.7367	101.074	88.6031	101.074	88.67	101.074	88.497	101.074	88.5832	101.074	88.3762	101.074	88.4804	101.074	88.2474	101.074	88.3669	101.074	88.1184	101.074	88.2488	101.074	87.9974	101.074	88.1328	101.074	87.8923	101.074	88.0257	101.074	87.8094	101.074	87.9336	101.074	87.7522	101.074	87.8611	101.074	87.7208	101.074	87.8102	101.074	87.7118	101.074	87.7802	101.074	87.7188	101.074	87.7671	101.074	87.7341	101.074	87.7651	101.074	87.7505	101.074	87.7674	101.074	87.7626	101.074	87.7679
105.469	88.934	105.469	88.9438	105.469	88.8966	105.469	88.927	105.469	88.8319	105.469	88.8855	105.469	88.7414	105.469	88.8223	105.469	88.6281	105.469	88.7409	105.469	88.4967	105.469	88.6456	105.469	88.3535	105.469	88.5412	105.469	88.2063	105.469	88.4327	105.469	88.0642	105.469	88.3253	105.469	87.9361	105.469	88.2237	105.469	87.8303	105.469	88.1322	105.469	87.7526	105.469	88.0536	105.469	87.7053	105.469	87.9892	105.469	87.6869	105.469	87.9385	105.469	87.6923	105.469	87.8992	105.469	87.7142	105.469	87.8673	105.469	87.7449	105.469	87.8386	105.469	87.7779	105.469	87.8094
108.398	88.9969	108.398	88.9978	108.398	88.9674	108.398	88.9713	108.398	88.9095	108.398	88.9196	108.398	88.8247	108.398	88.8461	108.398	88.716	108.398	88.7552	108.398	88.5881	108.398	88.6519	108.398	88.4472	108.398	88.5421	108.398	88.3012	108.398	88.4319	108.398	88.159	108.398	88.3271	108.398	88.0301	108.398	88.2329	108.398	87.9231	108.398	88.1533	108.398	87.8443	108.398	88.09	108.398	87.7969	108.398	88.0428	108.398	87.7796	108.398	88.0091	108.398	87.7876	108.398	87.9846	108.398	87.8131	108.398	87.964	108.398	87.8477	108.398	87.9424	108.398	87.8837	108.398	87.9159
112.793	88.9737	112.793	88.9736	112.793	88.9446	112.793	88.9455	112.793	88.8868	112.793	88.8915	112.793	88.8019	112.793	88.8151	112.793	88.6933	112.793	88.7209	112.793	88.5659	112.793	88.6143	112.793	88.4261	112.793	88.5016	112.793	88.2818	112.793	88.3892	112.793	88.1422	112.793	88.2836	112.793	88.0164	112.793	88.1905	112.793	87.9129	112.793	88.1139	112.793	87.838	112.793	88.0557	112.793	87.7944	112.793	88.0151	112.793	87.7807	112.793	87.9891	112.793	87.7917	112.793	87.9723	112.793	87.8193	112.793	87.9588	112.793	87.8549	112.793	87.9428	112.793	87.8903	112.793	87.9204
117.188	88.946	117.188	88.9483	117.188	88.9125	117.188	88.9206	117.188	88.848	117.188	88.8651	117.188	88.7541	117.188	88.7853	117.188	88.6337	117.188	88.6857	117.188	88.4918	117.188	88.5718	117.188	88.3348	117.188	88.45	117.188	88.1715	117.188	88.3271	117.188	88.0119	117.188	88.2101	117.188	87.8669	117.188	88.1055	117.188	87.7469	117.188	88.018	117.188	87.6599	117.188	87.9502	117.188	87.6099	117.188	87.9019	117.188	87.5957	117.188	87.8696	117.188	87.6115	117.188	87.8477	117.188	87.6475	117.188	87.8291	117.188	87.6931	117.188	87.8073	117.188	87.7387	117.188	87.7776
120.117	88.9989	120.117	88.9911	120.117	88.9767	120.117	88.955	120.117	88.924	120.117	88.8935	120.117	88.8413	120.117	88.8104	120.117	88.7309	120.117	88.7104	120.117	88.5967	120.117	88.5992	120.117	88.4443	120.117	88.4829	120.117	88.2816	120.117	88.368	120.117	88.1181	120.117	88.2605	120.117	87.9647	120.117	88.1656	120.117	87.8325	120.117	88.0868	120.117	87.7309	120.117	88.0254	120.117	87.666	120.117	87.98	120.117	87.6388	120.117	87.9467	120.117	87.6453	120.117	87.92	120.117	87.6771	120.117	87.8935	120.117	87.7236	120.117	87.862	120.117	87.7747	120.117	87.8222
124.512	88.8971	124.512	88.8777	124.512	88.8856	124.512	88.8292	124.512	88.8427	124.512	88.7546	124.512	88.7693	124.512	88.6581	124.512	88.6679	124.512	88.5453	124.512	88.5424	124.512	88.4228	124.512	88.3988	124.512	88.2981	124.512	88.2448	124.512	88.179	124.512	88.0898	124.512	88.0728	124.512	87.9443	124.512	87.9853	124.512	87.8189	124.512	87.92	124.512	87.7223	124.512	87.877	124.512	87.6603	124.512	87.8532	124.512	87.6337	124.512	87.8426	124.512	87.6386	124.512	87.8376	124.512	87.6667	124.512	87.8305	124.512	87.7077	124.512	87.8152	124.512	87.751	124.512	87.7885
128.906	88.8013	128.906	88.7734	128.906	88.7951	128.906	88.7132	128.906	88.7547	128.906	88.6238	128.906	88.6812	128.906	88.51	128.906	88.5775	128.906	88.3782	128.906	88.448	128.906	88.236	128.906	88.2991	128.906	88.0925	128.906	88.1389	128.906	87.9571	128.906	87.9773	128.906	87.8389	128.906	87.8252	128.906	87.745	128.906	87.6933	128.906	87.6796	128.906	87.591	128.906	87.6425	128.906	87.524	128.906	87.6294	128.906	87.4934	128.906	87.6325	128.906	87.495	128.906	87.6422	128.906	87.5202	128.906	87.6488	128.906	87.5579	128.906	87.6452	128.906	87.5967	128.906	87.6276
133.301	88.6981	133.301	88.6674	133.301	88.6932	133.301	88.6022	133.301	88.6528	133.301	88.5053	133.301	88.5788	133.301	88.3814	133.301	88.4744	133.301	88.2366	133.301	88.3447	133.301	88.0793	133.301	88.1961	133.301	87.9192	133.301	88.0371	133.301	87.767	133.301	87.8773	133.301	87.6336	133.301	87.7272	133.301	87.5281	133.301	87.5973	133.301	87.4562	133.301	87.496	133.301	87.4188	133.301	87.4287	133.301	87.4116	133.301	87.3959	133.301	87.4259	133.301	87.393	133.301	87.4502	133.301	87.4113	133.301	87.4733	133.301	87.4397	133.301	87.4863	133.301	87.467	133.301	87.4841
139.16	88.4682	139.16	88.4383	139.16	88.4606	139.16	88.3719	139.16	88.4162	139.16	88.2718	139.16	88.3372	139.16	88.1427	139.16	88.2276	139.16	87.9914	139.16	88.0929	139.16	87.8267	139.16	87.9406	139.16	87.6591	139.16	87.7794	139.16	87.5004	139.16	87.6198	139.16	87.3624	139.16	87.4727	139.16	87.2551	139.16	87.3484	139.16	87.185	139.16	87.2553	139.16	87.153	139.16	87.1977	139.16	87.1545	139.16	87.1749	139.16	87.1796	139.16	87.181	139.16	87.2157	139.16	87.206	139.16	87.2502	139.16	87.2378	139.16	87.273	139.16	87.2647	139.16	87.278
143.555	88.2707	143.555	88.2354	143.555	88.2688	143.555	88.1643	143.555	88.2304	143.555	88.0602	143.555	88.1573	143.555	87.9275	143.555	88.0532	143.555	87.773	143.555	87.9235	143.555	87.6052	143.555	87.7753	143.555	87.4352	143.555	87.6177	143.555	87.2752	143.555	87.4614	143.555	87.1381	143.555	87.3178	143.555	87.035	143.555	87.1978	143.555	86.973	143.555	87.1099	143.555	86.9532	143.555	87.0585	143.555	86.9698	143.555	87.0424	143.555	87.0113	143.555	87.0549	143.555	87.0634	143.555	87.085	143.555	87.1117	143.555	87.1199	143.555	87.1451	143.555	87.1471	143.555	87.1572
147.949	88.3219	147.949	88.2839	147.949	88.3184	147.949	88.2051	147.949	88.2738	147.949	88.0876	147.949	88.1903	147.949	87.9354	147.949	88.0712	147.949	87.7548	147.949	87.9219	147.949	87.5547	147.949	87.75	147.949	87.3473	147.949	87.5657	147.949	87.1473	147.949	87.3809	147.949	86.9707	147.949	87.2091	147.949	86.8324	147.949	87.0633	147.949	86.7426	147.949	86.9537	147.949	86.7045	147.949	86.8857	147.949	86.7127	147.949	86.8579	147.949	86.7546	147.949	86.8625	147.949	86.8132	147.949	86.8868	147.949	86.8715	147.949	86.9162	147.949	86.9159	147.949	86.9367	147.949	86.9382
153.809	88.1634	153.809	88.1158	153.809	88.1639	153.809	88.0215	153.809	88.1188	153.809	87.8827	153.809	88.0309	153.809	87.704	153.809	87.9047	153.809	87.493	153.809	87.7463	153.809	87.2607	153.809	87.5634	153.809	87.0217	153.809	87.3657	153.809	86.7937	153.809	87.1647	153.809	86.5958	153.809	86.9737	153.809	86.4454	153.809	86.8059	153.809	86.354	153.809	86.6734	153.809	86.3234	153.809	86.584	153.809	86.3453	153.809	86.5391	153.809	86.4028	153.809	86.533	153.809	86.4754	153.809	86.5533	153.809	86.5433	153.809	86.5838	153.809	86.5918	153.809	86.6083	153.809	86.6134
159.668	88.2871	159.668	88.2638	159.668	88.2641	159.668	88.192	159.668	88.1984	159.668	88.071	159.668	88.095	159.668	87.902	159.668	87.9603	159.668	87.6883	159.668	87.8023	159.668	87.4368	159.668	87.6305	159.668	87.1585	159.668	87.4551	159.668	86.87	159.668	87.2867	159.668	86.5931	159.668	87.1351	159.668	86.3536	159.668	87.008	159.668	86.1761	159.668	86.9096	159.668	86.078	159.668	86.8398	159.668	86.0628	159.668	86.7941	159.668	86.1188	159.668	86.7638	159.668	86.2229	159.668	86.7379	159.668	86.3481	159.668	86.7041	159.668	86.4706	159.668	86.6519	159.668	86.5743
165.527	88.1471	165.527	88.1365	165.527	88.1114	165.527	88.0803	165.527	88.0302	165.527	87.9809	165.527	87.9063	165.527	87.8421	165.527	87.7447	165.527	87.6693	165.527	87.5533	165.527	87.4703	165.527	87.343	165.527	87.255	165.527	87.1277	165.527	87.0365	165.527	86.9238	165.527	86.8303	165.527	86.7481	165.527	86.6534	165.527	86.6154	165.527	86.5214	165.527	86.5347	165.527	86.4448	165.527	86.5068	165.527	86.4253	165.527	86.5235	165.527	86.4545	165.527	86.5694	165.527	86.5156	165.527	86.6254	165.527	86.5877	165.527	86.6729	165.527	86.6509	165.527	86.6971	165.527	86.6899
171.387	87.8729	171.387	87.8422	171.387	87.8548	171.387	87.7631	171.387	87.7892	171.387	87.6379	171.387	87.6795	171.387	87.4713	171.387	87.5307	171.387	87.27	171.387	87.3499	171.387	87.0441	171.387	87.1467	171.387	86.8065	171.387	86.933	171.387	86.5738	171.387	86.7228	171.387	86.3647	171.387	86.5318	171.387	86.1981	171.387	86.3753	171.387	86.0893	171.387	86.2655	171.387	86.0451	171.387	86.2086	171.387	86.0611	171.387	86.2019	171.387	86.1223	171.387	86.2341	171.387	86.2064	171.387	86.2874	171.387	86.2899	171.387	86.3417	171.387	86.3532	171.387	86.3782	171.387	86.3839
177.246	87.6135	177.246	87.5752	177.246	87.5997	177.246	87.484	177.246	87.5365	177.246	87.3411	177.246	87.4287	177.246	87.1501	177.246	87.2829	177.246	86.9178	177.246	87.1079	177.246	86.655	177.246	86.9146	177.246	86.3776	177.246	86.716	177.246	86.1072	177.246	86.5265	177.246	85.8696	177.246	86.3607	177.246	85.6913	177.246	86.2314	177.246	85.5926	177.246	86.1472	177.246	85.581	177.246	86.1105	177.246	85.647	177.246	86.1157	177.246	85.7672	177.246	86.1503	177.246	85.9109	177.246	86.1968	177.246	86.0486	177.246	86.2359	177.246	86.158	177.246	86.2501	177.246	86.2261
183.105	87.5465	183.105	87.5302	183.105	87.507	183.105	87.4557	183.105	87.4161	183.105	87.3219	183.105	87.2798	183.105	87.1295	183.105	87.1065	183.105	86.8821	183.105	86.9068	183.105	86.5871	183.105	86.694	183.105	86.258	183.105	86.4833	183.105	85.9164	183.105	86.2908	183.105	85.593	183.105	86.1311	183.105	85.3255	183.105	86.0155	183.105	85.1503	183.105	85.9486	183.105	85.0901	183.105	85.9279	183.105	85.1436	183.105	85.9432	183.105	85.2846	183.105	85.9787	183.105	85.4724	183.105	86.0153	183.105	85.6652	183.105	86.0333	183.105	85.8306	183.105	86.0155	183.105	85.9494
188.965	87.6285	188.965	87.6472	188.965	87.5506	188.965	87.6041	188.965	87.417	188.965	87.4979	188.965	87.2334	188.965	87.328	188.965	87.0083	188.965	87.0951	188.965	86.7533	188.965	86.8024	188.965	86.4839	188.965	86.4574	188.965	86.2195	188.965	86.0751	188.965	85.9811	188.965	85.681	188.965	85.7889	188.965	85.3129	188.965	85.6572	188.965	85.0167	188.965	85.591	188.965	84.8352	188.965	85.5835	188.965	84.7902	188.965	85.6173	188.965	84.8714	188.965	85.6687	188.965	85.0396	188.965	85.7121	188.965	85.2439	188.965	85.724	188.965	85.4383	188.965	85.6869	188.965	85.5912
196.289	87.5273	196.289	87.592	196.289	87.4073	196.289	87.6011	196.289	87.2334	196.289	87.5546	196.289	87.0094	196.289	87.4519	196.289	86.7434	196.289	87.292	196.289	86.449	196.289	87.0741	196.289	86.146	196.289	86.7992	196.289	85.8602	196.289	86.4729	196.289	85.6196	196.289	86.1088	196.289	85.4482	196.289	85.7322	196.289	85.3587	196.289	85.3809	196.289	85.3479	196.289	85.1003	196.289	85.3966	196.289	84.9303	196.289	85.4761	196.289	84.8882	196.289	85.5549	196.289	84.9603	196.289	85.6056	196.289	85.1071	196.289	85.6082	196.289	85.2806	196.289	85.5523	196.289	85.4385
203.613	87.2091	203.613	87.2569	203.613	87.1006	203.613	87.2492	203.613	86.9273	203.613	87.1917	203.613	86.6873	203.613	87.0896	203.613	86.382	203.613	86.9482	203.613	86.0181	203.613	86.772	203.613	85.6102	203.613	86.5658	203.613	85.1841	203.613	86.3355	203.613	84.7784	203.613	86.0899	203.613	84.4419	203.613	85.8417	203.613	84.2225	203.613	85.6083	203.613	84.149	203.613	85.4097	203.613	84.2167	203.613	85.2638	203.613	84.3877	203.613	85.1795	203.613	84.6075	203.613	85.1516	203.613	84.824	203.613	85.1604	203.613	84.9996	203.613	85.1766	203.613	85.1154	203.613	85.1699
210.938	87.1235	210.938	87.1309	210.938	87.0551	210.938	87.0813	210.938	86.9232	210.938	86.9792	210.938	86.7267	210.938	86.8297	210.938	86.4674	210.938	86.6385	210.938	86.1511	210.938	86.4121	210.938	85.7894	210.938	86.1584	210.938	85.4016	210.938	85.8874	210.938	85.0161	210.938	85.613	210.938	84.6696	210.938	85.3531	210.938	84.4016	210.938	85.1289	210.938	84.2438	210.938	84.9603	210.938	84.2078	210.938	84.8603	210.938	84.2792	210.938	84.8278	210.938	84.4218	210.938	84.8462	210.938	84.5909	210.938	84.8873	210.938	84.7458	210.938	84.9193	210.938	84.8582	210.938	84.9152
218.262	86.8302	218.262	86.8393	218.262	86.7528	218.262	86.7859	218.262	86.6036	218.262	86.6779	218.262	86.3822	218.262	86.5245	218.262	86.0929	218.262	86.3358	218.262	85.7465	218.262	86.1228	218.262	85.3622	218.262	85.8969	218.262	84.97	218.262	85.6701	218.262	84.6101	218.262	85.4552	218.262	84.3272	218.262	85.2654	218.262	84.1589	218.262	85.1137	218.262	84.1211	218.262	85.0105	218.262	84.2009	218.262	84.9598	218.262	84.3618	218.262	84.9569	218.262	84.5582	218.262	84.9875	218.262	84.749	218.262	85.0302	218.262	84.9048	218.262	85.0612	218.262	85.0095	218.262	85.0594
225.586	87.2417	225.586	87.2215	225.586	87.1783	225.586	87.1254	225.586	87.0246	225.586	86.962	225.586	86.776	225.586	86.7408	225.586	86.431	225.586	86.4736	225.586	85.995	225.586	86.1745	225.586	85.4848	225.586	85.8617	225.586	84.9359	225.586	85.5579	225.586	84.4097	225.586	85.2901	225.586	83.992	225.586	85.0862	225.586	83.7707	225.586	84.9692	225.586	83.7919	225.586	84.9499	225.586	84.0291	225.586	85.0216	225.586	84.3975	225.586	85.1601	225.586	84.7995	225.586	85.3296	225.586	85.159	225.586	85.4907	225.586	85.4302	225.586	85.6071	225.586	85.5938	225.586	85.6488
232.91	87.4483	232.91	87.4196	232.91	87.3987	232.91	87.322	232.91	87.2602	232.91	87.1644	232.91	87.0218	232.91	86.9548	232.91	86.6724	232.91	86.7013	232.91	86.2026	232.91	86.4128	232.91	85.6084	232.91	86.1002	232.91	84.8993	232.91	85.7778	232.91	84.1125	232.91	85.4657	232.91	83.334	232.91	85.1891	232.91	82.7111	232.91	84.9757	232.91	82.4131	232.91	84.8488	232.91	82.5219	232.91	84.8172	232.91	82.9562	232.91	84.868	232.91	83.5385	232.91	84.9669	232.91	84.1099	232.91	85.0661	232.91	84.5757	232.91	85.1156	232.91	84.897	232.91	85.0706
241.699	87.0896	241.699	86.9305	241.699	87.1739	241.699	86.7049	241.699	87.1758	241.699	86.4228	241.699	87.0869	241.699	86.0985	241.699	86.8971	241.699	85.7518	241.699	86.5944	241.699	85.4085	241.699	86.1661	241.699	85.0983	241.699	85.602	241.699	84.85	241.699	84.901	241.699	84.6838	241.699	84.0856	241.699	84.6055	241.699	83.2249	241.699	84.6048	241.699	82.4591	241.699	84.6587	241.699	81.9849	241.699	84.7372	241.699	81.9471	241.699	84.8087	241.699	82.3099	241.699	84.8419	241.699	82.89	241.699	84.8064	241.699	83.4999	241.699	84.6734	241.699	84.0249	241.699	84.418
250.488	87.672	250.488	87.5048	250.488	87.7582	250.488	87.2489	250.488	87.7691	250.488	86.8953	250.488	87.7075	250.488	86.4366	250.488	87.5722	250.488	85.8693	250.488	87.3581	250.488	85.2001	250.488	87.0566	250.488	84.4541	250.488	86.6569	250.488	83.6872	250.488	86.1493	250.488	82.995	250.488	85.5305	250.488	82.5001	250.488	84.8129	250.488	82.2974	250.488	84.0389	250.488	82.3874	250.488	83.2958	250.488	82.6701	250.488	82.7129	250.488	83.0089	250.488	82.4135	250.488	83.2913	250.488	82.4305	250.488	83.4472	250.488	82.6756	250.488	83.445	250.488	83.0027	250.488	83.2853
259.277	87.111	259.277	87.0451	259.277	87.1077	259.277	86.9052	259.277	87.0393	259.277	86.6861	259.277	86.9092	259.277	86.3831	259.277	86.72	259.277	85.9935	259.277	86.4732	259.277	85.5196	259.277	86.1704	259.277	84.9728	259.277	85.8149	259.277	84.3811	259.277	85.4139	259.277	83.7965	259.277	84.983	259.277	83.2966	259.277	84.5504	259.277	82.9681	259.277	84.1577	259.277	82.8671	259.277	83.8538	259.277	82.9814	259.277	83.6783	259.277	83.2348	259.277	83.6411	259.277	83.5283	259.277	83.7129	259.277	83.7803	259.277	83.8365	259.277	83.9413	259.277	83.9479	259.277	83.9939
268.066	86.9627	268.066	86.8691	268.066	86.981	268.066	86.6925	268.066	86.93	268.066	86.4237	268.066	86.8135	268.066	86.0526	268.066	86.6327	268.066	85.5699	268.066	86.3865	268.066	84.9702	268.066	86.0714	268.066	84.2586	268.066	85.6838	268.066	83.4637	268.066	85.2241	268.066	82.6567	268.066	84.7028	268.066	81.968	268.066	84.1494	268.066	81.5631	268.066	83.6197	268.066	81.5463	268.066	83.1922	268.066	81.8678	268.066	82.943	268.066	82.3606	268.066	82.9031	268.066	82.855	268.066	83.033	268.066	83.2407	268.066	83.2422	268.066	83.4665	268.066	83.4318	268.066	83.523
276.855	86.9165	276.855	86.9274	276.855	86.8432	276.855	86.8639	276.855	86.7182	276.855	86.7116	276.855	86.5496	276.855	86.4541	276.855	86.343	276.855	86.0726	276.855	86.1008	276.855	85.5465	276.855	85.8219	276.855	84.8551	276.855	85.5036	276.855	83.9847	276.855	85.1435	276.855	82.9445	276.855	84.744	276.855	81.8021	276.855	84.3163	276.855	80.7409	276.855	83.8846	276.855	80.0696	276.855	83.4864	276.855	80.0288	276.855	83.1653	276.855	80.5213	276.855	82.9533	276.855	81.2223	276.855	82.8492	276.855	81.8696	276.855	82.8105	276.855	82.3456	276.855	82.7646	276.855	82.6319
287.109	86.7679	287.109	86.8517	287.109	86.6226	287.109	86.8733	287.109	86.4172	287.109	86.8302	287.109	86.1549	287.109	86.7166	287.109	85.8419	287.109	86.5219	287.109	85.4885	287.109	86.2305	287.109	85.1092	287.109	85.8234	287.109	84.7233	287.109	85.2823	287.109	84.3541	287.109	84.5998	287.109	84.0283	287.109	83.7948	287.109	83.7724	287.109	82.9383	287.109	83.6062	287.109	82.1748	287.109	83.5346	287.109	81.6978	287.109	83.5416	287.109	81.6331	287.109	83.5906	287.109	81.9266	287.109	83.6325	287.109	82.3972	287.109	83.6163	287.109	82.8726	287.109	83.499	287.109	83.2522
297.363	86.97	297.363	87.0619	297.363	86.8147	297.363	87.0989	297.363	86.5841	297.363	87.0847	297.363	86.2654	297.363	87.0153	297.363	85.8463	297.363	86.8784	297.363	85.3175	297.363	86.6533	297.363	84.6763	297.363	86.3136	297.363	83.9344	297.363	85.8329	297.363	83.1299	297.363	85.1926	297.363	82.3446	297.363	84.3958	297.363	81.7111	297.363	83.4904	297.363	81.3759	297.363	82.5979	297.363	81.4061	297.363	81.9182	297.363	81.7261	297.363	81.6385	297.363	82.1717	297.363	81.7753	297.363	82.5873	297.363	82.155	297.363	82.8699	297.363	82.5642	297.363	82.9656	297.363	82.8575
307.617	86.4393	307.617	86.3715	307.617	86.4476	307.617	86.2529	307.617	86.3883	307.617	86.0931	307.617	86.2539	307.617	85.9002	307.617	86.0366	307.617	85.6776	307.617	85.7278	307.617	85.4209	307.617	85.3194	307.617	85.117	307.617	84.8059	307.617	84.7474	307.617	84.1904	307.617	84.2971	307.617	83.4953	307.617	83.7673	307.617	82.7772	307.617	83.1928	307.617	82.1377	307.617	82.653	307.617	81.7068	307.617	82.2595	307.617	81.5755	307.617	82.0988	307.617	81.7232	307.617	82.1649	307.617	82.0268	307.617	82.3562	307.617	82.3407	307.617	82.5429	307.617	82.5581	307.617	82.6262
319.336	86.1062	319.336	86.0299	319.336	86.1251	319.336	85.9006	319.336	86.0814	319.336	85.7229	319.336	85.9685	319.336	85.4997	319.336	85.7764	319.336	85.2318	319.336	85.4903	319.336	84.9161	319.336	85.0897	319.336	84.5461	319.336	84.5504	319.336	84.1155	319.336	83.8504	319.336	83.6249	319.336	82.984	319.336	83.0935	319.336	81.992	319.336	82.5703	319.336	81.0102	319.336	82.1373	319.336	80.2985	319.336	81.8834	319.336	80.1203	319.336	81.8514	319.336	80.48	319.336	81.9969	319.336	81.1074	319.336	82.2088	319.336	81.7185	319.336	82.3639	319.336	82.1548	319.336	82.3653
329.59	85.6179	329.59	85.571	329.59	85.6158	329.59	85.4741	329.59	85.5688	329.59	85.3286	329.59	85.4818	329.59	85.1366	329.59	85.3575	329.59	84.8975	329.59	85.1916	329.59	84.6049	329.59	84.9715	329.59	84.2468	329.59	84.6764	329.59	83.8097	329.59	84.282	329.59	83.289	329.59	83.7701	329.59	82.7045	329.59	83.1423	329.59	82.1176	329.59	82.4405	329.59	81.6356	329.59	81.7675	329.59	81.3743	329.59	81.2796	329.59	81.3787	329.59	81.1077	329.59	81.5771	329.59	81.2467	329.59	81.8276	329.59	81.5513	329.59	81.9986	329.59	81.8461	329.59	82.0109
341.309	85.632	341.309	85.5833	341.309	85.5926	341.309	85.4475	341.309	85.4675	341.309	85.229	341.309	85.2624	341.309	84.9335	341.309	84.9844	341.309	84.5658	341.309	84.6398	341.309	84.1266	341.309	84.2318	341.309	83.612	341.309	83.7599	341.309	83.0177	341.309	83.223	341.309	82.3528	341.309	82.6297	341.309	81.6647	341.309	82.0158	341.309	81.0651	341.309	81.4636	341.309	80.7205	341.309	81.0999	341.309	80.7538	341.309	81.037	341.309	81.1244	341.309	81.2791	341.309	81.6506	341.309	81.703	341.309	82.1408	341.309	82.1409	341.309	82.4696	341.309	82.4589	341.309	82.5788
353.027	85.4987	353.027	85.4999	353.027	85.4421	353.027	85.4451	353.027	85.3301	353.027	85.3322	353.027	85.1626	353.027	85.1543	353.027	84.9375	353.027	84.8967	353.027	84.6493	353.027	84.5344	353.027	84.287	353.027	84.032	353.027	83.8342	353.027	83.3466	353.027	83.2725	353.027	82.4385	353.027	82.5898	353.027	81.2954	353.027	81.7983	353.027	79.9942	353.027	80.9635	353.027	78.8147	353.027	80.2348	353.027	78.2549	353.027	79.8214	353.027	78.5761	353.027	79.8487	353.027	79.4162	353.027	80.2188	353.027	80.2673	353.027	80.6869	353.027	80.8591	353.027	81.0301	353.027	81.1102
366.211	86.001	366.211	86.0346	366.211	85.8963	366.211	86.0042	366.211	85.7143	366.211	85.9159	366.211	85.4498	366.211	85.7709	366.211	85.0975	366.211	85.5609	366.211	84.6508	366.211	85.2626	366.211	84.1003	366.211	84.8363	366.211	83.4335	366.211	84.2251	366.211	82.6378	366.211	83.3592	366.211	81.7104	366.211	82.1653	366.211	80.6825	366.211	80.5931	366.211	79.6633	366.211	78.7101	366.211	78.8749	366.211	76.9648	366.211	78.5707	366.211	76.3285	366.211	78.7944	366.211	77.0911	366.211	79.3017	366.211	78.3198	366.211	79.7798	366.211	79.3142	366.211	80.0125	366.211	79.8786
379.395	84.6027	379.395	84.4796	379.395	84.6916	379.395	84.345	379.395	84.7329	379.395	84.2288	379.395	84.7179	379.395	84.1587	379.395	84.6372	379.395	84.1434	379.395	84.4752	379.395	84.1585	379.395	84.2076	379.395	84.1473	379.395	83.8003	379.395	84.0351	379.395	83.2117	379.395	83.747	379.395	82.3975	379.395	83.222	379.395	81.3245	379.395	82.4251	379.395	80.008	379.395	81.3713	379.395	78.5996	379.395	80.1744	379.395	77.5019	379.395	79.1046	379.395	77.1969	379.395	78.5101	379.395	77.643	379.395	78.4869	379.395	78.3098	379.395	78.7428	379.395	78.7816	379.395	78.9117
392.578	83.7437	392.578	83.6558	392.578	83.7452	392.578	83.4807	392.578	83.6737	392.578	83.2326	392.578	83.551	392.578	82.9412	392.578	83.4	392.578	82.645	392.578	83.2345	392.578	82.3758	392.578	83.0495	392.578	82.1387	392.578	82.8172	392.578	81.9012	392.578	82.4901	392.578	81.6032	392.578	82.0111	392.578	81.1832	392.578	81.3283	392.578	80.6135	392.578	80.4211	392.578	79.9361	392.578	79.3512	392.578	79.2888	392.578	78.3382	392.578	78.8686	392.578	77.7515	392.578	78.7848	392.578	77.806	392.578	78.9364	392.578	78.2799	392.578	79.0964	392.578	78.7821	392.578	79.0727
405.762	84.4564	405.762	84.4539	405.762	84.354	405.762	84.3542	405.762	84.1516	405.762	84.1737	405.762	83.8686	405.762	83.9325	405.762	83.5374	405.762	83.6462	405.762	83.1954	405.762	83.3158	405.762	82.869	405.762	82.9202	405.762	82.5573	405.762	82.4154	405.762	82.2249	405.762	81.7437	405.762	81.8125	405.762	80.8551	405.762	81.2622	405.762	79.7504	405.762	80.5555	405.762	78.57	405.762	79.7629	405.762	77.6933	405.762	79.084	405.762	77.5639	405.762	78.7813	405.762	78.1408	405.762	78.9412	405.762	78.933	405.762	79.3532	405.762	79.542	405.762	79.7118	405.762	79.8057
420.41	86.875	420.41	86.7724	420.41	86.8775	420.41	86.5855	420.41	86.7909	420.41	86.3597	420.41	86.6466	420.41	86.1642	420.41	86.4863	420.41	86.0649	420.41	86.3445	420.41	86.0819	420.41	86.2278	420.41	86.1621	420.41	86.1024	420.41	86.196	420.41	85.8983	420.41	86.0581	420.41	85.5265	420.41	85.6397	420.41	84.8992	420.41	84.8693	420.41	83.9558	420.41	83.7407	420.41	82.7133	420.41	82.3859	420.41	81.3783	420.41	81.1915	420.41	80.4511	420.41	80.6884	420.41	80.381	420.41	80.9353	420.41	80.9177	420.41	81.41	420.41	81.4574	420.41	81.6437
435.059	89.1296	435.059	89.0785	435.059	88.9921	435.059	88.8521	435.059	88.6684	435.059	88.4839	435.059	88.1814	435.059	88.0361	435.059	87.5861	435.059	87.6003	435.059	86.9785	435.059	87.2694	435.059	86.4814	435.059	87.0794	435.059	86.1861	435.059	86.9699	435.059	86.0818	435.059	86.8104	435.059	86.0531	435.059	86.4643	435.059	85.9526	435.059	85.8452	435.059	85.6792	435.059	84.9671	435.059	85.2271	435.059	84.0183	435.059	84.7151	435.059	83.3939	435.059	84.3641	435.059	83.4178	435.059	84.3403	435.059	83.9286	435.059	84.5699	435.059	84.4884	435.059	84.7995	435.059	84.8035
451.172	90.1164	451.172	89.9439	451.172	90.1235	451.172	89.6009	451.172	89.9737	451.172	89.092	451.172	89.676	451.172	88.4455	451.172	89.2409	451.172	87.7278	451.172	88.6806	451.172	87.0446	451.172	88.0063	451.172	86.5027	451.172	87.2213	451.172	86.1316	451.172	86.3123	451.172	85.839	451.172	85.244	451.172	85.4568	451.172	83.9661	451.172	84.8258	451.172	82.4529	451.172	83.8641	451.172	80.8309	451.172	82.6538	451.172	79.6299	451.172	81.5822	451.172	79.6137	451.172	81.2477	451.172	80.6285	451.172	81.7195	451.172	81.7846	451.172	82.3889	451.172	82.54	451.172	82.7334
465.82	89.1933	465.82	89.144	465.82	89.1103	465.82	88.9457	465.82	88.9188	465.82	88.5898	465.82	88.6499	465.82	88.0804	465.82	88.3401	465.82	87.4402	465.82	88.022	465.82	86.7148	465.82	87.708	465.82	85.9653	465.82	87.3746	465.82	85.2456	465.82	86.956	465.82	84.5729	465.82	86.3515	465.82	83.9166	465.82	85.4405	465.82	83.233	465.82	84.1036	465.82	82.5363	465.82	82.2766	465.82	81.9666	465.82	80.1649	465.82	81.7471	465.82	78.7731	465.82	81.9526	465.82	79.243	465.82	82.363	465.82	80.6805	465.82	82.6427	465.82	81.8891	465.82	82.5346
483.398	88.4291	483.398	88.3999	483.398	88.3062	483.398	88.241	483.398	88.0427	483.398	88.0034	483.398	87.6887	483.398	87.7564	483.398	87.3332	483.398	87.5606	483.398	87.0819	483.398	87.4304	483.398	87.0034	483.398	87.3105	483.398	87.0727	483.398	87.0836	483.398	87.17	483.398	86.5945	483.398	87.1323	483.398	85.6692	483.398	86.8048	483.398	84.1164	483.398	86.0628	483.398	81.7375	483.398	84.8203	483.398	78.5582	483.398	83.0753	483.398	76.3436	483.398	81.1088	483.398	77.7281	483.398	79.8372	483.398	79.9059	483.398	80.0463	483.398	81.1668	483.398	80.9283	483.398	81.4467
499.512	88.1616	499.512	88.0067	499.512	88.0906	499.512	87.6407	499.512	87.8151	499.512	87.1281	499.512	87.394	499.512	86.6036	499.512	86.9292	499.512	86.2579	499.512	86.5543	499.512	86.2348	499.512	86.3746	499.512	86.496	499.512	86.3846	499.512	86.8311	499.512	86.4524	499.512	86.9903	499.512	86.3898	499.512	86.7691	499.512	86.0226	499.512	86.0126	499.512	85.2204	499.512	84.5988	499.512	83.9236	499.512	82.472	499.512	82.2499	499.512	79.9489	499.512	80.7649	499.512	78.5528	499.512	80.3725	499.512	79.4208	499.512	80.9788	499.512	80.8302	499.512	81.5944	499.512	81.6086
517.09	88.8835	517.09	88.721	517.09	88.7191	517.09	88.236	517.09	88.2169	517.09	87.4332	517.09	87.3695	517.09	86.3582	517.09	86.2064	517.09	85.2142	517.09	84.8923	517.09	84.5013	517.09	83.9115	517.09	84.686	517.09	83.9168	517.09	85.4858	517.09	84.8169	517.09	86.2442	517.09	85.8363	517.09	86.5686	517.09	86.4295	517.09	86.293	517.09	86.3824	517.09	85.3113	517.09	85.6126	517.09	83.5426	517.09	84.0939	517.09	81.1368	517.09	81.9989	517.09	79.248	517.09	80.2252	517.09	79.5103	517.09	80.0903	517.09	80.6898	517.09	80.896	517.09	81.2477
536.133	89.195	536.133	89.0381	536.133	89.1458	536.133	88.6529	536.133	88.8798	536.133	87.9881	536.133	88.357	536.133	86.9771	536.133	87.5135	536.133	85.5713	536.133	86.2688	536.133	83.8193	536.133	84.5451	536.133	82.0742	536.133	82.3748	536.133	81.1731	536.133	80.3719	536.133	81.5259	536.133	80.0775	536.133	82.2868	536.133	81.3851	536.133	82.6209	536.133	82.6029	536.133	82.2485	536.133	83.0339	536.133	81.2774	536.133	82.6582	536.133	80.3004	536.133	81.8017	536.133	80.2721	536.133	81.1954	536.133	81.1826	536.133	81.434	536.133	82.0844	536.133	82.0856	536.133	82.41
555.176	87.9293	555.176	87.7376	555.176	87.9876	555.176	87.3831	555.176	87.931	555.176	86.8402	555.176	87.7549	555.176	86.1083	555.176	87.4283	555.176	85.2421	555.176	86.8991	555.176	84.3898	555.176	86.1096	555.176	83.7912	555.176	85.0147	555.176	83.6252	555.176	83.6152	555.176	83.7695	555.176	82.0387	555.176	83.8444	555.176	80.6536	555.176	83.473	555.176	79.9227	555.176	82.3863	555.176	79.8446	555.176	80.4178	555.176	80.0036	555.176	77.7739	555.176	80.1772	555.176	76.2956	555.176	80.4192	555.176	77.6693	555.176	80.742	555.176	79.5313	555.176	80.9194	555.176	80.6103
574.219	88.9754	574.219	88.8169	574.219	88.9494	574.219	88.4414	574.219	88.7453	574.219	87.7811	574.219	88.3591	574.219	86.73	574.219	87.7938	574.219	85.1635	574.219	87.0714	574.219	83.0586	574.219	86.2389	574.219	81.0213	574.219	85.3853	574.219	80.7954	574.219	84.6407	574.219	82.3614	574.219	84.0702	574.219	83.8405	574.219	83.5162	574.219	84.4295	574.219	82.629	574.219	83.9459	574.219	81.039	574.219	82.3537	574.219	78.6342	574.219	79.9519	574.219	76.8458	574.219	78.5062	574.219	78.3119	574.219	79.7296	574.219	80.6993	574.219	81.4778	574.219	82.1058	574.219	82.3465
594.727	87.7771	594.727	87.8751	594.727	87.6093	594.727	87.8647	594.727	87.3757	594.727	87.6726	594.727	87.0487	594.727	87.1973	594.727	86.5716	594.727	86.3142	594.727	85.8634	594.727	84.8505	594.727	84.8351	594.727	82.5416	594.727	83.4668	594.727	79.2584	594.727	82.0582	594.727	77.1513	594.727	81.4173	594.727	79.1482	594.727	81.8	594.727	81.2576	594.727	82.2335	594.727	81.9438	594.727	81.8517	594.727	81.2869	594.727	80.24	594.727	79.6778	594.727	77.4628	594.727	78.4719	594.727	76.114	594.727	79.2386	594.727	78.4109	594.727	80.6493	594.727	80.5133	594.727	81.2231
615.234	86.804	615.234	86.8559	615.234	86.732	615.234	86.8967	615.234	86.6545	615.234	86.9284	615.234	86.5916	615.234	86.895	615.234	86.5148	615.234	86.6561	615.234	86.3006	615.234	86.0021	615.234	85.7371	615.234	84.6856	615.234	84.5799	615.234	82.4468	615.234	82.6343	615.234	79.1714	615.234	80.0525	615.234	76.1905	615.234	78.3919	615.234	76.5696	615.234	79.2065	615.234	77.8237	615.234	80.3795	615.234	77.7846	615.234	80.4471	615.234	76.7224	615.234	79.3235	615.234	76.4475	615.234	77.9317	615.234	78.0057	615.234	78.1328	615.234	79.5738	615.234	79.4237	615.234	80.0833
637.207	87.2722	637.207	87.1698	637.207	87.2275	637.207	86.9123	637.207	87.0943	637.207	86.5439	637.207	86.9504	637.207	86.1333	637.207	86.8362	637.207	85.7219	637.207	86.7057	637.207	85.2849	637.207	86.4326	637.207	84.7506	637.207	85.8695	637.207	84.0658	637.207	84.9088	637.207	83.2479	637.207	83.5107	637.207	82.3608	637.207	81.7034	637.207	81.3695	637.207	79.5418	637.207	79.9869	637.207	76.9782	637.207	77.6841	637.207	73.851	637.207	73.836	637.207	71.3984	637.207	70.2917	637.207	73.1642	637.207	73.4386	637.207	76.0776	637.207	76.613	637.207	77.7318	637.207	77.9437
659.18	86.3349	659.18	86.341	659.18	86.155	659.18	86.1845	659.18	85.8336	659.18	85.9061	659.18	85.4295	659.18	85.5374	659.18	84.988	659.18	85.0596	659.18	84.5116	659.18	84.4	659.18	83.9797	659.18	83.5048	659.18	83.4181	659.18	82.5105	659.18	82.9507	659.18	81.8877	659.18	82.7228	659.18	81.986	659.18	82.68	659.18	82.3407	659.18	82.4716	659.18	82.2054	659.18	81.6204	659.18	81.1169	659.18	79.6667	659.18	78.8522	659.18	76.2561	659.18	75.7812	659.18	72.8385	659.18	74.608	659.18	74.3136	659.18	76.1611	659.18	76.5969	659.18	77.1803
682.617	87.0939	682.617	87.0651	682.617	86.9512	682.617	86.8873	682.617	86.6745	682.617	86.6174	682.617	86.342	682.617	86.2886	682.617	86.0078	682.617	85.8506	682.617	85.6229	682.617	85.1569	682.617	85.0225	682.617	84.0095	682.617	84.0294	682.617	82.3016	682.617	82.6849	682.617	80.488	682.617	81.5697	682.617	79.9347	682.617	81.4725	682.617	80.606	682.617	82.0158	682.617	80.8929	682.617	82.1744	682.617	80.087	682.617	81.3957	682.617	78.4314	682.617	79.6208	682.617	77.4147	682.617	77.7181	682.617	78.2747	682.617	77.7282	682.617	79.4816	682.617	79.0634	682.617	79.8168
707.52	87.6918	707.52	87.4962	707.52	87.5533	707.52	86.9658	707.52	87.155	707.52	86.2024	707.52	86.6201	707.52	85.4142	707.52	86.0695	707.52	84.7967	707.52	85.5222	707.52	84.3013	707.52	84.828	707.52	83.5845	707.52	83.7399	707.52	82.2823	707.52	82.1029	707.52	80.4543	707.52	80.1909	707.52	79.2107	707.52	79.0809	707.52	79.6217	707.52	79.1647	707.52	80.2618	707.52	78.9934	707.52	79.6072	707.52	77.3484	707.52	76.8659	707.52	73.8904	707.52	71.8698	707.52	73.1138	707.52	72.9662	707.52	76.7876	707.52	77.2058	707.52	78.9246	707.52	79.0679
732.422	87.0534	732.422	86.9156	732.422	86.8669	732.422	86.5215	732.422	86.3764	732.422	86.0088	732.422	85.6957	732.422	85.5246	732.422	85.0141	732.422	85.1199	732.422	84.5024	732.422	84.6788	732.422	84.1255	732.422	83.9724	732.422	83.585	732.422	82.7959	732.422	82.5529	732.422	81.1954	732.422	81.009	732.422	79.9336	732.422	79.7292	732.422	79.8698	732.422	79.8028	732.422	80.0844	732.422	80.2986	732.422	79.387	732.422	79.6415	732.422	77.4395	732.422	77.0097	732.422	75.1584	732.422	73.1235	732.422	75.5034	732.422	74.5251	732.422	77.4371	732.422	77.4281	732.422	78.3161
757.324	87.1138	757.324	86.8344	757.324	87.0633	757.324	86.2852	757.324	86.7262	757.324	85.6334	757.324	86.2147	757.324	85.1172	757.324	85.6579	757.324	84.8951	757.324	85.1544	757.324	84.8284	757.324	84.7122	757.324	84.506	757.324	84.1893	757.324	83.4403	757.324	83.299	757.324	81.2701	757.324	81.7282	757.324	78.763	757.324	79.6575	757.324	78.6274	757.324	78.6994	757.324	79.4978	757.324	79.4555	757.324	79.0195	757.324	79.9883	757.324	76.8897	757.324	79.5034	757.324	74.2919	757.324	78.5057	757.324	75.0083	757.324	78.2141	757.324	77.3445	757.324	78.6467	757.324	78.5899
785.156	86.9445	785.156	86.9497	785.156	86.7179	785.156	86.7373	785.156	86.2796	785.156	86.2961	785.156	85.6919	785.156	85.6404	785.156	85.0862	785.156	84.9135	785.156	84.6384	785.156	84.3943	785.156	84.4098	785.156	84.147	785.156	84.1433	785.156	83.7151	785.156	83.3976	785.156	82.5538	785.156	81.9489	785.156	80.7932	785.156	80.2459	785.156	79.8909	785.156	79.245	785.156	80.514	785.156	78.4883	785.156	80.7946	785.156	76.2837	785.156	79.3884	785.156	70.2888	785.156	75.9032	785.156	64.9004	785.156	73.6186	785.156	74.3591	785.156	76.3841	785.156	77.6828	785.156	78.1584
811.523	87.6612	811.523	87.7294	811.523	87.3606	811.523	87.508	811.523	86.912	811.523	86.9978	811.523	86.4077	811.523	86.3173	811.523	85.9426	811.523	85.7581	811.523	85.6453	811.523	85.6505	811.523	85.5837	811.523	85.8384	811.523	85.5718	811.523	85.6383	811.523	85.244	811.523	84.503	811.523	84.1545	811.523	82.2465	811.523	81.9328	811.523	79.3094	811.523	79.2898	811.523	77.828	811.523	78.5148	811.523	78.1357	811.523	78.2909	811.523	77.7322	811.523	75.9168	811.523	76.567	811.523	70.412	811.523	76.7942	811.523	73.0012	811.523	78.2561	811.523	77.405	811.523	78.8081
840.82	87.749	840.82	87.7418	840.82	87.5233	840.82	87.5891	840.82	86.9252	840.82	87.2307	840.82	85.8526	840.82	86.441	840.82	84.3354	840.82	84.9844	840.82	82.7729	840.82	83.1631	840.82	82.2213	840.82	82.6292	840.82	83.3492	840.82	83.866	840.82	85.1162	840.82	85.0346	840.82	86.3229	840.82	85.3391	840.82	86.4385	840.82	84.8183	840.82	85.3299	840.82	83.6662	840.82	83.0648	840.82	81.8142	840.82	79.8994	840.82	78.6518	840.82	76.2149	840.82	73.6612	840.82	72.8578	840.82	73.2759	840.82	73.4054	840.82	76.5902	840.82	76.1808	840.82	77.4931
870.117	87.9657	870.117	87.6246	870.117	88.0104	870.117	87.0718	870.117	87.7573	870.117	86.5166	870.117	87.1853	870.117	86.1307	870.117	86.2073	870.117	85.7495	870.117	84.7448	870.117	84.8444	870.117	82.8711	870.117	82.783	870.117	80.7342	870.117	78.9132	870.117	78.3811	870.117	74.5897	870.117	77.5865	870.117	78.0709	870.117	80.4733	870.117	81.6169	870.117	83.3007	870.117	82.8736	870.117	84.3882	870.117	82.1679	870.117	83.4719	870.117	79.5533	870.117	80.2203	870.117	75.7289	870.117	74.8022	870.117	75.8887	870.117	75.8514	870.117	78.8007	870.117	79.2487	870.117	80.1035
900.879	88.4408	900.879	88.678	900.879	87.816	900.879	88.4183	900.879	87.0415	900.879	87.6688	900.879	86.3747	900.879	86.5663	900.879	85.8534	900.879	85.4813	900.879	85.301	900.879	84.7981	900.879	84.6995	900.879	84.22	900.879	84.2348	900.879	82.9258	900.879	83.7242	900.879	80.015	900.879	82.3574	900.879	75.4704	900.879	79.5413	900.879	77.5695	900.879	78.8244	900.879	81.4177	900.879	81.9289	900.879	82.5852	900.879	83.4018	900.879	81.335	900.879	82.2066	900.879	77.2208	900.879	78.2104	900.879	71.015	900.879	76.5728	900.879	76.4491	900.879	79.4788	900.879	79.7305
933.105	88.856	933.105	88.7524	933.105	88.4622	933.105	88.1173	933.105	87.7027	933.105	87.0665	933.105	86.6651	933.105	85.7637	933.105	85.3059	933.105	84.2142	933.105	83.6155	933.105	82.3916	933.105	82.0071	933.105	80.7695	933.105	81.258	933.105	79.6958	933.105	81.157	933.105	78.0779	933.105	80.6177	933.105	74.6907	933.105	79.8448	933.105	74.8308	933.105	80.8203	933.105	79.2683	933.105	82.5891	933.105	81.2195	933.105	82.8061	933.105	80.7291	933.105	80.489	933.105	78.3056	933.105	74.8981	933.105	75.7383	933.105	72.7618	933.105	76.249	933.105	76.4875	933.105	77.353
965.332	88.2505	965.332	88.1184	965.332	88.2049	965.332	87.8566	965.332	87.9497	965.332	87.461	965.332	87.4256	965.332	86.7553	965.332	86.4703	965.332	85.4212	965.332	84.9178	965.332	83.38	965.332	82.9034	965.332	81.4917	965.332	81.0884	965.332	81.0712	965.332	80.183	965.332	81.0761	965.332	79.3029	965.332	79.2205	965.332	76.2325	965.332	73.6673	965.332	70.3008	965.332	73.8053	965.332	76.4748	965.332	78.5206	965.332	80.1179	965.332	79.4678	965.332	80.015	965.332	77.748	965.332	76.8961	965.332	76.0714	965.332	73.9813	965.332	77.525	965.332	76.729	965.332	78.3278
1,000.49	87.6775	1,000.49	87.4822	1,000.49	87.6577	1,000.49	87.1429	1,000.49	87.4681	1,000.49	86.8018	1,000.49	87.0995	1,000.49	86.4193	1,000.49	86.269	1,000.49	85.6553	1,000.49	84.5989	1,000.49	84.2241	1,000.49	82.2372	1,000.49	82.4062	1,000.49	80.4927	1,000.49	81.05	1,000.49	80.6894	1,000.49	80.3211	1,000.49	81.2912	1,000.49	79.2683	1,000.49	80.4779	1,000.49	77.6841	1,000.49	78.0752	1,000.49	77.1377	1,000.49	76.4067	1,000.49	77.6006	1,000.49	76.727	1,000.49	76.7896	1,000.49	74.9853	1,000.49	74.5159	1,000.49	69.0545	1,000.49	74.0612	1,000.49	70.8975	1,000.49	75.7656	1,000.49	75.2831	1,000.49	76.5039
1,035.64	88.4927	1,035.64	88.5498	1,035.64	87.8939	1,035.64	88.074	1,035.64	87.0341	1,035.64	87.276	1,035.64	86.3188	1,035.64	86.2859	1,035.64	85.8332	1,035.64	84.9448	1,035.64	85.2666	1,035.64	83.0242	1,035.64	84.268	1,035.64	80.5906	1,035.64	82.3283	1,035.64	78.0809	1,035.64	79.1951	1,035.64	76.1838	1,035.64	77.2531	1,035.64	75.0951	1,035.64	77.9213	1,035.64	74.2039	1,035.64	77.7229	1,035.64	75.8462	1,035.64	76.4538	1,035.64	77.7457	1,035.64	76.4207	1,035.64	76.9068	1,035.64	76.2995	1,035.64	73.0746	1,035.64	74.3218	1,035.64	73.3195	1,035.64	72.4514	1,035.64	76.7842	1,035.64	74.9673	1,035.64	77.2351
1,072.27	88.0491	1,072.27	87.7144	1,072.27	87.7012	1,072.27	86.9978	1,072.27	86.8329	1,072.27	86.3412	1,072.27	85.813	1,072.27	85.6605	1,072.27	84.8908	1,072.27	84.5356	1,072.27	84.1114	1,072.27	83.1497	1,072.27	83.387	1,072.27	82.2428	1,072.27	82.7785	1,072.27	81.4178	1,072.27	82.0665	1,072.27	79.4848	1,072.27	80.5516	1,072.27	75.5199	1,072.27	77.5813	1,072.27	70.2967	1,072.27	75.7087	1,072.27	74.7156	1,072.27	78.4278	1,072.27	78.2535	1,072.27	79.6331	1,072.27	78.4152	1,072.27	77.8823	1,072.27	74.6497	1,072.27	72.0514	1,072.27	66.6637	1,072.27	69.329	1,072.27	75.1284	1,072.27	76.2876	1,072.27	77.9119
1,108.89	87.6373	1,108.89	87.4662	1,108.89	87.4613	1,108.89	87.1199	1,108.89	86.908	1,108.89	86.7162	1,108.89	85.9637	1,108.89	85.9154	1,108.89	84.7801	1,108.89	84.2521	1,108.89	83.8045	1,108.89	82.0257	1,108.89	83.1586	1,108.89	80.7024	1,108.89	82.1357	1,108.89	81.1911	1,108.89	80.2336	1,108.89	81.9194	1,108.89	78.25	1,108.89	80.9728	1,108.89	76.3472	1,108.89	76.6084	1,108.89	71.5887	1,108.89	64.2856	1,108.89	70.1834	1,108.89	72.7301	1,108.89	75.824	1,108.89	75.8336	1,108.89	76.9466	1,108.89	74.8543	1,108.89	74.6904	1,108.89	73.9226	1,108.89	67.4684	1,108.89	75.5488	1,108.89	69.8408	1,108.89	75.0467
1,148.44	87.6826	1,148.44	87.2236	1,148.44	87.7377	1,148.44	86.5282	1,148.44	87.3001	1,148.44	85.7581	1,148.44	86.2982	1,148.44	84.96	1,148.44	84.8589	1,148.44	84.1172	1,148.44	83.5995	1,148.44	83.3867	1,148.44	82.9912	1,148.44	82.6585	1,148.44	82.6182	1,148.44	81.8457	1,148.44	81.8774	1,148.44	81.6836	1,148.44	80.2554	1,148.44	81.0083	1,148.44	76.4908	1,148.44	78.0711	1,148.44	67.7309	1,148.44	73.8697	1,148.44	72.2242	1,148.44	76.2593	1,148.44	76.4106	1,148.44	77.3243	1,148.44	77.2111	1,148.44	73.533	1,148.44	75.5314	1,148.44	65.87	1,148.44	72.1156	1,148.44	74.3474	1,148.44	74.3147	1,148.44	76.4523
1,189.45	88.215	1,189.45	87.8826	1,189.45	88.1431	1,189.45	87.2416	1,189.45	87.7621	1,189.45	86.4203	1,189.45	87.0853	1,189.45	85.3492	1,189.45	85.9178	1,189.45	84.1398	1,189.45	84.2555	1,189.45	83.1065	1,189.45	82.5823	1,189.45	81.6889	1,189.45	81.3445	1,189.45	80.0471	1,189.45	80.8662	1,189.45	81.4215	1,189.45	80.7834	1,189.45	82.6875	1,189.45	79.8375	1,189.45	81.7687	1,189.45	76.5523	1,189.45	77.2335	1,189.45	67.689	1,189.45	69.9392	1,189.45	64.2439	1,189.45	74.1463	1,189.45	72.2105	1,189.45	72.8975	1,189.45	73.1687	1,189.45	69.8673	1,189.45	69.8811	1,189.45	74.9841	1,189.45	72.1029	1,189.45	75.8252
1,230.47	88.4667	1,230.47	88.0197	1,230.47	88.5986	1,230.47	87.627	1,230.47	88.1773	1,230.47	87.0352	1,230.47	87.0221	1,230.47	85.508	1,230.47	85.0164	1,230.47	83.6172	1,230.47	82.8182	1,230.47	83.2762	1,230.47	81.7625	1,230.47	83.1389	1,230.47	81.5253	1,230.47	79.7992	1,230.47	80.9297	1,230.47	73.0549	1,230.47	80.4248	1,230.47	78.8953	1,230.47	79.9953	1,230.47	81.3493	1,230.47	77.4785	1,230.47	79.5156	1,230.47	69.7331	1,230.47	76.6436	1,230.47	66.588	1,230.47	77.391	1,230.47	75.8411	1,230.47	75.4009	1,230.47	77.4342	1,230.47	66.0044	1,230.47	74.4741	1,230.47	75.1044	1,230.47	75.4482	1,230.47	77.811
1,274.41	88.3295	1,274.41	87.7972	1,274.41	88.5586	1,274.41	87.5171	1,274.41	88.1543	1,274.41	87.4199	1,274.41	86.9086	1,274.41	86.7514	1,274.41	84.7902	1,274.41	85.3146	1,274.41	82.6163	1,274.41	83.8212	1,274.41	81.4961	1,274.41	82.9843	1,274.41	81.1279	1,274.41	82.0651	1,274.41	80.7439	1,274.41	79.8022	1,274.41	80.4454	1,274.41	75.863	1,274.41	80.4871	1,274.41	73.83	1,274.41	80.2956	1,274.41	75.3794	1,274.41	78.9702	1,274.41	76.7181	1,274.41	75.8988	1,274.41	77.8998	1,274.41	73.4673	1,274.41	76.2525	1,274.41	73.6825	1,274.41	67.7534	1,274.41	72.7521	1,274.41	71.9027	1,274.41	74.7099	1,274.41	75.9605
1,319.82	86.8971	1,319.82	87.2061	1,319.82	87.3567	1,319.82	87.8355	1,319.82	87.8807	1,319.82	87.6989	1,319.82	87.6528	1,319.82	86.2384	1,319.82	86.3148	1,319.82	83.8157	1,319.82	84.1497	1,319.82	81.8436	1,319.82	81.4708	1,319.82	80.5648	1,319.82	79.7517	1,319.82	79.2188	1,319.82	80.2737	1,319.82	78.1274	1,319.82	80.0223	1,319.82	78.5637	1,319.82	77.1501	1,319.82	78.132	1,319.82	73.8545	1,319.82	73.9705	1,319.82	72.7727	1,319.82	71.6189	1,319.82	69.4581	1,319.82	77.0513	1,319.82	73.0939	1,319.82	77.1235	1,319.82	76.3714	1,319.82	70.371	1,319.82	73.4205	1,319.82	71.2033	1,319.82	73.1259	1,319.82	75.303
1,366.7	87.1294	1,366.7	87.5802	1,366.7	86.939	1,366.7	87.6728	1,366.7	87.0243	1,366.7	86.8742	1,366.7	86.6932	1,366.7	85.1968	1,366.7	85.4546	1,366.7	83.6571	1,366.7	83.6788	1,366.7	83.0961	1,366.7	82.22	1,366.7	82.7469	1,366.7	80.6796	1,366.7	81.3825	1,366.7	78.2833	1,366.7	78.0605	1,366.7	78.7325	1,366.7	74.6383	1,366.7	80.786	1,366.7	75.4	1,366.7	80.9038	1,366.7	74.262	1,366.7	77.2429	1,366.7	73.1306	1,366.7	67.89	1,366.7	76.9145	1,366.7	76.2014	1,366.7	77.1152	1,366.7	77.3943	1,366.7	70.513	1,366.7	75.1236	1,366.7	67.5003	1,366.7	75.4472	1,366.7	75.1549
1,413.57	87.4454	1,413.57	87.3438	1,413.57	87.4399	1,413.57	87.0626	1,413.57	87.1724	1,413.57	86.4648	1,413.57	86.1858	1,413.57	85.6922	1,413.57	84.3261	1,413.57	85.0292	1,413.57	82.4975	1,413.57	83.6482	1,413.57	81.6591	1,413.57	81.3416	1,413.57	81.4641	1,413.57	80.6027	1,413.57	81.3116	1,413.57	79.7274	1,413.57	80.578	1,413.57	76.2977	1,413.57	79.8919	1,413.57	76.5487	1,413.57	80.6856	1,413.57	77.623	1,413.57	80.557	1,413.57	73.3321	1,413.57	76.6621	1,413.57	71.6781	1,413.57	72.5677	1,413.57	75.8756	1,413.57	74.9997	1,413.57	73.6186	1,413.57	73.0079	1,413.57	68.7004	1,413.57	73.3243	1,413.57	73.3502
1,463.38	87.8858	1,463.38	87.98	1,463.38	87.098	1,463.38	87.0766	1,463.38	86.1492	1,463.38	85.1243	1,463.38	85.5049	1,463.38	83.089	1,463.38	84.743	1,463.38	82.3306	1,463.38	83.3764	1,463.38	81.5835	1,463.38	81.4106	1,463.38	78.7644	1,463.38	79.4065	1,463.38	75.8118	1,463.38	78.0499	1,463.38	76.9043	1,463.38	76.8872	1,463.38	76.356	1,463.38	78.4088	1,463.38	71.1197	1,463.38	80.8668	1,463.38	71.2217	1,463.38	80.7267	1,463.38	73.8451	1,463.38	76.5222	1,463.38	70.8808	1,463.38	70.0694	1,463.38	65.3914	1,463.38	70.797	1,463.38	68.1281	1,463.38	66.7189	1,463.38	68.5363	1,463.38	66.8448	1,463.38	67.251
1,516.11	87.6499	1,516.11	87.4178	1,516.11	87.3931	1,516.11	86.9102	1,516.11	86.6588	1,516.11	85.9018	1,516.11	85.6294	1,516.11	83.7813	1,516.11	84.4955	1,516.11	81.3487	1,516.11	82.8014	1,516.11	79.8364	1,516.11	79.2973	1,516.11	78.6961	1,516.11	74.7604	1,516.11	77.7324	1,516.11	76.4882	1,516.11	74.277	1,516.11	78.7036	1,516.11	69.6302	1,516.11	77.9483	1,516.11	65.8554	1,516.11	77.6919	1,516.11	71.1045	1,516.11	76.8705	1,516.11	75.711	1,516.11	72.4325	1,516.11	75.2606	1,516.11	69.674	1,516.11	70.8652	1,516.11	69.1677	1,516.11	66.0985	1,516.11	63.5199	1,516.11	71.0003	1,516.11	68.067	1,516.11	71.6788
1,568.85	86.4647	1,568.85	86.9069	1,568.85	86.3379	1,568.85	86.6322	1,568.85	86.4129	1,568.85	84.8105	1,568.85	85.977	1,568.85	82.7794	1,568.85	84.8453	1,568.85	81.8473	1,568.85	83.127	1,568.85	80.4573	1,568.85	79.9636	1,568.85	80.1299	1,568.85	75.7508	1,568.85	79.3204	1,568.85	75.3263	1,568.85	75.5454	1,568.85	75.8301	1,568.85	73.7021	1,568.85	73.6364	1,568.85	73.3619	1,568.85	73.3257	1,568.85	69.6344	1,568.85	73.8472	1,568.85	71.2083	1,568.85	71.8548	1,568.85	73.3665	1,568.85	69.3931	1,568.85	72.2091	1,568.85	66.5155	1,568.85	66.0001	1,568.85	60.9149	1,568.85	68.4103	1,568.85	69.3355	1,568.85	71.9029
1,624.51	86.2632	1,624.51	85.8109	1,624.51	86.3882	1,624.51	85.1236	1,624.51	85.7881	1,624.51	84.9633	1,624.51	84.6763	1,624.51	85.3595	1,624.51	84.1135	1,624.51	84.5769	1,624.51	83.6862	1,624.51	82.305	1,624.51	82.119	1,624.51	81.006	1,624.51	79.1686	1,624.51	81.3851	1,624.51	73.9363	1,624.51	80.5819	1,624.51	72.9459	1,624.51	76.9984	1,624.51	73.0898	1,624.51	73.2721	1,624.51	73.8951	1,624.51	73.9311	1,624.51	71.8344	1,624.51	71.8459	1,624.51	72.0488	1,624.51	70.9189	1,624.51	70.0145	1,624.51	71.6905	1,624.51	65.9539	1,624.51	67.5761	1,624.51	65.114	1,624.51	68.1183	1,624.51	68.9969	1,624.51	71.1394
1,681.64	86.2574	1,681.64	85.9368	1,681.64	86.5146	1,681.64	85.6517	1,681.64	86.2311	1,681.64	85.2137	1,681.64	85.2737	1,681.64	84.2752	1,681.64	84.25	1,681.64	82.8668	1,681.64	83.1561	1,681.64	82.6809	1,681.64	81.2201	1,681.64	82.897	1,681.64	77.201	1,681.64	81.3965	1,681.64	69.4075	1,681.64	79.8222	1,681.64	68.2081	1,681.64	79.6333	1,681.64	69.7096	1,681.64	77.3069	1,681.64	67.8989	1,681.64	72.889	1,681.64	72.1915	1,681.64	72.2579	1,681.64	74.2304	1,681.64	71.0023	1,681.64	68.0781	1,681.64	71.1767	1,681.64	66.9528	1,681.64	71.5545	1,681.64	66.6841	1,681.64	68.8332	1,681.64	67.5737	1,681.64	68.7147
1,741.7	86.9819	1,741.7	86.9593	1,741.7	86.5757	1,741.7	86.374	1,741.7	85.9345	1,741.7	85.4339	1,741.7	85.2463	1,741.7	84.076	1,741.7	84.5923	1,741.7	82.9707	1,741.7	83.2658	1,741.7	82.5426	1,741.7	81.4541	1,741.7	81.8444	1,741.7	78.1904	1,741.7	79.7124	1,741.7	73.429	1,741.7	76.4433	1,741.7	70.7013	1,741.7	76.302	1,741.7	69.8217	1,741.7	76.4513	1,741.7	68.6947	1,741.7	70.8616	1,741.7	70.9951	1,741.7	66.1564	1,741.7	68.7899	1,741.7	74.2516	1,741.7	61.8889	1,741.7	74.3528	1,741.7	58.1836	1,741.7	67.6371	1,741.7	52.384	1,741.7	69.8957	1,741.7	67.0563	1,741.7	71.7019
1,803.22	87.9817	1,803.22	87.1944	1,803.22	87.8967	1,803.22	86.8661	1,803.22	86.6138	1,803.22	86.9003	1,803.22	84.7285	1,803.22	85.1478	1,803.22	84.0816	1,803.22	82.2376	1,803.22	84.4725	1,803.22	80.6561	1,803.22	84.1085	1,803.22	77.6473	1,803.22	82.3172	1,803.22	75.0679	1,803.22	76.9879	1,803.22	75.3326	1,803.22	66.8812	1,803.22	71.2512	1,803.22	75.5836	1,803.22	69.0783	1,803.22	77.1486	1,803.22	71.7288	1,803.22	69.641	1,803.22	64.884	1,803.22	68.1277	1,803.22	70.1111	1,803.22	67.0846	1,803.22	74.03	1,803.22	66.6525	1,803.22	69.6411	1,803.22	66.3973	1,803.22	69.0185	1,803.22	66.3556	1,803.22	72.1228
1,866.21	87.0069	1,866.21	87.2261	1,866.21	87.1171	1,866.21	87.2941	1,866.21	87.1062	1,866.21	86.2695	1,866.21	86.2245	1,866.21	84.3881	1,866.21	84.6352	1,866.21	83.9803	1,866.21	83.93	1,866.21	82.5269	1,866.21	83.2678	1,866.21	77.11	1,866.21	80.7789	1,866.21	72.5341	1,866.21	76.2938	1,866.21	72.5257	1,866.21	69.7585	1,866.21	74.4238	1,866.21	70.3334	1,866.21	75.3417	1,866.21	68.8005	1,866.21	75.9643	1,866.21	68.6136	1,866.21	73.1418	1,866.21	68.7892	1,866.21	71.5073	1,866.21	71.54	1,866.21	74.2262	1,866.21	73.2838	1,866.21	71.4204	1,866.21	67.9172	1,866.21	65.9345	1,866.21	67.2483	1,866.21	70.2944
1,932.13	86.7691	1,932.13	86.863	1,932.13	86.9224	1,932.13	87.05	1,932.13	87.1842	1,932.13	86.368	1,932.13	86.9275	1,932.13	85.2189	1,932.13	86.023	1,932.13	83.5291	1,932.13	84.7519	1,932.13	79.5009	1,932.13	83.1807	1,932.13	76.788	1,932.13	82.1687	1,932.13	76.9203	1,932.13	81.7085	1,932.13	69.1673	1,932.13	77.3142	1,932.13	65.8165	1,932.13	56.1249	1,932.13	74.4403	1,932.13	67.9432	1,932.13	77.3769	1,932.13	64.2741	1,932.13	75.7189	1,932.13	69.7761	1,932.13	69.2532	1,932.13	71.4971	1,932.13	66.5647	1,932.13	72.8517	1,932.13	68.9112	1,932.13	70.0649	1,932.13	68.5578	1,932.13	70.6048	1,932.13	72.6606
1,999.51	88.0323	1,999.51	87.6052	1,999.51	88.1011	1,999.51	87.8118	1,999.51	87.3283	1,999.51	87.4393	1,999.51	86.5639	1,999.51	85.4442	1,999.51	86.0145	1,999.51	84.1146	1,999.51	85.669	1,999.51	83.2756	1,999.51	84.8762	1,999.51	81.2372	1,999.51	81.3595	1,999.51	80.0035	1,999.51	78.1301	1,999.51	77.6547	1,999.51	73.7964	1,999.51	75.9155	1,999.51	68.3233	1,999.51	75.996	1,999.51	77.6125	1,999.51	74.4687	1,999.51	78.2689	1,999.51	73.4037	1,999.51	72.5391	1,999.51	71.2039	1,999.51	73.7319	1,999.51	72.8799	1,999.51	75.2701	1,999.51	71.7001	1,999.51	72.422	1,999.51	69.7095	1,999.51	71.0342	1,999.51	74.8503
2,069.82	88.2218	2,069.82	88.6965	2,069.82	88.5457	2,069.82	88.71	2,069.82	88.4457	2,069.82	87.3026	2,069.82	87.3407	2,069.82	86.5623	2,069.82	86.2355	2,069.82	86.113	2,069.82	86.2721	2,069.82	84.9542	2,069.82	85.5908	2,069.82	84.0579	2,069.82	83.4707	2,069.82	82.4273	2,069.82	81.2054	2,069.82	80.7411	2,069.82	78.6335	2,069.82	78.6163	2,069.82	74.8267	2,069.82	76.5781	2,069.82	74.0889	2,069.82	75.0791	2,069.82	78.3745	2,069.82	74.0715	2,069.82	74.1542	2,069.82	72.7777	2,069.82	71.4532	2,069.82	73.7027	2,069.82	75.4697	2,069.82	74.4163	2,069.82	74.2796	2,069.82	68.3131	2,069.82	73.1503	2,069.82	75.6386
2,143.07	87.5869	2,143.07	88.7651	2,143.07	88.0496	2,143.07	88.5605	2,143.07	88.8049	2,143.07	87.2209	2,143.07	88.0142	2,143.07	87.2184	2,143.07	86.719	2,143.07	86.9196	2,143.07	85.9315	2,143.07	86.4635	2,143.07	85.2025	2,143.07	83.9857	2,143.07	84.1117	2,143.07	81.0257	2,143.07	81.1254	2,143.07	80.655	2,143.07	78.5871	2,143.07	78.163	2,143.07	78.0953	2,143.07	76.3863	2,143.07	72.9573	2,143.07	74.8996	2,143.07	75.8449	2,143.07	74.8732	2,143.07	74.9432	2,143.07	73.7167	2,143.07	69.4998	2,143.07	71.9505	2,143.07	73.0286	2,143.07	73.2277	2,143.07	73.3738	2,143.07	70.8699	2,143.07	72.8403	2,143.07	75.0011
2,219.24	87.2436	2,219.24	87.731	2,219.24	86.7937	2,219.24	87.5054	2,219.24	87.8348	2,219.24	88.7108	2,219.24	88.4564	2,219.24	88.3707	2,219.24	87.4931	2,219.24	86.5152	2,219.24	85.9646	2,219.24	85.568	2,219.24	85.2093	2,219.24	83.5416	2,219.24	83.4405	2,219.24	83.0096	2,219.24	79.6077	2,219.24	80.9868	2,219.24	77.9054	2,219.24	78.2403	2,219.24	78.9988	2,219.24	77.0052	2,219.24	77.6215	2,219.24	74.3205	2,219.24	75.7905	2,219.24	73.7175	2,219.24	74.3533	2,219.24	73.3673	2,219.24	69.5987	2,219.24	71.4472	2,219.24	70.4315	2,219.24	71.24	2,219.24	72.019	2,219.24	68.7449	2,219.24	71.2066	2,219.24	75.0477
2,296.88	87.8776	2,296.88	87.4414	2,296.88	87.4672	2,296.88	87.9197	2,296.88	87.3774	2,296.88	88.7275	2,296.88	87.9491	2,296.88	87.4741	2,296.88	87.4465	2,296.88	86.019	2,296.88	86.3019	2,296.88	85.4065	2,296.88	84.9077	2,296.88	84.107	2,296.88	83.8247	2,296.88	80.8937	2,296.88	82.7855	2,296.88	78.5092	2,296.88	80.978	2,296.88	77.3534	2,296.88	80.0115	2,296.88	76.1021	2,296.88	75.9511	2,296.88	74.5768	2,296.88	77.7876	2,296.88	72.8102	2,296.88	72.4105	2,296.88	72.749	2,296.88	69.9037	2,296.88	72.4329	2,296.88	68.9823	2,296.88	72.4254	2,296.88	71.7029	2,296.88	66.9451	2,296.88	70.6773	2,296.88	74.5328
2,378.91	87.1375	2,378.91	87.0463	2,378.91	87.6373	2,378.91	87.9001	2,378.91	87.7796	2,378.91	87.9857	2,378.91	88.0384	2,378.91	86.8084	2,378.91	87.7015	2,378.91	87.0403	2,378.91	86.6618	2,378.91	84.9683	2,378.91	84.5229	2,378.91	82.4922	2,378.91	83.7096	2,378.91	83.2398	2,378.91	83.2348	2,378.91	80.4519	2,378.91	80.6853	2,378.91	78.8155	2,378.91	81.6987	2,378.91	76.7627	2,378.91	76.5245	2,378.91	73.9483	2,378.91	74.018	2,378.91	73.3194	2,378.91	75.745	2,378.91	73.6136	2,378.91	68.4454	2,378.91	70.1021	2,378.91	68.7486	2,378.91	72.2109	2,378.91	69.1768	2,378.91	66.8591	2,378.91	69.2548	2,378.91	73.9336
2,462.4	85.7059	2,462.4	86.2822	2,462.4	86.9716	2,462.4	87.9602	2,462.4	87.8962	2,462.4	87.9439	2,462.4	87.9932	2,462.4	87.5562	2,462.4	87.2607	2,462.4	87.4191	2,462.4	86.8895	2,462.4	85.2603	2,462.4	84.6629	2,462.4	85.5322	2,462.4	81.2454	2,462.4	81.8853	2,462.4	78.2665	2,462.4	77.9526	2,462.4	77.7551	2,462.4	77.4354	2,462.4	78.7692	2,462.4	75.3594	2,462.4	77.3836	2,462.4	74.9612	2,462.4	70.5475	2,462.4	71.3941	2,462.4	72.1246	2,462.4	73.8042	2,462.4	68.7907	2,462.4	72.398	2,462.4	68.07	2,462.4	71.5169	2,462.4	68.2294	2,462.4	65.2295	2,462.4	69.7259	2,462.4	74.3054
2,548.83	85.9784	2,548.83	86.2363	2,548.83	86.8143	2,548.83	87.4555	2,548.83	87.8852	2,548.83	88.1224	2,548.83	88.1056	2,548.83	88.4244	2,548.83	87.5528	2,548.83	87.1377	2,548.83	87.0308	2,548.83	85.6675	2,548.83	85.166	2,548.83	84.2198	2,548.83	81.3411	2,548.83	81.6186	2,548.83	78.7278	2,548.83	81.7433	2,548.83	80.3225	2,548.83	77.9436	2,548.83	78.9276	2,548.83	75.7738	2,548.83	74.8313	2,548.83	74.971	2,548.83	69.8125	2,548.83	72.0124	2,548.83	70.9907	2,548.83	73.4485	2,548.83	69.3227	2,548.83	69.7808	2,548.83	70.4266	2,548.83	72.1654	2,548.83	67.6445	2,548.83	57.0759	2,548.83	64.2177	2,548.83	72.9873
2,639.65	86.3734	2,639.65	86.9937	2,639.65	86.9698	2,639.65	87.7573	2,639.65	87.8733	2,639.65	87.8786	2,639.65	87.5624	2,639.65	88.1799	2,639.65	87.5897	2,639.65	85.8117	2,639.65	86.849	2,639.65	85.6545	2,639.65	85.6883	2,639.65	83.6513	2,639.65	82.8508	2,639.65	80.9685	2,639.65	78.7523	2,639.65	79.1481	2,639.65	77.7055	2,639.65	75.7066	2,639.65	73.5577	2,639.65	74.1921	2,639.65	67.9708	2,639.65	73.5921	2,639.65	63.3372	2,639.65	69.8576	2,639.65	73.7893	2,639.65	72.2482	2,639.65	70.1205	2,639.65	68.976	2,639.65	70.5497	2,639.65	69.416	2,639.65	71.398	2,639.65	42.6608	2,639.65	63.8378	2,639.65	71.4076
2,731.93	86.5768	2,731.93	86.9599	2,731.93	87.1555	2,731.93	88.0534	2,731.93	87.6018	2,731.93	88.2442	2,731.93	87.8331	2,731.93	87.1534	2,731.93	87.6997	2,731.93	86.104	2,731.93	85.7054	2,731.93	84.8827	2,731.93	84.4575	2,731.93	80.4958	2,731.93	80.5521	2,731.93	81.353	2,731.93	79.3046	2,731.93	76.3274	2,731.93	77.7109	2,731.93	76.6734	2,731.93	62.6667	2,731.93	74.1161	2,731.93	68.5404	2,731.93	74.6443	2,731.93	72.5722	2,731.93	73.7335	2,731.93	73.7082	2,731.93	70.8213	2,731.93	72.8015	2,731.93	71.9758	2,731.93	60.344	2,731.93	70.9989	2,731.93	67.7069	2,731.93	54.3195	2,731.93	64.0562	2,731.93	70.5701
2,828.61	86.3906	2,828.61	87.284	2,828.61	87.283	2,828.61	88.116	2,828.61	87.6658	2,828.61	87.8189	2,828.61	87.3087	2,828.61	87.1125	2,828.61	86.819	2,828.61	86.0957	2,828.61	85.4636	2,828.61	85.0575	2,828.61	83.1394	2,828.61	82.3578	2,828.61	80.9761	2,828.61	79.7125	2,828.61	79.6359	2,828.61	78.1772	2,828.61	71.0794	2,828.61	77.7903	2,828.61	67.8924	2,828.61	75.3905	2,828.61	74.6885	2,828.61	73.8678	2,828.61	75.8674	2,828.61	72.8312	2,828.61	70.1352	2,828.61	71.028	2,828.61	71.6403	2,828.61	71.2778	2,828.61	63.2783	2,828.61	69.9842	2,828.61	65.4651	2,828.61	59.4153	2,828.61	60.6122	2,828.61	70.1399
2,928.22	85.8958	2,928.22	86.6999	2,928.22	86.7385	2,928.22	86.9047	2,928.22	87.5468	2,928.22	87.8078	2,928.22	86.9401	2,928.22	86.5171	2,928.22	85.8183	2,928.22	85.9289	2,928.22	84.7746	2,928.22	83.6587	2,928.22	82.6599	2,928.22	83.0786	2,928.22	80.4281	2,928.22	81.5726	2,928.22	76.7104	2,928.22	79.8996	2,928.22	72.5856	2,928.22	76.3652	2,928.22	76.0279	2,928.22	73.4175	2,928.22	72.3656	2,928.22	71.4641	2,928.22	74.7019	2,928.22	73.0053	2,928.22	72.4682	2,928.22	71.6022	2,928.22	68.651	2,928.22	71.2041	2,928.22	63.5368	2,928.22	72.3234	2,928.22	65.7125	2,928.22	65.3017	2,928.22	59.1165	2,928.22	67.4473
3,030.76	86.1918	3,030.76	86.1764	3,030.76	86.3877	3,030.76	86.4192	3,030.76	87.1073	3,030.76	86.8082	3,030.76	86.8401	3,030.76	86.073	3,030.76	85.7463	3,030.76	85.0287	3,030.76	84.191	3,030.76	82.9399	3,030.76	82.5561	3,030.76	83.1135	3,030.76	82.767	3,030.76	80.2906	3,030.76	78.5902	3,030.76	76.978	3,030.76	79.1584	3,030.76	74.1987	3,030.76	78.5361	3,030.76	74.1607	3,030.76	72.6176	3,030.76	71.7489	3,030.76	68.9705	3,030.76	73.2146	3,030.76	68.4193	3,030.76	71.8698	3,030.76	67.9168	3,030.76	69.6337	3,030.76	67.3994	3,030.76	69.2167	3,030.76	66.4107	3,030.76	64.1904	3,030.76	48.7721	3,030.76	65.1058
3,137.7	86.2933	3,137.7	85.961	3,137.7	86.4115	3,137.7	86.854	3,137.7	86.4423	3,137.7	86.2973	3,137.7	86.4544	3,137.7	85.6107	3,137.7	85.1686	3,137.7	84.9119	3,137.7	83.9001	3,137.7	83.6373	3,137.7	83.028	3,137.7	81.5152	3,137.7	82.9626	3,137.7	77.1733	3,137.7	81.6282	3,137.7	76.0397	3,137.7	81.6907	3,137.7	75.3791	3,137.7	79.452	3,137.7	73.8602	3,137.7	69.5101	3,137.7	72.5669	3,137.7	60.3409	3,137.7	73.3329	3,137.7	70.0023	3,137.7	71.6567	3,137.7	69.1255	3,137.7	71.4466	3,137.7	67.7884	3,137.7	70.097	3,137.7	66.8919	3,137.7	68.9327	3,137.7	53.5396	3,137.7	59.1756
3,249.02	84.8399	3,249.02	84.8254	3,249.02	85.508	3,249.02	85.3821	3,249.02	86.3854	3,249.02	85.3546	3,249.02	86.3158	3,249.02	85.1427	3,249.02	84.0088	3,249.02	84.0612	3,249.02	81.1366	3,249.02	83.8576	3,249.02	82.3347	3,249.02	80.6149	3,249.02	83.3514	3,249.02	80.1315	3,249.02	82.3688	3,249.02	78.8562	3,249.02	82.6984	3,249.02	76.3435	3,249.02	78.8656	3,249.02	72.8389	3,249.02	68.7343	3,249.02	70.9136	3,249.02	55.1707	3,249.02	69.8829	3,249.02	70.1418	3,249.02	70.6506	3,249.02	68.9215	3,249.02	71.0146	3,249.02	63.6768	3,249.02	68.5195	3,249.02	70.7732	3,249.02	67.7083	3,249.02	61.0158	3,249.02	61.8323
3,363.28	84.5876	3,363.28	84.6685	3,363.28	84.2921	3,363.28	85.3122	3,363.28	85.1571	3,363.28	85.9603	3,363.28	86.2136	3,363.28	85.0657	3,363.28	85.0888	3,363.28	84.6161	3,363.28	83.0377	3,363.28	83.25	3,363.28	84.1554	3,363.28	81.592	3,363.28	83.1442	3,363.28	81.3998	3,363.28	81.7637	3,363.28	77.5635	3,363.28	82.5415	3,363.28	74.1653	3,363.28	78.3666	3,363.28	71.3539	3,363.28	74.2882	3,363.28	70.0855	3,363.28	63.3708	3,363.28	69.8444	3,363.28	67.9834	3,363.28	67.8491	3,363.28	72.5792	3,363.28	72.0528	3,363.28	68.3172	3,363.28	68.9031	3,363.28	67.9071	3,363.28	69.1889	3,363.28	56.571	3,363.28	59.8548
3,481.93	84.6213	3,481.93	84.8107	3,481.93	85.3036	3,481.93	85.7577	3,481.93	85.9348	3,481.93	86.3895	3,481.93	86.3616	3,481.93	85.2789	3,481.93	85.5945	3,481.93	85.1685	3,481.93	84.726	3,481.93	82.7359	3,481.93	85.882	3,481.93	83.7637	3,481.93	82.0745	3,481.93	79.2956	3,481.93	83.1158	3,481.93	76.5958	3,481.93	79.0417	3,481.93	75.7103	3,481.93	71.4707	3,481.93	73.6114	3,481.93	70.7572	3,481.93	70.7913	3,481.93	68.7939	3,481.93	70.6892	3,481.93	57.83	3,481.93	68.1321	3,481.93	71.3224	3,481.93	72.5089	3,481.93	68.9087	3,481.93	71.0512	3,481.93	69.9789	3,481.93	69.3689	3,481.93	62.5281	3,481.93	60.7255
3,604.98	85.8229	3,604.98	86.4461	3,604.98	86.3528	3,604.98	86.703	3,604.98	87.0172	3,604.98	86.5726	3,604.98	87.0667	3,604.98	85.7809	3,604.98	85.3971	3,604.98	85.9517	3,604.98	85.9656	3,604.98	84.8965	3,604.98	86.1017	3,604.98	83.153	3,604.98	82.7608	3,604.98	79.5202	3,604.98	80.6832	3,604.98	80.7551	3,604.98	75.3155	3,604.98	75.751	3,604.98	74.7944	3,604.98	73.0936	3,604.98	70.5845	3,604.98	71.0012	3,604.98	51.5746	3,604.98	71.8887	3,604.98	62.9836	3,604.98	69.6598	3,604.98	72.6987	3,604.98	69.7365	3,604.98	68.7186	3,604.98	70.8984	3,604.98	68.3879	3,604.98	70.2256	3,604.98	67.1731	3,604.98	62.6672
3,732.42	87.9729	3,732.42	87.3102	3,732.42	87.2961	3,732.42	86.576	3,732.42	87.2074	3,732.42	86.4971	3,732.42	87.4371	3,732.42	86.4752	3,732.42	85.9664	3,732.42	85.3769	3,732.42	85.9262	3,732.42	85.6556	3,732.42	85.4681	3,732.42	81.7889	3,732.42	82.7149	3,732.42	81.818	3,732.42	80.2327	3,732.42	78.5019	3,732.42	76.8564	3,732.42	75.5882	3,732.42	78.0009	3,732.42	73.0518	3,732.42	74.0771	3,732.42	71.352	3,732.42	70.1416	3,732.42	68.2365	3,732.42	50.8282	3,732.42	70.6058	3,732.42	69.9601	3,732.42	69.5559	3,732.42	64.7789	3,732.42	68.8011	3,732.42	68.4885	3,732.42	70.4064	3,732.42	66.3076	3,732.42	58.9668
3,864.26	88.3554	3,864.26	88.5445	3,864.26	87.6812	3,864.26	87.1285	3,864.26	86.9737	3,864.26	86.3137	3,864.26	86.1156	3,864.26	85.4237	3,864.26	85.4848	3,864.26	86.0856	3,864.26	86.904	3,864.26	84.8197	3,864.26	83.5186	3,864.26	83.3844	3,864.26	82.367	3,864.26	82.051	3,864.26	77.0685	3,864.26	76.2351	3,864.26	74.4689	3,864.26	75.344	3,864.26	74.5397	3,864.26	71.854	3,864.26	76.2605	3,864.26	71.717	3,864.26	75.7138	3,864.26	66.1408	3,864.26	64.3965	3,864.26	69.8792	3,864.26	70.9151	3,864.26	69.9036	3,864.26	66.3946	3,864.26	68.4046	3,864.26	68.7694	3,864.26	72.2737	3,864.26	65.6273	3,864.26	64.4561
4,000.49	88.5486	4,000.49	88.0715	4,000.49	86.7161	4,000.49	86.6254	4,000.49	86.0657	4,000.49	86.1301	4,000.49	85.4863	4,000.49	85.7701	4,000.49	85.081	4,000.49	85.8872	4,000.49	86.8191	4,000.49	83.1456	4,000.49	82.9335	4,000.49	83.2447	4,000.49	77.8761	4,000.49	76.1163	4,000.49	75.0649	4,000.49	77.4074	4,000.49	75.4415	4,000.49	72.6224	4,000.49	73.6731	4,000.49	71.5294	4,000.49	79.9291	4,000.49	67.3781	4,000.49	74.8706	4,000.49	66.8334	4,000.49	60.751	4,000.49	66.7758	4,000.49	65.7365	4,000.49	67.7507	4,000.49	60.1007	4,000.49	68.2527	4,000.49	67.6535	4,000.49	69.1031	4,000.49	65.3514	4,000.49	56.9725
4,141.11	88.9072	4,141.11	88.5479	4,141.11	86.6777	4,141.11	86.1143	4,141.11	84.0201	4,141.11	85.9844	4,141.11	84.1717	4,141.11	85.0726	4,141.11	85.0271	4,141.11	84.6914	4,141.11	86.7822	4,141.11	83.5394	4,141.11	82.2732	4,141.11	80.3222	4,141.11	76.5085	4,141.11	79.4639	4,141.11	75.4009	4,141.11	77.695	4,141.11	74.0856	4,141.11	74.7391	4,141.11	76.9481	4,141.11	70.3097	4,141.11	79.749	4,141.11	69.944	4,141.11	74.8174	4,141.11	65.923	4,141.11	66.6433	4,141.11	65.0892	4,141.11	66.8376	4,141.11	67.1281	4,141.11	55.093	4,141.11	65.2454	4,141.11	64.2259	4,141.11	70.1316	4,141.11	62.3403	4,141.11	61.0671
4,287.6	88.4746	4,287.6	87.2969	4,287.6	87.253	4,287.6	85.7528	4,287.6	84.4555	4,287.6	84.4143	4,287.6	83.0688	4,287.6	84.4255	4,287.6	84.6988	4,287.6	83.3973	4,287.6	86.3287	4,287.6	82.7672	4,287.6	78.6282	4,287.6	80.1037	4,287.6	77.4976	4,287.6	79.6995	4,287.6	79.3654	4,287.6	72.4149	4,287.6	77.2087	4,287.6	70.5756	4,287.6	77.4722	4,287.6	70.3643	4,287.6	75.6525	4,287.6	67.4902	4,287.6	73.5768	4,287.6	64.7116	4,287.6	70.7422	4,287.6	65.438	4,287.6	62.1497	4,287.6	67.469	4,287.6	62.0285	4,287.6	61.3796	4,287.6	59.9576	4,287.6	69.5872	4,287.6	58.2213	4,287.6	64.5049
4,438.48	87.6152	4,438.48	85.8165	4,438.48	87.2437	4,438.48	84.0544	4,438.48	84.9426	4,438.48	83.8688	4,438.48	83.4193	4,438.48	84.0528	4,438.48	85.582	4,438.48	83.7757	4,438.48	85.5564	4,438.48	81.3453	4,438.48	78.5224	4,438.48	81.8813	4,438.48	81.0925	4,438.48	73.7999	4,438.48	78.7896	4,438.48	76.5941	4,438.48	77.6603	4,438.48	73.3419	4,438.48	71.2714	4,438.48	71.0309	4,438.48	75.0479	4,438.48	66.8552	4,438.48	78.5622	4,438.48	65.7806	4,438.48	71.7461	4,438.48	66.4232	4,438.48	61.0145	4,438.48	63.4737	4,438.48	63.8954	4,438.48	65.614	4,438.48	57.2658	4,438.48	68.2616	4,438.48	62.7672	4,438.48	63.8863
4,595.21	86.7664	4,595.21	85.2469	4,595.21	86.6725	4,595.21	84.9918	4,595.21	84.7501	4,595.21	84.9998	4,595.21	83.5014	4,595.21	83.0288	4,595.21	85.0806	4,595.21	83.6961	4,595.21	83.06	4,595.21	82.9232	4,595.21	81.2631	4,595.21	78.7114	4,595.21	81.8691	4,595.21	79.2806	4,595.21	79.3283	4,595.21	75.7141	4,595.21	71.7626	4,595.21	71.6008	4,595.21	63.418	4,595.21	70.0852	4,595.21	75.66	4,595.21	66.6255	4,595.21	78.1007	4,595.21	69.0261	4,595.21	60.1649	4,595.21	62.8353	4,595.21	62.949	4,595.21	62.2686	4,595.21	56.8488	4,595.21	66.2825	4,595.21	55.1738	4,595.21	65.7187	4,595.21	65.3945	4,595.21	62.458
4,756.35	86.5334	4,756.35	87.3373	4,756.35	85.5719	4,756.35	85.809	4,756.35	85.1056	4,756.35	82.9794	4,756.35	83.8227	4,756.35	83.6802	4,756.35	83.7763	4,756.35	82.8111	4,756.35	79.2642	4,756.35	81.3361	4,756.35	84.0928	4,756.35	80.2589	4,756.35	80.5345	4,756.35	77.8862	4,756.35	78.1065	4,756.35	73.4493	4,756.35	70.7647	4,756.35	71.432	4,756.35	72.6529	4,756.35	68.6892	4,756.35	72.9916	4,756.35	67.0355	4,756.35	71.7267	4,756.35	66.214	4,756.35	71.1465	4,756.35	64.6042	4,756.35	49.5889	4,756.35	66.4376	4,756.35	54.6702	4,756.35	64.5298	4,756.35	55.7028	4,756.35	60.8123	4,756.35	61.0966	4,756.35	55.9784
4,924.8	85.5929	4,924.8	87.4839	4,924.8	85.7123	4,924.8	83.7569	4,924.8	85.5131	4,924.8	82.5897	4,924.8	84.3593	4,924.8	82.643	4,924.8	82.2176	4,924.8	83.9918	4,924.8	78.0788	4,924.8	81.4999	4,924.8	84.7381	4,924.8	80.6477	4,924.8	79.0421	4,924.8	76.5631	4,924.8	74.1059	4,924.8	76.5256	4,924.8	68.7276	4,924.8	71.4451	4,924.8	73.5677	4,924.8	71.3385	4,924.8	73.1347	4,924.8	68.7321	4,924.8	75.8027	4,924.8	69.0553	4,924.8	72.122	4,924.8	67.7767	4,924.8	56.8826	4,924.8	62.1671	4,924.8	56.2777	4,924.8	63.4327	4,924.8	59.7981	4,924.8	62.9396	4,924.8	59.1001	4,924.8	62.7365
5,097.66	86.2569	5,097.66	85.3541	5,097.66	85.1558	5,097.66	83.899	5,097.66	86.1917	5,097.66	84.6067	5,097.66	84.9021	5,097.66	84.0046	5,097.66	82.7835	5,097.66	82.6257	5,097.66	83.4771	5,097.66	83.0696	5,097.66	83.6897	5,097.66	79.7569	5,097.66	78.8706	5,097.66	79.3977	5,097.66	76.1726	5,097.66	74.3603	5,097.66	74.4289	5,097.66	73.3035	5,097.66	69.3955	5,097.66	68.5452	5,097.66	73.1487	5,097.66	65.9388	5,097.66	76.789	5,097.66	67.813	5,097.66	68.9365	5,097.66	67.0307	5,097.66	65.2231	5,097.66	60.1004	5,097.66	56.0429	5,097.66	63.5808	5,097.66	57.8529	5,097.66	68.2181	5,097.66	57.0776	5,097.66	62.3587
5,277.83	86.0754	5,277.83	84.7553	5,277.83	85.2018	5,277.83	86.3606	5,277.83	86.6042	5,277.83	85.595	5,277.83	85.0787	5,277.83	82.7768	5,277.83	81.149	5,277.83	83.8895	5,277.83	84.5646	5,277.83	82.7678	5,277.83	81.3552	5,277.83	81.4196	5,277.83	79.5701	5,277.83	77.0624	5,277.83	74.9614	5,277.83	75.5504	5,277.83	75.7749	5,277.83	71.8346	5,277.83	68.3255	5,277.83	69.6224	5,277.83	69.4699	5,277.83	67.8975	5,277.83	69.4218	5,277.83	68.6929	5,277.83	61.4119	5,277.83	66.1907	5,277.83	61.8822	5,277.83	63.3768	5,277.83	52.1132	5,277.83	65.6865	5,277.83	54.8281	5,277.83	66.3742	5,277.83	63.1936	5,277.83	61.8841
5,463.87	86.8815	5,463.87	86.8248	5,463.87	86.0694	5,463.87	87.2528	5,463.87	85.788	5,463.87	84.1025	5,463.87	85.212	5,463.87	83.1052	5,463.87	81.3687	5,463.87	83.626	5,463.87	84.9378	5,463.87	82.6773	5,463.87	78.998	5,463.87	80.8124	5,463.87	77.8798	5,463.87	78.5412	5,463.87	72.1749	5,463.87	74.2497	5,463.87	70.561	5,463.87	73.3059	5,463.87	67.6096	5,463.87	66.7594	5,463.87	70.1093	5,463.87	65.5615	5,463.87	70.9992	5,463.87	65.3234	5,463.87	70.8441	5,463.87	63.2051	5,463.87	41.1499	5,463.87	64.4019	5,463.87	63.6404	5,463.87	68.5138	5,463.87	53.2534	5,463.87	65.0337	5,463.87	62.3607	5,463.87	65.5219
5,657.23	86.1993	5,657.23	86.9522	5,657.23	86.6534	5,657.23	86.646	5,657.23	85.2167	5,657.23	85.3017	5,657.23	84.2534	5,657.23	83.064	5,657.23	82.2769	5,657.23	83.6842	5,657.23	84.3512	5,657.23	82.4989	5,657.23	78.7073	5,657.23	79.9931	5,657.23	77.2691	5,657.23	78.2171	5,657.23	76.391	5,657.23	73.3547	5,657.23	71.411	5,657.23	69.4632	5,657.23	66.0295	5,657.23	67.0007	5,657.23	69.6457	5,657.23	66.5128	5,657.23	75.0499	5,657.23	61.687	5,657.23	68.8983	5,657.23	60.8625	5,657.23	61.9157	5,657.23	66.366	5,657.23	67.3161	5,657.23	68.6797	5,657.23	49.3161	5,657.23	60.1329	5,657.23	59.8163	5,657.23	62.7962
5,856.45	85.6693	5,856.45	86.4562	5,856.45	87.3133	5,856.45	86.3544	5,856.45	85.38	5,856.45	85.2874	5,856.45	82.8282	5,856.45	82.2242	5,856.45	83.1956	5,856.45	83.156	5,856.45	82.1961	5,856.45	82.0166	5,856.45	79.8094	5,856.45	79.3	5,856.45	76.0349	5,856.45	77.5049	5,856.45	76.8414	5,856.45	73.2893	5,856.45	71.249	5,856.45	70.4258	5,856.45	69.3129	5,856.45	67.2581	5,856.45	68.8218	5,856.45	64.388	5,856.45	72.9702	5,856.45	63.083	5,856.45	69.787	5,856.45	60.2588	5,856.45	59.5705	5,856.45	62.996	5,856.45	63.7913	5,856.45	66.141	5,856.45	56.7993	5,856.45	56.6393	5,856.45	59.4509	5,856.45	59.3651
6,062.99	86.2922	6,062.99	87.2098	6,062.99	88.0784	6,062.99	86.8957	6,062.99	86.8074	6,062.99	84.1086	6,062.99	82.913	6,062.99	82.5777	6,062.99	82.9893	6,062.99	82.3468	6,062.99	81.0836	6,062.99	81.5129	6,062.99	80.2465	6,062.99	78.2122	6,062.99	78.7697	6,062.99	76.3226	6,062.99	77.5351	6,062.99	72.2591	6,062.99	68.9354	6,062.99	69.7808	6,062.99	70.9583	6,062.99	67.1103	6,062.99	70.9514	6,062.99	66.872	6,062.99	75.594	6,062.99	64.5621	6,062.99	71.4488	6,062.99	64.5556	6,062.99	65.4221	6,062.99	62.3928	6,062.99	63.3279	6,062.99	63.611	6,062.99	53.913	6,062.99	57.308	6,062.99	53.5011	6,062.99	58.3874
6,276.86	87.285	6,276.86	88.0179	6,276.86	88.1202	6,276.86	86.9843	6,276.86	86.4607	6,276.86	84.2186	6,276.86	83.6621	6,276.86	82.2003	6,276.86	82.6041	6,276.86	82.0832	6,276.86	80.9162	6,276.86	81.2244	6,276.86	80.0682	6,276.86	79.9023	6,276.86	80.3921	6,276.86	76.5607	6,276.86	76.6251	6,276.86	73.1194	6,276.86	72.0157	6,276.86	69.3972	6,276.86	68.2131	6,276.86	66.2907	6,276.86	67.6623	6,276.86	66.6944	6,276.86	73.4203	6,276.86	62.3196	6,276.86	68.547	6,276.86	64.8719	6,276.86	60.5041	6,276.86	63.3965	6,276.86	63.9635	6,276.86	65.0826	6,276.86	59.6208	6,276.86	59.3006	6,276.86	43.9954	6,276.86	59.2358
6,498.05	88.0427	6,498.05	87.3004	6,498.05	86.7001	6,498.05	86.2993	6,498.05	87.1632	6,498.05	84.5266	6,498.05	84.0805	6,498.05	81.2923	6,498.05	82.0429	6,498.05	82.553	6,498.05	81.6705	6,498.05	81.999	6,498.05	80.4876	6,498.05	78.2615	6,498.05	80.2058	6,498.05	76.8275	6,498.05	69.4806	6,498.05	71.8496	6,498.05	68.0622	6,498.05	69.1866	6,498.05	62.5657	6,498.05	62.0208	6,498.05	69.5094	6,498.05	66.247	6,498.05	76.3747	6,498.05	62.5548	6,498.05	72.1249	6,498.05	63.2722	6,498.05	58.3058	6,498.05	65.3905	6,498.05	59.5247	6,498.05	64.5537	6,498.05	62.4343	6,498.05	57.2088	6,498.05	55.9263	6,498.05	60.8184
6,726.56	88.3688	6,726.56	87.2845	6,726.56	87.0132	6,726.56	87.51	6,726.56	88.06	6,726.56	84.9752	6,726.56	83.9794	6,726.56	82.4644	6,726.56	81.4609	6,726.56	82.7881	6,726.56	81.6627	6,726.56	81.1093	6,726.56	81.483	6,726.56	78.4756	6,726.56	76.9331	6,726.56	75.4525	6,726.56	73.6805	6,726.56	71.4778	6,726.56	70.1384	6,726.56	68.8395	6,726.56	64.0588	6,726.56	64.4726	6,726.56	63.7388	6,726.56	64.2111	6,726.56	74.0957	6,726.56	58.5187	6,726.56	69.9201	6,726.56	64.7554	6,726.56	64.8613	6,726.56	65.5686	6,726.56	48.1189	6,726.56	61.0159	6,726.56	57.5295	6,726.56	60.949	6,726.56	54.2552	6,726.56	58.2262
6,963.87	88.6363	6,963.87	88.3474	6,963.87	88.5974	6,963.87	87.6948	6,963.87	87.542	6,963.87	86.3753	6,963.87	84.9877	6,963.87	82.8286	6,963.87	82.9359	6,963.87	82.3097	6,963.87	81.5472	6,963.87	81.4218	6,963.87	82.4508	6,963.87	78.9133	6,963.87	71.8549	6,963.87	77.3681	6,963.87	78.4825	6,963.87	72.5365	6,963.87	73.943	6,963.87	68.2291	6,963.87	66.7406	6,963.87	65.9295	6,963.87	60.0782	6,963.87	64.2473	6,963.87	73.3911	6,963.87	58.8554	6,963.87	71.5319	6,963.87	65.6397	6,963.87	56.8877	6,963.87	63.9044	6,963.87	57.6308	6,963.87	60.9962	6,963.87	54.0977	6,963.87	62.0401	6,963.87	53.9816	6,963.87	50.1416
7,209.96	89.238	7,209.96	88.5838	7,209.96	88.074	7,209.96	87.6227	7,209.96	86.385	7,209.96	86.8282	7,209.96	85.7647	7,209.96	82.7366	7,209.96	82.6329	7,209.96	82.2928	7,209.96	82.5541	7,209.96	82.3082	7,209.96	81.585	7,209.96	80.1213	7,209.96	78.4165	7,209.96	77.1266	7,209.96	79.3341	7,209.96	73.5391	7,209.96	74.1728	7,209.96	69.435	7,209.96	60.7872	7,209.96	67.2052	7,209.96	58.2235	7,209.96	64.3413	7,209.96	72.205	7,209.96	61.3483	7,209.96	71.0446	7,209.96	63.689	7,209.96	65.0079	7,209.96	66.4379	7,209.96	49.1158	7,209.96	64.0815	7,209.96	41.7481	7,209.96	61.0013	7,209.96	58.8749	7,209.96	53.6248
7,464.84	88.8237	7,464.84	88.225	7,464.84	87.3648	7,464.84	87.4935	7,464.84	86.8467	7,464.84	86.6293	7,464.84	85.7458	7,464.84	82.7473	7,464.84	82.009	7,464.84	82.9047	7,464.84	83.3794	7,464.84	82.8916	7,464.84	78.3255	7,464.84	79.036	7,464.84	80.9761	7,464.84	76.8996	7,464.84	72.8609	7,464.84	70.9813	7,464.84	71.3966	7,464.84	68.9465	7,464.84	67.4943	7,464.84	65.1626	7,464.84	65.1908	7,464.84	63.0909	7,464.84	70.4659	7,464.84	59.9468	7,464.84	70.2753	7,464.84	63.6804	7,464.84	59.0974	7,464.84	65.3157	7,464.84	50.8335	7,464.84	59.816	7,464.84	43.6231	7,464.84	57.9479	7,464.84	58.0829	7,464.84	54.6048
7,727.05	88.8888	7,727.05	88.1276	7,727.05	87.0913	7,727.05	87.7362	7,727.05	88.5882	7,727.05	86.0341	7,727.05	85.8149	7,727.05	82.8217	7,727.05	80.9677	7,727.05	82.9314	7,727.05	83.1542	7,727.05	81.737	7,727.05	77.1064	7,727.05	78.1397	7,727.05	79.7393	7,727.05	74.808	7,727.05	67.1067	7,727.05	70.6125	7,727.05	68.6336	7,727.05	67.8209	7,727.05	67.7127	7,727.05	63.5092	7,727.05	63.5807	7,727.05	62.3197	7,727.05	72.4356	7,727.05	56.2373	7,727.05	70.1593	7,727.05	63.3881	7,727.05	59.9066	7,727.05	65.1214	7,727.05	51.551	7,727.05	57.479	7,727.05	55.5534	7,727.05	58.0979	7,727.05	55.5166	7,727.05	49.3094
7,999.51	88.892	7,999.51	88.0276	7,999.51	88.197	7,999.51	87.3919	7,999.51	88.3968	7,999.51	86.391	7,999.51	85.1951	7,999.51	82.3314	7,999.51	81.3759	7,999.51	82.3736	7,999.51	80.617	7,999.51	80.9096	7,999.51	80.6728	7,999.51	77.8816	7,999.51	73.6326	7,999.51	74.2237	7,999.51	69.8948	7,999.51	72.2881	7,999.51	68.9877	7,999.51	64.8436	7,999.51	56.1926	7,999.51	65.3828	7,999.51	63.1489	7,999.51	60.2839	7,999.51	72.3727	7,999.51	56.731	7,999.51	69.7589	7,999.51	64.0264	7,999.51	55.7541	7,999.51	65.866	7,999.51	48.3838	7,999.51	61.1299	7,999.51	60.0988	7,999.51	61.8171	7,999.51	54.8499	7,999.51	57.0307
8,282.23	88.3453	8,282.23	87.9511	8,282.23	87.8397	8,282.23	87.3006	8,282.23	86.6387	8,282.23	86.1793	8,282.23	82.8265	8,282.23	81.834	8,282.23	82.1041	8,282.23	80.9824	8,282.23	77.1524	8,282.23	80.7865	8,282.23	80.756	8,282.23	77.6172	8,282.23	71.4367	8,282.23	74.5772	8,282.23	73.0395	8,282.23	69.8542	8,282.23	68.721	8,282.23	65.2048	8,282.23	60.2686	8,282.23	64.1861	8,282.23	64.6544	8,282.23	59.3302	8,282.23	69.9156	8,282.23	60.8504	8,282.23	71.4075	8,282.23	63.3867	8,282.23	55.9138	8,282.23	65.5632	8,282.23	54.2805	8,282.23	63.2271	8,282.23	59.266	8,282.23	62.0597	8,282.23	55.179	8,282.23	55.9477
8,573.73	88.5125	8,573.73	88.5048	8,573.73	86.9933	8,573.73	87.1162	8,573.73	85.0389	8,573.73	85.6552	8,573.73	82.6523	8,573.73	81.7255	8,573.73	81.2236	8,573.73	80.7061	8,573.73	79.4174	8,573.73	80.488	8,573.73	78.1945	8,573.73	76.9291	8,573.73	77.4562	8,573.73	73.8566	8,573.73	72.1211	8,573.73	69.0695	8,573.73	66.6021	8,573.73	65.0054	8,573.73	63.0731	8,573.73	58.7438	8,573.73	55.5869	8,573.73	59.4436	8,573.73	71.2313	8,573.73	62.2713	8,573.73	73.1477	8,573.73	62.4636	8,573.73	58.9724	8,573.73	62.0506	8,573.73	58.2289	8,573.73	61.3334	8,573.73	52.0148	8,573.73	58.9028	8,573.73	55.8667	8,573.73	54.0732
8,876.95	88.2123	8,876.95	88.0446	8,876.95	87.5705	8,876.95	86.8073	8,876.95	85.8219	8,876.95	85.3603	8,876.95	83.3327	8,876.95	81.8516	8,876.95	80.3695	8,876.95	79.9142	8,876.95	80.5877	8,876.95	79.6527	8,876.95	73.1235	8,876.95	76.2193	8,876.95	77.3656	8,876.95	72.8623	8,876.95	70.3416	8,876.95	68.1748	8,876.95	65.3124	8,876.95	64.7642	8,876.95	55.9933	8,876.95	58.8318	8,876.95	55.9316	8,876.95	56.6217	8,876.95	71.1872	8,876.95	60.6657	8,876.95	71.9704	8,876.95	62.1477	8,876.95	57.1757	8,876.95	58.8482	8,876.95	57.4542	8,876.95	58.2431	8,876.95	56.0328	8,876.95	55.815	8,876.95	57.4827	8,876.95	50.5534
9,188.96	87.6882	9,188.96	87.8114	9,188.96	87.7829	9,188.96	86.5663	9,188.96	86.2931	9,188.96	84.9509	9,188.96	83.782	9,188.96	80.9539	9,188.96	79.6134	9,188.96	79.1872	9,188.96	78.6618	9,188.96	78.207	9,188.96	75.3209	9,188.96	75.7452	9,188.96	72.9229	9,188.96	70.6359	9,188.96	67.7011	9,188.96	68.283	9,188.96	63.9574	9,188.96	62.3657	9,188.96	56.6035	9,188.96	58.1699	9,188.96	59.0685	9,188.96	54.3747	9,188.96	70.9781	9,188.96	59.4498	9,188.96	72.3678	9,188.96	59.5007	9,188.96	56.798	9,188.96	58.8547	9,188.96	56.1297	9,188.96	53.0655	9,188.96	49.0964	9,188.96	57.6119	9,188.96	53.4578	9,188.96	48.1417
9,514.16	86.8715	9,514.16	87.263	9,514.16	86.6218	9,514.16	85.8578	9,514.16	85.7014	9,514.16	84.5666	9,514.16	83.0291	9,514.16	80.1964	9,514.16	78.7232	9,514.16	78.2064	9,514.16	75.1219	9,514.16	77.7683	9,514.16	76.8536	9,514.16	74.4299	9,514.16	70.0691	9,514.16	69.7722	9,514.16	66.0287	9,514.16	67.3502	9,514.16	63.8674	9,514.16	61.4864	9,514.16	51.8283	9,514.16	58.8292	9,514.16	60.7313	9,514.16	53.0193	9,514.16	71.417	9,514.16	56.3056	9,514.16	73.503	9,514.16	58.3748	9,514.16	56.9421	9,514.16	59.2456	9,514.16	58.6332	9,514.16	45.8838	9,514.16	47.4603	9,514.16	49.9337	9,514.16	53.7322	9,514.16	50.5091
9,849.61	85.9203	9,849.61	86.1607	9,849.61	85.0218	9,849.61	85.1189	9,849.61	84.7453	9,849.61	84.2008	9,849.61	81.8571	9,849.61	79.7381	9,849.61	77.6837	9,849.61	77.3309	9,849.61	76.0906	9,849.61	78.0597	9,849.61	75.4578	9,849.61	74.0301	9,849.61	70.8607	9,849.61	70.2929	9,849.61	69.0962	9,849.61	65.2246	9,849.61	60.3462	9,849.61	59.5905	9,849.61	61.7732	9,849.61	56.3651	9,849.61	60.0598	9,849.61	50.6823	9,849.61	72.0188	9,849.61	58.0265	9,849.61	74.0772	9,849.61	57.9152	9,849.61	59.6541	9,849.61	59.2277	9,849.61	50.8318	9,849.61	52.0255	9,849.61	49.2658	9,849.61	56.1194	9,849.61	50.8294	9,849.61	52.0261
10,196.8	85.1561	10,196.8	85.2046	10,196.8	85.0015	10,196.8	84.49	10,196.8	83.4914	10,196.8	83.3201	10,196.8	81.3304	10,196.8	80.2201	10,196.8	78.5081	10,196.8	76.8829	10,196.8	76.2812	10,196.8	76.3651	10,196.8	73.6219	10,196.8	73.5119	10,196.8	71.9843	10,196.8	68.0333	10,196.8	67.026	10,196.8	65.1506	10,196.8	67.1239	10,196.8	56.3509	10,196.8	59.3772	10,196.8	56.7656	10,196.8	62.6508	10,196.8	49.2848	10,196.8	72.7693	10,196.8	53.8059	10,196.8	74.591	10,196.8	55.9474	10,196.8	59.1083	10,196.8	55.6978	10,196.8	59.1465	10,196.8	53.3416	10,196.8	48.1714	10,196.8	54.7945	10,196.8	55.483	10,196.8	52.7441
10,555.7	84.8878	10,555.7	84.7893	10,555.7	84.84	10,555.7	84.4091	10,555.7	84.3141	10,555.7	83.0045	10,555.7	81.5233	10,555.7	80.4279	10,555.7	80.4278	10,555.7	76.4877	10,555.7	75.2848	10,555.7	75.556	10,555.7	72.7425	10,555.7	72.9992	10,555.7	74.0242	10,555.7	67.0473	10,555.7	64.8185	10,555.7	64.3059	10,555.7	61.2824	10,555.7	57.4005	10,555.7	60.7842	10,555.7	55.4653	10,555.7	62.0995	10,555.7	53.0387	10,555.7	72.4275	10,555.7	56.436	10,555.7	74.3282	10,555.7	55.6847	10,555.7	61.3198	10,555.7	54.0753	10,555.7	53.9158	10,555.7	53.1442	10,555.7	51.6775	10,555.7	53.9267	10,555.7	49.4362	10,555.7	48.0759
10,927.7	84.2522	10,927.7	84.5964	10,927.7	84.5592	10,927.7	84.615	10,927.7	85.3511	10,927.7	83.5707	10,927.7	81.8251	10,927.7	80.5992	10,927.7	79.7617	10,927.7	76.3276	10,927.7	75.7155	10,927.7	76.3732	10,927.7	73.1277	10,927.7	73.2233	10,927.7	70.9798	10,927.7	66.8397	10,927.7	65.8405	10,927.7	64.2161	10,927.7	58.4498	10,927.7	58.3385	10,927.7	57.1401	10,927.7	52.8346	10,927.7	61.8881	10,927.7	53.3756	10,927.7	72.4207	10,927.7	58.39	10,927.7	74.2856	10,927.7	54.5431	10,927.7	60.2025	10,927.7	53.7192	10,927.7	53.5611	10,927.7	46.2239	10,927.7	55.0801	10,927.7	46.7492	10,927.7	50.6765	10,927.7	39.4163
11,313	84.3703	11,313	83.9334	11,313	84.6679	11,313	84.4227	11,313	84.9536	11,313	83.5378	11,313	82.2228	11,313	80.7868	11,313	78.5718	11,313	76.4945	11,313	74.96	11,313	75.6836	11,313	72.4412	11,313	72.3814	11,313	65.615	11,313	66.5418	11,313	63.8394	11,313	63.3184	11,313	61.5928	11,313	57.4558	11,313	57.5713	11,313	53.9092	11,313	63.3697	11,313	46.2704	11,313	72.7528	11,313	56.8397	11,313	74.5085	11,313	53.9233	11,313	60.7623	11,313	54.4523	11,313	53.9532	11,313	39.2674	11,313	53.9899	11,313	44.7305	11,313	46.1582	11,313	44.6291
11,712.9	84.0253	11,712.9	84.3299	11,712.9	84.2073	11,712.9	84.0405	11,712.9	84.8973	11,712.9	83.4227	11,712.9	82.0004	11,712.9	80.3433	11,712.9	78.497	11,712.9	76.1785	11,712.9	73.8453	11,712.9	74.33	11,712.9	68.7442	11,712.9	70.5516	11,712.9	67.9033	11,712.9	64.1453	11,712.9	62.581	11,712.9	60.8888	11,712.9	55.502	11,712.9	54.4481	11,712.9	58.4998	11,712.9	50.1712	11,712.9	62.5435	11,712.9	48.6702	11,712.9	72.6692	11,712.9	54.4298	11,712.9	74.1901	11,712.9	49.5302	11,712.9	59.7621	11,712.9	52.6167	11,712.9	55.67	11,712.9	40.055	11,712.9	53.2301	11,712.9	43.862	11,712.9	48.9718	11,712.9	48.3776
12,126	85.0948	12,126	84.9407	12,126	85.0107	12,126	84.334	12,126	85.3707	12,126	83.4029	12,126	82.7271	12,126	79.9982	12,126	77.8489	12,126	75.4489	12,126	73.2803	12,126	72.4241	12,126	68.8734	12,126	68.6349	12,126	65.6614	12,126	61.1765	12,126	59.8729	12,126	57.4224	12,126	56.063	12,126	49.3173	12,126	54.5517	12,126	51.0302	12,126	62.4141	12,126	46.1874	12,126	71.8824	12,126	47.826	12,126	73.2517	12,126	38.9424	12,126	57.1069	12,126	48.8166	12,126	54.4993	12,126	44.1963	12,126	53.2094	12,126	44.6533	12,126	50.1032	12,126	43.4664
12,553.7	85.6898	12,553.7	85.6896	12,553.7	85.7444	12,553.7	84.4332	12,553.7	85.5214	12,553.7	83.271	12,553.7	82.3304	12,553.7	79.6342	12,553.7	78.3165	12,553.7	73.9275	12,553.7	70.9097	12,553.7	70.7617	12,553.7	66.1212	12,553.7	67.3774	12,553.7	62.6796	12,553.7	59.8828	12,553.7	59.2339	12,553.7	56.6587	12,553.7	58.8428	12,553.7	50.1864	12,553.7	56.7594	12,553.7	49.4135	12,553.7	62.6165	12,553.7	43.5861	12,553.7	71.5756	12,553.7	32.1435	12,553.7	72.6705	12,553.7	46.645	12,553.7	58.1493	12,553.7	46.6454	12,553.7	53.3236	12,553.7	37.6202	12,553.7	55.9786	12,553.7	45.7272	12,553.7	52.3512	12,553.7	48.2902
12,996.1	86.8982	12,996.1	86.7052	12,996.1	86.4612	12,996.1	85.1027	12,996.1	85.6861	12,996.1	83.2659	12,996.1	81.7953	12,996.1	79.6644	12,996.1	78.1969	12,996.1	72.8727	12,996.1	71.5979	12,996.1	70.292	12,996.1	66.019	12,996.1	66.7619	12,996.1	64.414	12,996.1	61.0182	12,996.1	62.7462	12,996.1	57.3766	12,996.1	59.2647	12,996.1	51.3406	12,996.1	56.9113	12,996.1	49.0173	12,996.1	61.7927	12,996.1	33.8922	12,996.1	71.7591	12,996.1	40.4526	12,996.1	72.3612	12,996.1	48.3957	12,996.1	59.6287	12,996.1	45.0173	12,996.1	55.6856	12,996.1	41.6353	12,996.1	56.5661	12,996.1	31.2571	12,996.1	51.9998	12,996.1	42.9611
13,454.6	87.5125	13,454.6	87.154	13,454.6	87.1334	13,454.6	85.3366	13,454.6	85.5958	13,454.6	82.6205	13,454.6	81.5893	13,454.6	79.2031	13,454.6	77.8325	13,454.6	73.0041	13,454.6	70.5394	13,454.6	68.583	13,454.6	67.6256	13,454.6	65.5926	13,454.6	66.4846	13,454.6	61.9826	13,454.6	63.2727	13,454.6	57.6151	13,454.6	59.9518	13,454.6	52.4109	13,454.6	58.862	13,454.6	45.5829	13,454.6	62.1396	13,454.6	35.2748	13,454.6	71.398	13,454.6	36.5009	13,454.6	71.4192	13,454.6	47.7838	13,454.6	60.2529	13,454.6	43.6684	13,454.6	55.2802	13,454.6	45.3723	13,454.6	53.716	13,454.6	48.9686	13,454.6	50.7705	13,454.6	45.5616
13,929.2	87.6421	13,929.2	87.1044	13,929.2	87.0657	13,929.2	84.6759	13,929.2	85.1301	13,929.2	81.4983	13,929.2	80.6465	13,929.2	77.4412	13,929.2	76.2832	13,929.2	72.4671	13,929.2	71.7208	13,929.2	67.8773	13,929.2	67.7317	13,929.2	65.9249	13,929.2	69.4261	13,929.2	59.8716	13,929.2	62.3807	13,929.2	55.8143	13,929.2	58.1086	13,929.2	54.6644	13,929.2	60.3043	13,929.2	35.7905	13,929.2	61.9819	13,929.2	38.2114	13,929.2	70.8683	13,929.2	40.1509	13,929.2	71.6617	13,929.2	45.6027	13,929.2	60.2553	13,929.2	39.4061	13,929.2	52.5111	13,929.2	51.7431	13,929.2	53.521	13,929.2	46.3112	13,929.2	47.6156	13,929.2	35.9102
14,419.9	87.43	14,419.9	87.0171	14,419.9	86.4809	14,419.9	83.9437	14,419.9	84.2558	14,419.9	80.2892	14,419.9	80.2414	14,419.9	76.5648	14,419.9	76.0788	14,419.9	71.4542	14,419.9	72.0599	14,419.9	67.5094	14,419.9	68.9486	14,419.9	64.481	14,419.9	65.1544	14,419.9	59.7586	14,419.9	65.3656	14,419.9	51.3052	14,419.9	58.9249	14,419.9	50.7121	14,419.9	56.2823	14,419.9	40.36	14,419.9	62.114	14,419.9	40.1982	14,419.9	69.7658	14,419.9	27.4097	14,419.9	70.4174	14,419.9	47.5602	14,419.9	60.9797	14,419.9	45.9486	14,419.9	53.3729	14,419.9	47.0253	14,419.9	52.1276	14,419.9	39.7598	14,419.9	46.1527	14,419.9	39.8262
14,928.2	87.5164	14,928.2	87.0304	14,928.2	86.3801	14,928.2	83.7349	14,928.2	83.6206	14,928.2	79.0201	14,928.2	78.5402	14,928.2	76.0318	14,928.2	74.9561	14,928.2	70.6497	14,928.2	70.8589	14,928.2	67.2355	14,928.2	68.9999	14,928.2	63.9297	14,928.2	65.2251	14,928.2	57.8917	14,928.2	56.9778	14,928.2	47.7434	14,928.2	54.3313	14,928.2	47.4556	14,928.2	52.202	14,928.2	36.306	14,928.2	59.1646	14,928.2	49.2897	14,928.2	68.0231	14,928.2	48.3073	14,928.2	69.0815	14,928.2	46.2555	14,928.2	58.2704	14,928.2	29.2132	14,928.2	47.6625	14,928.2	46.1557	14,928.2	51.4414	14,928.2	42.7049	14,928.2	48.566	14,928.2	47.9073
15,455.6	87.859	15,455.6	87.2982	15,455.6	86.1349	15,455.6	83.5543	15,455.6	82.8479	15,455.6	78.8623	15,455.6	76.3883	15,455.6	76.1599	15,455.6	73.7717	15,455.6	72.9956	15,455.6	68.9479	15,455.6	65.8314	15,455.6	62.9561	15,455.6	61.933	15,455.6	61.5569	15,455.6	53.3975	15,455.6	58.0624	15,455.6	48.4862	15,455.6	48.3049	15,455.6	47.741	15,455.6	48.0776	15,455.6	39.9141	15,455.6	57.3239	15,455.6	48.3681	15,455.6	66.9981	15,455.6	42.1193	15,455.6	68.0863	15,455.6	44.9169	15,455.6	54.6338	15,455.6	41.3332	15,455.6	49.523	15,455.6	46.4012	15,455.6	52.6857	15,455.6	43.2252	15,455.6	43.3177	15,455.6	46.1661
16,000.5	88.2311	16,000.5	87.8001	16,000.5	86.2361	16,000.5	84.5864	16,000.5	82.5789	16,000.5	79.7127	16,000.5	76.4617	16,000.5	76.2814	16,000.5	73.1867	16,000.5	72.8232	16,000.5	66.7401	16,000.5	67.2867	16,000.5	61.0945	16,000.5	60.7401	16,000.5	53.3987	16,000.5	52.9279	16,000.5	55.7025	16,000.5	50.4463	16,000.5	39.1123	16,000.5	32.3511	16,000.5	46.6939	16,000.5	43.8814	16,000.5	56.4689	16,000.5	39.1472	16,000.5	66.67	16,000.5	41.703	16,000.5	67.7052	16,000.5	38.0922	16,000.5	54.082	16,000.5	38.7388	16,000.5	46.4537	16,000.5	44.7146	16,000.5	50.7758	16,000.5	41.011	16,000.5	42.397	16,000.5	42.912
16,564.5	87.9209	16,564.5	87.7382	16,564.5	86.0608	16,564.5	85.1351	16,564.5	83.537	16,564.5	80.3584	16,564.5	77.4827	16,564.5	75.4468	16,564.5	73.0332	16,564.5	70.768	16,564.5	64.3302	16,564.5	66.9772	16,564.5	58.3379	16,564.5	61.1317	16,564.5	55.1262	16,564.5	56.7461	16,564.5	52.6587	16,564.5	53.8263	16,564.5	40.9302	16,564.5	40.6963	16,564.5	41.8947	16,564.5	50.315	16,564.5	53.1687	16,564.5	39.6499	16,564.5	65.4619	16,564.5	45.0118	16,564.5	67.1856	16,564.5	23.4017	16,564.5	52.4554	16,564.5	38.9693	16,564.5	45.2273	16,564.5	48.6352	16,564.5	48.1489	16,564.5	45.3818	16,564.5	48.0416	16,564.5	42.2267
17,148.9	86.6096	17,148.9	86.7117	17,148.9	85.6178	17,148.9	85.1945	17,148.9	83.6737	17,148.9	80.4784	17,148.9	76.8385	17,148.9	73.8943	17,148.9	70.3786	17,148.9	67.6023	17,148.9	53.5472	17,148.9	67.2856	17,148.9	53.6973	17,148.9	64.4256	17,148.9	53.9525	17,148.9	60.556	17,148.9	54.5754	17,148.9	56.2406	17,148.9	50.94	17,148.9	48.9315	17,148.9	40.9232	17,148.9	52.3107	17,148.9	49.5229	17,148.9	43.596	17,148.9	62.3709	17,148.9	42.5281	17,148.9	65.8073	17,148.9	39.5208	17,148.9	53.1597	17,148.9	37.9299	17,148.9	45.3689	17,148.9	51.9027	17,148.9	48.9923	17,148.9	46.6133	17,148.9	48.2317	17,148.9	42.774
17,752.4	85.2023	17,752.4	85.3243	17,752.4	85.0765	17,752.4	84.8483	17,752.4	82.8242	17,752.4	79.2605	17,752.4	74.5962	17,752.4	71.3555	17,752.4	61.4152	17,752.4	65.3726	17,752.4	60.3717	17,752.4	68.4484	17,752.4	65.0192	17,752.4	66.422	17,752.4	61.3091	17,752.4	62.8023	17,752.4	57.7597	17,752.4	57.2023	17,752.4	50.8966	17,752.4	49.8859	17,752.4	48.7109	17,752.4	53.085	17,752.4	50.623	17,752.4	45.1896	17,752.4	58.8353	17,752.4	41.1561	17,752.4	63.3142	17,752.4	44.2938	17,752.4	53.1946	17,752.4	42.5924	17,752.4	47.8489	17,752.4	52.193	17,752.4	44.1074	17,752.4	39.3112	17,752.4	38.5776	17,752.4	35.8645
18,379.4	84.9105	18,379.4	84.4165	18,379.4	84.4696	18,379.4	83.4735	18,379.4	81.794	18,379.4	77.1495	18,379.4	71.5678	18,379.4	66.0933	18,379.4	40.1625	18,379.4	66.6021	18,379.4	67.1507	18,379.4	68.6942	18,379.4	65.2527	18,379.4	66.7976	18,379.4	62.0942	18,379.4	61.8965	18,379.4	56.238	18,379.4	56.3641	18,379.4	52.9285	18,379.4	49.3427	18,379.4	49.3855	18,379.4	51.6312	18,379.4	53.4936	18,379.4	43.8038	18,379.4	57.5379	18,379.4	41.9284	18,379.4	61.5166	18,379.4	47.6762	18,379.4	50.9091	18,379.4	42.2368	18,379.4	38.3234	18,379.4	50.4504	18,379.4	46.5468	18,379.4	38.6899	18,379.4	43.1598	18,379.4	40.7172
19,026.9	84.3464	19,026.9	83.2516	19,026.9	83.2277	19,026.9	81.0037	19,026.9	79.1942	19,026.9	73.5846	19,026.9	62.8686	19,026.9	60.7332	19,026.9	61.2415	19,026.9	68.5938	19,026.9	65.8375	19,026.9	68.5275	19,026.9	66.3477	19,026.9	66.7829	19,026.9	62.6924	19,026.9	61.534	19,026.9	56.2445	19,026.9	56.1734	19,026.9	52.5628	19,026.9	50.1289	19,026.9	44.7909	19,026.9	52.6555	19,026.9	52.8292	19,026.9	39.4668	19,026.9	52.1659	19,026.9	42.114	19,026.9	56.7128	19,026.9	49.2474	19,026.9	50.1109	19,026.9	43.2589	19,026.9	44.3874	19,026.9	46.5065	19,026.9	43.6886	19,026.9	49.0489	19,026.9	42.3765	19,026.9	46.7501
19,697.8	82.7895	19,697.8	81.8937	19,697.8	81.6039	19,697.8	78.1636	19,697.8	76.8921	19,697.8	67.8652	19,697.8	55.0544	19,697.8	61.4064	19,697.8	65.1461	19,697.8	67.6397	19,697.8	65.9536	19,697.8	66.9988	19,697.8	62.7136	19,697.8	64.4941	19,697.8	60.7417	19,697.8	59.8929	19,697.8	54.0125	19,697.8	52.8391	19,697.8	49.3686	19,697.8	45.4701	19,697.8	40.9695	19,697.8	49.9753	19,697.8	46.8985	19,697.8	32.4466	19,697.8	43.9	19,697.8	43.7934	19,697.8	48.4591	19,697.8	48.0934	19,697.8	45.678	19,697.8	35.1775	19,697.8	39.9624	19,697.8	47.2695	19,697.8	43.2826	19,697.8	47.8306	19,697.8	39.6425	19,697.8	46.544
19,999.5	82.3523	19,999.5	81.3477	19,999.5	80.791	19,999.5	76.8059	19,999.5	76.563	19,999.5	63.547	19,999.5	58.5004	19,999.5	61.5036	19,999.5	63.8678	19,999.5	66.5495	19,999.5	65.1423	19,999.5	66.1164	19,999.5	62.4447	19,999.5	63.7176	19,999.5	60.3282	19,999.5	59.2163	19,999.5	48.6192	19,999.5	48.8526	19,999.5	50.3126	19,999.5	48.8716	19,999.5	28.9106	19,999.5	52.9359	19,999.5	38.1817	19,999.5	33.9158	19,999.5	40.1913	19,999.5	43.8486	19,999.5	29.0501	19,999.5	53.1515	19,999.5	40.4749	19,999.5	51.4774	19,999.5	45.0745	19,999.5	43.4704	19,999.5	43.9021	19,999.5	45.3937	19,999.5	28.8494	19,999.5	47.9576
