"SPL Horizontal"
"On-Axis"		"10°"		"-10°"		"20°"		"-20°"		"30°"		"-30°"		"40°"		"-40°"		"50°"		"-50°"		"60°"		"-60°"		"70°"		"-70°"		"80°"		"-80°"		"90°"		"-90°"		"100°"		"-100°"		"110°"		"-110°"		"120°"		"-120°"		"130°"		"-130°"		"140°"		"-140°"		"150°"		"-150°"		"160°"		"-160°"		"170°"		"-170°"		"180°"
"Frequency / Hz"	"Sound Pressure Level / dB (re 20 µPa/V)  [2.83V at 1m]"	"Frequency / Hz"	"Sound Pressure Level / dB (re 20 µPa/V)  [2.83V at 1m]"	"Frequency / Hz"	"Sound Pressure Level / dB (re 20 µPa/V)  [2.83V at 1m]"	"Frequency / Hz"	"Sound Pressure Level / dB (re 20 µPa/V)  [2.83V at 1m]"	"Frequency / Hz"	"Sound Pressure Level / dB (re 20 µPa/V)  [2.83V at 1m]"	"Frequency / Hz"	"Sound Pressure Level / dB (re 20 µPa/V)  [2.83V at 1m]"	"Frequency / Hz"	"Sound Pressure Level / dB (re 20 µPa/V)  [2.83V at 1m]"	"Frequency / Hz"	"Sound Pressure Level / dB (re 20 µPa/V)  [2.83V at 1m]"	"Frequency / Hz"	"Sound Pressure Level / dB (re 20 µPa/V)  [2.83V at 1m]"	"Frequency / Hz"	"Sound Pressure Level / dB (re 20 µPa/V)  [2.83V at 1m]"	"Frequency / Hz"	"Sound Pressure Level / dB (re 20 µPa/V)  [2.83V at 1m]"	"Frequency / Hz"	"Sound Pressure Level / dB (re 20 µPa/V)  [2.83V at 1m]"	"Frequency / Hz"	"Sound Pressure Level / dB (re 20 µPa/V)  [2.83V at 1m]"	"Frequency / Hz"	"Sound Pressure Level / dB (re 20 µPa/V)  [2.83V at 1m]"	"Frequency / Hz"	"Sound Pressure Level / dB (re 20 µPa/V)  [2.83V at 1m]"	"Frequency / Hz"	"Sound Pressure Level / dB (re 20 µPa/V)  [2.83V at 1m]"	"Frequency / Hz"	"Sound Pressure Level / dB (re 20 µPa/V)  [2.83V at 1m]"	"Frequency / Hz"	"Sound Pressure Level / dB (re 20 µPa/V)  [2.83V at 1m]"	"Frequency / Hz"	"Sound Pressure Level / dB (re 20 µPa/V)  [2.83V at 1m]"	"Frequency / Hz"	"Sound Pressure Level / dB (re 20 µPa/V)  [2.83V at 1m]"	"Frequency / Hz"	"Sound Pressure Level / dB (re 20 µPa/V)  [2.83V at 1m]"	"Frequency / Hz"	"Sound Pressure Level / dB (re 20 µPa/V)  [2.83V at 1m]"	"Frequency / Hz"	"Sound Pressure Level / dB (re 20 µPa/V)  [2.83V at 1m]"	"Frequency / Hz"	"Sound Pressure Level / dB (re 20 µPa/V)  [2.83V at 1m]"	"Frequency / Hz"	"Sound Pressure Level / dB (re 20 µPa/V)  [2.83V at 1m]"	"Frequency / Hz"	"Sound Pressure Level / dB (re 20 µPa/V)  [2.83V at 1m]"	"Frequency / Hz"	"Sound Pressure Level / dB (re 20 µPa/V)  [2.83V at 1m]"	"Frequency / Hz"	"Sound Pressure Level / dB (re 20 µPa/V)  [2.83V at 1m]"	"Frequency / Hz"	"Sound Pressure Level / dB (re 20 µPa/V)  [2.83V at 1m]"	"Frequency / Hz"	"Sound Pressure Level / dB (re 20 µPa/V)  [2.83V at 1m]"	"Frequency / Hz"	"Sound Pressure Level / dB (re 20 µPa/V)  [2.83V at 1m]"	"Frequency / Hz"	"Sound Pressure Level / dB (re 20 µPa/V)  [2.83V at 1m]"	"Frequency / Hz"	"Sound Pressure Level / dB (re 20 µPa/V)  [2.83V at 1m]"	"Frequency / Hz"	"Sound Pressure Level / dB (re 20 µPa/V)  [2.83V at 1m]"	"Frequency / Hz"	"Sound Pressure Level / dB (re 20 µPa/V)  [2.83V at 1m]"	"Frequency / Hz"	"Sound Pressure Level / dB (re 20 µPa/V)  [2.83V at 1m]"
20.5078	49.9629	20.5078	49.9531	20.5078	49.9579	20.5078	49.9287	20.5078	49.9381	20.5078	49.8906	20.5078	49.9038	20.5078	49.8402	20.5078	49.856	20.5078	49.7789	20.5078	49.7959	20.5078	49.7089	20.5078	49.7252	20.5078	49.6323	20.5078	49.6461	20.5078	49.5516	20.5078	49.5608	20.5078	49.4693	20.5078	49.4721	20.5078	49.3878	20.5078	49.383	20.5078	49.3094	20.5078	49.2967	20.5078	49.2361	20.5078	49.2162	20.5078	49.1697	20.5078	49.1446	20.5078	49.1116	20.5078	49.0845	20.5078	49.0631	20.5078	49.0378	20.5078	49.0254	20.5078	49.0058	20.5078	48.9998	20.5078	48.9891	20.5078	48.9873
21.2402	51.3185	21.2402	51.3097	21.2402	51.3149	21.2402	51.2887	21.2402	51.2988	21.2402	51.256	21.2402	51.271	21.2402	51.2126	21.2402	51.2321	21.2402	51.16	21.2402	51.1833	21.2402	51.0997	21.2402	51.1262	21.2402	51.0337	21.2402	51.0625	21.2402	50.9642	21.2402	50.9942	21.2402	50.8935	21.2402	50.9234	21.2402	50.824	21.2402	50.8524	21.2402	50.7578	21.2402	50.7835	21.2402	50.697	21.2402	50.719	21.2402	50.6433	21.2402	50.661	21.2402	50.5979	21.2402	50.6112	21.2402	50.5619	21.2402	50.5711	21.2402	50.536	21.2402	50.5416	21.2402	50.5206	21.2402	50.5233	21.2402	50.5163
21.9727	52.3193	21.9727	52.3124	21.9727	52.3136	21.9727	52.2929	21.9727	52.2955	21.9727	52.2615	21.9727	52.2656	21.9727	52.2189	21.9727	52.2248	21.9727	52.1665	21.9727	52.1741	21.9727	52.1057	21.9727	52.1152	21.9727	52.0387	21.9727	52.0497	21.9727	51.9676	21.9727	51.9795	21.9727	51.8949	21.9727	51.907	21.9727	51.8228	21.9727	51.8342	21.9727	51.7539	21.9727	51.7637	21.9727	51.6901	21.9727	51.6977	21.9727	51.6333	21.9727	51.6384	21.9727	51.5849	21.9727	51.5876	21.9727	51.546	21.9727	51.547	21.9727	51.5175	21.9727	51.5175	21.9727	51.5	21.9727	51.4998	21.9727	51.494
22.7051	53.1149	22.7051	53.1108	22.7051	53.1062	22.7051	53.0938	22.7051	53.0849	22.7051	53.0642	22.7051	53.0518	22.7051	53.0228	22.7051	53.0076	22.7051	52.9706	22.7051	52.9536	22.7051	52.909	22.7051	52.8913	22.7051	52.8398	22.7051	52.8224	22.7051	52.7652	22.7051	52.7489	22.7051	52.6875	22.7051	52.6728	22.7051	52.6094	22.7051	52.5965	22.7051	52.5334	22.7051	52.5223	22.7051	52.462	22.7051	52.4527	22.7051	52.3976	22.7051	52.3897	22.7051	52.342	22.7051	52.3355	22.7051	52.2969	22.7051	52.2918	22.7051	52.2635	22.7051	52.2599	22.7051	52.2427	22.7051	52.2408	22.7051	52.2351
23.4375	53.8852	23.4375	53.8746	23.4375	53.8833	23.4375	53.8516	23.4375	53.8687	23.4375	53.8168	23.4375	53.842	23.4375	53.7713	23.4375	53.8039	23.4375	53.7163	23.4375	53.7554	23.4375	53.6534	23.4375	53.6978	23.4375	53.5846	23.4375	53.6327	23.4375	53.512	23.4375	53.562	23.4375	53.438	23.4375	53.4878	23.4375	53.3648	23.4375	53.4125	23.4375	53.2947	23.4375	53.3383	23.4375	53.2299	23.4375	53.2678	23.4375	53.1721	23.4375	53.2034	23.4375	53.123	23.4375	53.1472	23.4375	53.0838	23.4375	53.1011	23.4375	53.0556	23.4375	53.0666	23.4375	53.0393	23.4375	53.0446	23.4375	53.0355
24.1699	54.4341	24.1699	54.4338	24.1699	54.4223	24.1699	54.4213	24.1699	54.3988	24.1699	54.3969	24.1699	54.3642	24.1699	54.3612	24.1699	54.3195	24.1699	54.3152	24.1699	54.266	24.1699	54.26	24.1699	54.2051	24.1699	54.1974	24.1699	54.1385	24.1699	54.1293	24.1699	54.0681	24.1699	54.0577	24.1699	53.9959	24.1699	53.985	24.1699	53.9241	24.1699	53.9134	24.1699	53.8549	24.1699	53.8452	24.1699	53.7906	24.1699	53.7823	24.1699	53.7332	24.1699	53.7268	24.1699	53.6847	24.1699	53.6802	24.1699	53.6468	24.1699	53.6439	24.1699	53.6207	24.1699	53.6191	24.1699	53.6072	24.1699	53.6068
25.6348	55.5375	25.6348	55.5258	25.6348	55.5367	25.6348	55.5017	25.6348	55.5236	25.6348	55.4659	25.6348	55.4986	25.6348	55.419	25.6348	55.4626	25.6348	55.3624	25.6348	55.4164	25.6348	55.2976	25.6348	55.3615	25.6348	55.2265	25.6348	55.2994	25.6348	55.1514	25.6348	55.2319	25.6348	55.0747	25.6348	55.1608	25.6348	54.999	25.6348	55.0881	25.6348	54.9268	25.6348	55.016	25.6348	54.8607	25.6348	54.9464	25.6348	54.8028	25.6348	54.8816	25.6348	54.7552	25.6348	54.8233	25.6348	54.7191	25.6348	54.7734	25.6348	54.6957	25.6348	54.7335	25.6348	54.6856	25.6348	54.705	25.6348	54.6887
26.3672	56.0786	26.3672	56.0693	26.3672	56.0755	26.3672	56.0479	26.3672	56.0601	26.3672	56.0147	26.3672	56.0328	26.3672	55.9708	26.3672	55.9945	26.3672	55.9172	26.3672	55.9462	26.3672	55.8554	26.3672	55.889	26.3672	55.7873	26.3672	55.8247	26.3672	55.7148	26.3672	55.7551	26.3672	55.6403	26.3672	55.6822	26.3672	55.5661	26.3672	55.6081	26.3672	55.4945	26.3672	55.5352	26.3672	55.4278	26.3672	55.4657	26.3672	55.3682	26.3672	55.4018	26.3672	55.3175	26.3672	55.3457	26.3672	55.2773	26.3672	55.2992	26.3672	55.2489	26.3672	55.2638	26.3672	55.233	26.3672	55.2405	26.3672	55.2301
27.0996	56.6762	27.0996	56.6645	27.0996	56.6764	27.0996	56.6415	27.0996	56.6651	27.0996	56.608	27.0996	56.6425	27.0996	56.5649	27.0996	56.6094	27.0996	56.5133	27.0996	56.5667	27.0996	56.4549	27.0996	56.5156	27.0996	56.3914	27.0996	56.4574	27.0996	56.3248	27.0996	56.3941	27.0996	56.2571	27.0996	56.3273	27.0996	56.1905	27.0996	56.2592	27.0996	56.1269	27.0996	56.1918	27.0996	56.0684	27.0996	56.1273	27.0996	56.0166	27.0996	56.0678	27.0996	55.9731	27.0996	56.0152	27.0996	55.9391	27.0996	55.9711	27.0996	55.9156	27.0996	55.9371	27.0996	55.9033	27.0996	55.9141	27.0996	55.9028
27.832	57.1925	27.832	57.1832	27.832	57.1918	27.832	57.1641	27.832	57.1811	27.832	57.1358	27.832	57.1607	27.832	57.0991	27.832	57.1312	27.832	57.0552	27.832	57.0935	27.832	57.0052	27.832	57.0487	27.832	56.9508	27.832	56.9981	27.832	56.8936	27.832	56.9433	27.832	56.8353	27.832	56.8859	27.832	56.7777	27.832	56.8277	27.832	56.7227	27.832	56.7704	27.832	56.6719	27.832	56.7158	27.832	56.6269	27.832	56.6657	27.832	56.5889	27.832	56.6214	27.832	56.5593	27.832	56.5845	27.832	56.5388	27.832	56.556	27.832	56.528	27.832	56.5367	27.832	56.5273
29.2969	57.8427	29.2969	57.8328	29.2969	57.8418	29.2969	57.8124	29.2969	57.8302	29.2969	57.7821	29.2969	57.8083	29.2969	57.7427	29.2969	57.7769	29.2969	57.6955	29.2969	57.7367	29.2969	57.6419	29.2969	57.6892	29.2969	57.5837	29.2969	57.6358	29.2969	57.5228	29.2969	57.5781	29.2969	57.461	29.2969	57.518	29.2969	57.4005	29.2969	57.4571	29.2969	57.343	29.2969	57.3975	29.2969	57.2905	29.2969	57.341	29.2969	57.2443	29.2969	57.2891	29.2969	57.2059	29.2969	57.2435	29.2969	57.1761	29.2969	57.2054	29.2969	57.1559	29.2969	57.1759	29.2969	57.1456	29.2969	57.1558	29.2969	57.1456
30.0293	58.3156	30.0293	58.3051	30.0293	58.3149	30.0293	58.2835	30.0293	58.3029	30.0293	58.2515	30.0293	58.2801	30.0293	58.2099	30.0293	58.2471	30.0293	58.1601	30.0293	58.2051	30.0293	58.1036	30.0293	58.1551	30.0293	58.042	30.0293	58.0988	30.0293	57.9775	30.0293	58.0379	30.0293	57.9121	30.0293	57.9741	30.0293	57.8478	30.0293	57.9095	30.0293	57.7868	30.0293	57.8459	30.0293	57.7309	30.0293	57.7855	30.0293	57.6817	30.0293	57.7299	30.0293	57.6406	30.0293	57.6809	30.0293	57.6088	30.0293	57.64	30.0293	57.587	30.0293	57.6083	30.0293	57.5759	30.0293	57.5867	30.0293	57.5758
31.4941	59.0884	31.4941	59.0777	31.4941	59.0871	31.4941	59.0553	31.4941	59.0738	31.4941	59.0216	31.4941	59.0491	31.4941	58.9776	31.4941	59.0136	31.4941	58.9246	31.4941	58.9684	31.4941	58.8643	31.4941	58.9149	31.4941	58.7983	31.4941	58.8547	31.4941	58.7289	31.4941	58.7895	31.4941	58.6582	31.4941	58.7213	31.4941	58.5885	31.4941	58.6521	31.4941	58.5221	31.4941	58.5841	31.4941	58.4611	31.4941	58.5192	31.4941	58.4073	31.4941	58.4595	31.4941	58.3624	31.4941	58.4067	31.4941	58.3277	31.4941	58.3624	31.4941	58.304	31.4941	58.3279	31.4941	58.2921	31.4941	58.3043	31.4941	58.2922
32.2266	59.5103	32.2266	59.5007	32.2266	59.508	32.2266	59.4793	32.2266	59.4938	32.2266	59.4469	32.2266	59.4683	32.2266	59.4042	32.2266	59.4322	32.2266	59.3525	32.2266	59.3865	32.2266	59.2934	32.2266	59.3327	32.2266	59.2287	32.2266	59.2722	32.2266	59.1603	32.2266	59.207	32.2266	59.0906	32.2266	59.139	32.2266	59.0217	32.2266	59.0702	32.2266	58.9557	32.2266	59.0028	32.2266	58.8948	32.2266	58.9388	32.2266	58.8409	32.2266	58.8801	32.2266	58.7954	32.2266	58.8285	32.2266	58.7598	32.2266	58.7856	32.2266	58.735	32.2266	58.7527	32.2266	58.7217	32.2266	58.7307	32.2266	58.7202
33.6914	60.2766	33.6914	60.2666	33.6914	60.275	33.6914	60.2454	33.6914	60.2618	33.6914	60.2134	33.6914	60.2377	33.6914	60.1716	33.6914	60.2032	33.6914	60.1214	33.6914	60.1594	33.6914	60.0642	33.6914	60.1077	33.6914	60.0019	33.6914	60.0497	33.6914	59.9365	33.6914	59.9871	33.6914	59.87	33.6914	59.9219	33.6914	59.8047	33.6914	59.8562	33.6914	59.7424	33.6914	59.7919	33.6914	59.6853	33.6914	59.7309	33.6914	59.6348	33.6914	59.6752	33.6914	59.5926	33.6914	59.6264	33.6914	59.5596	33.6914	59.5858	33.6914	59.5368	33.6914	59.5547	33.6914	59.5247	33.6914	59.5338	33.6914	59.5237
34.4238	60.6455	34.4238	60.6359	34.4238	60.6433	34.4238	60.6148	34.4238	60.6294	34.4238	60.5827	34.4238	60.6042	34.4238	60.5406	34.4238	60.5687	34.4238	60.4897	34.4238	60.5237	34.4238	60.4316	34.4238	60.4708	34.4238	60.3681	34.4238	60.4116	34.4238	60.3013	34.4238	60.3478	34.4238	60.2334	34.4238	60.2815	34.4238	60.1664	34.4238	60.2146	34.4238	60.1025	34.4238	60.1492	34.4238	60.0437	34.4238	60.0872	34.4238	59.9918	34.4238	60.0306	34.4238	59.9482	34.4238	59.9809	34.4238	59.9141	34.4238	59.9397	34.4238	59.8905	34.4238	59.908	34.4238	59.878	34.4238	59.8869	34.4238	59.8767
35.8887	61.3541	35.8887	61.3445	35.8887	61.352	35.8887	61.3235	35.8887	61.3382	35.8887	61.2915	35.8887	61.3133	35.8887	61.2496	35.8887	61.2779	35.8887	61.199	35.8887	61.2332	35.8887	61.1414	35.8887	61.1807	35.8887	61.0786	35.8887	61.1219	35.8887	61.0125	35.8887	61.0586	35.8887	60.9453	35.8887	60.9929	35.8887	60.8791	35.8887	60.9268	35.8887	60.8161	35.8887	60.8622	35.8887	60.7581	35.8887	60.8012	35.8887	60.707	35.8887	60.7455	35.8887	60.6641	35.8887	60.6967	35.8887	60.6307	35.8887	60.6562	35.8887	60.6075	35.8887	60.6251	35.8887	60.5953	35.8887	60.6042	35.8887	60.5942
37.3535	62.0124	37.3535	62.0029	37.3535	62.0098	37.3535	61.9814	37.3535	61.9951	37.3535	61.9487	37.3535	61.9689	37.3535	61.9056	37.3535	61.9319	37.3535	61.8537	37.3535	61.8852	37.3535	61.7944	37.3535	61.8304	37.3535	61.7297	37.3535	61.7692	37.3535	61.6617	37.3535	61.7035	37.3535	61.5926	37.3535	61.6353	37.3535	61.5245	37.3535	61.5669	37.3535	61.4598	37.3535	61.5003	37.3535	61.4002	37.3535	61.4375	37.3535	61.3476	37.3535	61.3804	37.3535	61.3033	37.3535	61.3308	37.3535	61.2686	37.3535	61.2899	37.3535	61.2443	37.3535	61.2588	37.3535	61.231	37.3535	61.2383	37.3535	61.229
38.8184	62.6724	38.8184	62.6639	38.8184	62.6689	38.8184	62.6436	38.8184	62.6534	38.8184	62.6122	38.8184	62.6267	38.8184	62.5705	38.8184	62.5893	38.8184	62.52	38.8184	62.5426	38.8184	62.4621	38.8184	62.488	38.8184	62.3988	38.8184	62.4273	38.8184	62.3322	38.8184	62.3622	38.8184	62.2642	38.8184	62.2949	38.8184	62.1972	38.8184	62.2276	38.8184	62.1332	38.8184	62.1622	38.8184	62.0742	38.8184	62.1007	38.8184	62.0217	38.8184	62.0451	38.8184	61.9774	38.8184	61.9969	38.8184	61.9423	38.8184	61.9574	38.8184	61.9174	38.8184	61.9277	38.8184	61.9033	38.8184	61.9085	38.8184	61.9003
39.5508	62.9872	39.5508	62.9782	39.5508	62.9841	39.5508	62.9574	39.5508	62.9692	39.5508	62.9255	39.5508	62.943	39.5508	62.8835	39.5508	62.9062	39.5508	62.8326	39.5508	62.86	39.5508	62.7745	39.5508	62.806	39.5508	62.7111	39.5508	62.7459	39.5508	62.6444	39.5508	62.6815	39.5508	62.5767	39.5508	62.615	39.5508	62.5101	39.5508	62.5484	39.5508	62.4467	39.5508	62.4837	39.5508	62.3885	39.5508	62.4229	39.5508	62.3371	39.5508	62.3678	39.5508	62.2939	39.5508	62.3198	39.5508	62.2601	39.5508	62.2803	39.5508	62.2364	39.5508	62.2503	39.5508	62.2235	39.5508	62.2306	39.5508	62.2216
41.0156	63.6022	41.0156	63.5932	41.0156	63.5991	41.0156	63.5723	41.0156	63.5839	41.0156	63.5402	41.0156	63.5571	41.0156	63.4978	41.0156	63.5198	41.0156	63.4466	41.0156	63.4729	41.0156	63.3882	41.0156	63.4182	41.0156	63.3244	41.0156	63.3573	41.0156	63.2575	41.0156	63.2922	41.0156	63.1896	41.0156	63.225	41.0156	63.1228	41.0156	63.1579	41.0156	63.0592	41.0156	63.0928	41.0156	63.0009	41.0156	63.0319	41.0156	62.9493	41.0156	62.9767	41.0156	62.906	41.0156	62.929	41.0156	62.872	41.0156	62.8898	41.0156	62.848	41.0156	62.8602	41.0156	62.8347	41.0156	62.8409	41.0156	62.8324
42.4805	64.2007	42.4805	64.1911	42.4805	64.1978	42.4805	64.1694	42.4805	64.1827	42.4805	64.1362	42.4805	64.1557	42.4805	64.0926	42.4805	64.1177	42.4805	64.0399	42.4805	64.0701	42.4805	63.98	42.4805	64.0143	42.4805	63.9147	42.4805	63.9522	42.4805	63.8462	42.4805	63.8859	42.4805	63.7768	42.4805	63.8173	42.4805	63.7087	42.4805	63.7488	42.4805	63.644	42.4805	63.6824	42.4805	63.5846	42.4805	63.6201	42.4805	63.5323	42.4805	63.5638	42.4805	63.4884	42.4805	63.5149	42.4805	63.4541	42.4805	63.4748	42.4805	63.4302	42.4805	63.4443	42.4805	63.4171	42.4805	63.4243	42.4805	63.4151
43.9453	64.8046	43.9453	64.7953	43.9453	64.8011	43.9453	64.7736	43.9453	64.785	43.9453	64.74	43.9453	64.757	43.9453	64.6958	43.9453	64.7178	43.9453	64.6424	43.9453	64.6688	43.9453	64.5814	43.9453	64.6116	43.9453	64.515	43.9453	64.548	43.9453	64.4453	43.9453	64.4803	43.9453	64.3746	43.9453	64.4105	43.9453	64.3053	43.9453	64.3408	43.9453	64.2394	43.9453	64.2735	43.9453	64.179	43.9453	64.2105	43.9453	64.1257	43.9453	64.1536	43.9453	64.081	43.9453	64.1045	43.9453	64.046	43.9453	64.0642	43.9453	64.0214	43.9453	64.0338	43.9453	64.0077	43.9453	64.014	43.9453	64.0052
45.4102	65.3946	45.4102	65.3848	45.4102	65.3915	45.4102	65.3623	45.4102	65.3755	45.4102	65.3278	45.4102	65.3473	45.4102	65.2825	45.4102	65.3076	45.4102	65.2277	45.4102	65.2579	45.4102	65.1653	45.4102	65.1998	45.4102	65.0974	45.4102	65.1351	45.4102	65.026	45.4102	65.066	45.4102	64.9538	45.4102	64.9947	45.4102	64.8828	45.4102	64.9234	45.4102	64.8154	45.4102	64.8544	45.4102	64.7535	45.4102	64.7897	45.4102	64.6991	45.4102	64.7313	45.4102	64.6534	45.4102	64.6805	45.4102	64.6177	45.4102	64.6389	45.4102	64.5928	45.4102	64.6073	45.4102	64.5792	45.4102	64.5866	45.4102	64.5771
47.6074	66.0849	47.6074	66.0757	47.6074	66.0819	47.6074	66.0546	47.6074	66.0668	47.6074	66.0222	47.6074	66.0402	47.6074	65.9797	47.6074	66.0029	47.6074	65.9284	47.6074	65.9563	47.6074	65.8701	47.6074	65.9019	47.6074	65.8068	47.6074	65.8416	47.6074	65.7406	47.6074	65.7774	47.6074	65.6737	47.6074	65.7115	47.6074	65.6084	47.6074	65.6459	47.6074	65.5466	47.6074	65.5827	47.6074	65.4902	47.6074	65.5237	47.6074	65.4408	47.6074	65.4707	47.6074	65.3997	47.6074	65.4249	47.6074	65.3677	47.6074	65.3874	47.6074	65.3455	47.6074	65.3591	47.6074	65.3335	47.6074	65.3404	47.6074	65.3318
49.0723	66.6474	49.0723	66.6392	49.0723	66.6434	49.0723	66.619	49.0723	66.6275	49.0723	66.5876	49.0723	66.6001	49.0723	66.5461	49.0723	66.5623	49.0723	66.496	49.0723	66.5156	49.0723	66.4392	49.0723	66.4617	49.0723	66.3776	49.0723	66.4024	49.0723	66.3136	49.0723	66.3399	49.0723	66.2493	49.0723	66.2764	49.0723	66.1869	49.0723	66.2139	49.0723	66.1283	49.0723	66.1543	49.0723	66.0753	49.0723	66.0995	49.0723	66.0291	49.0723	66.0507	49.0723	65.9909	49.0723	66.0091	49.0723	65.9612	49.0723	65.9755	49.0723	65.9406	49.0723	65.9504	49.0723	65.9292	49.0723	65.9342	49.0723	65.927
50.5371	67.2456	50.5371	67.2358	50.5371	67.2423	50.5371	67.2135	50.5371	67.2262	50.5371	67.1793	50.5371	67.1978	50.5371	67.1345	50.5371	67.1581	50.5371	67.0808	50.5371	67.1085	50.5371	67.0201	50.5371	67.0508	50.5371	66.9545	50.5371	66.9872	50.5371	66.8863	50.5371	66.9197	50.5371	66.8178	50.5371	66.8509	50.5371	66.7512	50.5371	66.7828	50.5371	66.6886	50.5371	66.7179	50.5371	66.6316	50.5371	66.6579	50.5371	66.5819	50.5371	66.6044	50.5371	66.5404	50.5371	66.5588	50.5371	66.508	50.5371	66.522	50.5371	66.4852	50.5371	66.4946	50.5371	66.4723	50.5371	66.4771	50.5371	66.4696
52.7344	67.8265	52.7344	67.8199	52.7344	67.82	52.7344	67.8006	52.7344	67.8006	52.7344	67.7691	52.7344	67.769	52.7344	67.7268	52.7344	67.7263	52.7344	67.6752	52.7344	67.6741	52.7344	67.6163	52.7344	67.6143	52.7344	67.5522	52.7344	67.549	52.7344	67.4852	52.7344	67.4807	52.7344	67.4177	52.7344	67.4117	52.7344	67.3518	52.7344	67.3444	52.7344	67.2895	52.7344	67.2809	52.7344	67.2326	52.7344	67.2233	52.7344	67.1823	52.7344	67.1729	52.7344	67.1398	52.7344	67.1309	52.7344	67.1056	52.7344	67.0982	52.7344	67.0805	52.7344	67.0751	52.7344	67.0647	52.7344	67.0618	52.7344	67.0584
54.1992	68.2801	54.1992	68.2712	54.1992	68.2756	54.1992	68.2492	54.1992	68.2579	54.1992	68.2151	54.1992	68.2276	54.1992	68.1701	54.1992	68.1859	54.1992	68.1158	54.1992	68.1341	54.1992	68.0542	54.1992	68.0742	54.1992	67.9876	54.1992	68.0085	54.1992	67.9184	54.1992	67.9391	54.1992	67.849	54.1992	67.8687	54.1992	67.7816	54.1992	67.7996	54.1992	67.7183	54.1992	67.7341	54.1992	67.6609	54.1992	67.6741	54.1992	67.6106	54.1992	67.6212	54.1992	67.5687	54.1992	67.5767	54.1992	67.5356	54.1992	67.5413	54.1992	67.512	54.1992	67.5156	54.1992	67.498	54.1992	67.4998	54.1992	67.4939
56.3965	68.9969	56.3965	68.986	56.3965	68.9942	56.3965	68.9617	56.3965	68.9778	56.3965	68.9251	56.3965	68.9485	56.3965	68.8774	56.3965	68.9073	56.3965	68.8207	56.3965	68.8559	56.3965	68.7569	56.3965	68.796	56.3965	68.6884	56.3965	68.7301	56.3965	68.6179	56.3965	68.6605	56.3965	68.5477	56.3965	68.5898	56.3965	68.4802	56.3965	68.5202	56.3965	68.4174	56.3965	68.4542	56.3965	68.361	56.3965	68.3935	56.3965	68.3123	56.3965	68.3399	56.3965	68.2721	56.3965	68.2944	56.3965	68.2411	56.3965	68.2579	56.3965	68.2196	56.3965	68.2308	56.3965	68.2078	56.3965	68.2134	56.3965	68.2057
58.5938	69.695	58.5938	69.6835	58.5938	69.6924	58.5938	69.6586	58.5938	69.6761	58.5938	69.6212	58.5938	69.6466	58.5938	69.5726	58.5938	69.605	58.5938	69.5148	58.5938	69.553	58.5938	69.45	58.5938	69.4926	58.5938	69.3807	58.5938	69.4261	58.5938	69.3095	58.5938	69.356	58.5938	69.2388	58.5938	69.2848	58.5938	69.1711	58.5938	69.215	58.5938	69.1084	58.5938	69.1487	58.5938	69.0523	58.5938	69.0881	58.5938	69.0041	58.5938	69.0345	58.5938	68.9646	58.5938	68.9891	58.5938	68.9343	58.5938	68.9527	58.5938	68.9134	58.5938	68.9257	58.5938	68.9021	58.5938	68.9082	58.5938	68.9004
60.0586	70.1043	60.0586	70.093	60.0586	70.1016	60.0586	70.068	60.0586	70.085	60.0586	70.0304	60.0586	70.0552	60.0586	69.9816	60.0586	70.0132	60.0586	69.9237	60.0586	69.9608	60.0586	69.8588	60.0586	69.9001	60.0586	69.7895	60.0586	69.8333	60.0586	69.7183	60.0586	69.763	60.0586	69.648	60.0586	69.6917	60.0586	69.5807	60.0586	69.6221	60.0586	69.5185	60.0586	69.5562	60.0586	69.4631	60.0586	69.4961	60.0586	69.4155	60.0586	69.4433	60.0586	69.3765	60.0586	69.3987	60.0586	69.3466	60.0586	69.3631	60.0586	69.3259	60.0586	69.3368	60.0586	69.3146	60.0586	69.32	60.0586	69.3126
62.2559	70.7349	62.2559	70.724	62.2559	70.7317	62.2559	70.6993	62.2559	70.7144	62.2559	70.6618	62.2559	70.6838	62.2559	70.6132	62.2559	70.641	62.2559	70.5554	62.2559	70.5879	62.2559	70.4907	62.2559	70.5265	62.2559	70.4218	62.2559	70.4593	62.2559	70.3513	62.2559	70.3889	62.2559	70.2817	62.2559	70.3179	62.2559	70.2154	62.2559	70.2489	62.2559	70.1544	62.2559	70.184	62.2559	70.1001	62.2559	70.1253	62.2559	70.0536	62.2559	70.074	62.2559	70.0155	62.2559	70.0312	62.2559	69.9862	62.2559	69.9974	62.2559	69.9657	62.2559	69.9729	62.2559	69.954	62.2559	69.9575	62.2559	69.9513
64.4531	71.2895	64.4531	71.2773	64.4531	71.2872	64.4531	71.2513	64.4531	71.2707	64.4531	71.2124	64.4531	71.2406	64.4531	71.1624	64.4531	71.1983	64.4531	71.1033	64.4531	71.1454	64.4531	71.0376	64.4531	71.0842	64.4531	70.968	64.4531	71.0173	64.4531	70.8973	64.4531	70.9473	64.4531	70.8282	64.4531	70.8769	64.4531	70.7629	64.4531	70.8086	64.4531	70.7034	64.4531	70.7447	64.4531	70.6512	64.4531	70.687	64.4531	70.6071	64.4531	70.6369	64.4531	70.5715	64.4531	70.5951	64.4531	70.5447	64.4531	70.562	64.4531	70.5264	64.4531	70.5378	64.4531	70.5166	64.4531	70.5222	64.4531	70.5152
66.6504	71.9157	66.6504	71.9017	66.6504	71.9145	66.6504	71.873	66.6504	71.8982	66.6504	71.8309	66.6504	71.8676	66.6504	71.7769	66.6504	71.824	66.6504	71.7134	66.6504	71.7693	66.6504	71.6431	66.6504	71.7057	66.6504	71.5687	66.6504	71.6359	66.6504	71.4934	66.6504	71.5626	66.6504	71.4199	66.6504	71.4886	66.6504	71.3509	66.6504	71.4166	66.6504	71.2884	66.6504	71.349	66.6504	71.2339	66.6504	71.2877	66.6504	71.1885	66.6504	71.2341	66.6504	71.1524	66.6504	71.1891	66.6504	71.1257	66.6504	71.1532	66.6504	71.1081	66.6504	71.1264	66.6504	71.0996	66.6504	71.1087	66.6504	71.0997
69.5801	72.642	69.5801	72.6307	69.5801	72.6384	69.5801	72.6048	69.5801	72.62	69.5801	72.5655	69.5801	72.5875	69.5801	72.5145	69.5801	72.5423	69.5801	72.454	69.5801	72.4863	69.5801	72.3865	69.5801	72.4219	69.5801	72.315	69.5801	72.3518	69.5801	72.2422	69.5801	72.2787	69.5801	72.171	69.5801	72.2056	69.5801	72.1037	69.5801	72.1351	69.5801	72.0423	69.5801	72.0695	69.5801	71.9883	69.5801	72.0108	69.5801	71.9426	69.5801	71.9602	69.5801	71.9056	69.5801	71.9185	69.5801	71.8773	69.5801	71.8861	69.5801	71.8576	69.5801	71.863	69.5801	71.8463	69.5801	71.8488	69.5801	71.8433
71.7773	73.1426	71.7773	73.1297	71.7773	73.1401	71.7773	73.102	71.7773	73.1223	71.7773	73.0607	71.7773	73.0901	71.7773	73.0076	71.7773	73.0448	71.7773	72.9452	71.7773	72.9885	71.7773	72.8761	71.7773	72.9236	71.7773	72.8033	71.7773	72.8529	71.7773	72.7299	71.7773	72.7794	71.7773	72.6586	71.7773	72.7059	71.7773	72.5921	71.7773	72.6353	71.7773	72.5321	71.7773	72.5698	71.7773	72.48	71.7773	72.5115	71.7773	72.4365	71.7773	72.4615	71.7773	72.4017	71.7773	72.4205	71.7773	72.3756	71.7773	72.3887	71.7773	72.3578	71.7773	72.366	71.7773	72.348	71.7773	72.3519	71.7773	72.346
73.9746	73.6686	73.9746	73.6548	73.9746	73.6666	73.9746	73.6258	73.9746	73.6488	73.9746	73.5828	73.9746	73.6163	73.9746	73.5278	73.9746	73.5704	73.9746	73.4632	73.9746	73.5131	73.9746	73.392	73.9746	73.4471	73.9746	73.3172	73.9746	73.3752	73.9746	73.2421	73.9746	73.3004	73.9746	73.1695	73.9746	73.2258	73.9746	73.1021	73.9746	73.1541	73.9746	73.0417	73.9746	73.0878	73.9746	72.9897	73.9746	73.0288	73.9746	72.9467	73.9746	72.9782	73.9746	72.9127	73.9746	72.9369	73.9746	72.8876	73.9746	72.9048	73.9746	72.8707	73.9746	72.8817	73.9746	72.8618	73.9746	72.8671	73.9746	72.8605
76.9043	74.3562	76.9043	74.3414	76.9043	74.3544	76.9043	74.3108	76.9043	74.3363	76.9043	74.2656	76.9043	74.3026	76.9043	74.2078	76.9043	74.2549	76.9043	74.1402	76.9043	74.1953	76.9043	74.0657	76.9043	74.1265	76.9043	73.9875	76.9043	74.0514	76.9043	73.9092	76.9043	73.9733	76.9043	73.8336	76.9043	73.8953	76.9043	73.7636	76.9043	73.8204	76.9043	73.701	76.9043	73.751	76.9043	73.6473	76.9043	73.6893	76.9043	73.603	76.9043	73.6366	76.9043	73.5682	76.9043	73.5935	76.9043	73.5424	76.9043	73.5602	76.9043	73.5251	76.9043	73.5363	76.9043	73.5159	76.9043	73.5213	76.9043	73.5146
79.834	74.9789	79.834	74.9654	79.834	74.9761	79.834	74.936	79.834	74.9571	79.834	74.8922	79.834	74.9229	79.834	74.836	79.834	74.8752	79.834	74.7698	79.834	74.8161	79.834	74.697	79.834	74.7485	79.834	74.6207	79.834	74.6752	79.834	74.5442	79.834	74.5995	79.834	74.4708	79.834	74.5245	79.834	74.4029	79.834	74.4529	79.834	74.3426	79.834	74.3872	79.834	74.2911	79.834	74.329	79.834	74.2489	79.834	74.2795	79.834	74.2158	79.834	74.2393	79.834	74.1915	79.834	74.2082	79.834	74.1754	79.834	74.186	79.834	74.1669	79.834	74.172	79.834	74.1658
82.7637	75.5384	82.7637	75.5268	82.7637	75.5336	82.7637	75.4995	82.7637	75.5129	82.7637	75.4578	82.7637	75.4773	82.7637	75.4037	82.7637	75.4286	82.7637	75.34	82.7637	75.3694	82.7637	75.2697	82.7637	75.3024	82.7637	75.1964	82.7637	75.2308	82.7637	75.1234	82.7637	75.158	82.7637	75.0539	82.7637	75.087	82.7637	74.9903	82.7637	75.0206	82.7637	74.9346	82.7637	74.9608	82.7637	74.8877	82.7637	74.9092	82.7637	74.8499	82.7637	74.8665	82.7637	74.8208	82.7637	74.8328	82.7637	74.7996	82.7637	74.8077	82.7637	74.7856	82.7637	74.7904	82.7637	74.7778	82.7637	74.78	82.7637	74.776
85.6934	76.1159	85.6934	76.1042	85.6934	76.1111	85.6934	76.0767	85.6934	76.0901	85.6934	76.0346	85.6934	76.054	85.6934	75.9803	85.6934	76.0048	85.6934	75.9166	85.6934	75.945	85.6934	75.8467	85.6934	75.8776	85.6934	75.7744	85.6934	75.8062	85.6934	75.7029	85.6934	75.734	85.6934	75.6356	85.6934	75.6643	85.6934	75.5748	85.6934	75.6	85.6934	75.5222	85.6934	75.543	85.6934	75.4788	85.6934	75.4948	85.6934	75.4444	85.6934	75.4559	85.6934	75.4185	85.6934	75.426	85.6934	75.4	85.6934	75.4044	85.6934	75.3878	85.6934	75.3901	85.6934	75.381	85.6934	75.3819	85.6934	75.379
88.623	76.6682	88.623	76.6557	88.623	76.6633	88.623	76.6268	88.623	76.6415	88.623	76.583	88.623	76.6039	88.623	76.5268	88.623	76.5524	88.623	76.4614	88.623	76.49	88.623	76.3905	88.623	76.4201	88.623	76.3179	88.623	76.3462	88.623	76.2473	88.623	76.2724	88.623	76.1819	88.623	76.2022	88.623	76.1241	88.623	76.1385	88.623	76.0755	88.623	76.0837	88.623	76.0365	88.623	76.039	88.623	76.0067	88.623	76.0047	88.623	75.9849	88.623	75.98	88.623	75.9697	88.623	75.9638	88.623	75.9595	88.623	75.9545	88.623	75.9532	88.623	75.9503	88.623	75.9501
91.5527	77.2965	91.5527	77.2819	91.5527	77.292	91.5527	77.249	91.5527	77.2685	91.5527	77.1996	91.5527	77.2274	91.5527	77.1364	91.5527	77.1708	91.5527	77.0629	91.5527	77.1017	91.5527	76.9832	91.5527	77.0237	91.5527	76.9015	91.5527	76.9409	91.5527	76.8221	91.5527	76.8577	91.5527	76.7485	91.5527	76.7779	91.5527	76.6837	91.5527	76.7053	91.5527	76.6293	91.5527	76.6424	91.5527	76.5858	91.5527	76.5909	91.5527	76.5528	91.5527	76.5513	91.5527	76.5288	91.5527	76.523	91.5527	76.5121	91.5527	76.5046	91.5527	76.5008	91.5527	76.4942	91.5527	76.4937	91.5527	76.4898	91.5527	76.49
94.4824	77.8493	94.4824	77.833	94.4824	77.8457	94.4824	77.7976	94.4824	77.8224	94.4824	77.7449	94.4824	77.7806	94.4824	77.6776	94.4824	77.7226	94.4824	77.5992	94.4824	77.6511	94.4824	77.5138	94.4824	77.5699	94.4824	77.4257	94.4824	77.483	94.4824	77.3394	94.4824	77.3946	94.4824	77.2586	94.4824	77.3089	94.4824	77.1864	94.4824	77.2294	94.4824	77.1249	94.4824	77.1591	94.4824	77.0748	94.4824	77.0999	94.4824	77.036	94.4824	77.0526	94.4824	77.0073	94.4824	77.0169	94.4824	76.9873	94.4824	76.9918	94.4824	76.9742	94.4824	76.9758	94.4824	76.9668	94.4824	76.9671	94.4824	76.9644
98.1445	78.3635	98.1445	78.3485	98.1445	78.359	98.1445	78.3148	98.1445	78.3353	98.1445	78.2643	98.1445	78.2937	98.1445	78.1998	98.1445	78.2365	98.1445	78.1249	98.1445	78.1669	98.1445	78.0438	98.1445	78.0886	98.1445	77.9608	98.1445	78.0058	98.1445	77.8804	98.1445	77.9228	98.1445	77.8063	98.1445	77.8435	98.1445	77.7412	98.1445	77.7714	98.1445	77.6869	98.1445	77.7091	98.1445	77.6439	98.1445	77.658	98.1445	77.6115	98.1445	77.6185	98.1445	77.5884	98.1445	77.59	98.1445	77.5726	98.1445	77.5711	98.1445	77.5624	98.1445	77.5599	98.1445	77.5564	98.1445	77.5547	98.1445	77.5538
101.807	78.9538	101.807	78.9392	101.807	78.9479	101.807	78.905	101.807	78.9219	101.807	78.8532	101.807	78.8772	101.807	78.7867	101.807	78.8163	101.807	78.7095	101.807	78.7426	101.807	78.626	101.807	78.6603	101.807	78.541	101.807	78.5739	101.807	78.4591	101.807	78.488	101.807	78.3843	101.807	78.4071	101.807	78.3195	101.807	78.3348	101.807	78.2665	101.807	78.2737	101.807	78.2256	101.807	78.2252	101.807	78.1958	101.807	78.1895	101.807	78.1753	101.807	78.1654	101.807	78.1617	101.807	78.151	101.807	78.153	101.807	78.1441	101.807	78.1472	101.807	78.1423	101.807	78.1436
105.469	79.5439	105.469	79.5275	105.469	79.5387	105.469	79.4905	105.469	79.512	105.469	79.435	105.469	79.4655	105.469	79.3642	105.469	79.4016	105.469	79.2823	105.469	79.3239	105.469	79.1941	105.469	79.2366	105.469	79.1045	105.469	79.1448	105.469	79.0184	105.469	79.0533	105.469	78.9401	105.469	78.967	105.469	78.8725	105.469	78.8897	105.469	78.8173	105.469	78.8245	105.469	78.7748	105.469	78.7729	105.469	78.744	105.469	78.7352	105.469	78.7229	105.469	78.71	105.469	78.7089	105.469	78.6954	105.469	78.6997	105.469	78.6886	105.469	78.6935	105.469	78.6873	105.469	78.6893
109.131	80.0667	109.131	80.0478	109.131	80.0635	109.131	80.0078	109.131	80.0384	109.131	79.9491	109.131	79.993	109.131	79.875	109.131	79.9298	109.131	79.7898	109.131	79.8523	109.131	79.6986	109.131	79.7651	109.131	79.6066	109.131	79.673	109.131	79.5189	109.131	79.581	109.131	79.4397	109.131	79.4941	109.131	79.3722	109.131	79.4161	109.131	79.3182	109.131	79.3502	109.131	79.2776	109.131	79.2979	109.131	79.2492	109.131	79.2592	109.131	79.2308	109.131	79.2332	109.131	79.2196	109.131	79.2176	109.131	79.2131	109.131	79.2097	109.131	79.2093	109.131	79.2069	109.131	79.2072
112.793	80.5371	112.793	80.5185	112.793	80.5332	112.793	80.4786	112.793	80.5073	112.793	80.4197	112.793	80.4609	112.793	80.3454	112.793	80.3968	112.793	80.2602	112.793	80.3189	112.793	80.1694	112.793	80.2318	112.793	80.0785	112.793	80.1407	112.793	79.9928	112.793	80.0508	112.793	79.9168	112.793	79.9672	112.793	79.8535	112.793	79.8938	112.793	79.8045	112.793	79.8335	112.793	79.7697	112.793	79.7875	112.793	79.7473	112.793	79.7554	112.793	79.7347	112.793	79.7357	112.793	79.7287	112.793	79.7257	112.793	79.7262	112.793	79.7222	112.793	79.7249	112.793	79.7223	112.793	79.7236
116.455	80.9683	116.455	80.9495	116.455	80.9637	116.455	80.9084	116.455	80.9361	116.455	80.8476	116.455	80.8869	116.455	80.7709	116.455	80.8194	116.455	80.6832	116.455	80.7377	116.455	80.5901	116.455	80.6468	116.455	80.4976	116.455	80.5524	116.455	80.4112	116.455	80.4601	116.455	80.3356	116.455	80.3754	116.455	80.274	116.455	80.3025	116.455	80.2279	116.455	80.2442	116.455	80.1967	116.455	80.2018	116.455	80.1783	116.455	80.1745	116.455	80.1697	116.455	80.1601	116.455	80.167	116.455	80.1555	116.455	80.1667	116.455	80.1568	116.455	80.1663	116.455	80.1606	116.455	80.1643
120.85	81.5271	120.85	81.506	120.85	81.5228	120.85	81.4609	120.85	81.4933	120.85	81.3945	120.85	81.4406	120.85	81.311	120.85	81.3676	120.85	81.2155	120.85	81.2789	120.85	81.1142	120.85	81.1798	120.85	81.0134	120.85	81.0764	120.85	80.9193	120.85	80.9751	120.85	80.837	120.85	80.8818	120.85	80.77	120.85	80.8013	120.85	80.7199	120.85	80.737	120.85	80.6863	120.85	80.6903	120.85	80.6667	120.85	80.6605	120.85	80.6578	120.85	80.6452	120.85	80.6553	120.85	80.6408	120.85	80.6553	120.85	80.643	120.85	80.6549	120.85	80.6479	120.85	80.6525
125.244	82.095	125.244	82.0737	125.244	82.0903	125.244	82.0278	125.244	82.0599	125.244	81.9602	125.244	82.0055	125.244	81.8755	125.244	81.9306	125.244	81.7793	125.244	81.8398	125.244	81.6781	125.244	81.7388	125.244	81.5786	125.244	81.6342	125.244	81.4873	125.244	81.5325	125.244	81.4092	125.244	81.4399	125.244	81.3478	125.244	81.3617	125.244	81.3042	125.244	81.3011	125.244	81.2774	125.244	81.2596	125.244	81.2643	125.244	81.2361	125.244	81.2608	125.244	81.2279	125.244	81.2622	125.244	81.2306	125.244	81.2643	125.244	81.2396	125.244	81.2637	125.244	81.2502	125.244	81.2589
129.639	82.5333	129.639	82.5124	129.639	82.5266	129.639	82.465	129.639	82.4924	129.639	82.3943	129.639	82.4329	129.639	82.3051	129.639	82.3517	129.639	82.2033	129.639	82.2538	129.639	82.0959	129.639	82.1454	129.639	81.9903	129.639	82.0336	129.639	81.8934	129.639	81.9256	129.639	81.811	129.639	81.828	129.639	81.7467	129.639	81.7464	129.639	81.7019	129.639	81.6844	129.639	81.6753	129.639	81.6433	129.639	81.6634	129.639	81.6218	129.639	81.6616	129.639	81.6168	129.639	81.6646	129.639	81.6233	129.639	81.6676	129.639	81.636	129.639	81.667	129.639	81.6499	129.639	81.661
134.033	82.9617	134.033	82.9374	134.033	82.9557	134.033	82.8842	134.033	82.9195	134.033	82.8052	134.033	82.8554	134.033	82.7055	134.033	82.7669	134.033	82.5914	134.033	82.6593	134.033	82.4704	134.033	82.5391	134.033	82.3505	134.033	82.4138	134.033	82.2397	134.033	82.2914	134.033	82.1444	134.033	82.1794	134.033	82.0691	134.033	82.0842	134.033	82.0156	134.033	82.0103	134.033	81.983	134.033	81.9597	134.033	81.9675	134.033	81.9314	134.033	81.964	134.033	81.9221	134.033	81.9665	134.033	81.9264	134.033	81.9697	134.033	81.9383	134.033	81.9693	134.033	81.9522	134.033	81.9634
138.428	83.3083	138.428	83.2833	138.428	83.3028	138.428	83.2292	138.428	83.267	138.428	83.149	138.428	83.2027	138.428	83.0476	138.428	83.1136	138.428	82.9311	138.428	83.0045	138.428	82.8067	138.428	82.8818	138.428	82.6822	138.428	82.7526	138.428	82.5652	138.428	82.6245	138.428	82.4623	138.428	82.5053	138.428	82.3782	138.428	82.4013	138.428	82.3152	138.428	82.3176	138.428	82.2726	138.428	82.2564	138.428	82.2477	138.428	82.2177	138.428	82.2357	138.428	82.1987	138.428	82.2313	138.428	82.1948	138.428	82.2293	138.428	82.2004	138.428	82.226	138.428	82.2101	138.428	82.2195
143.555	83.5996	143.555	83.5725	143.555	83.5962	143.555	83.5167	143.555	83.5626	143.555	83.4356	143.555	83.5007	143.555	83.3341	143.555	83.4142	143.555	83.2189	143.555	83.308	143.555	83.0975	143.555	83.1887	143.555	82.9778	143.555	83.0635	143.555	82.8674	143.555	82.94	143.555	82.7725	143.555	82.8258	143.555	82.6972	143.555	82.7271	143.555	82.643	143.555	82.6488	143.555	82.6089	143.555	82.593	143.555	82.5912	143.555	82.5592	143.555	82.5851	143.555	82.5447	143.555	82.5848	143.555	82.5447	143.555	82.5854	143.555	82.5535	143.555	82.5831	143.555	82.5655	143.555	82.5763
148.682	83.9426	148.682	83.9147	148.682	83.939	148.682	83.857	148.682	83.9042	148.682	83.7731	148.682	83.8405	148.682	83.6689	148.682	83.7521	148.682	83.5515	148.682	83.6448	148.682	83.4295	148.682	83.5257	148.682	83.3117	148.682	83.403	148.682	83.2063	148.682	83.2848	148.682	83.1199	148.682	83.1789	148.682	83.0565	148.682	83.0916	148.682	83.0169	148.682	83.027	148.682	82.9988	148.682	82.9862	148.682	82.9975	148.682	82.9677	148.682	83.0064	148.682	82.9675	148.682	83.019	148.682	82.9796	148.682	83.0292	148.682	82.9977	148.682	83.033	148.682	83.0155	148.682	83.0283
153.809	84.2948	153.809	84.2637	153.809	84.2912	153.809	84.1998	153.809	84.2534	153.809	84.1071	153.809	84.1836	153.809	83.9914	153.809	84.0861	153.809	83.8607	153.809	83.9671	153.809	83.7241	153.809	83.8343	153.809	83.5914	153.809	83.6964	153.809	83.4721	153.809	83.5629	153.809	83.374	153.809	83.4428	153.809	83.3019	153.809	83.3436	153.809	83.2573	153.809	83.2703	153.809	83.2377	153.809	83.2248	153.809	83.2379	153.809	83.2055	153.809	83.2503	153.809	83.2073	153.809	83.267	153.809	83.2235	153.809	83.281	153.809	83.246	153.809	83.2869	153.809	83.2676	153.809	83.2823
159.668	84.4181	159.668	84.3879	159.668	84.4146	159.668	84.3255	159.668	84.3775	159.668	84.2347	159.668	84.3092	159.668	84.1213	159.668	84.2137	159.668	83.9927	159.668	84.0968	159.668	83.8577	159.668	83.9658	159.668	83.7256	159.668	83.8291	159.668	83.6054	159.668	83.6954	159.668	83.5045	159.668	83.5733	159.668	83.4277	159.668	83.4702	159.668	83.3766	159.668	83.3912	159.668	83.3495	159.668	83.3385	159.668	83.3416	159.668	83.3111	159.668	83.3462	159.668	83.305	159.668	83.3561	159.668	83.314	159.668	83.3648	159.668	83.3308	159.668	83.3675	159.668	83.3487	159.668	83.362
164.795	84.4698	164.795	84.4391	164.795	84.4657	164.795	84.3754	164.795	84.4269	164.795	84.2831	164.795	84.3565	164.795	84.1689	164.795	84.2591	164.795	84.0415	164.795	84.1418	164.795	83.9106	164.795	84.0127	164.795	83.7868	164.795	83.8812	164.795	83.6793	164.795	83.7569	164.795	83.5954	164.795	83.6485	164.795	83.539	164.795	83.5631	164.795	83.5102	164.795	83.5047	164.795	83.5055	164.795	83.4742	164.795	83.5183	164.795	83.4688	164.795	83.5406	164.795	83.483	164.795	83.5644	164.795	83.5093	164.795	83.5826	164.795	83.5397	164.795	83.5901	164.795	83.5667	164.795	83.5846
170.654	84.5866	170.654	84.5476	170.654	84.5843	170.654	84.4694	170.654	84.5408	170.654	84.3569	170.654	84.4589	170.654	84.2175	170.654	84.3438	170.654	84.0611	170.654	84.203	170.654	83.8994	170.654	84.0458	170.654	83.7449	170.654	83.8834	170.654	83.6099	170.654	83.7277	170.654	83.504	170.654	83.5902	170.654	83.433	170.654	83.4805	170.654	83.3975	170.654	83.4048	170.654	83.3933	170.654	83.3649	170.654	83.4122	170.654	83.3577	170.654	83.4435	170.654	83.3761	170.654	83.4766	170.654	83.4104	170.654	83.502	170.654	83.4498	170.654	83.5133	170.654	83.4847	170.654	83.5073
176.514	84.8918	176.514	84.8506	176.514	84.8925	176.514	84.7707	176.514	84.8528	176.514	84.657	176.514	84.7757	176.514	84.5165	176.514	84.6662	176.514	84.3588	176.514	84.5314	176.514	84.1955	176.514	84.3804	176.514	84.0389	176.514	84.2235	176.514	83.901	176.514	84.072	176.514	83.7916	176.514	83.9366	176.514	83.7168	176.514	83.8266	176.514	83.6779	176.514	83.7482	176.514	83.6713	176.514	83.7033	176.514	83.6892	176.514	83.6896	176.514	83.7214	176.514	83.7007	176.514	83.757	176.514	83.7273	176.514	83.7864	176.514	83.7593	176.514	83.8029	176.514	83.7869	176.514	83.8029
183.105	84.9932	183.105	84.9529	183.105	84.99	183.105	84.8713	183.105	84.9436	183.105	84.7531	183.105	84.8572	183.105	84.606	183.105	84.7362	183.105	84.4401	183.105	84.5882	183.105	84.2674	183.105	84.4232	183.105	84.1009	183.105	84.2526	183.105	83.9532	183.105	84.0886	183.105	83.8348	183.105	83.9429	183.105	83.752	183.105	83.8254	183.105	83.7065	183.105	83.7426	183.105	83.6946	183.105	83.6963	183.105	83.7084	183.105	83.6834	183.105	83.7373	183.105	83.6968	183.105	83.7704	183.105	83.7265	183.105	83.7979	183.105	83.7616	183.105	83.8124	183.105	83.7921	183.105	83.8104
189.697	85.0766	189.697	85.0316	189.697	85.0756	189.697	84.943	189.697	85.029	189.697	84.8163	189.697	84.9402	189.697	84.6599	189.697	84.815	189.697	84.4851	189.697	84.6619	189.697	84.3056	189.697	84.4918	189.697	84.1361	189.697	84.3172	189.697	83.9908	189.697	84.1516	189.697	83.8811	189.697	84.0081	189.697	83.8136	189.697	83.8976	189.697	83.7887	189.697	83.8267	189.697	83.8008	189.697	83.7969	189.697	83.8394	189.697	83.8037	189.697	83.8917	189.697	83.8381	189.697	83.9442	189.697	83.8876	189.697	83.9856	189.697	83.9395	189.697	84.0077	189.697	83.982	189.697	84.0063
196.289	85.1907	196.289	85.1441	196.289	85.1891	196.289	85.0522	196.289	85.1396	196.289	84.9208	196.289	85.0452	196.289	84.7589	196.289	84.9117	196.289	84.578	196.289	84.7476	196.289	84.3922	196.289	84.5638	196.289	84.2162	196.289	84.3734	196.289	84.0643	196.289	84.1908	196.289	83.9477	196.289	84.0299	196.289	83.8727	196.289	83.903	196.289	83.8398	196.289	83.8182	196.289	83.8435	196.289	83.778	196.289	83.8735	196.289	83.7786	196.289	83.9172	196.289	83.8108	196.289	83.9612	196.289	83.862	196.289	83.9943	196.289	83.9183	196.289	84.0082	196.289	83.9671	196.289	83.9989
202.881	85.0141	202.881	84.9533	202.881	85.023	202.881	84.8437	202.881	84.98	202.881	84.6922	202.881	84.8885	202.881	84.5092	202.881	84.7546	202.881	84.3085	202.881	84.5877	202.881	84.1068	202.881	84.3997	202.881	83.9219	202.881	84.205	202.881	83.7704	202.881	84.0194	202.881	83.6647	202.881	83.8583	202.881	83.6109	202.881	83.735	202.881	83.6068	202.881	83.6581	202.881	83.6435	202.881	83.6294	202.881	83.7066	202.881	83.6443	202.881	83.7802	202.881	83.6918	202.881	83.8486	202.881	83.7574	202.881	83.8991	202.881	83.8258	202.881	83.9232	202.881	83.8826	202.881	83.9173
210.205	85.0916	210.205	85.0185	210.205	85.1063	210.205	84.8899	210.205	85.0633	210.205	84.7121	210.205	84.9661	210.205	84.4954	210.205	84.8214	210.205	84.2547	210.205	84.6385	210.205	84.0083	210.205	84.4301	210.205	83.7773	210.205	84.2111	210.205	83.583	210.205	83.9988	210.205	83.4426	210.205	83.8105	210.205	83.3661	210.205	83.6616	210.205	83.3535	210.205	83.563	210.205	83.3948	210.205	83.5182	210.205	83.4727	210.205	83.5227	210.205	83.567	210.205	83.5648	210.205	83.6578	210.205	83.6281	210.205	83.7291	210.205	83.6948	210.205	83.77	210.205	83.7483	210.205	83.7759
217.529	85.3288	217.529	85.2611	217.529	85.3374	217.529	85.136	217.529	85.288	217.529	84.9584	217.529	85.1842	217.529	84.7363	217.529	85.032	217.529	84.4821	217.529	84.8402	217.529	84.2118	217.529	84.6197	217.529	83.9447	217.529	84.3842	217.529	83.7017	217.529	84.1493	217.529	83.5024	217.529	83.9313	217.529	83.3612	217.529	83.7456	217.529	83.2843	217.529	83.6042	217.529	83.2677	217.529	83.513	217.529	83.2989	217.529	83.4704	217.529	83.3597	217.529	83.4676	217.529	83.4305	217.529	83.4905	217.529	83.4941	217.529	83.5227	217.529	83.5379	217.529	83.5486	217.529	83.5559
225.586	85.0139	225.586	84.9524	225.586	85.0179	225.586	84.8353	225.586	84.9654	225.586	84.6688	225.586	84.8611	225.586	84.4628	225.586	84.7126	225.586	84.2318	225.586	84.5305	225.586	83.9937	225.586	84.3284	225.586	83.7693	225.586	84.1221	225.586	83.5793	225.586	83.9287	225.586	83.4411	225.586	83.765	225.586	83.3653	225.586	83.6446	225.586	83.353	225.586	83.5753	225.586	83.3958	225.586	83.5577	225.586	83.4777	225.586	83.5843	225.586	83.5793	225.586	83.6413	225.586	83.6807	225.586	83.7116	225.586	83.7651	225.586	83.7776	225.586	83.8204	225.586	83.8241	225.586	83.8402
232.91	84.9614	232.91	84.8991	232.91	84.9584	232.91	84.7738	232.91	84.8916	232.91	84.5921	232.91	84.7658	232.91	84.3651	232.91	84.5894	232.91	84.1088	232.91	84.3744	232.91	83.8439	232.91	84.1361	232.91	83.5946	232.91	83.8929	232.91	83.3852	232.91	83.6658	232.91	83.2365	232.91	83.4752	232.91	83.1606	232.91	83.3388	232.91	83.1581	232.91	83.2669	232.91	83.2176	232.91	83.2605	232.91	83.3194	232.91	83.3098	232.91	83.4395	232.91	83.3972	232.91	83.5549	232.91	83.5009	232.91	83.6461	232.91	83.5989	232.91	83.6995	232.91	83.6725	232.91	83.7083
241.699	85.1653	241.699	85.1007	241.699	85.157	241.699	84.9647	241.699	85.0776	241.699	84.7626	241.699	84.9318	241.699	84.5043	241.699	84.7275	241.699	84.2047	241.699	84.4761	241.699	83.8849	241.699	84.1924	241.699	83.5709	241.699	83.8956	241.699	83.2917	241.699	83.608	241.699	83.0746	241.699	83.354	241.699	82.9388	241.699	83.1561	241.699	82.8905	241.699	83.0306	241.699	82.9206	241.699	82.983	241.699	83.0078	241.699	83.0058	241.699	83.1242	241.699	83.0805	241.699	83.2419	241.699	83.1817	241.699	83.337	241.699	83.283	241.699	83.393	241.699	83.3617	241.699	83.4012
249.756	84.7491	249.756	84.6901	249.756	84.7358	249.756	84.5604	249.756	84.6517	249.756	84.3653	249.756	84.5014	249.756	84.1144	249.756	84.2925	249.756	83.8221	249.756	84.0359	249.756	83.5082	249.756	83.7462	249.756	83.1974	249.756	83.4418	249.756	82.9172	249.756	83.1446	249.756	82.6937	249.756	82.8787	249.756	82.5462	249.756	82.667	249.756	82.482	249.756	82.527	249.756	82.4939	249.756	82.4663	249.756	82.5628	249.756	82.4794	249.756	82.6621	249.756	82.5489	249.756	82.7645	249.756	82.6498	249.756	82.8463	249.756	82.755	249.756	82.8907	249.756	82.8404	249.756	82.8886
258.545	85.029	258.545	84.9541	258.545	85.0246	258.545	84.8016	258.545	84.9426	258.545	84.5765	258.545	84.7875	258.545	84.2884	258.545	84.5667	258.545	83.9525	258.545	84.2911	258.545	83.5899	258.545	83.9753	258.545	83.2282	258.545	83.6383	258.545	82.8991	258.545	83.3032	258.545	82.6341	258.545	82.9962	258.545	82.4573	258.545	82.7432	258.545	82.3782	258.545	82.5649	258.545	82.389	258.545	82.4716	258.545	82.4663	258.545	82.46	258.545	82.5788	258.545	82.5129	258.545	82.6945	258.545	82.6045	258.545	82.7867	258.545	82.7057	258.545	82.8371	258.545	82.7901	258.545	82.8377
268.066	85.2754	268.066	85.212	268.066	85.2638	268.066	85.0748	268.066	85.1792	268.066	84.8687	268.066	85.0266	268.066	84.6026	268.066	84.8136	268.066	84.2908	268.066	84.551	268.066	83.9526	268.066	84.2532	268.066	83.6128	268.066	83.9378	268.066	83.2996	268.066	83.6261	268.066	83.0406	268.066	83.3414	268.066	82.8576	268.066	83.1062	268.066	82.7607	268.066	82.9381	268.066	82.7454	268.066	82.8458	268.066	82.7939	268.066	82.8256	268.066	82.88	268.066	82.8625	268.066	82.9758	268.066	82.9336	268.066	83.0567	268.066	83.0134	268.066	83.1052	268.066	83.0787	268.066	83.1124
277.588	84.8034	277.588	84.7381	277.588	84.7851	277.588	84.5903	277.588	84.6859	277.588	84.3653	277.588	84.512	277.588	84.0741	277.588	84.2729	277.588	83.7345	277.588	83.9823	277.588	83.372	277.588	83.6581	277.588	83.0199	277.588	83.3237	277.588	82.7155	277.588	83.0066	277.588	82.4943	277.588	82.7368	277.588	82.38	277.588	82.5419	277.588	82.377	277.588	82.4408	277.588	82.4689	277.588	82.4377	277.588	82.6239	277.588	82.5201	277.588	82.8038	277.588	82.6616	277.588	82.9726	277.588	82.8284	277.588	83.1017	277.588	82.9869	277.588	83.1719	277.588	83.1088	277.588	83.174
287.109	84.7941	287.109	84.7389	287.109	84.7646	287.109	84.5996	287.109	84.6523	287.109	84.3798	287.109	84.4621	287.109	84.087	287.109	84.2018	287.109	83.7342	287.109	83.8829	287.109	83.3409	287.109	83.5219	287.109	82.9354	287.109	83.1407	287.109	82.5537	287.109	82.7673	287.109	82.2363	287.109	82.4336	287.109	82.0191	287.109	82.1717	287.109	81.9222	287.109	82.0063	287.109	81.9417	287.109	81.9475	287.109	82.0505	287.109	81.9868	287.109	82.2073	287.109	82.0989	287.109	82.3691	287.109	82.2485	287.109	82.4994	287.109	82.3984	287.109	82.5734	287.109	82.5164	287.109	82.5789
297.363	84.9835	297.363	84.8983	297.363	84.974	297.363	84.7201	297.363	84.8716	297.363	84.4543	297.363	84.6807	297.363	84.1112	297.363	84.4087	297.363	83.7072	297.363	84.0669	297.363	83.2656	297.363	83.6712	297.363	82.8167	297.363	83.2434	297.363	82.3969	297.363	82.8121	297.363	82.0439	297.363	82.4119	297.363	81.7899	297.363	82.0789	297.363	81.6524	297.363	81.8433	297.363	81.6283	297.363	81.7202	297.363	81.6943	297.363	81.7038	297.363	81.8141	297.363	81.7692	297.363	81.9481	297.363	81.8801	297.363	82.0616	297.363	81.9989	297.363	82.1301	297.363	82.0933	297.363	82.1408
307.617	84.9873	307.617	84.9376	307.617	84.9543	307.617	84.8049	307.617	84.8414	307.617	84.5923	307.617	84.6534	307.617	84.3073	307.617	84.3976	307.617	83.963	307.617	84.0841	307.617	83.5801	307.617	83.7271	307.617	83.187	307.617	83.3461	307.617	82.8194	307.617	82.9671	307.617	82.5153	307.617	82.6229	307.617	82.3067	307.617	82.3489	307.617	82.2102	307.617	82.1755	307.617	82.2206	307.617	82.1174	307.617	82.3135	307.617	82.1667	307.617	82.4525	307.617	82.294	307.617	82.5995	307.617	82.4582	307.617	82.7212	307.617	82.6175	307.617	82.7928	307.617	82.7384	307.617	82.7997
318.604	84.6043	318.604	84.5272	318.604	84.5834	318.604	84.3531	318.604	84.4664	318.604	84.0873	318.604	84.2584	318.604	83.7401	318.604	83.9674	318.604	83.3287	318.604	83.605	318.604	82.8789	318.604	83.1881	318.604	82.4267	318.604	82.7401	318.604	82.0174	318.604	82.2929	318.604	81.6995	318.604	81.887	318.604	81.5129	318.604	81.5679	318.604	81.4748	318.604	81.3761	318.604	81.5707	318.604	81.3327	318.604	81.7597	318.604	81.4292	318.604	81.9879	318.604	81.6281	318.604	82.203	318.604	81.876	318.604	82.3635	318.604	82.1184	318.604	82.4416	318.604	82.3111	318.604	82.4239
329.59	84.5013	329.59	84.4235	329.59	84.481	329.59	84.2485	329.59	84.3651	329.59	83.9811	329.59	84.1591	329.59	83.6315	329.59	83.8712	329.59	83.2167	329.59	83.5138	329.59	82.7626	329.59	83.1034	329.59	82.3045	329.59	82.6632	329.59	81.8865	329.59	82.2236	329.59	81.5555	329.59	81.8224	329.59	81.3505	329.59	81.5016	329.59	81.289	329.59	81.2983	329.59	81.3597	329.59	81.233	329.59	81.5255	329.59	81.2996	329.59	81.736	329.59	81.4656	329.59	81.9404	329.59	81.6824	329.59	82.0973	329.59	81.8986	329.59	82.1782	329.59	82.0709	329.59	82.1692
341.309	84.6541	341.309	84.5763	341.309	84.6275	341.309	84.3941	341.309	84.4989	341.309	84.1103	341.309	84.2725	341.309	83.7321	341.309	83.9551	341.309	83.273	341.309	83.5565	341.309	82.7554	341.309	83.0907	341.309	82.2131	341.309	82.5784	341.309	81.6927	341.309	82.0487	341.309	81.2495	341.309	81.5411	341.309	80.9362	341.309	81.1042	341.309	80.7848	341.309	80.7877	341.309	80.7926	341.309	80.6279	341.309	80.9221	341.309	80.631	341.309	81.1157	341.309	80.7672	341.309	81.3135	341.309	80.9811	341.309	81.466	341.309	81.2106	341.309	81.5396	341.309	81.4019	341.309	81.5179
353.76	84.5762	353.76	84.475	353.76	84.5597	353.76	84.2561	353.76	84.4284	353.76	83.9237	353.76	84.1876	353.76	83.4875	353.76	83.8456	353.76	82.9662	353.76	83.4139	353.76	82.3901	353.76	82.9103	353.76	81.8055	353.76	82.3608	353.76	81.2751	353.76	81.804	353.76	80.871	353.76	81.2923	353.76	80.6541	353.76	80.8876	353.76	80.6476	353.76	80.6471	353.76	80.8228	353.76	80.6013	353.76	81.1125	353.76	80.7371	353.76	81.438	353.76	81.0018	353.76	81.7309	353.76	81.3237	353.76	81.9425	353.76	81.6337	353.76	82.0432	353.76	81.878	353.76	82.0207
366.211	84.9068	366.211	84.8333	366.211	84.8746	366.211	84.6511	366.211	84.7409	366.211	84.3595	366.211	84.5109	366.211	83.9612	366.211	84.1912	366.211	83.4644	366.211	83.79	366.211	82.8859	366.211	83.3187	366.211	82.2546	366.211	82.7942	366.211	81.6157	366.211	82.2417	366.211	81.0307	366.211	81.6971	366.211	80.5706	366.211	81.2079	366.211	80.2951	366.211	80.8263	366.211	80.226	366.211	80.5952	366.211	80.3337	366.211	80.5291	366.211	80.5507	366.211	80.6047	366.211	80.7986	366.211	80.768	366.211	81.0108	366.211	80.9536	366.211	81.1427	366.211	81.1026	366.211	81.173
378.662	84.9216	378.662	84.8448	378.662	84.8823	378.662	84.6507	378.662	84.7299	378.662	84.3408	378.662	84.469	378.662	83.9205	378.662	84.1055	378.662	83.401	378.662	83.6479	378.662	82.8032	378.662	83.1087	378.662	82.1618	378.662	82.5081	378.662	81.5301	378.662	81.8785	378.662	80.98	378.662	81.2699	378.662	80.5892	378.662	80.7498	378.662	80.4136	378.662	80.3922	378.662	80.4571	378.662	80.2498	378.662	80.6673	378.662	80.3252	378.662	80.9605	378.662	80.5653	378.662	81.2531	378.662	80.8859	378.662	81.4798	378.662	81.2029	378.662	81.5988	378.662	81.4511	378.662	81.5895
392.578	84.5096	392.578	84.4213	392.578	84.4868	392.578	84.2201	392.578	84.3569	392.578	83.9072	392.578	84.1256	392.578	83.4884	392.578	83.7997	392.578	82.9762	392.578	83.3874	392.578	82.3914	392.578	82.8994	392.578	81.7664	392.578	82.3506	392.578	81.147	392.578	81.7634	392.578	80.5921	392.578	81.1723	392.578	80.1666	392.578	80.6277	392.578	79.9243	392.578	80.1933	392.578	79.8835	392.578	79.9306	392.578	80.0145	392.578	79.8703	392.578	80.2493	392.578	79.9914	392.578	80.5077	392.578	80.2264	392.578	80.7194	392.578	80.4905	392.578	80.8359	392.578	80.7094	392.578	80.8327
405.762	84.7496	405.762	84.6843	405.762	84.69	405.762	84.4906	405.762	84.5102	405.762	84.1666	405.762	84.2156	405.762	83.7144	405.762	83.813	405.762	83.1423	405.762	83.3115	405.762	82.4701	405.762	82.7254	405.762	81.7359	405.762	82.0779	405.762	81.0045	405.762	81.4065	405.762	80.37	405.762	80.7688	405.762	79.9397	405.762	80.2429	405.762	79.7897	405.762	79.9121	405.762	79.9186	405.762	79.8314	405.762	80.2458	405.762	79.993	405.762	80.6571	405.762	80.3252	405.762	81.0498	405.762	80.7263	405.762	81.3511	405.762	81.1022	405.762	81.5174	405.762	81.3835	405.762	81.5283
420.41	84.5608	420.41	84.4922	420.41	84.5181	420.41	84.3087	420.41	84.3687	420.41	84.0089	420.41	84.1182	420.41	83.5947	420.41	83.7733	420.41	83.0733	420.41	83.3418	420.41	82.4598	420.41	82.8345	420.41	81.7811	420.41	82.2674	420.41	81.0808	420.41	81.6647	420.41	80.423	420.41	81.062	420.41	79.8892	420.41	80.508	420.41	79.5585	420.41	80.0614	420.41	79.472	420.41	79.7775	420.41	79.6048	420.41	79.6872	420.41	79.8745	420.41	79.7772	420.41	80.1795	420.41	79.9904	420.41	80.4325	420.41	80.2455	420.41	80.576	420.41	80.4635	420.41	80.5848
435.059	84.7992	435.059	84.7298	435.059	84.7434	435.059	84.5314	435.059	84.5668	435.059	84.2018	435.059	84.2742	435.059	83.7421	435.059	83.8705	435.059	83.159	435.059	83.3617	435.059	82.4686	435.059	82.7569	435.059	81.7024	435.059	82.072	435.059	80.916	435.059	81.3365	435.059	80.1958	435.059	80.6024	435.059	79.6546	435.059	79.9517	435.059	79.3949	435.059	79.4895	435.059	79.4503	435.059	79.3064	435.059	79.756	435.059	79.4225	435.059	80.1867	435.059	79.7661	435.059	80.6163	435.059	80.2134	435.059	80.9515	435.059	80.6442	435.059	81.1358	435.059	80.9714	435.059	81.1429
450.439	84.5313	450.439	84.465	450.439	84.4825	450.439	84.2813	450.439	84.3212	450.439	83.9782	450.439	84.0497	450.439	83.5545	450.439	83.6711	450.439	83.012	450.439	83.1891	450.439	82.3586	450.439	82.6098	450.439	81.614	450.439	81.9446	450.439	80.8198	450.439	81.2165	450.439	80.0509	450.439	80.4699	450.439	79.4203	450.439	79.7815	450.439	79.0539	450.439	79.2601	450.439	79.025	450.439	79.0139	450.439	79.2954	450.439	79.0859	450.439	79.736	450.439	79.4146	450.439	80.2003	450.439	79.8685	450.439	80.575	450.439	80.3129	450.439	80.7912	450.439	80.6487	450.439	80.8166
466.553	84.7939	466.553	84.7177	466.553	84.7425	466.553	84.511	466.553	84.568	466.553	84.1727	466.553	84.2754	466.553	83.7046	466.553	83.8698	466.553	83.1124	466.553	83.3565	466.553	82.4078	466.553	82.7407	466.553	81.612	466.553	82.0301	466.553	80.7616	466.553	81.2391	466.553	79.918	466.553	80.3989	466.553	79.1745	466.553	79.5719	466.553	78.6474	466.553	78.8645	466.553	78.4315	466.553	78.4128	466.553	78.5363	466.553	78.3141	466.553	78.8676	466.553	78.5444	466.553	79.281	466.553	78.9643	466.553	79.6453	466.553	79.4065	466.553	79.8703	466.553	79.7445	466.553	79.9074
482.666	84.804	482.666	84.7554	482.666	84.7239	482.666	84.5727	482.666	84.521	482.666	84.2515	482.666	84.2005	482.666	83.7908	482.666	83.7665	482.666	83.1944	482.666	83.2226	482.666	82.4748	482.666	82.573	482.666	81.6586	482.666	81.8266	482.666	80.7938	482.666	81.0041	482.666	79.9604	482.666	80.1505	482.666	79.2731	482.666	79.3499	482.666	78.8561	482.666	78.7289	482.666	78.7809	482.666	78.4204	482.666	79.0105	482.666	78.4809	482.666	79.4176	482.666	78.8384	482.666	79.8552	482.666	79.3384	482.666	80.2075	482.666	79.829	482.666	80.4018	482.666	80.2036	482.666	80.4024
500.244	85.0658	500.244	85.0003	500.244	85.0059	500.244	84.806	500.244	84.8229	500.244	84.4792	500.244	84.5176	500.244	84.0166	500.244	84.0901	500.244	83.4177	500.244	83.5401	500.244	82.6877	500.244	82.868	500.244	81.8429	500.244	82.0772	500.244	80.9189	500.244	81.1783	500.244	79.9842	500.244	80.2	500.244	79.1531	500.244	79.2093	500.244	78.5762	500.244	78.3386	500.244	78.3749	500.244	77.7823	500.244	78.5488	500.244	77.6973	500.244	78.9632	500.244	78.0558	500.244	79.4369	500.244	78.6543	500.244	79.8223	500.244	79.2673	500.244	80.0271	500.244	79.7428	500.244	80.0044
517.822	84.8888	517.822	84.809	517.822	84.8502	517.822	84.6076	517.822	84.6972	517.822	84.2823	517.822	84.4334	517.822	83.8318	517.822	84.0614	517.822	83.2559	517.822	83.5809	517.822	82.5562	517.822	82.9886	517.822	81.74	517.822	82.2776	517.822	80.8281	517.822	81.4404	517.822	79.8696	517.822	80.4752	517.822	78.9622	517.822	79.4031	517.822	78.2587	517.822	78.3044	517.822	77.9169	517.822	77.369	517.822	77.9887	517.822	76.8818	517.822	78.36	517.822	77.0138	517.822	78.8294	517.822	77.6108	517.822	79.2163	517.822	78.3427	517.822	79.4009	517.822	78.9541	517.822	79.3192
536.133	84.8375	536.133	84.7592	536.133	84.7906	536.133	84.5508	536.133	84.626	536.133	84.211	536.133	84.3517	536.133	83.7429	536.133	83.9743	536.133	83.154	536.133	83.4971	536.133	82.4556	536.133	82.9201	536.133	81.6641	536.133	82.242	536.133	80.8055	536.133	81.4661	536.133	79.9283	536.133	80.6107	536.133	79.1238	536.133	79.7248	536.133	78.533	536.133	78.9053	536.133	78.2981	536.133	78.2975	536.133	78.4532	536.133	78.0444	536.133	78.8743	536.133	78.1863	536.133	79.363	536.133	78.615	536.133	79.752	536.133	79.1444	536.133	79.9413	536.133	79.6064	536.133	79.8903
554.443	84.6404	554.443	84.6026	554.443	84.5579	554.443	84.4369	554.443	84.3643	554.443	84.1382	554.443	84.0693	554.443	83.7041	554.443	83.6809	554.443	83.1362	554.443	83.2034	554.443	82.4406	554.443	82.636	554.443	81.6293	554.443	81.9726	554.443	80.7243	554.443	81.2061	554.443	79.7689	554.443	80.3365	554.443	78.8491	554.443	79.3889	554.443	78.1157	554.443	78.4445	554.443	77.7569	554.443	77.6767	554.443	77.8713	554.443	77.3241	554.443	78.3529	554.443	77.5165	554.443	78.9615	554.443	78.1149	554.443	79.4757	554.443	78.8277	554.443	79.7568	554.443	79.4131	554.443	79.7391
574.219	84.2742	574.219	84.2071	574.219	84.1987	574.219	83.9931	574.219	83.9954	574.219	83.6393	574.219	83.6865	574.219	83.164	574.219	83.2983	574.219	82.5931	574.219	82.8543	574.219	81.9538	574.219	82.3697	574.219	81.2654	574.219	81.8446	574.219	80.5359	574.219	81.2637	574.219	79.7687	574.219	80.6007	574.219	78.9836	574.219	79.8321	574.219	78.2465	574.219	78.9621	574.219	77.687	574.219	78.0621	574.219	77.452	574.219	77.3108	574.219	77.5833	574.219	76.955	574.219	77.9475	574.219	77.1069	574.219	78.324	574.219	77.5953	574.219	78.529	574.219	78.1213	574.219	78.4641
594.727	85.0745	594.727	85.0477	594.727	84.9084	594.727	84.8125	594.727	84.5702	594.727	84.3619	594.727	84.0852	594.727	83.7032	594.727	83.4836	594.727	82.8678	594.727	82.8003	594.727	81.9217	594.727	82.0731	594.727	80.9682	594.727	81.3389	594.727	80.1268	594.727	80.6312	594.727	79.4838	594.727	79.9769	594.727	79.051	594.727	79.3951	594.727	78.7788	594.727	78.8959	594.727	78.6104	594.727	78.4877	594.727	78.5192	594.727	78.1903	594.727	78.505	594.727	78.0404	594.727	78.5597	594.727	78.0635	594.727	78.6403	594.727	78.2292	594.727	78.6778	594.727	78.447	594.727	78.6156
615.234	85.587	615.234	85.574	615.234	85.4074	615.234	85.357	615.234	85.0445	615.234	84.9225	615.234	84.5071	615.234	84.2585	615.234	83.8075	615.234	83.362	615.234	82.9655	615.234	82.2517	615.234	82.0116	615.234	80.9917	615.234	80.9904	615.234	79.7259	615.234	79.9663	615.234	78.7002	615.234	79.0328	615.234	78.1844	615.234	78.3183	615.234	78.2664	615.234	77.9552	615.234	78.7698	615.234	78.0012	615.234	79.4314	615.234	78.3866	615.234	80.0604	615.234	78.9638	615.234	80.5556	615.234	79.5901	615.234	80.8704	615.234	80.1627	615.234	80.9852	615.234	80.6131	615.234	80.896
637.207	86.3249	637.207	86.3212	637.207	86.1627	637.207	86.1376	637.207	85.843	637.207	85.755	637.207	85.3691	637.207	85.1521	637.207	84.7407	637.207	84.31	637.207	83.9566	637.207	83.2166	637.207	83.0164	637.207	81.8759	637.207	81.9222	637.207	80.3289	637.207	80.683	637.207	78.7083	637.207	79.3304	637.207	77.3382	637.207	77.9616	637.207	76.7164	637.207	76.8198	637.207	77.0613	637.207	76.2985	637.207	78.0011	637.207	76.6278	637.207	79.0437	637.207	77.5596	637.207	79.9146	637.207	78.6541	637.207	80.505	637.207	79.6195	637.207	80.7761	637.207	80.3237	637.207	80.7152
659.912	85.6493	659.912	85.6936	659.912	85.4741	659.912	85.5908	659.912	85.1769	659.912	85.3185	659.912	84.7607	659.912	84.8508	659.912	84.2242	659.912	84.1628	659.912	83.5643	659.912	83.2357	659.912	82.777	659.912	82.0642	659.912	81.8593	659.912	80.672	659.912	80.8103	659.912	79.1513	659.912	79.641	659.912	77.75	659.912	78.4046	659.912	76.9274	659.912	77.2722	659.912	77.0522	659.912	76.6039	659.912	77.9179	659.912	76.7564	659.912	79.0053	659.912	77.6335	659.912	79.9598	659.912	78.7729	659.912	80.6296	659.912	79.8004	659.912	80.9601	659.912	80.5405	659.912	80.9319
683.35	85.4302	683.35	85.4503	683.35	85.2703	683.35	85.3217	683.35	84.9759	683.35	85.0302	683.35	84.5522	683.35	84.5567	683.35	84.0045	683.35	83.8823	683.35	83.3369	683.35	82.9913	683.35	82.548	683.35	81.8736	683.35	81.6304	683.35	80.5274	683.35	80.5708	683.35	78.9799	683.35	79.3562	683.35	77.3722	683.35	77.9963	683.35	76.1361	683.35	76.6002	683.35	75.9389	683.35	75.537	683.35	76.8568	683.35	75.417	683.35	78.2033	683.35	76.3783	683.35	79.4108	683.35	77.8073	683.35	80.25	683.35	79.1262	683.35	80.6515	683.35	80.082	683.35	80.5962
706.787	85.2852	706.787	85.2872	706.787	85.1291	706.787	85.1343	706.787	84.8223	706.787	84.8258	706.787	84.3722	706.787	84.3561	706.787	83.7891	706.787	83.7141	706.787	83.0826	706.787	82.8823	706.787	82.2587	706.787	81.8391	706.787	81.3165	706.787	80.5612	706.787	80.2457	706.787	79.0374	706.787	79.0296	706.787	77.331	706.787	77.6634	706.787	75.7612	706.787	76.2087	706.787	75.0691	706.787	74.919	706.787	75.7055	706.787	74.3416	706.787	77.0335	706.787	74.8959	706.787	78.2915	706.787	76.217	706.787	79.1526	706.787	77.6294	706.787	79.5232	706.787	78.7352	706.787	79.382
731.689	85.541	731.689	85.5647	731.689	85.3627	731.689	85.4232	731.689	85.0449	731.689	85.1077	731.689	84.606	731.689	84.6103	731.689	84.0636	731.689	83.9248	731.689	83.426	731.689	83.048	731.689	82.6854	731.689	81.9776	731.689	81.8148	731.689	80.7078	731.689	80.7695	731.689	79.2351	731.689	79.4946	731.689	77.6076	731.689	77.9457	731.689	76.0796	731.689	76.1657	731.689	75.2858	731.689	74.5194	731.689	75.7399	731.689	73.9224	731.689	76.9836	731.689	74.8511	731.689	78.2554	731.689	76.4535	731.689	79.1703	731.689	77.9211	731.689	79.607	731.689	78.9723	731.689	79.5399
758.057	85.0354	758.057	85.0517	758.057	84.882	758.057	84.9218	758.057	84.5997	758.057	84.6339	758.057	84.1973	758.057	84.1726	758.057	83.6838	758.057	83.5197	758.057	83.0678	758.057	82.6578	758.057	82.3543	758.057	81.5736	758.057	81.5403	758.057	80.2581	758.057	80.6061	758.057	78.7062	758.057	79.5033	758.057	76.9462	758.057	78.1475	758.057	75.2013	758.057	76.4483	758.057	74.2225	758.057	74.4823	758.057	74.8025	758.057	73.041	758.057	76.349	758.057	73.5227	758.057	77.8497	758.057	75.3943	758.057	78.8802	758.057	77.2287	758.057	79.3443	758.057	78.5279	758.057	79.2294
784.424	85.3214	784.424	85.3153	784.424	85.1672	784.424	85.1377	784.424	84.8688	784.424	84.7839	784.424	84.4456	784.424	84.2535	784.424	83.9164	784.424	83.5484	784.424	83.2952	784.424	82.6686	784.424	82.5872	784.424	81.6092	784.424	81.7847	784.424	80.3556	784.424	80.864	784.424	78.8812	784.424	79.7841	784.424	77.1688	784.424	78.4862	784.424	75.3279	784.424	76.9065	784.424	73.9329	784.424	75.0619	784.424	74.0078	784.424	73.3915	784.424	75.4358	784.424	73.1158	784.424	77.0636	784.424	74.5812	784.424	78.2461	784.424	76.4577	784.424	78.8007	784.424	77.8963	784.424	78.6866
812.256	84.9742	812.256	84.9993	812.256	84.8042	812.256	84.871	812.256	84.5025	812.256	84.5813	812.256	84.0882	812.256	84.1201	812.256	83.5821	812.256	83.4776	812.256	82.9999	812.256	82.6488	812.256	82.3471	812.256	81.6359	812.256	81.6175	812.256	80.4399	812.256	80.7909	812.256	79.0447	812.256	79.8227	812.256	77.4282	812.256	78.6354	812.256	75.6977	812.256	77.1425	812.256	74.4664	812.256	75.3875	812.256	74.7233	812.256	73.964	812.256	76.1793	812.256	74.0914	812.256	77.7126	812.256	75.6506	812.256	78.792	812.256	77.3526	812.256	79.3034	812.256	78.5864	812.256	79.2367
840.82	85.284	840.82	85.2869	840.82	85.1159	840.82	85.1123	840.82	84.7916	840.82	84.7497	840.82	84.3174	840.82	84.1983	840.82	83.7018	840.82	83.4695	840.82	82.9591	840.82	82.5784	840.82	82.1109	840.82	81.5287	840.82	81.1816	840.82	80.299	840.82	80.1874	840.82	78.8383	840.82	79.1147	840.82	77.0812	840.82	77.8992	840.82	75.0407	840.82	76.4246	840.82	73.2189	840.82	74.5906	840.82	73.0277	840.82	72.6242	840.82	74.6381	840.82	71.8055	840.82	76.4679	840.82	73.2027	840.82	77.7157	840.82	75.3466	840.82	78.2306	840.82	77.0358	840.82	78.0042
870.85	85.1219	870.85	85.1406	870.85	84.9537	870.85	85.0019	870.85	84.6443	870.85	84.6928	870.85	84.2084	870.85	84.1996	870.85	83.664	870.85	83.5205	870.85	83.0257	870.85	82.6722	870.85	82.2996	870.85	81.6746	870.85	81.4824	870.85	80.5149	870.85	80.5583	870.85	79.115	870.85	79.4885	870.85	77.3376	870.85	78.195	870.85	75.0861	870.85	76.5536	870.85	72.7761	870.85	74.4614	870.85	72.2392	870.85	72.2662	870.85	74.0409	870.85	71.7187	870.85	76.1067	870.85	73.5692	870.85	77.5182	870.85	75.7651	870.85	78.1779	870.85	77.3155	870.85	78.1108
901.611	84.3041	901.611	84.3193	901.611	84.126	901.611	84.1794	901.611	83.7943	901.611	83.8988	901.611	83.3372	901.611	83.4888	901.611	82.791	901.611	82.9529	901.611	82.1833	901.611	82.2871	901.611	81.5216	901.611	81.4775	901.611	80.7971	901.611	80.4932	901.611	79.9939	901.611	79.2664	901.611	79.0874	901.611	77.6624	901.611	78.0147	901.611	75.4794	901.611	76.6334	901.611	72.735	901.611	74.7342	901.611	71.2218	901.611	72.3336	901.611	73.1626	901.611	70.9427	901.611	75.7447	901.611	72.6165	901.611	77.4328	901.611	75.1752	901.611	78.1637	901.611	77.0352	901.611	78.0228
933.105	84.5276	933.105	84.4357	933.105	84.3337	933.105	84.1016	933.105	83.8622	933.105	83.5933	933.105	83.1839	933.105	82.9736	933.105	82.4146	933.105	82.287	933.105	81.6618	933.105	81.5662	933.105	80.9584	933.105	80.8307	933.105	80.2473	933.105	80.057	933.105	79.4376	933.105	79.1446	933.105	78.4714	933.105	77.9227	933.105	77.348	933.105	76.2093	933.105	76.0903	933.105	73.9975	933.105	74.6805	933.105	72.1861	933.105	73.1562	933.105	72.7863	933.105	72.2091	933.105	74.994	933.105	73.1564	933.105	76.8785	933.105	75.2935	933.105	77.8954	933.105	77.073	933.105	77.9648
966.064	84.0968	966.064	84.041	966.064	83.8941	966.064	83.7413	966.064	83.446	966.064	83.2368	966.064	82.7898	966.064	82.5776	966.064	81.9864	966.064	81.8087	966.064	81.1231	966.064	80.9607	966.064	80.2964	966.064	80.0482	966.064	79.5533	966.064	79.0618	966.064	78.8286	966.064	77.9463	966.064	77.9474	966.064	76.5743	966.064	76.6816	966.064	74.7555	966.064	74.8055	966.064	72.423	966.064	72.2003	966.064	70.646	966.064	69.4075	966.064	71.8148	966.064	68.8493	966.064	74.3664	966.064	71.1321	966.064	76.2236	966.064	73.7434	966.064	77.0351	966.064	75.7131	966.064	76.8401
999.756	83.492	999.756	83.4341	999.756	83.3277	999.756	83.174	999.756	82.9337	999.756	82.7451	999.756	82.3234	999.756	82.1959	999.756	81.5515	999.756	81.5832	999.756	80.7265	999.756	80.9492	999.756	79.9793	999.756	80.294	999.756	79.381	999.756	79.5674	999.756	78.8797	999.756	78.6806	999.756	78.3159	999.756	77.5048	999.756	77.4681	999.756	75.8543	999.756	76.0668	999.756	73.57	999.756	73.8038	999.756	71.2216	999.756	70.5281	999.756	71.2413	999.756	67.8243	999.756	73.3655	999.756	69.3223	999.756	75.0953	999.756	72.1835	999.756	75.8095	999.756	74.3058	999.756	75.5247
1034.91	83.0499	1034.91	83.1077	1034.91	82.8197	1034.91	82.9914	1034.91	82.3961	1034.91	82.6776	1034.91	81.7623	1034.91	82.1525	1034.91	80.9335	1034.91	81.4491	1034.91	79.9803	1034.91	80.6633	1034.91	79.0511	1034.91	79.9193	1034.91	78.3588	1034.91	79.2752	1034.91	78.0377	1034.91	78.6296	1034.91	77.9487	1034.91	77.7169	1034.91	77.7004	1034.91	76.1693	1034.91	76.814	1034.91	73.6197	1034.91	74.7682	1034.91	70.4587	1034.91	70.9692	1034.91	70.3798	1034.91	66.7836	1034.91	73.1482	1034.91	69.5151	1034.91	75.1578	1034.91	72.9791	1034.91	76.007	1034.91	74.9467	1034.91	75.9009
1071.53	83.7276	1071.53	83.6088	1071.53	83.4953	1071.53	83.2305	1071.53	82.859	1071.53	82.6707	1071.53	81.8317	1071.53	81.9479	1071.53	80.5028	1071.53	81.0526	1071.53	79.0233	1071.53	80.04	1071.53	77.54	1071.53	79.0615	1071.53	76.0974	1071.53	78.2337	1071.53	74.6415	1071.53	77.471	1071.53	73.2887	1071.53	76.5231	1071.53	72.6165	1071.53	75.1327	1071.53	72.7938	1071.53	73.1902	1071.53	72.7164	1071.53	71.2598	1071.53	71.2251	1071.53	71.1621	1071.53	68.346	1071.53	72.9429	1071.53	69.1437	1071.53	74.7375	1071.53	72.8782	1071.53	75.8215	1071.53	75.1701	1071.53	76.0308
1109.62	84.3009	1109.62	84.1702	1109.62	84.0735	1109.62	83.723	1109.62	83.4905	1109.62	83.0528	1109.62	82.5835	1109.62	82.2732	1109.62	81.4083	1109.62	81.4493	1109.62	80.0499	1109.62	80.5796	1109.62	78.6289	1109.62	79.6769	1109.62	77.2927	1109.62	78.8283	1109.62	76.1603	1109.62	78.0854	1109.62	75.2327	1109.62	77.2782	1109.62	74.3749	1109.62	76.0332	1109.62	73.3668	1109.62	73.9928	1109.62	71.8363	1109.62	71.4519	1109.62	69.1815	1109.62	70.9696	1109.62	65.9065	1109.62	73.1126	1109.62	68.0262	1109.62	75.0132	1109.62	72.1101	1109.62	75.9112	1109.62	74.628	1109.62	75.8062
1148.44	84.8903	1148.44	84.8603	1148.44	84.4845	1148.44	84.4326	1148.44	83.6759	1148.44	83.7002	1148.44	82.5607	1148.44	82.772	1148.44	81.2743	1148.44	81.7367	1148.44	79.9643	1148.44	80.6576	1148.44	78.7652	1148.44	79.5888	1148.44	77.7694	1148.44	78.5722	1148.44	76.987	1148.44	77.6205	1148.44	76.2966	1148.44	76.672	1148.44	75.4706	1148.44	75.495	1148.44	74.2741	1148.44	73.7476	1148.44	72.4073	1148.44	71.7819	1148.44	69.171	1148.44	72.1193	1148.44	63.5879	1148.44	74.6331	1148.44	66.1581	1148.44	76.6179	1148.44	72.0798	1148.44	77.4269	1148.44	75.3926	1148.44	77.046
1189.45	84.7214	1189.45	84.7539	1189.45	84.1962	1189.45	84.3611	1189.45	83.2266	1189.45	83.6704	1189.45	81.9984	1189.45	82.7948	1189.45	80.7906	1189.45	81.7893	1189.45	79.8227	1189.45	80.6994	1189.45	79.1043	1189.45	79.6502	1189.45	78.5034	1189.45	78.7934	1189.45	77.94	1189.45	78.082	1189.45	77.3932	1189.45	77.1949	1189.45	76.7393	1189.45	75.65	1189.45	75.6757	1189.45	72.838	1189.45	73.672	1189.45	68.9056	1189.45	69.6047	1189.45	70.21	1189.45	59.1767	1189.45	74.3033	1189.45	64.7094	1189.45	76.6264	1189.45	71.6301	1189.45	77.3511	1189.45	74.9728	1189.45	76.7683
1231.2	84.4801	1231.2	84.6214	1231.2	83.9423	1231.2	84.3676	1231.2	83.092	1231.2	83.7974	1231.2	82.0968	1231.2	83.0231	1231.2	81.1673	1231.2	82.1094	1231.2	80.4276	1231.2	81.0601	1231.2	79.7977	1231.2	79.9484	1231.2	79.0868	1231.2	78.9916	1231.2	78.2457	1231.2	78.3029	1231.2	77.4835	1231.2	77.619	1231.2	76.9749	1231.2	76.4022	1231.2	76.4259	1231.2	73.9117	1231.2	75.1797	1231.2	69.1979	1231.2	72.4099	1231.2	67.549	1231.2	66.2183	1231.2	72.7597	1231.2	50.5439	1231.2	75.6822	1231.2	68.4819	1231.2	76.5692	1231.2	73.4522	1231.2	75.8357
1274.41	84.3705	1274.41	84.4194	1274.41	84.0459	1274.41	84.2204	1274.41	83.4093	1274.41	83.7697	1274.41	82.4892	1274.41	83.0464	1274.41	81.4304	1274.41	82.0269	1274.41	80.4401	1274.41	80.7248	1274.41	79.6152	1274.41	79.3168	1274.41	78.815	1274.41	78.2447	1274.41	77.8421	1274.41	77.8512	1274.41	76.8265	1274.41	77.7689	1274.41	76.3224	1274.41	77.1865	1274.41	76.3834	1274.41	75.2658	1274.41	75.9942	1274.41	71.0021	1274.41	73.9582	1274.41	66.7226	1274.41	68.4696	1274.41	71.3907	1274.41	47.4772	1274.41	74.4861	1274.41	68.4611	1274.41	75.4296	1274.41	73.0355	1274.41	74.9307
1319.82	85.0475	1319.82	84.9405	1319.82	84.7558	1319.82	84.553	1319.82	84.044	1319.82	84.0399	1319.82	83.0074	1319.82	83.4682	1319.82	81.8063	1319.82	82.71	1319.82	80.5648	1319.82	81.5245	1319.82	79.4055	1319.82	79.7887	1319.82	78.5017	1319.82	77.7794	1319.82	77.8064	1319.82	76.3387	1319.82	76.9276	1319.82	75.8862	1319.82	75.6179	1319.82	75.5421	1319.82	74.6277	1319.82	74.1976	1319.82	74.8356	1319.82	70.7738	1319.82	74.6199	1319.82	65.4786	1319.82	71.8432	1319.82	69.0157	1319.82	61.4049	1319.82	73.1221	1319.82	65.9034	1319.82	74.9876	1319.82	73.0052	1319.82	75.1109
1365.97	85.5396	1365.97	85.7392	1365.97	84.8141	1365.97	85.376	1365.97	83.7493	1365.97	84.5761	1365.97	82.6279	1365.97	83.6137	1365.97	81.674	1365.97	82.7257	1365.97	80.92	1365.97	81.8513	1365.97	80.2507	1365.97	80.7408	1365.97	79.5003	1365.97	79.3156	1365.97	78.5345	1365.97	77.8546	1365.97	77.324	1365.97	76.7611	1365.97	75.9053	1365.97	75.8328	1365.97	74.4479	1365.97	74.0798	1365.97	73.4864	1365.97	70.3552	1365.97	72.7521	1365.97	66.3577	1365.97	70.3449	1365.97	69.8597	1365.97	61.7887	1365.97	73.0236	1365.97	62.7034	1365.97	74.2625	1365.97	71.1567	1365.97	73.8418
1414.31	85.9859	1414.31	86.0518	1414.31	85.3872	1414.31	85.5846	1414.31	84.3733	1414.31	84.7024	1414.31	83.0882	1414.31	83.5921	1414.31	81.5664	1414.31	82.4254	1414.31	79.8057	1414.31	81.2931	1414.31	78.1129	1414.31	80.2069	1414.31	76.8811	1414.31	79.1129	1414.31	75.6994	1414.31	77.9769	1414.31	73.9368	1414.31	77.0429	1414.31	72.2096	1414.31	76.4132	1414.31	72.5814	1414.31	75.0094	1414.31	73.5966	1414.31	70.9423	1414.31	73.0485	1414.31	63.6804	1414.31	70.1517	1414.31	70.1983	1414.31	62.8733	1414.31	73.885	1414.31	62.0394	1414.31	74.6189	1414.31	69.9469	1414.31	73.3691
1464.11	86.0902	1464.11	86.0134	1464.11	85.7215	1464.11	85.4328	1464.11	85	1464.11	84.3912	1464.11	83.9679	1464.11	83.1589	1464.11	82.5412	1464.11	82.1926	1464.11	80.6058	1464.11	81.5272	1464.11	78.3067	1464.11	80.6189	1464.11	76.4938	1464.11	79.2477	1464.11	76.2544	1464.11	77.9116	1464.11	76.7715	1464.11	76.9589	1464.11	76.1034	1464.11	75.9594	1464.11	72.7855	1464.11	74.1745	1464.11	67.4617	1464.11	70.2498	1464.11	68.8557	1464.11	60.2832	1464.11	69.0342	1464.11	67.2072	1464.11	63.021	1464.11	73.2932	1464.11	60.5137	1464.11	75.5347	1464.11	71.4415	1464.11	75.078
1515.38	86.1233	1515.38	85.9492	1515.38	85.9621	1515.38	85.5243	1515.38	85.3639	1515.38	84.7885	1515.38	84.3415	1515.38	83.6447	1515.38	82.989	1515.38	82.1847	1515.38	81.3925	1515.38	80.6998	1515.38	79.6469	1515.38	79.2876	1515.38	78.0648	1515.38	77.8404	1515.38	77.5091	1515.38	76.6889	1515.38	78.1696	1515.38	76.2405	1515.38	78.3182	1515.38	76.1266	1515.38	76.5635	1515.38	75.4641	1515.38	72.654	1515.38	72.9105	1515.38	69.2503	1515.38	65.7908	1515.38	68.5613	1515.38	65.1315	1515.38	64.8037	1515.38	72.9346	1515.38	56.4117	1515.38	75.7423	1515.38	71.3047	1515.38	75.4144
1568.85	86.1434	1568.85	86.0501	1568.85	85.7935	1568.85	85.5475	1568.85	85.1157	1568.85	84.7756	1568.85	84.2551	1568.85	83.8156	1568.85	83.2545	1568.85	82.6554	1568.85	82.1102	1568.85	81.3025	1568.85	80.8626	1568.85	79.7566	1568.85	79.4791	1568.85	77.9409	1568.85	78.0092	1568.85	76.0884	1568.85	77.343	1568.85	74.9459	1568.85	77.7257	1568.85	74.3612	1568.85	77.3377	1568.85	73.3407	1568.85	75.1811	1568.85	70.8381	1568.85	71.9304	1568.85	64.6847	1568.85	69.6503	1568.85	62.792	1568.85	66.3321	1568.85	71.4862	1568.85	50.0595	1568.85	74.8812	1568.85	70.4844	1568.85	74.8033
1624.51	86.5654	1624.51	86.5255	1624.51	86.0562	1624.51	85.8648	1624.51	85.2433	1624.51	84.7772	1624.51	84.2717	1624.51	83.5412	1624.51	83.0976	1624.51	82.2677	1624.51	81.7433	1624.51	80.9091	1624.51	80.4308	1624.51	79.3815	1624.51	79.2942	1624.51	77.535	1624.51	77.9875	1624.51	75.4645	1624.51	76.1702	1624.51	74.2347	1624.51	75.4545	1624.51	74.2703	1624.51	76.439	1624.51	74.0366	1624.51	76.3731	1624.51	72.3242	1624.51	74.7055	1624.51	67.3336	1624.51	72.2659	1624.51	63.3625	1624.51	68.4071	1624.51	72.3655	1624.51	51.0389	1624.51	75.3213	1624.51	69.3769	1624.51	74.5546
1681.64	87.1148	1681.64	86.866	1681.64	86.6809	1681.64	85.8611	1681.64	85.8594	1681.64	84.4368	1681.64	84.8548	1681.64	83.1598	1681.64	83.791	1681.64	82.2891	1681.64	82.7878	1681.64	81.4007	1681.64	81.7084	1681.64	79.9545	1681.64	80.256	1681.64	77.8589	1681.64	78.6698	1681.64	75.345	1681.64	77.3227	1681.64	73.1059	1681.64	75.4638	1681.64	72.2229	1681.64	73.2054	1681.64	71.7249	1681.64	72.6228	1681.64	70.1378	1681.64	72.8349	1681.64	65.355	1681.64	72.2088	1681.64	60.0735	1681.64	68.7107	1681.64	71.9723	1681.64	45.5121	1681.64	75.6619	1681.64	71.002	1681.64	75.4528
1740.97	86.5374	1740.97	86.2647	1740.97	86.4518	1740.97	85.6508	1740.97	85.9229	1740.97	84.6762	1740.97	84.8387	1740.97	83.3576	1740.97	83.2408	1740.97	81.9227	1740.97	81.5393	1740.97	80.6201	1740.97	80.2544	1740.97	79.1007	1740.97	79.3957	1740.97	76.9209	1740.97	78.7764	1740.97	74.1828	1740.97	78.1783	1740.97	71.6248	1740.97	76.6125	1740.97	71.381	1740.97	73.6376	1740.97	72.4525	1740.97	71.3557	1740.97	71.9448	1740.97	70.2509	1740.97	67.9918	1740.97	69.3454	1740.97	62.6765	1740.97	67.6164	1740.97	72.7148	1740.97	54.7653	1740.97	76.0881	1740.97	68.8759	1740.97	75.1377
1802.49	85.8363	1802.49	85.5644	1802.49	85.746	1802.49	85.025	1802.49	85.2544	1802.49	84.2836	1802.49	84.3249	1802.49	83.2468	1802.49	83.0788	1802.49	81.8981	1802.49	81.8189	1802.49	80.4927	1802.49	80.4749	1802.49	79.1161	1802.49	78.7061	1802.49	77.4949	1802.49	76.9865	1802.49	75.5544	1802.49	75.8662	1802.49	73.361	1802.49	73.9948	1802.49	71.1439	1802.49	70.4251	1802.49	70.5974	1802.49	67.0059	1802.49	70.2934	1802.49	66.4714	1802.49	67.0304	1802.49	67.6048	1802.49	60.171	1802.49	67.9855	1802.49	71.0874	1802.49	60.3809	1802.49	74.9665	1802.49	67.4982	1802.49	74.2657
1866.21	85.9304	1866.21	85.7806	1866.21	85.5271	1866.21	85.1178	1866.21	84.7668	1866.21	84.0617	1866.21	83.9481	1866.21	82.6297	1866.21	83.1352	1866.21	81.0265	1866.21	82.1043	1866.21	79.8813	1866.21	80.8168	1866.21	79.069	1866.21	79.2332	1866.21	77.4927	1866.21	77.1368	1866.21	74.2555	1866.21	75.4324	1866.21	69.152	1866.21	75.2055	1866.21	67.9677	1866.21	74.6448	1866.21	71.3432	1866.21	72.7868	1866.21	72.1642	1866.21	71.2673	1866.21	68.7145	1866.21	69.3772	1866.21	59.3116	1866.21	65.9549	1866.21	70.9301	1866.21	58.4137	1866.21	74.492	1866.21	67.436	1866.21	73.5841
1932.13	86.2017	1932.13	86.2444	1932.13	85.7295	1932.13	85.5732	1932.13	85.2736	1932.13	84.3693	1932.13	84.7395	1932.13	82.716	1932.13	83.6565	1932.13	80.6271	1932.13	81.7663	1932.13	79.4103	1932.13	79.5922	1932.13	79.5586	1932.13	78.1326	1932.13	79.0833	1932.13	77.2299	1932.13	76.9182	1932.13	76.9066	1932.13	73.1353	1932.13	77.8006	1932.13	67.7218	1932.13	77.4581	1932.13	66.488	1932.13	74.8208	1932.13	70.0651	1932.13	72.0365	1932.13	69.3179	1932.13	69.82	1932.13	56.106	1932.13	65.3104	1932.13	70.7617	1932.13	48.6588	1932.13	75.2174	1932.13	68.3927	1932.13	74.4687
2000.24	85.9984	2000.24	85.8803	2000.24	86.2609	2000.24	85.7168	2000.24	86.2177	2000.24	85.1793	2000.24	85.354	2000.24	83.9718	2000.24	83.7286	2000.24	81.6315	2000.24	81.8324	2000.24	78.5723	2000.24	80.0201	2000.24	78.2714	2000.24	78.298	2000.24	79.809	2000.24	77.0004	2000.24	79.2368	2000.24	76.713	2000.24	76.1556	2000.24	77.663	2000.24	71.3403	2000.24	77.7122	2000.24	69.4303	2000.24	75.7202	2000.24	73.2941	2000.24	73.7369	2000.24	72.6507	2000.24	72.9473	2000.24	60.8511	2000.24	68.6071	2000.24	71.7457	2000.24	50.9253	2000.24	75.7285	2000.24	67.4837	2000.24	74.3203
2070.56	85.9897	2070.56	85.5456	2070.56	86.3631	2070.56	85.0987	2070.56	86.1967	2070.56	84.4478	2070.56	85.1702	2070.56	83.5757	2070.56	83.4558	2070.56	82.175	2070.56	81.7693	2070.56	79.7505	2070.56	80.5013	2070.56	77.3943	2070.56	78.9308	2070.56	77.8653	2070.56	76.3538	2070.56	77.842	2070.56	73.0678	2070.56	75.8673	2070.56	73.0297	2070.56	73.0915	2070.56	74.6171	2070.56	71.211	2070.56	73.0533	2070.56	72.4587	2070.56	69.538	2070.56	71.9341	2070.56	70.8083	2070.56	64.6992	2070.56	68.6853	2070.56	68.1211	2070.56	57.4853	2070.56	74.1472	2070.56	70.1489	2070.56	74.3524
2143.8	87.1598	2143.8	86.4694	2143.8	86.9857	2143.8	85.3965	2143.8	85.8843	2143.8	84.1145	2143.8	84.4584	2143.8	82.8246	2143.8	83.3219	2143.8	81.9109	2143.8	82.4335	2143.8	80.7991	2143.8	81.3703	2143.8	78.8144	2143.8	79.7061	2143.8	77.5988	2143.8	77.5357	2143.8	77.4069	2143.8	74.4379	2143.8	75.4031	2143.8	66.4884	2143.8	71.592	2143.8	67.3889	2143.8	68.4146	2143.8	73.3429	2143.8	71.6296	2143.8	71.6356	2143.8	71.8227	2143.8	67.6634	2143.8	62.6983	2143.8	68.8559	2143.8	70.083	2143.8	62.0287	2143.8	74.8215	2143.8	69.6915	2143.8	74.5806
2219.24	86.6964	2219.24	86.2479	2219.24	86.3834	2219.24	85.4122	2219.24	85.7381	2219.24	84.4122	2219.24	85.3075	2219.24	82.8815	2219.24	84.4162	2219.24	81.1089	2219.24	82.5464	2219.24	80.202	2219.24	80.815	2219.24	79.575	2219.24	79.9417	2219.24	78.606	2219.24	78.3674	2219.24	78.2864	2219.24	76.7122	2219.24	77.0785	2219.24	75.086	2219.24	73.0579	2219.24	71.8894	2219.24	68.3457	2219.24	72.7352	2219.24	71.2792	2219.24	72.125	2219.24	71.414	2219.24	67.8139	2219.24	64.5328	2219.24	68.7588	2219.24	67.9853	2219.24	64.8934	2219.24	73.6807	2219.24	66.9163	2219.24	73.2433
2297.61	85.6331	2297.61	85.2765	2297.61	85.7643	2297.61	84.8071	2297.61	85.592	2297.61	84.1179	2297.61	85.0849	2297.61	82.9551	2297.61	84.0418	2297.61	81.3091	2297.61	82.2043	2297.61	79.7547	2297.61	79.632	2297.61	78.7036	2297.61	77.1325	2297.61	78.2939	2297.61	75.9416	2297.61	78.5172	2297.61	75.4615	2297.61	78.039	2297.61	72.255	2297.61	75.5651	2297.61	67.115	2297.61	71.0009	2297.61	71.7308	2297.61	71.4275	2297.61	71.8556	2297.61	71.6277	2297.61	67.4722	2297.61	63.4638	2297.61	68.8691	2297.61	67.1885	2297.61	66.2603	2297.61	72.1212	2297.61	64.4696	2297.61	70.6814
2378.17	86.6828	2378.17	86.1014	2378.17	86.1674	2378.17	84.6461	2378.17	85.4785	2378.17	83.5016	2378.17	84.7345	2378.17	82.7507	2378.17	83.0053	2378.17	81.6121	2378.17	80.4672	2378.17	80.2182	2378.17	79.4656	2378.17	78.9602	2378.17	79.3824	2378.17	77.0702	2378.17	77.2098	2378.17	74.9609	2378.17	75.4187	2378.17	74.732	2378.17	76.6684	2378.17	74.1157	2378.17	73.822	2378.17	70.0223	2378.17	68.4285	2378.17	69.9635	2378.17	73.0646	2378.17	70.3153	2378.17	69.8259	2378.17	61.4315	2378.17	68.6292	2378.17	64.7902	2378.17	68.9557	2378.17	71.0492	2378.17	62.9629	2378.17	70.3716
2462.4	86.7895	2462.4	86.4903	2462.4	86.616	2462.4	85.1804	2462.4	86.1215	2462.4	83.4186	2462.4	84.324	2462.4	82.079	2462.4	82.1144	2462.4	80.8428	2462.4	82.0849	2462.4	79.3567	2462.4	81.8457	2462.4	78.4401	2462.4	79.3586	2462.4	77.5256	2462.4	76.8213	2462.4	76.1304	2462.4	74.993	2462.4	75.1485	2462.4	72.0632	2462.4	72.85	2462.4	74.2342	2462.4	68.7867	2462.4	71.7972	2462.4	68.011	2462.4	68.4676	2462.4	70.2338	2462.4	69.9284	2462.4	66.1552	2462.4	65.3361	2462.4	62.5139	2462.4	66.5027	2462.4	71.6026	2462.4	63.1831	2462.4	71.1209
2548.83	85.5985	2548.83	85.4286	2548.83	85.9289	2548.83	85.0322	2548.83	85.3347	2548.83	83.8031	2548.83	84.1012	2548.83	82.303	2548.83	83.7849	2548.83	80.9175	2548.83	83.0628	2548.83	79.1951	2548.83	81.4422	2548.83	77.8174	2548.83	79.635	2548.83	78.49	2548.83	77.2603	2548.83	78.9574	2548.83	74.559	2548.83	78.0462	2548.83	74.0791	2548.83	75.6934	2548.83	73.282	2548.83	70.0531	2548.83	71.4877	2548.83	67.5255	2548.83	69.073	2548.83	70.3773	2548.83	69.7802	2548.83	66.3554	2548.83	68.2639	2548.83	60.5611	2548.83	65.8318	2548.83	71.1163	2548.83	60.3197	2548.83	70.2842
2638.92	86.173	2638.92	85.8168	2638.92	85.8498	2638.92	85.1543	2638.92	84.9283	2638.92	84.0986	2638.92	84.6136	2638.92	82.6644	2638.92	84.2089	2638.92	81.2465	2638.92	82.0842	2638.92	79.6044	2638.92	78.9644	2638.92	76.8864	2638.92	77.1702	2638.92	75.6916	2638.92	76.8947	2638.92	76.6458	2638.92	75.4771	2638.92	76.6965	2638.92	70.6775	2638.92	76.5355	2638.92	71.9784	2638.92	73.3701	2638.92	72.8947	2638.92	68.7041	2638.92	69.328	2638.92	70.9267	2638.92	67.6552	2638.92	68.6484	2638.92	65.0152	2638.92	52.6917	2638.92	64.6151	2638.92	69.171	2638.92	63.5459	2638.92	69.9155
2731.93	86.327	2731.93	85.8903	2731.93	86.1124	2731.93	85.2163	2731.93	85.6987	2731.93	84.3128	2731.93	85.2354	2731.93	83.012	2731.93	83.8508	2731.93	81.4691	2731.93	81.7089	2731.93	80.1673	2731.93	80.1592	2731.93	78.9781	2731.93	79.2642	2731.93	77.5961	2731.93	77.3935	2731.93	76.8534	2731.93	74.6072	2731.93	76.4622	2731.93	71.8945	2731.93	75.3508	2731.93	68.6215	2731.93	72.3396	2731.93	71.5785	2731.93	69.4137	2731.93	71.2276	2731.93	71.0355	2731.93	66.7579	2731.93	69.7528	2731.93	67.5746	2731.93	60.193	2731.93	66.0202	2731.93	71.2283	2731.93	63.2918	2731.93	69.885
2828.61	86.7877	2828.61	86.3838	2828.61	86.7884	2828.61	85.7282	2828.61	86.3543	2828.61	84.8091	2828.61	85.4077	2828.61	83.6445	2828.61	83.9619	2828.61	82.2093	2828.61	82.2922	2828.61	80.5359	2828.61	80.6244	2828.61	78.778	2828.61	77.6541	2828.61	77.4396	2828.61	73.1219	2828.61	76.3927	2828.61	71.5616	2828.61	76.0892	2828.61	69.9705	2828.61	76.3795	2828.61	69.8642	2828.61	73.6791	2828.61	71.1944	2828.61	69.2946	2828.61	69.8277	2828.61	70.923	2828.61	69.0611	2828.61	67.9753	2828.61	65.2795	2828.61	60.5814	2828.61	68.0401	2828.61	70.8596	2828.61	66.5698	2828.61	70.3882
2928.22	86.8001	2928.22	86.8726	2928.22	86.3191	2928.22	86.0612	2928.22	86.2609	2928.22	84.8518	2928.22	85.9408	2928.22	83.6237	2928.22	84.518	2928.22	82.2039	2928.22	81.8815	2928.22	80.7874	2928.22	79.2066	2928.22	79.0455	2928.22	78.3237	2928.22	75.4139	2928.22	76.7113	2928.22	72.1743	2928.22	73.1082	2928.22	66.6217	2928.22	74.1066	2928.22	72.2003	2928.22	71.4949	2928.22	74.2064	2928.22	70.361	2928.22	68.2637	2928.22	70.7667	2928.22	70.0712	2928.22	66.4554	2928.22	68.1009	2928.22	66.5938	2928.22	59.2916	2928.22	65.8318	2928.22	71.0076	2928.22	65.7119	2928.22	69.4713
3031.49	86.848	3031.49	86.5992	3031.49	86.6133	3031.49	85.9663	3031.49	86.3188	3031.49	84.834	3031.49	85.7709	3031.49	83.4237	3031.49	83.9353	3031.49	82.0692	3031.49	81.8191	3031.49	80.5395	3031.49	79.7212	3031.49	78.7724	3031.49	76.0438	3031.49	75.4794	3031.49	74.7416	3031.49	72.8758	3031.49	74.636	3031.49	69.4901	3031.49	70.8822	3031.49	68.6565	3031.49	70.0133	3031.49	72.7782	3031.49	70.6747	3031.49	68.0603	3031.49	70.5296	3031.49	68.2173	3031.49	69.1413	3031.49	67.5462	3031.49	63.6503	3031.49	57.5308	3031.49	67.082	3031.49	69.4062	3031.49	65.9113	3031.49	68.2217
3138.43	86.6759	3138.43	87.1999	3138.43	86.6265	3138.43	86.5951	3138.43	87.26	3138.43	85.1935	3138.43	85.8679	3138.43	83.1933	3138.43	83.8404	3138.43	81.354	3138.43	81.6954	3138.43	80.3979	3138.43	77.9389	3138.43	79.396	3138.43	77.0051	3138.43	76.1147	3138.43	75.9336	3138.43	69.1541	3138.43	70.8979	3138.43	61.7247	3138.43	65.6958	3138.43	59.9752	3138.43	68.4994	3138.43	69.6975	3138.43	69.7085	3138.43	65.5337	3138.43	69.839	3138.43	65.5968	3138.43	67.861	3138.43	68.1462	3138.43	64.6994	3138.43	58.4011	3138.43	65.3532	3138.43	69.8048	3138.43	65.055	3138.43	68.7238
3249.02	86.6036	3249.02	86.7238	3249.02	87.3518	3249.02	86.4955	3249.02	86.8741	3249.02	85.2843	3249.02	85.5618	3249.02	83.4473	3249.02	83.6819	3249.02	80.8467	3249.02	79.3174	3249.02	78.9397	3249.02	77.5034	3249.02	77.8985	3249.02	76.7388	3249.02	75.4513	3249.02	73.3363	3249.02	71.638	3249.02	72.1046	3249.02	70.6599	3249.02	72.5379	3249.02	67.9555	3249.02	68.2873	3249.02	60.9386	3249.02	70.411	3249.02	64.8908	3249.02	68.9395	3249.02	61.1933	3249.02	68.8695	3249.02	64.9494	3249.02	65.1786	3249.02	58.6713	3249.02	65.6553	3249.02	67.1985	3249.02	67.243	3249.02	66.9327
3363.28	86.8158	3363.28	86.5542	3363.28	87.407	3363.28	86.3292	3363.28	86.9637	3363.28	85.074	3363.28	85.4301	3363.28	83.398	3363.28	82.208	3363.28	81.0704	3363.28	80.1036	3363.28	78.4115	3363.28	79.0187	3363.28	76.317	3363.28	74.6636	3363.28	73.8978	3363.28	73.0202	3363.28	74.7365	3363.28	73.1478	3363.28	75.1189	3363.28	70.8295	3363.28	71.7049	3363.28	68.9996	3363.28	69.0324	3363.28	67.629	3363.28	65.8162	3363.28	70.6986	3363.28	61.7227	3363.28	69.2377	3363.28	65.6299	3363.28	66.8932	3363.28	49.3479	3363.28	65.1128	3363.28	67.7046	3363.28	67.992	3363.28	65.4619
3481.93	86.9929	3481.93	86.6461	3481.93	87.1355	3481.93	86.0614	3481.93	86.5163	3481.93	84.7331	3481.93	84.9738	3481.93	82.9462	3481.93	82.4333	3481.93	80.6236	3481.93	80.9455	3481.93	77.4817	3481.93	78.79	3481.93	75.2581	3481.93	77.5839	3481.93	75.135	3481.93	76.1948	3481.93	76.9272	3481.93	72.5122	3481.93	77.4359	3481.93	69.5669	3481.93	72.4665	3481.93	68.352	3481.93	69.8881	3481.93	67.8673	3481.93	67.5276	3481.93	69.519	3481.93	64.1125	3481.93	69.319	3481.93	66.1888	3481.93	66.9188	3481.93	50.9294	3481.93	64.4393	3481.93	66.2678	3481.93	67.336	3481.93	64.9536
3604.98	86.578	3604.98	86.3476	3604.98	87.138	3604.98	86.377	3604.98	86.6258	3604.98	85.1208	3604.98	84.6071	3604.98	82.7188	3604.98	82.0935	3604.98	80.3055	3604.98	80.04	3604.98	77.7131	3604.98	77.7985	3604.98	75.9268	3604.98	76.6429	3604.98	76.6964	3604.98	74.2481	3604.98	76.6564	3604.98	70.9194	3604.98	75.411	3604.98	70.6197	3604.98	67.3735	3604.98	67.3143	3604.98	64.893	3604.98	67.2358	3604.98	66.8709	3604.98	67.9505	3604.98	62.7046	3604.98	68.7578	3604.98	64.3876	3604.98	65.7238	3604.98	48.0471	3604.98	62.6039	3604.98	65.1654	3604.98	66.8349	3604.98	64.0859
3732.42	87.098	3732.42	86.2315	3732.42	87.3137	3732.42	85.8257	3732.42	86.235	3732.42	85.0069	3732.42	84.3725	3732.42	82.9512	3732.42	82.0213	3732.42	79.7894	3732.42	80.2999	3732.42	77.0721	3732.42	79.3339	3732.42	74.6688	3732.42	76.5471	3732.42	75.1471	3732.42	72.3841	3732.42	76.3426	3732.42	70.9997	3732.42	74.3764	3732.42	68.6472	3732.42	66.2444	3732.42	67.0394	3732.42	62.3741	3732.42	66.2666	3732.42	63.8548	3732.42	67.8002	3732.42	61.5652	3732.42	68.6818	3732.42	62.7728	3732.42	67.0145	3732.42	52.5806	3732.42	63.2886	3732.42	65.1758	3732.42	66.7562	3732.42	64.5609
3863.53	86.8158	3863.53	86.3509	3863.53	87.294	3863.53	86.0756	3863.53	86.3152	3863.53	84.8955	3863.53	84.2153	3863.53	82.5566	3863.53	82.5171	3863.53	79.8607	3863.53	81.3815	3863.53	77.5564	3863.53	79.58	3863.53	75.4395	3863.53	76.7176	3863.53	74.047	3863.53	75.1385	3863.53	70.5247	3863.53	73.4276	3863.53	65.2526	3863.53	70.071	3863.53	59.2511	3863.53	68.6102	3863.53	60.0746	3863.53	67.394	3863.53	65.5381	3863.53	67.4691	3863.53	53.0686	3863.53	68.3514	3863.53	59.2947	3863.53	67.401	3863.53	55.0801	3863.53	62.9833	3863.53	62.3282	3863.53	66.0953	3863.53	61.2098
3999.76	87.1345	3999.76	86.2008	3999.76	87.0418	3999.76	85.7894	3999.76	85.7766	3999.76	84.893	3999.76	84.1117	3999.76	82.7654	3999.76	82.603	3999.76	80.5476	3999.76	81.308	3999.76	78.158	3999.76	78.7557	3999.76	75.4631	3999.76	76.2988	3999.76	71.9697	3999.76	74.0364	3999.76	61.4285	3999.76	71.4377	3999.76	69.9011	3999.76	68.3285	3999.76	71.3121	3999.76	66.335	3999.76	65.6183	3999.76	65.752	3999.76	61.9755	3999.76	65.7218	3999.76	58.3353	3999.76	67.034	3999.76	57.6684	3999.76	66.7616	3999.76	49.5204	3999.76	60.4421	3999.76	62.8698	3999.76	65.1725	3999.76	60.3477
4141.11	87.1075	4141.11	86.2749	4141.11	87.0081	4141.11	85.4835	4141.11	85.5384	4141.11	84.7852	4141.11	83.9285	4141.11	82.6433	4141.11	82.6096	4141.11	80.0592	4141.11	81.0481	4141.11	78.0606	4141.11	78.7986	4141.11	74.5768	4141.11	76.0085	4141.11	68.9933	4141.11	71.2141	4141.11	63.5901	4141.11	68.3423	4141.11	73.4898	4141.11	69.024	4141.11	72.7314	4141.11	65.5776	4141.11	57.3532	4141.11	67.0366	4141.11	59.6496	4141.11	65.245	4141.11	63.6365	4141.11	65.679	4141.11	60.2512	4141.11	65.8936	4141.11	47.9254	4141.11	61.6979	4141.11	63.3386	4141.11	65.5932	4141.11	64.1286
4286.87	86.9548	4286.87	86.2939	4286.87	86.5717	4286.87	85.6594	4286.87	85.4937	4286.87	84.7127	4286.87	84.3664	4286.87	82.5639	4286.87	83.189	4286.87	79.8562	4286.87	81.0682	4286.87	77.7752	4286.87	78.3163	4286.87	73.0684	4286.87	73.4588	4286.87	64.0904	4286.87	70.0888	4286.87	69.3561	4286.87	72.3705	4286.87	73.8892	4286.87	69.228	4286.87	70.5726	4286.87	64.4832	4286.87	63.4019	4286.87	61.311	4286.87	48.623	4286.87	65.8855	4286.87	64.907	4286.87	66.785	4286.87	60.638	4286.87	66.9305	4286.87	52.932	4286.87	62.4995	4286.87	60.548	4286.87	66.4305	4286.87	65.7577
4438.48	87.1225	4438.48	86.3019	4438.48	86.5539	4438.48	85.6133	4438.48	85.6071	4438.48	85.5137	4438.48	84.8605	4438.48	83.0943	4438.48	83.2928	4438.48	79.5287	4438.48	80.4847	4438.48	76.3069	4438.48	77.3489	4438.48	71.6127	4438.48	75.2185	4438.48	72.1084	4438.48	72.7582	4438.48	71.9079	4438.48	66.1728	4438.48	70.781	4438.48	67.6447	4438.48	66.8089	4438.48	68.4459	4438.48	70.353	4438.48	65.1536	4438.48	62.5628	4438.48	65.4938	4438.48	63.4279	4438.48	66.3534	4438.48	61.2712	4438.48	66.9971	4438.48	59.9216	4438.48	64.035	4438.48	55.4176	4438.48	66.1577	4438.48	64.702
4594.48	87.07	4594.48	86.7123	4594.48	86.4098	4594.48	85.7625	4594.48	85.6692	4594.48	84.8037	4594.48	85.4171	4594.48	83.3314	4594.48	83.4336	4594.48	80.2306	4594.48	80.756	4594.48	76.5367	4594.48	77.2618	4594.48	74.8965	4594.48	74.1319	4594.48	73.8686	4594.48	68.2206	4594.48	66.3336	4594.48	70.2804	4594.48	68.746	4594.48	69.8569	4594.48	69.8981	4594.48	64.4144	4594.48	72.4422	4594.48	62.3387	4594.48	65.1805	4594.48	65.0637	4594.48	59.1402	4594.48	65.3661	4594.48	61.6352	4594.48	66.1687	4594.48	59.0938	4594.48	63.2806	4594.48	59.8132	4594.48	66.1566	4594.48	61.5995
4757.08	87.1052	4757.08	86.8163	4757.08	86.0781	4757.08	85.9776	4757.08	86.3565	4757.08	85.118	4757.08	85.6024	4757.08	82.7601	4757.08	83.6668	4757.08	80.0616	4757.08	79.9135	4757.08	78.4727	4757.08	77.6438	4757.08	76.8841	4757.08	74.5006	4757.08	74.0676	4757.08	74.6106	4757.08	67.9659	4757.08	70.5727	4757.08	55.0954	4757.08	68.4622	4757.08	65.4722	4757.08	69.1678	4757.08	69.6702	4757.08	64.5151	4757.08	63.7107	4757.08	66.4319	4757.08	62.7138	4757.08	66.4586	4757.08	57.0245	4757.08	66.1891	4757.08	59.1067	4757.08	63.7407	4757.08	57.9393	4757.08	65.5983	4757.08	61.4004
4924.8	86.9339	4924.8	87.0315	4924.8	86.1661	4924.8	85.8821	4924.8	86.253	4924.8	85.1467	4924.8	85.9328	4924.8	82.7846	4924.8	83.5212	4924.8	79.7185	4924.8	80.1253	4924.8	78.568	4924.8	77.6099	4924.8	76.8232	4924.8	76.5875	4924.8	73.287	4924.8	70.775	4924.8	68.9021	4924.8	69.253	4924.8	51	4924.8	69.6603	4924.8	53.2692	4924.8	65.5806	4924.8	63.6701	4924.8	62.5456	4924.8	64.8714	4924.8	64.571	4924.8	63.4562	4924.8	66.0655	4924.8	54.1725	4924.8	67.1471	4924.8	58.1602	4924.8	65.3838	4924.8	57.5553	4924.8	65.6239	4924.8	63.1881
5098.39	87.0647	5098.39	87.4483	5098.39	86.2712	5098.39	86.3634	5098.39	86.8154	5098.39	84.9403	5098.39	86.0442	5098.39	83.5053	5098.39	83.2616	5098.39	80.4111	5098.39	79.9933	5098.39	76.7627	5098.39	78.5486	5098.39	75.1501	5098.39	75.3666	5098.39	71.5568	5098.39	74.6913	5098.39	69.8194	5098.39	72.1803	5098.39	65.698	5098.39	70.0377	5098.39	62.7231	5098.39	68.1987	5098.39	56.3514	5098.39	64.8508	5098.39	63.6398	5098.39	64.5815	5098.39	67.6767	5098.39	65.0977	5098.39	57.0631	5098.39	66.1568	5098.39	54.1482	5098.39	63.7559	5098.39	55.8983	5098.39	65.2116	5098.39	63.626
5277.83	87.1117	5277.83	87.9543	5277.83	86.335	5277.83	86.4155	5277.83	86.841	5277.83	84.9526	5277.83	85.7244	5277.83	83.6002	5277.83	82.6807	5277.83	81.47	5277.83	80.357	5277.83	78.6139	5277.83	78.5703	5277.83	75.5375	5277.83	77.4733	5277.83	71.0345	5277.83	72.8868	5277.83	63.3972	5277.83	70.5168	5277.83	64.76	5277.83	69.7711	5277.83	65.1187	5277.83	65.6728	5277.83	54.2537	5277.83	63.3945	5277.83	54.444	5277.83	62.2074	5277.83	68.267	5277.83	65.4306	5277.83	62.5352	5277.83	65.0709	5277.83	57.1826	5277.83	65.7924	5277.83	55.6694	5277.83	64.8422	5277.83	61.8664
5463.87	87.1225	5463.87	87.5557	5463.87	86.4877	5463.87	86.4933	5463.87	87.0525	5463.87	84.6327	5463.87	85.2447	5463.87	82.3921	5463.87	82.6811	5463.87	81.3733	5463.87	80.541	5463.87	79.5514	5463.87	79.4843	5463.87	76.2545	5463.87	76.1441	5463.87	72.648	5463.87	72.5079	5463.87	71.8527	5463.87	70.5142	5463.87	62.5707	5463.87	69.5912	5463.87	44.6618	5463.87	67.6597	5463.87	54.161	5463.87	64.5893	5463.87	42.4191	5463.87	61.5647	5463.87	66.3771	5463.87	62.9495	5463.87	62.9924	5463.87	64.8788	5463.87	57.7839	5463.87	65.4561	5463.87	55.458	5463.87	62.9605	5463.87	62.7766
5656.49	86.731	5656.49	88.2191	5656.49	86.8605	5656.49	86.5361	5656.49	87.0279	5656.49	83.8105	5656.49	84.9618	5656.49	83.1212	5656.49	82.5916	5656.49	81.0743	5656.49	81.1133	5656.49	78.2679	5656.49	78.8898	5656.49	74.4848	5656.49	76.1136	5656.49	72.3199	5656.49	73.5953	5656.49	72.4375	5656.49	69.2263	5656.49	67.127	5656.49	66.8098	5656.49	56.4325	5656.49	65.1535	5656.49	60.0447	5656.49	63.4477	5656.49	55.7399	5656.49	62.8155	5656.49	61.2033	5656.49	64.8704	5656.49	63.8572	5656.49	61.94	5656.49	59.4021	5656.49	65.4783	5656.49	53.6705	5656.49	63.1963	5656.49	61.7877
5856.45	87.2731	5856.45	87.8788	5856.45	87.4262	5856.45	86.7986	5856.45	86.5208	5856.45	83.9645	5856.45	84.3368	5856.45	82.2084	5856.45	82.4983	5856.45	81.1736	5856.45	81.0146	5856.45	78.2985	5856.45	79.2165	5856.45	73.9578	5856.45	76.6548	5856.45	71.823	5856.45	71.1846	5856.45	70.2938	5856.45	70.8066	5856.45	64.8668	5856.45	69.4769	5856.45	53.9197	5856.45	67.5253	5856.45	53.9346	5856.45	62.9179	5856.45	58.1123	5856.45	60.9931	5856.45	60.7261	5856.45	63.5488	5856.45	62.9942	5856.45	62.4372	5856.45	60.929	5856.45	64.6841	5856.45	49.2488	5856.45	61.8788	5856.45	61.7873
6062.99	87.8503	6062.99	88.011	6062.99	87.6275	6062.99	86.4056	6062.99	86.6396	6062.99	83.2359	6062.99	84.168	6062.99	81.0666	6062.99	82.9262	6062.99	80.4	6062.99	80.5525	6062.99	78.0182	6062.99	78.2536	6062.99	76.0954	6062.99	73.6391	6062.99	74.0417	6062.99	72.286	6062.99	69.8178	6062.99	69.4489	6062.99	65.3944	6062.99	66.117	6062.99	65.9958	6062.99	66.1191	6062.99	62.0283	6062.99	63.5251	6062.99	58.6338	6062.99	61.1407	6062.99	37.9706	6062.99	62.7915	6062.99	61.8771	6062.99	61.4073	6062.99	62.7544	6062.99	63.7168	6062.99	41.1124	6062.99	62.2238	6062.99	62.5495
6276.86	88.2125	6276.86	88.1053	6276.86	88.1124	6276.86	86.2849	6276.86	85.8404	6276.86	83.4168	6276.86	83.8572	6276.86	81.4479	6276.86	82.3758	6276.86	79.9284	6276.86	80.93	6276.86	78.2963	6276.86	77.9249	6276.86	75.9518	6276.86	76.3531	6276.86	72.1642	6276.86	71.7325	6276.86	68.1436	6276.86	70.2571	6276.86	68.966	6276.86	68.1404	6276.86	62.6084	6276.86	65.6732	6276.86	62.8318	6276.86	64.946	6276.86	59.3629	6276.86	60.7023	6276.86	56.3255	6276.86	63.1801	6276.86	52.1685	6276.86	60.6719	6276.86	62.9094	6276.86	62.1938	6276.86	49.8849	6276.86	61.0327	6276.86	62.6725
6498.05	88.8497	6498.05	87.9255	6498.05	88.1984	6498.05	86.3911	6498.05	85.8823	6498.05	82.8989	6498.05	83.9561	6498.05	81.1504	6498.05	82.5536	6498.05	80.9215	6498.05	79.9814	6498.05	78.828	6498.05	78.8908	6498.05	76.8449	6498.05	74.483	6498.05	71.9329	6498.05	72.9486	6498.05	70.2953	6498.05	70.28	6498.05	68.5311	6498.05	67.5945	6498.05	65.7376	6498.05	66.1278	6498.05	61.5416	6498.05	64.0276	6498.05	60.9423	6498.05	62.1017	6498.05	58.2336	6498.05	61.0948	6498.05	58.9366	6498.05	60.8451	6498.05	55.6936	6498.05	61.1833	6498.05	43.1027	6498.05	61.5688	6498.05	59.6446
6727.29	89.1673	6727.29	87.7837	6727.29	88.5152	6727.29	86.1714	6727.29	85.7661	6727.29	83.4897	6727.29	83.942	6727.29	81.3179	6727.29	81.9996	6727.29	80.8812	6727.29	80.2995	6727.29	78.9406	6727.29	77.8532	6727.29	75.2904	6727.29	75.7863	6727.29	71.8112	6727.29	72.3609	6727.29	70.5703	6727.29	69.0155	6727.29	67.8996	6727.29	67.3788	6727.29	60.254	6727.29	65.8323	6727.29	60.2924	6727.29	64.1404	6727.29	59.4007	6727.29	61.5441	6727.29	57.7342	6727.29	61.7761	6727.29	63.2658	6727.29	62.2824	6727.29	57.1044	6727.29	62.0744	6727.29	46.3919	6727.29	61.6646	6727.29	59.9114
6964.6	89.8403	6964.6	88.0214	6964.6	88.9575	6964.6	86.3241	6964.6	86.4246	6964.6	84.6211	6964.6	83.998	6964.6	82.2651	6964.6	82.3314	6964.6	81.4784	6964.6	80.2728	6964.6	79.6568	6964.6	78.7558	6964.6	74.1103	6964.6	74.7866	6964.6	69.228	6964.6	71.9089	6964.6	63.5206	6964.6	70.0778	6964.6	63.2179	6964.6	66.0098	6964.6	60.5619	6964.6	64.7982	6964.6	60.7342	6964.6	62.8762	6964.6	59.351	6964.6	59.7729	6964.6	58.0929	6964.6	61.5596	6964.6	65.2908	6964.6	61.4135	6964.6	60.3752	6964.6	59.798	6964.6	52.0784	6964.6	58.6672	6964.6	58.1474
7209.96	90.2097	7209.96	88.2432	7209.96	89.3271	7209.96	86.6341	7209.96	86.7799	7209.96	85.1907	7209.96	84.5642	7209.96	82.5638	7209.96	82.3647	7209.96	81.3288	7209.96	80.0675	7209.96	77.9256	7209.96	78.1258	7209.96	73.0824	7209.96	75.3411	7209.96	68.3436	7209.96	71.3809	7209.96	63.7282	7209.96	67.1795	7209.96	59.6914	7209.96	64.1824	7209.96	48.0178	7209.96	62.09	7209.96	57.3642	7209.96	61.4679	7209.96	51.3311	7209.96	59.6275	7209.96	60.1712	7209.96	58.1519	7209.96	61.5794	7209.96	61.3528	7209.96	60.028	7209.96	60.2303	7209.96	47.3444	7209.96	56.7379	7209.96	56.1734
7464.11	90.337	7464.11	88.3643	7464.11	89.5318	7464.11	86.9831	7464.11	86.9309	7464.11	85.6671	7464.11	84.8809	7464.11	82.3259	7464.11	82.6047	7464.11	80.7645	7464.11	80.9608	7464.11	77.805	7464.11	78.7574	7464.11	75.0142	7464.11	74.0945	7464.11	73.2042	7464.11	71.1614	7464.11	70.077	7464.11	69.4298	7464.11	65.266	7464.11	64.3015	7464.11	60.5409	7464.11	62.3313	7464.11	55.8683	7464.11	61.1848	7464.11	37.1152	7464.11	59.3495	7464.11	58.8037	7464.11	58.0522	7464.11	60.2653	7464.11	61.6373	7464.11	58.1304	7464.11	59.778	7464.11	54.4314	7464.11	58.0128	7464.11	57.1511
7727.78	90.4262	7727.78	88.622	7727.78	89.2603	7727.78	86.9462	7727.78	86.8242	7727.78	85.6053	7727.78	85.3818	7727.78	81.8332	7727.78	82.958	7727.78	80.0981	7727.78	81.7336	7727.78	79.5095	7727.78	78.1253	7727.78	76.7583	7727.78	73.6668	7727.78	74.1954	7727.78	68.1039	7727.78	68.096	7727.78	66.2173	7727.78	55.485	7727.78	64.3014	7727.78	65.7333	7727.78	63.6917	7727.78	54.5729	7727.78	62.9	7727.78	58.077	7727.78	60.0313	7727.78	55.7717	7727.78	58.7722	7727.78	58.0837	7727.78	63.7253	7727.78	59.1749	7727.78	59.002	7727.78	55.4014	7727.78	56.63	7727.78	57.6756
8000.24	90.0478	8000.24	88.5513	8000.24	88.6181	8000.24	86.6405	8000.24	86.3781	8000.24	84.8919	8000.24	85.2952	8000.24	81.6773	8000.24	83.2488	8000.24	80.016	8000.24	81.4934	8000.24	79.7214	8000.24	77.3824	8000.24	77.4908	8000.24	73.5724	8000.24	74.8601	8000.24	71.9326	8000.24	70.2793	8000.24	69.6399	8000.24	56.6017	8000.24	65.0791	8000.24	67.8447	8000.24	65.4317	8000.24	57.1375	8000.24	63.543	8000.24	56.7088	8000.24	60.9022	8000.24	54.2417	8000.24	61.9377	8000.24	60.5015	8000.24	65.0992	8000.24	52.186	8000.24	60.0523	8000.24	54.5348	8000.24	54.6982	8000.24	58.4182
8282.23	89.5434	8282.23	88.5946	8282.23	87.8689	8282.23	86.714	8282.23	86.3714	8282.23	84.5819	8282.23	84.7173	8282.23	81.3585	8282.23	82.6367	8282.23	79.3833	8282.23	80.3943	8282.23	78.2569	8282.23	77.5918	8282.23	73.9784	8282.23	73.8765	8282.23	68.9906	8282.23	71.2122	8282.23	66.4768	8282.23	68.1453	8282.23	65.2857	8282.23	65.7958	8282.23	69.8004	8282.23	64.1557	8282.23	61.3396	8282.23	61.6393	8282.23	49.12	8282.23	61.5128	8282.23	57.2318	8282.23	60.5247	8282.23	57.4839	8282.23	63.3684	8282.23	43.0397	8282.23	58.5203	8282.23	46.0551	8282.23	52.5631	8282.23	57.8879
8574.46	89.5598	8574.46	88.8948	8574.46	88.3198	8574.46	87.0991	8574.46	86.9653	8574.46	84.5391	8574.46	84.4428	8574.46	81.9844	8574.46	82.1836	8574.46	78.8787	8574.46	79.4456	8574.46	76.2742	8574.46	77.2416	8574.46	71.9197	8574.46	72.8262	8574.46	65.9965	8574.46	70.2393	8574.46	68.7985	8574.46	65.0363	8574.46	69.4736	8574.46	61.3398	8574.46	69.2647	8574.46	61.5144	8574.46	63.0633	8574.46	58.611	8574.46	44.5322	8574.46	58.7376	8574.46	55.6698	8574.46	58.6021	8574.46	57.4828	8574.46	60.6746	8574.46	52.1469	8574.46	56.3264	8574.46	47.4101	8574.46	48.7789	8574.46	53.5529
8876.22	89.304	8876.22	88.75	8876.22	88.4959	8876.22	87.2329	8876.22	87.184	8876.22	85.1709	8876.22	84.6417	8876.22	82.3327	8876.22	82.5253	8876.22	78.6355	8876.22	79.7004	8876.22	76.2178	8876.22	77.2669	8876.22	73.1164	8876.22	71.263	8876.22	68.4294	8876.22	68.9846	8876.22	69.3437	8876.22	64.9724	8876.22	70.3418	8876.22	61.5202	8876.22	70.0097	8876.22	60.0936	8876.22	65.2688	8876.22	57.5431	8876.22	57.8577	8876.22	58.3718	8876.22	49.2552	8876.22	58.2044	8876.22	56.6655	8876.22	58.9318	8876.22	44.3531	8876.22	54.3057	8876.22	50.5206	8876.22	45.3845	8876.22	51.2295
9189.7	88.7958	9189.7	88.3673	9189.7	88.0588	9189.7	87.1116	9189.7	86.5505	9189.7	84.9884	9189.7	84.5994	9189.7	82.2499	9189.7	82.4078	9189.7	78.995	9189.7	80.0647	9189.7	77.3214	9189.7	77.8253	9189.7	74.4575	9189.7	72.5656	9189.7	68.9769	9189.7	69.6725	9189.7	65.7115	9189.7	64.5665	9189.7	67.2539	9189.7	62.9144	9189.7	67.4333	9189.7	60.0108	9189.7	63.4024	9189.7	57.7261	9189.7	58.4658	9189.7	58.1884	9189.7	52.1564	9189.7	59.0453	9189.7	55.7041	9189.7	60.4452	9189.7	51.2521	9189.7	54.1727	9189.7	45.0242	9189.7	48.4669	9189.7	50.8709
9513.43	88.4208	9513.43	88.2839	9513.43	87.7284	9513.43	86.8042	9513.43	86.2363	9513.43	85.2534	9513.43	84.7067	9513.43	82.4358	9513.43	81.923	9513.43	80.0967	9513.43	80.5148	9513.43	77.9065	9513.43	77.9425	9513.43	72.8621	9513.43	72.9089	9513.43	67.4572	9513.43	69.8758	9513.43	67.2846	9513.43	64.2743	9513.43	68.049	9513.43	61.0386	9513.43	67.1587	9513.43	60.4756	9513.43	58.7859	9513.43	56.3493	9513.43	53.1631	9513.43	56.4379	9513.43	56.6192	9513.43	59.1227	9513.43	56.6864	9513.43	60.2301	9513.43	50.4596	9513.43	55.0666	9513.43	39.3465	9513.43	48.1184	9513.43	49.7965
9848.88	87.7137	9848.88	87.7435	9848.88	87.6298	9848.88	86.5147	9848.88	86.1881	9848.88	85.0412	9848.88	84.7747	9848.88	82.4844	9848.88	81.8378	9848.88	79.9893	9848.88	80.9877	9848.88	77.0294	9848.88	77.5576	9848.88	73.414	9848.88	71.4601	9848.88	68.9394	9848.88	67.8824	9848.88	69.6395	9848.88	64.5712	9848.88	71.0824	9848.88	61.011	9848.88	71.2019	9848.88	59.5965	9848.88	62.4873	9848.88	57.4745	9848.88	45.9068	9848.88	54.7507	9848.88	55.5351	9848.88	58.4807	9848.88	53.7964	9848.88	60.4772	9848.88	51.7447	9848.88	52.2078	9848.88	39.926	9848.88	53.9563	9848.88	48.0868
10196.8	87.1506	10196.8	87.1609	10196.8	87.2294	10196.8	86.3666	10196.8	86.0755	10196.8	84.8001	10196.8	84.7319	10196.8	81.6463	10196.8	82.0527	10196.8	79.7459	10196.8	81.0106	10196.8	76.4741	10196.8	76.9157	10196.8	72.321	10196.8	70.442	10196.8	66.2337	10196.8	67.6884	10196.8	69.3399	10196.8	62.624	10196.8	72.0325	10196.8	61.0553	10196.8	72.7625	10196.8	59.7001	10196.8	65.0445	10196.8	58.1512	10196.8	56.0675	10196.8	55.8744	10196.8	49.1241	10196.8	57.9992	10196.8	56.4952	10196.8	60.0284	10196.8	52.5353	10196.8	54.3804	10196.8	40.0829	10196.8	51.145	10196.8	44.9706
10556.4	86.2547	10556.4	86.4238	10556.4	86.8015	10556.4	86.3589	10556.4	85.9821	10556.4	84.6636	10556.4	84.6245	10556.4	82.3606	10556.4	82.1555	10556.4	80.418	10556.4	80.6455	10556.4	76.2379	10556.4	76.8976	10556.4	72.2244	10556.4	71.0757	10556.4	62.451	10556.4	68.3837	10556.4	65.1887	10556.4	61.8304	10556.4	71.4616	10556.4	60.5475	10556.4	73.4706	10556.4	60.0418	10556.4	65.4926	10556.4	56.3815	10556.4	59.7409	10556.4	56.8905	10556.4	51.7111	10556.4	57.7657	10556.4	55.8962	10556.4	60.7865	10556.4	54.809	10556.4	56.471	10556.4	52.3255	10556.4	55.9146	10556.4	44.1406
10928.5	85.4295	10928.5	85.5538	10928.5	86.1442	10928.5	85.887	10928.5	85.882	10928.5	84.2895	10928.5	84.2209	10928.5	82.8862	10928.5	82.0942	10928.5	80.2934	10928.5	79.9272	10928.5	75.0405	10928.5	76.3976	10928.5	71.9265	10928.5	69.4782	10928.5	66.5345	10928.5	68.0432	10928.5	65.6574	10928.5	62.5929	10928.5	71.4178	10928.5	60.1853	10928.5	72.8302	10928.5	58.1781	10928.5	64.2151	10928.5	54.3322	10928.5	56.3718	10928.5	55.7995	10928.5	54.0326	10928.5	58.0193	10928.5	55.873	10928.5	59.491	10928.5	54.1696	10928.5	55.7712	10928.5	51.0522	10928.5	53.7858	10928.5	42.1714
11313.7	85.4338	11313.7	85.2997	11313.7	86.0493	11313.7	85.3657	11313.7	85.9047	11313.7	82.8593	11313.7	83.7909	11313.7	81.6881	11313.7	81.5892	11313.7	78.2995	11313.7	78.6203	11313.7	72.2585	11313.7	74.8727	11313.7	71.1261	11313.7	68.7573	11313.7	65.1425	11313.7	66.6834	11313.7	65.1293	11313.7	61.3146	11313.7	70.7631	11313.7	59.5315	11313.7	71.8368	11313.7	56.0071	11313.7	63.7647	11313.7	53.9775	11313.7	57.0234	11313.7	56.3339	11313.7	41.9763	11313.7	55.9116	11313.7	54.6695	11313.7	57.7435	11313.7	50.6864	11313.7	54.9411	11313.7	45.1608	11313.7	53.5092	11313.7	45.8342
11712.9	85.4428	11712.9	85.5044	11712.9	86.2821	11712.9	85.3361	11712.9	85.8089	11712.9	82.334	11712.9	83.1471	11712.9	80.7274	11712.9	80.7743	11712.9	75.4708	11712.9	77.3554	11712.9	73.455	11712.9	73.7454	11712.9	69.9254	11712.9	69.4087	11712.9	61.0404	11712.9	65.4722	11712.9	61.8277	11712.9	60.0241	11712.9	68.989	11712.9	58.705	11712.9	71.1212	11712.9	56.6824	11712.9	64.0778	11712.9	52.8436	11712.9	54.3285	11712.9	55.7258	11712.9	51.425	11712.9	54.9867	11712.9	55.109	11712.9	56.6965	11712.9	52.217	11712.9	52.0217	11712.9	50.2015	11712.9	51.051	11712.9	48.1461
12126	86.0181	12126	86.1622	12126	86.1461	12126	85.8166	12126	85.1435	12126	82.6833	12126	82.1967	12126	80.3615	12126	80.4439	12126	74.9339	12126	77.1437	12126	74.6854	12126	74.2281	12126	68.074	12126	69.7562	12126	64.5725	12126	65.0835	12126	62.6511	12126	61.1752	12126	69.3668	12126	58.5001	12126	71.4155	12126	55.0107	12126	64.189	12126	52.6809	12126	53.7864	12126	56.6562	12126	48.9585	12126	53.9222	12126	53.9673	12126	55.6276	12126	44.6875	12126	51.0311	12126	47.0442	12126	52.7679	12126	48.7568
12553.7	85.543	12553.7	86.4105	12553.7	85.9122	12553.7	85.9929	12553.7	84.8284	12553.7	82.8197	12553.7	82.1785	12553.7	80.1888	12553.7	80.4145	12553.7	75.6702	12553.7	77.4079	12553.7	74.8439	12553.7	74.5454	12553.7	69.0569	12553.7	69.4611	12553.7	65.8317	12553.7	64.8783	12553.7	60.6429	12553.7	60.1358	12553.7	70.1503	12553.7	58.1575	12553.7	72.0343	12553.7	54.3264	12553.7	66.0001	12553.7	51.5371	12553.7	55.0925	12553.7	54.9893	12553.7	43.0984	12553.7	53.9266	12553.7	54.3368	12553.7	54.1581	12553.7	28.5605	12553.7	51.405	12553.7	44.94	12553.7	50.4404	12553.7	47.4859
12996.1	84.5694	12996.1	85.841	12996.1	85.6739	12996.1	85.5096	12996.1	84.7245	12996.1	82.9561	12996.1	82.5826	12996.1	79.5849	12996.1	79.6203	12996.1	76.012	12996.1	77.4967	12996.1	75.0911	12996.1	73.5623	12996.1	69.346	12996.1	68.5875	12996.1	65.7477	12996.1	63.2105	12996.1	58.1688	12996.1	59.1602	12996.1	70.6349	12996.1	57.0207	12996.1	72.8348	12996.1	53.1846	12996.1	66.8934	12996.1	51.9525	12996.1	55.7615	12996.1	53.5672	12996.1	48.1225	12996.1	52.8501	12996.1	54.5004	12996.1	50.6338	12996.1	46.9013	12996.1	46.8145	12996.1	46.3978	12996.1	49.6741	12996.1	48.8692
13454.6	83.7674	13454.6	85.6588	13454.6	85.517	13454.6	85.1666	13454.6	84.3523	13454.6	82.3962	13454.6	82.8303	13454.6	78.8026	13454.6	78.4078	13454.6	75.62	13454.6	77.2241	13454.6	75.0236	13454.6	72.8942	13454.6	68.3921	13454.6	68.0216	13454.6	66.3734	13454.6	62.9498	13454.6	60.1408	13454.6	58.2351	13454.6	71.225	13454.6	55.3356	13454.6	72.9833	13454.6	51.7161	13454.6	66.2943	13454.6	51.1721	13454.6	54.1799	13454.6	52.2479	13454.6	44.348	13454.6	50.525	13454.6	53.7263	13454.6	48.9074	13454.6	49.3444	13454.6	47.7703	13454.6	45.2199	13454.6	54.3145	13454.6	51.0126
13928.5	83.8169	13928.5	85.1803	13928.5	85.3155	13928.5	84.5965	13928.5	83.8663	13928.5	82.5049	13928.5	82.7404	13928.5	78.8987	13928.5	77.9684	13928.5	76.452	13928.5	77.0843	13928.5	74.4081	13928.5	72.4365	13928.5	68.5631	13928.5	67.2909	13928.5	65.2851	13928.5	62.4222	13928.5	60.3472	13928.5	58.4524	13928.5	71.5545	13928.5	55.9639	13928.5	73.6509	13928.5	52.7687	13928.5	66.9502	13928.5	49.7154	13928.5	54.5022	13928.5	51.3627	13928.5	46.1684	13928.5	49.191	13928.5	54.6096	13928.5	50.7953	13928.5	50.0417	13928.5	50.8321	13928.5	44.3141	13928.5	54.3664	13928.5	50.9378
14419.9	84.32	14419.9	84.6762	14419.9	84.9769	14419.9	84.2525	14419.9	83.3832	14419.9	81.8709	14419.9	82.3128	14419.9	78.5931	14419.9	78.115	14419.9	75.8305	14419.9	76.5989	14419.9	73.6029	14419.9	72.2132	14419.9	67.0615	14419.9	67.5082	14419.9	65.7088	14419.9	62.8419	14419.9	51.8726	14419.9	59.0593	14419.9	70.0666	14419.9	55.3967	14419.9	73.0705	14419.9	51.574	14419.9	66.4284	14419.9	49.4496	14419.9	53.7515	14419.9	50.3919	14419.9	46.8398	14419.9	50.8831	14419.9	51.889	14419.9	51.7476	14419.9	51.6388	14419.9	51.689	14419.9	48.4116	14419.9	58.1007	14419.9	54.5704
14928.2	84.8521	14928.2	84.1556	14928.2	84.4749	14928.2	84.0033	14928.2	83.1413	14928.2	81.4529	14928.2	81.5644	14928.2	78.0608	14928.2	78.055	14928.2	74.7108	14928.2	75.8407	14928.2	72.2712	14928.2	71.4848	14928.2	67.1026	14928.2	68.0307	14928.2	63.9359	14928.2	61.1862	14928.2	54.768	14928.2	58.2901	14928.2	70.8923	14928.2	52.711	14928.2	73.5558	14928.2	49.4812	14928.2	67.2802	14928.2	46.3801	14928.2	56.2143	14928.2	50.0135	14928.2	42.5186	14928.2	48.6286	14928.2	50.4254	14928.2	51.0551	14928.2	45.957	14928.2	50.2259	14928.2	42.9953	14928.2	58.6953	14928.2	54.5771
15454.8	85.2188	15454.8	83.4571	15454.8	83.7551	15454.8	83.693	15454.8	82.986	15454.8	80.7328	15454.8	80.596	15454.8	78.03	15454.8	77.5736	15454.8	73.7103	15454.8	74.9627	15454.8	72.1939	15454.8	70.4731	15454.8	66.7023	15454.8	67.661	15454.8	61.3259	15454.8	56.8453	15454.8	52.9389	15454.8	58.48	15454.8	70.8096	15454.8	52.4004	15454.8	73.0905	15454.8	48.5082	15454.8	67.2334	15454.8	47.4764	15454.8	56.3852	15454.8	51.1581	15454.8	43.4042	15454.8	51.0179	15454.8	42.9356	15454.8	50.5111	15454.8	40.8952	15454.8	51.8462	15454.8	30.508	15454.8	57.338	15454.8	57.194
15999.8	85.5292	15999.8	83.0507	15999.8	83.4587	15999.8	83.1938	15999.8	82.8124	15999.8	79.9784	15999.8	79.661	15999.8	77.8305	15999.8	77.1951	15999.8	72.6762	15999.8	74.45	15999.8	71.0006	15999.8	69.9225	15999.8	64.6913	15999.8	66.5236	15999.8	59.7818	15999.8	57.1132	15999.8	48.3617	15999.8	58.8139	15999.8	70.0764	15999.8	51.837	15999.8	73.1538	15999.8	48.7906	15999.8	67.68	15999.8	49.5124	15999.8	53.6886	15999.8	51.0341	15999.8	39.4582	15999.8	50.8204	15999.8	43.7635	15999.8	45.6644	15999.8	47.6138	15999.8	49.6308	15999.8	42.5924	15999.8	56.5811	15999.8	55.8807
16564.5	85.1475	16564.5	82.5595	16564.5	82.967	16564.5	82.6247	16564.5	82.2476	16564.5	79.2339	16564.5	79.0628	16564.5	77.2408	16564.5	76.5257	16564.5	72.6362	16564.5	74.8575	16564.5	70.2819	16564.5	69.1129	16564.5	63.8489	16564.5	64.9473	16564.5	60.0178	16564.5	58.8243	16564.5	49.3014	16564.5	57.0629	16564.5	70.6892	16564.5	50.5772	16564.5	73.639	16564.5	49.0913	16564.5	68.5569	16564.5	49.1471	16564.5	53.0875	16564.5	52.5945	16564.5	43.7272	16564.5	50.19	16564.5	48.368	16564.5	39.9182	16564.5	50.0579	16564.5	47.3902	16564.5	45.8713	16564.5	54.6018	16564.5	55.9594
17148.2	83.98	17148.2	82.0129	17148.2	82.2207	17148.2	82.0929	17148.2	81.3873	17148.2	78.7712	17148.2	78.8236	17148.2	76.7065	17148.2	75.8007	17148.2	72.8907	17148.2	74.8335	17148.2	69.6674	17148.2	67.9992	17148.2	63.8543	17148.2	64.3076	17148.2	60.1932	17148.2	59.2344	17148.2	51.3555	17148.2	54.3673	17148.2	71.0189	17148.2	48.9626	17148.2	73.9251	17148.2	48.2379	17148.2	68.7293	17148.2	47.1979	17148.2	54.2327	17148.2	50.9123	17148.2	46.1305	17148.2	47.7501	17148.2	47.9972	17148.2	39.4428	17148.2	49.4207	17148.2	44.7243	17148.2	45.8637	17148.2	51.0923	17148.2	54.9736
17753.2	82.3634	17753.2	81.2718	17753.2	81.3468	17753.2	81.4433	17753.2	80.6627	17753.2	78.3846	17753.2	78.5331	17753.2	76.0908	17753.2	74.7095	17753.2	73.0207	17753.2	74.2766	17753.2	68.8362	17753.2	67.2466	17753.2	64.0912	17753.2	62.3625	17753.2	60.9537	17753.2	59.4738	17753.2	53.3081	17753.2	51.7719	17753.2	70.6331	17753.2	49.2449	17753.2	73.3474	17753.2	48.5287	17753.2	67.9421	17753.2	45.9032	17753.2	51.8886	17753.2	49.2455	17753.2	41.1597	17753.2	44.0686	17753.2	50.6552	17753.2	42.3588	17753.2	50.1029	17753.2	42.6089	17753.2	47.7154	17753.2	44.6617	17753.2	53.3451
18379.4	80.3979	18379.4	80.6152	18379.4	80.7413	18379.4	80.6036	18379.4	79.9062	18379.4	77.9156	18379.4	78.2437	18379.4	76.0642	18379.4	73.3849	18379.4	72.1854	18379.4	73.5614	18379.4	68.9094	18379.4	67.0085	18379.4	62.9864	18379.4	61.022	18379.4	58.7886	18379.4	58.4671	18379.4	53.8832	18379.4	49.2755	18379.4	69.9551	18379.4	47.9634	18379.4	72.8034	18379.4	45.5817	18379.4	67.8162	18379.4	41.5463	18379.4	48.8661	18379.4	45.6818	18379.4	43.3363	18379.4	39.2805	18379.4	48.8046	18379.4	46.1313	18379.4	49.9492	18379.4	37.4058	18379.4	48.9923	18379.4	44.5044	18379.4	53.7183
19027.6	79.1883	19027.6	80.3489	19027.6	80.3724	19027.6	79.8656	19027.6	79.1885	19027.6	77.1138	19027.6	78.1351	19027.6	75.6616	19027.6	73.2732	19027.6	70.6144	19027.6	72.7366	19027.6	67.6165	19027.6	67.2258	19027.6	61.1151	19027.6	59.9996	19027.6	58.2637	19027.6	56.0276	19027.6	52.5456	19027.6	50.803	19027.6	69.0867	19027.6	44.4886	19027.6	72.0388	19027.6	40.3405	19027.6	67.0834	19027.6	44.3765	19027.6	49.7193	19027.6	42.8757	19027.6	44.7656	19027.6	30.7467	19027.6	50.1177	19027.6	48.5014	19027.6	49.5495	19027.6	39.017	19027.6	49.3115	19027.6	47.3045	19027.6	54.3878
19698.5	79.8238	19698.5	80.4732	19698.5	80.7274	19698.5	79.2065	19698.5	78.816	19698.5	76.1683	19698.5	77.6428	19698.5	75.1545	19698.5	73.3541	19698.5	69.5974	19698.5	71.6284	19698.5	66.2078	19698.5	66.7625	19698.5	59.5881	19698.5	59.107	19698.5	57.3269	19698.5	55.2715	19698.5	52.9892	19698.5	50.7186	19698.5	68.7817	19698.5	41.9395	19698.5	71.9815	19698.5	40.3235	19698.5	66.983	19698.5	46.4716	19698.5	49.6692	19698.5	42.105	19698.5	44.5437	19698.5	38.4655	19698.5	50.1974	19698.5	50.0054	19698.5	47.2476	19698.5	46.1597	19698.5	47.1285	19698.5	50.1288	19698.5	54.0225
19999.5	79.9301	19999.5	80.2896	19999.5	80.5774	19999.5	78.8942	19999.5	78.6149	19999.5	76.4476	19999.5	77.3422	19999.5	74.6095	19999.5	73.5951	19999.5	68.4626	19999.5	71.5815	19999.5	65.2867	19999.5	65.8972	19999.5	61.1949	19999.5	60.3426	19999.5	56.5434	19999.5	56.1878	19999.5	55.6225	19999.5	51.0284	19999.5	68.5928	19999.5	48.631	19999.5	72.428	19999.5	33.3776	19999.5	67.3456	19999.5	50.0492	19999.5	50.1742	19999.5	44.626	19999.5	48.1358	19999.5	46.219	19999.5	46.3794	19999.5	51.973	19999.5	49.4645	19999.5	45.1839	19999.5	51.7786	19999.5	48.7288	19999.5	55.0462
