"SPL Vertical"
"On-Axis"		"10°"		"-10°"		"20°"		"-20°"		"30°"		"-30°"		"40°"		"-40°"		"50°"		"-50°"		"60°"		"-60°"		"70°"		"-70°"		"80°"		"-80°"		"90°"		"-90°"		"100°"		"-100°"		"110°"		"-110°"		"120°"		"-120°"		"130°"		"-130°"		"140°"		"-140°"		"150°"		"-150°"		"160°"		"-160°"		"170°"		"-170°"		"180°"
"Frequency / Hz"	"Sound Pressure Level / dB (re 20 µPa/V)  [2.83V at 1m]"	"Frequency / Hz"	"Sound Pressure Level / dB (re 20 µPa/V)  [2.83V at 1m]"	"Frequency / Hz"	"Sound Pressure Level / dB (re 20 µPa/V)  [2.83V at 1m]"	"Frequency / Hz"	"Sound Pressure Level / dB (re 20 µPa/V)  [2.83V at 1m]"	"Frequency / Hz"	"Sound Pressure Level / dB (re 20 µPa/V)  [2.83V at 1m]"	"Frequency / Hz"	"Sound Pressure Level / dB (re 20 µPa/V)  [2.83V at 1m]"	"Frequency / Hz"	"Sound Pressure Level / dB (re 20 µPa/V)  [2.83V at 1m]"	"Frequency / Hz"	"Sound Pressure Level / dB (re 20 µPa/V)  [2.83V at 1m]"	"Frequency / Hz"	"Sound Pressure Level / dB (re 20 µPa/V)  [2.83V at 1m]"	"Frequency / Hz"	"Sound Pressure Level / dB (re 20 µPa/V)  [2.83V at 1m]"	"Frequency / Hz"	"Sound Pressure Level / dB (re 20 µPa/V)  [2.83V at 1m]"	"Frequency / Hz"	"Sound Pressure Level / dB (re 20 µPa/V)  [2.83V at 1m]"	"Frequency / Hz"	"Sound Pressure Level / dB (re 20 µPa/V)  [2.83V at 1m]"	"Frequency / Hz"	"Sound Pressure Level / dB (re 20 µPa/V)  [2.83V at 1m]"	"Frequency / Hz"	"Sound Pressure Level / dB (re 20 µPa/V)  [2.83V at 1m]"	"Frequency / Hz"	"Sound Pressure Level / dB (re 20 µPa/V)  [2.83V at 1m]"	"Frequency / Hz"	"Sound Pressure Level / dB (re 20 µPa/V)  [2.83V at 1m]"	"Frequency / Hz"	"Sound Pressure Level / dB (re 20 µPa/V)  [2.83V at 1m]"	"Frequency / Hz"	"Sound Pressure Level / dB (re 20 µPa/V)  [2.83V at 1m]"	"Frequency / Hz"	"Sound Pressure Level / dB (re 20 µPa/V)  [2.83V at 1m]"	"Frequency / Hz"	"Sound Pressure Level / dB (re 20 µPa/V)  [2.83V at 1m]"	"Frequency / Hz"	"Sound Pressure Level / dB (re 20 µPa/V)  [2.83V at 1m]"	"Frequency / Hz"	"Sound Pressure Level / dB (re 20 µPa/V)  [2.83V at 1m]"	"Frequency / Hz"	"Sound Pressure Level / dB (re 20 µPa/V)  [2.83V at 1m]"	"Frequency / Hz"	"Sound Pressure Level / dB (re 20 µPa/V)  [2.83V at 1m]"	"Frequency / Hz"	"Sound Pressure Level / dB (re 20 µPa/V)  [2.83V at 1m]"	"Frequency / Hz"	"Sound Pressure Level / dB (re 20 µPa/V)  [2.83V at 1m]"	"Frequency / Hz"	"Sound Pressure Level / dB (re 20 µPa/V)  [2.83V at 1m]"	"Frequency / Hz"	"Sound Pressure Level / dB (re 20 µPa/V)  [2.83V at 1m]"	"Frequency / Hz"	"Sound Pressure Level / dB (re 20 µPa/V)  [2.83V at 1m]"	"Frequency / Hz"	"Sound Pressure Level / dB (re 20 µPa/V)  [2.83V at 1m]"	"Frequency / Hz"	"Sound Pressure Level / dB (re 20 µPa/V)  [2.83V at 1m]"	"Frequency / Hz"	"Sound Pressure Level / dB (re 20 µPa/V)  [2.83V at 1m]"	"Frequency / Hz"	"Sound Pressure Level / dB (re 20 µPa/V)  [2.83V at 1m]"	"Frequency / Hz"	"Sound Pressure Level / dB (re 20 µPa/V)  [2.83V at 1m]"	"Frequency / Hz"	"Sound Pressure Level / dB (re 20 µPa/V)  [2.83V at 1m]"
20.5078	49.9629	20.5078	49.925	20.5078	49.9861	20.5078	49.8734	20.5078	49.9938	20.5078	49.8096	20.5078	49.9857	20.5078	49.7353	20.5078	49.9619	20.5078	49.6525	20.5078	49.9232	20.5078	49.5633	20.5078	49.8706	20.5078	49.4705	20.5078	49.8061	20.5078	49.3766	20.5078	49.7318	20.5078	49.2849	20.5078	49.6503	20.5078	49.1984	20.5078	49.5643	20.5078	49.1202	20.5078	49.4765	20.5078	49.0535	20.5078	49.3894	20.5078	49.0008	20.5078	49.305	20.5078	48.9641	20.5078	49.2253	20.5078	48.9446	20.5078	49.152	20.5078	48.9425	20.5078	49.0867	20.5078	48.9571	20.5078	49.0311	20.5078	48.9873
21.2402	51.3185	21.2402	51.2984	21.2402	51.3262	21.2402	51.2662	21.2402	51.3211	21.2402	51.223	21.2402	51.3034	21.2402	51.1699	21.2402	51.2737	21.2402	51.1084	21.2402	51.2327	21.2402	51.0405	21.2402	51.1819	21.2402	50.9683	21.2402	51.123	21.2402	50.8941	21.2402	51.0579	21.2402	50.8205	21.2402	50.9889	21.2402	50.7499	21.2402	50.9183	21.2402	50.6848	21.2402	50.8484	21.2402	50.6274	21.2402	50.7812	21.2402	50.5796	21.2402	50.7185	21.2402	50.5428	21.2402	50.6618	21.2402	50.5179	21.2402	50.6123	21.2402	50.5053	21.2402	50.5709	21.2402	50.505	21.2402	50.5386	21.2402	50.5163
21.9727	52.3193	21.9727	52.2963	21.9727	52.3297	21.9727	52.2612	21.9727	52.3272	21.9727	52.215	21.9727	52.3119	21.9727	52.159	21.9727	52.2844	21.9727	52.0946	21.9727	52.2454	21.9727	52.0239	21.9727	52.1963	21.9727	51.9488	21.9727	52.1385	21.9727	51.8718	21.9727	52.0741	21.9727	51.7954	21.9727	52.0049	21.9727	51.7221	21.9727	51.9333	21.9727	51.6545	21.9727	51.8613	21.9727	51.5952	21.9727	51.791	21.9727	51.5461	21.9727	51.7242	21.9727	51.5091	21.9727	51.6625	21.9727	51.4852	21.9727	51.6072	21.9727	51.4749	21.9727	51.5599	21.9727	51.4781	21.9727	51.5217	21.9727	51.494
22.7051	53.1149	22.7051	53.0948	22.7051	53.1219	22.7051	53.062	22.7051	53.1156	22.7051	53.0174	22.7051	53.0962	22.7051	52.962	22.7051	53.0643	22.7051	52.8975	22.7051	53.0207	22.7051	52.8255	22.7051	52.9667	22.7051	52.7482	22.7051	52.904	22.7051	52.6679	22.7051	52.8345	22.7051	52.5873	22.7051	52.7603	22.7051	52.509	22.7051	52.6838	22.7051	52.4359	22.7051	52.6073	22.7051	52.3705	22.7051	52.533	22.7051	52.3151	22.7051	52.4629	22.7051	52.2717	22.7051	52.399	22.7051	52.2416	22.7051	52.3428	22.7051	52.2255	22.7051	52.2959	22.7051	52.2234	22.7051	52.2596	22.7051	52.2351
23.4375	53.8852	23.4375	53.8643	23.4375	53.8936	23.4375	53.8313	23.4375	53.8893	23.4375	53.7869	23.4375	53.8724	23.4375	53.7323	23.4375	53.8434	23.4375	53.6689	23.4375	53.8032	23.4375	53.5983	23.4375	53.7529	23.4375	53.5227	23.4375	53.694	23.4375	53.4444	23.4375	53.6282	23.4375	53.3658	23.4375	53.5576	23.4375	53.2899	23.4375	53.4841	23.4375	53.2192	23.4375	53.41	23.4375	53.1563	23.4375	53.3373	23.4375	53.1036	23.4375	53.2682	23.4375	53.0628	23.4375	53.2043	23.4375	53.0353	23.4375	53.1476	23.4375	53.0216	23.4375	53.0996	23.4375	53.0218	23.4375	53.0618	23.4375	53.0355
24.1699	54.4341	24.1699	54.4255	24.1699	54.4306	24.1699	54.405	24.1699	54.4151	24.1699	54.3731	24.1699	54.388	24.1699	54.3305	24.1699	54.35	24.1699	54.2785	24.1699	54.3022	24.1699	54.2184	24.1699	54.246	24.1699	54.1519	24.1699	54.1828	24.1699	54.0809	24.1699	54.1147	24.1699	54.0078	24.1699	54.0437	24.1699	53.9348	24.1699	53.9719	24.1699	53.8642	24.1699	53.9016	24.1699	53.7985	24.1699	53.8348	24.1699	53.7399	24.1699	53.7735	24.1699	53.6902	24.1699	53.7197	24.1699	53.6511	24.1699	53.6748	24.1699	53.6237	24.1699	53.6404	24.1699	53.6088	24.1699	53.6174	24.1699	53.6068
25.6348	55.5375	25.6348	55.5178	25.6348	55.5445	25.6348	55.4858	25.6348	55.5387	25.6348	55.4425	25.6348	55.5201	25.6348	55.3889	25.6348	55.4893	25.6348	55.3266	25.6348	55.4473	25.6348	55.2572	25.6348	55.3952	25.6348	55.183	25.6348	55.3346	25.6348	55.1062	25.6348	55.2673	25.6348	55.0292	25.6348	55.1954	25.6348	54.9547	25.6348	55.1212	25.6348	54.8851	25.6348	55.0469	25.6348	54.8228	25.6348	54.9746	25.6348	54.7699	25.6348	54.9065	25.6348	54.728	25.6348	54.8446	25.6348	54.6985	25.6348	54.7904	25.6348	54.682	25.6348	54.7455	25.6348	54.6788	25.6348	54.7113	25.6348	54.6887
26.3672	56.0786	26.3672	56.066	26.3672	56.079	26.3672	56.0414	26.3672	56.0671	26.3672	56.0055	26.3672	56.0434	26.3672	55.9591	26.3672	56.0083	26.3672	55.9034	26.3672	55.9629	26.3672	55.8399	26.3672	55.9083	26.3672	55.7703	26.3672	55.8461	26.3672	55.6966	26.3672	55.7781	26.3672	55.621	26.3672	55.7062	26.3672	55.546	26.3672	55.6327	26.3672	55.474	26.3672	55.5596	26.3672	55.4076	26.3672	55.4892	26.3672	55.3489	26.3672	55.4236	26.3672	55.3002	26.3672	55.3648	26.3672	55.263	26.3672	55.3145	26.3672	55.2386	26.3672	55.2745	26.3672	55.2275	26.3672	55.246	26.3672	55.2301
27.0996	56.6762	27.0996	56.6695	27.0996	56.6717	27.0996	56.6518	27.0996	56.656	27.0996	56.6236	27.0996	56.6295	27.0996	56.5855	27.0996	56.5929	27.0996	56.5388	27.0996	56.547	27.0996	56.4845	27.0996	56.4932	27.0996	56.4242	27.0996	56.4329	27.0996	56.3597	27.0996	56.3679	27.0996	56.2928	27.0996	56.3004	27.0996	56.2256	27.0996	56.2322	27.0996	56.1601	27.0996	56.1657	27.0996	56.0984	27.0996	56.1031	27.0996	56.0426	27.0996	56.0462	27.0996	55.9942	27.0996	55.9969	27.0996	55.955	27.0996	55.9569	27.0996	55.9261	27.0996	55.9273	27.0996	55.9085	27.0996	55.9091	27.0996	55.9028
27.832	57.1925	27.832	57.1834	27.832	57.1917	27.832	57.1647	27.832	57.181	27.832	57.137	27.832	57.1608	27.832	57.1008	27.832	57.1315	27.832	57.0574	27.832	57.094	27.832	57.0078	27.832	57.0493	27.832	56.9537	27.832	56.9986	27.832	56.8966	27.832	56.9436	27.832	56.8383	27.832	56.8859	27.832	56.7806	27.832	56.8272	27.832	56.7253	27.832	56.7696	27.832	56.6743	27.832	56.7147	27.832	56.6289	27.832	56.6643	27.832	56.5907	27.832	56.6201	27.832	56.5606	27.832	56.5833	27.832	56.5397	27.832	56.5551	27.832	56.5285	27.832	56.5362	27.832	56.5273
29.2969	57.8427	29.2969	57.8376	29.2969	57.837	29.2969	57.8219	29.2969	57.8207	29.2969	57.7962	29.2969	57.7943	29.2969	57.7611	29.2969	57.7586	29.2969	57.7177	29.2969	57.7145	29.2969	57.6674	29.2969	57.6636	29.2969	57.6117	29.2969	57.6074	29.2969	57.5524	29.2969	57.5478	29.2969	57.4913	29.2969	57.4866	29.2969	57.4304	29.2969	57.4259	29.2969	57.3717	29.2969	57.3675	29.2969	57.3168	29.2969	57.3132	29.2969	57.2676	29.2969	57.2645	29.2969	57.2254	29.2969	57.223	29.2969	57.1913	29.2969	57.1895	29.2969	57.1663	29.2969	57.1651	29.2969	57.1509	29.2969	57.1504	29.2969	57.1456
30.0293	58.3156	30.0293	58.3128	30.0293	58.3071	30.0293	58.2988	30.0293	58.2875	30.0293	58.2741	30.0293	58.2571	30.0293	58.2396	30.0293	58.217	30.0293	58.1962	30.0293	58.1682	30.0293	58.1454	30.0293	58.1122	30.0293	58.0885	30.0293	58.0509	30.0293	58.0275	30.0293	57.9861	30.0293	57.9641	30.0293	57.9201	30.0293	57.9002	30.0293	57.855	30.0293	57.8377	30.0293	57.7929	30.0293	57.7786	30.0293	57.7358	30.0293	57.7245	30.0293	57.6855	30.0293	57.6769	30.0293	57.6434	30.0293	57.6373	30.0293	57.6107	30.0293	57.6067	30.0293	57.5882	30.0293	57.586	30.0293	57.5765	30.0293	57.5758
31.4941	59.0884	31.4941	59.0843	31.4941	59.0806	31.4941	59.0684	31.4941	59.0609	31.4941	59.0414	31.4941	59.0299	31.4941	59.0039	31.4941	58.9882	31.4941	58.9572	31.4941	58.9371	31.4941	58.9026	31.4941	58.8781	31.4941	58.8417	31.4941	58.8129	31.4941	58.7762	31.4941	58.7437	31.4941	58.7083	31.4941	58.6727	31.4941	58.6397	31.4941	58.6022	31.4941	58.5726	31.4941	58.5346	31.4941	58.509	31.4941	58.472	31.4941	58.4508	31.4941	58.4165	31.4941	58.3997	31.4941	58.3697	31.4941	58.3571	31.4941	58.3331	31.4941	58.3244	31.4941	58.3076	31.4941	58.3025	31.4941	58.2939	31.4941	58.2922
32.2266	59.5103	32.2266	59.5002	32.2266	59.5085	32.2266	59.4786	32.2266	59.4947	32.2266	59.446	32.2266	59.4694	32.2266	59.4035	32.2266	59.4332	32.2266	59.3522	32.2266	59.387	32.2266	59.2939	32.2266	59.3324	32.2266	59.2301	32.2266	59.2709	32.2266	59.1628	32.2266	59.2045	32.2266	59.094	32.2266	59.1353	32.2266	59.0259	32.2266	59.0655	32.2266	58.9606	32.2266	58.9973	32.2266	58.9	32.2266	58.9329	32.2266	58.8459	32.2266	58.8743	32.2266	58.8	32.2266	58.8234	32.2266	58.7636	32.2266	58.7814	32.2266	58.7377	32.2266	58.7497	32.2266	58.7231	32.2266	58.7292	32.2266	58.7202
33.6914	60.2766	33.6914	60.2664	33.6914	60.2753	33.6914	60.2451	33.6914	60.2626	33.6914	60.213	33.6914	60.2389	33.6914	60.1712	33.6914	60.205	33.6914	60.1208	33.6914	60.1619	33.6914	60.0634	33.6914	60.111	33.6914	60.0007	33.6914	60.0537	33.6914	59.9347	33.6914	59.9918	33.6914	59.8675	33.6914	59.9273	33.6914	59.8013	33.6914	59.8621	33.6914	59.7383	33.6914	59.7982	33.6914	59.6806	33.6914	59.7373	33.6914	59.6299	33.6914	59.6814	33.6914	59.5878	33.6914	59.632	33.6914	59.5554	33.6914	59.5905	33.6914	59.5337	33.6914	59.558	33.6914	59.5231	33.6914	59.5355	33.6914	59.5237
34.4238	60.6455	34.4238	60.6389	34.4238	60.6404	34.4238	60.6208	34.4238	60.6238	34.4238	60.5918	34.4238	60.5961	34.4238	60.5526	34.4238	60.5582	34.4238	60.5045	34.4238	60.5111	34.4238	60.4489	34.4238	60.4564	34.4238	60.3875	34.4238	60.3957	34.4238	60.3222	34.4238	60.3308	34.4238	60.2549	34.4238	60.2639	34.4238	60.1879	34.4238	60.1969	34.4238	60.1233	34.4238	60.132	34.4238	60.0629	34.4238	60.0711	34.4238	60.0087	34.4238	60.0161	34.4238	59.9623	34.4238	59.9686	34.4238	59.925	34.4238	59.9299	34.4238	59.8978	34.4238	59.9012	34.4238	59.8816	34.4238	59.8833	34.4238	59.8767
35.8887	61.3541	35.8887	61.347	35.8887	61.3496	35.8887	61.3284	35.8887	61.3334	35.8887	61.2989	35.8887	61.3061	35.8887	61.2593	35.8887	61.2686	35.8887	61.211	35.8887	61.2219	35.8887	61.1553	35.8887	61.1675	35.8887	61.094	35.8887	61.1072	35.8887	61.029	35.8887	61.0428	35.8887	60.9624	35.8887	60.9764	35.8887	60.8963	35.8887	60.9101	35.8887	60.8328	35.8887	60.846	35.8887	60.7737	35.8887	60.786	35.8887	60.7208	35.8887	60.7319	35.8887	60.6758	35.8887	60.6852	35.8887	60.6398	35.8887	60.6471	35.8887	60.6138	35.8887	60.6189	35.8887	60.5985	35.8887	60.6011	35.8887	60.5942
37.3535	62.0124	37.3535	62.006	37.3535	62.0067	37.3535	61.9877	37.3535	61.9891	37.3535	61.9581	37.3535	61.96	37.3535	61.9181	37.3535	61.9204	37.3535	61.869	37.3535	61.8714	37.3535	61.8122	37.3535	61.8145	37.3535	61.7496	37.3535	61.7516	37.3535	61.6832	37.3535	61.6847	37.3535	61.6149	37.3535	61.6159	37.3535	61.5469	37.3535	61.5474	37.3535	61.4813	37.3535	61.4814	37.3535	61.4202	37.3535	61.4199	37.3535	61.3653	37.3535	61.3647	37.3535	61.3181	37.3535	61.3174	37.3535	61.28	37.3535	61.2794	37.3535	61.252	37.3535	61.2515	37.3535	61.2349	37.3535	61.2346	37.3535	61.229
38.8184	62.6724	38.8184	62.6649	38.8184	62.6679	38.8184	62.6457	38.8184	62.6515	38.8184	62.6152	38.8184	62.6238	38.8184	62.5745	38.8184	62.5857	38.8184	62.5247	38.8184	62.5384	38.8184	62.4674	38.8184	62.4833	38.8184	62.4045	38.8184	62.4222	38.8184	62.3379	38.8184	62.3571	38.8184	62.2698	38.8184	62.2899	38.8184	62.2024	38.8184	62.2229	38.8184	62.1377	38.8184	62.1581	38.8184	62.078	38.8184	62.0973	38.8184	62.0248	38.8184	62.0423	38.8184	61.9797	38.8184	61.9948	38.8184	61.9439	38.8184	61.9559	38.8184	61.9184	38.8184	61.9267	38.8184	61.9038	38.8184	61.908	38.8184	61.9003
39.5508	62.9872	39.5508	62.9801	39.5508	62.9823	39.5508	62.9612	39.5508	62.9657	39.5508	62.9311	39.5508	62.9378	39.5508	62.8907	39.5508	62.8996	39.5508	62.8412	39.5508	62.8524	39.5508	62.7842	39.5508	62.7976	39.5508	62.7216	39.5508	62.737	39.5508	62.6552	39.5508	62.6725	39.5508	62.5874	39.5508	62.6062	39.5508	62.5203	39.5508	62.5401	39.5508	62.4561	39.5508	62.4762	39.5508	62.3967	39.5508	62.4164	39.5508	62.3439	39.5508	62.3623	39.5508	62.2993	39.5508	62.3154	39.5508	62.264	39.5508	62.277	39.5508	62.239	39.5508	62.2481	39.5508	62.2247	39.5508	62.2294	39.5508	62.2216
41.0156	63.6022	41.0156	63.5959	41.0156	63.5964	41.0156	63.5777	41.0156	63.5786	41.0156	63.5482	41.0156	63.5495	41.0156	63.5082	41.0156	63.51	41.0156	63.4591	41.0156	63.4613	41.0156	63.4024	41.0156	63.4051	41.0156	63.34	41.0156	63.3432	41.0156	63.2739	41.0156	63.2776	41.0156	63.2062	41.0156	63.2104	41.0156	63.1391	41.0156	63.1437	41.0156	63.0746	41.0156	63.0796	41.0156	63.0148	41.0156	63.0199	41.0156	62.9613	41.0156	62.9664	41.0156	62.9158	41.0156	62.9204	41.0156	62.8794	41.0156	62.8832	41.0156	62.853	41.0156	62.8557	41.0156	62.8372	41.0156	62.8386	41.0156	62.8324
42.4805	64.2007	42.4805	64.1952	42.4805	64.1938	42.4805	64.1774	42.4805	64.1748	42.4805	64.1481	42.4805	64.144	42.4805	64.1081	42.4805	64.1026	42.4805	64.0588	42.4805	64.0519	42.4805	64.0017	42.4805	63.9934	42.4805	63.9387	42.4805	63.9292	42.4805	63.8719	42.4805	63.8613	42.4805	63.8033	42.4805	63.792	42.4805	63.7352	42.4805	63.7235	42.4805	63.6696	42.4805	63.658	42.4805	63.6084	42.4805	63.5974	42.4805	63.5535	42.4805	63.5435	42.4805	63.5063	42.4805	63.4977	42.4805	63.4681	42.4805	63.4613	42.4805	63.4397	42.4805	63.435	42.4805	63.4219	42.4805	63.4195	42.4805	63.4151
43.9453	64.8046	43.9453	64.7981	43.9453	64.7983	43.9453	64.7793	43.9453	64.7794	43.9453	64.7485	43.9453	64.7486	43.9453	64.707	43.9453	64.7069	43.9453	64.656	43.9453	64.6555	43.9453	64.5973	43.9453	64.5963	43.9453	64.5327	43.9453	64.531	43.9453	64.4643	43.9453	64.462	43.9453	64.3945	43.9453	64.3915	43.9453	64.3253	43.9453	64.3218	43.9453	64.2589	43.9453	64.255	43.9453	64.1972	43.9453	64.1932	43.9453	64.142	43.9453	64.1382	43.9453	64.0947	43.9453	64.0913	43.9453	64.0567	43.9453	64.0539	43.9453	64.0287	43.9453	64.0267	43.9453	64.0114	43.9453	64.0103	43.9453	64.0052
45.4102	65.3946	45.4102	65.3882	45.4102	65.3881	45.4102	65.3691	45.4102	65.3688	45.4102	65.3379	45.4102	65.3373	45.4102	65.2956	45.4102	65.2947	45.4102	65.2437	45.4102	65.2423	45.4102	65.1838	45.4102	65.1817	45.4102	65.1179	45.4102	65.1152	45.4102	65.0481	45.4102	65.0447	45.4102	64.9767	45.4102	64.9726	45.4102	64.9059	45.4102	64.9013	45.4102	64.8378	45.4102	64.833	45.4102	64.7746	45.4102	64.7698	45.4102	64.7179	45.4102	64.7134	45.4102	64.6693	45.4102	64.6653	45.4102	64.6302	45.4102	64.6269	45.4102	64.6013	45.4102	64.5991	45.4102	64.5835	45.4102	64.5823	45.4102	64.5771
47.6074	66.0849	47.6074	66.0779	47.6074	66.0797	47.6074	66.0589	47.6074	66.0625	47.6074	66.0286	47.6074	66.0337	47.6074	65.9881	47.6074	65.9945	47.6074	65.9387	47.6074	65.9461	47.6074	65.8821	47.6074	65.8903	47.6074	65.8203	47.6074	65.8288	47.6074	65.7553	47.6074	65.7638	47.6074	65.6892	47.6074	65.6975	47.6074	65.6243	47.6074	65.632	47.6074	65.5623	47.6074	65.5692	47.6074	65.5051	47.6074	65.5111	47.6074	65.4543	47.6074	65.4593	47.6074	65.4112	47.6074	65.4151	47.6074	65.3767	47.6074	65.3795	47.6074	65.3516	47.6074	65.3535	47.6074	65.3365	47.6074	65.3375	47.6074	65.3318
49.0723	66.6474	49.0723	66.6407	49.0723	66.642	49.0723	66.6219	49.0723	66.6245	49.0723	66.5919	49.0723	66.5958	49.0723	66.5517	49.0723	66.5568	49.0723	66.5027	49.0723	66.5091	49.0723	66.4468	49.0723	66.4544	49.0723	66.3859	49.0723	66.3947	49.0723	66.3223	49.0723	66.332	49.0723	66.2581	49.0723	66.2686	49.0723	66.1954	49.0723	66.2065	49.0723	66.1364	49.0723	66.1476	49.0723	66.0826	49.0723	66.0936	49.0723	66.0354	49.0723	66.0456	49.0723	65.996	49.0723	66.0049	49.0723	65.965	49.0723	65.9723	49.0723	65.9431	49.0723	65.9482	49.0723	65.9304	49.0723	65.933	49.0723	65.927
50.5371	67.2456	50.5371	67.2413	50.5371	67.237	50.5371	67.2243	50.5371	67.2158	50.5371	67.1953	50.5371	67.1827	50.5371	67.1552	50.5371	67.1389	50.5371	67.1055	50.5371	67.086	50.5371	67.048	50.5371	67.0258	50.5371	66.9846	50.5371	66.9604	50.5371	66.9177	50.5371	66.8922	50.5371	66.8493	50.5371	66.8235	50.5371	66.7818	50.5371	66.7565	50.5371	66.7172	50.5371	66.6933	50.5371	66.6575	50.5371	66.6356	50.5371	66.6042	50.5371	66.585	50.5371	66.5586	50.5371	66.5427	50.5371	66.5217	50.5371	66.5095	50.5371	66.4943	50.5371	66.4861	50.5371	66.4769	50.5371	66.4727	50.5371	66.4696
52.7344	67.8265	52.7344	67.8224	52.7344	67.8176	52.7344	67.8054	52.7344	67.7958	52.7344	67.7763	52.7344	67.7619	52.7344	67.7364	52.7344	67.7171	52.7344	67.687	52.7344	67.663	52.7344	67.6301	52.7344	67.6016	52.7344	67.5677	52.7344	67.5351	52.7344	67.502	52.7344	67.466	52.7344	67.4353	52.7344	67.3967	52.7344	67.3696	52.7344	67.3296	52.7344	67.3068	52.7344	67.2669	52.7344	67.2486	52.7344	67.2103	52.7344	67.1965	52.7344	67.1614	52.7344	67.1515	52.7344	67.1212	52.7344	67.1146	52.7344	67.0905	52.7344	67.0865	52.7344	67.0697	52.7344	67.0676	52.7344	67.059	52.7344	67.0584
54.1992	68.2801	54.1992	68.2736	54.1992	68.2731	54.1992	68.254	54.1992	68.2529	54.1992	68.222	54.1992	68.2202	54.1992	68.1789	54.1992	68.1761	54.1992	68.1263	54.1992	68.1224	54.1992	68.0662	54.1992	68.0609	54.1992	68.0008	54.1992	67.9939	54.1992	67.9325	54.1992	67.9239	54.1992	67.8636	54.1992	67.8534	54.1992	67.7962	54.1992	67.7847	54.1992	67.7325	54.1992	67.7201	54.1992	67.674	54.1992	67.6614	54.1992	67.6224	54.1992	67.6101	54.1992	67.5785	54.1992	67.5674	54.1992	67.5432	54.1992	67.5341	54.1992	67.5172	54.1992	67.5107	54.1992	67.5006	54.1992	67.4972	54.1992	67.4939
56.3965	68.9969	56.3965	68.9911	56.3965	68.989	56.3965	68.9718	56.3965	68.9678	56.3965	68.9399	56.3965	68.9338	56.3965	68.8965	56.3965	68.8886	56.3965	68.8434	56.3965	68.8337	56.3965	68.7826	56.3965	68.7713	56.3965	68.7164	56.3965	68.7037	56.3965	68.6471	56.3965	68.6333	56.3965	68.5772	56.3965	68.5628	56.3965	68.509	56.3965	68.4943	56.3965	68.4445	56.3965	68.4301	56.3965	68.3855	56.3965	68.372	56.3965	68.3335	56.3965	68.3213	56.3965	68.2895	56.3965	68.279	56.3965	68.2543	56.3965	68.2461	56.3965	68.2284	56.3965	68.2227	56.3965	68.2121	56.3965	68.2092	56.3965	68.2057
58.5938	69.695	58.5938	69.6883	58.5938	69.6877	58.5938	69.668	58.5938	69.6667	58.5938	69.6348	58.5938	69.6329	58.5938	69.5901	58.5938	69.5876	58.5938	69.5356	58.5938	69.5326	58.5938	69.4734	58.5938	69.4699	58.5938	69.4059	58.5938	69.402	58.5938	69.3356	58.5938	69.3314	58.5938	69.2649	58.5938	69.2606	58.5938	69.1963	58.5938	69.1921	58.5938	69.1319	58.5938	69.1278	58.5938	69.0733	58.5938	69.0696	58.5938	69.022	58.5938	69.0188	58.5938	68.979	58.5938	68.9764	58.5938	68.9451	58.5938	68.9431	58.5938	68.9205	58.5938	68.9192	58.5938	68.9056	58.5938	68.9049	58.5938	68.9004
60.0586	70.1043	60.0586	70.0974	60.0586	70.0972	60.0586	70.0767	60.0586	70.0764	60.0586	70.0431	60.0586	70.0425	60.0586	69.998	60.0586	69.9972	60.0586	69.9431	60.0586	69.942	60.0586	69.8805	60.0586	69.8792	60.0586	69.8128	60.0586	69.8112	60.0586	69.7425	60.0586	69.7407	60.0586	69.672	60.0586	69.67	60.0586	69.6037	60.0586	69.6017	60.0586	69.5397	60.0586	69.5378	60.0586	69.4818	60.0586	69.4801	60.0586	69.4313	60.0586	69.4298	60.0586	69.3891	60.0586	69.3878	60.0586	69.3559	60.0586	69.3549	60.0586	69.332	60.0586	69.3313	60.0586	69.3175	60.0586	69.3172	60.0586	69.3126
62.2559	70.7349	62.2559	70.7285	62.2559	70.7272	62.2559	70.7082	62.2559	70.7056	62.2559	70.6748	62.2559	70.6711	62.2559	70.6298	62.2559	70.6251	62.2559	70.5749	62.2559	70.5695	62.2559	70.5123	62.2559	70.5065	62.2559	70.4446	62.2559	70.4386	62.2559	70.3743	62.2559	70.3685	62.2559	70.304	62.2559	70.2988	62.2559	70.2362	62.2559	70.2316	62.2559	70.1728	62.2559	70.1692	62.2559	70.1157	62.2559	70.113	62.2559	70.0661	62.2559	70.0643	62.2559	70.0249	62.2559	70.0239	62.2559	69.9927	62.2559	69.9922	62.2559	69.9697	62.2559	69.9695	62.2559	69.9559	62.2559	69.9559	62.2559	69.9513
64.4531	71.2895	64.4531	71.2824	64.4531	71.2822	64.4531	71.2612	64.4531	71.2609	64.4531	71.2268	64.4531	71.2264	64.4531	71.1806	64.4531	71.1802	64.4531	71.1248	64.4531	71.1244	64.4531	71.0615	64.4531	71.0613	64.4531	70.9934	64.4531	70.9936	64.4531	70.9231	64.4531	70.9238	64.4531	70.8534	64.4531	70.8547	64.4531	70.7865	64.4531	70.7885	64.4531	70.7246	64.4531	70.7273	64.4531	70.6693	64.4531	70.6725	64.4531	70.6218	64.4531	70.6253	64.4531	70.5828	64.4531	70.5862	64.4531	70.5526	64.4531	70.5556	64.4531	70.5313	64.4531	70.5336	64.4531	70.5189	64.4531	70.5201	64.4531	70.5152
66.6504	71.9157	66.6504	71.9089	66.6504	71.9073	66.6504	71.8873	66.6504	71.8841	66.6504	71.8518	66.6504	71.8471	66.6504	71.8039	66.6504	71.7979	66.6504	71.7457	66.6504	71.7385	66.6504	71.6795	66.6504	71.6714	66.6504	71.6081	66.6504	71.5995	66.6504	71.5343	66.6504	71.5255	66.6504	71.4608	66.6504	71.4523	66.6504	71.3903	66.6504	71.3824	66.6504	71.3248	66.6504	71.3178	66.6504	71.2662	66.6504	71.2604	66.6504	71.2157	66.6504	71.2111	66.6504	71.1741	66.6504	71.1706	66.6504	71.1416	66.6504	71.1393	66.6504	71.1185	66.6504	71.117	66.6504	71.1046	66.6504	71.1039	66.6504	71.0997
69.5801	72.642	69.5801	72.6341	69.5801	72.635	69.5801	72.6116	69.5801	72.6133	69.5801	72.5754	69.5801	72.578	69.5801	72.5272	69.5801	72.5306	69.5801	72.4688	69.5801	72.4731	69.5801	72.403	69.5801	72.4081	69.5801	72.3322	69.5801	72.3382	69.5801	72.2594	69.5801	72.2663	69.5801	72.1872	69.5801	72.195	69.5801	72.1183	69.5801	72.1267	69.5801	72.0546	69.5801	72.0636	69.5801	71.998	69.5801	72.0071	69.5801	71.9496	69.5801	71.9584	69.5801	71.91	69.5801	71.918	69.5801	71.8796	69.5801	71.8862	69.5801	71.8585	69.5801	71.8632	69.5801	71.8465	69.5801	71.8489	69.5801	71.8433
71.7773	73.1426	71.7773	73.1354	71.7773	73.1345	71.7773	73.1132	71.7773	73.1114	71.7773	73.0771	71.7773	73.0745	71.7773	73.0286	71.7773	73.0254	71.7773	72.9698	71.7773	72.9663	71.7773	72.9034	71.7773	72.8998	71.7773	72.8322	71.7773	72.8288	71.7773	72.759	71.7773	72.7563	71.7773	72.6868	71.7773	72.6849	71.7773	72.6179	71.7773	72.6171	71.7773	72.5546	71.7773	72.555	71.7773	72.4986	71.7773	72.5001	71.7773	72.4508	71.7773	72.4532	71.7773	72.412	71.7773	72.4148	71.7773	72.3822	71.7773	72.385	71.7773	72.3615	71.7773	72.3637	71.7773	72.3495	71.7773	72.3507	71.7773	72.346
73.9746	73.6686	73.9746	73.6618	73.9746	73.6597	73.9746	73.6396	73.9746	73.6355	73.9746	73.6032	73.9746	73.5971	73.9746	73.5541	73.9746	73.5463	73.9746	73.4946	73.9746	73.4852	73.9746	73.4274	73.9746	73.4166	73.9746	73.3553	73.9746	73.3436	73.9746	73.2813	73.9746	73.2692	73.9746	73.2083	73.9746	73.1962	73.9746	73.1388	73.9746	73.1273	73.9746	73.0749	73.9746	73.0645	73.9746	73.0182	73.9746	73.0093	73.9746	72.9699	73.9746	72.9626	73.9746	72.9304	73.9746	72.9248	73.9746	72.9	73.9746	72.8959	73.9746	72.8783	73.9746	72.8758	73.9746	72.8653	73.9746	72.864	73.9746	72.8605
76.9043	74.3562	76.9043	74.35	76.9043	74.3459	76.9043	74.3277	76.9043	74.3197	76.9043	74.2904	76.9043	74.2786	76.9043	74.2398	76.9043	74.2246	76.9043	74.1783	76.9043	74.16	76.9043	74.1086	76.9043	74.0878	76.9043	74.0337	76.9043	74.0112	76.9043	73.9568	76.9043	73.9332	76.9043	73.8808	76.9043	73.857	76.9043	73.8084	76.9043	73.7853	76.9043	73.7418	76.9043	73.7202	76.9043	73.6827	76.9043	73.6632	76.9043	73.6321	76.9043	73.6153	76.9043	73.5906	76.9043	73.5769	76.9043	73.5583	76.9043	73.5479	76.9043	73.5351	76.9043	73.5281	76.9043	73.5206	76.9043	73.5171	76.9043	73.5146
79.834	74.9789	79.834	74.972	79.834	74.9695	79.834	74.9493	79.834	74.9444	79.834	74.9119	79.834	74.9046	79.834	74.8615	79.834	74.8521	79.834	74.8005	79.834	74.7894	79.834	74.7319	79.834	74.7193	79.834	74.6586	79.834	74.645	79.834	74.5838	79.834	74.5696	79.834	74.5103	79.834	74.4962	79.834	74.4408	79.834	74.4272	79.834	74.3773	79.834	74.3646	79.834	74.3213	79.834	74.31	79.834	74.2738	79.834	74.264	79.834	74.235	79.834	74.2271	79.834	74.2051	79.834	74.1991	79.834	74.1838	79.834	74.1797	79.834	74.1708	79.834	74.1687	79.834	74.1658
82.7637	75.5384	82.7637	75.5303	82.7637	75.5302	82.7637	75.5066	82.7637	75.5064	82.7637	75.4684	82.7637	75.4682	82.7637	75.4175	82.7637	75.4176	82.7637	75.3567	82.7637	75.3572	82.7637	75.2888	82.7637	75.29	82.7637	75.217	82.7637	75.2192	82.7637	75.1447	82.7637	75.148	82.7637	75.0747	82.7637	75.0794	82.7637	75.0096	82.7637	75.0156	82.7637	74.9513	82.7637	74.9585	82.7637	74.9011	82.7637	74.9091	82.7637	74.8597	82.7637	74.8679	82.7637	74.8271	82.7637	74.8349	82.7637	74.803	82.7637	74.8096	82.7637	74.7869	82.7637	74.7917	82.7637	74.778	82.7637	74.7805	82.7637	74.776
85.6934	76.1159	85.6934	76.1064	85.6934	76.109	85.6934	76.081	85.6934	76.0862	85.6934	76.041	85.6934	76.0487	85.6934	75.9887	85.6934	75.9986	85.6934	75.9269	85.6934	75.9386	85.6934	75.8586	85.6934	75.872	85.6934	75.7872	85.6934	75.8021	85.6934	75.7162	85.6934	75.7322	85.6934	75.6485	85.6934	75.6653	85.6934	75.5864	85.6934	75.6038	85.6934	75.5319	85.6934	75.5494	85.6934	75.4859	85.6934	75.5029	85.6934	75.4487	85.6934	75.4645	85.6934	75.4202	85.6934	75.4341	85.6934	75.3997	85.6934	75.4109	85.6934	75.3865	85.6934	75.3944	85.6934	75.3798	85.6934	75.3839	85.6934	75.379
88.623	76.6682	88.623	76.6548	88.623	76.6641	88.623	76.6247	88.623	76.6432	88.623	76.5793	88.623	76.6068	88.623	76.5212	88.623	76.5572	88.623	76.4535	88.623	76.4975	88.623	76.3799	88.623	76.4311	88.623	76.3044	88.623	76.3619	88.623	76.2307	88.623	76.2932	88.623	76.1623	88.623	76.2282	88.623	76.1018	88.623	76.1693	88.623	76.051	88.623	76.118	88.623	76.0108	88.623	76.0747	88.623	75.981	88.623	76.0394	88.623	75.9609	88.623	76.0112	88.623	75.9491	88.623	75.9891	88.623	75.9443	88.623	75.972	88.623	75.945	88.623	75.9592	88.623	75.9501
91.5527	77.2965	91.5527	77.2885	91.5527	77.2853	91.5527	77.2616	91.5527	77.2557	91.5527	77.2174	91.5527	77.2093	91.5527	77.1582	91.5527	77.1487	91.5527	77.0872	91.5527	77.0776	91.5527	77.0082	91.5527	76.9997	91.5527	76.9255	91.5527	76.9194	91.5527	76.8432	91.5527	76.8408	91.5527	76.7652	91.5527	76.7673	91.5527	76.6948	91.5527	76.7018	91.5527	76.6343	91.5527	76.6459	91.5527	76.585	91.5527	76.6003	91.5527	76.5472	91.5527	76.5645	91.5527	76.5201	91.5527	76.5376	91.5527	76.5025	91.5527	76.518	91.5527	76.4927	91.5527	76.5042	91.5527	76.4889	91.5527	76.4951	91.5527	76.49
94.4824	77.8493	94.4824	77.8431	94.4824	77.8354	94.4824	77.8173	94.4824	77.8021	94.4824	77.7733	94.4824	77.751	94.4824	77.7137	94.4824	77.6848	94.4824	77.6415	94.4824	77.607	94.4824	77.5608	94.4824	77.5216	94.4824	77.4754	94.4824	77.433	94.4824	77.3897	94.4824	77.3455	94.4824	77.3073	94.4824	77.2631	94.4824	77.2315	94.4824	77.1889	94.4824	77.1646	94.4824	77.1251	94.4824	77.108	94.4824	77.0728	94.4824	77.0621	94.4824	77.0322	94.4824	77.0266	94.4824	77.0023	94.4824	77.0002	94.4824	76.982	94.4824	76.9818	94.4824	76.9697	94.4824	76.9702	94.4824	76.9641	94.4824	76.9644
98.1445	78.3635	98.1445	78.354	98.1445	78.3536	98.1445	78.3256	98.1445	78.325	98.1445	78.2801	98.1445	78.2793	98.1445	78.2198	98.1445	78.2192	98.1445	78.1482	98.1445	78.1481	98.1445	78.0691	98.1445	78.07	98.1445	77.9868	98.1445	77.9891	98.1445	77.9053	98.1445	77.9096	98.1445	77.8285	98.1445	77.835	98.1445	77.7594	98.1445	77.7682	98.1445	77.7001	98.1445	77.711	98.1445	77.6518	98.1445	77.6641	98.1445	77.6145	98.1445	77.6274	98.1445	77.5874	98.1445	77.5998	98.1445	77.5693	98.1445	77.58	98.1445	77.5586	98.1445	77.5664	98.1445	77.5538	98.1445	77.5579	98.1445	77.5538
101.807	78.9538	101.807	78.9449	101.807	78.9423	101.807	78.9161	101.807	78.9112	101.807	78.8691	101.807	78.8622	101.807	78.8066	101.807	78.7984	101.807	78.7323	101.807	78.7234	101.807	78.6503	101.807	78.6419	101.807	78.5652	101.807	78.5583	101.807	78.4816	101.807	78.4772	101.807	78.4033	101.807	78.4023	101.807	78.3337	101.807	78.3366	101.807	78.2751	101.807	78.2817	101.807	78.2283	101.807	78.2382	101.807	78.1933	101.807	78.2053	101.807	78.1691	101.807	78.1816	101.807	78.1539	101.807	78.1653	101.807	78.1458	101.807	78.1544	101.807	78.1429	101.807	78.1475	101.807	78.1436
105.469	79.5439	105.469	79.5339	105.469	79.5324	105.469	79.503	105.469	79.5	105.469	79.4531	105.469	79.4486	105.469	79.3871	105.469	79.3811	105.469	79.3088	105.469	79.3017	105.469	79.2226	105.469	79.2148	105.469	79.1334	105.469	79.1255	105.469	79.0459	105.469	79.0385	105.469	78.9642	105.469	78.9581	105.469	78.8916	105.469	78.8875	105.469	78.8306	105.469	78.8287	105.469	78.7819	105.469	78.7822	105.469	78.7454	105.469	78.7476	105.469	78.72	105.469	78.7233	105.469	78.7036	105.469	78.7072	105.469	78.6943	105.469	78.6973	105.469	78.69	105.469	78.6917	105.469	78.6893
109.131	80.0667	109.131	80.0552	109.131	80.056	109.131	80.0224	109.131	80.024	109.131	79.9701	109.131	79.9726	109.131	79.9014	109.131	79.9049	109.131	79.8204	109.131	79.825	109.131	79.7316	109.131	79.7377	109.131	79.6402	109.131	79.648	109.131	79.5509	109.131	79.5607	109.131	79.4682	109.131	79.4802	109.131	79.3954	109.131	79.4097	109.131	79.3348	109.131	79.351	109.131	79.2873	109.131	79.3046	109.131	79.2525	109.131	79.27	109.131	79.2291	109.131	79.2455	109.131	79.215	109.131	79.2289	109.131	79.208	109.131	79.2181	109.131	79.2059	109.131	79.2112	109.131	79.2072
112.793	80.5371	112.793	80.5257	112.793	80.526	112.793	80.4925	112.793	80.4934	112.793	80.4395	112.793	80.4413	112.793	80.37	112.793	80.3732	112.793	80.2881	112.793	80.2935	112.793	80.1989	112.793	80.2072	112.793	80.1077	112.793	80.1196	112.793	80.0196	112.793	80.0357	112.793	79.9392	112.793	79.9597	112.793	79.87	112.793	79.8947	112.793	79.8142	112.793	79.8422	112.793	79.7724	112.793	79.8023	112.793	79.7441	112.793	79.7738	112.793	79.7272	112.793	79.7547	112.793	79.7193	112.793	79.7424	112.793	79.7177	112.793	79.7343	112.793	79.7197	112.793	79.7284	112.793	79.7236
116.455	80.9683	116.455	80.9577	116.455	80.9556	116.455	80.9243	116.455	80.9203	116.455	80.8702	116.455	80.8649	116.455	80.7989	116.455	80.7932	116.455	80.7149	116.455	80.7099	116.455	80.6235	116.455	80.6204	116.455	80.5304	116.455	80.5306	116.455	80.4409	116.455	80.4457	116.455	80.3601	116.455	80.3702	116.455	80.2914	116.455	80.3071	116.455	80.2372	116.455	80.2579	116.455	80.198	116.455	80.2223	116.455	80.1728	116.455	80.1987	116.455	80.1594	116.455	80.1845	116.455	80.1548	116.455	80.1765	116.455	80.156	116.455	80.1719	116.455	80.1598	116.455	80.1683	116.455	80.1643
120.85	81.5271	120.85	81.5171	120.85	81.5116	120.85	81.4823	120.85	81.4716	120.85	81.4251	120.85	81.4095	120.85	81.3492	120.85	81.3295	120.85	81.2594	120.85	81.2365	120.85	81.1614	120.85	81.1368	120.85	81.0614	120.85	81.0366	120.85	80.9652	120.85	80.9419	120.85	80.8781	120.85	80.8579	120.85	80.8039	120.85	80.7881	120.85	80.745	120.85	80.7344	120.85	80.702	120.85	80.6965	120.85	80.6738	120.85	80.6727	120.85	80.6579	120.85	80.6599	120.85	80.651	120.85	80.6545	120.85	80.6498	120.85	80.6532	120.85	80.651	120.85	80.6531	120.85	80.6525
125.244	82.095	125.244	82.0857	125.244	82.0782	125.244	82.0512	125.244	82.0365	125.244	81.9937	125.244	81.9726	125.244	81.917	125.244	81.8906	125.244	81.8265	125.244	81.7961	125.244	81.7279	125.244	81.6955	125.244	81.6277	125.244	81.5955	125.244	81.5322	125.244	81.5024	125.244	81.4467	125.244	81.4214	125.244	81.3754	125.244	81.356	125.244	81.3206	125.244	81.3079	125.244	81.2826	125.244	81.2765	125.244	81.2601	125.244	81.2595	125.244	81.25	125.244	81.2532	125.244	81.2486	125.244	81.2536	125.244	81.2519	125.244	81.2565	125.244	81.2562	125.244	81.2589	125.244	81.2589
129.639	82.5333	129.639	82.5208	129.639	82.5183	129.639	82.4814	129.639	82.4766	129.639	82.4177	129.639	82.4112	129.639	82.3339	129.639	82.3265	129.639	82.2354	129.639	82.2284	129.639	82.1288	129.639	82.1235	129.639	82.021	129.639	82.0189	129.639	81.9189	129.639	81.9215	129.639	81.8283	129.639	81.8367	129.639	81.7538	129.639	81.7684	129.639	81.6979	129.639	81.7183	129.639	81.6609	129.639	81.6857	129.639	81.641	129.639	81.6681	129.639	81.6349	129.639	81.6614	129.639	81.638	129.639	81.6612	129.639	81.646	129.639	81.6631	129.639	81.6546	129.639	81.6637	129.639	81.661
134.033	82.9617	134.033	82.9488	134.033	82.9445	134.033	82.9064	134.033	82.898	134.033	82.8372	134.033	82.8253	134.033	82.7455	134.033	82.7309	134.033	82.637	134.033	82.6211	134.033	82.5185	134.033	82.503	134.033	82.3975	134.033	82.3844	134.033	82.2814	134.033	82.2728	134.033	82.1769	134.033	82.1748	134.033	82.0894	134.033	82.095	134.033	82.0222	134.033	82.0356	134.033	81.9761	134.033	81.9962	134.033	81.9497	134.033	81.9742	134.033	81.9394	134.033	81.9652	134.033	81.9406	134.033	81.9641	134.033	81.9479	134.033	81.9657	134.033	81.9566	134.033	81.9663	134.033	81.9634
138.428	83.3083	138.428	83.2966	138.428	83.2898	138.428	83.2553	138.428	83.242	138.428	83.1872	138.428	83.1677	138.428	83.0962	138.428	83.0715	138.428	82.9878	138.428	82.9591	138.428	82.8685	138.428	82.8377	138.428	82.7454	138.428	82.7147	138.428	82.6254	138.428	82.5975	138.428	82.515	138.428	82.4924	138.428	82.4195	138.428	82.4042	138.428	82.3422	138.428	82.3354	138.428	82.2847	138.428	82.2861	138.428	82.2462	138.428	82.2544	138.428	82.2241	138.428	82.2365	138.428	82.2146	138.428	82.2279	138.428	82.2133	138.428	82.2243	138.428	82.216	138.428	82.2222	138.428	82.2195
143.555	83.5996	143.555	83.5875	143.555	83.5815	143.555	83.5461	143.555	83.5342	143.555	83.4782	143.555	83.4607	143.555	83.3882	143.555	83.3656	143.555	83.282	143.555	83.2551	143.555	83.1663	143.555	83.1363	143.555	83.0484	143.555	83.017	143.555	82.9352	143.555	82.9044	143.555	82.8329	143.555	82.8048	143.555	82.7461	143.555	82.7227	143.555	82.6778	143.555	82.6601	143.555	82.6284	143.555	82.617	143.555	82.5966	143.555	82.5911	143.555	82.5794	143.555	82.5784	143.555	82.5728	143.555	82.5745	143.555	82.5725	143.555	82.575	143.555	82.5746	143.555	82.5763	143.555	82.5763
148.682	83.9426	148.682	83.9321	148.682	83.9215	148.682	83.8908	148.682	83.8699	148.682	83.8219	148.682	83.7913	148.682	83.7303	148.682	83.691	148.682	83.6227	148.682	83.5761	148.682	83.5066	148.682	83.455	148.682	83.3901	148.682	83.3362	148.682	83.2809	148.682	83.228	148.682	83.1859	148.682	83.137	148.682	83.1096	148.682	83.0674	148.682	83.0544	148.682	83.0208	148.682	83.0202	148.682	82.9955	148.682	83.0042	148.682	82.988	148.682	83.002	148.682	82.9927	148.682	83.0082	148.682	83.0038	148.682	83.0176	148.682	83.016	148.682	83.0253	148.682	83.025	148.682	83.0283
153.809	84.2948	153.809	84.2825	153.809	84.2729	153.809	84.2373	153.809	84.2178	153.809	84.1625	153.809	84.1326	153.809	84.0635	153.809	84.0227	153.809	83.9471	153.809	83.8952	153.809	83.8213	153.809	83.7587	153.809	83.6945	153.809	83.6228	153.809	83.575	153.809	83.4968	153.809	83.4702	153.809	83.3888	153.809	83.3853	153.809	83.305	153.809	83.3234	153.809	83.2481	153.809	83.2844	153.809	83.2176	153.809	83.2657	153.809	83.2098	153.809	83.2625	153.809	83.2185	153.809	83.2685	153.809	83.2365	153.809	83.2772	153.809	83.2566	153.809	83.2831	153.809	83.2731	153.809	83.2823
159.668	84.4181	159.668	84.3986	159.668	84.4042	159.668	84.347	159.668	84.3578	159.668	84.2667	159.668	84.2821	159.668	84.1632	159.668	84.1821	159.668	84.0432	159.668	84.0648	159.668	83.9149	159.668	83.9381	159.668	83.7864	159.668	83.8106	159.668	83.6657	159.668	83.6902	159.668	83.5596	159.668	83.5839	159.668	83.4731	159.668	83.4967	159.668	83.4088	159.668	83.4312	159.668	83.3667	159.668	83.3874	159.668	83.3444	159.668	83.3629	159.668	83.3378	159.668	83.3534	159.668	83.3414	159.668	83.3535	159.668	83.3496	159.668	83.3579	159.668	83.3575	159.668	83.3618	159.668	83.362
164.795	84.4698	164.795	84.4514	164.795	84.4532	164.795	84.3994	164.795	84.4027	164.795	84.3179	164.795	84.3223	164.795	84.2134	164.795	84.2184	164.795	84.0943	164.795	84.0993	164.795	83.9697	164.795	83.9747	164.795	83.8491	164.795	83.8543	164.795	83.7411	164.795	83.7469	164.795	83.6521	164.795	83.6592	164.795	83.5862	164.795	83.5951	164.795	83.5442	164.795	83.555	164.795	83.5241	164.795	83.5366	164.795	83.5218	164.795	83.5351	164.795	83.5319	164.795	83.5447	164.795	83.5482	164.795	83.5593	164.795	83.5652	164.795	83.5734	164.795	83.5784	164.795	83.5827	164.795	83.5846
170.654	84.5866	170.654	84.5677	170.654	84.5617	170.654	84.5064	170.654	84.4942	170.654	84.4069	170.654	84.3887	170.654	84.2764	170.654	84.2524	170.654	84.1242	170.654	84.0949	170.654	83.9616	170.654	83.9283	170.654	83.8012	170.654	83.7655	170.654	83.6551	170.654	83.6195	170.654	83.5341	170.654	83.501	170.654	83.4455	170.654	83.4174	170.654	83.3923	170.654	83.371	170.654	83.3727	170.654	83.3587	170.654	83.3804	170.654	83.3735	170.654	83.4066	170.654	83.4051	170.654	83.4411	170.654	83.4428	170.654	83.4742	170.654	83.4769	170.654	83.498	170.654	83.4999	170.654	83.5073
176.514	84.8918	176.514	84.87	176.514	84.8731	176.514	84.8089	176.514	84.8151	176.514	84.7126	176.514	84.722	176.514	84.5875	176.514	84.6005	176.514	84.4423	176.514	84.4591	176.514	84.2873	176.514	84.3081	176.514	84.1336	176.514	84.1584	176.514	83.9921	176.514	84.0205	176.514	83.8725	176.514	83.9034	176.514	83.7817	176.514	83.8137	176.514	83.7231	176.514	83.7544	176.514	83.696	176.514	83.7248	176.514	83.6957	176.514	83.7206	176.514	83.7144	176.514	83.7345	176.514	83.7429	176.514	83.7577	176.514	83.7718	176.514	83.7815	176.514	83.7935	176.514	83.7983	176.514	83.8029
183.105	84.9932	183.105	84.9736	183.105	84.9687	183.105	84.9113	183.105	84.9017	183.105	84.8105	183.105	84.7965	183.105	84.678	183.105	84.6606	183.105	84.5228	183.105	84.5039	183.105	84.3558	183.105	84.338	183.105	84.1887	183.105	84.1755	183.105	84.0332	183.105	84.0287	183.105	83.8999	183.105	83.9075	183.105	83.7965	183.105	83.8184	183.105	83.7273	183.105	83.7632	183.105	83.6923	183.105	83.7393	183.105	83.687	183.105	83.7403	183.105	83.704	183.105	83.7572	183.105	83.7338	183.105	83.7805	183.105	83.7666	183.105	83.8012	183.105	83.7942	183.105	83.8125	183.105	83.8104
189.697	85.0766	189.697	85.0519	189.697	85.0549	189.697	84.9823	189.697	84.9884	189.697	84.8727	189.697	84.8818	189.697	84.731	189.697	84.7432	189.697	84.5674	189.697	84.5829	189.697	84.3945	189.697	84.4136	189.697	84.2256	189.697	84.2488	189.697	84.0737	189.697	84.1018	189.697	83.9499	189.697	83.9837	189.697	83.862	189.697	83.9018	189.697	83.8129	189.697	83.8583	189.697	83.8007	189.697	83.8502	189.697	83.8189	189.697	83.8696	189.697	83.8577	189.697	83.9059	189.697	83.906	189.697	83.9473	189.697	83.9526	189.697	83.9828	189.697	83.9882	189.697	84.0042	189.697	84.0063
196.289	85.1907	196.289	85.17	196.289	85.1626	196.289	85.102	196.289	85.0876	196.289	84.9915	196.289	84.971	196.289	84.8461	196.289	84.8211	196.289	84.6764	196.289	84.649	196.289	84.495	196.289	84.4677	196.289	84.3156	196.289	84.2913	196.289	84.1516	196.289	84.1333	196.289	84.015	196.289	84.0049	196.289	83.9141	196.289	83.9137	196.289	83.8528	196.289	83.862	196.289	83.8295	196.289	83.847	196.289	83.8382	196.289	83.8614	196.289	83.8692	196.289	83.8946	196.289	83.9112	196.289	83.9348	196.289	83.9527	196.289	83.9709	196.289	83.9842	196.289	83.994	196.289	83.9989
202.881	85.0141	202.881	84.9885	202.881	84.9873	202.881	84.9121	202.881	84.9102	202.881	84.7901	202.881	84.7886	202.881	84.6313	202.881	84.6319	202.881	84.4474	202.881	84.4526	202.881	84.253	202.881	84.2655	202.881	84.064	202.881	84.0864	202.881	83.8961	202.881	83.9305	202.881	83.763	202.881	83.8098	202.881	83.6739	202.881	83.7315	202.881	83.6319	202.881	83.697	202.881	83.6335	202.881	83.7013	202.881	83.6696	202.881	83.735	202.881	83.7274	202.881	83.7854	202.881	83.7927	202.881	83.8394	202.881	83.8525	202.881	83.8851	202.881	83.8962	202.881	83.913	202.881	83.9173
210.205	85.0916	210.205	85.066	210.205	85.0591	210.205	84.9838	210.205	84.9712	210.205	84.8496	210.205	84.834	210.205	84.6719	210.205	84.6573	210.205	84.4623	210.205	84.4545	210.205	84.2358	210.205	84.2415	210.205	84.0093	210.205	84.036	210.205	83.8007	210.205	83.8552	210.205	83.627	210.205	83.7133	210.205	83.5015	210.205	83.6197	210.205	83.4314	210.205	83.5762	210.205	83.4163	210.205	83.5776	210.205	83.4481	210.205	83.6125	210.205	83.5127	210.205	83.6657	210.205	83.5933	210.205	83.7211	210.205	83.6728	210.205	83.7645	210.205	83.737	210.205	83.7848	210.205	83.7759
217.529	85.3288	217.529	85.3106	217.529	85.2873	217.529	85.2343	217.529	85.1878	217.529	85.1047	217.529	85.0354	217.529	84.9292	217.529	84.8387	217.529	84.7185	217.529	84.6097	217.529	84.4853	217.529	84.3635	217.529	84.2449	217.529	84.1176	217.529	84.0133	217.529	83.8902	217.529	83.8066	217.529	83.6979	217.529	83.6382	217.529	83.5529	217.529	83.5174	217.529	83.4609	217.529	83.4469	217.529	83.4197	217.529	83.4223	217.529	83.4203	217.529	83.4336	217.529	83.4487	217.529	83.4666	217.529	83.4892	217.529	83.5063	217.529	83.5272	217.529	83.5393	217.529	83.5516	217.529	83.5559
225.586	85.0139	225.586	84.9929	225.586	84.9775	225.586	84.9164	225.586	84.8856	225.586	84.7901	225.586	84.7444	225.586	84.6234	225.586	84.5642	225.586	84.4288	225.586	84.3587	225.586	84.2213	225.586	84.1449	225.586	84.0172	225.586	83.9409	225.586	83.8331	225.586	83.7647	225.586	83.6839	225.586	83.631	225.586	83.5802	225.586	83.5488	225.586	83.5271	225.586	83.5197	225.586	83.5228	225.586	83.5376	225.586	83.5588	225.586	83.5902	225.586	83.6217	225.586	83.6615	225.586	83.6956	225.586	83.735	225.586	83.7648	225.586	83.7959	225.586	83.816	225.586	83.8331	225.586	83.8402
232.91	84.9614	232.91	84.9309	232.91	84.9263	232.91	84.8372	232.91	84.8277	232.91	84.687	232.91	84.672	232.91	84.4913	232.91	84.4704	232.91	84.2647	232.91	84.2381	232.91	84.0249	232.91	83.9942	232.91	83.7915	232.91	83.76	232.91	83.5846	232.91	83.5568	232.91	83.4217	232.91	83.4029	232.91	83.3154	232.91	83.3103	232.91	83.2706	232.91	83.2818	232.91	83.2837	232.91	83.3106	232.91	83.3429	232.91	83.3815	232.91	83.431	232.91	83.4749	232.91	83.5283	232.91	83.57	232.91	83.6163	232.91	83.6487	232.91	83.6798	232.91	83.6974	232.91	83.7083
241.699	85.1653	241.699	85.1406	241.699	85.116	241.699	85.0442	241.699	84.9945	241.699	84.8822	241.699	84.807	241.699	84.6646	241.699	84.564	241.699	84.4051	241.699	84.2813	241.699	84.1211	241.699	83.979	241.699	83.8331	241.699	83.6808	241.699	83.5636	241.699	83.412	241.699	83.3347	241.699	83.1959	241.699	83.1649	241.699	83.0496	241.699	83.0649	241.699	82.9801	241.699	83.0353	241.699	82.9824	241.699	83.0661	241.699	83.041	241.699	83.1385	241.699	83.1334	241.699	83.2291	241.699	83.2353	241.699	83.315	241.699	83.3241	241.699	83.3767	241.699	83.3829	241.699	83.4012
249.756	84.7491	249.756	84.7158	249.756	84.7087	249.756	84.6119	249.756	84.5953	249.756	84.4448	249.756	84.414	249.756	84.2255	249.756	84.1747	249.756	83.9684	249.756	83.892	249.756	83.6912	249.756	83.5851	249.756	83.4133	249.756	83.2777	249.756	83.1551	249.756	82.9954	249.756	82.9353	249.756	82.7631	249.756	82.7686	249.756	82.5996	249.756	82.6633	249.756	82.5139	249.756	82.6198	249.756	82.5024	249.756	82.6302	249.756	82.5499	249.756	82.6797	249.756	82.6338	249.756	82.7493	249.756	82.7291	249.756	82.8185	249.756	82.8132	249.756	82.8694	249.756	82.8695	249.756	82.8886
258.545	85.029	258.545	84.9913	258.545	84.9848	258.545	84.8738	258.545	84.8609	258.545	84.683	258.545	84.6636	258.545	84.4293	258.545	84.404	258.545	84.1274	258.545	84.0975	258.545	83.7962	258.545	83.7645	258.545	83.4582	258.545	83.4291	258.545	83.1388	258.545	83.1178	258.545	82.8635	258.545	82.8562	258.545	82.6542	258.545	82.6645	258.545	82.5242	258.545	82.5529	258.545	82.4751	258.545	82.5188	258.545	82.4953	258.545	82.5478	258.545	82.5637	258.545	82.6172	258.545	82.6544	258.545	82.7016	258.545	82.7426	258.545	82.7774	258.545	82.8081	258.545	82.8264	258.545	82.8377
268.066	85.2754	268.066	85.2401	268.066	85.2337	268.066	85.1297	268.066	85.1174	268.066	84.9504	268.066	84.9326	268.066	84.7121	268.066	84.6898	268.066	84.4287	268.066	84.4034	268.066	84.1178	268.066	84.0914	268.066	83.8001	268.066	83.7753	268.066	83.4982	268.066	83.4783	268.066	83.2345	268.066	83.2235	268.066	83.0285	268.066	83.0299	268.066	82.8927	268.066	82.9087	268.066	82.8295	268.066	82.8598	268.066	82.8309	268.066	82.872	268.066	82.8794	268.066	82.9252	268.066	82.9526	268.066	82.9957	268.066	83.0277	268.066	83.061	268.066	83.0854	268.066	83.1034	268.066	83.1124
277.588	84.8034	277.588	84.769	277.588	84.7517	277.588	84.6513	277.588	84.6159	277.588	84.4578	277.588	84.4032	277.588	84.2007	277.588	84.1265	277.588	83.8972	277.588	83.8046	277.588	83.5693	277.588	83.4626	277.588	83.2434	277.588	83.1308	277.588	82.9481	277.588	82.8421	277.588	82.711	277.588	82.6266	277.588	82.5534	277.588	82.5048	277.588	82.4858	277.588	82.4821	277.588	82.5051	277.588	82.5464	277.588	82.595	277.588	82.6719	277.588	82.7302	277.588	82.826	277.588	82.8812	277.588	82.9762	277.588	83.0199	277.588	83.0954	277.588	83.123	277.588	83.1646	277.588	83.174
287.109	84.7941	287.109	84.7315	287.109	84.7718	287.109	84.5855	287.109	84.6671	287.109	84.3624	287.109	84.4865	287.109	84.0729	287.109	84.24	287.109	83.7328	287.109	83.9402	287.109	83.3626	287.109	83.6027	287.109	82.988	287.109	83.2462	287.109	82.6388	287.109	82.8935	287.109	82.3458	287.109	82.572	287.109	82.136	287.109	82.3116	287.109	82.0253	287.109	82.1387	287.109	82.0132	287.109	82.0675	287.109	82.0827	287.109	82.0929	287.109	82.2044	287.109	82.19	287.109	82.3438	287.109	82.322	287.109	82.4686	287.109	82.45	287.109	82.5525	287.109	82.5424	287.109	82.5789
297.363	84.9835	297.363	84.968	297.363	84.8976	297.363	84.8527	297.363	84.7136	297.363	84.6432	297.363	84.4407	297.363	84.3496	297.363	84.0943	297.363	83.9863	297.363	83.6975	297.363	83.5731	297.363	83.2802	297.363	83.1355	297.363	82.877	297.363	82.7047	297.363	82.5217	297.363	82.3152	297.363	82.2414	297.363	82.0009	297.363	82.0506	297.363	81.7871	297.363	81.9489	297.363	81.6835	297.363	81.9234	297.363	81.6805	297.363	81.9532	297.363	81.7521	297.363	82.0138	297.363	81.8639	297.363	82.0814	297.363	81.9821	297.363	82.135	297.363	82.08	297.363	82.1582	297.363	82.1408
307.617	84.9873	307.617	84.9582	307.617	84.9291	307.617	84.8456	307.617	84.7842	307.617	84.6566	307.617	84.5576	307.617	84.4018	307.617	84.2598	307.617	84.0945	307.617	83.9071	307.617	83.7511	307.617	83.5223	307.617	83.3916	307.617	83.1342	307.617	83.0406	307.617	82.7763	307.617	82.7261	307.617	82.4829	307.617	82.4772	307.617	82.2818	307.617	82.3174	307.617	82.1876	307.617	82.2573	307.617	82.1965	307.617	82.2896	307.617	82.287	307.617	82.3898	307.617	82.4255	307.617	82.5237	307.617	82.575	307.617	82.6554	307.617	82.702	307.617	82.7544	307.617	82.7816	307.617	82.7997
318.604	84.6043	318.604	84.557	318.604	84.5488	318.604	84.411	318.604	84.3912	318.604	84.1753	318.604	84.1378	318.604	83.8635	318.604	83.8011	318.604	83.4939	318.604	83.4002	318.604	83.0896	318.604	82.9617	318.604	82.6784	318.604	82.52	318.604	82.2927	318.604	82.1158	318.604	81.9666	318.604	81.7917	318.604	81.7317	318.604	81.5834	318.604	81.6095	318.604	81.5087	318.604	81.6047	318.604	81.5611	318.604	81.7015	318.604	81.7103	318.604	81.8671	318.604	81.9119	318.604	82.0598	318.604	82.1188	318.604	82.2379	318.604	82.2904	318.604	82.3671	318.604	82.3974	318.604	82.4239
329.59	84.5013	329.59	84.4544	329.59	84.4439	329.59	84.3069	329.59	84.2838	329.59	84.0677	329.59	84.028	329.59	83.7509	329.59	83.6888	329.59	83.3758	329.59	83.2845	329.59	82.9661	329.59	82.8401	329.59	82.5503	329.59	82.388	329.59	82.1607	329.59	81.9669	329.59	81.831	329.59	81.6189	329.59	81.592	329.59	81.3818	329.59	81.4641	329.59	81.2777	329.59	81.4507	329.59	81.3049	329.59	81.5354	329.59	81.4366	329.59	81.6853	329.59	81.6292	329.59	81.8599	329.59	81.835	329.59	82.0188	329.59	82.0117	329.59	82.1293	329.59	82.1288	329.59	82.1692
341.309	84.6541	341.309	84.5914	341.309	84.6071	341.309	84.4213	341.309	84.4524	341.309	84.1509	341.309	84.1971	341.309	83.7921	341.309	83.8531	341.309	83.3613	341.309	83.4374	341.309	82.8808	341.309	82.9723	341.309	82.3788	341.309	82.4858	341.309	81.8898	341.309	82.0116	341.309	81.4538	341.309	81.5881	341.309	81.1113	341.309	81.2537	341.309	80.8943	341.309	81.0385	341.309	80.8158	341.309	80.9545	341.309	80.8623	341.309	80.9886	341.309	80.9972	341.309	81.1058	341.309	81.1724	341.309	81.2587	341.309	81.3404	341.309	81.4006	341.309	81.4636	341.309	81.4946	341.309	81.5179
353.76	84.5762	353.76	84.5226	353.76	84.503	353.76	84.3449	353.76	84.3056	353.76	84.0511	353.76	83.993	353.76	83.6546	353.76	83.5812	353.76	83.1745	353.76	83.0944	353.76	82.6373	353.76	82.5659	353.76	82.0793	353.76	82.0386	353.76	81.5473	353.76	81.5628	353.76	81.0968	353.76	81.1899	353.76	80.7831	353.76	80.9613	353.76	80.645	353.76	80.8951	353.76	80.6883	353.76	80.9787	353.76	80.8807	353.76	81.1726	353.76	81.1631	353.76	81.4225	353.76	81.4686	353.76	81.6732	353.76	81.7386	353.76	81.8775	353.76	81.9308	353.76	82.0005	353.76	82.0207
366.211	84.9068	366.211	84.8664	366.211	84.834	366.211	84.7154	366.211	84.6492	366.211	84.4602	366.211	84.358	366.211	84.1103	366.211	83.9705	366.211	83.6781	366.211	83.5021	366.211	83.1796	366.211	82.9744	366.211	82.6358	366.211	82.4159	366.211	82.0742	366.211	81.8644	366.211	81.5317	366.211	81.3668	366.211	81.0545	366.211	80.9734	366.211	80.6914	366.211	80.7253	366.211	80.4804	366.211	80.637	366.211	80.432	366.211	80.6868	366.211	80.5216	366.211	80.8238	366.211	80.6973	366.211	80.987	366.211	80.8979	366.211	81.122	366.211	81.0691	366.211	81.1905	366.211	81.173
378.662	84.9216	378.662	84.88	378.662	84.8387	378.662	84.7184	378.662	84.6319	378.662	84.445	378.662	84.3073	378.662	84.0718	378.662	83.8768	378.662	83.614	378.662	83.3592	378.662	83.0904	378.662	82.7808	378.662	82.5256	378.662	82.177	378.662	81.9519	378.662	81.5938	378.662	81.4128	378.662	81.0871	378.662	80.9622	378.662	80.7158	378.662	80.6551	378.662	80.525	378.662	80.5292	378.662	80.5258	378.662	80.5838	378.662	80.6856	378.662	80.7761	378.662	80.9388	378.662	81.0371	378.662	81.2106	378.662	81.295	378.662	81.436	378.662	81.4919	378.662	81.5701	378.662	81.5895
392.578	84.5096	392.578	84.4439	392.578	84.4566	392.578	84.2674	392.578	84.2825	392.578	83.9917	392.578	83.99	392.578	83.6312	392.578	83.5883	392.578	83.2017	392.578	83.0929	392.578	82.7197	392.578	82.527	392.578	82.204	392.578	81.9225	392.578	81.6782	392.578	81.3211	392.578	81.1742	392.578	80.7734	392.578	80.7332	392.578	80.3344	392.578	80.4001	392.578	80.0517	392.578	80.2107	392.578	79.9489	392.578	80.1754	392.578	80.0125	392.578	80.2708	392.578	80.1936	392.578	80.4448	392.578	80.4246	392.578	80.6328	392.578	80.6389	392.578	80.7759	392.578	80.785	392.578	80.8327
405.762	84.7496	405.762	84.6799	405.762	84.6783	405.762	84.4741	405.762	84.4669	405.762	84.1425	405.762	84.1222	405.762	83.7008	405.762	83.658	405.762	83.1707	405.762	83.0958	405.762	82.5803	405.762	82.4667	405.762	81.966	405.762	81.8134	405.762	81.3733	405.762	81.1917	405.762	80.856	405.762	80.6682	405.762	80.4702	405.762	80.309	405.762	80.2613	405.762	80.1582	405.762	80.2456	405.762	80.2164	405.762	80.3996	405.762	80.4369	405.762	80.6658	405.762	80.7445	405.762	80.9712	405.762	81.0609	405.762	81.2481	405.762	81.3225	405.762	81.4446	405.762	81.4861	405.762	81.5283
420.41	84.5608	420.41	84.481	420.41	84.5153	420.41	84.2803	420.41	84.3456	420.41	83.9691	420.41	84.0585	420.41	83.563	420.41	83.6657	420.41	83.0819	420.41	83.1825	420.41	82.5489	420.41	82.6283	420.41	81.9891	420.41	82.0271	420.41	81.4305	420.41	81.4109	420.41	80.9052	420.41	80.8226	420.41	80.4511	420.41	80.3177	420.41	80.1095	420.41	79.9556	420.41	79.9156	420.41	79.7793	420.41	79.8816	420.41	79.7914	420.41	79.9846	420.41	79.9473	420.41	80.1702	420.41	80.1723	420.41	80.37	420.41	80.3891	420.41	80.5226	420.41	80.5379	420.41	80.5848
435.059	84.7992	435.059	84.7394	435.059	84.7105	435.059	84.5356	435.059	84.4739	435.059	84.197	435.059	84.096	435.059	83.7369	435.059	83.5894	435.059	83.1724	435.059	82.9737	435.059	82.5253	435.059	82.277	435.059	81.8242	435.059	81.538	435.059	81.1104	435.059	80.8108	435.059	80.4429	435.059	80.1681	435.059	79.9002	435.059	79.696	435.059	79.5645	435.059	79.4704	435.059	79.4867	435.059	79.5165	435.059	79.6535	435.059	79.7854	435.059	79.9884	435.059	80.1758	435.059	80.3874	435.059	80.5781	435.059	80.7548	435.059	80.9057	435.059	81.0208	435.059	81.1032	435.059	81.1429
450.439	84.5313	450.439	84.4566	450.439	84.475	450.439	84.2573	450.439	84.2865	450.439	83.9438	450.439	83.9704	450.439	83.5288	450.439	83.5378	450.439	83.0266	450.439	83.0054	450.439	82.4533	450.439	82.3955	450.439	81.8288	450.439	81.7358	450.439	81.181	450.439	81.0608	450.439	80.5521	450.439	80.418	450.439	80.0013	450.439	79.8737	450.439	79.5999	450.439	79.5103	450.439	79.4097	450.439	79.3969	450.439	79.4523	450.439	79.5412	450.439	79.6897	450.439	79.8685	450.439	80.037	450.439	80.2563	450.439	80.3945	450.439	80.589	450.439	80.6749	450.439	80.788	450.439	80.8166
466.553	84.7939	466.553	84.7093	466.553	84.7228	466.553	84.4775	466.553	84.4939	466.553	84.1128	466.553	84.1119	466.553	83.633	466.553	83.5882	466.553	83.0571	466.553	82.9409	466.553	82.4035	466.553	82.1961	466.553	81.6899	466.553	81.3894	466.553	80.9389	466.553	80.5688	466.553	80.1877	466.553	79.797	466.553	79.4999	466.553	79.1502	466.553	78.966	466.553	78.7082	466.553	78.6751	466.553	78.5285	466.553	78.6632	466.553	78.6131	466.553	78.8807	466.553	78.8954	466.553	79.218	466.553	79.2644	466.553	79.5573	466.553	79.607	466.553	79.8063	466.553	79.8373	466.553	79.9074
482.666	84.804	482.666	84.6931	482.666	84.766	482.666	84.4449	482.666	84.5734	482.666	84.0749	482.666	84.227	482.666	83.6004	482.666	83.7347	482.666	83.0386	482.666	83.1117	482.666	82.4068	482.666	82.381	482.666	81.7242	482.666	81.5759	482.666	81.0153	482.666	80.745	482.666	80.3157	482.666	79.9588	482.666	79.6803	482.666	79.313	482.666	79.1891	482.666	78.9094	482.666	78.9328	482.666	78.808	482.666	78.9626	482.666	78.9832	482.666	79.2382	482.666	79.3339	482.666	79.638	482.666	79.7376	482.666	80.0247	482.666	80.0927	482.666	80.297	482.666	80.3285	482.666	80.4024
500.244	85.0658	500.244	84.9753	500.244	85.0011	500.244	84.7331	500.244	84.7845	500.244	84.35	500.244	84.4239	500.244	83.843	500.244	83.9312	500.244	83.2343	500.244	83.3201	500.244	82.5478	500.244	82.6051	500.244	81.808	500.244	81.8043	500.244	81.0415	500.244	80.9448	500.244	80.2841	500.244	80.0753	500.244	79.5887	500.244	79.2809	500.244	79.0277	500.244	78.6859	500.244	78.6794	500.244	78.4139	500.244	78.5959	500.244	78.5042	500.244	78.7673	500.244	78.8644	500.244	79.1125	500.244	79.3246	500.244	79.5087	500.244	79.7271	500.244	79.8355	500.244	79.9691	500.244	80.0044
517.822	84.8888	517.822	84.7968	517.822	84.8291	517.822	84.5613	517.822	84.6161	517.822	84.1962	517.822	84.2558	517.822	83.7192	517.822	83.7612	517.822	83.149	517.822	83.1503	517.822	82.5021	517.822	82.4437	517.822	81.7907	517.822	81.6615	517.822	81.0241	517.822	80.8235	517.822	80.218	517.822	79.957	517.822	79.4129	517.822	79.1139	517.822	78.6949	517.822	78.3916	517.822	78.1917	517.822	77.9284	517.822	78.0118	517.822	77.8323	517.822	78.1557	517.822	78.0797	517.822	78.5036	517.822	78.5123	517.822	78.8939	517.822	78.9416	517.822	79.1938	517.822	79.2324	517.822	79.3192
536.133	84.8375	536.133	84.7002	536.133	84.8136	536.133	84.4163	536.133	84.6222	536.133	84.0071	536.133	84.2659	536.133	83.4976	536.133	83.7562	536.133	82.9124	536.133	83.1132	536.133	82.2727	536.133	82.3652	536.133	81.5949	536.133	81.5481	536.133	80.8937	536.133	80.7058	536.133	80.1885	536.133	79.8951	536.133	79.5157	536.133	79.1924	536.133	78.9408	536.133	78.6932	536.133	78.5591	536.133	78.4799	536.133	78.4562	536.133	78.5659	536.133	78.6396	536.133	78.8714	536.133	79.0108	536.133	79.2646	536.133	79.4205	536.133	79.6196	536.133	79.7395	536.133	79.8456	536.133	79.8903
554.443	84.6404	554.443	84.531	554.443	84.601	554.443	84.2806	554.443	84.4129	554.443	83.9049	554.443	84.0831	554.443	83.4251	554.443	83.6225	554.443	82.8642	554.443	83.0447	554.443	82.2419	554.443	82.3649	554.443	81.5728	554.443	81.6004	554.443	80.8688	554.443	80.7747	554.443	80.1476	554.443	79.9225	554.443	79.4439	554.443	79.1028	554.443	78.8185	554.443	78.4169	554.443	78.3595	554.443	78.0094	554.443	78.1625	554.443	77.9975	554.443	78.2769	554.443	78.3517	554.443	78.6473	554.443	78.8863	554.443	79.1216	554.443	79.3834	554.443	79.528	554.443	79.6909	554.443	79.7391
574.219	84.2742	574.219	84.1266	574.219	84.241	574.219	83.8057	574.219	84.0363	574.219	83.3366	574.219	83.6826	574.219	82.7585	574.219	83.2094	574.219	82.1161	574.219	82.646	574.219	81.4475	574.219	82.0139	574.219	80.7746	574.219	81.322	574.219	80.1041	574.219	80.5677	574.219	79.4408	574.219	79.7472	574.219	78.8057	574.219	78.8767	574.219	78.2482	574.219	78.0246	574.219	77.8412	574.219	77.3368	574.219	77.65	574.219	76.9995	574.219	77.689	574.219	77.0948	574.219	77.9012	574.219	77.4956	574.219	78.1777	574.219	77.9663	574.219	78.3983	574.219	78.3187	574.219	78.4641
594.727	85.0745	594.727	84.9803	594.727	84.9716	594.727	84.6893	594.727	84.6812	594.727	84.2126	594.727	84.2234	594.727	83.5755	594.727	83.6292	594.727	82.8217	594.727	82.9404	594.727	82.014	594.727	82.2059	594.727	81.2238	594.727	81.4745	594.727	80.5092	594.727	80.7834	594.727	79.8963	594.727	80.1471	594.727	79.3852	594.727	79.5555	594.727	78.975	594.727	78.9927	594.727	78.6802	594.727	78.4701	594.727	78.5193	594.727	78.0538	594.727	78.4902	594.727	77.8438	594.727	78.5557	594.727	77.8908	594.727	78.6481	594.727	78.1278	594.727	78.689	594.727	78.4108	594.727	78.6156
615.234	85.587	615.234	85.4821	615.234	85.4562	615.234	85.1537	615.234	85.0931	615.234	84.6261	615.234	84.5176	615.234	83.9304	615.234	83.7669	615.234	83.1005	615.234	82.8954	615.234	82.1716	615.234	81.9725	615.234	81.1897	615.234	81.0778	615.234	80.2258	615.234	80.2948	615.234	79.3872	615.234	79.7007	615.234	78.7988	615.234	79.3499	615.234	78.5509	615.234	79.252	615.234	78.6507	615.234	79.3655	615.234	79.0203	615.234	79.6212	615.234	79.5342	615.234	79.9519	615.234	80.063	615.234	80.3002	615.234	80.5031	615.234	80.6107	615.234	80.7899	615.234	80.826	615.234	80.896
637.207	86.3249	637.207	86.1998	637.207	86.2169	637.207	85.8542	637.207	85.8723	637.207	85.3072	637.207	85.2983	637.207	84.5831	637.207	84.5149	637.207	83.7089	637.207	83.5562	637.207	82.712	637.207	82.4712	637.207	81.6171	637.207	81.3222	637.207	80.4475	637.207	80.1842	637.207	79.2399	637.207	79.1484	637.207	78.0833	637.207	78.3359	637.207	77.178	637.207	77.896	637.207	76.822	637.207	77.9319	637.207	77.176	637.207	78.3876	637.207	78.0401	637.207	79.065	637.207	79.0392	637.207	79.7547	637.207	79.8932	637.207	80.3125	637.207	80.4657	637.207	80.6516	637.207	80.7152
659.912	85.6493	659.912	85.495	659.912	85.6086	659.912	85.1682	659.912	85.3624	659.912	84.6996	659.912	84.9131	659.912	84.1195	659.912	84.2745	659.912	83.4492	659.912	83.4687	659.912	82.6948	659.912	82.5248	659.912	81.8481	659.912	81.4818	659.912	80.899	659.912	80.3967	659.912	79.8632	659.912	79.3597	659.912	78.8259	659.912	78.5081	659.912	77.985	659.912	78.013	659.912	77.6067	659.912	78.0022	659.912	77.8214	659.912	78.452	659.912	78.4813	659.912	79.1775	659.912	79.3084	659.912	79.9418	659.912	80.076	659.912	80.555	659.912	80.6439	659.912	80.9018	659.912	80.9319
683.35	85.4302	683.35	85.2336	683.35	85.4017	683.35	84.827	683.35	85.1461	683.35	84.2402	683.35	84.6724	683.35	83.5162	683.35	83.9991	683.35	82.7046	683.35	83.1529	683.35	81.8485	683.35	82.1664	683.35	80.97	683.35	81.0744	683.35	80.0632	683.35	79.9152	683.35	79.1049	683.35	78.7446	683.35	78.0934	683.35	77.6715	683.35	77.1314	683.35	76.902	683.35	76.5236	683.35	76.7006	683.35	76.6561	683.35	77.168	683.35	77.5204	683.35	78.0826	683.35	78.6631	683.35	79.09	683.35	79.6675	683.35	79.9268	683.35	80.3334	683.35	80.4514	683.35	80.5962
706.787	85.2852	706.787	85.109	706.787	85.2255	706.787	84.716	706.787	84.9285	706.787	84.1418	706.787	84.41	706.787	83.4318	706.787	83.6993	706.787	82.6315	706.787	82.8348	706.787	81.7736	706.787	81.8578	706.787	80.8692	706.787	80.8037	706.787	79.9092	706.787	79.6892	706.787	78.8758	706.787	78.5098	706.787	77.7675	706.787	77.2808	706.787	76.6497	706.787	76.1559	706.787	75.739	706.787	75.5473	706.787	75.4223	706.787	75.8457	706.787	75.9364	706.787	76.8399	706.787	77.0029	706.787	77.9668	706.787	78.1223	706.787	78.8521	706.787	78.9625	706.787	79.3419	706.787	79.382
731.689	85.541	731.689	85.3237	731.689	85.538	731.689	84.9079	731.689	85.3059	731.689	84.3279	731.689	84.8482	731.689	83.627	731.689	84.1795	731.689	82.8496	731.689	83.3238	731.689	82.0291	731.689	82.3114	731.689	81.1746	731.689	81.1761	731.689	80.266	731.689	79.9576	731.689	79.2659	731.689	78.7104	731.689	78.1531	731.689	77.5152	731.689	76.9795	731.689	76.5005	731.689	75.961	731.689	75.8902	731.689	75.5183	731.689	75.9698	731.689	75.9628	731.689	76.7699	731.689	77.0421	731.689	77.894	731.689	78.2146	731.689	78.88	731.689	79.1043	731.689	79.4619	731.689	79.5399
758.057	85.0354	758.057	84.7945	758.057	85.0209	758.057	84.3139	758.057	84.7576	758.057	83.636	758.057	84.2701	758.057	82.8296	758.057	83.5956	758.057	81.9765	758.057	82.7772	758.057	81.1427	758.057	81.8519	758.057	80.3483	758.057	80.8383	758.057	79.558	758.057	79.7313	758.057	78.7026	758.057	78.515	758.057	77.716	758.057	77.2046	758.057	76.5923	758.057	75.9344	758.057	75.4976	758.057	75.0742	758.057	74.9028	758.057	75.1116	758.057	75.3042	758.057	76.0591	758.057	76.4922	758.057	77.3527	758.057	77.7972	758.057	78.4628	758.057	78.7701	758.057	79.1218	758.057	79.2294
784.424	85.3214	784.424	85.0676	784.424	85.2989	784.424	84.5572	784.424	85.0009	784.424	83.8341	784.424	84.4459	784.424	82.9665	784.424	83.6668	784.424	82.0391	784.424	82.7107	784.424	81.1306	784.424	81.6384	784.424	80.2816	784.424	80.5182	784.424	79.4748	784.424	79.4049	784.424	78.6477	784.424	78.3093	784.424	77.7319	784.424	77.1928	784.424	76.7118	784.424	76.0422	784.424	75.7169	784.424	75.0518	784.424	75.1189	784.424	74.7385	784.424	75.3426	784.424	75.4247	784.424	76.3017	784.424	76.654	784.424	77.443	784.424	77.792	784.424	78.3094	784.424	78.5083	784.424	78.6866
812.256	84.9742	812.256	84.7063	812.256	84.9722	812.256	84.1847	812.256	84.7121	812.256	83.4544	812.256	84.2283	812.256	82.59	812.256	83.5695	812.256	81.6893	812.256	82.7857	812.256	80.8499	812.256	81.9162	812.256	80.1238	812.256	80.9829	812.256	79.4743	812.256	79.9862	812.256	78.7808	812.256	78.9013	812.256	77.8918	812.256	77.688	812.256	76.7092	812.256	76.363	812.256	75.3506	812.256	75.2026	812.256	74.4402	812.256	74.8975	812.256	74.8181	812.256	75.808	812.256	76.2005	812.256	77.2494	812.256	77.6613	812.256	78.4689	812.256	78.7223	812.256	79.1554	812.256	79.2367
840.82	85.284	840.82	85.0289	840.82	85.2457	840.82	84.493	840.82	84.924	840.82	83.7179	840.82	84.3485	840.82	82.7808	840.82	83.5687	840.82	81.7937	840.82	82.6547	840.82	80.8784	840.82	81.6878	840.82	80.1113	840.82	80.7289	840.82	79.4696	840.82	79.7764	840.82	78.8372	840.82	78.7542	840.82	78.0643	840.82	77.5466	840.82	77.029	840.82	76.0736	840.82	75.6967	840.82	74.4815	840.82	74.2948	840.82	73.5266	840.82	73.642	840.82	74.1245	840.82	74.4846	840.82	75.6802	840.82	76.0658	840.82	77.0932	840.82	77.3666	840.82	77.9065	840.82	78.0042
870.85	85.1219	870.85	84.8723	870.85	85.0641	870.85	84.3277	870.85	84.7104	870.85	83.5256	870.85	84.0947	870.85	82.532	870.85	83.2707	870.85	81.4445	870.85	82.3068	870.85	80.3867	870.85	81.2789	870.85	79.4793	870.85	80.2621	870.85	78.7808	870.85	79.3037	870.85	78.2359	870.85	78.3774	870.85	77.6775	870.85	77.3662	870.85	76.887	870.85	76.1332	870.85	75.7115	870.85	74.7124	870.85	74.3353	870.85	73.6626	870.85	73.7227	870.85	73.9542	870.85	74.7097	870.85	75.4036	870.85	76.3459	870.85	76.9095	870.85	77.5881	870.85	77.8708	870.85	78.1108
901.611	84.3041	901.611	84.031	901.611	84.2623	901.611	83.4495	901.611	83.9201	901.611	82.596	901.611	83.3099	901.611	81.5486	901.611	82.4846	901.611	80.4369	901.611	81.5227	901.611	79.4275	901.611	80.523	901.611	78.6601	901.611	79.5743	901.611	78.1541	901.611	78.7059	901.611	77.7864	901.611	77.8645	901.611	77.3726	901.611	76.9431	901.611	76.7537	901.611	75.8429	901.611	75.8411	901.611	74.6001	901.611	74.735	901.611	73.6929	901.611	74.0279	901.611	74.0356	901.611	74.5608	901.611	75.5228	901.611	76.0007	901.611	77.0375	901.611	77.3292	901.611	77.9284	901.611	78.0228
933.105	84.5276	933.105	84.3452	933.105	84.3279	933.105	83.7825	933.105	83.7721	933.105	82.8706	933.105	82.9095	933.105	81.6721	933.105	81.807	933.105	80.2919	933.105	80.5482	933.105	78.9034	933.105	79.2424	933.105	77.7509	933.105	78.0328	933.105	77.0248	933.105	77.063	933.105	76.669	933.105	76.3641	933.105	76.4164	933.105	75.7562	933.105	76.007	933.105	74.922	933.105	75.3212	933.105	73.6512	933.105	74.4812	933.105	72.361	933.105	74.0385	933.105	72.6	933.105	74.6817	933.105	74.558	933.105	76.102	933.105	76.5205	933.105	77.3734	933.105	77.6957	933.105	77.9648
966.064	84.0968	966.064	83.8986	966.064	83.9149	966.064	83.3218	966.064	83.3804	966.064	82.4014	966.064	82.5399	966.064	81.2063	966.064	81.4499	966.064	79.8455	966.064	80.1777	966.064	78.4844	966.064	78.8243	966.064	77.34	966.064	77.559	966.064	76.577	966.064	76.5843	966.064	76.1426	966.064	75.944	966.064	75.7799	966.064	75.395	966.064	75.2174	966.064	74.5771	966.064	74.3072	966.064	73.2557	966.064	73.1501	966.064	71.7174	966.064	72.3832	966.064	71.5434	966.064	72.9551	966.064	73.4413	966.064	74.5598	966.064	75.4961	966.064	76.0617	966.064	76.6761	966.064	76.8401
999.756	83.492	999.756	83.2605	999.756	83.3751	999.756	82.6972	999.756	82.9056	999.756	81.8282	999.756	82.1019	999.756	80.6993	999.756	81.0148	999.756	79.4032	999.756	79.7318	999.756	78.1125	999.756	78.3752	999.756	77.0651	999.756	77.0907	999.756	76.4184	999.756	76.0238	999.756	76.0731	999.756	75.2677	999.756	75.7398	999.756	74.7499	999.756	75.1483	999.756	74.1544	999.756	74.1544	999.756	73.0512	999.756	72.8311	999.756	71.2463	999.756	71.7957	999.756	69.7893	999.756	72.15	999.756	70.98	999.756	73.6512	999.756	73.37	999.756	75.0028	999.756	74.9996	999.756	75.5247
1034.91	83.0499	1034.91	82.9023	1034.91	82.8492	1034.91	82.382	1034.91	82.3372	1034.91	81.4921	1034.91	81.5475	1034.91	80.272	1034.91	80.501	1034.91	78.8074	1034.91	79.2167	1034.91	77.2696	1034.91	77.7627	1034.91	75.9724	1034.91	76.3445	1034.91	75.2454	1034.91	75.2896	1034.91	75.0628	1034.91	74.7245	1034.91	75.0577	1034.91	74.3596	1034.91	74.8933	1034.91	73.7836	1034.91	74.3507	1034.91	72.707	1034.91	73.3383	1034.91	71.1192	1034.91	72.2613	1034.91	70.1329	1034.91	72.3677	1034.91	71.57	1034.91	73.843	1034.91	73.913	1034.91	75.287	1034.91	75.4608	1034.91	75.9009
1071.53	83.7276	1071.53	83.6123	1071.53	83.4474	1071.53	83.1079	1071.53	82.7934	1071.53	82.2412	1071.53	81.8072	1071.53	81.0414	1071.53	80.5346	1071.53	79.533	1071.53	79.0241	1071.53	77.7642	1071.53	77.3451	1071.53	75.9	1071.53	75.6245	1071.53	74.3621	1071.53	74.1206	1071.53	73.6799	1071.53	73.2206	1071.53	73.7711	1071.53	72.9977	1071.53	73.9052	1071.53	72.885	1071.53	73.4472	1071.53	72.2337	1071.53	72.1835	1071.53	70.9184	1071.53	70.8636	1071.53	70.1763	1071.53	71.5232	1071.53	71.7418	1071.53	73.6733	1071.53	74.0595	1071.53	75.3682	1071.53	75.59	1071.53	76.0308
1109.62	84.3009	1109.62	84.1668	1109.62	84.0597	1109.62	83.6554	1109.62	83.4677	1109.62	82.7923	1109.62	82.5594	1109.62	81.621	1109.62	81.36	1109.62	80.182	1109.62	79.8659	1109.62	78.5168	1109.62	78.0516	1109.62	76.7505	1109.62	75.959	1109.62	75.2327	1109.62	73.958	1109.62	74.4227	1109.62	72.93	1109.62	74.3171	1109.62	73.1743	1109.62	74.3868	1109.62	73.6689	1109.62	74.1088	1109.62	73.4404	1109.62	73.183	1109.62	72.0026	1109.62	71.8185	1109.62	69.8036	1109.62	71.545	1109.62	70.3004	1109.62	73.2485	1109.62	73.2437	1109.62	75.0485	1109.62	75.2449	1109.62	75.8062
1148.44	84.8903	1148.44	84.865	1148.44	84.5575	1148.44	84.4543	1148.44	83.9235	1148.44	83.6735	1148.44	83.0424	1148.44	82.5668	1148.44	81.941	1148.44	81.1868	1148.44	80.6275	1148.44	79.5912	1148.44	79.1096	1148.44	77.8819	1148.44	77.3841	1148.44	76.2912	1148.44	75.4474	1148.44	75.1824	1148.44	73.5394	1148.44	74.693	1148.44	72.4832	1148.44	74.4596	1148.44	72.5925	1148.44	73.9921	1148.44	72.7707	1148.44	73.0204	1148.44	72.1699	1148.44	71.8421	1148.44	71.099	1148.44	72.1118	1148.44	71.7285	1148.44	74.313	1148.44	74.3018	1148.44	76.3031	1148.44	76.3567	1148.44	77.046
1189.45	84.7214	1189.45	84.6672	1189.45	84.3715	1189.45	84.2115	1189.45	83.6665	1189.45	83.3899	1189.45	82.7091	1189.45	82.2491	1189.45	81.6165	1189.45	80.8259	1189.45	80.4404	1189.45	79.1562	1189.45	79.1123	1189.45	77.3685	1189.45	77.5032	1189.45	75.8599	1189.45	75.5952	1189.45	75.1693	1189.45	73.7054	1189.45	75.2146	1189.45	72.4863	1189.45	75.2578	1189.45	72.1065	1189.45	74.6416	1189.45	71.7183	1189.45	72.982	1189.45	70.4218	1189.45	70.558	1189.45	68.8899	1189.45	70.4447	1189.45	70.8062	1189.45	73.4281	1189.45	74.1714	1189.45	75.8252	1189.45	76.2324	1189.45	76.7683
1231.2	84.4801	1231.2	84.4961	1231.2	84.092	1231.2	84.1058	1231.2	83.4081	1231.2	83.3301	1231.2	82.5161	1231.2	82.2293	1231.2	81.477	1231.2	80.8575	1231.2	80.3056	1231.2	79.2273	1231.2	78.992	1231.2	77.3572	1231.2	77.5326	1231.2	75.4466	1231.2	75.9415	1231.2	74.0724	1231.2	74.3507	1231.2	73.7977	1231.2	73.1835	1231.2	74.2017	1231.2	72.6717	1231.2	74.2831	1231.2	72.0695	1231.2	73.2857	1231.2	70.263	1231.2	70.823	1231.2	66.8768	1231.2	68.7511	1231.2	67.8167	1231.2	71.5419	1231.2	72.4906	1231.2	74.6089	1231.2	75.177	1231.2	75.8357
1274.41	84.3705	1274.41	84.3164	1274.41	84.0137	1274.41	83.8429	1274.41	83.3186	1274.41	83.0032	1274.41	82.3985	1274.41	81.8782	1274.41	81.3516	1274.41	80.5003	1274.41	80.2063	1274.41	78.7886	1274.41	78.9133	1274.41	76.6091	1274.41	77.3801	1274.41	74.1095	1274.41	75.5507	1274.41	72.4933	1274.41	73.6664	1274.41	73.0573	1274.41	72.6736	1274.41	74.4447	1274.41	73.0709	1274.41	75.223	1274.41	73.5144	1274.41	74.8215	1274.41	72.6427	1274.41	72.8157	1274.41	69.5681	1274.41	69.5644	1274.41	66.6311	1274.41	70.2818	1274.41	70.9903	1274.41	73.5205	1274.41	74.1855	1274.41	74.9307
1319.82	85.0475	1319.82	84.9462	1319.82	84.7752	1319.82	84.4429	1319.82	84.1944	1319.82	83.5845	1319.82	83.3687	1319.82	82.4773	1319.82	82.3388	1319.82	81.1985	1319.82	81.1152	1319.82	79.7044	1319.82	79.6962	1319.82	77.8345	1319.82	78.1107	1319.82	75.459	1319.82	76.4005	1319.82	72.8705	1319.82	74.5807	1319.82	71.4337	1319.82	73.0572	1319.82	72.0188	1319.82	72.835	1319.82	73.0543	1319.82	73.33	1319.82	73.2206	1319.82	72.7531	1319.82	71.816	1319.82	69.7866	1319.82	68.7924	1319.82	65.8569	1319.82	69.5976	1319.82	70.7272	1319.82	73.4417	1319.82	74.3234	1319.82	75.1109
1365.97	85.5396	1365.97	85.5173	1365.97	85.1735	1365.97	85.081	1365.97	84.5251	1365.97	84.2815	1365.97	83.7153	1365.97	83.1874	1365.97	82.8061	1365.97	81.8397	1365.97	81.7852	1365.97	80.262	1365.97	80.595	1365.97	78.4632	1365.97	79.1534	1365.97	76.3374	1365.97	77.3582	1365.97	73.6576	1365.97	75.1509	1365.97	71.159	1365.97	73.0002	1365.97	71.7007	1365.97	72.6355	1365.97	73.5871	1365.97	73.8409	1365.97	74.2265	1365.97	74.1473	1365.97	73.1119	1365.97	72.2054	1365.97	70.1711	1365.97	67.4693	1365.97	69.0411	1365.97	68.5036	1365.97	72.2432	1365.97	72.7238	1365.97	73.8418
1414.31	85.9859	1414.31	85.8683	1414.31	85.6627	1414.31	85.3928	1414.31	84.891	1414.31	84.6286	1414.31	83.8019	1414.31	83.5917	1414.31	82.6233	1414.31	82.2796	1414.31	81.5022	1414.31	80.7282	1414.31	80.3573	1414.31	79.0182	1414.31	78.9859	1414.31	77.2207	1414.31	77.2784	1414.31	75.3375	1414.31	75.2495	1414.31	73.5378	1414.31	73.3091	1414.31	72.8694	1414.31	73.0844	1414.31	73.8268	1414.31	74.4631	1414.31	74.653	1414.31	75.1406	1414.31	74.0371	1414.31	74.002	1414.31	71.6174	1414.31	70.7366	1414.31	69.5772	1414.31	69.522	1414.31	71.7281	1414.31	72.4581	1414.31	73.3691
1464.11	86.0902	1464.11	85.9665	1464.11	85.7616	1464.11	85.4083	1464.11	85.0397	1464.11	84.4872	1464.11	84.0622	1464.11	83.3086	1464.11	83.0045	1464.11	82.0039	1464.11	81.991	1464.11	80.7032	1464.11	81.0116	1464.11	79.4329	1464.11	79.9184	1464.11	78.0688	1464.11	78.4865	1464.11	76.4025	1464.11	76.4763	1464.11	74.2815	1464.11	73.7842	1464.11	72.4158	1464.11	71.5244	1464.11	72.6233	1464.11	72.3386	1464.11	73.7502	1464.11	73.8993	1464.11	73.7213	1464.11	73.5571	1464.11	71.9857	1464.11	71.2603	1464.11	70.676	1464.11	71.7729	1464.11	73.1471	1464.11	74.5479	1464.11	75.078
1515.38	86.1233	1515.38	85.8708	1515.38	85.8455	1515.38	85.1415	1515.38	85.1269	1515.38	84.0766	1515.38	84.1386	1515.38	82.7812	1515.38	83.0476	1515.38	81.3142	1515.38	81.9914	1515.38	79.7837	1515.38	80.9985	1515.38	78.3011	1515.38	79.84	1515.38	76.7563	1515.38	78.1771	1515.38	74.819	1515.38	75.9454	1515.38	72.746	1515.38	73.3209	1515.38	72.2311	1515.38	70.7916	1515.38	73.1983	1515.38	70.8912	1515.38	74.1165	1515.38	72.9408	1515.38	74.2841	1515.38	73.3174	1515.38	72.8196	1515.38	71.1138	1515.38	70.9399	1515.38	70.9344	1515.38	73.431	1515.38	74.4321	1515.38	75.4144
1568.85	86.1434	1568.85	85.8244	1568.85	85.9764	1568.85	85.0889	1568.85	85.3939	1568.85	84.1164	1568.85	84.5442	1568.85	83.0206	1568.85	83.5903	1568.85	81.789	1568.85	82.6283	1568.85	80.3994	1568.85	81.6201	1568.85	78.8184	1568.85	80.4115	1568.85	77.0135	1568.85	78.837	1568.85	75.1427	1568.85	76.8581	1568.85	73.3121	1568.85	74.6179	1568.85	71.695	1568.85	72.3894	1568.85	71.7474	1568.85	71.1117	1568.85	73.1147	1568.85	71.931	1568.85	73.6037	1568.85	72.5694	1568.85	72.1688	1568.85	71.0285	1568.85	70.1079	1568.85	70.6158	1568.85	72.6942	1568.85	73.8137	1568.85	74.8033
1624.51	86.5654	1624.51	86.2715	1624.51	86.4581	1624.51	85.6687	1624.51	85.9643	1624.51	84.8357	1624.51	85.2053	1624.51	83.7772	1624.51	84.2967	1624.51	82.5034	1624.51	83.2456	1624.51	81.0567	1624.51	82.0093	1624.51	79.4358	1624.51	80.6436	1624.51	77.655	1624.51	79.1751	1624.51	75.8155	1624.51	77.4415	1624.51	73.7878	1624.51	75.4863	1624.51	71.7361	1624.51	73.7725	1624.51	71.6215	1624.51	72.8697	1624.51	73.1011	1624.51	73.2039	1624.51	73.6469	1624.51	73.3972	1624.51	72.4359	1624.51	72.2454	1624.51	70.4483	1624.51	72.187	1624.51	72.2501	1624.51	74.2442	1624.51	74.5546
1681.64	87.1148	1681.64	86.8559	1681.64	86.9732	1681.64	86.2885	1681.64	86.4247	1681.64	85.4443	1681.64	85.6061	1681.64	84.3448	1681.64	84.6419	1681.64	83.0759	1681.64	83.5282	1681.64	81.6306	1681.64	82.2124	1681.64	79.8431	1681.64	80.693	1681.64	77.6855	1681.64	78.929	1681.64	75.4954	1681.64	76.8116	1681.64	73.5563	1681.64	74.6202	1681.64	72.1098	1681.64	73.3714	1681.64	72.3239	1681.64	73.4885	1681.64	73.7787	1681.64	74.0409	1681.64	74.3979	1681.64	73.7801	1681.64	72.9144	1681.64	72.0107	1681.64	69.8993	1681.64	72.0992	1681.64	72.6108	1681.64	74.9666	1681.64	75.4528
1740.97	86.5374	1740.97	86.3269	1740.97	86.3213	1740.97	85.7579	1740.97	85.7582	1740.97	84.9959	1740.97	84.9765	1740.97	84.1089	1740.97	84.0622	1740.97	83.0386	1740.97	83.0407	1740.97	81.7326	1740.97	81.8779	1740.97	80.1599	1740.97	80.5125	1740.97	78.336	1740.97	78.8835	1740.97	76.4776	1740.97	76.797	1740.97	74.6707	1740.97	73.8541	1740.97	72.6775	1740.97	70.8158	1740.97	71.9198	1740.97	71.3648	1740.97	73.1499	1740.97	73.1958	1740.97	74.1021	1740.97	73.2968	1740.97	73.7137	1740.97	70.5125	1740.97	71.2672	1740.97	70.3068	1740.97	71.9818	1740.97	74.6444	1740.97	75.1377
1802.49	85.8363	1802.49	85.6495	1802.49	85.7398	1802.49	85.2761	1802.49	85.3778	1802.49	84.7476	1802.49	84.8161	1802.49	83.952	1802.49	84.0785	1802.49	82.8595	1802.49	83.1194	1802.49	81.5517	1802.49	81.8479	1802.49	79.9811	1802.49	80.4175	1802.49	78.0299	1802.49	79.1258	1802.49	75.8248	1802.49	77.5877	1802.49	73.5612	1802.49	74.9775	1802.49	71.4735	1802.49	71.3851	1802.49	70.9628	1802.49	70.0874	1802.49	72.6214	1802.49	71.5199	1802.49	74.1169	1802.49	72.1076	1802.49	73.9595	1802.49	70.0866	1802.49	72.1156	1802.49	68.8959	1802.49	72.3227	1802.49	73.2068	1802.49	74.2657
1866.21	85.9304	1866.21	85.7404	1866.21	86.0217	1866.21	85.58	1866.21	85.8734	1866.21	85.2824	1866.21	85.4281	1866.21	84.533	1866.21	84.5953	1866.21	83.1741	1866.21	83.383	1866.21	81.4558	1866.21	81.8947	1866.21	79.7587	1866.21	80.2456	1866.21	77.7179	1866.21	78.754	1866.21	75.0439	1866.21	77.539	1866.21	72.7363	1866.21	75.8	1866.21	71.0923	1866.21	72.8004	1866.21	70.1288	1866.21	70.722	1866.21	71.7476	1866.21	71.7499	1866.21	73.8095	1866.21	72.2628	1866.21	73.7188	1866.21	70.7687	1866.21	70.6186	1866.21	68.3198	1866.21	70.7356	1866.21	72.204	1866.21	73.5841
1932.13	86.2017	1932.13	86.1343	1932.13	86.3443	1932.13	86.1098	1932.13	86.3903	1932.13	85.8939	1932.13	86.0973	1932.13	85.2214	1932.13	85.2947	1932.13	83.9181	1932.13	84.0039	1932.13	82.0425	1932.13	82.4479	1932.13	80.1081	1932.13	80.781	1932.13	78.3457	1932.13	79.0966	1932.13	76.0212	1932.13	77.9249	1932.13	73.4202	1932.13	77.0238	1932.13	72.3088	1932.13	74.8631	1932.13	71.5023	1932.13	72.2031	1932.13	71.6234	1932.13	72.772	1932.13	73.0693	1932.13	73.3246	1932.13	73.6298	1932.13	71.9221	1932.13	71.6402	1932.13	70.9362	1932.13	71.0969	1932.13	74.029	1932.13	74.4687
2000.24	85.9984	2000.24	86.1254	2000.24	86.0833	2000.24	86.2205	2000.24	86.2961	2000.24	86.02	2000.24	86.1518	2000.24	85.3372	2000.24	85.313	2000.24	84.1356	2000.24	83.9418	2000.24	82.4389	2000.24	82.4479	2000.24	80.4209	2000.24	80.8572	2000.24	78.5264	2000.24	79.0038	2000.24	77.0061	2000.24	77.403	2000.24	75.41	2000.24	76.2236	2000.24	73.1399	2000.24	73.8805	2000.24	71.5846	2000.24	70.2371	2000.24	72.2895	2000.24	71.9531	2000.24	73.5909	2000.24	73.4728	2000.24	74.296	2000.24	70.9835	2000.24	72.7079	2000.24	68.1345	2000.24	71.4653	2000.24	73.4119	2000.24	74.3203
2070.56	85.9897	2070.56	86.2626	2070.56	86.1962	2070.56	86.6327	2070.56	86.6302	2070.56	86.5178	2070.56	86.6096	2070.56	85.5897	2070.56	85.7551	2070.56	83.9591	2070.56	84.3078	2070.56	81.8885	2070.56	82.7667	2070.56	79.6253	2070.56	81.1466	2070.56	77.7004	2070.56	79.0281	2070.56	76.1471	2070.56	76.7439	2070.56	74.2889	2070.56	75.1243	2070.56	71.7897	2070.56	73.1975	2070.56	70.3903	2070.56	70.8184	2070.56	71.4634	2070.56	70.9833	2070.56	72.5007	2070.56	72.7688	2070.56	72.9931	2070.56	71.6089	2070.56	71.3185	2070.56	66.4311	2070.56	72.0206	2070.56	72.1423	2070.56	74.3524
2143.8	87.1598	2143.8	87.3895	2143.8	87.3963	2143.8	87.7653	2143.8	87.798	2143.8	87.6958	2143.8	87.6817	2143.8	86.7743	2143.8	86.7028	2143.8	85.0284	2143.8	85.1269	2143.8	82.7576	2143.8	83.4359	2143.8	80.3928	2143.8	81.8327	2143.8	78.3882	2143.8	80.1325	2143.8	76.6382	2143.8	77.9519	2143.8	74.6982	2143.8	75.8792	2143.8	72.2614	2143.8	74.2889	2143.8	69.625	2143.8	71.61	2143.8	71.0352	2143.8	71.7304	2143.8	74.0753	2143.8	73.8875	2143.8	74.6383	2143.8	73.3847	2143.8	71.1189	2143.8	67.7948	2143.8	70.0533	2143.8	72.5764	2143.8	74.5806
2219.24	86.6964	2219.24	86.9257	2219.24	87.083	2219.24	87.5601	2219.24	87.4857	2219.24	87.6317	2219.24	87.384	2219.24	86.6849	2219.24	86.3788	2219.24	85.0484	2219.24	84.2866	2219.24	83.0597	2219.24	81.7435	2219.24	80.5799	2219.24	79.6908	2219.24	78.289	2219.24	78.17	2219.24	77.3897	2219.24	76.7775	2219.24	75.6539	2219.24	74.4614	2219.24	72.8515	2219.24	72.4666	2219.24	71.9416	2219.24	70.6811	2219.24	69.4306	2219.24	69.5193	2219.24	71.9955	2219.24	72.7793	2219.24	75.0321	2219.24	72.6672	2219.24	73.7713	2219.24	69.237	2219.24	69.2769	2219.24	72.1985	2219.24	73.2433
2297.61	85.6331	2297.61	86.1015	2297.61	85.8262	2297.61	86.5544	2297.61	86.4197	2297.61	86.4704	2297.61	86.5005	2297.61	85.582	2297.61	85.6064	2297.61	83.8329	2297.61	83.6866	2297.61	81.3186	2297.61	81.0021	2297.61	78.2333	2297.61	78.2658	2297.61	75.2644	2297.61	76.1833	2297.61	73.4693	2297.61	74.2869	2297.61	72.9383	2297.61	71.7556	2297.61	72.0422	2297.61	70.4167	2297.61	71.4103	2297.61	69.4854	2297.61	70.1171	2297.61	68.2685	2297.61	70.3117	2297.61	71.0342	2297.61	73.4052	2297.61	71.5221	2297.61	72.6064	2297.61	67.1195	2297.61	68.2733	2297.61	68.7392	2297.61	70.6814
2378.17	86.6828	2378.17	87.0969	2378.17	86.845	2378.17	87.4031	2378.17	87.3336	2378.17	87.1869	2378.17	87.2433	2378.17	86.2425	2378.17	86.2027	2378.17	84.4324	2378.17	84.3046	2378.17	81.8908	2378.17	81.838	2378.17	78.9565	2378.17	79.2742	2378.17	76.1987	2378.17	77.1063	2378.17	73.7847	2378.17	75.1321	2378.17	72.0936	2378.17	72.6582	2378.17	70.7458	2378.17	70.7563	2378.17	69.8855	2378.17	70.2914	2378.17	69.4798	2378.17	68.788	2378.17	69.4965	2378.17	70.3858	2378.17	72.7608	2378.17	72.0407	2378.17	72.4833	2378.17	68.3573	2378.17	68.1313	2378.17	68.9303	2378.17	70.3716
2462.4	86.7895	2462.4	87.301	2462.4	86.7887	2462.4	87.5813	2462.4	87.2321	2462.4	87.4079	2462.4	87.1106	2462.4	86.6492	2462.4	85.9655	2462.4	85.097	2462.4	83.9065	2462.4	82.8086	2462.4	81.3495	2462.4	80.1118	2462.4	78.9361	2462.4	77.4252	2462.4	77.1002	2462.4	75.025	2462.4	75.5334	2462.4	73.2484	2462.4	72.573	2462.4	71.253	2462.4	69.2335	2462.4	70.6605	2462.4	69.2591	2462.4	70.7267	2462.4	68.1666	2462.4	69.6671	2462.4	70.1707	2462.4	72.1454	2462.4	71.4875	2462.4	72.4162	2462.4	67.3073	2462.4	68.004	2462.4	69.927	2462.4	71.1209
2548.83	85.5985	2548.83	86.0862	2548.83	85.7004	2548.83	86.447	2548.83	86.2775	2548.83	86.2666	2548.83	86.2218	2548.83	85.2302	2548.83	84.9484	2548.83	83.386	2548.83	82.8288	2548.83	81.0812	2548.83	80.5296	2548.83	78.3447	2548.83	78.2967	2548.83	75.9229	2548.83	76.3748	2548.83	74.0081	2548.83	75.2275	2548.83	72.1949	2548.83	73.1888	2548.83	71.1703	2548.83	68.609	2548.83	69.4225	2548.83	68.0598	2548.83	70.8022	2548.83	68.6005	2548.83	71.044	2548.83	68.9045	2548.83	72.7847	2548.83	71.0155	2548.83	72.6646	2548.83	65.7948	2548.83	68.0931	2548.83	67.6816	2548.83	70.2842
2638.92	86.173	2638.92	86.4813	2638.92	86.3189	2638.92	86.7162	2638.92	86.6882	2638.92	86.3726	2638.92	86.4683	2638.92	85.3465	2638.92	85.211	2638.92	83.6273	2638.92	83.2695	2638.92	81.2509	2638.92	80.9626	2638.92	78.2956	2638.92	78.6309	2638.92	75.0588	2638.92	76.7178	2638.92	73.2519	2638.92	75.5556	2638.92	71.9057	2638.92	74.5261	2638.92	70.083	2638.92	71.5881	2638.92	68.7714	2638.92	67.5618	2638.92	68.8668	2638.92	67.2584	2638.92	68.7232	2638.92	69.0209	2638.92	71.78	2638.92	71.5775	2638.92	72.854	2638.92	67.7726	2638.92	68.03	2638.92	66.3489	2638.92	69.9155
2731.93	86.327	2731.93	86.6355	2731.93	86.5507	2731.93	87.0328	2731.93	86.887	2731.93	86.809	2731.93	86.5842	2731.93	85.8484	2731.93	85.2688	2731.93	84.2819	2731.93	83.4115	2731.93	82.1724	2731.93	81.1875	2731.93	79.4044	2731.93	78.7846	2731.93	76.169	2731.93	76.4484	2731.93	73.4579	2731.93	74.446	2731.93	72.8862	2731.93	73.5844	2731.93	71.4798	2731.93	71.4826	2731.93	68.181	2731.93	69.3738	2731.93	68.7477	2731.93	67.9294	2731.93	69.2145	2731.93	68.1738	2731.93	70.516	2731.93	71.4873	2731.93	72.3025	2731.93	67.7183	2731.93	67.5715	2731.93	66.438	2731.93	69.885
2828.61	86.7877	2828.61	87.057	2828.61	86.9228	2828.61	87.3214	2828.61	87.0774	2828.61	86.8558	2828.61	86.6651	2828.61	85.6548	2828.61	85.3209	2828.61	84.0042	2828.61	83.3645	2828.61	82.0706	2828.61	80.9443	2828.61	79.6967	2828.61	78.5432	2828.61	76.2318	2828.61	76.376	2828.61	72.3702	2828.61	73.9845	2828.61	71.2449	2828.61	72.9753	2828.61	71.7079	2828.61	71.1573	2828.61	70.9857	2828.61	68.3553	2828.61	69.8373	2828.61	68.4166	2828.61	69.7772	2828.61	66.9555	2828.61	71.2635	2828.61	71.2577	2828.61	72.9843	2828.61	69.2195	2828.61	68.0954	2828.61	65.4404	2828.61	70.3882
2928.22	86.8001	2928.22	86.9187	2928.22	87.0367	2928.22	87.0846	2928.22	87.1398	2928.22	86.7377	2928.22	86.4528	2928.22	85.6609	2928.22	85.0684	2928.22	83.9564	2928.22	83.3941	2928.22	82.0547	2928.22	81.1199	2928.22	80.1846	2928.22	78.7112	2928.22	77.6355	2928.22	76.7408	2928.22	74.019	2928.22	74.6459	2928.22	71.2068	2928.22	73.0228	2928.22	70.797	2928.22	71.5763	2928.22	68.2166	2928.22	67.5337	2928.22	70.3723	2928.22	68.6168	2928.22	70.5156	2928.22	67.8525	2928.22	70.0777	2928.22	71.0788	2928.22	71.9127	2928.22	69.3606	2928.22	66.1572	2928.22	64.3706	2928.22	69.4713
3031.49	86.848	3031.49	86.7247	3031.49	86.9394	3031.49	86.7976	3031.49	86.8518	3031.49	86.3907	3031.49	86.1912	3031.49	85.3368	3031.49	84.9304	3031.49	83.9057	3031.49	83.2728	3031.49	81.7482	3031.49	81.0013	3031.49	79.6615	3031.49	78.622	3031.49	77.6292	3031.49	76.564	3031.49	74.2682	3031.49	74.284	3031.49	71.2019	3031.49	72.7336	3031.49	70.7	3031.49	71.4955	3031.49	68.8713	3031.49	67.9842	3031.49	68.3893	3031.49	66.0184	3031.49	70.4716	3031.49	67.7164	3031.49	69.3856	3031.49	70.2393	3031.49	71.4219	3031.49	69.7655	3031.49	66.7227	3031.49	62.8183	3031.49	68.2217
3138.43	86.6759	3138.43	86.3737	3138.43	86.4955	3138.43	86.1756	3138.43	86.1293	3138.43	85.7636	3138.43	85.7279	3138.43	85.0574	3138.43	84.7643	3138.43	83.8375	3138.43	83.5242	3138.43	81.7298	3138.43	81.6172	3138.43	79.2876	3138.43	79.1975	3138.43	77.0016	3138.43	76.7513	3138.43	74.3822	3138.43	74.373	3138.43	69.9107	3138.43	72.487	3138.43	70.4462	3138.43	71.567	3138.43	68.9055	3138.43	69.0834	3138.43	67.2927	3138.43	67.1108	3138.43	70.4128	3138.43	67.3791	3138.43	69.4303	3138.43	69.8223	3138.43	70.9375	3138.43	69.2353	3138.43	65.695	3138.43	60.0614	3138.43	68.7238
3249.02	86.6036	3249.02	86.2407	3249.02	86.3021	3249.02	85.7564	3249.02	85.5994	3249.02	85.1115	3249.02	84.9409	3249.02	84.5908	3249.02	84.2529	3249.02	83.6355	3249.02	83.2952	3249.02	81.6757	3249.02	81.4971	3249.02	79.1303	3249.02	79.253	3249.02	76.2525	3249.02	76.8483	3249.02	73.5534	3249.02	74.0887	3249.02	69.3753	3249.02	72.1138	3249.02	68.5648	3249.02	70.852	3249.02	69.6577	3249.02	69.0501	3249.02	64.4502	3249.02	67.0203	3249.02	69.3295	3249.02	68.2124	3249.02	69.7672	3249.02	68.8809	3249.02	71.2665	3249.02	69.7632	3249.02	65.0932	3249.02	56.3777	3249.02	66.9327
3363.28	86.8158	3363.28	86.2154	3363.28	86.3947	3363.28	85.5423	3363.28	85.3477	3363.28	84.8083	3363.28	84.3814	3363.28	84.1908	3363.28	83.8545	3363.28	83.1316	3363.28	82.9976	3363.28	81.3759	3363.28	80.9598	3363.28	79.2405	3363.28	78.2075	3363.28	76.1218	3363.28	75.5539	3363.28	73.366	3363.28	73.684	3363.28	69.9413	3363.28	70.7078	3363.28	67.3272	3363.28	69.4928	3363.28	68.8923	3363.28	67.8225	3363.28	64.8166	3363.28	65.2251	3363.28	67.6486	3363.28	66.8536	3363.28	69.0397	3363.28	67.3611	3363.28	69.5329	3363.28	69.0984	3363.28	65.4167	3363.28	53.2727	3363.28	65.4619
3481.93	86.9929	3481.93	86.1806	3481.93	86.2706	3481.93	85.1464	3481.93	85.2541	3481.93	84.9525	3481.93	84.6891	3481.93	84.5155	3481.93	84.2833	3481.93	83.31	3481.93	83.3902	3481.93	81.1352	3481.93	81.4673	3481.93	78.8645	3481.93	78.7145	3481.93	75.8594	3481.93	75.7654	3481.93	72.6453	3481.93	73.6806	3481.93	70.1985	3481.93	71.4869	3481.93	64.8823	3481.93	69.2425	3481.93	68.7729	3481.93	69.2607	3481.93	66.77	3481.93	64.7666	3481.93	67.1332	3481.93	67.6956	3481.93	70.4144	3481.93	67.965	3481.93	70.4182	3481.93	69.5729	3481.93	66.4197	3481.93	47.8916	3481.93	64.9536
3604.98	86.578	3604.98	85.6962	3604.98	85.5854	3604.98	84.2791	3604.98	83.8832	3604.98	84.0979	3604.98	83.2877	3604.98	84.1021	3604.98	83.2273	3604.98	82.8013	3604.98	82.1837	3604.98	80.2461	3604.98	80.2665	3604.98	77.8526	3604.98	77.635	3604.98	75.5169	3604.98	74.3861	3604.98	72.2964	3604.98	71.8077	3604.98	70.0332	3604.98	69.6248	3604.98	66.7926	3604.98	65.7346	3604.98	67.6301	3604.98	67.3786	3604.98	67.9057	3604.98	63.3548	3604.98	66.5243	3604.98	66.6029	3604.98	69.3646	3604.98	66.5191	3604.98	69.272	3604.98	68.1925	3604.98	65.4183	3604.98	47.5357	3604.98	64.0859
3732.42	87.098	3732.42	86.2112	3732.42	86.2783	3732.42	84.4518	3732.42	84.8026	3732.42	83.9025	3732.42	84.0948	3732.42	84.0336	3732.42	83.7833	3732.42	82.5722	3732.42	82.4399	3732.42	79.7768	3732.42	80.1188	3732.42	76.6435	3732.42	77.6892	3732.42	74.2885	3732.42	75.2795	3732.42	71.2252	3732.42	72.9615	3732.42	66.4818	3732.42	70.9798	3732.42	63.9574	3732.42	67.2363	3732.42	65.5798	3732.42	67.0794	3732.42	68.4145	3732.42	64.3829	3732.42	66.0193	3732.42	65.8443	3732.42	69.2175	3732.42	65.4154	3732.42	66.4522	3732.42	67.9012	3732.42	63.0697	3732.42	39.7697	3732.42	64.5609
3863.53	86.8158	3863.53	86.0266	3863.53	85.8897	3863.53	84.2139	3863.53	84.1954	3863.53	83.7772	3863.53	83.5417	3863.53	84.0527	3863.53	83.5583	3863.53	82.5826	3863.53	81.9686	3863.53	79.6477	3863.53	79.5971	3863.53	76.644	3863.53	76.8312	3863.53	74.2387	3863.53	73.7644	3863.53	72.03	3863.53	71.2968	3863.53	68.951	3863.53	70.2862	3863.53	64.9932	3863.53	67.788	3863.53	63.1015	3863.53	64.4403	3863.53	66.5204	3863.53	64.0664	3863.53	64.3876	3863.53	64.5806	3863.53	70.1632	3863.53	65.5716	3863.53	67.3784	3863.53	67.9956	3863.53	63.3097	3863.53	42.5461	3863.53	61.2098
3999.76	87.1345	3999.76	86.2342	3999.76	86.1273	3999.76	84.7534	3999.76	84.3309	3999.76	84.237	3999.76	83.9062	3999.76	83.7352	3999.76	83.4308	3999.76	82.3067	3999.76	81.7326	3999.76	79.4655	3999.76	79.807	3999.76	76.1616	3999.76	76.3083	3999.76	73.4225	3999.76	74.1892	3999.76	70.4806	3999.76	72.4318	3999.76	68.4161	3999.76	69.0777	3999.76	65.1262	3999.76	67.4239	3999.76	59.7329	3999.76	64.4945	3999.76	66.1874	3999.76	64.3715	3999.76	63.3273	3999.76	63.1467	3999.76	68.4344	3999.76	65.0555	3999.76	67.5062	3999.76	67.6335	3999.76	62.9686	3999.76	47.2318	3999.76	60.3477
4141.11	87.1075	4141.11	86.2284	4141.11	86.1669	4141.11	84.7627	4141.11	84.237	4141.11	84.1241	4141.11	83.6717	4141.11	83.3923	4141.11	83.0808	4141.11	81.6114	4141.11	81.401	4141.11	79.4355	4141.11	79.2002	4141.11	76.729	4141.11	76.4847	4141.11	73.8252	4141.11	74.0617	4141.11	71.3558	4141.11	72.3391	4141.11	69.4182	4141.11	70.6994	4141.11	65.9663	4141.11	68.9265	4141.11	62.889	4141.11	63.6951	4141.11	62.5472	4141.11	64.2394	4141.11	64.3063	4141.11	63.3736	4141.11	66.1616	4141.11	64.3684	4141.11	67.4685	4141.11	66.455	4141.11	65.5538	4141.11	42.3092	4141.11	64.1286
4286.87	86.9548	4286.87	86.2861	4286.87	86.2027	4286.87	85.1291	4286.87	84.618	4286.87	84.2173	4286.87	83.7098	4286.87	83.0428	4286.87	82.9792	4286.87	81.2449	4286.87	81.3702	4286.87	79.4195	4286.87	79.7327	4286.87	76.4683	4286.87	77.1843	4286.87	73.447	4286.87	73.8024	4286.87	71.3389	4286.87	71.8113	4286.87	69.4548	4286.87	70.6293	4286.87	65.4324	4286.87	69.4309	4286.87	64.3956	4286.87	67.0729	4286.87	61.917	4286.87	61.3329	4286.87	65.3885	4286.87	64.9146	4286.87	67.3177	4286.87	65.9342	4286.87	66.2511	4286.87	66.976	4286.87	63.9607	4286.87	54.969	4286.87	65.7577
4438.48	87.1225	4438.48	86.6057	4438.48	86.7128	4438.48	85.2705	4438.48	85.3602	4438.48	84.1076	4438.48	84.0171	4438.48	83.1234	4438.48	82.8442	4438.48	81.5986	4438.48	81.2308	4438.48	79.7385	4438.48	80.0822	4438.48	76.6161	4438.48	78.2784	4438.48	73.432	4438.48	74.5365	4438.48	69.5261	4438.48	71.9504	4438.48	67.2374	4438.48	69.9126	4438.48	64.3196	4438.48	69.2257	4438.48	61.6781	4438.48	66.9089	4438.48	63.8613	4438.48	66.3625	4438.48	64.9315	4438.48	62.1499	4438.48	68.5565	4438.48	66.5617	4438.48	67.2521	4438.48	66.6246	4438.48	59.1743	4438.48	54.7008	4438.48	64.702
4594.48	87.07	4594.48	87.0725	4594.48	86.8063	4594.48	85.751	4594.48	85.3953	4594.48	84.3007	4594.48	83.7633	4594.48	83.1183	4594.48	82.6883	4594.48	81.7007	4594.48	81.8226	4594.48	80.0259	4594.48	80.4488	4594.48	77.6043	4594.48	77.8803	4594.48	73.9438	4594.48	74.4586	4594.48	70.0109	4594.48	70.8598	4594.48	67.0616	4594.48	70.066	4594.48	65.9425	4594.48	68.5521	4594.48	61.2578	4594.48	65.4328	4594.48	62.8268	4594.48	66.033	4594.48	65.277	4594.48	60.1731	4594.48	65.1724	4594.48	65.4229	4594.48	68.107	4594.48	66.7759	4594.48	62.2656	4594.48	46.713	4594.48	61.5995
4757.08	87.1052	4757.08	87.2927	4757.08	87.033	4757.08	86.4618	4757.08	85.955	4757.08	84.5818	4757.08	83.991	4757.08	83.3924	4757.08	83.2301	4757.08	82.154	4757.08	82.5863	4757.08	80.122	4757.08	80.5033	4757.08	76.9077	4757.08	77.6323	4757.08	73.4264	4757.08	74.5301	4757.08	70.0862	4757.08	70.6318	4757.08	66.8204	4757.08	69.3045	4757.08	65.0973	4757.08	67.8498	4757.08	60.3234	4757.08	66.2246	4757.08	58.0837	4757.08	57.9582	4757.08	67.6865	4757.08	63.4318	4757.08	60.8537	4757.08	65.4437	4757.08	67.6062	4757.08	62.8109	4757.08	63.8308	4757.08	51.5108	4757.08	61.4004
4924.8	86.9339	4924.8	87.1844	4924.8	86.9631	4924.8	86.4327	4924.8	85.7564	4924.8	84.3535	4924.8	83.799	4924.8	82.7733	4924.8	82.9487	4924.8	81.9597	4924.8	82.2083	4924.8	79.8056	4924.8	80.4135	4924.8	76.5884	4924.8	77.4213	4924.8	72.6783	4924.8	73.1292	4924.8	69.2257	4924.8	69.7674	4924.8	65.7934	4924.8	68.0467	4924.8	65.8684	4924.8	67.6289	4924.8	60.2628	4924.8	66.4822	4924.8	59.7141	4924.8	61.3082	4924.8	67.0092	4924.8	62.3398	4924.8	64.3786	4924.8	66.6944	4924.8	63.3214	4924.8	61.4058	4924.8	65.3441	4924.8	54.3542	4924.8	63.1881
5098.39	87.0647	5098.39	87.5303	5098.39	87.2822	5098.39	86.5484	5098.39	86.4232	5098.39	84.5262	5098.39	84.0501	5098.39	83.1181	5098.39	82.7915	5098.39	81.6737	5098.39	82.2068	5098.39	79.6216	5098.39	79.7212	5098.39	76.6412	5098.39	76.695	5098.39	73.4911	5098.39	73.6787	5098.39	70.9667	5098.39	70.2455	5098.39	65.9838	5098.39	67.6248	5098.39	64.3061	5098.39	65.014	5098.39	60.1175	5098.39	64.1524	5098.39	61.7206	5098.39	58.4961	5098.39	63.812	5098.39	61.3019	5098.39	65.9272	5098.39	65.4726	5098.39	67.3935	5098.39	61.4262	5098.39	57.2025	5098.39	54.0336	5098.39	63.626
5277.83	87.1117	5277.83	87.6255	5277.83	87.1725	5277.83	86.6615	5277.83	86.3108	5277.83	84.4471	5277.83	84.0346	5277.83	83.3382	5277.83	83.3114	5277.83	82.0284	5277.83	82.39	5277.83	79.5234	5277.83	79.6601	5277.83	76.1859	5277.83	77.9435	5277.83	73.1484	5277.83	74.7459	5277.83	70.446	5277.83	70.4151	5277.83	68.7167	5277.83	69.3223	5277.83	64.1033	5277.83	70.1433	5277.83	61.8718	5277.83	65.3287	5277.83	59.3995	5277.83	61.4605	5277.83	65.4906	5277.83	63.4644	5277.83	64.1761	5277.83	65.612	5277.83	69.6772	5277.83	61.7762	5277.83	58.109	5277.83	54.5775	5277.83	61.8664
5463.87	87.1225	5463.87	87.59	5463.87	87.4717	5463.87	87.0164	5463.87	86.3499	5463.87	84.8112	5463.87	84.2491	5463.87	83.0057	5463.87	83.1183	5463.87	81.3972	5463.87	81.708	5463.87	79.5117	5463.87	79.2491	5463.87	77.7136	5463.87	76.9202	5463.87	74.0927	5463.87	74.8124	5463.87	71.2999	5463.87	71.7342	5463.87	68.6337	5463.87	68.4006	5463.87	64.19	5463.87	67.6345	5463.87	63.1068	5463.87	66.258	5463.87	61.5949	5463.87	63.4095	5463.87	62.0321	5463.87	63.4781	5463.87	64.168	5463.87	64.6182	5463.87	67.7247	5463.87	60.688	5463.87	62.3105	5463.87	53.8043	5463.87	62.7766
5656.49	86.731	5656.49	87.2925	5656.49	86.913	5656.49	86.6334	5656.49	86.124	5656.49	84.068	5656.49	84.1259	5656.49	81.97	5656.49	82.2889	5656.49	79.9959	5656.49	81.421	5656.49	79.4474	5656.49	79.8451	5656.49	77.9558	5656.49	78.2705	5656.49	74.8931	5656.49	75.4217	5656.49	71.3474	5656.49	71.3512	5656.49	68.9124	5656.49	68.9013	5656.49	63.9305	5656.49	67.5131	5656.49	63.032	5656.49	63.6996	5656.49	45.3656	5656.49	62.7695	5656.49	61.2187	5656.49	64.7305	5656.49	62.2026	5656.49	64.922	5656.49	66.5371	5656.49	58.2543	5656.49	62.7709	5656.49	53.6914	5656.49	61.7877
5856.45	87.2731	5856.45	87.5295	5856.45	87.1281	5856.45	86.971	5856.45	86.4286	5856.45	84.7645	5856.45	84.4739	5856.45	81.8886	5856.45	82.285	5856.45	80.735	5856.45	81.13	5856.45	80.0448	5856.45	80.2868	5856.45	78.1279	5856.45	78.3734	5856.45	75.4445	5856.45	75.772	5856.45	72.544	5856.45	72.1545	5856.45	67.5743	5856.45	69.8252	5856.45	63.7304	5856.45	67.0829	5856.45	63.3793	5856.45	62.4216	5856.45	59.1865	5856.45	61.383	5856.45	63.704	5856.45	61.9237	5856.45	63.9331	5856.45	62.3765	5856.45	66.2518	5856.45	58.6834	5856.45	59.0073	5856.45	44.4145	5856.45	61.7873
6062.99	87.8503	6062.99	87.3685	6062.99	87.2026	6062.99	86.6689	6062.99	86.5816	6062.99	84.4569	6062.99	84.5014	6062.99	80.967	6062.99	81.5541	6062.99	80.5572	6062.99	80.8231	6062.99	80.5071	6062.99	80.0161	6062.99	78.4268	6062.99	78.136	6062.99	74.37	6062.99	75.5917	6062.99	71.3197	6062.99	71.6118	6062.99	68.8576	6062.99	67.5496	6062.99	63.7608	6062.99	68.5735	6062.99	61.399	6062.99	64.8964	6062.99	57.8023	6062.99	62.1163	6062.99	62.9079	6062.99	62.8734	6062.99	65.4461	6062.99	59.8199	6062.99	65.7473	6062.99	58.1578	6062.99	60.7313	6062.99	45.2596	6062.99	62.5495
6276.86	88.2125	6276.86	87.3018	6276.86	87.362	6276.86	86.6971	6276.86	86.6507	6276.86	83.8818	6276.86	84.2688	6276.86	80.4541	6276.86	80.7171	6276.86	80.8102	6276.86	80.8826	6276.86	80.3724	6276.86	79.8793	6276.86	78.1121	6276.86	77.6344	6276.86	73.7449	6276.86	74.4539	6276.86	70.6359	6276.86	72.2754	6276.86	68.351	6276.86	70.1138	6276.86	62.4942	6276.86	63.2132	6276.86	58.388	6276.86	62.1345	6276.86	44.9048	6276.86	61.9329	6276.86	59.6527	6276.86	61.446	6276.86	61.4784	6276.86	62.798	6276.86	65.4731	6276.86	59.462	6276.86	56.8866	6276.86	48.2179	6276.86	62.6725
6498.05	88.8497	6498.05	87.5434	6498.05	87.8779	6498.05	86.7226	6498.05	87.1295	6498.05	83.7393	6498.05	84.3647	6498.05	81.1238	6498.05	81.3379	6498.05	81.2179	6498.05	81.2627	6498.05	80.3319	6498.05	80.2492	6498.05	77.6802	6498.05	77.7933	6498.05	74.548	6498.05	75.0861	6498.05	70.6812	6498.05	71.2858	6498.05	66.1154	6498.05	67.5471	6498.05	65.3168	6498.05	65.9927	6498.05	56.7421	6498.05	62.8143	6498.05	56.977	6498.05	62.2584	6498.05	55.709	6498.05	55.1165	6498.05	57.5343	6498.05	59.7931	6498.05	64.6139	6498.05	56.3518	6498.05	56.8846	6498.05	49.9188	6498.05	59.6446
6727.29	89.1673	6727.29	87.7002	6727.29	88.1233	6727.29	86.3827	6727.29	87.2338	6727.29	83.693	6727.29	84.2349	6727.29	82.3622	6727.29	81.8909	6727.29	81.9674	6727.29	80.8754	6727.29	80.4868	6727.29	78.8911	6727.29	77.6514	6727.29	77.0098	6727.29	73.8797	6727.29	74.6568	6727.29	70.3555	6727.29	72.0792	6727.29	69.2134	6727.29	68.0576	6727.29	65.7423	6727.29	64.5107	6727.29	60.0912	6727.29	63.1089	6727.29	55.1933	6727.29	59.7449	6727.29	55.5392	6727.29	49.5368	6727.29	62.1725	6727.29	60.0216	6727.29	62.8498	6727.29	59.1004	6727.29	56.9766	6727.29	52.0308	6727.29	59.9114
6964.6	89.8403	6964.6	88.0151	6964.6	89.0466	6964.6	86.6672	6964.6	87.5413	6964.6	84.4413	6964.6	84.68	6964.6	83.3991	6964.6	82.6152	6964.6	82.1158	6964.6	81.2732	6964.6	80.9544	6964.6	79.8645	6964.6	77.6768	6964.6	77.0008	6964.6	73.7405	6964.6	73.3026	6964.6	71.2995	6964.6	71.4487	6964.6	66.9291	6964.6	68.1688	6964.6	63.4456	6964.6	64.4296	6964.6	57.8005	6964.6	62.2855	6964.6	54.7725	6964.6	60.5165	6964.6	54.8872	6964.6	55.4875	6964.6	60.6442	6964.6	59.6788	6964.6	62.1441	6964.6	59.9788	6964.6	53.9087	6964.6	50.5306	6964.6	58.1474
7209.96	90.2097	7209.96	88.4865	7209.96	89.4953	7209.96	86.8856	7209.96	88.0384	7209.96	85.393	7209.96	85.0483	7209.96	84.2576	7209.96	83.132	7209.96	82.4679	7209.96	81.4404	7209.96	80.5981	7209.96	79.8859	7209.96	77.0782	7209.96	77.0974	7209.96	73.4263	7209.96	73.2606	7209.96	69.3419	7209.96	70.7207	7209.96	65.224	7209.96	66.3094	7209.96	62.7397	7209.96	63.6073	7209.96	56.8849	7209.96	61.2472	7209.96	56.8037	7209.96	57.365	7209.96	41.0013	7209.96	51.4772	7209.96	60.153	7209.96	57.5205	7209.96	62.5904	7209.96	58.5779	7209.96	53.2076	7209.96	47.8998	7209.96	56.1734
7464.11	90.337	7464.11	88.51	7464.11	89.7955	7464.11	86.9071	7464.11	87.9712	7464.11	86.0399	7464.11	85.3647	7464.11	84.5482	7464.11	83.5722	7464.11	82.2054	7464.11	81.678	7464.11	80.0611	7464.11	79.5535	7464.11	76.3836	7464.11	75.8938	7464.11	72.784	7464.11	72.9413	7464.11	70.0783	7464.11	70.3491	7464.11	66.4065	7464.11	65.5961	7464.11	61.8565	7464.11	61.7451	7464.11	57.1092	7464.11	61.4072	7464.11	57.2773	7464.11	57.5221	7464.11	46.5231	7464.11	49.749	7464.11	58.6452	7464.11	54.6331	7464.11	61.6015	7464.11	57.7098	7464.11	49.2379	7464.11	49.969	7464.11	57.1511
7727.78	90.4262	7727.78	88.5312	7727.78	90.0134	7727.78	87.1694	7727.78	87.8673	7727.78	86.4769	7727.78	85.8696	7727.78	84.3586	7727.78	84.1926	7727.78	81.7053	7727.78	82.4522	7727.78	79.2631	7727.78	80.1456	7727.78	76.8224	7727.78	76.4303	7727.78	73.5192	7727.78	71.8291	7727.78	71.2545	7727.78	71.0797	7727.78	68.6022	7727.78	67.5491	7727.78	63.9336	7727.78	62.9667	7727.78	62.9179	7727.78	60.0375	7727.78	59.8624	7727.78	60.7519	7727.78	48.4937	7727.78	55.5961	7727.78	59.441	7727.78	58.7224	7727.78	61.1284	7727.78	58.8475	7727.78	54.5214	7727.78	54.3974	7727.78	57.6756
8000.24	90.0478	8000.24	88.2898	8000.24	89.6315	8000.24	87.0603	8000.24	87.6853	8000.24	86.3264	8000.24	86.3573	8000.24	83.5785	8000.24	84.4526	8000.24	81.2285	8000.24	82.3306	8000.24	79.9571	8000.24	79.0834	8000.24	78.3787	8000.24	76.5819	8000.24	75.4321	8000.24	73.4889	8000.24	73.3539	8000.24	72.0823	8000.24	69.3999	8000.24	67.6972	8000.24	64.9969	8000.24	64.6564	8000.24	61.3706	8000.24	64.2568	8000.24	60.1768	8000.24	57.1326	8000.24	53.3547	8000.24	49.5048	8000.24	59.2355	8000.24	54.2629	8000.24	61.5588	8000.24	55.2991	8000.24	53.0449	8000.24	51.3215	8000.24	58.4182
8282.23	89.5434	8282.23	88.635	8282.23	88.8438	8282.23	87.2306	8282.23	86.7793	8282.23	85.4845	8282.23	85.8076	8282.23	82.5071	8282.23	84.171	8282.23	80.3851	8282.23	81.325	8282.23	79.4731	8282.23	78.6503	8282.23	78.0558	8282.23	76.4621	8282.23	73.9173	8282.23	72.7477	8282.23	71.1522	8282.23	70.0302	8282.23	66.9436	8282.23	65.813	8282.23	62.5877	8282.23	61.3514	8282.23	62.2054	8282.23	60.1353	8282.23	58.0459	8282.23	57.8261	8282.23	45.4752	8282.23	49.792	8282.23	55.7898	8282.23	56.6654	8282.23	57.7028	8282.23	58.8526	8282.23	28.4472	8282.23	51.7363	8282.23	57.8879
8574.46	89.5598	8574.46	88.8028	8574.46	88.4639	8574.46	87.2583	8574.46	86.5338	8574.46	85.1612	8574.46	85.5691	8574.46	82.5895	8574.46	83.5231	8574.46	80.1662	8574.46	80.1618	8574.46	79.2681	8574.46	77.7339	8574.46	76.3656	8574.46	74.9318	8574.46	72.4152	8574.46	70.4154	8574.46	69.1381	8574.46	67.2016	8574.46	65.074	8574.46	64.4926	8574.46	61.8099	8574.46	59.7442	8574.46	57.4691	8574.46	59.8875	8574.46	57.4396	8574.46	52.3728	8574.46	47.2528	8574.46	42.8482	8574.46	51.529	8574.46	56.2238	8574.46	52.7782	8574.46	55.2826	8574.46	36.1271	8574.46	52.0372	8574.46	53.5529
8876.22	89.304	8876.22	88.8855	8876.22	88.0199	8876.22	87.4143	8876.22	86.6623	8876.22	85.1674	8876.22	85.8945	8876.22	82.6186	8876.22	83.4938	8876.22	80.0711	8876.22	79.8497	8876.22	79.124	8876.22	78.4953	8876.22	75.3914	8876.22	74.9262	8876.22	71.3935	8876.22	71.3229	8876.22	68.7489	8876.22	67.3022	8876.22	64.271	8876.22	62.9186	8876.22	60.8435	8876.22	59.3074	8876.22	58.8813	8876.22	60.3628	8876.22	51.4175	8876.22	47.1628	8876.22	47.3268	8876.22	42.6268	8876.22	49.6921	8876.22	52.1311	8876.22	55.2554	8876.22	55.0886	8876.22	47.6454	8876.22	42.5817	8876.22	51.2295
9189.7	88.7958	9189.7	88.5118	9189.7	87.8307	9189.7	87.1891	9189.7	87.1418	9189.7	85.3759	9189.7	86.119	9189.7	83.0157	9189.7	83.2881	9189.7	80.6897	9189.7	81.1099	9189.7	79.3901	9189.7	80.2712	9189.7	74.9456	9189.7	76.5205	9189.7	72.4153	9189.7	72.672	9189.7	69.3154	9189.7	68.2938	9189.7	64.4555	9189.7	65.371	9189.7	61.0276	9189.7	60.3347	9189.7	57.1305	9189.7	60.8014	9189.7	55.7263	9189.7	54.135	9189.7	47.6835	9189.7	45.6088	9189.7	48.5792	9189.7	55.4868	9189.7	52.1958	9189.7	57.2219	9189.7	48.7104	9189.7	47.0981	9189.7	50.8709
9513.43	88.4208	9513.43	88.0826	9513.43	87.7388	9513.43	87.0033	9513.43	87.0281	9513.43	85.701	9513.43	85.9613	9513.43	83.3824	9513.43	83.5684	9513.43	81.4503	9513.43	82.0501	9513.43	79.4998	9513.43	80.432	9513.43	75.9	9513.43	76.6204	9513.43	72.3506	9513.43	72.5515	9513.43	68.4877	9513.43	67.7176	9513.43	64.6172	9513.43	64.6635	9513.43	61.5904	9513.43	61.3542	9513.43	59.9157	9513.43	60.4844	9513.43	55.0046	9513.43	39.7691	9513.43	49.631	9513.43	50.1251	9513.43	30.8236	9513.43	56.2539	9513.43	50.5283	9513.43	55.3044	9513.43	43.3411	9513.43	45.3964	9513.43	49.7965
9848.88	87.7137	9848.88	87.1708	9848.88	87.497	9848.88	86.5438	9848.88	86.9401	9848.88	85.5935	9848.88	85.6803	9848.88	83.5574	9848.88	83.3632	9848.88	81.5359	9848.88	81.8998	9848.88	79.4827	9848.88	80.1044	9848.88	75.6751	9848.88	76.3116	9848.88	72.0748	9848.88	71.9013	9848.88	66.7294	9848.88	66.7694	9848.88	62.3519	9848.88	64.8029	9848.88	61.9931	9848.88	58.3507	9848.88	57.3763	9848.88	59.0551	9848.88	56.9369	9848.88	52.0368	9848.88	51.2296	9848.88	46.7082	9848.88	44.2147	9848.88	54.2297	9848.88	52.4821	9848.88	51.4018	9848.88	47.5657	9848.88	50.9788	9848.88	48.0868
10196.8	87.1506	10196.8	86.7652	10196.8	87.1941	10196.8	86.217	10196.8	86.8662	10196.8	85.5137	10196.8	85.5953	10196.8	83.3497	10196.8	83.6129	10196.8	81.5889	10196.8	82.2742	10196.8	78.9438	10196.8	80.056	10196.8	74.7527	10196.8	75.6097	10196.8	70.0701	10196.8	71.9791	10196.8	67.3989	10196.8	66.9452	10196.8	61.178	10196.8	64.389	10196.8	60.0801	10196.8	59.2466	10196.8	58.791	10196.8	59.6906	10196.8	56.2789	10196.8	34.0861	10196.8	48.4414	10196.8	47.4237	10196.8	38.566	10196.8	53.4679	10196.8	46.5286	10196.8	55.8525	10196.8	46.3451	10196.8	32.3073	10196.8	44.9706
10556.4	86.2547	10556.4	85.6616	10556.4	86.5611	10556.4	86.1066	10556.4	86.3646	10556.4	85.5297	10556.4	85.1728	10556.4	83.9468	10556.4	83.909	10556.4	81.7593	10556.4	82.2987	10556.4	78.867	10556.4	79.5639	10556.4	73.689	10556.4	75.1454	10556.4	70.9991	10556.4	72.1262	10556.4	66.3372	10556.4	68.0305	10556.4	62.5013	10556.4	64.3371	10556.4	61.1066	10556.4	59.3891	10556.4	54.7299	10556.4	60.0715	10556.4	56.4256	10556.4	46.0808	10556.4	47.3665	10556.4	49.9274	10556.4	43.669	10556.4	51.2096	10556.4	46.0915	10556.4	53.1073	10556.4	27.7304	10556.4	44.5204	10556.4	44.1406
10928.5	85.4295	10928.5	85.4721	10928.5	85.966	10928.5	85.927	10928.5	85.9045	10928.5	85.3869	10928.5	84.8454	10928.5	83.8674	10928.5	83.7209	10928.5	81.6477	10928.5	81.5248	10928.5	78.076	10928.5	78.195	10928.5	74.4564	10928.5	75.168	10928.5	70.5971	10928.5	72.2321	10928.5	67.7193	10928.5	67.4492	10928.5	63.4304	10928.5	64.65	10928.5	60.9664	10928.5	59.7719	10928.5	57.3444	10928.5	59.0456	10928.5	57.5025	10928.5	44.0381	10928.5	37.7728	10928.5	50.3466	10928.5	35.9675	10928.5	51.4191	10928.5	49.1741	10928.5	53.266	10928.5	47.1512	10928.5	46.5307	10928.5	42.1714
11313.7	85.4338	11313.7	85.6502	11313.7	85.8547	11313.7	85.9084	11313.7	85.6183	11313.7	85.102	11313.7	84.5366	11313.7	83.4885	11313.7	83.1983	11313.7	80.3238	11313.7	80.2868	11313.7	76.2502	11313.7	76.568	11313.7	73.0147	11313.7	74.4274	11313.7	69.7948	11313.7	71.1719	11313.7	64.0354	11313.7	67.1569	11313.7	60.0783	11313.7	63.4058	11313.7	58.4052	11313.7	56.5636	11313.7	56.3461	11313.7	57.6789	11313.7	54.7953	11313.7	48.4746	11313.7	46.5865	11313.7	48.9602	11313.7	43.2845	11313.7	52.0744	11313.7	45.1655	11313.7	51.811	11313.7	39.4187	11313.7	51.5322	11313.7	45.8342
11712.9	85.4428	11712.9	86.1903	11712.9	85.9197	11712.9	85.9306	11712.9	85.3377	11712.9	84.5464	11712.9	83.6859	11712.9	82.6467	11712.9	81.8285	11712.9	78.8244	11712.9	78.305	11712.9	75.644	11712.9	75.0893	11712.9	73.7895	11712.9	73.328	11712.9	70.2866	11712.9	69.8569	11712.9	66.1974	11712.9	65.233	11712.9	62.6942	11712.9	60.6237	11712.9	57.7401	11712.9	55.5522	11712.9	57.1684	11712.9	54.8737	11712.9	51.4976	11712.9	37.9189	11712.9	43.5911	11712.9	48.1248	11712.9	41.5822	11712.9	45.9961	11712.9	48.4572	11712.9	50.1042	11712.9	38.4742	11712.9	46.413	11712.9	48.1461
12126	86.0181	12126	86.5047	12126	86.4433	12126	85.6802	12126	85.6234	12126	84.07	12126	83.7423	12126	82.0939	12126	81.6422	12126	78.5235	12126	77.8091	12126	76.5112	12126	75.3588	12126	74.5729	12126	73.283	12126	71.4892	12126	69.2739	12126	66.5793	12126	64.4725	12126	62.8646	12126	60.5139	12126	59.7104	12126	55.2584	12126	56.6183	12126	55.3754	12126	51.8284	12126	45.9036	12126	48.2511	12126	45.4736	12126	38.9763	12126	50.0045	12126	46.1256	12126	49.811	12126	43.4329	12126	51.4104	12126	48.7568
12553.7	85.543	12553.7	86.35	12553.7	86.3343	12553.7	85.3633	12553.7	85.5019	12553.7	83.9408	12553.7	83.7848	12553.7	82.1171	12553.7	81.7629	12553.7	79.1382	12553.7	78.3065	12553.7	77.1422	12553.7	76.0217	12553.7	74.4863	12553.7	73.3055	12553.7	70.0773	12553.7	69.1069	12553.7	64.4097	12553.7	64.6018	12553.7	61.2723	12553.7	60.5719	12553.7	57.0795	12553.7	54.269	12553.7	54.4837	12553.7	53.7423	12553.7	43.0713	12553.7	48.8379	12553.7	46.8421	12553.7	43.1281	12553.7	33.7942	12553.7	49.7791	12553.7	51.4467	12553.7	49.4343	12553.7	49.1748	12553.7	50.2126	12553.7	47.4859
12996.1	84.5694	12996.1	85.9626	12996.1	85.7628	12996.1	84.8893	12996.1	85.1426	12996.1	83.868	12996.1	83.3992	12996.1	81.5448	12996.1	81.0184	12996.1	78.921	12996.1	77.6473	12996.1	76.355	12996.1	75.9935	12996.1	72.7833	12996.1	72.5754	12996.1	69.2376	12996.1	68.786	12996.1	63.7506	12996.1	64.2482	12996.1	60.8689	12996.1	59.283	12996.1	58.7997	12996.1	54.6696	12996.1	52.5792	12996.1	51.7353	12996.1	45.62	12996.1	49.4746	12996.1	41.8191	12996.1	37.4469	12996.1	44.8119	12996.1	50.2268	12996.1	48.3084	12996.1	48.451	12996.1	47.4812	12996.1	47.7773	12996.1	48.8692
13454.6	83.7674	13454.6	85.6231	13454.6	85.5408	13454.6	84.2716	13454.6	84.8403	13454.6	83.745	13454.6	83.5543	13454.6	81.0561	13454.6	80.7327	13454.6	79.2848	13454.6	78.6455	13454.6	76.0077	13454.6	76.2308	13454.6	72.258	13454.6	72.8169	13454.6	70.2868	13454.6	70.1063	13454.6	64.3129	13454.6	65.2789	13454.6	61.6479	13454.6	60.6907	13454.6	57.0725	13454.6	55.0779	13454.6	53.4738	13454.6	53.6376	13454.6	47.2923	13454.6	47.6601	13454.6	50.8814	13454.6	42.0662	13454.6	40.516	13454.6	48.917	13454.6	50.3991	13454.6	49.8728	13454.6	46.4419	13454.6	39.849	13454.6	51.0126
13928.5	83.8169	13928.5	85.3426	13928.5	85.2515	13928.5	83.7541	13928.5	84.3886	13928.5	83.4455	13928.5	83.491	13928.5	80.3803	13928.5	80.5514	13928.5	79.1349	13928.5	78.9746	13928.5	75.3647	13928.5	75.7654	13928.5	72.7514	13928.5	73.3772	13928.5	70.2999	13928.5	69.6809	13928.5	62.6355	13928.5	65.3897	13928.5	61.7684	13928.5	60.6806	13928.5	57.1566	13928.5	54.7681	13928.5	48.2987	13928.5	51.1165	13928.5	46.7833	13928.5	48.6674	13928.5	48.1197	13928.5	36.5166	13928.5	44.9321	13928.5	45.906	13928.5	51.409	13928.5	44.1013	13928.5	47.3073	13928.5	40.1577	13928.5	50.9378
14419.9	84.32	14419.9	85.0905	14419.9	84.8611	14419.9	83.4594	14419.9	84.0239	14419.9	82.9883	14419.9	83.1974	14419.9	80.1468	14419.9	80.2761	14419.9	78.5166	14419.9	78.5031	14419.9	75.0933	14419.9	75.2183	14419.9	72.552	14419.9	72.712	14419.9	70.637	14419.9	68.482	14419.9	62.5582	14419.9	65.2802	14419.9	61.4184	14419.9	59.8259	14419.9	55.5694	14419.9	48.8928	14419.9	48.0167	14419.9	48.7517	14419.9	46.4401	14419.9	45.261	14419.9	50.836	14419.9	42.6084	14419.9	29.0011	14419.9	41.1729	14419.9	48.1153	14419.9	37.4098	14419.9	45.1587	14419.9	37.3853	14419.9	54.5704
14928.2	84.8521	14928.2	84.7913	14928.2	84.4377	14928.2	83.3766	14928.2	83.7759	14928.2	82.9091	14928.2	82.5749	14928.2	80.4738	14928.2	80.3811	14928.2	78.038	14928.2	77.6361	14928.2	75.4298	14928.2	75.0423	14928.2	72.2308	14928.2	72.4115	14928.2	69.5931	14928.2	68.2396	14928.2	61.9288	14928.2	65.2783	14928.2	60.1003	14928.2	58.4952	14928.2	54.0869	14928.2	46.4114	14928.2	49.6211	14928.2	45.105	14928.2	44.3911	14928.2	45.8349	14928.2	48.3149	14928.2	41.2177	14928.2	38.5631	14928.2	42.144	14928.2	44.7572	14928.2	29.9498	14928.2	44.8099	14928.2	27.2941	14928.2	54.5771
15454.8	85.2188	15454.8	84.1884	15454.8	83.862	15454.8	83.0103	15454.8	83.2976	15454.8	82.1885	15454.8	81.8311	15454.8	80.0831	15454.8	79.8956	15454.8	77.4171	15454.8	76.5533	15454.8	75.8118	15454.8	74.6861	15454.8	71.7967	15454.8	71.7916	15454.8	67.5721	15454.8	67.0718	15454.8	61.8758	15454.8	63.9017	15454.8	59.625	15454.8	56.0564	15454.8	52.3003	15454.8	42.8715	15454.8	51.4051	15454.8	42.7898	15454.8	31.5813	15454.8	48.5528	15454.8	45.8518	15454.8	48.3665	15454.8	43.9809	15454.8	48.1282	15454.8	45.584	15454.8	40.9111	15454.8	44.3871	15454.8	32.2978	15454.8	57.194
15999.8	85.5292	15999.8	83.8666	15999.8	83.7093	15999.8	82.7728	15999.8	83.0947	15999.8	81.6866	15999.8	81.1436	15999.8	79.6387	15999.8	79.5541	15999.8	77.0268	15999.8	76.2546	15999.8	75.6215	15999.8	74.3317	15999.8	71.4384	15999.8	70.619	15999.8	67.547	15999.8	66.8401	15999.8	62.9075	15999.8	63.1523	15999.8	59.0523	15999.8	53.5709	15999.8	51.4523	15999.8	46.3596	15999.8	52.1673	15999.8	41.2651	15999.8	40.2674	15999.8	48.7803	15999.8	47.6619	15999.8	47.2462	15999.8	44.1993	15999.8	48.5508	15999.8	43.6614	15999.8	45.7741	15999.8	42.1163	15999.8	42.4941	15999.8	55.8807
16564.5	85.1475	16564.5	83.3566	16564.5	83.3111	16564.5	82.4913	16564.5	82.7832	16564.5	81.3264	16564.5	81.0346	16564.5	79.0844	16564.5	79.144	16564.5	77.0646	16564.5	76.4784	16564.5	74.6993	16564.5	73.4276	16564.5	71.2401	16564.5	69.7797	16564.5	66.6986	16564.5	66.6335	16564.5	62.1159	16564.5	61.7851	16564.5	57.3262	16564.5	53.024	16564.5	51.2901	16564.5	48.1704	16564.5	51.9392	16564.5	40.0287	16564.5	44.7572	16564.5	46.7073	16564.5	45.3805	16564.5	46.9642	16564.5	46.726	16564.5	49.493	16564.5	11.771	16564.5	46.849	16564.5	43.78	16564.5	43.1388	16564.5	55.9594
17148.2	83.98	17148.2	82.2482	17148.2	82.7017	17148.2	81.8347	17148.2	81.9477	17148.2	80.9176	17148.2	81.0195	17148.2	78.8784	17148.2	78.5962	17148.2	77.136	17148.2	76.4274	17148.2	73.6199	17148.2	72.7817	17148.2	70.5774	17148.2	69.6643	17148.2	67.153	17148.2	66.7928	17148.2	60.9984	17148.2	61.6613	17148.2	56.7863	17148.2	52.8844	17148.2	52.1782	17148.2	45.2882	17148.2	52.6449	17148.2	41.5235	17148.2	50.4695	17148.2	46.9602	17148.2	45.912	17148.2	47.1656	17148.2	48.839	17148.2	48.6916	17148.2	40.2694	17148.2	45.3646	17148.2	44.9405	17148.2	46.5002	17148.2	54.9736
17753.2	82.3634	17753.2	81.1459	17753.2	82.092	17753.2	81.2838	17753.2	81.236	17753.2	80.5178	17753.2	80.7332	17753.2	78.4158	17753.2	78.2962	17753.2	76.9292	17753.2	75.6294	17753.2	73.1075	17753.2	72.7755	17753.2	69.6631	17753.2	68.8056	17753.2	66.9111	17753.2	65.5498	17753.2	59.5247	17753.2	60.3673	17753.2	56.8412	17753.2	52.1997	17753.2	53.176	17753.2	46.0449	17753.2	52.2152	17753.2	45.1214	17753.2	50.4671	17753.2	44.364	17753.2	42.0685	17753.2	42.6793	17753.2	47.2851	17753.2	45.3919	17753.2	48.324	17753.2	43.7015	17753.2	41.8606	17753.2	49.062	17753.2	53.3451
18379.4	80.3979	18379.4	80.099	18379.4	81.3222	18379.4	80.4197	18379.4	80.62	18379.4	79.926	18379.4	80.0557	18379.4	77.9551	18379.4	77.8026	18379.4	76.2317	18379.4	74.8987	18379.4	73.1902	18379.4	71.9905	18379.4	68.5894	18379.4	67.1892	18379.4	65.4237	18379.4	64.5982	18379.4	59.2628	18379.4	59.7571	18379.4	56.957	18379.4	53.365	18379.4	51.4379	18379.4	47.7845	18379.4	48.4542	18379.4	47.6072	18379.4	48.8101	18379.4	46.4712	18379.4	36.1496	18379.4	37.4237	18379.4	43.9151	18379.4	42.111	18379.4	47.3478	18379.4	41.9375	18379.4	42.6026	18379.4	50.7952	18379.4	53.7183
19027.6	79.1883	19027.6	79.6655	19027.6	80.7128	19027.6	79.8358	19027.6	80.3002	19027.6	79.3919	19027.6	79.4117	19027.6	77.5207	19027.6	77.6063	19027.6	75.2375	19027.6	74.3687	19027.6	72.9319	19027.6	71.2685	19027.6	67.5283	19027.6	66.3126	19027.6	63.9008	19027.6	63.7699	19027.6	59.5618	19027.6	58.6285	19027.6	55.8669	19027.6	53.2794	19027.6	49.1205	19027.6	47.2552	19027.6	44.8764	19027.6	48.6962	19027.6	47.0145	19027.6	46.9571	19027.6	40.7842	19027.6	34.0133	19027.6	35.6651	19027.6	42.576	19027.6	41.1988	19027.6	41.9547	19027.6	44.096	19027.6	52.4091	19027.6	54.3878
19698.5	79.8238	19698.5	79.9898	19698.5	80.3592	19698.5	79.3942	19698.5	80.3905	19698.5	78.9767	19698.5	78.8691	19698.5	77.3364	19698.5	77.771	19698.5	74.7772	19698.5	74.4724	19698.5	72.0737	19698.5	70.7646	19698.5	67.2773	19698.5	64.917	19698.5	63.3113	19698.5	63.5851	19698.5	60.4701	19698.5	58.4646	19698.5	54.7076	19698.5	53.5334	19698.5	47.193	19698.5	48.7529	19698.5	39.0513	19698.5	47.7885	19698.5	45.5761	19698.5	47.9646	19698.5	39.3264	19698.5	38.8254	19698.5	32.6776	19698.5	35.3998	19698.5	37.0779	19698.5	42.2292	19698.5	46.2468	19698.5	52.9513	19698.5	54.0225
19999.5	79.9301	19999.5	80.011	19999.5	79.6682	19999.5	78.6781	19999.5	80.0052	19999.5	78.65	19999.5	78.2566	19999.5	77.2525	19999.5	77.5958	19999.5	74.5425	19999.5	74.7926	19999.5	71.4482	19999.5	70.3443	19999.5	67.8546	19999.5	64.4754	19999.5	62.0875	19999.5	63.3338	19999.5	60.9031	19999.5	58.6048	19999.5	53.7524	19999.5	53.1083	19999.5	48.5955	19999.5	46.7199	19999.5	35.6855	19999.5	49.0304	19999.5	53.6644	19999.5	43.5552	19999.5	45.4212	19999.5	44.2673	19999.5	30.313	19999.5	42.4346	19999.5	43.4223	19999.5	48.6003	19999.5	46.7656	19999.5	50.8468	19999.5	55.0462
