"SPL Horizontal"
"On-Axis"		"10°"		"-10°"		"20°"		"-20°"		"30°"		"-30°"		"40°"		"-40°"		"50°"		"-50°"		"60°"		"-60°"		"70°"		"-70°"		"80°"		"-80°"		"90°"		"-90°"		"100°"		"-100°"		"110°"		"-110°"		"120°"		"-120°"		"130°"		"-130°"		"140°"		"-140°"		"150°"		"-150°"		"160°"		"-160°"		"170°"		"-170°"		"180°"
"Frequency [Hz]"	"Sound Pessure Level [dB]   [2.83V at 1m]"	"Frequency [Hz]"	"Sound Pessure Level [dB]   [2.83V at 1m]"	"Frequency [Hz]"	"Sound Pessure Level [dB]   [2.83V at 1m]"	"Frequency [Hz]"	"Sound Pessure Level [dB]   [2.83V at 1m]"	"Frequency [Hz]"	"Sound Pessure Level [dB]   [2.83V at 1m]"	"Frequency [Hz]"	"Sound Pessure Level [dB]   [2.83V at 1m]"	"Frequency [Hz]"	"Sound Pessure Level [dB]   [2.83V at 1m]"	"Frequency [Hz]"	"Sound Pessure Level [dB]   [2.83V at 1m]"	"Frequency [Hz]"	"Sound Pessure Level [dB]   [2.83V at 1m]"	"Frequency [Hz]"	"Sound Pessure Level [dB]   [2.83V at 1m]"	"Frequency [Hz]"	"Sound Pessure Level [dB]   [2.83V at 1m]"	"Frequency [Hz]"	"Sound Pessure Level [dB]   [2.83V at 1m]"	"Frequency [Hz]"	"Sound Pessure Level [dB]   [2.83V at 1m]"	"Frequency [Hz]"	"Sound Pessure Level [dB]   [2.83V at 1m]"	"Frequency [Hz]"	"Sound Pessure Level [dB]   [2.83V at 1m]"	"Frequency [Hz]"	"Sound Pessure Level [dB]   [2.83V at 1m]"	"Frequency [Hz]"	"Sound Pessure Level [dB]   [2.83V at 1m]"	"Frequency [Hz]"	"Sound Pessure Level [dB]   [2.83V at 1m]"	"Frequency [Hz]"	"Sound Pessure Level [dB]   [2.83V at 1m]"	"Frequency [Hz]"	"Sound Pessure Level [dB]   [2.83V at 1m]"	"Frequency [Hz]"	"Sound Pessure Level [dB]   [2.83V at 1m]"	"Frequency [Hz]"	"Sound Pessure Level [dB]   [2.83V at 1m]"	"Frequency [Hz]"	"Sound Pessure Level [dB]   [2.83V at 1m]"	"Frequency [Hz]"	"Sound Pessure Level [dB]   [2.83V at 1m]"	"Frequency [Hz]"	"Sound Pessure Level [dB]   [2.83V at 1m]"	"Frequency [Hz]"	"Sound Pessure Level [dB]   [2.83V at 1m]"	"Frequency [Hz]"	"Sound Pessure Level [dB]   [2.83V at 1m]"	"Frequency [Hz]"	"Sound Pessure Level [dB]   [2.83V at 1m]"	"Frequency [Hz]"	"Sound Pessure Level [dB]   [2.83V at 1m]"	"Frequency [Hz]"	"Sound Pessure Level [dB]   [2.83V at 1m]"	"Frequency [Hz]"	"Sound Pessure Level [dB]   [2.83V at 1m]"	"Frequency [Hz]"	"Sound Pessure Level [dB]   [2.83V at 1m]"	"Frequency [Hz]"	"Sound Pessure Level [dB]   [2.83V at 1m]"	"Frequency [Hz]"	"Sound Pessure Level [dB]   [2.83V at 1m]"	"Frequency [Hz]"	"Sound Pessure Level [dB]   [2.83V at 1m]"	"Frequency [Hz]"	"Sound Pessure Level [dB]   [2.83V at 1m]"
20.5078	37.154	20.5078	37.1733	20.5078	37.1947	20.5078	37.2474	20.5078	37.2959	20.5078	37.3679	20.5078	37.4529	20.5078	37.525	20.5078	37.657	20.5078	37.709	20.5078	37.8969	20.5078	37.9122	20.5078	38.1606	20.5078	38.1289	20.5078	38.4368	20.5078	38.3558	20.5078	38.7159	20.5078	38.5906	20.5078	38.9899	20.5078	38.8315	20.5078	39.2524	20.5078	39.076	20.5078	39.4976	20.5078	39.3196	20.5078	39.7204	20.5078	39.5559	20.5078	39.9158	20.5078	39.7761	20.5078	40.0788	20.5078	39.9703	20.5078	40.2044	20.5078	40.1287	20.5078	40.2874	20.5078	40.2434	20.5078	40.3234	20.5078	40.309
21.9727	39.1873	21.9727	39.2658	21.9727	39.1407	21.9727	39.3709	21.9727	39.1292	21.9727	39.4964	21.9727	39.1538	21.9727	39.6355	21.9727	39.2133	21.9727	39.7823	21.9727	39.3049	21.9727	39.9319	21.9727	39.4247	21.9727	40.0812	21.9727	39.5679	21.9727	40.2285	21.9727	39.7297	21.9727	40.3726	21.9727	39.9045	21.9727	40.513	21.9727	40.0873	21.9727	40.6484	21.9727	40.2725	21.9727	40.7768	21.9727	40.4549	21.9727	40.8952	21.9727	40.6287	21.9727	40.9992	21.9727	40.7881	21.9727	41.0834	21.9727	40.9267	21.9727	41.1419	21.9727	41.0384	21.9727	41.1695	21.9727	41.118	21.9727	41.1621
23.4375	41.0264	23.4375	41.0411	23.4375	41.0593	23.4375	41.1005	23.4375	41.1392	23.4375	41.1992	23.4375	41.2625	23.4375	41.3297	23.4375	41.4227	23.4375	41.4843	23.4375	41.6109	23.4375	41.6553	23.4375	41.8175	23.4375	41.8357	23.4375	42.0321	23.4375	42.0196	23.4375	42.2451	23.4375	42.202	23.4375	42.4479	23.4375	42.3782	23.4375	42.6335	23.4375	42.5447	23.4375	42.7969	23.4375	42.6981	23.4375	42.9351	23.4375	42.8358	23.4375	43.0467	23.4375	42.9557	23.4375	43.1321	23.4375	43.0561	23.4375	43.1921	23.4375	43.1355	23.4375	43.2276	23.4375	43.193	23.4375	43.2393	23.4375	43.2277
24.9023	46.3798	24.9023	46.3292	24.9023	46.4466	24.9023	46.2951	24.9023	46.5291	24.9023	46.277	24.9023	46.6257	24.9023	46.2746	24.9023	46.7338	24.9023	46.2873	24.9023	46.8502	24.9023	46.3147	24.9023	46.9707	24.9023	46.356	24.9023	47.0909	24.9023	46.4107	24.9023	47.2059	24.9023	46.4775	24.9023	47.3113	24.9023	46.5554	24.9023	47.4027	24.9023	46.6428	24.9023	47.4762	24.9023	46.738	24.9023	47.5287	24.9023	46.8392	24.9023	47.5578	24.9023	46.9446	24.9023	47.5623	24.9023	47.0519	24.9023	47.5422	24.9023	47.1582	24.9023	47.4988	24.9023	47.2603	24.9023	47.4348	24.9023	47.3539
26.3672	45.8542	26.3672	45.6906	26.3672	46.0222	26.3672	45.5351	26.3672	46.1916	26.3672	45.3918	26.3672	46.3598	26.3672	45.2659	26.3672	46.5239	26.3672	45.1627	26.3672	46.6812	26.3672	45.0876	26.3672	46.8285	26.3672	45.0451	26.3672	46.9627	26.3672	45.0389	26.3672	47.0805	26.3672	45.0712	26.3672	47.1783	26.3672	45.1425	26.3672	47.2528	26.3672	45.2521	26.3672	47.3003	26.3672	45.3977	26.3672	47.3174	26.3672	45.5751	26.3672	47.3006	26.3672	45.7784	26.3672	47.2474	26.3672	45.9997	26.3672	47.1563	26.3672	46.2293	26.3672	47.0278	26.3672	46.4568	26.3672	46.8646	26.3672	46.6717
27.832	47.3787	27.832	47.3122	27.832	47.4454	27.832	47.2478	27.832	47.511	27.832	47.1874	27.832	47.5744	27.832	47.1335	27.832	47.6344	27.832	47.0885	27.832	47.6901	27.832	47.0547	27.832	47.7403	27.832	47.0337	27.832	47.7838	27.832	47.0265	27.832	47.8196	27.832	47.0332	27.832	47.8466	27.832	47.0535	27.832	47.8639	27.832	47.0864	27.832	47.8705	27.832	47.1311	27.832	47.8654	27.832	47.1865	27.832	47.8477	27.832	47.2516	27.832	47.8166	27.832	47.3248	27.832	47.7718	27.832	47.4041	27.832	47.7141	27.832	47.4864	27.832	47.6453	27.832	47.5681
29.2969	46.9482	29.2969	46.9387	29.2969	46.9636	29.2969	46.9363	29.2969	46.9834	29.2969	46.9425	29.2969	47.0068	29.2969	46.9581	29.2969	47.0332	29.2969	46.9835	29.2969	47.0625	29.2969	47.0182	29.2969	47.0947	29.2969	47.0613	29.2969	47.1304	29.2969	47.1107	29.2969	47.1698	29.2969	47.1646	29.2969	47.2131	29.2969	47.2205	29.2969	47.2599	29.2969	47.2766	29.2969	47.3092	29.2969	47.3309	29.2969	47.3591	29.2969	47.3818	29.2969	47.4071	29.2969	47.4276	29.2969	47.4504	29.2969	47.4667	29.2969	47.4861	29.2969	47.4976	29.2969	47.5119	29.2969	47.5186	29.2969	47.5263	29.2969	47.5285
30.7617	49.1733	30.7617	49.1759	30.7617	49.1679	30.7617	49.1761	30.7617	49.1597	30.7617	49.1741	30.7617	49.1492	30.7617	49.1703	30.7617	49.1367	30.7617	49.1652	30.7617	49.123	30.7617	49.1592	30.7617	49.1091	30.7617	49.1527	30.7617	49.0958	30.7617	49.146	30.7617	49.0841	30.7617	49.1395	30.7617	49.0747	30.7617	49.1335	30.7617	49.0681	30.7617	49.1282	30.7617	49.0647	30.7617	49.1237	30.7617	49.0643	30.7617	49.1198	30.7617	49.0666	30.7617	49.1162	30.7617	49.071	30.7617	49.1124	30.7617	49.077	30.7617	49.1082	30.7617	49.0838	30.7617	49.1032	30.7617	49.0908	30.7617	49.0974
32.2266	51.0866	32.2266	51.0926	32.2266	51.0709	32.2266	51.0889	32.2266	51.046	32.2266	51.0754	32.2266	51.0127	32.2266	51.0526	32.2266	50.972	32.2266	51.0213	32.2266	50.9251	32.2266	50.9824	32.2266	50.8735	32.2266	50.9373	32.2266	50.8189	32.2266	50.8875	32.2266	50.7629	32.2266	50.8349	32.2266	50.7076	32.2266	50.7814	32.2266	50.6547	32.2266	50.7288	32.2266	50.6062	32.2266	50.6788	32.2266	50.5637	32.2266	50.6326	32.2266	50.5287	32.2266	50.5912	32.2266	50.5022	32.2266	50.5553	32.2266	50.4847	32.2266	50.5255	32.2266	50.4764	32.2266	50.5021	32.2266	50.4769	32.2266	50.4857
33.6914	53.4231	33.6914	53.3807	33.6914	53.4523	33.6914	53.3258	33.6914	53.4678	33.6914	53.2599	33.6914	53.4697	33.6914	53.1847	33.6914	53.4584	33.6914	53.1024	33.6914	53.4346	33.6914	53.0159	33.6914	53.3993	33.6914	52.9282	33.6914	53.3536	33.6914	52.8425	33.6914	53.2987	33.6914	52.7624	33.6914	53.2361	33.6914	52.691	33.6914	53.1672	33.6914	52.6312	33.6914	53.0937	33.6914	52.585	33.6914	53.0174	33.6914	52.5538	33.6914	52.9403	33.6914	52.538	33.6914	52.8647	33.6914	52.5374	33.6914	52.7926	33.6914	52.5513	33.6914	52.7262	33.6914	52.5784	33.6914	52.6673	33.6914	52.6175
35.1562	53.8939	35.1562	53.811	35.1562	53.9758	35.1562	53.7292	35.1562	54.055	35.1562	53.6515	35.1562	54.1304	35.1562	53.5816	35.1562	54.201	35.1562	53.5233	35.1562	54.2662	35.1562	53.481	35.1562	54.3252	35.1562	53.4583	35.1562	54.3774	35.1562	53.4581	35.1562	54.4219	35.1562	53.4814	35.1562	54.4576	35.1562	53.5277	35.1562	54.4835	35.1562	53.5944	35.1562	54.4984	35.1562	53.6774	35.1562	54.5013	35.1562	53.7717	35.1562	54.4913	35.1562	53.872	35.1562	54.4682	35.1562	53.9733	35.1562	54.4317	35.1562	54.0716	35.1562	54.3823	35.1562	54.1637	35.1562	54.3205	35.1562	54.2472
36.6211	53.4506	36.6211	53.4439	36.6211	53.4586	36.6211	53.4394	36.6211	53.4674	36.6211	53.4385	36.6211	53.477	36.6211	53.4426	36.6211	53.4882	36.6211	53.4528	36.6211	53.5019	36.6211	53.4698	36.6211	53.5192	36.6211	53.4939	36.6211	53.5412	36.6211	53.5245	36.6211	53.5686	36.6211	53.5605	36.6211	53.6015	36.6211	53.6006	36.6211	53.6393	36.6211	53.6431	36.6211	53.6805	36.6211	53.686	36.6211	53.7227	36.6211	53.7276	36.6211	53.7633	36.6211	53.7661	36.6211	53.7994	36.6211	53.7998	36.6211	53.8284	36.6211	53.8272	36.6211	53.8483	36.6211	53.8468	36.6211	53.858	36.6211	53.8574
38.0859	56.5336	38.0859	56.5551	38.0859	56.5007	38.0859	56.565	38.0859	56.4574	38.0859	56.563	38.0859	56.4047	38.0859	56.5494	38.0859	56.3443	38.0859	56.5249	38.0859	56.278	38.0859	56.4901	38.0859	56.2078	38.0859	56.4462	38.0859	56.1359	38.0859	56.3943	38.0859	56.0646	38.0859	56.3359	38.0859	55.9961	38.0859	56.2726	38.0859	55.9327	38.0859	56.2062	38.0859	55.8766	38.0859	56.1386	38.0859	55.8299	38.0859	56.0715	38.0859	55.7943	38.0859	56.0069	38.0859	55.771	38.0859	55.9464	38.0859	55.7607	38.0859	55.8918	38.0859	55.7636	38.0859	55.8447	38.0859	55.7792	38.0859	55.8067
39.5508	57.8728	39.5508	57.8402	39.5508	57.8952	39.5508	57.7983	39.5508	57.9066	39.5508	57.7486	39.5508	57.907	39.5508	57.693	39.5508	57.8968	39.5508	57.6334	39.5508	57.8771	39.5508	57.5718	39.5508	57.8492	39.5508	57.5104	39.5508	57.8145	39.5508	57.451	39.5508	57.7747	39.5508	57.3955	39.5508	57.7313	39.5508	57.346	39.5508	57.6856	39.5508	57.3041	39.5508	57.6384	39.5508	57.2715	39.5508	57.5904	39.5508	57.2496	39.5508	57.5419	39.5508	57.2395	39.5508	57.4933	39.5508	57.2416	39.5508	57.4451	39.5508	57.2556	39.5508	57.398	39.5508	57.2802	39.5508	57.3536	39.5508	57.3136
41.0156	59.1287	41.0156	59.1089	41.0156	59.1376	41.0156	59.079	41.0156	59.1352	41.0156	59.0401	41.0156	59.1214	41.0156	58.9934	41.0156	59.0967	41.0156	58.9404	41.0156	59.0621	41.0156	58.8826	41.0156	59.0189	41.0156	58.8215	41.0156	58.9687	41.0156	58.7588	41.0156	58.9136	41.0156	58.6964	41.0156	58.8554	41.0156	58.636	41.0156	58.796	41.0156	58.5797	41.0156	58.737	41.0156	58.5294	41.0156	58.6799	41.0156	58.4871	41.0156	58.6258	41.0156	58.4545	41.0156	58.5758	41.0156	58.4328	41.0156	58.5308	41.0156	58.4229	41.0156	58.4919	41.0156	58.4246	41.0156	58.4603	41.0156	58.4375
42.4805	60.4323	42.4805	60.4243	42.4805	60.4319	42.4805	60.4083	42.4805	60.4232	42.4805	60.3852	42.4805	60.4063	42.4805	60.3558	42.4805	60.382	42.4805	60.3213	42.4805	60.3515	42.4805	60.2832	42.4805	60.3162	42.4805	60.2428	42.4805	60.2777	42.4805	60.2018	42.4805	60.238	42.4805	60.1615	42.4805	60.1988	42.4805	60.1235	42.4805	60.1615	42.4805	60.0891	42.4805	60.1274	42.4805	60.0593	42.4805	60.0971	42.4805	60.035	42.4805	60.071	42.4805	60.0166	42.4805	60.049	42.4805	60.0041	42.4805	60.0309	42.4805	59.9974	42.4805	60.0165	42.4805	59.9957	42.4805	60.0058	42.4805	59.9987
43.9453	62.1291	43.9453	62.1386	43.9453	62.1082	43.9453	62.1369	43.9453	62.0763	43.9453	62.1244	43.9453	62.0341	43.9453	62.1021	43.9453	61.9826	43.9453	62.0708	43.9453	61.9238	43.9453	62.0321	43.9453	61.8595	43.9453	61.9873	43.9453	61.7924	43.9453	61.938	43.9453	61.7252	43.9453	61.8858	43.9453	61.6607	43.9453	61.8324	43.9453	61.6016	43.9453	61.7792	43.9453	61.5504	43.9453	61.7275	43.9453	61.5089	43.9453	61.6781	43.9453	61.4785	43.9453	61.6318	43.9453	61.4597	43.9453	61.5893	43.9453	61.4524	43.9453	61.5509	43.9453	61.4557	43.9453	61.5174	43.9453	61.4685	43.9453	61.4895
45.4102	62.7144	45.4102	62.6993	45.4102	62.716	45.4102	62.6709	45.4102	62.7041	45.4102	62.6301	45.4102	62.6793	45.4102	62.5778	45.4102	62.6423	45.4102	62.5159	45.4102	62.5941	45.4102	62.4464	45.4102	62.5363	45.4102	62.3716	45.4102	62.4706	45.4102	62.2942	45.4102	62.3989	45.4102	62.2171	45.4102	62.3236	45.4102	62.1429	45.4102	62.2471	45.4102	62.0741	45.4102	62.172	45.4102	62.0128	45.4102	62.1009	45.4102	61.9605	45.4102	62.036	45.4102	61.9183	45.4102	61.9795	45.4102	61.8867	45.4102	61.9326	45.4102	61.8661	45.4102	61.8966	45.4102	61.8567	45.4102	61.8718	45.4102	61.8586
46.875	64.0628	46.875	64.0629	46.875	64.0456	46.875	64.0457	46.875	64.0119	46.875	64.0117	46.875	63.963	46.875	63.9619	46.875	63.9004	46.875	63.8977	46.875	63.826	46.875	63.8214	46.875	63.7421	46.875	63.7353	46.875	63.6508	46.875	63.6424	46.875	63.5549	46.875	63.5456	46.875	63.4571	46.875	63.4481	46.875	63.3602	46.875	63.3528	46.875	63.2671	46.875	63.2624	46.875	63.181	46.875	63.1796	46.875	63.1046	46.875	63.1063	46.875	63.0407	46.875	63.0444	46.875	62.9914	46.875	62.9958	46.875	62.9583	46.875	62.9617	46.875	62.9423	46.875	62.9436
48.3398	65.3859	48.3398	65.3788	48.3398	65.3694	48.3398	65.3484	48.3398	65.3293	48.3398	65.2961	48.3398	65.2664	48.3398	65.2233	48.3398	65.1821	48.3398	65.1322	48.3398	65.0786	48.3398	65.0252	48.3398	64.9585	48.3398	64.9051	48.3398	64.8254	48.3398	64.775	48.3398	64.683	48.3398	64.6382	48.3398	64.5357	48.3398	64.4982	48.3398	64.3882	48.3398	64.3589	48.3398	64.2452	48.3398	64.224	48.3398	64.1118	48.3398	64.0978	48.3398	63.9924	48.3398	63.9842	48.3398	63.8915	48.3398	63.8874	48.3398	63.8125	48.3398	63.8109	48.3398	63.7583	48.3398	63.7579	48.3398	63.7308	48.3398	63.7308
51.2695	66.6914	51.2695	66.6872	51.2695	66.6775	51.2695	66.6655	51.2695	66.6455	51.2695	66.6275	51.2695	66.596	51.2695	66.5746	51.2695	66.5301	51.2695	66.5084	51.2695	66.4496	51.2695	66.431	51.2695	66.3569	51.2695	66.3443	51.2695	66.2547	51.2695	66.2505	51.2695	66.1461	51.2695	66.1518	51.2695	66.0347	51.2695	66.0507	51.2695	65.9239	51.2695	65.9497	51.2695	65.8174	51.2695	65.8514	51.2695	65.7189	51.2695	65.7584	51.2695	65.6318	51.2695	65.6733	51.2695	65.5596	51.2695	65.5987	51.2695	65.5051	51.2695	65.5373	51.2695	65.4704	51.2695	65.4916	51.2695	65.4568	51.2695	65.4642
52.7344	66.8453	52.7344	66.8769	52.7344	66.8273	52.7344	66.9206	52.7344	66.8244	52.7344	66.9746	52.7344	66.8374	52.7344	67.0377	52.7344	66.8665	52.7344	67.1084	52.7344	66.9111	52.7344	67.1856	52.7344	66.97	52.7344	67.2685	52.7344	67.0414	52.7344	67.3559	52.7344	67.123	52.7344	67.4465	52.7344	67.2125	52.7344	67.5385	52.7344	67.3074	52.7344	67.6292	52.7344	67.4054	52.7344	67.7155	52.7344	67.504	52.7344	67.7937	52.7344	67.6005	52.7344	67.8597	52.7344	67.6919	52.7344	67.9096	52.7344	67.7747	52.7344	67.9399	52.7344	67.8452	52.7344	67.9486	52.7344	67.8997	52.7344	67.9349
54.1992	67.79	54.1992	67.7233	54.1992	67.8593	54.1992	67.6619	54.1992	67.9297	54.1992	67.6089	54.1992	68.0002	54.1992	67.568	54.1992	68.0706	54.1992	67.5433	54.1992	68.1411	54.1992	67.5385	54.1992	68.2122	54.1992	67.5569	54.1992	68.2844	54.1992	67.6006	54.1992	68.3578	54.1992	67.6702	54.1992	68.4321	54.1992	67.7643	54.1992	68.5058	54.1992	67.8794	54.1992	68.5771	54.1992	68.01	54.1992	68.643	54.1992	68.1493	54.1992	68.6998	54.1992	68.2891	54.1992	68.7434	54.1992	68.4214	54.1992	68.7696	54.1992	68.5391	54.1992	68.7745	54.1992	68.6362	54.1992	68.7548	54.1992	68.7087
55.6641	69.1452	55.6641	69.0872	55.6641	69.1769	55.6641	69.0039	55.6641	69.1822	55.6641	68.8969	55.6641	69.1615	55.6641	68.7685	55.6641	69.1159	55.6641	68.6221	55.6641	69.0469	55.6641	68.4617	55.6641	68.957	55.6641	68.2926	55.6641	68.8489	55.6641	68.1209	55.6641	68.7261	55.6641	67.9534	55.6641	68.5924	55.6641	67.7974	55.6641	68.4518	55.6641	67.6598	55.6641	68.3083	55.6641	67.5467	55.6641	68.1657	55.6641	67.4627	55.6641	68.0275	55.6641	67.41	55.6641	67.8965	55.6641	67.389	55.6641	67.7753	55.6641	67.3979	55.6641	67.666	55.6641	67.4335	55.6641	67.5708	55.6641	67.4923
58.5938	69.5121	58.5938	69.5005	58.5938	69.4961	58.5938	69.4616	58.5938	69.4532	58.5938	69.3956	58.5938	69.3845	58.5938	69.3039	58.5938	69.2916	58.5938	69.1882	58.5938	69.1767	58.5938	69.051	58.5938	69.0426	58.5938	68.8956	58.5938	68.8927	58.5938	68.7261	58.5938	68.7308	58.5938	68.5474	58.5938	68.5614	58.5938	68.3653	58.5938	68.3892	58.5938	68.186	58.5938	68.2194	58.5938	68.0161	58.5938	68.0571	58.5938	67.8621	58.5938	67.9074	58.5938	67.73	58.5938	67.7752	58.5938	67.6248	58.5938	67.6647	58.5938	67.5501	58.5938	67.5799	58.5938	67.5081	58.5938	67.524	58.5938	67.4995
60.0586	70.4321	60.0586	70.4355	60.0586	70.4014	60.0586	70.4116	60.0586	70.3443	60.0586	70.3605	60.0586	70.2619	60.0586	70.2831	60.0586	70.1559	60.0586	70.1807	60.0586	70.0287	60.0586	70.0554	60.0586	69.8829	60.0586	69.9097	60.0586	69.7221	60.0586	69.7469	60.0586	69.5503	60.0586	69.5712	60.0586	69.372	60.0586	69.3874	60.0586	69.1923	60.0586	69.201	60.0586	69.0166	60.0586	69.0185	60.0586	68.8507	60.0586	68.8463	60.0586	68.7002	60.0586	68.6913	60.0586	68.5709	60.0586	68.5597	60.0586	68.4677	60.0586	68.457	60.0586	68.395	60.0586	68.3874	60.0586	68.3562	60.0586	68.3534
62.9883	71.9763	62.9883	71.9821	62.9883	71.9514	62.9883	71.9686	62.9883	71.9081	62.9883	71.9362	62.9883	71.8477	62.9883	71.8859	62.9883	71.7717	62.9883	71.8189	62.9883	71.6825	62.9883	71.7372	62.9883	71.5825	62.9883	71.6428	62.9883	71.4747	62.9883	71.5385	62.9883	71.3623	62.9883	71.4272	62.9883	71.2484	62.9883	71.312	62.9883	71.1364	62.9883	71.1964	62.9883	71.0295	62.9883	71.084	62.9883	70.9309	62.9883	70.9783	62.9883	70.8437	62.9883	70.8829	62.9883	70.7707	62.9883	70.8012	62.9883	70.7144	62.9883	70.736	62.9883	70.6769	62.9883	70.6898	62.9883	70.6599	62.9883	70.6641
64.4531	72.5764	64.4531	72.5445	64.4531	72.5919	64.4531	72.4972	64.4531	72.5906	64.4531	72.4357	64.4531	72.573	64.4531	72.3621	64.4531	72.5397	64.4531	72.2787	64.4531	72.4922	64.4531	72.1883	64.4531	72.432	64.4531	72.0938	64.4531	72.3612	64.4531	71.9986	64.4531	72.2822	64.4531	71.9056	64.4531	72.1973	64.4531	71.8181	64.4531	72.1091	64.4531	71.7389	64.4531	72.0201	64.4531	71.6703	64.4531	71.9326	64.4531	71.6145	64.4531	71.849	64.4531	71.5729	64.4531	71.7715	64.4531	71.5465	64.4531	71.7022	64.4531	71.5358	64.4531	71.6428	64.4531	71.5407	64.4531	71.5952	64.4531	71.5608
67.3828	74.131	67.3828	74.1131	67.3828	74.1315	67.3828	74.0783	67.3828	74.115	67.3828	74.0275	67.3828	74.0822	67.3828	73.9623	67.3828	74.0343	67.3828	73.8847	67.3828	73.9732	67.3828	73.7973	67.3828	73.901	67.3828	73.7031	67.3828	73.8202	67.3828	73.6053	67.3828	73.7334	67.3828	73.5074	67.3828	73.6434	67.3828	73.4128	67.3828	73.5529	67.3828	73.3249	67.3828	73.4644	67.3828	73.2464	67.3828	73.3804	67.3828	73.1799	67.3828	73.3028	67.3828	73.1272	67.3828	73.2337	67.3828	73.0894	67.3828	73.1744	67.3828	73.0671	67.3828	73.1263	67.3828	73.0602	67.3828	73.0906	67.3828	73.0683
68.8477	74.6684	68.8477	74.6555	68.8477	74.6639	68.8477	74.6256	68.8477	74.6422	68.8477	74.5795	68.8477	74.6043	68.8477	74.5188	68.8477	74.5514	68.8477	74.4455	68.8477	74.4854	68.8477	74.3619	68.8477	74.4086	68.8477	74.2711	68.8477	74.3236	68.8477	74.1761	68.8477	74.2334	68.8477	74.0803	68.8477	74.1408	68.8477	73.9868	68.8477	74.0489	68.8477	73.8988	68.8477	73.9604	68.8477	73.819	68.8477	73.8779	68.8477	73.7498	68.8477	73.8036	68.8477	73.6928	68.8477	73.7393	68.8477	73.6493	68.8477	73.6864	68.8477	73.62	68.8477	73.6458	68.8477	73.6052	68.8477	73.6184	68.8477	73.6047
71.7773	75.6553	71.7773	75.6412	71.7773	75.6509	71.7773	75.6091	71.7773	75.6285	71.7773	75.5601	71.7773	75.5888	71.7773	75.4956	71.7773	75.5333	71.7773	75.418	71.7773	75.4642	71.7773	75.33	71.7773	75.3838	71.7773	75.2348	71.7773	75.2952	71.7773	75.1357	71.7773	75.2014	71.7773	75.0364	71.7773	75.1057	71.7773	74.9403	71.7773	75.0113	71.7773	74.8508	71.7773	74.9211	71.7773	74.7706	71.7773	74.8377	71.7773	74.7019	71.7773	74.7631	71.7773	74.6462	71.7773	74.6989	71.7773	74.6044	71.7773	74.6463	71.7773	74.5769	71.7773	74.606	71.7773	74.5636	71.7773	74.5786	71.7773	74.5643
74.707	76.4045	74.707	76.388	74.707	76.4007	74.707	76.3518	74.707	76.3768	74.707	76.2969	74.707	76.3339	74.707	76.2252	74.707	76.2735	74.707	76.1391	74.707	76.1977	74.707	76.0417	74.707	76.1094	74.707	75.9364	74.707	76.0117	74.707	75.827	74.707	75.9081	74.707	75.7176	74.707	75.8021	74.707	75.6119	74.707	75.6974	74.707	75.5135	74.707	75.5973	74.707	75.4255	74.707	75.5046	74.707	75.3502	74.707	75.4217	74.707	75.2894	74.707	75.3505	74.707	75.2439	74.707	75.2921	74.707	75.214	74.707	75.2474	74.707	75.1998	74.707	75.2168	74.707	75.2008
77.6367	77.2021	77.6367	77.1804	77.6367	77.2028	77.6367	77.1382	77.6367	77.1825	77.6367	77.0766	77.6367	77.142	77.6367	76.9976	77.6367	77.0829	77.6367	76.9037	77.6367	77.0072	77.6367	76.7979	77.6367	76.9174	77.6367	76.6839	77.6367	76.8167	77.6367	76.5656	77.6367	76.7084	77.6367	76.4472	77.6367	76.5962	77.6367	76.3328	77.6367	76.4836	77.6367	76.2265	77.6367	76.3743	77.6367	76.1316	77.6367	76.2713	77.6367	76.051	77.6367	76.1774	77.6367	75.9866	77.6367	76.0947	77.6367	75.9397	77.6367	76.0251	77.6367	75.9108	77.6367	75.9699	77.6367	75.8999	77.6367	75.9301	77.6367	75.9065
79.1016	77.5645	79.1016	77.5468	79.1016	77.5629	79.1016	77.5102	79.1016	77.5423	79.1016	77.4558	79.1016	77.5035	79.1016	77.3855	79.1016	77.4481	79.1016	77.3015	79.1016	77.3781	79.1016	77.207	79.1016	77.2961	79.1016	77.1052	79.1016	77.2051	79.1016	77	79.1016	77.1083	79.1016	76.8951	79.1016	77.0089	79.1016	76.7945	79.1016	76.9102	79.1016	76.7014	79.1016	76.8153	79.1016	76.6189	79.1016	76.7268	79.1016	76.5491	79.1016	76.6469	79.1016	76.4936	79.1016	76.5773	79.1016	76.4531	79.1016	76.5192	79.1016	76.4279	79.1016	76.4736	79.1016	76.4178	79.1016	76.4412	79.1016	76.4224
82.0312	78.3057	82.0312	78.2862	82.0312	78.3053	82.0312	78.2473	82.0312	78.2853	82.0312	78.1901	82.0312	78.247	82.0312	78.1166	82.0312	78.192	82.0312	78.0297	82.0312	78.1229	82.0312	77.9327	82.0312	78.0425	82.0312	77.8297	82.0312	77.9541	82.0312	77.7248	82.0312	77.861	82.0312	77.6225	82.0312	77.7667	82.0312	77.5267	82.0312	77.6743	82.0312	77.4408	82.0312	77.5866	82.0312	77.3675	82.0312	77.5059	82.0312	77.3084	82.0312	77.4338	82.0312	77.2642	82.0312	77.3714	82.0312	77.2347	82.0312	77.3192	82.0312	77.2191	82.0312	77.2775	82.0312	77.2165	82.0312	77.2462	82.0312	77.2258
84.9609	78.8996	84.9609	78.8775	84.9609	78.9005	84.9609	78.8345	84.9609	78.8805	84.9609	78.7718	84.9609	78.8412	84.9609	78.6918	84.9609	78.7846	84.9609	78.5975	84.9609	78.7134	84.9609	78.4929	84.9609	78.631	84.9609	78.3824	84.9609	78.5408	84.9609	78.2711	84.9609	78.4468	84.9609	78.1638	84.9609	78.3523	84.9609	78.0652	84.9609	78.2606	84.9609	77.9791	84.9609	78.1744	84.9609	77.9082	84.9609	78.0955	84.9609	77.8539	84.9609	78.0252	84.9609	77.8165	84.9609	77.964	84.9609	77.7949	84.9609	77.9119	84.9609	77.7876	84.9609	77.8687	84.9609	77.7928	84.9609	77.8343	84.9609	77.8088
87.8906	79.4787	87.8906	79.4597	87.8906	79.476	87.8906	79.419	87.8906	79.4523	87.8906	79.3577	87.8906	79.4096	87.8906	79.2782	87.8906	79.3505	87.8906	79.1836	87.8906	79.2785	87.8906	79.0783	87.8906	79.1972	87.8906	78.9674	87.8906	79.111	87.8906	78.8565	87.8906	79.0238	87.8906	78.7513	87.8906	78.9393	87.8906	78.6571	87.8906	78.8606	87.8906	78.5783	87.8906	78.7896	87.8906	78.5177	87.8906	78.7273	87.8906	78.4764	87.8906	78.6737	87.8906	78.4537	87.8906	78.6277	87.8906	78.4473	87.8906	78.5879	87.8906	78.4541	87.8906	78.5528	87.8906	78.4705	87.8906	78.5214	87.8906	78.4937
90.8203	79.9818	90.8203	79.9699	90.8203	79.9711	90.8203	79.9357	90.8203	79.939	90.8203	79.8802	90.8203	79.8875	90.8203	79.8056	90.8203	79.8194	90.8203	79.7152	90.8203	79.7386	90.8203	79.6132	90.8203	79.6494	90.8203	79.5045	90.8203	79.5567	90.8203	79.3948	90.8203	79.465	90.8203	79.2898	90.8203	79.3786	90.8203	79.1948	90.8203	79.301	90.8203	79.1144	90.8203	79.2343	90.8203	79.0517	90.8203	79.1792	90.8203	79.0079	90.8203	79.1349	90.8203	78.9824	90.8203	79.0997	90.8203	78.9729	90.8203	79.0711	90.8203	78.976	90.8203	79.0467	90.8203	78.9878	90.8203	79.0248	90.8203	79.0049
95.2148	80.9033	95.2148	80.8901	95.2148	80.8907	95.2148	80.8513	95.2148	80.8529	95.2148	80.7886	95.2148	80.7916	95.2148	80.7043	95.2148	80.7096	95.2148	80.6021	95.2148	80.6106	95.2148	80.4863	95.2148	80.4994	95.2148	80.362	95.2148	80.3812	95.2148	80.235	95.2148	80.2615	95.2148	80.1111	95.2148	80.1459	95.2148	79.9958	95.2148	80.0392	95.2148	79.8939	95.2148	79.9449	95.2148	79.8089	95.2148	79.8652	95.2148	79.7426	95.2148	79.8007	95.2148	79.6952	95.2148	79.7503	95.2148	79.665	95.2148	79.7122	95.2148	79.6495	95.2148	79.684	95.2148	79.6457	95.2148	79.664	95.2148	79.6511
98.1445	81.4944	98.1445	81.4767	98.1445	81.4839	98.1445	81.4317	98.1445	81.4459	98.1445	81.3609	98.1445	81.3819	98.1445	81.2672	98.1445	81.2947	98.1445	81.1545	98.1445	81.1879	98.1445	81.0275	98.1445	81.0665	98.1445	80.8916	98.1445	80.9357	98.1445	80.753	98.1445	80.8017	98.1445	80.6176	98.1445	80.6704	98.1445	80.4912	98.1445	80.5472	98.1445	80.3788	98.1445	80.4367	98.1445	80.284	98.1445	80.3417	98.1445	80.2085	98.1445	80.2636	98.1445	80.1526	98.1445	80.2021	98.1445	80.115	98.1445	80.1556	98.1445	80.0932	98.1445	80.1222	98.1445	80.0847	98.1445	80.0998	98.1445	80.0873
101.074	82.0273	101.074	82.0027	101.074	82.0202	101.074	81.9472	101.074	81.9822	101.074	81.8625	101.074	81.915	101.074	81.7516	101.074	81.8216	101.074	81.6189	101.074	81.7059	101.074	81.4696	101.074	81.5731	101.074	81.3103	101.074	81.4288	101.074	81.1481	101.074	81.2796	101.074	80.9904	101.074	81.1318	101.074	80.8442	101.074	80.9914	101.074	80.7156	101.074	80.8633	101.074	80.6087	101.074	80.7512	101.074	80.5257	101.074	80.6567	101.074	80.4665	101.074	80.5799	101.074	80.4293	101.074	80.5196	101.074	80.411	101.074	80.4737	101.074	80.4084	101.074	80.4405	101.074	80.4187
105.469	82.7732	105.469	82.7765	105.469	82.7376	105.469	82.7471	105.469	82.6713	105.469	82.6857	105.469	82.5768	105.469	82.5941	105.469	82.4578	105.469	82.4753	105.469	82.3191	105.469	82.3334	105.469	82.1663	105.469	82.1738	105.469	82.0055	105.469	82.003	105.469	81.8433	105.469	81.8281	105.469	81.6861	105.469	81.6569	105.469	81.5398	105.469	81.4969	105.469	81.4088	105.469	81.3547	105.469	81.2963	105.469	81.2351	105.469	81.2034	105.469	81.1408	105.469	81.1298	105.469	81.0722	105.469	81.0741	105.469	81.0277	105.469	81.0344	105.469	81.0043	105.469	81.0095	105.469	80.9991
108.398	83.1949	108.398	83.2043	108.398	83.1564	108.398	83.184	108.398	83.0902	108.398	83.1347	108.398	82.9989	108.398	83.0582	108.398	82.8862	108.398	82.9573	108.398	82.7565	108.398	82.8356	108.398	82.6153	108.398	82.698	108.398	82.4684	108.398	82.5498	108.398	82.3218	108.398	82.3971	108.398	82.1814	108.398	82.2463	108.398	82.052	108.398	82.1035	108.398	81.9377	108.398	81.9741	108.398	81.8408	108.398	81.8624	108.398	81.762	108.398	81.7711	108.398	81.701	108.398	81.7013	108.398	81.6564	108.398	81.6522	108.398	81.6266	108.398	81.6222	108.398	81.6109	108.398	81.609
112.793	83.8455	112.793	83.8601	112.793	83.8025	112.793	83.8461	112.793	83.7326	112.793	83.8047	112.793	83.6382	112.793	83.738	112.793	83.5232	112.793	83.6492	112.793	83.3926	112.793	83.5423	112.793	83.2522	112.793	83.422	112.793	83.1084	112.793	83.2937	112.793	82.9679	112.793	83.1627	112.793	82.8371	112.793	83.0342	112.793	82.7211	112.793	82.9132	112.793	82.6238	112.793	82.8033	112.793	82.5471	112.793	82.7073	112.793	82.491	112.793	82.6267	112.793	82.4539	112.793	82.5615	112.793	82.4334	112.793	82.5108	112.793	82.4266	112.793	82.4732	112.793	82.4316	112.793	82.4471
117.188	84.353	117.188	84.3496	117.188	84.3305	117.188	84.321	117.188	84.2825	117.188	84.2692	117.188	84.2102	117.188	84.1967	117.188	84.1162	117.188	84.1072	117.188	84.0039	117.188	84.005	117.188	83.8783	117.188	83.8949	117.188	83.7451	117.188	83.7822	117.188	83.6108	117.188	83.6718	117.188	83.4823	117.188	83.568	117.188	83.3658	117.188	83.4739	117.188	83.2666	117.188	83.3914	117.188	83.188	117.188	83.3211	117.188	83.1313	117.188	83.262	117.188	83.0957	117.188	83.2127	117.188	83.079	117.188	83.1716	117.188	83.078	117.188	83.1373	117.188	83.0891	117.188	83.1096
120.117	84.7364	120.117	84.7264	120.117	84.7196	120.117	84.691	120.117	84.6758	120.117	84.6322	120.117	84.606	120.117	84.553	120.117	84.5124	120.117	84.4573	120.117	84.3981	120.117	84.3495	120.117	84.2681	120.117	84.2346	120.117	84.1281	120.117	84.1177	120.117	83.9851	120.117	84.0038	120.117	83.8463	120.117	83.8974	120.117	83.7189	120.117	83.8016	120.117	83.609	120.117	83.7182	120.117	83.5209	120.117	83.6475	120.117	83.4569	120.117	83.5884	120.117	83.4165	120.117	83.5389	120.117	83.3976	120.117	83.497	120.117	83.3964	120.117	83.4612	120.117	83.409	120.117	83.4315
124.512	85.3121	124.512	85.2902	124.512	85.3041	124.512	85.2395	124.512	85.2666	124.512	85.1627	124.512	85.2013	124.512	85.0635	124.512	85.1114	124.512	84.9473	124.512	85.0014	124.512	84.8201	124.512	84.877	124.512	84.6889	124.512	84.7452	124.512	84.5609	124.512	84.6131	124.512	84.4428	124.512	84.488	124.512	84.3402	124.512	84.3763	124.512	84.2568	124.512	84.2827	124.512	84.1939	124.512	84.21	124.512	84.1507	124.512	84.1582	124.512	84.124	124.512	84.1252	124.512	84.1096	124.512	84.1072	124.512	84.1029	124.512	84.0996	124.512	84.1	124.512	84.0978	124.512	84.0984
128.906	85.8471	128.906	85.8285	128.906	85.8335	128.906	85.7788	128.906	85.7882	128.906	85.7005	128.906	85.7134	128.906	85.598	128.906	85.6128	128.906	85.4768	128.906	85.4917	128.906	85.3439	128.906	85.3568	128.906	85.2072	128.906	85.216	128.906	85.0749	128.906	85.0779	128.906	84.9549	128.906	84.9506	128.906	84.8534	128.906	84.8414	128.906	84.7746	128.906	84.7554	128.906	84.7197	128.906	84.6948	128.906	84.6866	128.906	84.6587	128.906	84.671	128.906	84.6431	128.906	84.6669	128.906	84.6424	128.906	84.668	128.906	84.6498	128.906	84.6689	128.906	84.6592	128.906	84.6663
133.301	86.3534	133.301	86.3321	133.301	86.3389	133.301	86.2756	133.301	86.2892	133.301	86.1861	133.301	86.2069	133.301	86.0675	133.301	86.0957	133.301	85.9253	133.301	85.9612	133.301	85.7666	133.301	85.8102	133.301	85.6	133.301	85.6509	133.301	85.4351	133.301	85.4922	133.301	85.2814	133.301	85.3433	133.301	85.1478	133.301	85.2119	133.301	85.0407	133.301	85.1042	133.301	84.9632	133.301	85.0229	133.301	84.9145	133.301	84.9677	133.301	84.8904	133.301	84.9348	133.301	84.8843	133.301	84.9183	133.301	84.8885	133.301	84.9114	133.301	84.8964	133.301	84.9079	133.301	84.9034
139.16	86.6721	139.16	86.6616	139.16	86.6505	139.16	86.6193	139.16	86.5977	139.16	86.5474	139.16	86.5161	139.16	86.4491	139.16	86.4095	139.16	86.3295	139.16	86.2834	139.16	86.1945	139.16	86.1442	139.16	86.0514	139.16	85.9993	139.16	85.9079	139.16	85.8566	139.16	85.7719	139.16	85.7239	139.16	85.6502	139.16	85.6076	139.16	85.5481	139.16	85.5125	139.16	85.4685	139.16	85.4406	139.16	85.4116	139.16	85.3912	139.16	85.3749	139.16	85.3611	139.16	85.3541	139.16	85.3457	139.16	85.3441	139.16	85.3396	139.16	85.3402	139.16	85.3383	139.16	85.3387
143.555	86.7417	143.555	86.7304	143.555	86.7173	143.555	86.684	143.555	86.6585	143.555	86.6053	143.555	86.5686	143.555	86.4988	143.555	86.4528	143.555	86.3711	143.555	86.3181	143.555	86.2302	143.555	86.1732	143.555	86.0856	143.555	86.0275	143.555	85.9469	143.555	85.8908	143.555	85.8234	143.555	85.7717	143.555	85.7223	143.555	85.6768	143.555	85.6482	143.555	85.6097	143.555	85.6016	143.555	85.5703	143.555	85.5798	143.555	85.555	143.555	85.5767	143.555	85.5579	143.555	85.585	143.555	85.5714	143.555	85.5969	143.555	85.588	143.555	85.606	143.555	85.6016	143.555	85.6081
147.949	87.0907	147.949	87.079	147.949	87.0595	147.949	87.0251	147.949	86.9868	147.949	86.9317	147.949	86.8759	147.949	86.8038	147.949	86.7326	147.949	86.6482	147.949	86.5648	147.949	86.4742	147.949	86.3824	147.949	86.2925	147.949	86.1972	147.949	86.1152	147.949	86.0219	147.949	85.9542	147.949	85.8686	147.949	85.8203	147.949	85.7474	147.949	85.7207	147.949	85.664	147.949	85.6584	147.949	85.619	147.949	85.6309	147.949	85.6075	147.949	85.6311	147.949	85.6203	147.949	85.6486	147.949	85.6461	147.949	85.6721	147.949	85.6735	147.949	85.6916	147.949	85.6932	147.949	85.6997
153.809	87.5039	153.809	87.4892	153.809	87.4794	153.809	87.4364	153.809	87.4165	153.809	87.348	153.809	87.3178	153.809	87.2285	153.809	87.1876	153.809	87.0843	153.809	87.0323	153.809	86.9232	153.809	86.8601	153.809	86.7548	153.809	86.6807	153.809	86.5894	153.809	86.5054	153.809	86.4376	153.809	86.3456	153.809	86.3087	153.809	86.2116	153.809	86.2092	153.809	86.1112	153.809	86.1419	153.809	86.0476	153.809	86.1051	153.809	86.0192	153.809	86.0928	153.809	86.0194	153.809	86.0959	153.809	86.0383	153.809	86.1045	153.809	86.0651	153.809	86.1098	153.809	86.0898	153.809	86.1055
159.668	87.3676	159.668	87.349	159.668	87.3441	159.668	87.2896	159.668	87.2798	159.668	87.1928	159.668	87.1779	159.668	87.0641	159.668	87.044	159.668	86.911	159.668	86.8854	159.668	86.7427	159.668	86.7115	159.668	86.5695	159.668	86.5326	159.668	86.4022	159.668	86.3595	159.668	86.2506	159.668	86.2022	159.668	86.1227	159.668	86.069	159.668	86.0234	159.668	85.9654	159.668	85.9537	159.668	85.8936	159.668	85.9109	159.668	85.8516	159.668	85.8894	159.668	85.8348	159.668	85.8817	159.668	85.8359	159.668	85.8801	159.668	85.8471	159.668	85.8783	159.668	85.8609	159.668	85.8721
165.527	87.486	165.527	87.4636	165.527	87.4585	165.527	87.3929	165.527	87.3826	165.527	87.2781	165.527	87.2623	165.527	87.1263	165.527	87.1048	165.527	86.9473	165.527	86.92	165.527	86.7536	165.527	86.7206	165.527	86.5594	165.527	86.5212	165.527	86.3792	165.527	86.3368	165.527	86.2264	165.527	86.1809	165.527	86.1103	165.527	86.063	165.527	86.0348	165.527	85.9872	165.527	85.9977	165.527	85.9514	165.527	85.9916	165.527	85.9481	165.527	86.006	165.527	85.9672	165.527	86.0294	165.527	85.9974	165.527	86.0518	165.527	86.0288	165.527	86.0655	165.527	86.0535	165.527	86.0665
171.387	87.8383	171.387	87.8162	171.387	87.8068	171.387	87.7418	171.387	87.7227	171.387	87.618	171.387	87.5887	171.387	87.4499	171.387	87.41	171.387	87.2452	171.387	87.1943	171.387	87.0143	171.387	86.9525	171.387	86.7708	171.387	86.6988	171.387	86.531	171.387	86.4506	171.387	86.3123	171.387	86.2267	171.387	86.1315	171.387	86.0446	171.387	86.0008	171.387	85.9173	171.387	85.9249	171.387	85.8491	171.387	85.8999	171.387	85.8352	171.387	85.9136	171.387	85.8619	171.387	85.9491	171.387	85.911	171.387	85.9885	171.387	85.9637	171.387	86.0166	171.387	86.0044	171.387	86.0231
177.246	87.9819	177.246	87.9558	177.246	87.9598	177.246	87.8828	177.246	87.8904	177.246	87.7664	177.246	87.7769	177.246	87.6128	177.246	87.6251	177.246	87.4303	177.246	87.4433	177.246	87.2297	177.246	87.2418	177.246	87.0237	177.246	87.0337	177.246	86.8264	177.246	86.8329	177.246	86.6517	177.246	86.6538	177.246	86.5116	177.246	86.5087	177.246	86.4138	177.246	86.4061	177.246	86.3604	177.246	86.3483	177.246	86.3465	177.246	86.3315	177.246	86.3622	177.246	86.3462	177.246	86.394	177.246	86.3791	177.246	86.4277	177.246	86.4163	177.246	86.4518	177.246	86.4455	177.246	86.4585
183.105	88.0331	183.105	88.0065	183.105	88.0074	183.105	87.9292	183.105	87.9303	183.105	87.8049	183.105	87.805	183.105	87.64	183.105	87.6375	183.105	87.4432	183.105	87.4364	183.105	87.2261	183.105	87.2136	183.105	87.0027	183.105	86.9835	183.105	86.7882	183.105	86.7626	183.105	86.5983	183.105	86.5675	183.105	86.446	183.105	86.4122	183.105	86.3397	183.105	86.3057	183.105	86.2812	183.105	86.2498	183.105	86.2654	183.105	86.2385	183.105	86.281	183.105	86.2599	183.105	86.314	183.105	86.2987	183.105	86.3496	183.105	86.3398	183.105	86.3755	183.105	86.3708	183.105	86.3836
188.965	88.0267	188.965	88.0008	188.965	87.9976	188.965	87.921	188.965	87.9147	188.965	87.7912	188.965	87.7819	188.965	87.6183	188.965	87.6056	188.965	87.4122	188.965	87.3956	188.965	87.1863	188.965	87.1643	188.965	86.9568	188.965	86.9275	188.965	86.7415	188.965	86.7032	188.965	86.558	188.965	86.5098	188.965	86.4206	188.965	86.363	188.965	86.3371	188.965	86.2726	188.965	86.307	188.965	86.2396	188.965	86.3216	188.965	86.256	188.965	86.3658	188.965	86.3069	188.965	86.4219	188.965	86.374	188.965	86.4731	188.965	86.4393	188.965	86.5058	188.965	86.4884	188.965	86.5118
196.289	88.0755	196.289	88.0458	196.289	88.0474	196.289	87.9591	196.289	87.9628	196.289	87.8195	196.289	87.8261	196.289	87.6338	196.289	87.6444	196.289	87.4124	196.289	87.4278	196.289	87.1692	196.289	87.1896	196.289	86.9217	196.289	86.9465	196.289	86.6895	196.289	86.7172	196.289	86.4925	196.289	86.5205	196.289	86.3474	196.289	86.3729	196.289	86.2636	196.289	86.2841	196.289	86.2412	196.289	86.2554	196.289	86.2702	196.289	86.2781	196.289	86.3334	196.289	86.3362	196.289	86.4101	196.289	86.4097	196.289	86.4806	196.289	86.479	196.289	86.5292	196.289	86.5279	196.289	86.546
203.613	87.8018	203.613	87.7646	203.613	87.7734	203.613	87.6631	203.613	87.6809	203.613	87.5017	203.613	87.5287	203.613	87.2881	203.613	87.3246	203.613	87.0341	203.613	87.0799	203.613	86.7557	203.613	86.8103	203.613	86.4734	203.613	86.5353	203.613	86.2113	203.613	86.2778	203.613	85.9937	203.613	86.0611	203.613	85.8415	203.613	85.9054	203.613	85.766	203.613	85.822	203.613	85.7658	203.613	85.811	203.613	85.8269	203.613	85.86	203.613	85.926	203.613	85.9478	203.613	86.0367	203.613	86.0494	203.613	86.1348	203.613	86.1412	203.613	86.2016	203.613	86.2041	203.613	86.2258
210.938	87.9462	210.938	87.9225	210.938	87.8987	210.938	87.828	210.938	87.7819	210.938	87.6656	210.938	87.6004	210.938	87.4411	210.938	87.3617	210.938	87.1643	210.938	87.0769	210.938	86.8493	210.938	86.7617	210.938	86.5155	210.938	86.4363	210.938	86.187	210.938	86.1251	210.938	85.8911	210.938	85.8539	210.938	85.6538	210.938	85.6458	210.938	85.4944	210.938	85.5154	210.938	85.4197	210.938	85.4646	210.938	85.422	210.938	85.4817	210.938	85.4807	210.938	85.5444	210.938	85.5685	210.938	85.6261	210.938	85.6581	210.938	85.7012	210.938	85.7267	210.938	85.7496	210.938	85.7592
218.262	88.086	218.262	88.0647	218.262	88.042	218.262	87.979	218.262	87.9331	218.262	87.8318	218.262	87.7617	218.262	87.6278	218.262	87.5326	218.262	87.3748	218.262	87.2538	218.262	87.0839	218.262	86.9374	218.262	86.7708	218.262	86.6006	218.262	86.4553	218.262	86.266	218.262	86.1606	218.262	85.9595	218.262	85.9102	218.262	85.7067	218.262	85.7228	218.262	85.5271	218.262	85.6075	218.262	85.4285	218.262	85.5606	218.262	85.405	218.262	85.5663	218.262	85.4383	218.262	85.6019	218.262	85.504	218.262	85.6432	218.262	85.5769	218.262	85.67	218.262	85.6365	218.262	85.6692
225.586	87.7505	225.586	87.7255	225.586	87.7088	225.586	87.6355	225.586	87.6016	225.586	87.4849	225.586	87.4326	225.586	87.2812	225.586	87.209	225.586	87.0352	225.586	86.9421	225.586	86.762	225.586	86.6478	225.586	86.4807	225.586	86.3472	225.586	86.214	225.586	86.0656	225.586	85.9857	225.586	85.8301	225.586	85.8167	225.586	85.6639	225.586	85.7197	225.586	85.5802	225.586	85.6957	225.586	85.578	225.586	85.7333	225.586	85.6415	225.586	85.8116	225.586	85.7456	225.586	85.9056	225.586	85.862	225.586	85.9912	225.586	85.9656	225.586	86.049	225.586	86.0372	225.586	86.066
232.91	87.5965	232.91	87.5538	232.91	87.5598	232.91	87.4333	232.91	87.4449	232.91	87.2399	232.91	87.2557	232.91	86.9822	232.91	86.9998	232.91	86.6737	232.91	86.6888	232.91	86.3342	232.91	86.3406	232.91	85.9895	232.91	85.9798	232.91	85.6714	232.91	85.6384	232.91	85.4133	232.91	85.3523	232.91	85.243	232.91	85.1544	232.91	85.1747	232.91	85.0649	232.91	85.2035	232.91	85.0833	232.91	85.3065	232.91	85.1883	232.91	85.4501	232.91	85.3448	232.91	85.5992	232.91	85.5148	232.91	85.7233	232.91	85.6648	232.91	85.8004	232.91	85.7705	232.91	85.8174
241.699	87.8793	241.699	87.8529	241.699	87.8225	241.699	87.7443	241.699	87.6832	241.699	87.5563	241.699	87.4642	241.699	87.2944	241.699	87.1711	241.699	86.9679	241.699	86.8137	241.699	86.5916	241.699	86.4072	241.699	86.1872	241.699	85.9745	241.699	85.7851	241.699	85.5469	241.699	85.422	241.699	85.1635	241.699	85.1358	241.699	84.8655	241.699	84.9556	241.699	84.6857	241.699	84.8912	241.699	84.636	241.699	84.9286	241.699	84.7016	241.699	85.0346	241.699	84.8457	241.699	85.1669	241.699	85.0222	241.699	85.2856	241.699	85.1882	241.699	85.3597	241.699	85.3108	241.699	85.3702
250.488	87.4029	250.488	87.3337	250.488	87.3889	250.488	87.1839	250.488	87.2907	250.488	86.9577	250.488	87.1096	250.488	86.6623	250.488	86.8497	250.488	86.3081	250.488	86.5184	250.488	85.9108	250.488	86.1286	250.488	85.4933	250.488	85.6995	250.488	85.0863	250.488	85.2587	250.488	84.7264	250.488	84.8415	250.488	84.4493	250.488	84.488	250.488	84.2793	250.488	84.2345	250.488	84.2204	250.488	84.1026	250.488	84.254	250.488	84.0897	250.488	84.3464	250.488	84.1694	250.488	84.4586	250.488	84.3005	250.488	84.5558	250.488	84.4395	250.488	84.6118	250.488	84.5508	250.488	84.6113
259.277	87.7969	259.277	87.7429	259.277	87.7567	259.277	87.5951	259.277	87.6232	259.277	87.3558	259.277	87.3989	259.277	87.0303	259.277	87.0881	259.277	86.6276	259.277	86.6991	259.277	86.1628	259.277	86.2457	259.277	85.6595	259.277	85.7507	259.277	85.1527	259.277	85.2481	259.277	84.6885	259.277	84.7836	259.277	84.3188	259.277	84.4081	259.277	84.0871	259.277	84.1641	259.277	84.0102	259.277	84.0685	259.277	84.0694	259.277	84.1053	259.277	84.2171	259.277	84.2318	259.277	84.3964	259.277	84.3958	259.277	84.5571	259.277	84.5498	259.277	84.6645	259.277	84.6584	259.277	84.6996
268.066	88.2008	268.066	88.1575	268.066	88.1688	268.066	88.0388	268.066	88.0628	268.066	87.8458	268.066	87.8851	268.066	87.5816	268.066	87.6392	268.066	87.2521	268.066	87.3303	268.066	86.8667	268.066	86.9668	268.066	86.4407	268.066	86.5617	268.066	85.9967	268.066	86.1348	268.066	85.5657	268.066	85.714	268.066	85.1852	268.066	85.3331	268.066	84.8918	268.066	85.0266	268.066	84.7101	268.066	84.8197	268.066	84.6418	268.066	84.719	268.066	84.6638	268.066	84.7089	268.066	84.7376	268.066	84.7575	268.066	84.8222	268.066	84.8272	268.066	84.8851	268.066	84.8848	268.066	84.9074
276.855	87.4888	276.855	87.4289	276.855	87.4566	276.855	87.2777	276.855	87.3339	276.855	87.0391	276.855	87.1251	276.855	86.7207	276.855	86.8378	276.855	86.3356	276.855	86.4842	276.855	85.9045	276.855	86.0829	276.855	85.4573	276.855	85.6603	276.855	85.0343	276.855	85.2517	276.855	84.6822	276.855	84.8991	276.855	84.445	276.855	84.6442	276.855	84.3493	276.855	84.5165	276.855	84.3932	276.855	84.5211	276.855	84.5456	276.855	84.6356	276.855	84.7585	276.855	84.8175	276.855	84.9813	276.855	85.0177	276.855	85.1713	276.855	85.1921	276.855	85.2986	276.855	85.308	276.855	85.3459
287.109	87.4457	287.109	87.4236	287.109	87.3751	287.109	87.306	287.109	87.2161	287.109	87.0922	287.109	86.9749	287.109	86.7843	287.109	86.6593	287.109	86.3889	287.109	86.2805	287.109	85.9192	287.109	85.8535	287.109	85.3981	287.109	85.4001	287.109	84.8617	287.109	84.9503	287.109	84.3607	287.109	84.5426	287.109	83.9561	287.109	84.2196	287.109	83.7039	287.109	84.0166	287.109	83.6323	287.109	83.9484	287.109	83.7245	287.109	84.0012	287.109	83.9252	287.109	84.1366	287.109	84.164	287.109	84.3055	287.109	84.3789	287.109	84.4604	287.109	84.5279	287.109	84.5639	287.109	84.5905
297.363	87.9422	297.363	87.8967	297.363	87.884	297.363	87.7499	297.363	87.7194	297.363	87.5036	297.363	87.4459	297.363	87.1589	297.363	87.064	297.363	86.719	297.363	86.579	297.363	86.1925	297.363	86.0056	297.363	85.5982	297.363	85.3721	297.363	84.9708	297.363	84.7252	297.363	84.3643	297.363	84.1307	297.363	83.8472	297.363	83.6638	297.363	83.4849	297.363	83.3853	297.363	83.3149	297.363	83.3131	297.363	83.3289	297.363	83.4129	297.363	83.4786	297.363	83.6156	297.363	83.6971	297.363	83.846	297.363	83.9186	297.363	84.0413	297.363	84.09	297.363	84.1586	297.363	84.1757
307.617	87.8618	307.617	87.8341	307.617	87.8069	307.617	87.7224	307.617	87.6711	307.617	87.5263	307.617	87.4562	307.617	87.2469	307.617	87.1637	307.617	86.888	307.617	86.7961	307.617	86.4578	307.617	86.3598	307.617	85.9725	307.617	85.8689	307.617	85.4611	307.617	85.3513	307.617	84.9693	307.617	84.8527	307.617	84.5569	307.617	84.4342	307.617	84.2826	307.617	84.1574	307.617	84.1795	307.617	84.058	307.617	84.2354	307.617	84.1257	307.617	84.3988	307.617	84.3084	307.617	84.6029	307.617	84.5359	307.617	84.7879	307.617	84.7449	307.617	84.9113	307.617	84.8906	307.617	84.9484
319.336	87.4623	319.336	87.411	319.336	87.4136	319.336	87.2605	319.336	87.2643	319.336	87.0122	319.336	87.0142	319.336	86.6684	319.336	86.6648	319.336	86.2341	319.336	86.2203	319.336	85.7194	319.336	85.6909	319.336	85.1441	319.336	85.0975	319.336	84.5443	319.336	84.4783	319.336	83.9776	319.336	83.8946	319.336	83.5224	319.336	83.4283	319.336	83.2568	319.336	83.1593	319.336	83.2205	319.336	83.1265	319.336	83.3873	319.336	83.3014	319.336	83.6771	319.336	83.6026	319.336	83.9961	319.336	83.936	319.336	84.2678	319.336	84.2255	319.336	84.4432	319.336	84.4212	319.336	84.4967
329.59	87.2862	329.59	87.2396	329.59	87.2279	329.59	87.0893	329.59	87.0652	329.59	86.8389	329.59	86.7999	329.59	86.4948	329.59	86.4351	329.59	86.0672	329.59	85.9761	329.59	85.5715	329.59	85.4339	329.59	85.0311	329.59	84.8299	329.59	84.4816	329.59	84.2028	329.59	83.9751	329.59	83.6141	329.59	83.5764	329.59	83.1452	329.59	83.3466	329.59	82.8757	329.59	83.3142	329.59	82.8449	329.59	83.4555	329.59	83.026	329.59	83.7025	329.59	83.3395	329.59	83.9735	329.59	83.6922	329.59	84.1987	329.59	84.0074	329.59	84.331	329.59	84.2343	329.59	84.3452
341.309	87.4818	341.309	87.4048	341.309	87.4493	341.309	87.2187	341.309	87.3076	341.309	86.9235	341.309	87.0572	341.309	86.52	341.309	86.6999	341.309	86.0112	341.309	86.2394	341.309	85.405	341.309	85.6831	341.309	84.72	341.309	85.0461	341.309	83.9923	341.309	84.3568	341.309	83.2843	341.309	83.6648	341.309	82.6862	341.309	83.0453	341.309	82.2977	341.309	82.5898	341.309	82.1812	341.309	82.3718	341.309	82.3188	341.309	82.4035	341.309	82.6189	341.309	82.6236	341.309	82.9668	341.309	82.9298	341.309	83.2679	341.309	83.2236	341.309	83.4618	341.309	83.4338	341.309	83.5188
353.027	87.4924	353.027	87.4241	353.027	87.4449	353.027	87.2387	353.027	87.2812	353.027	86.9333	353.027	86.9994	353.027	86.5045	353.027	86.5976	353.027	85.9507	353.027	86.0755	353.027	85.276	353.027	85.439	353.027	84.4985	353.027	84.7067	353.027	83.6619	353.027	83.9221	353.027	82.8515	353.027	83.166	353.027	82.2001	353.027	82.5589	353.027	81.8535	353.027	82.2265	353.027	81.8856	353.027	82.228	353.027	82.2361	353.027	82.5096	353.027	82.7524	353.027	82.9433	353.027	83.2812	353.027	83.3978	353.027	83.7158	353.027	83.7773	353.027	83.9973	353.027	84.0225	353.027	84.1006
366.211	87.8208	366.211	87.806	366.211	87.744	366.211	87.6961	366.211	87.5776	366.211	87.4868	366.211	87.3218	366.211	87.173	366.211	86.9748	366.211	86.75	366.211	86.5337	366.211	86.2142	366.211	85.9963	366.211	85.5676	366.211	85.3658	366.211	84.8247	366.211	84.659	366.211	84.0245	366.211	83.9171	366.211	83.243	366.211	83.2172	366.211	82.5944	366.211	82.667	366.211	82.1972	366.211	82.366	366.211	82.1063	366.211	82.343	366.211	82.2726	366.211	82.5311	366.211	82.5766	366.211	82.8106	366.211	82.8954	366.211	83.0697	366.211	83.1397	366.211	83.232	366.211	83.2583
379.395	87.8382	379.395	87.8209	379.395	87.748	379.395	87.694	379.395	87.5506	379.395	87.4545	379.395	87.2446	379.395	87.0982	379.395	86.8264	379.395	86.6218	379.395	86.2909	379.395	86.0245	379.395	85.634	379.395	85.3132	379.395	84.859	379.395	84.5114	379.395	83.9891	379.395	83.6729	379.395	83.0878	379.395	82.899	379.395	82.281	379.395	82.3346	379.395	81.7472	379.395	82.1105	379.395	81.6272	379.395	82.2465	379.395	81.9048	379.395	82.6278	379.395	82.4145	379.395	83.0873	379.395	82.9661	379.395	83.4894	379.395	83.4268	379.395	83.7527	379.395	83.7265	379.395	83.8366
392.578	87.5452	392.578	87.4837	392.578	87.5038	392.578	87.3227	392.578	87.3547	392.578	87.0641	392.578	87.0923	392.578	86.7076	392.578	86.7109	392.578	86.2501	392.578	86.2058	392.578	85.6872	392.578	85.5763	392.578	85.0173	392.578	84.8307	392.578	84.2516	392.578	83.9944	392.578	83.4281	392.578	83.1231	392.578	82.6297	392.578	82.3158	392.578	81.9874	392.578	81.7102	392.578	81.6395	392.578	81.4317	392.578	81.6431	392.578	81.5082	392.578	81.9223	392.578	81.8425	392.578	82.3233	392.578	82.278	392.578	82.7012	392.578	82.6767	392.578	82.9594	392.578	82.9486	392.578	83.0472
405.762	87.8993	405.762	87.8431	405.762	87.842	405.762	87.6725	405.762	87.6711	405.762	87.3857	405.762	87.3853	405.762	86.9799	405.762	86.9812	405.762	86.452	405.762	86.4538	405.762	85.8005	405.762	85.7968	405.762	85.0306	405.762	85.0081	405.762	84.1648	405.762	84.1003	405.762	83.2601	405.762	83.1216	405.762	82.4302	405.762	82.1869	405.762	81.8444	405.762	81.4903	405.762	81.6535	405.762	81.229	405.762	81.8678	405.762	81.4412	405.762	82.337	405.762	81.9621	405.762	82.8642	405.762	82.568	405.762	83.3015	405.762	83.097	405.762	83.5663	405.762	83.4617	405.762	83.6224
420.41	87.239	420.41	87.1921	420.41	87.1817	420.41	87.0404	420.41	87.0188	420.41	86.7812	420.41	86.7462	420.41	86.41	420.41	86.3577	420.41	85.9201	420.41	85.8453	420.41	85.3041	420.41	85.2024	420.41	84.5579	420.41	84.4285	420.41	83.6909	420.41	83.5391	420.41	82.7451	420.41	82.5818	420.41	81.8253	420.41	81.6568	420.41	81.1157	420.41	80.9261	420.41	80.8165	420.41	80.5648	420.41	80.9836	420.41	80.6432	420.41	81.4605	420.41	81.0595	420.41	82.0123	420.41	81.6203	420.41	82.4626	420.41	82.1539	420.41	82.7189	420.41	82.5499	420.41	82.7475
435.059	88.098	435.059	88.1141	435.059	87.9669	435.059	88.0094	435.059	87.7272	435.059	87.7793	435.059	87.384	435.059	87.4196	435.059	86.9385	435.059	86.9256	435.059	86.3863	435.059	86.2905	435.059	85.7178	435.059	85.5085	435.059	84.9218	435.059	84.5823	435.059	83.9954	435.059	83.5418	435.059	82.9641	435.059	82.4776	435.059	81.9189	435.059	81.5734	435.059	81.0562	435.059	81.0719	435.059	80.641	435.059	81.1036	435.059	80.8031	435.059	81.5484	435.059	81.3817	435.059	82.1497	435.059	82.0818	435.059	82.6945	435.059	82.68	435.059	83.0612	435.059	83.0638	435.059	83.1919
451.172	87.7568	451.172	87.7976	451.172	87.6217	451.172	87.7365	451.172	87.3951	451.172	87.5619	451.172	87.0743	451.172	87.259	451.172	86.6503	451.172	86.8115	451.172	86.1075	451.172	86.2032	451.172	85.4242	451.172	85.421	451.172	84.5773	451.172	84.4633	451.172	83.5544	451.172	83.3608	451.172	82.3805	451.172	82.219	451.172	81.168	451.172	81.2691	451.172	80.1756	451.172	80.8185	451.172	79.7507	451.172	80.9932	451.172	80.0306	451.172	81.5804	451.172	80.7743	451.172	82.2536	451.172	81.6302	451.172	82.7928	451.172	82.3683	451.172	83.0965	451.172	82.8816	451.172	83.1284
465.82	87.82	465.82	87.8703	465.82	87.6564	465.82	87.8067	465.82	87.3814	465.82	87.6293	465.82	86.9979	465.82	87.3364	465.82	86.5073	465.82	86.9225	465.82	85.9086	465.82	86.3767	465.82	85.1967	465.82	85.6835	465.82	84.3626	465.82	84.8272	465.82	83.3966	465.82	83.8044	465.82	82.2989	465.82	82.6512	465.82	81.11	465.82	81.4914	465.82	79.9684	465.82	80.5771	465.82	79.159	465.82	80.1967	465.82	78.9876	465.82	80.4019	465.82	79.4578	465.82	80.9297	465.82	80.2443	465.82	81.4605	465.82	81.0125	465.82	81.7934	465.82	81.571	465.82	81.8384
483.398	88.0829	483.398	88.0843	483.398	87.9761	483.398	87.986	483.398	87.7577	483.398	87.7901	483.398	87.4222	483.398	87.4922	483.398	86.9644	483.398	87.0805	483.398	86.3784	483.398	86.5389	483.398	85.6581	483.398	85.8537	483.398	84.7988	483.398	85.0207	483.398	83.8037	483.398	84.0554	483.398	82.7013	483.398	83.0124	483.398	81.5815	483.398	82.0209	483.398	80.6428	483.398	81.3086	483.398	80.166	483.398	81.1056	483.398	80.3034	483.398	81.4185	483.398	80.8983	483.398	81.9936	483.398	81.6446	483.398	82.5435	483.398	82.3096	483.398	82.8935	483.398	82.7711	483.398	82.973
499.512	88.3079	499.512	88.2976	499.512	88.2263	499.512	88.1885	499.512	88.0588	499.512	87.9748	499.512	87.8073	499.512	87.6508	499.512	87.4661	499.512	87.2085	499.512	87.0205	499.512	86.6344	499.512	86.4468	499.512	85.912	499.512	85.716	499.512	85.0329	499.512	84.7996	499.512	84.0204	499.512	83.6825	499.512	82.9669	499.512	82.3934	499.512	82.0659	499.512	81.0781	499.512	81.5682	499.512	80.102	499.512	81.6014	499.512	79.9305	499.512	82.0397	499.512	80.5894	499.512	82.6243	499.512	81.5977	499.512	83.1361	499.512	82.5191	499.512	83.4403	499.512	83.1575	499.512	83.4612
517.09	88.1686	517.09	88.1556	517.09	88.0903	517.09	88.0485	517.09	87.9197	517.09	87.8384	517.09	87.6524	517.09	87.5107	517.09	87.2801	517.09	87.0448	517.09	86.7887	517.09	86.4158	517.09	86.155	517.09	85.5941	517.09	85.3459	517.09	84.5493	517.09	84.3228	517.09	83.265	517.09	83.056	517.09	81.7934	517.09	81.5664	517.09	80.3833	517.09	80.031	517.09	79.5859	517.09	78.9419	517.09	79.8316	517.09	78.9046	517.09	80.7893	517.09	79.8356	517.09	81.8449	517.09	81.0706	517.09	82.6591	517.09	82.1385	517.09	83.1172	517.09	82.8597	517.09	83.1873
536.133	88.1731	536.133	88.1272	536.133	88.1184	536.133	87.9808	536.133	87.9649	536.133	87.7341	536.133	87.7143	536.133	87.3834	536.133	87.3648	536.133	86.9169	536.133	86.9094	536.133	86.3132	536.133	86.3343	536.133	85.5439	536.133	85.6184	536.133	84.5812	536.133	84.7341	536.133	83.4112	536.133	83.6542	536.133	82.0702	536.133	82.3828	536.133	80.7311	536.133	81.0369	536.133	79.8119	536.133	79.9691	536.133	79.7742	536.133	79.6736	536.133	80.5238	536.133	80.2225	536.133	81.5102	536.133	81.1486	536.133	82.3211	536.133	82.015	536.133	82.793	536.133	82.6197	536.133	82.8892
555.176	88.3726	555.176	88.357	555.176	88.3067	555.176	88.2565	555.176	88.1642	555.176	88.0684	555.176	87.9503	555.176	87.7871	555.176	87.6646	555.176	87.3997	555.176	87.2934	555.176	86.8806	555.176	86.8046	555.176	86.1894	555.176	86.1505	555.176	85.2756	555.176	85.2784	555.176	84.0964	555.176	84.147	555.176	82.6601	555.176	82.7542	555.176	81.1242	555.176	81.2086	555.176	79.9417	555.176	79.8886	555.176	79.7083	555.176	79.4557	555.176	80.4246	555.176	80.124	555.176	81.4889	555.176	81.2802	555.176	82.4237	555.176	82.3196	555.176	83.0262	555.176	82.9889	555.176	83.224
574.219	88.3139	574.219	88.2592	574.219	88.2545	574.219	88.092	574.219	88.0858	574.219	87.8168	574.219	87.8166	574.219	87.4342	574.219	87.4532	574.219	86.9334	574.219	86.9943	574.219	86.2894	574.219	86.4264	574.219	85.4676	574.219	85.7207	574.219	84.4318	574.219	84.8296	574.219	83.1565	574.219	83.6888	574.219	81.6599	574.219	82.2403	574.219	80.1085	574.219	80.5185	574.219	79.0146	574.219	78.901	574.219	79.062	574.219	78.3278	574.219	80.1425	574.219	79.2403	574.219	81.4759	574.219	80.751	574.219	82.5452	574.219	82.0697	574.219	83.1698	574.219	82.937	574.219	83.3039
594.727	88.9389	594.727	88.8968	594.727	88.9052	594.727	88.7738	594.727	88.8004	594.727	88.5658	594.727	88.6248	594.727	88.2694	594.727	88.3683	594.727	87.8762	594.727	88.0077	594.727	87.3664	594.727	87.5062	594.727	86.7016	594.727	86.818	594.727	85.8209	594.727	85.8944	594.727	84.6452	594.727	84.691	594.727	83.0973	594.727	83.1837	594.727	81.183	594.727	81.4263	594.727	79.2647	594.727	79.7243	594.727	78.4084	594.727	78.8242	594.727	79.2049	594.727	79.2595	594.727	80.6293	594.727	80.4465	594.727	81.8096	594.727	81.6002	594.727	82.5043	594.727	82.3793	594.727	82.6894
615.234	88.4782	615.234	88.4674	615.234	88.3893	615.234	88.3629	615.234	88.2084	615.234	88.1797	615.234	87.9548	615.234	87.929	615.234	87.6497	615.234	87.6046	615.234	87.3011	615.234	87.1748	615.234	86.8894	615.234	86.5852	615.234	86.3632	615.234	85.7677	615.234	85.6465	615.234	84.6536	615.234	84.6535	615.234	83.1954	615.234	83.3171	615.234	81.4402	615.234	81.6695	615.234	79.7668	615.234	80.0794	615.234	79.1373	615.234	79.47	615.234	80.0516	615.234	80.3075	615.234	81.5919	615.234	81.7417	615.234	82.9128	615.234	82.9826	615.234	83.7375	615.234	83.7615	615.234	84.0185
637.207	89.2322	637.207	89.1674	637.207	89.17	637.207	88.9786	637.207	88.9901	637.207	88.6792	637.207	88.7102	637.207	88.2856	637.207	88.3458	637.207	87.8068	637.207	87.8999	637.207	87.2339	637.207	87.3582	637.207	86.5344	637.207	86.6877	637.207	85.6493	637.207	85.8354	637.207	84.4945	637.207	84.7233	637.207	82.9645	637.207	83.2499	637.207	80.9759	637.207	81.3249	637.207	78.7085	637.207	79.0633	637.207	77.3204	637.207	77.442	637.207	78.1765	637.207	77.9966	637.207	80.0499	637.207	79.8301	637.207	81.597	637.207	81.4452	637.207	82.5106	637.207	82.4369	637.207	82.7864
659.18	88.7617	659.18	88.6908	659.18	88.7629	659.18	88.5685	659.18	88.687	659.18	88.4149	659.18	88.5369	659.18	88.2385	659.18	88.3172	659.18	88.0237	659.18	88.0211	659.18	87.725	659.18	87.6207	659.18	87.269	659.18	87.0664	659.18	86.564	659.18	86.2932	659.18	85.5113	659.18	85.2269	659.18	84.0175	659.18	83.7873	659.18	82.0325	659.18	81.9059	659.18	79.7233	659.18	79.6481	659.18	78.0237	659.18	77.7187	659.18	78.3347	659.18	77.7025	659.18	79.9519	659.18	79.3787	659.18	81.4644	659.18	81.1044	659.18	82.3942	659.18	82.2292	659.18	82.656
682.617	88.5206	682.617	88.4661	682.617	88.4565	682.617	88.2972	682.617	88.2875	682.617	88.037	682.617	88.0395	682.617	87.72	682.617	87.7433	682.617	87.3716	682.617	87.4211	682.617	86.9859	682.617	87.0676	682.617	86.5142	682.617	86.6394	682.617	85.8713	682.617	86.0584	682.617	84.9489	682.617	85.2223	682.617	83.6319	682.617	84.0131	682.617	81.839	682.617	82.3187	682.617	79.7313	682.617	80.1743	682.617	78.3653	682.617	78.3755	682.617	79.1533	682.617	78.7013	682.617	81.0632	682.617	80.6495	682.617	82.6945	682.617	82.4566	682.617	83.6755	682.617	83.5755	682.617	83.9718
707.52	89.23	707.52	89.1331	707.52	89.1297	707.52	88.8525	707.52	88.8471	707.52	88.4276	707.52	88.4251	707.52	87.9175	707.52	87.9269	707.52	87.3833	707.52	87.4132	707.52	86.8568	707.52	86.9113	707.52	86.3097	707.52	86.3931	707.52	85.6475	707.52	85.7701	707.52	84.7243	707.52	84.8997	707.52	83.3529	707.52	83.5921	707.52	81.307	707.52	81.6207	707.52	78.4292	707.52	78.8175	707.52	75.7283	707.52	75.934	707.52	76.6911	707.52	76.2635	707.52	79.5694	707.52	78.9996	707.52	81.7091	707.52	81.2599	707.52	82.8667	707.52	82.6227	707.52	83.1515
732.422	88.9187	732.422	88.8673	732.422	88.8276	732.422	88.6688	732.422	88.6261	732.422	88.351	732.422	88.3574	732.422	87.9618	732.422	88.0582	732.422	87.5449	732.422	87.7468	732.422	87.1151	732.422	87.4124	732.422	86.6456	732.422	87.0048	732.422	86.0654	732.422	86.4371	732.422	85.2605	732.422	85.6078	732.422	84.077	732.422	84.4224	732.422	82.341	732.422	82.7891	732.422	79.9473	732.422	80.6035	732.422	77.3429	732.422	77.905	732.422	76.5416	732.422	75.8806	732.422	78.1319	732.422	76.763	732.422	79.8912	732.422	78.9201	732.422	80.9212	732.422	80.4686	732.422	81.1222
757.324	87.7454	757.324	87.5752	757.324	87.7203	757.324	87.2448	757.324	87.5118	757.324	86.8225	757.324	87.1861	757.324	86.3927	757.324	86.8409	757.324	86.026	757.324	86.5456	757.324	85.7368	757.324	86.2942	757.324	85.4558	757.324	86.0229	757.324	85.0474	757.324	85.6509	757.324	84.3527	757.324	85.0769	757.324	83.209	757.324	84.1517	757.324	81.432	757.324	82.6754	757.324	78.8196	757.324	80.452	757.324	75.6938	757.324	77.6601	757.324	75.2315	757.324	76.387	757.324	78.1047	757.324	78.321	757.324	80.6322	757.324	80.6401	757.324	82.0842	757.324	82.0727	757.324	82.5459
785.156	88.6901	785.156	88.545	785.156	88.5377	785.156	88.1149	785.156	88.0943	785.156	87.4372	785.156	87.3951	785.156	86.5836	785.156	86.5359	785.156	85.6651	785.156	85.7039	785.156	84.821	785.156	85.1149	785.156	84.1649	785.156	84.8082	785.156	83.681	785.156	84.5561	785.156	83.17	785.156	84.0458	785.156	82.315	785.156	83.0449	785.156	80.754	785.156	81.3963	785.156	78.0494	785.156	78.9579	785.156	73.7682	785.156	75.8124	785.156	71.5162	785.156	74.0496	785.156	75.727	785.156	76.234	785.156	79.0572	785.156	78.9713	785.156	80.793	785.156	80.6783	785.156	81.2852
811.523	89.302	811.523	89.3007	811.523	89.113	811.523	89.1196	811.523	88.7504	811.523	88.787	811.523	88.2634	811.523	88.3435	811.523	87.7198	811.523	87.8365	811.523	87.1813	811.523	87.3038	811.523	86.687	811.523	86.7521	811.523	86.2456	811.523	86.1421	811.523	85.8167	811.523	85.3943	811.523	85.2929	811.523	84.4103	811.523	84.5068	811.523	83.0727	811.523	83.2491	811.523	81.2088	811.523	81.2844	811.523	78.6195	811.523	78.4665	811.523	75.7733	811.523	75.6472	811.523	75.5748	811.523	75.8969	811.523	77.8883	811.523	78.1511	811.523	79.6614	811.523	79.7602	811.523	80.2751
840.82	88.9538	840.82	88.8822	840.82	88.7809	840.82	88.5479	840.82	88.3995	840.82	87.9756	840.82	87.8455	840.82	87.2478	840.82	87.161	840.82	86.4917	840.82	86.4198	840.82	85.8242	840.82	85.7233	840.82	85.2828	840.82	85.135	840.82	84.8097	840.82	84.6066	840.82	84.279	840.82	83.9912	840.82	83.4976	840.82	83.1247	840.82	82.1933	840.82	81.8705	840.82	80.0374	840.82	80.1097	840.82	76.8691	840.82	77.8409	840.82	74.6179	840.82	76.0554	840.82	76.7593	840.82	77.0549	840.82	79.5634	840.82	79.4736	840.82	81.2323	840.82	81.1761	840.82	81.7595
870.117	88.2512	870.117	88.1392	870.117	88.1164	870.117	87.795	870.117	87.734	870.117	87.2484	870.117	87.1219	870.117	86.5438	870.117	86.3286	870.117	85.736	870.117	85.4434	870.117	84.8918	870.117	84.5978	870.117	84.0845	870.117	83.9285	870.117	83.3478	870.117	83.4666	870.117	82.615	870.117	83.0415	870.117	81.7226	870.117	82.3464	870.117	80.4348	870.117	81.0729	870.117	78.4088	870.117	78.9676	870.117	75.2473	870.117	75.9829	870.117	72.1756	870.117	73.6894	870.117	74.2127	870.117	75.2598	870.117	77.494	870.117	77.907	870.117	79.405	870.117	79.5511	870.117	80.0463
900.879	87.0189	900.879	86.8715	900.879	86.9217	900.879	86.513	900.879	86.5551	900.879	85.9794	900.879	85.9328	900.879	85.3324	900.879	85.1435	900.879	84.6832	900.879	84.3575	900.879	84.1507	900.879	83.7481	900.879	83.7533	900.879	83.3522	900.879	83.3837	900.879	83.0379	900.879	82.9042	900.879	82.6164	900.879	82.1795	900.879	81.9115	900.879	80.9943	900.879	80.7189	900.879	78.9909	900.879	78.7573	900.879	75.7275	900.879	75.7937	900.879	71.9502	900.879	72.8866	900.879	73.1906	900.879	73.7823	900.879	76.4396	900.879	76.4264	900.879	78.2781	900.879	78.1745	900.879	78.7957
933.105	87.2516	933.105	87.1037	933.105	87.0724	933.105	86.6609	933.105	86.5538	933.105	85.9675	933.105	85.7211	933.105	85.0807	933.105	84.6739	933.105	84.0987	933.105	83.6082	933.105	83.2173	933.105	82.7659	933.105	82.6813	933.105	82.2982	933.105	82.5163	933.105	82.1561	933.105	82.4283	933.105	82.1107	933.105	82.0547	933.105	81.8456	933.105	81.0994	933.105	81.0241	933.105	79.2628	933.105	79.2771	933.105	76.1407	933.105	76.0932	933.105	71.8345	933.105	71.416	933.105	72.172	933.105	72.3076	933.105	76.1783	933.105	76.6002	933.105	78.659	933.105	78.9287	933.105	79.5434
965.332	87.1049	965.332	86.9931	965.332	86.8778	965.332	86.5418	965.332	86.3405	965.332	85.7784	965.332	85.5463	965.332	84.774	965.332	84.5606	965.332	83.6785	965.332	83.4675	965.332	82.7444	965.332	82.4447	965.332	82.2252	965.332	81.803	965.332	82.1188	965.332	81.7019	965.332	82.1254	965.332	81.8446	965.332	81.8887	965.332	81.747	965.332	81.1002	965.332	81.0213	965.332	79.4141	965.332	79.3224	965.332	76.3307	965.332	76.2166	965.332	71.7229	965.332	71.7927	965.332	71.5909	965.332	71.9477	965.332	75.4275	965.332	75.6532	965.332	77.6514	965.332	77.7754	965.332	78.3726
1000.49	87.5465	1000.49	87.357	1000.49	87.4199	1000.49	86.9173	1000.49	86.9086	1000.49	86.2615	1000.49	85.9822	1000.49	85.388	1000.49	84.7127	1000.49	84.3024	1000.49	83.3352	1000.49	83.0998	1000.49	82.1857	1000.49	82.037	1000.49	81.4554	1000.49	81.4389	1000.49	81.091	1000.49	81.325	1000.49	80.9522	1000.49	81.2638	1000.49	80.8149	1000.49	80.7002	1000.49	80.3214	1000.49	79.1552	1000.49	79.0213	1000.49	76.1242	1000.49	76.3117	1000.49	71.1589	1000.49	71.6783	1000.49	70.5526	1000.49	70.9531	1000.49	75.4018	1000.49	75.4566	1000.49	78.1526	1000.49	78.1122	1000.49	78.9644
1035.64	88.1433	1035.64	88.0499	1035.64	87.9644	1035.64	87.6831	1035.64	87.5008	1035.64	87.0282	1035.64	86.7347	1035.64	86.0528	1035.64	85.6512	1035.64	84.732	1035.64	84.2499	1035.64	83.1679	1035.64	82.6354	1035.64	81.7427	1035.64	81.2278	1035.64	80.9591	1035.64	80.6508	1035.64	80.8438	1035.64	80.8764	1035.64	80.8978	1035.64	81.2258	1035.64	80.6005	1035.64	81.1309	1035.64	79.5229	1035.64	80.1845	1035.64	77.147	1035.64	77.93	1035.64	72.7488	1035.64	73.8529	1035.64	69.516	1035.64	71.1865	1035.64	73.9981	1035.64	75.0432	1035.64	77.1728	1035.64	77.7236	1035.64	78.3426
1072.27	88.7513	1072.27	88.5722	1072.27	88.6055	1072.27	88.1227	1072.27	88.1268	1072.27	87.4642	1072.27	87.3497	1072.27	86.6153	1072.27	86.3268	1072.27	85.5692	1072.27	85.1138	1072.27	84.3819	1072.27	83.793	1072.27	83.2127	1072.27	82.537	1072.27	82.2604	1072.27	81.6566	1072.27	81.6947	1072.27	81.3595	1072.27	81.5136	1072.27	81.3213	1072.27	81.328	1072.27	80.9114	1072.27	80.4559	1072.27	79.6186	1072.27	78.1356	1072.27	77.0733	1072.27	73.4564	1072.27	73.3416	1072.27	69.4349	1072.27	71.8876	1072.27	74.1063	1072.27	74.6727	1072.27	77.0381	1072.27	76.9707	1072.27	77.8125
1108.89	89.5554	1108.89	89.3821	1108.89	89.4831	1108.89	88.9714	1108.89	89.1131	1108.89	88.3008	1108.89	88.376	1108.89	87.3434	1108.89	87.2282	1108.89	86.0694	1108.89	85.6958	1108.89	84.465	1108.89	83.9155	1108.89	82.6824	1108.89	82.1846	1108.89	81.3078	1108.89	80.9905	1108.89	81.0098	1108.89	80.7192	1108.89	81.3826	1108.89	81.0882	1108.89	81.4848	1108.89	81.3365	1108.89	80.7714	1108.89	80.765	1108.89	78.8311	1108.89	78.7406	1108.89	74.8824	1108.89	74.5152	1108.89	69.7787	1108.89	71.8656	1108.89	74.464	1108.89	76.5763	1108.89	78.5087	1108.89	79.4265	1108.89	79.9997
1148.44	89.5996	1148.44	89.3904	1148.44	89.5238	1148.44	88.9702	1148.44	89.1348	1148.44	88.3838	1148.44	88.4439	1148.44	87.5726	1148.44	87.4652	1148.44	86.4436	1148.44	86.2171	1148.44	85.0241	1148.44	84.7636	1148.44	83.5066	1148.44	83.2124	1148.44	82.1791	1148.44	81.704	1148.44	81.3851	1148.44	80.5617	1148.44	81.2321	1148.44	80.0977	1148.44	81.173	1148.44	79.9172	1148.44	80.4709	1148.44	79.1433	1148.44	78.6207	1148.44	76.9282	1148.44	75.2385	1148.44	72.4619	1148.44	72.23	1148.44	70.4964	1148.44	75.1607	1148.44	75.4335	1148.44	78.1466	1148.44	78.3487	1148.44	79.1726
1189.45	88.2252	1189.45	88.1067	1189.45	88.2008	1189.45	87.8391	1189.45	87.9531	1189.45	87.3289	1189.45	87.378	1189.45	86.4401	1189.45	86.4076	1189.45	85.0953	1189.45	85.0169	1189.45	83.4111	1189.45	83.252	1189.45	81.708	1189.45	81.332	1189.45	80.3413	1189.45	79.7364	1189.45	79.6802	1189.45	79.009	1189.45	79.8655	1189.45	79.1979	1189.45	80.1875	1189.45	79.6901	1189.45	79.7078	1189.45	79.5602	1189.45	77.7963	1189.45	77.7564	1189.45	73.9977	1189.45	72.5605	1189.45	71.9982	1189.45	68.3275	1189.45	76.2775	1189.45	76.1042	1189.45	79.2841	1189.45	79.4638	1189.45	80.3103
1230.47	87.7838	1230.47	87.6948	1230.47	87.5578	1230.47	87.2969	1230.47	87.0729	1230.47	86.6178	1230.47	86.4219	1230.47	85.6747	1230.47	85.6027	1230.47	84.4518	1230.47	84.4636	1230.47	82.9637	1230.47	82.883	1230.47	81.41	1230.47	80.9801	1230.47	80.15	1230.47	79.1315	1230.47	79.3898	1230.47	77.9436	1230.47	79.0392	1230.47	77.856	1230.47	78.7415	1230.47	78.2189	1230.47	77.9333	1230.47	77.9551	1230.47	75.9423	1230.47	76.2859	1230.47	71.9426	1230.47	72.08	1230.47	69.9823	1230.47	65.5874	1230.47	75.0243	1230.47	72.9654	1230.47	78.084	1230.47	77.3814	1230.47	78.833
1274.41	85.9238	1274.41	85.9398	1274.41	85.5958	1274.41	85.6611	1274.41	85.0659	1274.41	85.1495	1274.41	84.4772	1274.41	84.3349	1274.41	83.7979	1274.41	82.9928	1274.41	82.7751	1274.41	81.0415	1274.41	81.1332	1274.41	78.7333	1274.41	78.8382	1274.41	76.3943	1274.41	76.3529	1274.41	74.687	1274.41	74.6162	1274.41	75.0635	1274.41	74.3842	1274.41	76.4697	1274.41	75.4192	1274.41	76.8106	1274.41	76.2789	1274.41	75.0277	1274.41	75.4778	1274.41	69.6795	1274.41	71.4191	1274.41	68.6397	1274.41	63.2692	1274.41	75.5123	1274.41	73.3034	1274.41	78.6363	1274.41	77.8857	1274.41	79.3566
1319.82	86.8981	1319.82	86.932	1319.82	86.6654	1319.82	86.6381	1319.82	86.2478	1319.82	85.9466	1319.82	85.5513	1319.82	84.9782	1319.82	84.5097	1319.82	83.88	1319.82	83.1029	1319.82	82.5436	1319.82	81.3271	1319.82	80.7521	1319.82	79.2818	1319.82	78.6642	1319.82	77.0835	1319.82	76.7403	1319.82	74.8038	1319.82	75.232	1319.82	73.3047	1319.82	74.5317	1319.82	73.2721	1319.82	74.1888	1319.82	72.8035	1319.82	72.6302	1319.82	70.5579	1319.82	67.3833	1319.82	64.8985	1319.82	62.0402	1319.82	53.9112	1319.82	72.2715	1319.82	70.1437	1319.82	76.0935	1319.82	75.22	1319.82	76.9358
1366.7	89.2665	1366.7	89.1023	1366.7	89.1044	1366.7	88.6111	1366.7	88.573	1366.7	87.7578	1366.7	87.6499	1366.7	86.5967	1366.7	86.3887	1366.7	85.276	1366.7	84.9143	1366.7	83.8373	1366.7	83.3093	1366.7	82.135	1366.7	81.538	1366.7	80.0559	1366.7	79.5155	1366.7	77.6717	1366.7	77.247	1366.7	75.3773	1366.7	75.0642	1366.7	74.2175	1366.7	73.5795	1366.7	74.2159	1366.7	72.9773	1366.7	73.6554	1366.7	72.4711	1366.7	70.7811	1366.7	70.3817	1366.7	63.9241	1366.7	64.8518	1366.7	67.3742	1366.7	66.3113	1366.7	72.019	1366.7	71.4191	1366.7	73.1009
1413.57	90.3705	1413.57	90.2369	1413.57	90.1625	1413.57	89.7928	1413.57	89.5283	1413.57	88.9662	1413.57	88.4851	1413.57	87.7344	1413.57	87.251	1413.57	86.2962	1413.57	86.0163	1413.57	84.8664	1413.57	84.6008	1413.57	83.2736	1413.57	82.7498	1413.57	81.0889	1413.57	80.6564	1413.57	78.1884	1413.57	78.7101	1413.57	75.531	1413.57	76.9111	1413.57	75.019	1413.57	75.4375	1413.57	76.1351	1413.57	75.184	1413.57	76.5786	1413.57	75.3141	1413.57	74.8744	1413.57	73.8266	1413.57	69.2769	1413.57	68.382	1413.57	50.8567	1413.57	51.3645	1413.57	68.9074	1413.57	69.253	1413.57	71.6981
1463.38	90.7868	1463.38	90.6935	1463.38	90.5317	1463.38	90.1896	1463.38	89.9578	1463.38	89.2387	1463.38	89.0035	1463.38	88.0053	1463.38	87.6345	1463.38	86.8942	1463.38	86.0428	1463.38	85.9502	1463.38	84.4935	1463.38	84.6939	1463.38	83.0328	1463.38	82.983	1463.38	81.5808	1463.38	81.194	1463.38	80.0186	1463.38	79.4268	1463.38	78.1838	1463.38	77.9434	1463.38	76.8469	1463.38	77.7781	1463.38	76.707	1463.38	77.7813	1463.38	76.4714	1463.38	75.9916	1463.38	74.6466	1463.38	70.9281	1463.38	69.3351	1463.38	54.8671	1463.38	57.8756	1463.38	67.1358	1463.38	69.0187	1463.38	70.8987
1516.11	90.6944	1516.11	90.5701	1516.11	90.4175	1516.11	90.0638	1516.11	89.7424	1516.11	89.1686	1516.11	88.7581	1516.11	87.9523	1516.11	87.5471	1516.11	86.6428	1516.11	86.1388	1516.11	85.3832	1516.11	84.6107	1516.11	83.8922	1516.11	83.0318	1516.11	81.949	1516.11	81.3706	1516.11	80.0034	1516.11	79.5943	1516.11	78.6648	1516.11	77.9695	1516.11	78.2319	1516.11	77.362	1516.11	78.5481	1516.11	77.8504	1516.11	78.4227	1516.11	77.9337	1516.11	76.557	1516.11	76.0292	1516.11	71.4239	1516.11	70.1365	1516.11	56.8056	1516.11	53.2199	1516.11	67.7515	1516.11	68.7449	1516.11	70.8447
1568.85	90.8565	1568.85	90.8315	1568.85	90.5542	1568.85	90.3551	1568.85	90.0009	1568.85	89.4597	1568.85	89.1366	1568.85	88.2519	1568.85	87.9968	1568.85	86.8785	1568.85	86.7595	1568.85	85.4648	1568.85	85.4613	1568.85	83.7604	1568.85	83.8986	1568.85	81.6133	1568.85	81.9334	1568.85	79.7567	1568.85	79.7518	1568.85	78.5747	1568.85	77.7794	1568.85	77.6218	1568.85	76.7364	1568.85	77.632	1568.85	77.327	1568.85	78.0839	1568.85	78.0712	1568.85	76.7242	1568.85	76.9742	1568.85	71.4237	1568.85	72.2746	1568.85	60.7121	1568.85	56.838	1568.85	71.06	1568.85	70.3506	1568.85	73.1846
1624.51	91.8019	1624.51	91.6695	1624.51	91.5474	1624.51	91.174	1624.51	90.9173	1624.51	90.2718	1624.51	90.0169	1624.51	89.0391	1624.51	88.8994	1624.51	87.6502	1624.51	87.5572	1624.51	86.0591	1624.51	86.0283	1624.51	84.2342	1624.51	84.3306	1624.51	82.558	1624.51	82.4719	1624.51	81.1442	1624.51	80.6133	1624.51	79.3272	1624.51	78.7638	1624.51	77.0963	1624.51	77.1884	1624.51	76.5074	1624.51	77.2741	1624.51	77.2713	1624.51	77.8971	1624.51	76.7359	1624.51	77.1244	1624.51	73.2123	1624.51	73.8879	1624.51	62.34	1624.51	64.5723	1624.51	69.5376	1624.51	66.6932	1624.51	71.8318
1681.64	92.5126	1681.64	92.3817	1681.64	92.1922	1681.64	91.8152	1681.64	91.3882	1681.64	90.9492	1681.64	90.2179	1681.64	89.9403	1681.64	88.9379	1681.64	88.6041	1681.64	87.5886	1681.64	86.8042	1681.64	86.0769	1681.64	84.8805	1681.64	84.3954	1681.64	83.0219	1681.64	82.565	1681.64	80.9179	1681.64	80.707	1681.64	78.549	1681.64	78.9565	1681.64	76.5234	1681.64	77.446	1681.64	76.3057	1681.64	77.1247	1681.64	77.4337	1681.64	77.8576	1681.64	77.1277	1681.64	77.5679	1681.64	73.868	1681.64	74.6232	1681.64	64.1349	1681.64	64.7308	1681.64	69.6939	1681.64	68.8752	1681.64	73.0161
1741.7	91.6544	1741.7	91.665	1741.7	91.1759	1741.7	91.0489	1741.7	90.3573	1741.7	90.0912	1741.7	89.1402	1741.7	89.0638	1741.7	87.6845	1741.7	87.7894	1741.7	86.1857	1741.7	86.2018	1741.7	84.7201	1741.7	84.3761	1741.7	83.334	1741.7	82.3576	1741.7	81.7523	1741.7	80.6398	1741.7	80.0355	1741.7	79.4854	1741.7	78.5483	1741.7	78.1653	1741.7	76.3553	1741.7	76.9311	1741.7	73.9823	1741.7	77.1417	1741.7	75.62	1741.7	77.3334	1741.7	76.5515	1741.7	75.2578	1741.7	73.8925	1741.7	68.952	1741.7	63.8832	1741.7	70.1673	1741.7	67.8411	1741.7	72.6051
1803.22	91.2824	1803.22	91.1101	1803.22	90.8839	1803.22	90.4231	1803.22	89.9567	1803.22	89.3548	1803.22	88.6443	1803.22	87.9768	1803.22	87.1666	1803.22	86.3277	1803.22	85.541	1803.22	84.5224	1803.22	83.682	1803.22	82.6837	1803.22	81.8401	1803.22	81.21	1803.22	80.3044	1803.22	80.2025	1803.22	79.0935	1803.22	78.3138	1803.22	78.257	1803.22	75.0339	1803.22	76.928	1803.22	72.9265	1803.22	74.4556	1803.22	73.6006	1803.22	73.4989	1803.22	74.2478	1803.22	74.5004	1803.22	72.128	1803.22	73.5458	1803.22	67.7544	1803.22	69.3163	1803.22	70.3316	1803.22	68.5595	1803.22	71.293
1866.21	91.551	1866.21	91.1804	1866.21	91.4422	1866.21	90.3744	1866.21	90.7498	1866.21	89.0839	1866.21	89.5593	1866.21	87.3434	1866.21	88.1533	1866.21	85.4237	1866.21	86.7177	1866.21	83.6296	1866.21	85.1386	1866.21	81.88	1866.21	83.2736	1866.21	80.3017	1866.21	81.4525	1866.21	79.2199	1866.21	79.9967	1866.21	78.0824	1866.21	79.0113	1866.21	76.3074	1866.21	78.0736	1866.21	73.7064	1866.21	76.5556	1866.21	73.1634	1866.21	75.7882	1866.21	74.0749	1866.21	75.5815	1866.21	71.3992	1866.21	72.5295	1866.21	60.8886	1866.21	66.5048	1866.21	71.7003	1866.21	72.2785	1866.21	74.2485
1932.13	91.2354	1932.13	90.9033	1932.13	90.9894	1932.13	90.0573	1932.13	90.2477	1932.13	88.9654	1932.13	89.1879	1932.13	87.7198	1932.13	87.8327	1932.13	85.9556	1932.13	86.1709	1932.13	83.8269	1932.13	84.3814	1932.13	81.9882	1932.13	82.3629	1932.13	80.1346	1932.13	80.1924	1932.13	78.3079	1932.13	78.4548	1932.13	77.5565	1932.13	77.3146	1932.13	77.118	1932.13	76.2859	1932.13	75.0366	1932.13	74.9959	1932.13	73.7556	1932.13	73.8721	1932.13	74.6772	1932.13	73.9034	1932.13	72.2276	1932.13	70.966	1932.13	66.0759	1932.13	61.8044	1932.13	68.0854	1932.13	70.3829	1932.13	71.5174
1999.51	91.345	1999.51	91.0725	1999.51	90.9345	1999.51	90.3984	1999.51	89.9921	1999.51	89.3184	1999.51	88.7587	1999.51	87.7665	1999.51	87.0703	1999.51	86.317	1999.51	85.2505	1999.51	84.9255	1999.51	83.749	1999.51	82.6916	1999.51	81.9876	1999.51	79.8606	1999.51	79.5103	1999.51	78.0107	1999.51	77.1171	1999.51	78.2166	1999.51	76.1614	1999.51	78.2575	1999.51	74.8362	1999.51	76.4827	1999.51	72.8488	1999.51	75.1947	1999.51	73.5977	1999.51	75.1086	1999.51	74.0199	1999.51	72.5832	1999.51	70.8513	1999.51	67.9456	1999.51	50.1211	1999.51	71.0136	1999.51	72.1503	1999.51	74.9022
2069.82	90.6756	2069.82	90.4043	2069.82	90.1541	2069.82	89.566	2069.82	89.0452	2069.82	88.3955	2069.82	87.8362	2069.82	87.0309	2069.82	86.5437	2069.82	85.3568	2069.82	84.9875	2069.82	83.2509	2069.82	83.3163	2069.82	81.4121	2069.82	81.608	2069.82	79.3912	2069.82	79.2523	2069.82	76.4355	2069.82	76.6947	2069.82	75.7822	2069.82	75.3961	2069.82	76.2827	2069.82	74.172	2069.82	75.0391	2069.82	73.3905	2069.82	73.1455	2069.82	72.0974	2069.82	72.4157	2069.82	73.7748	2069.82	68.8894	2069.82	72.994	2069.82	66.372	2069.82	59.6453	2069.82	72.3885	2069.82	68.6888	2069.82	72.8974
2143.07	90.0681	2143.07	90.0027	2143.07	89.847	2143.07	89.4451	2143.07	89.1093	2143.07	88.1192	2143.07	87.8111	2143.07	86.3222	2143.07	86.0643	2143.07	84.4314	2143.07	84.3167	2143.07	82.6567	2143.07	82.5613	2143.07	80.6274	2143.07	80.4878	2143.07	78.0352	2143.07	78.9024	2143.07	75.7327	2143.07	76.8781	2143.07	74.2742	2143.07	75.3073	2143.07	73.5727	2143.07	75.3483	2143.07	72.7147	2143.07	71.9825	2143.07	71.9803	2143.07	71.051	2143.07	72.7312	2143.07	72.3671	2143.07	69.4951	2143.07	72.1179	2143.07	47.1444	2143.07	65.79	2143.07	70.246	2143.07	67.6092	2143.07	73.6141
2219.24	89.2814	2219.24	89.0476	2219.24	88.9226	2219.24	88.1978	2219.24	88.0728	2219.24	86.9351	2219.24	86.6737	2219.24	85.1657	2219.24	85.0727	2219.24	82.971	2219.24	83.1131	2219.24	81.1888	2219.24	80.7023	2219.24	79.8453	2219.24	79.448	2219.24	77.7732	2219.24	78.9336	2219.24	74.921	2219.24	76.9544	2219.24	72.445	2219.24	73.7066	2219.24	71.5568	2219.24	73.5032	2219.24	72.1061	2219.24	73.1732	2219.24	70.517	2219.24	68.0022	2219.24	71.1483	2219.24	70.2362	2219.24	71.5357	2219.24	70.4554	2219.24	61.2863	2219.24	62.537	2219.24	65.6909	2219.24	62.7325	2219.24	68.5662
2296.88	87.6845	2296.88	87.4648	2296.88	87.3202	2296.88	86.56	2296.88	86.6855	2296.88	85.0574	2296.88	85.6899	2296.88	83.1923	2296.88	84.0948	2296.88	81.1622	2296.88	82.1732	2296.88	79.1553	2296.88	80.2181	2296.88	77.617	2296.88	78.2377	2296.88	75.7388	2296.88	76.6251	2296.88	72.9967	2296.88	74.5679	2296.88	70.893	2296.88	71.9501	2296.88	70.9935	2296.88	71.8088	2296.88	71.4036	2296.88	71.3596	2296.88	68.9983	2296.88	69.4663	2296.88	68.8645	2296.88	67.6684	2296.88	68.2415	2296.88	68.6501	2296.88	60.6949	2296.88	60.7005	2296.88	61.8184	2296.88	66.0463	2296.88	68.7999
2378.91	87.4696	2378.91	87.1503	2378.91	87.2189	2378.91	86.2453	2378.91	86.2698	2378.91	84.8298	2378.91	84.9728	2378.91	82.9673	2378.91	83.4705	2378.91	80.3704	2378.91	81.0107	2378.91	77.6299	2378.91	78.0237	2378.91	76.2242	2378.91	76.3773	2378.91	75.436	2378.91	75.4343	2378.91	73.642	2378.91	73.5671	2378.91	70.2314	2378.91	71.0677	2378.91	68.385	2378.91	69.8805	2378.91	68.7814	2378.91	70.9282	2378.91	65.7662	2378.91	68.0818	2378.91	66.8426	2378.91	66.4386	2378.91	67.7654	2378.91	66.7074	2378.91	60.7196	2378.91	58.0722	2378.91	61.5364	2378.91	59.4417	2378.91	65.9597
2462.4	86.8038	2462.4	86.6625	2462.4	86.3487	2462.4	85.7687	2462.4	85.5456	2462.4	84.4387	2462.4	84.2773	2462.4	83	2462.4	82.5269	2462.4	81.1371	2462.4	80.6341	2462.4	79.0389	2462.4	78.3697	2462.4	77.0412	2462.4	76.1681	2462.4	75.4572	2462.4	74.4778	2462.4	73.0783	2462.4	72.8944	2462.4	70.0757	2462.4	70.6009	2462.4	69.1827	2462.4	68.7049	2462.4	70.6454	2462.4	68.8943	2462.4	69.7675	2462.4	67.862	2462.4	63.9863	2462.4	65.4602	2462.4	64.3895	2462.4	65.6681	2462.4	59.2104	2462.4	58.8081	2462.4	59.4902	2462.4	63.3071	2462.4	67.0875
2548.83	85.2106	2548.83	84.9457	2548.83	84.8605	2548.83	84.2423	2548.83	83.7539	2548.83	83.1113	2548.83	82.2195	2548.83	81.6246	2548.83	80.4927	2548.83	79.9445	2548.83	78.6134	2548.83	77.732	2548.83	76.4172	2548.83	75.148	2548.83	73.401	2548.83	73.7759	2548.83	70.991	2548.83	72.3266	2548.83	69.7046	2548.83	69.1689	2548.83	66.5984	2548.83	67.1381	2548.83	65.5934	2548.83	69.0652	2548.83	68.2473	2548.83	68.1244	2548.83	68.1474	2548.83	66.7137	2548.83	63.9677	2548.83	66.3979	2548.83	66.1856	2548.83	59.452	2548.83	60.2656	2548.83	59.4016	2548.83	58.1289	2548.83	63.5825
2639.65	84.5139	2639.65	84.3339	2639.65	84.1897	2639.65	83.467	2639.65	83.0908	2639.65	82.1119	2639.65	81.3864	2639.65	80.5852	2639.65	79.7453	2639.65	78.9668	2639.65	77.9562	2639.65	76.9772	2639.65	75.9093	2639.65	74.701	2639.65	73.6363	2639.65	73.0232	2639.65	71.7492	2639.65	71.7623	2639.65	70.7794	2639.65	68.9848	2639.65	67.9881	2639.65	65.7486	2639.65	64.0352	2639.65	67.7409	2639.65	67.4613	2639.65	69.0225	2639.65	67.3973	2639.65	67.4039	2639.65	65.2543	2639.65	66.1061	2639.65	65.1794	2639.65	61.5076	2639.65	61.797	2639.65	55.7961	2639.65	55.246	2639.65	63.8667
2731.93	84.7601	2731.93	84.4986	2731.93	84.2597	2731.93	83.5801	2731.93	83.1427	2731.93	82.3206	2731.93	81.8293	2731.93	80.8961	2731.93	80.0703	2731.93	79.2908	2731.93	78.053	2731.93	77.5036	2731.93	76.6721	2731.93	75.5177	2731.93	75.0217	2731.93	73.5437	2731.93	72.6911	2731.93	72.204	2731.93	71.5856	2731.93	71.2239	2731.93	69.3931	2731.93	68.0395	2731.93	65.1602	2731.93	66.8107	2731.93	66.7178	2731.93	67.4537	2731.93	69.0074	2731.93	63.6205	2731.93	66.5449	2731.93	65.0227	2731.93	65.4313	2731.93	60.8584	2731.93	61.9077	2731.93	56.4342	2731.93	58.4783	2731.93	64.6183
2828.61	84.5267	2828.61	84.3086	2828.61	84.2076	2828.61	83.69	2828.61	83.344	2828.61	82.4815	2828.61	82.1909	2828.61	80.908	2828.61	80.5282	2828.61	79.1386	2828.61	78.6451	2828.61	77.1139	2828.61	76.7698	2828.61	74.8828	2828.61	74.7572	2828.61	73.4111	2828.61	72.829	2828.61	73.0757	2828.61	72.0064	2828.61	71.4383	2828.61	71.3809	2828.61	66.5936	2828.61	68.3661	2828.61	66.9166	2828.61	66.1786	2828.61	68.4672	2828.61	66.9413	2828.61	67.7242	2828.61	64.1109	2828.61	67.4719	2828.61	65.4742	2828.61	62.3885	2828.61	63.1813	2828.61	57.9631	2828.61	45.0167	2828.61	63.7027
2928.22	85.0092	2928.22	84.8304	2928.22	84.8749	2928.22	84.3197	2928.22	84.1405	2928.22	83.2725	2928.22	83.2857	2928.22	81.8975	2928.22	81.7491	2928.22	80.0047	2928.22	79.8828	2928.22	78.3134	2928.22	78.0621	2928.22	76.3631	2928.22	76.3704	2928.22	73.5092	2928.22	74.3345	2928.22	71.351	2928.22	72.3482	2928.22	70.8137	2928.22	72.0549	2928.22	69.3042	2928.22	70.185	2928.22	66.2982	2928.22	66.0223	2928.22	67.8799	2928.22	68.9435	2928.22	67.8452	2928.22	66.7994	2928.22	65.6399	2928.22	67.011	2928.22	63.9487	2928.22	63.1682	2928.22	54.5738	2928.22	56.4539	2928.22	64.8924
3030.76	86.1545	3030.76	86.0987	3030.76	85.8549	3030.76	85.5775	3030.76	85.2456	3030.76	84.7843	3030.76	84.5233	3030.76	83.6655	3030.76	82.979	3030.76	81.6927	3030.76	81.3132	3030.76	80.168	3030.76	79.5832	3030.76	78.2581	3030.76	77.9107	3030.76	75.3334	3030.76	75.2793	3030.76	73.085	3030.76	72.9968	3030.76	72.865	3030.76	72.3993	3030.76	71.7319	3030.76	70.4486	3030.76	66.12	3030.76	68.5231	3030.76	68.7608	3030.76	70.9089	3030.76	67.3981	3030.76	69.9823	3030.76	67.2551	3030.76	67.6462	3030.76	65.8178	3030.76	67.6431	3030.76	48.9716	3030.76	48.2547	3030.76	65.4466
3137.7	86.187	3137.7	86.1391	3137.7	85.9893	3137.7	85.6712	3137.7	85.6056	3137.7	84.8676	3137.7	84.6742	3137.7	83.4895	3137.7	83.2655	3137.7	81.7723	3137.7	81.6712	3137.7	79.7628	3137.7	79.9652	3137.7	77.7049	3137.7	77.8545	3137.7	75.7381	3137.7	75.3088	3137.7	73.5306	3137.7	73.2826	3137.7	73.41	3137.7	71.6634	3137.7	72.5856	3137.7	71.0162	3137.7	69.6213	3137.7	68.0837	3137.7	70.1576	3137.7	69.3882	3137.7	69.0778	3137.7	68.6747	3137.7	66.63	3137.7	66.0768	3137.7	64.8732	3137.7	65.7234	3137.7	54.0705	3137.7	57.5663	3137.7	66.4755
3249.02	86.5449	3249.02	86.4833	3249.02	86.5285	3249.02	86.2454	3249.02	86.2224	3249.02	85.4778	3249.02	85.3418	3249.02	84.1241	3249.02	84.0105	3249.02	82.3609	3249.02	82.35	3249.02	80.4501	3249.02	80.4999	3249.02	78.3085	3249.02	78.2533	3249.02	75.7795	3249.02	76.195	3249.02	74.0238	3249.02	74.4439	3249.02	71.3447	3249.02	73.0108	3249.02	70.0692	3249.02	72.7116	3249.02	68.5848	3249.02	69.5041	3249.02	69.1681	3249.02	67.8667	3249.02	70.1819	3249.02	69.3852	3249.02	68.0596	3249.02	66.6868	3249.02	67.5351	3249.02	67.2153	3249.02	54.6154	3249.02	49.9758	3249.02	68.7475
3363.28	86.1785	3363.28	86.0964	3363.28	86.1096	3363.28	85.8722	3363.28	85.8147	3363.28	85.3106	3363.28	85.1094	3363.28	84.2358	3363.28	84.0443	3363.28	82.5796	3363.28	82.6043	3363.28	80.6688	3363.28	80.89	3363.28	78.7752	3363.28	78.6724	3363.28	76.8562	3363.28	76.8689	3363.28	75.3199	3363.28	74.8759	3363.28	72.9754	3363.28	73.185	3363.28	71.871	3363.28	72.8678	3363.28	69.8006	3363.28	69.7739	3363.28	68.4571	3363.28	68.1877	3363.28	69.7758	3363.28	68.7664	3363.28	67.5942	3363.28	68.5087	3363.28	68.5038	3363.28	68.2288	3363.28	44.5047	3363.28	43.6003	3363.28	66.2487
3481.93	86.5705	3481.93	86.477	3481.93	86.5868	3481.93	86.1505	3481.93	86.2077	3481.93	85.4392	3481.93	85.4379	3481.93	84.2463	3481.93	84.4072	3481.93	82.5537	3481.93	82.8282	3481.93	80.6324	3481.93	81.0306	3481.93	78.7945	3481.93	79.0843	3481.93	76.7258	3481.93	77.4696	3481.93	75.0201	3481.93	76.0373	3481.93	72.4411	3481.93	74.2193	3481.93	70.972	3481.93	72.0388	3481.93	70.0419	3481.93	69.5779	3481.93	66.8246	3481.93	68.9105	3481.93	68.1814	3481.93	69.6814	3481.93	65.1209	3481.93	67.7431	3481.93	68.5618	3481.93	68.6311	3481.93	49.0625	3481.93	39.2962	3481.93	66.9602
3604.98	86.5985	3604.98	86.5346	3604.98	86.5819	3604.98	86.325	3604.98	86.438	3604.98	85.7201	3604.98	85.6353	3604.98	84.6003	3604.98	84.4208	3604.98	82.9484	3604.98	82.8228	3604.98	81.1359	3604.98	81.1261	3604.98	79.6479	3604.98	79.0928	3604.98	77.9546	3604.98	76.7194	3604.98	75.7057	3604.98	74.9401	3604.98	74.102	3604.98	73.6324	3604.98	71.7032	3604.98	70.419	3604.98	70.7939	3604.98	69.9532	3604.98	68.5905	3604.98	69.2041	3604.98	69.3551	3604.98	70.7465	3604.98	65.7402	3604.98	67.5613	3604.98	68.9799	3604.98	69.6302	3604.98	56.4677	3604.98	41.4487	3604.98	64.0403
3732.42	86.7123	3732.42	86.6	3732.42	86.8324	3732.42	86.3719	3732.42	86.6554	3732.42	85.5793	3732.42	85.8597	3732.42	84.3973	3732.42	84.7053	3732.42	82.7597	3732.42	83.2223	3732.42	80.9543	3732.42	81.5278	3732.42	79.2192	3732.42	79.9759	3732.42	77.593	3732.42	78.4585	3732.42	75.3228	3732.42	75.6849	3732.42	74.0966	3732.42	74.4626	3732.42	71.7247	3732.42	72.4527	3732.42	69.6725	3732.42	70.3981	3732.42	68.6068	3732.42	68.9984	3732.42	70.444	3732.42	71.485	3732.42	66.1285	3732.42	66.1728	3732.42	67.7939	3732.42	69.5378	3732.42	56.0364	3732.42	49.8309	3732.42	66.0011
3864.26	86.801	3864.26	86.761	3864.26	86.9949	3864.26	86.6928	3864.26	86.8645	3864.26	85.8846	3864.26	85.9327	3864.26	84.3829	3864.26	84.301	3864.26	82.8056	3864.26	82.6075	3864.26	81.1537	3864.26	80.9419	3864.26	79.4191	3864.26	79.7291	3864.26	78.1684	3864.26	78.0868	3864.26	76.1784	3864.26	75.5854	3864.26	74.9989	3864.26	74.9423	3864.26	73.0206	3864.26	72.7951	3864.26	70.6175	3864.26	71.3214	3864.26	68.0444	3864.26	67.9075	3864.26	69.908	3864.26	69.3317	3864.26	66.0262	3864.26	65.5416	3864.26	68.6861	3864.26	68.2025	3864.26	57.7867	3864.26	59.1456	3864.26	66.938
4000.49	87.4277	4000.49	87.1634	4000.49	87.1138	4000.49	86.3814	4000.49	86.8477	4000.49	85.3278	4000.49	85.8456	4000.49	83.5698	4000.49	84.2579	4000.49	82.3638	4000.49	82.8037	4000.49	81.0913	4000.49	81.266	4000.49	79.0388	4000.49	79.56	4000.49	77.8846	4000.49	78.144	4000.49	75.4202	4000.49	76.1527	4000.49	74.0811	4000.49	74.3916	4000.49	73.2943	4000.49	73.1575	4000.49	71.0991	4000.49	71.601	4000.49	68.6062	4000.49	67.1659	4000.49	69.4324	4000.49	68.2486	4000.49	67.6764	4000.49	66.6884	4000.49	68.7465	4000.49	68.8888	4000.49	61.2634	4000.49	60.8253	4000.49	64.1059
4141.11	87.547	4141.11	87.2016	4141.11	87.4665	4141.11	86.4712	4141.11	86.6995	4141.11	85.0536	4141.11	84.9688	4141.11	83.4915	4141.11	83.3875	4141.11	82.1931	4141.11	82.0835	4141.11	81.6763	4141.11	81.0184	4141.11	79.88	4141.11	79.6295	4141.11	78.258	4141.11	77.7024	4141.11	76.4833	4141.11	76.3757	4141.11	74.8647	4141.11	74.0999	4141.11	73.3691	4141.11	73.1664	4141.11	71.0447	4141.11	70.0078	4141.11	69.9691	4141.11	69.764	4141.11	69.3697	4141.11	69.9664	4141.11	69.2706	4141.11	67.6257	4141.11	67.9055	4141.11	69.8283	4141.11	61.6691	4141.11	61.7162	4141.11	58.8306
4287.6	87.7097	4287.6	87.5417	4287.6	87.368	4287.6	86.3748	4287.6	86.469	4287.6	85.0369	4287.6	85.0837	4287.6	83.8829	4287.6	84.0948	4287.6	82.7587	4287.6	82.9659	4287.6	81.6269	4287.6	81.9517	4287.6	79.9738	4287.6	80.332	4287.6	77.4802	4287.6	76.973	4287.6	76.1607	4287.6	74.4376	4287.6	74.6589	4287.6	72.5656	4287.6	73.6528	4287.6	72.5478	4287.6	70.9084	4287.6	70.9497	4287.6	69.778	4287.6	68.2063	4287.6	67.9625	4287.6	71.1911	4287.6	68.619	4287.6	67.6883	4287.6	67.6159	4287.6	65.977	4287.6	61.1829	4287.6	61.5811	4287.6	59.4099
4438.48	87.0615	4438.48	86.7132	4438.48	86.6301	4438.48	85.3968	4438.48	85.5115	4438.48	84.0661	4438.48	84.1544	4438.48	83.2019	4438.48	83.3348	4438.48	82.4311	4438.48	82.0248	4438.48	81.0543	4438.48	80.4991	4438.48	79.5293	4438.48	79.1041	4438.48	77.1979	4438.48	77.8004	4438.48	75.7269	4438.48	76.2666	4438.48	73.1209	4438.48	73.0207	4438.48	72.5716	4438.48	71.9381	4438.48	69.4914	4438.48	70.8449	4438.48	67.9213	4438.48	69.3123	4438.48	65.8722	4438.48	65.0494	4438.48	66.9428	4438.48	66.8903	4438.48	62.0311	4438.48	64.6864	4438.48	57.6991	4438.48	62.8916	4438.48	60.7429
4595.21	84.7307	4595.21	84.2398	4595.21	84.1156	4595.21	83.0555	4595.21	83.0416	4595.21	81.7161	4595.21	82.0274	4595.21	81.2451	4595.21	81.7993	4595.21	81.0895	4595.21	81.4944	4595.21	79.8593	4595.21	80.0558	4595.21	77.5826	4595.21	77.7872	4595.21	75.2756	4595.21	75.0867	4595.21	73.0987	4595.21	75.2148	4595.21	71.2868	4595.21	72.3536	4595.21	70.4795	4595.21	70.4284	4595.21	69.3054	4595.21	67.9022	4595.21	66.6096	4595.21	67.4048	4595.21	64.112	4595.21	66.2793	4595.21	67.2878	4595.21	66.9847	4595.21	58.7401	4595.21	63.2546	4595.21	60.0978	4595.21	56.6184	4595.21	57.8163
4756.35	83.9566	4756.35	83.3718	4756.35	83.5465	4756.35	82.0291	4756.35	82.6624	4756.35	81.6783	4756.35	82.1464	4756.35	81.5788	4756.35	82.3975	4756.35	81.1456	4756.35	82.109	4756.35	79.6726	4756.35	80.3632	4756.35	77.8898	4756.35	78.2768	4756.35	75.8345	4756.35	74.9912	4756.35	73.868	4756.35	72.9662	4756.35	71.8754	4756.35	71.9047	4756.35	69.414	4756.35	69.9767	4756.35	68.5372	4756.35	68.6917	4756.35	67.1036	4756.35	65.5836	4756.35	65.9239	4756.35	65.6009	4756.35	67.451	4756.35	66.6405	4756.35	62.7751	4756.35	60.2794	4756.35	60.166	4756.35	59.7539	4756.35	52.9343
4924.8	84.3797	4924.8	83.9439	4924.8	84.0135	4924.8	83.003	4924.8	83.0563	4924.8	83.1957	4924.8	82.7162	4924.8	83.5512	4924.8	82.921	4924.8	82.7238	4924.8	81.5085	4924.8	80.793	4924.8	79.6944	4924.8	78.9694	4924.8	78.2284	4924.8	76.1639	4924.8	75.695	4924.8	74.4229	4924.8	73.1433	4924.8	72.8206	4924.8	71.2944	4924.8	70.7629	4924.8	69.9575	4924.8	69.0759	4924.8	68.3523	4924.8	66.7033	4924.8	67.1659	4924.8	67.5257	4924.8	65.3255	4924.8	67.7113	4924.8	67.3728	4924.8	61.1702	4924.8	62.7154	4924.8	56.9564	4924.8	60.703	4924.8	49.5966
5097.66	85.1243	5097.66	84.7287	5097.66	84.4437	5097.66	84.1787	5097.66	83.9976	5097.66	84.4583	5097.66	84.5373	5097.66	84.6716	5097.66	84.3853	5097.66	84.0232	5097.66	83.5501	5097.66	82.1216	5097.66	81.2591	5097.66	79.7825	5097.66	78.9353	5097.66	78.0744	5097.66	77.0448	5097.66	75.728	5097.66	75.1328	5097.66	74.3305	5097.66	72.6818	5097.66	71.4473	5097.66	71.0206	5097.66	71.5052	5097.66	69.3816	5097.66	69.7513	5097.66	66.9189	5097.66	69.3509	5097.66	65.4747	5097.66	70.4639	5097.66	68.8004	5097.66	64.8791	5097.66	63.8465	5097.66	62.8615	5097.66	60.6696	5097.66	60.1368
5277.83	85.7513	5277.83	85.6027	5277.83	85.3183	5277.83	85.1495	5277.83	85.611	5277.83	86.4142	5277.83	86.2384	5277.83	86.587	5277.83	86.1526	5277.83	85.5081	5277.83	84.5369	5277.83	83.9026	5277.83	82.7584	5277.83	82.1822	5277.83	80.507	5277.83	80.1496	5277.83	78.2473	5277.83	78.3656	5277.83	76.8486	5277.83	76.3753	5277.83	74.3924	5277.83	74.5517	5277.83	71.6967	5277.83	73.9193	5277.83	71.6387	5277.83	71.3079	5277.83	70.3871	5277.83	70.5596	5277.83	68.0104	5277.83	72.0864	5277.83	70.1969	5277.83	69.4271	5277.83	61.4842	5277.83	67.9193	5277.83	59.4915	5277.83	53.4803
5463.87	86.7991	5463.87	86.8509	5463.87	87.3051	5463.87	87.4411	5463.87	88.2498	5463.87	88.5432	5463.87	88.868	5463.87	88.4464	5463.87	88.2944	5463.87	87.1515	5463.87	86.2466	5463.87	85.7129	5463.87	84.2065	5463.87	84.2785	5463.87	82.9788	5463.87	82.2479	5463.87	81.5071	5463.87	79.9114	5463.87	78.4626	5463.87	78.5756	5463.87	76.3124	5463.87	74.9322	5463.87	74.0367	5463.87	74.532	5463.87	71.9208	5463.87	72.1982	5463.87	69.6007	5463.87	71.319	5463.87	70.8107	5463.87	72.5242	5463.87	71.4426	5463.87	70.9637	5463.87	66.7464	5463.87	67.53	5463.87	64.8469	5463.87	61.1178
5657.23	87.1626	5657.23	87.7279	5657.23	87.9139	5657.23	89.0656	5657.23	89.5044	5657.23	89.7487	5657.23	90.1931	5657.23	89.1681	5657.23	89.1629	5657.23	88.1091	5657.23	87.3348	5657.23	86.9345	5657.23	85.782	5657.23	85.1263	5657.23	83.7183	5657.23	83.5178	5657.23	82.2536	5657.23	81.5702	5657.23	80.961	5657.23	79.3038	5657.23	78.5381	5657.23	76.2713	5657.23	76.3835	5657.23	73.4137	5657.23	74.5461	5657.23	74.7581	5657.23	72.8108	5657.23	72.0104	5657.23	68.1819	5657.23	74.2849	5657.23	73.0301	5657.23	70.9123	5657.23	67.7687	5657.23	66.7148	5657.23	67.7088	5657.23	61.5306
5856.45	86.0269	5856.45	87.2917	5856.45	87.3322	5856.45	89.128	5856.45	89.8531	5856.45	89.6211	5856.45	90.2602	5856.45	88.5327	5856.45	88.7949	5856.45	87.864	5856.45	86.9544	5856.45	87.2074	5856.45	86.2139	5856.45	85.937	5856.45	84.9419	5856.45	83.6183	5856.45	82.6453	5856.45	80.9594	5856.45	80.3113	5856.45	78.7043	5856.45	78.0383	5856.45	76.8484	5856.45	76.0397	5856.45	74.5824	5856.45	73.8856	5856.45	71.6592	5856.45	71.717	5856.45	71.2416	5856.45	71.0731	5856.45	72.4228	5856.45	72.529	5856.45	70.1852	5856.45	67.6354	5856.45	68.9091	5856.45	68.0978	5856.45	58.8883
6062.99	85.3689	6062.99	87.2791	6062.99	87.4028	6062.99	88.9029	6062.99	89.6857	6062.99	88.6481	6062.99	89.5612	6062.99	87.7681	6062.99	87.8189	6062.99	87.278	6062.99	86.8613	6062.99	86.5438	6062.99	86.0796	6062.99	84.8771	6062.99	84.0879	6062.99	82.6046	6062.99	82.2955	6062.99	79.8768	6062.99	79.699	6062.99	77.5497	6062.99	76.8238	6062.99	74.9868	6062.99	73.7281	6062.99	73.5734	6062.99	72.3038	6062.99	70.0951	6062.99	69.2643	6062.99	68.7403	6062.99	69.954	6062.99	71.6875	6062.99	70.9062	6062.99	67.7495	6062.99	67.2651	6062.99	65.4194	6062.99	64.7271	6062.99	60.2166
6276.86	85.8204	6276.86	87.1776	6276.86	87.8224	6276.86	88.8075	6276.86	89.5218	6276.86	88.3606	6276.86	88.8612	6276.86	87.438	6276.86	87.5645	6276.86	87.1355	6276.86	87.0738	6276.86	85.7261	6276.86	85.9946	6276.86	83.0471	6276.86	83.398	6276.86	80.1256	6276.86	80.4772	6276.86	78.0453	6276.86	77.7539	6276.86	75.7915	6276.86	74.5886	6276.86	73.8281	6276.86	72.653	6276.86	71.2329	6276.86	71.0619	6276.86	69.5487	6276.86	68.1752	6276.86	68.5469	6276.86	67.5401	6276.86	69.2673	6276.86	68.475	6276.86	66.7762	6276.86	66.075	6276.86	61.9678	6276.86	65.4943	6276.86	59.5761
6498.05	86.1194	6498.05	87.1132	6498.05	87.5987	6498.05	87.9246	6498.05	89.0487	6498.05	87.6176	6498.05	88.3455	6498.05	86.9787	6498.05	87.4401	6498.05	86.1493	6498.05	86.9874	6498.05	84.0034	6498.05	85.4067	6498.05	81.2409	6498.05	82.2161	6498.05	77.9236	6498.05	79.3538	6498.05	74.8238	6498.05	76.1653	6498.05	72.3872	6498.05	73.4699	6498.05	70.1851	6498.05	71.2731	6498.05	68.2903	6498.05	68.2978	6498.05	65.0108	6498.05	68.091	6498.05	64.0491	6498.05	64.9174	6498.05	66.6107	6498.05	68.175	6498.05	64.6526	6498.05	65.5759	6498.05	58.6851	6498.05	62.3577	6498.05	59.4331
6726.56	84.8124	6726.56	85.9392	6726.56	85.8698	6726.56	87.011	6726.56	86.6247	6726.56	87.0018	6726.56	85.9332	6726.56	86.4865	6726.56	85.9312	6726.56	85.326	6726.56	85.763	6726.56	82.1189	6726.56	83.7575	6726.56	78.4421	6726.56	79.8944	6726.56	74.7874	6726.56	76.6126	6726.56	72.9455	6726.56	73.4072	6726.56	70.2103	6726.56	69.8988	6726.56	68.1388	6726.56	68.6335	6726.56	67.0279	6726.56	67.2289	6726.56	64.9629	6726.56	63.9433	6726.56	62.8092	6726.56	64.2469	6726.56	65.1715	6726.56	65.5494	6726.56	61.8605	6726.56	62.915	6726.56	59.8767	6726.56	61.256	6726.56	50.1157
6963.87	83.5351	6963.87	84.1021	6963.87	84.4978	6963.87	85.5636	6963.87	84.8534	6963.87	86.3348	6963.87	84.4657	6963.87	86.0147	6963.87	84.7337	6963.87	84.5276	6963.87	83.6617	6963.87	81.2561	6963.87	80.5343	6963.87	77.9019	6963.87	75.2979	6963.87	74.532	6963.87	71.3354	6963.87	72.5641	6963.87	67.7638	6963.87	70.7504	6963.87	66.113	6963.87	68.6576	6963.87	65.1058	6963.87	66.3057	6963.87	62.879	6963.87	64.1169	6963.87	62.8279	6963.87	62.1035	6963.87	57.4524	6963.87	64.0334	6963.87	61.8497	6963.87	61.5882	6963.87	58.4115	6963.87	54.8837	6963.87	59.6523	6963.87	55.6044
7209.96	81.8138	7209.96	82.1267	7209.96	82.8458	7209.96	83.5455	7209.96	83.1087	7209.96	84.5291	7209.96	83.5382	7209.96	84.2924	7209.96	83.8365	7209.96	82.5141	7209.96	81.809	7209.96	78.5242	7209.96	77.3706	7209.96	75.2439	7209.96	71.5571	7209.96	72.1796	7209.96	70.0126	7209.96	70.0403	7209.96	67.9546	7209.96	67.5303	7209.96	65.5149	7209.96	65.7561	7209.96	63.6441	7209.96	63.3672	7209.96	61.2642	7209.96	60.3478	7209.96	59.5019	7209.96	59.2008	7209.96	58.0858	7209.96	59.1796	7209.96	58.8408	7209.96	58.3549	7209.96	57.8905	7209.96	55.0657	7209.96	55.718	7209.96	45.5509
7464.84	79.724	7464.84	79.5991	7464.84	79.9374	7464.84	80.7355	7464.84	80.3439	7464.84	82.2942	7464.84	81.45	7464.84	81.9892	7464.84	81.4947	7464.84	79.6743	7464.84	78.5553	7464.84	75.2427	7464.84	73.4961	7464.84	72.2093	7464.84	68.4314	7464.84	69.0333	7464.84	68.0901	7464.84	67.3252	7464.84	65.4465	7464.84	65.0261	7464.84	63.542	7464.84	63.1606	7464.84	62.0204	7464.84	60.5423	7464.84	58.9132	7464.84	58.4728	7464.84	57.6304	7464.84	56.3253	7464.84	55.0347	7464.84	56.0496	7464.84	56.4328	7464.84	54.2698	7464.84	53.4708	7464.84	51.1869	7464.84	54.3639	7464.84	50.6011
7727.05	79.7903	7727.05	79.019	7727.05	79.0891	7727.05	79.6284	7727.05	78.6915	7727.05	81.1747	7727.05	80.1992	7727.05	80.7037	7727.05	79.7246	7727.05	77.9134	7727.05	75.8074	7727.05	73.7048	7727.05	70.5383	7727.05	71.4274	7727.05	67.585	7727.05	68.9783	7727.05	67.0897	7727.05	66.7918	7727.05	64.6392	7727.05	64.5202	7727.05	62.486	7727.05	62.1437	7727.05	59.9509	7727.05	60.4496	7727.05	58.2322	7727.05	56.7726	7727.05	56.5468	7727.05	55.9644	7727.05	53.5996	7727.05	56.7215	7727.05	55.885	7727.05	53.3742	7727.05	49.7554	7727.05	50.813	7727.05	53.0749	7727.05	49.5139
7999.51	82.4544	7999.51	81.5163	7999.51	81.7941	7999.51	81.3573	7999.51	81.3738	7999.51	82.2341	7999.51	81.8663	7999.51	81.1986	7999.51	79.8295	7999.51	78.3238	7999.51	75.2175	7999.51	74.9781	7999.51	72.6133	7999.51	73.1949	7999.51	70.4146	7999.51	70.2107	7999.51	68.9556	7999.51	67.8401	7999.51	65.4123	7999.51	65.6245	7999.51	62.8158	7999.51	62.8095	7999.51	60.4461	7999.51	60.5325	7999.51	57.8636	7999.51	59.6129	7999.51	57.2525	7999.51	56.7392	7999.51	55.1049	7999.51	57.1333	7999.51	56.1585	7999.51	55.3086	7999.51	51.5845	7999.51	49.2409	7999.51	52.7197	7999.51	48.6827
8282.23	86.0526	8282.23	85.309	8282.23	85.5911	8282.23	85.0745	8282.23	85.1835	8282.23	84.8701	8282.23	84.7405	8282.23	82.8348	8282.23	82.0712	8282.23	79.8657	8282.23	78.6519	8282.23	76.9531	8282.23	76.5077	8282.23	74.3314	8282.23	72.3629	8282.23	71.0026	8282.23	70.0312	8282.23	68.2465	8282.23	65.6209	8282.23	65.1562	8282.23	62.8156	8282.23	63.4462	8282.23	60.9116	8282.23	60.988	8282.23	58.9892	8282.23	58.2055	8282.23	58.5491	8282.23	55.9403	8282.23	54.7849	8282.23	56.8651	8282.23	57.512	8282.23	56.1461	8282.23	51.583	8282.23	47.7663	8282.23	53.5207	8282.23	50.4839
8573.73	88.8843	8573.73	88.3591	8573.73	88.6448	8573.73	88.3573	8573.73	88.2873	8573.73	87.6774	8573.73	87.3722	8573.73	84.9576	8573.73	84.3927	8573.73	81.8446	8573.73	81.327	8573.73	78.694	8573.73	78.5921	8573.73	75.4868	8573.73	73.1518	8573.73	70.8928	8573.73	70.0649	8573.73	67.3241	8573.73	64.5976	8573.73	64.501	8573.73	63.0348	8573.73	62.7309	8573.73	60.792	8573.73	60.0766	8573.73	58.6579	8573.73	58.1163	8573.73	58.7008	8573.73	55.1433	8573.73	56.6292	8573.73	55.5876	8573.73	56.4423	8573.73	54.5705	8573.73	51.6919	8573.73	50.3837	8573.73	51.9692	8573.73	51.5125
8876.95	90.3113	8876.95	89.9287	8876.95	90.2021	8876.95	90.1114	8876.95	89.8332	8876.95	88.9632	8876.95	88.6549	8876.95	85.4244	8876.95	85.7174	8876.95	81.9803	8876.95	82.465	8876.95	78.2036	8876.95	78.8847	8876.95	74.0884	8876.95	72.2111	8876.95	68.4271	8876.95	69.4229	8876.95	64.5028	8876.95	65.1054	8876.95	60.2931	8876.95	63.2262	8876.95	58.83	8876.95	60.142	8876.95	57.1919	8876.95	57.3552	8876.95	52.1709	8876.95	57.4742	8876.95	51.1195	8876.95	55.6136	8876.95	52.8963	8876.95	56.9222	8876.95	50.9522	8876.95	50.4973	8876.95	44.4455	8876.95	51.441	8876.95	46.2327
9188.96	90.1828	9188.96	89.8024	9188.96	90.173	9188.96	90.0633	9188.96	89.7252	9188.96	88.6043	9188.96	88.3468	9188.96	84.5114	9188.96	85.114	9188.96	80.7242	9188.96	81.2393	9188.96	75.8831	9188.96	77.0174	9188.96	70.1126	9188.96	69.3867	9188.96	61.3149	9188.96	66.4218	9188.96	54.1366	9188.96	62.2524	9188.96	49.8135	9188.96	60.8216	9188.96	49.5768	9188.96	56.8088	9188.96	49.371	9188.96	55.8599	9188.96	45.7403	9188.96	54.2925	9188.96	47.6989	9188.96	53.0169	9188.96	46.7561	9188.96	54.3657	9188.96	42.9604	9188.96	45.6352	9188.96	42.2891	9188.96	47.366	9188.96	41.9681
9514.16	89.4192	9514.16	89.003	9514.16	89.4952	9514.16	89.4184	9514.16	89.1391	9514.16	87.8585	9514.16	87.5893	9514.16	83.4593	9514.16	83.5855	9514.16	79.1285	9514.16	78.8659	9514.16	73.1632	9514.16	73.9219	9514.16	64.5666	9514.16	63.3282	9514.16	52.1247	9514.16	59.3956	9514.16	49.7337	9514.16	58.3658	9514.16	52.642	9514.16	57.4633	9514.16	48.7395	9514.16	53.714	9514.16	47.6135	9514.16	52.9765	9514.16	49.3459	9514.16	50.8236	9514.16	48.7036	9514.16	49.1674	9514.16	46.0582	9514.16	48.3752	9514.16	23.8102	9514.16	36.1046	9514.16	38.1137	9514.16	43.4555	9514.16	46.5428
9849.61	88.8172	9849.61	88.3645	9849.61	89.0852	9849.61	89.3012	9849.61	89.1068	9849.61	87.789	9849.61	87.3937	9849.61	82.5597	9849.61	82.2534	9849.61	77.8853	9849.61	77.3923	9849.61	70.2977	9849.61	70.5002	9849.61	50.0004	9849.61	59.4102	9849.61	62.7993	9849.61	63.7739	9849.61	62.4069	9849.61	64.8503	9849.61	60.0568	9849.61	62.5376	9849.61	56.8372	9849.61	59.5566	9849.61	53.1068	9849.61	58.0341	9849.61	53.5896	9849.61	55.5097	9849.61	51.1878	9849.61	52.5579	9849.61	48.0894	9849.61	48.4041	9849.61	37.9146	9849.61	34.6413	9849.61	33.8279	9849.61	38.8806	9849.61	50.3405
10196.8	88.2251	10196.8	88.2632	10196.8	88.831	10196.8	89.8902	10196.8	89.6441	10196.8	87.9638	10196.8	87.2801	10196.8	82.947	10196.8	81.9126	10196.8	79.2981	10196.8	78.7324	10196.8	65.3471	10196.8	66.4937	10196.8	69.3459	10196.8	72.6251	10196.8	72.3244	10196.8	72.9456	10196.8	69.7362	10196.8	71.8224	10196.8	66.6433	10196.8	68.5491	10196.8	63.5445	10196.8	65.6298	10196.8	60.6733	10196.8	63.4942	10196.8	59.272	10196.8	60.6372	10196.8	56.6486	10196.8	59.1661	10196.8	54.1426	10196.8	56.8737	10196.8	54.0879	10196.8	43.2162	10196.8	38.2434	10196.8	50.1092	10196.8	54.7877
10555.7	89.1102	10555.7	89.7731	10555.7	89.9396	10555.7	90.2502	10555.7	90.0602	10555.7	87.3387	10555.7	86.4496	10555.7	84.1451	10555.7	83.6075	10555.7	79.0825	10555.7	78.2954	10555.7	68.2607	10555.7	68.773	10555.7	74.3357	10555.7	75.8916	10555.7	74.4614	10555.7	74.7062	10555.7	70.6014	10555.7	72.5725	10555.7	67.5519	10555.7	69.0353	10555.7	64.5615	10555.7	66.0017	10555.7	61.6545	10555.7	63.8238	10555.7	59.0659	10555.7	61.4515	10555.7	56.9878	10555.7	60.0578	10555.7	53.7914	10555.7	56.7099	10555.7	55.2264	10555.7	35.9923	10555.7	43.5645	10555.7	53.173	10555.7	53.2987
10927.7	89.4726	10927.7	89.9868	10927.7	90.3763	10927.7	89.9416	10927.7	89.8458	10927.7	86.6	10927.7	86.248	10927.7	83.2124	10927.7	83.1352	10927.7	74.771	10927.7	72.9441	10927.7	71.464	10927.7	71.7727	10927.7	73.457	10927.7	74.7184	10927.7	72.2931	10927.7	71.8203	10927.7	68.3651	10927.7	69.0995	10927.7	64.4771	10927.7	66.1707	10927.7	62.8422	10927.7	63.8371	10927.7	60.3198	10927.7	61.0442	10927.7	58.4692	10927.7	59.0814	10927.7	55.5551	10927.7	57.6877	10927.7	52.5957	10927.7	56.5101	10927.7	55.8363	10927.7	37.6128	10927.7	42.9484	10927.7	51.8014	10927.7	50.4583
11313	87.6438	11313	88.4613	11313	88.3034	11313	88.0866	11313	87.5009	11313	84.2071	11313	83.644	11313	80.4792	11313	79.7802	11313	61.3783	11313	67.2247	11313	75.2785	11313	74.8921	11313	73.8257	11313	74.6762	11313	70.5911	11313	71.6306	11313	66.2928	11313	68.8008	11313	61.5729	11313	65.1836	11313	60.9045	11313	63.0707	11313	56.2421	11313	60.4356	11313	54.7312	11313	58.555	11313	51.6443	11313	55.6278	11313	48.8482	11313	54.0364	11313	51.6679	11313	39.2902	11313	47.2728	11313	49.8112	11313	48.5175
11712.9	87.9506	11712.9	87.5123	11712.9	87.5908	11712.9	85.7532	11712.9	85.1381	11712.9	82.5748	11712.9	82.2548	11712.9	77.847	11712.9	78.2012	11712.9	70.8564	11712.9	74.6659	11712.9	77.2174	11712.9	76.7949	11712.9	72.9559	11712.9	73.7821	11712.9	68.9084	11712.9	70.0212	11712.9	64.5412	11712.9	66.465	11712.9	61.3534	11712.9	62.378	11712.9	59.6346	11712.9	61.1758	11712.9	55.2289	11712.9	58.3814	11712.9	54.5542	11712.9	56.4278	11712.9	52.746	11712.9	53.9449	11712.9	49.6948	11712.9	52.1156	11712.9	49.7193	11712.9	38.0542	11712.9	50.3842	11712.9	48.9924	11712.9	44.7861
12126	90.3067	12126	88.7915	12126	89.3787	12126	86.0048	12126	86.2134	12126	83.7793	12126	84.2555	12126	77.2843	12126	78.5289	12126	75.8078	12126	77.3581	12126	77.1397	12126	76.1563	12126	70.0345	12126	70.0005	12126	67.5253	12126	66.0913	12126	65.2359	12126	64.7406	12126	62.5518	12126	61.4132	12126	60.1217	12126	60.9118	12126	55.7046	12126	57.2215	12126	57.2323	12126	55.6275	12126	54.1832	12126	52.9858	12126	49.7875	12126	49.9153	12126	47.2708	12126	41.8212	12126	49.9364	12126	48.6093	12126	37.5958
12553.7	92.1953	12553.7	90.2832	12553.7	90.7755	12553.7	87.3862	12553.7	87.1884	12553.7	85.184	12553.7	85.0137	12553.7	75.7006	12553.7	76.6814	12553.7	76.5091	12553.7	78.3355	12553.7	74.2389	12553.7	73.2913	12553.7	68.1472	12553.7	65.634	12553.7	69.4806	12553.7	67.6142	12553.7	67.9934	12553.7	66.5174	12553.7	64.5453	12553.7	63.6396	12553.7	62.739	12553.7	62.5627	12553.7	59.3563	12553.7	59.2369	12553.7	58.7969	12553.7	56.6655	12553.7	55.7423	12553.7	54.7307	12553.7	49.0769	12553.7	48.6127	12553.7	48.4511	12553.7	46.8166	12553.7	51.7888	12553.7	49.0809	12553.7	44.7861
12996.1	91.1171	12996.1	88.9368	12996.1	89.31	12996.1	86.4316	12996.1	86.1146	12996.1	83.4514	12996.1	83.2005	12996.1	72.5355	12996.1	73.0339	12996.1	74.3353	12996.1	76.1087	12996.1	69.2121	12996.1	63.4826	12996.1	71.2455	12996.1	67.9691	12996.1	69.8619	12996.1	68.2629	12996.1	67.2869	12996.1	65.5817	12996.1	63.0749	12996.1	62.5178	12996.1	62.0811	12996.1	61.4391	12996.1	59.6313	12996.1	57.8858	12996.1	58.3524	12996.1	55.909	12996.1	54.7368	12996.1	52.3102	12996.1	49.973	12996.1	47.3557	12996.1	49.0883	12996.1	45.6351	12996.1	51.3844	12996.1	49.5152	12996.1	49.4875
13454.6	89.3659	13454.6	87.0825	13454.6	87.5217	13454.6	85.4757	13454.6	85.4099	13454.6	81.6284	13454.6	81.8336	13454.6	73.6575	13454.6	74.0477	13454.6	70.266	13454.6	72.1165	13454.6	69.5023	13454.6	64.2054	13454.6	70.21	13454.6	69.0318	13454.6	66.7103	13454.6	66.5026	13454.6	63.9076	13454.6	63.3898	13454.6	59.28	13454.6	59.6575	13454.6	59.2579	13454.6	59.1923	13454.6	56.6798	13454.6	54.8818	13454.6	55.0295	13454.6	53.0912	13454.6	50.2904	13454.6	46.7911	13454.6	44.7345	13454.6	46.9922	13454.6	48.9098	13454.6	37.7265	13454.6	48.4166	13454.6	46.4958	13454.6	49.0009
13929.2	88.5829	13929.2	86.1614	13929.2	86.3357	13929.2	84.7654	13929.2	84.573	13929.2	80.0184	13929.2	80.0936	13929.2	72.5832	13929.2	72.6317	13929.2	64.8735	13929.2	61.937	13929.2	71.1003	13929.2	69.6332	13929.2	69.6126	13929.2	68.7657	13929.2	64.7149	13929.2	64.4234	13929.2	62.9114	13929.2	61.2409	13929.2	57.5279	13929.2	58.5321	13929.2	58.9517	13929.2	57.9099	13929.2	55.7867	13929.2	51.1666	13929.2	52.2975	13929.2	50.0736	13929.2	48.2991	13929.2	39.9467	13929.2	41.4558	13929.2	45.4013	13929.2	47.9797	13929.2	34.4902	13929.2	46.6656	13929.2	46.168	13929.2	48.3924
14419.9	89.0145	14419.9	86.238	14419.9	86.381	14419.9	83.7848	14419.9	82.8223	14419.9	75.4433	14419.9	75.2617	14419.9	70.6213	14419.9	68.8124	14419.9	68.6725	14419.9	68.6877	14419.9	72.6207	14419.9	72.0911	14419.9	68.2545	14419.9	67.2458	14419.9	64.943	14419.9	64.6574	14419.9	62.9919	14419.9	62.7149	14419.9	58.7521	14419.9	61.4446	14419.9	60.6654	14419.9	59.923	14419.9	56.5536	14419.9	49.451	14419.9	51.5153	14419.9	51.9722	14419.9	45.1643	14419.9	46.0195	14419.9	37.9729	14419.9	45.049	14419.9	48.4227	14419.9	34.3752	14419.9	48.2982	14419.9	49.4812	14419.9	51.2174
14928.2	89.3119	14928.2	87.1098	14928.2	87.6992	14928.2	83.0481	14928.2	82.0056	14928.2	71.9604	14928.2	69.6816	14928.2	70.4732	14928.2	66.2761	14928.2	74.1998	14928.2	73.837	14928.2	70.7076	14928.2	69.2149	14928.2	69.5678	14928.2	67.2201	14928.2	67.6589	14928.2	66.5018	14928.2	64.2556	14928.2	62.7229	14928.2	60.0958	14928.2	61.5585	14928.2	59.9661	14928.2	59.3925	14928.2	53.6458	14928.2	46.2934	14928.2	48.6198	14928.2	52.8695	14928.2	42.3323	14928.2	46.9373	14928.2	39.9151	14928.2	43.7544	14928.2	47.8125	14928.2	22.5032	14928.2	45.8767	14928.2	51.0009	14928.2	52.8731
15455.6	88.0204	15455.6	86.3572	15455.6	86.3561	15455.6	82.628	15455.6	80.7997	15455.6	75.5012	15455.6	72.6747	15455.6	71.204	15455.6	66.4485	15455.6	72.4278	15455.6	72.5865	15455.6	69.1028	15455.6	68.0715	15455.6	68.4791	15455.6	66.4216	15455.6	64.3715	15455.6	63.6339	15455.6	59.8401	15455.6	57.4234	15455.6	55.953	15455.6	55.2661	15455.6	54.9348	15455.6	53.1193	15455.6	47.3976	15455.6	32.5195	15455.6	44.3466	15455.6	45.2286	15455.6	32.9373	15455.6	36.7439	15455.6	31.9078	15455.6	38.432	15455.6	44.9088	15455.6	37.7257	15455.6	40.0169	15455.6	45.7254	15455.6	46.9319
16000.5	87.6145	16000.5	85.7899	16000.5	85.6829	16000.5	82.335	16000.5	80.3948	16000.5	74.8243	16000.5	71.128	16000.5	68.3526	16000.5	65.2128	16000.5	69.8938	16000.5	70.4564	16000.5	67.864	16000.5	68.0754	16000.5	65.4527	16000.5	63.4356	16000.5	58.2257	16000.5	58.4629	16000.5	52.6202	16000.5	47.8375	16000.5	49.3921	16000.5	48.1839	16000.5	47.1928	16000.5	42.7389	16000.5	43.7897	16000.5	39.5496	16000.5	43.3227	16000.5	37.2094	16000.5	31.3222	16000.5	34.5938	16000.5	30.3954	16000.5	38.7487	16000.5	45.311	16000.5	39.2214	16000.5	36.8259	16000.5	44.4734	16000.5	44.4844
16564.5	87.106	16564.5	85.269	16564.5	83.9049	16564.5	80.7749	16564.5	76.032	16564.5	70.5931	16564.5	40.949	16564.5	69.5124	16564.5	72.2043	16564.5	71.9155	16564.5	73.0313	16564.5	70.7464	16564.5	70.0726	16564.5	63.7938	16564.5	58.0428	16564.5	54.4315	16564.5	39.7762	16564.5	51.25	16564.5	54.3409	16564.5	50.1449	16564.5	51.8507	16564.5	49.18	16564.5	46.1649	16564.5	49.1772	16564.5	48.2661	16564.5	47.6206	16564.5	45.0714	16564.5	40.5188	16564.5	43.2335	16564.5	38.2192	16564.5	38.9225	16564.5	52.1114	16564.5	32.5257	16564.5	40.7317	16564.5	45.9993	16564.5	48.3906
17148.9	86.7652	17148.9	84.9245	17148.9	82.8575	17148.9	79.7582	17148.9	73.707	17148.9	58.724	17148.9	69.7417	17148.9	73.1331	17148.9	75.0015	17148.9	73.6897	17148.9	74.479	17148.9	68.5336	17148.9	67.5484	17148.9	55.2052	17148.9	58.4749	17148.9	57.2996	17148.9	56.7891	17148.9	52.8577	17148.9	55.4203	17148.9	48.1231	17148.9	52.3116	17148.9	48.228	17148.9	46.2652	17148.9	48.1997	17148.9	41.0263	17148.9	46.4928	17148.9	41.3876	17148.9	41.689	17148.9	37.1356	17148.9	41.9371	17148.9	33.8636	17148.9	52.1219	17148.9	34.5795	17148.9	40.6606	17148.9	40.9059	17148.9	43.3567
17752.4	86.9822	17752.4	84.1763	17752.4	82.9685	17752.4	77.1157	17752.4	73.1603	17752.4	67.6718	17752.4	71.9697	17752.4	75.1171	17752.4	74.9973	17752.4	73.3893	17752.4	73.297	17752.4	61.6822	17752.4	60.1216	17752.4	49.6421	17752.4	58.0528	17752.4	54.9006	17752.4	53.6868	17752.4	46.9239	17752.4	44.8639	17752.4	38.9781	17752.4	44.661	17752.4	37.9213	17752.4	36.3131	17752.4	43.8296	17752.4	46.9523	17752.4	45.2833	17752.4	40.2969	17752.4	41.6073	17752.4	41.6479	17752.4	39.88	17752.4	30.4883	17752.4	44.4521	17752.4	36.1492	17752.4	38.3995	17752.4	46.0006	17752.4	35.8039
18379.4	85.4021	18379.4	80.5508	18379.4	79.7393	18379.4	64.4378	18379.4	58.2301	18379.4	74.2695	18379.4	73.2914	18379.4	74.1045	18379.4	74.1472	18379.4	70.8598	18379.4	71.3424	18379.4	61.2303	18379.4	58.9843	18379.4	60.4705	18379.4	60.6318	18379.4	51.7397	18379.4	46.2169	18379.4	51.3322	18379.4	51.9377	18379.4	36.683	18379.4	44.0001	18379.4	49.987	18379.4	50.055	18379.4	47.6148	18379.4	52.0761	18379.4	48.1667	18379.4	48.0553	18379.4	42.2935	18379.4	46.1484	18379.4	37.285	18379.4	36.4323	18379.4	45.1294	18379.4	40.2904	18379.4	44.6283	18379.4	49.8437	18379.4	44.2073
19026.9	82.725	19026.9	77.7394	19026.9	78.2342	19026.9	64.508	19026.9	70.2704	19026.9	74.4237	19026.9	73.5046	19026.9	74.0545	19026.9	74.2478	19026.9	65.3824	19026.9	67.0943	19026.9	66.2283	19026.9	63.1854	19026.9	33.9961	19026.9	53.7652	19026.9	55.0043	19026.9	56.7565	19026.9	55.902	19026.9	58.2014	19026.9	47.0639	19026.9	49.3581	19026.9	53.1816	19026.9	52.9495	19026.9	49.85	19026.9	52.3274	19026.9	49.5218	19026.9	50.1483	19026.9	42.4561	19026.9	45.9133	19026.9	39.8644	19026.9	37.9393	19026.9	50.3077	19026.9	40.0001	19026.9	46.2791	19026.9	48.9711	19026.9	47.6997
19697.8	81.388	19697.8	74.512	19697.8	76.5317	19697.8	74.0104	19697.8	74.7598	19697.8	75.8932	19697.8	74.6042	19697.8	74.7304	19697.8	73.9874	19697.8	55.594	19697.8	65.5733	19697.8	62.228	19697.8	57.816	19697.8	64.3775	19697.8	66.3949	19697.8	61.746	19697.8	60.7256	19697.8	58.0274	19697.8	59.9145	19697.8	47.5805	19697.8	50.1264	19697.8	53.357	19697.8	53.0689	19697.8	49.9131	19697.8	51.3039	19697.8	50.0565	19697.8	50.6788	19697.8	45.2976	19697.8	46.3399	19697.8	43.9986	19697.8	38.1972	19697.8	52.5353	19697.8	38.4698	19697.8	43.1334	19697.8	45.3592	19697.8	46.7911
19999.5	79.5278	19999.5	73.144	19999.5	75.9551	19999.5	74.5895	19999.5	75.2723	19999.5	74.034	19999.5	73.098	19999.5	72.2106	19999.5	71.3898	19999.5	61.6883	19999.5	66.3913	19999.5	60.5999	19999.5	58.58	19999.5	63.9137	19999.5	66.4291	19999.5	60.257	19999.5	57.6779	19999.5	53.8283	19999.5	56.0585	19999.5	42.1418	19999.5	48.7194	19999.5	52.5698	19999.5	50.734	19999.5	45.9534	19999.5	45.8361	19999.5	46.8935	19999.5	48.2915	19999.5	47.0069	19999.5	41.2076	19999.5	43.1684	19999.5	47.8012	19999.5	53.6939	19999.5	44.9433	19999.5	41.558	19999.5	37.3658	19999.5	46.7402
