"SPL Vertical"
"On-Axis"		"10°"		"-10°"		"20°"		"-20°"		"30°"		"-30°"		"40°"		"-40°"		"50°"		"-50°"		"60°"		"-60°"		"70°"		"-70°"		"80°"		"-80°"		"90°"		"-90°"		"100°"		"-100°"		"110°"		"-110°"		"120°"		"-120°"		"130°"		"-130°"		"140°"		"-140°"		"150°"		"-150°"		"160°"		"-160°"		"170°"		"-170°"		"180°"
"Frequency [Hz]"	"Sound Pessure Level [dB]   [2.83V at 1m]"	"Frequency [Hz]"	"Sound Pessure Level [dB]   [2.83V at 1m]"	"Frequency [Hz]"	"Sound Pessure Level [dB]   [2.83V at 1m]"	"Frequency [Hz]"	"Sound Pessure Level [dB]   [2.83V at 1m]"	"Frequency [Hz]"	"Sound Pessure Level [dB]   [2.83V at 1m]"	"Frequency [Hz]"	"Sound Pessure Level [dB]   [2.83V at 1m]"	"Frequency [Hz]"	"Sound Pessure Level [dB]   [2.83V at 1m]"	"Frequency [Hz]"	"Sound Pessure Level [dB]   [2.83V at 1m]"	"Frequency [Hz]"	"Sound Pessure Level [dB]   [2.83V at 1m]"	"Frequency [Hz]"	"Sound Pessure Level [dB]   [2.83V at 1m]"	"Frequency [Hz]"	"Sound Pessure Level [dB]   [2.83V at 1m]"	"Frequency [Hz]"	"Sound Pessure Level [dB]   [2.83V at 1m]"	"Frequency [Hz]"	"Sound Pessure Level [dB]   [2.83V at 1m]"	"Frequency [Hz]"	"Sound Pessure Level [dB]   [2.83V at 1m]"	"Frequency [Hz]"	"Sound Pessure Level [dB]   [2.83V at 1m]"	"Frequency [Hz]"	"Sound Pessure Level [dB]   [2.83V at 1m]"	"Frequency [Hz]"	"Sound Pessure Level [dB]   [2.83V at 1m]"	"Frequency [Hz]"	"Sound Pessure Level [dB]   [2.83V at 1m]"	"Frequency [Hz]"	"Sound Pessure Level [dB]   [2.83V at 1m]"	"Frequency [Hz]"	"Sound Pessure Level [dB]   [2.83V at 1m]"	"Frequency [Hz]"	"Sound Pessure Level [dB]   [2.83V at 1m]"	"Frequency [Hz]"	"Sound Pessure Level [dB]   [2.83V at 1m]"	"Frequency [Hz]"	"Sound Pessure Level [dB]   [2.83V at 1m]"	"Frequency [Hz]"	"Sound Pessure Level [dB]   [2.83V at 1m]"	"Frequency [Hz]"	"Sound Pessure Level [dB]   [2.83V at 1m]"	"Frequency [Hz]"	"Sound Pessure Level [dB]   [2.83V at 1m]"	"Frequency [Hz]"	"Sound Pessure Level [dB]   [2.83V at 1m]"	"Frequency [Hz]"	"Sound Pessure Level [dB]   [2.83V at 1m]"	"Frequency [Hz]"	"Sound Pessure Level [dB]   [2.83V at 1m]"	"Frequency [Hz]"	"Sound Pessure Level [dB]   [2.83V at 1m]"	"Frequency [Hz]"	"Sound Pessure Level [dB]   [2.83V at 1m]"	"Frequency [Hz]"	"Sound Pessure Level [dB]   [2.83V at 1m]"	"Frequency [Hz]"	"Sound Pessure Level [dB]   [2.83V at 1m]"	"Frequency [Hz]"	"Sound Pessure Level [dB]   [2.83V at 1m]"	"Frequency [Hz]"	"Sound Pessure Level [dB]   [2.83V at 1m]"	"Frequency [Hz]"	"Sound Pessure Level [dB]   [2.83V at 1m]"
20.5078	37.154	20.5078	38.0202	20.5078	36.2114	20.5078	38.7887	20.5078	35.244	20.5078	39.4547	20.5078	34.3482	20.5078	40.0216	20.5078	33.6629	20.5078	40.4957	20.5078	33.3196	20.5078	40.8844	20.5078	33.3584	20.5078	41.1949	20.5078	33.7009	20.5078	41.4332	20.5078	34.2191	20.5078	41.6043	20.5078	34.8136	20.5078	41.7116	20.5078	35.4363	20.5078	41.7576	20.5078	36.0746	20.5078	41.743	20.5078	36.7276	20.5078	41.6675	20.5078	37.3905	20.5078	41.5296	20.5078	38.0504	20.5078	41.3271	20.5078	38.6887	20.5078	41.0575	20.5078	39.2869	20.5078	40.7185	20.5078	39.8302	20.5078	40.309
21.9727	39.1873	21.9727	39.9024	21.9727	38.3783	21.9727	40.5228	21.9727	37.4851	21.9727	41.0522	21.9727	36.5328	21.9727	41.4963	21.9727	35.5716	21.9727	41.8616	21.9727	34.6857	21.9727	42.1543	21.9727	33.992	21.9727	42.3803	21.9727	33.6153	21.9727	42.5445	21.9727	33.636	21.9727	42.6513	21.9727	34.0485	21.9727	42.7038	21.9727	34.7677	21.9727	42.7043	21.9727	35.6746	21.9727	42.6539	21.9727	36.6571	21.9727	42.5524	21.9727	37.6301	21.9727	42.3983	21.9727	38.5379	21.9727	42.1884	21.9727	39.3506	21.9727	41.9174	21.9727	40.0572	21.9727	41.5783	21.9727	40.6584	21.9727	41.1621
23.4375	41.0264	23.4375	41.8653	23.4375	40.0672	23.4375	42.587	23.4375	38.9976	23.4375	43.2003	23.4375	37.855	23.4375	43.715	23.4375	36.7243	23.4375	44.141	23.4375	35.7516	23.4375	44.4866	23.4375	35.1109	23.4375	44.7587	23.4375	34.9068	23.4375	44.9625	23.4375	35.1065	23.4375	45.1015	23.4375	35.6002	23.4375	45.1773	23.4375	36.2962	23.4375	45.1902	23.4375	37.1399	23.4375	45.1386	23.4375	38.0856	23.4375	45.0197	23.4375	39.079	23.4375	44.8289	23.4375	40.0636	23.4375	44.561	23.4375	40.9938	23.4375	44.2094	23.4375	41.8396	23.4375	43.7671	23.4375	42.5858	23.4375	43.2277
24.9023	46.3798	24.9023	46.7368	24.9023	45.994	24.9023	47.06	24.9023	45.5896	24.9023	47.3472	24.9023	45.1833	24.9023	47.5982	24.9023	44.8003	24.9023	47.8134	24.9023	44.4725	24.9023	47.9937	24.9023	44.2338	24.9023	48.1397	24.9023	44.1102	24.9023	48.252	24.9023	44.1126	24.9023	48.3306	24.9023	44.2345	24.9023	48.375	24.9023	44.4582	24.9023	48.3845	24.9023	44.7611	24.9023	48.3579	24.9023	45.1193	24.9023	48.2936	24.9023	45.51	24.9023	48.1899	24.9023	45.9128	24.9023	48.0451	24.9023	46.3106	24.9023	47.8578	24.9023	46.6897	24.9023	47.6273	24.9023	47.0399	24.9023	47.3539
26.3672	45.8542	26.3672	46.0611	26.3672	45.6449	26.3672	46.2609	26.3672	45.4383	26.3672	46.4495	26.3672	45.2401	26.3672	46.6233	26.3672	45.0563	26.3672	46.7798	26.3672	44.8946	26.3672	46.9166	26.3672	44.7644	26.3672	47.0324	26.3672	44.6766	26.3672	47.126	26.3672	44.6427	26.3672	47.1964	26.3672	44.6723	26.3672	47.2432	26.3672	44.7706	26.3672	47.2658	26.3672	44.9351	26.3672	47.2635	26.3672	45.1552	26.3672	47.2357	26.3672	45.4134	26.3672	47.1815	26.3672	45.69	26.3672	47.0995	26.3672	45.9663	26.3672	46.9883	26.3672	46.228	26.3672	46.8461	26.3672	46.4649	26.3672	46.6717
27.832	47.3787	27.832	47.591	27.832	47.16	27.832	47.7934	27.832	46.9387	27.832	47.9822	27.832	46.7181	27.832	48.1539	27.832	46.5022	27.832	48.3052	27.832	46.2963	27.832	48.4335	27.832	46.1082	27.832	48.5363	27.832	45.949	27.832	48.6113	27.832	45.8326	27.832	48.6565	27.832	45.7737	27.832	48.6703	27.832	45.7841	27.832	48.651	27.832	45.8678	27.832	48.5974	27.832	46.02	27.832	48.5088	27.832	46.228	27.832	48.3848	27.832	46.4755	27.832	48.2263	27.832	46.7461	27.832	48.0351	27.832	47.0257	27.832	47.8142	27.832	47.3028	27.832	47.5681
29.2969	46.9482	29.2969	47.2659	29.2969	46.6168	29.2969	47.5629	29.2969	46.2796	29.2969	47.8338	29.2969	45.9452	29.2969	48.0744	29.2969	45.623	29.2969	48.2821	29.2969	45.3238	29.2969	48.4551	29.2969	45.0615	29.2969	48.5922	29.2969	44.854	29.2969	48.6928	29.2969	44.7232	29.2969	48.7564	29.2969	44.6904	29.2969	48.7825	29.2969	44.7697	29.2969	48.7703	29.2969	44.9606	29.2969	48.7188	29.2969	45.2472	29.2969	48.627	29.2969	45.6031	29.2969	48.4935	29.2969	45.9985	29.2969	48.3172	29.2969	46.4067	29.2969	48.0974	29.2969	46.8068	29.2969	47.834	29.2969	47.1841	29.2969	47.5285
30.7617	49.1733	30.7617	49.4421	30.7617	48.8837	30.7617	49.6857	30.7617	48.5793	30.7617	49.9007	30.7617	48.2672	30.7617	50.0848	30.7617	47.9565	30.7617	50.2365	30.7617	47.6587	30.7617	50.3548	30.7617	47.388	30.7617	50.4394	30.7617	47.1622	30.7617	50.4898	30.7617	47.0003	30.7617	50.5061	30.7617	46.9198	30.7617	50.4879	30.7617	46.9321	30.7617	50.4351	30.7617	47.0382	30.7617	50.3474	30.7617	47.2287	30.7617	50.2246	30.7617	47.486	30.7617	50.0665	30.7617	47.7892	30.7617	49.8734	30.7617	48.1178	30.7617	49.646	30.7617	48.4541	30.7617	49.3863	30.7617	48.7841	30.7617	49.0974
32.2266	51.0866	32.2266	51.3157	32.2266	50.8322	32.2266	51.517	32.2266	50.5562	32.2266	51.6887	32.2266	50.2634	32.2266	51.8295	32.2266	49.9607	32.2266	51.9388	32.2266	49.6574	32.2266	52.0164	32.2266	49.3664	32.2266	52.062	32.2266	49.1043	32.2266	52.0757	32.2266	48.8905	32.2266	52.0576	32.2266	48.7447	32.2266	52.0076	32.2266	48.6823	32.2266	51.9257	32.2266	48.7108	32.2266	51.8117	32.2266	48.8271	32.2266	51.6656	32.2266	49.0194	32.2266	51.4878	32.2266	49.2698	32.2266	51.2788	32.2266	49.5585	32.2266	51.0402	32.2266	49.8672	32.2266	50.7744	32.2266	50.1803	32.2266	50.4857
33.6914	53.4231	33.6914	53.5896	33.6914	53.2304	33.6914	53.7304	33.6914	53.0117	33.6914	53.846	33.6914	52.768	33.6914	53.9371	33.6914	52.5028	33.6914	54.0041	33.6914	52.2229	33.6914	54.0472	33.6914	51.94	33.6914	54.0666	33.6914	51.6708	33.6914	54.0622	33.6914	51.4366	33.6914	54.0335	33.6914	51.2597	33.6914	53.9801	33.6914	51.1588	33.6914	53.9012	33.6914	51.144	33.6914	53.7962	33.6914	51.2148	33.6914	53.6643	33.6914	51.3607	33.6914	53.5054	33.6914	51.5651	33.6914	53.3196	33.6914	51.8093	33.6914	53.1078	33.6914	52.0756	33.6914	52.8725	33.6914	52.349	33.6914	52.6175
35.1562	53.8939	35.1562	54.0303	35.1562	53.7486	35.1562	54.1586	35.1562	53.5936	35.1562	54.279	35.1562	53.4286	35.1562	54.3916	35.1562	53.2553	35.1562	54.4956	35.1562	53.0786	35.1562	54.5901	35.1562	52.9079	35.1562	54.6737	35.1562	52.7576	35.1562	54.7446	35.1562	52.6459	35.1562	54.8009	35.1562	52.5909	35.1562	54.8402	35.1562	52.606	35.1562	54.8602	35.1562	52.695	35.1562	54.8581	35.1562	52.851	35.1562	54.8312	35.1562	53.0589	35.1562	54.7768	35.1562	53.2991	35.1562	54.6925	35.1562	53.5525	35.1562	54.5765	35.1562	53.8027	35.1562	54.4279	35.1562	54.0371	35.1562	54.2472
36.6211	53.4506	36.6211	53.6338	36.6211	53.2529	36.6211	53.8008	36.6211	53.0436	36.6211	53.9505	36.6211	52.8273	36.6211	54.0822	36.6211	52.611	36.6211	54.1959	36.6211	52.4047	36.6211	54.2914	36.6211	52.2222	36.6211	54.3689	36.6211	52.0803	36.6211	54.4284	36.6211	51.9965	36.6211	54.4697	36.6211	51.985	36.6211	54.4924	36.6211	52.052	36.6211	54.4959	36.6211	52.1936	36.6211	54.4789	36.6211	52.3961	36.6211	54.4403	36.6211	52.6399	36.6211	54.3781	36.6211	52.9039	36.6211	54.2904	36.6211	53.1695	36.6211	54.1754	36.6211	53.4225	36.6211	54.0314	36.6211	53.6536	36.6211	53.8574
38.0859	56.5336	38.0859	56.6852	38.0859	56.3562	38.0859	56.8107	38.0859	56.1545	38.0859	56.9104	38.0859	55.9319	38.0859	56.9848	38.0859	55.694	38.0859	57.0348	38.0859	55.4501	38.0859	57.0614	38.0859	55.2129	38.0859	57.0654	38.0859	54.9986	38.0859	57.0477	38.0859	54.8244	38.0859	57.0089	38.0859	54.7053	38.0859	56.9495	38.0859	54.6506	38.0859	56.87	38.0859	54.6621	38.0859	56.7708	38.0859	54.7341	38.0859	56.6522	38.0859	54.856	38.0859	56.515	38.0859	55.0153	38.0859	56.36	38.0859	55.1997	38.0859	56.1886	38.0859	55.3987	38.0859	56.0032	38.0859	55.6034	38.0859	55.8067
39.5508	57.8728	39.5508	57.9809	39.5508	57.7444	39.5508	58.0692	39.5508	57.5958	39.5508	58.1386	39.5508	57.4285	39.5508	58.1899	39.5508	57.2461	39.5508	58.2242	39.5508	57.0554	39.5508	58.2422	39.5508	56.8663	39.5508	58.2444	39.5508	56.6922	39.5508	58.2313	39.5508	56.5478	39.5508	58.2033	39.5508	56.4467	39.5508	58.1604	39.5508	56.398	39.5508	58.1029	39.5508	56.4042	39.5508	58.0309	39.5508	56.4613	39.5508	57.9445	39.5508	56.5601	39.5508	57.8439	39.5508	56.6895	39.5508	57.7296	39.5508	56.8381	39.5508	57.6022	39.5508	56.9963	39.5508	57.463	39.5508	57.1567	39.5508	57.3136
41.0156	59.1287	41.0156	59.2367	41.0156	58.9988	41.0156	59.3232	41.0156	58.8476	41.0156	59.3886	41.0156	58.6774	41.0156	59.4338	41.0156	58.4923	41.0156	59.4597	41.0156	58.2995	41.0156	59.4671	41.0156	58.1093	41.0156	59.4569	41.0156	57.9349	41.0156	59.4299	41.0156	57.7901	41.0156	59.3869	41.0156	57.6875	41.0156	59.3287	41.0156	57.6349	41.0156	59.2563	41.0156	57.6337	41.0156	59.1704	41.0156	57.6795	41.0156	59.0722	41.0156	57.7637	41.0156	58.9627	41.0156	57.8761	41.0156	58.8431	41.0156	58.0068	41.0156	58.7147	41.0156	58.1477	41.0156	58.5789	41.0156	58.2927	41.0156	58.4375
42.4805	60.4323	42.4805	60.5273	42.4805	60.3182	42.4805	60.6035	42.4805	60.1856	42.4805	60.6618	42.4805	60.037	42.4805	60.7032	42.4805	59.8768	42.4805	60.7289	42.4805	59.7123	42.4805	60.7399	42.4805	59.5539	42.4805	60.7374	42.4805	59.414	42.4805	60.7222	42.4805	59.3052	42.4805	60.6951	42.4805	59.2376	42.4805	60.6568	42.4805	59.2164	42.4805	60.6079	42.4805	59.2406	42.4805	60.5487	42.4805	59.3039	42.4805	60.4797	42.4805	59.3965	42.4805	60.4012	42.4805	59.5083	42.4805	60.3134	42.4805	59.6303	42.4805	60.2167	42.4805	59.7556	42.4805	60.1115	42.4805	59.8794	42.4805	59.9987
43.9453	62.1291	43.9453	62.2045	43.9453	62.0315	43.9453	62.2587	43.9453	61.9118	43.9453	62.2936	43.9453	61.7716	43.9453	62.3111	43.9453	61.615	43.9453	62.313	43.9453	61.4492	43.9453	62.3012	43.9453	61.2843	43.9453	62.2775	43.9453	61.1327	43.9453	62.2432	43.9453	61.0072	43.9453	62.1996	43.9453	60.9185	43.9453	62.1477	43.9453	60.873	43.9453	62.0882	43.9453	60.871	43.9453	62.0216	43.9453	60.9078	43.9453	61.9484	43.9453	60.9752	43.9453	61.8687	43.9453	61.064	43.9453	61.7827	43.9453	61.1657	43.9453	61.6906	43.9453	61.2735	43.9453	61.5926	43.9453	61.3825	43.9453	61.4895
45.4102	62.7144	45.4102	62.7914	45.4102	62.6119	45.4102	62.8442	45.4102	62.4833	45.4102	62.8749	45.4102	62.3302	45.4102	62.8858	45.4102	62.1566	45.4102	62.8792	45.4102	61.9699	45.4102	62.8571	45.4102	61.7809	45.4102	62.8215	45.4102	61.6032	45.4102	62.7739	45.4102	61.451	45.4102	62.7159	45.4102	61.3367	45.4102	62.6484	45.4102	61.2681	45.4102	62.5725	45.4102	61.2466	45.4102	62.4889	45.4102	61.2684	45.4102	62.3982	45.4102	61.3257	45.4102	62.3009	45.4102	61.4094	45.4102	62.1976	45.4102	61.5109	45.4102	62.0888	45.4102	61.623	45.4102	61.9754	45.4102	61.7402	45.4102	61.8586
46.875	64.0628	46.875	64.1222	46.875	63.9747	46.875	64.1552	46.875	63.8567	46.875	64.1644	46.875	63.7098	46.875	64.1528	46.875	63.5373	46.875	64.1232	46.875	63.3463	46.875	64.0782	46.875	63.1475	46.875	64.02	46.875	62.9548	46.875	63.9506	46.875	62.783	46.875	63.8719	46.875	62.6453	46.875	63.7852	46.875	62.5502	46.875	63.6917	46.875	62.5003	46.875	63.5928	46.875	62.4923	46.875	63.4894	46.875	62.5197	46.875	63.3825	46.875	62.5747	46.875	63.2733	46.875	62.6499	46.875	63.1628	46.875	62.7393	46.875	63.0524	46.875	62.8384	46.875	62.9436
48.3398	65.3859	48.3398	65.3827	48.3398	65.3604	48.3398	65.3545	48.3398	65.3026	48.3398	65.3054	48.3398	65.2103	48.3398	65.2389	48.3398	65.083	48.3398	65.1585	48.3398	64.9232	48.3398	65.0669	48.3398	64.7367	48.3398	64.9665	48.3398	64.5331	48.3398	64.8592	48.3398	64.3246	48.3398	64.7467	48.3398	64.1248	48.3398	64.6303	48.3398	63.9461	48.3398	64.5112	48.3398	63.798	48.3398	64.3906	48.3398	63.6862	48.3398	64.2699	48.3398	63.6127	48.3398	64.1505	48.3398	63.5764	48.3398	64.0342	48.3398	63.5745	48.3398	63.9235	48.3398	63.6027	48.3398	63.8212	48.3398	63.6564	48.3398	63.7308
51.2695	66.6914	51.2695	66.7123	51.2695	66.6451	51.2695	66.7121	51.2695	66.57	51.2695	66.6945	51.2695	66.4633	51.2695	66.6631	51.2695	66.324	51.2695	66.621	51.2695	66.154	51.2695	66.5706	51.2695	65.959	51.2695	66.5136	51.2695	65.749	51.2695	66.4509	51.2695	65.5385	51.2695	66.3827	51.2695	65.3447	51.2695	66.3088	51.2695	65.1844	51.2695	66.2286	51.2695	65.0711	51.2695	66.1411	51.2695	65.0118	51.2695	66.0457	51.2695	65.006	51.2695	65.9421	51.2695	65.0467	51.2695	65.8307	51.2695	65.1233	51.2695	65.7125	51.2695	65.2245	51.2695	65.5894	51.2695	65.3407	51.2695	65.4642
52.7344	66.8453	52.7344	66.9101	52.7344	66.7817	52.7344	66.9758	52.7344	66.7205	52.7344	67.0425	52.7344	66.6639	52.7344	67.1106	52.7344	66.6156	52.7344	67.1808	52.7344	66.581	52.7344	67.2533	52.7344	66.5673	52.7344	67.3287	52.7344	66.5825	52.7344	67.4067	52.7344	66.6338	52.7344	67.487	52.7344	66.7251	52.7344	67.5684	52.7344	66.8551	52.7344	67.6493	52.7344	67.0159	52.7344	67.7273	52.7344	67.1944	52.7344	67.7995	52.7344	67.3753	52.7344	67.8624	52.7344	67.544	52.7344	67.9119	52.7344	67.6895	52.7344	67.9436	52.7344	67.8046	52.7344	67.9527	52.7344	67.8864	52.7344	67.9349
54.1992	67.79	54.1992	67.8829	54.1992	67.6812	54.1992	67.958	54.1992	67.562	54.1992	68.0154	54.1992	67.4417	54.1992	68.0573	54.1992	67.334	54.1992	68.0868	54.1992	67.256	54.1992	68.108	54.1992	67.2257	54.1992	68.1251	54.1992	67.2578	54.1992	68.1425	54.1992	67.3591	54.1992	68.1644	54.1992	67.5243	54.1992	68.1945	54.1992	67.7365	54.1992	68.2352	54.1992	67.9709	54.1992	68.288	54.1992	68.2004	54.1992	68.3525	54.1992	68.4019	54.1992	68.4266	54.1992	68.5597	54.1992	68.5062	54.1992	68.6668	54.1992	68.5852	54.1992	68.7232	54.1992	68.6557	54.1992	68.7344	54.1992	68.7087
55.6641	69.1452	55.6641	69.1689	55.6641	69.0832	55.6641	69.1577	55.6641	68.9811	55.6641	69.1157	55.6641	68.8393	55.6641	69.0472	55.6641	68.6618	55.6641	68.9568	55.6641	68.4565	55.6641	68.8487	55.6641	68.236	55.6641	68.7269	55.6641	68.017	55.6641	68.5953	55.6641	67.8172	55.6641	68.4575	55.6641	67.6521	55.6641	68.3171	55.6641	67.5305	55.6641	68.1777	55.6641	67.4527	55.6641	68.0429	55.6641	67.4117	55.6641	67.916	55.6641	67.3967	55.6641	67.8004	55.6641	67.3979	55.6641	67.6989	55.6641	67.4088	55.6641	67.6134	55.6641	67.4272	55.6641	67.5448	55.6641	67.4541	55.6641	67.4923
58.5938	69.5121	58.5938	69.5249	58.5938	69.4607	58.5938	69.5039	58.5938	69.3673	58.5938	69.4536	58.5938	69.2297	58.5938	69.3789	58.5938	69.0483	58.5938	69.2842	58.5938	68.8267	58.5938	69.1737	58.5938	68.5731	58.5938	69.0509	58.5938	68.2999	58.5938	68.9189	58.5938	68.0237	58.5938	68.7804	58.5938	67.7635	58.5938	68.6376	58.5938	67.5375	58.5938	68.4921	58.5938	67.3604	58.5938	68.3454	58.5938	67.2406	58.5938	68.1984	58.5938	67.1794	58.5938	68.0521	58.5938	67.1719	58.5938	67.9075	58.5938	67.2098	58.5938	67.7658	58.5938	67.2831	58.5938	67.6288	58.5938	67.3823	58.5938	67.4995
60.0586	70.4321	60.0586	70.4174	60.0586	70.4108	60.0586	70.3713	60.0586	70.3494	60.0586	70.2987	60.0586	70.2455	60.0586	70.2044	60.0586	70.0983	60.0586	70.0929	60.0586	69.9104	60.0586	69.9683	60.0586	69.6877	60.0586	69.8342	60.0586	69.4401	60.0586	69.6937	60.0586	69.1811	60.0586	69.5494	60.0586	68.9265	60.0586	69.4035	60.0586	68.6926	60.0586	69.2577	60.0586	68.4935	60.0586	69.1133	60.0586	68.3394	60.0586	68.9716	60.0586	68.2355	60.0586	68.8336	60.0586	68.1817	60.0586	68.7006	60.0586	68.1737	60.0586	68.5745	60.0586	68.2047	60.0586	68.4575	60.0586	68.2671	60.0586	68.3534
62.9883	71.9763	62.9883	71.9483	62.9883	71.9766	62.9883	71.8969	62.9883	71.946	62.9883	71.8266	62.9883	71.8826	62.9883	71.7422	62.9883	71.787	62.9883	71.6481	62.9883	71.6623	62.9883	71.5484	62.9883	71.5148	62.9883	71.4468	62.9883	71.3537	62.9883	71.3461	62.9883	71.1901	62.9883	71.2488	62.9883	71.0352	62.9883	71.1567	62.9883	70.8989	62.9883	71.0709	62.9883	70.7876	62.9883	70.9921	62.9883	70.7043	62.9883	70.9204	62.9883	70.6486	62.9883	70.8559	62.9883	70.6177	62.9883	70.7981	62.9883	70.6078	62.9883	70.7468	62.9883	70.6146	62.9883	70.702	62.9883	70.6343	62.9883	70.6641
64.4531	72.5764	64.4531	72.55	64.4531	72.5783	64.4531	72.5032	64.4531	72.553	64.4531	72.44	64.4531	72.4991	64.4531	72.3651	64.4531	72.4174	64.4531	72.2826	64.4531	72.3114	64.4531	72.1965	64.4531	72.1874	64.4531	72.1104	64.4531	72.0544	64.4531	72.027	64.4531	71.9225	64.4531	71.9488	64.4531	71.8018	64.4531	71.8773	64.4531	71.7	64.4531	71.8136	64.4531	71.6217	64.4531	71.7581	64.4531	71.5677	64.4531	71.7104	64.4531	71.5355	64.4531	71.6701	64.4531	71.5212	64.4531	71.636	64.4531	71.5202	64.4531	71.6071	64.4531	71.5284	64.4531	71.5823	64.4531	71.5425	64.4531	71.5608
67.3828	74.131	67.3828	74.0893	67.3828	74.1478	67.3828	74.0271	67.3828	74.1368	67.3828	73.9488	67.3828	74.0963	67.3828	73.8592	67.3828	74.0267	67.3828	73.7628	67.3828	73.9311	67.3828	73.6642	67.3828	73.8152	67.3828	73.567	67.3828	73.6873	67.3828	73.4748	67.3828	73.557	67.3828	73.39	67.3828	73.4341	67.3828	73.3148	67.3828	73.3263	67.3828	73.2503	67.3828	73.2384	67.3828	73.197	67.3828	73.172	67.3828	73.1548	67.3828	73.1255	67.3828	73.1228	67.3828	73.0955	67.3828	73.0997	67.3828	73.0781	67.3828	73.0839	67.3828	73.0694	67.3828	73.0738	67.3828	73.0666	67.3828	73.0683
68.8477	74.6684	68.8477	74.6227	68.8477	74.6891	68.8477	74.5561	68.8477	74.6819	68.8477	74.4731	68.8477	74.6453	68.8477	74.3784	68.8477	74.5801	68.8477	74.2768	68.8477	74.4894	68.8477	74.1729	68.8477	74.379	68.8477	74.0707	68.8477	74.2569	68.8477	73.9739	68.8477	74.1327	68.8477	73.8854	68.8477	74.0152	68.8477	73.8076	68.8477	73.9115	68.8477	73.742	68.8477	73.826	68.8477	73.6894	68.8477	73.7593	68.8477	73.6498	68.8477	73.7096	68.8477	73.6225	68.8477	73.6738	68.8477	73.6061	68.8477	73.6479	68.8477	73.5989	68.8477	73.629	68.8477	73.599	68.8477	73.6148	68.8477	73.6047
71.7773	75.6553	71.7773	75.6004	71.7773	75.6844	71.7773	75.524	71.7773	75.685	71.7773	75.4307	71.7773	75.6556	71.7773	75.3255	71.7773	75.5969	71.7773	75.2134	71.7773	75.5122	71.7773	75.0993	71.7773	75.4072	71.7773	74.9878	71.7773	75.2901	71.7773	74.8828	71.7773	75.1699	71.7773	74.788	71.7773	75.0552	71.7773	74.7059	71.7773	74.9526	71.7773	74.6385	71.7773	74.8657	71.7773	74.5869	71.7773	74.7949	71.7773	74.5512	71.7773	74.7382	71.7773	74.5307	71.7773	74.6923	71.7773	74.5239	71.7773	74.6539	71.7773	74.5289	71.7773	74.6203	71.7773	74.5431	71.7773	74.5904	71.7773	74.5643
74.707	76.4045	74.707	76.3442	74.707	76.4372	74.707	76.2606	74.707	76.4394	74.707	76.1584	74.707	76.4098	74.707	76.0429	74.707	76.3492	74.707	75.9194	74.707	76.2609	74.707	75.7931	74.707	76.151	74.707	75.669	74.707	76.0277	74.707	75.5515	74.707	75.9004	74.707	75.4446	74.707	75.7778	74.707	75.3516	74.707	75.6667	74.707	75.2748	74.707	75.5709	74.707	75.2158	74.707	75.4907	74.707	75.175	74.707	75.4242	74.707	75.152	74.707	75.3681	74.707	75.1454	74.707	75.3192	74.707	75.1531	74.707	75.2753	74.707	75.1725	74.707	75.2357	74.707	75.2008
77.6367	77.2021	77.6367	77.1358	77.6367	77.2403	77.6367	77.0456	77.6367	77.2473	77.6367	76.9364	77.6367	77.2217	77.6367	76.8134	77.6367	77.1642	77.6367	76.6821	77.6367	77.0777	77.6367	76.5477	77.6367	76.9682	77.6367	76.4153	77.6367	76.8434	77.6367	76.2895	77.6367	76.7124	77.6367	76.1745	77.6367	76.5838	77.6367	76.0738	77.6367	76.4642	77.6367	75.9898	77.6367	76.3576	77.6367	75.9245	77.6367	76.2649	77.6367	75.8786	77.6367	76.1848	77.6367	75.852	77.6367	76.115	77.6367	75.8435	77.6367	76.0532	77.6367	75.8514	77.6367	75.9978	77.6367	75.8733	77.6367	75.9486	77.6367	75.9065
79.1016	77.5645	79.1016	77.4993	79.1016	77.6031	79.1016	77.4118	79.1016	77.6123	79.1016	77.3068	79.1016	77.5906	79.1016	77.1895	79.1016	77.5388	79.1016	77.0653	79.1016	77.4601	79.1016	76.9394	79.1016	77.3604	79.1016	76.8167	79.1016	77.2474	79.1016	76.7018	79.1016	77.1299	79.1016	76.5986	79.1016	77.0162	79.1016	76.5103	79.1016	76.9123	79.1016	76.4392	79.1016	76.8213	79.1016	76.3868	79.1016	76.7434	79.1016	76.3534	79.1016	76.6764	79.1016	76.3384	79.1016	76.6174	79.1016	76.3403	79.1016	76.5635	79.1016	76.3568	79.1016	76.5131	79.1016	76.3852	79.1016	76.4657	79.1016	76.4224
82.0312	78.3057	82.0312	78.2373	82.0312	78.3472	82.0312	78.1463	82.0312	78.3588	82.0312	78.0377	82.0312	78.3392	82.0312	77.9169	82.0312	78.2894	82.0312	77.7895	82.0312	78.2129	82.0312	77.6611	82.0312	78.1159	82.0312	77.537	82.0312	78.0064	82.0312	77.4219	82.0312	77.8938	82.0312	77.3202	82.0312	77.7863	82.0312	77.2354	82.0312	77.6901	82.0312	77.1698	82.0312	77.6077	82.0312	77.125	82.0312	77.5386	82.0312	77.1011	82.0312	77.4797	82.0312	77.0972	82.0312	77.4269	82.0312	77.1111	82.0312	77.3765	82.0312	77.1397	82.0312	77.3263	82.0312	77.1792	82.0312	77.2757	82.0312	77.2258
84.9609	78.8996	84.9609	78.8182	84.9609	78.9534	84.9609	78.7138	84.9609	78.9761	84.9609	78.5919	84.9609	78.9665	84.9609	78.4582	84.9609	78.925	84.9609	78.3191	84.9609	78.8552	84.9609	78.1805	84.9609	78.7632	84.9609	78.0481	84.9609	78.6569	84.9609	77.9272	84.9609	78.5456	84.9609	77.8225	84.9609	78.4377	84.9609	77.7374	84.9609	78.3394	84.9609	77.6747	84.9609	78.2535	84.9609	77.6356	84.9609	78.1795	84.9609	77.6201	84.9609	78.1144	84.9609	77.6268	84.9609	78.054	84.9609	77.653	84.9609	77.9947	84.9609	77.6951	84.9609	77.9341	84.9609	77.7485	84.9609	77.8716	84.9609	77.8088
87.8906	79.4787	87.8906	79.3867	87.8906	79.5437	87.8906	79.2726	87.8906	79.578	87.8906	79.1424	87.8906	79.5799	87.8906	79.0025	87.8906	79.5499	87.8906	78.8595	87.8906	79.4913	87.8906	78.7199	87.8906	79.4098	87.8906	78.59	87.8906	79.3135	87.8906	78.4753	87.8906	79.2111	87.8906	78.3801	87.8906	79.1109	87.8906	78.3079	87.8906	79.0189	87.8906	78.2606	87.8906	78.9378	87.8906	78.2387	87.8906	78.8674	87.8906	78.2411	87.8906	78.8047	87.8906	78.2651	87.8906	78.7459	87.8906	78.307	87.8906	78.6872	87.8906	78.3624	87.8906	78.6259	87.8906	78.4261	87.8906	78.5611	87.8906	78.4937
90.8203	79.9818	90.8203	79.8889	90.8203	80.0459	90.8203	79.7721	90.8203	80.078	90.8203	79.6372	90.8203	80.077	90.8203	79.4907	90.8203	80.0442	90.8203	79.3397	90.8203	79.9835	90.8203	79.1913	90.8203	79.9014	90.8203	79.0526	90.8203	79.8067	90.8203	78.9298	90.8203	79.7082	90.8203	78.8286	90.8203	79.6142	90.8203	78.753	90.8203	79.5297	90.8203	78.7056	90.8203	79.4565	90.8203	78.687	90.8203	79.3929	90.8203	78.6961	90.8203	79.3349	90.8203	78.7295	90.8203	79.2781	90.8203	78.7828	90.8203	79.2184	90.8203	78.8504	90.8203	79.1531	90.8203	78.9263	90.8203	79.0815	90.8203	79.0049
95.2148	80.9033	95.2148	80.8086	95.2148	80.9659	95.2148	80.6865	95.2148	80.993	95.2148	80.5429	95.2148	80.9834	95.2148	80.3846	95.2148	80.9383	95.2148	80.2186	95.2148	80.8621	95.2148	80.0521	95.2148	80.7616	95.2148	79.8923	95.2148	80.6463	95.2148	79.7459	95.2148	80.5263	95.2148	79.6189	95.2148	80.4105	95.2148	79.5163	95.2148	80.3049	95.2148	79.4418	95.2148	80.2116	95.2148	79.3973	95.2148	80.1288	95.2148	79.3829	95.2148	80.0525	95.2148	79.3969	95.2148	79.978	95.2148	79.436	95.2148	79.9014	95.2148	79.4952	95.2148	79.8208	95.2148	79.5689	95.2148	79.7365	95.2148	79.6511
98.1445	81.4944	98.1445	81.3898	98.1445	81.5649	98.1445	81.2563	98.1445	81.598	98.1445	81.0998	98.1445	81.5923	98.1445	80.9274	98.1445	81.549	98.1445	80.7464	98.1445	81.4721	98.1445	80.5646	98.1445	81.3684	98.1445	80.3894	98.1445	81.2469	98.1445	80.2282	98.1445	81.1178	98.1445	80.0873	98.1445	80.9899	98.1445	79.9721	98.1445	80.8695	98.1445	79.8866	98.1445	80.7593	98.1445	79.8331	98.1445	80.6583	98.1445	79.8119	98.1445	80.5632	98.1445	79.8216	98.1445	80.4703	98.1445	79.8591	98.1445	80.3765	98.1445	79.9196	98.1445	80.2804	98.1445	79.9976	98.1445	80.1831	98.1445	80.0873
101.074	82.0273	101.074	81.9188	101.074	82.0987	101.074	81.778	101.074	82.13	101.074	81.611	101.074	82.12	101.074	81.4246	101.074	82.0703	101.074	81.2265	101.074	81.9852	101.074	81.0247	101.074	81.8718	101.074	80.8277	101.074	81.7395	101.074	80.6434	101.074	81.5986	101.074	80.4796	101.074	81.458	101.074	80.3427	101.074	81.324	101.074	80.238	101.074	81.1992	101.074	80.1687	101.074	81.0825	101.074	80.1359	101.074	80.9708	101.074	80.1385	101.074	80.861	101.074	80.1734	101.074	80.7503	101.074	80.2358	101.074	80.6384	101.074	80.3197	101.074	80.5266	101.074	80.4187
105.469	82.7732	105.469	82.6709	105.469	82.8384	105.469	82.5361	105.469	82.8628	105.469	82.3745	105.469	82.8451	105.469	82.1926	105.469	82.786	105.469	81.9973	105.469	82.6892	105.469	81.7958	105.469	82.5614	105.469	81.5957	105.469	82.412	105.469	81.4044	105.469	82.2518	105.469	81.2292	105.469	82.0913	105.469	81.0769	105.469	81.9383	105.469	80.953	105.469	81.7969	105.469	80.862	105.469	81.667	105.469	80.8062	105.469	81.5461	105.469	80.7859	105.469	81.4305	105.469	80.7995	105.469	81.3175	105.469	80.8432	105.469	81.2065	105.469	80.9117	105.469	81.0991	105.469	80.9991
108.398	83.1949	108.398	83.0911	108.398	83.2642	108.398	82.9578	108.398	83.2952	108.398	82.8011	108.398	83.286	108.398	82.6275	108.398	83.237	108.398	82.4441	108.398	83.1514	108.398	82.2579	108.398	83.0353	108.398	82.0762	108.398	82.8976	108.398	81.9058	108.398	82.7484	108.398	81.7531	108.398	82.5977	108.398	81.6235	108.398	82.4537	108.398	81.5216	108.398	82.3208	108.398	81.4502	108.398	82.2001	108.398	81.4106	108.398	82.0896	108.398	81.4019	108.398	81.9862	108.398	81.4217	108.398	81.887	108.398	81.4663	108.398	81.7905	108.398	81.5305	108.398	81.697	108.398	81.609
112.793	83.8455	112.793	83.7373	112.793	83.9205	112.793	83.6009	112.793	83.9588	112.793	83.4423	112.793	83.9588	112.793	83.2684	112.793	83.9215	112.793	83.0864	112.793	83.8506	112.793	82.9038	112.793	83.7526	112.793	82.7279	112.793	83.6362	112.793	82.5659	112.793	83.5111	112.793	82.4242	112.793	83.3859	112.793	82.3084	112.793	83.2669	112.793	82.2225	112.793	83.1565	112.793	82.1693	112.793	83.0536	112.793	82.1492	112.793	82.9551	112.793	82.1611	112.793	82.8573	112.793	82.202	112.793	82.7574	112.793	82.2671	112.793	82.6545	112.793	82.3508	112.793	82.5499	112.793	82.4471
117.188	84.353	117.188	84.2421	117.188	84.4314	117.188	84.1038	117.188	84.474	117.188	83.9443	117.188	84.4794	117.188	83.7706	117.188	84.4488	117.188	83.5902	117.188	84.3861	117.188	83.4109	117.188	84.2982	117.188	83.2403	117.188	84.194	117.188	83.0858	117.188	84.0832	117.188	82.9539	117.188	83.9743	117.188	82.8501	117.188	83.8728	117.188	82.7784	117.188	83.7801	117.188	82.7408	117.188	83.6939	117.188	82.7376	117.188	83.6097	117.188	82.7667	117.188	83.5226	117.188	82.8243	117.188	83.4289	117.188	82.905	117.188	83.3275	117.188	83.0024	117.188	83.2198	117.188	83.1096
120.117	84.7364	120.117	84.632	120.117	84.8058	120.117	84.4975	120.117	84.8373	120.117	84.3394	120.117	84.8299	120.117	84.1646	120.117	84.7856	120.117	83.9811	120.117	84.7091	120.117	83.797	120.117	84.6084	120.117	83.6203	120.117	84.4932	120.117	83.4588	120.117	84.3738	120.117	83.3196	120.117	84.2591	120.117	83.2086	120.117	84.1549	120.117	83.1301	120.117	84.0626	120.117	83.0865	120.117	83.9794	120.117	83.0782	120.117	83.9002	120.117	83.1032	120.117	83.8194	120.117	83.1572	120.117	83.7327	120.117	83.2347	120.117	83.6381	120.117	83.3286	120.117	83.5365	120.117	83.4315
124.512	85.3121	124.512	85.2031	124.512	85.3855	124.512	85.0637	124.512	85.4205	124.512	84.9003	124.512	85.4164	124.512	84.7205	124.512	85.3756	124.512	84.5327	124.512	85.3036	124.512	84.3455	124.512	85.2086	124.512	84.1675	124.512	85.1011	124.512	84.007	124.512	84.9917	124.512	83.8713	124.512	84.889	124.512	83.7665	124.512	84.7978	124.512	83.6969	124.512	84.7185	124.512	83.6649	124.512	84.6471	124.512	83.6702	124.512	84.5772	124.512	83.7103	124.512	84.5025	124.512	83.7804	124.512	84.4179	124.512	83.8739	124.512	84.3212	124.512	83.9827	124.512	84.2134	124.512	84.0984
128.906	85.8471	128.906	85.7349	128.906	85.9212	128.906	85.59	128.906	85.9542	128.906	85.4193	128.906	85.9456	128.906	85.2311	128.906	85.8983	128.906	85.0344	128.906	85.8188	128.906	84.8386	128.906	85.7168	128.906	84.6533	128.906	85.6045	128.906	84.4876	128.906	85.4941	128.906	84.3497	128.906	85.3954	128.906	84.2461	128.906	85.3133	128.906	84.1815	128.906	85.2466	128.906	84.1578	128.906	85.1894	128.906	84.1744	128.906	85.1331	128.906	84.2279	128.906	85.0693	128.906	84.3122	128.906	84.9916	128.906	84.4195	128.906	84.8974	128.906	84.5407	128.906	84.7875	128.906	84.6663
133.301	86.3534	133.301	86.2403	133.301	86.4245	133.301	86.0902	133.301	86.4504	133.301	85.9101	133.301	86.4308	133.301	85.7081	133.301	86.3685	133.301	85.4934	133.301	86.27	133.301	85.2761	133.301	86.1452	133.301	85.0665	133.301	86.007	133.301	84.8747	133.301	85.8687	133.301	84.7101	133.301	85.742	133.301	84.5806	133.301	85.6336	133.301	84.492	133.301	85.5441	133.301	84.4473	133.301	85.4683	133.301	84.4464	133.301	85.3977	133.301	84.4862	133.301	85.3233	133.301	84.5606	133.301	85.238	133.301	84.6614	133.301	85.1387	133.301	84.7789	133.301	85.0257	133.301	84.9034
139.16	86.6721	139.16	86.5622	139.16	86.7437	139.16	86.419	139.16	86.7741	139.16	86.2489	139.16	86.7626	139.16	86.0598	139.16	86.7117	139.16	85.8599	139.16	86.6274	139.16	85.6587	139.16	86.5188	139.16	85.4652	139.16	86.3972	139.16	85.2889	139.16	86.2746	139.16	85.138	139.16	86.1609	139.16	85.0196	139.16	86.0619	139.16	84.9391	139.16	85.9776	139.16	84.8991	139.16	85.9036	139.16	84.8998	139.16	85.8324	139.16	84.9383	139.16	85.7564	139.16	85.0093	139.16	85.6698	139.16	85.1055	139.16	85.57	139.16	85.2183	139.16	85.4582	139.16	85.3387
143.555	86.7417	143.555	86.6287	143.555	86.8145	143.555	86.4809	143.555	86.844	143.555	86.3052	143.555	86.8303	143.555	86.1105	143.555	86.777	143.555	85.9062	143.555	86.6915	143.555	85.7027	143.555	86.585	143.555	85.5102	143.555	86.471	143.555	85.339	143.555	86.3629	143.555	85.198	143.555	86.271	143.555	85.0947	143.555	86.2	143.555	85.0342	143.555	86.1475	143.555	85.0184	143.555	86.1057	143.555	85.0464	143.555	86.0638	143.555	85.1138	143.555	86.0116	143.555	85.2134	143.555	85.9413	143.555	85.3361	143.555	85.8495	143.555	85.4712	143.555	85.7368	143.555	85.6081
147.949	87.0907	147.949	86.9758	147.949	87.1591	147.949	86.8198	147.949	87.1777	147.949	86.6305	147.949	87.1466	147.949	86.417	147.949	87.0694	147.949	86.1897	147.949	86.9541	147.949	85.9599	147.949	86.8132	147.949	85.7396	147.949	86.6623	147.949	85.5403	147.949	86.518	147.949	85.3727	147.949	86.3939	147.949	85.2457	147.949	86.2975	147.949	85.1654	147.949	86.2281	147.949	85.1345	147.949	86.1778	147.949	85.152	147.949	86.1344	147.949	85.2129	147.949	86.085	147.949	85.3092	147.949	86.0199	147.949	85.4304	147.949	85.9335	147.949	85.5645	147.949	85.8253	147.949	85.6997
153.809	87.5039	153.809	87.39	153.809	87.5728	153.809	87.2362	153.809	87.5939	153.809	87.0491	153.809	87.5674	153.809	86.8371	153.809	87.4966	153.809	86.6098	153.809	87.3893	153.809	86.3782	153.809	87.2569	153.809	86.1537	153.809	87.1143	153.809	85.9483	153.809	86.9769	153.809	85.7733	153.809	86.8578	153.809	85.6386	153.809	86.7639	153.809	85.5516	153.809	86.6943	153.809	85.5157	153.809	86.6409	153.809	85.5308	153.809	86.5916	153.809	85.5922	153.809	86.5341	153.809	85.6918	153.809	86.4589	153.809	85.8187	153.809	86.3614	153.809	85.9607	153.809	86.242	153.809	86.1055
159.668	87.3676	159.668	87.2583	159.668	87.432	159.668	87.1094	159.668	87.4486	159.668	86.9278	159.668	87.4171	159.668	86.7215	159.668	87.3411	159.668	86.4997	159.668	87.2281	159.668	86.2721	159.668	87.0901	159.668	86.0493	159.668	86.9419	159.668	85.8419	159.668	86.7992	159.668	85.6607	159.668	86.6747	159.668	85.5153	159.668	86.5751	159.668	85.4132	159.668	86.4994	159.668	85.3595	159.668	86.4393	159.668	85.3554	159.668	86.383	159.668	85.3982	159.668	86.3183	159.668	85.4817	159.668	86.2362	159.668	85.5963	159.668	86.1328	159.668	85.7305	159.668	86.0094	159.668	85.8721
165.527	87.486	165.527	87.3684	165.527	87.5538	165.527	87.2073	165.527	87.5685	165.527	87.0112	165.527	87.5299	165.527	86.7899	165.527	87.4424	165.527	86.5545	165.527	87.3155	165.527	86.3168	165.527	87.1633	165.527	86.0887	165.527	87.004	165.527	85.8818	165.527	86.8559	165.527	85.707	165.527	86.734	165.527	85.5733	165.527	86.6455	165.527	85.4875	165.527	86.5881	165.527	85.453	165.527	86.5511	165.527	85.4697	165.527	86.5192	165.527	85.5336	165.527	86.4774	165.527	85.637	165.527	86.4141	165.527	85.769	165.527	86.3233	165.527	85.9167	165.527	86.2054	165.527	86.0665
171.387	87.8383	171.387	87.718	171.387	87.9034	171.387	87.5485	171.387	87.9101	171.387	87.3374	171.387	87.858	171.387	87.0943	171.387	87.7508	171.387	86.83	171.387	87.597	171.387	86.5572	171.387	87.4106	171.387	86.2891	171.387	87.21	171.387	86.0397	171.387	87.0157	171.387	85.8223	171.387	86.846	171.387	85.649	171.387	86.7122	171.387	85.5286	171.387	86.6154	171.387	85.4662	171.387	86.5475	171.387	85.4621	171.387	86.4939	171.387	85.5117	171.387	86.4387	171.387	85.606	171.387	86.3688	171.387	85.7324	171.387	86.2763	171.387	85.8764	171.387	86.1596	171.387	86.0231
177.246	87.9819	177.246	87.8608	177.246	88.0508	177.246	87.6938	177.246	88.0634	177.246	87.4895	177.246	88.0192	177.246	87.2578	177.246	87.9223	177.246	87.0096	177.246	87.7817	177.246	86.7569	177.246	87.6123	177.246	86.5125	177.246	87.4332	177.246	86.2891	177.246	87.265	177.246	86.0991	177.246	87.1251	177.246	85.9531	177.246	87.0232	177.246	85.8592	177.246	86.9581	177.246	85.8214	177.246	86.9191	177.246	85.8393	177.246	86.8896	177.246	85.9078	177.246	86.8528	177.246	86.0173	177.246	86.7954	177.246	86.1552	177.246	86.7101	177.246	86.3072	177.246	86.5961	177.246	86.4585
183.105	88.0331	183.105	87.9079	183.105	88.103	183.105	87.7341	183.105	88.1136	183.105	87.5204	183.105	88.0648	183.105	87.2775	183.105	87.9607	183.105	87.0169	183.105	87.8108	183.105	86.7516	183.105	87.6302	183.105	86.4948	183.105	87.4386	183.105	86.26	183.105	87.257	183.105	86.0597	183.105	87.1036	183.105	85.9049	183.105	86.9887	183.105	85.8035	183.105	86.912	183.105	85.7596	183.105	86.8634	183.105	85.7727	183.105	86.8267	183.105	85.8375	183.105	86.7848	183.105	85.9446	183.105	86.7241	183.105	86.0811	183.105	86.6368	183.105	86.2323	183.105	86.5217	183.105	86.3836
188.965	88.0267	188.965	87.8963	188.965	88.0988	188.965	87.7146	188.965	88.1087	188.965	87.4907	188.965	88.0566	188.965	87.236	188.965	87.9473	188.965	86.9632	188.965	87.7921	188.965	86.6864	188.965	87.6081	188.965	86.4206	188.965	87.4176	188.965	86.1809	188.965	87.244	188.965	85.9816	188.965	87.1068	188.965	85.8346	188.965	87.0154	188.965	85.7483	188.965	86.9671	188.965	85.7262	188.965	86.9478	188.965	85.7663	188.965	86.9373	188.965	85.8611	188.965	86.9156	188.965	85.9988	188.965	86.8671	188.965	86.1642	188.965	86.7833	188.965	86.3407	188.965	86.6629	188.965	86.5118
196.289	88.0755	196.289	87.9429	196.289	88.1469	196.289	87.7562	196.289	88.1532	196.289	87.5249	196.289	88.0945	196.289	87.2607	196.289	87.9762	196.289	86.9766	196.289	87.8098	196.289	86.6874	196.289	87.6136	196.289	86.4088	196.289	87.411	196.289	86.1568	196.289	87.2276	196.289	85.9467	196.289	87.0848	196.289	85.792	196.289	86.9936	196.289	85.7023	196.289	86.9517	196.289	85.6819	196.289	86.9438	196.289	85.7291	196.289	86.9476	196.289	85.8359	196.289	86.9401	196.289	85.9889	196.289	86.9026	196.289	86.1709	196.289	86.8246	196.289	86.3628	196.289	86.7039	196.289	86.546
203.613	87.8018	203.613	87.6644	203.613	87.8725	203.613	87.4674	203.613	87.8722	203.613	87.2209	203.613	87.8015	203.613	86.9372	203.613	87.6662	203.613	86.6306	203.613	87.4794	203.613	86.3171	203.613	87.2616	203.613	86.014	203.613	87.0401	203.613	85.7394	203.613	86.8442	203.613	85.511	203.613	86.6987	203.613	85.344	203.613	86.6156	203.613	85.2499	203.613	86.59	203.613	85.2339	203.613	86.6025	203.613	85.2938	203.613	86.626	203.613	85.4202	203.613	86.6335	203.613	85.5974	203.613	86.6044	203.613	85.8053	203.613	86.5269	203.613	86.0219	203.613	86.3986	203.613	86.2258
210.938	87.9462	210.938	87.8079	210.938	88.0113	210.938	87.6038	210.938	87.9983	210.938	87.3437	210.938	87.9065	210.938	87.0394	210.938	87.7401	210.938	86.7048	210.938	87.5106	210.938	86.3559	210.938	87.2376	210.938	86.0101	210.938	86.9496	210.938	85.6865	210.938	86.6797	210.938	85.4037	210.938	86.4595	210.938	85.1792	210.938	86.309	210.938	85.0265	210.938	86.2294	210.938	84.9535	210.938	86.203	210.938	84.9609	210.938	86.2005	210.938	85.0417	210.938	86.1909	210.938	85.1822	210.938	86.15	210.938	85.3634	210.938	86.0642	210.938	85.5631	210.938	85.9313	210.938	85.7592
218.262	88.086	218.262	87.9429	218.262	88.1605	218.262	87.7388	218.262	88.1609	218.262	87.483	218.262	88.0853	218.262	87.1865	218.262	87.9362	218.262	86.8614	218.262	87.7221	218.262	86.5216	218.262	87.4592	218.262	86.1822	218.262	87.1708	218.262	85.8597	218.262	86.8857	218.262	85.5711	218.262	86.6331	218.262	85.3325	218.262	86.4344	218.262	85.1577	218.262	86.2971	218.262	85.0556	218.262	86.2125	218.262	85.0291	218.262	86.1594	218.262	85.0738	218.262	86.1123	218.262	85.1782	218.262	86.0489	218.262	85.3256	218.262	85.9549	218.262	85.4961	218.262	85.8265	218.262	85.6692
225.586	87.7505	225.586	87.6026	225.586	87.8277	225.586	87.392	225.586	87.8299	225.586	87.1296	225.586	87.7576	225.586	86.829	225.586	87.6172	225.586	86.5057	225.586	87.4217	225.586	86.1773	225.586	87.192	225.586	85.8627	225.586	86.955	225.586	85.581	225.586	86.7403	225.586	85.3504	225.586	86.5738	225.586	85.1858	225.586	86.4696	225.586	85.0971	225.586	86.4259	225.586	85.0875	225.586	86.4254	225.586	85.1526	225.586	86.4419	225.586	85.2815	225.586	86.4481	225.586	85.4575	225.586	86.422	225.586	85.6609	225.586	86.3505	225.586	85.8705	225.586	86.2301	225.586	86.066
232.91	87.5965	232.91	87.4441	232.91	87.6673	232.91	87.2179	232.91	87.6523	232.91	86.9292	232.91	87.5521	232.91	86.5916	232.91	87.3742	232.91	86.2221	232.91	87.1342	232.91	85.8401	232.91	86.8577	232.91	85.4679	232.91	86.5787	232.91	85.1295	232.91	86.336	232.91	84.8493	232.91	86.1629	232.91	84.6487	232.91	86.0764	232.91	84.5434	232.91	86.0708	232.91	84.5394	232.91	86.1194	232.91	84.6321	232.91	86.1846	232.91	84.8065	232.91	86.2292	232.91	85.0397	232.91	86.2248	232.91	85.3044	232.91	86.1552	232.91	85.5725	232.91	86.017	232.91	85.8174
241.699	87.8793	241.699	87.7333	241.699	87.9412	241.699	87.5106	241.699	87.9142	241.699	87.2214	241.699	87.7974	241.699	86.8777	241.699	87.5955	241.699	86.4943	241.699	87.3202	241.699	86.088	241.699	86.9925	241.699	85.6788	241.699	86.6433	241.699	85.289	241.699	86.3114	241.699	84.9425	241.699	86.0367	241.699	84.6627	241.699	85.8482	241.699	84.4697	241.699	85.7537	241.699	84.3761	241.699	85.7362	241.699	84.3849	241.699	85.7598	241.699	84.4877	241.699	85.7832	241.699	84.6657	241.699	85.7707	241.699	84.8925	241.699	85.6999	241.699	85.1375	241.699	85.564	241.699	85.3702
250.488	87.4029	250.488	87.245	250.488	87.4715	250.488	87.0055	250.488	87.4464	250.488	86.6947	250.488	87.3273	250.488	86.3255	250.488	87.1201	250.488	85.9133	250.488	86.8386	250.488	85.4758	250.488	86.5063	250.488	85.0337	250.488	86.157	250.488	84.6103	250.488	85.8306	250.488	84.2311	250.488	85.564	250.488	83.9212	250.488	85.3791	250.488	83.7028	250.488	85.2748	250.488	83.5908	250.488	85.2291	250.488	83.5889	250.488	85.2083	250.488	83.6886	250.488	85.1788	250.488	83.8697	250.488	85.1144	250.488	84.1044	250.488	84.9994	250.488	84.3615	250.488	84.8295	250.488	84.6113
259.277	87.7969	259.277	87.6415	259.277	87.854	259.277	87.395	259.277	87.808	259.277	87.0673	259.277	87.6576	259.277	86.6706	259.277	87.4071	259.277	86.2209	259.277	87.0682	259.277	85.7375	259.277	86.6641	259.277	85.2443	259.277	86.2307	259.277	84.7685	259.277	85.8159	259.277	84.34	259.277	85.4709	259.277	83.9884	259.277	85.2349	259.277	83.739	259.277	85.1189	259.277	83.6083	259.277	85.1001	259.277	83.6007	259.277	85.1324	259.277	83.7064	259.277	85.164	259.277	83.9027	259.277	85.1528	259.277	84.1578	259.277	85.0737	259.277	84.4354	259.277	84.9196	259.277	84.6996
268.066	88.2008	268.066	88.0565	268.066	88.2607	268.066	87.8351	268.066	88.2314	268.066	87.5455	268.066	88.1112	268.066	87.1982	268.066	87.9031	268.066	86.8052	268.066	87.617	268.066	86.3808	268.066	87.271	268.066	85.9419	268.066	86.8934	268.066	85.508	268.066	86.5214	268.066	85.1015	268.066	86.1942	268.066	84.7455	268.066	85.9423	268.066	84.4621	268.066	85.775	268.066	84.2692	268.066	85.6765	268.066	84.1769	268.066	85.6138	268.066	84.1859	268.066	85.5498	268.066	84.286	268.066	85.4553	268.066	84.4577	268.066	85.315	268.066	84.6746	268.066	85.1283	268.066	84.9074
276.855	87.4888	276.855	87.3366	276.855	87.5469	276.855	87.0983	276.855	87.5064	276.855	86.7851	276.855	87.3681	276.855	86.4111	276.855	87.1394	276.855	85.9931	276.855	86.8369	276.855	85.5515	276.855	86.4891	276.855	85.1102	276.855	86.1373	276.855	84.6966	276.855	85.8313	276.855	84.3401	276.855	85.6186	276.855	84.0691	276.855	85.526	276.855	83.9068	276.855	85.5467	276.855	83.8664	276.855	85.6417	276.855	83.9471	276.855	85.7555	276.855	84.1344	276.855	85.8358	276.855	84.4022	276.855	85.845	276.855	84.7172	276.855	85.7649	276.855	85.0433	276.855	85.5942	276.855	85.3459
287.109	87.4457	287.109	87.2936	287.109	87.501	287.109	87.0502	287.109	87.4574	287.109	86.7249	287.109	87.3157	287.109	86.3312	287.109	87.0801	287.109	85.8866	287.109	86.7589	287.109	85.4117	287.109	86.3675	287.109	84.9302	287.109	85.9343	287.109	84.4674	287.109	85.5063	287.109	84.0498	287.109	85.1473	287.109	83.7033	287.109	84.9202	287.109	83.4516	287.109	84.8534	287.109	83.3131	287.109	84.9186	287.109	83.298	287.109	85.043	287.109	83.4052	287.109	85.1458	287.109	83.6207	287.109	85.1668	287.109	83.9169	287.109	85.0771	287.109	84.2552	287.109	84.8772	287.109	84.5905
297.363	87.9422	297.363	87.8196	297.363	87.9512	297.363	87.5884	297.363	87.8449	297.363	87.2555	297.363	87.627	297.363	86.831	297.363	87.3087	297.363	86.3292	297.363	86.9112	297.363	85.7711	297.363	86.4642	297.363	85.1853	297.363	86.0025	297.363	84.6083	297.363	85.5609	297.363	84.0815	297.363	85.1712	297.363	83.6461	297.363	84.8617	297.363	83.3362	297.363	84.6532	297.363	83.1707	297.363	84.5482	297.363	83.149	297.363	84.5229	297.363	83.2515	297.363	84.5324	297.363	83.4446	297.363	84.5288	297.363	83.6885	297.363	84.4764	297.363	83.9437	297.363	84.3583	297.363	84.1757
307.617	87.8618	307.617	87.7099	307.617	87.9112	307.617	87.465	307.617	87.8511	307.617	87.138	307.617	87.6798	307.617	86.7406	307.617	87.4031	307.617	86.2856	307.617	87.0374	307.617	85.7892	307.617	86.6131	307.617	85.2735	307.617	86.1741	307.617	84.7682	307.617	85.7731	307.617	84.31	307.617	85.4588	307.617	83.9387	307.617	85.2614	307.617	83.6889	307.617	85.1832	307.617	83.5815	307.617	85.1999	307.617	83.6181	307.617	85.2682	307.617	83.7807	307.617	85.338	307.617	84.0365	307.617	85.3633	307.617	84.3444	307.617	85.3124	307.617	84.6617	307.617	85.1723	307.617	84.9484
319.336	87.4623	319.336	87.3308	319.336	87.4861	319.336	87.099	319.336	87.3978	319.336	86.7763	319.336	87.1976	319.336	86.3741	319.336	86.8919	319.336	85.9053	319.336	86.495	319.336	85.3858	319.336	86.0325	319.336	84.8362	319.336	85.5437	319.336	84.284	319.336	85.0827	319.336	83.7653	319.336	84.7129	319.336	83.3241	319.336	84.4911	319.336	83.0062	319.336	84.4413	319.336	82.8489	319.336	84.5365	319.336	82.8683	319.336	84.7068	319.336	83.052	319.336	84.8692	319.336	83.3617	319.336	84.9556	319.336	83.7438	319.336	84.926	319.336	84.1401	319.336	84.7689	319.336	84.4967
329.59	87.2862	329.59	87.1478	329.59	87.3069	329.59	86.9001	329.59	87.206	329.59	86.5553	329.59	86.9853	329.59	86.128	329.59	86.6545	329.59	85.6355	329.59	86.2338	329.59	85.0973	329.59	85.7579	329.59	84.5365	329.59	85.2771	329.59	83.9816	329.59	84.8533	329.59	83.4677	329.59	84.5454	329.59	83.0364	329.59	84.3892	329.59	82.731	329.59	84.3834	329.59	82.587	329.59	84.4901	329.59	82.6207	329.59	84.6471	329.59	82.8207	329.59	84.7871	329.59	83.1497	329.59	84.8524	329.59	83.5528	329.59	84.8058	329.59	83.9699	329.59	84.6336	329.59	84.3452
341.309	87.4818	341.309	87.3504	341.309	87.4956	341.309	87.1067	341.309	87.389	341.309	86.7593	341.309	87.1615	341.309	86.3205	341.309	86.816	341.309	85.8062	341.309	86.3616	341.309	85.236	341.309	85.8183	341.309	84.6321	341.309	85.2235	341.309	84.0198	341.309	84.6376	341.309	83.4281	341.309	84.1413	341.309	82.8913	341.309	83.8135	341.309	82.4495	341.309	83.6931	341.309	82.1458	341.309	83.7517	341.309	82.0166	341.309	83.9055	341.309	82.0786	341.309	84.0558	341.309	82.3167	341.309	84.1222	341.309	82.683	341.309	84.0576	341.309	83.1084	341.309	83.8502	341.309	83.5188
353.027	87.4924	353.027	87.3418	353.027	87.5112	353.027	87.0674	353.027	87.3919	353.027	86.6781	353.027	87.1323	353.027	86.1848	353.027	86.737	353.027	85.6028	353.027	86.2215	353.027	84.9541	353.027	85.6167	353.027	84.271	353.027	84.9737	353.027	83.5962	353.027	84.368	353.027	82.982	353.027	83.8936	353.027	82.4843	353.027	83.6358	353.027	82.1528	353.027	83.6256	353.027	82.0204	353.027	83.8145	353.027	82.0937	353.027	84.0982	353.027	82.3506	353.027	84.3657	353.027	82.7444	353.027	84.5323	353.027	83.2126	353.027	84.5489	353.027	83.6864	353.027	84.4005	353.027	84.1006
366.211	87.8208	366.211	87.6904	366.211	87.8329	366.211	87.4492	366.211	87.7214	366.211	87.1056	366.211	87.4846	366.211	86.6682	366.211	87.1257	366.211	86.1459	366.211	86.6534	366.211	85.5507	366.211	86.0851	366.211	84.9005	366.211	85.4514	366.211	84.2225	366.211	84.8022	366.211	83.5552	366.211	84.2101	366.211	82.9468	366.211	83.7604	366.211	82.4501	366.211	83.5169	366.211	82.1125	366.211	83.4799	366.211	81.9635	366.211	83.5771	366.211	82.0054	366.211	83.7034	366.211	82.2115	366.211	83.7686	366.211	82.5313	366.211	83.7203	366.211	82.9018	366.211	83.5445	366.211	83.2583
379.395	87.8382	379.395	87.708	379.395	87.8343	379.395	87.4479	379.395	87.6964	379.395	87.0661	379.395	87.4286	379.395	86.5754	379.395	87.0392	379.395	85.992	379.395	86.5408	379.395	85.3361	379.395	85.9526	379.395	84.6327	379.395	85.3042	379.395	83.9131	379.395	84.6435	379.395	83.218	379.395	84.0469	379.395	82.599	379.395	83.6172	379.395	82.1164	379.395	83.4454	379.395	81.8295	379.395	83.5433	379.395	81.7778	379.395	83.8167	379.395	81.963	379.395	84.1183	379.395	82.3421	379.395	84.3203	379.395	82.8394	379.395	84.3483	379.395	83.3659	379.395	84.1805	379.395	83.8366
392.578	87.5452	392.578	87.4369	392.578	87.5217	392.578	87.2023	392.578	87.364	392.578	86.8503	392.578	87.0745	392.578	86.3923	392.578	86.6613	392.578	85.841	392.578	86.142	392.578	85.2109	392.578	85.547	392.578	84.5203	392.578	84.9221	392.578	83.7946	392.578	84.3241	392.578	83.0711	392.578	83.8124	392.578	82.4007	392.578	83.439	392.578	81.8466	392.578	83.24	392.578	81.4725	392.578	83.2195	392.578	81.3248	392.578	83.3327	392.578	81.4133	392.578	83.4909	392.578	81.7044	392.578	83.5947	392.578	82.1302	392.578	83.5696	392.578	82.6059	392.578	83.3836	392.578	83.0472
405.762	87.8993	405.762	87.7706	405.762	87.8925	405.762	87.5106	405.762	87.748	405.762	87.126	405.762	87.4667	405.762	86.6262	405.762	87.053	405.762	86.0245	405.762	86.5161	405.762	85.3393	405.762	85.8713	405.762	84.5957	405.762	85.1442	405.762	83.8273	405.762	84.3834	405.762	83.0789	405.762	83.6781	405.762	82.4078	405.762	83.163	405.762	81.8806	405.762	82.9637	405.762	81.5627	405.762	83.0952	405.762	81.4975	405.762	83.4322	405.762	81.6862	405.762	83.7962	405.762	82.0814	405.762	84.0468	405.762	82.5998	405.762	84.1086	405.762	83.1441	405.762	83.9606	405.762	83.6224
420.41	87.239	420.41	87.1313	420.41	87.2125	420.41	86.8882	420.41	87.055	420.41	86.5099	420.41	86.7719	420.41	86.0005	420.41	86.3731	420.41	85.3708	420.41	85.8744	420.41	84.6406	420.41	85.2988	420.41	83.8406	420.41	84.6771	420.41	83.0128	420.41	84.0499	420.41	82.2111	420.41	83.4732	420.41	81.4999	420.41	83.0211	420.41	80.9495	420.41	82.77	420.41	80.624	420.41	82.7516	420.41	80.5624	420.41	82.9123	420.41	80.7601	420.41	83.1325	420.41	81.1659	420.41	83.2875	420.41	81.6954	420.41	83.2915	420.41	82.2526	420.41	83.1085	420.41	82.7475
435.059	88.098	435.059	87.968	435.059	88.0887	435.059	87.7061	435.059	87.9341	435.059	87.3188	435.059	87.6316	435.059	86.8119	435.059	87.1848	435.059	86.1918	435.059	86.6069	435.059	85.4684	435.059	85.9242	435.059	84.6589	435.059	85.18	435.059	83.7926	435.059	84.4389	435.059	82.9142	435.059	83.7921	435.059	82.0872	435.059	83.3512	435.059	81.3933	435.059	83.2058	435.059	80.922	435.059	83.3475	435.059	80.7457	435.059	83.6481	435.059	80.8877	435.059	83.934	435.059	81.305	435.059	84.0705	435.059	81.9033	435.059	83.9911	435.059	82.568	435.059	83.6873	435.059	83.1919
451.172	87.7568	451.172	87.615	451.172	87.7581	451.172	87.3319	451.172	87.6225	451.172	86.9103	451.172	87.3559	451.172	86.3562	451.172	86.9656	451.172	85.6787	451.172	86.4616	451.172	84.8902	451.172	85.8582	451.172	84.0079	451.172	85.1784	451.172	83.0585	451.172	84.4602	451.172	82.0855	451.172	83.7686	451.172	81.1606	451.172	83.2084	451.172	80.3908	451.172	82.9093	451.172	79.9083	451.172	82.9457	451.172	79.8215	451.172	83.2457	451.172	80.1473	451.172	83.6193	451.172	80.7906	451.172	83.8753	451.172	81.5978	451.172	83.8956	451.172	82.4175	451.172	83.6406	451.172	83.1284
465.82	87.82	465.82	87.7234	465.82	87.7817	465.82	87.4994	465.82	87.6037	465.82	87.1543	465.82	87.2875	465.82	86.6932	465.82	86.8432	465.82	86.1231	465.82	86.2881	465.82	85.4553	465.82	85.6432	465.82	84.7066	465.82	84.932	465.82	83.8985	465.82	84.1843	465.82	83.0557	465.82	83.4487	465.82	82.2067	465.82	82.8072	465.82	81.3901	465.82	82.3722	465.82	80.6657	465.82	82.2289	465.82	80.1265	465.82	82.348	465.82	79.8862	465.82	82.577	465.82	80.0207	465.82	82.7312	465.82	80.4949	465.82	82.6805	465.82	81.1618	465.82	82.3748	465.82	81.8384
483.398	88.0829	483.398	87.9786	483.398	88.0348	483.398	87.7397	483.398	87.8253	483.398	87.3867	483.398	87.4564	483.398	86.9379	483.398	86.9427	483.398	86.405	483.398	86.3119	483.398	85.7942	483.398	85.6032	483.398	85.1116	483.398	84.8617	483.398	84.3699	483.398	84.1319	483.398	83.5958	483.398	83.4613	483.398	82.8339	483.398	82.923	483.398	82.1478	483.398	82.6246	483.398	81.6137	483.398	82.6435	483.398	81.3053	483.398	82.9229	483.398	81.2677	483.398	83.2814	483.398	81.495	483.398	83.5336	483.398	81.9246	483.398	83.5716	483.398	82.4554	483.398	83.3719	483.398	82.973
499.512	88.3079	499.512	88.3445	499.512	88.1121	499.512	88.2231	499.512	87.7655	499.512	87.9513	499.512	87.2856	499.512	87.541	499.512	86.6964	499.512	87.007	499.512	86.023	499.512	86.3685	499.512	85.2883	499.512	85.6503	499.512	84.5139	499.512	84.8833	499.512	83.7274	499.512	84.1028	499.512	82.9838	499.512	83.3465	499.512	82.3978	499.512	82.6558	499.512	82.1421	499.512	82.0824	499.512	82.3309	499.512	81.6952	499.512	82.865	499.512	81.5725	499.512	83.4793	499.512	81.7621	499.512	83.9286	499.512	82.2297	499.512	84.0802	499.512	82.8512	499.512	83.9073	499.512	83.4612
517.09	88.1686	517.09	88.2392	517.09	87.9204	517.09	88.1324	517.09	87.5114	517.09	87.8618	517.09	86.9722	517.09	87.4476	517.09	86.3395	517.09	86.9108	517.09	85.6451	517.09	86.2706	517.09	84.9086	517.09	85.5455	517.09	84.1356	517.09	84.7566	517.09	83.3269	517.09	83.9307	517.09	82.5023	517.09	83.1033	517.09	81.7551	517.09	82.3221	517.09	81.3084	517.09	81.655	517.09	81.4114	517.09	81.1936	517.09	82.0347	517.09	81.0397	517.09	82.8365	517.09	81.2543	517.09	83.4725	517.09	81.7954	517.09	83.7578	517.09	82.5084	517.09	83.646	517.09	83.1873
536.133	88.1731	536.133	88.2217	536.133	87.924	536.133	88.0891	536.133	87.4712	536.133	87.7986	536.133	86.837	536.133	87.367	536.133	86.0751	536.133	86.8011	536.133	85.2643	536.133	86.1011	536.133	84.4855	536.133	85.2715	536.133	83.7851	536.133	84.3346	536.133	83.153	536.133	83.3454	536.133	82.5489	536.133	82.403	536.133	81.9731	536.133	81.6456	536.133	81.5364	536.133	81.2038	536.133	81.4389	536.133	81.1218	536.133	81.7686	536.133	81.3266	536.133	82.3395	536.133	81.6914	536.133	82.8539	536.133	82.1131	536.133	83.1249	536.133	82.53	536.133	83.117	536.133	82.8892
555.176	88.3726	555.176	88.481	555.176	88.0823	555.176	88.4079	555.176	87.6162	555.176	88.1602	555.176	86.9867	555.176	87.7502	555.176	86.2136	555.176	87.1938	555.176	85.3307	555.176	86.5103	555.176	84.3924	555.176	85.7248	555.176	83.4708	555.176	84.87	555.176	82.629	555.176	83.9867	555.176	81.8899	555.176	83.1223	555.176	81.2689	555.176	82.3316	555.176	80.8824	555.176	81.6843	555.176	80.963	555.176	81.2703	555.176	81.5805	555.176	81.18	555.176	82.445	555.176	81.4457	555.176	83.1796	555.176	81.9895	555.176	83.5712	555.176	82.6446	555.176	83.5697	555.176	83.224
574.219	88.3139	574.219	88.4038	574.219	88.0159	574.219	88.3028	574.219	87.508	574.219	88.0336	574.219	86.8093	574.219	87.618	574.219	85.9617	574.219	87.0747	574.219	85.0251	574.219	86.4211	574.219	84.0721	574.219	85.6758	574.219	83.1784	574.219	84.861	574.219	82.4033	574.219	84.003	574.219	81.7649	574.219	83.1359	574.219	81.2542	574.219	82.3074	574.219	80.9213	574.219	81.5922	574.219	80.9392	574.219	81.1046	574.219	81.4416	574.219	80.981	574.219	82.2647	574.219	81.2897	574.219	83.0541	574.219	81.9336	574.219	83.5419	574.219	82.684	574.219	83.6215	574.219	83.3039
594.727	88.9389	594.727	89.0318	594.727	88.641	594.727	88.9283	594.727	88.1418	594.727	88.6523	594.727	87.4493	594.727	88.2363	594.727	86.5756	594.727	87.7071	594.727	85.5478	594.727	87.0765	594.727	84.4296	594.727	86.3441	594.727	83.3371	594.727	85.5093	594.727	82.4097	594.727	84.5831	594.727	81.7248	594.727	83.5965	594.727	81.2605	594.727	82.6114	594.727	81.0075	594.727	81.7361	594.727	81.0687	594.727	81.1241	594.727	81.5191	594.727	80.9081	594.727	82.1934	594.727	81.0973	594.727	82.7881	594.727	81.568	594.727	83.0905	594.727	82.1514	594.727	83.0405	594.727	82.6894
615.234	88.4782	615.234	88.5385	615.234	88.2108	615.234	88.4112	615.234	87.7316	615.234	88.1208	615.234	87.0598	615.234	87.6936	615.234	86.2374	615.234	87.1596	615.234	85.3186	615.234	86.5521	615.234	84.3598	615.234	85.9001	615.234	83.4203	615.234	85.2197	615.234	82.5574	615.234	84.512	615.234	81.8017	615.234	83.7715	615.234	81.1582	615.234	83.0053	615.234	80.7166	615.234	82.2645	615.234	80.7615	615.234	81.6867	615.234	81.4922	615.234	81.4899	615.234	82.6081	615.234	81.8142	615.234	83.6093	615.234	82.5381	615.234	84.209	615.234	83.3626	615.234	84.3335	615.234	84.0185
637.207	89.2322	637.207	89.2807	637.207	88.916	637.207	89.0994	637.207	88.3337	637.207	88.748	637.207	87.526	637.207	88.2779	637.207	86.5582	637.207	87.7123	637.207	85.4982	637.207	87.0551	637.207	84.4046	637.207	86.3189	637.207	83.3307	637.207	85.542	637.207	82.317	637.207	84.7749	637.207	81.3583	637.207	84.0456	637.207	80.4099	637.207	83.3413	637.207	79.5355	637.207	82.6316	637.207	79.1623	637.207	81.931	637.207	79.8239	637.207	81.3631	637.207	81.19	637.207	81.1497	637.207	82.4383	637.207	81.4339	637.207	83.134	637.207	82.0874	637.207	83.2113	637.207	82.7864
659.18	88.7617	659.18	88.9074	659.18	88.4192	659.18	88.8328	659.18	87.9242	659.18	88.5372	659.18	87.3295	659.18	88.0412	659.18	86.6733	659.18	87.3819	659.18	85.965	659.18	86.6039	659.18	85.206	659.18	85.7489	659.18	84.4301	659.18	84.8554	659.18	83.7018	659.18	83.9691	659.18	83.0311	659.18	83.1484	659.18	82.3074	659.18	82.4501	659.18	81.4244	659.18	81.9033	659.18	80.5696	659.18	81.5138	659.18	80.3337	659.18	81.3071	659.18	80.9838	659.18	81.3482	659.18	81.9495	659.18	81.6714	659.18	82.6446	659.18	82.1797	659.18	82.8667	659.18	82.656
682.617	88.5206	682.617	88.602	682.617	88.2091	682.617	88.4648	682.617	87.6843	682.617	88.1439	682.617	86.9865	682.617	87.6824	682.617	86.1763	682.617	87.1117	682.617	85.3301	682.617	86.4439	682.617	84.5283	682.617	85.6799	682.617	83.832	682.617	84.8259	682.617	83.2595	682.617	83.9099	682.617	82.7741	682.617	82.991	682.617	82.2899	682.617	82.1588	682.617	81.7263	682.617	81.5234	682.617	81.2068	682.617	81.1959	682.617	81.2547	682.617	81.2542	682.617	82.172	682.617	81.7012	682.617	83.352	682.617	82.4369	682.617	84.1348	682.617	83.2709	682.617	84.3184	682.617	83.9718
707.52	89.23	707.52	89.4222	707.52	88.786	707.52	89.3512	707.52	88.1239	707.52	89.0335	707.52	87.2922	707.52	88.5145	707.52	86.3422	707.52	87.8563	707.52	85.3166	707.52	87.1165	707.52	84.2554	707.52	86.329	707.52	83.2307	707.52	85.5001	707.52	82.378	707.52	84.621	707.52	81.826	707.52	83.6802	707.52	81.5028	707.52	82.6754	707.52	81.1381	707.52	81.6338	707.52	80.6682	707.52	80.6623	707.52	80.6631	707.52	80.0233	707.52	81.6405	707.52	80.076	707.52	82.9258	707.52	80.8931	707.52	83.7129	707.52	82.081	707.52	83.7643	707.52	83.1515
732.422	88.9187	732.422	89.0893	732.422	88.516	732.422	89.0449	732.422	87.872	732.422	88.8088	732.422	87.0006	732.422	88.4123	732.422	85.9577	732.422	87.893	732.422	84.8443	732.422	87.2888	732.422	83.7897	732.422	86.6288	732.422	82.9265	732.422	85.9296	732.422	82.334	732.422	85.1998	732.422	81.9468	732.422	84.442	732.422	81.5485	732.422	83.6514	732.422	80.9132	732.422	82.8216	732.422	80.0627	732.422	81.9707	732.422	79.5917	732.422	81.1749	732.422	80.117	732.422	80.5781	732.422	81.0636	732.422	80.3535	732.422	81.6229	732.422	80.5876	732.422	81.5859	732.422	81.1222
757.324	87.7454	757.324	88.0707	757.324	87.1499	757.324	88.1359	757.324	86.2974	757.324	87.958	757.324	85.2468	757.324	87.5638	757.324	84.1013	757.324	87.0019	757.324	82.9654	757.324	86.3443	757.324	81.9006	757.324	85.6672	757.324	80.9548	757.324	85.0189	757.324	80.2723	757.324	84.403	757.324	80.049	757.324	83.7893	757.324	80.1884	757.324	83.135	757.324	80.2793	757.324	82.4072	757.324	80.1065	757.324	81.6312	757.324	80.0492	757.324	80.9705	757.324	80.7259	757.324	80.7295	757.324	81.8617	757.324	81.0873	757.324	82.6948	757.324	81.8291	757.324	82.9055	757.324	82.5459
785.156	88.6901	785.156	88.8926	785.156	88.1285	785.156	88.7766	785.156	87.2093	785.156	88.3957	785.156	86.0122	785.156	87.8064	785.156	84.6835	785.156	87.068	785.156	83.3315	785.156	86.2381	785.156	81.9594	785.156	85.3578	785.156	80.6045	785.156	84.4444	785.156	79.5402	785.156	83.5127	785.156	79.0877	785.156	82.604	785.156	79.0158	785.156	81.7748	785.156	78.604	785.156	81.0386	785.156	77.3141	785.156	80.3576	785.156	75.9286	785.156	79.7689	785.156	77.1068	785.156	79.5126	785.156	79.5193	785.156	79.8321	785.156	81.053	785.156	80.5736	785.156	81.5526	785.156	81.2852
811.523	89.302	811.523	89.6422	811.523	88.6271	811.523	89.6855	811.523	87.6654	811.523	89.4899	811.523	86.5647	811.523	89.0775	811.523	85.4739	811.523	88.4336	811.523	84.4114	811.523	87.5583	811.523	83.3205	811.523	86.5189	811.523	82.2776	811.523	85.4499	811.523	81.5706	811.523	84.4875	811.523	81.4537	811.523	83.6811	811.523	81.7762	811.523	82.9673	811.523	81.9939	811.523	82.2413	811.523	81.5278	811.523	81.4636	811.523	80.2397	811.523	80.7119	811.523	79.2352	811.523	80.1186	811.523	79.7989	811.523	79.7923	811.523	80.6284	811.523	79.8449	811.523	80.72	811.523	80.2751
840.82	88.9538	840.82	89.065	840.82	88.493	840.82	88.9124	840.82	87.6825	840.82	88.5778	840.82	86.6035	840.82	88.071	840.82	85.3086	840.82	87.3691	840.82	83.7656	840.82	86.4949	840.82	81.9945	840.82	85.5282	840.82	80.1746	840.82	84.5488	840.82	78.5287	840.82	83.6053	840.82	77.487	840.82	82.7517	840.82	77.8116	840.82	82.0433	840.82	78.9706	840.82	81.4409	840.82	79.5772	840.82	80.7965	840.82	79.2772	840.82	80.0792	840.82	79.1651	840.82	79.6731	840.82	80.2672	840.82	80.066	840.82	81.4985	840.82	80.9809	840.82	82.0035	840.82	81.7595
870.117	88.2512	870.117	88.5071	870.117	87.4411	870.117	88.1752	870.117	86.3037	870.117	87.4109	870.117	85.1415	870.117	86.4711	870.117	84.0906	870.117	85.5189	870.117	83.0259	870.117	84.5022	870.117	81.7484	870.117	83.3031	870.117	80.2178	870.117	81.9492	870.117	78.6972	870.117	80.6804	870.117	77.6014	870.117	79.8394	870.117	77.0326	870.117	79.5587	870.117	76.9439	870.117	79.5435	870.117	77.0278	870.117	79.3232	870.117	76.5739	870.117	78.6698	870.117	76.0517	870.117	77.9243	870.117	77.3274	870.117	77.9716	870.117	79.3007	870.117	78.9985	870.117	80.2755	870.117	80.0463
900.879	87.0189	900.879	87.3776	900.879	86.1924	900.879	87.2337	900.879	85.1042	900.879	86.6615	900.879	83.9788	900.879	85.7618	900.879	82.8246	900.879	84.661	900.879	81.5287	900.879	83.5234	900.879	80.0654	900.879	82.4657	900.879	78.5019	900.879	81.4506	900.879	77.0694	900.879	80.3472	900.879	76.4192	900.879	79.0947	900.879	76.8479	900.879	77.8724	900.879	77.4598	900.879	77.2224	900.879	77.6641	900.879	77.4559	900.879	77.5993	900.879	77.9756	900.879	77.532	900.879	78.19	900.879	77.9033	900.879	78.1456	900.879	78.7006	900.879	78.2956	900.879	79.0981	900.879	78.7957
933.105	87.2516	933.105	87.5993	933.105	86.5135	933.105	87.4073	933.105	85.5381	933.105	86.664	933.105	84.3604	933.105	85.547	933.105	82.9872	933.105	84.341	933.105	81.5649	933.105	83.2054	933.105	80.2687	933.105	82.0785	933.105	79.0014	933.105	80.8818	933.105	77.5683	933.105	79.6754	933.105	76.3134	933.105	78.5932	933.105	75.8622	933.105	77.7227	933.105	75.9852	933.105	77.1042	933.105	76.0859	933.105	76.78	933.105	75.8903	933.105	76.7794	933.105	76.0431	933.105	77.1157	933.105	77.5946	933.105	77.7817	933.105	79.2787	933.105	78.681	933.105	79.9069	933.105	79.5434
965.332	87.1049	965.332	87.571	965.332	86.294	965.332	87.5368	965.332	85.3662	965.332	87.0154	965.332	84.3674	965.332	86.1274	965.332	83.13	965.332	85.0181	965.332	81.5318	965.332	83.8349	965.332	79.679	965.332	82.7492	965.332	77.8979	965.332	81.8974	965.332	76.4816	965.332	81.242	965.332	75.5773	965.332	80.5518	965.332	75.7514	965.332	79.537	965.332	76.7605	965.332	78.0365	965.332	77.2835	965.332	76.2942	965.332	77.018	965.332	75.1681	965.332	76.8839	965.332	75.3059	965.332	77.7	965.332	76.2425	965.332	78.676	965.332	77.3672	965.332	78.924	965.332	78.3726
1000.49	87.5465	1000.49	87.9161	1000.49	86.7813	1000.49	87.8211	1000.49	85.8108	1000.49	87.2865	1000.49	84.8646	1000.49	86.3821	1000.49	84.0242	1000.49	85.1961	1000.49	83.1322	1000.49	83.8134	1000.49	81.9708	1000.49	82.2997	1000.49	80.494	1000.49	80.7426	1000.49	78.783	1000.49	79.3485	1000.49	76.8599	1000.49	78.4675	1000.49	74.9884	1000.49	78.2723	1000.49	74.3678	1000.49	78.3562	1000.49	75.1416	1000.49	78.0827	1000.49	75.2491	1000.49	77.1845	1000.49	74.2653	1000.49	76.2043	1000.49	75.189	1000.49	76.4636	1000.49	77.6649	1000.49	77.8599	1000.49	79.0079	1000.49	78.9644
1035.64	88.1433	1035.64	88.5842	1035.64	87.5045	1035.64	88.6864	1035.64	86.7216	1035.64	88.341	1035.64	85.7597	1035.64	87.5042	1035.64	84.6982	1035.64	86.2001	1035.64	83.6927	1035.64	84.558	1035.64	82.6639	1035.64	82.8579	1035.64	81.353	1035.64	81.4505	1035.64	79.7244	1035.64	80.4776	1035.64	78.1724	1035.64	79.738	1035.64	77.2961	1035.64	78.8973	1035.64	77.1027	1035.64	77.7595	1035.64	77.0652	1035.64	76.4654	1035.64	76.8865	1035.64	75.5418	1035.64	76.4765	1035.64	75.5411	1035.64	76.7172	1035.64	76.3911	1035.64	77.923	1035.64	77.4876	1035.64	78.6059	1035.64	78.3426
1072.27	88.7513	1072.27	89.2215	1072.27	87.946	1072.27	89.1869	1072.27	87.0054	1072.27	88.6224	1072.27	86.0598	1072.27	87.6518	1072.27	85.1608	1072.27	86.4962	1072.27	84.2054	1072.27	85.387	1072.27	83.0121	1072.27	84.4516	1072.27	81.5569	1072.27	83.638	1072.27	79.8694	1072.27	82.7018	1072.27	78.0946	1072.27	81.2647	1072.27	77.2957	1072.27	79.1188	1072.27	77.9273	1072.27	77.1401	1072.27	78.5499	1072.27	76.7458	1072.27	78.1441	1072.27	76.5998	1072.27	76.6825	1072.27	75.5254	1072.27	76.0551	1072.27	74.6075	1072.27	77.4268	1072.27	75.9351	1072.27	78.3815	1072.27	77.8125
1108.89	89.5554	1108.89	89.8445	1108.89	88.9305	1108.89	89.6773	1108.89	88.0868	1108.89	89.0741	1108.89	87.0675	1108.89	88.2189	1108.89	85.9532	1108.89	87.3219	1108.89	84.824	1108.89	86.4261	1108.89	83.5799	1108.89	85.4346	1108.89	82.0943	1108.89	84.3609	1108.89	80.3338	1108.89	83.403	1108.89	78.1757	1108.89	82.6077	1108.89	76.4734	1108.89	81.6365	1108.89	76.8866	1108.89	80.1689	1108.89	77.6454	1108.89	78.3005	1108.89	77.635	1108.89	76.3488	1108.89	77.1919	1108.89	74.6549	1108.89	77.3606	1108.89	75.0405	1108.89	79.025	1108.89	77.8941	1108.89	80.3263	1108.89	79.9997
1148.44	89.5996	1148.44	89.8272	1148.44	88.879	1148.44	89.6144	1148.44	87.8048	1148.44	89.1408	1148.44	86.5976	1148.44	88.5102	1148.44	85.518	1148.44	87.7335	1148.44	84.727	1148.44	86.845	1148.44	84.0017	1148.44	85.8433	1148.44	82.9832	1148.44	84.6365	1148.44	81.5339	1148.44	83.1927	1148.44	79.6435	1148.44	81.6468	1148.44	77.6318	1148.44	80.2363	1148.44	76.6838	1148.44	79.1798	1148.44	77.3184	1148.44	78.6032	1148.44	77.7281	1148.44	78.2917	1148.44	76.6605	1148.44	77.611	1148.44	76.2313	1148.44	76.6432	1148.44	78.406	1148.44	77.3794	1148.44	79.7227	1148.44	79.1726
1189.45	88.2252	1189.45	89.152	1189.45	87.3702	1189.45	89.7545	1189.45	86.7692	1189.45	89.8136	1189.45	86.2337	1189.45	89.3189	1189.45	85.5865	1189.45	88.3954	1189.45	84.8006	1189.45	87.2205	1189.45	83.948	1189.45	85.9385	1189.45	82.9687	1189.45	84.6573	1189.45	81.7167	1189.45	83.4757	1189.45	80.0992	1189.45	82.4449	1189.45	78.7398	1189.45	81.5426	1189.45	78.6417	1189.45	80.7572	1189.45	78.4503	1189.45	80.1613	1189.45	77.2498	1189.45	79.6267	1189.45	75.1992	1189.45	78.5867	1189.45	74.8177	1189.45	77.2952	1189.45	78.3509	1189.45	78.4065	1189.45	80.4469	1189.45	80.3103
1230.47	87.7838	1230.47	88.7315	1230.47	87.2132	1230.47	89.4495	1230.47	87.192	1230.47	89.6106	1230.47	87.2382	1230.47	89.1657	1230.47	86.895	1230.47	88.1895	1230.47	86.0276	1230.47	86.9034	1230.47	84.7682	1230.47	85.569	1230.47	83.463	1230.47	84.2055	1230.47	82.3691	1230.47	82.5527	1230.47	80.6731	1230.47	80.3634	1230.47	77.2031	1230.47	78.1983	1230.47	76.1449	1230.47	77.6999	1230.47	78.8408	1230.47	78.4662	1230.47	79.151	1230.47	79.0401	1230.47	76.7783	1230.47	78.6931	1230.47	73.8727	1230.47	77.2106	1230.47	76.3028	1230.47	77.0376	1230.47	78.8823	1230.47	78.833
1274.41	85.9238	1274.41	86.773	1274.41	86.3216	1274.41	88.1572	1274.41	87.3349	1274.41	89.069	1274.41	87.9972	1274.41	89.0782	1274.41	87.8572	1274.41	88.2215	1274.41	87.1229	1274.41	86.9818	1274.41	86.165	1274.41	86.0606	1274.41	85.0322	1274.41	85.6891	1274.41	83.9654	1274.41	85.3647	1274.41	83.181	1274.41	84.3323	1274.41	81.864	1274.41	82.0995	1274.41	79.0943	1274.41	79.2313	1274.41	77.292	1274.41	78.542	1274.41	78.3863	1274.41	79.9618	1274.41	77.0652	1274.41	80.2416	1274.41	70.5121	1274.41	78.3968	1274.41	72.3085	1274.41	77.7226	1274.41	78.294	1274.41	79.3566
1319.82	86.8981	1319.82	85.8264	1319.82	88.408	1319.82	85.9912	1319.82	89.4235	1319.82	86.5358	1319.82	89.6577	1319.82	86.6554	1319.82	89.0267	1319.82	86.1961	1319.82	87.7155	1319.82	85.2133	1319.82	86.0905	1319.82	83.9352	1319.82	84.1942	1319.82	82.9389	1319.82	82.2114	1319.82	82.7404	1319.82	80.5712	1319.82	82.7546	1319.82	78.9012	1319.82	81.8899	1319.82	78.6127	1319.82	79.7428	1319.82	79.3572	1319.82	77.8863	1319.82	79.882	1319.82	79.069	1319.82	79.9308	1319.82	80.1168	1319.82	77.7374	1319.82	78.2732	1319.82	73.7309	1319.82	74.7732	1319.82	76.8308	1319.82	76.9358
1366.7	89.2665	1366.7	87.4522	1366.7	90.341	1366.7	85.7514	1366.7	90.5469	1366.7	85.201	1366.7	90.0696	1366.7	85.1691	1366.7	88.9946	1366.7	84.4217	1366.7	87.2787	1366.7	83.0698	1366.7	85.0606	1366.7	82.2186	1366.7	82.8422	1366.7	82.2295	1366.7	81.5635	1366.7	82.1014	1366.7	81.2596	1366.7	80.8112	1366.7	79.5611	1366.7	78.2367	1366.7	74.7713	1366.7	75.6423	1366.7	76.1526	1366.7	74.667	1366.7	79.3784	1366.7	75.9821	1366.7	79.8812	1366.7	77.5318	1366.7	78.015	1366.7	76.5513	1366.7	73.7253	1366.7	72.6911	1366.7	73.3397	1366.7	73.1009
1413.57	90.3705	1413.57	89.383	1413.57	90.7863	1413.57	88.1031	1413.57	90.5274	1413.57	86.8236	1413.57	89.6447	1413.57	85.6227	1413.57	88.12	1413.57	84.2538	1413.57	85.9331	1413.57	82.7926	1413.57	83.4881	1413.57	81.6885	1413.57	81.4093	1413.57	81.3339	1413.57	79.9265	1413.57	81.6153	1413.57	79.3412	1413.57	81.5211	1413.57	79.0318	1413.57	80.1742	1413.57	77.0715	1413.57	77.5062	1413.57	73.0783	1413.57	74.426	1413.57	75.8573	1413.57	73.8629	1413.57	78.9068	1413.57	75.8852	1413.57	78.3582	1413.57	76.0477	1413.57	74.6197	1413.57	73.5945	1413.57	71.4661	1413.57	71.6981
1463.38	90.7868	1463.38	90.2723	1463.38	90.8204	1463.38	89.3444	1463.38	90.2149	1463.38	87.9552	1463.38	88.9739	1463.38	86.294	1463.38	87.207	1463.38	84.8726	1463.38	85.1159	1463.38	83.8644	1463.38	83.1899	1463.38	82.6247	1463.38	81.2945	1463.38	80.5722	1463.38	78.6365	1463.38	79.1501	1463.38	77.3931	1463.38	80.0878	1463.38	77.505	1463.38	80.1154	1463.38	76.6943	1463.38	77.8307	1463.38	75.8203	1463.38	74.61	1463.38	76.0104	1463.38	74.8596	1463.38	77.0991	1463.38	76.9742	1463.38	77.5027	1463.38	76.5078	1463.38	76.2844	1463.38	72.5183	1463.38	74.1404	1463.38	70.8987
1516.11	90.6944	1516.11	90.4498	1516.11	90.6695	1516.11	89.8187	1516.11	90.0261	1516.11	88.5924	1516.11	88.6429	1516.11	87.0397	1516.11	86.8947	1516.11	85.5662	1516.11	85.0207	1516.11	84.3514	1516.11	83.0146	1516.11	83.3923	1516.11	81.0047	1516.11	82.0261	1516.11	78.5803	1516.11	79.1288	1516.11	77.529	1516.11	75.0648	1516.11	77.8812	1516.11	74.6478	1516.11	75.4117	1516.11	75.8549	1516.11	73.0094	1516.11	75.6597	1516.11	75.6521	1516.11	73.3027	1516.11	76.6642	1516.11	74.823	1516.11	76.5238	1516.11	76.2067	1516.11	75.9069	1516.11	73.8771	1516.11	73.841	1516.11	70.8447
1568.85	90.8565	1568.85	90.5818	1568.85	90.8667	1568.85	90.2751	1568.85	90.033	1568.85	89.559	1568.85	88.44	1568.85	88.3176	1568.85	86.8159	1568.85	86.6806	1568.85	85.2049	1568.85	84.6198	1568.85	82.8789	1568.85	82.4142	1568.85	80.0761	1568.85	80.7321	1568.85	77.0866	1568.85	78.9518	1568.85	74.1994	1568.85	75.7511	1568.85	75.6139	1568.85	73.0732	1568.85	77.7971	1568.85	75.4055	1568.85	77.6	1568.85	77.2093	1568.85	76.896	1568.85	76.1094	1568.85	77.7029	1568.85	75.7254	1568.85	77.221	1568.85	77.1204	1568.85	76.1668	1568.85	75.9939	1568.85	74.8448	1568.85	73.1846
1624.51	91.8019	1624.51	91.4896	1624.51	91.6936	1624.51	90.967	1624.51	90.7798	1624.51	90.2455	1624.51	88.8469	1624.51	89.175	1624.51	86.3592	1624.51	87.7001	1624.51	84.456	1624.51	85.9195	1624.51	83.2388	1624.51	83.9228	1624.51	81.8742	1624.51	81.9941	1624.51	79.4459	1624.51	80.7284	1624.51	75.2904	1624.51	79.1437	1624.51	75.9244	1624.51	75.1051	1624.51	74.7136	1624.51	68.9882	1624.51	73.694	1624.51	72.3188	1624.51	76.8397	1624.51	75.0558	1624.51	78.1535	1624.51	75.8303	1624.51	77.4459	1624.51	76.7771	1624.51	76.1363	1624.51	75.3741	1624.51	73.8591	1624.51	71.8318
1681.64	92.5126	1681.64	92.576	1681.64	91.8718	1681.64	91.8459	1681.64	90.7815	1681.64	90.583	1681.64	88.782	1681.64	89.1744	1681.64	85.6978	1681.64	87.7759	1681.64	82.9561	1681.64	86.1399	1681.64	81.7524	1681.64	83.9295	1681.64	80.9818	1681.64	81.3829	1681.64	79.2999	1681.64	79.1894	1681.64	73.2084	1681.64	77.7627	1681.64	68.4897	1681.64	76.4072	1681.64	75.1374	1681.64	73.9977	1681.64	74.7798	1681.64	71.3764	1681.64	74.7049	1681.64	73.9749	1681.64	77.9652	1681.64	74.5332	1681.64	76.8692	1681.64	75.4193	1681.64	75.3388	1681.64	75.3763	1681.64	73.6541	1681.64	73.0161
1741.7	91.6544	1741.7	92.271	1741.7	90.6133	1741.7	91.8844	1741.7	89.6403	1741.7	90.6589	1741.7	88.6004	1741.7	89.529	1741.7	87.2018	1741.7	88.7	1741.7	85.6174	1741.7	87.1531	1741.7	84.3298	1741.7	84.3529	1741.7	83.2563	1741.7	81.1836	1741.7	81.8263	1741.7	79.5907	1741.7	79.2157	1741.7	79.5951	1741.7	75.3632	1741.7	79.0192	1741.7	70.8348	1741.7	77.2523	1741.7	73.227	1741.7	73.9326	1741.7	76.1301	1741.7	70.1574	1741.7	77.7235	1741.7	71.4197	1741.7	76.9476	1741.7	75.0956	1741.7	74.3166	1741.7	76.0152	1741.7	73.0166	1741.7	72.6051
1803.22	91.2824	1803.22	91.6467	1803.22	90.8866	1803.22	91.478	1803.22	90.3014	1803.22	90.6294	1803.22	89.5714	1803.22	89.8353	1803.22	88.4188	1803.22	88.6539	1803.22	86.6221	1803.22	86.6182	1803.22	84.9449	1803.22	85.0239	1803.22	83.7506	1803.22	84.0317	1803.22	81.8796	1803.22	82.1323	1803.22	77.6607	1803.22	79.8853	1803.22	70.844	1803.22	78.9751	1803.22	73.7864	1803.22	79.0622	1803.22	76.6407	1803.22	77.7299	1803.22	76.0357	1803.22	73.4991	1803.22	78.3195	1803.22	71.5265	1803.22	76.941	1803.22	72.9406	1803.22	70.8264	1803.22	75.4594	1803.22	66.7208	1803.22	71.293
1866.21	91.551	1866.21	91.3464	1866.21	91.2258	1866.21	91.1824	1866.21	90.2238	1866.21	90.8466	1866.21	88.5959	1866.21	89.8998	1866.21	86.4282	1866.21	88.6355	1866.21	84.2347	1866.21	87.559	1866.21	82.4907	1866.21	86.4197	1866.21	81.5569	1866.21	84.5753	1866.21	80.6299	1866.21	81.4095	1866.21	78.8078	1866.21	77.4931	1866.21	76.2796	1866.21	76.7662	1866.21	71.766	1866.21	77.6876	1866.21	71.9167	1866.21	76.7832	1866.21	74.0762	1866.21	73.7228	1866.21	76.5336	1866.21	73.2323	1866.21	75.0346	1866.21	76.1293	1866.21	68.1287	1866.21	77.2489	1866.21	66.2677	1866.21	74.2485
1932.13	91.2354	1932.13	91.0463	1932.13	90.4229	1932.13	90.2149	1932.13	89.5426	1932.13	89.8039	1932.13	87.9414	1932.13	89.2362	1932.13	85.3304	1932.13	88.1534	1932.13	82.6185	1932.13	86.8656	1932.13	81.2809	1932.13	85.3447	1932.13	79.7627	1932.13	83.3944	1932.13	77.9795	1932.13	80.0259	1932.13	77.0442	1932.13	75.6226	1932.13	70.4555	1932.13	72.4756	1932.13	71.8598	1932.13	70.8541	1932.13	75.1981	1932.13	73.2894	1932.13	75.5503	1932.13	71.3102	1932.13	76.4742	1932.13	70.225	1932.13	75.3185	1932.13	75.1287	1932.13	69.2127	1932.13	74.4782	1932.13	69.1327	1932.13	71.5174
1999.51	91.345	1999.51	91.555	1999.51	90.4326	1999.51	90.8138	1999.51	89.0381	1999.51	90.311	1999.51	87.4207	1999.51	90.0373	1999.51	85.7325	1999.51	88.9096	1999.51	83.5562	1999.51	87.3463	1999.51	81.3201	1999.51	85.3215	1999.51	80.6723	1999.51	82.7163	1999.51	79.0538	1999.51	80.7346	1999.51	77.6382	1999.51	79.1052	1999.51	77.0525	1999.51	77.2906	1999.51	76.1837	1999.51	74.9987	1999.51	74.0877	1999.51	73.0995	1999.51	74.5327	1999.51	71.3658	1999.51	75.0253	1999.51	70.5139	1999.51	73.7339	1999.51	75.4386	1999.51	69.6188	1999.51	77.314	1999.51	70.7737	1999.51	74.9022
2069.82	90.6756	2069.82	90.7098	2069.82	90.0905	2069.82	90.9323	2069.82	88.2934	2069.82	90.6414	2069.82	86.9193	2069.82	89.7095	2069.82	85.6856	2069.82	88.5428	2069.82	83.8284	2069.82	87.0983	2069.82	81.9852	2069.82	85.11	2069.82	79.2658	2069.82	83.1851	2069.82	76.436	2069.82	81.9672	2069.82	77.9493	2069.82	80.9866	2069.82	73.2482	2069.82	79.3351	2069.82	72.1488	2069.82	75.6607	2069.82	76.353	2069.82	72.7773	2069.82	75.5813	2069.82	76.3079	2069.82	73.2978	2069.82	75.6799	2069.82	74.0178	2069.82	75.1278	2069.82	70.2235	2069.82	76.9982	2069.82	70.7185	2069.82	72.8974
2143.07	90.0681	2143.07	89.3507	2143.07	90.2313	2143.07	89.6284	2143.07	88.3921	2143.07	89.1096	2143.07	85.5237	2143.07	87.8861	2143.07	83.5459	2143.07	87.1466	2143.07	82.0513	2143.07	86.1431	2143.07	79.9448	2143.07	84.5733	2143.07	77.2698	2143.07	82.0198	2143.07	75.701	2143.07	78.2752	2143.07	68.6096	2143.07	76.3878	2143.07	58.417	2143.07	76.142	2143.07	68.7887	2143.07	74.742	2143.07	73.0965	2143.07	72.1109	2143.07	66.5978	2143.07	73.0073	2143.07	71.905	2143.07	74.5862	2143.07	73.096	2143.07	75.22	2143.07	70.0017	2143.07	75.917	2143.07	69.7905	2143.07	73.6141
2219.24	89.2814	2219.24	89.268	2219.24	88.5827	2219.24	88.4638	2219.24	87.5932	2219.24	87.6095	2219.24	85.4512	2219.24	86.9372	2219.24	83.1291	2219.24	86.0384	2219.24	80.5697	2219.24	84.682	2219.24	79.0262	2219.24	83.2825	2219.24	77.5775	2219.24	81.0654	2219.24	75.8766	2219.24	78.661	2219.24	70.8276	2219.24	77.2689	2219.24	62.6622	2219.24	74.3108	2219.24	53.2001	2219.24	74.2557	2219.24	72.8129	2219.24	73.8253	2219.24	70.3637	2219.24	71.3712	2219.24	71.2146	2219.24	71.4546	2219.24	72.4113	2219.24	72.246	2219.24	68.019	2219.24	74.7035	2219.24	63.1584	2219.24	68.5662
2296.88	87.6845	2296.88	87.8529	2296.88	86.9316	2296.88	86.9825	2296.88	85.623	2296.88	86.2944	2296.88	84.0909	2296.88	86.1255	2296.88	82.4826	2296.88	84.9625	2296.88	80.6623	2296.88	83.8366	2296.88	78.248	2296.88	83.1956	2296.88	76.7687	2296.88	81.3092	2296.88	76.6383	2296.88	77.8148	2296.88	75.4786	2296.88	75.0244	2296.88	74.2393	2296.88	73.4232	2296.88	67.8807	2296.88	70.8431	2296.88	70.3422	2296.88	68.5188	2296.88	72.1017	2296.88	71.9425	2296.88	68.4619	2296.88	71.9604	2296.88	71.6901	2296.88	69.6165	2296.88	63.1877	2296.88	71.549	2296.88	59.9401	2296.88	68.7999
2378.91	87.4696	2378.91	86.8833	2378.91	86.9115	2378.91	85.8061	2378.91	85.3351	2378.91	85.2645	2378.91	82.6153	2378.91	84.5986	2378.91	80.8191	2378.91	84.0886	2378.91	79.8658	2378.91	82.6064	2378.91	78.8046	2378.91	79.7691	2378.91	76.2974	2378.91	78.2335	2378.91	73.2543	2378.91	77.0235	2378.91	75.0416	2378.91	74.6121	2378.91	72.1242	2378.91	71.7078	2378.91	71.9799	2378.91	73.4007	2378.91	66.8065	2378.91	72.2203	2378.91	71.8652	2378.91	68.6283	2378.91	66.8462	2378.91	71.003	2378.91	69.9243	2378.91	69.0731	2378.91	65.1928	2378.91	72.1832	2378.91	46.2828	2378.91	65.9597
2462.4	86.8038	2462.4	86.2809	2462.4	85.7433	2462.4	84.8858	2462.4	84.5761	2462.4	84.2567	2462.4	82.4717	2462.4	82.9376	2462.4	79.9212	2462.4	81.5333	2462.4	78.581	2462.4	80.9398	2462.4	78.2836	2462.4	80.6722	2462.4	76.958	2462.4	79.7592	2462.4	73.3847	2462.4	76.6943	2462.4	70.2374	2462.4	73.5909	2462.4	65.5397	2462.4	72.8806	2462.4	66.9741	2462.4	68.2158	2462.4	67.9013	2462.4	69.6591	2462.4	69.1024	2462.4	69.3786	2462.4	68.9036	2462.4	71.1429	2462.4	69.8795	2462.4	68.2363	2462.4	66.2141	2462.4	69.9701	2462.4	51.3041	2462.4	67.0875
2548.83	85.2106	2548.83	85.4827	2548.83	83.7932	2548.83	84.7768	2548.83	82.5816	2548.83	82.9963	2548.83	82.1377	2548.83	81.2759	2548.83	80.7066	2548.83	80.5893	2548.83	78.8514	2548.83	80.396	2548.83	76.92	2548.83	79.4859	2548.83	75.9636	2548.83	76.7476	2548.83	75.5849	2548.83	74.8383	2548.83	71.9564	2548.83	73.0321	2548.83	72.2296	2548.83	70.4468	2548.83	66.3088	2548.83	71.2138	2548.83	67.6662	2548.83	69.1666	2548.83	69.8588	2548.83	68.567	2548.83	68.4567	2548.83	67.5812	2548.83	69.7423	2548.83	68.5691	2548.83	65.3419	2548.83	67.2058	2548.83	54.7272	2548.83	63.5825
2639.65	84.5139	2639.65	84.7009	2639.65	84.0564	2639.65	83.7999	2639.65	83.2135	2639.65	81.8109	2639.65	82.2148	2639.65	81.5893	2639.65	80.8719	2639.65	81.6153	2639.65	78.9159	2639.65	79.974	2639.65	76.3193	2639.65	78.7613	2639.65	73.5925	2639.65	76.7633	2639.65	72.8668	2639.65	72.1479	2639.65	74.0889	2639.65	71.0859	2639.65	72.7092	2639.65	71.2166	2639.65	70.8629	2639.65	68.3821	2639.65	64.7579	2639.65	65.5521	2639.65	70.2055	2639.65	67.7044	2639.65	69.3565	2639.65	67.8808	2639.65	68.9991	2639.65	67.9546	2639.65	65.9814	2639.65	67.3062	2639.65	53.3563	2639.65	63.8667
2731.93	84.7601	2731.93	84.6741	2731.93	83.7632	2731.93	82.8211	2731.93	83.1391	2731.93	81.9777	2731.93	81.9599	2731.93	81.7683	2731.93	80.4147	2731.93	80.6779	2731.93	78.3508	2731.93	79.4723	2731.93	76.0121	2731.93	77.7276	2731.93	73.4651	2731.93	76.5756	2731.93	69.402	2731.93	75.6421	2731.93	73.9374	2731.93	71.772	2731.93	72.7116	2731.93	64.8114	2731.93	71.337	2731.93	68.1785	2731.93	68.6643	2731.93	67.2066	2731.93	69.6807	2731.93	66.8811	2731.93	70.3773	2731.93	67.0169	2731.93	68.3916	2731.93	67.3996	2731.93	63.027	2731.93	66.2255	2731.93	56.2858	2731.93	64.6183
2828.61	84.5267	2828.61	84.6482	2828.61	84.229	2828.61	83.7214	2828.61	83.8724	2828.61	82.8925	2828.61	82.4996	2828.61	82.0972	2828.61	80.2204	2828.61	81.1681	2828.61	77.996	2828.61	80.4037	2828.61	76.1095	2828.61	78.7144	2828.61	74.0807	2828.61	75.7582	2828.61	71.6837	2828.61	69.3739	2828.61	72.2318	2828.61	64.8699	2828.61	74.6764	2828.61	69.5642	2828.61	70.3633	2828.61	67.6485	2828.61	69.8195	2828.61	67.099	2828.61	70.1863	2828.61	66.2066	2828.61	70.3602	2828.61	69.1769	2828.61	67.3689	2828.61	66.8621	2828.61	63.4488	2828.61	67.9376	2828.61	58.2677	2828.61	63.7027
2928.22	85.0092	2928.22	85.1059	2928.22	84.9896	2928.22	84.9084	2928.22	84.8828	2928.22	83.8789	2928.22	83.8012	2928.22	82.8787	2928.22	81.7433	2928.22	82.4133	2928.22	79.3313	2928.22	80.4705	2928.22	76.6722	2928.22	78.7339	2928.22	73.841	2928.22	77.5648	2928.22	70.0021	2928.22	75.6537	2928.22	69.3716	2928.22	73.5917	2928.22	72.5524	2928.22	67.1942	2928.22	72.2893	2928.22	65.6237	2928.22	69.1036	2928.22	68.3457	2928.22	71.6084	2928.22	65.9111	2928.22	71.1614	2928.22	68.4678	2928.22	67.877	2928.22	68.3586	2928.22	59.028	2928.22	67.9802	2928.22	55.4745	2928.22	64.8924
3030.76	86.1545	3030.76	85.9931	3030.76	85.9851	3030.76	85.5116	3030.76	85.2595	3030.76	84.802	3030.76	83.9225	3030.76	83.9976	3030.76	81.7239	3030.76	82.5877	3030.76	79.1385	3030.76	81.149	3030.76	77.0906	3030.76	79.1917	3030.76	74.7215	3030.76	75.2776	3030.76	73.2396	3030.76	72.9028	3030.76	72.0776	3030.76	70.0011	3030.76	69.3928	3030.76	70.471	3030.76	68.1794	3030.76	67.799	3030.76	69.6771	3030.76	66.4585	3030.76	71.0145	3030.76	67.0872	3030.76	71.012	3030.76	68.2546	3030.76	67.8745	3030.76	69.3886	3030.76	62.9111	3030.76	69.5299	3030.76	62.6118	3030.76	65.4466
3137.7	86.187	3137.7	86.4327	3137.7	86.948	3137.7	86.0438	3137.7	86.6377	3137.7	85.9675	3137.7	84.6247	3137.7	84.4965	3137.7	81.8665	3137.7	83.2617	3137.7	78.8979	3137.7	81.6025	3137.7	78.0971	3137.7	79.1245	3137.7	77.0735	3137.7	78.3584	3137.7	74.4284	3137.7	75.185	3137.7	71.8802	3137.7	70.9373	3137.7	66.0435	3137.7	70.21	3137.7	71.4488	3137.7	68.0775	3137.7	70.6186	3137.7	68.4279	3137.7	70.9865	3137.7	67.8321	3137.7	72.7732	3137.7	70.301	3137.7	68.2177	3137.7	71.213	3137.7	62.688	3137.7	69.1416	3137.7	63.5711	3137.7	66.4755
3249.02	86.5449	3249.02	85.8504	3249.02	87.3494	3249.02	86.887	3249.02	86.7506	3249.02	86.3581	3249.02	84.5561	3249.02	84.8833	3249.02	82.1297	3249.02	83.1772	3249.02	79.1534	3249.02	80.7733	3249.02	77.5014	3249.02	80.1834	3249.02	77.5208	3249.02	78.6831	3249.02	75.647	3249.02	78.3188	3249.02	69.5104	3249.02	75.6003	3249.02	66.0825	3249.02	66.2377	3249.02	65.9108	3249.02	68.9074	3249.02	70.7156	3249.02	67.2544	3249.02	71.1039	3249.02	68.8821	3249.02	72.6484	3249.02	67.1301	3249.02	68.067	3249.02	70.107	3249.02	65.5543	3249.02	68.7732	3249.02	65.3825	3249.02	68.7475
3363.28	86.1785	3363.28	86.7399	3363.28	87.3506	3363.28	87.3996	3363.28	87.0742	3363.28	86.8499	3363.28	84.7495	3363.28	84.5809	3363.28	81.9004	3363.28	82.1163	3363.28	79.8073	3363.28	81.3831	3363.28	77.379	3363.28	79.7822	3363.28	76.4809	3363.28	77.5527	3363.28	73.0805	3363.28	75.7368	3363.28	61.6072	3363.28	72.6071	3363.28	58.4491	3363.28	72.4409	3363.28	64.9402	3363.28	67.8579	3363.28	70.164	3363.28	69.4789	3363.28	70.1592	3363.28	68.2154	3363.28	73.318	3363.28	68.9081	3363.28	68.7807	3363.28	71.4684	3363.28	66.0189	3363.28	69.0499	3363.28	63.6202	3363.28	66.2487
3481.93	86.5705	3481.93	86.5277	3481.93	87.9063	3481.93	87.5357	3481.93	87.2675	3481.93	86.8085	3481.93	85.0422	3481.93	84.2839	3481.93	82.2745	3481.93	82.3046	3481.93	80.1936	3481.93	81.7993	3481.93	77.679	3481.93	81.311	3481.93	75.5186	3481.93	79.8176	3481.93	73.9534	3481.93	77.0896	3481.93	65.9508	3481.93	74.7967	3481.93	65.6665	3481.93	73.2716	3481.93	63.5202	3481.93	69.5172	3481.93	66.7074	3481.93	69.0916	3481.93	70.6291	3481.93	69.7933	3481.93	73.1055	3481.93	70.2898	3481.93	69.3209	3481.93	72.4646	3481.93	65.9176	3481.93	70.2731	3481.93	64.3098	3481.93	66.9602
3604.98	86.5985	3604.98	86.8516	3604.98	87.4622	3604.98	87.916	3604.98	86.8147	3604.98	86.7791	3604.98	85.126	3604.98	83.7549	3604.98	82.8567	3604.98	81.6964	3604.98	80.9155	3604.98	81.4699	3604.98	79.151	3604.98	81.2812	3604.98	76.2704	3604.98	80.2751	3604.98	74.5768	3604.98	78.6459	3604.98	73.4296	3604.98	76.2168	3604.98	72.1997	3604.98	70.8179	3604.98	67.3935	3604.98	70.8652	3604.98	65.833	3604.98	70.2601	3604.98	69.6331	3604.98	70.3655	3604.98	72.6733	3604.98	69.1473	3604.98	70.4554	3604.98	72.8363	3604.98	63.3711	3604.98	70.4273	3604.98	66.6404	3604.98	64.0403
3732.42	86.7123	3732.42	87.2386	3732.42	88.0653	3732.42	88.2277	3732.42	86.8259	3732.42	86.4633	3732.42	84.8962	3732.42	83.1597	3732.42	83.2768	3732.42	81.7557	3732.42	80.6034	3732.42	81.9441	3732.42	78.8609	3732.42	81.7145	3732.42	76.3883	3732.42	79.7344	3732.42	76.2437	3732.42	79.0671	3732.42	75.9931	3732.42	76.0489	3732.42	76.2833	3732.42	71.6685	3732.42	67.09	3732.42	69.8866	3732.42	63.5627	3732.42	69.657	3732.42	70.778	3732.42	70.5487	3732.42	72.793	3732.42	70.2664	3732.42	69.7188	3732.42	71.6954	3732.42	54.5706	3732.42	69.7075	3732.42	68.7077	3732.42	66.0011
3864.26	86.801	3864.26	88.089	3864.26	86.7699	3864.26	88.4175	3864.26	87.3201	3864.26	85.6921	3864.26	86.0563	3864.26	82.8625	3864.26	83.1318	3864.26	81.355	3864.26	80.8401	3864.26	82.794	3864.26	77.8448	3864.26	82.0291	3864.26	78.5045	3864.26	79.7134	3864.26	78.5118	3864.26	77.424	3864.26	77.8069	3864.26	74.607	3864.26	76.8692	3864.26	73.1413	3864.26	67.799	3864.26	69.6338	3864.26	65.7566	3864.26	70.2121	3864.26	72.5489	3864.26	69.4663	3864.26	72.8153	3864.26	71.0381	3864.26	68.4498	3864.26	72.2286	3864.26	62.3378	3864.26	70.4516	3864.26	69.931	3864.26	66.938
4000.49	87.4277	4000.49	88.3916	4000.49	86.7107	4000.49	88.285	4000.49	86.7473	4000.49	86.0938	4000.49	85.9356	4000.49	82.7708	4000.49	83.5382	4000.49	81.2878	4000.49	82.3372	4000.49	81.2844	4000.49	81.2946	4000.49	82.068	4000.49	80.4985	4000.49	80.8047	4000.49	77.7816	4000.49	76.7716	4000.49	76.4022	4000.49	75.878	4000.49	73.667	4000.49	72.9397	4000.49	64.5535	4000.49	71.2077	4000.49	65.7029	4000.49	69.9084	4000.49	72.7269	4000.49	70.5873	4000.49	72.5424	4000.49	71.8613	4000.49	68.8667	4000.49	73.2463	4000.49	58.3874	4000.49	70.6124	4000.49	70.326	4000.49	64.1059
4141.11	87.547	4141.11	88.2173	4141.11	86.7345	4141.11	87.8985	4141.11	86.7756	4141.11	86.1936	4141.11	85.0894	4141.11	82.7291	4141.11	83.7414	4141.11	80.6456	4141.11	83.8331	4141.11	81.0358	4141.11	83.1272	4141.11	81.6653	4141.11	80.6514	4141.11	80.0247	4141.11	78.6014	4141.11	77.3946	4141.11	75.6607	4141.11	76.4875	4141.11	66.8039	4141.11	72.7535	4141.11	40.685	4141.11	68.6891	4141.11	69.9465	4141.11	69.957	4141.11	72.4301	4141.11	70.3653	4141.11	71.6927	4141.11	71.5995	4141.11	67.9641	4141.11	72.5723	4141.11	56.586	4141.11	70.7413	4141.11	69.1843	4141.11	58.8306
4287.6	87.7097	4287.6	87.8817	4287.6	85.9407	4287.6	87.0608	4287.6	85.4716	4287.6	85.9327	4287.6	84.5585	4287.6	83.5598	4287.6	84.2948	4287.6	79.7478	4287.6	83.5178	4287.6	79.7228	4287.6	82.1126	4287.6	80.0931	4287.6	79.7357	4287.6	79.8851	4287.6	78.482	4287.6	80.1647	4287.6	67.7785	4287.6	75.5231	4287.6	65.0826	4287.6	72.5748	4287.6	64.6384	4287.6	68.6187	4287.6	69.2647	4287.6	69.5114	4287.6	72.1282	4287.6	70.8169	4287.6	72.696	4287.6	72.0418	4287.6	68.2964	4287.6	71.7588	4287.6	61.2833	4287.6	71.2043	4287.6	67.6804	4287.6	59.4099
4438.48	87.0615	4438.48	87.1137	4438.48	84.2694	4438.48	85.4961	4438.48	82.924	4438.48	84.7582	4438.48	83.4592	4438.48	81.7417	4438.48	84.1435	4438.48	78.3111	4438.48	82.6275	4438.48	79.5187	4438.48	80.8431	4438.48	79.5441	4438.48	78.0126	4438.48	79.2719	4438.48	71.9579	4438.48	76.8074	4438.48	65.4873	4438.48	74.8436	4438.48	70.2308	4438.48	73.063	4438.48	64.8493	4438.48	66.3458	4438.48	64.7414	4438.48	67.3879	4438.48	71.731	4438.48	68.1111	4438.48	71.4105	4438.48	70.2257	4438.48	67.4901	4438.48	70.2895	4438.48	61.1232	4438.48	67.6659	4438.48	66.6551	4438.48	60.7429
4595.21	84.7307	4595.21	83.8396	4595.21	80.257	4595.21	81.9517	4595.21	78.6417	4595.21	81.5568	4595.21	82.1146	4595.21	79.456	4595.21	82.4532	4595.21	76.3294	4595.21	80.2096	4595.21	75.9052	4595.21	77.3756	4595.21	78.0069	4595.21	74.4217	4595.21	77.1668	4595.21	67.7761	4595.21	76.9162	4595.21	68.9374	4595.21	73.5851	4595.21	68.5522	4595.21	69.6383	4595.21	64.1746	4595.21	67.3348	4595.21	54.892	4595.21	66.7002	4595.21	69.1719	4595.21	65.4863	4595.21	69.9782	4595.21	68.2993	4595.21	66.2664	4595.21	68.0021	4595.21	59.4521	4595.21	68.7605	4595.21	63.9183	4595.21	57.8163
4756.35	83.9566	4756.35	82.9339	4756.35	80.6012	4756.35	80.651	4756.35	78.5048	4756.35	80.1906	4756.35	82.9576	4756.35	79.0075	4756.35	82.6884	4756.35	77.8973	4756.35	79.6204	4756.35	78.4934	4756.35	77.4256	4756.35	78.4109	4756.35	72.6665	4756.35	77.5293	4756.35	72.46	4756.35	74.6311	4756.35	70.2738	4756.35	72.0216	4756.35	65.3031	4756.35	70.9856	4756.35	68.0594	4756.35	64.0694	4756.35	62.0128	4756.35	63.9998	4756.35	66.5971	4756.35	65.358	4756.35	69.7659	4756.35	66.7401	4756.35	65.3842	4756.35	66.6439	4756.35	60.1395	4756.35	67.9783	4756.35	65.1043	4756.35	52.9343
4924.8	84.3797	4924.8	84.0508	4924.8	81.5053	4924.8	82.1251	4924.8	80.9143	4924.8	80.6035	4924.8	84.2392	4924.8	80.5323	4924.8	83.6613	4924.8	80.064	4924.8	80.493	4924.8	79.1826	4924.8	77.3411	4924.8	78.9483	4924.8	74.8072	4924.8	78.0713	4924.8	74.5176	4924.8	76.3507	4924.8	72.097	4924.8	73.6449	4924.8	62.425	4924.8	70.3241	4924.8	62.5621	4924.8	67.6668	4924.8	65.6835	4924.8	64.34	4924.8	67.0948	4924.8	66.2073	4924.8	69.8253	4924.8	67.1319	4924.8	63.5728	4924.8	67.5203	4924.8	63.247	4924.8	66.8451	4924.8	66.5321	4924.8	49.5966
5097.66	85.1243	5097.66	85.3464	5097.66	83.8767	5097.66	84.0444	5097.66	83.2534	5097.66	81.997	5097.66	85.0337	5097.66	82.7691	5097.66	83.9	5097.66	81.9286	5097.66	81.1905	5097.66	80.5264	5097.66	78.1049	5097.66	81.0117	5097.66	77.6332	5097.66	79.5639	5097.66	75.9843	5097.66	77.7685	5097.66	71.6344	5097.66	74.8631	5097.66	58.5562	5097.66	71.3219	5097.66	56.8676	5097.66	69.5128	5097.66	65.3023	5097.66	67.0832	5097.66	65.318	5097.66	66.8536	5097.66	69.5822	5097.66	68.6036	5097.66	65.2881	5097.66	68.7532	5097.66	57.8969	5097.66	68.7972	5097.66	66.6038	5097.66	60.1368
5277.83	85.7513	5277.83	86.5543	5277.83	85.4344	5277.83	85.7447	5277.83	84.8253	5277.83	83.6162	5277.83	86.6106	5277.83	85.2264	5277.83	85.2747	5277.83	84.6778	5277.83	82.1556	5277.83	82.4083	5277.83	80.8323	5277.83	81.5803	5277.83	81.1405	5277.83	81.9763	5277.83	78.9726	5277.83	80.6241	5277.83	74.9718	5277.83	78.2795	5277.83	66.5642	5277.83	74.0546	5277.83	59.452	5277.83	72.0561	5277.83	65.6194	5277.83	67.952	5277.83	70.8132	5277.83	70.2068	5277.83	71.1721	5277.83	69.9357	5277.83	64.9495	5277.83	70.3363	5277.83	63.3635	5277.83	70.4398	5277.83	66.4186	5277.83	53.4803
5463.87	86.7991	5463.87	87.2885	5463.87	87.3363	5463.87	86.2292	5463.87	87.6363	5463.87	86.3426	5463.87	87.683	5463.87	88.3105	5463.87	86.8884	5463.87	86.4637	5463.87	84.5637	5463.87	82.8653	5463.87	84.7347	5463.87	83.9688	5463.87	82.1196	5463.87	83.837	5463.87	82.144	5463.87	81.7385	5463.87	78.6195	5463.87	79.8387	5463.87	72.8981	5463.87	75.8651	5463.87	69.6655	5463.87	74.7048	5463.87	67.9051	5463.87	71.8989	5463.87	75.5061	5463.87	72.1522	5463.87	71.3952	5463.87	71.5539	5463.87	59.7776	5463.87	72.2647	5463.87	66.8491	5463.87	71.3187	5463.87	71.0594	5463.87	61.1178
5657.23	87.1626	5657.23	88.0663	5657.23	88.2689	5657.23	85.5877	5657.23	89.8483	5657.23	87.7027	5657.23	87.1793	5657.23	89.6872	5657.23	86.8016	5657.23	87.812	5657.23	86.4847	5657.23	84.2143	5657.23	86.654	5657.23	83.2776	5657.23	81.5396	5657.23	83.5543	5657.23	79.1046	5657.23	83.3034	5657.23	78.8064	5657.23	81.0406	5657.23	70.4365	5657.23	76.4103	5657.23	71.3679	5657.23	73.3038	5657.23	67.1508	5657.23	69.1322	5657.23	76.0529	5657.23	72.0724	5657.23	74.0722	5657.23	72.9372	5657.23	67.8677	5657.23	72.0926	5657.23	66.0308	5657.23	72.0382	5657.23	71.8773	5657.23	61.5306
5856.45	86.0269	5856.45	87.0186	5856.45	89.5885	5856.45	84.7227	5856.45	90.4204	5856.45	87.6506	5856.45	85.0943	5856.45	89.3268	5856.45	87.5267	5856.45	88.0683	5856.45	87.2737	5856.45	84.1638	5856.45	85.6035	5856.45	83.6141	5856.45	83.9435	5856.45	82.6961	5856.45	78.1337	5856.45	79.9781	5856.45	74.0052	5856.45	78.2142	5856.45	64.2451	5856.45	74.9307	5856.45	69.7599	5856.45	71.4317	5856.45	68.4646	5856.45	69.1996	5856.45	72.3831	5856.45	68.8701	5856.45	74.1292	5856.45	72.0169	5856.45	67.5279	5856.45	72.5076	5856.45	66.1844	5856.45	71.3395	5856.45	71.0475	5856.45	58.8883
6062.99	85.3689	6062.99	82.9545	6062.99	89.9401	6062.99	84.6399	6062.99	89.7	6062.99	87.9088	6062.99	85.9151	6062.99	88.6296	6062.99	87.0993	6062.99	87.234	6062.99	87.0926	6062.99	84.7874	6062.99	83.2021	6062.99	82.6364	6062.99	80.9606	6062.99	81.3991	6062.99	77.7768	6062.99	80.0582	6062.99	75.8994	6062.99	76.6553	6062.99	68.1526	6062.99	72.3728	6062.99	66.1916	6062.99	69.9577	6062.99	68.5285	6062.99	65.4358	6062.99	74.029	6062.99	65.7399	6062.99	74.3702	6062.99	69.3467	6062.99	64.2299	6062.99	70.8061	6062.99	62.8333	6062.99	68.9316	6062.99	67.3478	6062.99	60.2166
6276.86	85.8204	6276.86	81.7249	6276.86	89.7817	6276.86	85.8528	6276.86	89.3773	6276.86	87.8363	6276.86	86.9469	6276.86	87.3058	6276.86	86.2558	6276.86	86.6412	6276.86	85.7151	6276.86	84.8887	6276.86	82.4102	6276.86	82.622	6276.86	76.4396	6276.86	81.4786	6276.86	70.3765	6276.86	78.5868	6276.86	68.1546	6276.86	75.6278	6276.86	66.8186	6276.86	70.8098	6276.86	55.3599	6276.86	68.6505	6276.86	61.0176	6276.86	61.6245	6276.86	68.5638	6276.86	64.2621	6276.86	72.1632	6276.86	66.7101	6276.86	62.786	6276.86	68.0627	6276.86	59.4349	6276.86	65.8317	6276.86	64.7189	6276.86	59.5761
6498.05	86.1194	6498.05	82.4969	6498.05	88.9787	6498.05	86.6152	6498.05	88.4742	6498.05	87.8816	6498.05	86.8084	6498.05	86.909	6498.05	85.7761	6498.05	86.0253	6498.05	84.2289	6498.05	84.6177	6498.05	78.9792	6498.05	82.1309	6498.05	72.2988	6498.05	79.2381	6498.05	69.5791	6498.05	75.7568	6498.05	64.5127	6498.05	73.7764	6498.05	54.3662	6498.05	68.7556	6498.05	57.9019	6498.05	66.7821	6498.05	54.5103	6498.05	61.2186	6498.05	61.5727	6498.05	59.3966	6498.05	64.7776	6498.05	63.9466	6498.05	55.7429	6498.05	64.9934	6498.05	58.2377	6498.05	62.7499	6498.05	64.0304	6498.05	59.4331
6726.56	84.8124	6726.56	82.6489	6726.56	87.6378	6726.56	85.3063	6726.56	87.1227	6726.56	86.0591	6726.56	86.2429	6726.56	85.3378	6726.56	84.8889	6726.56	85.1121	6726.56	81.2698	6726.56	83.3127	6726.56	75.9346	6726.56	80.5	6726.56	71.1348	6726.56	78.1953	6726.56	72.0165	6726.56	75.3058	6726.56	70.3783	6726.56	71.9127	6726.56	53.3314	6726.56	66.0407	6726.56	62.2405	6726.56	67.4032	6726.56	56.8169	6726.56	62.9405	6726.56	57.0978	6726.56	57.7966	6726.56	58.1971	6726.56	61.9794	6726.56	56.8228	6726.56	62.2192	6726.56	53.532	6726.56	58.89	6726.56	57.9796	6726.56	50.1157
6963.87	83.5351	6963.87	81.5845	6963.87	86.4354	6963.87	84.5247	6963.87	86.2054	6963.87	83.9998	6963.87	86.2357	6963.87	83.5038	6963.87	83.3312	6963.87	84.0908	6963.87	79.1361	6963.87	82.4876	6963.87	74.2404	6963.87	78.8436	6963.87	73.2959	6963.87	75.0134	6963.87	73.3162	6963.87	72.2574	6963.87	69.1518	6963.87	68.9785	6963.87	50.7962	6963.87	63.8969	6963.87	61.1999	6963.87	63.4463	6963.87	52.5141	6963.87	59.5593	6963.87	54.7288	6963.87	53.1951	6963.87	60.676	6963.87	58.1488	6963.87	57.6206	6963.87	61.2514	6963.87	52.3186	6963.87	58.846	6963.87	56.5092	6963.87	55.6044
7209.96	81.8138	7209.96	80.6708	7209.96	83.8711	7209.96	82.7676	7209.96	84.8191	7209.96	81.7128	7209.96	85.1016	7209.96	81.7111	7209.96	80.8757	7209.96	82.4047	7209.96	77.2781	7209.96	80.0368	7209.96	74.332	7209.96	75.3682	7209.96	69.253	7209.96	70.7557	7209.96	67.5525	7209.96	67.482	7209.96	67.8484	7209.96	66.2623	7209.96	54.2765	7209.96	61.9661	7209.96	55.6803	7209.96	62.0645	7209.96	48.4913	7209.96	57.2995	7209.96	48.1097	7209.96	52.6767	7209.96	59.3328	7209.96	56.3205	7209.96	58.0026	7209.96	56.7653	7209.96	51.5814	7209.96	55.1288	7209.96	53.8953	7209.96	45.5509
7464.84	79.724	7464.84	79.7406	7464.84	80.4658	7464.84	79.9068	7464.84	82.4896	7464.84	79.3335	7464.84	82.4999	7464.84	79.535	7464.84	77.9072	7464.84	79.6193	7464.84	73.9343	7464.84	77.1703	7464.84	71.5998	7464.84	71.0642	7464.84	64.2078	7464.84	68.8825	7464.84	54.0398	7464.84	67.8179	7464.84	64.4139	7464.84	64.5712	7464.84	40.3917	7464.84	60.1582	7464.84	46.691	7464.84	59.1913	7464.84	49.3372	7464.84	53.5986	7464.84	48.7642	7464.84	51.5524	7464.84	54.051	7464.84	54.2729	7464.84	53.196	7464.84	55.8324	7464.84	49.0159	7464.84	51.8906	7464.84	52.7821	7464.84	50.6011
7727.05	79.7903	7727.05	80.3483	7727.05	78.6906	7727.05	79.0994	7727.05	81.3674	7727.05	78.6838	7727.05	80.7325	7727.05	78.6986	7727.05	75.2635	7727.05	77.9274	7727.05	71.598	7727.05	74.8525	7727.05	69.5048	7727.05	69.7197	7727.05	64.9098	7727.05	67.9898	7727.05	59.0429	7727.05	68.4324	7727.05	57.8516	7727.05	64.3824	7727.05	53.5863	7727.05	60.1788	7727.05	49.0804	7727.05	59.5461	7727.05	47.7208	7727.05	56.3131	7727.05	46.7225	7727.05	48.4605	7727.05	55.0508	7727.05	52.1586	7727.05	50.8145	7727.05	55.1259	7727.05	49.474	7727.05	51.7661	7727.05	50.0994	7727.05	49.5139
7999.51	82.4544	7999.51	83.0289	7999.51	81.3553	7999.51	81.2656	7999.51	82.9348	7999.51	80.5789	7999.51	80.8006	7999.51	80.4286	7999.51	75.612	7999.51	78.5288	7999.51	72.0709	7999.51	74.6171	7999.51	70.9139	7999.51	70.1246	7999.51	65.0059	7999.51	70.2242	7999.51	58.8425	7999.51	69.0953	7999.51	57.463	7999.51	65.5962	7999.51	47.0541	7999.51	61.8207	7999.51	49.9257	7999.51	59.6682	7999.51	40.5991	7999.51	56.1839	7999.51	48.6522	7999.51	50.052	7999.51	54.4236	7999.51	50.0288	7999.51	51.4716	7999.51	54.9705	7999.51	49.0685	7999.51	54.2116	7999.51	49.5765	7999.51	48.6827
8282.23	86.0526	8282.23	86.3417	8282.23	85.2181	8282.23	84.7924	8282.23	85.8961	8282.23	84.8369	8282.23	82.9749	8282.23	83.0695	8282.23	79.5152	8282.23	80.1712	8282.23	76.1902	8282.23	76.8697	8282.23	72.9132	8282.23	72.2823	8282.23	65.0615	8282.23	70.1559	8282.23	59.3317	8282.23	68.2154	8282.23	61.1391	8282.23	63.2505	8282.23	55.4803	8282.23	58.1279	8282.23	55.3144	8282.23	58.146	8282.23	45.4263	8282.23	54.4479	8282.23	42.8616	8282.23	49.0017	8282.23	51.8022	8282.23	49.1043	8282.23	52.3567	8282.23	54.4292	8282.23	44.017	8282.23	51.5841	8282.23	50.292	8282.23	50.4839
8573.73	88.8843	8573.73	89.0502	8573.73	88.5043	8573.73	87.6864	8573.73	88.2399	8573.73	87.9705	8573.73	85.3669	8573.73	85.8189	8573.73	81.6683	8573.73	82.3782	8573.73	78.0992	8573.73	78.726	8573.73	73.9083	8573.73	74.8658	8573.73	66.4896	8573.73	71.4402	8573.73	63.5807	8573.73	68.537	8573.73	63.7363	8573.73	62.8047	8573.73	55.9492	8573.73	58.7554	8573.73	59.0864	8573.73	57.9707	8573.73	52.9544	8573.73	54.7434	8573.73	48.7442	8573.73	50.4546	8573.73	42.0896	8573.73	48.2287	8573.73	52.8265	8573.73	53.8544	8573.73	44.4173	8573.73	45.919	8573.73	49.8163	8573.73	51.5125
8876.95	90.3113	8876.95	90.1749	8876.95	90.2245	8876.95	89.2566	8876.95	89.5352	8876.95	89.3713	8876.95	86.2428	8876.95	86.8534	8876.95	82.1357	8876.95	83.4368	8876.95	77.6117	8876.95	79.9099	8876.95	72.6088	8876.95	75.9519	8876.95	68.062	8876.95	70.6641	8876.95	59.493	8876.95	66.22	8876.95	61.5089	8876.95	57.2372	8876.95	51.9519	8876.95	55.9118	8876.95	60.7285	8876.95	51.9511	8876.95	51.6888	8876.95	50.4379	8876.95	48.4844	8876.95	48.0896	8876.95	49.3448	8876.95	40.2808	8876.95	51.351	8876.95	50.9848	8876.95	43.0237	8876.95	38.7489	8876.95	47.5727	8876.95	46.2327
9188.96	90.1828	9188.96	89.8081	9188.96	90.1921	9188.96	89.0593	9188.96	89.0777	9188.96	88.9326	9188.96	85.1105	9188.96	86.2842	9188.96	80.3846	9188.96	82.825	9188.96	74.9443	9188.96	78.794	9188.96	68.8861	9188.96	73.5398	9188.96	61.423	9188.96	67.7211	9188.96	52.63	9188.96	64.1709	9188.96	60.2409	9188.96	54.0496	9188.96	55.2713	9188.96	57.0214	9188.96	61.689	9188.96	47.561	9188.96	47.6187	9188.96	50.2695	9188.96	43.6355	9188.96	47.1771	9188.96	45.2686	9188.96	42.2107	9188.96	50.4627	9188.96	49.8466	9188.96	43.9207	9188.96	29.4682	9188.96	42.5302	9188.96	41.9681
9514.16	89.4192	9514.16	89.0738	9514.16	89.6506	9514.16	88.3612	9514.16	88.4132	9514.16	88.2429	9514.16	83.9393	9514.16	85.4285	9514.16	78.1611	9514.16	81.3942	9514.16	71.3816	9514.16	76.8827	9514.16	60.6903	9514.16	70.9916	9514.16	51.6021	9514.16	62.0051	9514.16	49.5828	9514.16	57.7983	9514.16	61.0504	9514.16	52.9006	9514.16	59.2004	9514.16	55.0918	9514.16	61.7735	9514.16	43.3121	9514.16	49.5241	9514.16	49.808	9514.16	42.6346	9514.16	48.4376	9514.16	46.4372	9514.16	41.3644	9514.16	47.7173	9514.16	46.231	9514.16	47.687	9514.16	39.9286	9514.16	33.9847	9514.16	46.5428
9849.61	88.8172	9849.61	88.5681	9849.61	89.6139	9849.61	87.9474	9849.61	88.2671	9849.61	88.1698	9849.61	83.0933	9849.61	85.4415	9849.61	76.4639	9849.61	80.5041	9849.61	65.7089	9849.61	75.4675	9849.61	57.5518	9849.61	68.7157	9849.61	61.2252	9849.61	55.1805	9849.61	57.9229	9849.61	58.8338	9849.61	63.3179	9849.61	60.7327	9849.61	61.2889	9849.61	58.8975	9849.61	64.0392	9849.61	52.5907	9849.61	50.3134	9849.61	55.5082	9849.61	43.3577	9849.61	51.8038	9849.61	50.5839	9849.61	41.2025	9849.61	47.7911	9849.61	47.2606	9849.61	50.1113	9849.61	47.3501	9849.61	34.9253	9849.61	50.3405
10196.8	88.2251	10196.8	87.6274	10196.8	90.0458	10196.8	87.7492	10196.8	88.4135	10196.8	88.9612	10196.8	83.5844	10196.8	85.4549	10196.8	75.699	10196.8	80.6026	10196.8	58.9171	10196.8	77.0882	10196.8	72.1031	10196.8	65.5507	10196.8	69.9391	10196.8	62.263	10196.8	65.5554	10196.8	64.8167	10196.8	65.6967	10196.8	66.3928	10196.8	63.3868	10196.8	63.6186	10196.8	67.3627	10196.8	60.1051	10196.8	53.351	10196.8	58.7958	10196.8	36.21	10196.8	56.8624	10196.8	56.6226	10196.8	36.9937	10196.8	52.0067	10196.8	49.5434	10196.8	55.472	10196.8	52.3255	10196.8	45.3972	10196.8	54.7877
10555.7	89.1102	10555.7	87.5543	10555.7	90.5302	10555.7	88.9339	10555.7	87.9289	10555.7	89.4553	10555.7	84.1688	10555.7	84.9537	10555.7	76.5479	10555.7	81.8824	10555.7	66.2892	10555.7	76.766	10555.7	75.1145	10555.7	63.769	10555.7	71.7696	10555.7	69.0051	10555.7	69.1624	10555.7	69.4777	10555.7	67.4974	10555.7	68.2097	10555.7	65.0172	10555.7	65.1448	10555.7	64.433	10555.7	61.9823	10555.7	49.4355	10555.7	59.1909	10555.7	49.234	10555.7	57.9534	10555.7	57.968	10555.7	38.0924	10555.7	50.8469	10555.7	44.4788	10555.7	55.4593	10555.7	53.7306	10555.7	50.7975	10555.7	53.2987
10927.7	89.4726	10927.7	87.446	10927.7	90.3941	10927.7	89.0894	10927.7	87.4433	10927.7	89.2073	10927.7	83.2139	10927.7	84.9962	10927.7	72.4919	10927.7	81.4409	10927.7	71.0967	10927.7	74.0818	10927.7	73.829	10927.7	63.9919	10927.7	69.9435	10927.7	68.7113	10927.7	64.7765	10927.7	65.6226	10927.7	64.3181	10927.7	65.5042	10927.7	62.256	10927.7	60.6873	10927.7	63.0491	10927.7	59.8393	10927.7	44.6582	10927.7	54.8456	10927.7	48.692	10927.7	57.6797	10927.7	58.3914	10927.7	40.2393	10927.7	48.6751	10927.7	43.9874	10927.7	54.4837	10927.7	51.2623	10927.7	42.657	10927.7	50.4583
11313	87.6438	11313	85.2746	11313	88.3662	11313	86.9596	11313	85.0933	11313	86.8793	11313	80.2095	11313	82.0527	11313	51.5448	11313	77.7664	11313	74.026	11313	66.0759	11313	72.3725	11313	69.9771	11313	67.3156	11313	69.6702	11313	58.2279	11313	65.5258	11313	63.0626	11313	63.7296	11313	61.9334	11313	57.7348	11313	59.6675	11313	57.8233	11313	52.1761	11313	51.9275	11313	45.2951	11313	56.3653	11313	56.0689	11313	35.6232	11313	48.9861	11313	33.9247	11313	54.6728	11313	48.9032	11313	42.5158	11313	48.5175
11712.9	87.9506	11712.9	87.3926	11712.9	86.4969	11712.9	86.7939	11712.9	82.3536	11712.9	85.1064	11712.9	77.0266	11712.9	80.0779	11712.9	70.02	11712.9	76.1771	11712.9	75.5091	11712.9	67.1108	11712.9	69.6779	11712.9	71.9576	11712.9	64.4788	11712.9	69.0941	11712.9	59.8484	11712.9	66.1895	11712.9	62.7744	11712.9	63.484	11712.9	63.6834	11712.9	59.5512	11712.9	52.5216	11712.9	57.0345	11712.9	50.731	11712.9	52.8305	11712.9	47.0452	11712.9	54.7384	11712.9	52.2549	11712.9	37.8351	11712.9	46.4731	11712.9	37.2094	11712.9	52.6972	11712.9	49.2282	11712.9	41.1726	11712.9	44.7861
12126	90.3067	12126	90.6741	12126	87.2518	12126	89.0727	12126	83.0753	12126	86.0159	12126	76.2488	12126	81.1764	12126	74.6006	12126	76.7754	12126	73.9617	12126	68.9275	12126	68.6318	12126	72.3028	12126	64.9604	12126	66.1459	12126	60.8648	12126	63.6234	12126	63.2569	12126	61.5773	12126	63.2634	12126	57.767	12126	58.3914	12126	54.5273	12126	50.7919	12126	51.2522	12126	47.6553	12126	49.3884	12126	54.9559	12126	45.4537	12126	52.051	12126	36.504	12126	52.2	12126	41.8778	12126	44.5923	12126	37.5958
12553.7	92.1953	12553.7	93.103	12553.7	88.27	12553.7	90.5256	12553.7	85.0377	12553.7	86.4445	12553.7	74.2486	12553.7	82.3211	12553.7	76.9865	12553.7	74.7253	12553.7	69.5916	12553.7	71.5658	12553.7	71.6737	12553.7	71.8849	12553.7	65.3215	12553.7	64.2345	12553.7	61.4249	12553.7	64.7534	12553.7	61.4409	12553.7	62.7528	12553.7	62.7585	12553.7	58.7108	12553.7	64.0082	12553.7	57.7818	12553.7	50.3998	12553.7	53.2582	12553.7	51.304	12553.7	47.3472	12553.7	56.5455	12553.7	47.6202	12553.7	49.7627	12553.7	35.4217	12553.7	52.8499	12553.7	40.3206	12553.7	43.4225	12553.7	44.7861
12996.1	91.1171	12996.1	92.625	12996.1	86.6979	12996.1	89.4624	12996.1	83.9246	12996.1	85.2962	12996.1	67.7357	12996.1	81.023	12996.1	74.6033	12996.1	71.4213	12996.1	68.4114	12996.1	71.9761	12996.1	71.7237	12996.1	68.3288	12996.1	64.5332	12996.1	64.9535	12996.1	58.4206	12996.1	63.9581	12996.1	59.9147	12996.1	62.6986	12996.1	57.2374	12996.1	57.5339	12996.1	64.3489	12996.1	58.764	12996.1	51.7923	12996.1	52.2252	12996.1	46.0414	12996.1	51.3105	12996.1	53.4613	12996.1	48.0852	12996.1	51.2025	12996.1	27.1977	12996.1	51.9769	12996.1	28.17	12996.1	46.6776	12996.1	49.4875
13454.6	89.3659	13454.6	91.2725	13454.6	85.2778	13454.6	87.7512	13454.6	82.0798	13454.6	84.5538	13454.6	72.4342	13454.6	79.8508	13454.6	68.0484	13454.6	72.6143	13454.6	69.65	13454.6	69.3829	13454.6	67.6566	13454.6	66.809	13454.6	63.7856	13454.6	65.5296	13454.6	56.3188	13454.6	60.5931	13454.6	58.4783	13454.6	59.223	13454.6	57.1186	13454.6	51.6338	13454.6	63.0566	13454.6	54.6091	13454.6	49.4478	13454.6	47.8023	13454.6	44.6888	13454.6	50.9336	13454.6	52.9383	13454.6	46.7819	13454.6	47.4181	13454.6	36.0873	13454.6	50.1712	13454.6	38.676	13454.6	43.4272	13454.6	49.0009
13929.2	88.5829	13929.2	91.0698	13929.2	84.4424	13929.2	87.1255	13929.2	79.8975	13929.2	84.3442	13929.2	73.8794	13929.2	79.2024	13929.2	64.5437	13929.2	71.2051	13929.2	69.8689	13929.2	63.8073	13929.2	67.8945	13929.2	62.5663	13929.2	60.5188	13929.2	63.8693	13929.2	55.7891	13929.2	55.6789	13929.2	58.33	13929.2	56.5719	13929.2	59.2217	13929.2	49.9841	13929.2	60.6134	13929.2	52.82	13929.2	48.5504	13929.2	45.1544	13929.2	47.3967	13929.2	50.9777	13929.2	51.2303	13929.2	45.8039	13929.2	46.6128	13929.2	41.6323	13929.2	49.4344	13929.2	41.0323	13929.2	42.9535	13929.2	48.3924
14419.9	89.0145	14419.9	91.7522	14419.9	84.218	14419.9	86.661	14419.9	76.6624	14419.9	82.6518	14419.9	75.6065	14419.9	73.6297	14419.9	71.8951	14419.9	66.6166	14419.9	69.8089	14419.9	59.0443	14419.9	67.482	14419.9	65.6065	14419.9	58.969	14419.9	63.4407	14419.9	53.3703	14419.9	55.2551	14419.9	60.4787	14419.9	57.0895	14419.9	60.8886	14419.9	50.1179	14419.9	55.4145	14419.9	56.1813	14419.9	48.1186	14419.9	48.1599	14419.9	50.9327	14419.9	52.7546	14419.9	53.4296	14419.9	47.0125	14419.9	46.4428	14419.9	47.645	14419.9	52.9518	14419.9	47.4892	14419.9	46.5782	14419.9	51.2174
14928.2	89.3119	14928.2	90.9571	14928.2	84.8702	14928.2	87.3648	14928.2	74.4972	14928.2	82.5877	14928.2	71.3121	14928.2	71.7395	14928.2	73.1193	14928.2	64.4979	14928.2	65.8529	14928.2	67.7693	14928.2	65.3731	14928.2	65.2143	14928.2	62.2228	14928.2	61.6543	14928.2	48.1301	14928.2	61.0114	14928.2	60.5273	14928.2	55.9958	14928.2	59.4641	14928.2	52.8473	14928.2	61.0537	14928.2	55.9835	14928.2	52.1979	14928.2	45.3291	14928.2	47.2685	14928.2	55.3161	14928.2	53.1662	14928.2	47.3727	14928.2	46.9258	14928.2	49.5479	14928.2	54.205	14928.2	50.2392	14928.2	46.784	14928.2	52.8731
15455.6	88.0204	15455.6	88.6292	15455.6	83.8438	15455.6	86.2738	15455.6	75.5099	15455.6	81.6171	15455.6	64.9263	15455.6	71.5881	15455.6	70.7207	15455.6	60.0254	15455.6	65.9134	15455.6	66.0484	15455.6	62.0809	15455.6	62.7115	15455.6	57.9084	15455.6	59.2427	15455.6	40.75	15455.6	58.39	15455.6	58.7028	15455.6	52.1528	15455.6	59.4102	15455.6	49.6021	15455.6	61.2809	15455.6	50.3161	15455.6	49.7079	15455.6	36.634	15455.6	39.8591	15455.6	52.3638	15455.6	48.8982	15455.6	42.8499	15455.6	38.1827	15455.6	45.9979	15455.6	51.026	15455.6	46.0726	15455.6	41.8385	15455.6	46.9319
16000.5	87.6145	16000.5	88.2423	16000.5	83.2041	16000.5	85.6607	16000.5	73.3765	16000.5	81.0609	16000.5	66.5733	16000.5	69.475	16000.5	71.1938	16000.5	54.1881	16000.5	66.7884	16000.5	64.9522	16000.5	61.5591	16000.5	63.3053	16000.5	53.5608	16000.5	58.8974	16000.5	38.873	16000.5	55.4466	16000.5	56.4146	16000.5	47.7755	16000.5	60.4582	16000.5	44.7594	16000.5	60.4283	16000.5	49.3149	16000.5	47.7379	16000.5	35.5304	16000.5	38.3332	16000.5	48.9814	16000.5	49.4096	16000.5	38.7046	16000.5	43.8338	16000.5	44.2123	16000.5	50.7076	16000.5	45.2189	16000.5	40.4591	16000.5	44.4844
16564.5	87.106	16564.5	88.2852	16564.5	80.5262	16564.5	84.5711	16564.5	60.6755	16564.5	77.9288	16564.5	75.5492	16564.5	60.4574	16564.5	75.3148	16564.5	69.4947	16564.5	70.2291	16564.5	68.4284	16564.5	61.4001	16564.5	66.6021	16564.5	48.8169	16564.5	59.1877	16564.5	43.8544	16564.5	52.1851	16564.5	57.0126	16564.5	41.4334	16564.5	63.5798	16564.5	47.2156	16564.5	61.2911	16564.5	46.6461	16564.5	50.3663	16564.5	28.8047	16564.5	37.0872	16564.5	48.8678	16564.5	50.3071	16564.5	43.5231	16564.5	42.5646	16564.5	46.0249	16564.5	53.3126	16564.5	45.014	16564.5	44.1473	16564.5	48.3906
17148.9	86.7652	17148.9	88.4754	17148.9	78.0962	17148.9	84.2573	17148.9	70.1332	17148.9	75.3375	17148.9	78.4156	17148.9	67.7255	17148.9	76.584	17148.9	72.5878	17148.9	67.6612	17148.9	70.1871	17148.9	54.1492	17148.9	66.705	17148.9	57.2845	17148.9	53.4029	17148.9	45.912	17148.9	48.8929	17148.9	58.9141	17148.9	38.2161	17148.9	64.6248	17148.9	49.1803	17148.9	63.8034	17148.9	48.099	17148.9	52.8238	17148.9	34.1636	17148.9	42.9086	17148.9	41.7763	17148.9	51.2363	17148.9	43.4721	17148.9	44.3152	17148.9	41.2196	17148.9	47.5758	17148.9	40.6951	17148.9	40.2484	17148.9	43.3567
17752.4	86.9822	17752.4	89.1717	17752.4	78.1176	17752.4	84.3741	17752.4	70.4693	17752.4	75.3763	17752.4	75.8499	17752.4	65.8963	17752.4	73.9715	17752.4	69.8976	17752.4	57.8075	17752.4	67.2337	17752.4	46.7532	17752.4	59.2553	17752.4	53.7733	17752.4	51.4826	17752.4	47.3423	17752.4	49.9207	17752.4	57.3509	17752.4	42.2532	17752.4	62.0245	17752.4	45.6986	17752.4	63.2593	17752.4	49.137	17752.4	52.821	17752.4	40.1087	17752.4	41.6056	17752.4	41.5312	17752.4	50.8007	17752.4	30.5893	17752.4	47.1333	17752.4	40.1158	17752.4	52.3089	17752.4	41.2967	17752.4	35.4824	17752.4	35.8039
18379.4	85.4021	18379.4	88.724	18379.4	70.3415	18379.4	81.8749	18379.4	71.9308	18379.4	67.2446	18379.4	73.811	18379.4	70.5857	18379.4	71.5357	18379.4	68.3249	18379.4	57.8816	18379.4	65.3319	18379.4	56.0957	18379.4	46.8096	18379.4	45.3734	18379.4	55.8096	18379.4	53.0927	18379.4	50.9524	18379.4	54.3392	18379.4	47.2656	18379.4	60.7706	18379.4	38.3345	18379.4	62.8935	18379.4	49.3993	18379.4	54.4635	18379.4	43.1785	18379.4	46.1354	18379.4	46.8791	18379.4	51.0429	18379.4	40.9333	18379.4	49.4731	18379.4	45.1867	18379.4	56.7807	18379.4	46.7822	18379.4	43.7508	18379.4	44.2073
19026.9	82.725	19026.9	85.3376	19026.9	69.4396	19026.9	78.1032	19026.9	74.6652	19026.9	58.25	19026.9	73.7061	19026.9	72.1266	19026.9	67.2234	19026.9	69.4107	19026.9	62.7453	19026.9	62.255	19026.9	52.8727	19026.9	59.7319	19026.9	53.5246	19026.9	50.616	19026.9	54.0175	19026.9	48.8229	19026.9	50.5966	19026.9	51.2245	19026.9	62.2854	19026.9	40.666	19026.9	62.5276	19026.9	47.3639	19026.9	54.5425	19026.9	42.0456	19026.9	46.1331	19026.9	48.5359	19026.9	48.8396	19026.9	47.5492	19026.9	48.3672	19026.9	45.9185	19026.9	57.5334	19026.9	47.1422	19026.9	46.8614	19026.9	47.6997
19697.8	81.388	19697.8	83.3092	19697.8	73.2805	19697.8	74.3787	19697.8	74.9603	19697.8	70.2578	19697.8	73.3738	19697.8	72.6178	19697.8	57.2548	19697.8	70.1004	19697.8	57.4295	19697.8	49.963	19697.8	61.391	19697.8	57.0385	19697.8	57.852	19697.8	58.0727	19697.8	51.4243	19697.8	51.4752	19697.8	49.2931	19697.8	52.0725	19697.8	61.6177	19697.8	45.6892	19697.8	62.5803	19697.8	42.8586	19697.8	51.9702	19697.8	27.6681	19697.8	44.8297	19697.8	47.1272	19697.8	49.5126	19697.8	49.0713	19697.8	44.2535	19697.8	43.197	19697.8	56.7739	19697.8	41.5426	19697.8	45.9936	19697.8	46.7911
19999.5	79.5278	19999.5	81.6651	19999.5	74.5429	19999.5	72.1628	19999.5	72.9068	19999.5	70.7509	19999.5	70.4167	19999.5	71.4045	19999.5	59.6151	19999.5	67.358	19999.5	59.1519	19999.5	52.2937	19999.5	61.4636	19999.5	56.3904	19999.5	58.258	19999.5	57.5955	19999.5	53.0022	19999.5	50.607	19999.5	53.5328	19999.5	51.1339	19999.5	59.9494	19999.5	42.6838	19999.5	61.6952	19999.5	41.8133	19999.5	48.5164	19999.5	40.5067	19999.5	48.0135	19999.5	41.9918	19999.5	50.5493	19999.5	45.9704	19999.5	47.4861	19999.5	45.9993	19999.5	52.6479	19999.5	42.5778	19999.5	44.0489	19999.5	46.7402
