"SPL Horizontal"
"On-Axis"		"10°"		"-10°"		"20°"		"-20°"		"30°"		"-30°"		"40°"		"-40°"		"50°"		"-50°"		"60°"		"-60°"		"70°"		"-70°"		"80°"		"-80°"		"90°"		"-90°"		"100°"		"-100°"		"110°"		"-110°"		"120°"		"-120°"		"130°"		"-130°"		"140°"		"-140°"		"150°"		"-150°"		"160°"		"-160°"		"170°"		"-170°"		"180°"
"Frequency [Hz]"	"Sound Pessure Level [dB]  / [2.83V 1m] "	"Frequency [Hz]"	"Sound Pessure Level [dB]  / [2.83V 1m] "	"Frequency [Hz]"	"Sound Pessure Level [dB]  / [2.83V 1m] "	"Frequency [Hz]"	"Sound Pessure Level [dB]  / [2.83V 1m] "	"Frequency [Hz]"	"Sound Pessure Level [dB]  / [2.83V 1m] "	"Frequency [Hz]"	"Sound Pessure Level [dB]  / [2.83V 1m] "	"Frequency [Hz]"	"Sound Pessure Level [dB]  / [2.83V 1m] "	"Frequency [Hz]"	"Sound Pessure Level [dB]  / [2.83V 1m] "	"Frequency [Hz]"	"Sound Pessure Level [dB]  / [2.83V 1m] "	"Frequency [Hz]"	"Sound Pessure Level [dB]  / [2.83V 1m] "	"Frequency [Hz]"	"Sound Pessure Level [dB]  / [2.83V 1m] "	"Frequency [Hz]"	"Sound Pessure Level [dB]  / [2.83V 1m] "	"Frequency [Hz]"	"Sound Pessure Level [dB]  / [2.83V 1m] "	"Frequency [Hz]"	"Sound Pessure Level [dB]  / [2.83V 1m] "	"Frequency [Hz]"	"Sound Pessure Level [dB]  / [2.83V 1m] "	"Frequency [Hz]"	"Sound Pessure Level [dB]  / [2.83V 1m] "	"Frequency [Hz]"	"Sound Pessure Level [dB]  / [2.83V 1m] "	"Frequency [Hz]"	"Sound Pessure Level [dB]  / [2.83V 1m] "	"Frequency [Hz]"	"Sound Pessure Level [dB]  / [2.83V 1m] "	"Frequency [Hz]"	"Sound Pessure Level [dB]  / [2.83V 1m] "	"Frequency [Hz]"	"Sound Pessure Level [dB]  / [2.83V 1m] "	"Frequency [Hz]"	"Sound Pessure Level [dB]  / [2.83V 1m] "	"Frequency [Hz]"	"Sound Pessure Level [dB]  / [2.83V 1m] "	"Frequency [Hz]"	"Sound Pessure Level [dB]  / [2.83V 1m] "	"Frequency [Hz]"	"Sound Pessure Level [dB]  / [2.83V 1m] "	"Frequency [Hz]"	"Sound Pessure Level [dB]  / [2.83V 1m] "	"Frequency [Hz]"	"Sound Pessure Level [dB]  / [2.83V 1m] "	"Frequency [Hz]"	"Sound Pessure Level [dB]  / [2.83V 1m] "	"Frequency [Hz]"	"Sound Pessure Level [dB]  / [2.83V 1m] "	"Frequency [Hz]"	"Sound Pessure Level [dB]  / [2.83V 1m] "	"Frequency [Hz]"	"Sound Pessure Level [dB]  / [2.83V 1m] "	"Frequency [Hz]"	"Sound Pessure Level [dB]  / [2.83V 1m] "	"Frequency [Hz]"	"Sound Pessure Level [dB]  / [2.83V 1m] "	"Frequency [Hz]"	"Sound Pessure Level [dB]  / [2.83V 1m] "	"Frequency [Hz]"	"Sound Pessure Level [dB]  / [2.83V 1m] "	"Frequency [Hz]"	"Sound Pessure Level [dB]  / [2.83V 1m] "
20.5078	99.6273	20.5078	99.6399	20.5078	99.6562	20.5078	99.6943	20.5078	99.726	20.5078	99.7908	20.5078	99.8363	20.5078	99.9295	20.5078	99.9863	20.5078	100.11	20.5078	100.175	20.5078	100.333	20.5078	100.403	20.5078	100.597	20.5078	100.667	20.5078	100.9	20.5078	100.966	20.5078	101.24	20.5078	101.299	20.5078	101.612	20.5078	101.661	20.5078	102.006	20.5078	102.044	20.5078	102.413	20.5078	102.439	20.5078	102.814	20.5078	102.831	20.5078	103.188	20.5078	103.198	20.5078	103.514	20.5078	103.518	20.5078	103.766	20.5078	103.767	20.5078	103.926	20.5078	103.926	20.5078	103.981
21.9727	102.114	21.9727	102.111	21.9727	102.158	21.9727	102.151	21.9727	102.242	21.9727	102.233	21.9727	102.367	21.9727	102.358	21.9727	102.53	21.9727	102.525	21.9727	102.73	21.9727	102.734	21.9727	102.966	21.9727	102.983	21.9727	103.235	21.9727	103.271	21.9727	103.535	21.9727	103.595	21.9727	103.863	21.9727	103.949	21.9727	104.212	21.9727	104.325	21.9727	104.576	21.9727	104.714	21.9727	104.944	21.9727	105.098	21.9727	105.301	21.9727	105.46	21.9727	105.629	21.9727	105.778	21.9727	105.908	21.9727	106.03	21.9727	106.118	21.9727	106.198	21.9727	106.243	21.9727	106.271
23.4375	103.416	23.4375	103.437	23.4375	103.44	23.4375	103.502	23.4375	103.509	23.4375	103.612	23.4375	103.622	23.4375	103.766	23.4375	103.778	23.4375	103.963	23.4375	103.977	23.4375	104.2	23.4375	104.215	23.4375	104.476	23.4375	104.492	23.4375	104.787	23.4375	104.804	23.4375	105.127	23.4375	105.145	23.4375	105.491	23.4375	105.509	23.4375	105.87	23.4375	105.887	23.4375	106.251	23.4375	106.266	23.4375	106.619	23.4375	106.632	23.4375	106.958	23.4375	106.968	23.4375	107.248	23.4375	107.255	23.4375	107.471	23.4375	107.475	23.4375	107.612	23.4375	107.614	23.4375	107.66
24.9023	104.594	24.9023	104.602	24.9023	104.63	24.9023	104.654	24.9023	104.71	24.9023	104.749	24.9023	104.833	24.9023	104.888	24.9023	104.999	24.9023	105.069	24.9023	105.205	24.9023	105.289	24.9023	105.45	24.9023	105.548	24.9023	105.73	24.9023	105.841	24.9023	106.042	24.9023	106.165	24.9023	106.38	24.9023	106.513	24.9023	106.738	24.9023	106.878	24.9023	107.104	24.9023	107.25	24.9023	107.469	24.9023	107.614	24.9023	107.816	24.9023	107.954	24.9023	108.131	24.9023	108.252	24.9023	108.394	24.9023	108.489	24.9023	108.589	24.9023	108.65	24.9023	108.701	24.9023	108.722
26.3672	105.214	26.3672	105.229	26.3672	105.243	26.3672	105.287	26.3672	105.314	26.3672	105.387	26.3672	105.429	26.3672	105.53	26.3672	105.585	26.3672	105.714	26.3672	105.782	26.3672	105.937	26.3672	106.018	26.3672	106.198	26.3672	106.289	26.3672	106.493	26.3672	106.593	26.3672	106.817	26.3672	106.926	26.3672	107.166	26.3672	107.279	26.3672	107.531	26.3672	107.646	26.3672	107.901	26.3672	108.013	26.3672	108.262	26.3672	108.367	26.3672	108.598	26.3672	108.69	26.3672	108.889	26.3672	108.964	26.3672	109.117	26.3672	109.17	26.3672	109.267	26.3672	109.294	26.3672	109.328
27.832	105.704	27.832	105.715	27.832	105.735	27.832	105.769	27.832	105.808	27.832	105.865	27.832	105.924	27.832	106.003	27.832	106.081	27.832	106.182	27.832	106.278	27.832	106.402	27.832	106.515	27.832	106.66	27.832	106.788	27.832	106.954	27.832	107.095	27.832	107.279	27.832	107.431	27.832	107.63	27.832	107.789	27.832	107.999	27.832	108.16	27.832	108.375	27.832	108.533	27.832	108.745	27.832	108.892	27.832	109.091	27.832	109.22	27.832	109.394	27.832	109.499	27.832	109.634	27.832	109.708	27.832	109.795	27.832	109.833	27.832	109.863
29.2969	105.995	29.2969	106.007	29.2969	106.025	29.2969	106.063	29.2969	106.098	29.2969	106.162	29.2969	106.213	29.2969	106.303	29.2969	106.371	29.2969	106.486	29.2969	106.57	29.2969	106.71	29.2969	106.809	29.2969	106.973	29.2969	107.086	29.2969	107.272	29.2969	107.397	29.2969	107.603	29.2969	107.738	29.2969	107.959	29.2969	108.101	29.2969	108.334	29.2969	108.478	29.2969	108.715	29.2969	108.856	29.2969	109.089	29.2969	109.221	29.2969	109.439	29.2969	109.554	29.2969	109.744	29.2969	109.837	29.2969	109.985	29.2969	110.05	29.2969	110.144	29.2969	110.178	29.2969	110.211
30.7617	106.132	30.7617	106.147	30.7617	106.161	30.7617	106.207	30.7617	106.233	30.7617	106.309	30.7617	106.349	30.7617	106.455	30.7617	106.508	30.7617	106.644	30.7617	106.709	30.7617	106.875	30.7617	106.951	30.7617	107.145	30.7617	107.231	30.7617	107.451	30.7617	107.546	30.7617	107.79	30.7617	107.892	30.7617	108.154	30.7617	108.261	30.7617	108.536	30.7617	108.645	30.7617	108.924	30.7617	109.031	30.7617	109.304	30.7617	109.403	30.7617	109.657	30.7617	109.745	30.7617	109.964	30.7617	110.035	30.7617	110.206	30.7617	110.256	30.7617	110.364	30.7617	110.39	30.7617	110.427
32.2266	106.24	32.2266	106.258	32.2266	106.266	32.2266	106.318	32.2266	106.335	32.2266	106.423	32.2266	106.447	32.2266	106.57	32.2266	106.602	32.2266	106.759	32.2266	106.799	32.2266	106.99	32.2266	107.038	32.2266	107.261	32.2266	107.315	32.2266	107.569	32.2266	107.629	32.2266	107.909	32.2266	107.975	32.2266	108.275	32.2266	108.346	32.2266	108.659	32.2266	108.733	32.2266	109.048	32.2266	109.123	32.2266	109.429	32.2266	109.5	32.2266	109.783	32.2266	109.847	32.2266	110.09	32.2266	110.143	32.2266	110.33	32.2266	110.368	32.2266	110.486	32.2266	110.506	32.2266	110.547
33.6914	106.211	33.6914	106.23	33.6914	106.235	33.6914	106.293	33.6914	106.302	33.6914	106.399	33.6914	106.412	33.6914	106.548	33.6914	106.566	33.6914	106.74	33.6914	106.763	33.6914	106.974	33.6914	107.002	33.6914	107.249	33.6914	107.282	33.6914	107.561	33.6914	107.599	33.6914	107.907	33.6914	107.949	33.6914	108.279	33.6914	108.326	33.6914	108.67	33.6914	108.72	33.6914	109.066	33.6914	109.118	33.6914	109.453	33.6914	109.504	33.6914	109.812	33.6914	109.859	33.6914	110.123	33.6914	110.163	33.6914	110.366	33.6914	110.395	33.6914	110.523	33.6914	110.538	33.6914	110.582
35.1563	106.209	35.1563	106.23	35.1563	106.232	35.1563	106.293	35.1563	106.298	35.1563	106.4	35.1563	106.408	35.1563	106.55	35.1563	106.56	35.1563	106.743	35.1563	106.756	35.1563	106.978	35.1563	106.995	35.1563	107.255	35.1563	107.274	35.1563	107.57	35.1563	107.592	35.1563	107.918	35.1563	107.943	35.1563	108.294	35.1563	108.322	35.1563	108.688	35.1563	108.719	35.1563	109.088	35.1563	109.12	35.1563	109.479	35.1563	109.51	35.1563	109.84	35.1563	109.87	35.1563	110.153	35.1563	110.178	35.1563	110.396	35.1563	110.415	35.1563	110.552	35.1563	110.562	35.1563	110.609
36.6211	106.153	36.6211	106.174	36.6211	106.174	36.6211	106.238	36.6211	106.238	36.6211	106.345	36.6211	106.345	36.6211	106.495	36.6211	106.494	36.6211	106.688	36.6211	106.687	36.6211	106.923	36.6211	106.923	36.6211	107.2	36.6211	107.201	36.6211	107.516	36.6211	107.518	36.6211	107.866	36.6211	107.869	36.6211	108.244	36.6211	108.249	36.6211	108.64	36.6211	108.648	36.6211	109.043	36.6211	109.053	36.6211	109.435	36.6211	109.447	36.6211	109.799	36.6211	109.812	36.6211	110.113	36.6211	110.124	36.6211	110.356	36.6211	110.365	36.6211	110.511	36.6211	110.516	36.6211	110.566
38.0859	106.045	38.0859	106.066	38.0859	106.066	38.0859	106.128	38.0859	106.129	38.0859	106.234	38.0859	106.233	38.0859	106.382	38.0859	106.381	38.0859	106.573	38.0859	106.571	38.0859	106.807	38.0859	106.805	38.0859	107.084	38.0859	107.08	38.0859	107.4	38.0859	107.396	38.0859	107.752	38.0859	107.748	38.0859	108.133	38.0859	108.129	38.0859	108.533	38.0859	108.531	38.0859	108.94	38.0859	108.94	38.0859	109.337	38.0859	109.339	38.0859	109.704	38.0859	109.709	38.0859	110.022	38.0859	110.027	38.0859	110.267	38.0859	110.272	38.0859	110.424	38.0859	110.426	38.0859	110.478
39.5508	106.002	39.5508	106.026	39.5508	106.019	39.5508	106.09	39.5508	106.076	39.5508	106.194	39.5508	106.174	39.5508	106.34	39.5508	106.315	39.5508	106.527	39.5508	106.498	39.5508	106.757	39.5508	106.724	39.5508	107.027	39.5508	106.994	39.5508	107.337	39.5508	107.304	39.5508	107.683	39.5508	107.652	39.5508	108.058	39.5508	108.031	39.5508	108.454	39.5508	108.431	39.5508	108.857	39.5508	108.84	39.5508	109.252	39.5508	109.239	39.5508	109.618	39.5508	109.61	39.5508	109.933	39.5508	109.929	39.5508	110.178	39.5508	110.176	39.5508	110.333	39.5508	110.332	39.5508	110.386
41.0156	105.813	41.0156	105.836	41.0156	105.83	41.0156	105.898	41.0156	105.886	41.0156	106.001	41.0156	105.984	41.0156	106.145	41.0156	106.123	41.0156	106.332	41.0156	106.306	41.0156	106.562	41.0156	106.533	41.0156	106.835	41.0156	106.804	41.0156	107.149	41.0156	107.118	41.0156	107.502	41.0156	107.471	41.0156	107.886	41.0156	107.857	41.0156	108.291	41.0156	108.266	41.0156	108.705	41.0156	108.683	41.0156	109.109	41.0156	109.092	41.0156	109.484	41.0156	109.471	41.0156	109.807	41.0156	109.798	41.0156	110.057	41.0156	110.051	41.0156	110.215	41.0156	110.212	41.0156	110.268
42.4805	105.638	42.4805	105.664	42.4805	105.652	42.4805	105.73	42.4805	105.706	42.4805	105.837	42.4805	105.802	42.4805	105.985	42.4805	105.941	42.4805	106.176	42.4805	106.124	42.4805	106.41	42.4805	106.352	42.4805	106.688	42.4805	106.626	42.4805	107.007	42.4805	106.944	42.4805	107.364	42.4805	107.301	42.4805	107.752	42.4805	107.692	42.4805	108.161	42.4805	108.107	42.4805	108.579	42.4805	108.531	42.4805	108.987	42.4805	108.946	42.4805	109.364	42.4805	109.332	42.4805	109.689	42.4805	109.665	42.4805	109.939	42.4805	109.924	42.4805	110.096	42.4805	110.089	42.4805	110.148
43.9453	105.593	43.9453	105.617	43.9453	105.606	43.9453	105.679	43.9453	105.658	43.9453	105.779	43.9453	105.749	43.9453	105.92	43.9453	105.882	43.9453	106.103	43.9453	106.056	43.9453	106.329	43.9453	106.275	43.9453	106.599	43.9453	106.54	43.9453	106.911	43.9453	106.848	43.9453	107.263	43.9453	107.198	43.9453	107.648	43.9453	107.583	43.9453	108.057	43.9453	107.995	43.9453	108.476	43.9453	108.418	43.9453	108.886	43.9453	108.835	43.9453	109.267	43.9453	109.224	43.9453	109.596	43.9453	109.562	43.9453	109.849	43.9453	109.826	43.9453	110.007	43.9453	109.995	43.9453	110.057
45.4102	105.537	45.4102	105.561	45.4102	105.55	45.4102	105.62	45.4102	105.6	45.4102	105.717	45.4102	105.688	45.4102	105.853	45.4102	105.815	45.4102	106.029	45.4102	105.985	45.4102	106.248	45.4102	106.199	45.4102	106.51	45.4102	106.458	45.4102	106.815	45.4102	106.761	45.4102	107.16	45.4102	107.107	45.4102	107.54	45.4102	107.489	45.4102	107.945	45.4102	107.898	45.4102	108.362	45.4102	108.319	45.4102	108.771	45.4102	108.734	45.4102	109.152	45.4102	109.122	45.4102	109.482	45.4102	109.459	45.4102	109.736	45.4102	109.721	45.4102	109.896	45.4102	109.889	45.4102	109.949
46.875	105.441	46.875	105.461	46.875	105.457	46.875	105.516	46.875	105.508	46.875	105.607	46.875	105.597	46.875	105.738	46.875	105.724	46.875	105.909	46.875	105.892	46.875	106.124	46.875	106.103	46.875	106.383	46.875	106.359	46.875	106.687	46.875	106.66	46.875	107.033	46.875	107.003	46.875	107.415	46.875	107.383	46.875	107.823	46.875	107.79	46.875	108.244	46.875	108.211	46.875	108.658	46.875	108.627	46.875	109.043	46.875	109.016	46.875	109.376	46.875	109.354	46.875	109.633	46.875	109.618	46.875	109.795	46.875	109.787	46.875	109.848
48.3398	105.456	48.3398	105.477	48.3398	105.468	48.3398	105.529	48.3398	105.512	48.3398	105.615	48.3398	105.589	48.3398	105.737	48.3398	105.703	48.3398	105.897	48.3398	105.856	48.3398	106.098	48.3398	106.05	48.3398	106.343	48.3398	106.289	48.3398	106.632	48.3398	106.573	48.3398	106.963	48.3398	106.901	48.3398	107.332	48.3398	107.269	48.3398	107.729	48.3398	107.667	48.3398	108.14	48.3398	108.081	48.3398	108.548	48.3398	108.493	48.3398	108.928	48.3398	108.882	48.3398	109.257	48.3398	109.221	48.3398	109.512	48.3398	109.486	48.3398	109.671	48.3398	109.658	48.3398	109.721
51.2695	105.35	51.2695	105.365	51.2695	105.361	51.2695	105.405	51.2695	105.397	51.2695	105.473	51.2695	105.462	51.2695	105.573	51.2695	105.559	51.2695	105.708	51.2695	105.691	51.2695	105.884	51.2695	105.865	51.2695	106.104	51.2695	106.084	51.2695	106.371	51.2695	106.351	51.2695	106.687	51.2695	106.666	51.2695	107.047	51.2695	107.026	51.2695	107.442	51.2695	107.422	51.2695	107.858	51.2695	107.839	51.2695	108.274	51.2695	108.257	51.2695	108.667	51.2695	108.651	51.2695	109.008	51.2695	108.996	51.2695	109.274	51.2695	109.265	51.2695	109.442	51.2695	109.438	51.2695	109.498
52.7344	105.189	52.7344	105.203	52.7344	105.201	52.7344	105.242	52.7344	105.238	52.7344	105.309	52.7344	105.304	52.7344	105.408	52.7344	105.401	52.7344	105.542	52.7344	105.534	52.7344	105.717	52.7344	105.708	52.7344	105.939	52.7344	105.927	52.7344	106.209	52.7344	106.196	52.7344	106.529	52.7344	106.513	52.7344	106.894	52.7344	106.876	52.7344	107.296	52.7344	107.275	52.7344	107.719	52.7344	107.696	52.7344	108.142	52.7344	108.119	52.7344	108.54	52.7344	108.518	52.7344	108.886	52.7344	108.868	52.7344	109.155	52.7344	109.141	52.7344	109.324	52.7344	109.317	52.7344	109.38
54.1992	105.229	54.1992	105.242	54.1992	105.24	54.1992	105.28	54.1992	105.274	54.1992	105.344	54.1992	105.335	54.1992	105.438	54.1992	105.427	54.1992	105.567	54.1992	105.553	54.1992	105.736	54.1992	105.719	54.1992	105.951	54.1992	105.93	54.1992	106.215	54.1992	106.19	54.1992	106.528	54.1992	106.5	54.1992	106.888	54.1992	106.857	54.1992	107.285	54.1992	107.251	54.1992	107.704	54.1992	107.669	54.1992	108.124	54.1992	108.09	54.1992	108.52	54.1992	108.489	54.1992	108.865	54.1992	108.839	54.1992	109.132	54.1992	109.114	54.1992	109.3	54.1992	109.291	54.1992	109.355
55.6641	105.314	55.6641	105.327	55.6641	105.321	55.6641	105.362	55.6641	105.349	55.6641	105.421	55.6641	105.401	55.6641	105.506	55.6641	105.481	55.6641	105.624	55.6641	105.593	55.6641	105.781	55.6641	105.744	55.6641	105.98	55.6641	105.938	55.6641	106.229	55.6641	106.182	55.6641	106.527	55.6641	106.477	55.6641	106.873	55.6641	106.82	55.6641	107.257	55.6641	107.203	55.6641	107.666	55.6641	107.613	55.6641	108.079	55.6641	108.028	55.6641	108.469	55.6641	108.425	55.6641	108.81	55.6641	108.774	55.6641	109.074	55.6641	109.049	55.6641	109.24	55.6641	109.227	55.6641	109.293
58.5938	105.333	58.5938	105.344	58.5938	105.336	58.5938	105.37	58.5938	105.354	58.5938	105.413	58.5938	105.39	58.5938	105.478	58.5938	105.448	58.5938	105.57	58.5938	105.535	58.5938	105.696	58.5938	105.657	58.5938	105.865	58.5938	105.823	58.5938	106.084	58.5938	106.04	58.5938	106.356	58.5938	106.311	58.5938	106.68	58.5938	106.636	58.5938	107.051	58.5938	107.007	58.5938	107.453	58.5938	107.411	58.5938	107.865	58.5938	107.826	58.5938	108.259	58.5938	108.225	58.5938	108.605	58.5938	108.577	58.5938	108.876	58.5938	108.856	58.5938	109.046	58.5938	109.036	58.5938	109.101
60.0586	105.354	60.0586	105.363	60.0586	105.357	60.0586	105.384	60.0586	105.372	60.0586	105.42	60.0586	105.402	60.0586	105.475	60.0586	105.453	60.0586	105.556	60.0586	105.531	60.0586	105.671	60.0586	105.642	60.0586	105.827	60.0586	105.797	60.0586	106.034	60.0586	106.003	60.0586	106.295	60.0586	106.265	60.0586	106.613	60.0586	106.583	60.0586	106.979	60.0586	106.95	60.0586	107.38	60.0586	107.351	60.0586	107.793	60.0586	107.766	60.0586	108.19	60.0586	108.165	60.0586	108.54	60.0586	108.52	60.0586	108.814	60.0586	108.8	60.0586	108.988	60.0586	108.98	60.0586	109.045
62.9883	105.537	62.9883	105.54	62.9883	105.539	62.9883	105.549	62.9883	105.547	62.9883	105.567	62.9883	105.564	62.9883	105.598	62.9883	105.596	62.9883	105.649	62.9883	105.649	62.9883	105.729	62.9883	105.732	62.9883	105.849	62.9883	105.856	62.9883	106.019	62.9883	106.031	62.9883	106.248	62.9883	106.264	62.9883	106.537	62.9883	106.557	62.9883	106.883	62.9883	106.904	62.9883	107.271	62.9883	107.292	62.9883	107.678	62.9883	107.697	62.9883	108.075	62.9883	108.091	62.9883	108.429	62.9883	108.441	62.9883	108.709	62.9883	108.717	62.9883	108.889	62.9883	108.893	62.9883	108.952
64.4531	105.502	64.4531	105.503	64.4531	105.502	64.4531	105.505	64.4531	105.504	64.4531	105.513	64.4531	105.511	64.4531	105.529	64.4531	105.53	64.4531	105.563	64.4531	105.568	64.4531	105.624	64.4531	105.634	64.4531	105.723	64.4531	105.741	64.4531	105.873	64.4531	105.9	64.4531	106.084	64.4531	106.119	64.4531	106.36	64.4531	106.402	64.4531	106.697	64.4531	106.744	64.4531	107.083	64.4531	107.129	64.4531	107.492	64.4531	107.535	64.4531	107.894	64.4531	107.93	64.4531	108.255	64.4531	108.283	64.4531	108.542	64.4531	108.561	64.4531	108.728	64.4531	108.737	64.4531	108.795
67.3828	105.6	67.3828	105.601	67.3828	105.596	67.3828	105.598	67.3828	105.589	67.3828	105.595	67.3828	105.583	67.3828	105.597	67.3828	105.585	67.3828	105.613	67.3828	105.601	67.3828	105.653	67.3828	105.645	67.3828	105.731	67.3828	105.728	67.3828	105.861	67.3828	105.865	67.3828	106.056	67.3828	106.066	67.3828	106.323	67.3828	106.336	67.3828	106.658	67.3828	106.672	67.3828	107.047	67.3828	107.058	67.3828	107.464	67.3828	107.471	67.3828	107.875	67.3828	107.877	67.3828	108.243	67.3828	108.242	67.3828	108.534	67.3828	108.531	67.3828	108.72	67.3828	108.718	67.3828	108.784
68.8477	105.63	68.8477	105.625	68.8477	105.629	68.8477	105.616	68.8477	105.623	68.8477	105.605	68.8477	105.617	68.8477	105.597	68.8477	105.615	68.8477	105.6	68.8477	105.627	68.8477	105.627	68.8477	105.663	68.8477	105.692	68.8477	105.738	68.8477	105.809	68.8477	105.864	68.8477	105.992	68.8477	106.055	68.8477	106.25	68.8477	106.316	68.8477	106.58	68.8477	106.643	68.8477	106.967	68.8477	107.022	68.8477	107.384	68.8477	107.429	68.8477	107.797	68.8477	107.83	68.8477	108.168	68.8477	108.19	68.8477	108.462	68.8477	108.475	68.8477	108.652	68.8477	108.658	68.8477	108.719
71.7773	105.694	71.7773	105.68	71.7773	105.697	71.7773	105.655	71.7773	105.689	71.7773	105.622	71.7773	105.673	71.7773	105.587	71.7773	105.654	71.7773	105.559	71.7773	105.64	71.7773	105.549	71.7773	105.643	71.7773	105.573	71.7773	105.675	71.7773	105.648	71.7773	105.754	71.7773	105.79	71.7773	105.893	71.7773	106.01	71.7773	106.104	71.7773	106.308	71.7773	106.387	71.7773	106.67	71.7773	106.73	71.7773	107.07	71.7773	107.111	71.7773	107.471	71.7773	107.496	71.7773	107.834	71.7773	107.847	71.7773	108.124	71.7773	108.13	71.7773	108.311	71.7773	108.312	71.7773	108.375
74.707	105.84	74.707	105.831	74.707	105.829	74.707	105.803	74.707	105.799	74.707	105.759	74.707	105.754	74.707	105.703	74.707	105.697	74.707	105.644	74.707	105.637	74.707	105.595	74.707	105.587	74.707	105.572	74.707	105.561	74.707	105.593	74.707	105.58	74.707	105.681	74.707	105.664	74.707	105.849	74.707	105.827	74.707	106.103	74.707	106.076	74.707	106.432	74.707	106.4	74.707	106.809	74.707	106.775	74.707	107.196	74.707	107.164	74.707	107.553	74.707	107.525	74.707	107.838	74.707	107.818	74.707	108.021	74.707	108.011	74.707	108.081
77.6367	105.999	77.6367	105.995	77.6367	105.976	77.6367	105.965	77.6367	105.929	77.6367	105.912	77.6367	105.858	77.6367	105.841	77.6367	105.769	77.6367	105.758	77.6367	105.671	77.6367	105.676	77.6367	105.575	77.6367	105.613	77.6367	105.5	77.6367	105.59	77.6367	105.468	77.6367	105.629	77.6367	105.503	77.6367	105.752	77.6367	105.627	77.6367	105.967	77.6367	105.849	77.6367	106.267	77.6367	106.161	77.6367	106.626	77.6367	106.536	77.6367	107.006	77.6367	106.933	77.6367	107.36	77.6367	107.305	77.6367	107.646	77.6367	107.61	77.6367	107.829	77.6367	107.811	77.6367	107.887
79.1016	106.045	79.1016	106.045	79.1016	106.015	79.1016	106.014	79.1016	105.956	79.1016	105.956	79.1016	105.871	79.1016	105.875	79.1016	105.764	79.1016	105.777	79.1016	105.643	79.1016	105.676	79.1016	105.523	79.1016	105.588	79.1016	105.422	79.1016	105.536	79.1016	105.364	79.1016	105.547	79.1016	105.377	79.1016	105.642	79.1016	105.484	79.1016	105.836	79.1016	105.697	79.1016	106.122	79.1016	106.008	79.1016	106.475	79.1016	106.387	79.1016	106.855	79.1016	106.792	79.1016	107.214	79.1016	107.172	79.1016	107.507	79.1016	107.482	79.1016	107.697	79.1016	107.685	79.1016	107.759
82.0313	106.033	82.0313	106.037	82.0313	105.991	82.0313	106.001	82.0313	105.911	82.0313	105.928	82.0313	105.797	82.0313	105.822	82.0313	105.653	82.0313	105.688	82.0313	105.489	82.0313	105.539	82.0313	105.319	82.0313	105.392	82.0313	105.164	82.0313	105.276	82.0313	105.054	82.0313	105.219	82.0313	105.023	82.0313	105.256	82.0313	105.099	82.0313	105.405	82.0313	105.297	82.0313	105.667	82.0313	105.609	82.0313	106.016	82.0313	105.999	82.0313	106.406	82.0313	106.416	82.0313	106.784	82.0313	106.807	82.0313	107.098	82.0313	107.121	82.0313	107.308	82.0313	107.321	82.0313	107.385
84.9609	105.993	84.9609	105.986	84.9609	105.955	84.9609	105.933	84.9609	105.874	84.9609	105.836	84.9609	105.752	84.9609	105.696	84.9609	105.597	84.9609	105.52	84.9609	105.417	84.9609	105.32	84.9609	105.228	84.9609	105.116	84.9609	105.054	84.9609	104.936	84.9609	104.927	84.9609	104.82	84.9609	104.882	84.9609	104.809	84.9609	104.952	84.9609	104.932	84.9609	105.15	84.9609	105.193	84.9609	105.462	84.9609	105.563	84.9609	105.849	84.9609	105.991	84.9609	106.26	84.9609	106.412	84.9609	106.636	84.9609	106.771	84.9609	106.929	84.9609	107.021	84.9609	107.103	84.9609	107.135
87.8906	106.018	87.8906	105.984	87.8906	106.003	87.8906	105.9	87.8906	105.94	87.8906	105.767	87.8906	105.833	87.8906	105.587	87.8906	105.686	87.8906	105.367	87.8906	105.508	87.8906	105.117	87.8906	105.315	87.8906	104.861	87.8906	105.127	87.8906	104.631	87.8906	104.976	87.8906	104.47	87.8906	104.898	87.8906	104.428	87.8906	104.926	87.8906	104.538	87.8906	105.077	87.8906	104.804	87.8906	105.344	87.8906	105.195	87.8906	105.692	87.8906	105.648	87.8906	106.07	87.8906	106.095	87.8906	106.421	87.8906	106.476	87.8906	106.696	87.8906	106.744	87.8906	106.854	87.8906	106.873
90.8203	106.275	90.8203	106.232	90.8203	106.263	90.8203	106.132	90.8203	106.196	90.8203	105.978	90.8203	106.077	90.8203	105.77	90.8203	105.909	90.8203	105.514	90.8203	105.7	90.8203	105.222	90.8203	105.462	90.8203	104.913	90.8203	105.216	90.8203	104.623	90.8203	104.993	90.8203	104.397	90.8203	104.831	90.8203	104.288	90.8203	104.771	90.8203	104.338	90.8203	104.841	90.8203	104.557	90.8203	105.042	90.8203	104.913	90.8203	105.345	90.8203	105.342	90.8203	105.698	90.8203	105.772	90.8203	106.039	90.8203	106.138	90.8203	106.314	90.8203	106.392	90.8203	106.479	90.8203	106.509
95.2148	106.366	95.2148	106.317	95.2148	106.348	95.2148	106.201	95.2148	106.263	95.2148	106.016	95.2148	106.112	95.2148	105.764	95.2148	105.898	95.2148	105.449	95.2148	105.626	95.2148	105.081	95.2148	105.306	95.2148	104.678	95.2148	104.958	95.2148	104.278	95.2148	104.615	95.2148	103.932	95.2148	104.322	95.2148	103.707	95.2148	104.134	95.2148	103.662	95.2148	104.098	95.2148	103.818	95.2148	104.23	95.2148	104.145	95.2148	104.502	95.2148	104.567	95.2148	104.854	95.2148	105	95.2148	105.211	95.2148	105.37	95.2148	105.506	95.2148	105.624	95.2148	105.691	95.2148	105.734
98.1445	106.421	98.1445	106.373	98.1445	106.394	98.1445	106.249	98.1445	106.292	98.1445	106.048	98.1445	106.117	98.1445	105.769	98.1445	105.869	98.1445	105.416	98.1445	105.552	98.1445	104.995	98.1445	105.177	98.1445	104.523	98.1445	104.763	98.1445	104.035	98.1445	104.344	98.1445	103.587	98.1445	103.972	98.1445	103.257	98.1445	103.712	98.1445	103.123	98.1445	103.622	98.1445	103.223	98.1445	103.726	98.1445	103.532	98.1445	103.993	98.1445	103.966	98.1445	104.353	98.1445	104.426	98.1445	104.721	98.1445	104.826	98.1445	105.023	98.1445	105.107	98.1445	105.205	98.1445	105.236
101.074	106.392	101.074	106.323	101.074	106.379	101.074	106.172	101.074	106.285	101.074	105.936	101.074	106.11	101.074	105.616	101.074	105.855	101.074	105.212	101.074	105.522	101.074	104.731	101.074	105.121	101.074	104.189	101.074	104.669	101.074	103.624	101.074	104.2	101.074	103.097	101.074	103.766	101.074	102.701	101.074	103.439	101.074	102.528	101.074	103.287	101.074	102.627	101.074	103.344	101.074	102.964	101.074	103.584	101.074	103.439	101.074	103.933	101.074	103.937	101.074	104.298	101.074	104.366	101.074	104.6	101.074	104.667	101.074	104.781	101.074	104.808
105.469	106.411	105.469	106.35	105.469	106.379	105.469	106.192	105.469	106.252	105.469	105.938	105.469	106.03	105.469	105.586	105.469	105.71	105.469	105.134	105.469	105.295	105.469	104.587	105.469	104.788	105.469	103.96	105.469	104.206	105.469	103.287	105.469	103.581	105.469	102.636	105.469	102.977	105.469	102.112	105.469	102.487	105.469	101.832	105.469	102.215	105.469	101.867	105.469	102.224	105.469	102.183	105.469	102.486	105.469	102.662	105.469	102.9	105.469	103.169	105.469	103.342	105.469	103.602	105.469	103.713	105.469	103.893	105.469	103.948	105.469	104.012
108.398	106.445	108.398	106.383	108.398	106.407	108.398	106.219	108.398	106.268	108.398	105.952	108.398	106.026	108.398	105.577	108.398	105.681	108.398	105.093	108.398	105.232	108.398	104.501	108.398	104.683	108.398	103.813	108.398	104.05	108.398	103.059	108.398	103.365	108.398	102.307	108.398	102.695	108.398	101.672	108.398	102.145	108.398	101.295	108.398	101.831	108.398	101.277	108.398	101.823	108.398	101.592	108.398	102.092	108.398	102.106	108.398	102.519	108.398	102.66	108.398	102.971	108.398	103.136	108.398	103.342	108.398	103.465	108.398	103.567	108.398	103.612
112.793	106.386	112.793	106.302	112.793	106.359	112.793	106.106	112.793	106.223	112.793	105.796	112.793	105.975	112.793	105.367	112.793	105.612	112.793	104.814	112.793	105.131	112.793	104.135	112.793	104.534	112.793	103.339	112.793	103.829	112.793	102.454	112.793	103.046	112.793	101.554	112.793	102.25	112.793	100.775	112.793	101.552	112.793	100.302	112.793	101.101	112.793	100.271	112.793	101.006	112.793	100.641	112.793	101.248	112.793	101.234	112.793	101.693	112.793	101.856	112.793	102.179	112.793	102.378	112.793	102.581	112.793	102.729	112.793	102.827	112.793	102.881
117.188	106.183	117.188	106.103	117.188	106.141	117.188	105.902	117.188	105.978	117.188	105.576	117.188	105.692	117.188	105.118	117.188	105.277	117.188	104.523	117.188	104.729	117.188	103.788	117.188	104.046	117.188	102.918	117.188	103.234	117.188	101.942	117.188	102.323	117.188	100.938	117.188	101.384	117.188	100.064	117.188	100.555	117.188	99.5383	117.188	100.03	117.188	99.5157	117.188	99.9508	117.188	99.9367	117.188	100.281	117.188	100.581	117.188	100.835	117.188	101.235	117.188	101.412	117.188	101.768	117.188	101.88	117.188	102.115	117.188	102.169	117.188	102.251
120.117	106.245	120.117	106.177	120.117	106.191	120.117	105.984	120.117	106.013	120.117	105.665	120.117	105.707	120.117	105.214	120.117	105.27	120.117	104.626	120.117	104.695	120.117	103.897	120.117	103.981	120.117	103.032	120.117	103.135	120.117	102.058	120.117	102.184	120.117	101.046	120.117	101.202	120.117	100.143	120.117	100.332	120.117	99.559	120.117	99.7705	120.117	99.4554	120.117	99.6632	120.117	99.7942	120.117	99.9725	120.117	100.371	120.117	100.508	120.117	100.973	120.117	101.07	120.117	101.467	120.117	101.527	120.117	101.786	120.117	101.815	120.117	101.904
124.512	106.449	124.512	106.376	124.512	106.397	124.512	106.174	124.512	106.217	124.512	105.84	124.512	105.907	124.512	105.369	124.512	105.461	124.512	104.751	124.512	104.873	124.512	103.979	124.512	104.136	124.512	103.049	124.512	103.252	124.512	101.974	124.512	102.238	124.512	100.807	124.512	101.15	124.512	99.679	124.512	100.117	124.512	98.8216	124.512	99.3424	124.512	98.4791	124.512	99.0233	124.512	98.6915	124.512	99.1798	124.512	99.2453	124.512	99.631	124.512	99.8754	124.512	100.151	124.512	100.409	124.512	100.583	124.512	100.764	124.512	100.848	124.512	100.912
128.906	106.559	128.906	106.477	128.906	106.508	128.906	106.261	128.906	106.323	128.906	105.906	128.906	106.001	128.906	105.404	128.906	105.536	128.906	104.746	128.906	104.917	128.906	103.918	128.906	104.135	128.906	102.911	128.906	103.182	128.906	101.726	128.906	102.059	128.906	100.395	128.906	100.802	128.906	99.0319	128.906	99.5198	128.906	97.8874	128.906	98.4364	128.906	97.3002	128.906	97.8449	128.906	97.4098	128.906	97.8712	128.906	97.9835	128.906	98.3279	128.906	98.6759	128.906	98.9114	128.906	99.264	128.906	99.4093	128.906	99.6507	128.906	99.7199	128.906	99.8041
133.301	106.628	133.301	106.547	133.301	106.568	133.301	106.324	133.301	106.368	133.301	105.955	133.301	106.02	133.301	105.428	133.301	105.518	133.301	104.733	133.301	104.849	133.301	103.852	133.301	103.996	133.301	102.767	133.301	102.942	133.301	101.463	133.301	101.674	133.301	99.9507	133.301	100.204	133.301	98.3186	133.301	98.6216	133.301	96.8347	133.301	97.1832	133.301	95.9749	133.301	96.3321	133.301	96.0367	133.301	96.3458	133.301	96.7315	133.301	96.9661	133.301	97.5693	133.301	97.7342	133.301	98.2625	133.301	98.3674	133.301	98.7057	133.301	98.7568	133.301	98.8716
139.16	106.543	139.16	106.471	139.16	106.465	139.16	106.245	139.16	106.234	139.16	105.861	139.16	105.845	139.16	105.306	139.16	105.287	139.16	104.565	139.16	104.546	139.16	103.616	139.16	103.598	139.16	102.43	139.16	102.418	139.16	100.98	139.16	100.975	139.16	99.2514	139.16	99.2619	139.16	97.3103	139.16	97.3519	139.16	95.4672	139.16	95.5703	139.16	94.4237	139.16	94.6096	139.16	94.6596	139.16	94.8873	139.16	95.6632	139.16	95.8737	139.16	96.733	139.16	96.8998	139.16	97.5604	139.16	97.6748	139.16	98.071	139.16	98.1292	139.16	98.2598
143.555	106.67	143.555	106.601	143.555	106.584	143.555	106.375	143.555	106.34	143.555	105.987	143.555	105.931	143.555	105.426	143.555	105.346	143.555	104.677	143.555	104.569	143.555	103.719	143.555	103.576	143.555	102.522	143.555	102.338	143.555	101.057	143.555	100.823	143.555	99.3092	143.555	99.0165	143.555	97.3414	143.555	96.9871	143.555	95.4555	143.555	95.074	143.555	94.3461	143.555	94.0432	143.555	94.5096	143.555	94.3578	143.555	95.4529	143.555	95.4058	143.555	96.4721	143.555	96.4687	143.555	97.2544	143.555	97.263	143.555	97.7264	143.555	97.7333	143.555	97.8851
147.949	106.75	147.949	106.679	147.949	106.665	147.949	106.449	147.949	106.42	147.949	106.056	147.949	106.007	147.949	105.49	147.949	105.416	147.949	104.737	147.949	104.629	147.949	103.774	147.949	103.621	147.949	102.572	147.949	102.361	147.949	101.095	147.949	100.807	147.949	99.3091	147.949	98.927	147.949	97.2185	147.949	96.7381	147.949	94.9978	147.949	94.4821	147.949	93.2635	147.949	92.9229	147.949	92.8777	147.949	92.872	147.949	93.6741	147.949	93.8521	147.949	94.7511	147.949	94.9438	147.949	95.6183	147.949	95.7595	147.949	96.1554	147.949	96.2276	147.949	96.3567
153.809	106.685	153.809	106.614	153.809	106.592	153.809	106.378	153.809	106.332	153.809	105.97	153.809	105.898	153.809	105.38	153.809	105.277	153.809	104.589	153.809	104.449	153.809	103.572	153.809	103.385	153.809	102.292	153.809	102.041	153.809	100.696	153.809	100.359	153.809	98.7203	153.809	98.2592	153.809	96.2997	153.809	95.6686	153.809	93.4938	153.809	92.6914	153.809	90.9787	153.809	90.3186	153.809	90.3821	153.809	90.3656	153.809	91.6497	153.809	91.9807	153.809	93.1623	153.809	93.5035	153.809	94.2818	153.809	94.5287	153.809	94.9506	153.809	95.0772	153.809	95.2095
159.668	106.494	159.668	106.446	159.668	106.377	159.668	106.232	159.668	106.089	159.668	105.847	159.668	105.622	159.668	105.28	159.668	104.962	159.668	104.517	159.668	104.087	159.668	103.532	159.668	102.963	159.668	102.29	159.668	101.545	159.668	100.741	159.668	99.764	159.668	98.8143	159.668	97.5247	159.668	96.4287	159.668	94.7161	159.668	93.5519	159.668	91.3863	159.668	90.5737	159.668	88.7023	159.668	89.146	159.668	89.0467	159.668	90.1761	159.668	91.013	159.668	91.8489	159.668	92.664	159.668	93.1461	159.668	93.7089	159.668	93.9472	159.668	94.228	159.668	94.2989
165.527	106.468	165.527	106.409	165.527	106.356	165.527	106.179	165.527	106.068	165.527	105.773	165.527	105.597	165.527	105.181	165.527	104.928	165.527	104.388	165.527	104.038	165.527	103.366	165.527	102.896	165.527	102.08	165.527	101.452	165.527	100.47	165.527	99.6354	165.527	98.4526	165.527	97.3414	165.527	95.8988	165.527	94.4308	165.527	92.6452	165.527	90.8644	165.527	88.7693	165.527	87.7271	165.527	86.3522	165.527	87.9789	165.527	87.9189	165.527	90.1351	165.527	90.2681	165.527	91.8745	165.527	91.9281	165.527	92.926	165.527	92.9272	165.527	93.4047	165.527	93.3992
171.387	106.637	171.387	106.576	171.387	106.525	171.387	106.342	171.387	106.235	171.387	105.932	171.387	105.757	171.387	105.338	171.387	105.077	171.387	104.548	171.387	104.173	171.387	103.538	171.387	103.014	171.387	102.278	171.387	101.551	171.387	100.718	171.387	99.7167	171.387	98.7839	171.387	97.4089	171.387	96.3594	171.387	94.481	171.387	93.257	171.387	90.8102	171.387	89.227	171.387	87.0569	171.387	84.765	171.387	86.421	171.387	84.4177	171.387	88.5053	171.387	87.3474	171.387	90.3132	171.387	89.5972	171.387	91.3683	171.387	90.9576	171.387	91.7845	171.387	91.649
177.246	106.695	177.246	106.614	177.246	106.596	177.246	106.355	177.246	106.315	177.246	105.913	177.246	105.843	177.246	105.28	177.246	105.166	177.246	104.439	177.246	104.262	177.246	103.369	177.246	103.099	177.246	102.032	177.246	101.631	177.246	100.376	177.246	99.7884	177.246	98.3148	177.246	97.4677	177.246	95.7021	177.246	94.5213	177.246	92.2588	177.246	90.8301	177.246	87.3615	177.246	87.096	177.246	79.967	177.246	86.5296	177.246	80.7379	177.246	88.5821	177.246	85.9701	177.246	90.3151	177.246	88.844	177.246	91.2804	177.246	90.4685	177.246	91.5903	177.246	91.3264
183.105	106.628	183.105	106.533	183.105	106.541	183.105	106.254	183.105	106.269	183.105	105.788	183.105	105.804	183.105	105.125	183.105	105.136	183.105	104.252	183.105	104.246	183.105	103.147	183.105	103.11	183.105	101.78	183.105	101.692	183.105	100.105	183.105	99.9445	183.105	98.0542	183.105	97.7971	183.105	95.5142	183.105	95.1571	183.105	92.2753	183.105	91.9334	183.105	87.8699	183.105	88.2778	183.105	80.9357	183.105	85.6291	183.105	73.2605	183.105	85.9501	183.105	81.3626	183.105	87.4382	183.105	85.4075	183.105	88.4938	183.105	87.5065	183.105	88.8709	183.105	88.5661
188.965	107.007	188.965	106.877	188.965	106.953	188.965	106.56	188.965	106.713	188.965	106.051	188.965	106.281	188.965	105.34	188.965	105.644	188.965	104.411	188.965	104.788	188.965	103.241	188.965	103.686	188.965	101.798	188.965	102.305	188.965	100.036	188.965	100.596	188.965	97.8858	188.965	98.491	188.965	95.2415	188.965	95.8921	188.965	91.911	188.965	92.6589	188.965	87.4737	188.965	88.6352	188.965	80.6092	188.965	84.1406	188.965	57.1102	188.965	82.0808	188.965	77.2313	188.965	83.559	188.965	82.2722	188.965	85.077	188.965	84.5545	188.965	85.7496	188.965	85.5924
196.289	106.825	196.289	106.7	196.289	106.763	196.289	106.383	196.289	106.511	196.289	105.87	196.289	106.065	196.289	105.148	196.289	105.415	196.289	104.203	196.289	104.545	196.289	103.012	196.289	103.436	196.289	101.547	196.289	102.056	196.289	99.7713	196.289	100.361	196.289	97.6411	196.289	98.2853	196.289	95.1007	196.289	95.7287	196.289	92.0778	196.289	92.5181	196.289	88.4642	196.289	88.3195	196.289	84.0838	196.289	82.3831	196.289	78.9518	196.289	74.5518	196.289	76.2838	196.289	77.4252	196.289	78.7843	196.289	81.0373	196.289	81.2001	196.289	82.4258	196.289	82.407
203.613	106.845	203.613	106.707	203.613	106.789	203.613	106.37	203.613	106.54	203.613	105.827	203.613	106.091	203.613	105.062	203.613	105.435	203.613	104.053	203.613	104.558	203.613	102.768	203.613	103.439	203.613	101.163	203.613	102.052	203.613	99.1764	203.613	100.36	203.613	96.7213	203.613	98.3139	203.613	93.6735	203.613	95.8384	203.613	89.862	203.613	92.8104	203.613	85.1443	203.613	88.9878	203.613	80.3045	203.613	83.7674	203.613	78.9728	203.613	74.8561	203.613	80.3323	203.613	67.979	203.613	81.4481	203.613	77.5182	203.613	81.9651	203.613	80.6322	203.613	81.8059
210.938	107.07	210.938	106.973	210.938	106.971	210.938	106.678	210.938	106.674	210.938	106.181	210.938	106.168	210.938	105.468	210.938	105.439	210.938	104.523	210.938	104.466	210.938	103.319	210.938	103.217	210.938	101.82	210.938	101.648	210.938	99.9736	210.938	99.6979	210.938	97.7068	210.938	97.2785	210.938	94.9064	210.938	94.2523	210.938	91.3826	210.938	90.3831	210.938	86.764	210.938	85.205	210.938	80.2523	210.938	78.0492	210.938	74.0058	210.938	75.7804	210.938	78.2966	210.938	79.921	210.938	81.522	210.938	82.2829	210.938	83.0911	210.938	83.3961	210.938	83.6486
218.262	106.81	218.262	106.692	218.262	106.735	218.262	106.378	218.262	106.464	218.262	105.863	218.262	105.991	218.262	105.14	218.262	105.308	218.262	104.197	218.262	104.401	218.262	103.017	218.262	103.252	218.262	101.583	218.262	101.837	218.262	99.8754	218.262	100.128	218.262	97.8774	218.262	98.088	218.262	95.5749	218.262	95.6728	218.262	92.9478	218.262	92.8152	218.262	89.9293	218.262	89.3968	218.262	86.2924	218.262	85.207	218.262	81.3644	218.262	80.1941	218.262	73.1373	218.262	77.2001	218.262	71.7559	218.262	78.9563	218.262	77.9804	218.262	80.4677	218.262	80.3005
225.586	106.575	225.586	106.468	225.586	106.476	225.586	106.155	225.586	106.168	225.586	105.629	225.586	105.643	225.586	104.882	225.586	104.887	225.586	103.9	225.586	103.88	225.586	102.671	225.586	102.594	225.586	101.186	225.586	100.997	225.586	99.4485	225.586	99.0552	225.586	97.4993	225.586	96.7531	225.586	95.4364	225.586	94.1381	225.586	93.4138	225.586	91.4064	225.586	91.5536	225.586	88.9346	225.586	89.8123	225.586	86.9753	225.586	87.9886	225.586	85.2839	225.586	85.8969	225.586	83.4504	225.586	83.5542	225.586	81.4639	225.586	81.3238	225.586	79.9805	225.586	79.907
232.91	106.676	232.91	106.541	232.91	106.611	232.91	106.203	232.91	106.342	232.91	105.651	232.91	105.861	232.91	104.869	232.91	105.154	232.91	103.834	232.91	104.199	232.91	102.512	232.91	102.966	232.91	100.868	232.91	101.417	232.91	98.8619	232.91	99.5011	232.91	96.4815	232.91	97.1606	232.91	93.8093	232.91	94.3376	232.91	91.1717	232.91	91.0226	232.91	89.1537	232.91	87.4096	232.91	87.9711	232.91	84.1891	232.91	87.0933	232.91	82.2168	232.91	85.9768	232.91	81.2826	232.91	84.4776	232.91	80.7832	232.91	82.8047	232.91	80.7351	232.91	81.4168
241.699	106.359	241.699	106.229	241.699	106.283	241.699	105.891	241.699	105.995	241.699	105.341	241.699	105.487	241.699	104.569	241.699	104.742	241.699	103.56	241.699	103.74	241.699	102.294	241.699	102.447	241.699	100.753	241.699	100.82	241.699	98.9235	241.699	98.7893	241.699	96.8135	241.699	96.2539	241.699	94.4814	241.699	93.0488	241.699	92.0596	241.699	88.8833	241.699	89.7232	241.699	83.2319	241.699	87.553	241.699	76.5078	241.699	85.4582	241.699	77.1993	241.699	83.3992	241.699	80.0325	241.699	81.7656	241.699	81.2969	241.699	81.1643	241.699	81.5927	241.699	81.3699
250.488	106.172	250.488	105.974	250.488	106.153	250.488	105.551	250.488	105.917	250.488	104.891	250.488	105.461	250.488	103.973	250.488	104.774	250.488	102.77	250.488	103.842	250.488	101.246	250.488	102.644	250.488	99.3616	250.488	101.159	250.488	97.0974	250.488	99.3678	250.488	94.5238	250.488	97.2697	250.488	91.9667	250.488	94.8994	250.488	90.0627	250.488	92.3444	250.488	89.0559	250.488	89.7166	250.488	88.3009	250.488	87.0439	250.488	87.0807	250.488	84.1739	250.488	85.0076	250.488	80.8742	250.488	81.8901	250.488	77.175	250.488	77.801	250.488	74.0359	250.488	74.0772
259.277	106.598	259.277	106.463	259.277	106.541	259.277	106.132	259.277	106.292	259.277	105.596	259.277	105.843	259.277	104.84	259.277	105.181	259.277	103.842	259.277	104.285	259.277	102.575	259.277	103.127	259.277	101	259.277	101.668	259.277	99.0757	259.277	99.8627	259.277	96.7599	259.277	97.6561	259.277	94.0405	259.277	94.9944	259.277	91.0012	259.277	91.8452	259.277	87.9158	259.277	88.2453	259.277	85.1487	259.277	84.3544	259.277	82.6545	259.277	80.3667	259.277	79.8696	259.277	76.2318	259.277	76.3703	259.277	72.1129	259.277	72.7406	259.277	70.0644	259.277	70.6115
268.066	106.495	268.066	106.369	268.066	106.425	268.066	106.044	268.066	106.159	268.066	105.511	268.066	105.694	268.066	104.764	268.066	105.024	268.066	103.794	268.066	104.137	268.066	102.599	268.066	103.017	268.066	101.19	268.066	101.645	268.066	99.6055	268.066	100.01	268.066	97.9322	268.066	98.124	268.066	96.2952	268.066	96.0522	268.066	94.799	268.066	93.9446	268.066	93.4273	268.066	91.9899	268.066	92.0234	268.066	90.2487	268.066	90.3946	268.066	88.5661	268.066	88.4469	268.066	86.7699	268.066	86.3131	268.066	84.9714	268.066	84.451	268.066	83.683	268.066	83.4651
276.855	106.002	276.855	105.802	276.855	105.986	276.855	105.374	276.855	105.758	276.855	104.698	276.855	105.321	276.855	103.749	276.855	104.667	276.855	102.489	276.855	103.787	276.855	100.879	276.855	102.665	276.855	98.882	276.855	101.281	276.855	96.535	276.855	99.6168	276.855	94.1304	276.855	97.6621	276.855	92.4434	276.855	95.4361	276.855	92.0275	276.855	93.0082	276.855	92.212	276.855	90.5074	276.855	92.1406	276.855	88.0723	276.855	91.4482	276.855	85.7685	276.855	90.0448	276.855	83.6536	276.855	87.9738	276.855	82.064	276.855	85.4562	276.855	81.7284	276.855	83.0609
287.109	106.605	287.109	106.528	287.109	106.46	287.109	106.227	287.109	106.083	287.109	105.694	287.109	105.461	287.109	104.906	287.109	104.576	287.109	103.83	287.109	103.413	287.109	102.424	287.109	101.969	287.109	100.639	287.109	100.275	287.109	98.4466	287.109	98.4343	287.109	95.9039	287.109	96.6535	287.109	93.3212	287.109	95.1801	287.109	91.359	287.109	94.0845	287.109	90.367	287.109	93.1532	287.109	89.7796	287.109	92.0786	287.109	88.9394	287.109	90.6499	287.109	87.6055	287.109	88.8012	287.109	85.8786	287.109	86.6483	287.109	84.2387	287.109	84.6279	287.109	83.6195
297.363	106.534	297.363	106.373	297.363	106.485	297.363	105.996	297.363	106.222	297.363	105.393	297.363	105.739	297.363	104.546	297.363	105.017	297.363	103.426	297.363	104.033	297.363	101.994	297.363	102.752	297.363	100.202	297.363	101.135	297.363	98.0119	297.363	99.1535	297.363	95.4563	297.363	96.8336	297.363	92.8032	297.363	94.3488	297.363	90.6672	297.363	92.0851	297.363	89.3752	297.363	90.3358	297.363	88.2862	297.363	88.7894	297.363	86.5587	297.363	86.7643	297.363	83.6389	297.363	83.6519	297.363	79.0963	297.363	78.9158	297.363	72.8587	297.363	72.3673	297.363	68.2462
307.617	105.952	307.617	105.843	307.617	105.854	307.617	105.523	307.617	105.546	307.617	104.98	307.617	105.02	307.617	104.195	307.617	104.259	307.617	103.142	307.617	103.244	307.617	101.792	307.617	101.959	307.617	100.128	307.617	100.41	307.617	98.1842	307.617	98.6729	307.617	96.132	307.617	96.9578	307.617	94.3871	307.617	95.6051	307.617	93.388	307.617	94.8107	307.617	93.0115	307.617	94.3583	307.617	92.7103	307.617	93.8559	307.617	92.1145	307.617	93.062	307.617	91.1828	307.617	91.9577	307.617	90.1473	307.617	90.7321	307.617	89.3978	307.617	89.7225	307.617	89.2344
319.336	105.201	319.336	105.067	319.336	105.102	319.336	104.696	319.336	104.773	319.336	104.071	319.336	104.205	319.336	103.171	319.336	103.38	319.336	101.968	319.336	102.275	319.336	100.431	319.336	100.857	319.336	98.5449	319.336	99.0978	319.336	96.3749	319.336	97.0031	319.336	94.2309	319.336	94.7139	319.336	92.7858	319.336	92.678	319.336	92.4257	319.336	91.5131	319.336	92.5758	319.336	91.1739	319.336	92.5259	319.336	90.9614	319.336	91.9635	319.336	90.3821	319.336	90.8489	319.336	89.3375	319.336	89.3327	319.336	88.0433	319.336	87.803	319.336	87.0155	319.336	86.8755
329.59	105.475	329.59	105.287	329.59	105.408	329.59	104.832	329.59	105.083	329.59	104.089	329.59	104.485	329.59	103.013	329.59	103.584	329.59	101.539	329.59	102.334	329.59	99.5721	329.59	100.673	329.59	97.0039	329.59	98.5431	329.59	93.8777	329.59	95.9841	329.59	91.1872	329.59	93.4911	329.59	91.0328	329.59	92.2988	329.59	92.4008	329.59	92.643	329.59	93.3831	329.59	93.207	329.59	93.5611	329.59	93.2152	329.59	92.9745	329.59	92.5239	329.59	91.7544	329.59	91.232	329.59	90.141	329.59	89.6265	329.59	88.5991	329.59	88.2561	329.59	87.8183
341.309	105.608	341.309	105.497	341.309	105.506	341.309	105.164	341.309	105.185	341.309	104.585	341.309	104.624	341.309	103.717	341.309	103.788	341.309	102.49	341.309	102.62	341.309	100.793	341.309	101.034	341.309	98.4322	341.309	98.8969	341.309	95.0368	341.309	95.9908	341.309	89.7761	341.309	91.9729	341.309	82.4829	341.309	86.9222	341.309	86.4742	341.309	85.689	341.309	90.5471	341.309	88.522	341.309	92.3047	341.309	90.2943	341.309	92.7165	341.309	90.8316	341.309	92.2448	341.309	90.5453	341.309	91.2345	341.309	89.8654	341.309	90.0991	341.309	89.3037	341.309	89.341
353.027	106.599	353.027	106.501	353.027	106.489	353.027	106.185	353.027	106.167	353.027	105.628	353.027	105.622	353.027	104.789	353.027	104.821	353.027	103.601	353.027	103.714	353.027	101.951	353.027	102.211	353.027	99.649	353.027	100.171	353.027	96.3098	353.027	97.3445	353.027	90.9225	353.027	93.2892	353.027	78.8289	353.027	87.5745	353.027	85.165	353.027	85.7565	353.027	91.0274	353.027	89.5402	353.027	93.4033	353.027	91.7679	353.027	94.2683	353.027	92.589	353.027	94.2406	353.027	92.5754	353.027	93.6778	353.027	92.2222	353.027	92.9033	353.027	92.013	353.027	92.2541
366.211	106.868	366.211	106.919	366.211	106.649	366.211	106.801	366.211	106.25	366.211	106.502	366.211	105.649	366.211	105.992	366.211	104.817	366.211	105.226	366.211	103.715	366.211	104.14	366.211	102.293	366.211	102.644	366.211	100.482	366.211	100.613	366.211	98.1786	366.211	97.8573	366.211	95.2392	366.211	94.0283	366.211	91.5708	366.211	88.279	366.211	87.9609	366.211	76.587	366.211	87.2817	366.211	76.4415	366.211	88.7084	366.211	83.2836	366.211	89.6161	366.211	85.3201	366.211	89.5857	366.211	85.9796	366.211	88.8269	366.211	86.2758	366.211	87.7313	366.211	86.789
379.395	106.76	379.395	106.658	379.395	106.692	379.395	106.39	379.395	106.448	379.395	105.957	379.395	106.014	379.395	105.35	379.395	105.365	379.395	104.552	379.395	104.463	379.395	103.522	379.395	103.24	379.395	102.182	379.395	101.593	379.395	100.407	379.395	99.3463	379.395	97.9961	379.395	96.1809	379.395	94.6002	379.395	91.4029	379.395	89.508	379.395	83.56	379.395	81.7849	379.395	83.9207	379.395	83.0738	379.395	89.0701	379.395	87.4395	379.395	91.3336	379.395	89.477	379.395	92.1337	379.395	90.4311	379.395	92.1543	379.395	90.9563	379.395	91.8139	379.395	91.3825
392.578	107.116	392.578	106.973	392.578	107.085	392.578	106.657	392.578	106.878	392.578	106.165	392.578	106.487	392.578	105.491	392.578	105.893	392.578	104.628	392.578	105.068	392.578	103.563	392.578	103.968	392.578	102.273	392.578	102.53	392.578	100.722	392.578	100.665	392.578	98.8494	392.578	98.2548	392.578	96.5729	392.578	95.1369	392.578	93.7746	392.578	91.0983	392.578	90.308	392.578	86.0325	392.578	86.1301	392.578	81.7244	392.578	82.408	392.578	82.4072	392.578	82.4755	392.578	84.607	392.578	84.595	392.578	86.1771	392.578	86.2302	392.578	86.994	392.578	87.0254
405.762	107.369	405.762	107.243	405.762	107.294	405.762	106.917	405.762	107.016	405.762	106.388	405.762	106.532	405.762	105.642	405.762	105.837	405.762	104.648	405.762	104.924	405.762	103.357	405.762	103.777	405.762	101.699	405.762	102.364	405.762	99.5749	405.762	100.616	405.762	96.8629	405.762	98.4036	405.762	93.4904	405.762	95.5085	405.762	89.9977	405.762	91.6373	405.762	88.6753	405.762	87.2848	405.762	89.8321	405.762	87.018	405.762	91.1203	405.762	89.7648	405.762	91.9272	405.762	91.6801	405.762	92.4199	405.762	92.6517	405.762	92.7676	405.762	93.0072	405.762	92.9925
420.41	106.653	420.41	106.634	420.41	106.495	420.41	106.422	420.41	106.165	420.41	105.996	420.41	105.66	420.41	105.329	420.41	104.959	420.41	104.391	420.41	104.028	420.41	103.142	420.41	102.811	420.41	101.527	420.41	101.237	420.41	99.4672	420.41	99.2335	420.41	96.8724	420.41	96.7821	420.41	93.7157	420.41	94.09	420.41	90.3723	420.41	91.8086	420.41	88.1916	420.41	90.465	420.41	87.9221	420.41	89.4413	420.41	88.2939	420.41	87.9082	420.41	88.5881	420.41	86.0674	420.41	88.7876	420.41	85.6668	420.41	88.7799	420.41	87.0032	420.41	88.2482
435.059	107.471	435.059	107.335	435.059	107.435	435.059	107.026	435.059	107.215	435.059	106.532	435.059	106.785	435.059	105.825	435.059	106.107	435.059	104.865	435.059	105.132	435.059	103.594	435.059	103.804	435.059	101.932	435.059	102.057	435.059	99.765	435.059	99.8242	435.059	96.9215	435.059	97.0341	435.059	93.0877	435.059	93.5914	435.059	87.5377	435.059	89.3243	435.059	79.9673	435.059	84.528	435.059	84.1373	435.059	84.478	435.059	89.0973	435.059	88.5943	435.059	92.0237	435.059	91.7305	435.059	93.8175	435.059	93.7046	435.059	94.8105	435.059	94.7816	435.059	95.1264
451.172	106.382	451.172	106.322	451.172	106.249	451.172	106.076	451.172	105.913	451.172	105.649	451.172	105.366	451.172	105.04	451.172	104.6	451.172	104.235	451.172	103.599	451.172	103.198	451.172	102.327	451.172	101.86	451.172	100.721	451.172	100.096	451.172	98.671	451.172	97.7114	451.172	96.0243	451.172	94.385	451.172	92.6476	451.172	89.5193	451.172	88.8862	451.172	82.1422	451.172	86.7642	451.172	80.2616	451.172	87.1672	451.172	84.7057	451.172	87.913	451.172	87.175	451.172	88.459	451.172	88.7493	451.172	89.1394	451.172	89.7702	451.172	89.8475	451.172	90.1427
465.82	105.36	465.82	105.256	465.82	105.275	465.82	104.963	465.82	105.002	465.82	104.485	465.82	104.541	465.82	103.826	465.82	103.889	465.82	102.982	465.82	103.025	465.82	101.945	465.82	101.914	465.82	100.708	465.82	100.497	465.82	99.2776	465.82	98.7003	465.82	97.6682	465.82	96.486	465.82	95.8704	465.82	94.0053	465.82	93.8179	465.82	91.8783	465.82	91.4057	465.82	90.8107	465.82	88.6288	465.82	90.3409	465.82	85.9626	465.82	89.5038	465.82	84.6191	465.82	87.942	465.82	84.8489	465.82	86.1324	465.82	85.3498	465.82	85.2616	465.82	85.3741
483.398	106.39	483.398	106.26	483.398	106.329	483.398	105.921	483.398	106.072	483.398	105.338	483.398	105.59	483.398	104.465	483.398	104.832	483.398	103.255	483.398	103.73	483.398	101.667	483.398	102.202	483.398	99.6866	483.398	100.171	483.398	97.3645	483.398	97.6227	483.398	94.9097	483.398	94.7836	483.398	92.7245	483.398	92.3583	483.398	91.0588	483.398	90.8898	483.398	89.5942	483.398	89.6754	483.398	88.0449	483.398	87.971	483.398	87.4618	483.398	86.965	483.398	89.1389	483.398	88.827	483.398	91.4471	483.398	91.4138	483.398	93.018	483.398	93.0529	483.398	93.5703
499.512	105.863	499.512	105.787	499.512	105.73	499.512	105.506	499.512	105.384	499.512	105.016	499.512	104.816	499.512	104.305	499.512	104.012	499.512	103.346	499.512	102.943	499.512	102.098	499.512	101.564	499.512	100.495	499.512	99.8115	499.512	98.4472	499.512	97.6225	499.512	95.8391	499.512	95.0271	499.512	92.5782	499.512	92.4572	499.512	88.9264	499.512	90.9999	499.512	86.484	499.512	90.9559	499.512	86.7458	499.512	91.1959	499.512	88.1719	499.512	91.0594	499.512	89.6767	499.512	90.7058	499.512	90.9091	499.512	90.6788	499.512	91.5933	499.512	91.1471	499.512	91.6173
517.09	106.557	517.09	106.378	517.09	106.55	517.09	106.019	517.09	106.34	517.09	105.485	517.09	105.902	517.09	104.768	517.09	105.198	517.09	103.838	517.09	104.175	517.09	102.623	517.09	102.754	517.09	101.001	517.09	100.811	517.09	98.7849	517.09	98.1263	517.09	95.6854	517.09	94.287	517.09	91.1815	517.09	88.4901	517.09	84.2389	517.09	82.9805	517.09	80.6925	517.09	87.0477	517.09	86.2585	517.09	90.1819	517.09	89.8481	517.09	91.9445	517.09	92.3123	517.09	93.2836	517.09	94.0612	517.09	94.4527	517.09	95.1374	517.09	95.272	517.09	95.5332
536.133	105.972	536.133	105.818	536.133	105.946	536.133	105.476	536.133	105.731	536.133	104.934	536.133	105.307	536.133	104.18	536.133	104.639	536.133	103.209	536.133	103.687	536.133	102.015	536.133	102.403	536.133	100.572	536.133	100.726	536.133	98.8273	536.133	98.5655	536.133	96.7103	536.133	95.7723	536.133	94.1313	536.133	92.1003	536.133	90.8954	536.133	87.2392	536.133	86.3322	536.133	82.1801	536.133	77.8441	536.133	82.8774	536.133	79.6247	536.133	86.3475	536.133	86.9754	536.133	89.2265	536.133	90.5311	536.133	91.3165	536.133	92.3187	536.133	92.5634	536.133	92.9242
555.176	104.956	555.176	104.807	555.176	104.895	555.176	104.46	555.176	104.615	555.176	103.92	555.176	104.117	555.176	103.177	555.176	103.418	555.176	102.213	555.176	102.542	555.176	101.005	555.176	101.484	555.176	99.5371	555.176	100.156	555.176	97.7861	555.176	98.3393	555.176	95.6987	555.176	95.6382	555.176	93.2025	555.176	91.3461	555.176	90.3571	555.176	84.474	555.176	87.6207	555.176	83.8954	555.176	85.4891	555.176	87.9755	555.176	83.7932	555.176	89.2855	555.176	83.6009	555.176	88.972	555.176	85.7416	555.176	88.3142	555.176	87.7182	555.176	88.3249	555.176	88.4687
574.219	105.749	574.219	105.601	574.219	105.719	574.219	105.257	574.219	105.516	574.219	104.696	574.219	105.125	574.219	103.887	574.219	104.5	574.219	102.788	574.219	103.562	574.219	101.332	574.219	102.216	574.219	99.4382	574.219	100.375	574.219	97.0551	574.219	98.0141	574.219	94.3108	574.219	95.2799	574.219	91.7561	574.219	92.5075	574.219	90.0136	574.219	89.6903	574.219	88.5961	574.219	85.7998	574.219	86.5805	574.219	82.1797	574.219	85.2789	574.219	87.4176	574.219	88.0751	574.219	91.8594	574.219	91.6177	574.219	94.2528	574.219	93.9622	574.219	95.2466	574.219	95.1328
594.727	105.305	594.727	105.165	594.727	105.261	594.727	104.852	594.727	105.021	594.727	104.367	594.727	104.579	594.727	103.698	594.727	103.937	594.727	102.818	594.727	103.092	594.727	101.686	594.727	102.016	594.727	100.232	594.727	100.627	594.727	98.3235	594.727	98.775	594.727	95.7485	594.727	96.2182	594.727	92.2292	594.727	92.6071	594.727	87.5598	594.727	87.5339	594.727	82.7683	594.727	81.6813	594.727	82.5844	594.727	80.6772	594.727	86.1613	594.727	84.3497	594.727	89.7584	594.727	88.6642	594.727	92.4129	594.727	91.9258	594.727	93.9807	594.727	93.8208	594.727	94.465
615.234	105.479	615.234	105.365	615.234	105.404	615.234	105.039	615.234	105.148	615.234	104.484	615.234	104.691	615.234	103.679	615.234	103.989	615.234	102.592	615.234	102.997	615.234	101.19	615.234	101.699	615.234	99.517	615.234	100.117	615.234	97.7495	615.234	98.301	615.234	96.0729	615.234	96.2589	615.234	94.3818	615.234	93.8712	615.234	92.2595	615.234	90.9137	615.234	89.1741	615.234	87.3371	615.234	84.3192	615.234	84.1548	615.234	78.8055	615.234	83.8923	615.234	83.93	615.234	86.3422	615.234	88.349	615.234	89.0376	615.234	90.5897	615.234	90.7895	615.234	91.3284
637.207	105.696	637.207	105.563	637.207	105.677	637.207	105.292	637.207	105.478	637.207	104.861	637.207	105.079	637.207	104.223	637.207	104.469	637.207	103.316	637.207	103.622	637.207	102.056	637.207	102.454	637.207	100.308	637.207	100.798	637.207	97.8763	637.207	98.4202	637.207	94.6635	637.207	95.1053	637.207	91.4983	637.207	91.2955	637.207	90.4491	637.207	89.5097	637.207	90.2554	637.207	89.6391	637.207	88.3175	637.207	88.521	637.207	82.6371	637.207	85.1048	637.207	82.5037	637.207	85.025	637.207	89.5954	637.207	90.0385	637.207	92.8718	637.207	92.9917	637.207	93.8732
659.18	106.395	659.18	106.374	659.18	106.211	659.18	106.121	659.18	105.854	659.18	105.617	659.18	105.334	659.18	104.842	659.18	104.622	659.18	103.76	659.18	103.655	659.18	102.312	659.18	102.348	659.18	100.418	659.18	100.592	659.18	97.9806	659.18	98.2572	659.18	94.9345	659.18	95.3114	659.18	91.6804	659.18	92.4029	659.18	89.8868	659.18	91.059	659.18	89.6377	659.18	90.6225	659.18	88.2965	659.18	89.1912	659.18	84.4025	659.18	87.0826	659.18	85.7422	659.18	88.5567	659.18	91.1684	659.18	91.9299	659.18	93.9537	659.18	94.0782	659.18	94.7776
682.617	105.722	682.617	105.61	682.617	105.623	682.617	105.295	682.617	105.301	682.617	104.779	682.617	104.75	682.617	104.078	682.617	103.991	682.617	103.22	682.617	103.068	682.617	102.213	682.617	102.006	682.617	100.977	682.617	100.742	682.617	99.3182	682.617	99.0883	682.617	96.9906	682.617	96.734	682.617	93.8737	682.617	93.3792	682.617	90.5979	682.617	89.6534	682.617	88.9023	682.617	88.5257	682.617	88.0887	682.617	88.513	682.617	86.0182	682.617	86.3463	682.617	85.1696	682.617	84.5138	682.617	89.2283	682.617	88.9838	682.617	92.3036	682.617	92.2678	682.617	93.2898
707.52	106.126	707.52	106.057	707.52	105.981	707.52	105.772	707.52	105.62	707.52	105.264	707.52	105.052	707.52	104.52	707.52	104.299	707.52	103.522	707.52	103.364	707.52	102.231	707.52	102.179	707.52	100.55	707.52	100.565	707.52	98.3074	707.52	98.1926	707.52	95.3532	707.52	94.6456	707.52	92.2297	707.52	90.5276	707.52	91.2342	707.52	90.3029	707.52	91.9642	707.52	91.6656	707.52	91.679	707.52	90.7977	707.52	89.3887	707.52	87.0526	707.52	86.7992	707.52	86.5641	707.52	89.96	707.52	91.6328	707.52	93.385	707.52	94.3076	707.52	94.8058
732.422	106.172	732.422	106.086	732.422	106.009	732.422	105.734	732.422	105.615	732.422	105.121	732.422	105	732.422	104.28	732.422	104.182	732.422	103.259	732.422	103.191	732.422	102.077	732.422	102.016	732.422	100.638	732.422	100.54	732.422	98.6708	732.422	98.5331	732.422	95.7052	732.422	95.6972	732.422	91.4595	732.422	91.8796	732.422	89.4165	732.422	89.2204	732.422	91.5354	732.422	90.8582	732.422	91.9611	732.422	92.1077	732.422	88.9324	732.422	90.7424	732.422	79.9532	732.422	86.0567	732.422	87.6387	732.422	86.9683	732.422	92.4862	732.422	91.9051	732.422	93.5967
757.324	106.073	757.324	105.958	757.324	105.925	757.324	105.594	757.324	105.507	757.324	104.989	757.324	104.836	757.324	104.141	757.324	103.93	757.324	103.05	757.324	102.779	757.324	101.721	757.324	101.358	757.324	100.155	757.324	99.6568	757.324	98.3579	757.324	97.6336	757.324	96.2963	757.324	95.0695	757.324	93.8125	757.324	91.8519	757.324	91.0674	757.324	89.737	757.324	89.6491	757.324	90.2608	757.324	89.5814	757.324	89.9823	757.324	88.3919	757.324	86.8112	757.324	87.4908	757.324	85.6517	757.324	91.0462	757.324	91.4402	757.324	94.2369	757.324	94.6254	757.324	95.4295
785.156	106.136	785.156	106.007	785.156	106.071	785.156	105.68	785.156	105.789	785.156	105.131	785.156	105.245	785.156	104.323	785.156	104.405	785.156	103.219	785.156	103.291	785.156	101.796	785.156	101.983	785.156	100.045	785.156	100.477	785.156	97.8633	785.156	98.4534	785.156	94.966	785.156	95.1704	785.156	91.5062	785.156	89.2067	785.156	90.5909	785.156	85.0038	785.156	92.2817	785.156	90.5474	785.156	92.6233	785.156	92.3337	785.156	90.4253	785.156	90.899	785.156	85.6237	785.156	87.9102	785.156	88.6261	785.156	90.602	785.156	93.1855	785.156	93.9327	785.156	94.791
811.523	105.969	811.523	105.866	811.523	105.838	811.523	105.497	811.523	105.486	811.523	104.822	811.523	104.885	811.523	103.826	811.523	103.971	811.523	102.533	811.523	102.69	811.523	101.023	811.523	101.076	811.523	99.3771	811.523	99.2761	811.523	97.4022	811.523	97.3886	811.523	94.3315	811.523	95.2427	811.523	89.1839	811.523	92.6067	811.523	88.4169	811.523	90.5735	811.523	92.4745	811.523	91.3659	811.523	93.6136	811.523	92.4867	811.523	91.6835	811.523	91.457	811.523	85.5943	811.523	87.0527	811.523	85.9301	811.523	85.7886	811.523	91.6935	811.523	91.2921	811.523	93.1765
840.82	105.527	840.82	105.437	840.82	105.458	840.82	105.171	840.82	105.192	840.82	104.665	840.82	104.67	840.82	103.843	840.82	103.853	840.82	102.655	840.82	102.717	840.82	101.107	840.82	101.218	840.82	99.2785	840.82	99.339	840.82	97.3195	840.82	97.113	840.82	95.3551	840.82	94.2927	840.82	93.2063	840.82	89.9935	840.82	90.6466	840.82	86.6489	840.82	89.1556	840.82	90.2942	840.82	89.7471	840.82	92.1921	840.82	89.1591	840.82	91.1386	840.82	85.8049	840.82	87.6385	840.82	86.7198	840.82	87.6322	840.82	91.0129	840.82	91.1677	840.82	92.4353
870.117	106.285	870.117	106.175	870.117	106.169	870.117	105.838	870.117	105.817	870.117	105.246	870.117	105.188	870.117	104.317	870.117	104.209	870.117	102.932	870.117	102.845	870.117	101.023	870.117	101.221	870.117	98.6545	870.117	99.597	870.117	95.8639	870.117	97.9536	870.117	92.2431	870.117	95.606	870.117	87.8532	870.117	91.0697	870.117	89.0729	870.117	83.7843	870.117	92.6244	870.117	90.1878	870.117	93.7433	870.117	93.4958	870.117	91.7727	870.117	92.8549	870.117	84.3635	870.117	88.5208	870.117	87.3057	870.117	88.7166	870.117	93.3441	870.117	93.4526	870.117	94.9149
900.879	105.58	900.879	105.526	900.879	105.455	900.879	105.249	900.879	105.177	900.879	104.704	900.879	104.735	900.879	103.895	900.879	104.05	900.879	102.854	900.879	102.978	900.879	101.529	900.879	101.334	900.879	99.7495	900.879	98.968	900.879	97.3773	900.879	95.9494	900.879	94.1926	900.879	92.6933	900.879	88.8749	900.879	89.7582	900.879	83.844	900.879	89.7276	900.879	91.2754	900.879	92.7398	900.879	94.2426	900.879	94.6261	900.879	93.7924	900.879	94.2361	900.879	90.0433	900.879	90.6978	900.879	84.4195	900.879	83.4604	900.879	88.7531	900.879	88.4634	900.879	90.9139
933.105	106.03	933.105	105.93	933.105	105.945	933.105	105.624	933.105	105.674	933.105	105.093	933.105	105.157	933.105	104.274	933.105	104.291	933.105	103.052	933.105	103.013	933.105	101.364	933.105	101.409	933.105	99.3333	933.105	99.663	933.105	97.2153	933.105	97.6846	933.105	94.9333	933.105	94.6339	933.105	91.6142	933.105	88.036	933.105	87.3529	933.105	81.1941	933.105	90.1434	933.105	91.8932	933.105	93.4073	933.105	94.8841	933.105	93.406	933.105	94.3839	933.105	89.4383	933.105	90.8621	933.105	84.2527	933.105	89.5947	933.105	91.3398	933.105	93.1477	933.105	94.0301
965.332	105.754	965.332	105.718	965.332	105.686	965.332	105.528	965.332	105.487	965.332	105.069	965.332	105.077	965.332	104.25	965.332	104.316	965.332	103.07	965.332	103.037	965.332	101.57	965.332	101.144	965.332	99.7283	965.332	98.7898	965.332	97.3961	965.332	96.6602	965.332	94.2213	965.332	95.4257	965.332	89.4867	965.332	94.0376	965.332	85.3923	965.332	90.4992	965.332	90.0574	965.332	87.62	965.332	93.3334	965.332	92.1137	965.332	93.5167	965.332	93.2197	965.332	89.7076	965.332	89.7462	965.332	85.6275	965.332	87.5359	965.332	92.4893	965.332	92.9541	965.332	94.6393
1000.49	106.084	1000.49	105.942	1000.49	106.059	1000.49	105.626	1000.49	105.855	1000.49	105.113	1000.49	105.427	1000.49	104.329	1000.49	104.693	1000.49	103.128	1000.49	103.546	1000.49	101.362	1000.49	101.9	1000.49	99.0817	1000.49	99.7383	1000.49	96.8439	1000.49	96.9496	1000.49	95.2872	1000.49	93.0083	1000.49	93.4989	1000.49	87.191	1000.49	89.6195	1000.49	86.5852	1000.49	88.5434	1000.49	91.8001	1000.49	93.3108	1000.49	94.4134	1000.49	94.4092	1000.49	94.1738	1000.49	91.0953	1000.49	90.7977	1000.49	85.3115	1000.49	88.0115	1000.49	91.1506	1000.49	91.847	1000.49	93.3567
1035.64	105.442	1035.64	105.49	1035.64	105.318	1035.64	105.372	1035.64	105.136	1035.64	105.018	1035.64	104.766	1035.64	104.355	1035.64	104.019	1035.64	103.243	1035.64	102.792	1035.64	101.577	1035.64	101.116	1035.64	99.3424	1035.64	99.089	1035.64	96.3682	1035.64	96.9461	1035.64	92.1368	1035.64	95.1962	1035.64	87.529	1035.64	93.2129	1035.64	89.3204	1035.64	87.6922	1035.64	93.1258	1035.64	84.5339	1035.64	95.2623	1035.64	93.3339	1035.64	95.134	1035.64	95.4456	1035.64	91.7593	1035.64	92.8454	1035.64	83.4708	1035.64	81.4487	1035.64	89.9345	1035.64	89.9836	1035.64	92.9762
1072.27	105.952	1072.27	105.764	1072.27	105.914	1072.27	105.447	1072.27	105.569	1072.27	104.962	1072.27	104.931	1072.27	104.124	1072.27	104.092	1072.27	102.809	1072.27	103.066	1072.27	101.06	1072.27	101.618	1072.27	99.0161	1072.27	99.385	1072.27	96.9684	1072.27	96.1009	1072.27	95.3732	1072.27	91.6667	1072.27	93.6043	1072.27	86.9946	1072.27	89.0847	1072.27	87.0773	1072.27	83.1209	1072.27	90.7602	1072.27	91.9146	1072.27	93.9188	1072.27	94.6684	1072.27	95.1571	1072.27	93.1894	1072.27	93.4696	1072.27	87.5354	1072.27	88.3181	1072.27	88.654	1072.27	88.8845	1072.27	91.1936
1108.89	105.579	1108.89	105.545	1108.89	105.605	1108.89	105.369	1108.89	105.578	1108.89	104.864	1108.89	105.402	1108.89	104.016	1108.89	104.92	1108.89	102.9	1108.89	103.864	1108.89	101.397	1108.89	102.048	1108.89	99.146	1108.89	99.6784	1108.89	95.7535	1108.89	97.365	1108.89	91.355	1108.89	95.245	1108.89	88.5799	1108.89	92.5892	1108.89	88.7496	1108.89	88.0061	1108.89	90.8714	1108.89	85.5948	1108.89	94.1845	1108.89	92.2176	1108.89	95.3355	1108.89	94.3158	1108.89	92.6247	1108.89	91.8869	1108.89	85.2808	1108.89	85.7219	1108.89	91.335	1108.89	91.1584	1108.89	93.7679
1148.44	106.16	1148.44	105.97	1148.44	106.087	1148.44	105.57	1148.44	105.78	1148.44	105.085	1148.44	105.28	1148.44	104.491	1148.44	104.566	1148.44	103.489	1148.44	103.517	1148.44	101.844	1148.44	101.98	1148.44	99.6916	1148.44	99.7639	1148.44	97.3813	1148.44	96.3928	1148.44	94.8917	1148.44	91.3425	1148.44	91.9944	1148.44	88.9542	1148.44	88.0681	1148.44	90.3459	1148.44	84.9737	1148.44	91.0161	1148.44	90.9619	1148.44	93.785	1148.44	94.1034	1148.44	95.3882	1148.44	93.2559	1148.44	93.7304	1148.44	87.8404	1148.44	88.2289	1148.44	88.5233	1148.44	89.0597	1148.44	91.5789
1189.45	105.962	1189.45	105.901	1189.45	105.798	1189.45	105.661	1189.45	105.425	1189.45	105.224	1189.45	104.837	1189.45	104.481	1189.45	103.959	1189.45	103.327	1189.45	102.794	1189.45	101.682	1189.45	101.345	1189.45	99.391	1189.45	99.4728	1189.45	96.0411	1189.45	97.2506	1189.45	90.9948	1189.45	94.8484	1189.45	87.8305	1189.45	91.516	1189.45	89.424	1189.45	86.5848	1189.45	88.859	1189.45	84.7266	1189.45	91.5897	1189.45	90.524	1189.45	94.8278	1189.45	94.112	1189.45	94.0698	1189.45	93.6161	1189.45	88.9555	1189.45	88.8516	1189.45	90.5341	1189.45	90.8962	1189.45	93.2872
1230.47	106.145	1230.47	105.995	1230.47	106.074	1230.47	105.638	1230.47	105.685	1230.47	105.045	1230.47	104.912	1230.47	104.185	1230.47	103.937	1230.47	103	1230.47	102.931	1230.47	101.317	1230.47	101.573	1230.47	99.1176	1230.47	99.3936	1230.47	96.9233	1230.47	96.1188	1230.47	94.8054	1230.47	91.3859	1230.47	91.6273	1230.47	87.7329	1230.47	87.0261	1230.47	89.2496	1230.47	86.5542	1230.47	89.3611	1230.47	91.8016	1230.47	91.6177	1230.47	94.6213	1230.47	94.6679	1230.47	93.6557	1230.47	94.086	1230.47	87.9628	1230.47	89.4087	1230.47	88.3771	1230.47	89.5842	1230.47	91.4678
1274.41	106.109	1274.41	105.962	1274.41	105.845	1274.41	105.494	1274.41	105.254	1274.41	104.811	1274.41	104.536	1274.41	103.848	1274.41	103.814	1274.41	102.564	1274.41	102.801	1274.41	101.03	1274.41	100.963	1274.41	99.0295	1274.41	98.1891	1274.41	96.0365	1274.41	95.4788	1274.41	91.2413	1274.41	93.6119	1274.41	85.264	1274.41	90.7899	1274.41	88.406	1274.41	86.0695	1274.41	89.8075	1274.41	86.0439	1274.41	89.4699	1274.41	89.2879	1274.41	91.8628	1274.41	92.2778	1274.41	92.2504	1274.41	92.311	1274.41	88.9644	1274.41	87.9887	1274.41	89.8828	1274.41	89.5426	1274.41	92.342
1319.82	105.552	1319.82	105.544	1319.82	105.319	1319.82	105.144	1319.82	104.902	1319.82	104.298	1319.82	104.254	1319.82	103.267	1319.82	103.345	1319.82	102.33	1319.82	102.109	1319.82	101.018	1319.82	100.385	1319.82	98.7031	1319.82	98.0128	1319.82	95.9202	1319.82	94.9337	1319.82	93.8046	1319.82	90.6298	1319.82	90.7666	1319.82	83.6748	1319.82	85.4406	1319.82	85.9404	1319.82	84.195	1319.82	87.4491	1319.82	86.7104	1319.82	87.1887	1319.82	91.5172	1319.82	91.6675	1319.82	92.9778	1319.82	92.2761	1319.82	89.334	1319.82	87.7298	1319.82	88.5536	1319.82	88.5281	1319.82	91.327
1366.7	105.939	1366.7	105.765	1366.7	105.683	1366.7	105.183	1366.7	104.986	1366.7	104.264	1366.7	103.936	1366.7	103.105	1366.7	102.642	1366.7	101.807	1366.7	101.129	1366.7	100.411	1366.7	99.4612	1366.7	98.5997	1366.7	97.4167	1366.7	96.1959	1366.7	94.688	1366.7	93.357	1366.7	92.7438	1366.7	88.2851	1366.7	91.0078	1366.7	81.6255	1366.7	85.1205	1366.7	86.409	1366.7	80.6305	1366.7	88.0311	1366.7	87.2519	1366.7	90.9899	1366.7	91.0004	1366.7	90.814	1366.7	91.2497	1366.7	86.6351	1366.7	86.1606	1366.7	89.3329	1366.7	88.4317	1366.7	91.4232
1413.57	106.114	1413.57	105.744	1413.57	105.727	1413.57	104.945	1413.57	104.672	1413.57	103.999	1413.57	103.439	1413.57	102.839	1413.57	102.192	1413.57	101.422	1413.57	100.675	1413.57	99.927	1413.57	98.9044	1413.57	97.9533	1413.57	96.824	1413.57	94.8455	1413.57	94.1958	1413.57	91.9008	1413.57	91.1373	1413.57	90.4453	1413.57	86.2915	1413.57	87.6028	1413.57	81.491	1413.57	85.611	1413.57	86.5203	1413.57	87.2144	1413.57	86.706	1413.57	89.0839	1413.57	87.5093	1413.57	89.9995	1413.57	88.49	1413.57	87.3048	1413.57	85.8021	1413.57	87.75	1413.57	86.3188	1413.57	89.8238
1463.38	105.872	1463.38	105.792	1463.38	105.45	1463.38	105.206	1463.38	104.559	1463.38	104.112	1463.38	103.287	1463.38	102.672	1463.38	101.605	1463.38	101.209	1463.38	99.7853	1463.38	99.8172	1463.38	98.5879	1463.38	98.0685	1463.38	97.3179	1463.38	95.8225	1463.38	94.2905	1463.38	93.9763	1463.38	90.4616	1463.38	91.5857	1463.38	89.5648	1463.38	86.3238	1463.38	87.462	1463.38	85.6344	1463.38	85.999	1463.38	86.2982	1463.38	85.806	1463.38	88.5477	1463.38	87.4947	1463.38	89.3977	1463.38	90.7312	1463.38	85.0324	1463.38	88.0247	1463.38	87.6511	1463.38	87.3656	1463.38	90.4398
1516.11	105.987	1516.11	105.91	1516.11	105.606	1516.11	105.285	1516.11	104.847	1516.11	104.131	1516.11	103.624	1516.11	102.526	1516.11	101.876	1516.11	100.586	1516.11	100.097	1516.11	98.8941	1516.11	99.0702	1516.11	97.7443	1516.11	98.357	1516.11	96.151	1516.11	96.7197	1516.11	93.6217	1516.11	94.4847	1516.11	90.5207	1516.11	92.4763	1516.11	86.5809	1516.11	86.6054	1516.11	85.9589	1516.11	83.1525	1516.11	85.3663	1516.11	87.7735	1516.11	86.6301	1516.11	88.6323	1516.11	88.3614	1516.11	90.1674	1516.11	84.1264	1516.11	87.1529	1516.11	88.6175	1516.11	88.684	1516.11	91.3212
1568.85	106.042	1568.85	105.817	1568.85	105.803	1568.85	105.152	1568.85	104.943	1568.85	103.891	1568.85	103.692	1568.85	102.289	1568.85	102.372	1568.85	100.526	1568.85	100.956	1568.85	98.5886	1568.85	99.504	1568.85	97.1967	1568.85	98.3457	1568.85	95.275	1568.85	96.6847	1568.85	91.7971	1568.85	93.3743	1568.85	91.7979	1568.85	90.7742	1568.85	90.4837	1568.85	89.5609	1568.85	86.7488	1568.85	85.9107	1568.85	87.4984	1568.85	85.9355	1568.85	86.0579	1568.85	87.7671	1568.85	89.8495	1568.85	90.2606	1568.85	84.9712	1568.85	85.8502	1568.85	84.8759	1568.85	86.5284	1568.85	90.3288
1624.51	105.873	1624.51	105.146	1624.51	105.662	1624.51	104.111	1624.51	104.689	1624.51	103.176	1624.51	103.482	1624.51	101.981	1624.51	102.329	1624.51	100.429	1624.51	101.058	1624.51	99.0549	1624.51	99.2802	1624.51	97.871	1624.51	97.7039	1624.51	95.6403	1624.51	96.1125	1624.51	93.4367	1624.51	93.6445	1624.51	93.8459	1624.51	93.8043	1624.51	92.2808	1624.51	92.5662	1624.51	88.9136	1624.51	87.4481	1624.51	87.6607	1624.51	86.6417	1624.51	87.0382	1624.51	88.3781	1624.51	90.1989	1624.51	90.6452	1624.51	87.6809	1624.51	86.6243	1624.51	85.4126	1624.51	87.6586	1624.51	90.2587
1681.64	105.387	1681.64	105.082	1681.64	105.159	1681.64	104.258	1681.64	104.518	1681.64	103.084	1681.64	103.633	1681.64	101.932	1681.64	102.548	1681.64	100.929	1681.64	101.352	1681.64	99.3293	1681.64	99.9482	1681.64	97.2117	1681.64	98.4118	1681.64	96.3678	1681.64	97.4031	1681.64	95.3325	1681.64	95.8951	1681.64	92.4749	1681.64	93.1996	1681.64	89.6176	1681.64	89.8653	1681.64	88.1332	1681.64	87.6631	1681.64	89.3479	1681.64	90.0283	1681.64	88.9457	1681.64	88.3002	1681.64	89.4184	1681.64	88.8397	1681.64	84.9042	1681.64	86.2433	1681.64	86.9577	1681.64	86.5589	1681.64	90.3748
1741.7	105.9	1741.7	105.564	1741.7	105.793	1741.7	104.788	1741.7	105.209	1741.7	103.69	1741.7	104.19	1741.7	102.552	1741.7	103.2	1741.7	101.665	1741.7	102.263	1741.7	100.233	1741.7	100.797	1741.7	98.3781	1741.7	99.1128	1741.7	96.7793	1741.7	97.597	1741.7	92.5227	1741.7	94.2767	1741.7	88.9481	1741.7	91.6067	1741.7	90.7822	1741.7	92.9381	1741.7	88.0566	1741.7	90.6175	1741.7	87.5833	1741.7	90.4624	1741.7	87.8719	1741.7	88.702	1741.7	90.5004	1741.7	90.3047	1741.7	86.9946	1741.7	88.1796	1741.7	82.3223	1741.7	85.9269	1741.7	90.0495
1803.22	105.804	1803.22	105.825	1803.22	105.664	1803.22	105.455	1803.22	105.299	1803.22	104.462	1803.22	104.409	1803.22	103.128	1803.22	103.031	1803.22	102.015	1803.22	101.805	1803.22	100.586	1803.22	100.787	1803.22	98.4001	1803.22	99.2803	1803.22	96.5359	1803.22	97.1605	1803.22	92.9883	1803.22	93.4556	1803.22	91.4998	1803.22	92.4911	1803.22	93.0879	1803.22	93.4792	1803.22	89.5221	1803.22	90.6719	1803.22	90.7284	1803.22	90.833	1803.22	88.7791	1803.22	89.0828	1803.22	90.1358	1803.22	90.7666	1803.22	89.207	1803.22	88.0377	1803.22	87.2952	1803.22	86.3353	1803.22	91.4928
1866.21	105.093	1866.21	105.168	1866.21	104.845	1866.21	104.774	1866.21	104.535	1866.21	104.122	1866.21	103.905	1866.21	103.203	1866.21	102.641	1866.21	101.936	1866.21	100.919	1866.21	100.762	1866.21	99.6219	1866.21	99.0311	1866.21	97.7672	1866.21	97.1106	1866.21	95.4255	1866.21	96.032	1866.21	95.2116	1866.21	93.4717	1866.21	92.9537	1866.21	91.5963	1866.21	90.5475	1866.21	88.507	1866.21	88.0638	1866.21	88.0651	1866.21	87.7389	1866.21	89.0759	1866.21	87.7594	1866.21	87.284	1866.21	87.6449	1866.21	85.1396	1866.21	86.914	1866.21	84.0289	1866.21	83.1217	1866.21	90.075
1932.13	104.5	1932.13	104.401	1932.13	104.429	1932.13	104.161	1932.13	103.931	1932.13	103.566	1932.13	103.481	1932.13	102.655	1932.13	102.798	1932.13	101.252	1932.13	101.203	1932.13	99.7228	1932.13	99.5629	1932.13	97.9059	1932.13	97.6897	1932.13	96.1269	1932.13	95.8476	1932.13	95.7559	1932.13	95.0756	1932.13	93.4592	1932.13	91.362	1932.13	90.8791	1932.13	89.6529	1932.13	89.0669	1932.13	88.9273	1932.13	88.856	1932.13	87.3559	1932.13	89.0833	1932.13	87.8309	1932.13	88.4237	1932.13	87.7734	1932.13	86.2459	1932.13	85.795	1932.13	82.9645	1932.13	84.2998	1932.13	89.8178
1999.51	104.85	1999.51	104.781	1999.51	104.823	1999.51	104.201	1999.51	104.657	1999.51	103.421	1999.51	103.805	1999.51	102.327	1999.51	102.834	1999.51	100.556	1999.51	101.636	1999.51	98.7892	1999.51	99.9875	1999.51	97.0819	1999.51	98.1449	1999.51	95.4636	1999.51	96.028	1999.51	94.7078	1999.51	93.945	1999.51	90.1035	1999.51	89.9122	1999.51	89.2805	1999.51	90.4046	1999.51	88.3193	1999.51	88.6792	1999.51	87.1429	1999.51	86.4528	1999.51	89.4433	1999.51	88.0771	1999.51	87.4909	1999.51	86.5264	1999.51	86.1587	1999.51	86.4244	1999.51	81.7957	1999.51	82.6973	1999.51	88.735
2069.82	105.319	2069.82	105.255	2069.82	105.357	2069.82	105.078	2069.82	104.858	2069.82	104.121	2069.82	104.035	2069.82	102.937	2069.82	103.092	2069.82	101.619	2069.82	101.556	2069.82	99.6248	2069.82	99.7509	2069.82	97.799	2069.82	98.1209	2069.82	95.0948	2069.82	95.5023	2069.82	93.3222	2069.82	93.0109	2069.82	90.2971	2069.82	91.137	2069.82	88.4365	2069.82	90.4664	2069.82	87.9909	2069.82	90.6205	2069.82	83.4725	2069.82	86.7138	2069.82	87.7391	2069.82	89.2529	2069.82	86.9431	2069.82	87.3141	2069.82	86.6744	2069.82	89.2437	2069.82	75.7275	2069.82	79.8203	2069.82	86.0388
2143.07	104.644	2143.07	104.738	2143.07	104.333	2143.07	104.345	2143.07	104.14	2143.07	103.51	2143.07	103.55	2143.07	102.776	2143.07	102.128	2143.07	101.309	2143.07	100.716	2143.07	99.0788	2143.07	98.9849	2143.07	97.5999	2143.07	97.4032	2143.07	95.413	2143.07	95.231	2143.07	93.4785	2143.07	90.8874	2143.07	91.1982	2143.07	90.0873	2143.07	86.1454	2143.07	88.4378	2143.07	89.5759	2143.07	87.4631	2143.07	86.765	2143.07	84.2252	2143.07	86.7505	2143.07	86.1791	2143.07	85.0531	2143.07	84.4673	2143.07	84.9415	2143.07	83.8558	2143.07	77.3439	2143.07	81.6028	2143.07	88.3665
2219.24	104.458	2219.24	104.214	2219.24	104.314	2219.24	103.758	2219.24	103.955	2219.24	103.053	2219.24	103.272	2219.24	101.57	2219.24	102.199	2219.24	100.536	2219.24	100.945	2219.24	98.5997	2219.24	98.9979	2219.24	95.8917	2219.24	96.8409	2219.24	95.1565	2219.24	94.4948	2219.24	93.5222	2219.24	91.4952	2219.24	90.7747	2219.24	90.756	2219.24	88.0276	2219.24	86.9216	2219.24	88.7172	2219.24	87.6491	2219.24	83.3069	2219.24	83.6819	2219.24	86.624	2219.24	85.8953	2219.24	85.4998	2219.24	84.1588	2219.24	87.2601	2219.24	86.1384	2219.24	81.5719	2219.24	77.8508	2219.24	87.4263
2296.88	104.457	2296.88	104.413	2296.88	104.442	2296.88	103.989	2296.88	104.136	2296.88	103.178	2296.88	103.516	2296.88	101.84	2296.88	102.27	2296.88	100.178	2296.88	100.614	2296.88	98.3906	2296.88	99.0083	2296.88	96.2378	2296.88	96.6733	2296.88	93.9631	2296.88	94.5303	2296.88	90.6939	2296.88	92.5682	2296.88	89.7799	2296.88	90.918	2296.88	87.2468	2296.88	88.0852	2296.88	87.4621	2296.88	87.804	2296.88	84.5101	2296.88	85.9085	2296.88	86.0472	2296.88	85.7235	2296.88	84.701	2296.88	84.752	2296.88	84.9614	2296.88	85.5504	2296.88	76.9708	2296.88	79.6453	2296.88	85.8467
2378.91	104.881	2378.91	104.791	2378.91	104.678	2378.91	104.388	2378.91	104.19	2378.91	103.595	2378.91	103.407	2378.91	102.365	2378.91	102.308	2378.91	100.882	2378.91	100.798	2378.91	99.1426	2378.91	98.7066	2378.91	96.9497	2378.91	96.683	2378.91	94.7948	2378.91	94.6818	2378.91	92.1122	2378.91	91.7191	2378.91	89.9879	2378.91	89.6843	2378.91	86.9791	2378.91	87.1746	2378.91	86.5181	2378.91	87.3308	2378.91	84.7283	2378.91	84.7818	2378.91	85.1592	2378.91	86.0289	2378.91	84.2649	2378.91	84.8487	2378.91	85.5691	2378.91	86.3735	2378.91	77.1106	2378.91	80.6261	2378.91	86.0149
2462.4	104.43	2462.4	104.359	2462.4	104.285	2462.4	103.921	2462.4	103.96	2462.4	103.306	2462.4	103.26	2462.4	102.276	2462.4	102.215	2462.4	100.705	2462.4	100.723	2462.4	99.057	2462.4	99.0203	2462.4	96.8804	2462.4	96.9648	2462.4	94.744	2462.4	94.771	2462.4	92.2279	2462.4	92.6046	2462.4	90.5018	2462.4	90.6908	2462.4	88.5197	2462.4	88.3605	2462.4	86.889	2462.4	86.4318	2462.4	85.1638	2462.4	85.3243	2462.4	85.382	2462.4	85.1161	2462.4	84.7414	2462.4	84.2965	2462.4	86.9228	2462.4	84.4135	2462.4	80.519	2462.4	79.5157	2462.4	86.3946
2548.83	104.534	2548.83	104.37	2548.83	104.455	2548.83	103.983	2548.83	104.138	2548.83	103.206	2548.83	103.437	2548.83	102.025	2548.83	102.364	2548.83	100.41	2548.83	100.899	2548.83	98.5142	2548.83	99.0495	2548.83	96.4954	2548.83	96.953	2548.83	94.3064	2548.83	94.499	2548.83	91.6188	2548.83	91.4375	2548.83	89.6188	2548.83	89.6078	2548.83	87.6982	2548.83	87.8087	2548.83	85.2042	2548.83	86.091	2548.83	84.5223	2548.83	84.7993	2548.83	83.6243	2548.83	85.0518	2548.83	82.6259	2548.83	84.9606	2548.83	83.7162	2548.83	85.7217	2548.83	77.1196	2548.83	81.1497	2548.83	84.8566
2639.65	104.571	2639.65	104.581	2639.65	104.472	2639.65	104.25	2639.65	104.159	2639.65	103.423	2639.65	103.445	2639.65	102.294	2639.65	102.268	2639.65	100.59	2639.65	100.56	2639.65	98.7198	2639.65	98.689	2639.65	96.707	2639.65	96.4026	2639.65	94.2171	2639.65	93.972	2639.65	91.7372	2639.65	92.0661	2639.65	88.759	2639.65	89.6783	2639.65	87.0662	2639.65	87.8607	2639.65	84.764	2639.65	85.8857	2639.65	83.3363	2639.65	83.152	2639.65	83.6411	2639.65	83.2326	2639.65	82.8007	2639.65	83.9478	2639.65	85.9372	2639.65	84.2989	2639.65	79.8301	2639.65	81.4869	2639.65	86.4454
2731.93	104.925	2731.93	104.816	2731.93	104.853	2731.93	104.545	2731.93	104.594	2731.93	103.698	2731.93	103.915	2731.93	102.346	2731.93	102.646	2731.93	100.652	2731.93	100.987	2731.93	98.6015	2731.93	99.0063	2731.93	96.3359	2731.93	96.9781	2731.93	93.9617	2731.93	94.6967	2731.93	91.9802	2731.93	91.8388	2731.93	89.4416	2731.93	88.9874	2731.93	87.95	2731.93	86.957	2731.93	85.7618	2731.93	84.0605	2731.93	83.5826	2731.93	85.2386	2731.93	82.6661	2731.93	82.1794	2731.93	81.4643	2731.93	83.4053	2731.93	82.1082	2731.93	84.3847	2731.93	78.604	2731.93	79.7073	2731.93	85.3529
2828.61	104.925	2828.61	104.802	2828.61	104.591	2828.61	104.349	2828.61	104.152	2828.61	103.517	2828.61	103.364	2828.61	102.234	2828.61	102.084	2828.61	100.504	2828.61	100.36	2828.61	98.4698	2828.61	98.3872	2828.61	96.402	2828.61	96.1265	2828.61	93.9436	2828.61	93.6159	2828.61	91.6467	2828.61	91.7362	2828.61	89.0143	2828.61	89.9679	2828.61	87.109	2828.61	88.3856	2828.61	83.3805	2828.61	85.9749	2828.61	83.8692	2828.61	81.8563	2828.61	82.2783	2828.61	82.6183	2828.61	84.5037	2828.61	83.7887	2828.61	85.3676	2828.61	83.5061	2828.61	78.8089	2828.61	79.1378	2828.61	84.9643
2928.22	104.806	2928.22	104.545	2928.22	104.768	2928.22	103.798	2928.22	104.299	2928.22	102.899	2928.22	103.31	2928.22	101.452	2928.22	102.043	2928.22	99.5905	2928.22	100.136	2928.22	97.2947	2928.22	97.9895	2928.22	95.0998	2928.22	95.9956	2928.22	93.1611	2928.22	93.6005	2928.22	91.1302	2928.22	91.3329	2928.22	88.8394	2928.22	88.1129	2928.22	87.8623	2928.22	86.3506	2928.22	85.4894	2928.22	81.9379	2928.22	82.4956	2928.22	84.8435	2928.22	80.1914	2928.22	81.5396	2928.22	78.0423	2928.22	83.2032	2928.22	79.3111	2928.22	81.1415	2928.22	76.1875	2928.22	78.3299	2928.22	82.025
3030.76	105.572	3030.76	105.431	3030.76	105.346	3030.76	104.831	3030.76	104.623	3030.76	103.606	3030.76	103.586	3030.76	102.071	3030.76	101.989	3030.76	100.124	3030.76	100.076	3030.76	97.9747	3030.76	98.233	3030.76	95.6494	3030.76	96.0404	3030.76	92.948	3030.76	93.5002	3030.76	90.4119	3030.76	91.0606	3030.76	87.4354	3030.76	88.8466	3030.76	87.3691	3030.76	86.2604	3030.76	81.4797	3030.76	86.3957	3030.76	81.1305	3030.76	81.4246	3030.76	77.919	3030.76	78.9991	3030.76	83.2857	3030.76	82.6845	3030.76	83.5667	3030.76	82.7711	3030.76	78.4042	3030.76	78.9502	3030.76	83.3226
3137.7	104.802	3137.7	104.534	3137.7	104.631	3137.7	104.113	3137.7	104.049	3137.7	103.044	3137.7	102.954	3137.7	101.497	3137.7	101.489	3137.7	99.59	3137.7	99.668	3137.7	97.8986	3137.7	97.6655	3137.7	95.9681	3137.7	95.5303	3137.7	93.7234	3137.7	93.4881	3137.7	91.4495	3137.7	91.1605	3137.7	88.8528	3137.7	88.3681	3137.7	85.1198	3137.7	87.3781	3137.7	86.0818	3137.7	84.364	3137.7	85.0081	3137.7	83.9084	3137.7	79.4633	3137.7	78.9147	3137.7	77.5719	3137.7	82.1411	3137.7	78.749	3137.7	80.3167	3137.7	79.4092	3137.7	78.9748	3137.7	84.4556
3249.02	105.534	3249.02	105.17	3249.02	105.157	3249.02	104.073	3249.02	104.505	3249.02	102.775	3249.02	103.266	3249.02	100.966	3249.02	101.745	3249.02	98.8803	3249.02	99.9298	3249.02	96.4861	3249.02	97.8212	3249.02	94.2461	3249.02	95.7048	3249.02	92.3729	3249.02	93.4487	3249.02	90.1682	3249.02	91.2307	3249.02	88.2463	3249.02	88.4183	3249.02	87.2708	3249.02	86.0496	3249.02	84.0251	3249.02	83.5256	3249.02	80.6177	3249.02	84.8029	3249.02	75.1822	3249.02	78.0116	3249.02	83.5598	3249.02	79.8178	3249.02	80.8865	3249.02	81.4803	3249.02	78.4724	3249.02	78.6597	3249.02	82.324
3363.28	105.349	3363.28	105.1	3363.28	104.979	3363.28	104.337	3363.28	104.012	3363.28	103.121	3363.28	102.822	3363.28	101.721	3363.28	101.318	3363.28	100.164	3363.28	99.4966	3363.28	98.0902	3363.28	97.5407	3363.28	95.8553	3363.28	95.3585	3363.28	93.4623	3363.28	92.8918	3363.28	90.6848	3363.28	90.3887	3363.28	88.124	3363.28	88.7355	3363.28	86.0004	3363.28	85.405	3363.28	83.0973	3363.28	85.0343	3363.28	82.9673	3363.28	77.3435	3363.28	77.7123	3363.28	78.8353	3363.28	79.545	3363.28	82.9483	3363.28	77.3961	3363.28	78.7109	3363.28	78.1965	3363.28	78.5514	3363.28	82.2821
3481.93	105.331	3481.93	104.835	3481.93	105.28	3481.93	104.147	3481.93	104.493	3481.93	102.675	3481.93	103.267	3481.93	100.915	3481.93	101.891	3481.93	98.8577	3481.93	100.154	3481.93	97.0084	3481.93	98.3117	3481.93	94.9609	3481.93	96.0806	3481.93	93.1389	3481.93	94.0348	3481.93	91.3296	3481.93	91.9296	3481.93	89.1123	3481.93	89.594	3481.93	85.9892	3481.93	87.4193	3481.93	86.9625	3481.93	84.7988	3481.93	83.8267	3481.93	83.6613	3481.93	80.3741	3481.93	74.902	3481.93	77.4621	3481.93	79.9564	3481.93	72.9585	3481.93	74.6729	3481.93	78.5171	3481.93	75.8068	3481.93	82.505
3604.98	105.436	3604.98	105.103	3604.98	105.037	3604.98	104.14	3604.98	104.145	3604.98	102.947	3604.98	102.793	3604.98	101.417	3604.98	101.31	3604.98	99.7341	3604.98	99.5152	3604.98	97.953	3604.98	97.4879	3604.98	95.3042	3604.98	95.3791	3604.98	92.1509	3604.98	92.9347	3604.98	89.8503	3604.98	90.6986	3604.98	87.1875	3604.98	87.9423	3604.98	85.3165	3604.98	86.2046	3604.98	82.6566	3604.98	85.0256	3604.98	79.9352	3604.98	84.6136	3604.98	76.5754	3604.98	79.8381	3604.98	81.0723	3604.98	78.7912	3604.98	75.9721	3604.98	75.8141	3604.98	77.3005	3604.98	77.1717	3604.98	81.7758
3732.42	105.886	3732.42	105.404	3732.42	105.61	3732.42	104.319	3732.42	104.79	3732.42	102.763	3732.42	103.663	3732.42	101.025	3732.42	102.071	3732.42	99.3807	3732.42	100.512	3732.42	97.4207	3732.42	98.7893	3732.42	95.8271	3732.42	96.5495	3732.42	94.0242	3732.42	94.269	3732.42	91.487	3732.42	92.1395	3732.42	89.2568	3732.42	89.6239	3732.42	87.4299	3732.42	86.578	3732.42	84.1626	3732.42	84.7161	3732.42	83.0863	3732.42	81.9676	3732.42	80.6543	3732.42	80.595	3732.42	78.0275	3732.42	79.3134	3732.42	76.2949	3732.42	78.9166	3732.42	80.1387	3732.42	79.0697	3732.42	82.9529
3864.26	105.586	3864.26	105.357	3864.26	105.334	3864.26	104.656	3864.26	104.371	3864.26	103.315	3864.26	103.038	3864.26	101.502	3864.26	101.549	3864.26	99.8713	3864.26	99.7552	3864.26	97.5349	3864.26	98.0156	3864.26	94.9955	3864.26	95.3949	3864.26	93.2377	3864.26	93.1109	3864.26	90.256	3864.26	90.4429	3864.26	88.3546	3864.26	88.2449	3864.26	85.653	3864.26	85.6181	3864.26	84.9395	3864.26	83.8249	3864.26	83.1509	3864.26	81.8387	3864.26	80.8684	3864.26	79.2041	3864.26	77.8975	3864.26	77.2311	3864.26	73.3357	3864.26	73.7558	3864.26	77.577	3864.26	76.2808	3864.26	80.7384
4000.49	105.591	4000.49	105.141	4000.49	105.579	4000.49	104.199	4000.49	104.721	4000.49	102.66	4000.49	103.496	4000.49	101.037	4000.49	102.064	4000.49	99.3712	4000.49	100.382	4000.49	97.6764	4000.49	98.2299	4000.49	95.4389	4000.49	96.2358	4000.49	92.6168	4000.49	93.6097	4000.49	90.8961	4000.49	91.5493	4000.49	88.0188	4000.49	88.7739	4000.49	85.4745	4000.49	86.4562	4000.49	83.9195	4000.49	85.1404	4000.49	81.6956	4000.49	83.247	4000.49	77.7803	4000.49	81.5735	4000.49	76.6587	4000.49	79.5517	4000.49	69.1994	4000.49	76.141	4000.49	76.5984	4000.49	77.2339	4000.49	80.4701
4141.11	105.623	4141.11	105.402	4141.11	105.274	4141.11	104.459	4141.11	104.425	4141.11	103.02	4141.11	103.088	4141.11	101.431	4141.11	101.454	4141.11	99.4379	4141.11	99.673	4141.11	97.1792	4141.11	97.6783	4141.11	94.9357	4141.11	95.2356	4141.11	92.5322	4141.11	92.786	4141.11	89.4131	4141.11	89.9862	4141.11	86.963	4141.11	88.0149	4141.11	84.7412	4141.11	86.1978	4141.11	83.8053	4141.11	82.6126	4141.11	81.4232	4141.11	81.8838	4141.11	79.1451	4141.11	79.0491	4141.11	76.7676	4141.11	75.21	4141.11	72.4034	4141.11	72.1746	4141.11	76.1731	4141.11	76.8212	4141.11	80.7628
4287.6	105.216	4287.6	104.663	4287.6	104.938	4287.6	103.481	4287.6	104.243	4287.6	102.202	4287.6	102.975	4287.6	100.467	4287.6	101.397	4287.6	98.6782	4287.6	99.4193	4287.6	96.589	4287.6	97.1674	4287.6	93.9256	4287.6	94.8404	4287.6	91.3647	4287.6	92.2007	4287.6	89.8788	4287.6	90.0618	4287.6	87.8852	4287.6	87.7556	4287.6	85.5766	4287.6	85.7214	4287.6	81.7938	4287.6	84.9794	4287.6	80.6305	4287.6	81.844	4287.6	78.2349	4287.6	80.7961	4287.6	73.5381	4287.6	77.5627	4287.6	71.7367	4287.6	74.1084	4287.6	74.1972	4287.6	74.9193	4287.6	78.7827
4438.48	105.615	4438.48	105.502	4438.48	105.472	4438.48	104.651	4438.48	104.488	4438.48	102.921	4438.48	103.371	4438.48	101.349	4438.48	101.689	4438.48	99.3181	4438.48	99.9065	4438.48	96.7995	4438.48	97.5221	4438.48	94.2718	4438.48	94.9091	4438.48	91.5787	4438.48	92.3592	4438.48	88.6391	4438.48	89.9655	4438.48	87.5484	4438.48	87.9726	4438.48	86.0151	4438.48	85.4641	4438.48	83.1852	4438.48	82.6092	4438.48	81.9425	4438.48	81.1109	4438.48	80.1907	4438.48	78.3822	4438.48	70.8245	4438.48	73.8093	4438.48	73.7101	4438.48	72.2497	4438.48	76.6141	4438.48	75.1494	4438.48	78.785
4595.21	105.599	4595.21	105.135	4595.21	105.4	4595.21	104.121	4595.21	104.862	4595.21	102.975	4595.21	103.475	4595.21	100.981	4595.21	101.883	4595.21	99.1718	4595.21	99.5314	4595.21	97.241	4595.21	97.56	4595.21	94.8822	4595.21	95.1329	4595.21	92.055	4595.21	92.6982	4595.21	90.0181	4595.21	90.1329	4595.21	86.9909	4595.21	87.7666	4595.21	84.975	4595.21	85.8533	4595.21	81.9942	4595.21	83.8115	4595.21	81.8762	4595.21	81.8951	4595.21	79.2056	4595.21	80.8909	4595.21	75.768	4595.21	77.5811	4595.21	70.3048	4595.21	70.8517	4595.21	75.6177	4595.21	74.8809	4595.21	80.3328
4756.35	106.163	4756.35	105.877	4756.35	105.97	4756.35	105.03	4756.35	104.839	4756.35	103.591	4756.35	103.87	4756.35	101.949	4756.35	101.965	4756.35	99.6719	4756.35	100.149	4756.35	96.7068	4756.35	97.6125	4756.35	93.5855	4756.35	94.7512	4756.35	91.5285	4756.35	92.4567	4756.35	88.8087	4756.35	89.6719	4756.35	86.9075	4756.35	87.0078	4756.35	84.7234	4756.35	85.2483	4756.35	83.5167	4756.35	83.1857	4756.35	82.469	4756.35	81.8995	4756.35	79.2795	4756.35	79.3485	4756.35	74.3713	4756.35	76.0878	4756.35	74.387	4756.35	72.7424	4756.35	74.8328	4756.35	74.5655	4756.35	78.4641
4924.8	105.85	4924.8	105.394	4924.8	105.692	4924.8	104.4	4924.8	105.244	4924.8	103.004	4924.8	103.704	4924.8	100.753	4924.8	102.153	4924.8	98.806	4924.8	99.9441	4924.8	96.7357	4924.8	97.6489	4924.8	95.1266	4924.8	95.0867	4924.8	92.6031	4924.8	92.4719	4924.8	89.8466	4924.8	90.0214	4924.8	87.505	4924.8	87.3695	4924.8	84.852	4924.8	85.6472	4924.8	82.9318	4924.8	83.2993	4924.8	80.998	4924.8	81.9256	4924.8	79.9336	4924.8	80.5237	4924.8	72.7826	4924.8	74.985	4924.8	73.7117	4924.8	73.0998	4924.8	73.6739	4924.8	76.1565	4924.8	79.2276
5097.66	105.892	5097.66	105.534	5097.66	105.668	5097.66	104.751	5097.66	104.666	5097.66	103.64	5097.66	103.959	5097.66	102.182	5097.66	102.228	5097.66	100.181	5097.66	100.109	5097.66	97.4414	5097.66	97.4624	5097.66	93.9493	5097.66	94.9043	5097.66	90.8888	5097.66	92.3456	5097.66	88.2148	5097.66	89.9253	5097.66	85.6215	5097.66	87.1164	5097.66	83.7246	5097.66	84.4917	5097.66	81.8269	5097.66	83.816	5097.66	81.1202	5097.66	81.548	5097.66	80.0719	5097.66	80.988	5097.66	77.14	5097.66	79.2646	5097.66	71.8887	5097.66	73.6516	5097.66	71.6795	5097.66	73.7426	5097.66	75.9418
5277.83	105.858	5277.83	105.575	5277.83	105.571	5277.83	104.786	5277.83	105.099	5277.83	103.544	5277.83	103.722	5277.83	101.322	5277.83	102.04	5277.83	98.8148	5277.83	99.6061	5277.83	96.4488	5277.83	97.5116	5277.83	94.229	5277.83	94.8928	5277.83	92.0355	5277.83	92.6133	5277.83	90.1912	5277.83	89.8425	5277.83	87.7217	5277.83	87.1349	5277.83	85.3693	5277.83	85.2415	5277.83	83.4593	5277.83	83.0527	5277.83	81.1303	5277.83	81.4015	5277.83	80.1275	5277.83	79.0764	5277.83	77.0931	5277.83	75.511	5277.83	76.7956	5277.83	75.2427	5277.83	72.3789	5277.83	74.9654	5277.83	75.1219
5463.87	105.821	5463.87	105.227	5463.87	105.849	5463.87	104.443	5463.87	105.144	5463.87	103.208	5463.87	104.477	5463.87	101.658	5463.87	102.85	5463.87	100.029	5463.87	100.799	5463.87	97.8945	5463.87	98.3601	5463.87	95.2123	5463.87	95.7126	5463.87	92.3617	5463.87	92.9319	5463.87	88.9069	5463.87	90.2514	5463.87	85.593	5463.87	87.971	5463.87	83.0849	5463.87	84.8817	5463.87	80.0105	5463.87	83.7731	5463.87	80.2457	5463.87	82.3072	5463.87	78.9264	5463.87	80.801	5463.87	76.9388	5463.87	77.8821	5463.87	74.537	5463.87	77.6624	5463.87	70.3015	5463.87	77.669	5463.87	72.795
5657.23	105.612	5657.23	105.402	5657.23	105.468	5657.23	104.832	5657.23	105.114	5657.23	103.796	5657.23	104.027	5657.23	101.952	5657.23	102.367	5657.23	99.7154	5657.23	100.296	5657.23	96.9696	5657.23	97.9623	5657.23	94.0781	5657.23	95.1846	5657.23	90.4562	5657.23	92.3773	5657.23	87.9823	5657.23	89.3871	5657.23	86.8664	5657.23	86.8054	5657.23	85.9119	5657.23	84.4007	5657.23	83.2104	5657.23	82.3471	5657.23	80.6496	5657.23	80.4921	5657.23	79.2326	5657.23	80.3833	5657.23	77.5919	5657.23	78.4531	5657.23	75.9157	5657.23	77.2173	5657.23	69.7834	5657.23	73.778	5657.23	74.0025
5856.45	106.015	5856.45	105.698	5856.45	106.018	5856.45	104.936	5856.45	105.314	5856.45	103.637	5856.45	104.434	5856.45	101.608	5856.45	102.882	5856.45	99.5454	5856.45	100.727	5856.45	96.9338	5856.45	98.1895	5856.45	94.3432	5856.45	95.3528	5856.45	91.6282	5856.45	92.2209	5856.45	89.336	5856.45	89.453	5856.45	86.1207	5856.45	86.286	5856.45	83.8242	5856.45	85.0047	5856.45	81.5073	5856.45	83.2218	5856.45	79.3198	5856.45	81.7194	5856.45	78.988	5856.45	81.8881	5856.45	79.5549	5856.45	79.2522	5856.45	75.9137	5856.45	76.1691	5856.45	72.9937	5856.45	76.5223	5856.45	73.6247
6062.99	106.125	6062.99	105.742	6062.99	106.111	6062.99	104.961	6062.99	105.816	6062.99	103.867	6062.99	104.844	6062.99	102.258	6062.99	103.207	6062.99	100.053	6062.99	101.276	6062.99	97.6224	6062.99	98.7758	6062.99	94.9796	6062.99	95.7937	6062.99	91.7196	6062.99	92.8259	6062.99	88.3692	6062.99	89.9662	6062.99	84.5763	6062.99	86.7901	6062.99	83.0342	6062.99	84.6285	6062.99	82.131	6062.99	83.2158	6062.99	79.1175	6062.99	80.3842	6062.99	78.923	6062.99	80.8062	6062.99	79.5842	6062.99	79.5832	6062.99	75.9772	6062.99	77.4966	6062.99	71.2966	6062.99	74.6845	6062.99	72.4773
6276.86	105.665	6276.86	105.389	6276.86	105.776	6276.86	104.763	6276.86	105.339	6276.86	103.782	6276.86	104.486	6276.86	102.227	6276.86	103.147	6276.86	100.437	6276.86	101.071	6276.86	97.734	6276.86	98.2092	6276.86	94.637	6276.86	95.427	6276.86	91.4873	6276.86	92.4597	6276.86	88.7543	6276.86	89.5223	6276.86	85.78	6276.86	86.5788	6276.86	84.1698	6276.86	84.3708	6276.86	82.3251	6276.86	81.9686	6276.86	78.3474	6276.86	79.4055	6276.86	81.0267	6276.86	80.2453	6276.86	79.9359	6276.86	80.1988	6276.86	74.5866	6276.86	76.4614	6276.86	72.765	6276.86	75.7176	6276.86	73.3148
6498.05	106.076	6498.05	105.811	6498.05	105.992	6498.05	105.306	6498.05	105.531	6498.05	104.185	6498.05	104.606	6498.05	102.632	6498.05	103.068	6498.05	100.559	6498.05	101.203	6498.05	97.8075	6498.05	98.4083	6498.05	94.7772	6498.05	95.3035	6498.05	91.2937	6498.05	92.2272	6498.05	88.7139	6498.05	89.7192	6498.05	86.0247	6498.05	86.3344	6498.05	83.2573	6498.05	84.3783	6498.05	80.8622	6498.05	83.0314	6498.05	77.289	6498.05	80.2628	6498.05	80.3107	6498.05	81.8477	6498.05	79.7511	6498.05	79.9823	6498.05	76.146	6498.05	77.3992	6498.05	72.8215	6498.05	75.2837	6498.05	73.6261
6726.56	106.283	6726.56	106.002	6726.56	106.194	6726.56	105.175	6726.56	105.758	6726.56	103.966	6726.56	104.743	6726.56	102.34	6726.56	103.395	6726.56	100.141	6726.56	101.158	6726.56	97.1919	6726.56	98.3296	6726.56	94.5474	6726.56	95.2782	6726.56	91.5261	6726.56	92.552	6726.56	88.2281	6726.56	89.1511	6726.56	85.4818	6726.56	85.9734	6726.56	83.1358	6726.56	83.7848	6726.56	79.3941	6726.56	81.3204	6726.56	77.2539	6726.56	79.2193	6726.56	78.7132	6726.56	79.7081	6726.56	78.8335	6726.56	79.5741	6726.56	74.5968	6726.56	77.985	6726.56	71.0173	6726.56	72.7713	6726.56	74.6855
6963.87	105.98	6963.87	105.653	6963.87	106.084	6963.87	104.946	6963.87	105.558	6963.87	103.688	6963.87	104.603	6963.87	102.121	6963.87	103.269	6963.87	100.034	6963.87	101.039	6963.87	97.4456	6963.87	98.2412	6963.87	94.6016	6963.87	95.3795	6963.87	91.696	6963.87	91.8726	6963.87	88.7605	6963.87	89.3566	6963.87	85.4699	6963.87	86.4992	6963.87	83.59	6963.87	84.025	6963.87	79.9916	6963.87	81.3579	6963.87	77.2642	6963.87	79.8754	6963.87	78.1828	6963.87	79.2045	6963.87	80.5863	6963.87	78.9973	6963.87	74.4041	6963.87	76.3391	6963.87	68.667	6963.87	73.4733	6963.87	73.0767
7209.96	105.88	7209.96	105.65	7209.96	106.037	7209.96	104.97	7209.96	105.563	7209.96	103.955	7209.96	104.614	7209.96	102.493	7209.96	103.127	7209.96	100.239	7209.96	100.904	7209.96	97.4574	7209.96	98.1226	7209.96	94.6841	7209.96	95.2932	7209.96	91.4868	7209.96	92.4349	7209.96	88.2013	7209.96	89.6251	7209.96	85.2602	7209.96	86.2278	7209.96	82.8123	7209.96	83.7899	7209.96	79.9678	7209.96	80.212	7209.96	76.6825	7209.96	79.493	7209.96	78.6107	7209.96	78.1689	7209.96	78.7673	7209.96	79.6621	7209.96	75.2946	7209.96	77.3263	7209.96	71.0297	7209.96	69.7797	7209.96	75.0235
7464.84	106.057	7464.84	105.824	7464.84	106.078	7464.84	105.181	7464.84	105.694	7464.84	104.059	7464.84	104.679	7464.84	102.601	7464.84	103.205	7464.84	100.204	7464.84	100.901	7464.84	97.3987	7464.84	98.0635	7464.84	94.1093	7464.84	95.0692	7464.84	90.7255	7464.84	92.0134	7464.84	87.5326	7464.84	89.0872	7464.84	85.3913	7464.84	86.1826	7464.84	81.9952	7464.84	83.268	7464.84	79.0223	7464.84	79.5968	7464.84	76.9833	7464.84	79.722	7464.84	76.7868	7464.84	78.1373	7464.84	77.9543	7464.84	79.6017	7464.84	73.9564	7464.84	75.87	7464.84	67.3261	7464.84	70.7276	7464.84	73.5651
7727.05	106.172	7727.05	105.927	7727.05	106.075	7727.05	105.215	7727.05	105.63	7727.05	103.952	7727.05	104.588	7727.05	102.281	7727.05	103.021	7727.05	99.73	7727.05	100.57	7727.05	96.8234	7727.05	97.6015	7727.05	93.4432	7727.05	94.734	7727.05	90.7739	7727.05	91.3739	7727.05	87.3713	7727.05	88.2929	7727.05	85.0382	7727.05	85.5612	7727.05	81.5628	7727.05	81.7604	7727.05	78.8102	7727.05	79.9055	7727.05	78.5824	7727.05	78.7999	7727.05	77.608	7727.05	76.318	7727.05	78.4059	7727.05	79.3447	7727.05	74.4585	7727.05	73.7972	7727.05	68.0716	7727.05	70.4219	7727.05	74.6195
7999.51	106.102	7999.51	105.858	7999.51	106.053	7999.51	105.179	7999.51	105.46	7999.51	103.925	7999.51	104.395	7999.51	101.988	7999.51	102.721	7999.51	99.3987	7999.51	100.135	7999.51	96.3842	7999.51	97.1723	7999.51	93.4608	7999.51	94.1769	7999.51	90.4377	7999.51	90.8074	7999.51	87.7216	7999.51	88.1383	7999.51	84.6488	7999.51	85.096	7999.51	81.0681	7999.51	81.8797	7999.51	79.4404	7999.51	79.4166	7999.51	77.0248	7999.51	78.9512	7999.51	78.1163	7999.51	77.1093	7999.51	74.9548	7999.51	76.6584	7999.51	73.1802	7999.51	74.1585	7999.51	67.7839	7999.51	69.7224	7999.51	71.1438
8282.23	106.093	8282.23	105.896	8282.23	106.01	8282.23	105.079	8282.23	105.482	8282.23	103.885	8282.23	104.328	8282.23	101.868	8282.23	102.397	8282.23	99.0872	8282.23	99.7718	8282.23	96.0015	8282.23	96.6087	8282.23	93.0764	8282.23	93.4851	8282.23	89.8681	8282.23	90.216	8282.23	87.0033	8282.23	87.3044	8282.23	84.3676	8282.23	84.5505	8282.23	81.1731	8282.23	81.6027	8282.23	78.9309	8282.23	79.0014	8282.23	77.7782	8282.23	78.6856	8282.23	77.0638	8282.23	76.8126	8282.23	74.8709	8282.23	76.5824	8282.23	72.2849	8282.23	73.7175	8282.23	65.2593	8282.23	70.6659	8282.23	71.4024
8573.73	106.133	8573.73	105.91	8573.73	106.023	8573.73	105.206	8573.73	105.58	8573.73	103.788	8573.73	104.335	8573.73	101.623	8573.73	102.206	8573.73	98.8746	8573.73	99.6585	8573.73	95.6422	8573.73	96.1959	8573.73	92.7118	8573.73	93.0573	8573.73	89.8082	8573.73	90.1231	8573.73	86.5322	8573.73	87.6226	8573.73	83.9494	8573.73	84.3121	8573.73	79.9968	8573.73	81.1149	8573.73	78.5731	8573.73	79.5052	8573.73	77.001	8573.73	77.4626	8573.73	76.0051	8573.73	75.7818	8573.73	73.6378	8573.73	75.3554	8573.73	70.6772	8573.73	71.7286	8573.73	67.0004	8573.73	69.9899	8573.73	70.1868
8876.95	106.232	8876.95	106.002	8876.95	106.2	8876.95	105.274	8876.95	105.622	8876.95	103.713	8876.95	104.361	8876.95	101.452	8876.95	102.26	8876.95	98.6688	8876.95	99.517	8876.95	95.514	8876.95	95.9394	8876.95	92.6976	8876.95	93.0366	8876.95	89.5374	8876.95	90.1092	8876.95	86.5749	8876.95	87.3396	8876.95	83.0163	8876.95	83.8155	8876.95	79.9821	8876.95	81.3258	8876.95	78.4406	8876.95	79.5451	8876.95	76.3712	8876.95	76.7853	8876.95	75.6462	8876.95	75.0065	8876.95	71.6944	8876.95	75.1685	8876.95	69.6932	8876.95	69.2263	8876.95	62.1383	8876.95	71.0195	8876.95	70.6971
9188.96	106.37	9188.96	106.018	9188.96	106.269	9188.96	105.266	9188.96	105.758	9188.96	103.764	9188.96	104.324	9188.96	101.448	9188.96	102.142	9188.96	98.5179	9188.96	99.2778	9188.96	95.3425	9188.96	95.9632	9188.96	92.2016	9188.96	92.7662	9188.96	88.7633	9188.96	89.5409	9188.96	85.7372	9188.96	86.5094	9188.96	82.6609	9188.96	83.397	9188.96	80.194	9188.96	80.9388	9188.96	78.3319	9188.96	78.5949	9188.96	76.5489	9188.96	76.3978	9188.96	74.7991	9188.96	73.4243	9188.96	71.4174	9188.96	74.1386	9188.96	69.6557	9188.96	65.693	9188.96	63.3282	9188.96	71.9606	9188.96	70.5826
9514.16	106.373	9514.16	106.176	9514.16	106.221	9514.16	105.336	9514.16	105.777	9514.16	103.666	9514.16	104.307	9514.16	101.298	9514.16	101.995	9514.16	98.3383	9514.16	99.2365	9514.16	95.3121	9514.16	95.7993	9514.16	91.9322	9514.16	92.7396	9514.16	89.1626	9514.16	89.5028	9514.16	85.5594	9514.16	86.5469	9514.16	82.6759	9514.16	83.8255	9514.16	80.7681	9514.16	80.9582	9514.16	78.0697	9514.16	79.0943	9514.16	75.5599	9514.16	75.4225	9514.16	74.8186	9514.16	72.9834	9514.16	70.0892	9514.16	71.6482	9514.16	68.0186	9514.16	67.2856	9514.16	65.2819	9514.16	70.67	9514.16	70.2968
9849.61	106.249	9849.61	106.054	9849.61	106.203	9849.61	105.429	9849.61	105.735	9849.61	103.674	9849.61	104.31	9849.61	101.267	9849.61	102.018	9849.61	98.3817	9849.61	99.2854	9849.61	95.3843	9849.61	95.8579	9849.61	92.5121	9849.61	92.873	9849.61	89.0506	9849.61	89.9165	9849.61	86.1461	9849.61	87.1717	9849.61	82.2324	9849.61	83.4835	9849.61	80.7512	9849.61	81.3456	9849.61	78.0083	9849.61	78.826	9849.61	75.2115	9849.61	74.8666	9849.61	74.6257	9849.61	72.5934	9849.61	69.2067	9849.61	70.7045	9849.61	67.4263	9849.61	64.9106	9849.61	63.1944	9849.61	71.184	9849.61	67.8002
10196.8	106.096	10196.8	105.839	10196.8	106.12	10196.8	105.214	10196.8	105.756	10196.8	103.559	10196.8	104.25	10196.8	101.183	10196.8	101.888	10196.8	98.3543	10196.8	99.4652	10196.8	95.4837	10196.8	96.361	10196.8	91.9875	10196.8	92.8994	10196.8	88.7035	10196.8	89.872	10196.8	85.5776	10196.8	86.5314	10196.8	82.3718	10196.8	83.4848	10196.8	80.5848	10196.8	80.6183	10196.8	77.5226	10196.8	77.9291	10196.8	73.5739	10196.8	73.9397	10196.8	72.8844	10196.8	70.8104	10196.8	68.1113	10196.8	69.8236	10196.8	64.9478	10196.8	63.3176	10196.8	67.1051	10196.8	72.7742	10196.8	69.5028
10555.7	105.905	10555.7	105.656	10555.7	105.902	10555.7	104.952	10555.7	105.62	10555.7	103.279	10555.7	104.217	10555.7	100.895	10555.7	101.876	10555.7	98.3453	10555.7	99.4767	10555.7	95.7963	10555.7	96.3462	10555.7	92.1217	10555.7	93.0768	10555.7	89.4062	10555.7	89.9324	10555.7	85.8205	10555.7	86.8109	10555.7	82.4533	10555.7	83.6906	10555.7	80.8582	10555.7	80.7179	10555.7	76.8653	10555.7	78.0524	10555.7	72.5694	10555.7	73.3307	10555.7	71.7943	10555.7	70.9525	10555.7	67.2628	10555.7	68.7203	10555.7	62.8011	10555.7	59.5614	10555.7	66.913	10555.7	72.2298	10555.7	70.7548
10927.7	105.764	10927.7	105.552	10927.7	105.895	10927.7	104.919	10927.7	105.689	10927.7	103.357	10927.7	104.338	10927.7	101.199	10927.7	102.137	10927.7	98.9547	10927.7	99.7104	10927.7	96.2888	10927.7	96.7788	10927.7	92.8027	10927.7	93.4954	10927.7	89.3746	10927.7	90.4083	10927.7	86.3319	10927.7	87.6091	10927.7	82.8247	10927.7	83.4593	10927.7	80.7422	10927.7	81.5843	10927.7	76.6763	10927.7	78.1124	10927.7	72.5837	10927.7	74.2826	10927.7	70.8914	10927.7	71.5054	10927.7	68.2933	10927.7	69.2608	10927.7	58.1173	10927.7	60.6326	10927.7	64.8905	10927.7	70.435	10927.7	70.8503
11313	105.436	11313	105.386	11313	105.735	11313	104.9	11313	105.791	11313	103.458	11313	104.726	11313	101.596	11313	102.675	11313	99.2935	11313	100.585	11313	96.8722	11313	97.6456	11313	93.3934	11313	94.2298	11313	89.9173	11313	91.1028	11313	86.471	11313	87.875	11313	82.9252	11313	84.3004	11313	81.1458	11313	82.0294	11313	77.3945	11313	78.174	11313	72.6634	11313	72.7354	11313	70.2755	11313	70.8503	11313	69.3273	11313	67.6399	11313	28.1752	11313	58.7352	11313	65.3364	11313	69.7196	11313	70.9703
11712.9	104.838	11712.9	104.765	11712.9	105.344	11712.9	104.527	11712.9	105.636	11712.9	103.383	11712.9	104.809	11712.9	101.905	11712.9	103.142	11712.9	99.8161	11712.9	100.955	11712.9	97.2422	11712.9	98.2283	11712.9	93.6744	11712.9	94.3991	11712.9	89.9377	11712.9	90.9769	11712.9	86.7195	11712.9	88.0086	11712.9	83.1691	11712.9	84.0507	11712.9	81.2778	11712.9	81.8617	11712.9	77.1159	11712.9	78.9809	11712.9	72.8367	11712.9	71.4992	11712.9	70.1456	11712.9	69.2933	11712.9	67.5513	11712.9	66.5499	11712.9	59.2663	11712.9	58.7945	11712.9	61.3373	11712.9	65.1999	11712.9	70.8476
12126	104.301	12126	104.502	12126	104.971	12126	104.588	12126	105.504	12126	103.877	12126	105.007	12126	102.89	12126	103.513	12126	100.784	12126	101.55	12126	97.9538	12126	98.6585	12126	94.3263	12126	94.9847	12126	90.5392	12126	91.5952	12126	86.5998	12126	88.4332	12126	83.5531	12126	85.0254	12126	81.3606	12126	82.4458	12126	75.4342	12126	78.4834	12126	72.3573	12126	70.6078	12126	70.7798	12126	68.0499	12126	64.8489	12126	67.2736	12126	64.1559	12126	60.6338	12126	63.7818	12126	63.2147	12126	71.8977
12553.7	104.164	12553.7	104.674	12553.7	104.691	12553.7	105.169	12553.7	105.483	12553.7	104.724	12553.7	105.28	12553.7	103.602	12553.7	104.001	12553.7	101.435	12553.7	102.01	12553.7	98.4142	12553.7	98.8665	12553.7	94.8144	12553.7	95.0441	12553.7	90.7127	12553.7	91.3532	12553.7	87.3689	12553.7	88.5154	12553.7	83.813	12553.7	84.3661	12553.7	81.3042	12553.7	82.2172	12553.7	75.8368	12553.7	78.6497	12553.7	73.2422	12553.7	70.8953	12553.7	69.615	12553.7	67.0037	12553.7	62.8412	12553.7	67.566	12553.7	65.0979	12553.7	62.0988	12553.7	64.3647	12553.7	67.1264	12553.7	71.4998
12996.1	104.549	12996.1	105.119	12996.1	104.846	12996.1	105.513	12996.1	105.371	12996.1	105.091	12996.1	105.17	12996.1	103.808	12996.1	103.891	12996.1	101.315	12996.1	101.91	12996.1	98.1753	12996.1	98.5837	12996.1	94.2697	12996.1	94.7216	12996.1	90.5116	12996.1	90.8309	12996.1	86.7463	12996.1	87.7918	12996.1	83.5789	12996.1	83.979	12996.1	80.3726	12996.1	81.7367	12996.1	75.4993	12996.1	77.1093	12996.1	72.521	12996.1	68.2797	12996.1	68.6905	12996.1	65.8288	12996.1	61.1551	12996.1	65.0991	12996.1	65.7996	12996.1	64.9741	12996.1	62.2392	12996.1	68.8893	12996.1	70.7893
13454.6	104.741	13454.6	105.205	13454.6	104.832	13454.6	105.509	13454.6	105.268	13454.6	105.006	13454.6	105.038	13454.6	103.685	13454.6	103.636	13454.6	101.207	13454.6	101.336	13454.6	98.0761	13454.6	97.9445	13454.6	93.8567	13454.6	93.9112	13454.6	89.9507	13454.6	89.733	13454.6	86.5685	13454.6	86.8852	13454.6	83.1191	13454.6	83.0984	13454.6	80.0498	13454.6	80.4272	13454.6	74.9141	13454.6	75.7914	13454.6	72.5842	13454.6	68.6717	13454.6	66.4314	13454.6	65.8325	13454.6	61.1236	13454.6	64.3545	13454.6	67.8977	13454.6	65.4175	13454.6	61.8522	13454.6	65.6756	13454.6	69.2314
13929.2	104.931	13929.2	105.046	13929.2	105.074	13929.2	104.986	13929.2	105.254	13929.2	104.55	13929.2	104.864	13929.2	103.361	13929.2	103.305	13929.2	100.645	13929.2	100.721	13929.2	97.3533	13929.2	97.0572	13929.2	93.5815	13929.2	93.1939	13929.2	89.3762	13929.2	89.1153	13929.2	85.8127	13929.2	85.8543	13929.2	82.3094	13929.2	82.2202	13929.2	79.667	13929.2	79.4631	13929.2	74.3439	13929.2	74.8569	13929.2	71.1268	13929.2	65.5416	13929.2	63.8503	13929.2	66.6531	13929.2	60.4986	13929.2	64.2741	13929.2	66.424	13929.2	64.9022	13929.2	55.3991	13929.2	64.9488	13929.2	68.1136
14419.9	105.123	14419.9	104.905	14419.9	105.207	14419.9	104.693	14419.9	105.192	14419.9	104.088	14419.9	104.744	14419.9	102.827	14419.9	102.994	14419.9	100.126	14419.9	100.328	14419.9	96.5734	14419.9	96.6393	14419.9	92.7709	14419.9	92.661	14419.9	88.2245	14419.9	88.4851	14419.9	84.8659	14419.9	85.643	14419.9	81.5294	14419.9	81.4741	14419.9	78.8107	14419.9	78.8854	14419.9	73.0924	14419.9	73.7249	14419.9	69.359	14419.9	65.021	14419.9	61.2073	14419.9	66.3556	14419.9	62.6673	14419.9	58.6219	14419.9	65.1805	14419.9	65.2807	14419.9	54.2089	14419.9	62.607	14419.9	67.6049
14928.2	105.759	14928.2	105.43	14928.2	105.698	14928.2	104.939	14928.2	105.469	14928.2	104.201	14928.2	105.061	14928.2	102.722	14928.2	103.359	14928.2	99.7414	14928.2	100.598	14928.2	96.2506	14928.2	96.8388	14928.2	91.987	14928.2	92.4365	14928.2	87.7512	14928.2	88.5002	14928.2	83.7727	14928.2	85.0066	14928.2	81.1093	14928.2	81.3929	14928.2	77.6226	14928.2	78.5828	14928.2	71.3255	14928.2	73.02	14928.2	66.8521	14928.2	63.051	14928.2	53.5561	14928.2	66.2507	14928.2	63.0735	14928.2	61.3807	14928.2	63.5263	14928.2	65.8059	14928.2	60.7011	14928.2	65.4406	14928.2	67.7788
15455.6	106.237	15455.6	105.751	15455.6	106.01	15455.6	105.112	15455.6	105.613	15455.6	104.294	15455.6	105.2	15455.6	102.702	15455.6	103.398	15455.6	99.6816	15455.6	100.523	15455.6	95.7397	15455.6	96.5268	15455.6	91.172	15455.6	92.3696	15455.6	87.2016	15455.6	87.8227	15455.6	82.9908	15455.6	84.5191	15455.6	80.7012	15455.6	80.8192	15455.6	76.5282	15455.6	77.8333	15455.6	70.3416	15455.6	71.6157	15455.6	65.731	15455.6	63.9426	15455.6	54.4113	15455.6	66.0465	15455.6	63.7204	15455.6	59.6032	15455.6	63.9584	15455.6	64.1149	15455.6	58.6273	15455.6	63.8617	15455.6	68.0466
16000.5	106.234	16000.5	105.636	16000.5	105.96	16000.5	104.879	16000.5	105.549	16000.5	104.072	16000.5	105.139	16000.5	102.267	16000.5	103.263	16000.5	98.973	16000.5	100.175	16000.5	94.9751	16000.5	96.0203	16000.5	89.9985	16000.5	91.5963	16000.5	86.1923	16000.5	87.0518	16000.5	81.8897	16000.5	83.3917	16000.5	79.6684	16000.5	80.1156	16000.5	74.4796	16000.5	76.8897	16000.5	68.6363	16000.5	71.5627	16000.5	63.4206	16000.5	61.8169	16000.5	54.2673	16000.5	65.4442	16000.5	61.2259	16000.5	64.006	16000.5	63.4983	16000.5	60.9947	16000.5	56.0107	16000.5	61.3132	16000.5	67.1737
16564.5	105.935	16564.5	105.173	16564.5	105.773	16564.5	104.464	16564.5	105.535	16564.5	103.814	16564.5	105.14	16564.5	102.003	16564.5	103.072	16564.5	98.5142	16564.5	99.5702	16564.5	94.0865	16564.5	94.983	16564.5	89.3227	16564.5	90.4379	16564.5	85.4386	16564.5	86.0729	16564.5	81.3082	16564.5	82.6744	16564.5	78.4855	16564.5	79.2012	16564.5	73.0615	16564.5	75.7637	16564.5	68.3142	16564.5	71.3037	16564.5	62.2388	16564.5	59.5809	16564.5	54.2789	16564.5	62.325	16564.5	59.597	16564.5	63.3138	16564.5	61.8237	16564.5	57.0692	16564.5	52.5122	16564.5	63.5992	16564.5	65.6925
17148.9	105.508	17148.9	104.785	17148.9	105.47	17148.9	104.325	17148.9	105.424	17148.9	103.774	17148.9	105.011	17148.9	101.879	17148.9	102.617	17148.9	98.0924	17148.9	98.6383	17148.9	93.2954	17148.9	93.5553	17148.9	88.643	17148.9	89.1377	17148.9	84.7533	17148.9	84.7723	17148.9	80.802	17148.9	81.0038	17148.9	77.7167	17148.9	77.6281	17148.9	72.8937	17148.9	74.7707	17148.9	68.3033	17148.9	68.3134	17148.9	63.3926	17148.9	62.3739	17148.9	57.7798	17148.9	59.2823	17148.9	58.9701	17148.9	61.7997	17148.9	57.8969	17148.9	54.4845	17148.9	51.0496	17148.9	62.3607	17148.9	63.4001
17752.4	104.715	17752.4	103.872	17752.4	104.957	17752.4	103.668	17752.4	105.206	17752.4	103.18	17752.4	104.802	17752.4	101.107	17752.4	102.04	17752.4	96.9697	17752.4	97.6993	17752.4	91.9144	17752.4	92.522	17752.4	87.4319	17752.4	88.1358	17752.4	83.506	17752.4	84.1645	17752.4	79.6258	17752.4	79.6888	17752.4	77.0574	17752.4	77.1754	17752.4	72.153	17752.4	73.4856	17752.4	67.5641	17752.4	66.1618	17752.4	62.3213	17752.4	60.1817	17752.4	56.9927	17752.4	58.3418	17752.4	60.8278	17752.4	59.0535	17752.4	48.7792	17752.4	48.8278	17752.4	52.4273	17752.4	61.4453	17752.4	61.604
18379.4	103.285	18379.4	102.23	18379.4	103.951	18379.4	102.482	18379.4	104.706	18379.4	102.23	18379.4	104.408	18379.4	99.9164	18379.4	101.346	18379.4	95.3818	18379.4	96.5589	18379.4	90.6247	18379.4	91.4731	18379.4	86.0079	18379.4	87.1979	18379.4	82.3628	18379.4	83.3804	18379.4	78.3251	18379.4	78.5887	18379.4	75.7664	18379.4	76.7959	18379.4	71.0171	18379.4	72.4498	18379.4	65.9277	18379.4	63.6239	18379.4	61.904	18379.4	60.4436	18379.4	57.3613	18379.4	52.7339	18379.4	60.5158	18379.4	58.9213	18379.4	49.3251	18379.4	35.2205	18379.4	56.1632	18379.4	60.8471	18379.4	62.5909
19026.9	101.688	19026.9	100.305	19026.9	102.834	19026.9	101.132	19026.9	104.187	19026.9	101.26	19026.9	103.99	19026.9	98.8071	19026.9	100.726	19026.9	94.3877	19026.9	95.6846	19026.9	90.4678	19026.9	91.2029	19026.9	86.0756	19026.9	87.0764	19026.9	82.2831	19026.9	83.3439	19026.9	77.9875	19026.9	78.3071	19026.9	75.2692	19026.9	76.5829	19026.9	70.0834	19026.9	72.1353	19026.9	65.3466	19026.9	65.2225	19026.9	60.6194	19026.9	60.0695	19026.9	56.7326	19026.9	50.7819	19026.9	58.1082	19026.9	58.5372	19026.9	49.9077	19026.9	54.2563	19026.9	58.8959	19026.9	61.4216	19026.9	64.0508
19697.8	101.207	19697.8	99.4538	19697.8	102.486	19697.8	100.058	19697.8	103.959	19697.8	100.666	19697.8	103.746	19697.8	98.5129	19697.8	100.369	19697.8	94.9043	19697.8	95.5785	19697.8	91.6433	19697.8	91.758	19697.8	87.4812	19697.8	87.9071	19697.8	83.1832	19697.8	84.3331	19697.8	78.6513	19697.8	79.0115	19697.8	76.4797	19697.8	77.3796	19697.8	71.1789	19697.8	72.4848	19697.8	66.0588	19697.8	67.3156	19697.8	61.8464	19697.8	60.6279	19697.8	60.1535	19697.8	51.342	19697.8	57.091	19697.8	58.9771	19697.8	56.7363	19697.8	60.1457	19697.8	61.7306	19697.8	63.6127	19697.8	64.7596
19999.5	101.054	19999.5	99.6038	19999.5	102.439	19999.5	99.5921	19999.5	103.849	19999.5	100.612	19999.5	103.482	19999.5	98.8916	19999.5	100.25	19999.5	95.2554	19999.5	95.8082	19999.5	92.4988	19999.5	92.1974	19999.5	88.6176	19999.5	87.9928	19999.5	84.2664	19999.5	85.5306	19999.5	79.3253	19999.5	79.3689	19999.5	79.0843	19999.5	76.7723	19999.5	69.1111	19999.5	69.5097	19999.5	61.3625	19999.5	75.2124	19999.5	62.4183	19999.5	58.2111	19999.5	62.6532	19999.5	60.2401	19999.5	48.2156	19999.5	66.7019	19999.5	64.5875	19999.5	67.5877	19999.5	64.2051	19999.5	54.9448	19999.5	64.2897
