"SPL Vertical"
"On-Axis"		"10°"		"-10°"		"20°"		"-20°"		"30°"		"-30°"		"40°"		"-40°"		"50°"		"-50°"		"60°"		"-60°"		"70°"		"-70°"		"80°"		"-80°"		"90°"		"-90°"		"100°"		"-100°"		"110°"		"-110°"		"120°"		"-120°"		"130°"		"-130°"		"140°"		"-140°"		"150°"		"-150°"		"160°"		"-160°"		"170°"		"-170°"		"180°"
"Frequency [Hz]"	"Sound Pessure Level [dB]  / [2.83V 1m] "	"Frequency [Hz]"	"Sound Pessure Level [dB]  / [2.83V 1m] "	"Frequency [Hz]"	"Sound Pessure Level [dB]  / [2.83V 1m] "	"Frequency [Hz]"	"Sound Pessure Level [dB]  / [2.83V 1m] "	"Frequency [Hz]"	"Sound Pessure Level [dB]  / [2.83V 1m] "	"Frequency [Hz]"	"Sound Pessure Level [dB]  / [2.83V 1m] "	"Frequency [Hz]"	"Sound Pessure Level [dB]  / [2.83V 1m] "	"Frequency [Hz]"	"Sound Pessure Level [dB]  / [2.83V 1m] "	"Frequency [Hz]"	"Sound Pessure Level [dB]  / [2.83V 1m] "	"Frequency [Hz]"	"Sound Pessure Level [dB]  / [2.83V 1m] "	"Frequency [Hz]"	"Sound Pessure Level [dB]  / [2.83V 1m] "	"Frequency [Hz]"	"Sound Pessure Level [dB]  / [2.83V 1m] "	"Frequency [Hz]"	"Sound Pessure Level [dB]  / [2.83V 1m] "	"Frequency [Hz]"	"Sound Pessure Level [dB]  / [2.83V 1m] "	"Frequency [Hz]"	"Sound Pessure Level [dB]  / [2.83V 1m] "	"Frequency [Hz]"	"Sound Pessure Level [dB]  / [2.83V 1m] "	"Frequency [Hz]"	"Sound Pessure Level [dB]  / [2.83V 1m] "	"Frequency [Hz]"	"Sound Pessure Level [dB]  / [2.83V 1m] "	"Frequency [Hz]"	"Sound Pessure Level [dB]  / [2.83V 1m] "	"Frequency [Hz]"	"Sound Pessure Level [dB]  / [2.83V 1m] "	"Frequency [Hz]"	"Sound Pessure Level [dB]  / [2.83V 1m] "	"Frequency [Hz]"	"Sound Pessure Level [dB]  / [2.83V 1m] "	"Frequency [Hz]"	"Sound Pessure Level [dB]  / [2.83V 1m] "	"Frequency [Hz]"	"Sound Pessure Level [dB]  / [2.83V 1m] "	"Frequency [Hz]"	"Sound Pessure Level [dB]  / [2.83V 1m] "	"Frequency [Hz]"	"Sound Pessure Level [dB]  / [2.83V 1m] "	"Frequency [Hz]"	"Sound Pessure Level [dB]  / [2.83V 1m] "	"Frequency [Hz]"	"Sound Pessure Level [dB]  / [2.83V 1m] "	"Frequency [Hz]"	"Sound Pessure Level [dB]  / [2.83V 1m] "	"Frequency [Hz]"	"Sound Pessure Level [dB]  / [2.83V 1m] "	"Frequency [Hz]"	"Sound Pessure Level [dB]  / [2.83V 1m] "	"Frequency [Hz]"	"Sound Pessure Level [dB]  / [2.83V 1m] "	"Frequency [Hz]"	"Sound Pessure Level [dB]  / [2.83V 1m] "	"Frequency [Hz]"	"Sound Pessure Level [dB]  / [2.83V 1m] "	"Frequency [Hz]"	"Sound Pessure Level [dB]  / [2.83V 1m] "	"Frequency [Hz]"	"Sound Pessure Level [dB]  / [2.83V 1m] "
20.5078	99.6273	20.5078	99.652	20.5078	99.6449	20.5078	99.7186	20.5078	99.7051	20.5078	99.827	20.5078	99.808	20.5078	99.977	20.5078	99.9538	20.5078	100.168	20.5078	100.142	20.5078	100.4	20.5078	100.373	20.5078	100.672	20.5078	100.644	20.5078	100.981	20.5078	100.953	20.5078	101.323	20.5078	101.296	20.5078	101.694	20.5078	101.668	20.5078	102.084	20.5078	102.06	20.5078	102.482	20.5078	102.46	20.5078	102.871	20.5078	102.851	20.5078	103.231	20.5078	103.214	20.5078	103.542	20.5078	103.527	20.5078	103.781	20.5078	103.771	20.5078	103.931	20.5078	103.926	20.5078	103.981
21.9727	102.114	21.9727	102.144	21.9727	102.124	21.9727	102.216	21.9727	102.177	21.9727	102.328	21.9727	102.271	21.9727	102.481	21.9727	102.407	21.9727	102.674	21.9727	102.585	21.9727	102.906	21.9727	102.803	21.9727	103.176	21.9727	103.06	21.9727	103.481	21.9727	103.354	21.9727	103.817	21.9727	103.68	21.9727	104.177	21.9727	104.033	21.9727	104.552	21.9727	104.404	21.9727	104.93	21.9727	104.783	21.9727	105.294	21.9727	105.155	21.9727	105.627	21.9727	105.501	21.9727	105.907	21.9727	105.804	21.9727	106.117	21.9727	106.043	21.9727	106.241	21.9727	106.203	21.9727	106.271
23.4375	103.416	23.4375	103.449	23.4375	103.427	23.4375	103.525	23.4375	103.483	23.4375	103.645	23.4375	103.583	23.4375	103.807	23.4375	103.728	23.4375	104.01	23.4375	103.917	23.4375	104.254	23.4375	104.149	23.4375	104.535	23.4375	104.422	23.4375	104.852	23.4375	104.731	23.4375	105.198	23.4375	105.071	23.4375	105.566	23.4375	105.436	23.4375	105.948	23.4375	105.816	23.4375	106.329	23.4375	106.198	23.4375	106.694	23.4375	106.569	23.4375	107.025	23.4375	106.912	23.4375	107.302	23.4375	107.208	23.4375	107.509	23.4375	107.441	23.4375	107.631	23.4375	107.596	23.4375	107.66
24.9023	104.594	24.9023	104.622	24.9023	104.609	24.9023	104.694	24.9023	104.667	24.9023	104.808	24.9023	104.768	24.9023	104.964	24.9023	104.911	24.9023	105.162	24.9023	105.095	24.9023	105.401	24.9023	105.32	24.9023	105.678	24.9023	105.581	24.9023	105.989	24.9023	105.878	24.9023	106.329	24.9023	106.203	24.9023	106.692	24.9023	106.552	24.9023	107.066	24.9023	106.916	24.9023	107.44	24.9023	107.284	24.9023	107.797	24.9023	107.643	24.9023	108.119	24.9023	107.976	24.9023	108.387	24.9023	108.266	24.9023	108.585	24.9023	108.497	24.9023	108.699	24.9023	108.653	24.9023	108.722
26.3672	105.214	26.3672	105.25	26.3672	105.221	26.3672	105.328	26.3672	105.27	26.3672	105.449	26.3672	105.363	26.3672	105.61	26.3672	105.499	26.3672	105.812	26.3672	105.678	26.3672	106.052	26.3672	105.898	26.3672	106.329	26.3672	106.158	26.3672	106.639	26.3672	106.453	26.3672	106.977	26.3672	106.78	26.3672	107.336	26.3672	107.132	26.3672	107.706	26.3672	107.499	26.3672	108.075	26.3672	107.871	26.3672	108.426	26.3672	108.233	26.3672	108.742	26.3672	108.57	26.3672	109.005	26.3672	108.863	26.3672	109.198	26.3672	109.097	26.3672	109.308	26.3672	109.255	26.3672	109.328
27.832	105.704	27.832	105.737	27.832	105.713	27.832	105.811	27.832	105.765	27.832	105.928	27.832	105.86	27.832	106.086	27.832	105.996	27.832	106.284	27.832	106.175	27.832	106.522	27.832	106.394	27.832	106.797	27.832	106.653	27.832	107.106	27.832	106.949	27.832	107.446	27.832	107.276	27.832	107.808	27.832	107.63	27.832	108.183	27.832	108.001	27.832	108.56	27.832	108.377	27.832	108.92	27.832	108.746	27.832	109.247	27.832	109.089	27.832	109.521	27.832	109.39	27.832	109.723	27.832	109.629	27.832	109.84	27.832	109.79	27.832	109.863
29.2969	105.995	29.2969	106.031	29.2969	106.001	29.2969	106.109	29.2969	106.051	29.2969	106.229	29.2969	106.143	29.2969	106.391	29.2969	106.279	29.2969	106.594	29.2969	106.457	29.2969	106.836	29.2969	106.678	29.2969	107.116	29.2969	106.938	29.2969	107.43	29.2969	107.237	29.2969	107.773	29.2969	107.569	29.2969	108.14	29.2969	107.928	29.2969	108.52	29.2969	108.305	29.2969	108.9	29.2969	108.69	29.2969	109.264	29.2969	109.066	29.2969	109.594	29.2969	109.417	29.2969	109.87	29.2969	109.724	29.2969	110.073	29.2969	109.969	29.2969	110.19	29.2969	110.135	29.2969	110.211
30.7617	106.132	30.7617	106.173	30.7617	106.135	30.7617	106.256	30.7617	106.182	30.7617	106.382	30.7617	106.273	30.7617	106.549	30.7617	106.408	30.7617	106.758	30.7617	106.587	30.7617	107.006	30.7617	106.81	30.7617	107.292	30.7617	107.075	30.7617	107.613	30.7617	107.38	30.7617	107.963	30.7617	107.719	30.7617	108.335	30.7617	108.087	30.7617	108.721	30.7617	108.474	30.7617	109.106	30.7617	108.867	30.7617	109.475	30.7617	109.252	30.7617	109.809	30.7617	109.612	30.7617	110.087	30.7617	109.927	30.7617	110.292	30.7617	110.178	30.7617	110.408	30.7617	110.349	30.7617	110.427
32.2266	106.24	32.2266	106.281	32.2266	106.242	32.2266	106.365	32.2266	106.288	32.2266	106.491	32.2266	106.378	32.2266	106.658	32.2266	106.512	32.2266	106.866	32.2266	106.691	32.2266	107.113	32.2266	106.914	32.2266	107.398	32.2266	107.18	32.2266	107.717	32.2266	107.485	32.2266	108.065	32.2266	107.827	32.2266	108.437	32.2266	108.197	32.2266	108.823	32.2266	108.586	32.2266	109.208	32.2266	108.983	32.2266	109.579	32.2266	109.371	32.2266	109.915	32.2266	109.733	32.2266	110.196	32.2266	110.049	32.2266	110.404	32.2266	110.301	32.2266	110.524	32.2266	110.47	32.2266	110.547
33.6914	106.211	33.6914	106.244	33.6914	106.22	33.6914	106.321	33.6914	106.273	33.6914	106.44	33.6914	106.37	33.6914	106.601	33.6914	106.511	33.6914	106.804	33.6914	106.697	33.6914	107.048	33.6914	106.926	33.6914	107.33	33.6914	107.197	33.6914	107.65	33.6914	107.509	33.6914	108	33.6914	107.857	33.6914	108.377	33.6914	108.233	33.6914	108.769	33.6914	108.629	33.6914	109.164	33.6914	109.031	33.6914	109.545	33.6914	109.423	33.6914	109.895	33.6914	109.788	33.6914	110.19	33.6914	110.104	33.6914	110.413	33.6914	110.352	33.6914	110.547	33.6914	110.515	33.6914	110.582
35.1563	106.209	35.1563	106.235	35.1563	106.227	35.1563	106.303	35.1563	106.288	35.1563	106.415	35.1563	106.392	35.1563	106.57	35.1563	106.539	35.1563	106.767	35.1563	106.73	35.1563	107.007	35.1563	106.964	35.1563	107.287	35.1563	107.24	35.1563	107.606	35.1563	107.555	35.1563	107.958	35.1563	107.905	35.1563	108.338	35.1563	108.283	35.1563	108.736	35.1563	108.679	35.1563	109.138	35.1563	109.081	35.1563	109.529	35.1563	109.472	35.1563	109.887	35.1563	109.834	35.1563	110.193	35.1563	110.147	35.1563	110.425	35.1563	110.391	35.1563	110.567	35.1563	110.549	35.1563	110.609
36.6211	106.153	36.6211	106.176	36.6211	106.173	36.6211	106.241	36.6211	106.235	36.6211	106.349	36.6211	106.34	36.6211	106.501	36.6211	106.488	36.6211	106.695	36.6211	106.679	36.6211	106.933	36.6211	106.912	36.6211	107.212	36.6211	107.187	36.6211	107.53	36.6211	107.502	36.6211	107.883	36.6211	107.853	36.6211	108.264	36.6211	108.232	36.6211	108.664	36.6211	108.63	36.6211	109.07	36.6211	109.035	36.6211	109.464	36.6211	109.428	36.6211	109.827	36.6211	109.792	36.6211	110.137	36.6211	110.107	36.6211	110.374	36.6211	110.351	36.6211	110.521	36.6211	110.508	36.6211	110.566
38.0859	106.045	38.0859	106.066	38.0859	106.066	38.0859	106.129	38.0859	106.129	38.0859	106.234	38.0859	106.234	38.0859	106.382	38.0859	106.382	38.0859	106.574	38.0859	106.572	38.0859	106.808	38.0859	106.805	38.0859	107.085	38.0859	107.08	38.0859	107.401	38.0859	107.396	38.0859	107.753	38.0859	107.749	38.0859	108.135	38.0859	108.131	38.0859	108.537	38.0859	108.532	38.0859	108.947	38.0859	108.941	38.0859	109.346	38.0859	109.338	38.0859	109.715	38.0859	109.706	38.0859	110.032	38.0859	110.022	38.0859	110.276	38.0859	110.267	38.0859	110.428	38.0859	110.423	38.0859	110.478
39.5508	106.002	39.5508	106.024	39.5508	106.021	39.5508	106.087	39.5508	106.08	39.5508	106.191	39.5508	106.18	39.5508	106.336	39.5508	106.323	39.5508	106.522	39.5508	106.508	39.5508	106.75	39.5508	106.737	39.5508	107.018	39.5508	107.008	39.5508	107.326	39.5508	107.321	39.5508	107.67	39.5508	107.67	39.5508	108.045	39.5508	108.05	39.5508	108.441	39.5508	108.451	39.5508	108.847	39.5508	108.858	39.5508	109.244	39.5508	109.255	39.5508	109.613	39.5508	109.622	39.5508	109.932	39.5508	109.937	39.5508	110.177	39.5508	110.18	39.5508	110.333	39.5508	110.333	39.5508	110.386
41.0156	105.813	41.0156	105.833	41.0156	105.833	41.0156	105.892	41.0156	105.894	41.0156	105.993	41.0156	105.995	41.0156	106.135	41.0156	106.137	41.0156	106.32	41.0156	106.322	41.0156	106.548	41.0156	106.551	41.0156	106.82	41.0156	106.822	41.0156	107.134	41.0156	107.136	41.0156	107.487	41.0156	107.488	41.0156	107.872	41.0156	107.873	41.0156	108.281	41.0156	108.279	41.0156	108.7	41.0156	108.694	41.0156	109.109	41.0156	109.099	41.0156	109.487	41.0156	109.474	41.0156	109.812	41.0156	109.798	41.0156	110.062	41.0156	110.05	41.0156	110.217	41.0156	110.21	41.0156	110.268
42.4805	105.638	42.4805	105.657	42.4805	105.659	42.4805	105.717	42.4805	105.72	42.4805	105.818	42.4805	105.823	42.4805	105.962	42.4805	105.967	42.4805	106.15	42.4805	106.154	42.4805	106.382	42.4805	106.384	42.4805	106.658	42.4805	106.658	42.4805	106.978	42.4805	106.975	42.4805	107.337	42.4805	107.331	42.4805	107.728	42.4805	107.719	42.4805	108.143	42.4805	108.13	42.4805	108.566	42.4805	108.55	42.4805	108.98	42.4805	108.961	42.4805	109.362	42.4805	109.341	42.4805	109.69	42.4805	109.67	42.4805	109.941	42.4805	109.925	42.4805	110.097	42.4805	110.088	42.4805	110.148
43.9453	105.593	43.9453	105.606	43.9453	105.617	43.9453	105.659	43.9453	105.68	43.9453	105.751	43.9453	105.781	43.9453	105.886	43.9453	105.922	43.9453	106.064	43.9453	106.104	43.9453	106.287	43.9453	106.328	43.9453	106.555	43.9453	106.594	43.9453	106.867	43.9453	106.904	43.9453	107.219	43.9453	107.253	43.9453	107.606	43.9453	107.636	43.9453	108.018	43.9453	108.044	43.9453	108.441	43.9453	108.463	43.9453	108.857	43.9453	108.874	43.9453	109.244	43.9453	109.256	43.9453	109.578	43.9453	109.586	43.9453	109.837	43.9453	109.841	43.9453	110.001	43.9453	110.002	43.9453	110.057
45.4102	105.537	45.4102	105.549	45.4102	105.563	45.4102	105.598	45.4102	105.626	45.4102	105.686	45.4102	105.726	45.4102	105.816	45.4102	105.864	45.4102	105.987	45.4102	106.042	45.4102	106.203	45.4102	106.261	45.4102	106.464	45.4102	106.522	45.4102	106.769	45.4102	106.825	45.4102	107.116	45.4102	107.169	45.4102	107.498	45.4102	107.547	45.4102	107.906	45.4102	107.95	45.4102	108.327	45.4102	108.365	45.4102	108.742	45.4102	108.773	45.4102	109.129	45.4102	109.153	45.4102	109.464	45.4102	109.482	45.4102	109.725	45.4102	109.735	45.4102	109.89	45.4102	109.895	45.4102	109.949
46.875	105.441	46.875	105.451	46.875	105.468	46.875	105.497	46.875	105.531	46.875	105.582	46.875	105.63	46.875	105.709	46.875	105.766	46.875	105.878	46.875	105.941	46.875	106.092	46.875	106.157	46.875	106.352	46.875	106.415	46.875	106.656	46.875	106.715	46.875	107.002	46.875	107.057	46.875	107.385	46.875	107.434	46.875	107.794	46.875	107.837	46.875	108.216	46.875	108.254	46.875	108.633	46.875	108.664	46.875	109.022	46.875	109.047	46.875	109.359	46.875	109.378	46.875	109.622	46.875	109.633	46.875	109.789	46.875	109.795	46.875	109.848
48.3398	105.456	48.3398	105.462	48.3398	105.484	48.3398	105.501	48.3398	105.545	48.3398	105.577	48.3398	105.638	48.3398	105.691	48.3398	105.766	48.3398	105.846	48.3398	105.931	48.3398	106.044	48.3398	106.134	48.3398	106.287	48.3398	106.377	48.3398	106.574	48.3398	106.663	48.3398	106.905	48.3398	106.99	48.3398	107.275	48.3398	107.354	48.3398	107.673	48.3398	107.746	48.3398	108.087	48.3398	108.153	48.3398	108.499	48.3398	108.556	48.3398	108.887	48.3398	108.934	48.3398	109.224	48.3398	109.26	48.3398	109.489	48.3398	109.513	48.3398	109.659	48.3398	109.671	48.3398	109.721
51.2695	105.35	51.2695	105.348	51.2695	105.379	51.2695	105.375	51.2695	105.435	51.2695	105.434	51.2695	105.519	51.2695	105.527	51.2695	105.632	51.2695	105.659	51.2695	105.777	51.2695	105.835	51.2695	105.958	51.2695	106.056	51.2695	106.18	51.2695	106.326	51.2695	106.444	51.2695	106.644	51.2695	106.754	51.2695	107.005	51.2695	107.106	51.2695	107.402	51.2695	107.492	51.2695	107.82	51.2695	107.898	51.2695	108.239	51.2695	108.306	51.2695	108.636	51.2695	108.691	51.2695	108.984	51.2695	109.025	51.2695	109.257	51.2695	109.285	51.2695	109.433	51.2695	109.447	51.2695	109.498
52.7344	105.189	52.7344	105.184	52.7344	105.222	52.7344	105.207	52.7344	105.282	52.7344	105.263	52.7344	105.369	52.7344	105.355	52.7344	105.485	52.7344	105.486	52.7344	105.632	52.7344	105.661	52.7344	105.815	52.7344	105.884	52.7344	106.038	52.7344	106.157	52.7344	106.305	52.7344	106.479	52.7344	106.616	52.7344	106.846	52.7344	106.969	52.7344	107.249	52.7344	107.358	52.7344	107.673	52.7344	107.768	52.7344	108.099	52.7344	108.179	52.7344	108.502	52.7344	108.567	52.7344	108.855	52.7344	108.905	52.7344	109.133	52.7344	109.166	52.7344	109.312	52.7344	109.329	52.7344	109.38
54.1992	105.229	54.1992	105.221	54.1992	105.263	54.1992	105.241	54.1992	105.323	54.1992	105.292	54.1992	105.407	54.1992	105.378	54.1992	105.519	54.1992	105.503	54.1992	105.661	54.1992	105.673	54.1992	105.837	54.1992	105.889	54.1992	106.052	54.1992	106.156	54.1992	106.31	54.1992	106.472	54.1992	106.612	54.1992	106.834	54.1992	106.958	54.1992	107.232	54.1992	107.341	54.1992	107.653	54.1992	107.746	54.1992	108.076	54.1992	108.155	54.1992	108.477	54.1992	108.542	54.1992	108.83	54.1992	108.879	54.1992	109.108	54.1992	109.141	54.1992	109.287	54.1992	109.304	54.1992	109.355
55.6641	105.314	55.6641	105.305	55.6641	105.346	55.6641	105.321	55.6641	105.4	55.6641	105.366	55.6641	105.477	55.6641	105.443	55.6641	105.579	55.6641	105.558	55.6641	105.708	55.6641	105.714	55.6641	105.87	55.6641	105.917	55.6641	106.069	55.6641	106.168	55.6641	106.31	55.6641	106.47	55.6641	106.596	55.6641	106.818	55.6641	106.928	55.6641	107.204	55.6641	107.298	55.6641	107.615	55.6641	107.694	55.6641	108.03	55.6641	108.097	55.6641	108.426	55.6641	108.48	55.6641	108.775	55.6641	108.816	55.6641	109.049	55.6641	109.077	55.6641	109.227	55.6641	109.241	55.6641	109.293
58.5938	105.333	58.5938	105.318	58.5938	105.365	58.5938	105.324	58.5938	105.413	58.5938	105.353	58.5938	105.479	58.5938	105.41	58.5938	105.564	58.5938	105.501	58.5938	105.673	58.5938	105.631	58.5938	105.809	58.5938	105.806	58.5938	105.981	58.5938	106.031	58.5938	106.195	58.5938	106.308	58.5938	106.456	58.5938	106.636	58.5938	106.767	58.5938	107.007	58.5938	107.122	58.5938	107.409	58.5938	107.51	58.5938	107.821	58.5938	107.908	58.5938	108.217	58.5938	108.291	58.5938	108.569	58.5938	108.627	58.5938	108.849	58.5938	108.889	58.5938	109.032	58.5938	109.052	58.5938	109.101
60.0586	105.354	60.0586	105.336	60.0586	105.387	60.0586	105.336	60.0586	105.435	60.0586	105.357	60.0586	105.498	60.0586	105.405	60.0586	105.579	60.0586	105.483	60.0586	105.68	60.0586	105.6	60.0586	105.809	60.0586	105.762	60.0586	105.972	60.0586	105.974	60.0586	106.177	60.0586	106.24	60.0586	106.431	60.0586	106.559	60.0586	106.734	60.0586	106.926	60.0586	107.084	60.0586	107.326	60.0586	107.467	60.0586	107.739	60.0586	107.863	60.0586	108.139	60.0586	108.244	60.0586	108.496	60.0586	108.579	60.0586	108.782	60.0586	108.839	60.0586	108.97	60.0586	109	60.0586	109.045
62.9883	105.537	62.9883	105.509	62.9883	105.576	62.9883	105.493	62.9883	105.623	62.9883	105.492	62.9883	105.679	62.9883	105.513	62.9883	105.746	62.9883	105.562	62.9883	105.828	62.9883	105.646	62.9883	105.931	62.9883	105.774	62.9883	106.064	62.9883	105.954	62.9883	106.235	62.9883	106.192	62.9883	106.454	62.9883	106.489	62.9883	106.724	62.9883	106.839	62.9883	107.045	62.9883	107.229	62.9883	107.406	62.9883	107.639	62.9883	107.786	62.9883	108.039	62.9883	108.157	62.9883	108.399	62.9883	108.488	62.9883	108.687	62.9883	108.746	62.9883	108.877	62.9883	108.907	62.9883	108.952
64.4531	105.502	64.4531	105.466	64.4531	105.543	64.4531	105.439	64.4531	105.589	64.4531	105.424	64.4531	105.64	64.4531	105.428	64.4531	105.697	64.4531	105.457	64.4531	105.766	64.4531	105.522	64.4531	105.853	64.4531	105.631	64.4531	105.966	64.4531	105.796	64.4531	106.117	64.4531	106.022	64.4531	106.315	64.4531	106.313	64.4531	106.568	64.4531	106.662	64.4531	106.876	64.4531	107.055	64.4531	107.229	64.4531	107.468	64.4531	107.607	64.4531	107.874	64.4531	107.981	64.4531	108.238	64.4531	108.316	64.4531	108.529	64.4531	108.581	64.4531	108.721	64.4531	108.746	64.4531	108.795
67.3828	105.6	67.3828	105.575	67.3828	105.628	67.3828	105.555	67.3828	105.657	67.3828	105.543	67.3828	105.688	67.3828	105.547	67.3828	105.724	67.3828	105.573	67.3828	105.769	67.3828	105.631	67.3828	105.831	67.3828	105.731	67.3828	105.921	67.3828	105.884	67.3828	106.052	67.3828	106.096	67.3828	106.235	67.3828	106.371	67.3828	106.48	67.3828	106.705	67.3828	106.787	67.3828	107.085	67.3828	107.147	67.3828	107.487	67.3828	107.537	67.3828	107.884	67.3828	107.925	67.3828	108.242	67.3828	108.275	67.3828	108.528	67.3828	108.552	67.3828	108.715	67.3828	108.727	67.3828	108.784
68.8477	105.63	68.8477	105.603	68.8477	105.659	68.8477	105.579	68.8477	105.688	68.8477	105.563	68.8477	105.718	68.8477	105.559	68.8477	105.753	68.8477	105.577	68.8477	105.795	68.8477	105.623	68.8477	105.853	68.8477	105.711	68.8477	105.938	68.8477	105.849	68.8477	106.062	68.8477	106.046	68.8477	106.237	68.8477	106.308	68.8477	106.473	68.8477	106.632	68.8477	106.772	68.8477	107.004	68.8477	107.123	68.8477	107.404	68.8477	107.505	68.8477	107.801	68.8477	107.885	68.8477	108.161	68.8477	108.228	68.8477	108.452	68.8477	108.499	68.8477	108.645	68.8477	108.669	68.8477	108.719
71.7773	105.694	71.7773	105.658	71.7773	105.727	71.7773	105.621	71.7773	105.755	71.7773	105.586	71.7773	105.779	71.7773	105.558	71.7773	105.801	71.7773	105.544	71.7773	105.824	71.7773	105.554	71.7773	105.857	71.7773	105.599	71.7773	105.907	71.7773	105.692	71.7773	105.99	71.7773	105.844	71.7773	106.118	71.7773	106.064	71.7773	106.306	71.7773	106.351	71.7773	106.558	71.7773	106.696	71.7773	106.868	71.7773	107.076	71.7773	107.217	71.7773	107.462	71.7773	107.574	71.7773	107.817	71.7773	107.902	71.7773	108.106	71.7773	108.164	71.7773	108.299	71.7773	108.328	71.7773	108.375
74.707	105.84	74.707	105.799	74.707	105.87	74.707	105.749	74.707	105.889	74.707	105.693	74.707	105.896	74.707	105.636	74.707	105.893	74.707	105.585	74.707	105.884	74.707	105.551	74.707	105.877	74.707	105.545	74.707	105.881	74.707	105.585	74.707	105.912	74.707	105.685	74.707	105.987	74.707	105.856	74.707	106.123	74.707	106.105	74.707	106.331	74.707	106.421	74.707	106.608	74.707	106.785	74.707	106.936	74.707	107.163	74.707	107.282	74.707	107.517	74.707	107.606	74.707	107.808	74.707	107.868	74.707	108.003	74.707	108.034	74.707	108.081
77.6367	105.999	77.6367	105.951	77.6367	106.03	77.6367	105.889	77.6367	106.044	77.6367	105.815	77.6367	106.042	77.6367	105.734	77.6367	106.023	77.6367	105.653	77.6367	105.993	77.6367	105.581	77.6367	105.956	77.6367	105.532	77.6367	105.925	77.6367	105.525	77.6367	105.914	77.6367	105.579	77.6367	105.945	77.6367	105.709	77.6367	106.036	77.6367	105.924	77.6367	106.204	77.6367	106.219	77.6367	106.449	77.6367	106.573	77.6367	106.755	77.6367	106.951	77.6367	107.09	77.6367	107.31	77.6367	107.41	77.6367	107.607	77.6367	107.672	77.6367	107.807	77.6367	107.839	77.6367	107.887
79.1016	106.045	79.1016	105.992	79.1016	106.079	79.1016	105.92	79.1016	106.093	79.1016	105.834	79.1016	106.087	79.1016	105.737	79.1016	106.061	79.1016	105.637	79.1016	106.02	79.1016	105.542	79.1016	105.968	79.1016	105.469	79.1016	105.918	79.1016	105.436	79.1016	105.885	79.1016	105.465	79.1016	105.891	79.1016	105.575	79.1016	105.957	79.1016	105.777	79.1016	106.103	79.1016	106.067	79.1016	106.33	79.1016	106.423	79.1016	106.626	79.1016	106.806	79.1016	106.956	79.1016	107.172	79.1016	107.276	79.1016	107.475	79.1016	107.541	79.1016	107.678	79.1016	107.71	79.1016	107.759
82.0313	106.033	82.0313	105.967	82.0313	106.072	82.0313	105.875	82.0313	106.083	82.0313	105.76	82.0313	106.065	82.0313	105.626	82.0313	106.019	82.0313	105.48	82.0313	105.948	82.0313	105.333	82.0313	105.857	82.0313	105.204	82.0313	105.758	82.0313	105.115	82.0313	105.669	82.0313	105.094	82.0313	105.616	82.0313	105.167	82.0313	105.626	82.0313	105.349	82.0313	105.726	82.0313	105.635	82.0313	105.924	82.0313	105.999	82.0313	106.209	82.0313	106.397	82.0313	106.542	82.0313	106.778	82.0313	106.874	82.0313	107.093	82.0313	107.151	82.0313	107.304	82.0313	107.331	82.0313	107.385
84.9609	105.993	84.9609	105.923	84.9609	106.03	84.9609	105.821	84.9609	106.033	84.9609	105.689	84.9609	106.002	84.9609	105.532	84.9609	105.938	84.9609	105.358	84.9609	105.844	84.9609	105.178	84.9609	105.725	84.9609	105.014	84.9609	105.595	84.9609	104.892	84.9609	105.474	84.9609	104.843	84.9609	105.389	84.9609	104.895	84.9609	105.374	84.9609	105.066	84.9609	105.457	84.9609	105.35	84.9609	105.65	84.9609	105.717	84.9609	105.937	84.9609	106.122	84.9609	106.278	84.9609	106.51	84.9609	106.618	84.9609	106.833	84.9609	106.9	84.9609	107.049	84.9609	107.082	84.9609	107.135
87.8906	106.018	87.8906	105.946	87.8906	106.055	87.8906	105.84	87.8906	106.055	87.8906	105.702	87.8906	106.019	87.8906	105.535	87.8906	105.946	87.8906	105.347	87.8906	105.84	87.8906	105.152	87.8906	105.706	87.8906	104.967	87.8906	105.554	87.8906	104.822	87.8906	105.406	87.8906	104.746	87.8906	105.288	87.8906	104.771	87.8906	105.236	87.8906	104.914	87.8906	105.281	87.8906	105.172	87.8906	105.44	87.8906	105.517	87.8906	105.701	87.8906	105.904	87.8906	106.024	87.8906	106.277	87.8906	106.354	87.8906	106.587	87.8906	106.633	87.8906	106.794	87.8906	106.816	87.8906	106.873
90.8203	106.275	90.8203	106.208	90.8203	106.303	90.8203	106.102	90.8203	106.291	90.8203	105.959	90.8203	106.24	90.8203	105.782	90.8203	106.147	90.8203	105.577	90.8203	106.015	90.8203	105.353	90.8203	105.847	90.8203	105.129	90.8203	105.654	90.8203	104.93	90.8203	105.453	90.8203	104.787	90.8203	105.273	90.8203	104.734	90.8203	105.151	90.8203	104.795	90.8203	105.126	90.8203	104.976	90.8203	105.22	90.8203	105.256	90.8203	105.429	90.8203	105.595	90.8203	105.714	90.8203	105.937	90.8203	106.019	90.8203	106.23	90.8203	106.283	90.8203	106.43	90.8203	106.457	90.8203	106.509
95.2148	106.366	95.2148	106.286	95.2148	106.399	95.2148	106.158	95.2148	106.383	95.2148	105.983	95.2148	106.317	95.2148	105.763	95.2148	106.2	95.2148	105.5	95.2148	106.03	95.2148	105.203	95.2148	105.809	95.2148	104.886	95.2148	105.546	95.2148	104.576	95.2148	105.257	95.2148	104.308	95.2148	104.973	95.2148	104.128	95.2148	104.738	95.2148	104.075	95.2148	104.601	95.2148	104.173	95.2148	104.6	95.2148	104.41	95.2148	104.741	95.2148	104.738	95.2148	104.988	95.2148	105.094	95.2148	105.274	95.2148	105.411	95.2148	105.529	95.2148	105.635	95.2148	105.694	95.2148	105.734
98.1445	106.421	98.1445	106.334	98.1445	106.455	98.1445	106.192	98.1445	106.433	98.1445	105.996	98.1445	106.355	98.1445	105.745	98.1445	106.218	98.1445	105.442	98.1445	106.02	98.1445	105.093	98.1445	105.762	98.1445	104.71	98.1445	105.451	98.1445	104.321	98.1445	105.103	98.1445	103.964	98.1445	104.748	98.1445	103.694	98.1445	104.436	98.1445	103.565	98.1445	104.223	98.1445	103.612	98.1445	104.161	98.1445	103.829	98.1445	104.263	98.1445	104.164	98.1445	104.492	98.1445	104.54	98.1445	104.776	98.1445	104.881	98.1445	105.034	98.1445	105.126	98.1445	105.201	98.1445	105.236
101.074	106.392	101.074	106.298	101.074	106.427	101.074	106.145	101.074	106.402	101.074	105.933	101.074	106.315	101.074	105.659	101.074	106.164	101.074	105.326	101.074	105.945	101.074	104.937	101.074	105.66	101.074	104.507	101.074	105.311	101.074	104.062	101.074	104.916	101.074	103.643	101.074	104.506	101.074	103.312	101.074	104.13	101.074	103.132	101.074	103.857	101.074	103.148	101.074	103.745	101.074	103.355	101.074	103.816	101.074	103.697	101.074	104.035	101.074	104.087	101.074	104.324	101.074	104.441	101.074	104.592	101.074	104.695	101.074	104.768	101.074	104.808
105.469	106.411	105.469	106.312	105.469	106.442	105.469	106.142	105.469	106.403	105.469	105.9	105.469	106.291	105.469	105.584	105.469	106.104	105.469	105.192	105.469	105.837	105.469	104.728	105.469	105.488	105.469	104.203	105.469	105.061	105.469	103.641	105.469	104.57	105.469	103.09	105.469	104.048	105.469	102.619	105.469	103.553	105.469	102.316	105.469	103.168	105.469	102.248	105.469	102.972	105.469	102.422	105.469	103.002	105.469	102.773	105.469	103.216	105.469	103.197	105.469	103.518	105.469	103.59	105.469	103.8	105.469	103.877	105.469	103.981	105.469	104.012
108.398	106.445	108.398	106.343	108.398	106.476	108.398	106.167	108.398	106.435	108.398	105.916	108.398	106.319	108.398	105.586	108.398	106.124	108.398	105.175	108.398	105.844	108.398	104.681	108.398	105.478	108.398	104.114	108.398	105.026	108.398	103.494	108.398	104.501	108.398	102.867	108.398	103.934	108.398	102.305	108.398	103.384	108.398	101.91	108.398	102.94	108.398	101.769	108.398	102.691	108.398	101.907	108.398	102.682	108.398	102.259	108.398	102.872	108.398	102.707	108.398	103.161	108.398	103.133	108.398	103.433	108.398	103.451	108.398	103.601	108.398	103.612
112.793	106.386	112.793	106.271	112.793	106.424	112.793	106.079	112.793	106.385	112.793	105.805	112.793	106.266	112.793	105.444	112.793	106.062	112.793	104.989	112.793	105.766	112.793	104.436	112.793	105.374	112.793	103.786	112.793	104.883	112.793	103.054	112.793	104.303	112.793	102.281	112.793	103.663	112.793	101.548	112.793	103.023	112.793	100.985	112.793	102.478	112.793	100.727	112.793	102.136	112.793	100.835	112.793	102.059	112.793	101.234	112.793	102.215	112.793	101.766	112.793	102.489	112.793	102.279	112.793	102.752	112.793	102.668	112.793	102.902	112.793	102.881
117.188	106.183	117.188	106.035	117.188	106.245	117.188	105.8	117.188	106.222	117.188	105.474	117.188	106.109	117.188	105.049	117.188	105.901	117.188	104.516	117.188	105.591	117.188	103.867	117.188	105.173	117.188	103.1	117.188	104.642	117.188	102.227	117.188	104.006	117.188	101.295	117.188	103.29	117.188	100.414	117.188	102.554	117.188	99.7636	117.188	101.901	117.188	99.5353	117.188	101.461	117.188	99.7796	117.188	101.323	117.188	100.349	117.188	101.465	117.188	101.018	117.188	101.761	117.188	101.614	117.188	102.061	117.188	102.038	117.188	102.248	117.188	102.251
120.117	106.245	120.117	106.103	120.117	106.298	120.117	105.871	120.117	106.261	120.117	105.542	120.117	106.132	120.117	105.111	120.117	105.904	120.117	104.57	120.117	105.571	120.117	103.913	120.117	105.126	120.117	103.138	120.117	104.565	120.117	102.265	120.117	103.892	120.117	101.343	120.117	103.132	120.117	100.481	120.117	102.34	120.117	99.8479	120.117	101.622	120.117	99.6091	120.117	101.115	120.117	99.8004	120.117	100.924	120.117	100.286	120.117	101.038	120.117	100.867	120.117	101.332	120.117	101.383	120.117	101.648	120.117	101.743	120.117	101.862	120.117	101.904
124.512	106.449	124.512	106.304	124.512	106.504	124.512	106.066	124.512	106.466	124.512	105.731	124.512	106.332	124.512	105.292	124.512	106.096	124.512	104.739	124.512	105.75	124.512	104.065	124.512	105.283	124.512	103.264	124.512	104.689	124.512	102.345	124.512	103.965	124.512	101.34	124.512	103.127	124.512	100.331	124.512	102.221	124.512	99.4716	124.512	101.347	124.512	98.9561	124.512	100.654	124.512	98.9031	124.512	100.285	124.512	99.2433	124.512	100.267	124.512	99.7754	124.512	100.48	124.512	100.304	124.512	100.744	124.512	100.703	124.512	100.915	124.512	100.912
128.906	106.559	128.906	106.407	128.906	106.615	128.906	106.159	128.906	106.575	128.906	105.808	128.906	106.434	128.906	105.347	128.906	106.185	128.906	104.766	128.906	105.818	128.906	104.052	128.906	105.322	128.906	103.193	128.906	104.684	128.906	102.184	128.906	103.896	128.906	101.037	128.906	102.963	128.906	99.8075	128.906	101.921	128.906	98.6358	128.906	100.862	128.906	97.7725	128.906	99.9528	128.906	97.4714	128.906	99.3892	128.906	97.7513	128.906	99.2538	128.906	98.3614	128.906	99.4267	128.906	99.0123	128.906	99.6858	128.906	99.5207	128.906	99.8464	128.906	99.8041
133.301	106.628	133.301	106.478	133.301	106.678	133.301	106.226	133.301	106.626	133.301	105.866	133.301	106.469	133.301	105.388	133.301	106.197	133.301	104.78	133.301	105.8	133.301	104.024	133.301	105.262	133.301	103.1	133.301	104.568	133.301	101.991	133.301	103.704	133.301	100.685	133.301	102.664	133.301	99.2093	133.301	101.475	133.301	97.6882	133.301	100.224	133.301	96.4365	133.301	99.1041	133.301	95.9036	133.301	98.3801	133.301	96.2286	133.301	98.1964	133.301	97.0349	133.301	98.4108	133.301	97.8785	133.301	98.7315	133.301	98.5196	133.301	98.9264	133.301	98.8716
139.16	106.543	139.16	106.375	139.16	106.607	139.16	106.1	139.16	106.565	139.16	105.711	139.16	106.412	139.16	105.195	139.16	106.139	139.16	104.536	139.16	105.734	139.16	103.711	139.16	105.179	139.16	102.69	139.16	104.455	139.16	101.437	139.16	103.544	139.16	99.9193	139.16	102.433	139.16	98.1282	139.16	101.142	139.16	96.1726	139.16	99.754	139.16	94.4962	139.16	98.4832	139.16	93.9178	139.16	97.6552	139.16	94.6425	139.16	97.4649	139.16	95.8914	139.16	97.7372	139.16	97.0278	139.16	98.1158	139.16	97.8305	139.16	98.3349	139.16	98.2598
143.555	106.67	143.555	106.485	143.555	106.745	143.555	106.188	143.555	106.71	143.555	105.77	143.555	106.559	143.555	105.22	143.555	106.285	143.555	104.521	143.555	105.876	143.555	103.649	143.555	105.315	143.555	102.574	143.555	104.584	143.555	101.262	143.555	103.662	143.555	99.6776	143.555	102.536	143.555	97.8173	143.555	101.215	143.555	95.8047	143.555	99.7704	143.555	94.1238	143.555	98.3989	143.555	93.6117	143.555	97.4319	143.555	94.3878	143.555	97.1174	143.555	95.6292	143.555	97.3268	143.555	96.7301	143.555	97.695	143.555	97.4925	143.555	97.9309	143.555	97.8851
147.949	106.75	147.949	106.574	147.949	106.816	147.949	106.284	147.949	106.769	147.949	105.873	147.949	106.606	147.949	105.329	147.949	106.319	147.949	104.635	147.949	105.894	147.949	103.77	147.949	105.316	147.949	102.705	147.949	104.561	147.949	101.402	147.949	103.608	147.949	99.8218	147.949	102.433	147.949	97.9338	147.949	101.029	147.949	95.78	147.949	99.4366	147.949	93.6725	147.949	97.8107	147.949	92.454	147.949	96.4891	147.949	92.7642	147.949	95.8475	147.949	93.9282	147.949	95.8827	147.949	95.0897	147.949	96.1991	147.949	95.9199	147.949	96.4225	147.949	96.3567
153.809	106.685	153.809	106.509	153.809	106.746	153.809	106.215	153.809	106.691	153.809	105.795	153.809	106.515	153.809	105.238	153.809	106.209	153.809	104.524	153.809	105.759	153.809	103.628	153.809	105.145	153.809	102.515	153.809	104.342	153.809	101.137	153.809	103.32	153.809	99.4297	153.809	102.043	153.809	97.3144	153.809	100.484	153.809	94.7282	153.809	98.6496	153.809	91.8452	153.809	96.6704	153.809	89.8493	153.809	94.9563	153.809	90.3613	153.809	94.1301	153.809	92.1444	153.809	94.289	153.809	93.7084	153.809	94.8276	153.809	94.7267	153.809	95.2124	153.809	95.2095
159.668	106.494	159.668	106.328	159.668	106.549	159.668	106.046	159.668	106.49	159.668	105.642	159.668	106.313	159.668	105.102	159.668	106.009	159.668	104.409	159.668	105.562	159.668	103.538	159.668	104.953	159.668	102.456	159.668	104.155	159.668	101.118	159.668	103.134	159.668	99.463	159.668	101.856	159.668	97.4087	159.668	100.285	159.668	94.8647	159.668	98.4189	159.668	91.8597	159.668	96.3672	159.668	89.2092	159.668	94.5162	159.668	89.0067	159.668	93.5214	159.668	90.7785	159.668	93.5673	159.668	92.5284	159.668	94.047	159.668	93.7044	159.668	94.3779	159.668	94.2989
165.527	106.468	165.527	106.282	165.527	106.538	165.527	105.977	165.527	106.491	165.527	105.548	165.527	106.322	165.527	104.981	165.527	106.02	165.527	104.259	165.527	105.573	165.527	103.356	165.527	104.959	165.527	102.238	165.527	104.153	165.527	100.855	165.527	103.119	165.527	99.138	165.527	101.817	165.527	96.9873	165.527	100.203	165.527	94.2669	165.527	98.2524	165.527	90.8849	165.527	96.0261	165.527	87.5571	165.527	93.8633	165.527	87.2567	165.527	92.5302	165.527	89.5071	165.527	92.4616	165.527	91.5247	165.527	93.0082	165.527	92.7973	165.527	93.4281	165.527	93.3992
171.387	106.637	171.387	106.47	171.387	106.692	171.387	106.19	171.387	106.634	171.387	105.79	171.387	106.456	171.387	105.26	171.387	106.15	171.387	104.584	171.387	105.701	171.387	103.741	171.387	105.089	171.387	102.701	171.387	104.287	171.387	101.423	171.387	103.261	171.387	99.8506	171.387	101.966	171.387	97.9055	171.387	100.354	171.387	95.4743	171.387	98.3822	171.387	92.4175	171.387	96.0587	171.387	88.7847	171.387	93.601	171.387	86.1479	171.387	91.7029	171.387	87.1158	171.387	91.1266	171.387	89.2917	171.387	91.4625	171.387	90.8509	171.387	91.7927	171.387	91.649
177.246	106.695	177.246	106.521	177.246	106.753	177.246	106.231	177.246	106.696	177.246	105.818	177.246	106.517	177.246	105.272	177.246	106.209	177.246	104.578	177.246	105.757	177.246	103.715	177.246	105.14	177.246	102.654	177.246	104.331	177.246	101.352	177.246	103.294	177.246	99.7543	177.246	101.984	177.246	97.7736	177.246	100.35	177.246	95.2745	177.246	98.3458	177.246	92.0363	177.246	95.9856	177.246	87.8034	177.246	93.5074	177.246	83.8289	177.246	91.6431	177.246	85.1829	177.246	91.1154	177.246	88.247	177.246	91.4208	177.246	90.2659	177.246	91.6421	177.246	91.3264
183.105	106.628	183.105	106.458	183.105	106.688	183.105	106.178	183.105	106.637	183.105	105.78	183.105	106.47	183.105	105.258	183.105	106.177	183.105	104.595	183.105	105.745	183.105	103.775	183.105	105.156	183.105	102.77	183.105	104.385	183.105	101.547	183.105	103.401	183.105	100.057	183.105	102.163	183.105	98.2337	183.105	100.628	183.105	95.9745	183.105	98.7481	183.105	93.1165	183.105	96.5021	183.105	89.4101	183.105	93.9692	183.105	84.8061	183.105	91.5176	183.105	82.3432	183.105	89.8746	183.105	84.7899	183.105	89.3129	183.105	87.2109	183.105	89.1245	183.105	88.5661
188.965	107.007	188.965	106.824	188.965	107.08	188.965	106.53	188.965	107.039	188.965	106.12	188.965	106.881	188.965	105.584	188.965	106.596	188.965	104.911	188.965	106.171	188.965	104.081	188.965	105.586	188.965	103.069	188.965	104.817	188.965	101.842	188.965	103.829	188.965	100.358	188.965	102.58	188.965	98.5547	188.965	101.016	188.965	96.3444	188.965	99.0754	188.965	93.579	188.965	96.6929	188.965	89.9858	188.965	93.8475	188.965	85.0271	188.965	90.7245	188.965	78.7103	188.965	88.0747	188.965	79.7743	188.965	86.8167	188.965	83.6059	188.965	86.3955	188.965	85.5924
196.289	106.825	196.289	106.665	196.289	106.881	196.289	106.4	196.289	106.829	196.289	106.026	196.289	106.663	196.289	105.539	196.289	106.374	196.289	104.926	196.289	105.947	196.289	104.172	196.289	105.364	196.289	103.256	196.289	104.597	196.289	102.148	196.289	103.614	196.289	100.806	196.289	102.37	196.289	99.1754	196.289	100.809	196.289	97.1709	196.289	98.8589	196.289	94.6578	196.289	96.4298	196.289	91.3875	196.289	93.4232	196.289	86.7951	196.289	89.8238	196.289	78.9436	196.289	86.1403	196.289	63.6071	196.289	83.9625	196.289	78.9871	196.289	83.422	196.289	82.407
203.613	106.845	203.613	106.642	203.613	106.939	203.613	106.331	203.613	106.921	203.613	105.908	203.613	106.785	203.613	105.367	203.613	106.521	203.613	104.696	203.613	106.117	203.613	103.877	203.613	105.555	203.613	102.889	203.613	104.807	203.613	101.699	203.613	103.842	203.613	100.267	203.613	102.614	203.613	98.5337	203.613	101.067	203.613	96.4118	203.613	99.1252	203.613	93.7577	203.613	96.6885	203.613	90.302	203.613	93.6275	203.613	85.4293	203.613	89.8193	203.613	77.1925	203.613	85.4987	203.613	71.9577	203.613	82.52	203.613	79.3671	203.613	82.1885	203.613	81.8059
210.938	107.07	210.938	106.881	210.938	107.146	210.938	106.58	210.938	107.108	210.938	106.162	210.938	106.95	210.938	105.621	210.938	106.663	210.938	104.944	210.938	106.236	210.938	104.113	210.938	105.648	210.938	103.105	210.938	104.874	210.938	101.885	210.938	103.875	210.938	100.41	210.938	102.602	210.938	98.6205	210.938	100.988	210.938	96.4229	210.938	98.9431	210.938	93.6609	210.938	96.3446	210.938	90.0263	210.938	93.0287	210.938	84.7638	210.938	88.8719	210.938	75.3457	210.938	84.5747	210.938	75.4663	210.938	83.1157	210.938	81.5379	210.938	83.8139	210.938	83.6486
218.262	106.81	218.262	106.636	218.262	106.889	218.262	106.366	218.262	106.869	218.262	105.998	218.262	106.745	218.262	105.526	218.262	106.506	218.262	104.942	218.262	106.14	218.262	104.231	218.262	105.628	218.262	103.376	218.262	104.95	218.262	102.357	218.262	104.074	218.262	101.143	218.262	102.966	218.262	99.6998	218.262	101.581	218.262	97.9723	218.262	99.8721	218.262	95.8792	218.262	97.7846	218.262	93.2874	218.262	95.2758	218.262	89.9609	218.262	92.3536	218.262	85.4404	218.262	89.1758	218.262	78.9914	218.262	86.129	218.262	75.8971	218.262	83.4247	218.262	80.3005
225.586	106.575	225.586	106.326	225.586	106.73	225.586	105.988	225.586	106.785	225.586	105.561	225.586	106.731	225.586	105.044	225.586	106.559	225.586	104.431	225.586	106.256	225.586	103.713	225.586	105.804	225.586	102.877	225.586	105.181	225.586	101.908	225.586	104.357	225.586	100.791	225.586	103.295	225.586	99.512	225.586	101.945	225.586	98.0552	225.586	100.248	225.586	96.4041	225.586	98.125	225.586	94.5378	225.586	95.4729	225.586	92.4292	225.586	92.1349	225.586	90.0415	225.586	87.8423	225.586	87.3118	225.586	82.1463	225.586	84.0715	225.586	76.7811	225.586	79.907
232.91	106.676	232.91	106.4	232.91	106.838	232.91	106.012	232.91	106.88	232.91	105.515	232.91	106.799	232.91	104.908	232.91	106.587	232.91	104.182	232.91	106.239	232.91	103.327	232.91	105.741	232.91	102.322	232.91	105.079	232.91	101.142	232.91	104.225	232.91	99.7567	232.91	103.147	232.91	98.1337	232.91	101.793	232.91	96.2463	232.91	100.097	232.91	94.0904	232.91	97.9589	232.91	91.7266	232.91	95.221	232.91	89.3546	232.91	91.5975	232.91	87.3165	232.91	86.4376	232.91	85.7585	232.91	77.7199	232.91	84.1815	232.91	74.832	232.91	81.4168
241.699	106.359	241.699	106.106	241.699	106.501	241.699	105.74	241.699	106.529	241.699	105.262	241.699	106.441	241.699	104.67	241.699	106.234	241.699	103.958	241.699	105.898	241.699	103.115	241.699	105.419	241.699	102.129	241.699	104.777	241.699	100.98	241.699	103.938	241.699	99.6447	241.699	102.86	241.699	98.0937	241.699	101.48	241.699	96.2853	241.699	99.7149	241.699	94.1604	241.699	97.443	241.699	91.6427	241.699	94.4776	241.699	88.6827	241.699	90.5032	241.699	85.4852	241.699	84.9762	241.699	83.0211	241.699	78.4916	241.699	82.1136	241.699	79.1352	241.699	81.3699
250.488	106.172	250.488	105.897	250.488	106.313	250.488	105.49	250.488	106.32	250.488	104.954	250.488	106.189	250.488	104.29	250.488	105.919	250.488	103.5	250.488	105.506	250.488	102.582	250.488	104.94	250.488	101.53	250.488	104.212	250.488	100.335	250.488	103.303	250.488	98.9808	250.488	102.194	250.488	97.4436	250.488	100.856	250.488	95.6947	250.488	99.2548	250.488	93.701	250.488	97.3389	250.488	91.4319	250.488	95.0286	250.488	88.8728	250.488	92.1916	250.488	86.0365	250.488	88.5941	250.488	82.8977	250.488	83.7833	250.488	79.0856	250.488	77.0147	250.488	74.0772
259.277	106.598	259.277	106.395	259.277	106.684	259.277	106.07	259.277	106.657	259.277	105.615	259.277	106.519	259.277	105.017	259.277	106.266	259.277	104.261	259.277	105.892	259.277	103.324	259.277	105.383	259.277	102.18	259.277	104.718	259.277	100.798	259.277	103.867	259.277	99.1411	259.277	102.79	259.277	97.1662	259.277	101.438	259.277	94.8228	259.277	99.7512	259.277	92.0501	259.277	97.6481	259.277	88.7869	259.277	95.0153	259.277	85.0492	259.277	91.6661	259.277	81.2406	259.277	87.2316	259.277	78.3699	259.277	80.7336	259.277	76.0982	259.277	66.6502	259.277	70.6115
268.066	106.495	268.066	106.343	268.066	106.551	268.066	106.098	268.066	106.509	268.066	105.76	268.066	106.366	268.066	105.325	268.066	106.116	268.066	104.786	268.066	105.754	268.066	104.126	268.066	105.268	268.066	103.327	268.066	104.642	268.066	102.367	268.066	103.851	268.066	101.222	268.066	102.866	268.066	99.8732	268.066	101.647	268.066	98.3037	268.066	100.143	268.066	96.504	268.066	98.2916	268.066	94.4747	268.066	96.0164	268.066	92.2367	268.066	93.2356	268.066	89.851	268.066	89.909	268.066	87.4376	268.066	86.2715	268.066	85.1775	268.066	83.5557	268.066	83.4651
276.855	106.002	276.855	105.678	276.855	106.219	276.855	105.248	276.855	106.331	276.855	104.71	276.855	106.335	276.855	104.068	276.855	106.229	276.855	103.326	276.855	106.002	276.855	102.491	276.855	105.639	276.855	101.569	276.855	105.116	276.855	100.566	276.855	104.403	276.855	99.4833	276.855	103.465	276.855	98.3122	276.855	102.258	276.855	97.0307	276.855	100.729	276.855	95.6077	276.855	98.8066	276.855	94.0157	276.855	96.384	276.855	92.2521	276.855	93.2849	276.855	90.3521	276.855	89.2054	276.855	88.3394	276.855	83.8343	276.855	86.0614	276.855	80.2037	276.855	83.0609
287.109	106.605	287.109	106.382	287.109	106.704	287.109	106.029	287.109	106.686	287.109	105.542	287.109	106.564	287.109	104.915	287.109	106.35	287.109	104.144	287.109	106.051	287.109	103.221	287.109	105.669	287.109	102.133	287.109	105.191	287.109	100.868	287.109	104.586	287.109	99.4104	287.109	103.809	287.109	97.7548	287.109	102.801	287.109	95.9171	287.109	101.497	287.109	93.9613	287.109	99.8188	287.109	92.021	287.109	97.6782	287.109	90.2714	287.109	94.9553	287.109	88.7895	287.109	91.4858	287.109	87.3992	287.109	87.1853	287.109	85.7167	287.109	83.3514	287.109	83.6195
297.363	106.534	297.363	106.428	297.363	106.515	297.363	106.193	297.363	106.373	297.363	105.828	297.363	106.117	297.363	105.326	297.363	105.762	297.363	104.674	297.363	105.324	297.363	103.85	297.363	104.818	297.363	102.83	297.363	104.256	297.363	101.586	297.363	103.631	297.363	100.088	297.363	102.914	297.363	98.3054	297.363	102.044	297.363	96.1946	297.363	100.928	297.363	93.6881	297.363	99.4502	297.363	90.6833	297.363	97.4643	297.363	87.0784	297.363	94.7814	297.363	83.0117	297.363	91.1053	297.363	79.3563	297.363	85.8306	297.363	76.0983	297.363	77.1071	297.363	68.2462
307.617	105.952	307.617	105.765	307.617	106.03	307.617	105.47	307.617	105.999	307.617	105.064	307.617	105.858	307.617	104.544	307.617	105.608	307.617	103.901	307.617	105.246	307.617	103.123	307.617	104.768	307.617	102.2	307.617	104.165	307.617	101.133	307.617	103.424	307.617	99.9384	307.617	102.535	307.617	98.6522	307.617	101.485	307.617	97.3206	307.617	100.267	307.617	95.9743	307.617	98.8783	307.617	94.608	307.617	97.3157	307.617	93.1949	307.617	95.5813	307.617	91.7434	307.617	93.7006	307.617	90.3741	307.617	91.7847	307.617	89.3901	307.617	90.1333	307.617	89.2344
319.336	105.201	319.336	105.141	319.336	105.177	319.336	104.989	319.336	105.079	319.336	104.734	319.336	104.915	319.336	104.363	319.336	104.691	319.336	103.856	319.336	104.413	319.336	103.179	319.336	104.089	319.336	102.284	319.336	103.722	319.336	101.103	319.336	103.301	319.336	99.5608	319.336	102.794	319.336	97.5704	319.336	102.138	319.336	95.0645	319.336	101.239	319.336	92.1088	319.336	99.9861	319.336	89.2941	319.336	98.2548	319.336	87.9154	319.336	95.921	319.336	87.9992	319.336	92.9018	319.336	88.1815	319.336	89.4183	319.336	87.7699	319.336	86.8871	319.336	86.8755
329.59	105.475	329.59	105.407	329.59	105.443	329.59	105.246	329.59	105.306	329.59	105	329.59	105.067	329.59	104.667	329.59	104.735	329.59	104.232	329.59	104.331	329.59	103.664	329.59	103.873	329.59	102.919	329.59	103.38	329.59	101.939	329.59	102.851	329.59	100.662	329.59	102.258	329.59	99.016	329.59	101.535	329.59	96.9353	329.59	100.579	329.59	94.3866	329.59	99.2727	329.59	91.4939	329.59	97.4998	329.59	88.8745	329.59	95.188	329.59	87.606	329.59	92.4151	329.59	87.6144	329.59	89.7048	329.59	87.8229	329.59	88.1139	329.59	87.8183
341.309	105.608	341.309	105.502	341.309	105.593	341.309	105.289	341.309	105.444	341.309	104.981	341.309	105.151	341.309	104.584	341.309	104.71	341.309	104.091	341.309	104.128	341.309	103.481	341.309	103.438	341.309	102.719	341.309	102.716	341.309	101.753	341.309	102.069	341.309	100.514	341.309	101.578	341.309	98.9243	341.309	101.201	341.309	96.8949	341.309	100.754	341.309	94.3621	341.309	99.9911	341.309	91.4403	341.309	98.6937	341.309	88.9388	341.309	96.7043	341.309	88.2697	341.309	94.0096	341.309	88.9163	341.309	91.106	341.309	89.4077	341.309	89.4233	341.309	89.341
353.027	106.599	353.027	106.491	353.027	106.565	353.027	106.264	353.027	106.377	353.027	105.951	353.027	106.026	353.027	105.586	353.027	105.503	353.027	105.18	353.027	104.793	353.027	104.711	353.027	103.882	353.027	104.118	353.027	102.775	353.027	103.314	353.027	101.526	353.027	102.195	353.027	100.273	353.027	100.638	353.027	99.1941	353.027	98.4838	353.027	98.3185	353.027	95.5016	353.027	97.4048	353.027	91.4425	353.027	96.0926	353.027	87.4146	353.027	94.1608	353.027	88.2107	353.027	91.9328	353.027	90.7627	353.027	90.8461	353.027	92.1189	353.027	91.493	353.027	92.2541
366.211	106.868	366.211	106.738	366.211	106.859	366.211	106.474	366.211	106.713	366.211	106.09	366.211	106.428	366.211	105.61	366.211	105.997	366.211	105.057	366.211	105.397	366.211	104.436	366.211	104.597	366.211	103.727	366.211	103.564	366.211	102.878	366.211	102.291	366.211	101.815	366.211	100.835	366.211	100.44	366.211	99.3495	366.211	98.6321	366.211	98.009	366.211	96.2248	366.211	96.7765	366.211	92.9784	366.211	95.2969	366.211	88.7008	366.211	93.0747	366.211	84.9143	366.211	89.6821	366.211	85.5583	366.211	85.6888	366.211	86.9976	366.211	85.1665	366.211	86.789
379.395	106.76	379.395	106.548	379.395	106.822	379.395	106.204	379.395	106.732	379.395	105.762	379.395	106.497	379.395	105.269	379.395	106.128	379.395	104.764	379.395	105.63	379.395	104.254	379.395	105.002	379.395	103.701	379.395	104.227	379.395	103.029	379.395	103.282	379.395	102.137	379.395	102.13	379.395	100.916	379.395	100.722	379.395	99.2371	379.395	98.9755	379.395	96.9234	379.395	96.7437	379.395	93.725	379.395	93.7953	379.395	89.5609	379.395	90.0087	379.395	86.8959	379.395	87.1717	379.395	88.7835	379.395	88.5462	379.395	90.7727	379.395	90.5955	379.395	91.3825
392.578	107.116	392.578	106.999	392.578	107.053	392.578	106.712	392.578	106.817	392.578	106.277	392.578	106.417	392.578	105.732	392.578	105.863	392.578	105.125	392.578	105.153	392.578	104.502	392.578	104.268	392.578	103.887	392.578	103.184	392.578	103.268	392.578	101.897	392.578	102.578	392.578	100.478	392.578	101.702	392.578	99.1125	392.578	100.48	392.578	97.9735	392.578	98.7003	392.578	96.9249	392.578	96.0583	392.578	95.4487	392.578	92.0708	392.578	92.808	392.578	86.3507	392.578	87.7394	392.578	84.2942	392.578	76.6056	392.578	86.9201	392.578	83.0406	392.578	87.0254
405.762	107.369	405.762	107.143	405.762	107.386	405.762	106.709	405.762	107.211	405.762	106.089	405.762	106.872	405.762	105.342	405.762	106.402	405.762	104.559	405.762	105.83	405.762	103.843	405.762	105.167	405.762	103.25	405.762	104.403	405.762	102.732	405.762	103.503	405.762	102.144	405.762	102.412	405.762	101.305	405.762	101.062	405.762	100.04	405.762	99.3608	405.762	98.1974	405.762	97.1602	405.762	95.6929	405.762	94.1931	405.762	92.8741	405.762	90.1341	405.762	91.3799	405.762	86.6811	405.762	92.0822	405.762	88.8194	405.762	93.0153	405.762	91.6504	405.762	92.9925
420.41	106.653	420.41	106.57	420.41	106.556	420.41	106.306	420.41	106.3	420.41	105.881	420.41	105.915	420.41	105.326	420.41	105.427	420.41	104.672	420.41	104.847	420.41	103.935	420.41	104.165	420.41	103.116	420.41	103.359	420.41	102.208	420.41	102.413	420.41	101.193	420.41	101.344	420.41	100.034	420.41	100.202	420.41	98.6343	420.41	99.0271	420.41	96.8155	420.41	97.7267	420.41	94.3236	420.41	95.976	420.41	90.9943	420.41	93.1834	420.41	87.9153	420.41	88.2103	420.41	87.9608	420.41	79.1799	420.41	88.9835	420.41	84.2239	420.41	88.2482
435.059	107.471	435.059	107.348	435.059	107.366	435.059	106.993	435.059	107.054	435.059	106.415	435.059	106.563	435.059	105.646	435.059	105.924	435.059	104.751	435.059	105.157	435.059	103.824	435.059	104.264	435.059	102.962	435.059	103.227	435.059	102.181	435.059	102.027	435.059	101.362	435.059	100.677	435.059	100.28	435.059	99.2347	435.059	98.6604	435.059	97.7167	435.059	96.1845	435.059	95.8794	435.059	92.5941	435.059	92.992	435.059	89.4339	435.059	87.0602	435.059	91.1582	435.059	69.4948	435.059	93.8821	435.059	88.6813	435.059	95.2339	435.059	93.3304	435.059	95.1264
451.172	106.382	451.172	106.368	451.172	106.194	451.172	106.14	451.172	105.837	451.172	105.705	451.172	105.355	451.172	105.088	451.172	104.795	451.172	104.322	451.172	104.186	451.172	103.446	451.172	103.528	451.172	102.486	451.172	102.788	451.172	101.447	451.172	101.916	451.172	100.29	451.172	100.87	451.172	98.9113	451.172	99.6508	451.172	97.1171	451.172	98.3041	451.172	94.5937	451.172	96.8215	451.172	90.8864	451.172	94.9534	451.172	86.3761	451.172	92.0486	451.172	86.8695	451.172	86.6284	451.172	89.8798	451.172	78.0279	451.172	91.0722	451.172	86.2604	451.172	90.1427
465.82	105.36	465.82	105.297	465.82	105.228	465.82	105.052	465.82	104.921	465.82	104.67	465.82	104.479	465.82	104.212	465.82	103.944	465.82	103.726	465.82	103.345	465.82	103.221	465.82	102.694	465.82	102.671	465.82	101.988	465.82	102.03	465.82	101.229	465.82	101.237	465.82	100.435	465.82	100.204	465.82	99.6329	465.82	98.7822	465.82	98.8176	465.82	96.7407	465.82	97.8779	465.82	93.7404	465.82	96.5583	465.82	89.4124	465.82	94.4596	465.82	85.1341	465.82	90.9701	465.82	85.7722	465.82	85.0812	465.82	86.8675	465.82	81.1297	465.82	85.3741
483.398	106.39	483.398	106.283	483.398	106.234	483.398	105.908	483.398	105.846	483.398	105.305	483.398	105.274	483.398	104.561	483.398	104.561	483.398	103.803	483.398	103.728	483.398	103.135	483.398	102.754	483.398	102.568	483.398	101.58	483.398	102.003	483.398	100.155	483.398	101.288	483.398	98.5263	483.398	100.26	483.398	96.9736	483.398	98.7327	483.398	95.8293	483.398	96.4357	483.398	94.8096	483.398	92.9324	483.398	92.9156	483.398	88.131	483.398	88.534	483.398	87.7169	483.398	76.4376	483.398	91.3759	483.398	86.4341	483.398	93.388	483.398	91.742	483.398	93.5703
499.512	105.863	499.512	105.827	499.512	105.639	499.512	105.514	499.512	105.213	499.512	104.965	499.512	104.668	499.512	104.272	499.512	104.085	499.512	103.565	499.512	103.517	499.512	102.957	499.512	102.975	499.512	102.47	499.512	102.422	499.512	102.011	499.512	101.773	499.512	101.407	499.512	100.906	499.512	100.455	499.512	99.6798	499.512	98.9234	499.512	97.9587	499.512	96.4908	499.512	95.6393	499.512	92.6206	499.512	92.6448	499.512	87.0195	499.512	88.7937	499.512	86.9125	499.512	84.2276	499.512	90.6259	499.512	84.8996	499.512	92.1235	499.512	89.1709	499.512	91.6173
517.09	106.557	517.09	106.512	517.09	106.276	517.09	106.126	517.09	105.698	517.09	105.4	517.09	104.859	517.09	104.364	517.09	103.804	517.09	103.107	517.09	102.576	517.09	101.834	517.09	101.221	517.09	100.89	517.09	99.8301	517.09	100.509	517.09	98.654	517.09	100.474	517.09	98.1211	517.09	100.291	517.09	98.3418	517.09	99.5216	517.09	98.7368	517.09	97.7882	517.09	98.5607	517.09	94.5916	517.09	97.1858	517.09	89.7197	517.09	93.7013	517.09	89.8255	517.09	84.4031	517.09	93.8388	517.09	84.4034	517.09	95.7367	517.09	92.8638	517.09	95.5332
536.133	105.972	536.133	106.115	536.133	105.547	536.133	105.905	536.133	104.943	536.133	105.306	536.133	104.274	536.133	104.324	536.133	103.616	536.133	103.045	536.133	102.953	536.133	101.707	536.133	102.164	536.133	100.686	536.133	101.056	536.133	100.194	536.133	99.4344	536.133	99.9803	536.133	97.3105	536.133	99.5892	536.133	95.5583	536.133	98.6322	536.133	95.5876	536.133	96.7626	536.133	96.3408	536.133	93.6011	536.133	96.0724	536.133	89.6345	536.133	93.856	536.133	89.9439	536.133	87.9691	536.133	92.7149	536.133	72.6784	536.133	93.8504	536.133	88.968	536.133	92.9242
555.176	104.956	555.176	105.211	555.176	104.428	555.176	105.129	555.176	103.736	555.176	104.687	555.176	103.019	555.176	103.897	555.176	102.407	555.176	102.822	555.176	101.974	555.176	101.603	555.176	101.676	555.176	100.489	555.176	101.348	555.176	99.7167	555.176	100.749	555.176	99.2645	555.176	99.6131	555.176	98.8448	555.176	97.7111	555.176	98.1131	555.176	95.1778	555.176	96.7323	555.176	93.6084	555.176	94.2922	555.176	94.2354	555.176	90.4845	555.176	94.6481	555.176	87.9596	555.176	93.0695	555.176	89.9887	555.176	87.9903	555.176	90.8951	555.176	81.0178	555.176	88.4687
574.219	105.749	574.219	106.041	574.219	105.212	574.219	106.02	574.219	104.528	574.219	105.649	574.219	103.808	574.219	104.918	574.219	103.146	574.219	103.823	574.219	102.575	574.219	102.358	574.219	102.031	574.219	100.553	574.219	101.365	574.219	98.6498	574.219	100.392	574.219	97.2986	574.219	98.956	574.219	96.8819	574.219	97.0512	574.219	96.6194	574.219	95.1073	574.219	95.3982	574.219	93.9799	574.219	92.2335	574.219	93.5434	574.219	87.4563	574.219	92.5188	574.219	90.6519	574.219	90.1256	574.219	94.5594	574.219	88.9866	574.219	95.895	574.219	92.3847	574.219	95.1328
594.727	105.305	594.727	105.592	594.727	104.646	594.727	105.523	594.727	103.693	594.727	105.176	594.727	102.639	594.727	104.631	594.727	101.739	594.727	103.907	594.727	101.175	594.727	102.954	594.727	100.889	594.727	101.707	594.727	100.609	594.727	100.202	594.727	100.011	594.727	98.6749	594.727	98.8674	594.727	97.4369	594.727	97.1713	594.727	96.357	594.727	95.3229	594.727	94.6599	594.727	93.8885	594.727	91.105	594.727	92.5281	594.727	84.3954	594.727	90.0791	594.727	88.4543	594.727	85.7966	594.727	93.3572	594.727	86.5232	594.727	95.0493	594.727	91.6632	594.727	94.465
615.234	105.479	615.234	105.818	615.234	104.765	615.234	105.757	615.234	103.8	615.234	105.347	615.234	102.786	615.234	104.684	615.234	101.902	615.234	103.866	615.234	101.213	615.234	102.939	615.234	100.663	615.234	101.895	615.234	100.126	615.234	100.757	615.234	99.4495	615.234	99.6312	615.234	98.463	615.234	98.5713	615.234	96.9718	615.234	97.3416	615.234	94.81	615.234	95.3654	615.234	92.359	615.234	91.6835	615.234	91.43	615.234	84.5077	615.234	91.936	615.234	85.4799	615.234	91.3946	615.234	90.8118	615.234	89.2002	615.234	92.3663	615.234	88.8115	615.234	91.3284
637.207	105.696	637.207	105.985	637.207	104.979	637.207	105.805	637.207	103.956	637.207	105.189	637.207	102.808	637.207	104.251	637.207	101.742	637.207	103.173	637.207	100.929	637.207	102.153	637.207	100.378	637.207	101.275	637.207	99.883	637.207	100.451	637.207	99.1061	637.207	99.5683	637.207	97.7396	637.207	98.6426	637.207	95.6578	637.207	97.7027	637.207	93.1913	637.207	96.4576	637.207	91.1496	637.207	94.1015	637.207	89.402	637.207	88.9007	637.207	86.4719	637.207	80.4671	637.207	82.7409	637.207	89.7821	637.207	87.215	637.207	93.4283	637.207	91.8623	637.207	93.8732
659.18	106.395	659.18	106.766	659.18	105.541	659.18	106.604	659.18	104.353	659.18	105.941	659.18	103.065	659.18	104.881	659.18	101.912	659.18	103.589	659.18	101.038	659.18	102.255	659.18	100.462	659.18	101.011	659.18	100.059	659.18	99.9187	659.18	99.5789	659.18	99.0694	659.18	98.7322	659.18	98.5262	659.18	97.2836	659.18	98.0421	659.18	95.1114	659.18	97.0326	659.18	92.2684	659.18	94.7535	659.18	88.9554	659.18	90.5448	659.18	84.984	659.18	88.8633	659.18	82.165	659.18	92.8313	659.18	87.8213	659.18	94.9236	659.18	92.5208	659.18	94.7776
682.617	105.722	682.617	106.212	682.617	104.813	682.617	106.206	682.617	103.637	682.617	105.699	682.617	102.382	682.617	104.734	682.617	101.233	682.617	103.387	682.617	100.386	682.617	101.789	682.617	100.034	682.617	100.205	682.617	100.174	682.617	98.9852	682.617	100.431	682.617	98.2916	682.617	100.247	682.617	97.9481	682.617	99.1191	682.617	97.6259	682.617	96.6237	682.617	96.8975	682.617	92.7758	682.617	95.1818	682.617	90.1855	682.617	91.962	682.617	89.8598	682.617	89.5803	682.617	86.8337	682.617	92.1309	682.617	80.7183	682.617	93.9654	682.617	89.3053	682.617	93.2898
707.52	106.126	707.52	106.443	707.52	105.391	707.52	106.301	707.52	104.379	707.52	105.755	707.52	103.299	707.52	104.916	707.52	102.342	707.52	103.877	707.52	101.561	707.52	102.674	707.52	100.812	707.52	101.296	707.52	99.8976	707.52	99.7179	707.52	98.8881	707.52	98.0429	707.52	98.3007	707.52	96.7459	707.52	98.2134	707.52	96.1456	707.52	97.5123	707.52	95.3702	707.52	94.7812	707.52	92.9465	707.52	88.6381	707.52	87.6104	707.52	87.5883	707.52	89.4834	707.52	90.4577	707.52	94.4853	707.52	89.5375	707.52	96.0639	707.52	91.0778	707.52	94.8058
732.422	106.172	732.422	106.532	732.422	105.29	732.422	106.346	732.422	104.008	732.422	105.656	732.422	102.587	732.422	104.565	732.422	101.371	732.422	103.216	732.422	100.523	732.422	101.765	732.422	99.8982	732.422	100.383	732.422	99.2484	732.422	99.2087	732.422	98.4708	732.422	98.2126	732.422	97.7368	732.422	97.2611	732.422	97.1474	732.422	96.3624	732.422	96.1207	732.422	95.4649	732.422	93.7177	732.422	93.8692	732.422	89.9868	732.422	90.3313	732.422	88.3746	732.422	87.4106	732.422	86.7745	732.422	91.8117	732.422	80.623	732.422	94.2617	732.422	89.0755	732.422	93.5967
757.324	106.073	757.324	106.565	757.324	105.145	757.324	106.483	757.324	104.046	757.324	105.84	757.324	103.038	757.324	104.788	757.324	102.224	757.324	103.539	757.324	101.55	757.324	102.182	757.324	100.896	757.324	100.571	757.324	100.077	757.324	98.5934	757.324	98.8736	757.324	96.6855	757.324	97.2526	757.324	95.867	757.324	95.7574	757.324	96.0062	757.324	94.9373	757.324	95.7118	757.324	93.7316	757.324	93.8143	757.324	90.4746	757.324	89.2334	757.324	86.1987	757.324	88.2259	757.324	88.1503	757.324	93.5743	757.324	90.3935	757.324	95.8383	757.324	93.0215	757.324	95.4295
785.156	106.136	785.156	106.538	785.156	105.173	785.156	106.351	785.156	103.783	785.156	105.577	785.156	102.255	785.156	104.242	785.156	100.951	785.156	102.512	785.156	100.176	785.156	100.847	785.156	100.015	785.156	99.7222	785.156	100.079	785.156	98.926	785.156	99.692	785.156	97.795	785.156	98.2829	785.156	95.9586	785.156	95.6869	785.156	93.8026	785.156	92.9286	785.156	92.4535	785.156	91.1357	785.156	91.3111	785.156	87.4792	785.156	88.0757	785.156	80.5449	785.156	87.0617	785.156	87.5466	785.156	92.5049	785.156	90.8673	785.156	95.0045	785.156	92.9104	785.156	94.791
811.523	105.969	811.523	106.57	811.523	104.876	811.523	106.497	811.523	103.624	811.523	105.722	811.523	102.471	811.523	104.29	811.523	101.461	811.523	102.269	811.523	100.639	811.523	99.8502	811.523	100.149	811.523	97.7509	811.523	100.005	811.523	96.8792	811.523	99.9299	811.523	96.6064	811.523	99.4917	811.523	95.8913	811.523	98.324	811.523	94.7974	811.523	96.2958	811.523	94.0738	811.523	93.685	811.523	93.3641	811.523	90.7179	811.523	90.9347	811.523	87.2809	811.523	86.5877	811.523	86.1493	811.523	90.0347	811.523	87.2483	811.523	93.3335	811.523	90.2583	811.523	93.1765
840.82	105.527	840.82	106.015	840.82	104.444	840.82	105.854	840.82	102.932	840.82	105.047	840.82	101.359	840.82	103.633	840.82	100.198	840.82	101.654	840.82	99.6373	840.82	99.1349	840.82	99.5084	840.82	96.2079	840.82	99.4349	840.82	93.8589	840.82	99.0543	840.82	93.8362	840.82	98.287	840.82	95.0147	840.82	97.2727	840.82	95.619	840.82	95.7528	840.82	95.0325	840.82	92.5557	840.82	92.8275	840.82	85.5133	840.82	88.4539	840.82	85.0237	840.82	87.2206	840.82	89.2728	840.82	91.6502	840.82	89.5614	840.82	93.4072	840.82	90.0346	840.82	92.4353
870.117	106.285	870.117	106.601	870.117	105.337	870.117	106.185	870.117	103.93	870.117	105.033	870.117	102.235	870.117	103.247	870.117	100.405	870.117	101.115	870.117	98.6587	870.117	99.0625	870.117	97.445	870.117	97.0013	870.117	97.1699	870.117	93.9463	870.117	97.2755	870.117	88.3186	870.117	96.9745	870.117	85.4424	870.117	96.2642	870.117	91.3668	870.117	95.3732	870.117	93.7641	870.117	93.393	870.117	93.2053	870.117	88.0091	870.117	89.958	870.117	77.5648	870.117	88.5376	870.117	85.4501	870.117	92.7787	870.117	88.7213	870.117	95.1084	870.117	92.4165	870.117	94.9149
900.879	105.58	900.879	106	900.879	104.529	900.879	105.672	900.879	103.081	900.879	104.518	900.879	101.55	900.879	102.523	900.879	100.072	900.879	100.029	900.879	98.6622	900.879	98.0506	900.879	97.5993	900.879	96.9005	900.879	97.2331	900.879	95.3063	900.879	97.2684	900.879	92.1861	900.879	97.0017	900.879	87.1253	900.879	96.1241	900.879	85.4519	900.879	95.0583	900.879	89.1701	900.879	94.1111	900.879	90.66	900.879	91.7172	900.879	89.1564	900.879	84.6808	900.879	86.4803	900.879	85.5957	900.879	89.8173	900.879	88.9784	900.879	92.1199	900.879	88.5687	900.879	90.9139
933.105	106.03	933.105	106.162	933.105	105.223	933.105	105.599	933.105	103.813	933.105	104.317	933.105	102.02	933.105	102.315	933.105	100.156	933.105	99.7184	933.105	98.4309	933.105	97.0907	933.105	96.9904	933.105	95.628	933.105	96.0543	933.105	95.4295	933.105	95.7194	933.105	94.9013	933.105	95.7778	933.105	92.603	933.105	95.7419	933.105	87.2842	933.105	95.1588	933.105	83.6331	933.105	94.013	933.105	86.717	933.105	91.9123	933.105	84.6219	933.105	85.6505	933.105	79.9123	933.105	80.7026	933.105	90.5079	933.105	90.2099	933.105	93.9184	933.105	92.7653	933.105	94.0301
965.332	105.754	965.332	106.042	965.332	104.882	965.332	105.691	965.332	103.484	965.332	104.639	965.332	101.752	965.332	102.86	965.332	100.083	965.332	100.437	965.332	98.6332	965.332	97.5691	965.332	97.1225	965.332	94.593	965.332	95.6081	965.332	92.6093	965.332	94.7724	965.332	92.5805	965.332	94.7261	965.332	92.5987	965.332	94.542	965.332	91.01	965.332	93.4705	965.332	87.6573	965.332	91.3972	965.332	86.0737	965.332	88.7911	965.332	86.7214	965.332	85.7535	965.332	86.5653	965.332	84.78	965.332	90.6225	965.332	88.754	965.332	94.0748	965.332	92.6199	965.332	94.6393
1000.49	106.084	1000.49	106.155	1000.49	105.283	1000.49	105.492	1000.49	103.76	1000.49	104.132	1000.49	101.634	1000.49	102.168	1000.49	99.3539	1000.49	99.6249	1000.49	97.4062	1000.49	96.5392	1000.49	95.8815	1000.49	93.6374	1000.49	95.1291	1000.49	91.5709	1000.49	95.1618	1000.49	89.5227	1000.49	94.7742	1000.49	87.9039	1000.49	93.3366	1000.49	87.6297	1000.49	92.0943	1000.49	87.672	1000.49	91.2825	1000.49	87.9386	1000.49	87.4942	1000.49	87.5305	1000.49	79.4303	1000.49	85.5532	1000.49	87.5318	1000.49	87.7485	1000.49	91.596	1000.49	91.6876	1000.49	93.2555	1000.49	93.3567
1035.64	105.442	1035.64	105.557	1035.64	104.419	1035.64	104.89	1035.64	102.491	1035.64	103.509	1035.64	99.923	1035.64	101.277	1035.64	97.3504	1035.64	98.0582	1035.64	95.5657	1035.64	94.7951	1035.64	94.6685	1035.64	93.596	1035.64	94.0988	1035.64	92.9722	1035.64	94.0366	1035.64	90.7097	1035.64	94.9207	1035.64	85.7935	1035.64	95.3533	1035.64	82.0437	1035.64	93.6188	1035.64	86.1184	1035.64	89.8467	1035.64	87.8679	1035.64	88.4344	1035.64	86.6895	1035.64	83.2049	1035.64	83.8518	1035.64	80.754	1035.64	87.7059	1035.64	89.3085	1035.64	91.95	1035.64	91.6831	1035.64	92.9762
1072.27	105.952	1072.27	105.862	1072.27	104.727	1072.27	104.507	1072.27	102.2	1072.27	102.204	1072.27	98.4728	1072.27	99.3887	1072.27	94.6901	1072.27	95.8769	1072.27	93.4235	1072.27	92.0869	1072.27	93.6132	1072.27	91.72	1072.27	93.6491	1072.27	92.5721	1072.27	93.0744	1072.27	92.2798	1072.27	92.2444	1072.27	91.132	1072.27	92.9783	1072.27	87.8394	1072.27	93.5536	1072.27	78.7169	1072.27	91.6456	1072.27	82.9907	1072.27	88.816	1072.27	85.3695	1072.27	84.7264	1072.27	84.3017	1072.27	77.3359	1072.27	85.8603	1072.27	89.7534	1072.27	89.4387	1072.27	91.6872	1072.27	91.1936
1108.89	105.579	1108.89	105.499	1108.89	104.277	1108.89	103.982	1108.89	101.581	1108.89	101.028	1108.89	97.4047	1108.89	96.9309	1108.89	93.2261	1108.89	92.597	1108.89	92.9572	1108.89	89.1002	1108.89	93.5627	1108.89	88.2723	1108.89	93.9063	1108.89	90.181	1108.89	93.8738	1108.89	92.0215	1108.89	92.0394	1108.89	92.3778	1108.89	89.7052	1108.89	89.9793	1108.89	91.987	1108.89	83.2707	1108.89	92.3989	1108.89	74.3829	1108.89	88.8812	1108.89	77.3446	1108.89	84.5293	1108.89	81.6404	1108.89	72.3937	1108.89	87.7101	1108.89	88.1727	1108.89	91.8143	1108.89	93.1994	1108.89	93.7679
1148.44	106.16	1148.44	105.776	1148.44	104.928	1148.44	103.915	1148.44	101.809	1148.44	100.671	1148.44	96.6584	1148.44	96.3001	1148.44	92.8902	1148.44	91.8122	1148.44	94.1227	1148.44	88.8602	1148.44	94.649	1148.44	88.0309	1148.44	94.0548	1148.44	89.3453	1148.44	93.88	1148.44	91.013	1148.44	93.7682	1148.44	91.6293	1148.44	92.2271	1148.44	89.9605	1148.44	90.3577	1148.44	84.683	1148.44	90.4478	1148.44	76.8783	1148.44	89.0063	1148.44	79.6271	1148.44	82.7311	1148.44	80.1915	1148.44	73.3158	1148.44	83.3254	1148.44	87.3092	1148.44	88.5433	1148.44	91.3341	1148.44	91.5789
1189.45	105.962	1189.45	105.409	1189.45	104.671	1189.45	103.188	1189.45	101.207	1189.45	99.5505	1189.45	94.8535	1189.45	94.6559	1189.45	91.4581	1189.45	89.1187	1189.45	94.7375	1189.45	89.0197	1189.45	95.2246	1189.45	90.5877	1189.45	94.1764	1189.45	89.6029	1189.45	93.3759	1189.45	88.7532	1189.45	92.4059	1189.45	90.4386	1189.45	90.8247	1189.45	90.2359	1189.45	90.1706	1189.45	86.2994	1189.45	89.1333	1189.45	81.1586	1189.45	87.0152	1189.45	81.2187	1189.45	85.1313	1189.45	80.8821	1189.45	75.6183	1189.45	83.6234	1189.45	84.3455	1189.45	90.0014	1189.45	92.0424	1189.45	93.2872
1230.47	106.145	1230.47	105.49	1230.47	104.774	1230.47	102.869	1230.47	101.013	1230.47	98.0731	1230.47	93.5564	1230.47	90.9549	1230.47	90.1948	1230.47	87.8797	1230.47	95.2088	1230.47	89.2493	1230.47	96.0653	1230.47	91.0819	1230.47	94.7837	1230.47	91.3674	1230.47	94.259	1230.47	88.7723	1230.47	94.4895	1230.47	88.7917	1230.47	92.0906	1230.47	90.7129	1230.47	88.0779	1230.47	88.2498	1230.47	89.6646	1230.47	83.7838	1230.47	87.6852	1230.47	83.7234	1230.47	84.4038	1230.47	81.3675	1230.47	76.893	1230.47	78.8919	1230.47	83.8559	1230.47	87.3687	1230.47	90.6894	1230.47	91.4678
1274.41	106.109	1274.41	105.3	1274.41	104.625	1274.41	102.085	1274.41	100.404	1274.41	95.8912	1274.41	90.8638	1274.41	83.3114	1274.41	90.2764	1274.41	85.6455	1274.41	95.62	1274.41	91.2006	1274.41	96.345	1274.41	91.9549	1274.41	95.0133	1274.41	92.2068	1274.41	92.9212	1274.41	92.8443	1274.41	93.0502	1274.41	90.4627	1274.41	94.4389	1274.41	86.3807	1274.41	93.0333	1274.41	86.6459	1274.41	88.5959	1274.41	85.1032	1274.41	88.4855	1274.41	85.2985	1274.41	82.3255	1274.41	84.8626	1274.41	72.5111	1274.41	80.1154	1274.41	83.2013	1274.41	86.1964	1274.41	92.133	1274.41	92.342
1319.82	105.552	1319.82	104.623	1319.82	104.086	1319.82	101.259	1319.82	99.7449	1319.82	94.8294	1319.82	87.8597	1319.82	76.6539	1319.82	91.3471	1319.82	90.3676	1319.82	96.648	1319.82	93.976	1319.82	96.7465	1319.82	93.8114	1319.82	94.8467	1319.82	92.1404	1319.82	93.1375	1319.82	90.3841	1319.82	90.6928	1319.82	90.7492	1319.82	88.9019	1319.82	91.5675	1319.82	91.6927	1319.82	89.4171	1319.82	91.1674	1319.82	83.8666	1319.82	88.6383	1319.82	81.1414	1319.82	87.2881	1319.82	83.1206	1319.82	81.2503	1319.82	79.7561	1319.82	80.5915	1319.82	82.7118	1319.82	90.6461	1319.82	91.327
1366.7	105.939	1366.7	104.968	1366.7	104.178	1366.7	101.258	1366.7	98.7598	1366.7	93.4804	1366.7	83.3243	1366.7	87.5617	1366.7	92.7663	1366.7	93.4435	1366.7	96.9223	1366.7	94.4004	1366.7	97.6557	1366.7	94.1142	1366.7	95.8987	1366.7	91.9459	1366.7	93.4153	1366.7	86.386	1366.7	93.7558	1366.7	83.9594	1366.7	92.1169	1366.7	88.7358	1366.7	84.9642	1366.7	89.8248	1366.7	90.3166	1366.7	89.1228	1366.7	91.0869	1366.7	85.483	1366.7	86.0931	1366.7	82.58	1366.7	78.5107	1366.7	79.4026	1366.7	74.6952	1366.7	83.9676	1366.7	89.3766	1366.7	91.4232
1413.57	106.114	1413.57	104.841	1413.57	104.491	1413.57	100.87	1413.57	98.3057	1413.57	94.102	1413.57	85.2445	1413.57	93.354	1413.57	96.0535	1413.57	95.4474	1413.57	97.9855	1413.57	94.3965	1413.57	98.2342	1413.57	92.1508	1413.57	96.9431	1413.57	92.9985	1413.57	93.0104	1413.57	95.011	1413.57	92.4637	1413.57	93.2414	1413.57	95.078	1413.57	84.8793	1413.57	93.1325	1413.57	84.3951	1413.57	86.2536	1413.57	87.4779	1413.57	89.8804	1413.57	87.3301	1413.57	86.3466	1413.57	83.6032	1413.57	79.9954	1413.57	82.9834	1413.57	72.8601	1413.57	77.0615	1413.57	90.111	1413.57	89.8238
1463.38	105.872	1463.38	104.821	1463.38	104.393	1463.38	101.466	1463.38	98.644	1463.38	96.1792	1463.38	86.214	1463.38	94.6044	1463.38	97.6721	1463.38	94.9904	1463.38	99.7675	1463.38	94.3811	1463.38	99.2114	1463.38	93.8031	1463.38	97.8564	1463.38	91.9969	1463.38	95.8443	1463.38	93.0196	1463.38	92.215	1463.38	94.2864	1463.38	91.6299	1463.38	92.0402	1463.38	94.4115	1463.38	86.7967	1463.38	91.8053	1463.38	83.6344	1463.38	89.4496	1463.38	86.1036	1463.38	89.9328	1463.38	83.3736	1463.38	79.8528	1463.38	85.6029	1463.38	67.8601	1463.38	82.003	1463.38	89.4193	1463.38	90.4398
1516.11	105.987	1516.11	104.698	1516.11	104.772	1516.11	101.437	1516.11	99.5154	1516.11	97.4215	1516.11	86.2757	1516.11	95.6133	1516.11	98.2625	1516.11	95.3191	1516.11	100.533	1516.11	94.8068	1516.11	99.7264	1516.11	95.2916	1516.11	97.8927	1516.11	95.4912	1516.11	95.5221	1516.11	92.8764	1516.11	93.8861	1516.11	92.3208	1516.11	93.5863	1516.11	92.853	1516.11	91.7244	1516.11	90.4951	1516.11	91.5275	1516.11	88.0124	1516.11	90.1209	1516.11	86.3546	1516.11	88.4964	1516.11	82.0573	1516.11	82.6757	1516.11	85.8495	1516.11	73.1713	1516.11	87.6297	1516.11	88.7741	1516.11	91.3212
1568.85	106.042	1568.85	104.754	1568.85	104.926	1568.85	101.693	1568.85	100.046	1568.85	98.2735	1568.85	89.5945	1568.85	96.2415	1568.85	98.6569	1568.85	95.9642	1568.85	101.03	1568.85	96.683	1568.85	99.8693	1568.85	95.9924	1568.85	97.6977	1568.85	93.5795	1568.85	95.7132	1568.85	93.1379	1568.85	91.2295	1568.85	92.2519	1568.85	89.8672	1568.85	90.2225	1568.85	94.124	1568.85	89.9194	1568.85	92.5531	1568.85	87.4297	1568.85	90.4988	1568.85	89.2622	1568.85	89.539	1568.85	85.2635	1568.85	76.4052	1568.85	83.0684	1568.85	70.8239	1568.85	85.5245	1568.85	89.0041	1568.85	90.3288
1624.51	105.873	1624.51	104.75	1624.51	104.42	1624.51	102.001	1624.51	99.365	1624.51	99.0119	1624.51	93.9285	1624.51	97.464	1624.51	99.1872	1624.51	97.933	1624.51	101.241	1624.51	97.54	1624.51	100.795	1624.51	97.5199	1624.51	98.528	1624.51	96.0176	1624.51	95.742	1624.51	91.7861	1624.51	94.6378	1624.51	93.8903	1624.51	91.4617	1624.51	92.7892	1624.51	88.1443	1624.51	90.8481	1624.51	93.9523	1624.51	88.9963	1624.51	89.9898	1624.51	84.8447	1624.51	88.2063	1624.51	87.2865	1624.51	79.7982	1624.51	80.1105	1624.51	59.87	1624.51	87.6967	1624.51	87.8698	1624.51	90.2587
1681.64	105.387	1681.64	104.525	1681.64	103.759	1681.64	102.376	1681.64	98.6306	1681.64	99.9529	1681.64	95.273	1681.64	98.8902	1681.64	99.6604	1681.64	99.9522	1681.64	101.362	1681.64	99.411	1681.64	100.469	1681.64	95.3439	1681.64	97.4565	1681.64	94.3156	1681.64	93.8217	1681.64	94.1147	1681.64	91.83	1681.64	84.5243	1681.64	93.9085	1681.64	87.614	1681.64	92.9949	1681.64	90.8346	1681.64	91.1492	1681.64	91.9775	1681.64	93.1175	1681.64	90.1608	1681.64	87.8252	1681.64	83.7989	1681.64	83.0286	1681.64	84.8572	1681.64	62.1861	1681.64	86.6766	1681.64	86.9131	1681.64	90.3748
1741.7	105.9	1741.7	104.772	1741.7	104.412	1741.7	102.358	1741.7	98.9767	1741.7	100.015	1741.7	96.1054	1741.7	99.6388	1741.7	99.7892	1741.7	99.5187	1741.7	101.288	1741.7	98.3543	1741.7	101.294	1741.7	97.5333	1741.7	99.3644	1741.7	96.406	1741.7	95.6493	1741.7	96.1667	1741.7	92.9792	1741.7	97.6574	1741.7	84.2386	1741.7	94.0626	1741.7	90.9935	1741.7	85.2815	1741.7	93.491	1741.7	88.8601	1741.7	89.7602	1741.7	87.2013	1741.7	91.9549	1741.7	85.4654	1741.7	81.0296	1741.7	82.8227	1741.7	79.74	1741.7	87.1883	1741.7	86.0336	1741.7	90.0495
1803.22	105.804	1803.22	105.17	1803.22	104.606	1803.22	103.224	1803.22	100.373	1803.22	100.462	1803.22	95.7734	1803.22	100.295	1803.22	100.045	1803.22	100.743	1803.22	101.697	1803.22	99.5128	1803.22	100.639	1803.22	98.0045	1803.22	98.7434	1803.22	97.1901	1803.22	96.1737	1803.22	93.994	1803.22	93.0406	1803.22	92.9061	1803.22	94.1544	1803.22	94.7257	1803.22	87.9773	1803.22	91.0402	1803.22	90.5318	1803.22	87.1858	1803.22	92.8761	1803.22	91.3611	1803.22	89.8934	1803.22	86.8538	1803.22	83.988	1803.22	83.7235	1803.22	71.7847	1803.22	88.258	1803.22	87.067	1803.22	91.4928
1866.21	105.093	1866.21	104.844	1866.21	104.301	1866.21	103.219	1866.21	101.384	1866.21	101.165	1866.21	98.5983	1866.21	101.501	1866.21	100.716	1866.21	100.835	1866.21	101.915	1866.21	99.7235	1866.21	101.099	1866.21	98.5628	1866.21	99.0173	1866.21	95.7816	1866.21	96.8041	1866.21	91.6881	1866.21	92.9244	1866.21	87.3876	1866.21	82.4352	1866.21	83.7605	1866.21	91.0663	1866.21	90.9048	1866.21	90.5952	1866.21	88.8341	1866.21	89.4466	1866.21	85.2678	1866.21	90.8691	1866.21	87.8846	1866.21	84.8053	1866.21	82.9405	1866.21	75.8156	1866.21	87.9574	1866.21	87.8206	1866.21	90.075
1932.13	104.5	1932.13	104.97	1932.13	102.962	1932.13	103.379	1932.13	100.76	1932.13	101.97	1932.13	98.7847	1932.13	101.74	1932.13	100.091	1932.13	101.01	1932.13	101.606	1932.13	99.9005	1932.13	101.244	1932.13	97.0614	1932.13	99.0937	1932.13	94.9819	1932.13	95.5154	1932.13	94.1253	1932.13	92.6834	1932.13	93.1451	1932.13	92.3666	1932.13	91.7639	1932.13	85.8542	1932.13	87.0517	1932.13	90.0035	1932.13	90.6966	1932.13	93.0616	1932.13	84.5969	1932.13	89.4258	1932.13	85.9512	1932.13	86.2122	1932.13	83.436	1932.13	71.3756	1932.13	87.0245	1932.13	85.8055	1932.13	89.8178
1999.51	104.85	1999.51	104.958	1999.51	103.26	1999.51	103.157	1999.51	100.167	1999.51	101.947	1999.51	99.2311	1999.51	102.373	1999.51	101.649	1999.51	101.284	1999.51	102.193	1999.51	99.557	1999.51	100.947	1999.51	97.318	1999.51	98.4737	1999.51	95.4323	1999.51	96.1618	1999.51	96.213	1999.51	92.369	1999.51	94.2875	1999.51	80.9985	1999.51	88.6658	1999.51	91.1706	1999.51	85.8918	1999.51	87.401	1999.51	87.7286	1999.51	91.4379	1999.51	89.01	1999.51	90.7106	1999.51	83.489	1999.51	78.9673	1999.51	82.3436	1999.51	81.6971	1999.51	87.9208	1999.51	85.0732	1999.51	88.735
2069.82	105.319	2069.82	105.396	2069.82	103.962	2069.82	103.11	2069.82	101.148	2069.82	102.039	2069.82	98.4138	2069.82	101.808	2069.82	100.971	2069.82	100.904	2069.82	101.465	2069.82	98.6607	2069.82	100.372	2069.82	96.9501	2069.82	98.2293	2069.82	95.6267	2069.82	93.6969	2069.82	91.0653	2069.82	91.3038	2069.82	90.0536	2069.82	91.274	2069.82	93.0285	2069.82	88.8888	2069.82	87.959	2069.82	86.9673	2069.82	82.9855	2069.82	91.8372	2069.82	87.1147	2069.82	88.4596	2069.82	85.838	2069.82	82.8541	2069.82	79.1417	2069.82	84.8529	2069.82	85.2495	2069.82	85.8836	2069.82	86.0388
2143.07	104.644	2143.07	105.037	2143.07	103.093	2143.07	103.464	2143.07	102.192	2143.07	102.523	2143.07	99.495	2143.07	101.992	2143.07	99.7359	2143.07	100.658	2143.07	101.746	2143.07	98.9658	2143.07	100.435	2143.07	97.9668	2143.07	97.7836	2143.07	94.1395	2143.07	95.3148	2143.07	90.3087	2143.07	91.5161	2143.07	88.2488	2143.07	76.2989	2143.07	84.4071	2143.07	90.1784	2143.07	90.872	2143.07	87.8941	2143.07	86.7222	2143.07	88.5382	2143.07	84.974	2143.07	86.0819	2143.07	82.7491	2143.07	73.8493	2143.07	83.9496	2143.07	76.6415	2143.07	87.6822	2143.07	85.5492	2143.07	88.3665
2219.24	104.458	2219.24	103.839	2219.24	102.648	2219.24	103.056	2219.24	101.636	2219.24	102.922	2219.24	100.846	2219.24	102.339	2219.24	100.126	2219.24	100.916	2219.24	101.539	2219.24	98.8157	2219.24	100.372	2219.24	97.0389	2219.24	98.4627	2219.24	94.5703	2219.24	96.9018	2219.24	90.413	2219.24	93.4123	2219.24	92.3991	2219.24	88.975	2219.24	91.1975	2219.24	83.5868	2219.24	84.6667	2219.24	90.0321	2219.24	84.6766	2219.24	86.2475	2219.24	86.9246	2219.24	84.8529	2219.24	85.3258	2219.24	76.3672	2219.24	81.4043	2219.24	80.401	2219.24	87.5412	2219.24	84.0695	2219.24	87.4263
2296.88	104.457	2296.88	104.165	2296.88	102.996	2296.88	102.57	2296.88	101.219	2296.88	102.529	2296.88	100.93	2296.88	102.278	2296.88	100.422	2296.88	100.83	2296.88	100.442	2296.88	98.5738	2296.88	100.149	2296.88	95.6291	2296.88	97.904	2296.88	94.0438	2296.88	94.5653	2296.88	92.671	2296.88	86.6292	2296.88	88.4458	2296.88	87.7589	2296.88	83.6347	2296.88	87.4593	2296.88	88.3246	2296.88	86.217	2296.88	81.5446	2296.88	87.3559	2296.88	86.6955	2296.88	83.1575	2296.88	83.7704	2296.88	77.0422	2296.88	81.726	2296.88	77.7643	2296.88	84.6747	2296.88	84.8933	2296.88	85.8467
2378.91	104.881	2378.91	104.627	2378.91	103.549	2378.91	103.637	2378.91	102.288	2378.91	102.683	2378.91	100.67	2378.91	102.253	2378.91	100.131	2378.91	101.031	2378.91	100.882	2378.91	97.6289	2378.91	99.6484	2378.91	95.2816	2378.91	97.4093	2378.91	92.6045	2378.91	94.8193	2378.91	89.0393	2378.91	90.9995	2378.91	92.0437	2378.91	86.0888	2378.91	90.5071	2378.91	87.1424	2378.91	85.1858	2378.91	87.9354	2378.91	82.596	2378.91	88.0703	2378.91	83.7526	2378.91	84.9211	2378.91	82.8136	2378.91	77.5839	2378.91	81.8304	2378.91	73.7253	2378.91	86.0786	2378.91	82.2058	2378.91	86.0149
2462.4	104.43	2462.4	104.455	2462.4	103.337	2462.4	103.801	2462.4	102.948	2462.4	103.351	2462.4	101.681	2462.4	102.612	2462.4	99.6912	2462.4	100.331	2462.4	100.597	2462.4	97.6421	2462.4	100.069	2462.4	94.6565	2462.4	97.2588	2462.4	93.581	2462.4	93.8608	2462.4	92.1129	2462.4	90.5518	2462.4	86.8526	2462.4	86.9139	2462.4	84.1329	2462.4	87.7439	2462.4	86.338	2462.4	86.3187	2462.4	82.6805	2462.4	89.428	2462.4	83.8019	2462.4	81.7901	2462.4	82.7894	2462.4	80.0527	2462.4	80.7603	2462.4	77.8862	2462.4	83.8145	2462.4	81.8469	2462.4	86.3946
2548.83	104.534	2548.83	104.078	2548.83	102.958	2548.83	103.453	2548.83	102.627	2548.83	103.472	2548.83	102.465	2548.83	102.78	2548.83	99.5785	2548.83	99.4337	2548.83	100.348	2548.83	96.5962	2548.83	99.6732	2548.83	94.7719	2548.83	97.3974	2548.83	93.636	2548.83	92.8876	2548.83	91.6343	2548.83	82.9669	2548.83	92.5697	2548.83	87.8203	2548.83	90.5627	2548.83	85.4827	2548.83	87.8668	2548.83	85.2659	2548.83	83.5268	2548.83	88.0899	2548.83	82.59	2548.83	83.3165	2548.83	82.9604	2548.83	78.5479	2548.83	79.9434	2548.83	76.867	2548.83	86.0962	2548.83	80.9748	2548.83	84.8566
2639.65	104.571	2639.65	104.933	2639.65	103.632	2639.65	103.969	2639.65	102.8	2639.65	103.66	2639.65	102.535	2639.65	102.709	2639.65	99.9209	2639.65	99.8967	2639.65	99.6957	2639.65	97.2959	2639.65	99.9697	2639.65	96.133	2639.65	96.7853	2639.65	92.9757	2639.65	95.5153	2639.65	91.6518	2639.65	89.7635	2639.65	87.3548	2639.65	85.0436	2639.65	86.7434	2639.65	85.4187	2639.65	84.7372	2639.65	86.9217	2639.65	84.7179	2639.65	87.5266	2639.65	82.5298	2639.65	82.6504	2639.65	80.5379	2639.65	78.121	2639.65	80.2389	2639.65	82.2426	2639.65	82.4103	2639.65	80.6207	2639.65	86.4454
2731.93	104.925	2731.93	104.967	2731.93	103.572	2731.93	104.316	2731.93	103.423	2731.93	104.312	2731.93	102.703	2731.93	102.05	2731.93	99.9904	2731.93	99.3196	2731.93	99.0209	2731.93	97.9002	2731.93	99.8156	2731.93	96.0754	2731.93	97.0996	2731.93	94.4926	2731.93	93.1965	2731.93	92.5052	2731.93	91.9788	2731.93	91.4009	2731.93	85.0716	2731.93	89.1921	2731.93	85.5389	2731.93	88.3345	2731.93	86.0812	2731.93	83.9349	2731.93	83.6329	2731.93	83.3634	2731.93	80.642	2731.93	83.2299	2731.93	70.7414	2731.93	79.1225	2731.93	82.6518	2731.93	84.9106	2731.93	81.8423	2731.93	85.3529
2828.61	104.925	2828.61	104.637	2828.61	103.544	2828.61	104.143	2828.61	103.393	2828.61	104.126	2828.61	102.875	2828.61	102.133	2828.61	99.5913	2828.61	99.9079	2828.61	99.0157	2828.61	98.2123	2828.61	99.3624	2828.61	95.6181	2828.61	98.51	2828.61	93.4816	2828.61	94.2032	2828.61	89.9474	2828.61	89.1353	2828.61	88.0268	2828.61	87.8104	2828.61	88.4153	2828.61	87.6255	2828.61	84.4427	2828.61	83.5696	2828.61	84.9781	2828.61	86.0616	2828.61	80.3708	2828.61	79.4782	2828.61	80.9784	2828.61	68.7946	2828.61	80.1393	2828.61	81.4164	2828.61	82.6676	2828.61	79.9864	2828.61	84.9643
2928.22	104.806	2928.22	104.464	2928.22	103.337	2928.22	103.899	2928.22	103.156	2928.22	104.068	2928.22	103.037	2928.22	101.605	2928.22	99.4005	2928.22	100.238	2928.22	98.7017	2928.22	97.5077	2928.22	99.5984	2928.22	96.4778	2928.22	97.1778	2928.22	92.7328	2928.22	94.5972	2928.22	91.7934	2928.22	91.2635	2928.22	91.1415	2928.22	90.1587	2928.22	85.7105	2928.22	81.6011	2928.22	87.1115	2928.22	85.5334	2928.22	82.6404	2928.22	82.6767	2928.22	82.5924	2928.22	76.9727	2928.22	82.1764	2928.22	72.4676	2928.22	74.3877	2928.22	79.3545	2928.22	83.5367	2928.22	80.4838	2928.22	82.025
3030.76	105.572	3030.76	105	3030.76	104.194	3030.76	104.777	3030.76	103.282	3030.76	103.656	3030.76	102.821	3030.76	102.253	3030.76	99.3564	3030.76	100.224	3030.76	97.7127	3030.76	98.0756	3030.76	99.3557	3030.76	94.6552	3030.76	96.3593	3030.76	93.1449	3030.76	90.6555	3030.76	91.7122	3030.76	89.5401	3030.76	84.2335	3030.76	90.3262	3030.76	88.2506	3030.76	86.2576	3030.76	84.1612	3030.76	82.5006	3030.76	84.466	3030.76	82.1472	3030.76	78.5664	3030.76	74.5903	3030.76	80.9487	3030.76	66.8103	3030.76	78.9142	3030.76	78.3662	3030.76	82.215	3030.76	77.2029	3030.76	83.3226
3137.7	104.802	3137.7	104.241	3137.7	103.878	3137.7	104.673	3137.7	103.408	3137.7	103.731	3137.7	103.103	3137.7	101.979	3137.7	98.93	3137.7	100.112	3137.7	96.5162	3137.7	97.1389	3137.7	98.4884	3137.7	96.4122	3137.7	95.7661	3137.7	93.5351	3137.7	88.6457	3137.7	87.6934	3137.7	87.1029	3137.7	91.8803	3137.7	88.594	3137.7	86.4659	3137.7	86.3527	3137.7	86.464	3137.7	78.8409	3137.7	79.1807	3137.7	83.4998	3137.7	81.181	3137.7	73.3994	3137.7	81.1072	3137.7	73.5644	3137.7	73.0194	3137.7	81.1622	3137.7	82.0144	3137.7	75.871	3137.7	84.4556
3249.02	105.534	3249.02	105.079	3249.02	104.66	3249.02	104.37	3249.02	103.129	3249.02	103.989	3249.02	102.808	3249.02	102.44	3249.02	98.6861	3249.02	99.9644	3249.02	95.4934	3249.02	97.7793	3249.02	97.2769	3249.02	94.7095	3249.02	94.8587	3249.02	92.7256	3249.02	92.0992	3249.02	93.0282	3249.02	84.3824	3249.02	89.7565	3249.02	86.0614	3249.02	85.6312	3249.02	80.791	3249.02	85.3127	3249.02	79.8454	3249.02	83.5877	3249.02	80.3991	3249.02	76.4308	3249.02	73.701	3249.02	80.8595	3249.02	76.0236	3249.02	74.3087	3249.02	82.4961	3249.02	78.3071	3249.02	75.9964	3249.02	82.324
3363.28	105.349	3363.28	105.082	3363.28	104.874	3363.28	105.04	3363.28	103.258	3363.28	103.476	3363.28	103.121	3363.28	102.463	3363.28	99.5771	3363.28	100.004	3363.28	93.5776	3363.28	97.8864	3363.28	96.5891	3363.28	95.029	3363.28	94.9387	3363.28	92.445	3363.28	94.9191	3363.28	88.6114	3363.28	86.3831	3363.28	86.1754	3363.28	73.7355	3363.28	85.9565	3363.28	79.5154	3363.28	84.3344	3363.28	78.3563	3363.28	81.4146	3363.28	84.9427	3363.28	79.6796	3363.28	57.1936	3363.28	79.0698	3363.28	68.3701	3363.28	70.2885	3363.28	82.1521	3363.28	79.2032	3363.28	74.753	3363.28	82.2821
3481.93	105.331	3481.93	105.152	3481.93	105.183	3481.93	104.358	3481.93	103.309	3481.93	104.554	3481.93	103.022	3481.93	102.25	3481.93	100.612	3481.93	100.237	3481.93	93.83	3481.93	96.5849	3481.93	96.5015	3481.93	95.9532	3481.93	95.8959	3481.93	92.0009	3481.93	94.1829	3481.93	90.4438	3481.93	89.0312	3481.93	90.3476	3481.93	81.8322	3481.93	87.4348	3481.93	76.6411	3481.93	86.0172	3481.93	82.3163	3481.93	82.6977	3481.93	82.6376	3481.93	82.1447	3481.93	71.8565	3481.93	76.977	3481.93	74.8503	3481.93	76.5407	3481.93	81.2146	3481.93	79.1219	3481.93	71.2559	3481.93	82.505
3604.98	105.436	3604.98	105.756	3604.98	105.541	3604.98	104.76	3604.98	103.779	3604.98	104.133	3604.98	102.587	3604.98	102.799	3604.98	100.991	3604.98	100.215	3604.98	94.5862	3604.98	98.2193	3604.98	97.1272	3604.98	94.5994	3604.98	96.7421	3604.98	94.0319	3604.98	93.6846	3604.98	91.6526	3604.98	90.048	3604.98	87.2422	3604.98	86.7831	3604.98	87.847	3604.98	81.0344	3604.98	84.9863	3604.98	78.3319	3604.98	84.0819	3604.98	81.4745	3604.98	77.8643	3604.98	64.8638	3604.98	79.544	3604.98	73.8628	3604.98	73.6087	3604.98	80.917	3604.98	76.8121	3604.98	67.5126	3604.98	81.7758
3732.42	105.886	3732.42	105.264	3732.42	105.104	3732.42	104.704	3732.42	103.4	3732.42	104.299	3732.42	102.143	3732.42	101.915	3732.42	101.244	3732.42	100.179	3732.42	95.4887	3732.42	97.7664	3732.42	96.9908	3732.42	96.5095	3732.42	97.5347	3732.42	90.7407	3732.42	93.1565	3732.42	87.6199	3732.42	91.3063	3732.42	87.8947	3732.42	89.1913	3732.42	85.4831	3732.42	81.4279	3732.42	85.7935	3732.42	78.4968	3732.42	80.8207	3732.42	82.1316	3732.42	82.8272	3732.42	76.2631	3732.42	75.027	3732.42	76.673	3732.42	68.4722	3732.42	82.12	3732.42	76.3605	3732.42	65.5389	3732.42	82.9529
3864.26	105.586	3864.26	105.373	3864.26	105.651	3864.26	104.802	3864.26	103.787	3864.26	104.167	3864.26	101.543	3864.26	102.556	3864.26	101.031	3864.26	99.6803	3864.26	96.8676	3864.26	98.3408	3864.26	96.7794	3864.26	93.8177	3864.26	97.493	3864.26	93.366	3864.26	95.1793	3864.26	89.5493	3864.26	91.2427	3864.26	88.1251	3864.26	87.0884	3864.26	86.2433	3864.26	84.5523	3864.26	83.2728	3864.26	74.2988	3864.26	82.9906	3864.26	80.7371	3864.26	77.8113	3864.26	68.6486	3864.26	76.6679	3864.26	64.8028	3864.26	74.0705	3864.26	81.1836	3864.26	72.8295	3864.26	51.3358	3864.26	80.7384
4000.49	105.591	4000.49	104.87	4000.49	104.733	4000.49	104.85	4000.49	104.179	4000.49	103.613	4000.49	101.849	4000.49	102.004	4000.49	100.747	4000.49	100.561	4000.49	97.4132	4000.49	96.5632	4000.49	96.2077	4000.49	95.3684	4000.49	98.0276	4000.49	90.3101	4000.49	95.8028	4000.49	91.5284	4000.49	91.407	4000.49	84.8752	4000.49	88.9522	4000.49	84.1258	4000.49	88.2398	4000.49	84.5154	4000.49	74.0955	4000.49	80.2091	4000.49	79.6728	4000.49	81.2975	4000.49	72.6541	4000.49	75.3562	4000.49	65.8675	4000.49	73.6668	4000.49	81.3147	4000.49	74.8025	4000.49	63.2196	4000.49	80.4701
4141.11	105.623	4141.11	105.459	4141.11	105.21	4141.11	104.592	4141.11	103.265	4141.11	103.486	4141.11	101.504	4141.11	102.516	4141.11	100.804	4141.11	99.6499	4141.11	97.2329	4141.11	97.3096	4141.11	96.7077	4141.11	93.5088	4141.11	97.9653	4141.11	91.5706	4141.11	95.0061	4141.11	89.3882	4141.11	92.3611	4141.11	84.7542	4141.11	88.4898	4141.11	85.3752	4141.11	87.7014	4141.11	81.503	4141.11	75.0688	4141.11	81.8104	4141.11	75.1171	4141.11	79.9228	4141.11	67.6063	4141.11	74.0523	4141.11	68.6119	4141.11	77.7272	4141.11	80.6048	4141.11	75.2287	4141.11	68.2175	4141.11	80.7628
4287.6	105.216	4287.6	104.602	4287.6	104.31	4287.6	104.394	4287.6	103.165	4287.6	103.178	4287.6	101.001	4287.6	102.479	4287.6	100.095	4287.6	99.409	4287.6	96.203	4287.6	96.0622	4287.6	96.7621	4287.6	94.8942	4287.6	97.553	4287.6	89.0028	4287.6	90.9309	4287.6	89.4165	4287.6	88.9485	4287.6	85.9655	4287.6	86.9199	4287.6	86.0249	4287.6	80.9867	4287.6	84.8759	4287.6	71.6996	4287.6	82.6533	4287.6	74.5709	4287.6	79.7446	4287.6	64.1462	4287.6	78.866	4287.6	67.0149	4287.6	76.1625	4287.6	78.2785	4287.6	70.0251	4287.6	61.2159	4287.6	78.7827
4438.48	105.615	4438.48	105.508	4438.48	104.936	4438.48	104.274	4438.48	103.2	4438.48	103.79	4438.48	101.421	4438.48	102.6	4438.48	100.453	4438.48	99.3996	4438.48	96.2533	4438.48	97.4474	4438.48	95.3119	4438.48	94.866	4438.48	96.3446	4438.48	93.04	4438.48	91.3634	4438.48	89.1237	4438.48	84.3185	4438.48	85.6837	4438.48	77.2194	4438.48	85.3929	4438.48	75.1911	4438.48	83.2201	4438.48	71.1723	4438.48	82.2139	4438.48	69.0658	4438.48	80.4683	4438.48	74.6094	4438.48	76.3091	4438.48	70.251	4438.48	78.634	4438.48	77.6647	4438.48	69.617	4438.48	62.4472	4438.48	78.785
4595.21	105.599	4595.21	105.298	4595.21	104.641	4595.21	104.644	4595.21	103.74	4595.21	104.406	4595.21	102.111	4595.21	102.501	4595.21	100.539	4595.21	100.022	4595.21	94.9369	4595.21	97.5883	4595.21	92.6695	4595.21	95.8234	4595.21	94.4221	4595.21	91.0529	4595.21	86.9191	4595.21	90.2474	4595.21	85.6286	4595.21	86.4677	4595.21	72.452	4595.21	86.0136	4595.21	83.2154	4595.21	83.1401	4595.21	82.2221	4595.21	81.1127	4595.21	71.7207	4595.21	81.5938	4595.21	69.2528	4595.21	76.2919	4595.21	73.4251	4595.21	78.0018	4595.21	79.293	4595.21	68.306	4595.21	68.7447	4595.21	80.3328
4756.35	106.163	4756.35	105.593	4756.35	105.233	4756.35	104.865	4756.35	103.364	4756.35	104.259	4756.35	102.065	4756.35	102.458	4756.35	100.743	4756.35	100.209	4756.35	95.0566	4756.35	98.2409	4756.35	90.9448	4756.35	94.3348	4756.35	94.0402	4756.35	90.9306	4756.35	89.7695	4756.35	87.7827	4756.35	87.2102	4756.35	84.7486	4756.35	83.2722	4756.35	84.9031	4756.35	84.7682	4756.35	83.0152	4756.35	78.8332	4756.35	81.6144	4756.35	77.2177	4756.35	79.2266	4756.35	73.9244	4756.35	77.9605	4756.35	70.3687	4756.35	78.3224	4756.35	76.1533	4756.35	68.187	4756.35	60.3495	4756.35	78.4641
4924.8	105.85	4924.8	105.459	4924.8	104.621	4924.8	104.997	4924.8	103.957	4924.8	104.308	4924.8	102.084	4924.8	102.713	4924.8	101.172	4924.8	100.442	4924.8	97.0152	4924.8	97.9392	4924.8	89.6273	4924.8	94.3377	4924.8	93.3675	4924.8	91.985	4924.8	91.0409	4924.8	89.1324	4924.8	87.5584	4924.8	85.6768	4924.8	84.111	4924.8	84.9626	4924.8	85.8705	4924.8	82.8604	4924.8	72.4938	4924.8	82.3419	4924.8	82.8756	4924.8	80.04	4924.8	68.8389	4924.8	79.477	4924.8	68.8536	4924.8	79.684	4924.8	77.1835	4924.8	69.3175	4924.8	56.1884	4924.8	79.2276
5097.66	105.892	5097.66	105.439	5097.66	104.763	5097.66	105.264	5097.66	103.495	5097.66	104.184	5097.66	102.094	5097.66	102.805	5097.66	100.549	5097.66	100.552	5097.66	97.626	5097.66	97.7186	5097.66	91.5195	5097.66	95.2052	5097.66	93.7984	5097.66	91.4133	5097.66	94.0976	5097.66	88.3096	5097.66	89.8594	5097.66	85.7424	5097.66	74.5613	5097.66	84.4371	5097.66	82.7451	5097.66	83.2137	5097.66	69.653	5097.66	82.0274	5097.66	81.4553	5097.66	80.5327	5097.66	72.4421	5097.66	79.8656	5097.66	67.7172	5097.66	78.7438	5097.66	74.6398	5097.66	59.4287	5097.66	67.1109	5097.66	75.9418
5277.83	105.858	5277.83	105.589	5277.83	104.51	5277.83	105.073	5277.83	103.742	5277.83	104.195	5277.83	101.58	5277.83	102.78	5277.83	99.8071	5277.83	100.41	5277.83	97.681	5277.83	98.0587	5277.83	91.0865	5277.83	94.6983	5277.83	93.7988	5277.83	90.068	5277.83	91.8159	5277.83	87.3173	5277.83	84.9671	5277.83	85.2542	5277.83	78.3895	5277.83	83.5685	5277.83	79.0287	5277.83	83.61	5277.83	74.1484	5277.83	81.107	5277.83	75.7449	5277.83	79.0971	5277.83	73.6863	5277.83	80.9151	5277.83	67.6578	5277.83	79.937	5277.83	73.5809	5277.83	63.4683	5277.83	70.0198	5277.83	75.1219
5463.87	105.821	5463.87	105.593	5463.87	104.539	5463.87	105.556	5463.87	103.716	5463.87	104.494	5463.87	102.211	5463.87	103.202	5463.87	99.296	5463.87	100.805	5463.87	95.9962	5463.87	98.2344	5463.87	90.1458	5463.87	94.0452	5463.87	94.6388	5463.87	91.5948	5463.87	91.8998	5463.87	87.9822	5463.87	85.152	5463.87	85.2871	5463.87	80.7947	5463.87	84.4267	5463.87	80.336	5463.87	83.1916	5463.87	74.2941	5463.87	81.7051	5463.87	73.6317	5463.87	81.6117	5463.87	71.5434	5463.87	81.1338	5463.87	55.7814	5463.87	79.1244	5463.87	72.9115	5463.87	67.7876	5463.87	70.1804	5463.87	72.795
5657.23	105.612	5657.23	105.937	5657.23	104.837	5657.23	105.638	5657.23	103.888	5657.23	104.566	5657.23	101.976	5657.23	103.44	5657.23	99.5752	5657.23	100.948	5657.23	97.1576	5657.23	98.2045	5657.23	90.8894	5657.23	94.4873	5657.23	93.0433	5657.23	91.6053	5657.23	91.1516	5657.23	88.4384	5657.23	85.8306	5657.23	86.918	5657.23	81.791	5657.23	83.4533	5657.23	82.2724	5657.23	83.6995	5657.23	72.7475	5657.23	82.0636	5657.23	67.1211	5657.23	81.5271	5657.23	54.0973	5657.23	81.2226	5657.23	68.4718	5657.23	80.8504	5657.23	70.5568	5657.23	64.2237	5657.23	71.4446	5657.23	74.0025
5856.45	106.015	5856.45	106.343	5856.45	105.329	5856.45	105.717	5856.45	104.13	5856.45	104.969	5856.45	102.564	5856.45	103.577	5856.45	100.246	5856.45	101.09	5856.45	98.2121	5856.45	98.3609	5856.45	92.1825	5856.45	94.5058	5856.45	93.8038	5856.45	91.8756	5856.45	92.8313	5856.45	87.7167	5856.45	87.9419	5856.45	85.6539	5856.45	78.449	5856.45	84.1063	5856.45	80.4452	5856.45	83.67	5856.45	77.6418	5856.45	81.735	5856.45	74.8116	5856.45	81.3378	5856.45	64.5676	5856.45	80.7737	5856.45	64.2884	5856.45	80.795	5856.45	71.4637	5856.45	66.4622	5856.45	70.9642	5856.45	73.6247
6062.99	106.125	6062.99	106.651	6062.99	105.222	6062.99	105.905	6062.99	104.561	6062.99	105.296	6062.99	102.71	6062.99	103.847	6062.99	100.435	6062.99	101.25	6062.99	98.507	6062.99	98.5695	6062.99	93.3014	6062.99	94.7936	6062.99	94.0453	6062.99	91.9255	6062.99	93.7329	6062.99	88.0646	6062.99	88.2784	6062.99	84.8362	6062.99	80.2373	6062.99	82.8751	6062.99	81.9291	6062.99	84.2544	6062.99	72.7866	6062.99	80.7083	6062.99	74.7884	6062.99	81.5433	6062.99	68.2583	6062.99	81.3234	6062.99	70.7241	6062.99	80.7964	6062.99	70.1893	6062.99	64.7234	6062.99	68.8307	6062.99	72.4773
6276.86	105.665	6276.86	106.503	6276.86	105.479	6276.86	105.975	6276.86	104.793	6276.86	105.186	6276.86	102.687	6276.86	104.169	6276.86	100.566	6276.86	100.807	6276.86	98.4233	6276.86	98.8002	6276.86	93.4476	6276.86	94.7846	6276.86	92.3001	6276.86	91.439	6276.86	92.7334	6276.86	88.1168	6276.86	84.8951	6276.86	84.7106	6276.86	83.5701	6276.86	83.1386	6276.86	77.7092	6276.86	82.1539	6276.86	76.2434	6276.86	79.659	6276.86	76.0811	6276.86	82.1548	6276.86	65.2998	6276.86	81.1456	6276.86	69.0101	6276.86	79.9011	6276.86	72.6299	6276.86	67.4963	6276.86	67.9896	6276.86	73.3148
6498.05	106.076	6498.05	106.532	6498.05	105.544	6498.05	105.988	6498.05	104.498	6498.05	105.297	6498.05	103.19	6498.05	103.816	6498.05	101.079	6498.05	101.048	6498.05	98.3099	6498.05	98.4377	6498.05	92.975	6498.05	94.5031	6498.05	92.4048	6498.05	90.2962	6498.05	90.9329	6498.05	86.3286	6498.05	79.7346	6498.05	83.7795	6498.05	80.433	6498.05	81.9535	6498.05	79.6811	6498.05	81.7461	6498.05	72.0923	6498.05	79.2239	6498.05	74.3839	6498.05	81.1432	6498.05	68.5789	6498.05	80.1516	6498.05	67.4765	6498.05	79.0807	6498.05	73.696	6498.05	65.2496	6498.05	70.8783	6498.05	73.6261
6726.56	106.283	6726.56	106.597	6726.56	105.348	6726.56	105.864	6726.56	104.309	6726.56	105.352	6726.56	103.209	6726.56	103.727	6726.56	100.93	6726.56	101.266	6726.56	98.4822	6726.56	98.4847	6726.56	92.2375	6726.56	93.2535	6726.56	88.5164	6726.56	90.1243	6726.56	83.7574	6726.56	85.6535	6726.56	82.7987	6726.56	84.5911	6726.56	79.888	6726.56	82.4738	6726.56	78.3478	6726.56	82.4185	6726.56	73.797	6726.56	79.9782	6726.56	70.1313	6726.56	80.8896	6726.56	66.8506	6726.56	80.5263	6726.56	72.6068	6726.56	80.7186	6726.56	70.9477	6726.56	68.4554	6726.56	68.2167	6726.56	74.6855
6963.87	105.98	6963.87	106.316	6963.87	105.323	6963.87	105.871	6963.87	104.262	6963.87	105.146	6963.87	103.153	6963.87	103.776	6963.87	101.041	6963.87	101.112	6963.87	98.5343	6963.87	97.9564	6963.87	91.9238	6963.87	93.5833	6963.87	82.6371	6963.87	90.3744	6963.87	89.4174	6963.87	87.3085	6963.87	87.3537	6963.87	82.6401	6963.87	76.3202	6963.87	81.0815	6963.87	80.0206	6963.87	81.3987	6963.87	73.0578	6963.87	78.1307	6963.87	57.6748	6963.87	80.5348	6963.87	64.0986	6963.87	79.7487	6963.87	70.4814	6963.87	78.8307	6963.87	67.887	6963.87	65.2405	6963.87	66.3853	6963.87	73.0767
7209.96	105.88	7209.96	106.044	7209.96	105.583	7209.96	105.892	7209.96	104.007	7209.96	104.931	7209.96	103.061	7209.96	103.564	7209.96	101.014	7209.96	100.964	7209.96	98.6145	7209.96	97.5694	7209.96	92.0927	7209.96	93.5161	7209.96	87.3735	7209.96	90.0768	7209.96	91.494	7209.96	86.6494	7209.96	87.0521	7209.96	82.4557	7209.96	74.2717	7209.96	80.803	7209.96	79.0688	7209.96	79.9057	7209.96	74.2452	7209.96	77.972	7209.96	68.2505	7209.96	80.3609	7209.96	59.9391	7209.96	79.0504	7209.96	70.5999	7209.96	78.6503	7209.96	68.9866	7209.96	64.7128	7209.96	65.1372	7209.96	75.0235
7464.84	106.057	7464.84	106.23	7464.84	105.603	7464.84	105.847	7464.84	103.944	7464.84	104.857	7464.84	103.092	7464.84	103.496	7464.84	100.513	7464.84	100.206	7464.84	98.5207	7464.84	97.8447	7464.84	93.348	7464.84	93.013	7464.84	89.3145	7464.84	89.1154	7464.84	90.1775	7464.84	84.383	7464.84	84.8772	7464.84	82.1253	7464.84	77.6361	7464.84	80.7275	7464.84	73.8953	7464.84	79.1398	7464.84	66.7938	7464.84	76.4266	7464.84	62.3124	7464.84	79.1491	7464.84	70.8331	7464.84	78.3164	7464.84	72.4371	7464.84	78.284	7464.84	68.2279	7464.84	58.7344	7464.84	68.0526	7464.84	73.5651
7727.05	106.172	7727.05	106.235	7727.05	105.506	7727.05	105.954	7727.05	104.052	7727.05	104.771	7727.05	102.751	7727.05	103.495	7727.05	100.518	7727.05	100.045	7727.05	98.5774	7727.05	97.6964	7727.05	92.5837	7727.05	92.4396	7727.05	88.319	7727.05	87.9538	7727.05	88.2637	7727.05	85.0026	7727.05	80.8977	7727.05	82.1126	7727.05	76.947	7727.05	77.3216	7727.05	73.0426	7727.05	79.1087	7727.05	65.3866	7727.05	74.9599	7727.05	69.0682	7727.05	78.1904	7727.05	67.3767	7727.05	77.7491	7727.05	66.7591	7727.05	77.842	7727.05	69.1829	7727.05	65.4374	7727.05	62.9474	7727.05	74.6195
7999.51	106.102	7999.51	106.199	7999.51	105.433	7999.51	105.866	7999.51	104.308	7999.51	104.825	7999.51	102.66	7999.51	103.035	7999.51	100.083	7999.51	100.222	7999.51	98.1106	7999.51	96.7807	7999.51	92.4324	7999.51	92.0145	7999.51	85.7919	7999.51	88.7962	7999.51	82.0946	7999.51	83.5482	7999.51	75.3273	7999.51	81.4578	7999.51	72.9719	7999.51	79.9913	7999.51	71.5766	7999.51	77.4824	7999.51	63.3834	7999.51	77.0796	7999.51	67.9894	7999.51	76.3363	7999.51	73.0484	7999.51	75.287	7999.51	72.2474	7999.51	78.4454	7999.51	62.5634	7999.51	68.6094	7999.51	65.0677	7999.51	71.1438
8282.23	106.093	8282.23	106.112	8282.23	105.375	8282.23	105.788	8282.23	104.259	8282.23	104.833	8282.23	102.571	8282.23	102.987	8282.23	99.7633	8282.23	99.8247	8282.23	97.4268	8282.23	96.6854	8282.23	92.7378	8282.23	91.7772	8282.23	81.0995	8282.23	87.6307	8282.23	80.9684	8282.23	84.4721	8282.23	78.0701	8282.23	80.9059	8282.23	68.7828	8282.23	78.9584	8282.23	77.0286	8282.23	79.1782	8282.23	70.1004	8282.23	75.1136	8282.23	59.718	8282.23	74.5608	8282.23	73.0127	8282.23	74.2125	8282.23	71.2426	8282.23	77.7813	8282.23	65.3278	8282.23	68.7427	8282.23	67.3703	8282.23	71.4024
8573.73	106.133	8573.73	106.05	8573.73	105.28	8573.73	105.83	8573.73	104.326	8573.73	104.631	8573.73	102.469	8573.73	102.864	8573.73	99.6255	8573.73	99.3645	8573.73	97.5757	8573.73	96.1985	8573.73	93.3753	8573.73	91.5428	8573.73	83.492	8573.73	87.4655	8573.73	84.2737	8573.73	83.6791	8573.73	79.4024	8573.73	80.3853	8573.73	68.8129	8573.73	77.8016	8573.73	75.9378	8573.73	75.8698	8573.73	67.8604	8573.73	74.7971	8573.73	58.0065	8573.73	74.6909	8573.73	72.4321	8573.73	74.0873	8573.73	70.5586	8573.73	78.3868	8573.73	66.756	8573.73	67.0213	8573.73	65.9592	8573.73	70.1868
8876.95	106.232	8876.95	106.02	8876.95	105.28	8876.95	105.801	8876.95	104.27	8876.95	104.612	8876.95	102.335	8876.95	102.484	8876.95	99.0794	8876.95	99.1683	8876.95	97.324	8876.95	95.8689	8876.95	92.4381	8876.95	91.3814	8876.95	87.321	8876.95	86.4259	8876.95	84.6759	8876.95	83.0511	8876.95	79.3421	8876.95	79.074	8876.95	73.087	8876.95	75.5825	8876.95	72.8561	8876.95	76.2411	8876.95	65.119	8876.95	73.0857	8876.95	65.9387	8876.95	72.8203	8876.95	72.6198	8876.95	72.5886	8876.95	69.6562	8876.95	75.9517	8876.95	65.6971	8876.95	64.3559	8876.95	66.1578	8876.95	70.6971
9188.96	106.37	9188.96	106.084	9188.96	105.359	9188.96	105.82	9188.96	104.156	9188.96	104.609	9188.96	102.354	9188.96	102.284	9188.96	98.6447	9188.96	98.9423	9188.96	96.343	9188.96	95.5821	9188.96	90.6547	9188.96	91.2231	9188.96	87.0033	9188.96	86.2327	9188.96	83.9825	9188.96	82.406	9188.96	80.4524	9188.96	78.1674	9188.96	68.6595	9188.96	77.6932	9188.96	77.347	9188.96	74.1984	9188.96	69.0309	9188.96	74.7607	9188.96	65.9048	9188.96	73.4241	9188.96	70.4227	9188.96	72.2791	9188.96	69.9722	9188.96	74.5654	9188.96	62.5204	9188.96	62.3561	9188.96	69.1931	9188.96	70.5826
9514.16	106.373	9514.16	106.223	9514.16	105.495	9514.16	105.825	9514.16	104.108	9514.16	104.755	9514.16	102.426	9514.16	102.232	9514.16	98.2852	9514.16	98.3749	9514.16	96.2849	9514.16	95.4994	9514.16	92.1956	9514.16	91.1596	9514.16	87.5751	9514.16	85.3029	9514.16	85.1948	9514.16	83.4384	9514.16	79.2562	9514.16	78.602	9514.16	71.666	9514.16	77.0187	9514.16	74.0761	9514.16	73.0093	9514.16	70.5608	9514.16	75.358	9514.16	58.905	9514.16	72.4602	9514.16	65.3023	9514.16	70.1348	9514.16	69.3809	9514.16	72.582	9514.16	62.299	9514.16	59.197	9514.16	67.762	9514.16	70.2968
9849.61	106.249	9849.61	106.349	9849.61	105.691	9849.61	105.905	9849.61	104.058	9849.61	104.769	9849.61	102.482	9849.61	102.324	9849.61	98.4037	9849.61	98.4803	9849.61	95.9913	9849.61	95.1479	9849.61	93.7126	9849.61	91.3718	9849.61	86.4828	9849.61	85.6894	9849.61	82.3907	9849.61	82.6302	9849.61	77.8335	9849.61	79.9894	9849.61	72.2775	9849.61	75.0802	9849.61	76.6998	9849.61	72.6141	9849.61	70.9487	9849.61	75.189	9849.61	53.8774	9849.61	71.9405	9849.61	63.3086	9849.61	71.2374	9849.61	65.6362	9849.61	72.9771	9849.61	66.7955	9849.61	64.5016	9849.61	69.5128	9849.61	67.8002
10196.8	106.096	10196.8	106.277	10196.8	105.589	10196.8	105.848	10196.8	103.987	10196.8	104.801	10196.8	102.435	10196.8	102.212	10196.8	98.2032	10196.8	98.544	10196.8	96.2169	10196.8	95.116	10196.8	93.0059	10196.8	91.1679	10196.8	85.3545	10196.8	86.3622	10196.8	80.2176	10196.8	82.1322	10196.8	75.9079	10196.8	79.4894	10196.8	72.9064	10196.8	74.271	10196.8	78.5727	10196.8	72.2153	10196.8	70.1877	10196.8	75.0388	10196.8	57.2515	10196.8	70.5863	10196.8	71.3373	10196.8	72.5706	10196.8	67.635	10196.8	74.5739	10196.8	66.7666	10196.8	61.2084	10196.8	62.7211	10196.8	69.5028
10555.7	105.905	10555.7	106.071	10555.7	105.494	10555.7	105.718	10555.7	103.853	10555.7	104.787	10555.7	102.386	10555.7	102.363	10555.7	98.6568	10555.7	98.8855	10555.7	95.2454	10555.7	95.4117	10555.7	93.3762	10555.7	91.2703	10555.7	85.4663	10555.7	86.5508	10555.7	85.6805	10555.7	81.7437	10555.7	78.222	10555.7	78.8599	10555.7	67.3799	10555.7	74.8332	10555.7	79.7529	10555.7	72.5835	10555.7	73.1478	10555.7	75.7203	10555.7	64.4513	10555.7	70.1313	10555.7	71.5831	10555.7	70.7112	10555.7	67.0821	10555.7	72.5122	10555.7	65.5602	10555.7	50.0536	10555.7	46.9804	10555.7	70.7548
10927.7	105.764	10927.7	105.992	10927.7	105.533	10927.7	105.808	10927.7	103.966	10927.7	105.035	10927.7	102.554	10927.7	102.738	10927.7	99.5115	10927.7	99.4491	10927.7	96.2614	10927.7	95.8029	10927.7	94.1792	10927.7	92.0744	10927.7	86.723	10927.7	86.1111	10927.7	86.5801	10927.7	82.5179	10927.7	80.4638	10927.7	78.7581	10927.7	68.2695	10927.7	75.3405	10927.7	81.4133	10927.7	74.4825	10927.7	74.9198	10927.7	75.3487	10927.7	69.0913	10927.7	70.3802	10927.7	72.0612	10927.7	70.8036	10927.7	68.8894	10927.7	71.9287	10927.7	64.2416	10927.7	57.5617	10927.7	57.9834	10927.7	70.8503
11313	105.436	11313	105.841	11313	105.369	11313	105.691	11313	103.974	11313	105.108	11313	102.499	11313	102.991	11313	99.7957	11313	99.6438	11313	97.24	11313	96.684	11313	92.7333	11313	91.7975	11313	87.7978	11313	86.663	11313	84.6297	11313	82.2414	11313	79.9704	11313	78.2833	11313	72.89	11313	75.0531	11313	81.6795	11313	74.7094	11313	74.7736	11313	75.4392	11313	64.8227	11313	70.9033	11313	68.5913	11313	70.8932	11313	69.8263	11313	72.9819	11313	60.2385	11313	61.3435	11313	64.8954	11313	70.9703
11712.9	104.838	11712.9	105.24	11712.9	104.88	11712.9	105.297	11712.9	103.692	11712.9	104.831	11712.9	102.567	11712.9	103.065	11712.9	99.5223	11712.9	99.7355	11712.9	96.8981	11712.9	96.3969	11712.9	93.918	11712.9	92.1218	11712.9	88.7174	11712.9	86.5041	11712.9	81.9508	11712.9	82.6157	11712.9	75.3199	11712.9	78.3182	11712.9	65.285	11712.9	75.3638	11712.9	82.3156	11712.9	73.7483	11712.9	76.4354	11712.9	74.3098	11712.9	62.1177	11712.9	68.0801	11712.9	67.8877	11712.9	69.8141	11712.9	66.4713	11712.9	72.6304	11712.9	45.0957	11712.9	65.7435	11712.9	68.4327	11712.9	70.8476
12126	104.301	12126	104.734	12126	104.652	12126	104.968	12126	103.692	12126	104.663	12126	102.702	12126	103.162	12126	99.6843	12126	99.9389	12126	97.4309	12126	96.4198	12126	95.0146	12126	91.9589	12126	87.1869	12126	86.2522	12126	84.3148	12126	81.9976	12126	76.7734	12126	77.8601	12126	73.8177	12126	74.3059	12126	83.7468	12126	73.3488	12126	74.5452	12126	73.7585	12126	53.0581	12126	66.6796	12126	68.9891	12126	68.4548	12126	67.3867	12126	72.5098	12126	54.7903	12126	65.7187	12126	69.9856	12126	71.8977
12553.7	104.164	12553.7	104.509	12553.7	104.74	12553.7	104.814	12553.7	103.926	12553.7	104.688	12553.7	103.105	12553.7	103.241	12553.7	100.5	12553.7	100.181	12553.7	97.5203	12553.7	96.2719	12553.7	94.7207	12553.7	91.7375	12553.7	87.5673	12553.7	85.5718	12553.7	84.8617	12553.7	81.0854	12553.7	74.3161	12553.7	75.3873	12553.7	73.0968	12553.7	71.6997	12553.7	84.8842	12553.7	72.941	12553.7	76.4178	12553.7	72.4225	12553.7	54.7937	12553.7	59.6928	12553.7	68.5531	12553.7	63.9182	12553.7	66.5013	12553.7	70.3898	12553.7	60.1477	12553.7	67.4447	12553.7	68.1651	12553.7	71.4998
12996.1	104.549	12996.1	104.861	12996.1	104.862	12996.1	105.087	12996.1	104.06	12996.1	104.829	12996.1	103.29	12996.1	103.281	12996.1	100.929	12996.1	100.006	12996.1	97.5821	12996.1	96.1981	12996.1	92.618	12996.1	91.0555	12996.1	88.6114	12996.1	84.5237	12996.1	83.0361	12996.1	80.9788	12996.1	74.7512	12996.1	74.9065	12996.1	73.8921	12996.1	70.8081	12996.1	84.6545	12996.1	72.1506	12996.1	77.7126	12996.1	70.9284	12996.1	61.4347	12996.1	54.513	12996.1	65.3767	12996.1	64.2322	12996.1	67.8661	12996.1	71.736	12996.1	61.9128	12996.1	66.447	12996.1	68.3032	12996.1	70.7893
13454.6	104.741	13454.6	105.281	13454.6	104.838	13454.6	105.385	13454.6	103.905	13454.6	104.989	13454.6	102.96	13454.6	103.144	13454.6	100.428	13454.6	99.5078	13454.6	96.879	13454.6	95.608	13454.6	92.7708	13454.6	91.0886	13454.6	88.4228	13454.6	83.9301	13454.6	82.7867	13454.6	80.7052	13454.6	74.9317	13454.6	73.1999	13454.6	71.7539	13454.6	71.0886	13454.6	85.1253	13454.6	71.1909	13454.6	78.6764	13454.6	68.9949	13454.6	60.1162	13454.6	59.5193	13454.6	64.6693	13454.6	69.184	13454.6	64.5851	13454.6	72.2334	13454.6	58.6787	13454.6	63.1292	13454.6	57.1377	13454.6	69.2314
13929.2	104.931	13929.2	105.307	13929.2	104.798	13929.2	105.165	13929.2	103.64	13929.2	104.785	13929.2	102.582	13929.2	102.967	13929.2	99.8427	13929.2	99.3194	13929.2	96.3679	13929.2	94.9543	13929.2	92.4569	13929.2	90.353	13929.2	87.7683	13929.2	83.7659	13929.2	78.0486	13929.2	79.0015	13929.2	68.4263	13929.2	74.7113	13929.2	70.2832	13929.2	70.4551	13929.2	85.4952	13929.2	70.323	13929.2	78.5124	13929.2	68.4755	13929.2	65.1563	13929.2	61.2985	13929.2	62.7065	13929.2	71.8005	13929.2	63.4004	13929.2	74.0316	13929.2	54.1309	13929.2	54.5788	13929.2	58.7754	13929.2	68.1136
14419.9	105.123	14419.9	105.325	14419.9	104.82	14419.9	104.95	14419.9	103.528	14419.9	104.549	14419.9	102.454	14419.9	102.773	14419.9	99.6731	14419.9	99.16	14419.9	95.7807	14419.9	94.7214	14419.9	91.7464	14419.9	89.8328	14419.9	84.9849	14419.9	83.0026	14419.9	79.9378	14419.9	77.9842	14419.9	73.0834	14419.9	71.1157	14419.9	70.4792	14419.9	69.2743	14419.9	85.8891	14419.9	68.7112	14419.9	77.7004	14419.9	67.2258	14419.9	59.6649	14419.9	63.3259	14419.9	65.7391	14419.9	71.2872	14419.9	64.4368	14419.9	73.0333	14419.9	59.1045	14419.9	62.3419	14419.9	64.1918	14419.9	67.6049
14928.2	105.759	14928.2	105.929	14928.2	105.133	14928.2	105.185	14928.2	103.668	14928.2	104.697	14928.2	102.65	14928.2	102.871	14928.2	99.9108	14928.2	99.1615	14928.2	95.7867	14928.2	94.565	14928.2	90.6593	14928.2	89.286	14928.2	87.6622	14928.2	82.7553	14928.2	80.0136	14928.2	77.8282	14928.2	71.8175	14928.2	70.6547	14928.2	72.342	14928.2	69.2081	14928.2	86.4435	14928.2	68.7883	14928.2	78.5161	14928.2	64.6619	14928.2	62.6652	14928.2	60.6559	14928.2	65.6478	14928.2	70.3264	14928.2	65.772	14928.2	72.0603	14928.2	57.6597	14928.2	64.3765	14928.2	66.2537	14928.2	67.7788
15455.6	106.237	15455.6	106.29	15455.6	105.328	15455.6	105.471	15455.6	103.664	15455.6	104.837	15455.6	102.528	15455.6	102.848	15455.6	99.7131	15455.6	98.9566	15455.6	95.5941	15455.6	93.9644	15455.6	89.4015	15455.6	88.9991	15455.6	87.4066	15455.6	81.9119	15455.6	72.2103	15455.6	75.814	15455.6	69.2859	15455.6	71.5809	15455.6	71.1453	15455.6	69.1729	15455.6	86.1995	15455.6	66.6721	15455.6	79.5741	15455.6	62.7977	15455.6	62.4331	15455.6	60.7246	15455.6	66.1823	15455.6	68.6198	15455.6	67.5939	15455.6	70.2006	15455.6	60.8747	15455.6	65.8956	15455.6	65.8543	15455.6	68.0466
16000.5	106.234	16000.5	106.359	16000.5	105.189	16000.5	105.471	16000.5	103.465	16000.5	104.816	16000.5	102.291	16000.5	102.651	16000.5	99.0625	16000.5	98.47	16000.5	94.9959	16000.5	93.2105	16000.5	89.2338	16000.5	87.4202	16000.5	84.8389	16000.5	81.2156	16000.5	74.9772	16000.5	74.4215	16000.5	69.6315	16000.5	70.4252	16000.5	71.6907	16000.5	65.7598	16000.5	86.1561	16000.5	65.6088	16000.5	79.7564	16000.5	62.4494	16000.5	61.3563	16000.5	59.9155	16000.5	67.0221	16000.5	68.3686	16000.5	65.2996	16000.5	65.9316	16000.5	58.8489	16000.5	66.1354	16000.5	59.9712	16000.5	67.1737
16564.5	105.935	16564.5	106.182	16564.5	104.829	16564.5	105.351	16564.5	103.338	16564.5	104.811	16564.5	101.993	16564.5	102.341	16564.5	98.8051	16564.5	97.6743	16564.5	94.4165	16564.5	91.9794	16564.5	87.7936	16564.5	86.2263	16564.5	84.49	16564.5	79.364	16564.5	74.5851	16564.5	72.2496	16564.5	67.8928	16564.5	69.31	16564.5	70.0514	16564.5	68.044	16564.5	86.6937	16564.5	61.7563	16564.5	80.3218	16564.5	60.3693	16564.5	62.3775	16564.5	55.7422	16564.5	64.0962	16564.5	66.307	16564.5	66.1063	16564.5	62.4347	16564.5	60.5496	16564.5	65.849	16564.5	57.3706	16564.5	65.6925
17148.9	105.508	17148.9	105.833	17148.9	104.458	17148.9	105.244	17148.9	103.223	17148.9	104.77	17148.9	101.984	17148.9	102.047	17148.9	98.5509	17148.9	96.9358	17148.9	93.7145	17148.9	90.3808	17148.9	85.8736	17148.9	84.4369	17148.9	84.3915	17148.9	78.2614	17148.9	68.4022	17148.9	69.9208	17148.9	66.6997	17148.9	69.1484	17148.9	70.5361	17148.9	63.2908	17148.9	86.8412	17148.9	59.9452	17148.9	80.5587	17148.9	62.1023	17148.9	61.7129	17148.9	50.9782	17148.9	66.175	17148.9	65.5687	17148.9	67.8728	17148.9	55.3752	17148.9	61.2744	17148.9	62.9678	17148.9	60.2025	17148.9	63.4001
17752.4	104.715	17752.4	105.199	17752.4	103.76	17752.4	104.954	17752.4	102.673	17752.4	104.553	17752.4	101.407	17752.4	101.451	17752.4	97.6115	17752.4	95.7552	17752.4	92.7547	17752.4	88.598	17752.4	85.3334	17752.4	82.0671	17752.4	81.4086	17752.4	76.6592	17752.4	74.8693	17752.4	68.1648	17752.4	64.8962	17752.4	67.3021	17752.4	70.414	17752.4	63.8519	17752.4	86.7382	17752.4	55.0148	17752.4	80.0427	17752.4	61.6269	17752.4	60.015	17752.4	49.3655	17752.4	64.7607	17752.4	62.9056	17752.4	66.3918	17752.4	46.897	17752.4	60.649	17752.4	57.7045	17752.4	62.7057	17752.4	61.604
18379.4	103.285	18379.4	103.989	18379.4	102.389	18379.4	104.153	18379.4	101.683	18379.4	103.9	18379.4	100.388	18379.4	100.387	18379.4	96.3823	18379.4	94.0436	18379.4	91.2081	18379.4	86.5249	18379.4	84.5213	18379.4	80.4902	18379.4	79.3869	18379.4	74.6667	18379.4	73.7262	18379.4	67.3575	18379.4	61.5789	18379.4	67.0931	18379.4	68.0841	18379.4	61.2751	18379.4	86.0105	18379.4	49.99	18379.4	79.1537	18379.4	61.56	18379.4	59.7761	18379.4	45.8897	18379.4	63.4697	18379.4	61.5408	18379.4	67.019	18379.4	59.9771	18379.4	61.7749	18379.4	58.432	18379.4	63.6176	18379.4	62.5909
19026.9	101.688	19026.9	102.641	19026.9	100.886	19026.9	103.312	19026.9	100.667	19026.9	103.099	19026.9	99.5444	19026.9	99.0231	19026.9	95.4221	19026.9	92.2108	19026.9	90.2677	19026.9	84.7615	19026.9	83.8663	19026.9	79.1315	19026.9	79.3051	19026.9	73.8715	19026.9	73.6188	19026.9	66.8768	19026.9	61.8898	19026.9	66.5094	19026.9	67.7832	19026.9	60.8109	19026.9	85.2243	19026.9	48.9638	19026.9	78.1306	19026.9	62.2934	19026.9	58.5346	19026.9	53.7363	19026.9	63.9975	19026.9	63.2007	19026.9	67.6948	19026.9	63.5654	19026.9	64.1509	19026.9	61.3645	19026.9	65.6748	19026.9	64.0508
19697.8	101.207	19697.8	102.211	19697.8	100.094	19697.8	102.977	19697.8	99.7841	19697.8	102.748	19697.8	98.959	19697.8	98.2353	19697.8	94.9812	19697.8	91.4513	19697.8	90.2046	19697.8	85.253	19697.8	85.596	19697.8	79.9081	19697.8	78.9562	19697.8	73.01	19697.8	74.9674	19697.8	68.3371	19697.8	59.2865	19697.8	65.4969	19697.8	66.9453	19697.8	60.1046	19697.8	84.4761	19697.8	49.969	19697.8	77.0976	19697.8	64.9046	19697.8	59.1011	19697.8	60.2362	19697.8	65.1582	19697.8	63.1729	19697.8	68.2058	19697.8	68.3534	19697.8	64.8387	19697.8	63.556	19697.8	66.7054	19697.8	64.7596
19999.5	101.054	19999.5	102.273	19999.5	100.054	19999.5	103.045	19999.5	100.045	19999.5	102.745	19999.5	98.7563	19999.5	97.9824	19999.5	94.9623	19999.5	91.3607	19999.5	89.6276	19999.5	85.7177	19999.5	85.7543	19999.5	82.2458	19999.5	77.7854	19999.5	68.1283	19999.5	74.6016	19999.5	66.4522	19999.5	71.5071	19999.5	70.1552	19999.5	59.529	19999.5	60.9944	19999.5	85.3106	19999.5	53.401	19999.5	77.4331	19999.5	61.5571	19999.5	64.1842	19999.5	60.9622	19999.5	66.4956	19999.5	66.1814	19999.5	68.5492	19999.5	68.2471	19999.5	67.1072	19999.5	66.1492	19999.5	62.0628	19999.5	64.2897
