"SPL Vertical"
"On-Axis"		"10°"		"-10°"		"20°"		"-20°"		"30°"		"-30°"		"40°"		"-40°"		"50°"		"-50°"		"60°"		"-60°"		"70°"		"-70°"		"80°"		"-80°"		"90°"		"-90°"		"100°"		"-100°"		"110°"		"-110°"		"120°"		"-120°"		"130°"		"-130°"		"140°"		"-140°"		"150°"		"-150°"		"160°"		"-160°"		"170°"		"-170°"		"180°"
"Frequency / Hz"	"Sound Pressure Level / dB (re 20 µPa/V)  [2.83  V @ 1. m]"	"Frequency / Hz"	"Sound Pressure Level / dB (re 20 µPa/V)  [2.83  V @ 1. m]"	"Frequency / Hz"	"Sound Pressure Level / dB (re 20 µPa/V)  [2.83  V @ 1. m]"	"Frequency / Hz"	"Sound Pressure Level / dB (re 20 µPa/V)  [2.83  V @ 1. m]"	"Frequency / Hz"	"Sound Pressure Level / dB (re 20 µPa/V)  [2.83  V @ 1. m]"	"Frequency / Hz"	"Sound Pressure Level / dB (re 20 µPa/V)  [2.83  V @ 1. m]"	"Frequency / Hz"	"Sound Pressure Level / dB (re 20 µPa/V)  [2.83  V @ 1. m]"	"Frequency / Hz"	"Sound Pressure Level / dB (re 20 µPa/V)  [2.83  V @ 1. m]"	"Frequency / Hz"	"Sound Pressure Level / dB (re 20 µPa/V)  [2.83  V @ 1. m]"	"Frequency / Hz"	"Sound Pressure Level / dB (re 20 µPa/V)  [2.83  V @ 1. m]"	"Frequency / Hz"	"Sound Pressure Level / dB (re 20 µPa/V)  [2.83  V @ 1. m]"	"Frequency / Hz"	"Sound Pressure Level / dB (re 20 µPa/V)  [2.83  V @ 1. m]"	"Frequency / Hz"	"Sound Pressure Level / dB (re 20 µPa/V)  [2.83  V @ 1. m]"	"Frequency / Hz"	"Sound Pressure Level / dB (re 20 µPa/V)  [2.83  V @ 1. m]"	"Frequency / Hz"	"Sound Pressure Level / dB (re 20 µPa/V)  [2.83  V @ 1. m]"	"Frequency / Hz"	"Sound Pressure Level / dB (re 20 µPa/V)  [2.83  V @ 1. m]"	"Frequency / Hz"	"Sound Pressure Level / dB (re 20 µPa/V)  [2.83  V @ 1. m]"	"Frequency / Hz"	"Sound Pressure Level / dB (re 20 µPa/V)  [2.83  V @ 1. m]"	"Frequency / Hz"	"Sound Pressure Level / dB (re 20 µPa/V)  [2.83  V @ 1. m]"	"Frequency / Hz"	"Sound Pressure Level / dB (re 20 µPa/V)  [2.83  V @ 1. m]"	"Frequency / Hz"	"Sound Pressure Level / dB (re 20 µPa/V)  [2.83  V @ 1. m]"	"Frequency / Hz"	"Sound Pressure Level / dB (re 20 µPa/V)  [2.83  V @ 1. m]"	"Frequency / Hz"	"Sound Pressure Level / dB (re 20 µPa/V)  [2.83  V @ 1. m]"	"Frequency / Hz"	"Sound Pressure Level / dB (re 20 µPa/V)  [2.83  V @ 1. m]"	"Frequency / Hz"	"Sound Pressure Level / dB (re 20 µPa/V)  [2.83  V @ 1. m]"	"Frequency / Hz"	"Sound Pressure Level / dB (re 20 µPa/V)  [2.83  V @ 1. m]"	"Frequency / Hz"	"Sound Pressure Level / dB (re 20 µPa/V)  [2.83  V @ 1. m]"	"Frequency / Hz"	"Sound Pressure Level / dB (re 20 µPa/V)  [2.83  V @ 1. m]"	"Frequency / Hz"	"Sound Pressure Level / dB (re 20 µPa/V)  [2.83  V @ 1. m]"	"Frequency / Hz"	"Sound Pressure Level / dB (re 20 µPa/V)  [2.83  V @ 1. m]"	"Frequency / Hz"	"Sound Pressure Level / dB (re 20 µPa/V)  [2.83  V @ 1. m]"	"Frequency / Hz"	"Sound Pressure Level / dB (re 20 µPa/V)  [2.83  V @ 1. m]"	"Frequency / Hz"	"Sound Pressure Level / dB (re 20 µPa/V)  [2.83  V @ 1. m]"	"Frequency / Hz"	"Sound Pressure Level / dB (re 20 µPa/V)  [2.83  V @ 1. m]"	"Frequency / Hz"	"Sound Pressure Level / dB (re 20 µPa/V)  [2.83  V @ 1. m]"	"Frequency / Hz"	"Sound Pressure Level / dB (re 20 µPa/V)  [2.83  V @ 1. m]"
20.5078	46.244	20.5078	46.1715	20.5078	46.3329	20.5078	46.1645	20.5078	46.4228	20.5078	46.3004	20.5078	46.5288	20.5078	46.6621	20.5078	46.6922	20.5078	47.298	20.5078	46.9695	20.5078	48.1901	20.5078	47.4147	20.5078	49.2622	20.5078	48.0557	20.5078	50.4188	20.5078	48.8794	20.5078	51.5767	20.5078	49.8375	20.5078	52.6762	20.5078	50.866	20.5078	53.6779	20.5078	51.9043	20.5078	54.5563	20.5078	52.9034	20.5078	55.2945	20.5078	53.827	20.5078	55.8803	20.5078	54.6484	20.5078	56.305	20.5078	55.3474	20.5078	56.5626	20.5078	55.9081	20.5078	56.6501	20.5078	56.318	20.5078	56.5675
21.9727	46.2078	21.9727	45.9335	21.9727	46.3514	21.9727	45.5724	21.9727	46.3531	21.9727	45.2222	21.9727	46.2253	21.9727	45.0531	21.9727	46.0075	21.9727	45.2736	21.9727	45.7793	21.9727	46.0006	21.9727	45.6708	21.9727	47.1536	21.9727	45.8446	21.9727	48.528	21.9727	46.4166	21.9727	49.9367	21.9727	47.3709	21.9727	51.264	21.9727	48.5729	21.9727	52.451	21.9727	49.8634	21.9727	53.4702	21.9727	51.1236	21.9727	54.3091	21.9727	52.2819	21.9727	54.9613	21.9727	53.2994	21.9727	55.4229	21.9727	54.1552	21.9727	55.6915	21.9727	54.8367	21.9727	55.7661	21.9727	55.3358	21.9727	55.6469
23.4375	47.7067	23.4375	47.5797	23.4375	47.7749	23.4375	47.4529	23.4375	47.7625	23.4375	47.4255	23.4375	47.6809	23.4375	47.6211	23.4375	47.5772	23.4375	48.1362	23.4375	47.537	23.4375	48.9798	23.4375	47.6762	23.4375	50.0664	23.4375	48.1018	23.4375	51.2713	23.4375	48.8507	23.4375	52.486	23.4375	49.8643	23.4375	53.6361	23.4375	51.028	23.4375	54.6767	23.4375	52.2293	23.4375	55.5813	23.4375	53.3859	23.4375	56.3338	23.4375	54.4461	23.4375	56.9237	23.4375	55.3791	23.4375	57.3437	23.4375	56.1659	23.4375	57.5886	23.4375	56.7944	23.4375	57.6557	23.4375	57.2559	23.4375	57.5443
24.9023	48.3584	24.9023	48.2457	24.9023	48.4194	24.9023	48.14	24.9023	48.4088	24.9023	48.1422	24.9023	48.3416	24.9023	48.3778	24.9023	48.269	24.9023	48.9416	24.9023	48.2796	24.9023	49.8362	24.9023	48.487	24.9023	50.9685	24.9023	48.9861	24.9023	52.2101	24.9023	49.7975	24.9023	53.4521	24.9023	50.8528	24.9023	54.6219	24.9023	52.0387	24.9023	55.6762	24.9023	53.2489	24.9023	56.5899	24.9023	54.4076	24.9023	57.3482	24.9023	55.4671	24.9023	57.9413	24.9023	56.3985	24.9023	58.3626	24.9023	57.1841	24.9023	58.6077	24.9023	57.8119	24.9023	58.6743	24.9023	58.2733	24.9023	58.5622
26.3672	51.0464	26.3672	50.9742	26.3672	51.0716	26.3672	50.896	26.3672	51.0359	26.3672	50.8825	26.3672	50.9513	26.3672	51.0254	26.3672	50.857	26.3672	51.4093	26.3672	50.8208	26.3672	52.0685	26.3672	50.9332	26.3672	52.9643	26.3672	51.2803	26.3672	54.0077	26.3672	51.9019	26.3672	55.1012	26.3672	52.7666	26.3672	56.1665	26.3672	53.7897	26.3672	57.1494	26.3672	54.8751	26.3672	58.0151	26.3672	55.9433	26.3672	58.7412	26.3672	56.9388	26.3672	59.3134	26.3672	57.8256	26.3672	59.7217	26.3672	58.5802	26.3672	59.9599	26.3672	59.1869	26.3672	60.0246	26.3672	59.6346	26.3672	59.9155
27.832	53.087	27.832	53.0428	27.832	53.1013	27.832	53.0036	27.832	53.0737	27.832	53.0271	27.832	53.0143	27.832	53.1864	27.832	52.9564	27.832	53.5478	27.832	52.956	27.832	54.1411	27.832	53.0857	27.832	54.9413	27.832	53.4144	27.832	55.8808	27.832	53.976	27.832	56.8789	27.832	54.7508	27.832	57.8646	27.832	55.6745	27.832	58.7849	27.832	56.6669	27.832	59.6032	27.832	57.6566	27.832	60.2947	27.832	58.5894	27.832	60.8425	27.832	59.4277	27.832	61.2351	27.832	60.1457	27.832	61.4651	27.832	60.7255	27.832	61.5283	27.832	61.1546	27.832	61.424
29.2969	55.1563	29.2969	55.1266	29.2969	55.1663	29.2969	55.1077	29.2969	55.1453	29.2969	55.149	29.2969	55.1021	29.2969	55.311	29.2969	55.0645	29.2969	55.6486	29.2969	55.0797	29.2969	56.1876	29.2969	55.2072	29.2969	56.9109	29.2969	55.504	29.2969	57.7653	29.2969	56.0013	29.2969	58.6823	29.2969	56.6887	29.2969	59.5979	29.2969	57.518	29.2969	60.4607	29.2969	58.4227	29.2969	61.2332	29.2969	59.3386	29.2969	61.8889	29.2969	60.2134	29.2969	62.4091	29.2969	61.0086	29.2969	62.7809	29.2969	61.6964	29.2969	62.996	29.2969	62.2568	29.2969	63.0499	29.2969	62.6755	29.2969	62.942
30.7617	57.6235	30.7617	57.6049	30.7617	57.6279	30.7617	57.5954	30.7617	57.6099	30.7617	57.6321	30.7617	57.576	30.7617	57.7611	30.7617	57.5481	30.7617	58.027	30.7617	57.5621	30.7617	58.4564	30.7617	57.6637	30.7617	59.0467	30.7617	57.8981	30.7617	59.7644	30.7617	58.2952	30.7617	60.5574	30.7617	58.8559	30.7617	61.3696	30.7617	59.5507	30.7617	62.1514	30.7617	60.3301	30.7617	62.863	30.7617	61.1393	30.7617	63.4746	30.7617	61.9287	30.7617	63.9642	30.7617	62.6583	30.7617	64.3164	30.7617	63.2974	30.7617	64.521	30.7617	63.8231	30.7617	64.5728	30.7617	64.2182	30.7617	64.4707
32.2266	59.5473	32.2266	59.5288	32.2266	59.5527	32.2266	59.5176	32.2266	59.5378	32.2266	59.5458	32.2266	59.508	32.2266	59.654	32.2266	59.4812	32.2266	59.8822	32.2266	59.4878	32.2266	60.2576	32.2266	59.5668	32.2266	60.7824	32.2266	59.759	32.2266	61.4314	32.2266	60.0944	32.2266	62.1599	32.2266	60.5806	32.2266	62.9162	32.2266	61.1981	32.2266	63.6519	32.2266	61.9064	32.2266	64.3269	32.2266	62.6558	32.2266	64.9099	32.2266	63.3983	32.2266	65.3779	32.2266	64.0929	32.2266	65.7143	32.2266	64.7072	32.2266	65.9082	32.2266	65.2164	32.2266	65.9539	32.2266	65.6019	32.2266	65.8506
33.6914	61.8149	33.6914	61.8107	33.6914	61.8149	33.6914	61.8187	33.6914	61.8047	33.6914	61.8645	33.6914	61.7888	33.6914	61.9797	33.6914	61.7819	33.6914	62.1954	33.6914	61.8082	33.6914	62.5334	33.6914	61.8983	33.6914	62.9974	33.6914	62.0838	33.6914	63.5699	33.6914	62.3884	33.6914	64.2167	33.6914	62.8197	33.6914	64.8952	33.6914	63.3646	33.6914	65.5629	33.6914	63.9924	33.6914	66.182	33.6914	64.6631	33.6914	66.7216	33.6914	65.3349	33.6914	67.1578	33.6914	65.9699	33.6914	67.473	33.6914	66.5365	33.6914	67.6555	33.6914	67.0095	33.6914	67.699	33.6914	67.3695	33.6914	67.6023
35.1562	63.9981	35.1562	63.9913	35.1562	64.0021	35.1562	63.9956	35.1562	63.998	35.1562	64.0325	35.1562	63.9892	35.1562	64.1287	35.1562	63.9877	35.1562	64.3113	35.1562	64.0132	35.1562	64.6004	35.1562	64.0912	35.1562	65.0022	35.1562	64.2484	35.1562	65.5052	35.1562	64.5067	35.1562	66.0823	35.1562	64.8756	35.1562	66.6966	35.1562	65.3483	35.1562	67.3092	35.1562	65.9019	35.1562	67.8836	35.1562	66.5029	35.1562	68.3889	35.1562	67.1138	35.1562	68.8004	35.1562	67.6984	35.1562	69.0995	35.1562	68.2252	35.1562	69.2738	35.1562	68.6681	35.1562	69.3163	35.1562	69.0066	35.1562	69.2259
36.6211	65.8752	36.6211	65.8839	36.6211	65.8717	36.6211	65.9094	36.6211	65.8687	36.6211	65.969	36.6211	65.869	36.6211	66.0842	36.6211	65.8823	36.6211	66.2758	36.6211	65.9246	36.6211	66.5591	36.6211	66.0163	36.6211	66.9383	36.6211	66.1787	36.6211	67.404	36.6211	66.4289	36.6211	67.9339	36.6211	66.7747	36.6211	68.4972	36.6211	67.2109	36.6211	69.0599	36.6211	67.7191	36.6211	69.5894	36.6211	68.2715	36.6211	70.0565	36.6211	68.8356	36.6211	70.4375	36.6211	69.3789	36.6211	70.7142	36.6211	69.8717	36.6211	70.8738	36.6211	70.2889	36.6211	70.9096	36.6211	70.6101	36.6211	70.8202
38.0859	67.8833	38.0859	67.8972	38.0859	67.8772	38.0859	67.9284	38.0859	67.8751	38.0859	67.9912	38.0859	67.8788	38.0859	68.1026	38.0859	67.8962	38.0859	68.2794	38.0859	67.9401	38.0859	68.5343	38.0859	68.027	38.0859	68.8714	38.0859	68.1743	38.0859	69.2843	38.0859	68.3966	38.0859	69.7557	38.0859	68.7013	38.0859	70.2601	38.0859	69.0858	38.0859	70.7681	38.0859	69.5364	38.0859	71.2497	38.0859	70.0306	38.0859	71.6776	38.0859	70.5403	38.0859	72.0282	38.0859	71.0361	38.0859	72.2833	38.0859	71.49	38.0859	72.43	38.0859	71.8772	38.0859	72.4612	38.0859	72.1775	38.0859	72.3755
39.5508	69.8887	39.5508	69.9031	39.5508	69.8827	39.5508	69.9338	39.5508	69.8817	39.5508	69.9924	39.5508	69.8871	39.5508	70.093	39.5508	69.9051	39.5508	70.2495	39.5508	69.9462	39.5508	70.4729	39.5508	70.0237	39.5508	70.7677	39.5508	70.1523	39.5508	71.13	39.5508	70.3446	39.5508	71.5464	39.5508	70.6081	39.5508	71.9962	39.5508	70.9425	39.5508	72.4534	39.5508	71.3379	39.5508	72.8908	39.5508	71.7764	39.5508	73.2823	39.5508	72.2339	39.5508	73.6051	39.5508	72.6839	39.5508	73.8407	39.5508	73.0998	39.5508	73.9761	39.5508	73.4578	39.5508	74.0039	39.5508	73.7373	39.5508	73.9227
41.0156	71.6929	41.0156	71.7126	41.0156	71.6836	41.0156	71.7494	41.0156	71.6817	41.0156	71.8128	41.0156	71.6884	41.0156	71.9142	41.0156	71.7086	41.0156	72.0649	41.0156	71.7508	41.0156	72.2739	41.0156	71.826	41.0156	72.545	41.0156	71.9463	41.0156	72.8752	41.0156	72.1226	41.0156	73.2535	41.0156	72.3615	41.0156	73.6623	41.0156	72.6635	41.0156	74.0792	41.0156	73.0214	41.0156	74.4795	41.0156	73.4201	41.0156	74.8389	41.0156	73.8391	41.0156	75.1358	41.0156	74.2543	41.0156	75.3521	41.0156	74.6412	41.0156	75.4751	41.0156	74.9766	41.0156	75.4974	41.0156	75.2406	41.0156	75.4177
42.4805	73.305	42.4805	73.3313	42.4805	73.2913	42.4805	73.3756	42.4805	73.2878	42.4805	73.4457	42.4805	73.2953	42.4805	73.5507	42.4805	73.318	42.4805	73.6997	42.4805	73.3631	42.4805	73.8999	42.4805	73.4397	42.4805	74.1542	42.4805	73.5579	42.4805	74.4601	42.4805	73.7265	42.4805	74.8084	42.4805	73.9512	42.4805	75.1841	42.4805	74.2325	42.4805	75.5674	42.4805	74.5641	42.4805	75.9363	42.4805	74.9332	42.4805	76.2684	42.4805	75.3215	42.4805	76.5432	42.4805	75.7076	42.4805	76.7435	42.4805	76.0687	42.4805	76.8567	42.4805	76.3831	42.4805	76.8757	42.4805	76.6316	42.4805	76.7992
43.9453	74.7323	43.9453	74.765	43.9453	74.7147	43.9453	74.8171	43.9453	74.7105	43.9453	74.8944	43.9453	74.7203	43.9453	75.0038	43.9453	74.7473	43.9453	75.1521	43.9453	74.797	43.9453	75.3444	43.9453	74.8767	43.9453	75.5828	43.9453	74.9942	43.9453	75.8649	43.9453	75.1563	43.9453	76.1834	43.9453	75.3677	43.9453	76.5256	43.9453	75.6284	43.9453	76.8747	43.9453	75.9333	43.9453	77.2112	43.9453	76.2718	43.9453	77.5149	43.9453	76.6282	43.9453	77.7667	43.9453	76.9834	43.9453	77.9503	43.9453	77.3168	43.9453	78.0536	43.9453	77.6083	43.9453	78.0695	43.9453	77.8398	43.9453	77.9968
45.4102	76.1479	45.4102	76.1862	45.4102	76.1242	45.4102	76.2417	45.4102	76.1143	45.4102	76.3183	45.4102	76.1189	45.4102	76.4206	45.4102	76.1406	45.4102	76.5536	45.4102	76.1836	45.4102	76.7214	45.4102	76.2533	45.4102	76.9261	45.4102	76.3558	45.4102	77.1669	45.4102	76.4966	45.4102	77.4386	45.4102	76.6794	45.4102	77.7318	45.4102	76.9048	45.4102	78.0329	45.4102	77.1693	45.4102	78.3253	45.4102	77.4644	45.4102	78.5908	45.4102	77.7774	45.4102	78.812	45.4102	78.0918	45.4102	78.9733	45.4102	78.3895	45.4102	79.0631	45.4102	78.6518	45.4102	79.0744	45.4102	78.8619	45.4102	79.0059
46.875	77.1399	46.875	77.1686	46.875	77.1226	46.875	77.2114	46.875	77.1161	46.875	77.2722	46.875	77.1215	46.875	77.3562	46.875	77.1415	46.875	77.4687	46.875	77.1803	46.875	77.6146	46.875	77.2433	46.875	77.7967	46.875	77.3359	46.875	78.0147	46.875	77.4635	46.875	78.2643	46.875	77.6293	46.875	78.5367	46.875	77.8341	46.875	78.8191	46.875	78.075	46.875	79.0954	46.875	78.3446	46.875	79.3484	46.875	78.6313	46.875	79.5607	46.875	78.9203	46.875	79.7173	46.875	79.1946	46.875	79.8065	46.875	79.4366	46.875	79.8218	46.875	79.6301	46.875	79.7616
48.3398	77.7207	48.3398	77.7522	48.3398	77.7039	48.3398	77.8004	48.3398	77.7011	48.3398	77.8685	48.3398	77.713	48.3398	77.9604	48.3398	77.7414	48.3398	78.0801	48.3398	77.7894	48.3398	78.2308	48.3398	77.8607	48.3398	78.4142	48.3398	77.9592	48.3398	78.629	48.3398	78.0888	48.3398	78.8707	48.3398	78.2517	48.3398	79.131	48.3398	78.4483	48.3398	79.398	48.3398	78.676	48.3398	79.6572	48.3398	78.9285	48.3398	79.8929	48.3398	79.1961	48.3398	80.0892	48.3398	79.4659	48.3398	80.2324	48.3398	79.7227	48.3398	80.3119	48.3398	79.9505	48.3398	80.3217	48.3398	80.1343	48.3398	80.2611
51.2695	78.6084	51.2695	78.6455	51.2695	78.5885	51.2695	78.7004	51.2695	78.5854	51.2695	78.7745	51.2695	78.5994	51.2695	78.8691	51.2695	78.6312	51.2695	78.9857	51.2695	78.6822	51.2695	79.1254	51.2695	78.7539	51.2695	79.2879	51.2695	78.8481	51.2695	79.4719	51.2695	78.9663	51.2695	79.6738	51.2695	79.1096	51.2695	79.8876	51.2695	79.2776	51.2695	80.1047	51.2695	79.4683	51.2695	80.3144	51.2695	79.6774	51.2695	80.5044	51.2695	79.8979	51.2695	80.6621	51.2695	80.1202	51.2695	80.7761	51.2695	80.3328	51.2695	80.8375	51.2695	80.523	51.2695	80.8413	51.2695	80.6779	51.2695	80.7867
52.7344	78.8116	52.7344	78.8501	52.7344	78.7904	52.7344	78.9062	52.7344	78.7864	52.7344	78.9805	52.7344	78.7999	52.7344	79.0736	52.7344	78.8314	52.7344	79.1863	52.7344	78.8816	52.7344	79.3188	52.7344	78.9515	52.7344	79.4709	52.7344	79.042	52.7344	79.641	52.7344	79.1541	52.7344	79.8258	52.7344	79.2881	52.7344	80.0201	52.7344	79.4434	52.7344	80.2166	52.7344	79.6183	52.7344	80.4057	52.7344	79.8091	52.7344	80.5767	52.7344	80.0097	52.7344	80.7183	52.7344	80.2121	52.7344	80.82	52.7344	80.406	52.7344	80.8739	52.7344	80.58	52.7344	80.8752	52.7344	80.7225	52.7344	80.8234
54.1992	79.0324	54.1992	79.0728	54.1992	79.0092	54.1992	79.1303	54.1992	79.0035	54.1992	79.2047	54.1992	79.0156	54.1992	79.2959	54.1992	79.0456	54.1992	79.4037	54.1992	79.0938	54.1992	79.5279	54.1992	79.1605	54.1992	79.6678	54.1992	79.246	54.1992	79.8217	54.1992	79.3503	54.1992	79.9872	54.1992	79.4734	54.1992	80.1596	54.1992	79.6146	54.1992	80.3331	54.1992	79.7723	54.1992	80.4996	54.1992	79.9433	54.1992	80.6497	54.1992	80.1229	54.1992	80.7736	54.1992	80.3041	54.1992	80.8619	54.1992	80.4781	54.1992	80.9074	54.1992	80.635	54.1992	80.906	54.1992	80.7645	54.1992	80.8571
55.6641	79.2092	55.6641	79.2479	55.6641	79.186	55.6641	79.3018	55.6641	79.1789	55.6641	79.3706	55.6641	79.1882	55.6641	79.454	55.6641	79.2142	55.6641	79.5517	55.6641	79.2571	55.6641	79.6634	55.6641	79.317	55.6641	79.7885	55.6641	79.394	55.6641	79.9257	55.6641	79.4882	55.6641	80.0727	55.6641	79.5991	55.6641	80.2259	55.6641	79.7261	55.6641	80.3801	55.6641	79.8677	55.6641	80.5284	55.6641	80.0213	55.6641	80.6624	55.6641	80.1825	55.6641	80.7732	55.6641	80.3455	55.6641	80.8522	55.6641	80.5024	55.6641	80.8927	55.6641	80.6443	55.6641	80.8908	55.6641	80.7617	55.6641	80.846
58.5938	79.4064	58.5938	79.4454	58.5938	79.3845	58.5938	79.5005	58.5938	79.38	58.5938	79.5707	58.5938	79.3932	58.5938	79.6548	58.5938	79.4236	58.5938	79.7513	58.5938	79.4706	58.5938	79.8588	58.5938	79.533	58.5938	79.9757	58.5938	79.6099	58.5938	80.0999	58.5938	79.6999	58.5938	80.2291	58.5938	79.8019	58.5938	80.3601	58.5938	79.9146	58.5938	80.489	58.5938	80.0366	58.5938	80.6103	58.5938	80.1658	58.5938	80.718	58.5938	80.2994	58.5938	80.8054	58.5938	80.4333	58.5938	80.866	58.5938	80.562	58.5938	80.8948	58.5938	80.6789	58.5938	80.889	58.5938	80.7768	58.5938	80.8486
60.0586	79.5807	60.0586	79.6194	60.0586	79.5587	60.0586	79.6736	60.0586	79.5538	60.0586	79.742	60.0586	79.5661	60.0586	79.8233	60.0586	79.5952	60.0586	79.9156	60.0586	79.6402	60.0586	80.0174	60.0586	79.7	60.0586	80.1267	60.0586	79.7732	60.0586	80.2418	60.0586	79.8584	60.0586	80.3602	60.0586	79.954	60.0586	80.4792	60.0586	80.0588	60.0586	80.5952	60.0586	80.1712	60.0586	80.7038	60.0586	80.2893	60.0586	80.7996	60.0586	80.4108	60.0586	80.8768	60.0586	80.5321	60.0586	80.9298	60.0586	80.6486	60.0586	80.954	60.0586	80.7545	60.0586	80.9471	60.0586	80.8435	60.0586	80.9093
62.9883	79.9199	62.9883	79.957	62.9883	79.899	62.9883	80.009	62.9883	79.8949	62.9883	80.074	62.9883	79.9075	62.9883	80.15	62.9883	79.9361	62.9883	80.2345	62.9883	79.9793	62.9883	80.3253	62.9883	80.0353	62.9883	80.42	62.9883	80.1021	62.9883	80.5167	62.9883	80.1776	62.9883	80.6133	62.9883	80.2601	62.9883	80.7076	62.9883	80.3478	62.9883	80.7974	62.9883	80.4394	62.9883	80.8797	62.9883	80.5336	62.9883	80.9508	62.9883	80.6289	62.9883	81.007	62.9883	80.7232	62.9883	81.0442	62.9883	80.8135	62.9883	81.0594	62.9883	80.896	62.9883	81.0508	62.9883	80.966	62.9883	81.0189
64.4531	79.9545	64.4531	79.9912	64.4531	79.9337	64.4531	80.0424	64.4531	79.9295	64.4531	80.1061	64.4531	79.942	64.4531	80.1802	64.4531	79.9703	64.4531	80.2623	64.4531	80.0132	64.4531	80.3499	64.4531	80.0688	64.4531	80.4407	64.4531	80.135	64.4531	80.5326	64.4531	80.2095	64.4531	80.6235	64.4531	80.2902	64.4531	80.7114	64.4531	80.3751	64.4531	80.7941	64.4531	80.4628	64.4531	80.869	64.4531	80.5516	64.4531	80.9333	64.4531	80.6403	64.4531	80.9837	64.4531	80.7269	64.4531	81.0168	64.4531	80.809	64.4531	81.0302	64.4531	80.8834	64.4531	81.0223	64.4531	80.9463	64.4531	80.9937
67.3828	80.0686	67.3828	80.1063	67.3828	80.0483	67.3828	80.16	67.3828	80.0461	67.3828	80.2272	67.3828	80.062	67.3828	80.3053	67.3828	80.095	67.3828	80.3912	67.3828	80.1432	67.3828	80.4818	67.3828	80.2041	67.3828	80.5738	67.3828	80.2751	67.3828	80.6644	67.3828	80.3531	67.3828	80.7512	67.3828	80.4352	67.3828	80.832	67.3828	80.5189	67.3828	80.905	67.3828	80.6023	67.3828	80.9685	67.3828	80.6837	67.3828	81.0206	67.3828	80.7621	67.3828	81.0596	67.3828	80.8362	67.3828	81.0837	67.3828	80.9049	67.3828	81.0916	67.3828	80.9663	67.3828	81.0828	67.3828	81.0181	67.3828	81.0577
68.8477	80.1787	68.8477	80.2173	68.8477	80.1585	68.8477	80.2726	68.8477	80.1576	68.8477	80.3419	68.8477	80.1756	68.8477	80.4221	68.8477	80.2115	68.8477	80.5097	68.8477	80.263	68.8477	80.601	68.8477	80.3275	68.8477	80.6924	68.8477	80.4016	68.8477	80.7809	68.8477	80.4819	68.8477	80.8638	68.8477	80.5652	68.8477	80.9391	68.8477	80.6486	68.8477	81.0053	68.8477	80.7297	68.8477	81.0613	68.8477	80.8069	68.8477	81.1061	68.8477	80.8791	68.8477	81.1388	68.8477	80.9455	68.8477	81.1585	68.8477	81.0055	68.8477	81.1644	68.8477	81.0581	68.8477	81.1565	68.8477	81.1019	68.8477	81.1352
71.7773	80.687	71.7773	80.7273	71.7773	80.6635	71.7773	80.7823	71.7773	80.6577	71.7773	80.8492	71.7773	80.6696	71.7773	80.9243	71.7773	80.6982	71.7773	81.0039	71.7773	80.7415	71.7773	81.0836	71.7773	80.7966	71.7773	81.16	71.7773	80.8603	71.7773	81.2296	71.7773	80.9289	71.7773	81.2902	71.7773	80.9989	71.7773	81.3403	71.7773	81.0671	71.7773	81.3795	71.7773	81.131	71.7773	81.4079	71.7773	81.1888	71.7773	81.4265	71.7773	81.2399	71.7773	81.4362	71.7773	81.2841	71.7773	81.438	71.7773	81.322	71.7773	81.4327	71.7773	81.3544	71.7773	81.4212	71.7773	81.3816	71.7773	81.404
74.707	81.0666	74.707	81.1062	74.707	81.0412	74.707	81.1579	74.707	81.031	74.707	81.2186	74.707	81.0364	74.707	81.2846	74.707	81.0563	74.707	81.352	74.707	81.089	74.707	81.4167	74.707	81.1317	74.707	81.4749	74.707	81.1811	74.707	81.5235	74.707	81.2336	74.707	81.5605	74.707	81.2857	74.707	81.5849	74.707	81.334	74.707	81.597	74.707	81.3761	74.707	81.5981	74.707	81.4108	74.707	81.5907	74.707	81.4377	74.707	81.5772	74.707	81.4579	74.707	81.5605	74.707	81.4731	74.707	81.5428	74.707	81.4856	74.707	81.5259	74.707	81.4976	74.707	81.5108
77.6367	81.3465	77.6367	81.3834	77.6367	81.3227	77.6367	81.4311	77.6367	81.3132	77.6367	81.4865	77.6367	81.3183	77.6367	81.5458	77.6367	81.3371	77.6367	81.6049	77.6367	81.3676	77.6367	81.6597	77.6367	81.4069	77.6367	81.7065	77.6367	81.4515	77.6367	81.7421	77.6367	81.4973	77.6367	81.7645	77.6367	81.5405	77.6367	81.7732	77.6367	81.5778	77.6367	81.7689	77.6367	81.6065	77.6367	81.7538	77.6367	81.6254	77.6367	81.731	77.6367	81.6349	77.6367	81.7044	77.6367	81.6364	77.6367	81.6779	77.6367	81.6331	77.6367	81.655	77.6367	81.6284	77.6367	81.6382	77.6367	81.6259	77.6367	81.6286
79.1016	81.5264	79.1016	81.5613	79.1016	81.5043	79.1016	81.6068	79.1016	81.4961	79.1016	81.6596	79.1016	81.502	79.1016	81.7161	79.1016	81.5212	79.1016	81.7722	79.1016	81.5516	79.1016	81.8238	79.1016	81.5901	79.1016	81.8671	79.1016	81.6333	79.1016	81.899	79.1016	81.6771	79.1016	81.9175	79.1016	81.7175	79.1016	81.922	79.1016	81.751	79.1016	81.9133	79.1016	81.7753	79.1016	81.8937	79.1016	81.7889	79.1016	81.8666	79.1016	81.7925	79.1016	81.8364	79.1016	81.7877	79.1016	81.8073	79.1016	81.7781	79.1016	81.7831	79.1016	81.7674	79.1016	81.7665	79.1016	81.7599	79.1016	81.759
82.0312	81.7997	82.0312	81.8389	82.0312	81.7735	82.0312	81.8886	82.0312	81.7617	82.0312	81.9456	82.0312	81.7645	82.0312	82.0057	82.0312	81.7809	82.0312	82.0647	82.0312	81.8091	82.0312	82.118	82.0312	81.8461	82.0312	82.1617	82.0312	81.8883	82.0312	82.1924	82.0312	81.9316	82.0312	82.2081	82.0312	81.9718	82.0312	82.2081	82.0312	82.0053	82.0312	82.1934	82.0312	82.0292	82.0312	82.1667	82.0312	82.0422	82.0312	82.1321	82.0312	82.0444	82.0312	82.0945	82.0312	82.0377	82.0312	82.0589	82.0312	82.0257	82.0312	82.0299	82.0312	82.0128	82.0312	82.0104	82.0312	82.0035	82.0312	82.0018
84.9609	81.9018	84.9609	81.9419	84.9609	81.873	84.9609	81.9907	84.9609	81.8572	84.9609	82.045	84.9609	81.8553	84.9609	82.1012	84.9609	81.8675	84.9609	82.1553	84.9609	81.8926	84.9609	82.2033	84.9609	81.9283	84.9609	82.2416	84.9609	81.9715	84.9609	82.267	84.9609	82.018	84.9609	82.2776	84.9609	82.0633	84.9609	82.2732	84.9609	82.1031	84.9609	82.2549	84.9609	82.1336	84.9609	82.226	84.9609	82.1523	84.9609	82.1908	84.9609	82.1584	84.9609	82.1548	84.9609	82.1529	84.9609	82.1234	84.9609	82.1388	84.9609	82.1011	84.9609	82.1205	84.9609	82.0905	84.9609	82.1031	84.9609	82.0918
87.8906	82.2677	87.8906	82.3103	87.8906	82.2351	87.8906	82.3597	87.8906	82.2146	87.8906	82.4123	87.8906	82.2073	87.8906	82.4639	87.8906	82.2133	87.8906	82.5099	87.8906	82.2311	87.8906	82.5459	87.8906	82.2582	87.8906	82.5677	87.8906	82.2908	87.8906	82.5724	87.8906	82.3241	87.8906	82.5581	87.8906	82.3534	87.8906	82.5249	87.8906	82.3738	87.8906	82.4753	87.8906	82.3818	87.8906	82.4137	87.8906	82.375	87.8906	82.3466	87.8906	82.3535	87.8906	82.2818	87.8906	82.3196	87.8906	82.227	87.8906	82.278	87.8906	82.1888	87.8906	82.2352	87.8906	82.1714	87.8906	82.1986	87.8906	82.1755
90.8203	82.9315	90.8203	82.9672	90.8203	82.8979	90.8203	83.0021	90.8203	82.8688	90.8203	83.0326	90.8203	82.8454	90.8203	83.055	90.8203	82.8279	90.8203	83.0655	90.8203	82.8152	90.8203	83.0606	90.8203	82.8054	90.8203	83.0371	90.8203	82.7951	90.8203	82.9931	90.8203	82.7806	90.8203	82.9277	90.8203	82.7581	90.8203	82.8422	90.8203	82.724	90.8203	82.7399	90.8203	82.6761	90.8203	82.6265	90.8203	82.6137	90.8203	82.51	90.8203	82.5387	90.8203	82.4001	90.8203	82.4555	90.8203	82.307	90.8203	82.3713	90.8203	82.2398	90.8203	82.295	90.8203	82.2047	90.8203	82.2364	90.8203	82.2043
95.2148	82.5935	95.2148	82.624	95.2148	82.5743	95.2148	82.6639	95.2148	82.5678	95.2148	82.7106	95.2148	82.5745	95.2148	82.7605	95.2148	82.5938	95.2148	82.8095	95.2148	82.6243	95.2148	82.8531	95.2148	82.6632	95.2148	82.8865	95.2148	82.7067	95.2148	82.9055	95.2148	82.7499	95.2148	82.9071	95.2148	82.7877	95.2148	82.89	95.2148	82.8148	95.2148	82.855	95.2148	82.8273	95.2148	82.8059	95.2148	82.8226	95.2148	82.7485	95.2148	82.8006	95.2148	82.6906	95.2148	82.7639	95.2148	82.6406	95.2148	82.7179	95.2148	82.606	95.2148	82.6697	95.2148	82.592	95.2148	82.6278	95.2148	82.6
98.1445	82.8629	98.1445	82.8958	98.1445	82.8386	98.1445	82.9346	98.1445	82.8246	98.1445	82.9764	98.1445	82.8216	98.1445	83.0174	98.1445	82.8295	98.1445	83.0535	98.1445	82.847	98.1445	83.0803	98.1445	82.8716	98.1445	83.0936	98.1445	82.8996	98.1445	83.0899	98.1445	82.9264	98.1445	83.0671	98.1445	82.947	98.1445	83.0248	98.1445	82.9565	98.1445	82.965	98.1445	82.951	98.1445	82.8923	98.1445	82.9283	98.1445	82.8139	98.1445	82.8888	98.1445	82.7384	98.1445	82.8353	98.1445	82.6752	98.1445	82.7738	98.1445	82.6324	98.1445	82.7122	98.1445	82.6153	98.1445	82.6599	98.1445	82.6254
101.074	83.0426	101.074	83.0777	101.074	83.0136	101.074	83.1164	101.074	82.9928	101.074	83.1557	101.074	82.9814	101.074	83.1919	101.074	82.9798	101.074	83.2212	101.074	82.9874	101.074	83.2395	101.074	83.0025	101.074	83.2429	101.074	83.0219	101.074	83.2284	101.074	83.0417	101.074	83.1941	101.074	83.0569	101.074	83.1403	101.074	83.0628	101.074	83.0696	101.074	83.0552	101.074	82.9875	101.074	83.0314	101.074	82.9016	101.074	82.9911	101.074	82.8214	101.074	82.9367	101.074	82.7562	101.074	82.8735	101.074	82.7141	101.074	82.8091	101.074	82.7	101.074	82.753	101.074	82.7142
105.469	83.2525	105.469	83.2934	105.469	83.2155	105.469	83.3356	105.469	83.1844	105.469	83.3759	105.469	83.1607	105.469	83.4107	105.469	83.1449	105.469	83.4357	105.469	83.1365	105.469	83.4467	105.469	83.1341	105.469	83.4392	105.469	83.1348	105.469	83.41	105.469	83.1346	105.469	83.3568	105.469	83.1288	105.469	83.2797	105.469	83.1129	105.469	83.1818	105.469	83.0828	105.469	83.069	105.469	83.0364	105.469	82.9504	105.469	82.9741	105.469	82.8373	105.469	82.8994	105.469	82.7416	105.469	82.8191	105.469	82.6736	105.469	82.7425	105.469	82.6405	105.469	82.6806	105.469	82.644
108.398	83.4423	108.398	83.4795	108.398	83.4051	108.398	83.5147	108.398	83.3699	108.398	83.5455	108.398	83.3381	108.398	83.5689	108.398	83.3108	108.398	83.5817	108.398	83.2881	108.398	83.5802	108.398	83.2695	108.398	83.5608	108.398	83.2531	108.398	83.5205	108.398	83.2359	108.398	83.4575	108.398	83.214	108.398	83.3718	108.398	83.1835	108.398	83.2663	108.398	83.1409	108.398	83.1466	108.398	83.0844	108.398	83.0215	108.398	83.0146	108.398	82.902	108.398	82.9351	108.398	82.7999	108.398	82.8525	108.398	82.7255	108.398	82.7762	108.398	82.6862	108.398	82.7168	108.398	82.6843
112.793	83.6906	112.793	83.7282	112.793	83.6497	112.793	83.7601	112.793	83.6079	112.793	83.7838	112.793	83.5674	112.793	83.7966	112.793	83.53	112.793	83.7957	112.793	83.4969	112.793	83.7782	112.793	83.4684	112.793	83.7416	112.793	83.4433	112.793	83.684	112.793	83.4191	112.793	83.6049	112.793	83.3923	112.793	83.5055	112.793	83.3588	112.793	83.3899	112.793	83.315	112.793	83.2645	112.793	83.2585	112.793	83.1385	112.793	83.1891	112.793	83.0226	112.793	83.1096	112.793	82.9277	112.793	83.0259	112.793	82.863	112.793	82.9466	112.793	82.834	112.793	82.8819	112.793	82.8417
117.188	83.8744	117.188	83.9015	117.188	83.8418	117.188	83.921	117.188	83.8054	117.188	83.9307	117.188	83.7668	117.188	83.9282	117.188	83.7273	117.188	83.9104	117.188	83.6875	117.188	83.8744	117.188	83.6472	117.188	83.8169	117.188	83.605	117.188	83.7359	117.188	83.5585	117.188	83.6304	117.188	83.5043	117.188	83.5019	117.188	83.4391	117.188	83.3549	117.188	83.3601	117.188	83.1973	117.188	83.2662	117.188	83.0399	117.188	83.1587	117.188	82.8958	117.188	83.0423	117.188	82.7783	117.188	82.9248	117.188	82.6988	117.188	82.8166	117.188	82.6642	117.188	82.7298	117.188	82.676
120.117	83.9341	120.117	83.9702	120.117	83.8931	120.117	83.9988	120.117	83.8492	120.117	84.0174	120.117	83.8041	120.117	84.0227	120.117	83.7592	120.117	84.0113	120.117	83.7152	120.117	83.9795	120.117	83.672	120.117	83.9237	120.117	83.6279	120.117	83.8415	120.117	83.5805	120.117	83.7319	120.117	83.5259	120.117	83.5963	120.117	83.4605	120.117	83.4396	120.117	83.381	120.117	83.2701	120.117	83.2859	120.117	83.0997	120.117	83.1766	120.117	82.9423	120.117	83.0577	120.117	82.8125	120.117	82.9375	120.117	82.7225	120.117	82.8272	120.117	82.6803	120.117	82.7398	120.117	82.6876
124.512	83.8362	124.512	83.8651	124.512	83.8011	124.512	83.886	124.512	83.7619	124.512	83.8975	124.512	83.7212	124.512	83.8981	124.512	83.6814	124.512	83.886	124.512	83.6444	124.512	83.8589	124.512	83.611	124.512	83.8139	124.512	83.5802	124.512	83.7484	124.512	83.5491	124.512	83.6606	124.512	83.5138	124.512	83.5505	124.512	83.4691	124.512	83.4209	124.512	83.4107	124.512	83.2785	124.512	83.3358	124.512	83.1331	124.512	83.2444	124.512	82.9977	124.512	83.1403	124.512	82.8858	124.512	83.0311	124.512	82.8096	124.512	82.9276	124.512	82.7768	124.512	82.8429	124.512	82.7894
128.906	83.8435	128.906	83.8707	128.906	83.8112	128.906	83.8913	128.906	83.7757	128.906	83.9037	128.906	83.7389	128.906	83.906	128.906	83.7026	128.906	83.8959	128.906	83.6684	128.906	83.8705	128.906	83.6365	128.906	83.8268	128.906	83.6059	128.906	83.7621	128.906	83.5743	128.906	83.6747	128.906	83.5379	128.906	83.5653	128.906	83.4925	128.906	83.4375	128.906	83.4343	128.906	83.2982	128.906	83.3609	128.906	83.1577	128.906	83.2726	128.906	83.0286	128.906	83.173	128.906	82.9235	128.906	83.069	128.906	82.8533	128.906	82.9709	128.906	82.8246	128.906	82.8902	128.906	82.8384
133.301	83.8307	133.301	83.8512	133.301	83.8042	133.301	83.8649	133.301	83.7732	133.301	83.8705	133.301	83.7394	133.301	83.8664	133.301	83.7044	133.301	83.8506	133.301	83.6698	133.301	83.8202	133.301	83.6365	133.301	83.7721	133.301	83.6037	133.301	83.7037	133.301	83.5696	133.301	83.6133	133.301	83.5305	133.301	83.5015	133.301	83.4822	133.301	83.3721	133.301	83.4209	133.301	83.2322	133.301	83.3439	133.301	83.0922	133.301	83.2515	133.301	82.9646	133.301	83.1471	133.301	82.8623	133.301	83.038	133.301	82.7958	133.301	82.9342	133.301	82.7716	133.301	82.8478	133.301	82.7905
139.16	83.7743	139.16	83.7923	139.16	83.7466	139.16	83.7998	139.16	83.7106	139.16	83.796	139.16	83.6688	139.16	83.7803	139.16	83.6237	139.16	83.7514	139.16	83.5781	139.16	83.7073	139.16	83.534	139.16	83.6457	139.16	83.4917	139.16	83.5646	139.16	83.4498	139.16	83.4631	139.16	83.4053	139.16	83.3422	139.16	83.3538	139.16	83.2063	139.16	83.2911	139.16	83.063	139.16	83.2143	139.16	82.9231	139.16	83.1229	139.16	82.799	139.16	83.0198	139.16	82.7029	139.16	82.9112	139.16	82.6444	139.16	82.8066	139.16	82.6286	139.16	82.7173	139.16	82.6547
143.555	83.7283	143.555	83.7417	143.555	83.7013	143.555	83.7407	143.555	83.6622	143.555	83.7254	143.555	83.6142	143.555	83.6962	143.555	83.5607	143.555	83.6531	143.555	83.5058	143.555	83.5954	143.555	83.4524	143.555	83.522	143.555	83.402	143.555	83.4317	143.555	83.3538	143.555	83.3242	143.555	83.3048	143.555	83.2008	143.555	83.2508	143.555	83.0657	143.555	83.1872	143.555	82.926	143.555	83.1107	143.555	82.7919	143.555	83.0203	143.555	82.6749	143.555	82.9184	143.555	82.5862	143.555	82.811	143.555	82.5343	143.555	82.7071	143.555	82.5237	143.555	82.6175	143.555	82.5533
147.949	83.6942	147.949	83.7073	147.949	83.6642	147.949	83.7025	147.949	83.6197	147.949	83.6799	147.949	83.5643	147.949	83.6401	147.949	83.5025	147.949	83.5834	147.949	83.4391	147.949	83.5098	147.949	83.3776	147.949	83.4192	147.949	83.32	147.949	83.3113	147.949	83.2657	147.949	83.1868	147.949	83.2118	147.949	83.0485	147.949	83.1537	147.949	82.9017	147.949	83.0866	147.949	82.7548	147.949	83.0069	147.949	82.6184	147.949	82.9133	147.949	82.5039	147.949	82.8078	147.949	82.4217	147.949	82.6961	147.949	82.379	147.949	82.5867	147.949	82.3784	147.949	82.4903	147.949	82.4177
153.809	83.6544	153.809	83.6674	153.809	83.6222	153.809	83.6602	153.809	83.5729	153.809	83.6332	153.809	83.5103	153.809	83.5872	153.809	83.4391	153.809	83.5229	153.809	83.3646	153.809	83.4403	153.809	83.2912	153.809	83.3394	153.809	83.2218	153.809	83.22	153.809	83.1566	153.809	83.0831	153.809	83.0934	153.809	82.9317	153.809	83.0281	153.809	82.7721	153.809	82.9559	153.809	82.6135	153.809	82.8727	153.809	82.4677	153.809	82.7768	153.809	82.3472	153.809	82.6697	153.809	82.2628	153.809	82.5563	153.809	82.2212	153.809	82.4445	153.809	82.2241	153.809	82.3447	153.809	82.2678
159.668	83.642	159.668	83.6588	159.668	83.6054	159.668	83.6552	159.668	83.5512	159.668	83.6317	159.668	83.4831	159.668	83.5894	159.668	83.4063	159.668	83.5289	159.668	83.3264	159.668	83.4501	159.668	83.248	159.668	83.3523	159.668	83.1743	159.668	83.2348	159.668	83.1057	159.668	83.0978	159.668	83.0399	159.668	82.9441	159.668	82.9728	159.668	82.7798	159.668	82.8995	159.668	82.6146	159.668	82.8159	159.668	82.4611	159.668	82.7205	159.668	82.3326	159.668	82.6147	159.668	82.2404	159.668	82.5035	159.668	82.1919	159.668	82.3949	159.668	82.1886	159.668	82.2991	159.668	82.2269
165.527	83.7305	165.527	83.7482	165.527	83.6926	165.527	83.745	165.527	83.637	165.527	83.7217	165.527	83.5677	165.527	83.6797	165.527	83.4904	165.527	83.6203	165.527	83.4111	165.527	83.5444	165.527	83.3348	165.527	83.4518	165.527	83.2651	165.527	83.3425	165.527	83.2024	165.527	83.2171	165.527	83.1446	165.527	83.0782	165.527	83.0876	165.527	82.9314	165.527	83.0265	165.527	82.7854	165.527	82.9572	165.527	82.6514	165.527	82.8778	165.527	82.5408	165.527	82.7893	165.527	82.4631	165.527	82.6958	165.527	82.4239	165.527	82.6038	165.527	82.4237	165.527	82.5216	165.527	82.4586
171.387	83.7766	171.387	83.7942	171.387	83.7334	171.387	83.786	171.387	83.6668	171.387	83.7529	171.387	83.5806	171.387	83.6964	171.387	83.4806	171.387	83.6182	171.387	83.3736	171.387	83.5201	171.387	83.2668	171.387	83.4037	171.387	83.1658	171.387	83.2707	171.387	83.0742	171.387	83.1241	171.387	82.9921	171.387	82.9686	171.387	82.9174	171.387	82.8112	171.387	82.846	171.387	82.6612	171.387	82.7741	171.387	82.5288	171.387	82.6991	171.387	82.4235	171.387	82.6206	171.387	82.3519	171.387	82.5408	171.387	82.3165	171.387	82.4641	171.387	82.3157	171.387	82.3964	171.387	82.3445
177.246	83.7218	177.246	83.736	177.246	83.6736	177.246	83.7165	177.246	83.5937	177.246	83.665	177.246	83.4872	177.246	83.5846	177.246	83.3612	177.246	83.4784	177.246	83.2243	177.246	83.3492	177.246	83.0851	177.246	83.1993	177.246	82.9505	177.246	83.0311	177.246	82.8247	177.246	82.8482	177.246	82.7087	177.246	82.6565	177.246	82.6009	177.246	82.4651	177.246	82.4986	177.246	82.2855	177.246	82.3993	177.246	82.1301	177.246	82.3018	177.246	82.0094	177.246	82.2071	177.246	81.9293	177.246	82.1174	177.246	81.8903	177.246	82.0361	177.246	81.8881	177.246	81.9674	177.246	81.916
183.105	83.4032	183.105	83.4181	183.105	83.3563	183.105	83.4008	183.105	83.2808	183.105	83.3531	183.105	83.1831	183.105	83.2786	183.105	83.0718	183.105	83.1811	183.105	82.9569	183.105	83.0644	183.105	82.848	183.105	82.9314	183.105	82.7518	183.105	82.7847	183.105	82.6711	183.105	82.6273	183.105	82.6042	183.105	82.464	183.105	82.5453	183.105	82.3018	183.105	82.4874	183.105	82.1507	183.105	82.4236	183.105	82.022	183.105	82.3503	183.105	81.9258	183.105	82.2667	183.105	81.8687	183.105	82.1761	183.105	81.8523	183.105	82.0838	183.105	81.873	183.105	81.9971	183.105	81.924
188.965	83.4502	188.965	83.4615	188.965	83.4001	188.965	83.4336	188.965	83.314	188.965	83.3689	188.965	83.1981	188.965	83.2709	188.965	83.061	188.965	83.1443	188.965	82.9134	188.965	82.9937	188.965	82.7662	188.965	82.8238	188.965	82.6291	188.965	82.6397	188.965	82.5085	188.965	82.4476	188.965	82.4067	188.965	82.2558	188.965	82.3219	188.965	82.0751	188.965	82.2496	188.965	81.9176	188.965	82.1841	188.965	81.7947	188.965	82.1203	188.965	81.7142	188.965	82.0546	188.965	81.678	188.965	81.9856	188.965	81.682	188.965	81.9137	188.965	81.7173	188.965	81.8415	188.965	81.7736
196.289	83.5439	196.289	83.563	196.289	83.4834	196.289	83.5406	196.289	83.3846	196.289	83.4791	196.289	83.2535	196.289	83.3822	196.289	83.0994	196.289	83.2542	196.289	82.9336	196.289	83.0995	196.289	82.7676	196.289	82.9225	196.289	82.6116	196.289	82.728	196.289	82.4726	196.289	82.522	196.289	82.353	196.289	82.3132	196.289	82.2516	196.289	82.1126	196.289	82.1644	196.289	81.9336	196.289	82.0866	196.289	81.7887	196.289	82.0141	196.289	81.6872	196.289	81.9441	196.289	81.632	196.289	81.8753	196.289	81.6195	196.289	81.8077	196.289	81.6407	196.289	81.7429	196.289	81.685
203.613	83.5094	203.613	83.5227	203.613	83.446	203.613	83.4868	203.613	83.3349	203.613	83.4049	203.613	83.1821	203.613	83.2816	203.613	82.9968	203.613	83.1223	203.613	82.7913	203.613	82.9328	203.613	82.5791	203.613	82.719	203.613	82.3736	203.613	82.4883	203.613	82.1859	203.613	82.2503	203.613	82.0234	203.613	82.0176	203.613	81.8897	203.613	81.8058	203.613	81.7852	203.613	81.6304	203.613	81.7074	203.613	81.5036	203.613	81.6522	203.613	81.43	203.613	81.6136	203.613	81.4048	203.613	81.5844	203.613	81.4163	203.613	81.557	203.613	81.4489	203.613	81.5258	203.613	81.4885
210.938	83.6139	210.938	83.6183	210.938	83.5619	210.938	83.5757	210.938	83.4649	210.938	83.4893	210.938	83.3288	210.938	83.3639	210.938	83.1629	210.938	83.2042	210.938	82.9785	210.938	83.0145	210.938	82.7872	210.938	82.7984	210.938	82.599	210.938	82.5594	210.938	82.4204	210.938	82.3033	210.938	82.2535	210.938	82.0403	210.938	82.0975	210.938	81.7862	210.938	81.9506	210.938	81.5612	210.938	81.8126	210.938	81.3846	210.938	81.6859	210.938	81.2685	210.938	81.574	210.938	81.2131	210.938	81.4795	210.938	81.2074	210.938	81.4015	210.938	81.2348	210.938	81.3364	210.938	81.2806
218.262	83.4527	218.262	83.4609	218.262	83.3987	218.262	83.4242	218.262	83.3003	218.262	83.346	218.262	83.163	218.262	83.2307	218.262	82.9953	218.262	83.0828	218.262	82.8091	218.262	82.9063	218.262	82.6176	218.262	82.7048	218.262	82.4338	218.262	82.4821	218.262	82.2675	218.262	82.2443	218.262	82.1237	218.262	82.0016	218.262	82.0027	218.262	81.7692	218.262	81.9007	218.262	81.5657	218.262	81.8128	218.262	81.4092	218.262	81.7346	218.262	81.3114	218.262	81.6626	218.262	81.2733	218.262	81.5944	218.262	81.2849	218.262	81.5274	218.262	81.33	218.262	81.4597	218.262	81.3921
225.586	83.473	225.586	83.4837	225.586	83.4087	225.586	83.4435	225.586	83.2919	225.586	83.358	225.586	83.128	225.586	83.2342	225.586	82.9271	225.586	83.0793	225.586	82.7037	225.586	82.8999	225.586	82.4748	225.586	82.701	225.586	82.2577	225.586	82.4877	225.586	82.0668	225.586	82.2661	225.586	81.9114	225.586	82.0459	225.586	81.7947	225.586	81.8417	225.586	81.7151	225.586	81.6709	225.586	81.6675	225.586	81.55	225.586	81.6454	225.586	81.487	225.586	81.6405	225.586	81.4782	225.586	81.6431	225.586	81.508	225.586	81.6427	225.586	81.555	225.586	81.6299	225.586	81.5997
232.91	83.6068	232.91	83.6107	232.91	83.5388	232.91	83.5537	232.91	83.4068	232.91	83.4419	232.91	83.2159	232.91	83.283	232.91	82.9756	232.91	83.0849	232.91	82.7004	232.91	82.8558	232.91	82.4084	232.91	82.6032	232.91	82.1196	232.91	82.3357	232.91	81.8534	232.91	82.0644	232.91	81.6258	232.91	81.8045	232.91	81.4486	232.91	81.5756	232.91	81.328	232.91	81.3986	232.91	81.2647	232.91	81.289	232.91	81.2534	232.91	81.2503	232.91	81.282	232.91	81.2698	232.91	81.3325	232.91	81.3222	232.91	81.3832	232.91	81.378	232.91	81.4143	232.91	81.4129
241.699	83.6049	241.699	83.5888	241.699	83.5603	241.699	83.5165	241.699	83.4539	241.699	83.3951	241.699	83.2889	241.699	83.2331	241.699	83.0728	241.699	83.0387	241.699	82.8171	241.699	82.8185	241.699	82.5362	241.699	82.577	241.699	82.2458	241.699	82.3175	241.699	81.9609	241.699	82.045	241.699	81.6939	241.699	81.7692	241.699	81.4548	241.699	81.507	241.699	81.2526	241.699	81.2809	241.699	81.096	241.699	81.1132	241.699	80.9923	241.699	81.0156	241.699	80.9434	241.699	80.9818	241.699	80.9413	241.699	80.9891	241.699	80.9674	241.699	81.0078	241.699	80.9982	241.699	81.014
250.488	83.5163	250.488	83.4747	250.488	83.4932	250.488	83.3744	250.488	83.4033	250.488	83.2244	250.488	83.2491	250.488	83.0352	250.488	83.038	250.488	82.8172	250.488	82.7815	250.488	82.5792	250.488	82.4947	250.488	82.3272	250.488	82.1942	250.488	82.0656	250.488	81.8954	250.488	81.7989	250.488	81.6109	250.488	81.5353	250.488	81.3502	250.488	81.289	250.488	81.1211	250.488	81.0784	250.488	80.9323	250.488	80.9207	250.488	80.793	250.488	80.8235	250.488	80.7095	250.488	80.7794	250.488	80.68	250.488	80.7676	250.488	80.6911	250.488	80.7635	250.488	80.7212	250.488	80.7492
259.277	83.9375	259.277	83.885	259.277	83.9166	259.277	83.7642	259.277	83.8222	259.277	83.5838	259.277	83.6591	259.277	83.3556	259.277	83.4372	259.277	83.0927	259.277	83.171	259.277	82.8083	259.277	82.8779	259.277	82.5142	259.277	82.5759	259.277	82.2195	259.277	82.2815	259.277	81.9312	259.277	82.0071	259.277	81.657	259.277	81.7608	259.277	81.4073	259.277	81.547	259.277	81.1978	259.277	81.3687	259.277	81.0448	259.277	81.229	259.277	80.9581	259.277	81.1303	259.277	80.933	259.277	81.0708	259.277	80.9496	259.277	81.0414	259.277	80.9818	259.277	81.0264	259.277	81.0094
268.066	83.7574	268.066	83.7125	268.066	83.7354	268.066	83.6025	268.066	83.6473	268.066	83.4308	268.066	83.4968	268.066	83.2033	268.066	83.2906	268.066	82.9281	268.066	83.0391	268.066	82.617	268.066	82.7556	268.066	82.2854	268.066	82.4563	268.066	81.9527	268.066	82.1589	268.066	81.6407	268.066	81.8818	268.066	81.3709	268.066	81.6417	268.066	81.162	268.066	81.4512	268.066	81.0261	268.066	81.3171	268.066	80.9655	268.066	81.2383	268.066	80.9712	268.066	81.2063	268.066	81.0233	268.066	81.2058	268.066	81.0956	268.066	81.218	268.066	81.1627	268.066	81.2235	268.066	81.2072
276.855	83.5949	276.855	83.5584	276.855	83.5643	276.855	83.4568	276.855	83.4674	276.855	83.2934	276.855	83.309	276.855	83.0716	276.855	83.0978	276.855	82.7943	276.855	82.8461	276.855	82.4652	276.855	82.5674	276.855	82.0913	276.855	82.275	276.855	81.6869	276.855	81.9803	276.855	81.2779	276.855	81.6943	276.855	80.9016	276.855	81.4301	276.855	80.6011	276.855	81.2046	276.855	80.4121	276.855	81.0365	276.855	80.3486	276.855	80.9379	276.855	80.3967	276.855	80.9058	276.855	80.5197	276.855	80.9186	276.855	80.6713	276.855	80.9434	276.855	80.8092	276.855	80.9467	276.855	80.9045
287.109	83.8836	287.109	83.8699	287.109	83.8176	287.109	83.7763	287.109	83.676	287.109	83.6061	287.109	83.4671	287.109	83.3659	287.109	83.2035	287.109	83.0647	287.109	82.902	287.109	82.7128	287.109	82.5819	287.109	82.3209	287.109	82.2629	287.109	81.9014	287.109	81.9617	287.109	81.4712	287.109	81.6895	287.109	81.0566	287.109	81.4517	287.109	80.6943	287.109	81.2512	287.109	80.4255	287.109	81.091	287.109	80.2809	287.109	80.9749	287.109	80.2644	287.109	80.9032	287.109	80.3484	287.109	80.8667	287.109	80.4855	287.109	80.8445	287.109	80.6274	287.109	80.8097	287.109	80.7399
297.363	83.8868	297.363	83.8783	297.363	83.8092	297.363	83.7865	297.363	83.6466	297.363	83.6166	297.363	83.4049	297.363	83.3751	297.363	83.0962	297.363	83.0689	297.363	82.7397	297.363	82.7043	297.363	82.361	297.363	82.2887	297.363	81.9903	297.363	81.8343	297.363	81.6585	297.363	81.3649	297.363	81.3923	297.363	80.9221	297.363	81.2096	297.363	80.5644	297.363	81.1169	297.363	80.3517	297.363	81.1084	297.363	80.3174	297.363	81.1672	297.363	80.4473	297.363	81.2657	297.363	80.6845	297.363	81.3692	297.363	80.9559	297.363	81.4406	297.363	81.1977	297.363	81.4472	297.363	81.3674
307.617	84.1362	307.617	84.1146	307.617	84.0705	307.617	84.012	307.617	83.9159	307.617	83.8375	307.617	83.6766	307.617	83.6011	307.617	83.3634	307.617	83.3129	307.617	82.993	307.617	82.9815	307.617	82.5849	307.617	82.6138	307.617	82.1583	307.617	82.2149	307.617	81.729	307.617	81.7915	307.617	81.3111	307.617	81.3571	307.617	80.9232	307.617	80.9408	307.617	80.5977	307.617	80.5912	307.617	80.3797	307.617	80.3679	307.617	80.3088	307.617	80.3119	307.617	80.3869	307.617	80.4124	307.617	80.5635	307.617	80.6018	307.617	80.7549	307.617	80.7882	307.617	80.8815	307.617	80.8945
319.336	83.9959	319.336	83.943	319.336	83.9583	319.336	83.8069	319.336	83.8265	319.336	83.5968	319.336	83.6019	319.336	83.3239	319.336	83.2921	319.336	83.0004	319.336	82.9118	319.336	82.6406	319.336	82.4839	319.336	82.2607	319.336	82.0394	319.336	81.8795	319.336	81.6137	319.336	81.5169	319.336	81.2407	319.336	81.1937	319.336	80.9451	319.336	80.9305	319.336	80.7389	319.336	80.7459	319.336	80.6243	319.336	80.6531	319.336	80.597	319.336	80.6528	319.336	80.6457	319.336	80.7264	319.336	80.7465	319.336	80.8353	319.336	80.8619	319.336	80.9318	319.336	80.9493	319.336	80.9758
329.59	83.9889	329.59	83.9273	329.59	83.9608	329.59	83.7803	329.59	83.8394	329.59	83.5534	329.59	83.6235	329.59	83.2527	329.59	83.3146	329.59	82.8866	329.59	82.9194	329.59	82.4662	329.59	82.4514	329.59	82.0077	329.59	81.9342	329.59	81.535	329.59	81.4037	329.59	81.0811	329.59	80.9078	329.59	80.6885	329.59	80.499	329.59	80.4025	329.59	80.2215	329.59	80.2587	329.59	80.0973	329.59	80.2662	329.59	80.1204	329.59	80.3976	329.59	80.2603	329.59	80.5954	329.59	80.4688	329.59	80.7899	329.59	80.6886	329.59	80.9198	329.59	80.8628	329.59	80.9469
341.309	83.9396	341.309	83.8833	341.309	83.9063	341.309	83.7397	341.309	83.7846	341.309	83.5136	341.309	83.5786	341.309	83.212	341.309	83.2953	341.309	82.8432	341.309	82.9441	341.309	82.4176	341.309	82.5352	341.309	81.9492	341.309	82.0809	341.309	81.4596	341.309	81.5972	341.309	80.9817	341.309	81.1092	341.309	80.5604	341.309	80.6572	341.309	80.2473	341.309	80.2977	341.309	80.0848	341.309	80.0896	341.309	80.087	341.309	80.065	341.309	80.2286	341.309	80.2032	341.309	80.4506	341.309	80.4357	341.309	80.6799	341.309	80.6759	341.309	80.8492	341.309	80.8499	341.309	80.9121
353.027	84.0723	353.027	83.9805	353.027	84.0581	353.027	83.7878	353.027	83.935	353.027	83.5007	353.027	83.7034	353.027	83.127	353.027	83.3679	353.027	82.6754	353.027	82.9377	353.027	82.1577	353.027	82.4271	353.027	81.5923	353.027	81.8573	353.027	81.0097	353.027	81.2592	353.027	80.4585	353.027	80.6782	353.027	80.0035	353.027	80.1766	353.027	79.7119	353.027	79.8252	353.027	79.6282	353.027	79.6789	353.027	79.7522	353.027	79.7468	353.027	80.0328	353.027	79.9835	353.027	80.382	353.027	80.3073	353.027	80.7028	353.027	80.6287	353.027	80.9157	353.027	80.8696	353.027	80.9741
366.211	84.1945	366.211	84.1504	366.211	84.154	366.211	84.024	366.211	84.0284	366.211	83.8183	366.211	83.8197	366.211	83.5334	366.211	83.5315	366.211	83.1654	366.211	83.1687	366.211	82.707	366.211	82.737	366.211	82.1525	366.211	82.2423	366.211	81.5083	366.211	81.6924	366.211	80.807	366.211	81.1026	366.211	80.1196	366.211	80.508	366.211	79.5513	366.211	79.977	366.211	79.2057	366.211	79.6058	366.211	79.1284	366.211	79.4725	366.211	79.2806	366.211	79.5746	366.211	79.5675	366.211	79.818	366.211	79.8828	366.211	80.0749	366.211	80.1366	366.211	80.2426	366.211	80.2663
379.395	84.6192	379.395	84.5738	379.395	84.5623	379.395	84.4334	379.395	84.3979	379.395	84.2048	379.395	84.1241	379.395	83.8923	379.395	83.7438	379.395	83.4958	379.395	83.2649	379.395	83.0121	379.395	82.7019	379.395	82.4394	379.395	82.0775	379.395	81.7855	379.395	81.4245	379.395	81.08	379.395	80.786	379.395	80.3841	379.395	80.215	379.395	79.7899	379.395	79.7734	379.395	79.3973	379.395	79.5252	379.395	79.2707	379.395	79.5097	379.395	79.4005	379.395	79.7042	379.395	79.7039	379.395	80.0152	379.395	80.0623	379.395	80.3181	379.395	80.3633	379.395	80.5075	379.395	80.525
392.578	84.4427	392.578	84.3683	392.578	84.4412	392.578	84.2213	392.578	84.3591	392.578	84.003	392.578	84.1902	392.578	83.7117	392.578	83.928	392.578	83.3417	392.578	83.5664	392.578	82.886	392.578	83.1014	392.578	82.3426	392.578	82.5331	392.578	81.7254	392.578	81.8699	392.578	81.0774	392.578	81.1387	392.578	80.4775	392.578	80.4021	392.578	80.0286	392.578	79.7761	392.578	79.8165	392.578	79.4131	392.578	79.8627	392.578	79.416	392.578	80.1121	392.578	79.7432	392.578	80.4644	392.578	80.2296	392.578	80.8115	392.578	80.6955	392.578	81.0598	392.578	81.0182	392.578	81.1409
405.762	84.3203	405.762	84.2632	405.762	84.2883	405.762	84.1211	405.762	84.1633	405.762	83.8969	405.762	83.944	405.762	83.5896	405.762	83.633	405.762	83.1935	405.762	83.2366	405.762	82.6992	405.762	82.7625	405.762	82.1005	405.762	82.2167	405.762	81.4088	405.762	81.6032	405.762	80.6709	405.762	80.9308	405.762	79.9837	405.762	80.2319	405.762	79.4822	405.762	79.5897	405.762	79.2826	405.762	79.1496	405.762	79.4092	405.762	79.0607	405.762	79.7768	405.762	79.3503	405.762	80.2438	405.762	79.8746	405.762	80.6715	405.762	80.4231	405.762	80.9519	405.762	80.8318	405.762	81.015
420.41	84.7659	420.41	84.7278	420.41	84.7083	420.41	84.598	420.41	84.5509	420.41	84.3774	420.41	84.2921	420.41	84.0608	420.41	83.9328	420.41	83.6359	420.41	83.4742	420.41	83.0853	420.41	82.9175	420.41	82.3929	420.41	82.2638	420.41	81.5539	420.41	81.5207	420.41	80.596	420.41	80.7139	420.41	79.611	420.41	79.9063	420.41	78.7855	420.41	79.2143	420.41	78.3631	420.41	78.7932	420.41	78.4755	420.41	78.7606	420.41	79.0063	420.41	79.0996	420.41	79.6952	420.41	79.6556	420.41	80.3118	420.41	80.2288	420.41	80.7135	420.41	80.6552	420.41	80.8314
435.059	84.115	435.059	84.0443	435.059	84.1078	435.059	83.9058	435.059	84.0124	435.059	83.7057	435.059	83.8219	435.059	83.4417	435.059	83.5351	435.059	83.1023	435.059	83.1577	435.059	82.668	435.059	82.6986	435.059	82.1201	435.059	82.1637	435.059	81.4553	435.059	81.5495	435.059	80.7055	435.059	80.8457	435.059	79.9552	435.059	80.0594	435.059	79.3384	435.059	79.2606	435.059	78.9928	435.059	78.6293	435.059	78.9857	435.059	78.4104	435.059	79.273	435.059	78.7003	435.059	79.7265	435.059	79.3133	435.059	80.1886	435.059	79.9558	435.059	80.517	435.059	80.4194	435.059	80.6104
451.172	84.7287	451.172	84.643	451.172	84.7188	451.172	84.4656	451.172	84.6056	451.172	84.1941	451.172	84.38	451.172	83.8177	451.172	84.0347	451.172	83.3163	451.172	83.5667	451.172	82.6625	451.172	82.9785	451.172	81.8295	451.172	82.2767	451.172	80.8105	451.172	81.4716	451.172	79.6557	451.172	80.5839	451.172	78.5364	451.172	79.6701	451.172	77.7862	451.172	78.8711	451.172	77.7298	451.172	78.4345	451.172	78.3331	451.172	78.5781	451.172	79.2493	451.172	79.2398	451.172	80.1635	451.172	80.1061	451.172	80.9034	451.172	80.8759	451.172	81.3822	451.172	81.3789	451.172	81.5496
465.82	84.8018	465.82	84.7286	465.82	84.7663	465.82	84.5507	465.82	84.6187	465.82	84.2745	465.82	84.3569	465.82	83.9089	465.82	83.9829	465.82	83.4607	465.82	83.5064	465.82	82.9265	465.82	82.9445	465.82	82.2863	465.82	82.3139	465.82	81.5047	465.82	81.6188	465.82	80.5502	465.82	80.8446	465.82	79.4386	465.82	79.9712	465.82	78.3127	465.82	79.0168	465.82	77.5101	465.82	78.1119	465.82	77.4006	465.82	77.5467	465.82	77.9649	465.82	77.6087	465.82	78.8042	465.82	78.2372	465.82	79.5466	465.82	79.0566	465.82	79.9915	465.82	79.7226	465.82	80.0546
483.398	84.6398	483.398	84.6075	483.398	84.562	483.398	84.463	483.398	84.38	483.398	84.2073	483.398	84.1048	483.398	83.8442	483.398	83.7516	483.398	83.3773	483.398	83.3318	483.398	82.8029	483.398	82.8425	483.398	82.1043	483.398	82.26	483.398	81.2556	483.398	81.5509	483.398	80.2409	483.398	80.6985	483.398	79.0943	483.398	79.7449	483.398	77.971	483.398	78.8397	483.398	77.2094	483.398	78.2528	483.398	77.1845	483.398	78.2338	483.398	77.8943	483.398	78.7603	483.398	78.9319	483.398	79.5419	483.398	79.8956	483.398	80.2683	483.398	80.5646	483.398	80.7389	483.398	80.8506
499.512	84.4698	499.512	84.3572	499.512	84.4555	499.512	84.1347	499.512	84.3063	499.512	83.8253	499.512	84.0271	499.512	83.4541	499.512	83.6384	499.512	83.0385	499.512	83.1719	499.512	82.5736	499.512	82.6555	499.512	82.023	499.512	82.0927	499.512	81.3287	499.512	81.4521	499.512	80.4462	499.512	80.6827	499.512	79.3985	499.512	79.76	499.512	78.3433	499.512	78.7644	499.512	77.6077	499.512	77.9782	499.512	77.5321	499.512	77.8295	499.512	78.1363	499.512	78.4488	499.512	79.0968	499.512	79.449	499.512	80.0514	499.512	80.3659	499.512	80.7552	499.512	80.9393	499.512	81.0712
517.09	84.9831	517.09	84.8244	517.09	85.0114	517.09	84.5564	517.09	84.8983	517.09	84.2044	517.09	84.6462	517.09	83.7909	517.09	84.2699	517.09	83.3275	517.09	83.7917	517.09	82.81	517.09	83.2299	517.09	82.2153	517.09	82.5856	517.09	81.5039	517.09	81.8336	517.09	80.6348	517.09	80.9283	517.09	79.6091	517.09	79.8393	517.09	78.5426	517.09	78.6377	517.09	77.7404	517.09	77.6583	517.09	77.6139	517.09	77.503	517.09	78.286	517.09	78.3569	517.09	79.4051	517.09	79.6406	517.09	80.5127	517.09	80.766	517.09	81.3093	517.09	81.4631	517.09	81.6456
536.133	84.0741	536.133	83.8552	536.133	84.0896	536.133	83.4648	536.133	83.897	536.133	82.9708	536.133	83.5175	536.133	82.4755	536.133	83.0054	536.133	82.076	536.133	82.4437	536.133	81.7895	536.133	81.9158	536.133	81.5187	536.133	81.4566	536.133	81.1117	536.133	81.0212	536.133	80.4646	536.133	80.4999	536.133	79.6002	536.133	79.7719	536.133	78.703	536.133	78.7992	536.133	78.0769	536.133	77.806	536.133	77.9747	536.133	77.4281	536.133	78.4232	536.133	78.1178	536.133	79.2366	536.133	79.3677	536.133	80.1405	536.133	80.4724	536.133	80.8721	536.133	81.1167	536.133	81.236
555.176	85.1815	555.176	85.0318	555.176	85.1265	555.176	84.6915	555.176	84.8518	555.176	84.1737	555.176	84.3557	555.176	83.501	555.176	83.6731	555.176	82.7117	555.176	82.8944	555.176	81.8498	555.176	82.1508	555.176	80.9367	555.176	81.5426	555.176	79.951	555.176	81.0404	555.176	78.8506	555.176	80.464	555.176	77.6524	555.176	79.5841	555.176	76.5622	555.176	78.2811	555.176	76.0608	555.176	76.7981	555.176	76.5747	555.176	76.1101	555.176	77.8869	555.176	77.0621	555.176	79.3962	555.176	78.812	555.176	80.6627	555.176	80.3516	555.176	81.4664	555.176	81.3376	555.176	81.7062
574.219	84.8602	574.219	84.7061	574.219	84.8381	574.219	84.3983	574.219	84.6337	574.219	83.9723	574.219	84.2584	574.219	83.4662	574.219	83.7404	574.219	82.9041	574.219	83.1205	574.219	82.2818	574.219	82.4431	574.219	81.5579	574.219	81.7386	574.219	80.6553	574.219	81.0021	574.219	79.4831	574.219	80.1854	574.219	78.0042	574.219	79.2217	574.219	76.4156	574.219	78.0989	574.219	75.4521	574.219	77.0288	574.219	75.9115	574.219	76.6324	574.219	77.3361	574.219	77.4	574.219	78.8472	574.219	78.8148	574.219	80.0625	574.219	80.1041	574.219	80.8573	574.219	80.9131	574.219	81.1588
594.727	84.3325	594.727	84.1173	594.727	84.3751	594.727	83.7686	594.727	84.221	594.727	83.3255	594.727	83.8747	594.727	82.8144	594.727	83.3797	594.727	82.2508	594.727	82.8114	594.727	81.6534	594.727	82.2387	594.727	81.047	594.727	81.6673	594.727	80.4271	594.727	81.0193	594.727	79.7178	594.727	80.175	594.727	78.7869	594.727	79.0344	594.727	77.587	594.727	77.5871	594.727	76.4894	594.727	76.1461	594.727	76.4279	594.727	75.766	594.727	77.6508	594.727	77.141	594.727	79.2589	594.727	79.1366	594.727	80.6128	594.727	80.7308	594.727	81.5147	594.727	81.6464	594.727	81.8848
615.234	84.5979	615.234	84.3592	615.234	84.6023	615.234	83.9219	615.234	84.3567	615.234	83.3598	615.234	83.8675	615.234	82.7925	615.234	83.1832	615.234	82.3404	615.234	82.4162	615.234	82.0273	615.234	81.73	615.234	81.727	615.234	81.2508	615.234	81.2447	615.234	80.9345	615.234	80.4435	615.234	80.5446	615.234	79.2731	615.234	79.7676	615.234	77.7368	615.234	78.2994	615.234	76.0374	615.234	75.929	615.234	75.1575	615.234	73.4875	615.234	76.2978	615.234	74.5436	615.234	78.4649	615.234	77.7375	615.234	80.3333	615.234	80.1531	615.234	81.5084	615.234	81.4994	615.234	81.9157
637.207	84.6424	637.207	84.3869	637.207	84.6425	637.207	83.9305	637.207	84.3575	637.207	83.3529	637.207	83.7971	637.207	82.7584	637.207	83.0265	637.207	82.236	637.207	82.1623	637.207	81.778	637.207	81.3509	637.207	81.2509	637.207	80.7383	637.207	80.4833	637.207	80.3689	637.207	79.3823	637.207	80.0749	637.207	77.9686	637.207	79.5552	637.207	76.3781	637.207	78.5213	637.207	75.0702	637.207	76.7896	637.207	75.0863	637.207	74.7702	637.207	76.685	637.207	74.679	637.207	78.6741	637.207	77.0481	637.207	80.2511	637.207	79.3818	637.207	81.1886	637.207	80.837	637.207	81.409
659.18	84.6905	659.18	84.2112	659.18	84.9062	659.18	83.5176	659.18	84.8163	659.18	82.6961	659.18	84.3941	659.18	81.8956	659.18	83.6503	659.18	81.2583	659.18	82.6443	659.18	80.7714	659.18	81.5032	659.18	80.2505	659.18	80.4497	659.18	79.5308	659.18	79.7111	659.18	78.5997	659.18	79.2505	659.18	77.4717	659.18	78.7086	659.18	75.9823	659.18	77.6602	659.18	73.9552	659.18	75.7914	659.18	72.5489	659.18	73.3181	659.18	74.3648	659.18	72.8836	659.18	77.3655	659.18	75.7512	659.18	79.5648	659.18	78.5465	659.18	80.7563	659.18	80.2832	659.18	80.9955
682.617	84.6622	682.617	84.4881	682.617	84.5243	682.617	84.0001	682.617	84.0962	682.617	83.2375	682.617	83.4294	682.617	82.3402	682.617	82.6193	682.617	81.5834	682.617	81.7806	682.617	81.2065	682.617	80.992	682.617	81.0889	682.617	80.3002	682.617	80.8069	682.617	79.7773	682.617	80.04	682.617	79.4409	682.617	78.7912	682.617	79.0973	682.617	77.3049	682.617	78.3783	682.617	75.7638	682.617	76.8794	682.617	74.4245	682.617	74.5711	682.617	74.6826	682.617	73.8455	682.617	77.056	682.617	76.6891	682.617	79.5527	682.617	79.547	682.617	81.1653	682.617	81.2182	682.617	81.7321
707.52	84.8854	707.52	84.577	707.52	84.8509	707.52	83.966	707.52	84.4461	707.52	83.0863	707.52	83.6862	707.52	81.988	707.52	82.6625	707.52	80.8228	707.52	81.5461	707.52	79.897	707.52	80.4942	707.52	79.478	707.52	79.553	707.52	79.381	707.52	78.8035	707.52	78.97	707.52	78.4732	707.52	77.7701	707.52	78.4675	707.52	75.9529	707.52	78.1885	707.52	74.4483	707.52	77.1125	707.52	74.0552	707.52	75.4391	707.52	74.814	707.52	75.1533	707.52	76.6906	707.52	77.2433	707.52	78.8708	707.52	79.4591	707.52	80.4562	707.52	80.7891	707.52	81.1175
732.422	84.6266	732.422	84.192	732.422	84.7975	732.422	83.5554	732.422	84.6423	732.422	82.8044	732.422	84.1353	732.422	82.105	732.422	83.3182	732.422	81.6198	732.422	82.2341	732.422	81.2966	732.422	80.8339	732.422	80.8842	732.422	79.1421	732.422	80.2399	732.422	77.6692	732.422	79.4139	732.422	77.0518	732.422	78.3437	732.422	76.9252	732.422	76.7308	732.422	76.4561	732.422	74.2958	732.422	74.9813	732.422	72.1377	732.422	72.1548	732.422	73.292	732.422	70.519	732.422	75.9629	732.422	73.9348	732.422	78.1555	732.422	77.3642	732.422	79.5639	732.422	79.3445	732.422	80.019
757.324	84.2332	757.324	83.9667	757.324	84.3483	757.324	83.5909	757.324	84.2298	757.324	83.1191	757.324	83.7866	757.324	82.5335	757.324	82.9559	757.324	81.7812	757.324	81.6987	757.324	80.8603	757.324	80.0472	757.324	79.7742	757.324	78.3764	757.324	78.4403	757.324	77.4866	757.324	77.0924	757.324	77.4951	757.324	76.2756	757.324	77.5592	757.324	75.8295	757.324	77.029	757.324	75.0252	757.324	75.5571	757.324	74.3008	757.324	72.9327	757.324	75.27	757.324	71.0694	757.324	77.14	757.324	73.8782	757.324	78.6105	757.324	77.0961	757.324	79.4694	757.324	78.9522	757.324	79.6499
785.156	84.3419	785.156	84.0868	785.156	84.5221	785.156	83.8423	785.156	84.4867	785.156	83.5705	785.156	84.1765	785.156	83.1453	785.156	83.6285	785.156	82.36	785.156	82.8172	785.156	81.0028	785.156	81.5105	785.156	79.2212	785.156	79.4845	785.156	77.7484	785.156	77.3957	785.156	76.659	785.156	76.9149	785.156	74.8661	785.156	77.305	785.156	71.9164	785.156	76.8639	785.156	70.5596	785.156	75.2768	785.156	71.8505	785.156	73.3905	785.156	72.3378	785.156	73.3607	785.156	74.0085	785.156	75.9858	785.156	77.3498	785.156	78.8407	785.156	79.8316	785.156	80.5538	785.156	80.8906
811.523	83.9197	811.523	83.7527	811.523	84.1383	811.523	83.5743	811.523	84.2467	811.523	83.1724	811.523	84.0229	811.523	82.3969	811.523	83.3427	811.523	81.3679	811.523	82.1312	811.523	80.5142	811.523	80.276	811.523	80.0104	811.523	77.7954	811.523	79.4412	811.523	75.3331	811.523	78.4896	811.523	74.2262	811.523	77.2375	811.523	74.5278	811.523	75.7023	811.523	74.8759	811.523	73.582	811.523	74.1286	811.523	71.7678	811.523	71.3728	811.523	73.2007	811.523	68.7111	811.523	75.9877	811.523	72.8164	811.523	77.9515	811.523	76.3357	811.523	78.8755	811.523	78.1438	811.523	78.9099
840.82	84.7671	840.82	84.4415	840.82	84.9285	840.82	84.0524	840.82	84.7539	840.82	83.4983	840.82	84.1445	840.82	82.5887	840.82	83.1754	840.82	81.3433	840.82	82.0815	840.82	80.138	840.82	80.9264	840.82	79.3813	840.82	79.3034	840.82	78.9237	840.82	76.9882	840.82	78.2645	840.82	75.8049	840.82	77.1229	840.82	76.9187	840.82	75.6502	840.82	77.5086	840.82	74.4123	840.82	76.3305	840.82	73.5257	840.82	73.0868	840.82	73.2492	840.82	67.2836	840.82	75.5175	840.82	69.6718	840.82	78.6281	840.82	75.6411	840.82	80.3754	840.82	78.9697	840.82	80.4717
870.117	84.741	870.117	84.9719	870.117	84.3064	870.117	84.8153	870.117	83.8986	870.117	84.1738	870.117	83.6141	870.117	83.0058	870.117	83.3567	870.117	81.368	870.117	82.8358	870.117	79.6267	870.117	81.4997	870.117	78.5531	870.117	78.965	870.117	78.3844	870.117	75.7755	870.117	78.184	870.117	73.9285	870.117	77.0511	870.117	74.1917	870.117	74.9121	870.117	74.5001	870.117	72.5888	870.117	73.5958	870.117	71.0161	870.117	71.2311	870.117	71.6037	870.117	68.526	870.117	74.9386	870.117	71.5222	870.117	77.9456	870.117	76.0817	870.117	79.5856	870.117	78.795	870.117	79.8783
900.879	85.1292	900.879	84.9076	900.879	85.0347	900.879	84.4501	900.879	84.5884	900.879	83.7403	900.879	83.8936	900.879	82.6909	900.879	83.0435	900.879	81.2931	900.879	81.9264	900.879	79.6672	900.879	80.4268	900.879	78.1081	900.879	78.6095	900.879	77.1077	900.879	76.5397	900.879	76.6932	900.879	74.7357	900.879	76.2395	900.879	75.0051	900.879	75.0679	900.879	76.6551	900.879	73.7912	900.879	77.0679	900.879	73.6874	900.879	75.4333	900.879	72.9993	900.879	71.1997	900.879	72.5136	900.879	71.3913	900.879	76.7737	900.879	77.6545	900.879	80.443	900.879	80.936	900.879	81.7844
933.105	85.0879	933.105	85.1492	933.105	84.7073	933.105	84.8618	933.105	84.0695	933.105	84.1968	933.105	83.3568	933.105	83.076	933.105	82.7862	933.105	81.3561	933.105	82.2059	933.105	79.1428	933.105	81.1109	933.105	77.2988	933.105	79.2086	933.105	76.8512	933.105	76.6277	933.105	77.2483	933.105	74.15	933.105	76.9479	933.105	73.6378	933.105	74.8047	933.105	74.6963	933.105	71.0436	933.105	75.3097	933.105	71.4366	933.105	74.4386	933.105	74.6524	933.105	72.2672	933.105	76.5498	933.105	73.6646	933.105	77.8734	933.105	77.4493	933.105	79.2621	933.105	79.6325	933.105	80.1026
965.332	84.844	965.332	84.5954	965.332	84.8347	965.332	84.2346	965.332	84.4875	965.332	83.7502	965.332	83.8429	965.332	82.9835	965.332	82.9304	965.332	81.8111	965.332	81.7425	965.332	80.2696	965.332	80.1708	965.332	78.7016	965.332	77.8827	965.332	77.5666	965.332	74.7168	965.332	76.7529	965.332	72.3001	965.332	76.0729	965.332	73.1442	965.332	75.4194	965.332	74.5772	965.332	74.2235	965.332	74.8877	965.332	71.7473	965.332	72.8532	965.332	69.2764	965.332	64.681	965.332	73.0053	965.332	69.3792	965.332	77.1268	965.332	76.4523	965.332	79.2981	965.332	79.1889	965.332	79.9387
1,000.49	84.1205	1,000.49	84.6682	1,000.49	83.5145	1,000.49	84.7469	1,000.49	83.0924	1,000.49	84.0322	1,000.49	82.9311	1,000.49	82.4161	1,000.49	82.9505	1,000.49	79.9753	1,000.49	82.6147	1,000.49	76.9388	1,000.49	81.3697	1,000.49	74.4668	1,000.49	79.3348	1,000.49	73.233	1,000.49	76.8043	1,000.49	71.5668	1,000.49	73.0308	1,000.49	71.6854	1,000.49	68.6508	1,000.49	73.5127	1,000.49	69.7457	1,000.49	73.6465	1,000.49	71.4555	1,000.49	73.5158	1,000.49	72.185	1,000.49	74.4008	1,000.49	71.0781	1,000.49	74.1536	1,000.49	70.4511	1,000.49	74.927	1,000.49	76.0295	1,000.49	78.6507	1,000.49	79.7974	1,000.49	80.6189
1,035.64	83.0971	1,035.64	83.4862	1,035.64	83.0101	1,035.64	83.8951	1,035.64	83.0774	1,035.64	83.8627	1,035.64	82.9326	1,035.64	83.096	1,035.64	82.2756	1,035.64	81.5755	1,035.64	81.0066	1,035.64	79.417	1,035.64	79.3866	1,035.64	76.7413	1,035.64	77.6138	1,035.64	74.5476	1,035.64	75.4609	1,035.64	74.7573	1,035.64	73.6565	1,035.64	74.9384	1,035.64	73.2399	1,035.64	72.3146	1,035.64	73.4047	1,035.64	68.4393	1,035.64	74.3978	1,035.64	69.623	1,035.64	75.0485	1,035.64	71.5431	1,035.64	72.1643	1,035.64	73.8848	1,035.64	64.7525	1,035.64	76.1567	1,035.64	73.8966	1,035.64	77.4414	1,035.64	77.366	1,035.64	78.0104
1,072.27	82.8581	1,072.27	83.0643	1,072.27	82.5509	1,072.27	83.0864	1,072.27	82.1436	1,072.27	82.7597	1,072.27	81.6968	1,072.27	81.986	1,072.27	81.2039	1,072.27	80.8553	1,072.27	80.5122	1,072.27	79.5099	1,072.27	79.6258	1,072.27	78.0074	1,072.27	78.277	1,072.27	76.6298	1,072.27	75.8129	1,072.27	75.2181	1,072.27	71.5122	1,072.27	73.3769	1,072.27	68.488	1,072.27	70.9841	1,072.27	69.0819	1,072.27	69.3602	1,072.27	69.9288	1,072.27	71.5188	1,072.27	71.4295	1,072.27	72.0465	1,072.27	70.6416	1,072.27	71.6279	1,072.27	67.2633	1,072.27	75.331	1,072.27	72.2793	1,072.27	77.9407	1,072.27	76.5218	1,072.27	78.2605
1,108.89	81.9146	1,108.89	82.2265	1,108.89	81.3476	1,108.89	82.1583	1,108.89	80.992	1,108.89	81.6924	1,108.89	81.1815	1,108.89	80.8667	1,108.89	81.211	1,108.89	79.8031	1,108.89	80.1313	1,108.89	78.4893	1,108.89	78.2109	1,108.89	76.9168	1,108.89	76.8552	1,108.89	75.6302	1,108.89	75.8416	1,108.89	73.8256	1,108.89	72.8242	1,108.89	71.7821	1,108.89	68.0433	1,108.89	71.7328	1,108.89	71.9858	1,108.89	70.185	1,108.89	74.2268	1,108.89	67.9064	1,108.89	73.953	1,108.89	72.6876	1,108.89	73.5337	1,108.89	73.3459	1,108.89	71.9851	1,108.89	73.2188	1,108.89	73.1898	1,108.89	75.6076	1,108.89	75.8147	1,108.89	76.6833
1,148.44	81.8256	1,148.44	81.7069	1,148.44	81.4407	1,148.44	81.4082	1,148.44	80.5102	1,148.44	80.8637	1,148.44	79.764	1,148.44	79.9085	1,148.44	79.7758	1,148.44	78.9802	1,148.44	79.8001	1,148.44	78.2814	1,148.44	79.0343	1,148.44	76.9088	1,148.44	77.6482	1,148.44	74.9568	1,148.44	76.0658	1,148.44	73.0687	1,148.44	73.1476	1,148.44	70.7177	1,148.44	68.4922	1,148.44	70.4955	1,148.44	70.4505	1,148.44	71.7864	1,148.44	70.9636	1,148.44	70.8703	1,148.44	68.8508	1,148.44	71.369	1,148.44	66.3387	1,148.44	72.0289	1,148.44	68.7588	1,148.44	72.4498	1,148.44	74.2795	1,148.44	75.3694	1,148.44	76.9191	1,148.44	77.1733
1,189.45	81.4476	1,189.45	81.2656	1,189.45	81.0579	1,189.45	80.6904	1,189.45	80.3563	1,189.45	79.8758	1,189.45	80.0063	1,189.45	79.3486	1,189.45	80.2323	1,189.45	79.5466	1,189.45	80.4085	1,189.45	78.9327	1,189.45	79.7898	1,189.45	76.3227	1,189.45	78.3463	1,189.45	74.2236	1,189.45	77.164	1,189.45	75.0551	1,189.45	75.7569	1,189.45	73.9168	1,189.45	70.8497	1,189.45	71.2775	1,189.45	67.7941	1,189.45	71.2466	1,189.45	72.4678	1,189.45	70.2726	1,189.45	73.6665	1,189.45	73.1713	1,189.45	71.7674	1,189.45	74.6025	1,189.45	69.5576	1,189.45	71.5164	1,189.45	75.5805	1,189.45	72.4952	1,189.45	77.6575	1,189.45	76.4134
1,230.47	81.4102	1,230.47	80.7713	1,230.47	81.7467	1,230.47	80.6016	1,230.47	81.3652	1,230.47	80.967	1,230.47	80.4528	1,230.47	81.388	1,230.47	79.4823	1,230.47	81.1139	1,230.47	79.5522	1,230.47	79.5753	1,230.47	80.1018	1,230.47	76.8778	1,230.47	79.4879	1,230.47	73.9895	1,230.47	77.5324	1,230.47	74.1528	1,230.47	75.5894	1,230.47	73.8458	1,230.47	72.5836	1,230.47	69.2851	1,230.47	70.4699	1,230.47	71.0225	1,230.47	73.1936	1,230.47	72.2147	1,230.47	73.9752	1,230.47	72.0691	1,230.47	72.4982	1,230.47	75.0275	1,230.47	70.1798	1,230.47	74.7828	1,230.47	75.5678	1,230.47	73.0885	1,230.47	77.4967	1,230.47	75.5862
1,274.41	82.7252	1,274.41	82.3507	1,274.41	82.2325	1,274.41	81.5175	1,274.41	81.2647	1,274.41	81.319	1,274.41	80.3573	1,274.41	81.8711	1,274.41	79.6264	1,274.41	81.6783	1,274.41	79.606	1,274.41	79.6785	1,274.41	80.1137	1,274.41	76.9985	1,274.41	79.5504	1,274.41	75.3205	1,274.41	77.5618	1,274.41	74.7817	1,274.41	75.658	1,274.41	75.4964	1,274.41	73.0941	1,274.41	73.6217	1,274.41	68.5592	1,274.41	64.9285	1,274.41	71.6033	1,274.41	70.4825	1,274.41	73.3296	1,274.41	73.7188	1,274.41	71.7634	1,274.41	75.5069	1,274.41	69.5249	1,274.41	75.4595	1,274.41	75.5969	1,274.41	74.9003	1,274.41	78.2967	1,274.41	77.2739
1,319.82	83.3134	1,319.82	83.0654	1,319.82	83.1467	1,319.82	82.3291	1,319.82	82.6926	1,319.82	81.5931	1,319.82	81.7925	1,319.82	81.8377	1,319.82	80.1908	1,319.82	82.2314	1,319.82	79.1544	1,319.82	80.7919	1,319.82	79.5908	1,319.82	76.7765	1,319.82	79.8455	1,319.82	72.3065	1,319.82	78.953	1,319.82	72.9805	1,319.82	76.9781	1,319.82	74.6145	1,319.82	73.8528	1,319.82	74.1463	1,319.82	72.0225	1,319.82	69.6736	1,319.82	75.0445	1,319.82	69.0402	1,319.82	75.5397	1,319.82	72.673	1,319.82	72.4878	1,319.82	74.618	1,319.82	69.3284	1,319.82	76.4658	1,319.82	74.7713	1,319.82	77.0296	1,319.82	77.1003	1,319.82	77.1699
1,366.7	83.3925	1,366.7	84.2479	1,366.7	83.1165	1,366.7	84.1674	1,366.7	83.5867	1,366.7	82.84	1,366.7	83.6125	1,366.7	82.0126	1,366.7	81.8403	1,366.7	82.0766	1,366.7	78.7518	1,366.7	80.259	1,366.7	77.5469	1,366.7	76.2493	1,366.7	78.8473	1,366.7	73.6573	1,366.7	79.8144	1,366.7	72.9599	1,366.7	79.8332	1,366.7	73.6851	1,366.7	75.7346	1,366.7	74.0944	1,366.7	66.5134	1,366.7	68.6073	1,366.7	70.6787	1,366.7	69.7695	1,366.7	72.2145	1,366.7	76.0356	1,366.7	73.6016	1,366.7	77.3517	1,366.7	72.3216	1,366.7	76.8486	1,366.7	75.6411	1,366.7	77.2631	1,366.7	78.9548	1,366.7	78.8349
1,413.57	84.4737	1,413.57	85.1444	1,413.57	83.1227	1,413.57	83.9164	1,413.57	82.7882	1,413.57	82.0181	1,413.57	83.2396	1,413.57	82.1675	1,413.57	83.0191	1,413.57	82.0708	1,413.57	81.4828	1,413.57	80.3669	1,413.57	78.6448	1,413.57	80.1033	1,413.57	77.1518	1,413.57	78.6283	1,413.57	76.987	1,413.57	73.6345	1,413.57	76.7785	1,413.57	73.4043	1,413.57	74.8757	1,413.57	74.5827	1,413.57	69.7241	1,413.57	68.8563	1,413.57	71.3634	1,413.57	64.7214	1,413.57	71.5413	1,413.57	74.3561	1,413.57	70.9932	1,413.57	77.5335	1,413.57	69.7228	1,413.57	77.1736	1,413.57	76.0648	1,413.57	76.2629	1,413.57	79.4232	1,413.57	78.6488
1,463.38	84.1313	1,463.38	84.484	1,463.38	83.4719	1,463.38	83.5293	1,463.38	83.5061	1,463.38	82.9902	1,463.38	83.5434	1,463.38	82.7514	1,463.38	83.0671	1,463.38	80.8511	1,463.38	82.0972	1,463.38	80.2722	1,463.38	79.9632	1,463.38	80.5931	1,463.38	77.4741	1,463.38	76.9764	1,463.38	76.5486	1,463.38	72.885	1,463.38	75.7367	1,463.38	75.1353	1,463.38	73.9636	1,463.38	76.8176	1,463.38	70.8077	1,463.38	72.4742	1,463.38	73.8656	1,463.38	62.5092	1,463.38	74.8689	1,463.38	70.758	1,463.38	72.5089	1,463.38	76.0904	1,463.38	68.693	1,463.38	77.819	1,463.38	75.5447	1,463.38	76.9793	1,463.38	78.7715	1,463.38	78.0612
1,516.11	83.8316	1,516.11	83.6331	1,516.11	83.3232	1,516.11	83.2578	1,516.11	83.0974	1,516.11	83.9141	1,516.11	83.0017	1,516.11	83.1575	1,516.11	82.8251	1,516.11	81.0156	1,516.11	82.7121	1,516.11	80.4924	1,516.11	81.2438	1,516.11	78.1492	1,516.11	78.8383	1,516.11	73.2732	1,516.11	77.4662	1,516.11	73.6292	1,516.11	74.4496	1,516.11	73.4862	1,516.11	72.4913	1,516.11	75.4453	1,516.11	71.2804	1,516.11	76.1127	1,516.11	69.813	1,516.11	69.0339	1,516.11	73.0787	1,516.11	71.3715	1,516.11	71.7802	1,516.11	75.7572	1,516.11	64.9657	1,516.11	77.7321	1,516.11	73.2069	1,516.11	77.2589	1,516.11	76.7198	1,516.11	76.6228
1,568.85	82.6634	1,568.85	82.348	1,568.85	82.5994	1,568.85	82.8854	1,568.85	82.006	1,568.85	84.034	1,568.85	81.8745	1,568.85	83.567	1,568.85	82.6036	1,568.85	82.0069	1,568.85	83.1742	1,568.85	81.349	1,568.85	81.2716	1,568.85	79.6695	1,568.85	77.6716	1,568.85	76.7638	1,568.85	78.1623	1,568.85	75.7075	1,568.85	78.3862	1,568.85	70.3418	1,568.85	75.3211	1,568.85	70.9256	1,568.85	70.3849	1,568.85	75.3282	1,568.85	70.0216	1,568.85	71.4375	1,568.85	73.2589	1,568.85	70.8939	1,568.85	72.4888	1,568.85	75.6697	1,568.85	68.9086	1,568.85	74.0243	1,568.85	70.982	1,568.85	72.7448	1,568.85	76.7702	1,568.85	75.9897
1,624.51	81.7239	1,624.51	81.3926	1,624.51	82.3863	1,624.51	82.6135	1,624.51	82.1762	1,624.51	83.5714	1,624.51	81.4722	1,624.51	82.7098	1,624.51	81.7525	1,624.51	81.5986	1,624.51	82.4553	1,624.51	80.7022	1,624.51	81.0767	1,624.51	78.3018	1,624.51	78.0877	1,624.51	76.0972	1,624.51	76.3645	1,624.51	74.0802	1,624.51	75.0455	1,624.51	72.9131	1,624.51	72.1509	1,624.51	67.0612	1,624.51	68.682	1,624.51	69.7371	1,624.51	70.6199	1,624.51	72.3768	1,624.51	71.5441	1,624.51	69.6784	1,624.51	72.3995	1,624.51	72.7675	1,624.51	65.8893	1,624.51	73.8247	1,624.51	69.7688	1,624.51	73.8213	1,624.51	73.7047	1,624.51	74.1356
1,681.64	82.5644	1,681.64	82.7706	1,681.64	82.576	1,681.64	82.8416	1,681.64	82.6332	1,681.64	82.5307	1,681.64	81.9442	1,681.64	81.618	1,681.64	81.6951	1,681.64	81.7356	1,681.64	82.0361	1,681.64	81.5553	1,681.64	81.0135	1,681.64	78.2643	1,681.64	79.0312	1,681.64	73.8262	1,681.64	76.5756	1,681.64	72.9059	1,681.64	74.1168	1,681.64	71.1818	1,681.64	72.8413	1,681.64	67.28	1,681.64	70.5828	1,681.64	63.3086	1,681.64	68.2279	1,681.64	70.9668	1,681.64	72.6391	1,681.64	73.8722	1,681.64	72.1108	1,681.64	73.4549	1,681.64	67.3865	1,681.64	74.7257	1,681.64	71.2768	1,681.64	73.9065	1,681.64	73.6324	1,681.64	73.8906
1,741.7	83.1845	1,741.7	83.3743	1,741.7	83.7328	1,741.7	83.4824	1,741.7	83.3417	1,741.7	82.0048	1,741.7	81.8898	1,741.7	80.6787	1,741.7	81.6744	1,741.7	81.4634	1,741.7	82.7705	1,741.7	79.9835	1,741.7	82.1291	1,741.7	77.3054	1,741.7	79.8296	1,741.7	78.7603	1,741.7	77.8295	1,741.7	78.1714	1,741.7	77.9822	1,741.7	76.4771	1,741.7	76.237	1,741.7	74.2983	1,741.7	71.6427	1,741.7	65.575	1,741.7	68.7265	1,741.7	67.0811	1,741.7	70.3649	1,741.7	71.4518	1,741.7	66.4453	1,741.7	74.4861	1,741.7	70.8317	1,741.7	73.1354	1,741.7	70.3308	1,741.7	70.7989	1,741.7	75.0897	1,741.7	74.7208
1,803.22	84.6514	1,803.22	84.8498	1,803.22	84.234	1,803.22	83.4767	1,803.22	84.187	1,803.22	82.8467	1,803.22	83.628	1,803.22	83.3419	1,803.22	82.9499	1,803.22	82.1414	1,803.22	82.1991	1,803.22	81.5019	1,803.22	80.7903	1,803.22	78.8784	1,803.22	78.772	1,803.22	73.2385	1,803.22	77.355	1,803.22	73.9842	1,803.22	76.2236	1,803.22	66.002	1,803.22	71.153	1,803.22	72.9305	1,803.22	64.9506	1,803.22	72.821	1,803.22	68.7614	1,803.22	63.416	1,803.22	72.4844	1,803.22	74.2209	1,803.22	72.0352	1,803.22	74.5343	1,803.22	70.5334	1,803.22	74.9961	1,803.22	74.5117	1,803.22	73.9745	1,803.22	75.0593	1,803.22	73.0044
1,866.21	84.4822	1,866.21	84.1406	1,866.21	84.394	1,866.21	83.3378	1,866.21	84.3322	1,866.21	83.5062	1,866.21	84.0123	1,866.21	83.4404	1,866.21	83.3756	1,866.21	82.0765	1,866.21	81.7602	1,866.21	80.0661	1,866.21	80.364	1,866.21	78.5755	1,866.21	78.2849	1,866.21	76.1023	1,866.21	74.0682	1,866.21	73.3253	1,866.21	72.9835	1,866.21	73.9813	1,866.21	68.8479	1,866.21	67.3296	1,866.21	64.5511	1,866.21	72.9841	1,866.21	66.2959	1,866.21	62.5271	1,866.21	72.1502	1,866.21	73.7558	1,866.21	71.8278	1,866.21	75.652	1,866.21	68.0179	1,866.21	75.2277	1,866.21	72.3172	1,866.21	74.668	1,866.21	74.3717	1,866.21	73.2029
1,932.13	83.4265	1,932.13	83.1288	1,932.13	83.5309	1,932.13	83.4083	1,932.13	83.5479	1,932.13	84.2394	1,932.13	83.4805	1,932.13	82.5997	1,932.13	83.4011	1,932.13	80.3855	1,932.13	82.0932	1,932.13	80.8457	1,932.13	79.6945	1,932.13	77.1451	1,932.13	78.6735	1,932.13	76.4931	1,932.13	75.7678	1,932.13	73.9767	1,932.13	67.611	1,932.13	69.4989	1,932.13	68.8699	1,932.13	70.5341	1,932.13	71.2531	1,932.13	69.6243	1,932.13	67.6591	1,932.13	67.9919	1,932.13	71.5846	1,932.13	69.2592	1,932.13	71.4159	1,932.13	75.2483	1,932.13	68.8685	1,932.13	73.35	1,932.13	70.3457	1,932.13	73.0716	1,932.13	70.5473	1,932.13	71.7415
1,999.51	83.4057	1,999.51	82.3351	1,999.51	83.8014	1,999.51	83.4025	1,999.51	83.1237	1,999.51	83.5645	1,999.51	83.3673	1,999.51	81.3825	1,999.51	82.3661	1,999.51	81.2323	1,999.51	80.9373	1,999.51	79.1859	1,999.51	80.5123	1,999.51	77.493	1,999.51	78.6165	1,999.51	75.3428	1,999.51	77.0403	1,999.51	73.6378	1,999.51	70.7326	1,999.51	72.6421	1,999.51	70.7306	1,999.51	65.6541	1,999.51	71.8656	1,999.51	68.7727	1,999.51	66.7756	1,999.51	70.8953	1,999.51	70.1192	1,999.51	67.0503	1,999.51	70.6287	1,999.51	74.4024	1,999.51	69.1143	1,999.51	73.4406	1,999.51	70.7	1,999.51	70.4476	1,999.51	72.0786	1,999.51	70.6885
2,069.82	83.2487	2,069.82	83.0991	2,069.82	83.466	2,069.82	82.4151	2,069.82	82.6557	2,069.82	80.9339	2,069.82	81.5786	2,069.82	81.5113	2,069.82	81.3639	2,069.82	80.768	2,069.82	81.6762	2,069.82	78.4159	2,069.82	80.0406	2,069.82	78.3593	2,069.82	77.2886	2,069.82	75.8118	2,069.82	74.2126	2,069.82	70.8364	2,069.82	69.1143	2,069.82	69.2846	2,069.82	69.8871	2,069.82	71.7468	2,069.82	72.1534	2,069.82	60.9183	2,069.82	67.8338	2,069.82	69.1806	2,069.82	68.8143	2,069.82	65.3006	2,069.82	67.8223	2,069.82	72.8087	2,069.82	66.6722	2,069.82	73.0003	2,069.82	68.8705	2,069.82	70.9211	2,069.82	70.8845	2,069.82	70.3335
2,143.07	83.3004	2,143.07	83.3951	2,143.07	83.4394	2,143.07	80.8571	2,143.07	83.2346	2,143.07	79.5686	2,143.07	81.2534	2,143.07	81.1604	2,143.07	80.13	2,143.07	80.2308	2,143.07	80.8883	2,143.07	78.4203	2,143.07	80.1449	2,143.07	73.6535	2,143.07	77.8276	2,143.07	74.1328	2,143.07	76.9821	2,143.07	73.4337	2,143.07	75.1664	2,143.07	66.4086	2,143.07	70.632	2,143.07	67.3883	2,143.07	69.106	2,143.07	66.3452	2,143.07	64.8649	2,143.07	65.5807	2,143.07	66.0757	2,143.07	66.0862	2,143.07	65.8629	2,143.07	69.3373	2,143.07	61.4066	2,143.07	71.8916	2,143.07	67.9358	2,143.07	69.7243	2,143.07	69.907	2,143.07	69.2508
2,219.24	82.8999	2,219.24	82.408	2,219.24	82.8083	2,219.24	80.9317	2,219.24	83.276	2,219.24	80.7016	2,219.24	81.937	2,219.24	80.1562	2,219.24	79.9823	2,219.24	80.2967	2,219.24	79.8179	2,219.24	77.5404	2,219.24	78.6149	2,219.24	75.8098	2,219.24	77.8547	2,219.24	74.2452	2,219.24	76.2383	2,219.24	68.954	2,219.24	71.8794	2,219.24	67.8251	2,219.24	69.0838	2,219.24	63.5232	2,219.24	68.4146	2,219.24	66.9428	2,219.24	59.6874	2,219.24	56.9949	2,219.24	65.4171	2,219.24	67.1672	2,219.24	64.606	2,219.24	67.2643	2,219.24	64.3209	2,219.24	70.7529	2,219.24	66.7435	2,219.24	68.902	2,219.24	66.678	2,219.24	67.0813
2,296.88	82.1657	2,296.88	82.0339	2,296.88	81.7731	2,296.88	82.3288	2,296.88	82.4637	2,296.88	81.3084	2,296.88	81.875	2,296.88	78.7145	2,296.88	80.0256	2,296.88	78.4208	2,296.88	78.7937	2,296.88	77.9885	2,296.88	77.4934	2,296.88	74.8547	2,296.88	75.7833	2,296.88	71.6036	2,296.88	72.509	2,296.88	71.5344	2,296.88	73.582	2,296.88	65.2829	2,296.88	71.2622	2,296.88	66.3953	2,296.88	68.1945	2,296.88	67.8816	2,296.88	64.8267	2,296.88	58.9171	2,296.88	60.4894	2,296.88	65.7035	2,296.88	64.309	2,296.88	66.9664	2,296.88	64.9609	2,296.88	69.5939	2,296.88	64.6016	2,296.88	68.2738	2,296.88	65.6115	2,296.88	66.9168
2,378.91	81.4808	2,378.91	80.7688	2,378.91	81.0341	2,378.91	81.1963	2,378.91	80.7695	2,378.91	80.77	2,378.91	81.3641	2,378.91	79.475	2,378.91	80.5901	2,378.91	78.5479	2,378.91	78.687	2,378.91	77.7414	2,378.91	76.3223	2,378.91	77.6238	2,378.91	75.8783	2,378.91	73.6993	2,378.91	74.6441	2,378.91	68.8225	2,378.91	74.1577	2,378.91	69.7133	2,378.91	73.9059	2,378.91	62.2211	2,378.91	66.4683	2,378.91	66.716	2,378.91	65.2476	2,378.91	65.048	2,378.91	62.1109	2,378.91	66.3896	2,378.91	66.8445	2,378.91	67.0979	2,378.91	64.2927	2,378.91	67.8578	2,378.91	65.5785	2,378.91	64.6456	2,378.91	62.7377	2,378.91	62.791
2,462.4	82.7105	2,462.4	82.1359	2,462.4	81.4985	2,462.4	80.7274	2,462.4	79.1803	2,462.4	79.5889	2,462.4	79.8902	2,462.4	79.9493	2,462.4	80.7263	2,462.4	78.3023	2,462.4	78.5187	2,462.4	78.109	2,462.4	75.6693	2,462.4	74.6886	2,462.4	76.1789	2,462.4	71.4616	2,462.4	72.7002	2,462.4	71.128	2,462.4	71.2839	2,462.4	64.0935	2,462.4	72.5936	2,462.4	65.123	2,462.4	70.3847	2,462.4	61.4553	2,462.4	61.0117	2,462.4	65.8905	2,462.4	64.3799	2,462.4	64.0169	2,462.4	66.3874	2,462.4	66.5014	2,462.4	65.2886	2,462.4	66.4382	2,462.4	66.7154	2,462.4	65.3748	2,462.4	64.1434	2,462.4	60.8431
2,548.83	83.2237	2,548.83	82.9089	2,548.83	82.9982	2,548.83	80.7758	2,548.83	81.1015	2,548.83	79.4778	2,548.83	77.7618	2,548.83	79.7387	2,548.83	79.2637	2,548.83	78.4386	2,548.83	78.679	2,548.83	76.1341	2,548.83	76.1298	2,548.83	73.5623	2,548.83	73.5128	2,548.83	73.498	2,548.83	67.9642	2,548.83	66.279	2,548.83	67.9926	2,548.83	67.6883	2,548.83	68.3862	2,548.83	63.5381	2,548.83	67.3529	2,548.83	61.0085	2,548.83	66.1937	2,548.83	65.4099	2,548.83	61.0546	2,548.83	63.1596	2,548.83	68.4115	2,548.83	67.3948	2,548.83	65.322	2,548.83	65.5294	2,548.83	67.8102	2,548.83	66.4204	2,548.83	66.0193	2,548.83	62.5998
2,639.65	82.313	2,639.65	82.2932	2,639.65	82.8247	2,639.65	81.4371	2,639.65	82.1687	2,639.65	80.2034	2,639.65	79.8315	2,639.65	79.5839	2,639.65	78.5219	2,639.65	78.0301	2,639.65	77.3481	2,639.65	75.0066	2,639.65	75.2445	2,639.65	73.2202	2,639.65	73.5371	2,639.65	72.3546	2,639.65	73.7931	2,639.65	71.8666	2,639.65	67.0852	2,639.65	64.7137	2,639.65	53.2417	2,639.65	63.9258	2,639.65	57.1666	2,639.65	63.7168	2,639.65	65.4336	2,639.65	60.8156	2,639.65	61.6051	2,639.65	63.9497	2,639.65	67.063	2,639.65	66.7844	2,639.65	65.2089	2,639.65	66.2466	2,639.65	68.8724	2,639.65	65.2982	2,639.65	64.5645	2,639.65	62.6647
2,731.93	80.6863	2,731.93	80.7694	2,731.93	80.8999	2,731.93	80.9889	2,731.93	81.1573	2,731.93	80.3554	2,731.93	80.682	2,731.93	78.1001	2,731.93	79.4914	2,731.93	77.9173	2,731.93	77.3683	2,731.93	75.042	2,731.93	76.6592	2,731.93	75.1744	2,731.93	73.3753	2,731.93	72.7481	2,731.93	70.9331	2,731.93	67.4992	2,731.93	67.4713	2,731.93	66.2172	2,731.93	54.1045	2,731.93	60.5306	2,731.93	59.8902	2,731.93	60.7451	2,731.93	58.1818	2,731.93	57.7329	2,731.93	61.3739	2,731.93	63.6125	2,731.93	65.1534	2,731.93	63.91	2,731.93	63.9317	2,731.93	64.8711	2,731.93	68.2349	2,731.93	65.3356	2,731.93	62.6613	2,731.93	59.2811
2,828.61	81.5307	2,828.61	81.2932	2,828.61	80.886	2,828.61	80.75	2,828.61	79.7559	2,828.61	79.3415	2,828.61	80.6507	2,828.61	77.3537	2,828.61	79.2218	2,828.61	77.0612	2,828.61	77.2658	2,828.61	76.5099	2,828.61	75.7194	2,828.61	73.4129	2,828.61	72.0509	2,828.61	70.8968	2,828.61	73.3366	2,828.61	67.9189	2,828.61	68.359	2,828.61	64.437	2,828.61	64.5702	2,828.61	62.2781	2,828.61	63.7333	2,828.61	61.0155	2,828.61	63.3323	2,828.61	61.5707	2,828.61	61.8616	2,828.61	62.7287	2,828.61	64.4103	2,828.61	64.2717	2,828.61	63.756	2,828.61	63.2964	2,828.61	65.8846	2,828.61	64.9054	2,828.61	60.1304	2,828.61	61.2219
2,928.22	82.62	2,928.22	82.7504	2,928.22	81.8025	2,928.22	81.3676	2,928.22	80.6596	2,928.22	79.0953	2,928.22	80.366	2,928.22	78.6537	2,928.22	78.7656	2,928.22	77.1263	2,928.22	77.517	2,928.22	76.5369	2,928.22	75.2875	2,928.22	73.067	2,928.22	73.0879	2,928.22	70.2245	2,928.22	71.5542	2,928.22	68.1427	2,928.22	57.7005	2,928.22	66.356	2,928.22	67.5822	2,928.22	67.4999	2,928.22	68.9145	2,928.22	60.6757	2,928.22	60.4627	2,928.22	63.73	2,928.22	62.0472	2,928.22	64.8916	2,928.22	64.3772	2,928.22	65.7429	2,928.22	61.6164	2,928.22	64.1435	2,928.22	66.0349	2,928.22	64.9239	2,928.22	57.753	2,928.22	55.7295
3,030.76	83.2541	3,030.76	83.3175	3,030.76	82.7461	3,030.76	82.1342	3,030.76	81.6799	3,030.76	79.5406	3,030.76	80.153	3,030.76	78.8969	3,030.76	79.088	3,030.76	77.5288	3,030.76	77.6096	3,030.76	75.821	3,030.76	75.1794	3,030.76	73.757	3,030.76	73.1894	3,030.76	73.992	3,030.76	67.2062	3,030.76	69.305	3,030.76	65.4612	3,030.76	65.9265	3,030.76	70.6268	3,030.76	61.9686	3,030.76	69.5806	3,030.76	61.0432	3,030.76	60.0258	3,030.76	63.9138	3,030.76	62.3681	3,030.76	64.2113	3,030.76	65.1431	3,030.76	64.8295	3,030.76	61.0865	3,030.76	64.0273	3,030.76	67.1649	3,030.76	65.098	3,030.76	59.1086	3,030.76	59.0881
3,137.7	83.2036	3,137.7	83.0836	3,137.7	83.0084	3,137.7	82.3112	3,137.7	82.093	3,137.7	79.4518	3,137.7	79.8484	3,137.7	77.8544	3,137.7	79.2837	3,137.7	76.8501	3,137.7	77.5576	3,137.7	75.7366	3,137.7	72.8649	3,137.7	74.7071	3,137.7	71.6067	3,137.7	72.9885	3,137.7	65.8754	3,137.7	65.7573	3,137.7	69.5211	3,137.7	64.1772	3,137.7	69.5971	3,137.7	62.7854	3,137.7	65.9704	3,137.7	60.8732	3,137.7	55.7787	3,137.7	57.8432	3,137.7	62.8862	3,137.7	63.9256	3,137.7	62.6952	3,137.7	65.8569	3,137.7	61.9526	3,137.7	65.0815	3,137.7	65.8124	3,137.7	64.6293	3,137.7	55.9282	3,137.7	56.1575
3,249.02	82.7426	3,249.02	82.9724	3,249.02	82.9108	3,249.02	81.7204	3,249.02	82.5813	3,249.02	80.5648	3,249.02	80.7897	3,249.02	78.71	3,249.02	79.3811	3,249.02	78.0295	3,249.02	76.9129	3,249.02	75.7956	3,249.02	73.6189	3,249.02	74.0876	3,249.02	73.8525	3,249.02	69.143	3,249.02	72.4178	3,249.02	68.4263	3,249.02	71.2422	3,249.02	65.4599	3,249.02	63.3279	3,249.02	62.5836	3,249.02	62.6599	3,249.02	61.9179	3,249.02	58.2809	3,249.02	59.2116	3,249.02	61.8869	3,249.02	64.4334	3,249.02	59.5496	3,249.02	64.2483	3,249.02	64.3715	3,249.02	63.1344	3,249.02	66.8373	3,249.02	63.7639	3,249.02	59.1992	3,249.02	55.3372
3,363.28	82.8855	3,363.28	82.2173	3,363.28	82.7219	3,363.28	80.4783	3,363.28	81.7011	3,363.28	80.2012	3,363.28	81.0449	3,363.28	78.771	3,363.28	79.6252	3,363.28	77.4637	3,363.28	75.6209	3,363.28	75.1827	3,363.28	75.4782	3,363.28	71.1912	3,363.28	75.7204	3,363.28	71.8945	3,363.28	73.772	3,363.28	70.4535	3,363.28	72.1886	3,363.28	64.9049	3,363.28	63.1556	3,363.28	60.8261	3,363.28	48.5368	3,363.28	57.3884	3,363.28	60.9942	3,363.28	61.4177	3,363.28	58.1836	3,363.28	63.8616	3,363.28	58.6344	3,363.28	63.7983	3,363.28	64.9372	3,363.28	64.4504	3,363.28	66.2305	3,363.28	64.1714	3,363.28	60.4113	3,363.28	43.3228
3,481.93	83.6105	3,481.93	82.4187	3,481.93	83.3305	3,481.93	81.8969	3,481.93	82.1688	3,481.93	80.4	3,481.93	80.5932	3,481.93	79.5156	3,481.93	78.9983	3,481.93	76.651	3,481.93	75.4128	3,481.93	74.7028	3,481.93	75.705	3,481.93	72.3581	3,481.93	75.6193	3,481.93	72.1755	3,481.93	74.6945	3,481.93	65.3596	3,481.93	69.8975	3,481.93	61.6064	3,481.93	60.5085	3,481.93	59.9445	3,481.93	61.4535	3,481.93	61.0566	3,481.93	61.7729	3,481.93	60.1718	3,481.93	44.7505	3,481.93	62.1152	3,481.93	61.4162	3,481.93	63.4755	3,481.93	64.0922	3,481.93	63.8218	3,481.93	65.2074	3,481.93	64.8593	3,481.93	59.5668	3,481.93	51.7154
3,604.98	83.6384	3,604.98	83.4331	3,604.98	83.3253	3,604.98	83.2165	3,604.98	82.6495	3,604.98	80.98	3,604.98	81.4929	3,604.98	78.409	3,604.98	78.6208	3,604.98	76.8919	3,604.98	76.0663	3,604.98	73.9357	3,604.98	76.4599	3,604.98	74.1129	3,604.98	75.1895	3,604.98	68.8951	3,604.98	74.1716	3,604.98	67.9517	3,604.98	62.396	3,604.98	65.0609	3,604.98	56.6245	3,604.98	61.2317	3,604.98	63.5557	3,604.98	62.2953	3,604.98	62.6529	3,604.98	57.8345	3,604.98	45.0926	3,604.98	61.6161	3,604.98	61.1313	3,604.98	63.8623	3,604.98	63.5938	3,604.98	63.9854	3,604.98	65.982	3,604.98	64.201	3,604.98	57.4581	3,604.98	50.589
3,732.42	83.978	3,732.42	83.5042	3,732.42	83.6646	3,732.42	83.0067	3,732.42	81.6779	3,732.42	81.5724	3,732.42	81.0608	3,732.42	77.9828	3,732.42	78.8312	3,732.42	75.1926	3,732.42	76.4545	3,732.42	73.8393	3,732.42	76.969	3,732.42	72.1745	3,732.42	74.304	3,732.42	70.9379	3,732.42	70.3214	3,732.42	69.497	3,732.42	60.5436	3,732.42	65.1515	3,732.42	59.843	3,732.42	61.2038	3,732.42	61.0803	3,732.42	60.1047	3,732.42	58.5707	3,732.42	56.9651	3,732.42	56.6281	3,732.42	61.7165	3,732.42	62.1792	3,732.42	64.6902	3,732.42	63.9898	3,732.42	64.2735	3,732.42	63.819	3,732.42	64.0476	3,732.42	59.1504	3,732.42	54.0185
3,864.26	84.2774	3,864.26	84.0881	3,864.26	84.6724	3,864.26	82.8968	3,864.26	82.9744	3,864.26	80.7518	3,864.26	80.1174	3,864.26	78.5588	3,864.26	78.6921	3,864.26	76.3264	3,864.26	76.9702	3,864.26	75.4869	3,864.26	74.7968	3,864.26	73.3756	3,864.26	73.7327	3,864.26	73.5594	3,864.26	69.3121	3,864.26	67.8849	3,864.26	67.4482	3,864.26	64.356	3,864.26	61.9608	3,864.26	61.4115	3,864.26	48.2721	3,864.26	60.2619	3,864.26	51.1216	3,864.26	60.9699	3,864.26	59.9671	3,864.26	61.4962	3,864.26	57.5328	3,864.26	65.7958	3,864.26	63.4511	3,864.26	65.1076	3,864.26	63.8994	3,864.26	62.935	3,864.26	59.6054	3,864.26	48.4062
4,000.49	83.5317	4,000.49	83.4081	4,000.49	83.5104	4,000.49	83.102	4,000.49	83.1737	4,000.49	79.1564	4,000.49	81.2832	4,000.49	78.2988	4,000.49	77.3786	4,000.49	75.8255	4,000.49	78.2208	4,000.49	74.4943	4,000.49	75.3733	4,000.49	74.4869	4,000.49	72.688	4,000.49	70.7721	4,000.49	66.8219	4,000.49	66.7405	4,000.49	66.0762	4,000.49	61.4313	4,000.49	61.959	4,000.49	60.6433	4,000.49	61.0997	4,000.49	61.9025	4,000.49	56.1504	4,000.49	59.2874	4,000.49	56.0434	4,000.49	61.2708	4,000.49	60.0956	4,000.49	64.8368	4,000.49	62.7009	4,000.49	65.0844	4,000.49	62.3156	4,000.49	63.0965	4,000.49	58.9533	4,000.49	47.5967
4,141.11	84.3942	4,141.11	83.6961	4,141.11	83.9932	4,141.11	82.8921	4,141.11	81.6528	4,141.11	81.1411	4,141.11	81.3956	4,141.11	78.8822	4,141.11	77.4364	4,141.11	77.7028	4,141.11	77.7783	4,141.11	75.4855	4,141.11	76.3826	4,141.11	72.8197	4,141.11	69.5555	4,141.11	68.779	4,141.11	65.7765	4,141.11	70.7598	4,141.11	67.1169	4,141.11	65.7301	4,141.11	66.1239	4,141.11	61.594	4,141.11	63.1116	4,141.11	57.6235	4,141.11	59.5401	4,141.11	50.8813	4,141.11	51.9714	4,141.11	61.9126	4,141.11	58.4558	4,141.11	63.687	4,141.11	62.4974	4,141.11	65.1339	4,141.11	61.798	4,141.11	63.1921	4,141.11	61.3141	4,141.11	40.4215
4,287.6	84.9501	4,287.6	84.9027	4,287.6	84.5583	4,287.6	82.4438	4,287.6	82.2155	4,287.6	81.0998	4,287.6	79.9395	4,287.6	79.3362	4,287.6	78.623	4,287.6	77.2668	4,287.6	78.9298	4,287.6	73.0669	4,287.6	75.3604	4,287.6	72.2143	4,287.6	69.4783	4,287.6	72.4386	4,287.6	70.8475	4,287.6	65.9797	4,287.6	71.2444	4,287.6	61.3463	4,287.6	58.8676	4,287.6	62.9003	4,287.6	60.6404	4,287.6	59.1486	4,287.6	56.0876	4,287.6	56.5567	4,287.6	54.5149	4,287.6	59.618	4,287.6	57.648	4,287.6	64.0578	4,287.6	62.4088	4,287.6	66.2499	4,287.6	63.363	4,287.6	63.4028	4,287.6	60.0506	4,287.6	52.9992
4,438.48	84.9156	4,438.48	85.021	4,438.48	84.4618	4,438.48	83.3345	4,438.48	83.0832	4,438.48	79.7044	4,438.48	79.7332	4,438.48	79.4337	4,438.48	79.0874	4,438.48	76.0001	4,438.48	78.9697	4,438.48	73.9415	4,438.48	70.285	4,438.48	74.2254	4,438.48	72.5902	4,438.48	69.3367	4,438.48	73.9949	4,438.48	68.9334	4,438.48	70.859	4,438.48	63.708	4,438.48	57.5526	4,438.48	54.6863	4,438.48	61.356	4,438.48	58.6142	4,438.48	49.9246	4,438.48	59.3023	4,438.48	60.8913	4,438.48	59.4969	4,438.48	57.4731	4,438.48	64.6008	4,438.48	61.4853	4,438.48	64.8128	4,438.48	62.7569	4,438.48	63.2837	4,438.48	56.5806	4,438.48	58.0014
4,595.21	84.4094	4,595.21	83.8564	4,595.21	84.7384	4,595.21	80.8936	4,595.21	83.3803	4,595.21	81.7464	4,595.21	80.5802	4,595.21	79.3554	4,595.21	80.9666	4,595.21	76.4825	4,595.21	77.0346	4,595.21	72.6138	4,595.21	69.5724	4,595.21	70.5205	4,595.21	74.2414	4,595.21	71.3131	4,595.21	74.7618	4,595.21	69.0029	4,595.21	68.0243	4,595.21	63.8864	4,595.21	66.3263	4,595.21	63.5258	4,595.21	61.2487	4,595.21	61.1749	4,595.21	55.7494	4,595.21	58.4781	4,595.21	60.3784	4,595.21	61.0057	4,595.21	50.2778	4,595.21	62.6929	4,595.21	61.8142	4,595.21	63.4768	4,595.21	63.4231	4,595.21	61.2521	4,595.21	58.1759	4,595.21	56.2997
4,756.35	84.6888	4,756.35	83.6149	4,756.35	83.7294	4,756.35	82.8336	4,756.35	83.9395	4,756.35	81.6977	4,756.35	81.2812	4,756.35	78.6879	4,756.35	81.5854	4,756.35	76.4808	4,756.35	74.7605	4,756.35	75.3354	4,756.35	75.6357	4,756.35	74.6692	4,756.35	75.8275	4,756.35	70.9692	4,756.35	72.5978	4,756.35	67.8341	4,756.35	68.8693	4,756.35	65.4207	4,756.35	64.8051	4,756.35	57.7598	4,756.35	58.1675	4,756.35	55.7617	4,756.35	57.2598	4,756.35	57.4753	4,756.35	57.4448	4,756.35	59.3033	4,756.35	56.9656	4,756.35	62.8326	4,756.35	61.3534	4,756.35	64.3986	4,756.35	59.9991	4,756.35	63.5589	4,756.35	59.4051	4,756.35	51.8572
4,924.8	85.506	4,924.8	83.7742	4,924.8	84.332	4,924.8	83.2548	4,924.8	82.8952	4,924.8	79.9906	4,924.8	81.2979	4,924.8	78.4438	4,924.8	81.3893	4,924.8	77.0008	4,924.8	75.6909	4,924.8	74.5644	4,924.8	77.925	4,924.8	72.2913	4,924.8	75.0757	4,924.8	69.6148	4,924.8	71.8356	4,924.8	67.6693	4,924.8	66.692	4,924.8	60.5421	4,924.8	62.6888	4,924.8	60.7147	4,924.8	47.7273	4,924.8	58.5029	4,924.8	62.0347	4,924.8	58.3442	4,924.8	52.7684	4,924.8	58.7364	4,924.8	61.7732	4,924.8	62.3508	4,924.8	62.6261	4,924.8	64.6172	4,924.8	60.0252	4,924.8	62.8571	4,924.8	61.0582	4,924.8	52.8319
5,097.66	84.5144	5,097.66	84.3451	5,097.66	84.4189	5,097.66	83.0344	5,097.66	83.2158	5,097.66	80.514	5,097.66	81.2632	5,097.66	79.9059	5,097.66	79.7095	5,097.66	77.6321	5,097.66	75.9202	5,097.66	74.0578	5,097.66	77.9827	5,097.66	72.5592	5,097.66	73.2185	5,097.66	71.0001	5,097.66	70.7236	5,097.66	67.596	5,097.66	65.7309	5,097.66	62.4988	5,097.66	58.0144	5,097.66	58.4942	5,097.66	54.1667	5,097.66	56.986	5,097.66	63.2991	5,097.66	57.5822	5,097.66	47.5655	5,097.66	58.4215	5,097.66	59.0587	5,097.66	60.6083	5,097.66	60.5558	5,097.66	62.5321	5,097.66	62.2608	5,097.66	55.9617	5,097.66	58.6451	5,097.66	56.9815
5,277.83	83.6515	5,277.83	83.1877	5,277.83	83.1224	5,277.83	82.4488	5,277.83	83.2085	5,277.83	80.762	5,277.83	82.1217	5,277.83	79.0327	5,277.83	79.3592	5,277.83	77.1164	5,277.83	77.9257	5,277.83	74.3156	5,277.83	77.8743	5,277.83	72.4797	5,277.83	70.8792	5,277.83	66.3034	5,277.83	69.0579	5,277.83	67.0109	5,277.83	65.3076	5,277.83	60.4059	5,277.83	62.8264	5,277.83	58.7828	5,277.83	51.3737	5,277.83	57.6513	5,277.83	57.8965	5,277.83	51.3088	5,277.83	52.1171	5,277.83	57.7979	5,277.83	59.1774	5,277.83	61.7404	5,277.83	58.6575	5,277.83	62.9737	5,277.83	64.3974	5,277.83	59.7604	5,277.83	59.1836	5,277.83	53.9376
5,463.87	84.031	5,463.87	83.9146	5,463.87	83.9743	5,463.87	82.3416	5,463.87	82.0691	5,463.87	80.4443	5,463.87	82.1981	5,463.87	79.6743	5,463.87	78.0542	5,463.87	77.4193	5,463.87	78.8424	5,463.87	73.673	5,463.87	75.051	5,463.87	71.2037	5,463.87	69.6649	5,463.87	70.6722	5,463.87	68.9215	5,463.87	66.961	5,463.87	70.2723	5,463.87	61.7823	5,463.87	65.2853	5,463.87	58.4875	5,463.87	57.3682	5,463.87	58.9836	5,463.87	50.0128	5,463.87	58.2622	5,463.87	48.7888	5,463.87	55.165	5,463.87	52.8077	5,463.87	62.1138	5,463.87	60.5497	5,463.87	62.4007	5,463.87	63.309	5,463.87	61.1281	5,463.87	58.3091	5,463.87	57.8102
5,657.23	83.8174	5,657.23	83.9953	5,657.23	84.2821	5,657.23	82.6871	5,657.23	81.0272	5,657.23	81.0687	5,657.23	81.1901	5,657.23	80.256	5,657.23	79.6724	5,657.23	76.7064	5,657.23	78.6532	5,657.23	74.0605	5,657.23	73.1513	5,657.23	71.9765	5,657.23	70.2318	5,657.23	65.9673	5,657.23	67.7012	5,657.23	66.0237	5,657.23	70.0623	5,657.23	61.2101	5,657.23	62.3713	5,657.23	61.4684	5,657.23	53.1514	5,657.23	57.6836	5,657.23	46.0098	5,657.23	53.1198	5,657.23	50.7929	5,657.23	54.0789	5,657.23	51.4629	5,657.23	59.0823	5,657.23	59.87	5,657.23	61.128	5,657.23	60.2009	5,657.23	61.5511	5,657.23	55.1449	5,657.23	56.5788
5,856.45	83.7342	5,856.45	83.8056	5,856.45	84.1075	5,856.45	81.6844	5,856.45	81.516	5,856.45	80.896	5,856.45	81.5604	5,856.45	79.0429	5,856.45	80.6544	5,856.45	77.1603	5,856.45	78.4931	5,856.45	74.3243	5,856.45	73.6986	5,856.45	72.0922	5,856.45	69.5109	5,856.45	70.7529	5,856.45	67.5656	5,856.45	66.1153	5,856.45	66.2945	5,856.45	63.6193	5,856.45	59.592	5,856.45	58.0988	5,856.45	52.6367	5,856.45	52.2013	5,856.45	51.7421	5,856.45	56.7466	5,856.45	42.6207	5,856.45	52.8599	5,856.45	58.8599	5,856.45	60.3741	5,856.45	48.025	5,856.45	60.7861	5,856.45	61.7574	5,856.45	58.6303	5,856.45	57.0972	5,856.45	55.1168
6,062.99	83.7234	6,062.99	83.2715	6,062.99	82.4968	6,062.99	83.0742	6,062.99	83.0672	6,062.99	80.9307	6,062.99	82.0028	6,062.99	79.3852	6,062.99	80.6627	6,062.99	77.0457	6,062.99	77.552	6,062.99	74.7233	6,062.99	75.13	6,062.99	71.8208	6,062.99	70.3358	6,062.99	66.9165	6,062.99	71.686	6,062.99	64.7483	6,062.99	65.7556	6,062.99	61.9363	6,062.99	59.4665	6,062.99	56.026	6,062.99	50.2378	6,062.99	57.8867	6,062.99	41.0514	6,062.99	55.8186	6,062.99	54.2901	6,062.99	51.5136	6,062.99	50.9911	6,062.99	57.2801	6,062.99	58.7325	6,062.99	62.9634	6,062.99	63.5436	6,062.99	57.1521	6,062.99	53.8036	6,062.99	56.7798
6,276.86	83.7449	6,276.86	83.3627	6,276.86	83.5654	6,276.86	83.0142	6,276.86	84.3671	6,276.86	80.7731	6,276.86	80.8896	6,276.86	79.9201	6,276.86	80.7326	6,276.86	76.8468	6,276.86	75.5938	6,276.86	74.3694	6,276.86	74.2283	6,276.86	71.4307	6,276.86	72.6396	6,276.86	68.5574	6,276.86	71.9187	6,276.86	66.2925	6,276.86	69.1634	6,276.86	60.7319	6,276.86	62.2613	6,276.86	54.7307	6,276.86	59.1162	6,276.86	56.4169	6,276.86	54.5324	6,276.86	55.6079	6,276.86	50.5995	6,276.86	53.2543	6,276.86	63.0322	6,276.86	60.9414	6,276.86	58.6225	6,276.86	62.0097	6,276.86	63.5888	6,276.86	59.9595	6,276.86	56.3849	6,276.86	55.8307
6,498.05	83.7954	6,498.05	83.0015	6,498.05	83.1273	6,498.05	82.9745	6,498.05	84.2374	6,498.05	80.8728	6,498.05	80.4561	6,498.05	79.4717	6,498.05	79.6152	6,498.05	77.1951	6,498.05	76.7994	6,498.05	73.5578	6,498.05	73.5626	6,498.05	71.6239	6,498.05	74.233	6,498.05	67.5854	6,498.05	69.7182	6,498.05	66.3219	6,498.05	64.5942	6,498.05	61.8689	6,498.05	66.1546	6,498.05	54.411	6,498.05	56.2798	6,498.05	57.3362	6,498.05	51.0715	6,498.05	55.6819	6,498.05	44.341	6,498.05	53.171	6,498.05	59.0226	6,498.05	60.8422	6,498.05	61.2849	6,498.05	61.4922	6,498.05	60.164	6,498.05	57.5304	6,498.05	54.0238	6,498.05	55.6122
6,726.56	83.5216	6,726.56	83.5499	6,726.56	82.9051	6,726.56	82.9045	6,726.56	82.0317	6,726.56	81.4469	6,726.56	80.6829	6,726.56	79.4399	6,726.56	79.1801	6,726.56	77.2726	6,726.56	77.1429	6,726.56	73.8356	6,726.56	74.8966	6,726.56	71.5166	6,726.56	73.3098	6,726.56	69.0367	6,726.56	64.1978	6,726.56	63.6709	6,726.56	65.5767	6,726.56	62.0155	6,726.56	62.9139	6,726.56	57.2676	6,726.56	47.7672	6,726.56	55.8117	6,726.56	51.5004	6,726.56	53.5323	6,726.56	48.6708	6,726.56	48.758	6,726.56	56.1302	6,726.56	59.5218	6,726.56	60.571	6,726.56	60.502	6,726.56	52.5281	6,726.56	55.3241	6,726.56	54.0405	6,726.56	56.2855
6,963.87	82.7645	6,963.87	83.15	6,963.87	82.1423	6,963.87	82.7295	6,963.87	80.2791	6,963.87	81.468	6,963.87	80.8576	6,963.87	79.4909	6,963.87	79.5157	6,963.87	77.0429	6,963.87	76.8533	6,963.87	74.1578	6,963.87	75.8568	6,963.87	72.1252	6,963.87	69.1091	6,963.87	67.2758	6,963.87	64.5186	6,963.87	66.4224	6,963.87	67.058	6,963.87	60.8826	6,963.87	52.6551	6,963.87	50.9723	6,963.87	56.5127	6,963.87	56.0742	6,963.87	54.149	6,963.87	55.2992	6,963.87	48.8	6,963.87	53.4752	6,963.87	56.5891	6,963.87	57.2662	6,963.87	60.0506	6,963.87	60.7525	6,963.87	56.6686	6,963.87	56.3328	6,963.87	52.5366	6,963.87	56.8139
7,209.96	83.5944	7,209.96	83.4799	7,209.96	83.3885	7,209.96	82.6216	7,209.96	82.6484	7,209.96	81.7632	7,209.96	80.523	7,209.96	79.1388	7,209.96	80.1752	7,209.96	77.1269	7,209.96	76.7173	7,209.96	74.6195	7,209.96	76.1781	7,209.96	71.669	7,209.96	65.2735	7,209.96	67.6974	7,209.96	66.8174	7,209.96	63.6413	7,209.96	62.043	7,209.96	61.426	7,209.96	63.9509	7,209.96	49.1046	7,209.96	57.2831	7,209.96	54.933	7,209.96	54.5313	7,209.96	55.6339	7,209.96	57.6438	7,209.96	52.1298	7,209.96	56.6187	7,209.96	52.6741	7,209.96	56.4219	7,209.96	60.3771	7,209.96	57.8935	7,209.96	54.5959	7,209.96	43.3035	7,209.96	55.049
7,464.84	82.8691	7,464.84	83.0137	7,464.84	84.4555	7,464.84	82.5443	7,464.84	83.7659	7,464.84	81.4272	7,464.84	80.716	7,464.84	79.501	7,464.84	80.46	7,464.84	76.855	7,464.84	77.2808	7,464.84	73.8251	7,464.84	74.7377	7,464.84	71.0571	7,464.84	72.1938	7,464.84	68.6183	7,464.84	71.6472	7,464.84	65.4538	7,464.84	67.236	7,464.84	57.847	7,464.84	65.4229	7,464.84	56.8009	7,464.84	57.8022	7,464.84	55.0591	7,464.84	50.3045	7,464.84	56.9193	7,464.84	53.8545	7,464.84	52.6574	7,464.84	54.6191	7,464.84	55.673	7,464.84	51.2856	7,464.84	58.5524	7,464.84	59.213	7,464.84	54.4871	7,464.84	52.0087	7,464.84	50.7372
7,727.05	82.1095	7,727.05	82.4571	7,727.05	82.9016	7,727.05	82.3736	7,727.05	83.7537	7,727.05	80.7967	7,727.05	81.2283	7,727.05	80.0776	7,727.05	80.3177	7,727.05	76.0686	7,727.05	77.8281	7,727.05	74.0008	7,727.05	70.702	7,727.05	71.5226	7,727.05	74.4859	7,727.05	69.1218	7,727.05	70.0123	7,727.05	67.0901	7,727.05	67.6095	7,727.05	60.1054	7,727.05	63.2551	7,727.05	57.0979	7,727.05	48.9269	7,727.05	56.0837	7,727.05	44.9537	7,727.05	57.5031	7,727.05	53.2443	7,727.05	52.2474	7,727.05	56.9523	7,727.05	55.7665	7,727.05	44.5864	7,727.05	60.8576	7,727.05	60.1706	7,727.05	59.4807	7,727.05	57.3339	7,727.05	47.2352
7,999.51	82.9876	7,999.51	82.9182	7,999.51	81.6972	7,999.51	82.3524	7,999.51	81.1832	7,999.51	81.0586	7,999.51	82.4731	7,999.51	79.875	7,999.51	78.6892	7,999.51	75.3226	7,999.51	78.2962	7,999.51	74.5776	7,999.51	71.3459	7,999.51	70.7983	7,999.51	74.3915	7,999.51	67.9855	7,999.51	64.2424	7,999.51	61.6167	7,999.51	65.7144	7,999.51	60.7291	7,999.51	60.8446	7,999.51	55.0724	7,999.51	49.9037	7,999.51	55.1663	7,999.51	52.885	7,999.51	56.7314	7,999.51	41.6173	7,999.51	50.1707	7,999.51	59.0538	7,999.51	58.9627	7,999.51	51.6876	7,999.51	59.8357	7,999.51	57.1476	7,999.51	57.545	7,999.51	55.2093	7,999.51	48.2277
8,282.23	83.0237	8,282.23	82.5116	8,282.23	82.9553	8,282.23	82.2548	8,282.23	81.333	8,282.23	80.5995	8,282.23	81.8744	8,282.23	78.4903	8,282.23	78.0918	8,282.23	76.0544	8,282.23	74.7162	8,282.23	72.8278	8,282.23	74.2986	8,282.23	70.4466	8,282.23	68.6796	8,282.23	67.5713	8,282.23	66.204	8,282.23	63.5692	8,282.23	60.5923	8,282.23	63.3494	8,282.23	62.928	8,282.23	56.0497	8,282.23	52.0289	8,282.23	53.2988	8,282.23	52.9325	8,282.23	52.2739	8,282.23	44.8401	8,282.23	51.1666	8,282.23	51.0723	8,282.23	56.3933	8,282.23	45.6103	8,282.23	59.7119	8,282.23	52.0576	8,282.23	58.8385	8,282.23	57.2781	8,282.23	50.1028
8,573.73	83.7299	8,573.73	83.8312	8,573.73	84.1007	8,573.73	82.4604	8,573.73	82.2361	8,573.73	80.814	8,573.73	80.6334	8,573.73	78.928	8,573.73	78.7029	8,573.73	75.4807	8,573.73	72.1638	8,573.73	72.0285	8,573.73	74.185	8,573.73	69.5025	8,573.73	61.8309	8,573.73	65.9092	8,573.73	68.1826	8,573.73	62.1712	8,573.73	64.7686	8,573.73	59.0446	8,573.73	64.3451	8,573.73	44.6685	8,573.73	48.6753	8,573.73	49.5	8,573.73	52.4854	8,573.73	38.0234	8,573.73	36.3609	8,573.73	45.0806	8,573.73	50.9162	8,573.73	54.6615	8,573.73	43.1899	8,573.73	58.0588	8,573.73	54.5339	8,573.73	55.4617	8,573.73	55.4447	8,573.73	38.5292
8,876.95	83.2385	8,876.95	83.5623	8,876.95	83.2703	8,876.95	82.7284	8,876.95	83.3911	8,876.95	80.664	8,876.95	79.9285	8,876.95	79.2883	8,876.95	78.5662	8,876.95	74.5868	8,876.95	74.7935	8,876.95	72.1861	8,876.95	72.8575	8,876.95	69.691	8,876.95	71.2528	8,876.95	64.9255	8,876.95	68.7649	8,876.95	61.9714	8,876.95	64.9172	8,876.95	55.9789	8,876.95	61.8225	8,876.95	39.4972	8,876.95	51.7631	8,876.95	48.6498	8,876.95	47.5824	8,876.95	45.4931	8,876.95	47.3685	8,876.95	45.6331	8,876.95	52.1321	8,876.95	53.8952	8,876.95	46.4241	8,876.95	55.8223	8,876.95	49.2235	8,876.95	53.1365	8,876.95	52.2531	8,876.95	31.8341
9,188.96	83.2906	9,188.96	83.43	9,188.96	82.9199	9,188.96	83.216	9,188.96	83.1819	9,188.96	80.8716	9,188.96	80.1055	9,188.96	79.099	9,188.96	78.8627	9,188.96	74.8452	9,188.96	77.2472	9,188.96	72.6113	9,188.96	70.0256	9,188.96	69.1312	9,188.96	73.0128	9,188.96	66.7891	9,188.96	64.5826	9,188.96	62.9102	9,188.96	64.2116	9,188.96	56.7962	9,188.96	56.3153	9,188.96	52.0489	9,188.96	46.7872	9,188.96	49.3727	9,188.96	48.0769	9,188.96	53.2481	9,188.96	49.139	9,188.96	50.009	9,188.96	50.4988	9,188.96	50.4664	9,188.96	45.879	9,188.96	51.6904	9,188.96	51.5858	9,188.96	56.9364	9,188.96	50.158	9,188.96	45.0298
9,514.16	82.9719	9,514.16	83.186	9,514.16	83.0791	9,514.16	83.2311	9,514.16	82.6661	9,514.16	81.0834	9,514.16	80.1074	9,514.16	79.0694	9,514.16	79.9348	9,514.16	75.7179	9,514.16	76.3905	9,514.16	72.1877	9,514.16	71.0316	9,514.16	68.5389	9,514.16	70.5779	9,514.16	65.4135	9,514.16	63.9495	9,514.16	61.1851	9,514.16	61.0226	9,514.16	58.9205	9,514.16	60.9239	9,514.16	43.9363	9,514.16	54.8448	9,514.16	46.9534	9,514.16	49.1942	9,514.16	52.7491	9,514.16	47.3468	9,514.16	48.2746	9,514.16	39.8238	9,514.16	41.9477	9,514.16	48.6949	9,514.16	47.0719	9,514.16	52.7587	9,514.16	53.4333	9,514.16	51.243	9,514.16	47.4556
9,849.61	82.5356	9,849.61	83.1872	9,849.61	83.0241	9,849.61	83.2006	9,849.61	82.7822	9,849.61	81.3394	9,849.61	81.5311	9,849.61	79.2741	9,849.61	79.0838	9,849.61	75.7224	9,849.61	74.567	9,849.61	71.6181	9,849.61	71.4386	9,849.61	67.5691	9,849.61	65.5043	9,849.61	64.1465	9,849.61	60.8474	9,849.61	58.4901	9,849.61	56.2233	9,849.61	58.7752	9,849.61	60.2324	9,849.61	39.5682	9,849.61	51.0188	9,849.61	46.982	9,849.61	34.1783	9,849.61	46.6666	9,849.61	40.5738	9,849.61	46.8151	9,849.61	42.1623	9,849.61	41.8299	9,849.61	48.3438	9,849.61	49.9383	9,849.61	48.4542	9,849.61	55.4629	9,849.61	49.1124	9,849.61	53.2561
10,196.8	82.0641	10,196.8	82.4457	10,196.8	82.4634	10,196.8	82.5503	10,196.8	83.2701	10,196.8	80.5938	10,196.8	81.201	10,196.8	79.2419	10,196.8	78.6731	10,196.8	75.3875	10,196.8	75.5149	10,196.8	71.2686	10,196.8	72.303	10,196.8	66.3421	10,196.8	64.5278	10,196.8	64.1151	10,196.8	65.2509	10,196.8	57.8134	10,196.8	55.8017	10,196.8	57.8771	10,196.8	57.7337	10,196.8	43.5469	10,196.8	53.9409	10,196.8	47.5638	10,196.8	43.5447	10,196.8	44.3578	10,196.8	50.528	10,196.8	44.8405	10,196.8	47.5435	10,196.8	44.6897	10,196.8	48.1518	10,196.8	44.275	10,196.8	49.2114	10,196.8	54.0979	10,196.8	51.6504	10,196.8	52.5524
10,555.7	81.6077	10,555.7	81.8625	10,555.7	82.4831	10,555.7	82.2707	10,555.7	82.4394	10,555.7	80.8526	10,555.7	81.0415	10,555.7	79.4383	10,555.7	79.0903	10,555.7	75.7613	10,555.7	76.6115	10,555.7	71.2847	10,555.7	70.7094	10,555.7	67.0233	10,555.7	67.4489	10,555.7	64.7338	10,555.7	66.0885	10,555.7	59.6268	10,555.7	58.7404	10,555.7	58.4938	10,555.7	58.1944	10,555.7	46.0473	10,555.7	52.2567	10,555.7	48.5418	10,555.7	42.2661	10,555.7	52.2199	10,555.7	50.2789	10,555.7	48.0753	10,555.7	54.1209	10,555.7	49.3209	10,555.7	44.747	10,555.7	43.667	10,555.7	43.7124	10,555.7	55.4785	10,555.7	50.872	10,555.7	51.1116
10,927.7	82.2301	10,927.7	82.258	10,927.7	82.0981	10,927.7	82.237	10,927.7	82.0954	10,927.7	80.7544	10,927.7	80.7267	10,927.7	79.2435	10,927.7	79.6067	10,927.7	75.2523	10,927.7	75.5437	10,927.7	70.9248	10,927.7	69.6414	10,927.7	66.2249	10,927.7	68.1713	10,927.7	64.0705	10,927.7	64.3099	10,927.7	59.8076	10,927.7	52.4485	10,927.7	54.8161	10,927.7	55.8119	10,927.7	50.5012	10,927.7	47.4802	10,927.7	40.4807	10,927.7	46.6896	10,927.7	46.8934	10,927.7	50.5225	10,927.7	41.9378	10,927.7	50.205	10,927.7	42.7011	10,927.7	37.6688	10,927.7	42.2635	10,927.7	42.9095	10,927.7	49.5628	10,927.7	46.8721	10,927.7	49.6436
11,313	83.014	11,313	82.587	11,313	82.8705	11,313	82.3812	11,313	82.3992	11,313	80.6111	11,313	80.4952	11,313	79.079	11,313	80.067	11,313	74.9195	11,313	75.0633	11,313	70.7963	11,313	71.3417	11,313	65.3849	11,313	68.9452	11,313	64.3469	11,313	59.3334	11,313	58.3772	11,313	55.2963	11,313	55.7083	11,313	53.3679	11,313	49.3772	11,313	53.0132	11,313	49.4168	11,313	46.2054	11,313	49.2049	11,313	42.0301	11,313	48.8373	11,313	46.8712	11,313	39.095	11,313	45.9659	11,313	43.581	11,313	38.6134	11,313	52.4192	11,313	45.1829	11,313	51.0445
11,712.9	83.4566	11,712.9	83.1578	11,712.9	83.5113	11,712.9	82.473	11,712.9	82.7175	11,712.9	80.877	11,712.9	79.9253	11,712.9	79.2644	11,712.9	78.8317	11,712.9	74.4353	11,712.9	74.654	11,712.9	70.31	11,712.9	72.1176	11,712.9	65.9154	11,712.9	66.8865	11,712.9	63.5214	11,712.9	65.4906	11,712.9	57.7293	11,712.9	57.5033	11,712.9	53.9945	11,712.9	57.9222	11,712.9	53.7236	11,712.9	54.4823	11,712.9	48.2846	11,712.9	41.3785	11,712.9	46.9003	11,712.9	43.7149	11,712.9	45.506	11,712.9	41.9212	11,712.9	35.7707	11,712.9	45.1196	11,712.9	48.5454	11,712.9	50.9825	11,712.9	47.7414	11,712.9	48.0483	11,712.9	50.3469
12,126	83.6574	12,126	83.1369	12,126	83.3114	12,126	82.7219	12,126	82.4208	12,126	81.0186	12,126	79.9277	12,126	78.7659	12,126	78.5733	12,126	74.1954	12,126	74.6283	12,126	69.7317	12,126	69.6562	12,126	65.1331	12,126	65.2155	12,126	62.4138	12,126	64.6073	12,126	58.2023	12,126	53.0749	12,126	52.2015	12,126	57.2553	12,126	50.1438	12,126	50.6469	12,126	48.2861	12,126	50.6161	12,126	49.6053	12,126	33.0983	12,126	47.2996	12,126	42.2376	12,126	36.892	12,126	40.0808	12,126	45.4187	12,126	40.8203	12,126	53.4537	12,126	47.2733	12,126	50.0431
12,553.7	83.4351	12,553.7	83.4439	12,553.7	83.5614	12,553.7	82.4873	12,553.7	82.8255	12,553.7	81.0392	12,553.7	81.3597	12,553.7	78.4789	12,553.7	78.3361	12,553.7	74.0084	12,553.7	73.8876	12,553.7	70.2717	12,553.7	70.5887	12,553.7	65.2632	12,553.7	67.0927	12,553.7	62.8633	12,553.7	60.5042	12,553.7	59.0609	12,553.7	54.5558	12,553.7	53.6767	12,553.7	56.7577	12,553.7	50.4638	12,553.7	47.0732	12,553.7	46.0889	12,553.7	52.1904	12,553.7	46.5771	12,553.7	51.8928	12,553.7	39.1342	12,553.7	43.4946	12,553.7	40.6422	12,553.7	42.2678	12,553.7	45.2338	12,553.7	43.336	12,553.7	49.6478	12,553.7	44.2851	12,553.7	47.5184
12,996.1	83.1846	12,996.1	82.9465	12,996.1	82.862	12,996.1	82.3662	12,996.1	82.17	12,996.1	80.875	12,996.1	81.437	12,996.1	78.4049	12,996.1	78.1664	12,996.1	74.0258	12,996.1	74.8312	12,996.1	70.3098	12,996.1	69.3313	12,996.1	65.4803	12,996.1	65.5162	12,996.1	62.9897	12,996.1	63.5507	12,996.1	59.1982	12,996.1	56.9075	12,996.1	54.2365	12,996.1	58.644	12,996.1	55.3089	12,996.1	54.7773	12,996.1	44.2487	12,996.1	51.4794	12,996.1	43.4153	12,996.1	45.8082	12,996.1	33.9381	12,996.1	39.6886	12,996.1	39.0477	12,996.1	47.9048	12,996.1	43.4422	12,996.1	44.3989	12,996.1	48.1872	12,996.1	49.17	12,996.1	47.7122
13,454.6	82.7976	13,454.6	82.7597	13,454.6	82.5186	13,454.6	82.1862	13,454.6	81.9771	13,454.6	80.7783	13,454.6	80.4298	13,454.6	78.2735	13,454.6	78.3297	13,454.6	74.1947	13,454.6	75.0187	13,454.6	70.6699	13,454.6	70.2319	13,454.6	65.6439	13,454.6	67.8159	13,454.6	63.4987	13,454.6	62.4808	13,454.6	58.3575	13,454.6	57.9074	13,454.6	53.1625	13,454.6	59.5473	13,454.6	50.8521	13,454.6	54.0405	13,454.6	50.2261	13,454.6	52.8561	13,454.6	49.2695	13,454.6	44.0568	13,454.6	43.1786	13,454.6	45.9279	13,454.6	34.0016	13,454.6	43.2677	13,454.6	36.3818	13,454.6	43.016	13,454.6	38.0937	13,454.6	45.7605	13,454.6	47.5054
13,929.2	82.9224	13,929.2	82.9533	13,929.2	82.5627	13,929.2	82.1276	13,929.2	81.3484	13,929.2	80.5323	13,929.2	79.6753	13,929.2	78.0864	13,929.2	78.1945	13,929.2	74.2655	13,929.2	74.3494	13,929.2	70.6793	13,929.2	71.0422	13,929.2	65.5627	13,929.2	66.9646	13,929.2	63.7513	13,929.2	63.8812	13,929.2	58.2798	13,929.2	61.1632	13,929.2	51.2709	13,929.2	59.8279	13,929.2	50.6874	13,929.2	53.4163	13,929.2	49.4467	13,929.2	52.2791	13,929.2	48.3927	13,929.2	50.4647	13,929.2	36.81	13,929.2	51.9071	13,929.2	41.1708	13,929.2	39.7637	13,929.2	41.8689	13,929.2	41.318	13,929.2	39.4523	13,929.2	48.0259	13,929.2	46.826
14,419.9	83.2241	14,419.9	82.9337	14,419.9	82.2778	14,419.9	82.2234	14,419.9	81.9021	14,419.9	80.347	14,419.9	79.6798	14,419.9	77.8582	14,419.9	78.054	14,419.9	73.9044	14,419.9	74.8594	14,419.9	71.1002	14,419.9	69.8282	14,419.9	65.0354	14,419.9	67.3112	14,419.9	63.6246	14,419.9	57.88	14,419.9	58.2588	14,419.9	59.7584	14,419.9	52.7453	14,419.9	60.5566	14,419.9	52.9229	14,419.9	51.3192	14,419.9	47.8732	14,419.9	55.6574	14,419.9	43.4672	14,419.9	41.2922	14,419.9	42.3145	14,419.9	26.6866	14,419.9	39.1603	14,419.9	42.6966	14,419.9	42.5255	14,419.9	41.4103	14,419.9	42.2651	14,419.9	40.2142	14,419.9	43.5644
14,928.2	83.8429	14,928.2	83.2476	14,928.2	83.0254	14,928.2	82.1576	14,928.2	81.9053	14,928.2	80.0106	14,928.2	79.5943	14,928.2	77.7266	14,928.2	77.9864	14,928.2	73.9612	14,928.2	75.0379	14,928.2	70.147	14,928.2	70.032	14,928.2	65.2453	14,928.2	65.2911	14,928.2	62.2253	14,928.2	64.3924	14,928.2	56.8871	14,928.2	62.8036	14,928.2	53.1965	14,928.2	60.5881	14,928.2	47.8839	14,928.2	52.4318	14,928.2	50.5156	14,928.2	56.0688	14,928.2	39.4633	14,928.2	46.3174	14,928.2	42.832	14,928.2	40.7534	14,928.2	40.887	14,928.2	36.0663	14,928.2	35.9278	14,928.2	46.4071	14,928.2	48.8629	14,928.2	38.1162	14,928.2	48.0632
15,455.6	84.3681	15,455.6	83.228	15,455.6	82.9401	15,455.6	82.1777	15,455.6	81.511	15,455.6	79.6614	15,455.6	79.7053	15,455.6	77.559	15,455.6	77.7372	15,455.6	73.6768	15,455.6	74.1558	15,455.6	69.9855	15,455.6	70.1094	15,455.6	63.7947	15,455.6	65.1133	15,455.6	61.5622	15,455.6	62.3048	15,455.6	57.5106	15,455.6	58.6846	15,455.6	51.7141	15,455.6	63.9708	15,455.6	38.3888	15,455.6	53.8622	15,455.6	49.7075	15,455.6	55.9967	15,455.6	31.6864	15,455.6	46.9665	15,455.6	44.1422	15,455.6	43.1061	15,455.6	43.4402	15,455.6	34.8142	15,455.6	45.6737	15,455.6	46.4165	15,455.6	48.9019	15,455.6	42.0398	15,455.6	48.6351
16,000.5	84.2244	16,000.5	82.8747	16,000.5	82.865	16,000.5	81.9355	16,000.5	82.8002	16,000.5	79.5216	16,000.5	79.7505	16,000.5	77.4278	16,000.5	78.2035	16,000.5	73.2401	16,000.5	73.5964	16,000.5	69.5734	16,000.5	68.5982	16,000.5	63.1644	16,000.5	65.5794	16,000.5	61.1282	16,000.5	60.8489	16,000.5	56.4761	16,000.5	61.6792	16,000.5	49.4073	16,000.5	64.9037	16,000.5	40.4571	16,000.5	56.727	16,000.5	48.5551	16,000.5	57.9212	16,000.5	37.5012	16,000.5	42.3532	16,000.5	34.2338	16,000.5	36.8193	16,000.5	40.2837	16,000.5	34.921	16,000.5	43.5883	16,000.5	45.3439	16,000.5	43.8072	16,000.5	42.6614	16,000.5	46.0539
16,564.5	83.7215	16,564.5	82.4958	16,564.5	82.0586	16,564.5	81.5833	16,564.5	81.1239	16,564.5	79.4742	16,564.5	78.31	16,564.5	77.2137	16,564.5	77.2192	16,564.5	73.1077	16,564.5	74.3188	16,564.5	69.4945	16,564.5	69.2708	16,564.5	63.0588	16,564.5	64.481	16,564.5	60.1113	16,564.5	61.0548	16,564.5	56.1207	16,564.5	60.4774	16,564.5	48.577	16,564.5	65.6254	16,564.5	39.5759	16,564.5	57.7771	16,564.5	49.2073	16,564.5	57.6792	16,564.5	37.4396	16,564.5	43.725	16,564.5	43.8729	16,564.5	46.0681	16,564.5	38.8143	16,564.5	41.9065	16,564.5	44.3049	16,564.5	40.8043	16,564.5	24.6453	16,564.5	41.9764	16,564.5	43.8439
17,148.9	82.9625	17,148.9	82.2003	17,148.9	81.7695	17,148.9	81.089	17,148.9	81.5111	17,148.9	79.2187	17,148.9	78.8556	17,148.9	77.0553	17,148.9	78.0421	17,148.9	72.9888	17,148.9	74.2659	17,148.9	69.2379	17,148.9	68.8891	17,148.9	63.3682	17,148.9	64.7055	17,148.9	60.2223	17,148.9	59.7805	17,148.9	56.0486	17,148.9	61.3553	17,148.9	45.0278	17,148.9	66.1657	17,148.9	35.658	17,148.9	57.3052	17,148.9	48.6175	17,148.9	59.6179	17,148.9	39.01	17,148.9	47.4983	17,148.9	42.8468	17,148.9	42.1305	17,148.9	43.9158	17,148.9	42.8104	17,148.9	43.2112	17,148.9	38.4306	17,148.9	44.775	17,148.9	37.0231	17,148.9	45.9861
17,752.4	82.3521	17,752.4	82.0349	17,752.4	81.7879	17,752.4	80.9112	17,752.4	80.946	17,752.4	79.2547	17,752.4	79.0044	17,752.4	77.0989	17,752.4	76.7541	17,752.4	72.8714	17,752.4	73.9751	17,752.4	69.418	17,752.4	68.5045	17,752.4	63.2798	17,752.4	62.8465	17,752.4	59.1097	17,752.4	57.7203	17,752.4	55.1725	17,752.4	61.8174	17,752.4	44.9206	17,752.4	66.9953	17,752.4	40.2708	17,752.4	59.4809	17,752.4	49.1323	17,752.4	58.2327	17,752.4	31.8851	17,752.4	50.048	17,752.4	36.843	17,752.4	42.241	17,752.4	45.7255	17,752.4	39.2518	17,752.4	46.9227	17,752.4	37.7734	17,752.4	44.4545	17,752.4	42.5364	17,752.4	44.4027
18,379.4	81.9218	18,379.4	81.7058	18,379.4	81.3779	18,379.4	80.3323	18,379.4	80.2779	18,379.4	78.8354	18,379.4	79.024	18,379.4	76.9284	18,379.4	77.1567	18,379.4	72.4426	18,379.4	73.2621	18,379.4	68.9216	18,379.4	67.6734	18,379.4	62.6111	18,379.4	62.202	18,379.4	59.6904	18,379.4	56.5446	18,379.4	53.3895	18,379.4	61.3354	18,379.4	40.2148	18,379.4	67.0905	18,379.4	42.7872	18,379.4	59.0778	18,379.4	46.89	18,379.4	60.6426	18,379.4	41.7498	18,379.4	46.6358	18,379.4	41.1346	18,379.4	35.6741	18,379.4	44.9796	18,379.4	37.9484	18,379.4	42.2591	18,379.4	40.6716	18,379.4	42.4943	18,379.4	43.3209	18,379.4	44.0313
19,026.9	80.5909	19,026.9	80.9329	19,026.9	80.6417	19,026.9	79.7823	19,026.9	80.2152	19,026.9	78.4896	19,026.9	78.1837	19,026.9	76.5919	19,026.9	77.1251	19,026.9	71.6955	19,026.9	72.8715	19,026.9	67.8702	19,026.9	66.0454	19,026.9	61.2668	19,026.9	62.2324	19,026.9	57.2804	19,026.9	53.3473	19,026.9	52.9902	19,026.9	61.9325	19,026.9	34.7043	19,026.9	67.3508	19,026.9	43.6197	19,026.9	59.8386	19,026.9	44.8011	19,026.9	59.9369	19,026.9	43.8313	19,026.9	45.5996	19,026.9	42.1053	19,026.9	34.9277	19,026.9	40.8996	19,026.9	37.1816	19,026.9	35.9839	19,026.9	39.3688	19,026.9	39.6228	19,026.9	27.3337	19,026.9	39.1825
19,697.8	78.8565	19,697.8	79.8357	19,697.8	79.7828	19,697.8	78.8389	19,697.8	78.8189	19,697.8	78.0444	19,697.8	77.5064	19,697.8	75.9808	19,697.8	76.607	19,697.8	71.0685	19,697.8	72.0123	19,697.8	67.2893	19,697.8	66.2256	19,697.8	60.8776	19,697.8	60.6178	19,697.8	55.457	19,697.8	54.7173	19,697.8	52.0917	19,697.8	61.6983	19,697.8	37.5143	19,697.8	67.0857	19,697.8	47.1663	19,697.8	59.2325	19,697.8	41.9763	19,697.8	59.991	19,697.8	42.6714	19,697.8	44.2417	19,697.8	41.8556	19,697.8	38.6821	19,697.8	25.1746	19,697.8	35.0695	19,697.8	41.7513	19,697.8	46.0209	19,697.8	40.7962	19,697.8	46.2417	19,697.8	39.3446
19,999.5	78.524	19,999.5	79.6435	19,999.5	79.9648	19,999.5	78.9677	19,999.5	79.2793	19,999.5	78.5304	19,999.5	78.1312	19,999.5	75.2105	19,999.5	75.4793	19,999.5	70.8087	19,999.5	71.6494	19,999.5	66.7281	19,999.5	67.1976	19,999.5	60.0795	19,999.5	61.3262	19,999.5	55.6855	19,999.5	51.4078	19,999.5	55.4961	19,999.5	60.1029	19,999.5	43.0313	19,999.5	67.6837	19,999.5	49.1331	19,999.5	58.9731	19,999.5	53.3459	19,999.5	59.6443	19,999.5	41.2676	19,999.5	45.6754	19,999.5	41.9388	19,999.5	43.1875	19,999.5	49.9482	19,999.5	45.5488	19,999.5	49.061	19,999.5	51.8672	19,999.5	50.9692	19,999.5	44.8755	19,999.5	46.4397
