"SPL Horizontal"
"On-Axis"		"10°"		"-10°"		"20°"		"-20°"		"30°"		"-30°"		"40°"		"-40°"		"50°"		"-50°"		"60°"		"-60°"		"70°"		"-70°"		"80°"		"-80°"		"90°"		"-90°"		"100°"		"-100°"		"110°"		"-110°"		"120°"		"-120°"		"130°"		"-130°"		"140°"		"-140°"		"150°"		"-150°"		"160°"		"-160°"		"170°"		"-170°"		"180°"
"Frequency / Hz"	"Sound Pressure Level / dB (re 20 µPa/V)  [2.83  V @ 1. m]"	"Frequency / Hz"	"Sound Pressure Level / dB (re 20 µPa/V)  [2.83  V @ 1. m]"	"Frequency / Hz"	"Sound Pressure Level / dB (re 20 µPa/V)  [2.83  V @ 1. m]"	"Frequency / Hz"	"Sound Pressure Level / dB (re 20 µPa/V)  [2.83  V @ 1. m]"	"Frequency / Hz"	"Sound Pressure Level / dB (re 20 µPa/V)  [2.83  V @ 1. m]"	"Frequency / Hz"	"Sound Pressure Level / dB (re 20 µPa/V)  [2.83  V @ 1. m]"	"Frequency / Hz"	"Sound Pressure Level / dB (re 20 µPa/V)  [2.83  V @ 1. m]"	"Frequency / Hz"	"Sound Pressure Level / dB (re 20 µPa/V)  [2.83  V @ 1. m]"	"Frequency / Hz"	"Sound Pressure Level / dB (re 20 µPa/V)  [2.83  V @ 1. m]"	"Frequency / Hz"	"Sound Pressure Level / dB (re 20 µPa/V)  [2.83  V @ 1. m]"	"Frequency / Hz"	"Sound Pressure Level / dB (re 20 µPa/V)  [2.83  V @ 1. m]"	"Frequency / Hz"	"Sound Pressure Level / dB (re 20 µPa/V)  [2.83  V @ 1. m]"	"Frequency / Hz"	"Sound Pressure Level / dB (re 20 µPa/V)  [2.83  V @ 1. m]"	"Frequency / Hz"	"Sound Pressure Level / dB (re 20 µPa/V)  [2.83  V @ 1. m]"	"Frequency / Hz"	"Sound Pressure Level / dB (re 20 µPa/V)  [2.83  V @ 1. m]"	"Frequency / Hz"	"Sound Pressure Level / dB (re 20 µPa/V)  [2.83  V @ 1. m]"	"Frequency / Hz"	"Sound Pressure Level / dB (re 20 µPa/V)  [2.83  V @ 1. m]"	"Frequency / Hz"	"Sound Pressure Level / dB (re 20 µPa/V)  [2.83  V @ 1. m]"	"Frequency / Hz"	"Sound Pressure Level / dB (re 20 µPa/V)  [2.83  V @ 1. m]"	"Frequency / Hz"	"Sound Pressure Level / dB (re 20 µPa/V)  [2.83  V @ 1. m]"	"Frequency / Hz"	"Sound Pressure Level / dB (re 20 µPa/V)  [2.83  V @ 1. m]"	"Frequency / Hz"	"Sound Pressure Level / dB (re 20 µPa/V)  [2.83  V @ 1. m]"	"Frequency / Hz"	"Sound Pressure Level / dB (re 20 µPa/V)  [2.83  V @ 1. m]"	"Frequency / Hz"	"Sound Pressure Level / dB (re 20 µPa/V)  [2.83  V @ 1. m]"	"Frequency / Hz"	"Sound Pressure Level / dB (re 20 µPa/V)  [2.83  V @ 1. m]"	"Frequency / Hz"	"Sound Pressure Level / dB (re 20 µPa/V)  [2.83  V @ 1. m]"	"Frequency / Hz"	"Sound Pressure Level / dB (re 20 µPa/V)  [2.83  V @ 1. m]"	"Frequency / Hz"	"Sound Pressure Level / dB (re 20 µPa/V)  [2.83  V @ 1. m]"	"Frequency / Hz"	"Sound Pressure Level / dB (re 20 µPa/V)  [2.83  V @ 1. m]"	"Frequency / Hz"	"Sound Pressure Level / dB (re 20 µPa/V)  [2.83  V @ 1. m]"	"Frequency / Hz"	"Sound Pressure Level / dB (re 20 µPa/V)  [2.83  V @ 1. m]"	"Frequency / Hz"	"Sound Pressure Level / dB (re 20 µPa/V)  [2.83  V @ 1. m]"	"Frequency / Hz"	"Sound Pressure Level / dB (re 20 µPa/V)  [2.83  V @ 1. m]"	"Frequency / Hz"	"Sound Pressure Level / dB (re 20 µPa/V)  [2.83  V @ 1. m]"	"Frequency / Hz"	"Sound Pressure Level / dB (re 20 µPa/V)  [2.83  V @ 1. m]"	"Frequency / Hz"	"Sound Pressure Level / dB (re 20 µPa/V)  [2.83  V @ 1. m]"
20.5078	46.244	20.5078	46.3676	20.5078	46.1291	20.5078	46.4968	20.5078	46.0583	20.5078	46.657	20.5078	46.0993	20.5078	46.8944	20.5078	46.3383	20.5078	47.2627	20.5078	46.8447	20.5078	47.8023	20.5078	47.6301	20.5078	48.5213	20.5078	48.6389	20.5078	49.3914	20.5078	49.7791	20.5078	50.36	20.5078	50.9599	20.5078	51.3681	20.5078	52.1109	20.5078	52.3637	20.5078	53.1822	20.5078	53.3057	20.5078	54.1392	20.5078	54.1638	20.5078	54.9574	20.5078	54.9156	20.5078	55.6199	20.5078	55.5444	20.5078	56.1157	20.5078	56.0366	20.5078	56.439	20.5078	56.3808	20.5078	56.5888	20.5078	56.5675
21.9727	46.2078	21.9727	46.3467	21.9727	45.9323	21.9727	46.3387	21.9727	45.5614	21.9727	46.1978	21.9727	45.1867	21.9727	45.9681	21.9727	44.9707	21.9727	45.7381	21.9727	45.1222	21.9727	45.6507	21.9727	45.7772	21.9727	45.8751	21.9727	46.8796	21.9727	46.5159	21.9727	48.2331	21.9727	47.5319	21.9727	49.6447	21.9727	48.7712	21.9727	50.9898	21.9727	50.0733	21.9727	52.2028	21.9727	51.3252	21.9727	53.2525	21.9727	52.4622	21.9727	54.1242	21.9727	53.4503	21.9727	54.8107	21.9727	54.2715	21.9727	55.308	21.9727	54.9155	21.9727	55.6137	21.9727	55.3755	21.9727	55.7267	21.9727	55.6469
23.4375	47.7067	23.4375	47.7411	23.4375	47.6011	23.4375	47.6979	23.4375	47.4671	23.4375	47.6055	23.4375	47.3899	23.4375	47.5284	23.4375	47.4904	23.4375	47.5655	23.4375	47.8863	23.4375	47.8281	23.4375	48.6245	23.4375	48.3901	23.4375	49.6473	23.4375	49.2437	23.4375	50.8333	23.4375	50.3053	23.4375	52.062	23.4375	51.465	23.4375	53.2458	23.4375	52.6286	23.4375	54.3304	23.4375	53.7308	23.4375	55.2835	23.4375	54.7305	23.4375	56.0859	23.4375	55.6023	23.4375	56.7255	23.4375	56.3297	23.4375	57.1947	23.4375	56.9012	23.4375	57.4886	23.4375	57.3082	23.4375	57.6052	23.4375	57.5443
24.9023	48.3584	24.9023	48.4304	24.9023	48.2256	24.9023	48.4344	24.9023	48.0766	24.9023	48.398	24.9023	48.0004	24.9023	48.3832	24.9023	48.1223	24.9023	48.4831	24.9023	48.5599	24.9023	48.7996	24.9023	49.3519	24.9023	49.3985	24.9023	50.4286	24.9023	50.2704	24.9023	51.6609	24.9023	51.3371	24.9023	52.9267	24.9023	52.496	24.9023	54.1403	24.9023	53.6576	24.9023	55.2493	24.9023	54.7587	24.9023	56.2231	24.9023	55.7583	24.9023	57.0437	24.9023	56.6303	24.9023	57.6994	24.9023	57.3575	24.9023	58.1828	24.9023	57.9275	24.9023	58.4889	24.9023	58.3313	24.9023	58.6154	24.9023	58.5622
26.3672	51.0464	26.3672	51.1277	26.3672	50.9119	26.3672	51.147	26.3672	50.7617	26.3672	51.1211	26.3672	50.666	26.3672	51.0929	26.3672	50.7239	26.3672	51.1299	26.3672	51.0348	26.3672	51.3144	26.3672	51.6482	26.3672	51.7171	26.3672	52.5307	26.3672	52.3631	26.3672	53.5867	26.3672	53.2172	26.3672	54.7087	26.3672	54.2034	26.3672	55.8103	26.3672	55.2378	26.3672	56.8335	26.3672	56.2502	26.3672	57.7414	26.3672	57.1901	26.3672	58.5111	26.3672	58.0233	26.3672	59.1278	26.3672	58.7264	26.3672	59.5815	26.3672	59.2833	26.3672	59.8659	26.3672	59.6824	26.3672	59.9774	26.3672	59.9155
27.832	53.087	27.832	53.1183	27.832	53.0226	27.832	53.1067	27.832	52.9582	27.832	53.0648	27.832	52.9511	27.832	53.0283	27.832	53.0758	27.832	53.0543	27.832	53.403	27.832	53.2137	27.832	53.9674	27.832	53.5701	27.832	54.748	27.832	54.151	27.832	55.6779	27.832	54.9326	27.832	56.6756	27.832	55.8513	27.832	57.6686	27.832	56.8305	27.832	58.6026	27.832	57.802	27.832	59.4398	27.832	58.714	27.832	60.1543	27.832	59.5298	27.832	60.7281	27.832	60.2242	27.832	61.1487	27.832	60.7791	27.832	61.4076	27.832	61.182	27.832	61.4999	27.832	61.424
29.2969	55.1563	29.2969	55.1735	29.2969	55.117	29.2969	55.16	29.2969	55.0842	29.2969	55.1265	29.2969	55.1056	29.2969	55.1037	29.2969	55.2414	29.2969	55.1401	29.2969	55.5484	29.2969	55.2948	29.2969	56.057	29.2969	55.6208	29.2969	56.7549	29.2969	56.1435	29.2969	57.5921	29.2969	56.847	29.2969	58.5011	29.2969	57.681	29.2969	59.4174	29.2969	58.5804	29.2969	60.2886	29.2969	59.4833	29.2969	61.0759	29.2969	60.3401	29.2969	61.7515	29.2969	61.1137	29.2969	62.2956	29.2969	61.7777	29.2969	62.6941	29.2969	62.3124	29.2969	62.9376	29.2969	62.7039	29.2969	63.0207	29.2969	62.942
30.7617	57.6235	30.7617	57.639	30.7617	57.5943	30.7617	57.6338	30.7617	57.573	30.7617	57.6161	30.7617	57.5949	30.7617	57.6081	30.7617	57.705	30.7617	57.6457	30.7617	57.9473	30.7617	57.773	30.7617	58.3502	30.7617	58.0327	30.7617	58.9139	30.7617	58.4511	30.7617	59.6088	30.7617	59.026	30.7617	60.3858	30.7617	59.7264	30.7617	61.1907	30.7617	60.5027	30.7617	61.9741	30.7617	61.301	30.7617	62.6957	30.7617	62.0732	30.7617	63.3245	30.7617	62.7804	30.7617	63.8374	30.7617	63.393	30.7617	64.2176	30.7617	63.8889	30.7617	64.4536	30.7617	64.2518	30.7617	64.5387	30.7617	64.4707
32.2266	59.5473	32.2266	59.5619	32.2266	59.5201	32.2266	59.5573	32.2266	59.4998	32.2266	59.5391	32.2266	59.5175	32.2266	59.5258	32.2266	59.6125	32.2266	59.5474	32.2266	59.8245	32.2266	59.6423	32.2266	60.1812	32.2266	59.8498	32.2266	60.6868	32.2266	60.1979	32.2266	61.3186	32.2266	60.6924	32.2266	62.0343	32.2266	61.3129	32.2266	62.7835	32.2266	62.0191	32.2266	63.5187	32.2266	62.762	32.2266	64.1995	32.2266	63.4943	32.2266	64.7946	32.2266	64.1755	32.2266	65.28	32.2266	64.7734	32.2266	65.638	32.2266	65.2631	32.2266	65.8565	32.2266	65.6264	32.2266	65.9281	32.2266	65.8506
33.6914	61.8149	33.6914	61.815	33.6914	61.8097	33.6914	61.805	33.6914	61.8145	33.6914	61.7904	33.6914	61.8536	33.6914	61.7864	33.6914	61.9574	33.6914	61.8179	33.6914	62.157	33.6914	61.916	33.6914	62.4749	33.6914	62.1121	33.6914	62.9175	33.6914	62.429	33.6914	63.4703	33.6914	62.8727	33.6914	64.1018	33.6914	63.4282	33.6914	64.7712	33.6914	64.0637	33.6914	65.4368	33.6914	64.7377	33.6914	66.0608	33.6914	65.4081	33.6914	66.6118	33.6914	66.037	33.6914	67.0648	33.6914	66.5928	33.6914	67.401	33.6914	67.0506	33.6914	67.607	33.6914	67.3915	33.6914	67.675	33.6914	67.6023
35.1562	63.9981	35.1562	63.9958	35.1562	63.9975	35.1562	63.9861	35.1562	64.0068	35.1562	63.9733	35.1562	64.0464	35.1562	63.9699	35.1562	64.1417	35.1562	63.9965	35.1562	64.3186	35.1562	64.079	35.1562	64.5968	35.1562	64.2446	35.1562	64.9832	35.1562	64.5144	35.1562	65.4681	35.1562	64.8968	35.1562	66.0272	35.1562	65.3828	35.1562	66.6265	35.1562	65.9474	35.1562	67.2293	35.1562	66.5557	35.1562	67.8002	35.1562	67.169	35.1562	68.3088	35.1562	67.7511	35.1562	68.7296	35.1562	68.2705	35.1562	69.043	35.1562	68.7016	35.1562	69.2349	35.1562	69.0247	35.1562	69.2969	35.1562	69.2259
36.6211	65.8752	36.6211	65.8693	36.6211	65.8854	36.6211	65.8643	36.6211	65.9101	36.6211	65.864	36.6211	65.9658	36.6211	65.8791	36.6211	66.0725	36.6211	65.9266	36.6211	66.2509	36.6211	66.0273	36.6211	66.5168	36.6211	66.2022	36.6211	66.8761	36.6211	66.4672	36.6211	67.3218	36.6211	66.8283	36.6211	67.8344	36.6211	67.2778	36.6211	68.3855	36.6211	67.7955	36.6211	68.9426	36.6211	68.3522	36.6211	69.4736	36.6211	68.9149	36.6211	69.9494	36.6211	69.4513	36.6211	70.3453	36.6211	69.932	36.6211	70.6417	36.6211	70.3325	36.6211	70.8244	36.6211	70.6332	36.6211	70.8849	36.6211	70.8202
38.0859	67.8833	38.0859	67.8722	38.0859	67.9017	38.0859	67.8652	38.0859	67.9358	38.0859	67.8653	38.0859	67.999	38.0859	67.8812	38.0859	68.1076	38.0859	67.9262	38.0859	68.2778	38.0859	68.0175	38.0859	68.5223	38.0859	68.1725	38.0859	68.8461	38.0859	68.4052	38.0859	69.2439	38.0859	68.7219	38.0859	69.7003	38.0859	69.1183	38.0859	70.1919	38.0859	69.5791	38.0859	70.6912	38.0859	70.0801	38.0859	71.1697	38.0859	70.5924	38.0859	71.6003	38.0859	71.0862	38.0859	71.9597	38.0859	71.5333	38.0859	72.2284	38.0859	71.9095	38.0859	72.3922	38.0859	72.195	38.0859	72.4422	38.0859	72.3755
39.5508	69.8887	39.5508	69.8746	39.5508	69.911	39.5508	69.8662	39.5508	69.9479	39.5508	69.866	39.5508	70.0101	39.5508	69.8812	39.5508	70.1104	39.5508	69.9227	39.5508	70.2622	39.5508	70.0046	39.5508	70.476	39.5508	70.1414	39.5508	70.7572	39.5508	70.3451	39.5508	71.1031	39.5508	70.6221	39.5508	71.5025	39.5508	70.97	39.5508	71.9369	39.5508	71.3774	39.5508	72.3829	39.5508	71.8244	39.5508	72.8148	39.5508	72.2858	39.5508	73.2074	39.5508	72.7345	39.5508	73.5375	39.5508	73.144	39.5508	73.7859	39.5508	73.4907	39.5508	73.938	39.5508	73.7551	39.5508	73.9847	39.5508	73.9227
41.0156	71.6929	41.0156	71.6805	41.0156	71.7152	41.0156	71.6763	41.0156	71.7529	41.0156	71.6823	41.0156	71.8145	41.0156	71.7045	41.0156	71.9107	41.0156	71.752	41.0156	72.0522	41.0156	71.8362	41.0156	72.2482	41.0156	71.9688	41.0156	72.503	41.0156	72.1595	41.0156	72.8152	41.0156	72.4135	41.0156	73.176	41.0156	72.7291	41.0156	73.5702	41.0156	73.097	41.0156	73.9775	41.0156	73.5009	41.0156	74.3749	41.0156	73.9192	41.0156	74.7389	41.0156	74.3279	41.0156	75.0473	41.0156	74.7026	41.0156	75.2812	41.0156	75.021	41.0156	75.426	41.0156	75.2642	41.0156	75.4726	41.0156	75.4177
42.4805	73.305	42.4805	73.2979	42.4805	73.3241	42.4805	73.3011	42.4805	73.3595	42.4805	73.3163	42.4805	73.4185	42.4805	73.3483	42.4805	73.5099	42.4805	73.4045	42.4805	73.6428	42.4805	73.494	42.4805	73.8251	42.4805	73.6262	42.4805	74.0607	42.4805	73.8089	42.4805	74.3489	42.4805	74.0463	42.4805	74.6825	42.4805	74.3372	42.4805	75.0482	42.4805	74.6739	42.4805	75.4279	42.4805	75.0427	42.4805	75.8005	42.4805	75.425	42.4805	76.1435	42.4805	75.7992	42.4805	76.4358	42.4805	76.1433	42.4805	76.6591	42.4805	76.4361	42.4805	76.799	42.4805	76.6594	42.4805	76.8467	42.4805	76.7992
43.9453	74.7323	43.9453	74.7289	43.9453	74.75	43.9453	74.7385	43.9453	74.7862	43.9453	74.762	43.9453	74.8466	43.9453	74.8028	43.9453	74.9384	43.9453	74.8663	43.9453	75.0687	43.9453	74.9595	43.9453	75.2437	43.9453	75.0894	43.9453	75.4662	43.9453	75.2621	43.9453	75.7352	43.9453	75.4813	43.9453	76.0445	43.9453	75.746	43.9453	76.3823	43.9453	76.0507	43.9453	76.7329	43.9453	76.3841	43.9453	77.0769	43.9453	76.7309	43.9453	77.3939	43.9453	77.0721	43.9453	77.6643	43.9453	77.3878	43.9453	77.8707	43.9453	77.6581	43.9453	77.9995	43.9453	77.8657	43.9453	78.0425	43.9453	77.9968
45.4102	76.1479	45.4102	76.1458	45.4102	76.1638	45.4102	76.1564	45.4102	76.1967	45.4102	76.1801	45.4102	76.2509	45.4102	76.2195	45.4102	76.3318	45.4102	76.2783	45.4102	76.445	45.4102	76.3618	45.4102	76.5953	45.4102	76.4754	45.4102	76.7856	45.4102	76.6242	45.4102	77.0157	45.4102	76.8113	45.4102	77.2813	45.4102	77.037	45.4102	77.5736	45.4102	77.2975	45.4102	77.8793	45.4102	77.5845	45.4102	78.182	45.4102	77.8853	45.4102	78.4633	45.4102	78.1841	45.4102	78.705	45.4102	78.4627	45.4102	78.8906	45.4102	78.703	45.4102	79.0072	45.4102	78.8886	45.4102	79.0465	45.4102	79.0059
46.875	77.1399	46.875	77.136	46.875	77.1559	46.875	77.1431	46.875	77.187	46.875	77.1615	46.875	77.2374	46.875	77.1934	46.875	77.3122	46.875	77.2424	46.875	77.4167	46.875	77.3133	46.875	77.5557	46.875	77.4115	46.875	77.7318	46.875	77.5419	46.875	77.945	46.875	77.7082	46.875	78.1912	46.875	77.9112	46.875	78.462	46.875	78.1482	46.875	78.745	46.875	78.412	46.875	79.0246	46.875	78.6914	46.875	79.2837	46.875	78.9715	46.875	79.505	46.875	79.2352	46.875	79.6733	46.875	79.465	46.875	79.7763	46.875	79.6449	46.875	79.8065	46.875	79.7616
48.3398	77.7207	48.3398	77.7097	48.3398	77.7469	48.3398	77.7131	48.3398	77.7904	48.3398	77.7311	48.3398	77.8543	48.3398	77.7655	48.3398	77.9421	48.3398	77.819	48.3398	78.0574	48.3398	77.8952	48.3398	78.2033	48.3398	77.998	48.3398	78.381	48.3398	78.131	48.3398	78.5896	48.3398	78.2967	48.3398	78.825	48.3398	78.4953	48.3398	79.0796	48.3398	78.7239	48.3398	79.3426	48.3398	78.976	48.3398	79.6004	48.3398	79.2415	48.3398	79.8379	48.3398	79.5071	48.3398	80.0398	48.3398	79.7572	48.3398	80.1922	48.3398	79.9758	48.3398	80.2837	48.3398	80.1478	48.3398	80.3074	48.3398	80.2611
51.2695	78.6084	51.2695	78.5981	51.2695	78.6358	51.2695	78.6044	51.2695	78.6811	51.2695	78.6273	51.2695	78.7457	51.2695	78.6676	51.2695	78.8312	51.2695	78.7265	51.2695	78.9391	51.2695	78.8053	51.2695	79.0703	51.2695	78.9058	51.2695	79.2252	51.2695	79.0295	51.2695	79.4023	51.2695	79.1769	51.2695	79.5986	51.2695	79.3475	51.2695	79.8085	51.2695	79.5388	51.2695	80.0242	51.2695	79.7463	51.2695	80.2355	51.2695	79.9624	51.2695	80.4307	51.2695	80.1774	51.2695	80.5976	51.2695	80.3797	51.2695	80.7244	51.2695	80.5564	51.2695	80.8016	51.2695	80.6956	51.2695	80.823	51.2695	80.7867
52.7344	78.8116	52.7344	78.8019	52.7344	78.8386	52.7344	78.8091	52.7344	78.8835	52.7344	78.8331	52.7344	78.947	52.7344	78.8743	52.7344	79.0302	52.7344	78.9332	52.7344	79.1338	52.7344	79.0106	52.7344	79.2583	52.7344	79.1073	52.7344	79.4033	52.7344	79.2243	52.7344	79.5675	52.7344	79.3616	52.7344	79.7478	52.7344	79.5186	52.7344	79.9395	52.7344	79.6931	52.7344	80.1356	52.7344	79.8811	52.7344	80.3272	52.7344	80.0764	52.7344	80.5039	52.7344	80.2706	52.7344	80.6548	52.7344	80.4534	52.7344	80.7692	52.7344	80.6136	52.7344	80.8385	52.7344	80.7401	52.7344	80.8571	52.7344	80.8234
54.1992	79.0324	54.1992	79.0238	54.1992	79.0583	54.1992	79.0322	54.1992	79.1018	54.1992	79.0574	54.1992	79.1631	54.1992	79.0993	54.1992	79.2427	54.1992	79.1579	54.1992	79.3404	54.1992	79.2333	54.1992	79.4563	54.1992	79.3255	54.1992	79.5896	54.1992	79.4346	54.1992	79.7387	54.1992	79.5604	54.1992	79.901	54.1992	79.702	54.1992	80.0724	54.1992	79.8576	54.1992	80.247	54.1992	80.0241	54.1992	80.4172	54.1992	80.1963	54.1992	80.5742	54.1992	80.3674	54.1992	80.7081	54.1992	80.5287	54.1992	80.8097	54.1992	80.6704	54.1992	80.8711	54.1992	80.7828	54.1992	80.8874	54.1992	80.8571
55.6641	79.2092	55.6641	79.2012	55.6641	79.2331	55.6641	79.2088	55.6641	79.2732	55.6641	79.2318	55.6641	79.3295	55.6641	79.2701	55.6641	79.4022	55.6641	79.3232	55.6641	79.4911	55.6641	79.3913	55.6641	79.5961	55.6641	79.4741	55.6641	79.7164	55.6641	79.5716	55.6641	79.8506	55.6641	79.6837	55.6641	79.9964	55.6641	79.8094	55.6641	80.1499	55.6641	79.9475	55.6641	80.3062	55.6641	80.0953	55.6641	80.4584	55.6641	80.2486	55.6641	80.5986	55.6641	80.4015	55.6641	80.718	55.6641	80.5465	55.6641	80.8083	55.6641	80.6748	55.6641	80.8621	55.6641	80.7773	55.6641	80.8751	55.6641	80.846
58.5938	79.4064	58.5938	79.3906	58.5938	79.4393	58.5938	79.3919	58.5938	79.4888	58.5938	79.4101	58.5938	79.5543	58.5938	79.4445	58.5938	79.6348	58.5938	79.4944	58.5938	79.7289	58.5938	79.5587	58.5938	79.8352	58.5938	79.6365	58.5938	79.9517	58.5938	79.7267	58.5938	80.0763	58.5938	79.8283	58.5938	80.2062	58.5938	79.9402	58.5938	80.338	58.5938	80.0609	58.5938	80.4675	58.5938	80.1885	58.5938	80.5895	58.5938	80.32	58.5938	80.6984	58.5938	80.4511	58.5938	80.7877	58.5938	80.5764	58.5938	80.8514	58.5938	80.6892	58.5938	80.8843	58.5938	80.7821	58.5938	80.8835	58.5938	80.8486
60.0586	79.5807	60.0586	79.5662	60.0586	79.612	60.0586	79.5686	60.0586	79.6593	60.0586	79.5876	60.0586	79.7217	60.0586	79.6225	60.0586	79.7979	60.0586	79.6723	60.0586	79.8861	60.0586	79.7356	60.0586	79.9848	60.0586	79.8112	60.0586	80.0918	60.0586	79.8975	60.0586	80.2053	60.0586	79.9932	60.0586	80.3227	60.0586	80.0971	60.0586	80.4412	60.0586	80.2078	60.0586	80.5575	60.0586	80.3234	60.0586	80.6673	60.0586	80.4416	60.0586	80.7657	60.0586	80.5587	60.0586	80.8471	60.0586	80.6701	60.0586	80.9058	60.0586	80.7698	60.0586	80.9374	60.0586	80.8515	60.0586	80.9387	60.0586	80.9093
62.9883	79.9199	62.9883	79.9051	62.9883	79.9512	62.9883	79.9073	62.9883	79.9981	62.9883	79.9259	62.9883	80.0589	62.9883	79.9599	62.9883	80.1316	62.9883	80.0076	62.9883	80.214	62.9883	80.0671	62.9883	80.3035	62.9883	80.136	62.9883	80.3977	62.9883	80.2124	62.9883	80.4945	62.9883	80.2944	62.9883	80.5914	62.9883	80.3805	62.9883	80.6863	62.9883	80.4696	62.9883	80.7767	62.9883	80.5606	62.9883	80.8599	62.9883	80.6521	62.9883	80.9324	62.9883	80.7423	62.9883	80.9907	62.9883	80.8283	62.9883	81.0308	62.9883	80.906	62.9883	81.0499	62.9883	80.9711	62.9883	81.0459	62.9883	81.0189
64.4531	79.9545	64.4531	79.9402	64.4531	79.9854	64.4531	79.9427	64.4531	80.0319	64.4531	79.9616	64.4531	80.0921	64.4531	79.9957	64.4531	80.164	64.4531	80.0433	64.4531	80.245	64.4531	80.1022	64.4531	80.3323	64.4531	80.1703	64.4531	80.4234	64.4531	80.2453	64.4531	80.5157	64.4531	80.3252	64.4531	80.6069	64.4531	80.4083	64.4531	80.695	64.4531	80.4933	64.4531	80.7778	64.4531	80.5788	64.4531	80.8529	64.4531	80.6636	64.4531	80.9179	64.4531	80.746	64.4531	80.9695	64.4531	80.8236	64.4531	81.0049	64.4531	80.8932	64.4531	81.0214	64.4531	80.9512	64.4531	81.0177	64.4531	80.9937
67.3828	80.0686	67.3828	80.049	67.3828	80.1062	67.3828	80.0483	67.3828	80.1603	67.3828	80.066	67.3828	80.2282	67.3828	80.1011	67.3828	80.3071	67.3828	80.1513	67.3828	80.3935	67.3828	80.2141	67.3828	80.4841	67.3828	80.2863	67.3828	80.5756	67.3828	80.365	67.3828	80.6653	67.3828	80.4473	67.3828	80.7507	67.3828	80.5308	67.3828	80.83	67.3828	80.6134	67.3828	80.9016	67.3828	80.6937	67.3828	80.9638	67.3828	80.7708	67.3828	81.0152	67.3828	80.8436	67.3828	81.0541	67.3828	80.9107	67.3828	81.0788	67.3828	80.9703	67.3828	81.0879	67.3828	81.0202	67.3828	81.0808	67.3828	81.0577
68.8477	80.1787	68.8477	80.16	68.8477	80.2162	68.8477	80.1608	68.8477	80.2706	68.8477	80.1808	68.8477	80.3394	68.8477	80.2187	68.8477	80.4193	68.8477	80.2721	68.8477	80.5066	68.8477	80.3382	68.8477	80.5977	68.8477	80.4135	68.8477	80.6891	68.8477	80.4945	68.8477	80.7776	68.8477	80.5778	68.8477	80.8606	68.8477	80.6607	68.8477	80.9361	68.8477	80.7408	68.8477	81.0026	68.8477	80.8166	68.8477	81.0589	68.8477	80.8871	68.8477	81.1039	68.8477	80.9518	68.8477	81.1368	68.8477	81.01	68.8477	81.1566	68.8477	81.0609	68.8477	81.1629	68.8477	81.1031	68.8477	81.1555	68.8477	81.1352
71.7773	80.687	71.7773	80.667	71.7773	80.7237	71.7773	80.6644	71.7773	80.7754	71.7773	80.6792	71.7773	80.8393	71.7773	80.7099	71.7773	80.9122	71.7773	80.7545	71.7773	80.9903	71.7773	80.81	71.7773	81.07	71.7773	80.8729	71.7773	81.1475	71.7773	80.9398	71.7773	81.2197	71.7773	81.0072	71.7773	81.2839	71.7773	81.0722	71.7773	81.3384	71.7773	81.1327	71.7773	81.3821	71.7773	81.1873	71.7773	81.4145	71.7773	81.2357	71.7773	81.4357	71.7773	81.2782	71.7773	81.4463	71.7773	81.3157	71.7773	81.4472	71.7773	81.349	71.7773	81.4396	71.7773	81.3784	71.7773	81.4247	71.7773	81.404
74.707	81.0666	74.707	81.0429	74.707	81.1045	74.707	81.0343	74.707	81.1544	74.707	81.041	74.707	81.2135	74.707	81.0619	74.707	81.2783	74.707	81.0948	74.707	81.345	74.707	81.1371	74.707	81.41	74.707	81.1852	74.707	81.4695	74.707	81.2356	74.707	81.5207	74.707	81.2847	74.707	81.5615	74.707	81.3297	74.707	81.5903	74.707	81.3685	74.707	81.607	74.707	81.4002	74.707	81.612	74.707	81.4252	74.707	81.6068	74.707	81.4447	74.707	81.5935	74.707	81.461	74.707	81.5748	74.707	81.4763	74.707	81.5532	74.707	81.4925	74.707	81.5313	74.707	81.5108
77.6367	81.3465	77.6367	81.3245	77.6367	81.3822	77.6367	81.3172	77.6367	81.4295	77.6367	81.3246	77.6367	81.4855	77.6367	81.3453	77.6367	81.5463	77.6367	81.3771	77.6367	81.608	77.6367	81.4167	77.6367	81.6663	77.6367	81.4605	77.6367	81.7174	77.6367	81.5045	77.6367	81.7577	77.6367	81.5449	77.6367	81.785	77.6367	81.5786	77.6367	81.7979	77.6367	81.6036	77.6367	81.7965	77.6367	81.6191	77.6367	81.7825	77.6367	81.6258	77.6367	81.7586	77.6367	81.6259	77.6367	81.7287	77.6367	81.6225	77.6367	81.6971	77.6367	81.6196	77.6367	81.6679	77.6367	81.6207	77.6367	81.6444	77.6367	81.6286
79.1016	81.5264	79.1016	81.5086	79.1016	81.558	79.1016	81.5055	79.1016	81.6014	79.1016	81.5168	79.1016	81.6535	79.1016	81.5411	79.1016	81.7107	79.1016	81.5758	79.1016	81.7689	79.1016	81.6174	79.1016	81.8236	79.1016	81.662	79.1016	81.8708	79.1016	81.7053	79.1016	81.9071	79.1016	81.7434	79.1016	81.9299	79.1016	81.7732	79.1016	81.9381	79.1016	81.7924	79.1016	81.932	79.1016	81.8006	79.1016	81.9134	79.1016	81.7988	79.1016	81.8855	79.1016	81.7895	79.1016	81.8528	79.1016	81.7766	79.1016	81.8199	79.1016	81.7646	79.1016	81.7912	79.1016	81.7576	79.1016	81.7702	79.1016	81.759
82.0312	81.7997	82.0312	81.7702	82.0312	81.843	82.0312	81.7557	82.0312	81.8977	82.0312	81.7563	82.0312	81.9606	82.0312	81.7708	82.0312	82.0275	82.0312	81.797	82.0312	82.0939	82.0312	81.8315	82.0312	82.1553	82.0312	81.8705	82.0312	82.2071	82.0312	81.9096	82.0312	82.2457	82.0312	81.9449	82.0312	82.2682	82.0312	81.973	82.0312	82.2734	82.0312	81.9918	82.0312	82.2616	82.0312	82.0007	82.0312	82.2349	82.0312	82.0011	82.0312	82.1967	82.0312	81.9957	82.0312	82.1518	82.0312	81.9888	82.0312	82.1053	82.0312	81.9849	82.0312	82.0622	82.0312	81.9882	82.0312	82.0268	82.0312	82.0018
84.9609	81.9018	84.9609	81.8874	84.9609	81.9289	84.9609	81.8864	84.9609	81.9669	84.9609	81.8985	84.9609	82.013	84.9609	81.9224	84.9609	82.0637	84.9609	81.9557	84.9609	82.1152	84.9609	81.9954	84.9609	82.1631	84.9609	82.0379	84.9609	82.2038	84.9609	82.0794	84.9609	82.2337	84.9609	82.1164	84.9609	82.2506	84.9609	82.1457	84.9609	82.2533	84.9609	82.1652	84.9609	82.2425	84.9609	82.1736	84.9609	82.2202	84.9609	82.1711	84.9609	82.1901	84.9609	82.1592	84.9609	82.1572	84.9609	82.1408	84.9609	82.1268	84.9609	82.1203	84.9609	82.1039	84.9609	82.1024	84.9609	82.0919	84.9609	82.0918
87.8906	82.2677	87.8906	82.2696	87.8906	82.2754	87.8906	82.2817	87.8906	82.2909	87.8906	82.3038	87.8906	82.312	87.8906	82.3349	87.8906	82.3358	87.8906	82.3726	87.8906	82.359	87.8906	82.4141	87.8906	82.3781	87.8906	82.4553	87.8906	82.3898	87.8906	82.4918	87.8906	82.3913	87.8906	82.519	87.8906	82.3808	87.8906	82.5325	87.8906	82.3577	87.8906	82.5291	87.8906	82.3233	87.8906	82.5071	87.8906	82.2806	87.8906	82.4672	87.8906	82.2346	87.8906	82.4124	87.8906	82.192	87.8906	82.3482	87.8906	82.1595	87.8906	82.2819	87.8906	82.1437	87.8906	82.2218	87.8906	82.1487	87.8906	82.1755
90.8203	82.9315	90.8203	82.9161	90.8203	82.9505	90.8203	82.9057	90.8203	82.971	90.8203	82.9004	90.8203	82.99	90.8203	82.8992	90.8203	83.0042	90.8203	82.9001	90.8203	83.0098	90.8203	82.8999	90.8203	83.0031	90.8203	82.8948	90.8203	82.9809	90.8203	82.8806	90.8203	82.9406	90.8203	82.8533	90.8203	82.8811	90.8203	82.8097	90.8203	82.8029	90.8203	82.7485	90.8203	82.7088	90.8203	82.6705	90.8203	82.6038	90.8203	82.5794	90.8203	82.4951	90.8203	82.4815	90.8203	82.3916	90.8203	82.3855	90.8203	82.303	90.8203	82.3011	90.8203	82.2382	90.8203	82.2381	90.8203	82.2042	90.8203	82.2043
95.2148	82.5935	95.2148	82.5772	95.2148	82.6223	95.2148	82.5747	95.2148	82.6618	95.2148	82.5859	95.2148	82.7088	95.2148	82.6096	95.2148	82.7598	95.2148	82.6435	95.2148	82.8106	95.2148	82.684	95.2148	82.8566	95.2148	82.7266	95.2148	82.8932	95.2148	82.7663	95.2148	82.9165	95.2148	82.7983	95.2148	82.9232	95.2148	82.8181	95.2148	82.9117	95.2148	82.8228	95.2148	82.8821	95.2148	82.8109	95.2148	82.837	95.2148	82.7835	95.2148	82.7814	95.2148	82.7441	95.2148	82.7222	95.2148	82.6984	95.2148	82.6676	95.2148	82.654	95.2148	82.6254	95.2148	82.6189	95.2148	82.6019	95.2148	82.6
98.1445	82.8629	98.1445	82.8427	98.1445	82.8921	98.1445	82.8328	98.1445	82.928	98.1445	82.8337	98.1445	82.968	98.1445	82.8448	98.1445	83.0086	98.1445	82.8646	98.1445	83.0458	98.1445	82.8902	98.1445	83.0754	98.1445	82.9178	98.1445	83.0932	98.1445	82.9428	98.1445	83.0956	98.1445	82.9602	98.1445	83.0797	98.1445	82.9655	98.1445	83.0445	98.1445	82.9553	98.1445	82.9911	98.1445	82.9278	98.1445	82.9229	98.1445	82.8838	98.1445	82.846	98.1445	82.827	98.1445	82.7684	98.1445	82.7638	98.1445	82.6998	98.1445	82.7029	98.1445	82.6491	98.1445	82.6539	98.1445	82.6233	98.1445	82.6254
101.074	83.0426	101.074	83.0231	101.074	83.0699	101.074	83.0126	101.074	83.1032	101.074	83.0115	101.074	83.1395	101.074	83.0191	101.074	83.1756	101.074	83.0338	101.074	83.2073	101.074	83.0527	101.074	83.2304	101.074	83.0722	101.074	83.2407	101.074	83.0881	101.074	83.2344	101.074	83.0957	101.074	83.2094	101.074	83.0911	101.074	83.165	101.074	83.0713	101.074	83.1028	101.074	83.0352	101.074	83.0269	101.074	82.9842	101.074	82.9439	101.074	82.9221	101.074	82.8621	101.074	82.8554	101.074	82.7908	101.074	82.7926	101.074	82.7387	101.074	82.7428	101.074	82.7123	101.074	82.7142
105.469	83.2525	105.469	83.2352	105.469	83.2756	105.469	83.2244	105.469	83.303	105.469	83.2203	105.469	83.3325	105.469	83.2224	105.469	83.3611	105.469	83.2292	105.469	83.3847	105.469	83.2383	105.469	83.3986	105.469	83.2459	105.469	83.3976	105.469	83.2477	105.469	83.3772	105.469	83.2388	105.469	83.334	105.469	83.2148	105.469	83.2667	105.469	83.1725	105.469	83.1771	105.469	83.1108	105.469	83.0704	105.469	83.0315	105.469	82.955	105.469	82.9397	105.469	82.8424	105.469	82.8439	105.469	82.7451	105.469	82.755	105.469	82.6748	105.469	82.6848	105.469	82.6399	105.469	82.644
108.398	83.4423	108.398	83.4288	108.398	83.4563	108.398	83.4168	108.398	83.4697	108.398	83.407	108.398	83.4813	108.398	83.3995	108.398	83.4892	108.398	83.3939	108.398	83.4909	108.398	83.3887	108.398	83.4834	108.398	83.3816	108.398	83.463	108.398	83.369	108.398	83.4261	108.398	83.3469	108.398	83.3697	108.398	83.3114	108.398	83.2927	108.398	83.2595	108.398	83.1965	108.398	83.1899	108.398	83.0862	108.398	83.1041	108.398	82.9699	108.398	83.0065	108.398	82.8589	108.398	82.905	108.398	82.7654	108.398	82.8098	108.398	82.7006	108.398	82.7326	108.398	82.6727	108.398	82.6843
112.793	83.6906	112.793	83.6738	112.793	83.7049	112.793	83.6558	112.793	83.7153	112.793	83.6375	112.793	83.7204	112.793	83.6198	112.793	83.7184	112.793	83.6029	112.793	83.7072	112.793	83.5859	112.793	83.6844	112.793	83.5672	112.793	83.6473	112.793	83.5439	112.793	83.5938	112.793	83.5128	112.793	83.5225	112.793	83.4703	112.793	83.4334	112.793	83.4137	112.793	83.3293	112.793	83.3421	112.793	83.2154	112.793	83.2563	112.793	83.0999	112.793	83.1605	112.793	82.993	112.793	83.0614	112.793	82.9058	112.793	82.9683	112.793	82.848	112.793	82.8916	112.793	82.826	112.793	82.8417
117.188	83.8744	117.188	83.8567	117.188	83.8873	117.188	83.8359	117.188	83.8933	117.188	83.8131	117.188	83.8902	117.188	83.7892	117.188	83.8754	117.188	83.764	117.188	83.8463	117.188	83.7363	117.188	83.8003	117.188	83.704	117.188	83.7349	117.188	83.664	117.188	83.6485	117.188	83.6126	117.188	83.5407	117.188	83.5464	117.188	83.4134	117.188	83.4626	117.188	83.2708	117.188	83.3603	117.188	83.1203	117.188	83.2414	117.188	82.9723	117.188	83.1108	117.188	82.8392	117.188	82.977	117.188	82.734	117.188	82.8514	117.188	82.668	117.188	82.747	117.188	82.6482	117.188	82.676
120.117	83.9341	120.117	83.908	120.117	83.9563	120.117	83.8794	120.117	83.9723	120.117	83.8496	120.117	83.9799	120.117	83.8191	120.117	83.976	120.117	83.7876	120.117	83.9574	120.117	83.754	120.117	83.9209	120.117	83.7161	120.117	83.863	120.117	83.6707	120.117	83.7815	120.117	83.6139	120.117	83.6753	120.117	83.5422	120.117	83.5455	120.117	83.4531	120.117	83.3964	120.117	83.3462	120.117	83.2355	120.117	83.2238	120.117	83.0734	120.117	83.092	120.117	82.9236	120.117	82.9601	120.117	82.7998	120.117	82.8401	120.117	82.7145	120.117	82.7452	120.117	82.6762	120.117	82.6876
124.512	83.8362	124.512	83.8168	124.512	83.8531	124.512	83.7961	124.512	83.8662	124.512	83.7747	124.512	83.8739	124.512	83.7532	124.512	83.8738	124.512	83.7312	124.512	83.8631	124.512	83.7078	124.512	83.8384	124.512	83.6806	124.512	83.796	124.512	83.6467	124.512	83.7327	124.512	83.6025	124.512	83.6466	124.512	83.5445	124.512	83.5379	124.512	83.4701	124.512	83.41	124.512	83.3786	124.512	83.2696	124.512	83.2722	124.512	83.1268	124.512	83.1559	124.512	82.9941	124.512	83.0381	124.512	82.8845	124.512	82.9298	124.512	82.8096	124.512	82.8431	124.512	82.7771	124.512	82.7894
128.906	83.8435	128.906	83.8171	128.906	83.8655	128.906	83.7881	128.906	83.8813	128.906	83.7582	128.906	83.8888	128.906	83.7284	128.906	83.886	128.906	83.6995	128.906	83.8705	128.906	83.6708	128.906	83.8399	128.906	83.641	128.906	83.7917	128.906	83.6071	128.906	83.7242	128.906	83.5656	128.906	83.6366	128.906	83.5129	128.906	83.5301	128.906	83.4461	128.906	83.4082	128.906	83.3643	128.906	83.2771	128.906	83.2689	128.906	83.1457	128.906	83.1646	128.906	83.0249	128.906	83.0591	128.906	82.9258	128.906	82.9625	128.906	82.858	128.906	82.8856	128.906	82.8283	128.906	82.8384
133.301	83.8307	133.301	83.8121	133.301	83.8452	133.301	83.7907	133.301	83.8545	133.301	83.7673	133.301	83.8572	133.301	83.7428	133.301	83.8513	133.301	83.7173	133.301	83.8341	133.301	83.6904	133.301	83.8028	133.301	83.6603	133.301	83.7542	133.301	83.6246	133.301	83.6859	133.301	83.5797	133.301	83.5968	133.301	83.5222	133.301	83.4877	133.301	83.4496	133.301	83.3623	133.301	83.3609	133.301	83.2275	133.301	83.258	133.301	83.0926	133.301	83.1458	133.301	82.9693	133.301	83.0323	133.301	82.8692	133.301	82.9278	133.301	82.8025	133.301	82.8438	133.301	82.7757	133.301	82.7905
139.16	83.7743	139.16	83.7641	139.16	83.7775	139.16	83.7479	139.16	83.7728	139.16	83.727	139.16	83.7595	139.16	83.7029	139.16	83.7366	139.16	83.6764	139.16	83.7027	139.16	83.6477	139.16	83.6557	139.16	83.6155	139.16	83.5934	139.16	83.5776	139.16	83.5138	139.16	83.5302	139.16	83.4159	139.16	83.4697	139.16	83.3007	139.16	83.3929	139.16	83.172	139.16	83.2984	139.16	83.0365	139.16	83.1875	139.16	82.904	139.16	83.0653	139.16	82.786	139.16	82.9398	139.16	82.6944	139.16	82.8217	139.16	82.6388	139.16	82.723	139.16	82.6253	139.16	82.6547
143.555	83.7283	143.555	83.7086	143.555	83.737	143.555	83.6793	143.555	83.7338	143.555	83.6425	143.555	83.7183	143.555	83.6008	143.555	83.6902	143.555	83.5568	143.555	83.6487	143.555	83.5121	143.555	83.5927	143.555	83.4671	143.555	83.5207	143.555	83.4203	143.555	83.4315	143.555	83.3687	143.555	83.325	143.555	83.3085	143.555	83.2028	143.555	83.2359	143.555	83.0692	143.555	83.1486	143.555	82.9311	143.555	83.047	143.555	82.7983	143.555	82.9347	143.555	82.6817	143.555	82.819	143.555	82.5921	143.555	82.7096	143.555	82.5385	143.555	82.6175	143.555	82.5255	143.555	82.5533
147.949	83.6942	147.949	83.6681	147.949	83.7067	147.949	83.63	147.949	83.7047	147.949	83.5823	147.949	83.6882	147.949	83.528	147.949	83.6572	147.949	83.47	147.949	83.6116	147.949	83.4105	147.949	83.5507	147.949	83.3502	147.949	83.4737	147.949	83.2883	147.949	83.3796	147.949	83.2226	147.949	83.2685	147.949	83.15	147.949	83.1418	147.949	83.0674	147.949	83.0035	147.949	82.9735	147.949	82.8602	147.949	82.8691	147.949	82.721	147.949	82.7583	147.949	82.5963	147.949	82.6481	147.949	82.4967	147.949	82.5479	147.949	82.4309	147.949	82.4679	147.949	82.4042	147.949	82.4177
153.809	83.6544	153.809	83.6291	153.809	83.6641	153.809	83.5896	153.809	83.6571	153.809	83.5381	153.809	83.6327	153.809	83.4773	153.809	83.5907	153.809	83.4099	153.809	83.5307	153.809	83.3384	153.809	83.4525	153.809	83.2644	153.809	83.3564	153.809	83.1878	153.809	83.243	153.809	83.1074	153.809	83.1145	153.809	83.021	153.809	82.9743	153.809	82.9265	153.809	82.8276	153.809	82.8234	153.809	82.6817	153.809	82.7131	153.809	82.5449	153.809	82.6	153.809	82.4263	153.809	82.4906	153.809	82.3344	153.809	82.3932	153.809	82.2755	153.809	82.3164	153.809	82.2532	153.809	82.2678
159.668	83.642	159.668	83.6228	159.668	83.6443	159.668	83.5876	159.668	83.6295	159.668	83.5381	159.668	83.5982	159.668	83.4771	159.668	83.5507	159.668	83.4074	159.668	83.487	159.668	83.3322	159.668	83.4067	159.668	83.2536	159.668	83.3092	159.668	83.1724	159.668	83.1945	159.668	83.0882	159.668	83.0639	159.668	82.9993	159.668	82.9206	159.668	82.9036	159.668	82.7705	159.668	82.8	159.668	82.6216	159.668	82.6893	159.668	82.4834	159.668	82.575	159.668	82.3657	159.668	82.4634	159.668	82.2768	159.668	82.3625	159.668	82.2228	159.668	82.2811	159.668	82.2063	159.668	82.2269
165.527	83.7305	165.527	83.7061	165.527	83.7359	165.527	83.6646	165.527	83.7217	165.527	83.6093	165.527	83.6883	165.527	83.5442	165.527	83.637	165.527	83.4735	165.527	83.569	165.527	83.4008	165.527	83.4852	165.527	83.3282	165.527	83.3862	165.527	83.2564	165.527	83.2728	165.527	83.1848	165.527	83.1465	165.527	83.1114	165.527	83.0108	165.527	83.0342	165.527	82.8715	165.527	82.9517	165.527	82.737	165.527	82.8638	165.527	82.617	165.527	82.772	165.527	82.5206	165.527	82.6798	165.527	82.4549	165.527	82.5924	165.527	82.4234	165.527	82.5164	165.527	82.4258	165.527	82.4586
171.387	83.7766	171.387	83.7448	171.387	83.7825	171.387	83.6885	171.387	83.7631	171.387	83.6112	171.387	83.7199	171.387	83.5179	171.387	83.6554	171.387	83.4149	171.387	83.572	171.387	83.3089	171.387	83.4716	171.387	83.2053	171.387	83.3559	171.387	83.1077	171.387	83.2262	171.387	83.0173	171.387	83.0847	171.387	82.9329	171.387	82.9354	171.387	82.8521	171.387	82.7846	171.387	82.7723	171.387	82.641	171.387	82.692	171.387	82.5148	171.387	82.6113	171.387	82.415	171.387	82.5323	171.387	82.3481	171.387	82.4583	171.387	82.316	171.387	82.3938	171.387	82.3165	171.387	82.3445
177.246	83.7218	177.246	83.7094	177.246	83.7057	177.246	83.6691	177.246	83.6617	177.246	83.6029	177.246	83.5917	177.246	83.514	177.246	83.4978	177.246	83.4066	177.246	83.3828	177.246	83.2856	177.246	83.2493	177.246	83.1555	177.246	83.0999	177.246	83.0206	177.246	82.9373	177.246	82.8838	177.246	82.7651	177.246	82.7473	177.246	82.5885	177.246	82.6125	177.246	82.4147	177.246	82.481	177.246	82.2531	177.246	82.3547	177.246	82.1134	177.246	82.2367	177.246	82.0044	177.246	82.1304	177.246	81.9308	177.246	82.0395	177.246	81.8937	177.246	81.967	177.246	81.8902	177.246	81.916
183.105	83.4032	183.105	83.392	183.105	83.3882	183.105	83.3556	183.105	83.3479	183.105	83.2964	183.105	83.2841	183.105	83.2181	183.105	83.1993	183.105	83.1255	183.105	83.0965	183.105	83.024	183.105	82.9783	183.105	82.9184	183.105	82.8471	183.105	82.8128	183.105	82.7055	183.105	82.7096	183.105	82.5564	183.105	82.6098	183.105	82.4045	183.105	82.5127	183.105	82.2566	183.105	82.4173	183.105	82.1216	183.105	82.3229	183.105	82.0089	183.105	82.2303	183.105	81.9266	183.105	82.141	183.105	81.8789	183.105	82.0578	183.105	81.8655	183.105	81.9841	183.105	81.8825	183.105	81.924
188.965	83.4502	188.965	83.4437	188.965	83.4228	188.965	83.4047	188.965	83.3615	188.965	83.3368	188.965	83.2686	188.965	83.2451	188.965	83.1474	188.965	83.1355	188.965	83.0024	188.965	83.014	188.965	82.8389	188.965	82.886	188.965	82.6628	188.965	82.7561	188.965	82.481	188.965	82.6279	188.965	82.3011	188.965	82.5037	188.965	82.1313	188.965	82.3849	188.965	81.9802	188.965	82.2724	188.965	81.856	188.965	82.1669	188.965	81.7647	188.965	82.0694	188.965	81.7092	188.965	81.9807	188.965	81.6881	188.965	81.9017	188.965	81.6962	188.965	81.8325	188.965	81.7268	188.965	81.7736
196.289	83.5439	196.289	83.5187	196.289	83.533	196.289	83.4596	196.289	83.4853	196.289	83.371	196.289	83.4013	196.289	83.2586	196.289	83.2826	196.289	83.1297	196.289	83.1317	196.289	82.992	196.289	82.9523	196.289	82.8523	196.289	82.75	196.289	82.7161	196.289	82.5327	196.289	82.5871	196.289	82.3111	196.289	82.4666	196.289	82.0981	196.289	82.3542	196.289	81.9073	196.289	82.2481	196.289	81.7513	196.289	82.1461	196.289	81.6387	196.289	82.0468	196.289	81.5733	196.289	81.9496	196.289	81.5527	196.289	81.8553	196.289	81.5704	196.289	81.766	196.289	81.6174	196.289	81.685
203.613	83.5094	203.613	83.4716	203.613	83.5018	203.613	83.3919	203.613	83.4481	203.613	83.2763	203.613	83.3502	203.613	83.1327	203.613	83.2112	203.613	82.9695	203.613	83.0354	203.613	82.7949	203.613	82.8278	203.613	82.6161	203.613	82.5942	203.613	82.4396	203.613	82.3428	203.613	82.2717	203.613	82.0856	203.613	82.1183	203.613	81.839	203.613	81.9849	203.613	81.6222	203.613	81.8748	203.613	81.4537	203.613	81.788	203.613	81.3456	203.613	81.7203	203.613	81.3001	203.613	81.6643	203.613	81.3081	203.613	81.6111	203.613	81.3537	203.613	81.5536	203.613	81.4188	203.613	81.4885
210.938	83.6139	210.938	83.5596	210.938	83.624	210.938	83.4618	210.938	83.591	210.938	83.3238	210.938	83.5173	210.938	83.1526	210.938	83.4053	210.938	82.9583	210.938	83.2577	210.938	82.7524	210.938	83.0776	210.938	82.5457	210.938	82.8686	210.938	82.3462	210.938	82.6356	210.938	82.1582	210.938	82.3856	210.938	81.9836	210.938	82.1294	210.938	81.8236	210.938	81.8819	210.938	81.6807	210.938	81.6607	210.938	81.5588	210.938	81.4828	210.938	81.4616	210.938	81.3584	210.938	81.3901	210.938	81.2877	210.938	81.3406	210.938	81.261	210.938	81.3061	210.938	81.2631	210.938	81.2806
218.262	83.4527	218.262	83.4281	218.262	83.4385	218.262	83.3628	218.262	83.3881	218.262	83.2567	218.262	83.3044	218.262	83.1124	218.262	83.1899	218.262	82.9349	218.262	83.0465	218.262	82.732	218.262	82.8765	218.262	82.5138	218.262	82.6833	218.262	82.2918	218.262	82.4728	218.262	82.0778	218.262	82.2543	218.262	81.8831	218.262	82.0401	218.262	81.717	218.262	81.8443	218.262	81.5853	218.262	81.6803	218.262	81.4902	218.262	81.5568	218.262	81.4296	218.262	81.4751	218.262	81.3978	218.262	81.4291	218.262	81.3868	218.262	81.4073	218.262	81.3873	218.262	81.3979	218.262	81.3921
225.586	83.473	225.586	83.4788	225.586	83.4166	225.586	83.4332	225.586	83.3133	225.586	83.3379	225.586	83.1687	225.586	83.198	225.586	82.9909	225.586	83.0216	225.586	82.7889	225.586	82.8193	225.586	82.5724	225.586	82.6026	225.586	82.351	225.586	82.3828	225.586	82.1338	225.586	82.171	225.586	81.9302	225.586	81.9784	225.586	81.7508	225.586	81.8164	225.586	81.607	225.586	81.6948	225.586	81.5084	225.586	81.6185	225.586	81.4595	225.586	81.5848	225.586	81.4564	225.586	81.5826	225.586	81.4864	225.586	81.5952	225.586	81.5314	225.586	81.6052	225.586	81.5735	225.586	81.5997
232.91	83.6068	232.91	83.5937	232.91	83.5654	232.91	83.529	232.91	83.467	232.91	83.4167	232.91	83.3106	232.91	83.2617	232.91	83.0969	232.91	83.0711	232.91	82.8302	232.91	82.8538	232.91	82.5189	232.91	82.6197	232.91	82.1773	232.91	82.3788	232.91	81.8261	232.91	82.1407	232.91	81.4924	232.91	81.9168	232.91	81.2076	232.91	81.7216	232.91	81.0014	232.91	81.5705	232.91	80.8935	232.91	81.4746	232.91	80.8857	232.91	81.4337	232.91	80.9595	232.91	81.4329	232.91	81.0824	232.91	81.4467	232.91	81.2178	232.91	81.4472	232.91	81.3346	232.91	81.4129
241.699	83.6049	241.699	83.5605	241.699	83.5987	241.699	83.466	241.699	83.5416	241.699	83.3237	241.699	83.4331	241.699	83.1379	241.699	83.2719	241.699	82.9169	241.699	83.0567	241.699	82.6718	241.699	82.7873	241.699	82.4162	241.699	82.4673	241.699	82.1628	241.699	82.1062	241.699	81.9217	241.699	81.7224	241.699	81.6997	241.699	81.3453	241.699	81.5027	241.699	81.014	241.699	81.3378	241.699	80.7701	241.699	81.2129	241.699	80.6421	241.699	81.1327	241.699	80.6306	241.699	81.0924	241.699	80.706	241.699	81.0754	241.699	80.8216	241.699	81.0572	241.699	80.9335	241.699	81.014
250.488	83.5163	250.488	83.4999	250.488	83.4729	250.488	83.423	250.488	83.3747	250.488	83.2883	250.488	83.2304	250.488	83.1012	250.488	83.0499	250.488	82.8693	250.488	82.8409	250.488	82.6036	250.488	82.6069	250.488	82.3183	250.488	82.3479	250.488	82.0299	250.488	82.0633	250.488	81.7541	250.488	81.7575	250.488	81.5032	250.488	81.4432	250.488	81.2856	250.488	81.1436	250.488	81.1082	250.488	80.8889	250.488	80.9759	250.488	80.7074	250.488	80.8892	250.488	80.613	250.488	80.8404	250.488	80.5977	250.488	80.8132	250.488	80.6355	250.488	80.7878	250.488	80.6945	250.488	80.7492
259.277	83.9375	259.277	83.9019	259.277	83.9075	259.277	83.8019	259.277	83.8107	259.277	83.6385	259.277	83.6469	259.277	83.4138	259.277	83.4185	259.277	83.133	259.277	83.132	259.277	82.8072	259.277	82.7994	259.277	82.4554	259.277	82.4379	259.277	82.1042	259.277	82.0686	259.277	81.7836	259.277	81.7142	259.277	81.5184	259.277	81.3965	259.277	81.3201	259.277	81.1347	259.277	81.1853	259.277	80.9447	259.277	81.1014	259.277	80.8359	259.277	81.0551	259.277	80.8061	259.277	81.0356	259.277	80.8376	259.277	81.0317	259.277	80.901	259.277	81.0284	259.277	80.9653	259.277	81.0094
268.066	83.7574	268.066	83.7311	268.066	83.7232	268.066	83.6464	268.066	83.6269	268.066	83.5065	268.066	83.4671	268.066	83.3145	268.066	83.2429	268.066	83.0736	268.066	82.9552	268.066	82.7881	268.066	82.61	268.066	82.4663	268.066	82.2216	268.066	82.1247	268.066	81.815	268.066	81.7895	268.066	81.4256	268.066	81.4935	268.066	81.0937	268.066	81.2671	268.066	80.855	268.066	81.1273	268.066	80.7303	268.066	81.0709	268.066	80.7183	268.066	81.0777	268.066	80.7954	268.066	81.1204	268.066	80.9221	268.066	81.172	268.066	81.0543	268.066	81.208	268.066	81.1558	268.066	81.2072
276.855	83.5949	276.855	83.56	276.855	83.5841	276.855	83.4775	276.855	83.5271	276.855	83.3415	276.855	83.4214	276.855	83.1433	276.855	83.2618	276.855	82.8751	276.855	83.039	276.855	82.5363	276.855	82.7422	276.855	82.1403	276.855	82.3653	276.855	81.7177	276.855	81.9184	276.855	81.3145	276.855	81.4359	276.855	80.9828	276.855	80.976	276.855	80.7658	276.855	80.6045	276.855	80.6806	276.855	80.369	276.855	80.7095	276.855	80.2803	276.855	80.8057	276.855	80.3163	276.855	80.9118	276.855	80.4381	276.855	80.9788	276.855	80.6031	276.855	80.9783	276.855	80.7705	276.855	80.9045
287.109	83.8836	287.109	83.8482	287.109	83.8343	287.109	83.7264	287.109	83.7071	287.109	83.524	287.109	83.5122	287.109	83.2538	287.109	83.2624	287.109	82.9322	287.109	82.9714	287.109	82.5743	287.109	82.6507	287.109	82.1921	287.109	82.305	287.109	81.798	287.109	81.9322	287.109	81.4109	287.109	81.533	287.109	81.0586	287.109	81.125	287.109	80.7733	287.109	80.7536	287.109	80.5807	287.109	80.4814	287.109	80.4901	287.109	80.3547	287.109	80.49	287.109	80.3709	287.109	80.5517	287.109	80.4783	287.109	80.6382	287.109	80.608	287.109	80.7115	287.109	80.7047	287.109	80.7399
297.363	83.8868	297.363	83.8949	297.363	83.8193	297.363	83.8455	297.363	83.6894	297.363	83.7416	297.363	83.4907	297.363	83.586	297.363	83.2141	297.363	83.3762	297.363	82.8543	297.363	83.1016	297.363	82.4173	297.363	82.7475	297.363	81.9274	297.363	82.3062	297.363	81.4275	297.363	81.7935	297.363	80.9735	297.363	81.2646	297.363	80.624	297.363	80.8151	297.363	80.425	297.363	80.5504	297.363	80.3923	297.363	80.5217	297.363	80.5026	297.363	80.6864	297.363	80.7037	297.363	80.9388	297.363	80.936	297.363	81.1742	297.363	81.1483	297.363	81.3258	297.363	81.3018	297.363	81.3674
307.617	84.1362	307.617	84.0851	307.617	84.1075	307.617	83.9534	307.617	84.0052	307.617	83.7469	307.617	83.8372	307.617	83.48	307.617	83.607	307.617	83.1745	307.617	83.3082	307.617	82.8548	307.617	82.9255	307.617	82.5386	307.617	82.4435	307.617	82.229	307.617	81.8611	307.617	81.9155	307.617	81.2069	307.617	81.5845	307.617	80.5509	307.617	81.2356	307.617	80.0046	307.617	80.8959	307.617	79.6906	307.617	80.6245	307.617	79.6749	307.617	80.4891	307.617	79.9112	307.617	80.5164	307.617	80.2677	307.617	80.659	307.617	80.605	307.617	80.8179	307.617	80.8275	307.617	80.8945
319.336	83.9959	319.336	83.9469	319.336	83.962	319.336	83.8121	319.336	83.8473	319.336	83.5863	319.336	83.6552	319.336	83.264	319.336	83.3915	319.336	82.8452	319.336	83.0631	319.336	82.3418	319.336	82.677	319.336	81.7825	319.336	82.2405	319.336	81.2146	319.336	81.7658	319.336	80.7033	319.336	81.2752	319.336	80.3226	319.336	80.8083	319.336	80.1283	319.336	80.4233	319.336	80.1253	319.336	80.1837	319.336	80.2641	319.336	80.1271	319.336	80.4731	319.336	80.2374	319.336	80.6896	319.336	80.4506	319.336	80.8671	319.336	80.6861	319.336	80.9705	319.336	80.8756	319.336	80.9758
329.59	83.9889	329.59	83.9604	329.59	83.9615	329.59	83.879	329.59	83.8699	329.59	83.7389	329.59	83.7048	329.59	83.5257	329.59	83.4583	329.59	83.22	329.59	83.1252	329.59	82.8045	329.59	82.7033	329.59	82.2721	329.59	82.1945	329.59	81.6341	329.59	81.6099	329.59	80.9295	329.59	80.9791	329.59	80.2388	329.59	80.3633	329.59	79.6889	329.59	79.8599	329.59	79.4159	329.59	79.5792	329.59	79.4765	329.59	79.5843	329.59	79.7944	329.59	79.8374	329.59	80.2163	329.59	80.2178	329.59	80.6013	329.59	80.5893	329.59	80.8597	329.59	80.8509	329.59	80.9469
341.309	83.9396	341.309	83.9076	341.309	83.8889	341.309	83.7943	341.309	83.7592	341.309	83.6065	341.309	83.5564	341.309	83.355	341.309	83.2869	341.309	83.0483	341.309	82.9559	341.309	82.6871	341.309	82.567	341.309	82.2633	341.309	82.1241	341.309	81.7684	341.309	81.6381	341.309	81.2079	341.309	81.1358	341.309	80.6204	341.309	80.6659	341.309	80.0926	341.309	80.2965	341.309	79.7479	341.309	80.0931	341.309	79.6809	341.309	80.0838	341.309	79.8771	341.309	80.2369	341.309	80.2168	341.309	80.4752	341.309	80.5589	341.309	80.7113	341.309	80.8056	341.309	80.8729	341.309	80.9121
353.027	84.0723	353.027	84.1205	353.027	83.9638	353.027	84.0993	353.027	83.795	353.027	83.9919	353.027	83.5567	353.027	83.7783	353.027	83.2323	353.027	83.4439	353.027	82.8005	353.027	82.9877	353.027	82.2433	353.027	82.4255	353.027	81.5586	353.027	81.7879	353.027	80.7756	353.027	81.1157	353.027	79.971	353.027	80.4599	353.027	79.2757	353.027	79.8889	353.027	78.85	353.027	79.4918	353.027	78.8075	353.027	79.3561	353.027	79.1316	353.027	79.5117	353.027	79.6771	353.027	79.8904	353.027	80.2562	353.027	80.3518	353.027	80.7167	353.027	80.7491	353.027	80.9676	353.027	80.9741
366.211	84.1945	366.211	84.0644	366.211	84.2366	366.211	83.8611	366.211	84.1811	366.211	83.6079	366.211	84.0196	366.211	83.3304	366.211	83.744	366.211	83.0414	366.211	83.3486	366.211	82.7296	366.211	82.83	366.211	82.3628	366.211	82.1842	366.211	81.9061	366.211	81.4078	366.211	81.3451	366.211	80.5175	366.211	80.714	366.211	79.5924	366.211	80.1179	366.211	78.812	366.211	79.7192	366.211	78.4021	366.211	79.6373	366.211	78.4472	366.211	79.8271	366.211	78.8043	366.211	80.1098	366.211	79.2628	366.211	80.3171	366.211	79.6892	366.211	80.3705	366.211	80.031	366.211	80.2663
379.395	84.6192	379.395	84.5912	379.395	84.5732	379.395	84.4821	379.395	84.466	379.395	84.2901	379.395	84.3092	379.395	84.0114	379.395	84.1028	379.395	83.6335	379.395	83.8285	379.395	83.1357	379.395	83.4537	379.395	82.5	379.395	82.9447	379.395	81.7281	379.395	82.2822	379.395	80.8572	379.395	81.4762	379.395	79.9667	379.395	80.5824	379.395	79.1747	379.395	79.7235	379.395	78.6249	379.395	79.0928	379.395	78.4484	379.395	78.8777	379.395	78.682	379.395	79.1054	379.395	79.208	379.395	79.5984	379.395	79.8124	379.395	80.1113	379.395	80.2944	379.395	80.455	379.395	80.525
392.578	84.4427	392.578	84.4289	392.578	84.4159	392.578	84.3794	392.578	84.3322	392.578	84.2807	392.578	84.1758	392.578	84.1058	392.578	83.9372	392.578	83.8259	392.578	83.6103	392.578	83.4197	392.578	83.1843	392.578	82.8734	392.578	82.6398	392.578	82.1797	392.578	81.9578	392.578	81.346	392.578	81.1433	392.578	80.424	392.578	80.2661	392.578	79.5559	392.578	79.5046	392.578	78.9798	392.578	79.114	392.578	78.8942	392.578	79.2332	392.578	79.2654	392.578	79.7276	392.578	79.8655	392.578	80.3272	392.578	80.4646	392.578	80.8237	392.578	80.9156	392.578	81.1091	392.578	81.1409
405.762	84.3203	405.762	84.2829	405.762	84.2687	405.762	84.1565	405.762	84.1383	405.762	83.9561	405.762	83.9404	405.762	83.7038	405.762	83.6787	405.762	83.4122	405.762	83.3453	405.762	83.0689	405.762	82.9233	405.762	82.6405	405.762	82.3954	405.762	82.0913	405.762	81.7534	405.762	81.4069	405.762	81.0089	405.762	80.6138	405.762	80.2106	405.762	79.8013	405.762	79.4765	405.762	79.1466	405.762	79.0154	405.762	78.8789	405.762	79.0282	405.762	79.1012	405.762	79.4916	405.762	79.6559	405.762	80.1392	405.762	80.2729	405.762	80.6921	405.762	80.758	405.762	80.998	405.762	81.015
420.41	84.7659	420.41	84.7628	420.41	84.6885	420.41	84.6686	420.41	84.5481	420.41	84.4872	420.41	84.3525	420.41	84.231	420.41	84.0868	420.41	83.9055	420.41	83.7134	420.41	83.4948	420.41	83.1827	420.41	82.9603	420.41	82.4466	420.41	82.2559	420.41	81.4732	420.41	81.3585	420.41	80.2745	420.41	80.318	420.41	78.9728	420.41	79.3224	420.41	77.8935	420.41	78.6926	420.41	77.4845	420.41	78.6528	420.41	77.8681	420.41	79.089	420.41	78.6908	420.41	79.7082	420.41	79.5583	420.41	80.2827	420.41	80.2556	420.41	80.6823	420.41	80.6908	420.41	80.8314
435.059	84.115	435.059	84.0584	435.059	84.1287	435.059	83.9713	435.059	84.0921	435.059	83.8579	435.059	84.0092	435.059	83.7057	435.059	83.8872	435.059	83.488	435.059	83.7166	435.059	83.1742	435.059	83.4568	435.059	82.7369	435.059	83.0428	435.059	82.1454	435.059	82.4034	435.059	81.3544	435.059	81.4849	435.059	80.3211	435.059	80.2908	435.059	79.0915	435.059	78.9662	435.059	77.9703	435.059	77.9002	435.059	77.5442	435.059	77.5775	435.059	78.0638	435.059	78.0456	435.059	79.0476	435.059	78.8863	435.059	79.9437	435.059	79.7161	435.059	80.4886	435.059	80.3291	435.059	80.6104
451.172	84.7287	451.172	84.7036	451.172	84.7072	451.172	84.632	451.172	84.6226	451.172	84.4921	451.172	84.4562	451.172	84.2568	451.172	84.1947	451.172	83.9148	451.172	83.8282	451.172	83.4699	451.172	83.339	451.172	82.9163	451.172	82.6954	451.172	82.2201	451.172	81.8588	451.172	81.3376	451.172	80.8137	451.172	80.2631	451.172	79.6193	451.172	79.0935	451.172	78.4967	451.172	78.1085	451.172	77.8795	451.172	77.7651	451.172	78.1271	451.172	78.306	451.172	79.0439	451.172	79.3808	451.172	80.1105	451.172	80.4519	451.172	80.9665	451.172	81.2091	451.172	81.4626	451.172	81.5496
465.82	84.8018	465.82	84.6815	465.82	84.8267	465.82	84.4946	465.82	84.7544	465.82	84.2809	465.82	84.6033	465.82	84.0613	465.82	84.3912	465.82	83.826	465.82	84.1173	465.82	83.547	465.82	83.7552	465.82	83.1883	465.82	83.2598	465.82	82.6935	465.82	82.5759	465.82	81.9783	465.82	81.6403	465.82	80.9633	465.82	80.3993	465.82	79.6492	465.82	78.9033	465.82	78.2367	465.82	77.5629	465.82	77.2331	465.82	77.2027	465.82	77.1573	465.82	77.9735	465.82	77.8734	465.82	79.0433	465.82	78.8121	465.82	79.8178	465.82	79.5889	465.82	80.1478	465.82	80.0546
483.398	84.6398	483.398	84.6207	483.398	84.571	483.398	84.516	483.398	84.4454	483.398	84.3689	483.398	84.2936	483.398	84.2235	483.398	84.1176	483.398	84.0643	483.398	83.8857	483.398	83.8034	483.398	83.5433	483.398	83.3343	483.398	83.0221	483.398	82.5914	483.398	82.2562	483.398	81.5714	483.398	81.2189	483.398	80.3327	483.398	79.9859	483.398	79.0214	483.398	78.7987	483.398	77.9627	483.398	78.0416	483.398	77.6419	483.398	78.0151	483.398	78.2035	483.398	78.6402	483.398	79.176	483.398	79.521	483.398	80.0536	483.398	80.2819	483.398	80.6233	483.398	80.7382	483.398	80.8506
499.512	84.4698	499.512	84.4333	499.512	84.4632	499.512	84.336	499.512	84.4168	499.512	84.163	499.512	84.3266	499.512	83.9341	499.512	84.1848	499.512	83.7034	499.512	83.9678	499.512	83.4985	499.512	83.6284	499.512	83.2591	499.512	83.1095	499.512	82.8617	499.512	82.3617	499.512	82.1881	499.512	81.3472	499.512	81.1601	499.512	80.052	499.512	79.7752	499.512	78.5708	499.512	78.2632	499.512	77.3292	499.512	77.3263	499.512	77.0792	499.512	77.6251	499.512	77.9415	499.512	78.7349	499.512	79.1883	499.512	79.8905	499.512	80.2529	499.512	80.7162	499.512	80.9097	499.512	81.0712
517.09	84.9831	517.09	84.8788	517.09	84.991	517.09	84.7025	517.09	84.9159	517.09	84.4984	517.09	84.7941	517.09	84.2892	517.09	84.6532	517.09	84.0495	517.09	84.4837	517.09	83.7237	517.09	84.2299	517.09	83.2622	517.09	83.7998	517.09	82.6284	517.09	83.0833	517.09	81.7705	517.09	81.9794	517.09	80.613	517.09	80.445	517.09	79.1474	517.09	78.6081	517.09	77.6933	517.09	77.0224	517.09	77.0911	517.09	76.6961	517.09	77.803	517.09	77.8171	517.09	79.1456	517.09	79.3995	517.09	80.4019	517.09	80.7007	517.09	81.2724	517.09	81.4642	517.09	81.6456
536.133	84.0741	536.133	84.0447	536.133	84.004	536.133	83.9244	536.133	83.8423	536.133	83.7364	536.133	83.6137	536.133	83.5194	536.133	83.3491	536.133	83.3178	536.133	83.0697	536.133	83.1422	536.133	82.7765	536.133	82.9225	536.133	82.4404	536.133	82.5116	536.133	81.9894	536.133	81.7438	536.133	81.3101	536.133	80.5088	536.133	80.3006	536.133	78.8448	536.133	79.037	536.133	77.1595	536.133	78.0489	536.133	76.4925	536.133	78.0748	536.133	77.4436	536.133	78.9429	536.133	79.0224	536.133	79.9151	536.133	80.2958	536.133	80.6436	536.133	81.014	536.133	81.0864	536.133	81.236
555.176	85.1815	555.176	85.1181	555.176	85.138	555.176	84.9274	555.176	85.0196	555.176	84.627	555.176	84.8472	555.176	84.273	555.176	84.6214	555.176	83.9276	555.176	84.3206	555.176	83.6097	555.176	83.887	555.176	83.2659	555.176	83.2145	555.176	82.7795	555.176	82.1616	555.176	81.9978	555.176	80.5897	555.176	80.7487	555.176	78.4173	555.176	78.85	555.176	75.807	555.176	76.2761	555.176	73.9711	555.176	74.2321	555.176	74.891	555.176	75.3162	555.176	77.2905	555.176	77.8661	555.176	79.4038	555.176	79.8924	555.176	80.842	555.176	81.1511	555.176	81.6012	555.176	81.7062
574.219	84.8602	574.219	84.8442	574.219	84.8017	574.219	84.7583	574.219	84.6877	574.219	84.6084	574.219	84.563	574.219	84.3994	574.219	84.4567	574.219	84.1551	574.219	84.3462	574.219	83.909	574.219	84.1628	574.219	83.6318	574.219	83.8142	574.219	83.1744	574.219	83.1928	574.219	82.3216	574.219	82.165	574.219	80.8832	574.219	80.5576	574.219	78.7499	574.219	78.2333	574.219	76.1781	574.219	75.6492	574.219	74.8441	574.219	75.0229	574.219	76.191	574.219	76.8438	574.219	78.2375	574.219	78.8089	574.219	79.8021	574.219	80.1854	574.219	80.7709	574.219	80.9631	574.219	81.1588
594.727	84.3325	594.727	84.2047	594.727	84.3379	594.727	83.9676	594.727	84.2444	594.727	83.7016	594.727	84.1048	594.727	83.5429	594.727	83.9921	594.727	83.5587	594.727	83.95	594.727	83.6666	594.727	83.926	594.727	83.7353	594.727	83.7598	594.727	83.6518	594.727	83.2475	594.727	83.2558	594.727	82.2033	594.727	82.3077	594.727	80.4784	594.727	80.5362	594.727	78.0053	594.727	77.7105	594.727	75.3151	594.727	74.313	594.727	74.9363	594.727	74.2228	594.727	77.2675	594.727	77.3583	594.727	79.5506	594.727	79.8678	594.727	81.0344	594.727	81.3029	594.727	81.7835	594.727	81.8848
615.234	84.5979	615.234	84.5672	615.234	84.4745	615.234	84.3573	615.234	84.2714	615.234	84.02	615.234	84.053	615.234	83.6585	615.234	83.8529	615.234	83.3795	615.234	83.6949	615.234	83.2292	615.234	83.5866	615.234	83.1411	615.234	83.4459	615.234	82.948	615.234	83.059	615.234	82.4363	615.234	82.1527	615.234	81.3858	615.234	80.482	615.234	79.5558	615.234	77.8595	615.234	76.6602	615.234	74.4955	615.234	73.2784	615.234	73.1333	615.234	74.1769	615.234	75.7064	615.234	77.693	615.234	78.5313	615.234	80.1254	615.234	80.4943	615.234	81.4489	615.234	81.6045	615.234	81.9157
637.207	84.6424	637.207	84.5619	637.207	84.4961	637.207	84.292	637.207	84.1665	637.207	83.8895	637.207	83.8002	637.207	83.4229	637.207	83.5673	637.207	83.0367	637.207	83.5275	637.207	82.9219	637.207	83.6138	637.207	83.097	637.207	83.696	637.207	83.3267	637.207	83.5737	637.207	83.293	637.207	82.9684	637.207	82.6943	637.207	81.561	637.207	81.2219	637.207	79.0085	637.207	78.5179	637.207	74.9973	637.207	74.4937	637.207	71.524	637.207	72.8813	637.207	74.4451	637.207	76.2446	637.207	77.9574	637.207	79.119	637.207	80.1012	637.207	80.7644	637.207	81.1883	637.207	81.409
659.18	84.6905	659.18	84.6852	659.18	84.4411	659.18	84.4236	659.18	83.9584	659.18	83.9263	659.18	83.3524	659.18	83.2614	659.18	82.8738	659.18	82.6024	659.18	82.7176	659.18	82.2159	659.18	82.8062	659.18	82.1906	659.18	82.9161	659.18	82.2822	659.18	82.8017	659.18	82.1951	659.18	82.2114	659.18	81.7207	659.18	80.9414	659.18	80.6012	659.18	78.7856	659.18	78.4418	659.18	75.4548	659.18	74.9199	659.18	72.1835	659.18	72.412	659.18	74.2031	659.18	75.3233	659.18	77.5833	659.18	78.4469	659.18	79.726	659.18	80.2648	659.18	80.8079	659.18	80.9955
682.617	84.6622	682.617	84.7105	682.617	84.331	682.617	84.4747	682.617	83.764	682.617	83.9512	682.617	83.0891	682.617	83.1864	682.617	82.4509	682.617	82.3754	682.617	81.9872	682.617	81.8285	682.617	81.8287	682.617	81.7013	682.617	81.9329	682.617	81.8068	682.617	82.0063	682.617	81.7899	682.617	81.6813	682.617	81.2964	682.617	80.6309	682.617	79.9614	682.617	78.4927	682.617	77.3826	682.617	74.7929	682.617	73.5772	682.617	70.9977	682.617	72.6267	682.617	74.0972	682.617	76.2108	682.617	78.0347	682.617	79.1858	682.617	80.4152	682.617	80.9586	682.617	81.5763	682.617	81.7321
707.52	84.8854	707.52	84.953	707.52	84.5365	707.52	84.6511	707.52	84.0275	707.52	84.0506	707.52	83.3988	707.52	83.3156	707.52	82.7042	707.52	82.5455	707.52	82.136	707.52	81.8498	707.52	81.9099	707.52	81.5751	707.52	82.0541	707.52	81.8353	707.52	82.2682	707.52	81.9735	707.52	82.0189	707.52	81.3314	707.52	80.8461	707.52	79.6398	707.52	78.4454	707.52	76.5982	707.52	74.6009	707.52	71.6709	707.52	70.6849	707.52	69.9198	707.52	72.9615	707.52	74.9392	707.52	76.8838	707.52	78.4317	707.52	79.4706	707.52	80.3569	707.52	80.8389	707.52	81.1175
732.422	84.6266	732.422	84.5577	732.422	84.398	732.422	84.2543	732.422	83.8478	732.422	83.7463	732.422	83.0737	732.422	83.025	732.422	82.3075	732.422	82.1359	732.422	81.7831	732.422	81.2967	732.422	81.5692	732.422	80.8424	732.422	81.5819	732.422	80.892	732.422	81.6647	732.422	81.0808	732.422	81.5621	732.422	80.8448	732.422	80.9178	732.422	79.8197	732.422	79.2556	732.422	77.6978	732.422	75.8156	732.422	73.787	732.422	70.0307	732.422	69.3626	732.422	71.2312	732.422	73.227	732.422	75.7535	732.422	77.1435	732.422	78.351	732.422	79.2404	732.422	79.7116	732.422	80.019
757.324	84.2332	757.324	84.2779	757.324	83.9747	757.324	84.1267	757.324	83.4146	757.324	83.6704	757.324	82.4693	757.324	82.7583	757.324	81.2201	757.324	81.4961	757.324	80.1325	757.324	80.4581	757.324	79.8481	757.324	80.3149	757.324	80.3082	757.324	80.877	757.324	80.8609	757.324	81.2573	757.324	81.0106	757.324	80.9368	757.324	80.3491	757.324	79.7984	757.324	78.4963	757.324	77.5036	757.324	75.303	757.324	73.0159	757.324	70.9723	757.324	66.9151	757.324	70.4663	757.324	72.7013	757.324	75.1255	757.324	77.0122	757.324	78.0392	757.324	79.0197	757.324	79.3348	757.324	79.6499
785.156	84.3419	785.156	84.38	785.156	84.072	785.156	84.1158	785.156	83.5838	785.156	83.551	785.156	82.8436	785.156	82.7314	785.156	81.9365	785.156	81.6285	785.156	81.0733	785.156	80.3375	785.156	80.45	785.156	79.4979	785.156	80.3142	785.156	79.7804	785.156	80.5801	785.156	80.5435	785.156	80.6924	785.156	80.8085	785.156	80.2733	785.156	80.2084	785.156	78.9915	785.156	78.4279	785.156	76.1395	785.156	74.4874	785.156	70.6308	785.156	68.2785	785.156	69.5656	785.156	73.1274	785.156	75.417	785.156	77.7425	785.156	78.6889	785.156	80.1077	785.156	80.3661	785.156	80.8906
811.523	83.9197	811.523	83.9909	811.523	83.7727	811.523	83.8643	811.523	83.3878	811.523	83.2343	811.523	82.5676	811.523	82.0654	811.523	81.2626	811.523	80.5177	811.523	79.8788	811.523	78.8169	811.523	79.2781	811.523	77.9945	811.523	79.7009	811.523	78.4283	811.523	80.5861	811.523	79.2916	811.523	81.1906	811.523	80.1707	811.523	80.8863	811.523	80.3367	811.523	79.3801	811.523	78.9994	811.523	76.7416	811.523	75.334	811.523	73.535	811.523	69.3093	811.523	72.3431	811.523	71.6327	811.523	75.3012	811.523	75.4691	811.523	77.9434	811.523	77.6768	811.523	79.0644	811.523	78.9099
840.82	84.7671	840.82	84.6118	840.82	84.5477	840.82	84.0719	840.82	83.9507	840.82	83.2419	840.82	82.9667	840.82	82.235	840.82	81.6008	840.82	80.9702	840.82	79.9458	840.82	79.2851	840.82	78.6516	840.82	77.5543	840.82	78.5699	840.82	77.2038	840.82	79.2997	840.82	78.6263	840.82	79.933	840.82	80.0595	840.82	79.829	840.82	80.2199	840.82	78.42	840.82	78.6934	840.82	74.929	840.82	75.1362	840.82	68.485	840.82	69.3127	840.82	69.8879	840.82	72.2912	840.82	75.7373	840.82	77.183	840.82	78.7863	840.82	79.5888	840.82	80.182	840.82	80.4717
870.117	84.741	870.117	84.7886	870.117	84.6206	870.117	84.637	870.117	84.3725	870.117	84.1651	870.117	83.8131	870.117	83.42	870.117	82.7359	870.117	82.2182	870.117	81.0862	870.117	80.0725	870.117	79.355	870.117	77.2966	870.117	78.7731	870.117	75.9254	870.117	79.5003	870.117	76.6067	870.117	80.2488	870.117	78.0152	870.117	80.1908	870.117	78.7466	870.117	79.012	870.117	77.9095	870.117	76.4666	870.117	74.1717	870.117	72.3363	870.117	64.1412	870.117	70.5552	870.117	72.5009	870.117	75.5138	870.117	77.1356	870.117	78.5092	870.117	79.1313	870.117	79.671	870.117	79.8783
900.879	85.1292	900.879	84.959	900.879	85.0847	900.879	84.8074	900.879	84.5634	900.879	84.4656	900.879	83.617	900.879	83.6658	900.879	82.4008	900.879	82.4527	900.879	80.957	900.879	80.8061	900.879	79.271	900.879	78.6912	900.879	78.1831	900.879	77.2328	900.879	78.9787	900.879	77.6404	900.879	80.0689	900.879	78.4596	900.879	80.3776	900.879	78.456	900.879	79.5092	900.879	76.8363	900.879	76.0832	900.879	72.1613	900.879	69.4386	900.879	62.8516	900.879	71.1472	900.879	73.3275	900.879	75.9039	900.879	78.5511	900.879	79.3081	900.879	80.9734	900.879	81.2503	900.879	81.7844
933.105	85.0879	933.105	85.0262	933.105	85.0621	933.105	84.6372	933.105	84.9184	933.105	83.936	933.105	84.4546	933.105	83.2522	933.105	83.4413	933.105	82.4158	933.105	81.6083	933.105	80.841	933.105	79.1231	933.105	78.5249	933.105	77.5948	933.105	76.5659	933.105	78.3851	933.105	76.4949	933.105	79.7401	933.105	78.103	933.105	79.9475	933.105	79.2863	933.105	79.1067	933.105	78.8598	933.105	77.0596	933.105	75.8414	933.105	71.1835	933.105	66.9034	933.105	67.0218	933.105	68.1512	933.105	75.8148	933.105	76.2989	933.105	78.7662	933.105	79.3013	933.105	79.7744	933.105	80.1026
965.332	84.844	965.332	84.7144	965.332	84.7661	965.332	84.6926	965.332	84.2656	965.332	84.485	965.332	83.6043	965.332	83.7335	965.332	82.8199	965.332	82.4991	965.332	81.5179	965.332	80.712	965.332	79.4346	965.332	78.0916	965.332	77.1896	965.332	75.0643	965.332	76.9384	965.332	74.511	965.332	78.3439	965.332	76.7106	965.332	79.1773	965.332	78.1722	965.332	78.472	965.332	78.4278	965.332	75.9024	965.332	76.8528	965.332	70.2811	965.332	70.5637	965.332	64.6044	965.332	65.0079	965.332	74.7031	965.332	75.2678	965.332	78.523	965.332	78.7217	965.332	79.8611	965.332	79.9387
1,000.49	84.1205	1,000.49	83.8937	1,000.49	84.2477	1,000.49	83.618	1,000.49	84.0498	1,000.49	83.2468	1,000.49	83.5623	1,000.49	82.9318	1,000.49	83.0281	1,000.49	82.6853	1,000.49	82.0192	1,000.49	81.6735	1,000.49	79.9212	1,000.49	79.3827	1,000.49	77.0741	1,000.49	77.0419	1,000.49	76.2558	1,000.49	75.3627	1,000.49	78.0141	1,000.49	75.5249	1,000.49	78.7681	1,000.49	77.9143	1,000.49	78.0577	1,000.49	78.5225	1,000.49	75.5375	1,000.49	75.6277	1,000.49	70.0123	1,000.49	63.9918	1,000.49	60.4286	1,000.49	69.6695	1,000.49	72.8487	1,000.49	76.6283	1,000.49	77.7392	1,000.49	79.6543	1,000.49	79.8306	1,000.49	80.6189
1,035.64	83.0971	1,035.64	83.233	1,035.64	82.954	1,035.64	83.1751	1,035.64	82.7438	1,035.64	82.7189	1,035.64	82.4426	1,035.64	82.083	1,035.64	81.9095	1,035.64	81.4658	1,035.64	80.8919	1,035.64	80.5176	1,035.64	79.2559	1,035.64	79.0158	1,035.64	76.8554	1,035.64	76.7957	1,035.64	74.4631	1,035.64	74.5108	1,035.64	74.9746	1,035.64	75.6034	1,035.64	76.2041	1,035.64	77.5727	1,035.64	76.2793	1,035.64	78.7244	1,035.64	75.4047	1,035.64	77.9311	1,035.64	72.4725	1,035.64	73.182	1,035.64	62.3955	1,035.64	53.5617	1,035.64	69.3771	1,035.64	72.1623	1,035.64	75.3889	1,035.64	76.391	1,035.64	77.8553	1,035.64	78.0104
1,072.27	82.8581	1,072.27	82.8894	1,072.27	82.4953	1,072.27	82.857	1,072.27	82.0753	1,072.27	82.6796	1,072.27	81.7051	1,072.27	82.3159	1,072.27	81.1847	1,072.27	81.9565	1,072.27	80.4149	1,072.27	81.0119	1,072.27	78.83	1,072.27	79.2569	1,072.27	76.0685	1,072.27	77.8044	1,072.27	73.7971	1,072.27	76.1466	1,072.27	73.3556	1,072.27	73.8345	1,072.27	74.7375	1,072.27	74.8802	1,072.27	75.626	1,072.27	76.4118	1,072.27	74.1682	1,072.27	75.3514	1,072.27	71.3481	1,072.27	68.8587	1,072.27	64.4726	1,072.27	66.7922	1,072.27	72.529	1,072.27	73.7562	1,072.27	77.1287	1,072.27	76.9989	1,072.27	78.2267	1,072.27	78.2605
1,108.89	81.9146	1,108.89	81.8546	1,108.89	81.8898	1,108.89	81.7197	1,108.89	81.5862	1,108.89	81.4558	1,108.89	81.1403	1,108.89	81.0231	1,108.89	80.4082	1,108.89	80.4772	1,108.89	78.8115	1,108.89	79.528	1,108.89	76.7565	1,108.89	77.5587	1,108.89	74.5101	1,108.89	75.2901	1,108.89	70.5327	1,108.89	74.0154	1,108.89	70.7725	1,108.89	74.3716	1,108.89	73.7334	1,108.89	75.2458	1,108.89	74.713	1,108.89	75.4533	1,108.89	71.7404	1,108.89	74.0787	1,108.89	64.7853	1,108.89	68.9876	1,108.89	60.9796	1,108.89	58.3977	1,108.89	68.4706	1,108.89	71.6229	1,108.89	74.2045	1,108.89	75.2546	1,108.89	76.2712	1,108.89	76.6833
1,148.44	81.8256	1,148.44	81.6901	1,148.44	81.4875	1,148.44	81.3271	1,148.44	81.1398	1,148.44	81.1758	1,148.44	80.5521	1,148.44	80.7136	1,148.44	79.6232	1,148.44	80.0008	1,148.44	78.5759	1,148.44	79.5752	1,148.44	77.4257	1,148.44	77.9618	1,148.44	75.6008	1,148.44	74.7577	1,148.44	72.6162	1,148.44	71.9933	1,148.44	70.4764	1,148.44	71.2923	1,148.44	69.4386	1,148.44	74.0732	1,148.44	69.9319	1,148.44	75.2829	1,148.44	70.0186	1,148.44	73.4062	1,148.44	67.5412	1,148.44	66.0555	1,148.44	59.6213	1,148.44	64.0029	1,148.44	68.305	1,148.44	72.1485	1,148.44	74.1629	1,148.44	76.093	1,148.44	76.1062	1,148.44	77.1733
1,189.45	81.4476	1,189.45	81.5066	1,189.45	81.2982	1,189.45	81.5593	1,189.45	81.0709	1,189.45	81.0992	1,189.45	81.0913	1,189.45	80.0601	1,189.45	80.8654	1,189.45	79.5808	1,189.45	79.8082	1,189.45	79.4976	1,189.45	78.6641	1,189.45	78.5299	1,189.45	77.2507	1,189.45	75.9876	1,189.45	73.7745	1,189.45	72.929	1,189.45	71.1025	1,189.45	72.5701	1,189.45	71.0797	1,189.45	75.001	1,189.45	70.9317	1,189.45	76.5372	1,189.45	69.2917	1,189.45	74.5364	1,189.45	66.6384	1,189.45	65.1822	1,189.45	60.9876	1,189.45	64.8781	1,189.45	63.5287	1,189.45	72.428	1,189.45	72.3408	1,189.45	75.2401	1,189.45	75.3685	1,189.45	76.4134
1,230.47	81.4102	1,230.47	81.2808	1,230.47	81.2012	1,230.47	80.8297	1,230.47	81.3802	1,230.47	80.334	1,230.47	81.3758	1,230.47	79.9308	1,230.47	80.8288	1,230.47	79.4082	1,230.47	80.5962	1,230.47	79.1832	1,230.47	79.7239	1,230.47	78.7665	1,230.47	78.3172	1,230.47	76.9538	1,230.47	76.7565	1,230.47	74.7429	1,230.47	74.0998	1,230.47	72.2251	1,230.47	73.6279	1,230.47	74.0051	1,230.47	74.1604	1,230.47	76.1632	1,230.47	73.8318	1,230.47	75.2933	1,230.47	71.7371	1,230.47	70.4351	1,230.47	68.1647	1,230.47	53.3334	1,230.47	53.3023	1,230.47	69.9922	1,230.47	70.2064	1,230.47	74.1221	1,230.47	74.4366	1,230.47	75.5862
1,274.41	82.7252	1,274.41	82.6695	1,274.41	82.015	1,274.41	82.1103	1,274.41	81.2454	1,274.41	81.4211	1,274.41	80.9235	1,274.41	80.5397	1,274.41	80.5364	1,274.41	79.7527	1,274.41	80.3266	1,274.41	79.2946	1,274.41	79.8712	1,274.41	79.0873	1,274.41	78.8212	1,274.41	77.4303	1,274.41	77.1547	1,274.41	73.9094	1,274.41	75.9245	1,274.41	72.5295	1,274.41	75.8747	1,274.41	75.4881	1,274.41	75.6839	1,274.41	77.0007	1,274.41	75.3368	1,274.41	76.1613	1,274.41	72.2613	1,274.41	69.121	1,274.41	65.2351	1,274.41	60.7463	1,274.41	61.1633	1,274.41	72.0519	1,274.41	72.4653	1,274.41	75.3759	1,274.41	76.2055	1,274.41	77.2739
1,319.82	83.3134	1,319.82	83.4774	1,319.82	82.8008	1,319.82	83.0289	1,319.82	82.0455	1,319.82	82.385	1,319.82	81.249	1,319.82	81.242	1,319.82	80.8526	1,319.82	80.3392	1,319.82	80.1861	1,319.82	79.9204	1,319.82	79.3967	1,319.82	79.4625	1,319.82	77.7221	1,319.82	78.0142	1,319.82	76.4447	1,319.82	75.5615	1,319.82	75.1265	1,319.82	72.104	1,319.82	74.5284	1,319.82	73.4913	1,319.82	75.4324	1,319.82	75.1327	1,319.82	75.6778	1,319.82	75.7213	1,319.82	73.9821	1,319.82	71.6382	1,319.82	67.5233	1,319.82	47.6795	1,319.82	69.3797	1,319.82	71.5715	1,319.82	74.3144	1,319.82	76.4308	1,319.82	77.0734	1,319.82	77.1699
1,366.7	83.3925	1,366.7	83.7099	1,366.7	83.1356	1,366.7	83.8169	1,366.7	82.0048	1,366.7	83.0051	1,366.7	81.1092	1,366.7	81.9422	1,366.7	80.4811	1,366.7	80.5144	1,366.7	79.9437	1,366.7	79.6973	1,366.7	79.7191	1,366.7	79.7867	1,366.7	78.7452	1,366.7	78.8774	1,366.7	76.8895	1,366.7	75.6559	1,366.7	74.1792	1,366.7	72.3604	1,366.7	74.8861	1,366.7	73.6673	1,366.7	75.469	1,366.7	76.9984	1,366.7	75.7775	1,366.7	77.8952	1,366.7	74.1014	1,366.7	74.4073	1,366.7	69.2538	1,366.7	60.1958	1,366.7	61.6087	1,366.7	72.4055	1,366.7	72.6377	1,366.7	77.8033	1,366.7	76.4703	1,366.7	78.8349
1,413.57	84.4737	1,413.57	84.2601	1,413.57	84.0488	1,413.57	84.2721	1,413.57	83.055	1,413.57	83.6972	1,413.57	82.0328	1,413.57	82.4302	1,413.57	80.7013	1,413.57	80.9701	1,413.57	80.1231	1,413.57	79.9537	1,413.57	79.6006	1,413.57	79.5581	1,413.57	79.2527	1,413.57	79.3928	1,413.57	76.7032	1,413.57	77.8312	1,413.57	74.2842	1,413.57	72.9577	1,413.57	74.8003	1,413.57	72.2044	1,413.57	75.4432	1,413.57	77.0756	1,413.57	75.0466	1,413.57	78.8295	1,413.57	74.5012	1,413.57	76.0778	1,413.57	69.4565	1,413.57	61.8777	1,413.57	56.4104	1,413.57	72.3643	1,413.57	73.2727	1,413.57	77.2714	1,413.57	77.7563	1,413.57	78.6488
1,463.38	84.1313	1,463.38	84.248	1,463.38	83.7153	1,463.38	84.3481	1,463.38	82.4873	1,463.38	83.845	1,463.38	80.9321	1,463.38	82.9817	1,463.38	80.2423	1,463.38	82.0228	1,463.38	79.1838	1,463.38	80.4333	1,463.38	79.3199	1,463.38	78.9315	1,463.38	78.1659	1,463.38	78.354	1,463.38	76.2542	1,463.38	77.2846	1,463.38	72.8727	1,463.38	74.1072	1,463.38	71.8319	1,463.38	73.8021	1,463.38	71.8184	1,463.38	77.3749	1,463.38	74.9759	1,463.38	79.4631	1,463.38	76.4146	1,463.38	77.36	1,463.38	72.9764	1,463.38	67.0937	1,463.38	65.2142	1,463.38	69.5368	1,463.38	70.2024	1,463.38	76.9106	1,463.38	75.6889	1,463.38	78.0612
1,516.11	83.8316	1,516.11	83.8561	1,516.11	83.3093	1,516.11	83.3883	1,516.11	82.485	1,516.11	83.1935	1,516.11	81.7647	1,516.11	83.1427	1,516.11	80.7301	1,516.11	82.5797	1,516.11	78.8319	1,516.11	81.0675	1,516.11	77.9957	1,516.11	78.8375	1,516.11	78.5095	1,516.11	78.2864	1,516.11	77.1224	1,516.11	77.7288	1,516.11	73.6603	1,516.11	75.0489	1,516.11	71.3251	1,516.11	71.6256	1,516.11	72.2421	1,516.11	75.6763	1,516.11	70.1172	1,516.11	76.9242	1,516.11	70.4056	1,516.11	74.6697	1,516.11	70.3526	1,516.11	65.6106	1,516.11	64.6768	1,516.11	67.593	1,516.11	67.4544	1,516.11	74.8991	1,516.11	74.9566	1,516.11	76.6228
1,568.85	82.6634	1,568.85	82.9091	1,568.85	82.3428	1,568.85	81.8531	1,568.85	81.8935	1,568.85	81.8546	1,568.85	81.53	1,568.85	81.3232	1,568.85	80.4941	1,568.85	80.6628	1,568.85	78.2015	1,568.85	79.5138	1,568.85	76.3786	1,568.85	78.6879	1,568.85	73.9404	1,568.85	76.8168	1,568.85	74.0943	1,568.85	77.8527	1,568.85	73.4696	1,568.85	75.8652	1,568.85	69.4136	1,568.85	70.6856	1,568.85	71.0497	1,568.85	73.997	1,568.85	68.3983	1,568.85	75.4687	1,568.85	71.6223	1,568.85	74.2697	1,568.85	70.1303	1,568.85	65.131	1,568.85	66.7052	1,568.85	67.041	1,568.85	65.189	1,568.85	74.9358	1,568.85	73.2512	1,568.85	75.9897
1,624.51	81.7239	1,624.51	82.1523	1,624.51	81.831	1,624.51	81.9254	1,624.51	81.4309	1,624.51	81.1906	1,624.51	81.0821	1,624.51	80.7744	1,624.51	80.9257	1,624.51	79.7872	1,624.51	79.2451	1,624.51	78.4048	1,624.51	77.6984	1,624.51	77.699	1,624.51	75.0177	1,624.51	76.58	1,624.51	74.295	1,624.51	76.4824	1,624.51	72.7782	1,624.51	74.3951	1,624.51	70.9602	1,624.51	68.3069	1,624.51	70.0301	1,624.51	71.6347	1,624.51	71.0393	1,624.51	74.1404	1,624.51	68.9118	1,624.51	72.9169	1,624.51	69.7102	1,624.51	67.2407	1,624.51	68.8204	1,624.51	65.1834	1,624.51	63.5926	1,624.51	72.0596	1,624.51	71.3541	1,624.51	74.1356
1,681.64	82.5644	1,681.64	82.5898	1,681.64	82.2108	1,681.64	82.4836	1,681.64	82.8051	1,681.64	81.6119	1,681.64	82.564	1,681.64	81.3369	1,681.64	81.5136	1,681.64	80.5209	1,681.64	81.5569	1,681.64	78.1467	1,681.64	79.1059	1,681.64	77.4337	1,681.64	77.761	1,681.64	77.1733	1,681.64	75.4894	1,681.64	76.4238	1,681.64	76.5475	1,681.64	73.0683	1,681.64	75.8729	1,681.64	66.7934	1,681.64	70.9045	1,681.64	69.9226	1,681.64	71.8912	1,681.64	71.6927	1,681.64	72.4995	1,681.64	71.6312	1,681.64	72.6944	1,681.64	65.9072	1,681.64	67.6293	1,681.64	65.5885	1,681.64	64.5523	1,681.64	72.0902	1,681.64	70.3517	1,681.64	73.8906
1,741.7	83.1845	1,741.7	83.3491	1,741.7	83.1469	1,741.7	82.6557	1,741.7	83.444	1,741.7	82.8301	1,741.7	83.0357	1,741.7	81.442	1,741.7	82.2528	1,741.7	81.3044	1,741.7	80.718	1,741.7	78.6212	1,741.7	78.9219	1,741.7	77.8708	1,741.7	77.3095	1,741.7	74.362	1,741.7	77.7168	1,741.7	76.6552	1,741.7	77.4584	1,741.7	73.7361	1,741.7	77.3845	1,741.7	60.8948	1,741.7	74.05	1,741.7	71.1826	1,741.7	69.4313	1,741.7	72.995	1,741.7	71.7334	1,741.7	71.6037	1,741.7	70.3275	1,741.7	57.0848	1,741.7	64.3036	1,741.7	65.5899	1,741.7	67.2617	1,741.7	72.3899	1,741.7	71.7332	1,741.7	74.7208
1,803.22	84.6514	1,803.22	84.5275	1,803.22	84.516	1,803.22	84.1482	1,803.22	84.382	1,803.22	83.5959	1,803.22	83.7277	1,803.22	82.2876	1,803.22	82.4818	1,803.22	81.8875	1,803.22	80.957	1,803.22	80.2911	1,803.22	79.7618	1,803.22	78.6279	1,803.22	77.9507	1,803.22	76.4616	1,803.22	77.5246	1,803.22	76.717	1,803.22	74.8881	1,803.22	75.7284	1,803.22	73.2759	1,803.22	70.7578	1,803.22	74.051	1,803.22	69.1168	1,803.22	72.1733	1,803.22	73.7712	1,803.22	68.6579	1,803.22	73.3466	1,803.22	71.4581	1,803.22	67.5126	1,803.22	71.3309	1,803.22	64.5686	1,803.22	64.3136	1,803.22	71.6468	1,803.22	69.9263	1,803.22	73.0044
1,866.21	84.4822	1,866.21	84.2445	1,866.21	84.3189	1,866.21	84.0835	1,866.21	84.0543	1,866.21	83.4288	1,866.21	83.5576	1,866.21	82.2851	1,866.21	82.9321	1,866.21	81.348	1,866.21	81.3845	1,866.21	80.4977	1,866.21	79.1143	1,866.21	78.7172	1,866.21	77.7367	1,866.21	76.7306	1,866.21	76.9702	1,866.21	76.2698	1,866.21	74.3598	1,866.21	75.8507	1,866.21	72.3965	1,866.21	72.4206	1,866.21	73.5825	1,866.21	66.1999	1,866.21	71.6392	1,866.21	72.9737	1,866.21	69.2796	1,866.21	73.0489	1,866.21	71.3605	1,866.21	68.5538	1,866.21	71.0326	1,866.21	55.913	1,866.21	65.9006	1,866.21	72.2477	1,866.21	68.564	1,866.21	73.2029
1,932.13	83.4265	1,932.13	83.7816	1,932.13	83.5847	1,932.13	83.1924	1,932.13	83.2453	1,932.13	82.6203	1,932.13	82.7398	1,932.13	81.7491	1,932.13	82.2726	1,932.13	80.4025	1,932.13	81.4757	1,932.13	79.2316	1,932.13	79.4649	1,932.13	77.4836	1,932.13	76.171	1,932.13	75.1664	1,932.13	75.5291	1,932.13	75.2552	1,932.13	74.1746	1,932.13	74.0282	1,932.13	72.6063	1,932.13	72.055	1,932.13	72.1617	1,932.13	66.1497	1,932.13	71.7738	1,932.13	71.1447	1,932.13	66.5547	1,932.13	72.1471	1,932.13	68.4697	1,932.13	67.7708	1,932.13	69.0508	1,932.13	61.6723	1,932.13	63.95	1,932.13	69.4753	1,932.13	69.6685	1,932.13	71.7415
1,999.51	83.4057	1,999.51	83.271	1,999.51	83.1371	1,999.51	82.8262	1,999.51	82.992	1,999.51	82.0149	1,999.51	82.0466	1,999.51	80.7981	1,999.51	82.1899	1,999.51	78.9727	1,999.51	81.0713	1,999.51	78.785	1,999.51	79.5023	1,999.51	76.5743	1,999.51	76.2166	1,999.51	74.1042	1,999.51	75.563	1,999.51	72.3568	1,999.51	74.9598	1,999.51	73.0908	1,999.51	71.8366	1,999.51	70.7845	1,999.51	72.0675	1,999.51	68.3827	1,999.51	70.2084	1,999.51	69.0255	1,999.51	67.2255	1,999.51	70.2961	1,999.51	67.9878	1,999.51	65.4833	1,999.51	69.8165	1,999.51	53.815	1,999.51	63.858	1,999.51	68.6808	1,999.51	67.5146	1,999.51	70.6885
2,069.82	83.2487	2,069.82	82.6044	2,069.82	82.8791	2,069.82	82.2769	2,069.82	82.5227	2,069.82	81.2715	2,069.82	81.9143	2,069.82	80.3891	2,069.82	80.9299	2,069.82	79.2964	2,069.82	80.6657	2,069.82	77.6109	2,069.82	79.2761	2,069.82	76.0693	2,069.82	77.2974	2,069.82	73.4145	2,069.82	75.3116	2,069.82	70.3726	2,069.82	73.6831	2,069.82	70.4045	2,069.82	71.3872	2,069.82	70.7825	2,069.82	71.6645	2,069.82	65.1034	2,069.82	71.3732	2,069.82	66.9364	2,069.82	64.0793	2,069.82	69.4406	2,069.82	66.9616	2,069.82	64.9303	2,069.82	69.3049	2,069.82	43.1632	2,069.82	63.7651	2,069.82	66.6553	2,069.82	66.5637	2,069.82	70.3335
2,143.07	83.3004	2,143.07	83.1404	2,143.07	83.168	2,143.07	82.4114	2,143.07	82.7605	2,143.07	81.5157	2,143.07	81.6702	2,143.07	80.4596	2,143.07	80.5681	2,143.07	78.9143	2,143.07	79.5664	2,143.07	78.1265	2,143.07	78.7084	2,143.07	76.3755	2,143.07	76.4553	2,143.07	74.8553	2,143.07	74.2492	2,143.07	71.4935	2,143.07	74.0473	2,143.07	70.7819	2,143.07	71.4555	2,143.07	70.3387	2,143.07	70.3307	2,143.07	68.2601	2,143.07	70.4128	2,143.07	63.7853	2,143.07	64.7285	2,143.07	68.4646	2,143.07	65.3304	2,143.07	68.2091	2,143.07	67.7506	2,143.07	58.6561	2,143.07	65.4786	2,143.07	65.3636	2,143.07	67.1644	2,143.07	69.2508
2,219.24	82.8999	2,219.24	82.8846	2,219.24	82.9287	2,219.24	82.6583	2,219.24	82.2224	2,219.24	81.6676	2,219.24	81.2982	2,219.24	80.6329	2,219.24	79.4702	2,219.24	79.5024	2,219.24	78.3614	2,219.24	77.9114	2,219.24	77.1567	2,219.24	76.3127	2,219.24	75.6582	2,219.24	76.3233	2,219.24	72.5922	2,219.24	71.8081	2,219.24	71.9467	2,219.24	70.8865	2,219.24	68.8027	2,219.24	71.0406	2,219.24	67.5672	2,219.24	69.1362	2,219.24	68.6167	2,219.24	64.2852	2,219.24	64.4116	2,219.24	66.7164	2,219.24	64.2795	2,219.24	65.9468	2,219.24	67.3342	2,219.24	61.2969	2,219.24	59.661	2,219.24	58.5325	2,219.24	66.092	2,219.24	67.0813
2,296.88	82.1657	2,296.88	81.8525	2,296.88	81.6235	2,296.88	81.7512	2,296.88	81.2918	2,296.88	81.3603	2,296.88	80.1734	2,296.88	79.8097	2,296.88	78.8404	2,296.88	78.3781	2,296.88	76.4661	2,296.88	76.0389	2,296.88	74.6431	2,296.88	75.5693	2,296.88	74.1028	2,296.88	72.859	2,296.88	71.2276	2,296.88	71.3823	2,296.88	70.675	2,296.88	69.9873	2,296.88	67.9631	2,296.88	69.5277	2,296.88	62.4494	2,296.88	67.5701	2,296.88	66.6401	2,296.88	64.5793	2,296.88	64.8185	2,296.88	66.5825	2,296.88	62.5001	2,296.88	69.0168	2,296.88	65.7585	2,296.88	60.71	2,296.88	58.7468	2,296.88	59.3397	2,296.88	54.6644	2,296.88	66.9168
2,378.91	81.4808	2,378.91	81.3592	2,378.91	81.4287	2,378.91	81.2195	2,378.91	80.9935	2,378.91	80.2554	2,378.91	80.3398	2,378.91	79.1948	2,378.91	78.836	2,378.91	77.957	2,378.91	76.9845	2,378.91	75.5972	2,378.91	74.9411	2,378.91	73.9857	2,378.91	74.3835	2,378.91	73.0381	2,378.91	71.9141	2,378.91	70.0672	2,378.91	68.6089	2,378.91	68.7069	2,378.91	69.1114	2,378.91	66.6838	2,378.91	65.4386	2,378.91	66.03	2,378.91	67.8285	2,378.91	66.0704	2,378.91	67.2572	2,378.91	65.0244	2,378.91	62.3125	2,378.91	66.1379	2,378.91	63.9027	2,378.91	59.8542	2,378.91	64.1719	2,378.91	61.096	2,378.91	57.9477	2,378.91	62.791
2,462.4	82.7105	2,462.4	82.42	2,462.4	82.46	2,462.4	81.5553	2,462.4	81.9649	2,462.4	80.8852	2,462.4	81.2717	2,462.4	79.6916	2,462.4	80.0563	2,462.4	78.2233	2,462.4	78.3475	2,462.4	75.3132	2,462.4	75.7465	2,462.4	73.7773	2,462.4	74.1327	2,462.4	70.7528	2,462.4	72.369	2,462.4	68.7173	2,462.4	71.3149	2,462.4	66.9616	2,462.4	69.6086	2,462.4	67.0936	2,462.4	66.7875	2,462.4	64.8677	2,462.4	65.9907	2,462.4	63.8942	2,462.4	67.7808	2,462.4	62.65	2,462.4	62.1809	2,462.4	63.3479	2,462.4	67.1171	2,462.4	61.0474	2,462.4	61.8564	2,462.4	52.7001	2,462.4	59.2575	2,462.4	60.8431
2,548.83	83.2237	2,548.83	83.1228	2,548.83	82.8628	2,548.83	82.4728	2,548.83	82.2622	2,548.83	82.0672	2,548.83	81.5328	2,548.83	80.7318	2,548.83	80.2765	2,548.83	79.0065	2,548.83	78.5415	2,548.83	76.954	2,548.83	76.5825	2,548.83	74.9054	2,548.83	74.5142	2,548.83	71.4876	2,548.83	72.7368	2,548.83	71.3995	2,548.83	70.6052	2,548.83	68.7084	2,548.83	69.6783	2,548.83	68.6164	2,548.83	68.3157	2,548.83	63.7866	2,548.83	67.1558	2,548.83	66.354	2,548.83	66.7759	2,548.83	63.5723	2,548.83	61.8877	2,548.83	63.6269	2,548.83	65.9746	2,548.83	65.1031	2,548.83	60.1402	2,548.83	52.4352	2,548.83	56.847	2,548.83	62.5998
2,639.65	82.313	2,639.65	82.1919	2,639.65	82.5622	2,639.65	82.223	2,639.65	81.4082	2,639.65	81.0936	2,639.65	80.8876	2,639.65	80.4251	2,639.65	79.0804	2,639.65	79.3289	2,639.65	77.8417	2,639.65	77.6167	2,639.65	75.6217	2,639.65	74.1943	2,639.65	73.5076	2,639.65	74.8262	2,639.65	72.4003	2,639.65	71.598	2,639.65	69.1775	2,639.65	70.1516	2,639.65	67.1924	2,639.65	68.6528	2,639.65	66.4565	2,639.65	65.9415	2,639.65	66.131	2,639.65	67.9921	2,639.65	66.9794	2,639.65	63.6874	2,639.65	55.5096	2,639.65	64.3573	2,639.65	64.7154	2,639.65	66.4811	2,639.65	61.1718	2,639.65	53.3259	2,639.65	54.3733	2,639.65	62.6647
2,731.93	80.6863	2,731.93	81.1756	2,731.93	81.3424	2,731.93	80.8045	2,731.93	80.7325	2,731.93	80.3359	2,731.93	79.8028	2,731.93	79.3845	2,731.93	78.2146	2,731.93	77.9403	2,731.93	76.6378	2,731.93	77.2262	2,731.93	74.1399	2,731.93	73.1311	2,731.93	72.0832	2,731.93	72.7178	2,731.93	71.1752	2,731.93	70.0548	2,731.93	69.1777	2,731.93	67.1204	2,731.93	65.9459	2,731.93	65.4971	2,731.93	65.4595	2,731.93	63.5932	2,731.93	63.5161	2,731.93	64.9116	2,731.93	65.2258	2,731.93	62.8577	2,731.93	57.9851	2,731.93	63.0564	2,731.93	63.085	2,731.93	62.9347	2,731.93	60.727	2,731.93	57.0034	2,731.93	53.5618	2,731.93	59.2811
2,828.61	81.5307	2,828.61	81.8199	2,828.61	80.845	2,828.61	81.0068	2,828.61	81.2138	2,828.61	80.648	2,828.61	79.7875	2,828.61	79.2712	2,828.61	78.7347	2,828.61	77.877	2,828.61	76.4409	2,828.61	76.6172	2,828.61	74.5266	2,828.61	75.0627	2,828.61	72.1953	2,828.61	72.4366	2,828.61	70.1155	2,828.61	69.0836	2,828.61	68.2563	2,828.61	66.9917	2,828.61	65.4123	2,828.61	65.35	2,828.61	65.5203	2,828.61	64.0017	2,828.61	63.0087	2,828.61	64.0583	2,828.61	64.405	2,828.61	63.8059	2,828.61	64.3245	2,828.61	63.3779	2,828.61	63.7457	2,828.61	64.3116	2,828.61	63.9279	2,828.61	40.0604	2,828.61	38.0765	2,828.61	61.2219
2,928.22	82.62	2,928.22	82.2867	2,928.22	82.0852	2,928.22	81.9499	2,928.22	81.7485	2,928.22	81.5281	2,928.22	80.4853	2,928.22	80.0046	2,928.22	79.3508	2,928.22	77.9928	2,928.22	77.5989	2,928.22	75.9955	2,928.22	75.8841	2,928.22	75.5149	2,928.22	72.7727	2,928.22	70.8722	2,928.22	70.2594	2,928.22	69.9287	2,928.22	68.05	2,928.22	67.314	2,928.22	67.8599	2,928.22	65.5778	2,928.22	66.0172	2,928.22	65.9963	2,928.22	60.4487	2,928.22	62.6527	2,928.22	64.7079	2,928.22	65.5449	2,928.22	63.4306	2,928.22	59.4411	2,928.22	64.7285	2,928.22	62.8532	2,928.22	63.9461	2,928.22	58.6204	2,928.22	48.5172	2,928.22	55.7295
3,030.76	83.2541	3,030.76	82.9722	3,030.76	83.0741	3,030.76	82.7251	3,030.76	82.1206	3,030.76	81.6473	3,030.76	81.1751	3,030.76	80.2328	3,030.76	79.7127	3,030.76	78.3068	3,030.76	77.8343	3,030.76	75.6811	3,030.76	76.0193	3,030.76	74.4068	3,030.76	73.8352	3,030.76	70.197	3,030.76	71.4037	3,030.76	69.9337	3,030.76	69.5913	3,030.76	67.8975	3,030.76	68.4159	3,030.76	65.6595	3,030.76	63.7043	3,030.76	65.7904	3,030.76	62.0107	3,030.76	63.433	3,030.76	64.1788	3,030.76	65.9609	3,030.76	60.8577	3,030.76	60.1003	3,030.76	62.602	3,030.76	64.1162	3,030.76	61.378	3,030.76	56.6408	3,030.76	37.5702	3,030.76	59.0881
3,137.7	83.2036	3,137.7	83.2098	3,137.7	82.7786	3,137.7	82.9734	3,137.7	81.8476	3,137.7	82.1256	3,137.7	80.9556	3,137.7	80.7473	3,137.7	79.3842	3,137.7	78.4713	3,137.7	77.1498	3,137.7	76.5714	3,137.7	75.2534	3,137.7	73.8765	3,137.7	73.0376	3,137.7	71.418	3,137.7	70.5989	3,137.7	69.7124	3,137.7	68.4628	3,137.7	67.6743	3,137.7	67.6101	3,137.7	66.6649	3,137.7	65.5685	3,137.7	65.9849	3,137.7	65.0155	3,137.7	60.9997	3,137.7	63.0617	3,137.7	66.2823	3,137.7	64.5231	3,137.7	59.2618	3,137.7	60.1838	3,137.7	63.4664	3,137.7	63.2397	3,137.7	51.5547	3,137.7	38.1566	3,137.7	56.1575
3,249.02	82.7426	3,249.02	82.7455	3,249.02	82.7804	3,249.02	82.3662	3,249.02	81.7865	3,249.02	81.6145	3,249.02	80.7132	3,249.02	80.1398	3,249.02	78.8716	3,249.02	78.4278	3,249.02	77.0441	3,249.02	75.7032	3,249.02	74.3685	3,249.02	72.6605	3,249.02	72.3778	3,249.02	71.5685	3,249.02	70.285	3,249.02	68.8042	3,249.02	68.6408	3,249.02	67.659	3,249.02	67.4212	3,249.02	66.5916	3,249.02	65.0662	3,249.02	64.2112	3,249.02	64.051	3,249.02	58.6782	3,249.02	61.4837	3,249.02	66.2907	3,249.02	64.6196	3,249.02	59.5748	3,249.02	59.5294	3,249.02	63.2126	3,249.02	61.5541	3,249.02	52.8075	3,249.02	44.3709	3,249.02	55.3372
3,363.28	82.8855	3,363.28	82.9691	3,363.28	83.2085	3,363.28	82.4824	3,363.28	82.2489	3,363.28	80.9291	3,363.28	80.9852	3,363.28	79.4934	3,363.28	78.9152	3,363.28	77.747	3,363.28	76.9735	3,363.28	75.4831	3,363.28	74.5753	3,363.28	72.6471	3,363.28	72.361	3,363.28	71.5471	3,363.28	69.7226	3,363.28	68.3731	3,363.28	68.2008	3,363.28	67.5631	3,363.28	66.4797	3,363.28	65.1895	3,363.28	63.5367	3,363.28	64.8796	3,363.28	64.5038	3,363.28	56.6415	3,363.28	58.7692	3,363.28	64.6844	3,363.28	63.2509	3,363.28	60.7939	3,363.28	59.9389	3,363.28	59.883	3,363.28	59.2215	3,363.28	59.7605	3,363.28	45.6168	3,363.28	43.3228
3,481.93	83.6105	3,481.93	83.6801	3,481.93	83.7261	3,481.93	83.027	3,481.93	82.3651	3,481.93	81.9314	3,481.93	80.9555	3,481.93	79.8184	3,481.93	79.5797	3,481.93	78.1218	3,481.93	77.1154	3,481.93	75.3315	3,481.93	74.2214	3,481.93	73.2663	3,481.93	71.886	3,481.93	71.908	3,481.93	69.6039	3,481.93	69.6705	3,481.93	68.5375	3,481.93	66.3107	3,481.93	65.6961	3,481.93	65.7199	3,481.93	65.1217	3,481.93	65.6383	3,481.93	63.2354	3,481.93	59.7579	3,481.93	57.0844	3,481.93	63.2712	3,481.93	65.2362	3,481.93	60.0307	3,481.93	58.9349	3,481.93	59.2683	3,481.93	60.2406	3,481.93	60.6348	3,481.93	54.4151	3,481.93	51.7154
3,604.98	83.6384	3,604.98	83.8399	3,604.98	82.7881	3,604.98	82.9794	3,604.98	82.6276	3,604.98	82.0811	3,604.98	81.0808	3,604.98	80.5997	3,604.98	79.5246	3,604.98	79.0863	3,604.98	77.2173	3,604.98	76.7213	3,604.98	74.5019	3,604.98	74.5852	3,604.98	71.7753	3,604.98	71.659	3,604.98	70.9173	3,604.98	70.245	3,604.98	68.7533	3,604.98	68.2702	3,604.98	66.3765	3,604.98	64.4323	3,604.98	65.4925	3,604.98	65.687	3,604.98	63.8148	3,604.98	63.4399	3,604.98	60.3758	3,604.98	62.6734	3,604.98	65.2016	3,604.98	63.1687	3,604.98	61.5103	3,604.98	61.7564	3,604.98	62.9063	3,604.98	60.5564	3,604.98	52.2789	3,604.98	50.589
3,732.42	83.978	3,732.42	83.7376	3,732.42	83.4557	3,732.42	83.1423	3,732.42	82.879	3,732.42	82.0514	3,732.42	81.4707	3,732.42	80.5188	3,732.42	79.4358	3,732.42	78.4953	3,732.42	77.1654	3,732.42	76.3243	3,732.42	75.358	3,732.42	74.9435	3,732.42	73.6802	3,732.42	71.6722	3,732.42	70.9436	3,732.42	69.9424	3,732.42	68.4806	3,732.42	67.3787	3,732.42	66.0335	3,732.42	65.6628	3,732.42	65.4118	3,732.42	64.8251	3,732.42	65.1392	3,732.42	63.9385	3,732.42	63.6187	3,732.42	61.3095	3,732.42	65.9077	3,732.42	64.415	3,732.42	63.2711	3,732.42	61.9642	3,732.42	64.1166	3,732.42	56.9742	3,732.42	54.0387	3,732.42	54.0185
3,864.26	84.2774	3,864.26	84.3945	3,864.26	83.3724	3,864.26	83.6028	3,864.26	82.7426	3,864.26	82.0755	3,864.26	81.2787	3,864.26	81.2576	3,864.26	79.4662	3,864.26	78.6837	3,864.26	77.3092	3,864.26	76.2764	3,864.26	75.3511	3,864.26	75.0561	3,864.26	73.1069	3,864.26	71.4308	3,864.26	71.0637	3,864.26	70.5081	3,864.26	68.1804	3,864.26	66.1124	3,864.26	66.0051	3,864.26	67.3192	3,864.26	63.3975	3,864.26	65.0246	3,864.26	63.4889	3,864.26	65.5881	3,864.26	59.9143	3,864.26	59.0603	3,864.26	59.5908	3,864.26	66.1517	3,864.26	62.4914	3,864.26	63.0056	3,864.26	62.8934	3,864.26	58.5296	3,864.26	51.0657	3,864.26	48.4062
4,000.49	83.5317	4,000.49	83.7258	4,000.49	83.2402	4,000.49	82.8989	4,000.49	81.4907	4,000.49	81.8443	4,000.49	79.6922	4,000.49	80.0927	4,000.49	78.076	4,000.49	77.3449	4,000.49	76.2193	4,000.49	75.0894	4,000.49	75.5694	4,000.49	72.8518	4,000.49	73.3724	4,000.49	71.5124	4,000.49	70.2821	4,000.49	69.0813	4,000.49	67.8582	4,000.49	67.6266	4,000.49	66.8488	4,000.49	65.5759	4,000.49	65.7973	4,000.49	63.3432	4,000.49	60.8903	4,000.49	66.1136	4,000.49	62.8821	4,000.49	60.8806	4,000.49	59.5401	4,000.49	63.9902	4,000.49	64.1492	4,000.49	60.8424	4,000.49	60.7192	4,000.49	57.9424	4,000.49	52.4445	4,000.49	47.5967
4,141.11	84.3942	4,141.11	84.0037	4,141.11	84.2531	4,141.11	82.8022	4,141.11	81.8065	4,141.11	81.8338	4,141.11	80.3243	4,141.11	80.2147	4,141.11	78.7678	4,141.11	78.3691	4,141.11	77.3323	4,141.11	76.5946	4,141.11	75.7302	4,141.11	74.2778	4,141.11	73.6783	4,141.11	72.4067	4,141.11	71.5878	4,141.11	68.7818	4,141.11	69.1962	4,141.11	67.8109	4,141.11	66.5056	4,141.11	63.1594	4,141.11	65.9024	4,141.11	62.3268	4,141.11	62.9768	4,141.11	60.1906	4,141.11	63.8606	4,141.11	57.7205	4,141.11	62.6077	4,141.11	64.5187	4,141.11	64.3946	4,141.11	58.0007	4,141.11	61.0159	4,141.11	60.5345	4,141.11	50.2255	4,141.11	40.4215
4,287.6	84.9501	4,287.6	84.1962	4,287.6	84.6255	4,287.6	83.2491	4,287.6	82.3561	4,287.6	81.8538	4,287.6	80.6859	4,287.6	78.9752	4,287.6	79.4794	4,287.6	78.3073	4,287.6	78.3655	4,287.6	77.1712	4,287.6	75.9553	4,287.6	75.1511	4,287.6	73.7053	4,287.6	73.3723	4,287.6	70.6888	4,287.6	70.5841	4,287.6	69.9766	4,287.6	69.1707	4,287.6	67.2516	4,287.6	66.8274	4,287.6	63.3867	4,287.6	63.4605	4,287.6	62.3027	4,287.6	63.8647	4,287.6	65.5959	4,287.6	60.2058	4,287.6	62.0096	4,287.6	64.8985	4,287.6	63.3449	4,287.6	59.3803	4,287.6	60.6746	4,287.6	60.3274	4,287.6	56.1929	4,287.6	52.9992
4,438.48	84.9156	4,438.48	84.5898	4,438.48	83.6681	4,438.48	83.3994	4,438.48	82.5831	4,438.48	81.3452	4,438.48	80.6978	4,438.48	79.7419	4,438.48	79.9675	4,438.48	78.3582	4,438.48	78.7369	4,438.48	77.0221	4,438.48	75.0251	4,438.48	74.737	4,438.48	72.9992	4,438.48	71.8103	4,438.48	70.4919	4,438.48	70.5702	4,438.48	69.2301	4,438.48	68.3382	4,438.48	66.9956	4,438.48	66.915	4,438.48	64.9275	4,438.48	64.1259	4,438.48	64.1842	4,438.48	65.808	4,438.48	64.6774	4,438.48	61.9558	4,438.48	59.1507	4,438.48	63.3422	4,438.48	63.8661	4,438.48	61.1207	4,438.48	61.6459	4,438.48	57.8703	4,438.48	55.7567	4,438.48	58.0014
4,595.21	84.4094	4,595.21	84.5615	4,595.21	83.0415	4,595.21	82.47	4,595.21	82.608	4,595.21	81.0159	4,595.21	80.8061	4,595.21	80.8149	4,595.21	79.0802	4,595.21	79.4625	4,595.21	76.873	4,595.21	76.3638	4,595.21	74.7447	4,595.21	74.0586	4,595.21	72.2929	4,595.21	72.0528	4,595.21	70.6902	4,595.21	69.9555	4,595.21	68.0712	4,595.21	66.4911	4,595.21	66.142	4,595.21	66.14	4,595.21	65.5624	4,595.21	60.8703	4,595.21	63.8365	4,595.21	63.7463	4,595.21	60.7539	4,595.21	59.4521	4,595.21	56.5198	4,595.21	61.6921	4,595.21	63.9793	4,595.21	60.8687	4,595.21	57.7522	4,595.21	57.1625	4,595.21	50.4865	4,595.21	56.2997
4,756.35	84.6888	4,756.35	84.4115	4,756.35	84.4402	4,756.35	83.3337	4,756.35	82.4804	4,756.35	81.3881	4,756.35	81.363	4,756.35	80.7673	4,756.35	78.6064	4,756.35	79.0179	4,756.35	76.4368	4,756.35	76.7764	4,756.35	75.3654	4,756.35	74.6823	4,756.35	73.7677	4,756.35	72.364	4,756.35	70.6672	4,756.35	68.914	4,756.35	67.2903	4,756.35	68.8767	4,756.35	66.6154	4,756.35	64.8284	4,756.35	63.0578	4,756.35	63.6173	4,756.35	62.5051	4,756.35	61.0073	4,756.35	60.8263	4,756.35	59.1228	4,756.35	60.2909	4,756.35	62.8925	4,756.35	62.943	4,756.35	62.4177	4,756.35	57.6345	4,756.35	58.1639	4,756.35	51.6501	4,756.35	51.8572
4,924.8	85.506	4,924.8	85.0192	4,924.8	84.7763	4,924.8	84.8555	4,924.8	82.7635	4,924.8	82.652	4,924.8	80.8232	4,924.8	80.7189	4,924.8	79.6293	4,924.8	78.5794	4,924.8	77.2914	4,924.8	76.3142	4,924.8	76.0479	4,924.8	74.335	4,924.8	73.2659	4,924.8	72.1892	4,924.8	71.8944	4,924.8	68.453	4,924.8	67.9759	4,924.8	64.5881	4,924.8	66.1802	4,924.8	63.3452	4,924.8	64.6212	4,924.8	63.5168	4,924.8	62.5414	4,924.8	57.9286	4,924.8	57.737	4,924.8	56.2281	4,924.8	57.9638	4,924.8	60.9562	4,924.8	60.8882	4,924.8	60.5317	4,924.8	58.2087	4,924.8	59.7555	4,924.8	55.5061	4,924.8	52.8319
5,097.66	84.5144	5,097.66	84.4734	5,097.66	83.2086	5,097.66	82.8833	5,097.66	82.594	5,097.66	82.1076	5,097.66	79.9934	5,097.66	80.3661	5,097.66	79.6816	5,097.66	78.2613	5,097.66	78.735	5,097.66	77.1756	5,097.66	75.8167	5,097.66	76.1645	5,097.66	72.547	5,097.66	71.9533	5,097.66	70.5465	5,097.66	70.3469	5,097.66	68.0516	5,097.66	61.6729	5,097.66	64.9475	5,097.66	65.4569	5,097.66	64.1545	5,097.66	65.025	5,097.66	62.1878	5,097.66	64.1964	5,097.66	63.3917	5,097.66	62.0084	5,097.66	58.3041	5,097.66	61.7673	5,097.66	62.1178	5,097.66	58.5673	5,097.66	59.2297	5,097.66	60.324	5,097.66	56.2416	5,097.66	56.9815
5,277.83	83.6515	5,277.83	83.9456	5,277.83	83.3931	5,277.83	81.5757	5,277.83	82.1155	5,277.83	80.5119	5,277.83	81.1255	5,277.83	79.2316	5,277.83	79.4473	5,277.83	77.3698	5,277.83	77.1167	5,277.83	76.2142	5,277.83	75.5967	5,277.83	73.5466	5,277.83	73.1912	5,277.83	68.7976	5,277.83	69.6915	5,277.83	68.3616	5,277.83	69.0271	5,277.83	68.8129	5,277.83	63.9882	5,277.83	63.2937	5,277.83	63.9083	5,277.83	64.0978	5,277.83	63.1911	5,277.83	60.407	5,277.83	56.6732	5,277.83	61.9125	5,277.83	54.7125	5,277.83	61.3335	5,277.83	62.7308	5,277.83	59.8987	5,277.83	53.5565	5,277.83	60.7268	5,277.83	52.9836	5,277.83	53.9376
5,463.87	84.031	5,463.87	83.7299	5,463.87	84.2274	5,463.87	83.3613	5,463.87	82.0431	5,463.87	81.8933	5,463.87	81.5102	5,463.87	81.2647	5,463.87	79.3136	5,463.87	79.4246	5,463.87	77.0021	5,463.87	76.5991	5,463.87	74.7699	5,463.87	73.199	5,463.87	73.329	5,463.87	73.6348	5,463.87	70.0336	5,463.87	70.3959	5,463.87	67.576	5,463.87	70.4833	5,463.87	65.6291	5,463.87	65.8873	5,463.87	61.5573	5,463.87	59.0323	5,463.87	63.0802	5,463.87	58.603	5,463.87	62.065	5,463.87	61.4597	5,463.87	61.8517	5,463.87	55.4376	5,463.87	60.5617	5,463.87	60.0797	5,463.87	58.6985	5,463.87	59.0407	5,463.87	55.0378	5,463.87	57.8102
5,657.23	83.8174	5,657.23	83.05	5,657.23	83.2149	5,657.23	83.0402	5,657.23	82.4701	5,657.23	81.8017	5,657.23	80.4062	5,657.23	80.3087	5,657.23	79.4865	5,657.23	78.0659	5,657.23	78.3996	5,657.23	76.0863	5,657.23	74.9193	5,657.23	73.0547	5,657.23	71.7899	5,657.23	73.294	5,657.23	70.4622	5,657.23	68.2173	5,657.23	68.2071	5,657.23	68.2606	5,657.23	65.7018	5,657.23	65.092	5,657.23	63.1664	5,657.23	63.3431	5,657.23	61.1806	5,657.23	63.1377	5,657.23	61.5033	5,657.23	58.0747	5,657.23	60.9853	5,657.23	59.0353	5,657.23	60.4506	5,657.23	59.6834	5,657.23	58.389	5,657.23	54.961	5,657.23	54.1182	5,657.23	56.5788
5,856.45	83.7342	5,856.45	83.2721	5,856.45	82.0728	5,856.45	82.8645	5,856.45	82.3581	5,856.45	81.8857	5,856.45	80.2789	5,856.45	80.4632	5,856.45	79.4064	5,856.45	78.7984	5,856.45	77.4531	5,856.45	76.7026	5,856.45	75.6581	5,856.45	75.035	5,856.45	73.5652	5,856.45	72.4797	5,856.45	69.6562	5,856.45	70.0787	5,856.45	66.5665	5,856.45	57.6916	5,856.45	65.427	5,856.45	63.2715	5,856.45	63.518	5,856.45	59.6297	5,856.45	58.9385	5,856.45	64.3549	5,856.45	58.3386	5,856.45	55.7483	5,856.45	59.6811	5,856.45	59.7477	5,856.45	59.4985	5,856.45	59.8831	5,856.45	60.6588	5,856.45	58.1522	5,856.45	53.2977	5,856.45	55.1168
6,062.99	83.7234	6,062.99	83.7077	6,062.99	83.6882	6,062.99	82.6027	6,062.99	82.1537	6,062.99	81.2686	6,062.99	81.4932	6,062.99	79.7963	6,062.99	79.4216	6,062.99	78.062	6,062.99	76.5744	6,062.99	74.9649	6,062.99	75.4344	6,062.99	75.2424	6,062.99	73.2085	6,062.99	69.4106	6,062.99	67.2346	6,062.99	69.6684	6,062.99	66.7763	6,062.99	63.6709	6,062.99	65.6348	6,062.99	63.3015	6,062.99	63.0744	6,062.99	61.1056	6,062.99	58.2506	6,062.99	58.9345	6,062.99	60.5556	6,062.99	59.2897	6,062.99	59.6713	6,062.99	57.5507	6,062.99	59.856	6,062.99	59.5566	6,062.99	58.9186	6,062.99	58.6561	6,062.99	56.406	6,062.99	56.7798
6,276.86	83.7449	6,276.86	83.9836	6,276.86	83.816	6,276.86	83.1604	6,276.86	82.1189	6,276.86	81.4047	6,276.86	80.9301	6,276.86	80.8039	6,276.86	79.6731	6,276.86	78.8279	6,276.86	77.4438	6,276.86	76.1813	6,276.86	74.5328	6,276.86	72.8328	6,276.86	69.3107	6,276.86	69.461	6,276.86	70.2032	6,276.86	65.6719	6,276.86	65.7657	6,276.86	67.965	6,276.86	65.2036	6,276.86	61.1955	6,276.86	60.4961	6,276.86	58.6042	6,276.86	60.6903	6,276.86	59.4678	6,276.86	62.4675	6,276.86	58.6353	6,276.86	60.6653	6,276.86	50.8172	6,276.86	53.0324	6,276.86	59.2914	6,276.86	59.8532	6,276.86	56.4815	6,276.86	57.9236	6,276.86	55.8307
6,498.05	83.7954	6,498.05	83.8453	6,498.05	83.1761	6,498.05	83.1284	6,498.05	83.1118	6,498.05	81.5798	6,498.05	80.321	6,498.05	80.6751	6,498.05	79.5112	6,498.05	77.7246	6,498.05	77.9006	6,498.05	76.6935	6,498.05	75.0702	6,498.05	70.3989	6,498.05	72.9251	6,498.05	71.1565	6,498.05	70.5162	6,498.05	66.8046	6,498.05	67.4816	6,498.05	67.7022	6,498.05	62.0793	6,498.05	65.3939	6,498.05	61.4449	6,498.05	61.22	6,498.05	62.145	6,498.05	59.2528	6,498.05	58.9303	6,498.05	59.3685	6,498.05	54.5969	6,498.05	58.5576	6,498.05	55.917	6,498.05	57.0334	6,498.05	57.8389	6,498.05	56.1039	6,498.05	54.1461	6,498.05	55.6122
6,726.56	83.5216	6,726.56	83.4015	6,726.56	84.0403	6,726.56	82.9348	6,726.56	83.0702	6,726.56	82.0107	6,726.56	81.7203	6,726.56	80.1455	6,726.56	78.8803	6,726.56	78.9096	6,726.56	77.3074	6,726.56	77.0628	6,726.56	75.3928	6,726.56	75.2888	6,726.56	74.5653	6,726.56	72.0655	6,726.56	69.4492	6,726.56	68.9944	6,726.56	68.8338	6,726.56	64.1542	6,726.56	64.7875	6,726.56	64.0939	6,726.56	62.5253	6,726.56	63.3792	6,726.56	60.968	6,726.56	61.049	6,726.56	62.9747	6,726.56	49.5486	6,726.56	56.7025	6,726.56	59.614	6,726.56	54.5288	6,726.56	60.0146	6,726.56	57.5667	6,726.56	55.3579	6,726.56	54.1285	6,726.56	56.2855
6,963.87	82.7645	6,963.87	82.7071	6,963.87	83.4471	6,963.87	82.7622	6,963.87	82.3622	6,963.87	81.9961	6,963.87	81.3605	6,963.87	80.2405	6,963.87	79.3187	6,963.87	78.5803	6,963.87	77.0297	6,963.87	74.8676	6,963.87	74.6865	6,963.87	74.9213	6,963.87	71.378	6,963.87	71.5164	6,963.87	69.4811	6,963.87	68.4706	6,963.87	67.1716	6,963.87	66.0018	6,963.87	64.8971	6,963.87	61.6067	6,963.87	61.5404	6,963.87	59.4373	6,963.87	60.8196	6,963.87	63.8631	6,963.87	60.1522	6,963.87	60.2939	6,963.87	56.4153	6,963.87	55.8397	6,963.87	51.2121	6,963.87	59.3486	6,963.87	55.3894	6,963.87	56.9979	6,963.87	59.0681	6,963.87	56.8139
7,209.96	83.5944	7,209.96	83.49	7,209.96	82.9645	7,209.96	83.6611	7,209.96	83.4653	7,209.96	82.2592	7,209.96	81.3975	7,209.96	81.1554	7,209.96	79.9753	7,209.96	77.6015	7,209.96	78.3955	7,209.96	76.6337	7,209.96	75.7071	7,209.96	73.7449	7,209.96	72.3512	7,209.96	70.5051	7,209.96	70.3545	7,209.96	67.7639	7,209.96	67.3736	7,209.96	64.2087	7,209.96	65.2066	7,209.96	62.8827	7,209.96	62.8067	7,209.96	60.8831	7,209.96	61.8279	7,209.96	58.7039	7,209.96	55.5424	7,209.96	60.159	7,209.96	55.0781	7,209.96	54.0777	7,209.96	55.4011	7,209.96	58.178	7,209.96	57.6605	7,209.96	57.4692	7,209.96	56.7329	7,209.96	55.049
7,464.84	82.8691	7,464.84	83.0569	7,464.84	83.1382	7,464.84	82.8186	7,464.84	83.3749	7,464.84	81.7004	7,464.84	81.6338	7,464.84	80.2685	7,464.84	79.6076	7,464.84	77.6806	7,464.84	77.4288	7,464.84	76.2374	7,464.84	76.2735	7,464.84	72.5502	7,464.84	74.7086	7,464.84	71.1502	7,464.84	70.4007	7,464.84	67.9177	7,464.84	67.0889	7,464.84	63.6578	7,464.84	64.9895	7,464.84	65.9846	7,464.84	64.5545	7,464.84	62.4299	7,464.84	57.133	7,464.84	56.3272	7,464.84	59.8399	7,464.84	54.2343	7,464.84	56.4864	7,464.84	55.3286	7,464.84	59.8585	7,464.84	58.6329	7,464.84	61.279	7,464.84	58.2896	7,464.84	56.0933	7,464.84	50.7372
7,727.05	82.1095	7,727.05	82.4666	7,727.05	83.267	7,727.05	82.4657	7,727.05	82.5773	7,727.05	82.0991	7,727.05	81.4632	7,727.05	80.8311	7,727.05	79.778	7,727.05	78.8235	7,727.05	76.51	7,727.05	76.1855	7,727.05	75.8113	7,727.05	73.9315	7,727.05	73.8219	7,727.05	71.5722	7,727.05	70.0602	7,727.05	69.3382	7,727.05	67.3782	7,727.05	66.508	7,727.05	64.9438	7,727.05	64.7899	7,727.05	62.72	7,727.05	58.0438	7,727.05	60.8387	7,727.05	60.2673	7,727.05	60.1586	7,727.05	60.4252	7,727.05	59.0168	7,727.05	56.2792	7,727.05	47.5699	7,727.05	60.3918	7,727.05	59.4799	7,727.05	56.018	7,727.05	52.9879	7,727.05	47.2352
7,999.51	82.9876	7,999.51	82.6324	7,999.51	83.0817	7,999.51	82.9072	7,999.51	83.0563	7,999.51	81.6661	7,999.51	81.1463	7,999.51	80.4877	7,999.51	80.0585	7,999.51	78.4261	7,999.51	78.3859	7,999.51	75.9609	7,999.51	76.1663	7,999.51	74.0868	7,999.51	74.0633	7,999.51	71.4764	7,999.51	69.6392	7,999.51	68.1778	7,999.51	67.6135	7,999.51	65.5255	7,999.51	65.5269	7,999.51	62.6534	7,999.51	61.8562	7,999.51	59.4265	7,999.51	61.54	7,999.51	52.2416	7,999.51	61.5534	7,999.51	61.1196	7,999.51	58.0638	7,999.51	59.4256	7,999.51	57.1801	7,999.51	59.4735	7,999.51	59.83	7,999.51	54.3406	7,999.51	58.2529	7,999.51	48.2277
8,282.23	83.0237	8,282.23	82.3303	8,282.23	83.224	8,282.23	81.8677	8,282.23	82.0853	8,282.23	81.3437	8,282.23	80.4932	8,282.23	79.4961	8,282.23	78.7761	8,282.23	76.3247	8,282.23	77.0025	8,282.23	75.3554	8,282.23	74.311	8,282.23	73.5067	8,282.23	72.7729	8,282.23	70.4899	8,282.23	68.8158	8,282.23	67.0617	8,282.23	66.7006	8,282.23	64.1346	8,282.23	62.9892	8,282.23	60.8023	8,282.23	60.2811	8,282.23	59.2037	8,282.23	59.6847	8,282.23	56.8364	8,282.23	59.5892	8,282.23	57.2571	8,282.23	58.1552	8,282.23	56.3588	8,282.23	53.389	8,282.23	57.2134	8,282.23	58.1836	8,282.23	54.6438	8,282.23	55.5787	8,282.23	50.1028
8,573.73	83.7299	8,573.73	82.8075	8,573.73	83.3056	8,573.73	82.9918	8,573.73	83.0085	8,573.73	81.0606	8,573.73	81.4391	8,573.73	79.2907	8,573.73	79.2263	8,573.73	77.2349	8,573.73	76.8992	8,573.73	74.9444	8,573.73	74.2422	8,573.73	72.844	8,573.73	69.9004	8,573.73	70.8002	8,573.73	69.6739	8,573.73	66.4194	8,573.73	66.5113	8,573.73	63.6588	8,573.73	61.1895	8,573.73	61.6186	8,573.73	60.5615	8,573.73	57.9646	8,573.73	56.7324	8,573.73	56.7467	8,573.73	54.0746	8,573.73	55.1971	8,573.73	55.651	8,573.73	55.6447	8,573.73	51.8821	8,573.73	56.0685	8,573.73	56.2798	8,573.73	50.9154	8,573.73	56.6568	8,573.73	38.5292
8,876.95	83.2385	8,876.95	83.0946	8,876.95	83.1117	8,876.95	82.5882	8,876.95	82.4163	8,876.95	81.7033	8,876.95	81.1789	8,876.95	80.053	8,876.95	79.0496	8,876.95	77.076	8,876.95	76.7595	8,876.95	74.8308	8,876.95	73.8586	8,876.95	72.5718	8,876.95	71.5263	8,876.95	68.9761	8,876.95	67.5581	8,876.95	65.5657	8,876.95	64.3802	8,876.95	63.3939	8,876.95	63.4083	8,876.95	60.2593	8,876.95	61.1977	8,876.95	58.6629	8,876.95	57.0525	8,876.95	57.3229	8,876.95	55.3967	8,876.95	55.3752	8,876.95	55.7326	8,876.95	57.2405	8,876.95	52.1358	8,876.95	57.2969	8,876.95	53.4554	8,876.95	44.9699	8,876.95	57.0969	8,876.95	31.8341
9,188.96	83.2906	9,188.96	83.7857	9,188.96	82.9771	9,188.96	83.4627	9,188.96	83.4126	9,188.96	82.0752	9,188.96	81.6566	9,188.96	80.1545	9,188.96	78.9189	9,188.96	77.3956	9,188.96	76.4325	9,188.96	75.7425	9,188.96	74.8173	9,188.96	72.3976	9,188.96	72.5577	9,188.96	68.8486	9,188.96	68.9467	9,188.96	65.8151	9,188.96	65.6807	9,188.96	62.3386	9,188.96	63.3364	9,188.96	61.3044	9,188.96	60.102	9,188.96	56.4326	9,188.96	56.5769	9,188.96	58.0417	9,188.96	50.1538	9,188.96	56.1864	9,188.96	54.25	9,188.96	52.9126	9,188.96	50.608	9,188.96	56.0245	9,188.96	55.562	9,188.96	48.0069	9,188.96	55.1963	9,188.96	45.0298
9,514.16	82.9719	9,514.16	83.2168	9,514.16	82.7117	9,514.16	83.1123	9,514.16	82.501	9,514.16	81.3876	9,514.16	81.0718	9,514.16	79.8707	9,514.16	79.1813	9,514.16	77.7103	9,514.16	76.3419	9,514.16	74.6192	9,514.16	74.9884	9,514.16	71.8549	9,514.16	72.1825	9,514.16	68.8293	9,514.16	67.1403	9,514.16	64.9353	9,514.16	64.0393	9,514.16	61.2246	9,514.16	60.8927	9,514.16	59.4553	9,514.16	59.2851	9,514.16	57.4189	9,514.16	55.9563	9,514.16	54.6042	9,514.16	54.7341	9,514.16	55.7205	9,514.16	52.4164	9,514.16	54.7392	9,514.16	51.3556	9,514.16	56.2773	9,514.16	55.7014	9,514.16	45.354	9,514.16	53.8067	9,514.16	47.4556
9,849.61	82.5356	9,849.61	83.1335	9,849.61	82.9107	9,849.61	83.3123	9,849.61	82.978	9,849.61	81.8115	9,849.61	81.1516	9,849.61	80.0218	9,849.61	78.906	9,849.61	77.1102	9,849.61	76.8737	9,849.61	74.7352	9,849.61	73.6783	9,849.61	71.0055	9,849.61	70.6003	9,849.61	68.0639	9,849.61	65.5809	9,849.61	66.4823	9,849.61	64.1588	9,849.61	63.3645	9,849.61	58.8488	9,849.61	61.5176	9,849.61	56.6256	9,849.61	56.3952	9,849.61	56.9457	9,849.61	54.7287	9,849.61	54.8389	9,849.61	55.3241	9,849.61	51.727	9,849.61	51.1523	9,849.61	54.6737	9,849.61	54.5437	9,849.61	53.3979	9,849.61	48.9387	9,849.61	48.5921	9,849.61	53.2561
10,196.8	82.0641	10,196.8	82.7272	10,196.8	82.9358	10,196.8	82.9742	10,196.8	83.0056	10,196.8	81.2265	10,196.8	80.9263	10,196.8	79.6717	10,196.8	79.2812	10,196.8	77.1912	10,196.8	76.7167	10,196.8	73.8055	10,196.8	73.6361	10,196.8	71.191	10,196.8	69.4704	10,196.8	69.3918	10,196.8	67.9065	10,196.8	64.2024	10,196.8	64.3635	10,196.8	62.4715	10,196.8	61.2366	10,196.8	59.0422	10,196.8	56.737	10,196.8	59.2911	10,196.8	58.4706	10,196.8	54.8544	10,196.8	53.8442	10,196.8	56.7118	10,196.8	52.7173	10,196.8	54.3591	10,196.8	51.5572	10,196.8	46.9245	10,196.8	54.5398	10,196.8	44.5627	10,196.8	52.5875	10,196.8	52.5524
10,555.7	81.6077	10,555.7	82.0768	10,555.7	82.8484	10,555.7	82.2595	10,555.7	82.2884	10,555.7	81.698	10,555.7	81.1778	10,555.7	80.0122	10,555.7	79.7753	10,555.7	76.7937	10,555.7	76.8211	10,555.7	73.6423	10,555.7	72.9693	10,555.7	71.6806	10,555.7	70.264	10,555.7	68.6335	10,555.7	67.2924	10,555.7	66.029	10,555.7	64.8764	10,555.7	62.4604	10,555.7	61.8018	10,555.7	61.2293	10,555.7	58.3403	10,555.7	58.4989	10,555.7	57.7293	10,555.7	57.7491	10,555.7	56.3928	10,555.7	52.9823	10,555.7	52.6916	10,555.7	55.569	10,555.7	51.753	10,555.7	50.6075	10,555.7	56.2539	10,555.7	52.3213	10,555.7	50.043	10,555.7	51.1116
10,927.7	82.2301	10,927.7	82.4255	10,927.7	82.7249	10,927.7	82.2983	10,927.7	82.5707	10,927.7	81.0377	10,927.7	81.5563	10,927.7	80.0838	10,927.7	79.96	10,927.7	76.1604	10,927.7	76.157	10,927.7	73.42	10,927.7	73.3338	10,927.7	70.0211	10,927.7	71.0596	10,927.7	67.8102	10,927.7	68.3286	10,927.7	64.1191	10,927.7	65.0302	10,927.7	59.3345	10,927.7	61.2227	10,927.7	58.989	10,927.7	58.6042	10,927.7	55.9375	10,927.7	56.0824	10,927.7	55.5534	10,927.7	54.8556	10,927.7	53.3038	10,927.7	49.9369	10,927.7	49.6241	10,927.7	51.5925	10,927.7	49.0237	10,927.7	51.1654	10,927.7	47.7298	10,927.7	53.1189	10,927.7	49.6436
11,313	83.014	11,313	82.6966	11,313	83.1629	11,313	82.3784	11,313	82.468	11,313	81.3048	11,313	81.5671	11,313	79.9115	11,313	79.5276	11,313	76.5072	11,313	76.2791	11,313	73.1515	11,313	73.9987	11,313	70.3074	11,313	71.6984	11,313	67.2209	11,313	66.5508	11,313	63.3724	11,313	63.518	11,313	61.8545	11,313	61.5233	11,313	58.5991	11,313	58.2223	11,313	53.6269	11,313	54.7907	11,313	51.1597	11,313	53.0173	11,313	50.6637	11,313	52.6188	11,313	53.3981	11,313	52.2925	11,313	46.3199	11,313	47.8859	11,313	51.0571	11,313	50.0899	11,313	51.0445
11,712.9	83.4566	11,712.9	83.0191	11,712.9	83.2518	11,712.9	82.8416	11,712.9	82.8589	11,712.9	81.3714	11,712.9	81.5751	11,712.9	80.4701	11,712.9	79.9101	11,712.9	76.1627	11,712.9	75.9396	11,712.9	73.664	11,712.9	73.7196	11,712.9	70.5541	11,712.9	70.454	11,712.9	67.0892	11,712.9	66.5898	11,712.9	63.3445	11,712.9	63.7826	11,712.9	60.7127	11,712.9	59.2984	11,712.9	56.5669	11,712.9	56.2331	11,712.9	52.5191	11,712.9	56.3242	11,712.9	44.0339	11,712.9	49.2017	11,712.9	49.263	11,712.9	50.4907	11,712.9	43.8666	11,712.9	54.2426	11,712.9	44.7844	11,712.9	46.6799	11,712.9	50.4792	11,712.9	43.8005	11,712.9	50.3469
12,126	83.6574	12,126	83.1881	12,126	83.5314	12,126	82.497	12,126	82.997	12,126	81.0686	12,126	81.802	12,126	79.4059	12,126	79.152	12,126	75.7214	12,126	75.4987	12,126	72.5963	12,126	72.6631	12,126	69.9747	12,126	69.8884	12,126	65.8755	12,126	65.3705	12,126	63.9514	12,126	63.3539	12,126	59.5729	12,126	60.7543	12,126	58.2836	12,126	57.5612	12,126	52.8095	12,126	54.954	12,126	49.0385	12,126	48.2759	12,126	48.8554	12,126	50.6272	12,126	51.2559	12,126	52.0587	12,126	37.3325	12,126	39.1729	12,126	55.0682	12,126	50.7902	12,126	50.0431
12,553.7	83.4351	12,553.7	83.0282	12,553.7	83.2648	12,553.7	82.5066	12,553.7	82.7321	12,553.7	81.1155	12,553.7	81.0446	12,553.7	79.6066	12,553.7	78.677	12,553.7	75.347	12,553.7	75.2753	12,553.7	72.8907	12,553.7	72.1186	12,553.7	69.3518	12,553.7	69.2248	12,553.7	67.2952	12,553.7	65.6437	12,553.7	63.4983	12,553.7	63.0939	12,553.7	57.8537	12,553.7	59.8775	12,553.7	56.9018	12,553.7	57.1474	12,553.7	54.1181	12,553.7	53.437	12,553.7	53.4122	12,553.7	49.0089	12,553.7	49.1162	12,553.7	46.3882	12,553.7	47.7765	12,553.7	50.6628	12,553.7	46.5247	12,553.7	48.0935	12,553.7	51.3323	12,553.7	44.228	12,553.7	47.5184
12,996.1	83.1846	12,996.1	83.0586	12,996.1	82.8034	12,996.1	82.324	12,996.1	82.2921	12,996.1	80.8213	12,996.1	81.2428	12,996.1	79.3668	12,996.1	78.241	12,996.1	75.7239	12,996.1	75.4105	12,996.1	72.8511	12,996.1	72.677	12,996.1	70.2182	12,996.1	70.0008	12,996.1	66.6587	12,996.1	66.7765	12,996.1	63.2865	12,996.1	63.3891	12,996.1	62.4115	12,996.1	60.9102	12,996.1	60.8953	12,996.1	56.7703	12,996.1	54.7611	12,996.1	52.4744	12,996.1	49.0146	12,996.1	49.6995	12,996.1	49.1951	12,996.1	45.5179	12,996.1	46.1687	12,996.1	53.1587	12,996.1	48.8165	12,996.1	47.4748	12,996.1	51.9643	12,996.1	49.4756	12,996.1	47.7122
13,454.6	82.7976	13,454.6	82.4374	13,454.6	82.737	13,454.6	82.0118	13,454.6	82.2098	13,454.6	81.2481	13,454.6	80.697	13,454.6	79.575	13,454.6	78.3508	13,454.6	75.9748	13,454.6	75.6154	13,454.6	73.6124	13,454.6	72.6249	13,454.6	70.5001	13,454.6	70.1216	13,454.6	68.35	13,454.6	65.4465	13,454.6	63.7871	13,454.6	63.0463	13,454.6	60.711	13,454.6	59.803	13,454.6	58.7474	13,454.6	56.8622	13,454.6	55.9722	13,454.6	51.3986	13,454.6	50.6028	13,454.6	42.1162	13,454.6	48.49	13,454.6	50.6442	13,454.6	46.6304	13,454.6	49.0017	13,454.6	48.3373	13,454.6	51.7805	13,454.6	50.8969	13,454.6	46.8692	13,454.6	47.5054
13,929.2	82.9224	13,929.2	82.3671	13,929.2	82.3495	13,929.2	82.1056	13,929.2	81.9496	13,929.2	80.8162	13,929.2	80.504	13,929.2	79.7957	13,929.2	78.4328	13,929.2	76.7199	13,929.2	75.3151	13,929.2	74.2474	13,929.2	72.6846	13,929.2	71.3184	13,929.2	69.5927	13,929.2	67.8714	13,929.2	66.8253	13,929.2	64.7373	13,929.2	63.9337	13,929.2	62.4756	13,929.2	60.0631	13,929.2	59.566	13,929.2	56.8258	13,929.2	51.6826	13,929.2	51.0001	13,929.2	44.4351	13,929.2	46.8066	13,929.2	50.508	13,929.2	48.5352	13,929.2	41.4886	13,929.2	52.0793	13,929.2	44.4286	13,929.2	46.6945	13,929.2	51.0144	13,929.2	47.9911	13,929.2	46.826
14,419.9	83.2241	14,419.9	83.1309	14,419.9	82.3427	14,419.9	82.0208	14,419.9	82.0299	14,419.9	80.9849	14,419.9	80.6399	14,419.9	79.7283	14,419.9	78.3826	14,419.9	76.9863	14,419.9	75.8324	14,419.9	74.3785	14,419.9	72.8775	14,419.9	71.0543	14,419.9	69.4425	14,419.9	68.7122	14,419.9	66.5927	14,419.9	64.6136	14,419.9	63.0561	14,419.9	60.9392	14,419.9	59.9482	14,419.9	60.0449	14,419.9	57.5542	14,419.9	54.7467	14,419.9	53.1193	14,419.9	51.8948	14,419.9	52.4197	14,419.9	34.436	14,419.9	46.744	14,419.9	42.0573	14,419.9	52.2759	14,419.9	43.3674	14,419.9	46.6221	14,419.9	52.8709	14,419.9	17.4939	14,419.9	43.5644
14,928.2	83.8429	14,928.2	83.1946	14,928.2	83.1077	14,928.2	82.4019	14,928.2	82.3742	14,928.2	80.8048	14,928.2	80.1433	14,928.2	79.4875	14,928.2	78.5368	14,928.2	77.057	14,928.2	75.7114	14,928.2	74.0933	14,928.2	72.5684	14,928.2	70.6894	14,928.2	70.0908	14,928.2	68.389	14,928.2	65.9651	14,928.2	63.3498	14,928.2	62.6872	14,928.2	61.1071	14,928.2	59.939	14,928.2	58.2598	14,928.2	56.5245	14,928.2	53.7392	14,928.2	49.3799	14,928.2	46.7068	14,928.2	49.2093	14,928.2	47.4819	14,928.2	47.1554	14,928.2	36.9742	14,928.2	49.3403	14,928.2	46.1547	14,928.2	46.7261	14,928.2	46.9974	14,928.2	42.0728	14,928.2	48.0632
15,455.6	84.3681	15,455.6	83.3058	15,455.6	83.1297	15,455.6	82.3433	15,455.6	82.2679	15,455.6	80.6412	15,455.6	80.2387	15,455.6	79.7054	15,455.6	78.5065	15,455.6	76.4859	15,455.6	74.9014	15,455.6	73.6774	15,455.6	72.2685	15,455.6	70.6168	15,455.6	69.1348	15,455.6	67.0867	15,455.6	65.3336	15,455.6	63.3883	15,455.6	62.084	15,455.6	59.8582	15,455.6	59.7706	15,455.6	59.3559	15,455.6	56.4501	15,455.6	50.4535	15,455.6	48.7415	15,455.6	50.3085	15,455.6	48.0967	15,455.6	46.5054	15,455.6	45.645	15,455.6	41.3671	15,455.6	49.0057	15,455.6	41.1634	15,455.6	44.3714	15,455.6	47.1745	15,455.6	41.4373	15,455.6	48.6351
16,000.5	84.2244	16,000.5	83.1801	16,000.5	82.7363	16,000.5	82.1147	16,000.5	82.1138	16,000.5	80.4551	16,000.5	80.2146	16,000.5	79.727	16,000.5	78.5619	16,000.5	76.2227	16,000.5	75.3728	16,000.5	73.777	16,000.5	72.4602	16,000.5	69.7252	16,000.5	69.0387	16,000.5	67.0813	16,000.5	64.7882	16,000.5	62.4918	16,000.5	61.554	16,000.5	59.7328	16,000.5	59.643	16,000.5	58.5571	16,000.5	55.6073	16,000.5	52.823	16,000.5	48.517	16,000.5	47.3209	16,000.5	50.2959	16,000.5	43.4174	16,000.5	43.7304	16,000.5	46.1285	16,000.5	47.1319	16,000.5	47.6121	16,000.5	44.6407	16,000.5	40.2782	16,000.5	45.9492	16,000.5	46.0539
16,564.5	83.7215	16,564.5	82.7875	16,564.5	82.4658	16,564.5	81.7953	16,564.5	81.7894	16,564.5	80.0321	16,564.5	80.0778	16,564.5	79.494	16,564.5	78.3139	16,564.5	76.3237	16,564.5	75.2572	16,564.5	73.1537	16,564.5	71.8315	16,564.5	69.072	16,564.5	67.9378	16,564.5	65.7539	16,564.5	64.1984	16,564.5	61.9233	16,564.5	61.1849	16,564.5	60.0832	16,564.5	58.427	16,564.5	58.8468	16,564.5	54.0566	16,564.5	51.2569	16,564.5	45.7695	16,564.5	50.5416	16,564.5	48.0516	16,564.5	42.985	16,564.5	39.2694	16,564.5	40.8716	16,564.5	44.7758	16,564.5	48.8755	16,564.5	46.7956	16,564.5	38.9968	16,564.5	47.8883	16,564.5	43.8439
17,148.9	82.9625	17,148.9	82.2031	17,148.9	82.4581	17,148.9	81.4254	17,148.9	81.4159	17,148.9	80.067	17,148.9	79.9902	17,148.9	79.5229	17,148.9	78.1287	17,148.9	76.1382	17,148.9	75.0323	17,148.9	73.0162	17,148.9	71.0044	17,148.9	68.9721	17,148.9	67.7154	17,148.9	65.54	17,148.9	64.3809	17,148.9	62.4665	17,148.9	61.4969	17,148.9	58.5946	17,148.9	59.0274	17,148.9	56.4549	17,148.9	55.0985	17,148.9	51.7886	17,148.9	46.5268	17,148.9	46.7523	17,148.9	50.6961	17,148.9	47.0952	17,148.9	38.4937	17,148.9	42.9628	17,148.9	44.0694	17,148.9	48.3299	17,148.9	44.4036	17,148.9	41.4476	17,148.9	46.9773	17,148.9	45.9861
17,752.4	82.3521	17,752.4	82.0694	17,752.4	82.1288	17,752.4	81.2664	17,752.4	80.8734	17,752.4	79.6778	17,752.4	79.8543	17,752.4	79.1959	17,752.4	77.8333	17,752.4	76.1015	17,752.4	75.0268	17,752.4	72.6931	17,752.4	71.2609	17,752.4	68.2608	17,752.4	68.3164	17,752.4	65.739	17,752.4	65.0322	17,752.4	62.2545	17,752.4	61.5354	17,752.4	58.4256	17,752.4	58.8702	17,752.4	57.368	17,752.4	54.472	17,752.4	48.1098	17,752.4	46.575	17,752.4	46.0114	17,752.4	52.4344	17,752.4	45.5237	17,752.4	37.4058	17,752.4	44.0492	17,752.4	46.5134	17,752.4	46.5174	17,752.4	40.7338	17,752.4	37.9905	17,752.4	43.6545	17,752.4	44.4027
18,379.4	81.9218	18,379.4	81.5785	18,379.4	81.891	18,379.4	80.6364	18,379.4	80.4362	18,379.4	79.1995	18,379.4	79.4499	18,379.4	78.6782	18,379.4	77.3969	18,379.4	75.6499	18,379.4	74.7042	18,379.4	72.345	18,379.4	70.9621	18,379.4	68.1877	18,379.4	68.0804	18,379.4	64.9979	18,379.4	64.0381	18,379.4	61.7373	18,379.4	61.2997	18,379.4	58.9606	18,379.4	58.899	18,379.4	57.0868	18,379.4	53.968	18,379.4	49.7848	18,379.4	38.6648	18,379.4	46.8464	18,379.4	50.4513	18,379.4	47.3742	18,379.4	37.0025	18,379.4	32.1568	18,379.4	46.7415	18,379.4	45.0169	18,379.4	41.1699	18,379.4	37.0657	18,379.4	46.3779	18,379.4	44.0313
19,026.9	80.5909	19,026.9	80.5981	19,026.9	81.0841	19,026.9	79.8713	19,026.9	79.8167	19,026.9	78.8187	19,026.9	79.3616	19,026.9	78.5398	19,026.9	77.8284	19,026.9	75.3076	19,026.9	74.7135	19,026.9	72.3514	19,026.9	71.1564	19,026.9	68.2183	19,026.9	67.7536	19,026.9	65.2719	19,026.9	63.6935	19,026.9	62.2804	19,026.9	60.5778	19,026.9	58.3818	19,026.9	56.9576	19,026.9	57.3536	19,026.9	53.4643	19,026.9	49.4429	19,026.9	44.1665	19,026.9	47.452	19,026.9	49.5965	19,026.9	46.3193	19,026.9	39.3196	19,026.9	21.4835	19,026.9	45.0466	19,026.9	33.6845	19,026.9	43.7742	19,026.9	34.5712	19,026.9	46.1296	19,026.9	39.1825
19,697.8	78.8565	19,697.8	79.1738	19,697.8	80.3608	19,697.8	79.0165	19,697.8	79.4128	19,697.8	78.3491	19,697.8	79.0976	19,697.8	78.3891	19,697.8	77.3054	19,697.8	75.499	19,697.8	74.0857	19,697.8	72.9515	19,697.8	70.3576	19,697.8	68.1549	19,697.8	67.3452	19,697.8	64.6405	19,697.8	63.0599	19,697.8	62.0764	19,697.8	60.6852	19,697.8	58.162	19,697.8	59.3676	19,697.8	56.2382	19,697.8	54.1471	19,697.8	50.021	19,697.8	43.4694	19,697.8	44.6876	19,697.8	51.2393	19,697.8	44.7747	19,697.8	39.4548	19,697.8	36.2315	19,697.8	37.2455	19,697.8	38.3595	19,697.8	43.3121	19,697.8	42.0859	19,697.8	43.4717	19,697.8	39.3446
19,999.5	78.524	19,999.5	79.5217	19,999.5	79.9272	19,999.5	78.9944	19,999.5	78.4808	19,999.5	78.0417	19,999.5	78.4728	19,999.5	78.1942	19,999.5	77.0965	19,999.5	74.9534	19,999.5	73.9075	19,999.5	72.6566	19,999.5	69.9768	19,999.5	67.7818	19,999.5	67.7786	19,999.5	65.5473	19,999.5	64.8044	19,999.5	63.4171	19,999.5	62.2448	19,999.5	52.6407	19,999.5	62.2766	19,999.5	60.6617	19,999.5	51.9845	19,999.5	46.1194	19,999.5	57.9605	19,999.5	50.262	19,999.5	54.5389	19,999.5	41.5415	19,999.5	34.4481	19,999.5	38.2199	19,999.5	50.2946	19,999.5	43.7589	19,999.5	47.003	19,999.5	38.1623	19,999.5	55.1694	19,999.5	46.4397
