"SPL Vertical"
"On-Axis"		"10°"		"-10°"		"20°"		"-20°"		"30°"		"-30°"		"40°"		"-40°"		"50°"		"-50°"		"60°"		"-60°"		"70°"		"-70°"		"80°"		"-80°"		"90°"		"-90°"		"100°"		"-100°"		"110°"		"-110°"		"120°"		"-120°"		"130°"		"-130°"		"140°"		"-140°"		"150°"		"-150°"		"160°"		"-160°"		"170°"		"-170°"		"180°"
"Frequency / Hz"	"Sound Pressure Level / dB (re 20 µPa/V)  [2.83V at 1m]"	"Frequency / Hz"	"Sound Pressure Level / dB (re 20 µPa/V)  [2.83V at 1m]"	"Frequency / Hz"	"Sound Pressure Level / dB (re 20 µPa/V)  [2.83V at 1m]"	"Frequency / Hz"	"Sound Pressure Level / dB (re 20 µPa/V)  [2.83V at 1m]"	"Frequency / Hz"	"Sound Pressure Level / dB (re 20 µPa/V)  [2.83V at 1m]"	"Frequency / Hz"	"Sound Pressure Level / dB (re 20 µPa/V)  [2.83V at 1m]"	"Frequency / Hz"	"Sound Pressure Level / dB (re 20 µPa/V)  [2.83V at 1m]"	"Frequency / Hz"	"Sound Pressure Level / dB (re 20 µPa/V)  [2.83V at 1m]"	"Frequency / Hz"	"Sound Pressure Level / dB (re 20 µPa/V)  [2.83V at 1m]"	"Frequency / Hz"	"Sound Pressure Level / dB (re 20 µPa/V)  [2.83V at 1m]"	"Frequency / Hz"	"Sound Pressure Level / dB (re 20 µPa/V)  [2.83V at 1m]"	"Frequency / Hz"	"Sound Pressure Level / dB (re 20 µPa/V)  [2.83V at 1m]"	"Frequency / Hz"	"Sound Pressure Level / dB (re 20 µPa/V)  [2.83V at 1m]"	"Frequency / Hz"	"Sound Pressure Level / dB (re 20 µPa/V)  [2.83V at 1m]"	"Frequency / Hz"	"Sound Pressure Level / dB (re 20 µPa/V)  [2.83V at 1m]"	"Frequency / Hz"	"Sound Pressure Level / dB (re 20 µPa/V)  [2.83V at 1m]"	"Frequency / Hz"	"Sound Pressure Level / dB (re 20 µPa/V)  [2.83V at 1m]"	"Frequency / Hz"	"Sound Pressure Level / dB (re 20 µPa/V)  [2.83V at 1m]"	"Frequency / Hz"	"Sound Pressure Level / dB (re 20 µPa/V)  [2.83V at 1m]"	"Frequency / Hz"	"Sound Pressure Level / dB (re 20 µPa/V)  [2.83V at 1m]"	"Frequency / Hz"	"Sound Pressure Level / dB (re 20 µPa/V)  [2.83V at 1m]"	"Frequency / Hz"	"Sound Pressure Level / dB (re 20 µPa/V)  [2.83V at 1m]"	"Frequency / Hz"	"Sound Pressure Level / dB (re 20 µPa/V)  [2.83V at 1m]"	"Frequency / Hz"	"Sound Pressure Level / dB (re 20 µPa/V)  [2.83V at 1m]"	"Frequency / Hz"	"Sound Pressure Level / dB (re 20 µPa/V)  [2.83V at 1m]"	"Frequency / Hz"	"Sound Pressure Level / dB (re 20 µPa/V)  [2.83V at 1m]"	"Frequency / Hz"	"Sound Pressure Level / dB (re 20 µPa/V)  [2.83V at 1m]"	"Frequency / Hz"	"Sound Pressure Level / dB (re 20 µPa/V)  [2.83V at 1m]"	"Frequency / Hz"	"Sound Pressure Level / dB (re 20 µPa/V)  [2.83V at 1m]"	"Frequency / Hz"	"Sound Pressure Level / dB (re 20 µPa/V)  [2.83V at 1m]"	"Frequency / Hz"	"Sound Pressure Level / dB (re 20 µPa/V)  [2.83V at 1m]"	"Frequency / Hz"	"Sound Pressure Level / dB (re 20 µPa/V)  [2.83V at 1m]"	"Frequency / Hz"	"Sound Pressure Level / dB (re 20 µPa/V)  [2.83V at 1m]"	"Frequency / Hz"	"Sound Pressure Level / dB (re 20 µPa/V)  [2.83V at 1m]"	"Frequency / Hz"	"Sound Pressure Level / dB (re 20 µPa/V)  [2.83V at 1m]"	"Frequency / Hz"	"Sound Pressure Level / dB (re 20 µPa/V)  [2.83V at 1m]"
20.5078	57.7401	20.5078	57.684	20.5078	57.7943	20.5078	57.6275	20.5078	57.8465	20.5078	57.5729	20.5078	57.8973	20.5078	57.5241	20.5078	57.9489	20.5078	57.4862	20.5078	58.0049	20.5078	57.4663	20.5078	58.0707	20.5078	57.4728	20.5078	58.1537	20.5078	57.5156	20.5078	58.2635	20.5078	57.6048	20.5078	58.4117	20.5078	57.7495	20.5078	58.6105	20.5078	57.956	20.5078	58.8692	20.5078	58.2243	20.5078	59.1877	20.5078	58.5451	20.5078	59.5463	20.5078	58.8949	20.5078	59.8954	20.5078	59.2387	20.5078	60.1576	20.5078	59.5446	20.5078	60.2576	20.5078	59.8002	20.5078	60.1855	20.5078	60.0135
21.2402	59.1911	21.2402	59.125	21.2402	59.2262	21.2402	59.0276	21.2402	59.2303	21.2402	58.8988	21.2402	59.2035	21.2402	58.7379	21.2402	59.1459	21.2402	58.5447	21.2402	59.0581	21.2402	58.3197	21.2402	58.9418	21.2402	58.0638	21.2402	58.8006	21.2402	57.7796	21.2402	58.6403	21.2402	57.4718	21.2402	58.4693	21.2402	57.1475	21.2402	58.2989	21.2402	56.8179	21.2402	58.1412	21.2402	56.4994	21.2402	58.0058	21.2402	56.217	21.2402	57.8928	21.2402	56.0084	21.2402	57.7827	21.2402	55.9234	21.2402	57.6305	21.2402	56.0035	21.2402	57.3826	21.2402	56.249	21.2402	57.0246	21.2402	56.6151
21.9727	60.9336	21.9727	60.8996	21.9727	60.9467	21.9727	60.845	21.9727	60.9391	21.9727	60.7698	21.9727	60.9106	21.9727	60.6743	21.9727	60.8618	21.9727	60.559	21.9727	60.7935	21.9727	60.4252	21.9727	60.7079	21.9727	60.2747	21.9727	60.6083	21.9727	60.1105	21.9727	60.5002	21.9727	59.9367	21.9727	60.3912	21.9727	59.7589	21.9727	60.2908	21.9727	59.5839	21.9727	60.2094	21.9727	59.4205	21.9727	60.1562	21.9727	59.2803	21.9727	60.134	21.9727	59.1812	21.9727	60.1321	21.9727	59.1505	21.9727	60.1188	21.9727	59.2172	21.9727	60.0467	21.9727	59.3897	21.9727	59.8799	21.9727	59.6358
22.7051	61.3719	22.7051	61.329	22.7051	61.3908	22.7051	61.2623	22.7051	61.3852	22.7051	61.1722	22.7051	61.355	22.7051	61.059	22.7051	61.2999	22.7051	60.9233	22.7051	61.2203	22.7051	60.7662	22.7051	61.1177	22.7051	60.5895	22.7051	60.9948	22.7051	60.3961	22.7051	60.8561	22.7051	60.1898	22.7051	60.7088	22.7051	59.9756	22.7051	60.5619	22.7051	59.7602	22.7051	60.4257	22.7051	59.552	22.7051	60.3092	22.7051	59.3633	22.7051	60.2147	22.7051	59.2135	22.7051	60.1299	22.7051	59.1305	22.7051	60.0248	22.7051	59.1391	22.7051	59.8661	22.7051	59.2425	22.7051	59.6507	22.7051	59.4239
23.4375	62.5388	23.4375	62.5044	23.4375	62.5527	23.4375	62.4499	23.4375	62.5456	23.4375	62.3765	23.4375	62.5178	23.4375	62.2855	23.4375	62.4699	23.4375	62.179	23.4375	62.4037	23.4375	62.0601	23.4375	62.3223	23.4375	61.9326	23.4375	62.2309	23.4375	61.8021	23.4375	62.1366	23.4375	61.6751	23.4375	62.0486	23.4375	61.5588	23.4375	61.9771	23.4375	61.4605	23.4375	61.9313	23.4375	61.3865	23.4375	61.9161	23.4375	61.3412	23.4375	61.9267	23.4375	61.3275	23.4375	61.9434	23.4375	61.347	23.4375	61.9335	23.4375	61.4007	23.4375	61.8679	23.4375	61.4879	23.4375	61.7474	23.4375	61.6078
24.1699	63.8812	24.1699	63.8404	24.1699	63.8882	24.1699	63.7663	24.1699	63.8605	24.1699	63.659	24.1699	63.7969	24.1699	63.5186	24.1699	63.696	24.1699	63.3448	24.1699	63.5567	24.1699	63.1377	24.1699	63.3783	24.1699	62.8976	24.1699	63.1614	24.1699	62.6253	24.1699	62.9078	24.1699	62.3225	24.1699	62.6216	24.1699	61.9915	24.1699	62.3089	24.1699	61.6354	24.1699	61.9774	24.1699	61.2593	24.1699	61.6364	24.1699	60.8731	24.1699	61.2959	24.1699	60.4975	24.1699	60.9668	24.1699	60.1715	24.1699	60.6592	24.1699	59.9505	24.1699	60.3806	24.1699	59.8801	24.1699	60.1394	24.1699	59.958
25.6348	65.733	25.6348	65.6835	25.6348	65.7568	25.6348	65.6086	25.6348	65.7543	25.6348	65.5083	25.6348	65.7244	25.6348	65.3823	25.6348	65.6659	25.6348	65.2302	25.6348	65.5777	25.6348	65.0514	25.6348	65.4588	25.6348	64.8456	25.6348	65.3088	25.6348	64.6127	25.6348	65.1284	25.6348	64.3528	25.6348	64.9192	25.6348	64.0662	25.6348	64.6846	25.6348	63.7535	25.6348	64.4292	25.6348	63.4165	25.6348	64.1587	25.6348	63.0619	25.6348	63.8797	25.6348	62.7101	25.6348	63.5968	25.6348	62.4058	25.6348	63.3057	25.6348	62.2176	25.6348	62.9931	25.6348	62.2051	25.6348	62.6635	25.6348	62.3728
26.3672	66.7381	26.3672	66.6942	26.3672	66.7643	26.3672	66.6329	26.3672	66.7723	26.3672	66.5549	26.3672	66.7617	26.3672	66.4607	26.3672	66.7326	26.3672	66.3515	26.3672	66.6852	26.3672	66.2287	26.3672	66.6204	26.3672	66.0946	26.3672	66.5403	26.3672	65.952	26.3672	66.4479	26.3672	65.805	26.3672	66.3478	26.3672	65.6578	26.3672	66.2457	26.3672	65.5153	26.3672	66.1477	26.3672	65.3829	26.3672	66.0603	26.3672	65.2674	26.3672	65.9876	26.3672	65.1801	26.3672	65.9279	26.3672	65.1397	26.3672	65.8657	26.3672	65.1695	26.3672	65.7721	26.3672	65.2795	26.3672	65.6269	26.3672	65.4474
27.0996	67.4694	27.0996	67.4313	27.0996	67.4917	27.0996	67.3782	27.0996	67.4975	27.0996	67.3113	27.0996	67.4867	27.0996	67.2321	27.0996	67.4595	27.0996	67.1431	27.0996	67.4171	27.0996	67.047	27.0996	67.3613	27.0996	66.948	27.0996	67.2955	27.0996	66.851	27.0996	67.2249	27.0996	66.7619	27.0996	67.1559	27.0996	66.6871	27.0996	67.0967	27.0996	66.6333	27.0996	67.056	27.0996	66.6062	27.0996	67.0418	27.0996	66.611	27.0996	67.0595	27.0996	66.6516	27.0996	67.107	27.0996	66.7309	27.0996	67.1692	27.0996	66.8479	27.0996	67.2134	27.0996	66.9888	27.0996	67.2019	27.0996	67.1201
27.832	68.308	27.832	68.2695	27.832	68.3228	27.832	68.2079	27.832	68.3132	27.832	68.124	27.832	68.2788	27.832	68.019	27.832	68.2198	27.832	67.8946	27.832	68.1365	27.832	67.7532	27.832	68.0306	27.832	67.5982	27.832	67.905	27.832	67.4343	27.832	67.764	27.832	67.2675	27.832	67.6141	27.832	67.1049	27.832	67.4631	27.832	66.9544	27.832	67.32	27.832	66.824	27.832	67.1938	27.832	66.7212	27.832	67.0921	27.832	66.6531	27.832	67.0185	27.832	66.6253	27.832	66.9667	27.832	66.6397	27.832	66.9168	27.832	66.6907	27.832	66.8488	27.832	66.7662
29.2969	70.1781	29.2969	70.147	29.2969	70.1868	29.2969	70.0941	29.2969	70.1725	29.2969	70.0203	29.2969	70.1351	29.2969	69.9267	29.2969	70.0744	29.2969	69.8149	29.2969	69.9912	29.2969	69.6871	29.2969	69.8869	29.2969	69.5465	29.2969	69.7642	29.2969	69.3972	29.2969	69.6273	29.2969	69.2442	29.2969	69.4817	29.2969	69.0932	29.2969	69.3342	29.2969	68.9502	29.2969	69.1921	29.2969	68.8206	29.2969	69.0621	29.2969	68.7096	29.2969	68.9491	29.2969	68.6215	29.2969	68.8551	29.2969	68.5616	29.2969	68.7775	29.2969	68.5349	29.2969	68.7085	29.2969	68.5434	29.2969	68.642	29.2969	68.5827
30.0293	70.9183	30.0293	70.886	30.0293	70.9287	30.0293	70.8326	30.0293	70.9167	30.0293	70.7592	30.0293	70.8825	30.0293	70.6676	30.0293	70.8264	30.0293	70.5602	30.0293	70.7498	30.0293	70.4404	30.0293	70.6552	30.0293	70.3128	30.0293	70.5465	30.0293	70.1833	30.0293	70.4293	30.0293	70.0591	30.0293	70.3111	30.0293	69.948	30.0293	70.2004	30.0293	69.8579	30.0293	70.106	30.0293	69.7957	30.0293	70.0353	30.0293	69.7658	30.0293	69.9926	30.0293	69.7684	30.0293	69.9764	30.0293	69.7985	30.0293	69.9774	30.0293	69.8453	30.0293	69.9791	30.0293	69.8954	30.0293	69.9672	30.0293	69.9381
31.4941	73.3422	31.4941	73.3118	31.4941	73.3445	31.4941	73.2535	31.4941	73.318	31.4941	73.1682	31.4941	73.2628	31.4941	73.0567	31.4941	73.1788	31.4941	72.9205	31.4941	73.0667	31.4941	72.7618	31.4941	72.928	31.4941	72.5835	31.4941	72.7652	31.4941	72.39	31.4941	72.5822	31.4941	72.1863	31.4941	72.384	31.4941	71.9787	31.4941	72.177	31.4941	71.7734	31.4941	71.9679	31.4941	71.5763	31.4941	71.7627	31.4941	71.3923	31.4941	71.5667	31.4941	71.2256	31.4941	71.3842	31.4941	71.082	31.4941	71.2198	31.4941	70.9719	31.4941	71.0798	31.4941	70.9115	31.4941	70.9734	31.4941	70.9129
32.2266	74.335	32.2266	74.306	32.2266	74.3362	32.2266	74.2497	32.2266	74.3088	32.2266	74.1673	32.2266	74.2529	32.2266	74.0602	32.2266	74.1687	32.2266	73.9303	32.2266	74.057	32.2266	73.7806	32.2266	73.9197	32.2266	73.6147	32.2266	73.7598	32.2266	73.4377	32.2266	73.582	32.2266	73.2553	32.2266	73.3919	32.2266	73.074	32.2266	73.1964	32.2266	72.9005	32.2266	73.0026	32.2266	72.7406	32.2266	72.8169	32.2266	72.5988	32.2266	72.6447	32.2266	72.4783	32.2266	72.4914	32.2266	72.3803	32.2266	72.3644	32.2266	72.3041	32.2266	72.2737	32.2266	72.2499	32.2266	72.2266	32.2266	72.2214
33.6914	75.7509	33.6914	75.7109	33.6914	75.76	33.6914	75.6406	33.6914	75.7376	33.6914	75.5408	33.6914	75.6837	33.6914	75.413	33.6914	75.5985	33.6914	75.2591	33.6914	75.4828	33.6914	75.0819	33.6914	75.3383	33.6914	74.8854	33.6914	75.168	33.6914	74.6749	33.6914	74.9764	33.6914	74.4567	33.6914	74.7695	33.6914	74.2385	33.6914	74.5543	33.6914	74.0279	33.6914	74.3385	33.6914	73.8328	33.6914	74.1293	33.6914	73.6611	33.6914	73.9326	33.6914	73.5214	33.6914	73.7538	33.6914	73.4219	33.6914	73.5994	33.6914	73.3656	33.6914	73.4786	33.6914	73.3468	33.6914	73.3985	33.6914	73.3573
34.4238	76.604	34.4238	76.5688	34.4238	76.6085	34.4238	76.5035	34.4238	76.5818	34.4238	76.4089	34.4238	76.5239	34.4238	76.2862	34.4238	76.4349	34.4238	76.137	34.4238	76.3155	34.4238	75.9639	34.4238	76.1673	34.4238	75.7703	34.4238	75.9932	34.4238	75.561	34.4238	75.7974	34.4238	75.3419	34.4238	75.5855	34.4238	75.1201	34.4238	75.3647	34.4238	74.9028	34.4238	75.1423	34.4238	74.6978	34.4238	74.9259	34.4238	74.5128	34.4238	74.7219	34.4238	74.3561	34.4238	74.5368	34.4238	74.2367	34.4238	74.3779	34.4238	74.1605	34.4238	74.2539	34.4238	74.1266	34.4238	74.1715	34.4238	74.1304
35.8887	78.5535	35.8887	78.5247	35.8887	78.5525	35.8887	78.4666	35.8887	78.5215	35.8887	78.38	35.8887	78.4602	35.8887	78.2657	35.8887	78.3689	35.8887	78.1254	35.8887	78.2483	35.8887	77.9612	35.8887	78.0999	35.8887	77.7762	35.8887	77.9263	35.8887	77.5748	35.8887	77.7314	35.8887	77.3624	35.8887	77.5204	35.8887	77.1455	35.8887	77.2994	35.8887	76.9311	35.8887	77.0755	35.8887	76.7265	35.8887	76.8558	35.8887	76.5383	35.8887	76.6478	35.8887	76.3731	35.8887	76.4601	35.8887	76.2371	35.8887	76.3021	35.8887	76.1371	35.8887	76.1822	35.8887	76.0801	35.8887	76.1042	35.8887	76.0694
37.3535	79.8519	37.3535	79.822	37.3535	79.8538	37.3535	79.7649	37.3535	79.8275	37.3535	79.6816	37.3535	79.7731	37.3535	79.5734	37.3535	79.6911	37.3535	79.4424	37.3535	79.5831	37.3535	79.2912	37.3535	79.4514	37.3535	79.1234	37.3535	79.2997	37.3535	78.9435	37.3535	79.1331	37.3535	78.757	37.3535	78.9579	37.3535	78.5701	37.3535	78.7811	37.3535	78.3894	37.3535	78.6096	37.3535	78.222	37.3535	78.4495	37.3535	78.0754	37.3535	78.3051	37.3535	77.9573	37.3535	78.179	37.3535	77.8749	37.3535	78.0724	37.3535	77.8326	37.3535	77.9845	37.3535	77.8295	37.3535	77.9131	37.3535	77.8592
38.8184	81.566	38.8184	81.5288	38.8184	81.5723	38.8184	81.4617	38.8184	81.5471	38.8184	81.3663	38.8184	81.4901	38.8184	81.2448	38.8184	81.402	38.8184	81.1003	38.8184	81.2842	38.8184	80.937	38.8184	81.139	38.8184	80.7601	38.8184	80.9707	38.8184	80.5765	38.8184	80.7849	38.8184	80.3937	38.8184	80.5888	38.8184	80.2199	38.8184	80.3913	38.8184	80.0627	38.8184	80.2014	38.8184	79.9281	38.8184	80.0282	38.8184	79.8196	38.8184	79.88	38.8184	79.7381	38.8184	79.7641	38.8184	79.6816	38.8184	79.6855	38.8184	79.6465	38.8184	79.6424	38.8184	79.6281	38.8184	79.6249	38.8184	79.6215
39.5508	82.5118	39.5508	82.4744	39.5508	82.5172	39.5508	82.406	39.5508	82.49	39.5508	82.3079	39.5508	82.4302	39.5508	82.1822	39.5508	82.3385	39.5508	82.032	39.5508	82.2163	39.5508	81.8611	39.5508	82.0662	39.5508	81.6751	39.5508	81.8922	39.5508	81.4805	39.5508	81.7002	39.5508	81.2852	39.5508	81.4976	39.5508	81.0977	39.5508	81.2931	39.5508	80.9261	39.5508	81.0962	39.5508	80.7769	39.5508	80.9157	39.5508	80.6544	39.5508	80.7597	39.5508	80.56	39.5508	80.6347	39.5508	80.4928	39.5508	80.5445	39.5508	80.451	39.5508	80.4865	39.5508	80.4327	39.5508	80.4522	39.5508	80.4343
41.0156	84.1888	41.0156	84.1501	41.0156	84.1932	41.0156	84.0779	41.0156	84.163	41.0156	83.9736	41.0156	84.0982	41.0156	83.839	41.0156	83.9995	41.0156	83.677	41.0156	83.8684	41.0156	83.4914	41.0156	83.7076	41.0156	83.2874	41.0156	83.5213	41.0156	83.0716	41.0156	83.3155	41.0156	82.8522	41.0156	83.0979	41.0156	82.6379	41.0156	82.8777	41.0156	82.4375	41.0156	82.6645	41.0156	82.2586	41.0156	82.4674	41.0156	82.1068	41.0156	82.2942	41.0156	81.9855	41.0156	82.1505	41.0156	81.8969	41.0156	82.0383	41.0156	81.8438	41.0156	81.9546	41.0156	81.8287	41.0156	81.8921	41.0156	81.8479
42.4805	85.8533	42.4805	85.8104	42.4805	85.8597	42.4805	85.7319	42.4805	85.8292	42.4805	85.6192	42.4805	85.7618	42.4805	85.4744	42.4805	85.6583	42.4805	85.3006	42.4805	85.5203	42.4805	85.1021	42.4805	85.3507	42.4805	84.8846	42.4805	85.1541	42.4805	84.6555	42.4805	84.9371	42.4805	84.4238	42.4805	84.7082	42.4805	84.1992	42.4805	84.4775	42.4805	83.9914	42.4805	84.2559	42.4805	83.8087	42.4805	84.0536	42.4805	83.657	42.4805	83.8789	42.4805	83.5395	42.4805	83.7367	42.4805	83.4574	42.4805	83.6275	42.4805	83.4125	42.4805	83.5454	42.4805	83.4056	42.4805	83.4811	42.4805	83.4319
43.9453	87.5745	43.9453	87.5237	43.9453	87.5845	43.9453	87.4328	43.9453	87.5532	43.9453	87.3027	43.9453	87.4806	43.9453	87.135	43.9453	87.3669	43.9453	86.9322	43.9453	87.2134	43.9453	86.6978	43.9453	87.0221	43.9453	86.4371	43.9453	86.7967	43.9453	86.1573	43.9453	86.5431	43.9453	85.8676	43.9453	86.2691	43.9453	85.5789	43.9453	85.9852	43.9453	85.3031	43.9453	85.7032	43.9453	85.0517	43.9453	85.4357	43.9453	84.8346	43.9453	85.1944	43.9453	84.6594	43.9453	84.988	43.9453	84.5324	43.9453	84.8198	43.9453	84.4607	43.9453	84.6853	43.9453	84.4496	43.9453	84.5764	43.9453	84.4935
45.4102	88.873	45.4102	88.8441	45.4102	88.8651	45.4102	88.7787	45.4102	88.8205	45.4102	88.6772	45.4102	88.7392	45.4102	88.5406	45.4102	88.6218	45.4102	88.3704	45.4102	88.4693	45.4102	88.1689	45.4102	88.2833	45.4102	87.9395	45.4102	88.0665	45.4102	87.6868	45.4102	87.8226	45.4102	87.4168	45.4102	87.5571	45.4102	87.1369	45.4102	87.2768	45.4102	86.8551	45.4102	86.9902	45.4102	86.5803	45.4102	86.7068	45.4102	86.3216	45.4102	86.4368	45.4102	86.0894	45.4102	86.1905	45.4102	85.8952	45.4102	85.9783	45.4102	85.7521	45.4102	85.8118	45.4102	85.6704	45.4102	85.7017	45.4102	85.6539
47.6074	90.1035	47.6074	90.06	47.6074	90.1164	47.6074	89.9861	47.6074	90.099	47.6074	89.8825	47.6074	90.0524	47.6074	89.7508	47.6074	89.9779	47.6074	89.5935	47.6074	89.8775	47.6074	89.4143	47.6074	89.754	47.6074	89.218	47.6074	89.6108	47.6074	89.0112	47.6074	89.4518	47.6074	88.8012	47.6074	89.2817	47.6074	88.5965	47.6074	89.1054	47.6074	88.4055	47.6074	88.9276	47.6074	88.2365	47.6074	88.7528	47.6074	88.0967	47.6074	88.5844	47.6074	87.9923	47.6074	88.4252	47.6074	87.9278	47.6074	88.2782	47.6074	87.9047	47.6074	88.1489	47.6074	87.9198	47.6074	88.0442	47.6074	87.9674
49.0723	91.1936	49.0723	91.1632	49.0723	91.1929	49.0723	91.1015	49.0723	91.1623	49.0723	91.0087	49.0723	91.1032	49.0723	90.8859	49.0723	91.0179	49.0723	90.7354	49.0723	90.9092	49.0723	90.5605	49.0723	90.7807	49.0723	90.366	49.0723	90.6365	49.0723	90.1583	49.0723	90.4809	49.0723	89.9453	49.0723	90.3187	49.0723	89.7358	49.0723	90.1542	49.0723	89.5392	49.0723	89.9911	49.0723	89.3645	49.0723	89.8321	49.0723	89.2196	49.0723	89.6795	49.0723	89.1114	49.0723	89.5346	49.0723	89.0458	49.0723	89.4001	49.0723	89.0258	49.0723	89.2806	49.0723	89.0481	49.0723	89.181	49.0723	89.1027
50.5371	92.091	50.5371	92.0844	50.5371	92.0658	50.5371	92.0457	50.5371	92.0101	50.5371	91.975	50.5371	91.9257	50.5371	91.8733	50.5371	91.8153	50.5371	91.7424	50.5371	91.6826	50.5371	91.585	50.5371	91.532	50.5371	91.4047	50.5371	91.3689	50.5371	91.2065	50.5371	91.1991	50.5371	90.996	50.5371	91.0282	50.5371	90.78	50.5371	90.8609	50.5371	90.5655	50.5371	90.7006	50.5371	90.3598	50.5371	90.5483	50.5371	90.1708	50.5371	90.4032	50.5371	90.0074	50.5371	90.2636	50.5371	89.8819	50.5371	90.13	50.5371	89.8077	50.5371	90.0078	50.5371	89.7924	50.5371	89.9051	50.5371	89.8297
52.7344	93.3371	52.7344	93.3335	52.7344	93.3093	52.7344	93.2989	52.7344	93.2507	52.7344	93.2346	52.7344	93.1629	52.7344	93.1428	52.7344	93.0489	52.7344	93.0266	52.7344	92.913	52.7344	92.8901	52.7344	92.7608	52.7344	92.7384	52.7344	92.5996	52.7344	92.5771	52.7344	92.4373	52.7344	92.4122	52.7344	92.2823	52.7344	92.2496	52.7344	92.1417	52.7344	92.0943	52.7344	92.0202	52.7344	91.9508	52.7344	91.9191	52.7344	91.8231	52.7344	91.8355	52.7344	91.7157	52.7344	91.7643	52.7344	91.6354	52.7344	91.7017	52.7344	91.5887	52.7344	91.6493	52.7344	91.5755	52.7344	91.6108	52.7344	91.5859
54.1992	93.9078	54.1992	93.9051	54.1992	93.8768	54.1992	93.8692	54.1992	93.8125	54.1992	93.8017	54.1992	93.7168	54.1992	93.7049	54.1992	93.5925	54.1992	93.5824	54.1992	93.4443	54.1992	93.4387	54.1992	93.2784	54.1992	93.2793	54.1992	93.1028	54.1992	93.1103	54.1992	92.9267	54.1992	92.9382	54.1992	92.7597	54.1992	92.7693	54.1992	92.6103	54.1992	92.6088	54.1992	92.4844	54.1992	92.461	54.1992	92.3838	54.1992	92.3299	54.1992	92.3054	54.1992	92.22	54.1992	92.2426	54.1992	92.1386	54.1992	92.1894	54.1992	92.0928	54.1992	92.1457	54.1992	92.0815	54.1992	92.114	54.1992	92.0923
56.3965	94.5658	56.3965	94.5656	56.3965	94.5295	56.3965	94.5299	56.3965	94.4571	56.3965	94.4605	56.3965	94.3502	56.3965	94.3603	56.3965	94.2116	56.3965	94.2332	56.3965	94.0463	56.3965	94.0842	56.3965	93.861	56.3965	93.9192	56.3965	93.6646	56.3965	93.7447	56.3965	93.4678	56.3965	93.5674	56.3965	93.2819	56.3965	93.3935	56.3965	93.1176	56.3965	93.2282	56.3965	92.9825	56.3965	93.0755	56.3965	92.8797	56.3965	92.939	56.3965	92.8061	56.3965	92.8235	56.3965	92.7541	56.3965	92.7368	56.3965	92.7163	56.3965	92.6863	56.3965	92.6906	56.3965	92.6694	56.3965	92.6772	56.3965	92.6706
58.5938	95.013	58.5938	95.0131	58.5938	94.9743	58.5938	94.9757	58.5938	94.8969	58.5938	94.9032	58.5938	94.782	58.5938	94.7989	58.5938	94.6323	58.5938	94.6673	58.5938	94.4526	58.5938	94.5136	58.5938	94.2498	58.5938	94.3442	58.5938	94.0333	58.5938	94.1657	58.5938	93.8148	58.5938	93.9847	58.5938	93.6071	58.5938	93.807	58.5938	93.423	58.5938	93.6373	58.5938	93.2724	58.5938	93.4787	58.5938	93.1599	58.5938	93.3343	58.5938	93.0835	58.5938	93.2089	58.5938	93.0351	58.5938	93.1113	58.5938	93.0066	58.5938	93.0499	58.5938	92.9949	58.5938	93.0215	58.5938	92.9984	58.5938	93.0087
60.0586	95.2808	60.0586	95.2771	60.0586	95.2444	60.0586	95.2349	60.0586	95.1678	60.0586	95.1566	60.0586	95.0519	60.0586	95.0462	60.0586	94.8997	60.0586	94.9084	60.0586	94.716	60.0586	94.7493	60.0586	94.508	60.0586	94.5756	60.0586	94.2855	60.0586	94.3946	60.0586	94.0608	60.0586	94.2134	60.0586	93.8478	60.0586	94.0378	60.0586	93.6602	60.0586	93.8723	60.0586	93.5086	60.0586	93.7196	60.0586	93.3983	60.0586	93.5819	60.0586	93.3267	60.0586	93.4636	60.0586	93.2852	60.0586	93.3729	60.0586	93.2642	60.0586	93.318	60.0586	93.2597	60.0586	93.2942	60.0586	93.2692	60.0586	93.2824
62.2559	95.6425	62.2559	95.6251	62.2559	95.6165	62.2559	95.5662	62.2559	95.5466	62.2559	95.4686	62.2559	95.4335	62.2559	95.3364	62.2559	95.2797	62.2559	95.1752	62.2559	95.0895	62.2559	94.9915	62.2559	94.8694	62.2559	94.793	62.2559	94.6292	62.2559	94.5882	62.2559	94.381	62.2559	94.3849	62.2559	94.1395	62.2559	94.1903	62.2559	93.9199	62.2559	94.0091	62.2559	93.7357	62.2559	93.8443	62.2559	93.595	62.2559	93.698	62.2559	93.4979	62.2559	93.5745	62.2559	93.4371	62.2559	93.4826	62.2559	93.4033	62.2559	93.431	62.2559	93.3917	62.2559	93.4135	62.2559	93.3977	62.2559	93.4075
64.4531	95.9671	64.4531	95.9405	64.4531	95.947	64.4531	95.8684	64.4531	95.8801	64.4531	95.7532	64.4531	95.768	64.4531	95.5986	64.4531	95.6134	64.4531	95.4098	64.4531	95.4213	64.4531	95.1937	64.4531	95.1989	64.4531	94.9588	64.4531	94.9561	64.4531	94.715	64.4531	94.7055	64.4531	94.4727	64.4531	94.4618	64.4531	94.2419	64.4531	94.2398	64.4531	94.0311	64.4531	94.0519	64.4531	93.8465	64.4531	93.9047	64.4531	93.6926	64.4531	93.7964	64.4531	93.5753	64.4531	93.7178	64.4531	93.5034	64.4531	93.6584	64.4531	93.4844	64.4531	93.614	64.4531	93.5085	64.4531	93.5811	64.4531	93.5475
66.6504	96.2385	66.6504	96.2333	66.6504	96.1954	66.6504	96.1807	66.6504	96.1038	66.6504	96.0823	66.6504	95.9641	66.6504	95.9405	66.6504	95.7783	66.6504	95.7581	66.6504	95.5496	66.6504	95.5391	66.6504	95.2837	66.6504	95.2881	66.6504	94.9886	66.6504	95.0108	66.6504	94.6756	66.6504	94.714	66.6504	94.3588	66.6504	94.4055	66.6504	94.0544	66.6504	94.0945	66.6504	93.7783	66.6504	93.7915	66.6504	93.5424	66.6504	93.5099	66.6504	93.3511	66.6504	93.2666	66.6504	93.2005	66.6504	93.0828	66.6504	93.0848	66.6504	92.9746	66.6504	93.0037	66.6504	92.9355	66.6504	92.9577	66.6504	92.9367
69.5801	96.8252	69.5801	96.8045	69.5801	96.8069	69.5801	96.7462	69.5801	96.7491	69.5801	96.6536	69.5801	96.653	69.5801	96.5306	69.5801	96.5213	69.5801	96.3825	69.5801	96.3583	69.5801	96.2148	69.5801	96.17	69.5801	96.0333	69.5801	95.964	69.5801	95.843	69.5801	95.7489	69.5801	95.6475	69.5801	95.5339	69.5801	95.4485	69.5801	95.3273	69.5801	95.2466	69.5801	95.1357	69.5801	95.042	69.5801	94.9619	69.5801	94.8384	69.5801	94.8054	69.5801	94.6462	69.5801	94.6631	69.5801	94.4859	69.5801	94.5362	69.5801	94.3808	69.5801	94.4349	69.5801	94.3373	69.5801	94.3702	69.5801	94.3387
71.7773	97.1705	71.7773	97.1584	71.7773	97.1393	71.7773	97.1047	71.7773	97.0651	71.7773	97.0124	71.7773	96.9498	71.7773	96.8864	71.7773	96.7974	71.7773	96.7325	71.7773	96.6143	71.7773	96.5577	71.7773	96.4091	71.7773	96.3694	71.7773	96.1926	71.7773	96.1746	71.7773	95.977	71.7773	95.979	71.7773	95.7745	71.7773	95.7865	71.7773	95.5954	71.7773	95.5993	71.7773	95.4456	71.7773	95.4188	71.7773	95.3254	71.7773	95.2486	71.7773	95.2286	71.7773	95.0983	71.7773	95.1455	71.7773	94.9852	71.7773	95.0706	71.7773	94.926	71.7773	95.0087	71.7773	94.9183	71.7773	94.9664	71.7773	94.9377
73.9746	97.5251	73.9746	97.5133	73.9746	97.491	73.9746	97.4579	73.9746	97.411	73.9746	97.3625	73.9746	97.2869	73.9746	97.2327	73.9746	97.123	73.9746	97.0754	73.9746	96.9262	73.9746	96.8984	73.9746	96.7063	73.9746	96.71	73.9746	96.4757	73.9746	96.5176	73.9746	96.2489	73.9746	96.327	73.9746	96.0404	73.9746	96.1414	73.9746	95.8627	73.9746	95.9619	73.9746	95.7229	73.9746	95.7888	73.9746	95.6205	73.9746	95.6244	73.9746	95.5473	73.9746	95.4779	73.9746	95.4901	73.9746	95.3673	73.9746	95.4392	73.9746	95.3116	73.9746	95.3955	73.9746	95.3094	73.9746	95.3626	73.9746	95.3341
76.9043	98.0166	76.9043	97.994	76.9043	97.9886	76.9043	97.9231	76.9043	97.9097	76.9043	97.8084	76.9043	97.7821	76.9043	97.6565	76.9043	97.6102	76.9043	97.4756	76.9043	97.4019	76.9043	97.2756	76.9043	97.1682	76.9043	97.0668	76.9043	96.9233	76.9043	96.8592	76.9043	96.6842	76.9043	96.6607	76.9043	96.4681	76.9043	96.476	76.9043	96.2898	76.9043	96.3067	76.9043	96.1578	76.9043	96.1522	76.9043	96.0712	76.9043	96.0135	76.9043	96.0192	76.9043	95.8972	76.9043	95.9851	76.9043	95.8186	76.9043	95.955	76.9043	95.7936	76.9043	95.9257	76.9043	95.8178	76.9043	95.8971	76.9043	95.861
79.834	98.5003	79.834	98.4723	79.834	98.4721	79.834	98.3908	79.834	98.3876	79.834	98.2604	79.834	98.2488	79.834	98.088	79.834	98.0606	79.834	97.8824	79.834	97.8312	79.834	97.6546	79.834	97.5725	79.834	97.4162	79.834	97.3004	79.834	97.1791	79.834	97.0341	79.834	96.9531	79.834	96.7937	79.834	96.7449	79.834	96.597	79.834	96.5579	79.834	96.4545	79.834	96.3928	79.834	96.3656	79.834	96.2513	79.834	96.3181	79.834	96.1401	79.834	96.2921	79.834	96.0736	79.834	96.27	79.834	96.0656	79.834	96.245	79.834	96.1082	79.834	96.214	79.834	96.1676
82.7637	98.9024	82.7637	98.8694	82.7637	98.8736	82.7637	98.7769	82.7637	98.7826	82.7637	98.6298	82.7637	98.6316	82.7637	98.4349	82.7637	98.4254	82.7637	98.2016	82.7637	98.1724	82.7637	97.9414	82.7637	97.8852	82.7637	97.6672	82.7637	97.5807	82.7637	97.3925	82.7637	97.2799	82.7637	97.1291	82.7637	97.0058	82.7637	96.8862	82.7637	96.7789	82.7637	96.6689	82.7637	96.6119	82.7637	96.4796	82.7637	96.5053	82.7637	96.3208	82.7637	96.446	82.7637	96.1997	82.7637	96.4122	82.7637	96.131	82.7637	96.3839	82.7637	96.1279	82.7637	96.3522	82.7637	96.1811	82.7637	96.312	82.7637	96.2536
85.6934	99.2971	85.6934	99.2732	85.6934	99.2552	85.6934	99.1857	85.6934	99.1472	85.6934	99.0387	85.6934	98.9751	85.6934	98.8382	85.6934	98.7435	85.6934	98.5921	85.6934	98.4602	85.6934	98.3103	85.6934	98.1376	85.6934	98.0045	85.6934	97.7928	85.6934	97.687	85.6934	97.4472	85.6934	97.3706	85.6934	97.1249	85.6934	97.0664	85.6934	96.8484	85.6934	96.7844	85.6934	96.6324	85.6934	96.5328	85.6934	96.4792	85.6934	96.3205	85.6934	96.3769	85.6934	96.1593	85.6934	96.3054	85.6934	96.0636	85.6934	96.2478	85.6934	96.0408	85.6934	96.2001	85.6934	96.0728	85.6934	96.1618	85.6934	96.1212
88.623	99.7374	88.623	99.7214	88.623	99.69	88.623	99.6457	88.623	99.5781	88.623	99.5154	88.623	99.4024	88.623	99.3377	88.623	99.1668	88.623	99.1213	88.623	98.8789	88.623	98.8758	88.623	98.5507	88.623	98.6116	88.623	98.1998	88.623	98.3384	88.623	97.8486	88.623	98.0643	88.623	97.5226	88.623	97.796	88.623	97.2461	88.623	97.5387	88.623	97.0352	88.623	97.2984	88.623	96.8927	88.623	97.0838	88.623	96.8063	88.623	96.9084	88.623	96.7553	88.623	96.7887	88.623	96.7231	88.623	96.7317	88.623	96.7072	88.623	96.7192	88.623	96.7093	88.623	96.717
91.5527	100.141	91.5527	100.103	91.5527	100.113	91.5527	100.002	91.5527	100.016	91.5527	99.8449	91.5527	99.8533	91.5527	99.6399	91.5527	99.6276	91.5527	99.398	91.5527	99.3476	91.5527	99.132	91.5527	99.0266	91.5527	98.8556	91.5527	98.6837	91.5527	98.5817	91.5527	98.344	91.5527	98.3215	91.5527	98.0357	91.5527	98.0829	91.5527	97.7855	91.5527	97.8709	91.5527	97.6107	91.5527	97.6892	91.5527	97.5125	91.5527	97.543	91.5527	97.475	91.5527	97.4407	91.5527	97.4718	91.5527	97.3922	91.5527	97.4796	91.5527	97.399	91.5527	97.4881	91.5527	97.4398	91.5527	97.492	91.5527	97.478
94.4824	100.231	94.4824	100.192	94.4824	100.199	94.4824	100.086	94.4824	100.095	94.4824	99.9181	94.4824	99.9203	94.4824	99.6968	94.4824	99.6788	94.4824	99.4321	94.4824	99.3786	94.4824	99.1361	94.4824	99.033	94.4824	98.8219	94.4824	98.6615	94.4824	98.503	94.4824	98.2903	94.4824	98.192	94.4824	97.9503	94.4824	97.9001	94.4824	97.672	94.4824	97.6377	94.4824	97.4765	94.4824	97.4157	94.4824	97.3678	94.4824	97.2466	94.4824	97.3298	94.4824	97.1439	94.4824	97.3331	94.4824	97.1171	94.4824	97.3489	94.4824	97.16	94.4824	97.3596	94.4824	97.2411	94.4824	97.3534	94.4824	97.3148
98.1445	99.9876	98.1445	99.9472	98.1445	99.9555	98.1445	99.8383	98.1445	99.8494	98.1445	99.6675	98.1445	99.6706	98.1445	99.4439	98.1445	99.4235	98.1445	99.1791	98.1445	99.1169	98.1445	98.8865	98.1445	98.7647	98.1445	98.5804	98.1445	98.3875	98.1445	98.2737	98.1445	98.0126	98.1445	97.9769	98.1445	97.6717	98.1445	97.6976	98.1445	97.3954	98.1445	97.4417	98.1445	97.2045	98.1445	97.2165	98.1445	97.1018	98.1445	97.0331	98.1445	97.0698	98.1445	96.9075	98.1445	97.0781	98.1445	96.8549	98.1445	97.0961	98.1445	96.8776	98.1445	97.1032	98.1445	96.9516	98.1445	97.0857	98.1445	97.0328
101.807	99.5732	101.807	99.5277	101.807	99.536	101.807	99.4036	101.807	99.4147	101.807	99.2074	101.807	99.2104	101.807	98.9488	101.807	98.9282	101.807	98.6404	101.807	98.5776	101.807	98.298	101.807	98.1751	101.807	97.9395	101.807	97.7459	101.807	97.5834	101.807	97.3249	101.807	97.2474	101.807	96.9537	101.807	96.9468	101.807	96.6729	101.807	96.6945	101.807	96.5081	101.807	96.5022	101.807	96.459	101.807	96.3804	101.807	96.4978	101.807	96.3369	101.807	96.5815	101.807	96.3712	101.807	96.6681	101.807	96.4668	101.807	96.7273	101.807	96.5883	101.807	96.7389	101.807	96.6901
105.469	99.3566	105.469	99.3195	105.469	99.3052	105.469	99.198	105.469	99.1624	105.469	98.9972	105.469	98.9267	105.469	98.7236	105.469	98.5986	105.469	98.385	105.469	98.1821	105.469	97.9904	105.469	97.6863	105.469	97.5501	105.469	97.1294	105.469	97.0761	105.469	96.542	105.469	96.5836	105.469	95.9703	105.469	96.0936	105.469	95.4735	105.469	95.6361	105.469	95.11	105.469	95.2521	105.469	94.9143	105.469	94.9858	105.469	94.8785	105.469	94.8668	105.469	94.9554	105.469	94.8885	105.469	95.081	105.469	95.0024	105.469	95.1958	105.469	95.1384	105.469	95.255	105.469	95.2344
109.131	99.147	109.131	99.1005	109.131	99.1197	109.131	98.9864	109.131	99.0142	109.131	98.8126	109.131	98.8282	109.131	98.5886	109.131	98.5618	109.131	98.3241	109.131	98.2176	109.131	98.0272	109.131	97.802	109.131	97.703	109.131	97.3263	109.131	97.3519	109.131	96.8084	109.131	96.9704	109.131	96.2742	109.131	96.5547	109.131	95.7566	109.131	96.1074	109.131	95.2921	109.131	95.6466	109.131	94.9124	109.131	95.2108	109.131	94.6362	109.131	94.8522	109.131	94.4637	109.131	94.6112	109.131	94.3802	109.131	94.486	109.131	94.3617	109.131	94.4329	109.131	94.3782	109.131	94.4043
112.793	98.3885	112.793	98.303	112.793	98.3947	112.793	98.1454	112.793	98.3179	112.793	97.9264	112.793	98.1576	112.793	97.6604	112.793	97.9163	112.793	97.3648	112.793	97.5999	112.793	97.057	112.793	97.2192	112.793	96.751	112.793	96.7908	112.793	96.4533	112.793	96.3383	112.793	96.1613	112.793	95.8921	112.793	95.8665	112.793	95.4854	112.793	95.5627	112.793	95.1477	112.793	95.2558	112.793	94.8958	112.793	94.9703	112.793	94.7285	112.793	94.7433	112.793	94.6302	112.793	94.6023	112.793	94.5798	112.793	94.5425	112.793	94.5577	112.793	94.5313	112.793	94.5469	112.793	94.5377
116.455	97.4148	116.455	97.3053	116.455	97.4313	116.455	97.1078	116.455	97.3533	116.455	96.8322	116.455	97.1828	116.455	96.4938	116.455	96.9249	116.455	96.1136	116.455	96.5885	116.455	95.717	116.455	96.1872	116.455	95.3295	116.455	95.7403	116.455	94.9714	116.455	95.2739	116.455	94.652	116.455	94.8196	116.455	94.3696	116.455	94.4114	116.455	94.118	116.455	94.0788	116.455	93.8962	116.455	93.8386	116.455	93.7147	116.455	93.6906	116.455	93.59	116.455	93.6188	116.455	93.5289	116.455	93.5977	116.455	93.518	116.455	93.5965	116.455	93.5355	116.455	93.5882	116.455	93.5642
120.85	97.5401	120.85	97.4551	120.85	97.5179	120.85	97.2649	120.85	97.3894	120.85	96.9743	120.85	97.1581	120.85	96.5924	120.85	96.8306	120.85	96.1327	120.85	96.4182	120.85	95.6137	120.85	95.9382	120.85	95.0581	120.85	95.4157	120.85	94.4902	120.85	94.8838	120.85	93.9332	120.85	94.3809	120.85	93.408	120.85	93.9426	120.85	92.936	120.85	93.5917	120.85	92.5443	120.85	93.3302	120.85	92.2657	120.85	93.1412	120.85	92.125	120.85	92.9993	120.85	92.1163	120.85	92.8804	120.85	92.2008	120.85	92.7634	120.85	92.3332	120.85	92.6319	120.85	92.4838
125.244	97.5771	125.244	97.5024	125.244	97.552	125.244	97.332	125.244	97.4259	125.244	97.0728	125.244	97.2001	125.244	96.7352	125.244	96.8793	125.244	96.3333	125.244	96.4727	125.244	95.8841	125.244	95.9964	125.244	95.406	125.244	95.4759	125.244	94.9167	125.244	94.9478	125.244	94.4321	125.244	94.4585	125.244	93.9686	125.244	94.0553	125.244	93.5495	125.244	93.7717	125.244	93.2101	125.244	93.6131	125.244	92.9933	125.244	93.5555	125.244	92.9258	125.244	93.5572	125.244	92.9906	125.244	93.5737	125.244	93.1293	125.244	93.5672	125.244	93.2812	125.244	93.5142	125.244	93.4145
129.639	97.2198	129.639	97.1261	129.639	97.207	129.639	96.9305	129.639	97.0861	129.639	96.6408	129.639	96.8581	129.639	96.269	129.639	96.5274	129.639	95.8314	129.639	96.1028	129.639	95.3484	129.639	95.6006	129.639	94.8421	129.639	95.0477	129.639	94.3343	129.639	94.485	129.639	93.8459	129.639	93.967	129.639	93.4001	129.639	93.5531	129.639	93.0314	129.639	93.2896	129.639	92.7881	129.639	93.1901	129.639	92.7169	129.639	93.2294	129.639	92.8244	129.639	93.3555	129.639	93.0516	129.639	93.5064	129.639	93.3003	129.639	93.622	129.639	93.4964	129.639	93.6616	129.639	93.6174
134.033	97.1516	134.033	97.048	134.033	97.1414	134.033	96.834	134.033	97.0156	134.033	96.5158	134.033	96.7744	134.033	96.103	134.033	96.4194	134.033	95.6085	134.033	95.9555	134.033	95.048	134.033	95.393	134.033	94.4375	134.033	94.7521	134.033	93.7912	134.033	94.069	134.033	93.1221	134.033	93.4002	134.033	92.4531	134.033	92.8206	134.033	91.8388	134.033	92.4051	134.033	91.3852	134.033	92.1974	134.033	91.222	134.033	92.1865	134.033	91.3959	134.033	92.3138	134.033	91.7911	134.033	92.497	134.033	92.2083	134.033	92.6516	134.033	92.5112	134.033	92.7172	134.033	92.674
138.428	96.8819	138.428	96.7956	138.428	96.8587	138.428	96.603	138.428	96.7252	138.428	96.3107	138.428	96.4827	138.428	95.929	138.428	96.1343	138.428	95.4715	138.428	95.6851	138.428	94.9535	138.428	95.1435	138.428	94.3885	138.428	94.5232	138.428	93.7836	138.428	93.8463	138.428	93.1381	138.428	93.1479	138.428	92.4505	138.428	92.4788	138.428	91.7386	138.428	91.9024	138.428	91.0683	138.428	91.4797	138.428	90.5655	138.428	91.2439	138.428	90.3542	138.428	91.1776	138.428	90.4346	138.428	91.2107	138.428	90.6643	138.428	91.2445	138.428	90.8983	138.428	91.2048	138.428	91.0825
143.555	96.3505	143.555	96.2361	143.555	96.3407	143.555	95.9994	143.555	96.2081	143.555	95.6464	143.555	95.957	143.555	95.1889	143.555	95.5947	143.555	94.6446	143.555	95.1322	143.555	94.037	143.555	94.5847	143.555	93.3913	143.555	93.9728	143.555	92.7289	143.555	93.3227	143.555	92.0627	143.555	92.6652	143.555	91.402	143.555	92.0351	143.555	90.7726	143.555	91.4707	143.555	90.2408	143.555	91.0129	143.555	89.9089	143.555	90.6993	143.555	89.8417	143.555	90.5447	143.555	89.9798	143.555	90.5149	143.555	90.1752	143.555	90.5258	143.555	90.3267	143.555	90.5011	143.555	90.43
148.682	96.6482	148.682	96.5731	148.682	96.6023	148.682	96.3786	148.682	96.4366	148.682	96.0692	148.682	96.1542	148.682	95.653	148.682	95.7616	148.682	95.1417	148.682	95.2694	148.682	94.5494	148.682	94.6948	148.682	93.8901	148.682	94.0643	148.682	93.1745	148.682	93.4145	148.682	92.4098	148.682	92.79	148.682	91.6091	148.682	92.2342	148.682	90.8133	148.682	91.7768	148.682	90.1174	148.682	91.4255	148.682	89.6576	148.682	91.169	148.682	89.517	148.682	90.9835	148.682	89.6281	148.682	90.8334	148.682	89.8329	148.682	90.6712	148.682	90.0369	148.682	90.4673	148.682	90.2447
153.809	96.7906	153.809	96.7078	153.809	96.7456	153.809	96.5008	153.809	96.572	153.809	96.1768	153.809	96.2721	153.809	95.7473	153.809	95.8522	153.809	95.227	153.809	95.3244	153.809	94.6325	153.809	94.7106	153.809	93.977	153.809	94.0469	153.809	93.2671	153.809	93.3865	153.809	92.5056	153.809	92.7957	153.809	91.7135	153.809	92.3389	153.809	90.9735	153.809	92.0573	153.809	90.466	153.809	91.9549	153.809	90.3936	153.809	92.0022	153.809	90.767	153.809	92.1476	153.809	91.347	153.809	92.3219	153.809	91.8672	153.809	92.4481	153.809	92.2113	153.809	92.4753	153.809	92.3988
159.668	96.6412	159.668	96.5767	159.668	96.5802	159.668	96.3876	159.668	96.3944	159.668	96.0782	159.668	96.086	159.668	95.6566	159.668	95.6574	159.668	95.135	159.668	95.1119	159.668	94.5262	159.668	94.4556	159.668	93.8376	159.668	93.7008	159.668	93.061	159.668	92.8723	159.668	92.166	159.668	92.0154	159.668	91.1079	159.668	91.2024	159.668	89.8694	159.668	90.5275	159.668	88.5691	159.668	90.0785	159.668	87.6129	159.668	89.8887	159.668	87.5113	159.668	89.9072	159.668	88.1659	159.668	90.0176	159.668	88.9739	159.668	90.0939	159.668	89.5634	159.668	90.0612	159.668	89.8989
164.795	95.9394	164.795	95.8793	164.795	95.8699	164.795	95.6939	164.795	95.6715	164.795	95.3933	164.795	95.3492	164.795	94.9942	164.795	94.9126	164.795	94.5194	164.795	94.3763	164.795	93.9939	164.795	93.7624	164.795	93.4366	164.795	93.1018	164.795	92.8499	164.795	92.4362	164.795	92.2154	164.795	91.8155	164.795	91.5046	164.795	91.2918	164.795	90.7134	164.795	90.9085	164.795	89.9154	164.795	90.6872	164.795	89.2983	164.795	90.6166	164.795	89.0751	164.795	90.6455	164.795	89.2608	164.795	90.6911	164.795	89.6414	164.795	90.6674	164.795	90.0124	164.795	90.534	164.795	90.3093
170.654	97.4203	170.654	97.364	170.654	97.3319	170.654	97.1642	170.654	97.1001	170.654	96.8248	170.654	96.7287	170.654	96.353	170.654	96.2243	170.654	95.759	170.654	95.5977	170.654	95.0548	170.654	94.8646	170.654	94.2489	170.654	94.0457	170.654	93.3406	170.654	93.1656	170.654	92.317	170.654	92.2533	170.654	91.1684	170.654	91.355	170.654	89.9423	170.654	90.5627	170.654	88.8466	170.654	90.0313	170.654	88.2795	170.654	89.8993	170.654	88.4776	170.654	90.125	170.654	89.1534	170.654	90.4776	170.654	89.856	170.654	90.7274	170.654	90.3632	170.654	90.7826	170.654	90.6592
176.514	98.412	176.514	98.3482	176.514	98.3242	176.514	98.1403	176.514	98.0796	176.514	97.7991	176.514	97.6748	176.514	97.3387	176.514	97.1093	176.514	96.7752	176.514	96.3878	176.514	96.1234	176.514	95.5268	176.514	95.3895	176.514	94.5634	176.514	94.5636	176.514	93.5645	176.514	93.6198	176.514	92.6254	176.514	92.5344	176.514	91.8466	176.514	91.3381	176.514	91.3004	176.514	90.2044	176.514	91.0187	176.514	89.4779	176.514	90.9967	176.514	89.4117	176.514	91.1731	176.514	89.841	176.514	91.4122	176.514	90.4113	176.514	91.5566	176.514	90.9167	176.514	91.5175	176.514	91.2944
183.105	96.7547	183.105	96.6869	183.105	96.6977	183.105	96.5017	183.105	96.5138	183.105	96.2131	183.105	96.2046	183.105	95.8423	183.105	95.7732	183.105	95.4136	183.105	95.2234	183.105	94.9463	183.105	94.5582	183.105	94.4399	183.105	93.7797	183.105	93.861	183.105	92.8876	183.105	93.1402	183.105	91.8794	183.105	92.1863	183.105	90.7531	183.105	90.9204	183.105	89.5249	183.105	89.3487	183.105	88.2706	183.105	87.7036	183.105	87.1739	183.105	86.5274	183.105	86.4801	183.105	86.1953	183.105	86.2758	183.105	86.3762	183.105	86.3822	183.105	86.5917	183.105	86.5599	183.105	86.6554
189.697	97.2576	189.697	97.1487	189.697	97.1997	189.697	96.8836	189.697	96.9699	189.697	96.4799	189.697	96.5683	189.697	95.9639	189.697	96.0025	189.697	95.3707	189.697	95.2918	189.697	94.7386	189.697	94.4743	189.697	94.0964	189.697	93.6122	189.697	93.448	189.697	92.7847	189.697	92.77	189.697	92.0619	189.697	92.0375	189.697	91.4747	189.697	91.2779	189.697	91.0207	189.697	90.623	189.697	90.705	189.697	90.2719	189.697	90.5559	189.697	90.3049	189.697	90.5735	189.697	90.5712	189.697	90.6886	189.697	90.8437	189.697	90.8162	189.697	90.9917	189.697	90.9246	189.697	91.0007
196.289	99.1058	196.289	98.9416	196.289	99.0961	196.289	98.6136	196.289	98.9064	196.289	98.1384	196.289	98.532	196.289	97.5431	196.289	97.9696	196.289	96.8656	196.289	97.2198	196.289	96.1476	196.289	96.2946	196.289	95.4154	196.289	95.2297	196.289	94.6575	196.289	94.0984	196.289	93.8203	196.289	93.0131	196.289	92.847	196.289	92.096	196.289	91.77	196.289	91.4325	196.289	90.8284	196.289	91.0582	196.289	90.4181	196.289	90.9752	196.289	90.6541	196.289	91.1345	196.289	91.1992	196.289	91.4274	196.289	91.7093	196.289	91.745	196.289	92.0383	196.289	92.0104	196.289	92.1354
202.881	97.0989	202.881	96.9438	202.881	97.0825	202.881	96.6244	202.881	96.8912	202.881	96.1556	202.881	96.5229	202.881	95.5645	202.881	95.9756	202.881	94.8918	202.881	95.2489	202.881	94.1859	202.881	94.3496	202.881	93.4811	202.881	93.303	202.881	92.7704	202.881	92.1711	202.881	92.0012	202.881	91.0666	202.881	91.1261	202.881	90.1385	202.881	90.2173	202.881	89.5044	202.881	89.5759	202.881	89.1774	202.881	89.5511	202.881	89.0792	202.881	90.0443	202.881	89.1269	202.881	90.5941	202.881	89.2994	202.881	90.8843	202.881	89.6254	202.881	90.8504	202.881	90.0865	202.881	90.5487
210.205	98.2844	210.205	98.1581	210.205	98.2242	210.205	97.8495	210.205	97.975	210.205	97.3674	210.205	97.5343	210.205	96.7285	210.205	96.8996	210.205	95.959	210.205	96.0707	210.205	95.0893	210.205	95.055	210.205	94.1355	210.205	93.8753	210.205	93.07	210.205	92.5749	210.205	91.808	210.205	91.2178	210.205	90.2575	210.205	89.8969	210.205	88.536	210.205	88.7891	210.205	87.434	210.205	88.1977	210.205	87.9468	210.205	88.3222	210.205	89.4184	210.205	88.9397	210.205	90.7505	210.205	89.6838	210.205	91.588	210.205	90.422	210.205	91.8987	210.205	91.1453	210.205	91.711
217.529	97.3216	217.529	97.1736	217.529	97.3004	217.529	96.8596	217.529	97.1064	217.529	96.3851	217.529	96.7319	217.529	95.7607	217.529	96.1628	217.529	95.0026	217.529	95.3762	217.529	94.1257	217.529	94.3402	217.529	93.1233	217.529	93.0136	217.529	91.9319	217.529	91.3425	217.529	90.3872	217.529	89.2482	217.529	88.1699	217.529	86.5999	217.529	84.6651	217.529	83.2211	217.529	78.5824	217.529	79.4969	217.529	75.9375	217.529	78.9165	217.529	82.4083	217.529	81.8698	217.529	86.0605	217.529	84.6868	217.529	88.0846	217.529	86.845	217.529	89.0794	217.529	88.381	217.529	89.1669
225.586	99.306	225.586	99.1872	225.586	99.268	225.586	98.9207	225.586	99.0736	225.586	98.5281	225.586	98.7306	225.586	98.0467	225.586	98.2536	225.586	97.5256	225.586	97.6659	225.586	97.009	225.586	97.0016	225.586	96.5051	225.586	96.3007	225.586	95.9597	225.586	95.5915	225.586	95.2647	225.586	94.8635	225.586	94.3046	225.586	94.0605	225.586	93.0345	225.586	93.1177	225.586	91.5842	225.586	92.0264	225.586	90.3034	225.586	90.8615	225.586	89.4845	225.586	89.7149	225.586	89.0212	225.586	88.6489	225.586	88.6937	225.586	87.8746	225.586	88.4146	225.586	87.7347	225.586	88.07
232.91	101.836	232.91	101.656	232.91	101.827	232.91	101.299	232.91	101.632	232.91	100.794	232.91	101.26	232.91	100.202	232.91	100.733	232.91	99.611	232.91	100.083	232.91	99.1162	232.91	99.361	232.91	98.7464	232.91	98.625	232.91	98.4105	232.91	97.9214	232.91	97.9283	232.91	97.2577	232.91	97.1332	232.91	96.6124	232.91	96.0132	232.91	95.9873	232.91	94.9092	232.91	95.4378	232.91	94.4774	232.91	95.0069	232.91	94.8566	232.91	94.6677	232.91	95.4741	232.91	94.4693	232.91	95.9307	232.91	94.6574	232.91	96.1037	232.91	95.2749	232.91	95.8815
241.699	101.844	241.699	101.654	241.699	101.784	241.699	101.211	241.699	101.473	241.699	100.515	241.699	100.904	241.699	99.5817	241.699	100.062	241.699	98.4661	241.699	98.9301	241.699	97.2971	241.699	97.5106	241.699	96.2692	241.699	95.882	241.699	95.5194	241.699	94.2853	241.699	94.971	241.699	93.1319	241.699	94.4217	241.699	92.7164	241.699	93.8372	241.699	92.9533	241.699	93.5368	241.699	93.5666	241.699	93.89	241.699	94.2513	241.699	94.7457	241.699	94.7384	241.699	95.6822	241.699	94.9902	241.699	96.4372	241.699	95.3154	241.699	96.8105	241.699	95.9698	241.699	96.6246
249.756	101.311	249.756	101.201	249.756	101.203	249.756	100.864	249.756	100.886	249.756	100.296	249.756	100.366	249.756	99.5048	249.756	99.6466	249.756	98.5166	249.756	98.7204	249.756	97.3822	249.756	97.5712	249.756	96.1605	249.756	96.169	249.756	94.8557	249.756	94.4597	249.756	93.3343	249.756	92.3416	249.756	91.306	249.756	89.6506	249.756	88.4586	249.756	86.3458	249.756	85.3106	249.756	83.7777	249.756	85.0734	249.756	84.5559	249.756	87.3669	249.756	86.6264	249.756	89.3972	249.756	88.4417	249.756	90.9301	249.756	90.1375	249.756	91.9685	249.756	91.5546	249.756	92.2329
258.545	102.052	258.545	101.919	258.545	102.017	258.545	101.616	258.545	101.811	258.545	101.148	258.545	101.428	258.545	100.524	258.545	100.856	258.545	99.7679	258.545	100.075	258.545	98.9152	258.545	99.0709	258.545	97.9958	258.545	97.8384	258.545	97.001	258.545	96.3928	258.545	95.86	258.545	94.7564	258.545	94.4796	258.545	92.9491	258.545	92.8837	258.545	91.098	258.545	91.4099	258.545	89.7184	258.545	90.6136	258.545	89.3699	258.545	90.6545	258.545	89.5814	258.545	91.293	258.545	89.7489	258.545	92.1828	258.545	90.2393	258.545	92.7428	258.545	91.3973	258.545	92.474
268.066	100.699	268.066	100.622	268.066	100.595	268.066	100.362	268.066	100.32	268.066	99.9262	268.066	99.8825	268.066	99.3408	268.066	99.2921	268.066	98.6559	268.066	98.5553	268.066	97.9398	268.066	97.6826	268.066	97.2344	268.066	96.688	268.066	96.4787	268.066	95.5695	268.066	95.4663	268.066	94.2698	268.066	93.8803	268.066	92.6656	268.066	91.3773	268.066	90.6646	268.066	87.9399	268.066	88.4419	268.066	85.7736	268.066	86.4942	268.066	87.3643	268.066	85.0631	268.066	89.608	268.066	84.9871	268.066	91.2592	268.066	87.4905	268.066	92.1221	268.066	90.3025	268.066	91.8878
277.588	99.3141	277.588	99.1147	277.588	99.2713	277.588	98.6789	277.588	98.9865	277.588	98.0251	277.588	98.4638	277.588	97.197	277.588	97.7139	277.588	96.2802	277.588	96.7641	277.588	95.3998	277.588	95.6787	277.588	94.649	277.588	94.5663	277.588	93.9663	277.588	93.5203	277.588	93.1156	277.588	92.4973	277.588	91.847	277.588	91.3281	277.588	90.1897	277.588	90.0135	277.588	88.8273	277.588	89.045	277.588	88.5337	277.588	88.8003	277.588	88.8257	277.588	88.7124	277.588	89.2696	277.588	88.5392	277.588	90.1458	277.588	89.1258	277.588	91.1146	277.588	90.4692	277.588	91.3298
287.109	100.633	287.109	100.401	287.109	100.638	287.109	99.9501	287.109	100.416	287.109	99.3137	287.109	99.9705	287.109	98.5739	287.109	99.3132	287.109	97.8807	287.109	98.4795	287.109	97.4044	287.109	97.564	287.109	97.1802	287.109	96.7263	287.109	97.0064	287.109	96.0792	287.109	96.5648	287.109	95.5038	287.109	95.6133	287.109	94.6745	287.109	94.139	287.109	93.3075	287.109	92.5043	287.109	91.4065	287.109	91.2278	287.109	89.3692	287.109	90.3715	287.109	87.6152	287.109	90.2119	287.109	86.8619	287.109	91.2727	287.109	88.5905	287.109	92.4697	287.109	91.1335	287.109	92.551
297.363	99.3818	297.363	99.1488	297.363	99.3066	297.363	98.567	297.363	98.9522	297.363	97.589	297.363	98.3311	297.363	96.1794	297.363	97.4322	297.363	94.4006	297.363	96.224	297.363	92.657	297.363	94.6922	297.363	91.7879	297.363	92.9435	297.363	91.9418	297.363	91.346	297.363	92.1503	297.363	90.3766	297.363	91.7582	297.363	90.0743	297.363	90.9801	297.363	90.1756	297.363	90.7213	297.363	90.4714	297.363	91.0875	297.363	90.457	297.363	91.141	297.363	89.4283	297.363	90.8015	297.363	87.4961	297.363	91.028	297.363	87.6167	297.363	91.7408	297.363	90.0956	297.363	91.664
307.617	97.4901	307.617	97.351	307.617	97.3423	307.617	96.9069	307.617	96.9206	307.617	96.1307	307.617	96.2317	307.617	94.986	307.617	95.2724	307.617	93.4407	307.617	94.0275	307.617	91.5205	307.617	92.4828	307.617	89.4283	307.617	90.6604	307.617	87.587	307.617	88.6432	307.617	86.1822	307.617	86.4788	307.617	84.8294	307.617	84.0194	307.617	83.606	307.617	81.4879	307.617	83.697	307.617	81.0031	307.617	84.7249	307.617	82.3751	307.617	85.2412	307.617	82.9185	307.617	85.4434	307.617	82.844	307.617	86.3866	307.617	84.2517	307.617	87.5679	307.617	86.5072	307.617	87.7591
318.604	93.1168	318.604	92.9549	318.604	93.0518	318.604	92.5578	318.604	92.7654	318.604	91.9131	318.604	92.2571	318.604	91.0031	318.604	91.5124	318.604	89.8137	318.604	90.5002	318.604	88.3627	318.604	89.1946	318.604	86.7389	318.604	87.6424	318.604	85.0739	318.604	86.0425	318.604	83.3595	318.604	84.6353	318.604	81.4187	318.604	83.3237	318.604	79.8224	318.604	81.7665	318.604	80.4563	318.604	80.2015	318.604	82.2993	318.604	79.4308	318.604	83.4114	318.604	79.0346	318.604	83.7488	318.604	78.8567	318.604	84.006	318.604	80.421	318.604	84.3294	318.604	82.7037	318.604	84.0693
329.59	92.3099	329.59	92.0866	329.59	92.2439	329.59	91.5798	329.59	91.8838	329.59	90.7929	329.59	91.2278	329.59	89.7343	329.59	90.2809	329.59	88.4577	329.59	89.0751	329.59	87.1552	329.59	87.7245	329.59	86.1798	329.59	86.4697	329.59	85.6623	329.59	85.5068	329.59	85.1258	329.59	84.637	329.59	83.9274	329.59	83.4305	329.59	82.07	329.59	82.0093	329.59	81.2444	329.59	81.468	329.59	82.2422	329.59	81.693	329.59	82.9889	329.59	81.0134	329.59	83.0604	329.59	78.9821	329.59	83.2428	329.59	78.3958	329.59	83.4528	329.59	80.8251	329.59	82.8084
341.309	91.4451	341.309	91.1058	341.309	91.4873	341.309	90.4527	341.309	91.2403	341.309	89.4603	341.309	90.6967	341.309	88.0996	341.309	89.8246	341.309	86.3789	341.309	88.5701	341.309	84.4823	341.309	86.9026	341.309	82.9199	341.309	84.9417	341.309	82.0037	341.309	83.0814	341.309	81.0025	341.309	81.5966	341.309	78.946	341.309	80.0017	341.309	76.9131	341.309	77.8776	341.309	78.5682	341.309	76.4392	341.309	80.52	341.309	75.9939	341.309	80.9978	341.309	73.7385	341.309	81.8365	341.309	74.1666	341.309	83.8981	341.309	80.3015	341.309	85.3983	341.309	83.949	341.309	85.4929
353.76	93.7773	353.76	93.6247	353.76	93.6676	353.76	93.1927	353.76	93.3076	353.76	92.4552	353.76	92.6956	353.76	91.3719	353.76	91.8004	353.76	89.9007	353.76	90.5502	353.76	88.0643	353.76	88.8582	353.76	86.0867	353.76	86.7169	353.76	84.3372	353.76	84.362	353.76	82.5918	353.76	82.2295	353.76	79.5189	353.76	80.5519	353.76	73.0037	353.76	80.131	353.76	74.3862	353.76	81.5756	353.76	79.3908	353.76	82.6467	353.76	80.746	353.76	81.6317	353.76	80.7838	353.76	78.0686	353.76	81.4001	353.76	76.4936	353.76	82.0975	353.76	79.7714	353.76	81.7381
366.211	94.1965	366.211	94.1952	366.211	93.8551	366.211	93.8339	366.211	93.2003	366.211	93.0993	366.211	92.2776	366.211	91.9762	366.211	91.137	366.211	90.4659	366.211	89.8037	366.211	88.666	366.211	88.2609	366.211	86.9133	366.211	86.497	366.211	85.6163	366.211	84.5969	366.211	84.4641	366.211	82.6275	366.211	82.3474	366.211	80.099	366.211	77.8017	366.211	75.3281	366.211	68.995	366.211	59.6058	366.211	71.1985	366.211	69.991	366.211	74.7469	366.211	73.6657	366.211	77.7656	366.211	74.1652	366.211	80.4873	366.211	77.1798	366.211	81.7591	366.211	80.1909	366.211	81.6527
378.662	95.6345	378.662	95.4472	378.662	95.5671	378.662	94.9991	378.662	95.2541	378.662	94.2744	378.662	94.7045	378.662	93.2318	378.662	93.9102	378.662	91.8027	378.662	92.8425	378.662	89.9246	378.662	91.5087	378.662	87.6339	378.662	90.0743	378.662	85.1872	378.662	88.8107	378.662	82.9224	378.662	87.5617	378.662	81.0029	378.662	85.5866	378.662	80.3877	378.662	82.8912	378.662	81.4523	378.662	82.6272	378.662	81.8527	378.662	83.7704	378.662	80.3114	378.662	82.522	378.662	78.7517	378.662	79.014	378.662	80.936	378.662	80.3347	378.662	83.1943	378.662	83.1267	378.662	83.9614
392.578	96.3575	392.578	96.2206	392.578	96.1416	392.578	95.7423	392.578	95.5721	392.578	94.9264	392.578	94.6647	392.578	93.7438	392.578	93.4425	392.578	92.1287	392.578	91.9124	392.578	90.0658	392.578	90.0614	392.578	87.8882	392.578	87.9498	392.578	86.3776	392.578	85.9116	392.578	85.321	392.578	84.3264	392.578	83.0261	392.578	82.6655	392.578	77.8228	392.578	79.7356	392.578	75.9087	392.578	75.5748	392.578	78.629	392.578	74.0024	392.578	76.0147	392.578	72.0242	392.578	73.3014	392.578	74.1611	392.578	80.1878	392.578	80.2517	392.578	82.9945	392.578	82.9617	392.578	83.6597
405.762	96.1129	405.762	95.7595	405.762	96.0569	405.762	95.0337	405.762	95.5906	405.762	94.0105	405.762	94.7377	405.762	92.7896	405.762	93.5213	405.762	91.4612	405.762	91.951	405.762	90.0664	405.762	90.1354	405.762	88.5764	405.762	88.6292	405.762	86.8321	405.762	88.1754	405.762	84.3354	405.762	88.174	405.762	79.8494	405.762	87.3981	405.762	73.1367	405.762	85.6832	405.762	78.4381	405.762	84.6851	405.762	81.3918	405.762	84.6303	405.762	80.5551	405.762	82.6656	405.762	77.7273	405.762	76.5699	405.762	78.685	405.762	75.6493	405.762	80.8448	405.762	80.0208	405.762	81.3041
420.41	97.1491	420.41	96.951	420.41	97.0091	420.41	96.4363	420.41	96.4985	420.41	95.5946	420.41	95.5748	420.41	94.3442	420.41	94.1681	420.41	92.502	420.41	92.1569	420.41	89.8471	420.41	89.3793	420.41	86.7316	420.41	85.8372	420.41	85.4218	420.41	82.356	420.41	85.694	420.41	79.649	420.41	84.1009	420.41	74.751	420.41	78.4681	420.41	73.3635	420.41	78.4425	420.41	80.5974	420.41	82.2163	420.41	82.2768	420.41	80.9501	420.41	78.7259	420.41	78.9873	420.41	75.6277	420.41	82.0877	420.41	82.6607	420.41	83.7516	420.41	84.6111	420.41	84.3688
435.059	96.5306	435.059	96.097	435.059	96.5089	435.059	95.2314	435.059	96.0333	435.059	93.9752	435.059	95.1388	435.059	92.3876	435.059	93.8891	435.059	90.5672	435.059	92.3407	435.059	88.7109	435.059	90.4992	435.059	87.1243	435.059	88.397	435.059	85.8959	435.059	86.3781	435.059	84.4649	435.059	84.924	435.059	81.8367	435.059	83.5742	435.059	77.2801	435.059	81.7959	435.059	74.8729	435.059	81.1799	435.059	76.2035	435.059	81.5977	435.059	73.8372	435.059	80.1359	435.059	65.105	435.059	76.6547	435.059	72.0975	435.059	76.1585	435.059	75.52	435.059	76.8616	435.059	76.4318
450.439	95.8987	450.439	95.4933	450.439	95.8944	450.439	94.7077	450.439	95.4776	450.439	93.5859	450.439	94.6601	450.439	92.1495	450.439	93.4212	450.439	90.351	450.439	91.6314	450.439	88.1187	450.439	89.0092	450.439	85.7444	450.439	85.2788	450.439	84.265	450.439	81.2626	450.439	83.3786	450.439	79.2031	450.439	80.6385	450.439	75.8608	450.439	75.108	450.439	68.9589	450.439	78.8892	450.439	78.122	450.439	80.7171	450.439	80.5879	450.439	77.4042	450.439	78.077	450.439	78.6266	450.439	78.7387	450.439	82.8229	450.439	83.0631	450.439	83.6103	450.439	83.9031	450.439	83.4335
466.553	95.7638	466.553	95.3283	466.553	95.7804	466.553	94.5202	466.553	95.3436	466.553	93.3803	466.553	94.4369	466.553	91.9211	466.553	93.0558	466.553	90.1201	466.553	91.1932	466.553	87.9825	466.553	88.8476	466.553	85.7273	466.553	86.1439	466.553	83.8197	466.553	83.5284	466.553	82.1373	466.553	81.2539	466.553	79.748	466.553	78.438	466.553	77.1677	466.553	75.0898	466.553	76.769	466.553	75.5091	466.553	75.5732	466.553	76.1149	466.553	71.2242	466.553	74.8492	466.553	70.8385	466.553	79.6996	466.553	75.6014	466.553	83.684	466.553	79.5913	466.553	84.3785	466.553	82.6753
482.666	95.4149	482.666	95.4268	482.666	94.9374	482.666	95.0174	482.666	93.9568	482.666	94.2293	482.666	92.4538	482.666	93.0676	482.666	90.4656	482.666	91.4273	482.666	88.1396	482.666	89.0481	482.666	85.6893	482.666	85.7342	482.666	83.1996	482.666	82.6433	482.666	80.8257	482.666	81.6842	482.666	79.4747	482.666	79.6449	482.666	79.2926	482.666	73.1	482.666	78.4313	482.666	74.4658	482.666	75.549	482.666	75.3783	482.666	72.9734	482.666	65.9608	482.666	73.7032	482.666	77.4234	482.666	73.1985	482.666	81.1206	482.666	74.2715	482.666	80.2494	482.666	75.7274	482.666	77.4464
500.244	95.3535	500.244	94.9311	500.244	95.3027	500.244	94.0958	500.244	94.7388	500.244	92.8768	500.244	93.6726	500.244	91.2065	500.244	92.1617	500.244	88.869	500.244	90.2452	500.244	85.5667	500.244	87.8702	500.244	81.8327	500.244	85.0942	500.244	80.8046	500.244	82.6746	500.244	80.828	500.244	81.0069	500.244	77.8231	500.244	77.9793	500.244	73.0519	500.244	69.2713	500.244	76.4874	500.244	68.9143	500.244	75.5957	500.244	72.6322	500.244	66.8575	500.244	67.8825	500.244	71.1509	500.244	75.9315	500.244	78.412	500.244	80.8661	500.244	82.2599	500.244	82.5242	500.244	83.2331
517.822	95.5886	517.822	95.2089	517.822	95.4302	517.822	94.3417	517.822	94.7059	517.822	93.0289	517.822	93.4001	517.822	91.235	517.822	91.4856	517.822	88.8027	517.822	88.9575	517.822	85.6305	517.822	86.0863	517.822	82.6387	517.822	83.7758	517.822	81.524	517.822	82.4044	517.822	79.8321	517.822	80.8191	517.822	73.3849	517.822	79.0462	517.822	74.2947	517.822	78.31	517.822	78.7244	517.822	76.7484	517.822	77.4477	517.822	77.9201	517.822	74.2557	517.822	80.3737	517.822	70.6334	517.822	77.9604	517.822	68.2975	517.822	75.3403	517.822	75.4074	517.822	78.9928	517.822	78.6892
536.133	94.7892	536.133	94.2136	536.133	94.7831	536.133	93.1663	536.133	94.1298	536.133	91.8129	536.133	92.7474	536.133	90.2833	536.133	90.4707	536.133	88.5252	536.133	87.0475	536.133	86.3671	536.133	82.5527	536.133	84.1804	536.133	79.3673	536.133	83.2635	536.133	78.8704	536.133	82.5592	536.133	77.4274	536.133	78.983	536.133	75.946	536.133	73.1125	536.133	76.8623	536.133	77.2661	536.133	73.6178	536.133	76.7854	536.133	63.3963	536.133	72.4519	536.133	73.1752	536.133	73.3241	536.133	61.9421	536.133	78.3331	536.133	74.8495	536.133	79.5467	536.133	77.9741	536.133	77.8307
554.443	95.2859	554.443	94.7395	554.443	95.0782	554.443	93.457	554.443	94.094	554.443	91.4653	554.443	92.3106	554.443	88.8729	554.443	89.7759	554.443	86.118	554.443	86.8657	554.443	84.0807	554.443	84.442	554.443	82.6659	554.443	82.5694	554.443	79.9757	554.443	79.7441	554.443	74.3764	554.443	74.8467	554.443	75.3095	554.443	72.8181	554.443	76.0544	554.443	73.833	554.443	70.2496	554.443	76.0962	554.443	76.0113	554.443	74.738	554.443	78.5216	554.443	63.8615	554.443	78.5384	554.443	79.2093	554.443	78.5374	554.443	81.1896	554.443	80.6556	554.443	82.3533	554.443	83.0908
574.219	94.2504	574.219	93.7936	574.219	94.0042	574.219	92.6668	574.219	93.0332	574.219	90.9098	574.219	91.3287	574.219	88.5788	574.219	88.9391	574.219	85.8358	574.219	86.1591	574.219	83.1316	574.219	83.7578	574.219	80.8438	574.219	82.1425	574.219	77.9832	574.219	80.2027	574.219	75.0042	574.219	77.0115	574.219	77.4336	574.219	73.8891	574.219	77.5075	574.219	71.871	574.219	69.8176	574.219	77.3186	574.219	65.2222	574.219	79.0971	574.219	69.4469	574.219	75.6073	574.219	64.1571	574.219	75.7278	574.219	63.9662	574.219	69.9194	574.219	76.9042	574.219	74.1705	574.219	79.9497
594.727	93.7172	594.727	93.1119	594.727	93.5381	594.727	91.8118	594.727	92.5075	594.727	89.9246	594.727	90.5584	594.727	87.5575	594.727	87.6497	594.727	84.8757	594.727	84.0621	594.727	82.284	594.727	81.119	594.727	80.346	594.727	79.9163	594.727	78.349	594.727	78.5468	594.727	74.9466	594.727	75.4111	594.727	75.2492	594.727	73.915	594.727	74.8755	594.727	70.0805	594.727	58.4131	594.727	63.5623	594.727	71.6345	594.727	70.8868	594.727	72.0245	594.727	71.45	594.727	75.4084	594.727	77.692	594.727	75.6393	594.727	74.3168	594.727	76.7379	594.727	77.5906	594.727	80.7711
615.234	94.4428	615.234	93.8275	615.234	94.2317	615.234	92.4247	615.234	93.1834	615.234	90.3314	615.234	91.2902	615.234	87.761	615.234	88.5795	615.234	85.1723	615.234	85.379	615.234	83.287	615.234	82.7552	615.234	81.9848	615.234	81.2775	615.234	79.0702	615.234	79.6423	615.234	73.7644	615.234	77.513	615.234	77.7222	615.234	75.5144	615.234	76.4963	615.234	70.7714	615.234	58.9545	615.234	75.0993	615.234	77.0064	615.234	74.7228	615.234	75.8696	615.234	66.2275	615.234	69.3645	615.234	73.7479	615.234	54.1966	615.234	74.0378	615.234	75.8369	615.234	80.2024	615.234	80.7453
637.207	96.2626	637.207	95.8158	637.207	95.8325	637.207	94.5692	637.207	94.5036	637.207	92.691	637.207	92.2539	637.207	90.4306	637.207	89.0673	637.207	88.0733	637.207	85.2634	637.207	85.9714	637.207	82.5216	637.207	84.3579	637.207	82.5879	637.207	81.8555	637.207	83.043	637.207	76.8282	637.207	82.274	637.207	79.7695	637.207	80.969	637.207	79.346	637.207	76.2125	637.207	52.6455	637.207	74.055	637.207	78.6372	637.207	77.2229	637.207	78.3462	637.207	62.3754	637.207	74.1237	637.207	75.2696	637.207	58.5549	637.207	70.2542	637.207	75.5475	637.207	74.0392	637.207	79.3672
659.912	96.7585	659.912	96.4565	659.912	96.0635	659.912	95.2083	659.912	94.3935	659.912	93.1397	659.912	91.8157	659.912	90.4729	659.912	88.4113	659.912	87.6407	659.912	84.4559	659.912	85.7454	659.912	81.2	659.912	85.4893	659.912	81.3672	659.912	83.9003	659.912	82.2396	659.912	78.1184	659.912	82.4348	659.912	81.359	659.912	83.6836	659.912	81	659.912	80.398	659.912	47.5939	659.912	76.3903	659.912	78.0597	659.912	80.3357	659.912	76.8261	659.912	68.4771	659.912	74.8879	659.912	70.3319	659.912	68.3487	659.912	74.9527	659.912	80.2111	659.912	83.473	659.912	83.7232
683.35	96.9974	683.35	96.4445	683.35	96.4688	683.35	94.9234	683.35	94.8412	683.35	92.6179	683.35	92.2163	683.35	89.755	683.35	88.8413	683.35	86.6484	683.35	85.1673	683.35	84.1165	683.35	82.369	683.35	83.7686	683.35	82.4951	683.35	82.9512	683.35	82.941	683.35	77.2947	683.35	81.9928	683.35	80.169	683.35	82.8492	683.35	79.2382	683.35	80.2992	683.35	69.3937	683.35	75.9918	683.35	79.8709	683.35	80.2039	683.35	72.7271	683.35	58.9398	683.35	76.7732	683.35	77.9679	683.35	60.6729	683.35	56.7397	683.35	79.3894	683.35	78.7311	683.35	81.7216
706.787	97.2841	706.787	96.6119	706.787	96.7503	706.787	94.7591	706.787	95.0885	706.787	91.8838	706.787	92.5365	706.787	88.4173	706.787	89.5522	706.787	85.0369	706.787	86.6092	706.787	82.6445	706.787	83.6545	706.787	82.6175	706.787	81.0693	706.787	81.0107	706.787	79.2296	706.787	72.4748	706.787	80.2145	706.787	80.3973	706.787	83.2112	706.787	76.4353	706.787	80.5134	706.787	76.6956	706.787	79.812	706.787	80.3664	706.787	81.1571	706.787	58.4084	706.787	65.8836	706.787	78.2467	706.787	75.97	706.787	63.0933	706.787	67.4468	706.787	79.5764	706.787	79.658	706.787	81.178
731.689	96.5953	731.689	95.8565	731.689	96.2734	731.689	94.2529	731.689	94.962	731.689	92.2486	731.689	92.9768	731.689	90.4057	731.689	90.7672	731.689	88.6142	731.689	88.5602	731.689	85.4849	731.689	86.2661	731.689	83.5619	731.689	84.5533	731.689	85.2559	731.689	82.2229	731.689	79.5516	731.689	77.8661	731.689	77.3778	731.689	82.3541	731.689	80.9866	731.689	79.898	731.689	73.3501	731.689	77.1237	731.689	82.431	731.689	82.5431	731.689	72.7065	731.689	69.1916	731.689	76.6969	731.689	72.3066	731.689	77.0268	731.689	81.3777	731.689	81.3299	731.689	83.5192	731.689	80.7765
758.057	97.775	758.057	96.88	758.057	97.2038	758.057	94.6109	758.057	95.3059	758.057	91.5313	758.057	92.6002	758.057	89.0348	758.057	89.9988	758.057	87.8781	758.057	87.8299	758.057	86.1124	758.057	85.3637	758.057	82.5024	758.057	83.8825	758.057	84.0889	758.057	83.7981	758.057	83.3436	758.057	78.2882	758.057	74.1099	758.057	80.6622	758.057	76.4759	758.057	80.7053	758.057	54.499	758.057	69.2989	758.057	78.4702	758.057	80.1148	758.057	72.8549	758.057	57.8752	758.057	71.2653	758.057	74.0363	758.057	75.9787	758.057	77.1062	758.057	80.0968	758.057	82.6188	758.057	80.199
784.424	96.5698	784.424	95.7757	784.424	95.8233	784.424	93.6052	784.424	93.4897	784.424	90.5763	784.424	89.9666	784.424	88.0196	784.424	87.0561	784.424	87.091	784.424	86.5385	784.424	86.243	784.424	86.1398	784.424	83.1504	784.424	83.2223	784.424	82.9802	784.424	83.1219	784.424	83.32	784.424	83.5444	784.424	77.4052	784.424	76.6417	784.424	69.3567	784.424	81.1923	784.424	77.576	784.424	67.4521	784.424	78.6075	784.424	80.4632	784.424	68.2321	784.424	71.8713	784.424	71.6772	784.424	80.1697	784.424	69.9387	784.424	63.0426	784.424	70.6673	784.424	82.3397	784.424	80.4155
812.256	95.9934	812.256	95.3386	812.256	95.2911	812.256	93.4053	812.256	93.3266	812.256	90.5382	812.256	90.5728	812.256	87.4527	812.256	87.9152	812.256	85.731	812.256	85.9798	812.256	86.0936	812.256	85.2648	812.256	83.6232	812.256	83.5779	812.256	78.9697	812.256	80.8137	812.256	84.9168	812.256	85.7403	812.256	83.864	812.256	84.6186	812.256	71.8261	812.256	81.682	812.256	78.2883	812.256	80.2812	812.256	78.1537	812.256	70.8969	812.256	75.8417	812.256	74.9624	812.256	67.3673	812.256	76.966	812.256	77.7241	812.256	69.6449	812.256	65.2368	812.256	79.3652	812.256	78.6495
840.82	93.9796	840.82	93.4994	840.82	93.3265	840.82	92.0262	840.82	91.711	840.82	89.9059	840.82	89.7228	840.82	87.4861	840.82	87.9558	840.82	84.5424	840.82	85.952	840.82	82.1077	840.82	83.6155	840.82	82.6798	840.82	83.6271	840.82	79.7084	840.82	79.9626	840.82	69.8069	840.82	72.3329	840.82	81.4103	840.82	80.8215	840.82	76.0531	840.82	69.2726	840.82	75.009	840.82	77.301	840.82	75.4038	840.82	72.1115	840.82	74.5296	840.82	72.7738	840.82	72.197	840.82	68.2503	840.82	74.4564	840.82	70.84	840.82	67.4709	840.82	79.9392	840.82	80.6093
870.85	92.653	870.85	91.5947	870.85	92.3804	870.85	89.4916	870.85	90.7576	870.85	86.9255	870.85	88.2576	870.85	84.6518	870.85	86.0645	870.85	82.4724	870.85	84.6289	870.85	79.1712	870.85	82.1916	870.85	76.7033	870.85	78.6008	870.85	77.7209	870.85	77.7076	870.85	71.9447	870.85	73.1718	870.85	69.0765	870.85	75.9524	870.85	72.4129	870.85	75.7346	870.85	75.8964	870.85	56.9183	870.85	61.5236	870.85	72.7087	870.85	70.3158	870.85	74.7473	870.85	58.2575	870.85	73.6613	870.85	67.9865	870.85	63.3977	870.85	72.7167	870.85	77.768	870.85	81.3006
901.611	92.125	901.611	90.8712	901.611	91.6493	901.611	88.2263	901.611	89.4363	901.611	85.362	901.611	86.1277	901.611	83.7087	901.611	83.8011	901.611	82.7327	901.611	83.6024	901.611	81.6333	901.611	82.4016	901.611	77.5798	901.611	78.4179	901.611	73.8403	901.611	76.9706	901.611	74.7285	901.611	74.6787	901.611	70.8067	901.611	75.3213	901.611	65.7363	901.611	73.7524	901.611	78.0572	901.611	66.4991	901.611	72.5856	901.611	60.0326	901.611	60.9714	901.611	69.4231	901.611	66.8348	901.611	75.4764	901.611	64.2028	901.611	71.9486	901.611	63.4086	901.611	72.4005	901.611	73.3231
933.105	93.2453	933.105	92.3952	933.105	92.7991	933.105	90.5294	933.105	91.1218	933.105	88.1933	933.105	88.7287	933.105	85.6709	933.105	86.4026	933.105	82.9809	933.105	84.1937	933.105	82.3661	933.105	81.8095	933.105	80.4144	933.105	80.1333	933.105	73.3966	933.105	77.7225	933.105	76.1525	933.105	75.7333	933.105	68.7018	933.105	75.8635	933.105	63.9379	933.105	73.002	933.105	72.5582	933.105	69.9955	933.105	71.8363	933.105	59.8591	933.105	75.0387	933.105	65.7141	933.105	73.0036	933.105	64.5744	933.105	73.2709	933.105	65.6249	933.105	58.5419	933.105	74.9543	933.105	67.3245
966.064	96.5607	966.064	95.5738	966.064	96.0959	966.064	93.5521	966.064	94.1197	966.064	91.4254	966.064	90.988	966.064	89.6041	966.064	87.9803	966.064	86.7987	966.064	86.3331	966.064	84.904	966.064	84.5299	966.064	84.5704	966.064	81.3654	966.064	79.1945	966.064	76.8186	966.064	79.9648	966.064	74.4875	966.064	74.6172	966.064	77.3347	966.064	69.6149	966.064	73.9512	966.064	74.3034	966.064	61.1734	966.064	71.9977	966.064	75.58	966.064	74.6522	966.064	71.0889	966.064	70.122	966.064	74.7122	966.064	70.7607	966.064	53.5322	966.064	72.4651	966.064	71.9305	966.064	65.8764
999.756	98.3023	999.756	97.5498	999.756	97.4821	999.756	95.4689	999.756	95.3292	999.756	92.9135	999.756	92.4239	999.756	90.6796	999.756	89.7538	999.756	87.9738	999.756	88.0885	999.756	85.2624	999.756	86.3133	999.756	83.0543	999.756	83.0617	999.756	79.0399	999.756	81.9761	999.756	80.3462	999.756	75.5032	999.756	75.2023	999.756	67.1157	999.756	62.3393	999.756	66.0305	999.756	73.018	999.756	73.4878	999.756	68.9602	999.756	78.1592	999.756	71.9414	999.756	75.2876	999.756	77.0911	999.756	76.8465	999.756	74.5044	999.756	74.6212	999.756	76.8055	999.756	66.1495	999.756	53.2086
1034.91	100.516	1034.91	99.2852	1034.91	99.677	1034.91	96.3511	1034.91	96.811	1034.91	93.0682	1034.91	92.8574	1034.91	91.2888	1034.91	90.643	1034.91	89.5675	1034.91	90.5044	1034.91	87.0429	1034.91	88.4083	1034.91	84.7926	1034.91	84.2759	1034.91	78.8891	1034.91	86.4933	1034.91	78.2165	1034.91	84.7607	1034.91	73.014	1034.91	81.9338	1034.91	76.3553	1034.91	70.5507	1034.91	71.5794	1034.91	62.6556	1034.91	76.2762	1034.91	71.8066	1034.91	79.4871	1034.91	71.7703	1034.91	79.9172	1034.91	73.521	1034.91	80.9048	1034.91	73.5919	1034.91	74.6449	1034.91	78.6221	1034.91	76.2144
1071.53	101.353	1071.53	99.9796	1071.53	100.519	1071.53	96.9309	1071.53	97.5588	1071.53	94.1504	1071.53	93.9644	1071.53	93.1282	1071.53	92.3192	1071.53	92.0651	1071.53	92.1115	1071.53	90.3081	1071.53	90.0757	1071.53	87.4082	1071.53	84.9214	1071.53	83.8195	1071.53	87.0434	1071.53	84.1793	1071.53	84.0679	1071.53	75.6072	1071.53	83.6116	1071.53	83.2226	1071.53	79.2976	1071.53	77.9	1071.53	77.3939	1071.53	71.5026	1071.53	74.3053	1071.53	76.7464	1071.53	77.2026	1071.53	60.8378	1071.53	80.2361	1071.53	76.6321	1071.53	78.9854	1071.53	78.2352	1071.53	79.9006	1071.53	80.577
1109.62	101.537	1109.62	100.179	1109.62	100.948	1109.62	97.4737	1109.62	98.7277	1109.62	95.3012	1109.62	96.5756	1109.62	94.5023	1109.62	95.2272	1109.62	92.923	1109.62	94.1822	1109.62	90.0356	1109.62	91.7075	1109.62	87.7268	1109.62	86.2386	1109.62	78.1007	1109.62	85.8917	1109.62	84.4117	1109.62	83.0183	1109.62	78.3265	1109.62	73.7655	1109.62	83.7674	1109.62	82.0277	1109.62	84.5959	1109.62	80.732	1109.62	83.8336	1109.62	80.764	1109.62	76.0101	1109.62	83.6626	1109.62	68.0822	1109.62	76.7192	1109.62	79.9049	1109.62	81.9819	1109.62	76.6978	1109.62	85.7665	1109.62	86.6367
1148.44	101.148	1148.44	99.979	1148.44	100.487	1148.44	97.7892	1148.44	98.2939	1148.44	96.5309	1148.44	95.876	1148.44	96.0631	1148.44	93.8088	1148.44	93.6007	1148.44	91.9329	1148.44	89.6156	1148.44	90.2645	1148.44	89.272	1148.44	86.2384	1148.44	79.1861	1148.44	86.1045	1148.44	84.9762	1148.44	82.165	1148.44	80.1855	1148.44	79.904	1148.44	78.5428	1148.44	77.6045	1148.44	82.9074	1148.44	81.6264	1148.44	78.6998	1148.44	76.4002	1148.44	80.734	1148.44	84.8704	1148.44	78.7082	1148.44	68.1307	1148.44	84.4686	1148.44	83.7559	1148.44	77.4286	1148.44	87.4479	1148.44	88.4893
1189.45	99.9374	1189.45	98.8029	1189.45	99.1612	1189.45	96.3538	1189.45	97.197	1189.45	94.5688	1189.45	95.8371	1189.45	94.2624	1189.45	94.7392	1189.45	92.5713	1189.45	92.5698	1189.45	87.4891	1189.45	90.7226	1189.45	86.266	1189.45	85.8097	1189.45	77.2478	1189.45	82.481	1189.45	83.5301	1189.45	85.3932	1189.45	73.4583	1189.45	77.9069	1189.45	81.2906	1189.45	77.3628	1189.45	80.1155	1189.45	81.2746	1189.45	82.6025	1189.45	78.1027	1189.45	81.0591	1189.45	77.059	1189.45	72.2798	1189.45	68.3124	1189.45	76.7798	1189.45	86.8144	1189.45	78.4243	1189.45	83.4049	1189.45	90.2064
1231.2	99.1794	1231.2	98.0816	1231.2	98.146	1231.2	95.7052	1231.2	96.145	1231.2	94.005	1231.2	95.4578	1231.2	93.2174	1231.2	94.7785	1231.2	92.1406	1231.2	92.2515	1231.2	86.918	1231.2	88.9921	1231.2	85.5903	1231.2	85.1905	1231.2	73.9967	1231.2	80.6582	1231.2	81.5507	1231.2	82.5552	1231.2	74.3377	1231.2	76.8669	1231.2	79.3178	1231.2	79.5612	1231.2	84.4824	1231.2	80.0776	1231.2	85.1185	1231.2	79.1047	1231.2	85.7769	1231.2	75.4669	1231.2	74.8784	1231.2	69.4218	1231.2	78.4698	1231.2	86.1242	1231.2	74.4661	1231.2	79.3699	1231.2	88.4978
1274.41	98.0252	1274.41	97.632	1274.41	96.5982	1274.41	95.9708	1274.41	94.6029	1274.41	94.3169	1274.41	93.7295	1274.41	92.8741	1274.41	93.0669	1274.41	91.8958	1274.41	90.9099	1274.41	87.5602	1274.41	86.5208	1274.41	84.4705	1274.41	83.5204	1274.41	83.7604	1274.41	80.627	1274.41	71.7327	1274.41	77.7574	1274.41	59.8968	1274.41	79.1478	1274.41	70.1618	1274.41	64.5055	1274.41	80.0112	1274.41	68.7414	1274.41	78.8482	1274.41	68.226	1274.41	84.5779	1274.41	77.1325	1274.41	79.0848	1274.41	80.0362	1274.41	81.5877	1274.41	80.9726	1274.41	79.3536	1274.41	74.207	1274.41	82.2212
1319.82	96.536	1319.82	96.5043	1319.82	95.229	1319.82	95.5285	1319.82	93.5528	1319.82	94.1015	1319.82	92.5862	1319.82	92.217	1319.82	92.0862	1319.82	90.5733	1319.82	90.291	1319.82	85.5482	1319.82	84.9378	1319.82	81.6198	1319.82	80.906	1319.82	80.6383	1319.82	79.9655	1319.82	78.7331	1319.82	77.2021	1319.82	68.1811	1319.82	71.8496	1319.82	74.9131	1319.82	77.3943	1319.82	81.5057	1319.82	69.4862	1319.82	76.7255	1319.82	75.8619	1319.82	83.2578	1319.82	69.2764	1319.82	75.4296	1319.82	77.2862	1319.82	81.5615	1319.82	79.655	1319.82	75.4226	1319.82	78.6632	1319.82	75.8499
1365.97	97.2103	1365.97	96.657	1365.97	96.5349	1365.97	95.2924	1365.97	94.8657	1365.97	93.3862	1365.97	92.7464	1365.97	90.4943	1365.97	90.3794	1365.97	87.9801	1365.97	89.395	1365.97	85.3679	1365.97	85.9491	1365.97	80.7241	1365.97	78.2706	1365.97	76.5508	1365.97	81.2209	1365.97	80.6938	1365.97	70.3762	1365.97	72.937	1365.97	69.7531	1365.97	80.7978	1365.97	74.4028	1365.97	68.7539	1365.97	71.8035	1365.97	67.8945	1365.97	73.6901	1365.97	70.933	1365.97	69.9476	1365.97	70.3048	1365.97	72.9551	1365.97	80.5642	1365.97	67.8392	1365.97	77.8809	1365.97	76.7091	1365.97	75.0362
1414.31	97.0906	1414.31	96.0373	1414.31	96.783	1414.31	94.4294	1414.31	95.2176	1414.31	92.7651	1414.31	92.8792	1414.31	90.1808	1414.31	89.6534	1414.31	87.024	1414.31	86.7552	1414.31	83.668	1414.31	84.6688	1414.31	79.0458	1414.31	79.4249	1414.31	70.8968	1414.31	77.3417	1414.31	71.3792	1414.31	76.1539	1414.31	71.4945	1414.31	71.803	1414.31	68.7604	1414.31	69.8312	1414.31	70.6177	1414.31	74.958	1414.31	76.5822	1414.31	72.7558	1414.31	67.8822	1414.31	72.6309	1414.31	73.3116	1414.31	79.0348	1414.31	77.7557	1414.31	78.7063	1414.31	71.7451	1414.31	72.5173	1414.31	66.917
1464.11	96.4198	1464.11	95.7358	1464.11	95.8757	1464.11	93.9627	1464.11	94.6261	1464.11	91.5356	1464.11	92.8626	1464.11	88.4756	1464.11	89.7207	1464.11	86.2525	1464.11	86.8814	1464.11	82.7879	1464.11	83.1136	1464.11	79.6607	1464.11	76.9942	1464.11	76.6853	1464.11	72.8379	1464.11	73.9899	1464.11	71.3702	1464.11	66.6177	1464.11	72.3249	1464.11	74.7178	1464.11	72.4808	1464.11	74.1078	1464.11	74.3869	1464.11	75.1316	1464.11	77.0804	1464.11	72.0636	1464.11	74.4811	1464.11	79.6684	1464.11	70.4953	1464.11	79.6682	1464.11	73.7197	1464.11	69.6494	1464.11	76.453	1464.11	71.4099
1515.38	96.566	1515.38	95.9631	1515.38	95.7833	1515.38	94.0767	1515.38	94.1077	1515.38	91.3267	1515.38	91.8347	1515.38	87.8593	1515.38	88.2276	1515.38	85.2593	1515.38	84.2984	1515.38	82.3761	1515.38	82.0389	1515.38	71.864	1515.38	77.8343	1515.38	75.0545	1515.38	74.6113	1515.38	70.0845	1515.38	53.315	1515.38	60.6565	1515.38	63.5779	1515.38	64.8463	1515.38	49.5157	1515.38	77.4655	1515.38	73.5608	1515.38	65.6531	1515.38	61.3983	1515.38	72.0385	1515.38	73.8151	1515.38	77.3938	1515.38	70.2399	1515.38	74.1588	1515.38	73.4309	1515.38	66.3688	1515.38	76.5262	1515.38	78.8901
1568.85	96.7879	1568.85	95.9986	1568.85	95.8762	1568.85	94.0119	1568.85	93.6385	1568.85	91.35	1568.85	91.0935	1568.85	87.5043	1568.85	88.1191	1568.85	83.7561	1568.85	84.1616	1568.85	80.4088	1568.85	80.2438	1568.85	75.5197	1568.85	76.4569	1568.85	70.8417	1568.85	80.0433	1568.85	72.4031	1568.85	67.1152	1568.85	65.987	1568.85	69.6565	1568.85	67.5077	1568.85	67.6828	1568.85	70.6432	1568.85	66.2181	1568.85	66.7608	1568.85	64.5835	1568.85	69.4664	1568.85	68.7438	1568.85	76.7866	1568.85	73.3936	1568.85	68.1032	1568.85	76.404	1568.85	48.509	1568.85	70.4144	1568.85	81.337
1624.51	97.4152	1624.51	96.0618	1624.51	96.4158	1624.51	93.0577	1624.51	93.3279	1624.51	89.6485	1624.51	89.5965	1624.51	85.8891	1624.51	86.4144	1624.51	81.1331	1624.51	82.5416	1624.51	77.8903	1624.51	76.8402	1624.51	73.7849	1624.51	74.7949	1624.51	72.369	1624.51	79.5053	1624.51	70.072	1624.51	71.2996	1624.51	70.9058	1624.51	61.0896	1624.51	71.2066	1624.51	70.4135	1624.51	71.0759	1624.51	68.3117	1624.51	75.2915	1624.51	59.3345	1624.51	66.6717	1624.51	70.5134	1624.51	80.1999	1624.51	75.6929	1624.51	79.4068	1624.51	66.3853	1624.51	71.8201	1624.51	78.2652	1624.51	78.9993
1681.64	97.7961	1681.64	95.7898	1681.64	96.6318	1681.64	91.3685	1681.64	93.0381	1681.64	87.6353	1681.64	89.3411	1681.64	85.3401	1681.64	86.2625	1681.64	81.6718	1681.64	82.727	1681.64	78.6997	1681.64	80.2546	1681.64	72.463	1681.64	70.7651	1681.64	72.5753	1681.64	75.9372	1681.64	67.7327	1681.64	62.8027	1681.64	67.402	1681.64	54.6623	1681.64	62.2693	1681.64	71.007	1681.64	64.3275	1681.64	67.8882	1681.64	68.2701	1681.64	71.6949	1681.64	55.553	1681.64	67.6068	1681.64	73.7464	1681.64	70.3241	1681.64	74.8946	1681.64	74.7281	1681.64	66.58	1681.64	73.1892	1681.64	71.0845
1740.97	97.7795	1740.97	96.1603	1740.97	96.5822	1740.97	92.3593	1740.97	93.3751	1740.97	88.4351	1740.97	90.1152	1740.97	85.0271	1740.97	86.8927	1740.97	80.8689	1740.97	82.3688	1740.97	76.9044	1740.97	78.0998	1740.97	71.9903	1740.97	71.4745	1740.97	72.6953	1740.97	75.8254	1740.97	64.8292	1740.97	70.2398	1740.97	67.2219	1740.97	62.9915	1740.97	68.054	1740.97	63.8643	1740.97	59.5621	1740.97	67.1859	1740.97	69.9591	1740.97	62.4307	1740.97	67.8339	1740.97	61.5804	1740.97	67.5381	1740.97	65.0695	1740.97	71.4485	1740.97	71.9198	1740.97	66.9204	1740.97	70.2794	1740.97	63.515
1802.49	97.5827	1802.49	96.0537	1802.49	96.0987	1802.49	92.3587	1802.49	92.5473	1802.49	89.0904	1802.49	89.4575	1802.49	86.0554	1802.49	86.9591	1802.49	82.0524	1802.49	83.0962	1802.49	77.8857	1802.49	78.9291	1802.49	70.4843	1802.49	71.7111	1802.49	71.6425	1802.49	74.0015	1802.49	58.815	1802.49	69.2706	1802.49	56.4237	1802.49	66.1506	1802.49	72.0448	1802.49	70.0672	1802.49	64.1054	1802.49	65.2286	1802.49	67.4428	1802.49	57.9553	1802.49	70.7789	1802.49	67.1253	1802.49	71.8645	1802.49	60.2842	1802.49	65.0569	1802.49	65.5914	1802.49	73.5178	1802.49	73.8608	1802.49	75.0589
1866.21	96.8208	1866.21	95.2459	1866.21	95.5772	1866.21	92.3612	1866.21	92.7885	1866.21	90.4937	1866.21	90.4963	1866.21	87.7561	1866.21	88.0504	1866.21	82.776	1866.21	84.6144	1866.21	78.2724	1866.21	80.2585	1866.21	72.2777	1866.21	76.8183	1866.21	72.5534	1866.21	75.1181	1866.21	65.0824	1866.21	69.6155	1866.21	67.5363	1866.21	66.5136	1866.21	59.3049	1866.21	64.1312	1866.21	65.5213	1866.21	72.789	1866.21	70.1501	1866.21	65.494	1866.21	65.9985	1866.21	66.5869	1866.21	60.6994	1866.21	63.2532	1866.21	57.9844	1866.21	61.9208	1866.21	72.492	1866.21	73.439	1866.21	77.986
1932.13	96.3405	1932.13	94.7287	1932.13	95.7082	1932.13	92.3324	1932.13	93.8501	1932.13	90.5169	1932.13	91.4728	1932.13	88.1345	1932.13	87.6747	1932.13	83.3411	1932.13	84.0188	1932.13	77.8985	1932.13	78.9092	1932.13	70.1403	1932.13	76.236	1932.13	71.6403	1932.13	76.8337	1932.13	62.6219	1932.13	68.9987	1932.13	63.0881	1932.13	62.4323	1932.13	71.9082	1932.13	65.3871	1932.13	55.4696	1932.13	60.8947	1932.13	56.9879	1932.13	65.8102	1932.13	53.0089	1932.13	64.2925	1932.13	71.4524	1932.13	67.9313	1932.13	66.8982	1932.13	68.5534	1932.13	60.5348	1932.13	42.5725	1932.13	73.8333
2000.24	96.1412	2000.24	95.068	2000.24	95.5754	2000.24	93.0701	2000.24	94.0323	2000.24	90.1442	2000.24	91.8851	2000.24	86.0712	2000.24	87.7601	2000.24	82.1263	2000.24	82.2761	2000.24	77.1724	2000.24	77.863	2000.24	70.2943	2000.24	71.8706	2000.24	66.3178	2000.24	76.4354	2000.24	65.6303	2000.24	64.9735	2000.24	60.0846	2000.24	52.1646	2000.24	64.1769	2000.24	68.3625	2000.24	66.3586	2000.24	63.1151	2000.24	67.5202	2000.24	62.1279	2000.24	61.2568	2000.24	49.6226	2000.24	64.9947	2000.24	66.0934	2000.24	65.6854	2000.24	71.1301	2000.24	59.5569	2000.24	69.469	2000.24	65.4965
2070.56	96.2495	2070.56	95.5898	2070.56	95.1694	2070.56	93.6153	2070.56	93.2743	2070.56	90.84	2070.56	91.3526	2070.56	86.1798	2070.56	88.3693	2070.56	80.3757	2070.56	82.257	2070.56	77.3767	2070.56	77.0151	2070.56	69.0196	2070.56	72.0398	2070.56	67.9808	2070.56	73.7265	2070.56	67.6405	2070.56	62.5387	2070.56	60.9979	2070.56	64.9634	2070.56	69.6349	2070.56	58.4504	2070.56	62.4496	2070.56	69.4678	2070.56	69.0366	2070.56	60.8472	2070.56	65.5468	2070.56	65.0076	2070.56	67.4206	2070.56	64.7328	2070.56	62.6978	2070.56	63.493	2070.56	69.0625	2070.56	71.4113	2070.56	64.9105
2143.8	96.8502	2143.8	95.4518	2143.8	95.9647	2143.8	92.7845	2143.8	93.4686	2143.8	90.2252	2143.8	90.2251	2143.8	86.6939	2143.8	87.2622	2143.8	79.8344	2143.8	83.67	2143.8	76.9558	2143.8	75.7474	2143.8	65.7088	2143.8	74.2427	2143.8	69.9122	2143.8	73.8223	2143.8	65.0309	2143.8	71.5259	2143.8	63.7012	2143.8	71.2377	2143.8	63.7336	2143.8	67.7343	2143.8	66.5353	2143.8	62.4465	2143.8	68.8535	2143.8	60.3725	2143.8	69.3561	2143.8	67.6683	2143.8	70.3059	2143.8	66.9522	2143.8	62.2708	2143.8	60.0249	2143.8	65.4584	2143.8	67.1033	2143.8	65.5508
2219.24	96.9339	2219.24	95.3778	2219.24	96.3941	2219.24	92.6979	2219.24	94.4564	2219.24	89.8152	2219.24	91.1793	2219.24	86.2871	2219.24	85.4329	2219.24	80.4831	2219.24	81.8146	2219.24	76.1731	2219.24	75.3655	2219.24	68.9947	2219.24	73.3933	2219.24	70.0478	2219.24	76.4151	2219.24	56.2766	2219.24	72.8075	2219.24	68.8959	2219.24	69.3455	2219.24	65.9202	2219.24	63.7183	2219.24	58.2234	2219.24	62.4397	2219.24	65.6034	2219.24	61.0777	2219.24	70.4481	2219.24	58.9963	2219.24	68.8017	2219.24	60.9426	2219.24	66.0198	2219.24	57.9952	2219.24	45.7876	2219.24	59.1187	2219.24	65.7919
2297.61	95.4081	2297.61	94.6045	2297.61	94.9748	2297.61	93.1502	2297.61	93.9206	2297.61	90.8271	2297.61	92.0134	2297.61	86.6077	2297.61	87.3185	2297.61	81.6283	2297.61	79.9043	2297.61	75.7512	2297.61	76.6067	2297.61	71.7398	2297.61	66.232	2297.61	66.846	2297.61	75.4174	2297.61	64.4348	2297.61	65.2563	2297.61	60.2853	2297.61	59.0557	2297.61	66.0111	2297.61	68.6174	2297.61	60.7259	2297.61	63.4739	2297.61	66.2599	2297.61	45.0859	2297.61	67.1893	2297.61	64.8999	2297.61	71.9673	2297.61	67.2047	2297.61	59.8081	2297.61	59.6836	2297.61	58.736	2297.61	62.4818	2297.61	68.6009
2378.17	94.4397	2378.17	93.7542	2378.17	93.8534	2378.17	92.5215	2378.17	92.5265	2378.17	90.8339	2378.17	91.0194	2378.17	86.9999	2378.17	88.3374	2378.17	80.7457	2378.17	81.9457	2378.17	77.4118	2378.17	76.9118	2378.17	70.495	2378.17	70.5666	2378.17	70.1127	2378.17	73.0678	2378.17	67.6059	2378.17	70.779	2378.17	56.868	2378.17	65.8823	2378.17	70.4126	2378.17	72.6881	2378.17	68.5773	2378.17	61.8862	2378.17	67.9967	2378.17	60.9519	2378.17	68.5171	2378.17	72.4186	2378.17	75.9962	2378.17	69.17	2378.17	69.3446	2378.17	65.4038	2378.17	53.6593	2378.17	59.1883	2378.17	73.3907
2462.4	95.2398	2462.4	93.9727	2462.4	94.7309	2462.4	91.6998	2462.4	92.52	2462.4	89.3603	2462.4	89.1703	2462.4	86.0885	2462.4	86.0692	2462.4	79.6043	2462.4	81.9835	2462.4	76.3637	2462.4	75.2071	2462.4	69.1885	2462.4	73.3152	2462.4	71.0825	2462.4	75.8374	2462.4	65.9121	2462.4	74.0981	2462.4	53.2144	2462.4	69.5942	2462.4	67.736	2462.4	70.2816	2462.4	66.1967	2462.4	66.3351	2462.4	70.1354	2462.4	66.5213	2462.4	69.3221	2462.4	72.3404	2462.4	76.8887	2462.4	72.2063	2462.4	70.6216	2462.4	67.5364	2462.4	67.7016	2462.4	69.5217	2462.4	77.62
2548.83	96.1541	2548.83	94.8736	2548.83	94.8661	2548.83	91.1412	2548.83	91.722	2548.83	86.3655	2548.83	87.6714	2548.83	82.4088	2548.83	82.7683	2548.83	75.5758	2548.83	78.3566	2548.83	74.0577	2548.83	74.5008	2548.83	64.9902	2548.83	72.4325	2548.83	69.7028	2548.83	76.7629	2548.83	67.3787	2548.83	70.3181	2548.83	56.6165	2548.83	66.3935	2548.83	68.4529	2548.83	66.8644	2548.83	70.5043	2548.83	65.7645	2548.83	69.1402	2548.83	65.7892	2548.83	68.0489	2548.83	68.4985	2548.83	78.3727	2548.83	72.3651	2548.83	70.03	2548.83	67.154	2548.83	71.1656	2548.83	72.3835	2548.83	77.1297
2638.92	96.5278	2638.92	94.6735	2638.92	94.9995	2638.92	89.8025	2638.92	90.7546	2638.92	83.5011	2638.92	85.1107	2638.92	78.5943	2638.92	81.2585	2638.92	69.6049	2638.92	71.3858	2638.92	71.7144	2638.92	73.5943	2638.92	62.7734	2638.92	49.6158	2638.92	68.6764	2638.92	71.0662	2638.92	69.3896	2638.92	70.0203	2638.92	57.3574	2638.92	61.6815	2638.92	67.7918	2638.92	70.4031	2638.92	72.2565	2638.92	66.024	2638.92	70.9633	2638.92	65.0513	2638.92	69.2162	2638.92	65.0534	2638.92	77.3163	2638.92	71.7134	2638.92	69.7993	2638.92	68.8684	2638.92	72.3425	2638.92	72.224	2638.92	75.1669
2731.93	96.6753	2731.93	94.8065	2731.93	95.6695	2731.93	90.9746	2731.93	92.4356	2731.93	85.686	2731.93	86.8389	2731.93	79.7089	2731.93	78.909	2731.93	69.8047	2731.93	75.117	2731.93	67.5756	2731.93	64.1757	2731.93	59.6223	2731.93	67.9731	2731.93	67.5891	2731.93	63.2911	2731.93	67.4946	2731.93	73.916	2731.93	57.0355	2731.93	68.8901	2731.93	65.2243	2731.93	69.0254	2731.93	71.999	2731.93	65.0991	2731.93	68.3455	2731.93	58.0483	2731.93	67.3438	2731.93	68.3756	2731.93	73.9177	2731.93	68.8439	2731.93	66.8639	2731.93	66.2178	2731.93	68.3855	2731.93	66.7942	2731.93	70.726
2828.61	96.5654	2828.61	95.1525	2828.61	95.3385	2828.61	91.3906	2828.61	92.24	2828.61	85.3291	2828.61	87.2699	2828.61	78.1851	2828.61	78.5405	2828.61	70.6925	2828.61	72.168	2828.61	64.6422	2828.61	56.3233	2828.61	58.4175	2828.61	65.0387	2828.61	66.0362	2828.61	68.4192	2828.61	63.6823	2828.61	72.4882	2828.61	56.7621	2828.61	64.7987	2828.61	67.7455	2828.61	66.0292	2828.61	71.0136	2828.61	60.9375	2828.61	67.9551	2828.61	59.763	2828.61	72.0154	2828.61	63.6261	2828.61	75.7015	2828.61	67.0391	2828.61	64.2926	2828.61	63.0906	2828.61	60.3296	2828.61	61.0169	2828.61	69.3399
2928.22	96.4709	2928.22	95.1557	2928.22	95.4758	2928.22	92.2008	2928.22	92.7941	2928.22	87.7161	2928.22	88.1513	2928.22	79.9502	2928.22	79.4541	2928.22	73.0779	2928.22	73.0563	2928.22	55.4522	2928.22	65.4378	2928.22	65.4696	2928.22	59.7443	2928.22	59.8391	2928.22	65.6174	2928.22	66.2742	2928.22	74.4343	2928.22	60.2528	2928.22	66.9392	2928.22	68.7814	2928.22	65.145	2928.22	71.9474	2928.22	67.6509	2928.22	58.6209	2928.22	63.2487	2928.22	71.1151	2928.22	63.4185	2928.22	71.683	2928.22	68.1852	2928.22	67.2891	2928.22	69.0825	2928.22	66.832	2928.22	66.1205	2928.22	63.7054
3031.49	96.4575	3031.49	95.3448	3031.49	95.6186	3031.49	92.5216	3031.49	93.3675	3031.49	88.1173	3031.49	89.6546	3031.49	81.9234	3031.49	82.6889	3031.49	75.6276	3031.49	75.8483	3031.49	63.8726	3031.49	70.1798	3031.49	67.93	3031.49	60.8033	3031.49	56.6977	3031.49	69.3037	3031.49	64.8223	3031.49	71.9855	3031.49	65.3451	3031.49	65.5636	3031.49	57.8181	3031.49	64.423	3031.49	68.9182	3031.49	55.7908	3031.49	68.6794	3031.49	61.8478	3031.49	66.8065	3031.49	64.3125	3031.49	59.6172	3031.49	63.984	3031.49	61.9315	3031.49	65.6521	3031.49	65.2685	3031.49	65.9487	3031.49	58.3882
3138.43	96.7302	3138.43	95.9584	3138.43	95.8145	3138.43	93.3412	3138.43	93.6702	3138.43	88.9483	3138.43	89.8104	3138.43	82.0594	3138.43	83.2055	3138.43	77.5974	3138.43	76.5268	3138.43	68.2072	3138.43	71.1974	3138.43	71.3414	3138.43	66.5692	3138.43	53.1175	3138.43	71.0687	3138.43	72.0394	3138.43	72.6139	3138.43	60.2215	3138.43	62.0691	3138.43	60.9406	3138.43	63.5026	3138.43	73.191	3138.43	70.0668	3138.43	63.5617	3138.43	67.0046	3138.43	72.6137	3138.43	64.0388	3138.43	71.1463	3138.43	68.763	3138.43	37.5044	3138.43	70.7331	3138.43	64.8032	3138.43	70.1236	3138.43	72.1732
3249.02	96.8039	3249.02	95.3955	3249.02	96.2179	3249.02	92.4542	3249.02	93.4795	3249.02	89.0426	3249.02	89.0175	3249.02	84.5578	3249.02	83.2964	3249.02	78.0523	3249.02	78.0841	3249.02	73.495	3249.02	74.7244	3249.02	71.3005	3249.02	71.3035	3249.02	63.968	3249.02	74.7537	3249.02	72.7452	3249.02	68.3692	3249.02	60.1462	3249.02	66.5121	3249.02	60.9999	3249.02	64.8786	3249.02	72.077	3249.02	69.2034	3249.02	72.1851	3249.02	72.6352	3249.02	72.1252	3249.02	64.1794	3249.02	75.1931	3249.02	68.9847	3249.02	64.9108	3249.02	75.612	3249.02	70.2332	3249.02	73.0933	3249.02	75.0379
3363.28	98.3784	3363.28	96.5217	3363.28	96.8853	3363.28	92.1131	3363.28	92.6418	3363.28	88.3936	3363.28	88.2181	3363.28	85.6198	3363.28	84.3066	3363.28	80.6593	3363.28	78.3524	3363.28	73.7252	3363.28	75.063	3363.28	73.3112	3363.28	69.244	3363.28	67.0028	3363.28	75.0777	3363.28	68.0627	3363.28	64.6815	3363.28	70.1138	3363.28	49.7683	3363.28	56.0388	3363.28	65.5056	3363.28	70.0279	3363.28	65.9442	3363.28	71.6008	3363.28	67.649	3363.28	69.6192	3363.28	68.7828	3363.28	66.1264	3363.28	68.3058	3363.28	66.1509	3363.28	73.5649	3363.28	71.5828	3363.28	72.3073	3363.28	72.9058
3481.93	97.7779	3481.93	96.1119	3481.93	96.2987	3481.93	92.676	3481.93	92.2509	3481.93	90.0505	3481.93	88.3042	3481.93	85.5838	3481.93	84.2741	3481.93	80.3298	3481.93	79.7205	3481.93	73.8217	3481.93	73.2707	3481.93	73.0825	3481.93	73.076	3481.93	64.146	3481.93	77.022	3481.93	71.3395	3481.93	69.4407	3481.93	65.9068	3481.93	62.7952	3481.93	63.1685	3481.93	63.0208	3481.93	73.4842	3481.93	66.632	3481.93	59.0553	3481.93	68.0042	3481.93	68.4466	3481.93	66.8139	3481.93	66.864	3481.93	68.5864	3481.93	63.8746	3481.93	73.504	3481.93	67.7774	3481.93	70.6062	3481.93	69.0248
3604.98	97.7176	3604.98	95.7292	3604.98	96.1745	3604.98	92.054	3604.98	92.1797	3604.98	89.7396	3604.98	89.3238	3604.98	87.059	3604.98	85.5967	3604.98	80.6544	3604.98	79.918	3604.98	74.4763	3604.98	75.0232	3604.98	69.3711	3604.98	71.8543	3604.98	69.5298	3604.98	76.8202	3604.98	69.6839	3604.98	70.882	3604.98	58.7212	3604.98	66.1619	3604.98	65.9061	3604.98	65.174	3604.98	71.6588	3604.98	68.3279	3604.98	73.5058	3604.98	69.7503	3604.98	59.3903	3604.98	64.6961	3604.98	77.4595	3604.98	69.922	3604.98	69.7096	3604.98	76.36	3604.98	69.3129	3604.98	68.9792	3604.98	73.5736
3732.42	97.0663	3732.42	95.3409	3732.42	95.451	3732.42	92.3137	3732.42	92.1743	3732.42	89.9382	3732.42	89.6303	3732.42	86.0352	3732.42	85.7752	3732.42	81.1814	3732.42	80.7654	3732.42	73.2194	3732.42	74.9521	3732.42	73.1823	3732.42	71.2305	3732.42	63.476	3732.42	76.8546	3732.42	70.3219	3732.42	70.102	3732.42	61.8086	3732.42	63.5125	3732.42	57.7185	3732.42	68.433	3732.42	73.7576	3732.42	66.7125	3732.42	72.8778	3732.42	67.863	3732.42	70.7109	3732.42	66.7739	3732.42	67.5503	3732.42	69.356	3732.42	64.2673	3732.42	74.0978	3732.42	71.6882	3732.42	72.4185	3732.42	75.1867
3863.53	97.3071	3863.53	95.3988	3863.53	95.819	3863.53	92.3161	3863.53	92.6173	3863.53	89.7285	3863.53	89.8662	3863.53	86.2523	3863.53	85.1327	3863.53	79.066	3863.53	79.7211	3863.53	75.284	3863.53	73.7326	3863.53	63.5407	3863.53	69.9963	3863.53	70.9423	3863.53	73.1217	3863.53	69.3252	3863.53	72.6468	3863.53	65.9877	3863.53	68.119	3863.53	65.808	3863.53	66.6477	3863.53	75.0236	3863.53	63.1225	3863.53	69.6627	3863.53	67.9863	3863.53	59.1297	3863.53	58.3191	3863.53	74.0184	3863.53	71.1012	3863.53	66.3895	3863.53	72.4649	3863.53	66.8457	3863.53	70.18	3863.53	75.0899
3999.76	95.4518	3999.76	94.3258	3999.76	94.0599	3999.76	92.7751	3999.76	91.9771	3999.76	90.2489	3999.76	89.5958	3999.76	85.2588	3999.76	84.2971	3999.76	80.7398	3999.76	79.2784	3999.76	71.3957	3999.76	72.0893	3999.76	71.0111	3999.76	72.3799	3999.76	63.0744	3999.76	76.1344	3999.76	62.7841	3999.76	73.4224	3999.76	65.8589	3999.76	66.8109	3999.76	59.4304	3999.76	64.0948	3999.76	62.1471	3999.76	62.5387	3999.76	63.5303	3999.76	64.779	3999.76	68.3498	3999.76	67.3136	3999.76	72.3505	3999.76	64.9611	3999.76	63.3468	3999.76	71.3429	3999.76	69.1919	3999.76	69.2652	3999.76	70.8802
4141.11	95.8044	4141.11	94.5115	4141.11	94.1567	4141.11	92.2717	4141.11	91.8187	4141.11	89.5017	4141.11	89.5399	4141.11	85.4574	4141.11	84.3709	4141.11	79.2301	4141.11	78.5638	4141.11	73.9565	4141.11	73.8491	4141.11	67.2354	4141.11	70.1726	4141.11	69.8878	4141.11	74.67	4141.11	67.8844	4141.11	71.5832	4141.11	63.7273	4141.11	66.9003	4141.11	64.1131	4141.11	65.382	4141.11	71.5954	4141.11	66.7054	4141.11	70.2064	4141.11	68.1102	4141.11	60.113	4141.11	62.1658	4141.11	74.5914	4141.11	69.8471	4141.11	66.1348	4141.11	71.9846	4141.11	66.9672	4141.11	69.134	4141.11	75.0422
4286.87	93.5769	4286.87	92.9796	4286.87	92.767	4286.87	92.5559	4286.87	92.2354	4286.87	90.0545	4286.87	89.8391	4286.87	84.0802	4286.87	83.1332	4286.87	79.7894	4286.87	78.1878	4286.87	70.2226	4286.87	70.1836	4286.87	70.7024	4286.87	70.3078	4286.87	63.6751	4286.87	73.9132	4286.87	66.0478	4286.87	72.1172	4286.87	64.2678	4286.87	67.9799	4286.87	57.2074	4286.87	68.3003	4286.87	66.1015	4286.87	57.6934	4286.87	68.8402	4286.87	62.2564	4286.87	65.7501	4286.87	68.5889	4286.87	72.6555	4286.87	62.7967	4286.87	60.7505	4286.87	68.4299	4286.87	68.3994	4286.87	69.0665	4286.87	67.93
4438.48	94.2429	4438.48	93.8617	4438.48	93.1474	4438.48	92.6019	4438.48	92.4145	4438.48	89.1866	4438.48	90.3928	4438.48	83.5229	4438.48	83.8983	4438.48	78.0849	4438.48	77.2572	4438.48	70.9322	4438.48	70.6317	4438.48	67.5746	4438.48	71.1744	4438.48	68.1055	4438.48	74.0422	4438.48	66.1835	4438.48	68.3431	4438.48	64.8058	4438.48	62.1481	4438.48	64.1432	4438.48	64.6402	4438.48	69.2255	4438.48	65.2333	4438.48	68.7442	4438.48	66.9763	4438.48	57.1423	4438.48	65.0734	4438.48	72.0674	4438.48	66.5069	4438.48	59.3088	4438.48	67.8328	4438.48	65.8351	4438.48	66.8375	4438.48	73.3926
4594.48	93.3396	4594.48	93.3726	4594.48	93.2985	4594.48	93.4967	4594.48	93.6536	4594.48	90.8486	4594.48	91.3151	4594.48	84.2777	4594.48	84.6698	4594.48	78.363	4594.48	78.5744	4594.48	71.6631	4594.48	71.4638	4594.48	69.3715	4594.48	71.0683	4594.48	63.371	4594.48	72.7036	4594.48	68.9893	4594.48	73.1102	4594.48	61.4103	4594.48	69.8565	4594.48	61.6123	4594.48	68.9873	4594.48	73.6932	4594.48	65.6524	4594.48	68.4553	4594.48	61.3959	4594.48	66.34	4594.48	69.3437	4594.48	73.6945	4594.48	69.0254	4594.48	63.4854	4594.48	68.8812	4594.48	68.3768	4594.48	68.939	4594.48	70.9868
4757.08	93.9921	4757.08	94.7159	4757.08	93.9759	4757.08	94.6209	4757.08	94.4502	4757.08	91.1431	4757.08	92.0485	4757.08	83.8717	4757.08	84.4569	4757.08	78.2821	4757.08	77.0703	4757.08	69.9254	4757.08	70.3096	4757.08	66.6299	4757.08	70.1191	4757.08	67.4371	4757.08	72.9758	4757.08	65.7858	4757.08	71.7262	4757.08	64.6423	4757.08	64.4042	4757.08	65.1282	4757.08	65.0018	4757.08	71.6057	4757.08	61.9745	4757.08	69.222	4757.08	66.0294	4757.08	45.5433	4757.08	66.0525	4757.08	73.2866	4757.08	65.983	4757.08	62.3133	4757.08	66.5312	4757.08	66.0115	4757.08	67.4188	4757.08	71.3479
4924.8	94.7444	4924.8	95.1595	4924.8	94.8899	4924.8	94.7558	4924.8	94.9398	4924.8	91.3584	4924.8	92.3101	4924.8	83.9198	4924.8	85.1928	4924.8	77.3943	4924.8	76.831	4924.8	68.7085	4924.8	71.1572	4924.8	67.7197	4924.8	69.8062	4924.8	62.7562	4924.8	72.45	4924.8	64.4844	4924.8	70.2962	4924.8	63.1084	4924.8	66.8526	4924.8	62.7795	4924.8	66.1357	4924.8	68.9929	4924.8	63.2362	4924.8	65.8284	4924.8	61.2427	4924.8	44.5508	4924.8	67.5231	4924.8	70.2371	4924.8	64.7285	4924.8	59.3778	4924.8	61.1542	4924.8	63.9675	4924.8	65.5282	4924.8	66.3091
5098.39	94.9351	5098.39	95.1819	5098.39	94.9175	5098.39	94.4619	5098.39	94.7639	5098.39	90.8137	5098.39	92.0834	5098.39	83.2215	5098.39	84.8372	5098.39	76.4204	5098.39	76.1162	5098.39	68.8267	5098.39	70.5881	5098.39	66.5315	5098.39	69.103	5098.39	64.4743	5098.39	70.7135	5098.39	63.594	5098.39	69.1773	5098.39	60.9193	5098.39	64.6157	5098.39	59.9097	5098.39	64.1816	5098.39	67.8522	5098.39	61.4169	5098.39	66.5594	5098.39	51.2111	5098.39	54.2672	5098.39	65.7637	5098.39	71.9113	5098.39	63.722	5098.39	59.9926	5098.39	59.4804	5098.39	66.3784	5098.39	65.0158	5098.39	67.4248
5277.83	95.8593	5277.83	96.0885	5277.83	95.6679	5277.83	95.3843	5277.83	95.3474	5277.83	92.0326	5277.83	92.7744	5277.83	85.1135	5277.83	86.4678	5277.83	77.8233	5277.83	76.8313	5277.83	71.5916	5277.83	74.1789	5277.83	68.8345	5277.83	70.2822	5277.83	64.4201	5277.83	71.0566	5277.83	69.3263	5277.83	73.081	5277.83	61.3997	5277.83	68.7256	5277.83	66.5302	5277.83	68.6305	5277.83	74.9254	5277.83	66.8098	5277.83	69.6028	5277.83	64.7638	5277.83	55.3767	5277.83	68.3593	5277.83	77.9845	5277.83	69.7413	5277.83	70.7607	5277.83	66.8626	5277.83	64.4417	5277.83	63.6248	5277.83	68.7314
5463.87	96.8068	5463.87	97.0032	5463.87	96.5599	5463.87	96.0498	5463.87	95.9378	5463.87	92.3619	5463.87	92.9369	5463.87	85.0038	5463.87	86.2221	5463.87	77.6419	5463.87	76.6194	5463.87	71.0516	5463.87	72.704	5463.87	67.0208	5463.87	71.0461	5463.87	66.1807	5463.87	71.9821	5463.87	68.2533	5463.87	74.5313	5463.87	60.9391	5463.87	66.1969	5463.87	65.6146	5463.87	69.5989	5463.87	73.7249	5463.87	67.2474	5463.87	70.9231	5463.87	60.7862	5463.87	55.5574	5463.87	69.187	5463.87	79.5885	5463.87	69.5368	5463.87	71.6176	5463.87	67.3453	5463.87	65.9248	5463.87	65.7212	5463.87	67.7951
5656.49	96.948	5656.49	96.8719	5656.49	96.7089	5656.49	95.7968	5656.49	95.9291	5656.49	92.0874	5656.49	92.3869	5656.49	85.0016	5656.49	85.2902	5656.49	78.1255	5656.49	76.3227	5656.49	72.2075	5656.49	70.2251	5656.49	66.5742	5656.49	71.5751	5656.49	69.2371	5656.49	73.4317	5656.49	66.6559	5656.49	77.3934	5656.49	62.9901	5656.49	70.6448	5656.49	66.3123	5656.49	68.3747	5656.49	74.9667	5656.49	66.0067	5656.49	69.4244	5656.49	67.6932	5656.49	52.26	5656.49	69.6099	5656.49	80.1298	5656.49	69.6812	5656.49	72.6232	5656.49	67.9075	5656.49	64.4163	5656.49	67.4321	5656.49	68.4671
5856.45	97.0584	5856.45	96.6314	5856.45	96.7112	5856.45	95.1352	5856.45	95.584	5856.45	91.3831	5856.45	91.8976	5856.45	84.5717	5856.45	84.6629	5856.45	77.4399	5856.45	75.6842	5856.45	72.5826	5856.45	68.9219	5856.45	66.818	5856.45	71.4312	5856.45	67.4978	5856.45	74.4457	5856.45	69.2118	5856.45	77.6625	5856.45	63.005	5856.45	69.2527	5856.45	67.714	5856.45	70.8819	5856.45	75.6874	5856.45	67.6366	5856.45	70.9503	5856.45	63.0245	5856.45	61.8123	5856.45	70.4885	5856.45	80.6608	5856.45	69.8469	5856.45	73.4575	5856.45	65.2641	5856.45	62.7322	5856.45	63.2351	5856.45	65.8209
6062.99	96.3837	6062.99	95.7589	6062.99	95.884	6062.99	94.2537	6062.99	94.6639	6062.99	90.5502	6062.99	90.7887	6062.99	83.4779	6062.99	83.09	6062.99	76.629	6062.99	74.6769	6062.99	71.618	6062.99	67.664	6062.99	64.6821	6062.99	67.3495	6062.99	68.7805	6062.99	72.6982	6062.99	68.0899	6062.99	77.7165	6062.99	62.981	6062.99	69.6398	6062.99	68.1137	6062.99	69.8997	6062.99	75.8096	6062.99	67.3208	6062.99	71.2829	6062.99	63.7977	6062.99	57.4757	6062.99	68.2129	6062.99	80.0319	6062.99	71.352	6062.99	71.2092	6062.99	68.5671	6062.99	48.5394	6062.99	48.6503	6062.99	57.5373
6276.86	95.7292	6276.86	95.1289	6276.86	95.3323	6276.86	93.7105	6276.86	94.2201	6276.86	89.8405	6276.86	90.2393	6276.86	82.6034	6276.86	82.3134	6276.86	75.9224	6276.86	74.6017	6276.86	71.8295	6276.86	66.6935	6276.86	64.8128	6276.86	68.0142	6276.86	69.3043	6276.86	72.9032	6276.86	68.3014	6276.86	77.4053	6276.86	61.2456	6276.86	68.4544	6276.86	67.9843	6276.86	68.9966	6276.86	76.4403	6276.86	67.5858	6276.86	71.3599	6276.86	66.7045	6276.86	59.4137	6276.86	66.2367	6276.86	80.3562	6276.86	70.4625	6276.86	72.9346	6276.86	70.0594	6276.86	54.0758	6276.86	48.1549	6276.86	49.7126
6498.05	95.3177	6498.05	94.8032	6498.05	94.8733	6498.05	93.475	6498.05	93.6507	6498.05	89.4905	6498.05	89.4676	6498.05	81.5159	6498.05	80.3402	6498.05	75.6697	6498.05	74.0281	6498.05	70.0668	6498.05	63.563	6498.05	64.798	6498.05	69.6468	6498.05	68.0988	6498.05	72.8684	6498.05	64.8369	6498.05	76.4942	6498.05	64.6512	6498.05	67.4784	6498.05	65.1975	6498.05	66.361	6498.05	73.7988	6498.05	65.0862	6498.05	68.9449	6498.05	66.8106	6498.05	42.967	6498.05	65.9711	6498.05	78.3952	6498.05	68.9235	6498.05	70.9368	6498.05	67.1451	6498.05	54.8986	6498.05	46.1796	6498.05	56.8816
6727.29	95.7344	6727.29	95.0562	6727.29	94.9284	6727.29	93.2332	6727.29	93.1171	6727.29	88.7093	6727.29	88.5688	6727.29	79.7142	6727.29	78.2023	6727.29	74.4895	6727.29	73.3641	6727.29	68.0032	6727.29	60.8061	6727.29	63.4316	6727.29	67.2397	6727.29	67.533	6727.29	71.0098	6727.29	63.0085	6727.29	76.1469	6727.29	61.6672	6727.29	69.7422	6727.29	65.8101	6727.29	67.0275	6727.29	73.0354	6727.29	64.1675	6727.29	68.9736	6727.29	67.3374	6727.29	58.2537	6727.29	67.5525	6727.29	77.9199	6727.29	68.0792	6727.29	69.1993	6727.29	63.8794	6727.29	53.5643	6727.29	54.7697	6727.29	53.6166
6964.6	97.0803	6964.6	96.0841	6964.6	96.1177	6964.6	93.9934	6964.6	94.2837	6964.6	89.6321	6964.6	89.9964	6964.6	80.845	6964.6	79.1074	6964.6	74.8685	6964.6	73.5815	6964.6	69.6931	6964.6	61.3261	6964.6	63.5936	6964.6	65.7647	6964.6	68.6416	6964.6	70.8121	6964.6	68.3573	6964.6	77.1164	6964.6	64.2073	6964.6	69.6988	6964.6	66.9506	6964.6	69.0036	6964.6	76.3336	6964.6	65.9176	6964.6	70.6759	6964.6	68.2085	6964.6	58.3649	6964.6	67.2132	6964.6	79.2464	6964.6	70.647	6964.6	70.6438	6964.6	68.475	6964.6	63.3374	6964.6	64.3469	6964.6	69.1488
7209.96	98.8117	7209.96	97.8075	7209.96	97.5261	7209.96	95.7277	7209.96	95.5525	7209.96	91.3208	7209.96	91.6886	7209.96	82.2208	7209.96	80.4795	7209.96	76.3706	7209.96	75.3597	7209.96	71.4197	7209.96	63.1143	7209.96	64.8849	7209.96	70.2582	7209.96	70.0704	7209.96	72.6356	7209.96	69.6223	7209.96	79.0073	7209.96	60.1268	7209.96	72.3685	7209.96	68.9322	7209.96	71.3443	7209.96	78.1175	7209.96	67.5067	7209.96	72.3695	7209.96	69.6881	7209.96	55.4401	7209.96	67.4249	7209.96	80.2154	7209.96	72.1728	7209.96	70.3403	7209.96	73.4883	7209.96	68.0225	7209.96	69.2273	7209.96	75.4067
7464.11	99.2704	7464.11	98.6311	7464.11	97.7848	7464.11	96.8759	7464.11	96.4977	7464.11	92.3912	7464.11	93.2236	7464.11	82.3776	7464.11	82.0782	7464.11	77.4633	7464.11	76.6903	7464.11	72.4234	7464.11	62.4409	7464.11	64.4263	7464.11	71.3221	7464.11	70.6271	7464.11	73.5448	7464.11	71.0786	7464.11	80.1944	7464.11	63.3599	7464.11	72.8568	7464.11	68.9692	7464.11	71.5947	7464.11	79.6552	7464.11	69.7154	7464.11	72.1831	7464.11	73.2223	7464.11	47.3295	7464.11	69.9466	7464.11	80.7699	7464.11	74.0259	7464.11	70.7477	7464.11	75.5567	7464.11	69.7604	7464.11	68.5645	7464.11	78.4554
7727.78	98.2474	7727.78	97.9272	7727.78	96.9967	7727.78	96.7879	7727.78	96.7454	7727.78	92.6763	7727.78	93.6371	7727.78	82.37	7727.78	82.3366	7727.78	77.698	7727.78	76.5528	7727.78	72.8891	7727.78	65.8286	7727.78	62.9177	7727.78	72.1126	7727.78	72.0885	7727.78	74.5639	7727.78	71.8631	7727.78	81.3608	7727.78	64.614	7727.78	74.1739	7727.78	70.0202	7727.78	72.3878	7727.78	80.8526	7727.78	70.8376	7727.78	74.3093	7727.78	74.1387	7727.78	54.0573	7727.78	72.9484	7727.78	82	7727.78	74.4356	7727.78	73.0054	7727.78	74.8817	7727.78	69.2666	7727.78	66.7666	7727.78	79.9586
8000.24	97.2209	8000.24	97.1943	8000.24	96.6513	8000.24	96.4654	8000.24	96.7598	8000.24	92.2022	8000.24	93.1708	8000.24	81.2082	8000.24	80.407	8000.24	76.8758	8000.24	75.0466	8000.24	72.7721	8000.24	65.4748	8000.24	56.5451	8000.24	69.3332	8000.24	72.4413	8000.24	74.0886	8000.24	73.1059	8000.24	81.9508	8000.24	61.7081	8000.24	73.8963	8000.24	71.6268	8000.24	72.0432	8000.24	82.1603	8000.24	73.4179	8000.24	74.6116	8000.24	75.0448	8000.24	64.0012	8000.24	73.2803	8000.24	83.3169	8000.24	75.188	8000.24	74.7304	8000.24	75.1135	8000.24	68.6007	8000.24	62.486	8000.24	80.4165
8282.23	96.5691	8282.23	96.6389	8282.23	96.1355	8282.23	95.8712	8282.23	95.9816	8282.23	91.4573	8282.23	92.1649	8282.23	80.2214	8282.23	79.6649	8282.23	75.7963	8282.23	74.1916	8282.23	71.3444	8282.23	62.7531	8282.23	52.887	8282.23	68.8327	8282.23	71.821	8282.23	72.3757	8282.23	71.9622	8282.23	80.6392	8282.23	63.727	8282.23	73.1566	8282.23	70.0516	8282.23	71.2484	8282.23	80.8471	8282.23	72.5014	8282.23	73.653	8282.23	74.557	8282.23	63.2565	8282.23	73.2629	8282.23	82.5381	8282.23	73.8558	8282.23	73.6725	8282.23	73.0175	8282.23	67.3672	8282.23	64.6042	8282.23	78.932
8574.46	95.4287	8574.46	95.6102	8574.46	95.1469	8574.46	94.6739	8574.46	94.7224	8574.46	89.8701	8574.46	90.4861	8574.46	76.8187	8574.46	76.903	8574.46	73.6728	8574.46	70.7388	8574.46	69.231	8574.46	64.5124	8574.46	56.8564	8574.46	68.5355	8574.46	70.5476	8574.46	71.7433	8574.46	69.8287	8574.46	79.0782	8574.46	63.3539	8574.46	71.961	8574.46	69.2766	8574.46	68.0955	8574.46	78.8136	8574.46	70.8445	8574.46	71.6338	8574.46	73.5202	8574.46	66.1417	8574.46	69.0666	8574.46	80.5257	8574.46	72.4127	8574.46	71.5019	8574.46	69.9968	8574.46	62.6112	8574.46	63.3078	8574.46	78.7866
8876.22	95.5682	8876.22	95.0395	8876.22	94.9699	8876.22	93.1171	8876.22	93.6202	8876.22	88.1579	8876.22	89.1325	8876.22	74.2922	8876.22	76.4504	8876.22	72.7354	8876.22	70.21	8876.22	63.1524	8876.22	62.1645	8876.22	62.2302	8876.22	68.8625	8876.22	67.4355	8876.22	72.1021	8876.22	64.0934	8876.22	76.1656	8876.22	63.6915	8876.22	69.8728	8876.22	65.6025	8876.22	62.65	8876.22	74.2292	8876.22	66.8932	8876.22	68.6635	8876.22	71.2352	8876.22	63.9338	8876.22	67.8995	8876.22	77.6503	8876.22	66.354	8876.22	70.3376	8876.22	64.446	8876.22	57.7929	8876.22	60.0539	8876.22	76.5495
9189.7	97.0474	9189.7	95.9809	9189.7	96.0583	9189.7	93.7485	9189.7	94.5216	9189.7	89.6637	9189.7	90.8964	9189.7	77.5874	9189.7	80.2764	9189.7	74.1213	9189.7	72.3702	9189.7	62.0478	9189.7	58.5816	9189.7	64.9154	9189.7	70.435	9189.7	67.7713	9189.7	74.4025	9189.7	59.3937	9189.7	77.7	9189.7	65.7694	9189.7	72.1424	9189.7	65.187	9189.7	66.3438	9189.7	73.9185	9189.7	65.4306	9189.7	69.6	9189.7	70.8298	9189.7	66.087	9189.7	70.4077	9189.7	77.8646	9189.7	61.1824	9189.7	70.7234	9189.7	60.2827	9189.7	63.61	9189.7	60.7914	9189.7	71.9884
9513.43	97.7023	9513.43	96.5829	9513.43	96.7905	9513.43	94.9026	9513.43	95.783	9513.43	91.6973	9513.43	92.7101	9513.43	81.0863	9513.43	83.0558	9513.43	76.5024	9513.43	74.7703	9513.43	64.8527	9513.43	51.017	9513.43	67.6893	9513.43	72.2285	9513.43	68.5917	9513.43	75.9604	9513.43	61.9309	9513.43	79.7988	9513.43	66.1508	9513.43	74.3243	9513.43	66.9649	9513.43	70.4436	9513.43	75.9052	9513.43	66.1656	9513.43	72.6584	9513.43	72.2493	9513.43	69.1756	9513.43	73.6406	9513.43	79.4426	9513.43	64.8267	9513.43	70.9339	9513.43	57.4912	9513.43	65.6969	9513.43	58.2911	9513.43	71.8693
9848.88	98.6789	9848.88	97.4651	9848.88	97.7834	9848.88	95.5978	9848.88	96.3497	9848.88	91.8607	9848.88	92.6151	9848.88	81.1757	9848.88	81.2911	9848.88	76.5602	9848.88	76.6886	9848.88	69.4468	9848.88	55.9164	9848.88	63.9172	9848.88	73.5688	9848.88	70.6574	9848.88	76.7858	9848.88	68.3045	9848.88	81.6805	9848.88	64.6672	9848.88	75.311	9848.88	70.3722	9848.88	71.9934	9848.88	79.4129	9848.88	70.4291	9848.88	74.3327	9848.88	71.784	9848.88	69.5734	9848.88	73.0236	9848.88	82.9628	9848.88	71.265	9848.88	74.9337	9848.88	68.7133	9848.88	62.9469	9848.88	65.673	9848.88	68.4584
10196.8	99.4993	10196.8	98.0573	10196.8	98.1593	10196.8	95.5055	10196.8	96.2245	10196.8	91.4358	10196.8	92.9109	10196.8	78.8796	10196.8	81.8197	10196.8	76.0168	10196.8	75.7011	10196.8	67.8527	10196.8	62.327	10196.8	64.7906	10196.8	73.7975	10196.8	70.572	10196.8	76.6159	10196.8	66.7236	10196.8	80.5542	10196.8	66.0816	10196.8	74.1727	10196.8	70.1136	10196.8	69.214	10196.8	78.0952	10196.8	70.6945	10196.8	73.1679	10196.8	71.6458	10196.8	70.222	10196.8	64.3401	10196.8	81.484	10196.8	71.2412	10196.8	74.5034	10196.8	69.6213	10196.8	64.7434	10196.8	71.8847	10196.8	67.2068
10556.4	99.4862	10556.4	98.0219	10556.4	97.9502	10556.4	95.3677	10556.4	96.0939	10556.4	91.5241	10556.4	92.9232	10556.4	78.6712	10556.4	81.795	10556.4	75.8332	10556.4	74.799	10556.4	67.6444	10556.4	61.681	10556.4	66.1707	10556.4	72.906	10556.4	70.5385	10556.4	75.6385	10556.4	66.4155	10556.4	80.201	10556.4	66.6194	10556.4	73.947	10556.4	69.4118	10556.4	68.5969	10556.4	78.0314	10556.4	70.4852	10556.4	73.1061	10556.4	73.0674	10556.4	67.8066	10556.4	65.4536	10556.4	81.1433	10556.4	71.2585	10556.4	73.4537	10556.4	70.0008	10556.4	68.6268	10556.4	73.3676	10556.4	69.5989
10928.5	98.5947	10928.5	96.8587	10928.5	96.8151	10928.5	94.3814	10928.5	94.9451	10928.5	91.8478	10928.5	92.6022	10928.5	80.7404	10928.5	83.2323	10928.5	76.3938	10928.5	74.6954	10928.5	61.4274	10928.5	64.4822	10928.5	69.1971	10928.5	73.044	10928.5	69.8566	10928.5	76.1664	10928.5	53.7378	10928.5	78.5727	10928.5	69.1802	10928.5	73.8536	10928.5	66.5676	10928.5	67.4089	10928.5	73.557	10928.5	67.7	10928.5	71.3904	10928.5	74.4072	10928.5	68.7956	10928.5	72.4637	10928.5	77.7536	10928.5	66.6498	10928.5	70.8192	10928.5	67.076	10928.5	70.2284	10928.5	72.6675	10928.5	67.8465
11313.7	97.571	11313.7	96.0307	11313.7	95.8853	11313.7	94.4473	11313.7	94.8364	11313.7	91.9079	11313.7	92.4319	11313.7	81.2829	11313.7	81.842	11313.7	76.1566	11313.7	76.0578	11313.7	68.8136	11313.7	52.5224	11313.7	67.355	11313.7	73.463	11313.7	70.3293	11313.7	76.2719	11313.7	67.6841	11313.7	80.8726	11313.7	67.4394	11313.7	75.2083	11313.7	68.9413	11313.7	71.7304	11313.7	77.9104	11313.7	69.2134	11313.7	73.7095	11313.7	73.8607	11313.7	69.1743	11313.7	73.7572	11313.7	79.8791	11313.7	71.061	11313.7	71.3818	11313.7	69.799	11313.7	67.1155	11313.7	68.8133	11313.7	70.6245
11712.9	97.6025	11712.9	96.2127	11712.9	95.9147	11712.9	94.7887	11712.9	94.8918	11712.9	91.9765	11712.9	92.3019	11712.9	80.4347	11712.9	80.7854	11712.9	75.6687	11712.9	75.4594	11712.9	70.4019	11712.9	58.63	11712.9	65.4432	11712.9	73.075	11712.9	71.2876	11712.9	77.2342	11712.9	69.0971	11712.9	81.7051	11712.9	66.431	11712.9	75.2677	11712.9	70.5539	11712.9	71.1252	11712.9	79.5205	11712.9	71.634	11712.9	74.485	11712.9	74.7622	11712.9	70.1104	11712.9	73.3183	11712.9	81.2937	11712.9	72.5176	11712.9	72.4804	11712.9	70.6671	11712.9	66.8995	11712.9	69.1023	11712.9	72.727
12126	97.6928	12126	96.4527	12126	95.8324	12126	94.9132	12126	94.9319	12126	91.9506	12126	92.3523	12126	79.9964	12126	80.75	12126	75.5648	12126	74.7268	12126	70.0614	12126	56.1428	12126	64.0582	12126	74.4312	12126	72.2703	12126	77.0313	12126	69.8633	12126	81.758	12126	67.3933	12126	75.8399	12126	71.4595	12126	70.1794	12126	80.4158	12126	72.942	12126	74.8585	12126	75.5604	12126	71.4675	12126	71.7838	12126	82.3292	12126	73.0678	12126	73.5884	12126	69.4673	12126	68.224	12126	68.946	12126	73.6071
12553.7	97.5833	12553.7	96.1341	12553.7	95.5054	12553.7	94.8275	12553.7	94.8727	12553.7	92.5515	12553.7	92.7654	12553.7	81.0578	12553.7	82.0496	12553.7	76.8606	12553.7	75.4372	12553.7	69.4801	12553.7	63.3319	12553.7	67.5962	12553.7	74.5111	12553.7	71.9221	12553.7	77.346	12553.7	68.6497	12553.7	81.6475	12553.7	68.4013	12553.7	76.3539	12553.7	71.7217	12553.7	70.1187	12553.7	80.0239	12553.7	72.3129	12553.7	75.2131	12553.7	76.5407	12553.7	72.2587	12553.7	74.417	12553.7	81.7454	12553.7	72.5732	12553.7	72.9269	12553.7	69.9523	12553.7	71.5106	12553.7	70.4637	12553.7	77.0699
12996.1	96.6037	12996.1	95.4197	12996.1	94.2686	12996.1	94.2763	12996.1	94.0644	12996.1	91.7938	12996.1	92.0667	12996.1	80.2003	12996.1	80.3481	12996.1	76.4521	12996.1	76.1584	12996.1	70.16	12996.1	42.4201	12996.1	67.0363	12996.1	75.805	12996.1	72.2196	12996.1	78.2395	12996.1	68.0951	12996.1	81.7488	12996.1	69.4398	12996.1	76.1227	12996.1	70.4984	12996.1	70.3301	12996.1	79.0485	12996.1	71.9298	12996.1	75.181	12996.1	76.0885	12996.1	72.8015	12996.1	74.8549	12996.1	79.7639	12996.1	73.5441	12996.1	71.1642	12996.1	71.0167	12996.1	70.0846	12996.1	70.3446	12996.1	75.6483
13454.6	96.5192	13454.6	95.2131	13454.6	93.866	13454.6	94.0298	13454.6	94.0073	13454.6	91.9287	13454.6	92.085	13454.6	80.2116	13454.6	80.3842	13454.6	76.7442	13454.6	74.3474	13454.6	70.4386	13454.6	58.1268	13454.6	67.8646	13454.6	73.9852	13454.6	72.7489	13454.6	77.1982	13454.6	68.3369	13454.6	81.7537	13454.6	69.8692	13454.6	76.072	13454.6	70.8504	13454.6	70.4382	13454.6	79.693	13454.6	72.5668	13454.6	75.3854	13454.6	77.2162	13454.6	72.1751	13454.6	75.6794	13454.6	80.8293	13454.6	73.5733	13454.6	71.204	13454.6	72.4691	13454.6	71.1606	13454.6	71.389	13454.6	78.5109
13928.5	95.4473	13928.5	94.4166	13928.5	92.5014	13928.5	93.5747	13928.5	93.592	13928.5	91.6865	13928.5	91.6077	13928.5	79.9437	13928.5	79.0797	13928.5	77.1161	13928.5	74.6575	13928.5	71.1483	13928.5	60.7812	13928.5	67.7576	13928.5	75.0022	13928.5	73.6136	13928.5	77.8221	13928.5	69.8077	13928.5	82.279	13928.5	71.2201	13928.5	77.0889	13928.5	72.1297	13928.5	71.4421	13928.5	80.5595	13928.5	74.0564	13928.5	76.7856	13928.5	78.8393	13928.5	74.5798	13928.5	77.3989	13928.5	81.7684	13928.5	74.08	13928.5	72.0082	13928.5	72.5964	13928.5	70.6015	13928.5	71.3015	13928.5	79.5087
14419.9	94.9677	14419.9	92.6682	14419.9	93.648	14419.9	92.1553	14419.9	95.375	14419.9	90.7525	14419.9	93.538	14419.9	78.6241	14419.9	81.6094	14419.9	76.5264	14419.9	77.2368	14419.9	71.9045	14419.9	63.923	14419.9	67.1026	14419.9	76.943	14419.9	73.3226	14419.9	78.5672	14419.9	71.5126	14419.9	83.4429	14419.9	70.8784	14419.9	79.6375	14419.9	72.3388	14419.9	73.769	14419.9	80.9721	14419.9	75.1333	14419.9	77.1548	14419.9	79.4749	14419.9	74.1123	14419.9	78.8928	14419.9	82.1141	14419.9	76.1225	14419.9	72.818	14419.9	74.5151	14419.9	71.5475	14419.9	70.6392	14419.9	80.0227
14928.2	97.1602	14928.2	95.3152	14928.2	94.856	14928.2	95.6657	14928.2	96.7778	14928.2	93.8929	14928.2	94.9525	14928.2	79.579	14928.2	82.2565	14928.2	78.8181	14928.2	77.4517	14928.2	75.1573	14928.2	66.5559	14928.2	67.173	14928.2	77.7454	14928.2	76.3833	14928.2	80.7722	14928.2	74.5951	14928.2	85.6543	14928.2	72.1501	14928.2	79.7156	14928.2	74.8879	14928.2	74.5667	14928.2	84.4671	14928.2	77.5102	14928.2	78.9385	14928.2	80.6725	14928.2	74.5469	14928.2	78.817	14928.2	85.4897	14928.2	78.1531	14928.2	75.4143	14928.2	76.7105	14928.2	73.781	14928.2	72.7442	14928.2	82.8424
15454.8	95.6632	15454.8	94.4443	15454.8	93.9083	15454.8	97.1879	15454.8	97.4728	15454.8	95.5234	15454.8	95.6189	15454.8	80.4003	15454.8	82.6312	15454.8	80.1886	15454.8	78.5449	15454.8	76.4074	15454.8	66.016	15454.8	68.5855	15454.8	79.1864	15454.8	78.3829	15454.8	81.5825	15454.8	76.0014	15454.8	86.6207	15454.8	75.2171	15454.8	81.4392	15454.8	76.517	15454.8	74.6492	15454.8	85.7452	15454.8	79.4054	15454.8	81.0488	15454.8	82.6768	15454.8	77.8932	15454.8	79.9045	15454.8	86.937	15454.8	79.0714	15454.8	76.9841	15454.8	77.2264	15454.8	73.7655	15454.8	74.5642	15454.8	83.4989
15999.8	95.6	15999.8	95.6155	15999.8	94.4352	15999.8	97.5747	15999.8	97.4155	15999.8	95.6614	15999.8	94.8946	15999.8	80.2463	15999.8	81.7552	15999.8	79.4381	15999.8	76.3752	15999.8	75.6716	15999.8	69.0744	15999.8	70.2185	15999.8	77.5079	15999.8	77.8119	15999.8	79.971	15999.8	74.9015	15999.8	85.6575	15999.8	75.0432	15999.8	80.6024	15999.8	76.1516	15999.8	73.7889	15999.8	85.3856	15999.8	79.0714	15999.8	80.6645	15999.8	82.8097	15999.8	77.1939	15999.8	79.5876	15999.8	87.4669	15999.8	78.4317	15999.8	78.3479	15999.8	75.8293	15999.8	73.4443	15999.8	72.6223	15999.8	82.836
16564.5	91.6159	16564.5	92.9674	16564.5	92.6095	16564.5	97.1083	16564.5	97.0867	16564.5	95.6079	16564.5	94.7504	16564.5	81.5593	16564.5	82.6383	16564.5	79.3681	16564.5	75.5549	16564.5	73.9258	16564.5	70.2789	16564.5	69.7834	16564.5	77.2414	16564.5	76.914	16564.5	79.7866	16564.5	74.1086	16564.5	84.9823	16564.5	73.6583	16564.5	80.0391	16564.5	75.8811	16564.5	73.1907	16564.5	84.9333	16564.5	78.6148	16564.5	79.9307	16564.5	82.1653	16564.5	76.4313	16564.5	79.985	16564.5	87.0261	16564.5	76.9459	16564.5	78.139	16564.5	75.4137	16564.5	74.2585	16564.5	71.0049	16564.5	83.549
17148.2	91.4167	17148.2	94.4152	17148.2	94.3951	17148.2	97.4151	17148.2	96.757	17148.2	94.9505	17148.2	93.3968	17148.2	80.3231	17148.2	80.8055	17148.2	78.183	17148.2	74.3509	17148.2	73.3338	17148.2	69.8553	17148.2	68.8608	17148.2	76.3638	17148.2	76.432	17148.2	78.79	17148.2	72.4596	17148.2	83.3642	17148.2	73.8546	17148.2	78.7474	17148.2	74.3585	17148.2	70.9389	17148.2	83.6227	17148.2	77.5223	17148.2	79.1167	17148.2	81.1531	17148.2	77.1088	17148.2	78.4083	17148.2	85.7664	17148.2	75.6136	17148.2	76.7504	17148.2	72.7383	17148.2	71.487	17148.2	68.6145	17148.2	81.8246
17753.2	97.1924	17753.2	97.9067	17753.2	97.2544	17753.2	97.8749	17753.2	97.0746	17753.2	94.2407	17753.2	93.0996	17753.2	79.4815	17753.2	81.6983	17753.2	76.7266	17753.2	72.9183	17753.2	70.2106	17753.2	69.447	17753.2	67.9151	17753.2	76.0251	17753.2	74.8566	17753.2	77.2726	17753.2	69.4995	17753.2	80.9923	17753.2	72.1953	17753.2	76.9877	17753.2	73.1942	17753.2	68.1745	17753.2	81.2813	17753.2	75.6026	17753.2	76.9745	17753.2	78.9544	17753.2	76.242	17753.2	75.5141	17753.2	84.7051	17753.2	71.7892	17753.2	76.2247	17753.2	65.5786	17753.2	64.8895	17753.2	67.1329	17753.2	75.7805
18379.4	99.4282	18379.4	99.5243	18379.4	98.4456	18379.4	98.4007	18379.4	98.0336	18379.4	95.0036	18379.4	94.2897	18379.4	82.028	18379.4	82.5794	18379.4	78.1867	18379.4	74.2348	18379.4	68.6862	18379.4	67.9438	18379.4	71.2331	18379.4	75.8933	18379.4	74.6459	18379.4	78.6766	18379.4	67.2119	18379.4	82.1999	18379.4	73.2166	18379.4	78.2315	18379.4	72.9039	18379.4	71.6131	18379.4	81.6716	18379.4	75.7453	18379.4	78.2076	18379.4	79.9773	18379.4	77.5354	18379.4	78.5633	18379.4	84.1475	18379.4	69.9281	18379.4	75.5616	18379.4	69.7367	18379.4	72.1016	18379.4	71.9406	18379.4	78.8561
19027.6	96.5717	19027.6	96.5093	19027.6	95.8544	19027.6	95.6599	19027.6	96.1298	19027.6	92.884	19027.6	92.2488	19027.6	79.5885	19027.6	79.544	19027.6	76.716	19027.6	72.7804	19027.6	70.3867	19027.6	68.3274	19027.6	68.8781	19027.6	75.7464	19027.6	74.4975	19027.6	78.5047	19027.6	70.0736	19027.6	82.3783	19027.6	73.0481	19027.6	77.981	19027.6	73.1891	19027.6	71.3829	19027.6	81.76	19027.6	76.1734	19027.6	77.9917	19027.6	80.1847	19027.6	76.2092	19027.6	78.4722	19027.6	84.0339	19027.6	73.2067	19027.6	75.702	19027.6	71.9832	19027.6	72.1455	19027.6	70.0775	19027.6	80.5584
19698.5	90.9202	19698.5	90.928	19698.5	90.9872	19698.5	90.9585	19698.5	91.2732	19698.5	88.64	19698.5	87.3514	19698.5	75.7353	19698.5	75.8997	19698.5	72.5556	19698.5	68.3729	19698.5	65.2263	19698.5	64.0179	19698.5	65.7279	19698.5	70.9465	19698.5	69.9441	19698.5	73.0883	19698.5	64.3434	19698.5	77.4201	19698.5	68.8767	19698.5	74.1176	19698.5	69.394	19698.5	67.3285	19698.5	76.6764	19698.5	71.9015	19698.5	73.638	19698.5	76.2112	19698.5	73.0178	19698.5	74.4583	19698.5	79.4733	19698.5	67.5766	19698.5	70.634	19698.5	66.7116	19698.5	66.7484	19698.5	68.4025	19698.5	75.4233
19999.5	87.2522	19999.5	87.5427	19999.5	87.8548	19999.5	87.9432	19999.5	87.8722	19999.5	85.1546	19999.5	83.6492	19999.5	71.3844	19999.5	72.1574	19999.5	69.1476	19999.5	63.3534	19999.5	62.8129	19999.5	57.7198	19999.5	61.6964	19999.5	68.2916	19999.5	66.5627	19999.5	70.4293	19999.5	61.8091	19999.5	73.8294	19999.5	65.8911	19999.5	70.9697	19999.5	66.5974	19999.5	62.8308	19999.5	72.4057	19999.5	68.2475	19999.5	70.2408	19999.5	72.7588	19999.5	70.8896	19999.5	70.8895	19999.5	74.5023	19999.5	64.2689	19999.5	64.2394	19999.5	62.7578	19999.5	62.9191	19999.5	64.443	19999.5	72.8423
