"SPL Horizontal"
"On-Axis"		"10°"		"-10°"		"20°"		"-20°"		"30°"		"-30°"		"40°"		"-40°"		"50°"		"-50°"		"60°"		"-60°"		"70°"		"-70°"		"80°"		"-80°"		"90°"		"-90°"		"100°"		"-100°"		"110°"		"-110°"		"120°"		"-120°"		"130°"		"-130°"		"140°"		"-140°"		"150°"		"-150°"		"160°"		"-160°"		"170°"		"-170°"		"180°"
"Frequency / Hz"	"Sound Pressure Level / dB (re 20 µPa/V)  [2.83V at 1m]"	"Frequency / Hz"	"Sound Pressure Level / dB (re 20 µPa/V)  [2.83V at 1m]"	"Frequency / Hz"	"Sound Pressure Level / dB (re 20 µPa/V)  [2.83V at 1m]"	"Frequency / Hz"	"Sound Pressure Level / dB (re 20 µPa/V)  [2.83V at 1m]"	"Frequency / Hz"	"Sound Pressure Level / dB (re 20 µPa/V)  [2.83V at 1m]"	"Frequency / Hz"	"Sound Pressure Level / dB (re 20 µPa/V)  [2.83V at 1m]"	"Frequency / Hz"	"Sound Pressure Level / dB (re 20 µPa/V)  [2.83V at 1m]"	"Frequency / Hz"	"Sound Pressure Level / dB (re 20 µPa/V)  [2.83V at 1m]"	"Frequency / Hz"	"Sound Pressure Level / dB (re 20 µPa/V)  [2.83V at 1m]"	"Frequency / Hz"	"Sound Pressure Level / dB (re 20 µPa/V)  [2.83V at 1m]"	"Frequency / Hz"	"Sound Pressure Level / dB (re 20 µPa/V)  [2.83V at 1m]"	"Frequency / Hz"	"Sound Pressure Level / dB (re 20 µPa/V)  [2.83V at 1m]"	"Frequency / Hz"	"Sound Pressure Level / dB (re 20 µPa/V)  [2.83V at 1m]"	"Frequency / Hz"	"Sound Pressure Level / dB (re 20 µPa/V)  [2.83V at 1m]"	"Frequency / Hz"	"Sound Pressure Level / dB (re 20 µPa/V)  [2.83V at 1m]"	"Frequency / Hz"	"Sound Pressure Level / dB (re 20 µPa/V)  [2.83V at 1m]"	"Frequency / Hz"	"Sound Pressure Level / dB (re 20 µPa/V)  [2.83V at 1m]"	"Frequency / Hz"	"Sound Pressure Level / dB (re 20 µPa/V)  [2.83V at 1m]"	"Frequency / Hz"	"Sound Pressure Level / dB (re 20 µPa/V)  [2.83V at 1m]"	"Frequency / Hz"	"Sound Pressure Level / dB (re 20 µPa/V)  [2.83V at 1m]"	"Frequency / Hz"	"Sound Pressure Level / dB (re 20 µPa/V)  [2.83V at 1m]"	"Frequency / Hz"	"Sound Pressure Level / dB (re 20 µPa/V)  [2.83V at 1m]"	"Frequency / Hz"	"Sound Pressure Level / dB (re 20 µPa/V)  [2.83V at 1m]"	"Frequency / Hz"	"Sound Pressure Level / dB (re 20 µPa/V)  [2.83V at 1m]"	"Frequency / Hz"	"Sound Pressure Level / dB (re 20 µPa/V)  [2.83V at 1m]"	"Frequency / Hz"	"Sound Pressure Level / dB (re 20 µPa/V)  [2.83V at 1m]"	"Frequency / Hz"	"Sound Pressure Level / dB (re 20 µPa/V)  [2.83V at 1m]"	"Frequency / Hz"	"Sound Pressure Level / dB (re 20 µPa/V)  [2.83V at 1m]"	"Frequency / Hz"	"Sound Pressure Level / dB (re 20 µPa/V)  [2.83V at 1m]"	"Frequency / Hz"	"Sound Pressure Level / dB (re 20 µPa/V)  [2.83V at 1m]"	"Frequency / Hz"	"Sound Pressure Level / dB (re 20 µPa/V)  [2.83V at 1m]"	"Frequency / Hz"	"Sound Pressure Level / dB (re 20 µPa/V)  [2.83V at 1m]"	"Frequency / Hz"	"Sound Pressure Level / dB (re 20 µPa/V)  [2.83V at 1m]"	"Frequency / Hz"	"Sound Pressure Level / dB (re 20 µPa/V)  [2.83V at 1m]"	"Frequency / Hz"	"Sound Pressure Level / dB (re 20 µPa/V)  [2.83V at 1m]"	"Frequency / Hz"	"Sound Pressure Level / dB (re 20 µPa/V)  [2.83V at 1m]"
20.5078	57.7401	20.5078	57.7119	20.5078	57.771	20.5078	57.6848	20.5078	57.8068	20.5078	57.6579	20.5078	57.8504	20.5078	57.6309	20.5078	57.9053	20.5078	57.6048	20.5078	57.9764	20.5078	57.5821	20.5078	58.0689	20.5078	57.5679	20.5078	58.1884	20.5078	57.5705	20.5078	58.3394	20.5078	57.6019	20.5078	58.5238	20.5078	57.6778	20.5078	58.7418	20.5078	57.8171	20.5078	58.9946	20.5078	58.0367	20.5078	59.2891	20.5078	58.3389	20.5078	59.6311	20.5078	58.6957	20.5078	59.9922	20.5078	59.0556	20.5078	60.2783	20.5078	59.3879	20.5078	60.3772	20.5078	59.7055	20.5078	60.2651	20.5078	60.0135
21.2402	59.1911	21.2402	59.1514	21.2402	59.2058	21.2402	59.0868	21.2402	59.1947	21.2402	58.9964	21.2402	59.1562	21.2402	58.8781	21.2402	59.0883	21.2402	58.7294	21.2402	58.9889	21.2402	58.5477	21.2402	58.8565	21.2402	58.3312	21.2402	58.6909	21.2402	58.0809	21.2402	58.4939	21.2402	57.8029	21.2402	58.2705	21.2402	57.5105	21.2402	58.0298	21.2402	57.2236	21.2402	57.7865	21.2402	56.9659	21.2402	57.5624	21.2402	56.758	21.2402	57.382	21.2402	56.6115	21.2402	57.2514	21.2402	56.526	21.2402	57.1307	21.2402	56.4965	21.2402	56.9639	21.2402	56.5256	21.2402	56.7685	21.2402	56.6151
21.9727	60.9336	21.9727	60.9029	21.9727	60.9436	21.9727	60.8514	21.9727	60.9332	21.9727	60.7787	21.9727	60.9031	21.9727	60.685	21.9727	60.8541	21.9727	60.5709	21.9727	60.7877	21.9727	60.4376	21.9727	60.7059	21.9727	60.2877	21.9727	60.6115	21.9727	60.1258	21.9727	60.5082	21.9727	59.9594	21.9727	60.4002	21.9727	59.7997	21.9727	60.2926	21.9727	59.6615	21.9727	60.1919	21.9727	59.5603	21.9727	60.1062	21.9727	59.5058	21.9727	60.0412	21.9727	59.4951	21.9727	59.991	21.9727	59.5132	21.9727	59.9327	21.9727	59.5428	21.9727	59.8439	21.9727	59.578	21.9727	59.7323	21.9727	59.6358
22.7051	61.3719	22.7051	61.336	22.7051	61.3861	22.7051	61.278	22.7051	61.3789	22.7051	61.1974	22.7051	61.3501	22.7051	61.0936	22.7051	61.3001	22.7051	60.9662	22.7051	61.2294	22.7051	60.8158	22.7051	61.1392	22.7051	60.6445	22.7051	61.0322	22.7051	60.4563	22.7051	60.9121	22.7051	60.2581	22.7051	60.7836	22.7051	60.0588	22.7051	60.652	22.7051	59.867	22.7051	60.5225	22.7051	59.6883	22.7051	60.4007	22.7051	59.5243	22.7051	60.2908	22.7051	59.3777	22.7051	60.1861	22.7051	59.264	22.7051	60.0588	22.7051	59.216	22.7051	59.8773	22.7051	59.2676	22.7051	59.648	22.7051	59.4239
23.4375	62.5388	23.4375	62.5137	23.4375	62.5468	23.4375	62.4708	23.4375	62.5382	23.4375	62.4095	23.4375	62.5136	23.4375	62.3289	23.4375	62.474	23.4375	62.2286	23.4375	62.4208	23.4375	62.1086	23.4375	62.3572	23.4375	61.9708	23.4375	62.2875	23.4375	61.8192	23.4375	62.2183	23.4375	61.6616	23.4375	62.1572	23.4375	61.5093	23.4375	62.1121	23.4375	61.3768	23.4375	62.0889	23.4375	61.2782	23.4375	62.0893	23.4375	61.2235	23.4375	62.1078	23.4375	61.2149	23.4375	62.1243	23.4375	61.2482	23.4375	62.0991	23.4375	61.3205	23.4375	61.9931	23.4375	61.4382	23.4375	61.811	23.4375	61.6078
24.1699	63.8812	24.1699	63.8446	24.1699	63.8857	24.1699	63.7753	24.1699	63.858	24.1699	63.6722	24.1699	63.7978	24.1699	63.5344	24.1699	63.7046	24.1699	63.3603	24.1699	63.5777	24.1699	63.1489	24.1699	63.4168	24.1699	62.8999	24.1699	63.2223	24.1699	62.614	24.1699	62.9955	24.1699	62.2936	24.1699	62.7393	24.1699	61.9428	24.1699	62.4577	24.1699	61.568	24.1699	62.1564	24.1699	61.1782	24.1699	61.8429	24.1699	60.7875	24.1699	61.5251	24.1699	60.4189	24.1699	61.2058	24.1699	60.1088	24.1699	60.8777	24.1699	59.9041	24.1699	60.5364	24.1699	59.8475	24.1699	60.2091	24.1699	59.958
25.6348	65.733	25.6348	65.7518	25.6348	65.6912	25.6348	65.7475	25.6348	65.6255	25.6348	65.7196	25.6348	65.5342	25.6348	65.6669	25.6348	65.415	25.6348	65.5878	25.6348	65.265	25.6348	65.4811	25.6348	65.0808	25.6348	65.346	25.6348	64.8592	25.6348	65.183	25.6348	64.5975	25.6348	64.9946	25.6348	64.2943	25.6348	64.7852	25.6348	63.9502	25.6348	64.5601	25.6348	63.5705	25.6348	64.3239	25.6348	63.1678	25.6348	64.0767	25.6348	62.7672	25.6348	63.8098	25.6348	62.4097	25.6348	63.5053	25.6348	62.1475	25.6348	63.1474	25.6348	62.0344	25.6348	62.7495	25.6348	62.1111	25.6348	62.3728
26.3672	66.7381	26.3672	66.7348	26.3672	66.7241	26.3672	66.7144	26.3672	66.6924	26.3672	66.6772	26.3672	66.6427	26.3672	66.6233	26.3672	66.5747	26.3672	66.5535	26.3672	66.4883	26.3672	66.4691	26.3672	66.3838	26.3672	66.3723	26.3672	66.2624	26.3672	66.2664	26.3672	66.1262	26.3672	66.1562	26.3672	65.9784	26.3672	66.0475	26.3672	65.8232	26.3672	65.9467	26.3672	65.6665	26.3672	65.8605	26.3672	65.5169	26.3672	65.793	26.3672	65.3873	26.3672	65.7431	26.3672	65.2943	26.3672	65.6996	26.3672	65.2528	26.3672	65.6431	26.3672	65.2698	26.3672	65.5575	26.3672	65.341	26.3672	65.4474
27.0996	67.4694	27.0996	67.4692	27.0996	67.4541	27.0996	67.4534	27.0996	67.4238	27.0996	67.422	27.0996	67.3794	27.0996	67.3756	27.0996	67.3222	27.0996	67.3153	27.0996	67.2541	27.0996	67.2432	27.0996	67.1781	27.0996	67.1627	27.0996	67.0984	27.0996	67.0788	27.0996	67.0204	27.0996	66.998	27.0996	66.95	27.0996	66.9288	27.0996	66.8936	27.0996	66.8803	27.0996	66.857	27.0996	66.8611	27.0996	66.8455	27.0996	66.8763	27.0996	66.863	27.0996	66.9239	27.0996	66.9099	27.0996	66.9921	27.0996	66.9772	27.0996	67.0602	27.0996	67.0465	27.0996	67.1069	27.0996	67.0983	27.0996	67.1201
27.832	68.308	27.832	68.2968	27.832	68.297	27.832	68.2633	27.832	68.2636	27.832	68.2073	27.832	68.2077	27.832	68.1288	27.832	68.1292	27.832	68.0281	27.832	68.0282	27.832	67.9065	27.832	67.9054	27.832	67.7663	27.832	67.763	27.832	67.6122	27.832	67.6044	27.832	67.4506	27.832	67.4356	27.832	67.2908	27.832	67.2645	27.832	67.1435	27.832	67.1007	27.832	67.0203	27.832	66.9539	27.832	66.931	27.832	66.833	27.832	66.8804	27.832	66.7452	27.832	66.861	27.832	66.6957	27.832	66.8493	27.832	66.6861	27.832	66.819	27.832	66.7136	27.832	66.7662
29.2969	70.1781	29.2969	70.1718	29.2969	70.1624	29.2969	70.1432	29.2969	70.1251	29.2969	70.0919	29.2969	70.067	29.2969	70.0179	29.2969	69.989	29.2969	69.9217	29.2969	69.8923	29.2969	69.8046	29.2969	69.7791	29.2969	69.6692	29.2969	69.6526	29.2969	69.5194	29.2969	69.5171	29.2969	69.3609	29.2969	69.378	29.2969	69.2003	29.2969	69.2412	29.2969	69.0452	29.2969	69.1122	29.2969	68.903	29.2969	68.9954	29.2969	68.781	29.2969	68.8933	29.2969	68.6856	29.2969	68.8058	29.2969	68.6203	29.2969	68.7307	29.2969	68.5837	29.2969	68.6665	29.2969	68.5721	29.2969	68.6153	29.2969	68.5827
30.0293	70.9183	30.0293	70.9174	30.0293	70.8977	30.0293	70.8951	30.0293	70.8559	30.0293	70.8519	30.0293	70.7934	30.0293	70.7888	30.0293	70.7111	30.0293	70.7075	30.0293	70.6111	30.0293	70.611	30.0293	70.4962	30.0293	70.5039	30.0293	70.3707	30.0293	70.3923	30.0293	70.2403	30.0293	70.2846	30.0293	70.1119	30.0293	70.1897	30.0293	69.993	30.0293	70.1159	30.0293	69.8907	30.0293	70.0688	30.0293	69.8112	30.0293	70.0487	30.0293	69.7598	30.0293	70.0485	30.0293	69.7399	30.0293	70.0527	30.0293	69.7528	30.0293	70.042	30.0293	69.7961	30.0293	70.0032	30.0293	69.8626	30.0293	69.9381
31.4941	73.3422	31.4941	73.3359	31.4941	73.3202	31.4941	73.3009	31.4941	73.2698	31.4941	73.2373	31.4941	73.1915	31.4941	73.1451	31.4941	73.0858	31.4941	73.0247	31.4941	72.9538	31.4941	72.8774	31.4941	72.7975	31.4941	72.7055	31.4941	72.62	31.4941	72.5126	31.4941	72.4261	31.4941	72.3038	31.4941	72.2215	31.4941	72.0853	31.4941	72.0125	31.4941	71.8638	31.4941	71.8056	31.4941	71.647	31.4941	71.6074	31.4941	71.443	31.4941	71.4243	31.4941	71.26	31.4941	71.2626	31.4941	71.1067	31.4941	71.127	31.4941	70.9927	31.4941	71.021	31.4941	70.9268	31.4941	70.9474	31.4941	70.9129
32.2266	74.335	32.2266	74.3298	32.2266	74.3127	32.2266	74.2967	32.2266	74.2634	32.2266	74.2356	32.2266	74.1876	32.2266	74.1465	32.2266	74.0866	32.2266	74.03	32.2266	73.9622	32.2266	73.8873	32.2266	73.8174	32.2266	73.7211	32.2266	73.6566	32.2266	73.5353	32.2266	73.486	32.2266	73.3355	32.2266	73.3128	32.2266	73.129	32.2266	73.1444	32.2266	72.924	32.2266	72.9869	32.2266	72.7296	32.2266	72.8434	32.2266	72.5551	32.2266	72.7135	32.2266	72.4091	32.2266	72.5938	32.2266	72.2985	32.2266	72.4808	32.2266	72.2282	32.2266	72.3746	32.2266	72.2019	32.2266	72.2831	32.2266	72.2214
33.6914	75.7509	33.6914	75.7457	33.6914	75.727	33.6914	75.7114	33.6914	75.674	33.6914	75.648	33.6914	75.592	33.6914	75.5554	33.6914	75.4811	33.6914	75.4342	33.6914	75.342	33.6914	75.2855	33.6914	75.1764	33.6914	75.1116	33.6914	74.987	33.6914	74.9162	33.6914	74.7786	33.6914	74.705	33.6914	74.5578	33.6914	74.4855	33.6914	74.3327	33.6914	74.2662	33.6914	74.1131	33.6914	74.0563	33.6914	73.9088	33.6914	73.8646	33.6914	73.7288	33.6914	73.6984	33.6914	73.5806	33.6914	73.5629	33.6914	73.4687	33.6914	73.4604	33.6914	73.3945	33.6914	73.3917	33.6914	73.3578	33.6914	73.3573
34.4238	76.604	34.4238	76.5982	34.4238	76.5801	34.4238	76.5631	34.4238	76.5266	34.4238	76.4986	34.4238	76.4434	34.4238	76.4052	34.4238	76.3306	34.4238	76.2834	34.4238	76.189	34.4238	76.1347	34.4238	76.0202	34.4238	75.9614	34.4238	75.827	34.4238	75.7674	34.4238	75.614	34.4238	75.5579	34.4238	75.3877	34.4238	75.3397	34.4238	75.1564	34.4238	75.1205	34.4238	74.9292	34.4238	74.9085	34.4238	74.7161	34.4238	74.7115	34.4238	74.5261	34.4238	74.536	34.4238	74.3672	34.4238	74.3865	34.4238	74.2449	34.4238	74.2662	34.4238	74.1629	34.4238	74.1792	34.4238	74.1243	34.4238	74.1304
35.8887	78.5535	35.8887	78.5523	35.8887	78.5255	35.8887	78.5219	35.8887	78.4682	35.8887	78.4627	35.8887	78.3815	35.8887	78.3749	35.8887	78.2658	35.8887	78.2593	35.8887	78.1217	35.8887	78.1173	35.8887	77.951	35.8887	77.9515	35.8887	77.7563	35.8887	77.7654	35.8887	77.542	35.8887	77.564	35.8887	77.3143	35.8887	77.3533	35.8887	77.0806	35.8887	77.1402	35.8887	76.8496	35.8887	76.9316	35.8887	76.6306	35.8887	76.7339	35.8887	76.4334	35.8887	76.5522	35.8887	76.268	35.8887	76.3903	35.8887	76.1433	35.8887	76.2519	35.8887	76.0665	35.8887	76.1423	35.8887	76.0421	35.8887	76.0694
37.3535	79.8519	37.3535	79.8375	37.3535	79.8391	37.3535	79.7966	37.3535	79.7992	37.3535	79.7296	37.3535	79.7321	37.3535	79.6377	37.3535	79.6383	37.3535	79.5224	37.3535	79.5189	37.3535	79.386	37.3535	79.376	37.3535	79.232	37.3535	79.2131	37.3535	79.0646	37.3535	79.0351	37.3535	78.8894	37.3535	78.8486	37.3535	78.7123	37.3535	78.6614	37.3535	78.5396	37.3535	78.4818	37.3535	78.3773	37.3535	78.3178	37.3535	78.2313	37.3535	78.1756	37.3535	78.106	37.3535	78.0584	37.3535	78.0047	37.3535	77.967	37.3535	77.9296	37.3535	77.9019	37.3535	77.8811	37.3535	77.8655	37.3535	77.8592
38.8184	81.566	38.8184	81.5462	38.8184	81.555	38.8184	81.4954	38.8184	81.5133	38.8184	81.4142	38.8184	81.442	38.8184	81.3035	38.8184	81.3422	38.8184	81.1656	38.8184	81.2163	38.8184	81.0035	38.8184	81.0677	38.8184	80.8224	38.8184	80.901	38.8184	80.6289	38.8184	80.7225	38.8184	80.4315	38.8184	80.5398	38.8184	80.2397	38.8184	80.361	38.8184	80.0631	38.8184	80.1942	38.8184	79.9101	38.8184	80.0458	38.8184	79.7866	38.8184	79.9203	38.8184	79.6955	38.8184	79.8198	38.8184	79.6365	38.8184	79.7437	38.8184	79.6077	38.8184	79.6891	38.8184	79.6051	38.8184	79.65	38.8184	79.6215
39.5508	82.5118	39.5508	82.497	39.5508	82.4949	39.5508	82.4504	39.5508	82.4465	39.5508	82.3723	39.5508	82.3676	39.5508	82.2638	39.5508	82.2593	39.5508	82.1267	39.5508	82.124	39.5508	81.9639	39.5508	81.9651	39.5508	81.78	39.5508	81.7873	39.5508	81.5816	39.5508	81.5971	39.5508	81.3769	39.5508	81.4023	39.5508	81.1755	39.5508	81.2114	39.5508	80.987	39.5508	81.0327	39.5508	80.8202	39.5508	80.873	39.5508	80.6816	39.5508	80.7371	39.5508	80.5743	39.5508	80.6278	39.5508	80.4986	39.5508	80.5456	39.5508	80.4522	39.5508	80.489	39.5508	80.4324	39.5508	80.4533	39.5508	80.4343
41.0156	84.1888	41.0156	84.1772	41.0156	84.1663	41.0156	84.1317	41.0156	84.1101	41.0156	84.0528	41.0156	84.0208	41.0156	83.9415	41.0156	83.8997	41.0156	83.7998	41.0156	83.749	41.0156	83.6306	41.0156	83.572	41.0156	83.4384	41.0156	83.3737	41.0156	83.2296	41.0156	83.161	41.0156	83.012	41.0156	82.942	41.0156	82.7948	41.0156	82.7262	41.0156	82.5873	41.0156	82.5226	41.0156	82.3981	41.0156	82.3396	41.0156	82.2337	41.0156	82.183	41.0156	82.0976	41.0156	82.0563	41.0156	81.9911	41.0156	81.9604	41.0156	81.914	41.0156	81.8947	41.0156	81.8664	41.0156	81.8575	41.0156	81.8479
42.4805	85.8533	42.4805	85.8476	42.4805	85.8227	42.4805	85.8059	42.4805	85.756	42.4805	85.7289	42.4805	85.6535	42.4805	85.6179	42.4805	85.5167	42.4805	85.475	42.4805	85.3478	42.4805	85.3035	42.4805	85.1506	42.4805	85.1082	42.4805	84.9308	42.4805	84.8956	42.4805	84.6961	42.4805	84.674	42.4805	84.4564	42.4805	84.4526	42.4805	84.2229	42.4805	84.241	42.4805	84.0069	42.4805	84.0476	42.4805	83.8182	42.4805	83.8787	42.4805	83.664	42.4805	83.7372	42.4805	83.5479	42.4805	83.6231	42.4805	83.4701	42.4805	83.535	42.4805	83.4278	42.4805	83.4715	42.4805	83.4166	42.4805	83.4319
43.9453	87.5745	43.9453	87.5571	43.9453	87.551	43.9453	87.4991	43.9453	87.4865	43.9453	87.4011	43.9453	87.3811	43.9453	87.2642	43.9453	87.2356	43.9453	87.0903	43.9453	87.0514	43.9453	86.8826	43.9453	86.8312	43.9453	86.6457	43.9453	86.5797	43.9453	86.3867	43.9453	86.3037	43.9453	86.1142	43.9453	86.0126	43.9453	85.8388	43.9453	85.7179	43.9453	85.5717	43.9453	85.4327	43.9453	85.3233	43.9453	85.1702	43.9453	85.1017	43.9453	84.9421	43.9453	84.9116	43.9453	84.7569	43.9453	84.7542	43.9453	84.6194	43.9453	84.6303	43.9453	84.5305	43.9453	84.542	43.9453	84.4889	43.9453	84.4935
45.4102	88.873	45.4102	88.8586	45.4102	88.8503	45.4102	88.8072	45.4102	88.7904	45.4102	88.7189	45.4102	88.6936	45.4102	88.5944	45.4102	88.5605	45.4102	88.4345	45.4102	88.3923	45.4102	88.2413	45.4102	88.1908	45.4102	88.0178	45.4102	87.9596	45.4102	87.7687	45.4102	87.7036	45.4102	87.5003	45.4102	87.4294	45.4102	87.2205	45.4102	87.1454	45.4102	86.9382	45.4102	86.8607	45.4102	86.663	45.4102	86.5851	45.4102	86.4042	45.4102	86.3278	45.4102	86.1703	45.4102	86.0979	45.4102	85.9697	45.4102	85.9047	45.4102	85.8108	45.4102	85.7591	45.4102	85.7024	45.4102	85.6728	45.4102	85.6539
47.6074	90.1035	47.6074	90.095	47.6074	90.0819	47.6074	90.0569	47.6074	90.0304	47.6074	89.9902	47.6074	89.9494	47.6074	89.8964	47.6074	89.8404	47.6074	89.7776	47.6074	89.7053	47.6074	89.6369	47.6074	89.5475	47.6074	89.4782	47.6074	89.3714	47.6074	89.3063	47.6074	89.1825	47.6074	89.1266	47.6074	88.9878	47.6074	88.9447	47.6074	88.7945	47.6074	88.7663	47.6074	88.6101	47.6074	88.5962	47.6074	88.4411	47.6074	88.4386	47.6074	88.2924	47.6074	88.2967	47.6074	88.1676	47.6074	88.1739	47.6074	88.0696	47.6074	88.0747	47.6074	88.0013	47.6074	88.0043	47.6074	87.9665	47.6074	87.9674
49.0723	91.1936	49.0723	91.184	49.0723	91.1724	49.0723	91.1442	49.0723	91.1203	49.0723	91.0757	49.0723	91.0379	49.0723	90.9805	49.0723	90.9264	49.0723	90.8612	49.0723	90.7884	49.0723	90.7216	49.0723	90.6273	49.0723	90.5661	49.0723	90.4479	49.0723	90.3997	49.0723	90.2567	49.0723	90.2281	49.0723	90.0606	49.0723	90.0566	49.0723	89.8677	49.0723	89.8899	49.0723	89.6856	49.0723	89.7317	49.0723	89.5208	49.0723	89.5843	49.0723	89.3783	49.0723	89.4496	49.0723	89.2612	49.0723	89.3297	49.0723	89.172	49.0723	89.2282	49.0723	89.1137	49.0723	89.1505	49.0723	89.0899	49.0723	89.1027
50.5371	92.091	50.5371	92.07	50.5371	92.0801	50.5371	92.0179	50.5371	92.0373	50.5371	91.9361	50.5371	91.9632	50.5371	91.827	50.5371	91.8589	50.5371	91.6936	50.5371	91.7268	50.5371	91.5402	50.5371	91.5698	50.5371	91.3719	50.5371	91.3922	50.5371	91.1946	50.5371	91.1992	50.5371	91.0142	50.5371	90.9969	50.5371	90.8361	50.5371	90.7918	50.5371	90.6648	50.5371	90.5907	50.5371	90.5027	50.5371	90.4002	50.5371	90.3509	50.5371	90.2264	50.5371	90.2096	50.5371	90.0754	50.5371	90.0804	50.5371	89.9533	50.5371	89.9679	50.5371	89.8673	50.5371	89.8806	50.5371	89.8245	50.5371	89.8297
52.7344	93.3371	52.7344	93.3178	52.7344	93.325	52.7344	93.2675	52.7344	93.282	52.7344	93.1878	52.7344	93.2094	52.7344	93.0814	52.7344	93.1099	52.7344	92.952	52.7344	92.9872	52.7344	92.8048	52.7344	92.8462	52.7344	92.6462	52.7344	92.6929	52.7344	92.4834	52.7344	92.5342	52.7344	92.3239	52.7344	92.377	52.7344	92.1745	52.7344	92.2278	52.7344	92.0404	52.7344	92.0913	52.7344	91.9243	52.7344	91.9703	52.7344	91.8268	52.7344	91.865	52.7344	91.7462	52.7344	91.7746	52.7344	91.6811	52.7344	91.6984	52.7344	91.6311	52.7344	91.6384	52.7344	91.598	52.7344	91.5994	52.7344	91.5859
54.1992	93.9078	54.1992	93.8881	54.1992	93.8935	54.1992	93.8351	54.1992	93.8458	54.1992	93.7504	54.1992	93.7663	54.1992	93.6369	54.1992	93.6578	54.1992	93.499	54.1992	93.5244	54.1992	93.3423	54.1992	93.3716	54.1992	93.1741	54.1992	93.2063	54.1992	93.0024	54.1992	93.0362	54.1992	92.8355	54.1992	92.8695	54.1992	92.6809	54.1992	92.7133	54.1992	92.5443	54.1992	92.5731	54.1992	92.4282	54.1992	92.4518	54.1992	92.3324	54.1992	92.3491	54.1992	92.2544	54.1992	92.2633	54.1992	92.1912	54.1992	92.1924	54.1992	92.1416	54.1992	92.1373	54.1992	92.1071	54.1992	92.1024	54.1992	92.0923
56.3965	94.5658	56.3965	94.5461	56.3965	94.5489	56.3965	94.4907	56.3965	94.4962	56.3965	94.4014	56.3965	94.4094	56.3965	94.2812	56.3965	94.2915	56.3965	94.1351	56.3965	94.1472	56.3965	93.9692	56.3965	93.9826	56.3965	93.7913	56.3965	93.8052	56.3965	93.6103	56.3965	93.624	56.3965	93.4352	56.3965	93.4476	56.3965	93.2742	56.3965	93.2842	56.3965	93.133	56.3965	93.1397	56.3965	93.0144	56.3965	93.0166	56.3965	92.9176	56.3965	92.9144	56.3965	92.8393	56.3965	92.8304	56.3965	92.7757	56.3965	92.762	56.3965	92.725	56.3965	92.7095	56.3965	92.6883	56.3965	92.6774	56.3965	92.6706
58.5938	95.013	58.5938	94.992	58.5938	94.9949	58.5938	94.9326	58.5938	94.9383	58.5938	94.8368	58.5938	94.845	58.5938	94.708	58.5938	94.7183	58.5938	94.5513	58.5938	94.5633	58.5938	94.3737	58.5938	94.3865	58.5938	94.1836	58.5938	94.1962	58.5938	93.9906	58.5938	94.0019	58.5938	93.8048	58.5938	93.8133	58.5938	93.635	58.5938	93.6392	58.5938	93.4875	58.5938	93.486	58.5938	93.3651	58.5938	93.3568	58.5938	93.2664	58.5938	93.2507	58.5938	93.1871	58.5938	93.1645	58.5938	93.1226	58.5938	93.0952	58.5938	93.07	58.5938	93.043	58.5938	93.0302	58.5938	93.0125	58.5938	93.0087
60.0586	95.2808	60.0586	95.2591	60.0586	95.2619	60.0586	95.1974	60.0586	95.2029	60.0586	95.098	60.0586	95.1061	60.0586	94.9645	60.0586	94.9749	60.0586	94.8024	60.0586	94.8147	60.0586	94.6191	60.0586	94.6328	60.0586	94.4238	60.0586	94.4379	60.0586	94.2267	60.0586	94.2402	60.0586	94.0387	60.0586	94.0501	60.0586	93.8691	60.0586	93.8768	60.0586	93.7244	60.0586	93.7268	60.0586	93.6073	60.0586	93.6026	60.0586	93.5156	60.0586	93.5028	60.0586	93.4441	60.0586	93.4231	60.0586	93.3868	60.0586	93.3597	60.0586	93.3399	60.0586	93.3122	60.0586	93.3033	60.0586	93.2848	60.0586	93.2824
62.2559	95.6425	62.2559	95.6166	62.2559	95.6237	62.2559	95.5468	62.2559	95.5609	62.2559	95.4353	62.2559	95.4563	62.2559	95.2859	62.2559	95.3135	62.2559	95.1044	62.2559	95.1382	62.2559	94.8986	62.2559	94.9379	62.2559	94.6783	62.2559	94.7221	62.2559	94.4552	62.2559	94.5019	62.2559	94.2412	62.2559	94.2889	62.2559	94.0474	62.2559	94.0936	62.2559	93.8817	62.2559	93.9237	62.2559	93.7479	62.2559	93.7825	62.2559	93.6442	62.2559	93.6689	62.2559	93.5654	62.2559	93.5782	62.2559	93.5048	62.2559	93.5056	62.2559	93.458	62.2559	93.45	62.2559	93.424	62.2559	93.4156	62.2559	93.4075
64.4531	95.9671	64.4531	95.9364	64.4531	95.9491	64.4531	95.8574	64.4531	95.8832	64.4531	95.7322	64.4531	95.7719	64.4531	95.5644	64.4531	95.6192	64.4531	95.3599	64.4531	95.4311	64.4531	95.1269	64.4531	95.2157	64.4531	94.8761	64.4531	94.9832	64.4531	94.6207	64.4531	94.7459	64.4531	94.375	64.4531	94.5163	64.4531	94.1529	64.4531	94.3064	64.4531	93.9655	64.4531	94.1249	64.4531	93.8186	64.4531	93.9754	64.4531	93.7118	64.4531	93.8561	64.4531	93.639	64.4531	93.7609	64.4531	93.5917	64.4531	93.6827	64.4531	93.5621	64.4531	93.6183	64.4531	93.5464	64.4531	93.5713	64.4531	93.5475
66.6504	96.2385	66.6504	96.2176	66.6504	96.2089	66.6504	96.1463	66.6504	96.1294	66.6504	96.0258	66.6504	96.0016	66.6504	95.8582	66.6504	95.8285	66.6504	95.647	66.6504	95.6142	66.6504	95.3972	66.6504	95.365	66.6504	95.116	66.6504	95.089	66.6504	94.8126	66.6504	94.7966	66.6504	94.4988	66.6504	94.4999	66.6504	94.188	66.6504	94.2118	66.6504	93.8942	66.6504	93.9438	66.6504	93.6301	66.6504	93.7045	66.6504	93.4049	66.6504	93.4976	66.6504	93.223	66.6504	93.3226	66.6504	93.0855	66.6504	93.1767	66.6504	92.992	66.6504	93.06	66.6504	92.942	66.6504	92.9773	66.6504	92.9367
69.5801	96.8252	69.5801	96.8078	69.5801	96.8034	69.5801	96.7518	69.5801	96.743	69.5801	96.6597	69.5801	96.6464	69.5801	96.5352	69.5801	96.5177	69.5801	96.3836	69.5801	96.3621	69.5801	96.2114	69.5801	96.1863	69.5801	96.0255	69.5801	95.9975	69.5801	95.8329	69.5801	95.803	69.5801	95.6395	69.5801	95.6089	69.5801	95.4495	69.5801	95.4193	69.5801	95.2655	69.5801	95.2364	69.5801	95.0881	69.5801	95.06	69.5801	94.9173	69.5801	94.8892	69.5801	94.7541	69.5801	94.7248	69.5801	94.6029	69.5801	94.5724	69.5801	94.4733	69.5801	94.445	69.5801	94.3798	69.5801	94.3615	69.5801	94.3387
71.7773	97.1705	71.7773	97.1528	71.7773	97.1446	71.7773	97.0927	71.7773	97.076	71.7773	96.9935	71.7773	96.9677	71.7773	96.8602	71.7773	96.8246	71.7773	96.6999	71.7773	96.654	71.7773	96.5213	71.7773	96.4648	71.7773	96.3339	71.7773	96.2673	71.7773	96.1468	71.7773	96.0717	71.7773	95.9678	71.7773	95.8868	71.7773	95.8018	71.7773	95.7186	71.7773	95.6503	71.7773	95.569	71.7773	95.5118	71.7773	95.436	71.7773	95.3829	71.7773	95.3152	71.7773	95.2609	71.7773	95.2024	71.7773	95.1469	71.7773	95.098	71.7773	95.0471	71.7773	95.0093	71.7773	94.9729	71.7773	94.951	71.7773	94.9377
73.9746	97.5251	73.9746	97.5032	73.9746	97.4999	73.9746	97.4356	73.9746	97.4284	73.9746	97.3262	73.9746	97.314	73.9746	97.1811	73.9746	97.1623	73.9746	97.0088	73.9746	96.9813	73.9746	96.8196	73.9746	96.7816	73.9746	96.6252	73.9746	96.5747	73.9746	96.4369	73.9746	96.3726	73.9746	96.2635	73.9746	96.1853	73.9746	96.1106	73.9746	96.0196	73.9746	95.9786	73.9746	95.8769	73.9746	95.8634	73.9746	95.7543	73.9746	95.7584	73.9746	95.6455	73.9746	95.6571	73.9746	95.5453	73.9746	95.5568	73.9746	95.4533	73.9746	95.4614	73.9746	95.3772	73.9746	95.3818	73.9746	95.3327	73.9746	95.3341
76.9043	98.0166	76.9043	97.9894	76.9043	97.9913	76.9043	97.9114	76.9043	97.9146	76.9043	97.7869	76.9043	97.7901	76.9043	97.623	76.9043	97.6243	76.9043	97.4299	76.9043	97.4267	76.9043	97.22	76.9043	97.2092	76.9043	97.0075	76.9043	96.986	76.9043	96.8067	76.9043	96.7714	76.9043	96.6292	76.9043	96.5779	76.9043	96.4821	76.9043	96.4135	76.9043	96.3658	76.9043	96.2801	76.9043	96.2746	76.9043	96.1733	76.9043	96.1986	76.9043	96.0849	76.9043	96.1272	76.9043	96.0068	76.9043	96.0537	76.9043	95.9363	76.9043	95.9783	76.9043	95.8795	76.9043	95.9089	76.9043	95.8504	76.9043	95.861
79.834	98.5003	79.834	98.4646	79.834	98.4776	79.834	98.3723	79.834	98.3979	79.834	98.2279	79.834	98.265	79.834	98.0394	79.834	98.0863	79.834	97.8178	79.834	97.8719	79.834	97.5777	79.834	97.635	79.834	97.3357	79.834	97.3913	79.834	97.1089	79.834	97.1565	79.834	96.9117	79.834	96.9447	79.834	96.7528	79.834	96.7648	79.834	96.633	79.834	96.6192	79.834	96.5451	79.834	96.5031	79.834	96.4767	79.834	96.4076	79.834	96.4144	79.834	96.3239	79.834	96.3491	79.834	96.2491	79.834	96.2797	79.834	96.1892	79.834	96.2139	79.834	96.1581	79.834	96.1676
82.7637	98.9024	82.7637	98.8621	82.7637	98.8771	82.7637	98.7573	82.7637	98.7879	82.7637	98.5926	82.7637	98.6396	82.7637	98.3756	82.7637	98.4403	82.7637	98.1182	82.7637	98.2017	82.7637	97.8362	82.7637	97.9392	82.7637	97.549	82.7637	97.6703	82.7637	97.2772	82.7637	97.4135	82.7637	97.0397	82.7637	97.1843	82.7637	96.8489	82.7637	96.9919	82.7637	96.7077	82.7637	96.8369	82.7637	96.6089	82.7637	96.7115	82.7637	96.5373	82.7637	96.6035	82.7637	96.4764	82.7637	96.5017	82.7637	96.4145	82.7637	96.4032	82.7637	96.3493	82.7637	96.3168	82.7637	96.2895	82.7637	96.2616	82.7637	96.2536
85.6934	99.2971	85.6934	99.2585	85.6934	99.2633	85.6934	99.1486	85.6934	99.1589	85.6934	98.9712	85.6934	98.9882	85.6934	98.7329	85.6934	98.7592	85.6934	98.4445	85.6934	98.4835	85.6934	98.1205	85.6934	98.1771	85.6934	97.78	85.6934	97.8599	85.6934	97.4447	85.6934	97.5534	85.6934	97.1369	85.6934	97.2776	85.6934	96.8745	85.6934	97.0459	85.6934	96.667	85.6934	96.8613	85.6934	96.5126	85.6934	96.7155	85.6934	96.3999	85.6934	96.5926	85.6934	96.3133	85.6934	96.4761	85.6934	96.2402	85.6934	96.3581	85.6934	96.1773	85.6934	96.2457	85.6934	96.1321	85.6934	96.1599	85.6934	96.1212
88.623	99.7374	88.623	99.7048	88.623	99.6991	88.623	99.6027	88.623	99.5911	88.623	99.435	88.623	99.4177	88.623	99.2088	88.623	99.1863	88.623	98.9344	88.623	98.908	88.623	98.6261	88.623	98.5986	88.623	98.3016	88.623	98.2776	88.623	97.9813	88.623	97.9672	88.623	97.6856	88.623	97.6886	88.623	97.4314	88.623	97.4574	88.623	97.2281	88.623	97.2794	88.623	97.0758	88.623	97.1487	88.623	96.9654	88.623	97.0501	88.623	96.8833	88.623	96.966	88.623	96.8177	88.623	96.8843	88.623	96.7639	88.623	96.8061	88.623	96.7264	88.623	96.745	88.623	96.717
91.5527	100.141	91.5527	100.106	91.5527	100.103	91.5527	99.9996	91.5527	99.9942	91.5527	99.8266	91.5527	99.818	91.5527	99.5949	91.5527	99.5828	91.5527	99.3164	91.5527	99.3008	91.5527	99.0069	91.5527	98.9888	91.5527	98.6864	91.5527	98.6681	91.5527	98.377	91.5527	98.3624	91.5527	98.1007	91.5527	98.0951	91.5527	97.8749	91.5527	97.8833	91.5527	97.7084	91.5527	97.734	91.5527	97.5996	91.5527	97.6413	91.5527	97.5374	91.5527	97.5899	91.5527	97.5058	91.5527	97.5604	91.5527	97.4899	91.5527	97.5372	91.5527	97.4806	91.5527	97.5133	91.5527	97.4756	91.5527	97.4914	91.5527	97.478
94.4824	100.231	94.4824	100.195	94.4824	100.189	94.4824	100.084	94.4824	100.071	94.4824	99.9014	94.4824	99.8809	94.4824	99.6562	94.4824	99.6268	94.4824	99.3602	94.4824	99.3205	94.4824	99.0298	94.4824	98.979	94.4824	98.6849	94.4824	98.6236	94.4824	98.3484	94.4824	98.2791	94.4824	98.0428	94.4824	97.9705	94.4824	97.7866	94.4824	97.7182	94.4824	97.5903	94.4824	97.533	94.4824	97.4549	94.4824	97.414	94.4824	97.3723	94.4824	97.3496	94.4824	97.3294	94.4824	97.3225	94.4824	97.3122	94.4824	97.3156	94.4824	97.3092	94.4824	97.316	94.4824	97.3118	94.4824	97.3164	94.4824	97.3148
98.1445	99.9876	98.1445	99.9461	98.1445	99.9485	98.1445	99.8259	98.1445	99.8302	98.1445	99.6325	98.1445	99.6379	98.1445	99.3755	98.1445	99.3805	98.1445	99.0691	98.1445	99.0717	98.1445	98.7323	98.1445	98.7302	98.1445	98.3881	98.1445	98.3787	98.1445	98.062	98.1445	98.0421	98.1445	97.7768	98.1445	97.7438	98.1445	97.5489	98.1445	97.5	98.1445	97.3832	98.1445	97.3166	98.1445	97.2734	98.1445	97.1887	98.1445	97.2049	98.1445	97.1045	98.1445	97.161	98.1445	97.0514	98.1445	97.1276	98.1445	97.0205	98.1445	97.096	98.1445	97.0078	98.1445	97.0633	98.1445	97.0124	98.1445	97.0328
101.807	99.5732	101.807	99.5229	101.807	99.5322	101.807	99.3831	101.807	99.4014	101.807	99.1594	101.807	99.1863	101.807	98.8617	101.807	98.8968	101.807	98.5057	101.807	98.5481	101.807	98.1133	101.807	98.1619	101.807	97.7133	101.807	97.7662	101.807	97.339	101.807	97.3934	101.807	97.0232	101.807	97.0749	101.807	96.7906	101.807	96.8337	101.807	96.6503	101.807	96.6774	101.807	96.5927	101.807	96.5972	101.807	96.5946	101.807	96.5728	101.807	96.6276	101.807	96.5819	101.807	96.6666	101.807	96.6067	101.807	96.6941	101.807	96.6366	101.807	96.7018	101.807	96.666	101.807	96.6901
105.469	99.3566	105.469	99.3047	105.469	99.3078	105.469	99.1525	105.469	99.1598	105.469	98.9033	105.469	98.9168	105.469	98.5631	105.469	98.5865	105.469	98.1423	105.469	98.1804	105.469	97.6567	105.469	97.7157	105.469	97.1291	105.469	97.2164	105.469	96.5905	105.469	96.7132	105.469	96.0792	105.469	96.2414	105.469	95.6362	105.469	95.8355	105.469	95.297	105.469	95.5213	105.469	95.081	105.469	95.309	105.469	94.985	105.469	95.1921	105.469	94.9855	105.469	95.1519	105.469	95.0465	105.469	95.1633	105.469	95.1291	105.469	95.1986	105.469	95.1991	105.469	95.2301	105.469	95.2344
109.131	99.147	109.131	99.1153	109.131	99.0884	109.131	98.9944	109.131	98.9411	109.131	98.7883	109.131	98.7097	109.131	98.5038	109.131	98.4021	109.131	98.1512	109.131	98.0303	109.131	97.7439	109.131	97.6104	109.131	97.2986	109.131	97.1626	109.131	96.8338	109.131	96.7096	109.131	96.3683	109.131	96.2736	109.131	95.9193	109.131	95.8727	109.131	95.5018	109.131	95.5183	109.131	95.1295	109.131	95.2151	109.131	94.8165	109.131	94.9644	109.131	94.5788	109.131	94.7672	109.131	94.4284	109.131	94.6231	109.131	94.364	109.131	94.5251	109.131	94.3658	109.131	94.4575	109.131	94.4043
112.793	98.3885	112.793	98.348	112.793	98.3355	112.793	98.2162	112.793	98.1906	112.793	97.9992	112.793	97.9593	112.793	97.7078	112.793	97.6514	112.793	97.3576	112.793	97.282	112.793	96.9703	112.793	96.8718	112.793	96.5717	112.793	96.4465	112.793	96.1893	112.793	96.034	112.793	95.8465	112.793	95.6593	112.793	95.5561	112.793	95.3386	112.793	95.3175	112.793	95.0764	112.793	95.1193	112.793	94.8683	112.793	94.9484	112.793	94.7088	112.793	94.7996	112.793	94.5973	112.793	94.6795	112.793	94.5358	112.793	94.598	112.793	94.5183	112.793	94.5557	112.793	94.5254	112.793	94.5377
116.455	97.4148	116.455	97.3649	116.455	97.361	116.455	97.2128	116.455	97.2053	116.455	96.9638	116.455	96.9534	116.455	96.6272	116.455	96.6157	116.455	96.2186	116.455	96.2087	116.455	95.7603	116.455	95.7563	116.455	95.283	116.455	95.2902	116.455	94.8242	116.455	94.8468	116.455	94.4226	116.455	94.4603	116.455	94.1087	116.455	94.152	116.455	93.8942	116.455	93.924	116.455	93.7681	116.455	93.7613	116.455	93.7033	116.455	93.6439	116.455	93.6704	116.455	93.5611	116.455	93.6481	116.455	93.5139	116.455	93.6256	116.455	93.5056	116.455	93.5982	116.455	93.5283	116.455	93.5642
120.85	97.5401	120.85	97.4872	120.85	97.4855	120.85	97.3288	120.85	97.3241	120.85	97.07	120.85	97.0596	120.85	96.7192	120.85	96.6991	120.85	96.2889	120.85	96.2545	120.85	95.7967	120.85	95.7438	120.85	95.2654	120.85	95.1926	120.85	94.7228	120.85	94.6344	120.85	94.1995	120.85	94.1073	120.85	93.7246	120.85	93.647	120.85	93.3206	120.85	93.2759	120.85	92.9998	120.85	92.9965	120.85	92.7644	120.85	92.7952	120.85	92.6098	120.85	92.6539	120.85	92.5254	120.85	92.56	120.85	92.4922	120.85	92.5071	120.85	92.4849	120.85	92.4866	120.85	92.4838
125.244	97.5771	125.244	97.5231	125.244	97.5266	125.244	97.3662	125.244	97.3735	125.244	97.112	125.244	97.1238	125.244	96.7706	125.244	96.7882	125.244	96.3577	125.244	96.3823	125.244	95.8951	125.244	95.9281	125.244	95.4109	125.244	95.4531	125.244	94.9373	125.244	94.9886	125.244	94.5059	125.244	94.5646	125.244	94.1401	125.244	94.2036	125.244	93.85	125.244	93.9157	125.244	93.6323	125.244	93.6993	125.244	93.4784	125.244	93.5477	125.244	93.3829	125.244	93.4549	125.244	93.3433	125.244	93.4144	125.244	93.3514	125.244	93.4119	125.244	93.3851	125.244	93.421	125.244	93.4145
129.639	97.2198	129.639	97.1682	129.639	97.1576	129.639	97.0049	129.639	96.9831	129.639	96.7358	129.639	96.7017	129.639	96.3715	129.639	96.3238	129.639	95.9284	129.639	95.866	129.639	95.4304	129.639	95.3533	129.639	94.9101	129.639	94.8201	129.639	94.4074	129.639	94.3095	129.639	93.9649	129.639	93.8665	129.639	93.6172	129.639	93.5269	129.639	93.3806	129.639	93.3068	129.639	93.2499	129.639	93.2008	129.639	93.2072	129.639	93.1912	129.639	93.2344	129.639	93.2576	129.639	93.3167	129.639	93.3756	129.639	93.4337	129.639	93.5073	129.639	93.5497	129.639	93.6019	129.639	93.6174
134.033	97.1516	134.033	97.1013	134.033	97.0811	134.033	96.9308	134.033	96.8922	134.033	96.6437	134.033	96.5901	134.033	96.2468	134.033	96.1842	134.033	95.7507	134.033	95.6878	134.033	95.1712	134.033	95.1204	134.033	94.5316	134.033	94.5079	134.033	93.8649	134.033	93.8836	134.033	93.216	134.033	93.2866	134.033	92.6389	134.033	92.7584	134.033	92.1886	134.033	92.3373	134.033	91.9054	134.033	92.0556	134.033	91.8039	134.033	91.9367	134.033	91.8707	134.033	91.9869	134.033	92.0661	134.033	92.1762	134.033	92.3243	134.033	92.4252	134.033	92.5571	134.033	92.6222	134.033	92.674
138.428	96.8819	138.428	96.8503	138.428	96.797	138.428	96.7053	138.428	96.597	138.428	96.4539	138.428	96.2878	138.428	96.1064	138.428	95.8807	138.428	95.6762	138.428	95.3925	138.428	95.1782	138.428	94.8457	138.428	94.6279	138.428	94.2665	138.428	94.0403	138.428	93.6822	138.428	93.4295	138.428	93.1157	138.428	92.8105	138.428	92.5822	138.428	92.2039	138.428	92.0907	138.428	91.6428	138.428	91.6538	138.428	91.178	138.428	91.2998	138.428	90.8702	138.428	91.0705	138.428	90.758	138.428	90.9926	138.428	90.8196	138.428	91.0338	138.428	90.966	138.428	91.0973	138.428	91.0825
143.555	96.3505	143.555	96.2813	143.555	96.2827	143.555	96.0812	143.555	96.0771	143.555	95.7614	143.555	95.7382	143.555	95.3395	143.555	95.2766	143.555	94.8388	143.555	94.7115	143.555	94.2884	143.555	94.0715	143.555	93.7192	143.555	93.3963	143.555	93.1592	143.555	92.7316	143.555	92.6267	143.555	92.1181	143.555	92.1268	143.555	91.5777	143.555	91.6552	143.555	91.1082	143.555	91.211	143.555	90.701	143.555	90.8131	143.555	90.3707	143.555	90.5066	143.555	90.1663	143.555	90.3402	143.555	90.1317	143.555	90.3211	143.555	90.238	143.555	90.3864	143.555	90.3741	143.555	90.43
148.682	96.6482	148.682	96.5697	148.682	96.5983	148.682	96.368	148.682	96.4199	148.682	96.0533	148.682	96.1178	148.682	95.6421	148.682	95.7018	148.682	95.1566	148.682	95.1871	148.682	94.6241	148.682	94.5954	148.682	94.0736	148.682	93.9545	148.682	93.5301	148.682	93.2974	148.682	93.008	148.682	92.6579	148.682	92.5078	148.682	92.0634	148.682	92.0198	148.682	91.5306	148.682	91.5377	148.682	91.0681	148.682	91.0761	148.682	90.6873	148.682	90.679	148.682	90.4098	148.682	90.4018	148.682	90.2559	148.682	90.2677	148.682	90.2146	148.682	90.2399	148.682	90.2316	148.682	90.2447
153.809	96.7906	153.809	96.69	153.809	96.7468	153.809	96.4496	153.809	96.5603	153.809	96.0819	153.809	96.2395	153.809	95.609	153.809	95.7992	153.809	95.0638	153.809	95.2621	153.809	94.49	153.809	94.6593	153.809	93.9355	153.809	94.0289	153.809	93.4408	153.809	93.4115	153.809	93.0233	153.809	92.8431	153.809	92.6732	153.809	92.3492	153.809	92.3662	153.809	91.9496	153.809	92.0923	153.809	91.6721	153.809	91.8793	153.809	91.5571	153.809	91.7869	153.809	91.6311	153.809	91.8565	153.809	91.8606	153.809	92.0549	153.809	92.1427	153.809	92.2759	153.809	92.3512	153.809	92.3988
159.668	96.6412	159.668	96.5665	159.668	96.565	159.668	96.3407	159.668	96.3428	159.668	95.9692	159.668	95.9847	159.668	95.4655	159.668	95.507	159.668	94.8538	159.668	94.9333	159.668	94.1725	159.668	94.2951	159.668	93.4732	159.668	93.6269	159.668	92.8095	159.668	92.9553	159.668	92.2129	159.668	92.2823	159.668	91.67	159.668	91.5777	159.668	91.127	159.668	90.7968	159.668	90.5328	159.668	89.9388	159.668	89.9073	159.668	89.1347	159.668	89.3933	159.668	88.678	159.668	89.1998	159.668	88.7868	159.668	89.3813	159.668	89.2782	159.668	89.7176	159.668	89.7412	159.668	89.8989
164.795	95.9394	164.795	95.8577	164.795	95.8614	164.795	95.6187	164.795	95.6275	164.795	95.2318	164.795	95.249	164.795	94.7161	164.795	94.7464	164.795	94.105	164.795	94.1536	164.795	93.452	164.795	93.5222	164.795	92.8337	164.795	92.9187	164.795	92.3349	164.795	92.4074	164.795	92.0103	164.795	92.0165	164.795	91.8405	164.795	91.7106	164.795	91.7329	164.795	91.4056	164.795	91.5744	164.795	91.0233	164.795	91.2976	164.795	90.5587	164.795	90.9258	164.795	90.1235	164.795	90.5762	164.795	89.9011	164.795	90.3794	164.795	89.9652	164.795	90.3381	164.795	90.1687	164.795	90.3093
170.654	97.4203	170.654	97.3229	170.654	97.3266	170.654	97.0374	170.654	97.0414	170.654	96.5691	170.654	96.5669	170.654	95.9259	170.654	95.9086	170.654	95.1187	170.654	95.0781	170.654	94.1636	170.654	94.1004	170.654	93.0888	170.654	93.0293	170.654	91.9514	170.654	91.9674	170.654	90.8631	170.654	91.0678	170.654	90.0004	170.654	90.469	170.654	89.5368	170.654	90.1834	170.654	89.4997	170.654	90.086	170.654	89.7343	170.654	90.0446	170.654	90.0446	170.654	90.0319	170.654	90.3158	170.654	90.1098	170.654	90.518	170.654	90.3061	170.654	90.6437	170.654	90.5315	170.654	90.6592
176.514	98.412	176.514	98.2967	176.514	98.3499	176.514	98.0075	176.514	98.1119	176.514	97.5527	176.514	97.7041	176.514	96.9465	176.514	97.1376	176.514	96.2102	176.514	96.4284	176.514	95.374	176.514	95.5976	176.514	94.4782	176.514	94.6711	176.514	93.5711	176.514	93.6775	176.514	92.6981	176.514	92.6461	176.514	91.8879	176.514	91.6073	176.514	91.1541	176.514	90.611	176.514	90.5326	176.514	89.7739	176.514	90.1305	176.514	89.3096	176.514	90.0857	176.514	89.3951	176.514	90.3947	176.514	89.9276	176.514	90.8486	176.514	90.5812	176.514	91.1992	176.514	91.08	176.514	91.2944
183.105	96.7547	183.105	96.6754	183.105	96.6673	183.105	96.4332	183.105	96.4159	183.105	96.0378	183.105	96.0104	183.105	95.5052	183.105	95.4695	183.105	94.8575	183.105	94.8217	183.105	94.123	183.105	94.1051	183.105	93.3352	183.105	93.3616	183.105	92.5262	183.105	92.6218	183.105	91.7125	183.105	91.8824	183.105	90.8769	183.105	91.0893	183.105	89.9607	183.105	90.144	183.105	88.8936	183.105	88.9478	183.105	87.6857	183.105	87.5001	183.105	86.577	183.105	86.0889	183.105	86.034	183.105	85.3694	183.105	86.1977	183.105	85.6328	183.105	86.5761	183.105	86.2718	183.105	86.6554
189.697	97.2576	189.697	97.1507	189.697	97.1772	189.697	96.857	189.697	96.9152	189.697	96.3839	189.697	96.4831	189.697	95.7484	189.697	95.8995	189.697	94.98	189.697	95.1925	189.697	94.1255	189.697	94.4041	189.697	93.2509	189.697	93.5935	189.697	92.4331	189.697	92.8334	189.697	91.734	189.697	92.1868	189.697	91.1677	189.697	91.6703	189.697	90.6961	189.697	91.2383	189.697	90.2769	189.697	90.8255	189.697	89.9354	189.697	90.4311	189.697	89.7898	189.697	90.1766	189.697	89.9527	189.697	90.2222	189.697	90.3642	189.697	90.5446	189.697	90.7916	189.697	90.8897	189.697	91.0007
196.289	99.1058	196.289	99.0283	196.289	98.9848	196.289	98.7554	196.289	98.6679	196.289	98.2956	196.289	98.163	196.289	97.6649	196.289	97.4861	196.289	96.888	196.289	96.6643	196.289	96.0018	196.289	95.7421	196.289	95.0557	196.289	94.7835	196.289	94.1068	196.289	93.8629	196.289	93.201	196.289	93.0347	196.289	92.3467	196.289	92.3002	196.289	91.509	196.289	91.6177	196.289	90.6665	196.289	90.9792	196.289	89.9417	196.289	90.5071	196.289	89.6809	196.289	90.4328	196.289	90.1367	196.289	90.8397	196.289	91.0154	196.289	91.4829	196.289	91.786	196.289	91.9994	196.289	92.1354
202.881	97.0989	202.881	96.9705	202.881	97.0304	202.881	96.649	202.881	96.766	202.881	96.1446	202.881	96.3127	202.881	95.476	202.881	95.6849	202.881	94.6761	202.881	94.9087	202.881	93.8009	202.881	94.0288	202.881	92.9362	202.881	93.1138	202.881	92.1845	202.881	92.2475	202.881	91.6156	202.881	91.4927	202.881	91.2054	202.881	90.8452	202.881	90.8399	202.881	90.2408	202.881	90.4057	202.881	89.6459	202.881	89.9067	202.881	89.1727	202.881	89.5314	202.881	89.0612	202.881	89.5325	202.881	89.4036	202.881	89.9051	202.881	89.9621	202.881	90.3422	202.881	90.4082	202.881	90.5487
210.205	98.2844	210.205	98.2201	210.205	98.1278	210.205	97.9373	210.205	97.7548	210.205	97.4453	210.205	97.176	210.205	96.7603	210.205	96.4092	210.205	95.9061	210.205	95.482	210.205	94.9125	210.205	94.4391	210.205	93.8146	210.205	93.3539	210.205	92.6477	210.205	92.3316	210.205	91.437	210.205	91.4734	210.205	90.1897	210.205	90.7944	210.205	88.9261	210.205	90.1859	210.205	87.8136	210.205	89.5253	210.205	87.3414	210.205	88.9059	210.205	87.9504	210.205	88.7767	210.205	89.2631	210.205	89.463	210.205	90.5559	210.205	90.5439	210.205	91.4203	210.205	91.3954	210.205	91.711
217.529	97.3216	217.529	97.2057	217.529	97.2264	217.529	96.8829	217.529	96.9193	217.529	96.3599	217.529	96.4004	217.529	95.6458	217.529	95.6694	217.529	94.7495	217.529	94.7228	217.529	93.6787	217.529	93.5524	217.529	92.4392	217.529	92.1459	217.529	91.0338	217.529	90.4861	217.529	89.4517	217.529	88.5425	217.529	87.6267	217.529	86.2344	217.529	85.3392	217.529	83.3635	217.529	82.0415	217.529	79.8156	217.529	76.9211	217.529	78.3134	217.529	76.8505	217.529	81.8759	217.529	82.6742	217.529	85.453	217.529	86.3316	217.529	87.7701	217.529	88.346	217.529	88.9703	217.529	89.1669
225.586	99.306	225.586	99.2024	225.586	99.2141	225.586	98.9112	225.586	98.933	225.586	98.4558	225.586	98.4827	225.586	97.8776	225.586	97.8969	225.586	97.2355	225.586	97.225	225.586	96.5989	225.586	96.5323	225.586	96.0278	225.586	95.893	225.586	95.54	225.586	95.3649	225.586	95.0879	225.586	94.9452	225.586	94.5624	225.586	94.5386	225.586	93.8244	225.586	93.9749	225.586	92.7424	225.586	93.0663	225.586	91.2462	225.586	91.6828	225.586	89.4632	225.586	89.8932	225.586	87.9762	225.586	88.2442	225.586	87.5416	225.586	87.6038	225.586	87.8647	225.586	87.847	225.586	88.07
232.91	101.836	232.91	101.67	232.91	101.751	232.91	101.252	232.91	101.424	232.91	100.593	232.91	100.874	232.91	99.7204	232.91	100.136	232.91	98.7064	232.91	99.2724	232.91	97.6977	232.91	98.3916	232.91	96.9296	232.91	97.6401	232.91	96.6102	232.91	97.1362	232.91	96.7014	232.91	96.8602	232.91	96.9084	232.91	96.635	232.91	96.9018	232.91	96.2425	232.91	96.4723	232.91	95.5659	232.91	95.6115	232.91	94.7274	232.91	94.6701	232.91	94.186	232.91	94.3541	232.91	94.3803	232.91	94.87	232.91	95.0723	232.91	95.5624	232.91	95.686	232.91	95.8815
241.699	101.844	241.699	101.675	241.699	101.737	241.699	101.233	241.699	101.353	241.699	100.53	241.699	100.694	241.699	99.5879	241.699	99.7622	241.699	98.4455	241.699	98.5641	241.699	97.1768	241.699	97.1347	241.699	95.9174	241.699	95.612	241.699	94.8738	241.699	94.355	241.699	94.2301	241.699	93.8375	241.699	93.9582	241.699	94.0586	241.699	93.7923	241.699	94.4545	241.699	93.465	241.699	94.5551	241.699	93.0026	241.699	94.3101	241.699	92.9431	241.699	94.1385	241.699	93.8246	241.699	94.5887	241.699	95.1839	241.699	95.5279	241.699	96.2314	241.699	96.3404	241.699	96.6246
249.756	101.311	249.756	101.097	249.756	101.234	249.756	100.594	249.756	100.871	249.756	99.8131	249.756	100.231	249.756	98.7664	249.756	99.3286	249.756	97.4733	249.756	98.184	249.756	95.9768	249.756	96.8358	249.756	94.3985	249.756	95.3755	249.756	93.0164	249.756	93.9789	249.756	92.1784	249.756	92.8262	249.756	91.8759	249.756	91.8502	249.756	91.5916	249.756	90.631	249.756	90.7103	249.756	88.6756	249.756	88.7956	249.756	86.2528	249.756	86.216	249.756	86.3018	249.756	86.2949	249.756	88.9721	249.756	89.1082	249.756	91.1259	249.756	91.256	249.756	92.1824	249.756	92.2329
258.545	102.052	258.545	101.904	258.545	101.907	258.545	101.461	258.545	101.477	258.545	100.733	258.545	100.783	258.545	99.7389	258.545	99.8494	258.545	98.5101	258.545	98.7059	258.545	97.1038	258.545	97.3904	258.545	95.6372	258.545	95.9844	258.545	94.3301	258.545	94.6917	258.545	93.462	258.545	93.8499	258.545	93.1317	258.545	93.5955	258.545	93.0985	258.545	93.5232	258.545	93.0052	258.545	93.0313	258.545	92.6532	258.545	91.8016	258.545	92.127	258.545	90.251	258.545	91.798	258.545	89.8893	258.545	91.9548	258.545	90.9731	258.545	92.343	258.545	92.0357	258.545	92.474
268.066	100.699	268.066	100.607	268.066	100.526	268.066	100.253	268.066	100.093	268.066	99.639	268.066	99.4045	268.066	98.7687	268.066	98.4729	268.066	97.6431	268.066	97.3201	268.066	96.2705	268.066	95.9954	268.066	94.6975	268.066	94.595	268.066	93.0665	268.066	93.2432	268.066	91.6217	268.066	91.9787	268.066	90.4825	268.066	90.611	268.066	89.3464	268.066	88.7264	268.066	87.714	268.066	85.873	268.066	85.8929	268.066	82.6515	268.066	86.3932	268.066	83.5521	268.066	88.9757	268.066	86.9793	268.066	90.9859	268.066	89.5317	268.066	91.8995	268.066	91.1053	268.066	91.8878
277.588	99.3141	277.588	99.1354	277.588	99.1344	277.588	98.5961	277.588	98.5991	277.588	97.696	277.588	97.7112	277.588	96.4363	277.588	96.4734	277.588	94.8307	277.588	94.9018	277.588	92.9566	277.588	93.0896	277.588	91.115	277.588	91.39	277.588	89.9995	277.588	90.5334	277.588	90.0743	277.588	90.8319	277.588	90.7039	277.588	91.5193	277.588	90.9932	277.588	91.7668	277.588	90.4446	277.588	91.1845	277.588	88.9287	277.588	89.7716	277.588	87.2625	277.588	88.3011	277.588	87.7	277.588	88.3537	277.588	89.6071	277.588	89.6759	277.588	90.9533	277.588	90.847	277.588	91.3298
287.109	100.633	287.109	100.533	287.109	100.451	287.109	100.148	287.109	99.9839	287.109	99.4743	287.109	99.2239	287.109	98.4922	287.109	98.1451	287.109	97.1623	287.109	96.6928	287.109	95.416	287.109	94.7755	287.109	93.1728	287.109	92.2836	287.109	90.4707	287.109	89.2647	287.109	87.9806	287.109	86.6709	287.109	87.1935	287.109	86.3442	287.109	87.7832	287.109	87.3063	287.109	88.2298	287.109	87.8523	287.109	88.4335	287.109	87.869	287.109	89.2849	287.109	88.0996	287.109	90.8435	287.109	89.1113	287.109	92.1683	287.109	90.5076	287.109	92.7452	287.109	91.7426	287.109	92.551
297.363	99.3818	297.363	99.2271	297.363	99.2766	297.363	98.8168	297.363	98.9228	297.363	98.1736	297.363	98.3405	297.363	97.3327	297.363	97.5471	297.363	96.3271	297.363	96.5433	297.363	95.1641	297.363	95.3052	297.363	93.8052	297.363	93.8022	297.363	92.1647	297.363	92.062	297.363	90.1287	297.363	90.2722	297.363	87.5804	297.363	88.6848	297.363	84.37	297.363	87.0276	297.363	80.0996	297.363	84.0572	297.363	76.2386	297.363	77.1966	297.363	81.2806	297.363	79.7408	297.363	86.3238	297.363	86.629	297.363	89.3727	297.363	89.8956	297.363	91.0332	297.363	91.3553	297.363	91.664
307.617	97.4901	307.617	97.2901	307.617	97.3896	307.617	96.7949	307.617	96.9917	307.617	96.0162	307.617	96.307	307.617	94.9712	307.617	95.3517	307.617	93.6881	307.617	94.1434	307.617	92.2279	307.617	92.7005	307.617	90.7287	307.617	91.0572	307.617	89.4289	307.617	89.3194	307.617	88.5254	307.617	87.7579	307.617	87.859	307.617	86.6947	307.617	86.8354	307.617	85.9528	307.617	84.5268	307.617	84.7142	307.617	78.9495	307.617	81.9503	307.617	70.1073	307.617	77.261	307.617	81.78	307.617	79.068	307.617	86.0267	307.617	83.8899	307.617	87.6568	307.617	86.586	307.617	87.7591
318.604	93.1168	318.604	92.8643	318.604	93.0098	318.604	92.2466	318.604	92.5632	318.604	91.2702	318.604	91.8023	318.604	89.9409	318.604	90.7382	318.604	88.2492	318.604	89.3475	318.604	86.1867	318.604	87.5688	318.604	83.9024	318.604	85.3758	318.604	82.1815	318.604	83.1439	318.604	82.2339	318.604	82.2642	318.604	83.447	318.604	83.2398	318.604	84.3399	318.604	84.3225	318.604	84.1871	318.604	84.404	318.604	82.6736	318.604	83.2322	318.604	80.1468	318.604	81.2514	318.604	79.6329	318.604	80.4696	318.604	81.8733	318.604	81.9054	318.604	83.5731	318.604	83.4517	318.604	84.0693
329.59	92.3099	329.59	92.146	329.59	92.1504	329.59	91.6563	329.59	91.682	329.59	90.8486	329.59	90.9276	329.59	89.7375	329.59	89.9134	329.59	88.3427	329.59	88.6697	329.59	86.6999	329.59	87.251	329.59	84.9117	329.59	85.7767	329.59	83.2766	329.59	84.4367	329.59	82.3338	329.59	83.3556	329.59	82.2309	329.59	82.4016	329.59	82.1762	329.59	81.2893	329.59	81.1456	329.59	80.0003	329.59	78.4206	329.59	79.2212	329.59	75.651	329.59	79.7091	329.59	78.1549	329.59	80.9105	329.59	80.9629	329.59	82.0088	329.59	82.3318	329.59	82.6781	329.59	82.8084
341.309	91.4451	341.309	91.2956	341.309	91.1782	341.309	90.752	341.309	90.4975	341.309	89.8504	341.309	89.4242	341.309	88.6118	341.309	87.9778	341.309	86.992	341.309	86.1325	341.309	84.8218	341.309	83.7397	341.309	81.7169	341.309	80.3719	341.309	76.872	341.309	74.9131	341.309	70.848	341.309	68.7238	341.309	74.8188	341.309	74.9731	341.309	78.5034	341.309	78.4551	341.309	79.5176	341.309	79.0518	341.309	78.4922	341.309	77.8248	341.309	77.5596	341.309	78.058	341.309	80.1333	341.309	81.1441	341.309	83.1059	341.309	83.7231	341.309	84.8581	341.309	85.1264	341.309	85.4929
353.76	93.7773	353.76	93.5995	353.76	93.6013	353.76	93.0734	353.76	93.0863	353.76	92.2224	353.76	92.2681	353.76	91.0863	353.76	91.2056	353.76	89.7225	353.76	89.9849	353.76	88.2059	353.76	88.7153	353.76	86.6216	353.76	87.497	353.76	85.0531	353.76	86.3628	353.76	83.5991	353.76	85.2518	353.76	82.3662	353.76	84.0135	353.76	81.2228	353.76	82.3352	353.76	79.4701	353.76	79.5265	353.76	76.0401	353.76	73.8227	353.76	72.8785	353.76	64.9982	353.76	76.5842	353.76	75.3645	353.76	79.6641	353.76	79.6104	353.76	81.1596	353.76	81.3695	353.76	81.7381
366.211	94.1965	366.211	94.0008	366.211	93.978	366.211	93.4176	366.211	93.3584	366.211	92.5185	366.211	92.3835	366.211	91.4088	366.211	91.1163	366.211	90.1792	366.211	89.5981	366.211	88.8196	366.211	87.7736	366.211	87.15	366.211	85.3992	366.211	84.7936	366.211	81.969	366.211	81.107	366.211	77.1017	366.211	75.1064	366.211	75.6376	366.211	70.8399	366.211	78.5517	366.211	73.0585	366.211	79.2042	366.211	71.7738	366.211	76.5942	366.211	72.4869	366.211	69.57	366.211	77.8343	366.211	73.1833	366.211	80.7819	366.211	78.2915	366.211	81.8088	366.211	80.603	366.211	81.6527
378.662	95.6345	378.662	95.4277	378.662	95.4824	378.662	94.8529	378.662	94.9956	378.662	93.9072	378.662	94.1988	378.662	92.5753	378.662	93.0966	378.662	90.8328	378.662	91.6745	378.662	88.7272	378.662	89.9442	378.662	86.6198	378.662	88.0214	378.662	85.3792	378.662	86.1828	378.662	85.3882	378.662	84.7847	378.662	85.7511	378.662	84.0267	378.662	85.5486	378.662	83.7427	378.662	84.2093	378.662	83.3109	378.662	81.3404	378.662	81.9228	378.662	78.6838	378.662	79.0816	378.662	80.5283	378.662	76.8669	378.662	82.7575	378.662	79.7046	378.662	83.8519	378.662	82.6954	378.662	83.9614
392.578	96.3575	392.578	96.0457	392.578	96.1612	392.578	95.2397	392.578	95.4761	392.578	93.9834	392.578	94.3661	392.578	92.3541	392.578	92.9469	392.578	90.4673	392.578	91.3535	392.578	88.452	392.578	89.6228	392.578	86.3432	392.578	87.5292	392.578	83.906	392.578	84.4576	392.578	80.6309	392.578	79.1356	392.578	77.1167	392.578	72.7052	392.578	77.9046	392.578	77.7927	392.578	79.635	392.578	79.8867	392.578	78.3503	392.578	78.8423	392.578	74.805	392.578	77.7271	392.578	79.0068	392.578	79.5882	392.578	82.6321	392.578	81.6831	392.578	83.7518	392.578	82.9886	392.578	83.6597
405.762	96.1129	405.762	95.9041	405.762	95.8342	405.762	95.2132	405.762	95.1341	405.762	94.1119	405.762	94.127	405.762	92.7017	405.762	92.9228	405.762	91.0432	405.762	91.567	405.762	89.0795	405.762	90.0211	405.762	86.6109	405.762	88.1839	405.762	83.4669	405.762	85.9617	405.762	80.8831	405.762	83.6096	405.762	81.7831	405.762	82.4823	405.762	83.2693	405.762	83.2152	405.762	82.6591	405.762	83.8281	405.762	79.0136	405.762	82.8727	405.762	74.0665	405.762	79.762	405.762	76.8617	405.762	76.6226	405.762	79.2187	405.762	78.7827	405.762	80.5397	405.762	80.8868	405.762	81.3041
420.41	97.1491	420.41	96.9485	420.41	96.8971	420.41	96.3122	420.41	96.1981	420.41	95.2734	420.41	95.0848	420.41	93.8717	420.41	93.6262	420.41	92.1547	420.41	91.9439	420.41	90.1988	420.41	90.1851	420.41	88.0968	420.41	88.3695	420.41	85.786	420.41	86.2215	420.41	82.706	420.41	83.3538	420.41	77.4178	420.41	80.2814	420.41	71.4366	420.41	78.7814	420.41	76.6545	420.41	76.5333	420.41	78.6065	420.41	68.9962	420.41	79.3003	420.41	75.0501	420.41	81.9795	420.41	79.193	420.41	84.3165	420.41	80.6125	420.41	85.0734	420.41	82.5327	420.41	84.3688
435.059	96.5306	435.059	96.392	435.059	96.0977	435.059	95.7056	435.059	95.1223	435.059	94.5519	435.059	93.6894	435.059	93.0665	435.059	91.9478	435.059	91.4048	435.059	90.0931	435.059	89.6576	435.059	88.2753	435.059	87.7736	435.059	86.4543	435.059	85.5803	435.059	84.4411	435.059	83.0932	435.059	82.4238	435.059	81.5509	435.059	81.6198	435.059	82.0635	435.059	82.3922	435.059	82.1261	435.059	83.3436	435.059	79.4446	435.059	83.4248	435.059	71.3576	435.059	81.482	435.059	61.2024	435.059	75.4883	435.059	70.6172	435.059	70.1241	435.059	73.9954	435.059	75.9007	435.059	76.4318
450.439	95.8987	450.439	95.5222	450.439	95.6983	450.439	94.6253	450.439	94.9598	450.439	93.3348	450.439	93.8014	450.439	91.7963	450.439	92.3624	450.439	90.1436	450.439	90.7313	450.439	88.5133	450.439	88.9278	450.439	86.9839	450.439	86.904	450.439	85.3643	450.439	84.4165	450.439	83.1437	450.439	80.8026	450.439	80.0774	450.439	75.6798	450.439	78.056	450.439	74.6614	450.439	78.9596	450.439	76.201	450.439	80.4738	450.439	78.2138	450.439	81.4442	450.439	82.0049	450.439	81.4217	450.439	84.0269	450.439	81.4547	450.439	84.155	450.439	82.5785	450.439	83.7277	450.439	83.4335
466.553	95.7638	466.553	95.5901	466.553	95.3216	466.553	94.83	466.553	94.29	466.553	93.5488	466.553	92.7539	466.553	91.8169	466.553	90.842	466.553	89.7111	466.553	88.7196	466.553	87.4298	466.553	86.6261	466.553	85.4357	466.553	84.8715	466.553	83.9859	466.553	83.4815	466.553	82.3773	466.553	81.7576	466.553	79.5149	466.553	78.5833	466.553	75.4332	466.553	74.0355	466.553	76.8187	466.553	75.3153	466.553	80.3761	466.553	78.7399	466.553	81.4441	466.553	79.4974	466.553	81.2645	466.553	76.5196	466.553	82.0394	466.553	75.0893	466.553	82.9552	466.553	80.354	466.553	82.6753
482.666	95.4149	482.666	94.9999	482.666	95.1708	482.666	93.9178	482.666	94.2837	482.666	92.1664	482.666	92.7926	482.666	89.7827	482.666	90.7928	482.666	86.9434	482.666	88.5102	482.666	84.0818	482.666	86.3473	482.666	81.6983	482.666	84.5624	482.666	79.8031	482.666	82.6414	482.666	77.9077	482.666	79.302	482.666	75.878	482.666	73.3156	482.666	76.6276	482.666	73.8389	482.666	79.1526	482.666	76.6884	482.666	78.5617	482.666	76.1273	482.666	72.8898	482.666	74.0177	482.666	71.5002	482.666	69.8894	482.666	75.008	482.666	71.5006	482.666	77.3223	482.666	75.629	482.666	77.4464
500.244	95.3535	500.244	95.0093	500.244	95.0387	500.244	94.0208	500.244	94.0764	500.244	92.419	500.244	92.4911	500.244	90.2264	500.244	90.3282	500.244	87.4884	500.244	87.7556	500.244	84.4305	500.244	85.2492	500.244	81.6221	500.244	83.4045	500.244	79.4184	500.244	82.0631	500.244	76.9879	500.244	80.7746	500.244	73.9297	500.244	79.852	500.244	74.3382	500.244	79.0109	500.244	75.3486	500.244	77.5031	500.244	70.6336	500.244	75.5281	500.244	66.4956	500.244	70.5083	500.244	75.9675	500.244	65.4321	500.244	79.7967	500.244	78.3264	500.244	82.2544	500.244	82.2851	500.244	83.2331
517.822	95.5886	517.822	95.1547	517.822	95.2711	517.822	93.9961	517.822	94.2632	517.822	92.2473	517.822	92.6863	517.822	90.124	517.822	90.701	517.822	87.8265	517.822	88.506	517.822	85.4944	517.822	86.3497	517.822	83.2848	517.822	84.4874	517.822	81.3703	517.822	82.9811	517.822	79.6141	517.822	81.5319	517.822	76.9041	517.822	79.6444	517.822	69.9848	517.822	77.31	517.822	62.9222	517.822	77.8357	517.822	72.6081	517.822	80.7558	517.822	73.9047	517.822	82.174	517.822	74.6513	517.822	82.6841	517.822	76.3933	517.822	82.5112	517.822	78.0529	517.822	80.6038	517.822	78.6892
536.133	94.7892	536.133	94.0165	536.133	94.7034	536.133	92.4588	536.133	93.7942	536.133	90.323	536.133	92.1937	536.133	87.9515	536.133	90.1113	536.133	85.6977	536.133	87.7776	536.133	83.6802	536.133	85.3519	536.133	81.864	536.133	82.7219	536.133	80.9112	536.133	79.2375	536.133	81.2191	536.133	75.1419	536.133	80.6368	536.133	76.102	536.133	77.5776	536.133	76.5928	536.133	76.2703	536.133	69.1869	536.133	77.2555	536.133	70.9466	536.133	75.2577	536.133	77.7532	536.133	71.8106	536.133	77.4477	536.133	64.557	536.133	75.7602	536.133	73.173	536.133	77.8361	536.133	77.8307
554.443	95.2859	554.443	95.0069	554.443	94.9143	554.443	94.1297	554.443	93.8631	554.443	92.6987	554.443	92.1417	554.443	90.7207	554.443	89.8311	554.443	88.1895	554.443	87.1541	554.443	85.1683	554.443	84.4699	554.443	81.8617	554.443	82.0054	554.443	78.8549	554.443	79.7656	554.443	77.4934	554.443	78.0861	554.443	77.669	554.443	76.5221	554.443	76.7116	554.443	71.742	554.443	73.4229	554.443	67.6326	554.443	76.3691	554.443	75.9333	554.443	77.9088	554.443	76.395	554.443	75.2425	554.443	69.68	554.443	77.7555	554.443	78.6502	554.443	81.2314	554.443	82.8059	554.443	83.0908
574.219	94.2504	574.219	93.9188	574.219	93.8615	574.219	92.8727	574.219	92.8044	574.219	91.1874	574.219	91.1753	574.219	89.0238	574.219	89.0874	574.219	86.5912	574.219	86.6625	574.219	83.9897	574.219	84.0886	574.219	81.1621	574.219	81.8401	574.219	78.6618	574.219	80.8356	574.219	77.8311	574.219	80.7942	574.219	77.0196	574.219	79.6121	574.219	73.7523	574.219	75.1438	574.219	65.409	574.219	67.5613	574.219	70.9253	574.219	69.5319	574.219	75.3912	574.219	70.2456	574.219	72.5022	574.219	66.7059	574.219	62.0763	574.219	71.1417	574.219	77.112	574.219	77.9622	574.219	79.9497
594.727	93.7172	594.727	93.0443	594.727	93.5045	594.727	91.4809	594.727	92.4453	594.727	89.0679	594.727	90.5974	594.727	85.9341	594.727	88.029	594.727	82.4542	594.727	84.8662	594.727	79.3458	594.727	81.3151	594.727	77.3656	594.727	77.6642	594.727	77.5753	594.727	76.478	594.727	78.1471	594.727	78.7873	594.727	76.9582	594.727	79.2516	594.727	73.973	594.727	76.0526	594.727	63.8403	594.727	73.9201	594.727	71.0595	594.727	78.0188	594.727	75.2674	594.727	79.7642	594.727	69.4894	594.727	76.1348	594.727	75.4351	594.727	74.1063	594.727	80.1443	594.727	79.1956	594.727	80.7711
615.234	94.4428	615.234	94.0263	615.234	94.0561	615.234	92.8428	615.234	92.853	615.234	90.978	615.234	90.8787	615.234	88.605	615.234	88.3306	615.234	85.8971	615.234	85.6116	615.234	82.7966	615.234	83.0606	615.234	78.8949	615.234	80.3084	615.234	74.3393	615.234	76.3217	615.234	74.5434	615.234	73.0868	615.234	78.2355	615.234	74.9114	615.234	79.1159	615.234	75.053	615.234	73.2642	615.234	71.0103	615.234	69.5247	615.234	71.6711	615.234	72.8024	615.234	74.1379	615.234	68.9981	615.234	73.6603	615.234	77.335	615.234	77.1267	615.234	79.7007	615.234	80.1608	615.234	80.7453
637.207	96.2626	637.207	95.7266	637.207	95.8757	637.207	94.3447	637.207	94.5845	637.207	92.2337	637.207	92.5202	637.207	89.6139	637.207	89.9577	637.207	87.0303	637.207	87.4641	637.207	85.0851	637.207	85.6605	637.207	83.4491	637.207	84.0853	637.207	81.0421	637.207	81.2891	637.207	77.6866	637.207	78.6974	637.207	77.4459	637.207	79.1013	637.207	79.3571	637.207	75.3989	637.207	75.6356	637.207	64.7466	637.207	71.9201	637.207	70.1409	637.207	77.1992	637.207	72.9994	637.207	73.3764	637.207	71.9256	637.207	66.529	637.207	72.3669	637.207	75.8443	637.207	77.3139	637.207	79.3672
659.912	96.7585	659.912	96.156	659.912	96.2026	659.912	94.4346	659.912	94.5635	659.912	91.8102	659.912	92.0809	659.912	88.7816	659.912	89.1882	659.912	86.0668	659.912	86.4193	659.912	84.1851	659.912	84.122	659.912	82.4631	659.912	82.2701	659.912	80.1602	659.912	81.0973	659.912	78.8207	659.912	80.9197	659.912	78.242	659.912	81.4165	659.912	77.692	659.912	79.6464	659.912	75.1321	659.912	74.6549	659.912	74.2466	659.912	65.036	659.912	75.8815	659.912	74.894	659.912	74.2156	659.912	75.0459	659.912	79.5595	659.912	79.1871	659.912	82.4719	659.912	83.1359	659.912	83.7232
683.35	96.9974	683.35	96.2588	683.35	96.6772	683.35	94.452	683.35	95.2944	683.35	91.6308	683.35	92.9333	683.35	88.2947	683.35	90.0244	683.35	85.5428	683.35	87.5233	683.35	83.7014	683.35	85.8758	683.35	81.8599	683.35	83.7678	683.35	80.2519	683.35	79.8	683.35	77.9699	683.35	79.4358	683.35	77.0003	683.35	80.8374	683.35	79.2545	683.35	77.02	683.35	73.6658	683.35	74.2013	683.35	72.8665	683.35	75.7652	683.35	77.1431	683.35	76.3338	683.35	71.204	683.35	76.3347	683.35	82.1213	683.35	79.2872	683.35	83.4498	683.35	80.7981	683.35	81.7216
706.787	97.2841	706.787	96.6502	706.787	96.6875	706.787	94.8243	706.787	94.8699	706.787	91.9155	706.787	91.9395	706.787	88.5015	706.787	88.3404	706.787	86.2388	706.787	85.4782	706.787	85.9505	706.787	84.789	706.787	85.6111	706.787	84.7868	706.787	83.8474	706.787	82.3523	706.787	80.317	706.787	74.8432	706.787	78.0095	706.787	75.9108	706.787	82.5982	706.787	78.933	706.787	79.7666	706.787	78.0421	706.787	72.9934	706.787	69.014	706.787	62.7667	706.787	76.2732	706.787	76.7245	706.787	80.4809	706.787	74.5429	706.787	77.3755	706.787	77.935	706.787	78.1617	706.787	81.178
731.689	96.5953	731.689	95.8705	731.689	96.075	731.689	93.9655	731.689	94.3877	731.689	91.1122	731.689	91.8388	731.689	87.9356	731.689	89.0137	731.689	85.4044	731.689	86.5307	731.689	83.9655	731.689	84.8403	731.689	83.257	731.689	84.7648	731.689	82.1842	731.689	84.2861	731.689	78.9426	731.689	81.4084	731.689	71.9604	731.689	80.2492	731.689	80.5619	731.689	76.3391	731.689	78.4204	731.689	76.1395	731.689	74.9247	731.689	76.0533	731.689	71.533	731.689	63.534	731.689	72.622	731.689	77.994	731.689	75.0243	731.689	77.8462	731.689	77.4371	731.689	76.9228	731.689	80.7765
758.057	97.775	758.057	96.8895	758.057	97.3523	758.057	94.8276	758.057	95.5389	758.057	91.9682	758.057	92.4709	758.057	89.2361	758.057	89.0802	758.057	87.3083	758.057	86.971	758.057	85.1739	758.057	85.6697	758.057	82.4532	758.057	83.0209	758.057	82.7037	758.057	80.2393	758.057	82.9875	758.057	80.6316	758.057	80.4217	758.057	81.3509	758.057	76.401	758.057	79.8411	758.057	76.0223	758.057	75.1835	758.057	78.3448	758.057	77.437	758.057	75.8831	758.057	69.5354	758.057	69.3045	758.057	74.413	758.057	75.6035	758.057	78.9699	758.057	79.8344	758.057	83.1682	758.057	80.199
784.424	96.5698	784.424	95.9423	784.424	96.1634	784.424	94.3288	784.424	94.7156	784.424	91.7933	784.424	92.3426	784.424	88.8349	784.424	89.4173	784.424	86.7488	784.424	86.8355	784.424	85.7844	784.424	85.8439	784.424	82.8625	784.424	85.4136	784.424	81.4688	784.424	83.4731	784.424	81.6378	784.424	78.5406	784.424	73.2681	784.424	72.7346	784.424	77.463	784.424	77.1761	784.424	77.4212	784.424	73.9098	784.424	75.9838	784.424	77.7669	784.424	69.5372	784.424	68.9581	784.424	79.5109	784.424	79.9931	784.424	73.5818	784.424	81.6161	784.424	77.662	784.424	77.4555	784.424	80.4155
812.256	95.9934	812.256	95.2749	812.256	95.2241	812.256	93.3123	812.256	93.1452	812.256	90.6918	812.256	90.4472	812.256	88.0013	812.256	88.0481	812.256	85.5465	812.256	86.0244	812.256	84.2193	812.256	83.741	812.256	83.2017	812.256	82.4254	812.256	77.9641	812.256	81.5175	812.256	78.5432	812.256	78.9771	812.256	77.1028	812.256	77.181	812.256	70.8453	812.256	77.2428	812.256	72.3194	812.256	58.5947	812.256	80.7447	812.256	78.6683	812.256	76.2123	812.256	70.6852	812.256	75.3779	812.256	72.9397	812.256	79.7884	812.256	78.1373	812.256	79.3074	812.256	77.6567	812.256	78.6495
840.82	93.9796	840.82	92.9868	840.82	93.5472	840.82	90.8141	840.82	91.8388	840.82	88.206	840.82	89.419	840.82	86.1692	840.82	87.1696	840.82	84.7517	840.82	85.4983	840.82	83.3098	840.82	83.7701	840.82	81.2107	840.82	81.1149	840.82	78.1185	840.82	78.4942	840.82	75.2537	840.82	75.2855	840.82	77.68	840.82	77.86	840.82	74.8955	840.82	76.5622	840.82	60.3925	840.82	75.0086	840.82	81.1376	840.82	73.4315	840.82	79.6662	840.82	75.5374	840.82	70.14	840.82	57.8304	840.82	74.3556	840.82	77.9197	840.82	78.8175	840.82	83.1204	840.82	80.6093
870.85	92.653	870.85	92.0264	870.85	92.1579	870.85	90.2877	870.85	90.5148	870.85	87.7383	870.85	87.8196	870.85	85.362	870.85	84.8029	870.85	83.7914	870.85	82.7483	870.85	81.8056	870.85	81.5781	870.85	78.4108	870.85	79.654	870.85	77.1073	870.85	76.6634	870.85	76.2324	870.85	74.9515	870.85	63.7688	870.85	65.5141	870.85	76.6568	870.85	72.5845	870.85	55.7153	870.85	66.1641	870.85	72.5081	870.85	77.1368	870.85	71.4942	870.85	71.5016	870.85	71.3596	870.85	71.6303	870.85	69.5219	870.85	60.9235	870.85	76.0703	870.85	75.1142	870.85	81.3006
901.611	92.125	901.611	91.0398	901.611	91.681	901.611	88.6954	901.611	89.6268	901.611	85.5868	901.611	86.7094	901.611	82.9997	901.611	84.8838	901.611	82.128	901.611	84.4676	901.611	81.8616	901.611	82.8702	901.611	80.5027	901.611	81.4456	901.611	78.9035	901.611	80.9997	901.611	77.7106	901.611	77.2163	901.611	72.3273	901.611	73.9139	901.611	65.4987	901.611	75.1801	901.611	64.6598	901.611	62.6073	901.611	69.948	901.611	69.2108	901.611	65.9173	901.611	72.5109	901.611	69.3913	901.611	75.253	901.611	58.1405	901.611	73.6181	901.611	69.3446	901.611	66.5153	901.611	73.3231
933.105	93.2453	933.105	92.3696	933.105	92.5563	933.105	90.331	933.105	90.8022	933.105	88.2235	933.105	88.897	933.105	86.455	933.105	86.8461	933.105	83.9359	933.105	83.8734	933.105	81.1751	933.105	81.8365	933.105	80.0715	933.105	80.1271	933.105	76.7699	933.105	76.0211	933.105	75.5438	933.105	73.2478	933.105	71.1909	933.105	70.169	933.105	76.5692	933.105	76.6189	933.105	71.409	933.105	69.7751	933.105	72.9005	933.105	73.22	933.105	72.3219	933.105	72.7324	933.105	73.9028	933.105	72.0757	933.105	78.8181	933.105	71.2776	933.105	73.0887	933.105	76.8545	933.105	67.3245
966.064	96.5607	966.064	95.8737	966.064	95.7876	966.064	94.004	966.064	93.6412	966.064	91.5998	966.064	90.7672	966.064	89.4477	966.064	88.2671	966.064	87.0726	966.064	85.8639	966.064	83.8921	966.064	82.8774	966.064	83.4761	966.064	83.0966	966.064	81.1919	966.064	81.6044	966.064	78.8262	966.064	79.6163	966.064	72.6669	966.064	74.7564	966.064	72.3363	966.064	74.6795	966.064	70.7874	966.064	71.8771	966.064	76.8547	966.064	78.8204	966.064	74.3054	966.064	73.1511	966.064	75.3267	966.064	74.7879	966.064	79.9233	966.064	78.0775	966.064	70.823	966.064	75.62	966.064	65.8764
999.756	98.3023	999.756	97.7035	999.756	97.4446	999.756	95.8799	999.756	95.2361	999.756	93.3489	999.756	92.4236	999.756	90.8464	999.756	90.032	999.756	88.5143	999.756	87.6187	999.756	85.4819	999.756	84.8314	999.756	84.1388	999.756	83.2328	999.756	82.163	999.756	79.5379	999.756	79.2716	999.756	75.4305	999.756	75.1602	999.756	73.656	999.756	80.9947	999.756	80.5467	999.756	69.5127	999.756	65.5521	999.756	74.4332	999.756	68.4151	999.756	71.3274	999.756	65.1107	999.756	79.4161	999.756	79.1967	999.756	78.9691	999.756	79.6862	999.756	73.1928	999.756	75.6925	999.756	53.2086
1034.91	100.516	1034.91	99.965	1034.91	99.7746	1034.91	97.9988	1034.91	97.9119	1034.91	94.882	1034.91	95.1518	1034.91	91.6647	1034.91	92.0735	1034.91	89.2398	1034.91	89.8218	1034.91	86.3001	1034.91	87.9694	1034.91	83.6755	1034.91	84.9355	1034.91	82.3078	1034.91	85.2785	1034.91	78.5983	1034.91	83.1428	1034.91	65.3633	1034.91	77.3328	1034.91	79.1011	1034.91	75.8836	1034.91	63.4043	1034.91	54.4703	1034.91	79.0241	1034.91	83.4968	1034.91	77.6983	1034.91	72.7048	1034.91	72.9139	1034.91	75.0561	1034.91	82.7392	1034.91	82.0313	1034.91	80.9585	1034.91	79.2159	1034.91	76.2144
1071.53	101.353	1071.53	100.258	1071.53	100.89	1071.53	97.8072	1071.53	99.0759	1071.53	94.9121	1071.53	96.5485	1071.53	92.7438	1071.53	94.0521	1071.53	90.6408	1071.53	91.3217	1071.53	86.8082	1071.53	87.707	1071.53	84.6892	1071.53	85.6441	1071.53	84.3515	1071.53	81.7195	1071.53	82.4576	1071.53	80.4965	1071.53	78.0812	1071.53	76.7232	1071.53	76.1709	1071.53	80.106	1071.53	75.3076	1071.53	73.5141	1071.53	74.8575	1071.53	76.6809	1071.53	74.2762	1071.53	78.9734	1071.53	79.5097	1071.53	71.3977	1071.53	84.8557	1071.53	82.7187	1071.53	78.5944	1071.53	77.1687	1071.53	80.577
1109.62	101.537	1109.62	100.588	1109.62	100.943	1109.62	98.3558	1109.62	98.9526	1109.62	95.5738	1109.62	96.2571	1109.62	93.1489	1109.62	93.8385	1109.62	91.2289	1109.62	91.6992	1109.62	87.7774	1109.62	88.8283	1109.62	84.2269	1109.62	86.1883	1109.62	83.2096	1109.62	82.832	1109.62	79.2134	1109.62	81.2599	1109.62	78.686	1109.62	85.199	1109.62	79.3813	1109.62	73.6116	1109.62	80.8765	1109.62	66.8229	1109.62	67.8964	1109.62	83.4797	1109.62	78.1055	1109.62	78.6352	1109.62	72.9459	1109.62	77.5771	1109.62	75.7023	1109.62	82.9012	1109.62	82.7726	1109.62	82.4932	1109.62	86.6367
1148.44	101.148	1148.44	100.273	1148.44	100.463	1148.44	98.2743	1148.44	98.2219	1148.44	95.841	1148.44	95.2616	1148.44	93.3453	1148.44	93.004	1148.44	90.7514	1148.44	91.7159	1148.44	88.5241	1148.44	88.2431	1148.44	84.4211	1148.44	82.8183	1148.44	81.5228	1148.44	80.865	1148.44	81.8729	1148.44	76.8178	1148.44	81.5076	1148.44	79.6757	1148.44	70.2927	1148.44	71.1302	1148.44	66.3973	1148.44	73.7807	1148.44	78.4628	1148.44	78.7039	1148.44	69.0685	1148.44	73.5859	1148.44	73.491	1148.44	74.5977	1148.44	77.6687	1148.44	72.4778	1148.44	80.3368	1148.44	78.4598	1148.44	88.4893
1189.45	99.9374	1189.45	99.1566	1189.45	99.0206	1189.45	96.94	1189.45	96.958	1189.45	94.4467	1189.45	94.7754	1189.45	92.6464	1189.45	92.7763	1189.45	91.2171	1189.45	90.1126	1189.45	88.2775	1189.45	86.8221	1189.45	83.0081	1189.45	83.2802	1189.45	83.6106	1189.45	83.9744	1189.45	79.9492	1189.45	77.9983	1189.45	75.2144	1189.45	78.9212	1189.45	70.2605	1189.45	74.0699	1189.45	81.1288	1189.45	73.9117	1189.45	70.1918	1189.45	76.1229	1189.45	70.1096	1189.45	72.3161	1189.45	72.7331	1189.45	80.5845	1189.45	74.9074	1189.45	77.0596	1189.45	79.5634	1189.45	80.0109	1189.45	90.2064
1231.2	99.1794	1231.2	98.2563	1231.2	98.5825	1231.2	96.3323	1231.2	96.715	1231.2	94.3677	1231.2	94.4232	1231.2	92.1955	1231.2	92.4015	1231.2	89.2325	1231.2	90.8654	1231.2	85.592	1231.2	87.8133	1231.2	82.0785	1231.2	81.3093	1231.2	75.962	1231.2	78.851	1231.2	80.2599	1231.2	72.2978	1231.2	73.6514	1231.2	78.5859	1231.2	78.753	1231.2	77.0858	1231.2	70.3337	1231.2	76.4493	1231.2	68.495	1231.2	70.8574	1231.2	77.7582	1231.2	76.6863	1231.2	65.6044	1231.2	76.149	1231.2	64.5839	1231.2	77.0317	1231.2	71.7459	1231.2	75.7091	1231.2	88.4978
1274.41	98.0252	1274.41	97.579	1274.41	97.2583	1274.41	96.0725	1274.41	95.7585	1274.41	94.3055	1274.41	93.7821	1274.41	92.4709	1274.41	90.6236	1274.41	89.1236	1274.41	87.3083	1274.41	85.2076	1274.41	86.2523	1274.41	83.3155	1274.41	79.6841	1274.41	75.1074	1274.41	78.405	1274.41	80.2052	1274.41	80.8541	1274.41	63.2444	1274.41	67.8457	1274.41	69.808	1274.41	75.5951	1274.41	70.8726	1274.41	61.8692	1274.41	76.9203	1274.41	75.6094	1274.41	68.1196	1274.41	72.7392	1274.41	74.7281	1274.41	77.6585	1274.41	72.1594	1274.41	73.0395	1274.41	69.5256	1274.41	67.0074	1274.41	82.2212
1319.82	96.536	1319.82	96.5682	1319.82	95.7611	1319.82	95.713	1319.82	94.5976	1319.82	93.801	1319.82	93.2605	1319.82	91.1626	1319.82	91.3258	1319.82	88.6483	1319.82	88.5267	1319.82	83.952	1319.82	85.1101	1319.82	79.5229	1319.82	82.7582	1319.82	74.4433	1319.82	75.1682	1319.82	71.996	1319.82	73.9105	1319.82	70.7878	1319.82	65.5578	1319.82	76.8458	1319.82	76.0911	1319.82	73.4372	1319.82	67.4056	1319.82	74.4136	1319.82	72.1902	1319.82	68.7213	1319.82	67.7684	1319.82	77.8571	1319.82	77.7854	1319.82	71.5752	1319.82	63.4394	1319.82	73.1767	1319.82	67.6849	1319.82	75.8499
1365.97	97.2103	1365.97	96.5836	1365.97	96.949	1365.97	94.9975	1365.97	95.7195	1365.97	92.3819	1365.97	93.4981	1365.97	89.3305	1365.97	90.8635	1365.97	86.9238	1365.97	87.9287	1365.97	83.6214	1365.97	83.2497	1365.97	81.2404	1365.97	81.4268	1365.97	74.5	1365.97	75.3676	1365.97	77.8434	1365.97	77.4638	1365.97	75.1653	1365.97	71.5164	1365.97	68.5504	1365.97	69.0993	1365.97	72.0507	1365.97	73.1465	1365.97	62.2864	1365.97	67.1196	1365.97	75.6294	1365.97	76.3926	1365.97	68.5641	1365.97	67.4018	1365.97	52.9463	1365.97	60.6075	1365.97	75.4889	1365.97	72.8356	1365.97	75.0362
1414.31	97.0906	1414.31	96.4556	1414.31	96.5518	1414.31	94.7426	1414.31	95.1816	1414.31	92.4664	1414.31	93.1797	1414.31	89.8314	1414.31	90.102	1414.31	86.4034	1414.31	85.9501	1414.31	82.2337	1414.31	82.6091	1414.31	79.4116	1414.31	78.8413	1414.31	75.4597	1414.31	73.2783	1414.31	72.2791	1414.31	70.529	1414.31	66.09	1414.31	68.3363	1414.31	65.5259	1414.31	64.5796	1414.31	74.8473	1414.31	74.1612	1414.31	73.639	1414.31	73.7405	1414.31	60.4692	1414.31	63.8045	1414.31	71.7188	1414.31	74.0823	1414.31	73.1288	1414.31	71.23	1414.31	69.018	1414.31	70.0958	1414.31	66.917
1464.11	96.4198	1464.11	95.925	1464.11	95.8987	1464.11	94.7213	1464.11	94.1339	1464.11	92.7477	1464.11	91.1989	1464.11	89.6745	1464.11	87.5541	1464.11	86.5562	1464.11	84.0041	1464.11	83.2125	1464.11	80.0304	1464.11	79.4795	1464.11	76.2198	1464.11	74.2792	1464.11	72.4735	1464.11	74.7711	1464.11	69.4019	1464.11	72.1884	1464.11	62.9766	1464.11	69.51	1464.11	72.4645	1464.11	68.0685	1464.11	63.7078	1464.11	68.1909	1464.11	65.5965	1464.11	71.2537	1464.11	70.2948	1464.11	72.8512	1464.11	74.6265	1464.11	77.801	1464.11	72.5182	1464.11	75.5953	1464.11	66.4418	1464.11	71.4099
1515.38	96.566	1515.38	95.8099	1515.38	95.8882	1515.38	94.0243	1515.38	93.7085	1515.38	91.2544	1515.38	90.6234	1515.38	87.2671	1515.38	87.3196	1515.38	83.4995	1515.38	83.9902	1515.38	79.1417	1515.38	81.5333	1515.38	74.4796	1515.38	77.3868	1515.38	69.62	1515.38	76.097	1515.38	72.6807	1515.38	73.6011	1515.38	70.25	1515.38	73.207	1515.38	67.0226	1515.38	63.4906	1515.38	69.1347	1515.38	63.8434	1515.38	62.2969	1515.38	71.7942	1515.38	65.9647	1515.38	67.1594	1515.38	68.8525	1515.38	72.28	1515.38	72.9864	1515.38	75.3204	1515.38	72.1087	1515.38	62.4656	1515.38	78.8901
1568.85	96.7879	1568.85	95.9626	1568.85	95.765	1568.85	93.6077	1568.85	93.3093	1568.85	90.2951	1568.85	90.4858	1568.85	86.0269	1568.85	87.355	1568.85	81.1234	1568.85	83.2625	1568.85	77.2351	1568.85	81.1462	1568.85	73.4392	1568.85	76.3088	1568.85	69.4837	1568.85	72.433	1568.85	68.2867	1568.85	69.6757	1568.85	56.4933	1568.85	67.682	1568.85	67.1798	1568.85	62.655	1568.85	60.6211	1568.85	65.1317	1568.85	69.9364	1568.85	67.7368	1568.85	65.6487	1568.85	63.2549	1568.85	70.9312	1568.85	75.9644	1568.85	62.5155	1568.85	62.841	1568.85	68.7223	1568.85	67.0493	1568.85	81.337
1624.51	97.4152	1624.51	96.1313	1624.51	96.2424	1624.51	92.6485	1624.51	93.5439	1624.51	88.7981	1624.51	90.9145	1624.51	86.0291	1624.51	88.0958	1624.51	81.7089	1624.51	83.1101	1624.51	76.2427	1624.51	78.4177	1624.51	72.4093	1624.51	74.8253	1624.51	67.3187	1624.51	69.3577	1624.51	68.9605	1624.51	73.3618	1624.51	65.494	1624.51	65.3574	1624.51	70.6251	1624.51	70.0254	1624.51	62.4979	1624.51	63.9507	1624.51	57.2451	1624.51	62.5558	1624.51	70.2744	1624.51	70.9224	1624.51	61.7361	1624.51	68.7127	1624.51	52.4586	1624.51	67.2762	1624.51	61.0579	1624.51	66.6705	1624.51	78.9993
1681.64	97.7961	1681.64	96.3779	1681.64	96.63	1681.64	92.9947	1681.64	93.3968	1681.64	89.6946	1681.64	89.7863	1681.64	87.1446	1681.64	86.8369	1681.64	83.9315	1681.64	82.6189	1681.64	79.1789	1681.64	77.8522	1681.64	74.2448	1681.64	74.0457	1681.64	69.6435	1681.64	68.1939	1681.64	68.5001	1681.64	66.5272	1681.64	65.1844	1681.64	66.6479	1681.64	62.4845	1681.64	57.9454	1681.64	60.6009	1681.64	62.0811	1681.64	59.0927	1681.64	58.0499	1681.64	60.7962	1681.64	61.553	1681.64	52.5987	1681.64	60.7775	1681.64	66.1704	1681.64	74.1089	1681.64	65.3521	1681.64	64.3559	1681.64	71.0845
1740.97	97.7795	1740.97	96.4474	1740.97	96.576	1740.97	93.2495	1740.97	93.4511	1740.97	89.9526	1740.97	90.1801	1740.97	86.9593	1740.97	87.5328	1740.97	83.174	1740.97	83.7011	1740.97	78.5417	1740.97	78.6739	1740.97	73.5089	1740.97	74.0081	1740.97	70.0878	1740.97	70.7864	1740.97	65.9672	1740.97	64.5216	1740.97	59.1425	1740.97	68.929	1740.97	67.6174	1740.97	52.1694	1740.97	54.8345	1740.97	61.6828	1740.97	65.0277	1740.97	56.2732	1740.97	65.5543	1740.97	66.6077	1740.97	61.8078	1740.97	65.79	1740.97	70.4054	1740.97	68.2957	1740.97	69.6135	1740.97	69.2258	1740.97	63.515
1802.49	97.5827	1802.49	95.9004	1802.49	96.5792	1802.49	92.1292	1802.49	93.5491	1802.49	88.3219	1802.49	90.0561	1802.49	85.3209	1802.49	87.2307	1802.49	81.9962	1802.49	83.3503	1802.49	76.1152	1802.49	77.8025	1802.49	71.5258	1802.49	75.6023	1802.49	63.166	1802.49	65.9931	1802.49	50.5739	1802.49	59.5331	1802.49	66.5701	1802.49	67.7165	1802.49	58.9194	1802.49	61.8769	1802.49	66.2821	1802.49	52.7819	1802.49	56.1106	1802.49	47.9807	1802.49	55.808	1802.49	65.7163	1802.49	66.1601	1802.49	70.0493	1802.49	70.283	1802.49	67.393	1802.49	66.287	1802.49	55.8742	1802.49	75.0589
1866.21	96.8208	1866.21	95.3105	1866.21	95.9217	1866.21	92.7435	1866.21	93.0052	1866.21	90.3582	1866.21	89.692	1866.21	87.0749	1866.21	87.1323	1866.21	83.177	1866.21	84.364	1866.21	77.1149	1866.21	78.3421	1866.21	73.1127	1866.21	77.2557	1866.21	68.5149	1866.21	72.8665	1866.21	49.7627	1866.21	67.163	1866.21	66.1501	1866.21	70.209	1866.21	64.8184	1866.21	67.1541	1866.21	66.5279	1866.21	62.9345	1866.21	59.653	1866.21	66.1719	1866.21	68.4594	1866.21	68.7605	1866.21	61.5813	1866.21	59.5743	1866.21	61.3574	1866.21	69.6616	1866.21	72.3743	1866.21	65.007	1866.21	77.986
1932.13	96.3405	1932.13	95.1882	1932.13	95.5011	1932.13	93.3004	1932.13	93.1969	1932.13	91.4433	1932.13	90.3451	1932.13	88.4471	1932.13	87.1116	1932.13	84.6247	1932.13	83.9043	1932.13	79.7572	1932.13	77.982	1932.13	73.1431	1932.13	76.368	1932.13	72.3284	1932.13	72.1175	1932.13	67.6243	1932.13	68.877	1932.13	60.4452	1932.13	69.7499	1932.13	65.4557	1932.13	68.3193	1932.13	66.3003	1932.13	69.7312	1932.13	54.0854	1932.13	63.4261	1932.13	64.4317	1932.13	61.8463	1932.13	68.3683	1932.13	66.2774	1932.13	70.1989	1932.13	66.825	1932.13	58.372	1932.13	63.37	1932.13	73.8333
2000.24	96.1412	2000.24	95.2946	2000.24	95.5066	2000.24	93.6734	2000.24	93.753	2000.24	91.4906	2000.24	90.7277	2000.24	88.172	2000.24	86.2501	2000.24	84.1837	2000.24	81.7959	2000.24	79.0841	2000.24	73.8879	2000.24	73.6742	2000.24	71.5071	2000.24	70.6733	2000.24	66.3897	2000.24	67.0152	2000.24	64.7747	2000.24	55.7108	2000.24	59.6931	2000.24	66.728	2000.24	59.1023	2000.24	60.8798	2000.24	60.4243	2000.24	58.9816	2000.24	65.1281	2000.24	54.4187	2000.24	57.8269	2000.24	49.7136	2000.24	62.4177	2000.24	66.1347	2000.24	68.2162	2000.24	66.3559	2000.24	45.8227	2000.24	65.4965
2070.56	96.2495	2070.56	95.3034	2070.56	96.0461	2070.56	93.8715	2070.56	94.3448	2070.56	91.482	2070.56	91.1351	2070.56	87.4668	2070.56	86.2428	2070.56	82.7134	2070.56	81.6915	2070.56	77.6984	2070.56	75.1874	2070.56	71.3422	2070.56	70.655	2070.56	66.1095	2070.56	64.4219	2070.56	67.7198	2070.56	64.5702	2070.56	50.3259	2070.56	55.4569	2070.56	63.2461	2070.56	53.501	2070.56	62.8643	2070.56	61.6244	2070.56	60.8353	2070.56	61.0428	2070.56	61.6028	2070.56	62.4932	2070.56	65.4027	2070.56	57.1932	2070.56	66.9797	2070.56	67.7284	2070.56	69.4586	2070.56	69.2113	2070.56	64.9105
2143.8	96.8502	2143.8	96.44	2143.8	95.9444	2143.8	94.8532	2143.8	94.0079	2143.8	92.0427	2143.8	91.3529	2143.8	87.891	2143.8	87.2784	2143.8	82.9404	2143.8	82.5071	2143.8	77.5678	2143.8	76.7736	2143.8	71.2982	2143.8	70.1541	2143.8	67.953	2143.8	67.5246	2143.8	68.867	2143.8	67.6841	2143.8	57.3402	2143.8	58.7818	2143.8	63.3049	2143.8	55.1433	2143.8	57.4223	2143.8	61.8791	2143.8	53.9727	2143.8	62.9775	2143.8	56.3312	2143.8	50.4468	2143.8	62.851	2143.8	64.2792	2143.8	65.5075	2143.8	60.3775	2143.8	67.9543	2143.8	71.2601	2143.8	65.5508
2219.24	96.9339	2219.24	96.36	2219.24	96.0343	2219.24	94.3856	2219.24	94.1369	2219.24	91.2222	2219.24	91.4194	2219.24	86.984	2219.24	87.1318	2219.24	82.59	2219.24	81.7927	2219.24	77.4499	2219.24	75.8841	2219.24	72.7728	2219.24	68.9374	2219.24	65.3525	2219.24	59.1139	2219.24	68.7897	2219.24	64.8093	2219.24	61.7588	2219.24	60.562	2219.24	66.9687	2219.24	60.2054	2219.24	64.0849	2219.24	63.0059	2219.24	58.5526	2219.24	56.8353	2219.24	57.0997	2219.24	51.2851	2219.24	51.78	2219.24	57.6288	2219.24	64.2078	2219.24	58.9784	2219.24	54.152	2219.24	66.899	2219.24	65.7919
2297.61	95.4081	2297.61	94.9781	2297.61	94.6089	2297.61	93.4483	2297.61	92.9349	2297.61	90.8447	2297.61	90.5689	2297.61	86.6164	2297.61	86.7439	2297.61	81.9571	2297.61	81.5976	2297.61	77.9826	2297.61	76.5444	2297.61	70.7804	2297.61	71.6339	2297.61	66.0845	2297.61	63.071	2297.61	69.8888	2297.61	66.6312	2297.61	69.5085	2297.61	51.4898	2297.61	48.1054	2297.61	59.4673	2297.61	61.1933	2297.61	64.4132	2297.61	60.7976	2297.61	59.8739	2297.61	46.0554	2297.61	58.1381	2297.61	61.6816	2297.61	62.9876	2297.61	70.4002	2297.61	68.0345	2297.61	60.9176	2297.61	66.2988	2297.61	68.6009
2378.17	94.4397	2378.17	94.19	2378.17	93.6828	2378.17	93.0235	2378.17	92.2183	2378.17	90.9764	2378.17	90.119	2378.17	87.2854	2378.17	86.5205	2378.17	81.674	2378.17	80.9588	2378.17	77.8182	2378.17	75.8232	2378.17	72.293	2378.17	71.6536	2378.17	69.1035	2378.17	64.6056	2378.17	61.2819	2378.17	66.5293	2378.17	68.8567	2378.17	62.8573	2378.17	46.0667	2378.17	62.8446	2378.17	67.5009	2378.17	64.4003	2378.17	52.9143	2378.17	62.2181	2378.17	55.7894	2378.17	57.8448	2378.17	66.0203	2378.17	66.1512	2378.17	69.2814	2378.17	71.1046	2378.17	67.6937	2378.17	72.1704	2378.17	73.3907
2462.4	95.2398	2462.4	94.2468	2462.4	93.935	2462.4	91.7472	2462.4	91.018	2462.4	89.2467	2462.4	88.1773	2462.4	86.1775	2462.4	85.151	2462.4	80.7386	2462.4	79.6049	2462.4	77.8694	2462.4	75.1223	2462.4	72.7293	2462.4	72.1419	2462.4	70.2077	2462.4	67.5215	2462.4	66.5371	2462.4	65.2753	2462.4	68.306	2462.4	61.3146	2462.4	66.8785	2462.4	64.6	2462.4	61.5627	2462.4	63.6503	2462.4	52.8132	2462.4	61.0867	2462.4	50.7861	2462.4	59.3122	2462.4	65.8544	2462.4	63.686	2462.4	70.7147	2462.4	69.2833	2462.4	71.1882	2462.4	72.7986	2462.4	77.62
2548.83	96.1541	2548.83	94.3264	2548.83	94.5706	2548.83	89.437	2548.83	90.0694	2548.83	84.1421	2548.83	84.9779	2548.83	82.0042	2548.83	82.3448	2548.83	77.4173	2548.83	77.1495	2548.83	71.9015	2548.83	70.3069	2548.83	69.7121	2548.83	69.3317	2548.83	68.781	2548.83	64.4651	2548.83	63.8563	2548.83	64.6315	2548.83	66.6648	2548.83	62.8397	2548.83	62.6247	2548.83	64.1291	2548.83	59.9141	2548.83	59.2095	2548.83	47.5313	2548.83	59.1517	2548.83	52.9548	2548.83	54.1539	2548.83	63.2407	2548.83	63.6142	2548.83	70.6072	2548.83	66.8916	2548.83	68.8562	2548.83	70.0724	2548.83	77.1297
2638.92	96.5278	2638.92	94.7187	2638.92	95.0311	2638.92	90.251	2638.92	90.5698	2638.92	85.1397	2638.92	84.9352	2638.92	81.3114	2638.92	80.9089	2638.92	77.7587	2638.92	77.7346	2638.92	70.8693	2638.92	66.1391	2638.92	64.8396	2638.92	67.8437	2638.92	61.8171	2638.92	61.0462	2638.92	58.9009	2638.92	62.593	2638.92	64.7139	2638.92	57.6366	2638.92	63.1428	2638.92	59.1171	2638.92	55.9362	2638.92	58.3532	2638.92	56.0058	2638.92	52.0984	2638.92	59.0692	2638.92	56.883	2638.92	50.4971	2638.92	43.1556	2638.92	66.5404	2638.92	65.3028	2638.92	69.9904	2638.92	69.1235	2638.92	75.1669
2731.93	96.6753	2731.93	95.0413	2731.93	95.1013	2731.93	91.1288	2731.93	91.0769	2731.93	87.1489	2731.93	86.986	2731.93	83.4642	2731.93	83.2562	2731.93	79.4078	2731.93	79.6898	2731.93	74.1391	2731.93	71.2102	2731.93	68.5594	2731.93	69.077	2731.93	66.4494	2731.93	61.2247	2731.93	59.9745	2731.93	62.5661	2731.93	63.2681	2731.93	62.1334	2731.93	64.6556	2731.93	61.6199	2731.93	59.4841	2731.93	61.0285	2731.93	55.7914	2731.93	48.0191	2731.93	56.164	2731.93	55.1127	2731.93	58.3492	2731.93	55.35	2731.93	61.4929	2731.93	52.8444	2731.93	70.1089	2731.93	69.9799	2731.93	70.726
2828.61	96.5654	2828.61	95.007	2828.61	95.0726	2828.61	91.2639	2828.61	91.34	2828.61	87.1558	2828.61	87.2856	2828.61	83.2229	2828.61	83.3188	2828.61	79.4245	2828.61	79.6677	2828.61	73.5162	2828.61	70.8429	2828.61	68.8714	2828.61	69.5716	2828.61	66.286	2828.61	60.552	2828.61	63.3644	2828.61	62.837	2828.61	57.2047	2828.61	56.6432	2828.61	61.2307	2828.61	60.1378	2828.61	61.395	2828.61	60.3943	2828.61	51.6076	2828.61	49.5091	2828.61	61.8562	2828.61	58.2523	2828.61	49.1067	2828.61	53.6125	2828.61	59.8339	2828.61	58.4383	2828.61	65.9843	2828.61	66.8874	2828.61	69.3399
2928.22	96.4709	2928.22	94.7062	2928.22	94.9481	2928.22	90.8966	2928.22	91.2676	2928.22	87.3363	2928.22	87.7093	2928.22	83.299	2928.22	83.7043	2928.22	79.5252	2928.22	80.5102	2928.22	73.8377	2928.22	72.8141	2928.22	70.0141	2928.22	70.2248	2928.22	66.4276	2928.22	65.6495	2928.22	66.3969	2928.22	63.9071	2928.22	53.088	2928.22	59.7331	2928.22	57.6708	2928.22	63.749	2928.22	65.0407	2928.22	59.7891	2928.22	49.3384	2928.22	51.6919	2928.22	62.4331	2928.22	62.9861	2928.22	60.4848	2928.22	61.3241	2928.22	64.3625	2928.22	58.5488	2928.22	67.8539	2928.22	68.8006	2928.22	63.7054
3031.49	96.4575	3031.49	94.9982	3031.49	95.0083	3031.49	92.0915	3031.49	91.9076	3031.49	88.8234	3031.49	88.6881	3031.49	84.0337	3031.49	84.0134	3031.49	79.8689	3031.49	80.5638	3031.49	73.9532	3031.49	72.7748	3031.49	69.9919	3031.49	70.4459	3031.49	64.6455	3031.49	67.3927	3031.49	66.5537	3031.49	64.6251	3031.49	62.5682	3031.49	62.7444	3031.49	53.4882	3031.49	63.3114	3031.49	61.9125	3031.49	54.812	3031.49	53.3573	3031.49	50.0957	3031.49	56.7084	3031.49	62.8431	3031.49	64.2679	3031.49	55.7659	3031.49	56.6623	3031.49	54.8196	3031.49	67.0714	3031.49	66.1387	3031.49	58.3882
3138.43	96.7302	3138.43	95.3074	3138.43	95.5994	3138.43	92.3963	3138.43	92.9998	3138.43	88.8853	3138.43	89.5893	3138.43	83.6413	3138.43	84.1574	3138.43	79.1837	3138.43	80.118	3138.43	73.7052	3138.43	71.9318	3138.43	69.3995	3138.43	70.3958	3138.43	65.0752	3138.43	66.6932	3138.43	66.5861	3138.43	64.3293	3138.43	60.2496	3138.43	60.6822	3138.43	59.5414	3138.43	63.4171	3138.43	57.7436	3138.43	57.158	3138.43	45.7419	3138.43	46.1937	3138.43	62.5378	3138.43	61.3603	3138.43	64.447	3138.43	65.439	3138.43	60.0632	3138.43	61.1394	3138.43	65.2926	3138.43	60.4176	3138.43	72.1732
3249.02	96.8039	3249.02	95.2848	3249.02	95.5461	3249.02	92.4056	3249.02	92.5372	3249.02	88.7549	3249.02	89.0179	3249.02	82.9111	3249.02	83.4468	3249.02	77.9987	3249.02	78.9501	3249.02	72.5658	3249.02	71.3283	3249.02	68.2983	3249.02	68.3304	3249.02	65.4502	3249.02	67.3889	3249.02	63.7458	3249.02	62.0047	3249.02	64.2271	3249.02	61.448	3249.02	64.8865	3249.02	60.2933	3249.02	48.8762	3249.02	60.1954	3249.02	50.6383	3249.02	50.0144	3249.02	65.7725	3249.02	61.8446	3249.02	60.4763	3249.02	65.19	3249.02	60.0206	3249.02	61.5767	3249.02	65.7747	3249.02	64.9934	3249.02	75.0379
3363.28	98.3784	3363.28	97.1639	3363.28	97.0654	3363.28	94.4041	3363.28	94.4011	3363.28	90.5499	3363.28	90.8495	3363.28	83.9953	3363.28	84.554	3363.28	78.8117	3363.28	79.5454	3363.28	72.483	3363.28	69.5449	3363.28	68.7788	3363.28	67.0227	3363.28	62.8932	3363.28	63.4592	3363.28	60.5023	3363.28	57.5152	3363.28	64.758	3363.28	63.3906	3363.28	58.7693	3363.28	54.9545	3363.28	40.5392	3363.28	52.2052	3363.28	40.9798	3363.28	41.7728	3363.28	58.9487	3363.28	60.7336	3363.28	62.8161	3363.28	60.5497	3363.28	63.4503	3363.28	63.1305	3363.28	68.1769	3363.28	62.3516	3363.28	72.9058
3481.93	97.7779	3481.93	96.3129	3481.93	96.8508	3481.93	94.0514	3481.93	94.7357	3481.93	90.8217	3481.93	91.6434	3481.93	83.6503	3481.93	85.1952	3481.93	77.7382	3481.93	80.4586	3481.93	70.4025	3481.93	70.1752	3481.93	71.0517	3481.93	68.8133	3481.93	54.085	3481.93	60.9173	3481.93	61.3402	3481.93	63.8225	3481.93	58.1658	3481.93	57.1017	3481.93	54.8831	3481.93	56.6078	3481.93	57.941	3481.93	53.1184	3481.93	60.0604	3481.93	57.8524	3481.93	58.09	3481.93	62.0446	3481.93	66.4838	3481.93	56.389	3481.93	68.0612	3481.93	61.6568	3481.93	66.6564	3481.93	66.9406	3481.93	69.0248
3604.98	97.7176	3604.98	97.0327	3604.98	96.7428	3604.98	95.2738	3604.98	94.916	3604.98	92.1894	3604.98	92.0333	3604.98	85.8147	3604.98	85.9528	3604.98	78.9122	3604.98	79.9283	3604.98	72.8854	3604.98	73.4963	3604.98	73.0677	3604.98	66.4844	3604.98	65.7241	3604.98	58.5496	3604.98	61.5412	3604.98	66.0171	3604.98	51.8194	3604.98	57.9197	3604.98	58.0354	3604.98	43.018	3604.98	56.5995	3604.98	63.019	3604.98	62.3938	3604.98	59.198	3604.98	59.1864	3604.98	55.6397	3604.98	52.186	3604.98	60.3831	3604.98	64.4843	3604.98	59.9677	3604.98	66.4183	3604.98	65.3009	3604.98	73.5736
3732.42	97.0663	3732.42	95.625	3732.42	96.3314	3732.42	93.3932	3732.42	94.4017	3732.42	90.5696	3732.42	91.5057	3732.42	84.7377	3732.42	85.9724	3732.42	77.7625	3732.42	80.6763	3732.42	71.736	3732.42	73.1636	3732.42	72.7879	3732.42	68.5846	3732.42	67.1572	3732.42	59.1846	3732.42	55.4287	3732.42	64.6485	3732.42	61.4306	3732.42	63.1418	3732.42	53.4835	3732.42	58.0697	3732.42	59.0022	3732.42	65.1694	3732.42	41.3882	3732.42	57.3091	3732.42	59.856	3732.42	60.6515	3732.42	65.8912	3732.42	65.8251	3732.42	57.852	3732.42	57.3034	3732.42	68.0804	3732.42	62.5057	3732.42	75.1867
3863.53	97.3071	3863.53	96.4801	3863.53	96.3249	3863.53	94.7531	3863.53	94.502	3863.53	91.7795	3863.53	91.5759	3863.53	86.033	3863.53	85.8188	3863.53	80.3643	3863.53	80.9074	3863.53	71.4138	3863.53	72.8	3863.53	72.4881	3863.53	69.4827	3863.53	68.7929	3863.53	60.3268	3863.53	61.5463	3863.53	60.9705	3863.53	62.4651	3863.53	62.1563	3863.53	49.3099	3863.53	56.093	3863.53	56.2589	3863.53	52.6126	3863.53	59.6754	3863.53	60.2534	3863.53	54.0391	3863.53	60.9418	3863.53	57.3109	3863.53	63.0231	3863.53	54.0349	3863.53	47.7378	3863.53	58.1921	3863.53	60.4326	3863.53	75.0899
3999.76	95.4518	3999.76	94.3415	3999.76	94.842	3999.76	92.8735	3999.76	93.3186	3999.76	90.1758	3999.76	90.4657	3999.76	83.3804	3999.76	84.101	3999.76	77.2033	3999.76	78.8099	3999.76	69.853	3999.76	72.3158	3999.76	71.2375	3999.76	67.6812	3999.76	66.5705	3999.76	63.0899	3999.76	64.3611	3999.76	60.9233	3999.76	63.4194	3999.76	62.2468	3999.76	58.9757	3999.76	61.3126	3999.76	52.6764	3999.76	52.0531	3999.76	60.1936	3999.76	49.1858	3999.76	47.4133	3999.76	57.1525	3999.76	63.3089	3999.76	65.4401	3999.76	59.8963	3999.76	59.4314	3999.76	65.2555	3999.76	56.895	3999.76	70.8802
4141.11	95.8044	4141.11	95.3299	4141.11	95.0102	4141.11	94.3595	4141.11	93.8035	4141.11	91.7133	4141.11	91.0487	4141.11	85.2701	4141.11	84.6564	4141.11	78.3786	4141.11	79.4938	4141.11	70.5271	4141.11	71.4169	4141.11	69.9357	4141.11	69.0937	4141.11	68.5251	4141.11	62.2048	4141.11	59.2608	4141.11	53.6213	4141.11	59.3154	4141.11	59.8454	4141.11	58.4388	4141.11	54.0825	4141.11	49.5962	4141.11	51.5642	4141.11	58.6481	4141.11	46.1574	4141.11	60.9836	4141.11	52.5193	4141.11	58.2359	4141.11	61.8598	4141.11	58.4502	4141.11	58.6967	4141.11	59.5491	4141.11	58.889	4141.11	75.0422
4286.87	93.5769	4286.87	93.0321	4286.87	93.6374	4286.87	92.7729	4286.87	93.3793	4286.87	90.567	4286.87	91.0679	4286.87	83.698	4286.87	84.5141	4286.87	75.8493	4286.87	78.873	4286.87	66.9301	4286.87	71.253	4286.87	67.0207	4286.87	67.9954	4286.87	67.1687	4286.87	63.8281	4286.87	66.0776	4286.87	61.3105	4286.87	61.9192	4286.87	61.9859	4286.87	36.9297	4286.87	53.6819	4286.87	58.594	4286.87	52.6236	4286.87	60.2719	4286.87	60.4873	4286.87	48.8669	4286.87	53.6448	4286.87	60.2203	4286.87	60.6617	4286.87	61.8727	4286.87	59.6681	4286.87	65.4352	4286.87	58.7043	4286.87	67.93
4438.48	94.2429	4438.48	94.0394	4438.48	94.384	4438.48	93.7678	4438.48	94.3369	4438.48	91.3422	4438.48	92.0352	4438.48	84.9461	4438.48	85.4717	4438.48	77.2543	4438.48	79.6903	4438.48	69.9353	4438.48	72.8203	4438.48	64.4915	4438.48	66.7267	4438.48	65.9446	4438.48	64.6206	4438.48	64.0027	4438.48	61.0376	4438.48	61.2371	4438.48	63.4086	4438.48	54.8375	4438.48	55.9436	4438.48	49.5015	4438.48	47.6046	4438.48	58.6977	4438.48	56.8929	4438.48	57.2348	4438.48	54.4647	4438.48	53.1996	4438.48	58.19	4438.48	65.8258	4438.48	63.2142	4438.48	48.8526	4438.48	42.4669	4438.48	73.3926
4594.48	93.3396	4594.48	93.6673	4594.48	94.0823	4594.48	94.1177	4594.48	94.6795	4594.48	91.8157	4594.48	92.5858	4594.48	85.1014	4594.48	85.9603	4594.48	76.6481	4594.48	80.0968	4594.48	67.6675	4594.48	73.6188	4594.48	62.699	4594.48	66.167	4594.48	63.0965	4594.48	64.3716	4594.48	62.6524	4594.48	63.6685	4594.48	58.1726	4594.48	62.9933	4594.48	53.4408	4594.48	55.4555	4594.48	52.8393	4594.48	53.4908	4594.48	54.7338	4594.48	57.3798	4594.48	53.2172	4594.48	51.077	4594.48	58.317	4594.48	59.0454	4594.48	65.0355	4594.48	60.1145	4594.48	64.7176	4594.48	59.027	4594.48	70.9868
4757.08	93.9921	4757.08	94.3658	4757.08	94.8782	4757.08	94.5644	4757.08	95.4908	4757.08	91.9305	4757.08	93.2163	4757.08	85.0099	4757.08	86.2999	4757.08	77.2232	4757.08	80.2507	4757.08	69.251	4757.08	73.9732	4757.08	67.4709	4757.08	68.6743	4757.08	55.4018	4757.08	57.559	4757.08	61.2765	4757.08	64.6728	4757.08	57.2124	4757.08	62.3309	4757.08	34.9199	4757.08	57.4657	4757.08	52.5488	4757.08	51.7343	4757.08	57.4788	4757.08	57.0085	4757.08	58.5507	4757.08	47.308	4757.08	21.7838	4757.08	42.7164	4757.08	65.2166	4757.08	61.1563	4757.08	58.6639	4757.08	51.9941	4757.08	71.3479
4924.8	94.7444	4924.8	95.2913	4924.8	95.379	4924.8	95.457	4924.8	95.6874	4924.8	92.89	4924.8	93.2442	4924.8	86.0583	4924.8	86.2106	4924.8	77.6618	4924.8	79.4594	4924.8	70.0682	4924.8	74.0703	4924.8	68.4988	4924.8	69.3523	4924.8	50.3893	4924.8	54.2385	4924.8	61.2774	4924.8	64.3579	4924.8	59.1643	4924.8	61.5701	4924.8	54.1482	4924.8	60.6582	4924.8	54.3727	4924.8	58.5832	4924.8	59.1767	4924.8	53.5122	4924.8	51.8211	4924.8	55.4896	4924.8	56.3076	4924.8	54.934	4924.8	65.2565	4924.8	64.5013	4924.8	59.9908	4924.8	56.6204	4924.8	66.3091
5098.39	94.9351	5098.39	95.0991	5098.39	95.6502	5098.39	95.0137	5098.39	95.7694	5098.39	92.3544	5098.39	93.1325	5098.39	85.4342	5098.39	85.9076	5098.39	76.9138	5098.39	79.1256	5098.39	69.285	5098.39	73.7114	5098.39	68.5714	5098.39	70.3986	5098.39	57.3232	5098.39	58.9889	5098.39	59.7404	5098.39	62.4445	5098.39	56.5689	5098.39	60.5778	5098.39	53.197	5098.39	58.7085	5098.39	57.1232	5098.39	57.4261	5098.39	51.8292	5098.39	59.7118	5098.39	55.4664	5098.39	56.9901	5098.39	52.759	5098.39	54.6979	5098.39	67.6716	5098.39	63.0581	5098.39	58.7031	5098.39	63.0051	5098.39	67.4248
5277.83	95.8593	5277.83	96.1472	5277.83	96.5325	5277.83	96.0508	5277.83	96.7757	5277.83	93.4443	5277.83	94.3664	5277.83	86.9328	5277.83	87.4042	5277.83	78.0739	5277.83	80.2049	5277.83	71.4914	5277.83	75.6194	5277.83	69.6377	5277.83	72.5722	5277.83	62.462	5277.83	66.2191	5277.83	62.9659	5277.83	64.0303	5277.83	32.5833	5277.83	63.6455	5277.83	55.0733	5277.83	58.3499	5277.83	56.1696	5277.83	59.9706	5277.83	52.7155	5277.83	56.9746	5277.83	61.2147	5277.83	51.8902	5277.83	62.5377	5277.83	64.3579	5277.83	69.3959	5277.83	67.1577	5277.83	64.115	5277.83	66.9001	5277.83	68.7314
5463.87	96.8068	5463.87	97.049	5463.87	97.0632	5463.87	96.4755	5463.87	97.0435	5463.87	93.4757	5463.87	94.7166	5463.87	87.0464	5463.87	87.9615	5463.87	77.9956	5463.87	79.9475	5463.87	71.7645	5463.87	75.857	5463.87	68.6169	5463.87	72.9112	5463.87	64.6248	5463.87	67.9522	5463.87	64.2838	5463.87	66.863	5463.87	56.9093	5463.87	66.6043	5463.87	60.2872	5463.87	63.8926	5463.87	57.9159	5463.87	63.5786	5463.87	50.689	5463.87	61.411	5463.87	61.9909	5463.87	52.5355	5463.87	62.4473	5463.87	64.0218	5463.87	72.2608	5463.87	68.4074	5463.87	66.1806	5463.87	67.4134	5463.87	67.7951
5656.49	96.948	5656.49	96.8929	5656.49	97.1952	5656.49	95.9759	5656.49	96.9842	5656.49	92.597	5656.49	94.4872	5656.49	85.8478	5656.49	87.7903	5656.49	77.7383	5656.49	79.4492	5656.49	70.6067	5656.49	74.6292	5656.49	69.4377	5656.49	71.8754	5656.49	65.0026	5656.49	65.3332	5656.49	63.711	5656.49	67.7737	5656.49	60.6979	5656.49	63.764	5656.49	60.6941	5656.49	63.8099	5656.49	51.0174	5656.49	59.0316	5656.49	52.1374	5656.49	60.5584	5656.49	60.3901	5656.49	43.0126	5656.49	64.0959	5656.49	63.9158	5656.49	71.6013	5656.49	68.6973	5656.49	67.6786	5656.49	68.6424	5656.49	68.4671
5856.45	97.0584	5856.45	96.7484	5856.45	97.2252	5856.45	95.557	5856.45	96.704	5856.45	92.033	5856.45	93.9424	5856.45	85.4514	5856.45	87.4159	5856.45	77.1356	5856.45	79.3407	5856.45	70.1117	5856.45	74.0217	5856.45	68.3833	5856.45	71.2751	5856.45	65.5323	5856.45	64.6357	5856.45	59.255	5856.45	66.9895	5856.45	61.4236	5856.45	64.0809	5856.45	56.7187	5856.45	59.9483	5856.45	57.1917	5856.45	62.4759	5856.45	51.1294	5856.45	57.0728	5856.45	58.7106	5856.45	55.9795	5856.45	54.2788	5856.45	66.5932	5856.45	73.3973	5856.45	70.4794	5856.45	65.7244	5856.45	66.945	5856.45	65.8209
6062.99	96.3837	6062.99	96.1475	6062.99	96.3584	6062.99	94.8825	6062.99	95.7366	6062.99	90.9377	6062.99	92.7996	6062.99	83.488	6062.99	85.7295	6062.99	76.6181	6062.99	78.76	6062.99	66.9547	6062.99	71.374	6062.99	68.6766	6062.99	71.5358	6062.99	64.2398	6062.99	58.3804	6062.99	60.8171	6062.99	63.7199	6062.99	59.2359	6062.99	65.954	6062.99	54.1956	6062.99	59.057	6062.99	50.5405	6062.99	58.0183	6062.99	53.6139	6062.99	55.687	6062.99	57.0487	6062.99	32.8609	6062.99	62.1492	6062.99	61.6741	6062.99	69.9666	6062.99	67.1697	6062.99	66.9161	6062.99	67.7575	6062.99	57.5373
6276.86	95.7292	6276.86	95.4125	6276.86	95.6714	6276.86	94.0247	6276.86	94.9894	6276.86	90.0382	6276.86	92.0258	6276.86	82.1938	6276.86	84.8411	6276.86	75.2437	6276.86	77.4834	6276.86	64.0751	6276.86	71.0811	6276.86	67.0095	6276.86	70.7099	6276.86	63.616	6276.86	60.7138	6276.86	61.7223	6276.86	63.0432	6276.86	58.336	6276.86	63.2761	6276.86	59.3996	6276.86	57.8634	6276.86	49.6955	6276.86	58.4758	6276.86	48.8662	6276.86	58.6537	6276.86	55.5096	6276.86	50.6418	6276.86	60.7475	6276.86	62.8214	6276.86	69.5151	6276.86	63.6595	6276.86	67.8633	6276.86	68.1978	6276.86	49.7126
6498.05	95.3177	6498.05	94.7881	6498.05	95.3092	6498.05	93.5221	6498.05	94.3873	6498.05	89.8489	6498.05	91.0962	6498.05	82.0873	6498.05	83.6139	6498.05	74.8663	6498.05	76.0656	6498.05	63.1856	6498.05	68.9256	6498.05	66.1412	6498.05	69.7645	6498.05	61.2545	6498.05	62.9103	6498.05	60.881	6498.05	58.5152	6498.05	61.3518	6498.05	62.1317	6498.05	53.0755	6498.05	43.7627	6498.05	50.3633	6498.05	58.5032	6498.05	47.6714	6498.05	55.1726	6498.05	53.4016	6498.05	50.1474	6498.05	59.0339	6498.05	62.6968	6498.05	66.3946	6498.05	62.1857	6498.05	65.5309	6498.05	63.9105	6498.05	56.8816
6727.29	95.7344	6727.29	95.0232	6727.29	95.4436	6727.29	93.2799	6727.29	94.0672	6727.29	89.0393	6727.29	90.3036	6727.29	80.7014	6727.29	82.3611	6727.29	74.7918	6727.29	76.2455	6727.29	61.8767	6727.29	64.0915	6727.29	64.4459	6727.29	69.4291	6727.29	63.119	6727.29	62.7678	6727.29	52.1527	6727.29	62.645	6727.29	62.2342	6727.29	62.5096	6727.29	51.712	6727.29	51.7751	6727.29	48.863	6727.29	52.4252	6727.29	38.7854	6727.29	56.7076	6727.29	48.1068	6727.29	54.1763	6727.29	57.0331	6727.29	62.9098	6727.29	67.5338	6727.29	63.9648	6727.29	64.5321	6727.29	61.8603	6727.29	53.6166
6964.6	97.0803	6964.6	96.3777	6964.6	96.6164	6964.6	94.6378	6964.6	95.0961	6964.6	90.2889	6964.6	91.3654	6964.6	81.3816	6964.6	82.7664	6964.6	76.174	6964.6	77.5787	6964.6	61.2867	6964.6	66.5076	6964.6	65.7083	6964.6	69.541	6964.6	64.8245	6964.6	60.4772	6964.6	59.8631	6964.6	63.7836	6964.6	57.8398	6964.6	63.1393	6964.6	56.7231	6964.6	51.7532	6964.6	44.7645	6964.6	58.125	6964.6	54.7839	6964.6	57.2224	6964.6	54.8763	6964.6	43.1731	6964.6	53.4776	6964.6	61.7539	6964.6	66.3938	6964.6	66.4141	6964.6	67.023	6964.6	59.7046	6964.6	69.1488
7209.96	98.8117	7209.96	98.1837	7209.96	98.062	7209.96	96.4288	7209.96	96.603	7209.96	92.1019	7209.96	93.0463	7209.96	81.8801	7209.96	84.2084	7209.96	77.8656	7209.96	78.4508	7209.96	62.9315	7209.96	68.6066	7209.96	66.6498	7209.96	69.0998	7209.96	67.0202	7209.96	64.1827	7209.96	60.5019	7209.96	62.1119	7209.96	64.9449	7209.96	66.5706	7209.96	53.6433	7209.96	43.3094	7209.96	51.7321	7209.96	60.0274	7209.96	55.2052	7209.96	56.8704	7209.96	58.6636	7209.96	54.5496	7209.96	61.4862	7209.96	66.9276	7209.96	68.8553	7209.96	67.8043	7209.96	66.3557	7209.96	62.6443	7209.96	75.4067
7464.11	99.2704	7464.11	98.5792	7464.11	98.8124	7464.11	97.4332	7464.11	97.7297	7464.11	93.8592	7464.11	94.214	7464.11	84.0349	7464.11	85.1869	7464.11	78.8515	7464.11	79.1222	7464.11	66.0991	7464.11	69.8569	7464.11	69.733	7464.11	69.8152	7464.11	66.9355	7464.11	66.4457	7464.11	52.262	7464.11	57.2357	7464.11	66.0927	7464.11	65.6648	7464.11	62.1627	7464.11	58.467	7464.11	58.4748	7464.11	61.044	7464.11	52.5522	7464.11	57.6772	7464.11	56.0058	7464.11	53.6118	7464.11	63.7004	7464.11	67.6397	7464.11	72.3215	7464.11	66.3675	7464.11	63.8159	7464.11	64.0237	7464.11	78.4554
7727.78	98.2474	7727.78	97.9253	7727.78	98.3497	7727.78	97.7017	7727.78	97.9777	7727.78	94.3625	7727.78	94.5866	7727.78	84.5147	7727.78	84.9321	7727.78	79.2095	7727.78	79.8433	7727.78	64.5218	7727.78	67.6391	7727.78	70.5193	7727.78	71.2025	7727.78	65.9446	7727.78	67.1956	7727.78	56.9864	7727.78	53.1448	7727.78	64.7934	7727.78	67.3771	7727.78	64.7136	7727.78	58.1317	7727.78	63.5851	7727.78	63.6373	7727.78	58.1074	7727.78	54.7955	7727.78	52.9772	7727.78	53.5254	7727.78	59.0595	7727.78	68.489	7727.78	74.0589	7727.78	68.2587	7727.78	59.1187	7727.78	65.2874	7727.78	79.9586
8000.24	97.2209	8000.24	97.5236	8000.24	97.5272	8000.24	97.5199	8000.24	97.4412	8000.24	93.6401	8000.24	93.8641	8000.24	82.3087	8000.24	83.294	8000.24	78.5866	8000.24	78.9082	8000.24	61.5471	8000.24	65.7997	8000.24	69.3703	8000.24	71.4911	8000.24	67.2172	8000.24	67.6647	8000.24	65.2759	8000.24	52.3806	8000.24	65.6656	8000.24	67.2925	8000.24	64.3821	8000.24	63.4143	8000.24	66.1738	8000.24	64.3132	8000.24	60.9022	8000.24	55.0964	8000.24	54.913	8000.24	58.0168	8000.24	59.6085	8000.24	70.5576	8000.24	74.7162	8000.24	72.2122	8000.24	63.1829	8000.24	69.544	8000.24	80.4165
8282.23	96.5691	8282.23	97.0189	8282.23	96.8504	8282.23	96.8962	8282.23	96.686	8282.23	92.9169	8282.23	93.0086	8282.23	81.3549	8282.23	82.1951	8282.23	77.899	8282.23	77.9066	8282.23	55.5136	8282.23	61.4569	8282.23	69.5453	8282.23	70.9521	8282.23	66.2027	8282.23	64.394	8282.23	66.4111	8282.23	52.6675	8282.23	63.6619	8282.23	65.303	8282.23	62.2946	8282.23	63.6147	8282.23	65.9737	8282.23	63.0474	8282.23	59.9356	8282.23	54.3583	8282.23	54.9579	8282.23	60.4252	8282.23	57.9576	8282.23	68.4155	8282.23	74.0315	8282.23	69.8425	8282.23	61.3271	8282.23	69.6641	8282.23	78.932
8574.46	95.4287	8574.46	95.995	8574.46	95.8102	8574.46	95.7744	8574.46	95.4605	8574.46	91.2514	8574.46	90.9647	8574.46	75.6773	8574.46	75.9736	8574.46	76.6203	8574.46	76.5801	8574.46	63.0277	8574.46	63.9195	8574.46	68.8247	8574.46	69.3864	8574.46	66.6322	8574.46	66.3035	8574.46	66.8208	8574.46	61.7404	8574.46	63.8937	8574.46	63.4602	8574.46	64.1938	8574.46	64.6737	8574.46	67.4983	8574.46	64.4968	8574.46	61.7805	8574.46	61.2008	8574.46	55.1412	8574.46	60.1703	8574.46	58.4176	8574.46	69.4516	8574.46	73.8917	8574.46	71.0645	8574.46	59.7527	8574.46	67.7208	8574.46	78.7866
8876.22	95.5682	8876.22	95.658	8876.22	95.4046	8876.22	94.7641	8876.22	94.1667	8876.22	90.6963	8876.22	89.7678	8876.22	79.4765	8876.22	77.7705	8876.22	70.5113	8876.22	69.7242	8876.22	67.8579	8876.22	67.5871	8876.22	66.2111	8876.22	67.0863	8876.22	61.5118	8876.22	65.1098	8876.22	67.636	8876.22	65.5702	8876.22	59.2457	8876.22	58.6184	8876.22	62.8766	8876.22	65.9923	8876.22	67.4211	8876.22	64.315	8876.22	61.5759	8876.22	62.9307	8876.22	56.5765	8876.22	50.1982	8876.22	52.4638	8876.22	66.4593	8876.22	67.7073	8876.22	66.7983	8876.22	66.5944	8876.22	69.7379	8876.22	76.5495
9189.7	97.0474	9189.7	96.963	9189.7	96.05	9189.7	95.8736	9189.7	94.3465	9189.7	92.6119	9189.7	91.2429	9189.7	83.8633	9189.7	83.1891	9189.7	74.0381	9189.7	69.5008	9189.7	69.2457	9189.7	70.2588	9189.7	69.9881	9189.7	67.0354	9189.7	55.3522	9189.7	64.5068	9189.7	68.3569	9189.7	64.615	9189.7	61.3004	9189.7	51.4094	9189.7	59.0734	9189.7	64.196	9189.7	65.7309	9189.7	60.9934	9189.7	63.4469	9189.7	60.3188	9189.7	59.1976	9189.7	55.3906	9189.7	37.4834	9189.7	62.9947	9189.7	56.2	9189.7	60.7544	9189.7	66.0709	9189.7	69.1825	9189.7	71.9884
9513.43	97.7023	9513.43	97.6258	9513.43	97.0127	9513.43	97.0513	9513.43	96.2442	9513.43	94.2616	9513.43	93.9901	9513.43	85.6874	9513.43	86.6339	9513.43	76.1859	9513.43	75.406	9513.43	69.5892	9513.43	71.7917	9513.43	71.7844	9513.43	70.0687	9513.43	58.4822	9513.43	64.4155	9513.43	67.2333	9513.43	66.1738	9513.43	63.3301	9513.43	60.0575	9513.43	56.0864	9513.43	64.2	9513.43	63.4555	9513.43	61.6495	9513.43	63.387	9513.43	57.6476	9513.43	54.95	9513.43	59.1029	9513.43	43.1193	9513.43	61.5758	9513.43	63.5484	9513.43	63.9581	9513.43	67.3941	9513.43	67.9193	9513.43	71.8693
9848.88	98.6789	9848.88	98.0803	9848.88	98.393	9848.88	96.6586	9848.88	97.6483	9848.88	93.0776	9848.88	95.0431	9848.88	84.106	9848.88	87.2482	9848.88	73.6895	9848.88	78.4725	9848.88	67.1629	9848.88	72.9307	9848.88	67.7396	9848.88	72.1975	9848.88	61.1777	9848.88	64.5794	9848.88	63.9435	9848.88	66.966	9848.88	56.9201	9848.88	66.4758	9848.88	52.3148	9848.88	61.0969	9848.88	59.8999	9848.88	61.125	9848.88	54.9361	9848.88	61.9762	9848.88	41.7039	9848.88	61.792	9848.88	59.2539	9848.88	57.6582	9848.88	66.2738	9848.88	66.2528	9848.88	71.7388	9848.88	71.5572	9848.88	68.4584
10196.8	99.4993	10196.8	98.3122	10196.8	99.0926	10196.8	96.4831	10196.8	97.8818	10196.8	92.9701	10196.8	94.903	10196.8	83.6514	10196.8	86.0601	10196.8	75.5818	10196.8	77.5329	10196.8	64.8597	10196.8	69.5793	10196.8	68.9696	10196.8	71.6015	10196.8	60.3565	10196.8	60.8514	10196.8	65.5385	10196.8	66.2615	10196.8	61.6089	10196.8	67.4224	10196.8	51.2752	10196.8	60.4189	10196.8	57.1356	10196.8	55.535	10196.8	55.4451	10196.8	62.7997	10196.8	49.2757	10196.8	63.9163	10196.8	56.8885	10196.8	57.4651	10196.8	63.5314	10196.8	65.2098	10196.8	70.3217	10196.8	68.4724	10196.8	67.2068
10556.4	99.4862	10556.4	98.5073	10556.4	99.1036	10556.4	97.0303	10556.4	97.8055	10556.4	93.6757	10556.4	94.6648	10556.4	83.9533	10556.4	85.5659	10556.4	74.5125	10556.4	76.4726	10556.4	65.9201	10556.4	70.7583	10556.4	71.4599	10556.4	70.1247	10556.4	56.2123	10556.4	56.1552	10556.4	68.5377	10556.4	66.4437	10556.4	58.3479	10556.4	64.7562	10556.4	60.6807	10556.4	65.8067	10556.4	63.6224	10556.4	60.6935	10556.4	60.1984	10556.4	59.1929	10556.4	54.3763	10556.4	62.3331	10556.4	42.532	10556.4	63.6839	10556.4	65.6982	10556.4	66.5492	10556.4	69.604	10556.4	66.3618	10556.4	69.5989
10928.5	98.5947	10928.5	97.6312	10928.5	97.65	10928.5	96.4381	10928.5	96.0469	10928.5	94.3424	10928.5	94.1022	10928.5	87.3475	10928.5	87.3147	10928.5	75.149	10928.5	74.0634	10928.5	72.2017	10928.5	75.7316	10928.5	70.6003	10928.5	68.3018	10928.5	67.2095	10928.5	65.6367	10928.5	67.5953	10928.5	66.709	10928.5	60.2675	10928.5	63.2093	10928.5	65.3877	10928.5	66.0707	10928.5	64.5201	10928.5	66.2361	10928.5	62.3406	10928.5	63.1465	10928.5	57.6321	10928.5	57.3317	10928.5	54.6355	10928.5	63.1849	10928.5	70.2017	10928.5	68.227	10928.5	71.4929	10928.5	62.6082	10928.5	67.8465
11313.7	97.571	11313.7	97.1619	11313.7	96.4678	11313.7	96.6941	11313.7	95.5866	11313.7	94.5274	11313.7	93.734	11313.7	86.828	11313.7	86.8326	11313.7	77.7833	11313.7	75.7206	11313.7	70.7383	11313.7	73.1296	11313.7	69.5787	11313.7	68.3023	11313.7	66.2744	11313.7	61.6023	11313.7	66.7436	11313.7	64.2928	11313.7	65.3022	11313.7	62.3711	11313.7	53.5761	11313.7	60.635	11313.7	59.2501	11313.7	59.9173	11313.7	61.0137	11313.7	56.001	11313.7	51.2518	11313.7	56.6543	11313.7	56.6439	11313.7	55.1952	11313.7	69.9546	11313.7	60.5343	11313.7	66.0399	11313.7	67.6448	11313.7	70.6245
11712.9	97.6025	11712.9	97.14	11712.9	96.8054	11712.9	96.5704	11712.9	96.4908	11712.9	94.1936	11712.9	94.4585	11712.9	85.9108	11712.9	86.6672	11712.9	77.1115	11712.9	77.7393	11712.9	68.9325	11712.9	71.7559	11712.9	69.7119	11712.9	71.8222	11712.9	55.3485	11712.9	54.0311	11712.9	64.1161	11712.9	62.6705	11712.9	60.5539	11712.9	66.6684	11712.9	47.1055	11712.9	59.9085	11712.9	54.3596	11712.9	54.4848	11712.9	56.2548	11712.9	57.3738	11712.9	54.8107	11712.9	51.2025	11712.9	54.636	11712.9	45.9334	11712.9	70.1968	11712.9	58.1838	11712.9	65.5145	11712.9	68.7217	11712.9	72.727
12126	97.6928	12126	96.6884	12126	97.5686	12126	96.1326	12126	97.4545	12126	93.9622	12126	95.1659	12126	85.7661	12126	86.5926	12126	77.8762	12126	77.4727	12126	70.6619	12126	70.5744	12126	70.1986	12126	73.1381	12126	63.5242	12126	53.8369	12126	65.5997	12126	65.632	12126	63.1512	12126	66.791	12126	52.8673	12126	61.6402	12126	59.9089	12126	57.6723	12126	55.7984	12126	59.3808	12126	59.9512	12126	56.0107	12126	58.4025	12126	45.7481	12126	68.596	12126	58.2844	12126	69.4747	12126	65.7613	12126	73.6071
12553.7	97.5833	12553.7	96.2084	12553.7	97.6487	12553.7	96.3884	12553.7	97.7426	12553.7	94.6936	12553.7	95.8602	12553.7	86.2686	12553.7	87.9897	12553.7	78.4474	12553.7	77.6692	12553.7	70.4668	12553.7	70.704	12553.7	71.4436	12553.7	73.9093	12553.7	64.1033	12553.7	53.249	12553.7	67.5858	12553.7	66.4662	12553.7	65.0762	12553.7	66.48	12553.7	50.4805	12553.7	61.3534	12553.7	60.7703	12553.7	58.0363	12553.7	58.693	12553.7	57.0835	12553.7	58.3141	12553.7	56.168	12553.7	60.754	12553.7	54.2489	12553.7	62.8979	12553.7	57.0985	12553.7	69.2164	12553.7	60.301	12553.7	77.0699
12996.1	96.6037	12996.1	95.9649	12996.1	96.6441	12996.1	96.6498	12996.1	96.7999	12996.1	94.7924	12996.1	94.8823	12996.1	86.3723	12996.1	86.7938	12996.1	77.4835	12996.1	77.1983	12996.1	71.4832	12996.1	70.4817	12996.1	70.6628	12996.1	73.8043	12996.1	62.1121	12996.1	59.5194	12996.1	64.5548	12996.1	66.3624	12996.1	64.3488	12996.1	66.749	12996.1	49.4602	12996.1	61.5992	12996.1	58.4965	12996.1	58.2221	12996.1	56.7997	12996.1	57.7056	12996.1	60.0409	12996.1	58.2697	12996.1	62.1441	12996.1	58.2936	12996.1	66.0166	12996.1	60.5489	12996.1	68.0825	12996.1	64.5992	12996.1	75.6483
13454.6	96.5192	13454.6	95.8159	13454.6	96.2269	13454.6	96.6757	13454.6	96.3589	13454.6	94.8899	13454.6	94.5648	13454.6	86.22	13454.6	86.5954	13454.6	77.6822	13454.6	77.0334	13454.6	68.7373	13454.6	64.8424	13454.6	71.7493	13454.6	72.8302	13454.6	63.4704	13454.6	61.1727	13454.6	65.3703	13454.6	64.3372	13454.6	63.4245	13454.6	67.3977	13454.6	25.9251	13454.6	59.8627	13454.6	51.6623	13454.6	51.1467	13454.6	53.9916	13454.6	49.7432	13454.6	58.2157	13454.6	58.4388	13454.6	60.3124	13454.6	56.7818	13454.6	67.688	13454.6	63.3777	13454.6	65.3292	13454.6	63.13	13454.6	78.5109
13928.5	95.4473	13928.5	94.9759	13928.5	95.3246	13928.5	96.1497	13928.5	96.1071	13928.5	94.3668	13928.5	94.4562	13928.5	85.6878	13928.5	86.0057	13928.5	77.4581	13928.5	78.5301	13928.5	68.4287	13928.5	64.1938	13928.5	69.7483	13928.5	73.0203	13928.5	62.2905	13928.5	59.0051	13928.5	62.1446	13928.5	64.7481	13928.5	62.7624	13928.5	67.7145	13928.5	43.2213	13928.5	59.1604	13928.5	55.5822	13928.5	47.9876	13928.5	48.2045	13928.5	53.6941	13928.5	60.5426	13928.5	56.2963	13928.5	58.3552	13928.5	56.5692	13928.5	68.2934	13928.5	65.9283	13928.5	66.8278	13928.5	64.1886	13928.5	79.5087
14419.9	94.9677	14419.9	94.0938	14419.9	96.1681	14419.9	95.7567	14419.9	97.606	14419.9	93.6811	14419.9	96.0074	14419.9	84.1935	14419.9	87.4601	14419.9	77.3323	14419.9	79.9201	14419.9	68.1137	14419.9	66.1123	14419.9	70.177	14419.9	74.8774	14419.9	63.5481	14419.9	61.8581	14419.9	66.542	14419.9	66.7644	14419.9	61.762	14419.9	70.2448	14419.9	50.5807	14419.9	57.8248	14419.9	61.9506	14419.9	53.392	14419.9	59.7371	14419.9	58.9763	14419.9	65.7155	14419.9	63.4014	14419.9	62.0081	14419.9	62.1268	14419.9	69.3253	14419.9	68.2749	14419.9	71.1802	14419.9	66.5078	14419.9	80.0227
14928.2	97.1602	14928.2	98.0396	14928.2	96.6455	14928.2	100.317	14928.2	97.7711	14928.2	98.3446	14928.2	96.3521	14928.2	88.1406	14928.2	87.181	14928.2	81.4592	14928.2	80.7307	14928.2	69.9326	14928.2	64.3663	14928.2	76.3163	14928.2	74.4231	14928.2	67.3808	14928.2	64.9984	14928.2	70.3511	14928.2	64.8398	14928.2	71.7104	14928.2	69.5342	14928.2	57.5885	14928.2	64.08	14928.2	66.9454	14928.2	47.1351	14928.2	66.3108	14928.2	58.0874	14928.2	64.9078	14928.2	68.0625	14928.2	64.0799	14928.2	62.502	14928.2	74.4137	14928.2	68.8313	14928.2	68.92	14928.2	73.9824	14928.2	82.8424
15454.8	95.6632	15454.8	96.6663	15454.8	97.0007	15454.8	99.702	15454.8	99.8925	15454.8	98.1179	15454.8	98.6108	15454.8	88.4283	15454.8	89.3135	15454.8	79.6446	15454.8	82.2962	15454.8	70.3662	15454.8	71.0022	15454.8	75.2737	15454.8	77.421	15454.8	63.4536	15454.8	61.7043	15454.8	71.104	15454.8	69.6527	15454.8	67.5727	15454.8	71.2275	15454.8	65.9999	15454.8	67.89	15454.8	64.4322	15454.8	64.7552	15454.8	61.2622	15454.8	60.2362	15454.8	64.4056	15454.8	61.8402	15454.8	59.6707	15454.8	60.9751	15454.8	71.3934	15454.8	70.8878	15454.8	73.797	15454.8	73.1865	15454.8	83.4989
15999.8	95.6	15999.8	97.2519	15999.8	97.1592	15999.8	99.8246	15999.8	99.7259	15999.8	97.6334	15999.8	98.5535	15999.8	87.6259	15999.8	89.5501	15999.8	76.2459	15999.8	81.0314	15999.8	63.757	15999.8	69.5108	15999.8	74.5529	15999.8	77.8468	15999.8	58.5453	15999.8	64.0776	15999.8	69.9977	15999.8	70.4464	15999.8	65.9988	15999.8	72.1156	15999.8	61.7784	15999.8	66.9373	15999.8	67.1236	15999.8	63.1787	15999.8	63.2957	15999.8	59.1326	15999.8	69.1283	15999.8	67.0546	15999.8	61.5564	15999.8	66.1543	15999.8	70.7742	15999.8	70.482	15999.8	74.3403	15999.8	73.123	15999.8	82.836
16564.5	91.6159	16564.5	96.1944	16564.5	93.5283	16564.5	99.8714	16564.5	98.2649	16564.5	98.0145	16564.5	97.879	16564.5	88.6111	16564.5	89.5955	16564.5	76.9933	16564.5	81.1949	16564.5	57.4342	16564.5	72.6915	16564.5	75.3315	16564.5	75.0511	16564.5	65.0653	16564.5	58.717	16564.5	71.944	16564.5	68.0431	16564.5	67.8805	16564.5	70.2291	16564.5	57.4398	16564.5	65.2317	16564.5	68.2471	16564.5	59.5975	16564.5	65.079	16564.5	53.0142	16564.5	68.1255	16564.5	66.1348	16564.5	63.4873	16564.5	65.055	16564.5	72.2146	16564.5	68.1374	16564.5	72.2406	16564.5	74.3745	16564.5	83.549
17148.2	91.4167	17148.2	95.9555	17148.2	94.683	17148.2	99.0077	17148.2	98.5485	17148.2	96.9149	17148.2	97.3171	17148.2	87.4755	17148.2	88.2513	17148.2	77.3151	17148.2	80.5672	17148.2	62.2971	17148.2	70.9635	17148.2	74.362	17148.2	74.8954	17148.2	61.23	17148.2	64.7978	17148.2	70.7567	17148.2	68.412	17148.2	67.7776	17148.2	68.225	17148.2	62.8899	17148.2	66.826	17148.2	68.6609	17148.2	62.9409	17148.2	64.4112	17148.2	56.5852	17148.2	63.1303	17148.2	66.2303	17148.2	59.2157	17148.2	66.2191	17148.2	71.9198	17148.2	66.1799	17148.2	70.3575	17148.2	74.016	17148.2	81.8246
17753.2	97.1924	17753.2	98.3241	17753.2	98.1191	17753.2	98.7747	17753.2	99.0247	17753.2	95.7142	17753.2	96.4928	17753.2	86.2312	17753.2	86.6098	17753.2	76.0395	17753.2	78.7667	17753.2	67.5739	17753.2	70.1491	17753.2	73.3708	17753.2	74.4152	17753.2	53.4843	17753.2	61.0603	17753.2	70.7131	17753.2	69.0076	17753.2	65.1034	17753.2	66.7389	17753.2	63.5983	17753.2	66.9208	17753.2	67.9299	17753.2	64.4617	17753.2	65.1988	17753.2	59.1897	17753.2	64.5151	17753.2	66.8237	17753.2	57.6693	17753.2	68.1272	17753.2	68.5433	17753.2	66.6516	17753.2	70.3209	17753.2	72.7769	17753.2	75.7805
18379.4	99.4282	18379.4	99.9524	18379.4	99.7592	18379.4	100.015	18379.4	99.764	18379.4	97.2207	18379.4	96.7511	18379.4	88.4517	18379.4	87.0892	18379.4	79.2657	18379.4	76.4554	18379.4	71.2283	18379.4	70.6085	18379.4	73.8004	18379.4	71.8217	18379.4	57.2318	18379.4	58.45	18379.4	69.2436	18379.4	66.1453	18379.4	67.9248	18379.4	63.3023	18379.4	56.8064	18379.4	64.7348	18379.4	66.2646	18379.4	61.525	18379.4	66.0161	18379.4	54.9553	18379.4	63.1327	18379.4	67.2444	18379.4	62.0432	18379.4	67.021	18379.4	58.2847	18379.4	60.6218	18379.4	65.67	18379.4	70.6301	18379.4	78.8561
19027.6	96.5717	19027.6	96.9406	19027.6	97.8514	19027.6	97.7045	19027.6	98.6987	19027.6	95.1718	19027.6	96.0372	19027.6	85.8301	19027.6	86.1848	19027.6	77.89	19027.6	76.2516	19027.6	70.4466	19027.6	65.9812	19027.6	68.9228	19027.6	71.8823	19027.6	53.0792	19027.6	56.8278	19027.6	65.2898	19027.6	65.4418	19027.6	62.6034	19027.6	65.2819	19027.6	57.5074	19027.6	63.4	19027.6	62.4915	19027.6	58.9293	19027.6	59.5135	19027.6	54.3055	19027.6	57.6579	19027.6	58.3986	19027.6	56.4149	19027.6	58.7886	19027.6	62.6523	19027.6	59.6657	19027.6	70.0582	19027.6	70.0008	19027.6	80.5584
19698.5	90.9202	19698.5	92.7184	19698.5	92.4286	19698.5	94.1232	19698.5	94.3099	19698.5	91.5133	19698.5	92.5483	19698.5	81.9218	19698.5	83.683	19698.5	74.8617	19698.5	72.8448	19698.5	68.3415	19698.5	64.5562	19698.5	67.1295	19698.5	70.1339	19698.5	50.2937	19698.5	54.4993	19698.5	64.9619	19698.5	62.4902	19698.5	58.4422	19698.5	64.3331	19698.5	53.1435	19698.5	61.1919	19698.5	62.8906	19698.5	58.0488	19698.5	60.3029	19698.5	56.1097	19698.5	60.9289	19698.5	60.5752	19698.5	57.5341	19698.5	62.8012	19698.5	59.11	19698.5	56.3323	19698.5	65.7788	19698.5	68.0872	19698.5	75.4233
19999.5	87.2522	19999.5	89.858	19999.5	88.7814	19999.5	91.4734	19999.5	91.0135	19999.5	88.738	19999.5	89.2261	19999.5	78.3393	19999.5	79.9686	19999.5	73.0385	19999.5	71.0641	19999.5	65.8715	19999.5	61.1857	19999.5	65.611	19999.5	65.8394	19999.5	42.4429	19999.5	57.3356	19999.5	63.1374	19999.5	59.9742	19999.5	59.2271	19999.5	60.85	19999.5	51.9937	19999.5	58.6134	19999.5	62.3688	19999.5	51.8747	19999.5	58.2252	19999.5	51.9246	19999.5	59.4773	19999.5	61.3442	19999.5	51.3803	19999.5	60.9413	19999.5	62.3904	19999.5	56.342	19999.5	58.6439	19999.5	66.5773	19999.5	72.8423
