"SPL Horizontal"
"On-Axis"		"10°"		"-10°"		"20°"		"-20°"		"30°"		"-30°"		"40°"		"-40°"		"50°"		"-50°"		"60°"		"-60°"		"70°"		"-70°"		"80°"		"-80°"		"90°"		"-90°"		"100°"		"-100°"		"110°"		"-110°"		"120°"		"-120°"		"130°"		"-130°"		"140°"		"-140°"		"150°"		"-150°"		"160°"		"-160°"		"170°"		"-170°"		"180°"
"Frequency / Hz"	"Sound Pressure Level / dB (re 20 µPa/V)  [2.83V at 1m]"	"Frequency / Hz"	"Sound Pressure Level / dB (re 20 µPa/V)  [2.83V at 1m]"	"Frequency / Hz"	"Sound Pressure Level / dB (re 20 µPa/V)  [2.83V at 1m]"	"Frequency / Hz"	"Sound Pressure Level / dB (re 20 µPa/V)  [2.83V at 1m]"	"Frequency / Hz"	"Sound Pressure Level / dB (re 20 µPa/V)  [2.83V at 1m]"	"Frequency / Hz"	"Sound Pressure Level / dB (re 20 µPa/V)  [2.83V at 1m]"	"Frequency / Hz"	"Sound Pressure Level / dB (re 20 µPa/V)  [2.83V at 1m]"	"Frequency / Hz"	"Sound Pressure Level / dB (re 20 µPa/V)  [2.83V at 1m]"	"Frequency / Hz"	"Sound Pressure Level / dB (re 20 µPa/V)  [2.83V at 1m]"	"Frequency / Hz"	"Sound Pressure Level / dB (re 20 µPa/V)  [2.83V at 1m]"	"Frequency / Hz"	"Sound Pressure Level / dB (re 20 µPa/V)  [2.83V at 1m]"	"Frequency / Hz"	"Sound Pressure Level / dB (re 20 µPa/V)  [2.83V at 1m]"	"Frequency / Hz"	"Sound Pressure Level / dB (re 20 µPa/V)  [2.83V at 1m]"	"Frequency / Hz"	"Sound Pressure Level / dB (re 20 µPa/V)  [2.83V at 1m]"	"Frequency / Hz"	"Sound Pressure Level / dB (re 20 µPa/V)  [2.83V at 1m]"	"Frequency / Hz"	"Sound Pressure Level / dB (re 20 µPa/V)  [2.83V at 1m]"	"Frequency / Hz"	"Sound Pressure Level / dB (re 20 µPa/V)  [2.83V at 1m]"	"Frequency / Hz"	"Sound Pressure Level / dB (re 20 µPa/V)  [2.83V at 1m]"	"Frequency / Hz"	"Sound Pressure Level / dB (re 20 µPa/V)  [2.83V at 1m]"	"Frequency / Hz"	"Sound Pressure Level / dB (re 20 µPa/V)  [2.83V at 1m]"	"Frequency / Hz"	"Sound Pressure Level / dB (re 20 µPa/V)  [2.83V at 1m]"	"Frequency / Hz"	"Sound Pressure Level / dB (re 20 µPa/V)  [2.83V at 1m]"	"Frequency / Hz"	"Sound Pressure Level / dB (re 20 µPa/V)  [2.83V at 1m]"	"Frequency / Hz"	"Sound Pressure Level / dB (re 20 µPa/V)  [2.83V at 1m]"	"Frequency / Hz"	"Sound Pressure Level / dB (re 20 µPa/V)  [2.83V at 1m]"	"Frequency / Hz"	"Sound Pressure Level / dB (re 20 µPa/V)  [2.83V at 1m]"	"Frequency / Hz"	"Sound Pressure Level / dB (re 20 µPa/V)  [2.83V at 1m]"	"Frequency / Hz"	"Sound Pressure Level / dB (re 20 µPa/V)  [2.83V at 1m]"	"Frequency / Hz"	"Sound Pressure Level / dB (re 20 µPa/V)  [2.83V at 1m]"	"Frequency / Hz"	"Sound Pressure Level / dB (re 20 µPa/V)  [2.83V at 1m]"	"Frequency / Hz"	"Sound Pressure Level / dB (re 20 µPa/V)  [2.83V at 1m]"	"Frequency / Hz"	"Sound Pressure Level / dB (re 20 µPa/V)  [2.83V at 1m]"	"Frequency / Hz"	"Sound Pressure Level / dB (re 20 µPa/V)  [2.83V at 1m]"	"Frequency / Hz"	"Sound Pressure Level / dB (re 20 µPa/V)  [2.83V at 1m]"	"Frequency / Hz"	"Sound Pressure Level / dB (re 20 µPa/V)  [2.83V at 1m]"	"Frequency / Hz"	"Sound Pressure Level / dB (re 20 µPa/V)  [2.83V at 1m]"
20.5078	66.2799	20.5078	66.2733	20.5078	66.2739	20.5078	66.254	20.5078	66.2555	20.5078	66.2222	20.5078	66.2249	20.5078	66.1782	20.5078	66.1824	20.5078	66.1224	20.5078	66.1286	20.5078	66.0554	20.5078	66.0643	20.5078	65.9784	20.5078	65.9904	20.5078	65.8929	20.5078	65.9082	20.5078	65.8007	20.5078	65.8195	20.5078	65.7045	20.5078	65.7265	20.5078	65.6072	20.5078	65.6317	20.5078	65.5124	20.5078	65.5381	20.5078	65.4237	20.5078	65.4492	20.5078	65.3451	20.5078	65.3686	20.5078	65.2803	20.5078	65.3	20.5078	65.2327	20.5078	65.2469	20.5078	65.2047	20.5078	65.2121	20.5078	65.1977
21.9727	67.2936	21.9727	67.2861	21.9727	67.2893	21.9727	67.2667	21.9727	67.2733	21.9727	67.2359	21.9727	67.2456	21.9727	67.1941	21.9727	67.2067	21.9727	67.1418	21.9727	67.1572	21.9727	67.08	21.9727	67.0979	21.9727	67.01	21.9727	67.0298	21.9727	66.9331	21.9727	66.9545	21.9727	66.8512	21.9727	66.8735	21.9727	66.7665	21.9727	66.789	21.9727	66.6816	21.9727	66.7035	21.9727	66.5992	21.9727	66.6198	21.9727	66.5224	21.9727	66.5409	21.9727	66.4544	21.9727	66.4701	21.9727	66.3982	21.9727	66.4104	21.9727	66.3564	21.9727	66.3648	21.9727	66.3313	21.9727	66.3356	21.9727	66.3242
23.4375	68.3233	23.4375	68.3171	23.4375	68.3178	23.4375	68.2991	23.4375	68.3006	23.4375	68.2696	23.4375	68.272	23.4375	68.229	23.4375	68.2326	23.4375	68.1779	23.4375	68.1829	23.4375	68.1174	23.4375	68.124	23.4375	68.0486	23.4375	68.057	23.4375	67.9731	23.4375	67.9833	23.4375	67.8929	23.4375	67.9046	23.4375	67.8101	23.4375	67.8231	23.4375	67.7272	23.4375	67.7411	23.4375	67.6472	23.4375	67.6612	23.4375	67.573	23.4375	67.5863	23.4375	67.5075	23.4375	67.5193	23.4375	67.4535	23.4375	67.4631	23.4375	67.4135	23.4375	67.4203	23.4375	67.3894	23.4375	67.393	23.4375	67.3825
24.9023	69.0288	24.9023	69.0225	24.9023	69.0243	24.9023	69.0053	24.9023	69.009	24.9023	68.9777	24.9023	68.983	24.9023	68.9402	24.9023	68.9469	24.9023	68.8934	24.9023	68.9012	24.9023	68.8382	24.9023	68.8469	24.9023	68.7758	24.9023	68.7851	24.9023	68.7076	24.9023	68.7173	24.9023	68.6354	24.9023	68.645	24.9023	68.5612	24.9023	68.5704	24.9023	68.4871	24.9023	68.4957	24.9023	68.4156	24.9023	68.4233	24.9023	68.3493	24.9023	68.356	24.9023	68.2908	24.9023	68.2962	24.9023	68.2424	24.9023	68.2465	24.9023	68.2063	24.9023	68.2091	24.9023	68.1843	24.9023	68.1856	24.9023	68.1772
26.3672	69.76	26.3672	69.7517	26.3672	69.757	26.3672	69.7322	26.3672	69.7426	26.3672	69.7017	26.3672	69.7172	26.3672	69.6609	26.3672	69.6813	26.3672	69.6105	26.3672	69.6356	26.3672	69.5518	26.3672	69.5811	26.3672	69.486	26.3672	69.5191	26.3672	69.4148	26.3672	69.4509	26.3672	69.3401	26.3672	69.3784	26.3672	69.2642	26.3672	69.3036	26.3672	69.1895	26.3672	69.2287	26.3672	69.1185	26.3672	69.1561	26.3672	69.0538	26.3672	69.0883	26.3672	68.9978	26.3672	69.0277	26.3672	68.9528	26.3672	68.9766	26.3672	68.9206	26.3672	68.9372	26.3672	68.9025	26.3672	68.911	26.3672	68.8993
27.832	70.4179	27.832	70.4114	27.832	70.413	27.832	70.3934	27.832	70.3967	27.832	70.3644	27.832	70.3694	27.832	70.3249	27.832	70.3316	27.832	70.2757	27.832	70.2842	27.832	70.2178	27.832	70.2281	27.832	70.1527	27.832	70.1646	27.832	70.0819	27.832	70.0954	27.832	70.0075	27.832	70.0222	27.832	69.9315	27.832	69.9472	27.832	69.8564	27.832	69.8726	27.832	69.7847	27.832	69.8008	27.832	69.719	27.832	69.7342	27.832	69.6618	27.832	69.6753	27.832	69.6153	27.832	69.6263	27.832	69.5814	27.832	69.5891	27.832	69.5613	27.832	69.5653	27.832	69.5559
29.2969	70.9143	29.2969	70.9089	29.2969	70.9074	29.2969	70.8913	29.2969	70.8883	29.2969	70.862	29.2969	70.8576	29.2969	70.8214	29.2969	70.8159	29.2969	70.7706	29.2969	70.7642	29.2969	70.7108	29.2969	70.7037	29.2969	70.6434	29.2969	70.6361	29.2969	70.5704	29.2969	70.563	29.2969	70.4937	29.2969	70.4867	29.2969	70.4157	29.2969	70.4094	29.2969	70.3389	29.2969	70.3334	29.2969	70.2657	29.2969	70.2613	29.2969	70.1988	29.2969	70.1954	29.2969	70.1404	29.2969	70.1379	29.2969	70.0927	29.2969	70.091	29.2969	70.0572	29.2969	70.0562	29.2969	70.0354	29.2969	70.0349	29.2969	70.0279
30.7617	71.4589	30.7617	71.4534	30.7617	71.452	30.7617	71.4355	30.7617	71.4328	30.7617	71.4056	30.7617	71.4017	30.7617	71.3645	30.7617	71.3595	30.7617	71.3132	30.7617	71.3073	30.7617	71.2529	30.7617	71.2464	30.7617	71.1852	30.7617	71.1783	30.7617	71.112	30.7617	71.1051	30.7617	71.0355	30.7617	71.0288	30.7617	70.9581	30.7617	70.9518	30.7617	70.8821	30.7617	70.8765	30.7617	70.8101	30.7617	70.8053	30.7617	70.7445	30.7617	70.7405	30.7617	70.6875	30.7617	70.6844	30.7617	70.641	30.7617	70.6388	30.7617	70.6066	30.7617	70.6052	30.7617	70.5854	30.7617	70.5847	30.7617	70.578
32.2266	71.9884	32.2266	71.981	32.2266	71.9829	32.2266	71.9609	32.2266	71.9647	32.2266	71.9286	32.2266	71.9343	32.2266	71.8848	32.2266	71.8923	32.2266	71.8306	32.2266	71.8399	32.2266	71.7674	32.2266	71.7784	32.2266	71.6969	32.2266	71.7095	32.2266	71.6212	32.2266	71.6351	32.2266	71.5425	32.2266	71.5575	32.2266	71.4633	32.2266	71.4789	32.2266	71.3861	32.2266	71.4019	32.2266	71.3135	32.2266	71.3289	32.2266	71.248	32.2266	71.2623	32.2266	71.1917	32.2266	71.2043	32.2266	71.1464	32.2266	71.1566	32.2266	71.1137	32.2266	71.1208	32.2266	71.0944	32.2266	71.0981	32.2266	71.0892
33.6914	72.5707	33.6914	72.565	33.6914	72.5633	33.6914	72.5462	33.6914	72.543	33.6914	72.5148	33.6914	72.5103	33.6914	72.4714	33.6914	72.466	33.6914	72.4171	33.6914	72.4112	33.6914	72.3533	33.6914	72.3474	33.6914	72.2816	33.6914	72.2762	33.6914	72.2041	33.6914	72.1997	33.6914	72.123	33.6914	72.1201	33.6914	72.0409	33.6914	72.0397	33.6914	71.9605	33.6914	71.9611	33.6914	71.8845	33.6914	71.8866	33.6914	71.8154	33.6914	71.8188	33.6914	71.7558	33.6914	71.7597	33.6914	71.7075	33.6914	71.7113	33.6914	71.6722	33.6914	71.6753	33.6914	71.651	33.6914	71.6527	33.6914	71.6445
35.1562	73.0477	35.1562	73.0433	35.1562	73.0395	35.1562	73.0263	35.1562	73.0189	35.1562	72.9972	35.1562	72.9863	35.1562	72.9567	35.1562	72.9426	35.1562	72.9059	35.1562	72.889	35.1562	72.8462	35.1562	72.8268	35.1562	72.7793	35.1562	72.758	35.1562	72.7071	35.1562	72.6845	35.1562	72.6317	35.1562	72.6086	35.1562	72.5556	35.1562	72.5326	35.1562	72.4812	35.1562	72.4591	35.1562	72.4108	35.1562	72.3904	35.1562	72.3468	35.1562	72.3286	35.1562	72.2911	35.1562	72.2758	35.1562	72.2455	35.1562	72.2336	35.1562	72.2113	35.1562	72.2032	35.1562	72.1895	35.1562	72.1854	35.1562	72.1808
36.6211	73.5182	36.6211	73.5135	36.6211	73.5103	36.6211	73.4964	36.6211	73.4899	36.6211	73.4671	36.6211	73.4577	36.6211	73.4267	36.6211	73.4144	36.6211	73.376	36.6211	73.3612	36.6211	73.3166	36.6211	73.2997	36.6211	73.2502	36.6211	73.2316	36.6211	73.1788	36.6211	73.1589	36.6211	73.1044	36.6211	73.084	36.6211	73.0296	36.6211	73.0093	36.6211	72.9566	36.6211	72.9371	36.6211	72.8879	36.6211	72.8698	36.6211	72.8255	36.6211	72.8094	36.6211	72.7715	36.6211	72.758	36.6211	72.7273	36.6211	72.7169	36.6211	72.6944	36.6211	72.6872	36.6211	72.6736	36.6211	72.6699	36.6211	72.6653
38.0859	73.928	38.0859	73.9216	38.0859	73.9215	38.0859	73.9026	38.0859	73.9023	38.0859	73.8714	38.0859	73.8711	38.0859	73.8289	38.0859	73.8286	38.0859	73.7763	38.0859	73.776	38.0859	73.7152	38.0859	73.7151	38.0859	73.6476	38.0859	73.6476	38.0859	73.5754	38.0859	73.5757	38.0859	73.5011	38.0859	73.5017	38.0859	73.4271	38.0859	73.4281	38.0859	73.3559	38.0859	73.357	38.0859	73.2896	38.0859	73.291	38.0859	73.2305	38.0859	73.2319	38.0859	73.1801	38.0859	73.1814	38.0859	73.1397	38.0859	73.1409	38.0859	73.1104	38.0859	73.1113	38.0859	73.0927	38.0859	73.0932	38.0859	73.087
39.5508	74.3568	39.5508	74.3518	39.5508	74.3485	39.5508	74.3336	39.5508	74.3271	39.5508	74.3028	39.5508	74.2933	39.5508	74.26	39.5508	74.248	39.5508	74.2067	39.5508	74.1926	39.5508	74.1442	39.5508	74.1286	39.5508	74.0746	39.5508	74.0581	39.5508	74	39.5508	73.9833	39.5508	73.9228	39.5508	73.9066	39.5508	73.8456	39.5508	73.8304	39.5508	73.7709	39.5508	73.7573	39.5508	73.7012	39.5508	73.6895	39.5508	73.6386	39.5508	73.6291	39.5508	73.585	39.5508	73.5777	39.5508	73.5419	39.5508	73.5366	39.5508	73.5103	39.5508	73.5069	39.5508	73.4908	39.5508	73.4892	39.5508	73.4837
41.0156	74.8092	41.0156	74.8058	41.0156	74.7993	41.0156	74.7891	41.0156	74.7762	41.0156	74.7597	41.0156	74.7408	41.0156	74.7185	41.0156	74.6939	41.0156	74.6667	41.0156	74.637	41.0156	74.6059	41.0156	74.5718	41.0156	74.5381	41.0156	74.5005	41.0156	74.4654	41.0156	74.4254	41.0156	74.3903	41.0156	74.3491	41.0156	74.3153	41.0156	74.2741	41.0156	74.2427	41.0156	74.2029	41.0156	74.1749	41.0156	74.1379	41.0156	74.1139	41.0156	74.081	41.0156	74.0613	41.0156	74.0336	41.0156	74.0185	41.0156	73.9969	41.0156	73.9863	41.0156	73.9715	41.0156	73.9652	41.0156	73.9577	41.0156	73.9556
42.4805	75.1968	42.4805	75.1943	42.4805	75.1853	42.4805	75.178	42.4805	75.1601	42.4805	75.1485	42.4805	75.1219	42.4805	75.1066	42.4805	75.0718	42.4805	75.0537	42.4805	75.0113	42.4805	74.9915	42.4805	74.9422	42.4805	74.9219	42.4805	74.8668	42.4805	74.8473	42.4805	74.7877	42.4805	74.77	42.4805	74.7076	42.4805	74.6926	42.4805	74.6292	42.4805	74.6176	42.4805	74.5552	42.4805	74.5472	42.4805	74.4882	42.4805	74.4836	42.4805	74.4301	42.4805	74.4283	42.4805	74.3824	42.4805	74.3826	42.4805	74.3464	42.4805	74.3475	42.4805	74.3224	42.4805	74.3234	42.4805	74.3106	42.4805	74.3111
43.9453	75.6198	43.9453	75.6131	43.9453	75.6122	43.9453	75.592	43.9453	75.5902	43.9453	75.5574	43.9453	75.5547	43.9453	75.5101	43.9453	75.5064	43.9453	75.4516	43.9453	75.4469	43.9453	75.3837	43.9453	75.378	43.9453	75.3085	43.9453	75.3017	43.9453	75.2284	43.9453	75.2206	43.9453	75.1459	43.9453	75.1372	43.9453	75.0638	43.9453	75.0545	43.9453	74.9848	43.9453	74.9751	43.9453	74.9113	43.9453	74.9016	43.9453	74.8455	43.9453	74.8364	43.9453	74.7893	43.9453	74.7811	43.9453	74.744	43.9453	74.7373	43.9453	74.7107	43.9453	74.7059	43.9453	74.6899	43.9453	74.6874	43.9453	74.6821
45.4102	75.9949	45.4102	75.9914	45.4102	75.9842	45.4102	75.9738	45.4102	75.9595	45.4102	75.9427	45.4102	75.9215	45.4102	75.8989	45.4102	75.8712	45.4102	75.8438	45.4102	75.8101	45.4102	75.779	45.4102	75.74	45.4102	75.7065	45.4102	75.6631	45.4102	75.6286	45.4102	75.5819	45.4102	75.5477	45.4102	75.499	45.4102	75.4664	45.4102	75.4171	45.4102	75.3872	45.4102	75.3391	45.4102	75.3126	45.4102	75.2674	45.4102	75.245	45.4102	75.2043	45.4102	75.1861	45.4102	75.1515	45.4102	75.1376	45.4102	75.1104	45.4102	75.1007	45.4102	75.082	45.4102	75.0763	45.4102	75.0667	45.4102	75.0648
46.875	76.2611	46.875	76.2606	46.875	76.2474	46.875	76.246	46.875	76.2198	46.875	76.2178	46.875	76.1789	46.875	76.1772	46.875	76.1258	46.875	76.1252	46.875	76.0621	46.875	76.0636	46.875	75.9897	46.875	75.9944	46.875	75.911	46.875	75.9197	46.875	75.8286	46.875	75.8418	46.875	75.7454	46.875	75.7632	46.875	75.6643	46.875	75.6863	46.875	75.5881	46.875	75.6133	46.875	75.5195	46.875	75.5463	46.875	75.4606	46.875	75.487	46.875	75.4131	46.875	75.4369	46.875	75.3781	46.875	75.397	46.875	75.3562	46.875	75.3683	46.875	75.3474	46.875	75.3516
48.3398	76.5512	48.3398	76.5415	48.3398	76.5473	48.3398	76.5185	48.3398	76.5301	48.3398	76.4829	48.3398	76.5001	48.3398	76.4357	48.3398	76.4583	48.3398	76.3785	48.3398	76.406	48.3398	76.3131	48.3398	76.345	48.3398	76.2417	48.3398	76.2773	48.3398	76.1667	48.3398	76.2051	48.3398	76.0906	48.3398	76.1309	48.3398	76.0162	48.3398	76.057	48.3398	75.9458	48.3398	75.9859	48.3398	75.8817	48.3398	75.9196	48.3398	75.8258	48.3398	75.8602	48.3398	75.7796	48.3398	75.809	48.3398	75.744	48.3398	75.7672	48.3398	75.7195	48.3398	75.7356	48.3398	75.7066	48.3398	75.7148	48.3398	75.705
51.2695	77.2405	51.2695	77.2338	51.2695	77.233	51.2695	77.2132	51.2695	77.2114	51.2695	77.1793	51.2695	77.1765	51.2695	77.1335	51.2695	77.1296	51.2695	77.0775	51.2695	77.0725	51.2695	77.0135	51.2695	77.0074	51.2695	76.944	51.2695	76.9367	51.2695	76.8716	51.2695	76.8633	51.2695	76.799	51.2695	76.7901	51.2695	76.7291	51.2695	76.7197	51.2695	76.664	51.2695	76.6547	51.2695	76.6058	51.2695	76.5969	51.2695	76.5557	51.2695	76.5478	51.2695	76.5147	51.2695	76.508	51.2695	76.483	51.2695	76.4777	51.2695	76.4604	51.2695	76.4568	51.2695	76.4467	51.2695	76.4449	51.2695	76.4415
52.7344	77.4627	52.7344	77.4591	52.7344	77.45	52.7344	77.4395	52.7344	77.4214	52.7344	77.4048	52.7344	77.3778	52.7344	77.3562	52.7344	77.3207	52.7344	77.2958	52.7344	77.2522	52.7344	77.2259	52.7344	77.1748	52.7344	77.1493	52.7344	77.0917	52.7344	77.069	52.7344	77.0061	52.7344	76.9881	52.7344	76.9216	52.7344	76.9097	52.7344	76.8414	52.7344	76.8364	52.7344	76.7685	52.7344	76.7703	52.7344	76.7053	52.7344	76.7128	52.7344	76.6533	52.7344	76.6647	52.7344	76.6133	52.7344	76.626	52.7344	76.5851	52.7344	76.5966	52.7344	76.5682	52.7344	76.5762	52.7344	76.5616	52.7344	76.5644
54.1992	77.8047	54.1992	77.7985	54.1992	77.7936	54.1992	77.7752	54.1992	77.7653	54.1992	77.7356	54.1992	77.7209	54.1992	77.6811	54.1992	77.6617	54.1992	77.6137	54.1992	77.5896	54.1992	77.5356	54.1992	77.5073	54.1992	77.4497	54.1992	77.4175	54.1992	77.3592	54.1992	77.3237	54.1992	77.2674	54.1992	77.2293	54.1992	77.1774	54.1992	77.1378	54.1992	77.0923	54.1992	77.0524	54.1992	77.0147	54.1992	76.976	54.1992	76.9465	54.1992	76.9105	54.1992	76.8891	54.1992	76.8576	54.1992	76.8431	54.1992	76.8177	54.1992	76.8089	54.1992	76.7911	54.1992	76.7864	54.1992	76.7772	54.1992	76.7758
55.6641	78.0503	55.6641	78.0431	55.6641	78.0406	55.6641	78.0193	55.6641	78.0143	55.6641	77.9799	55.6641	77.9723	55.6641	77.9262	55.6641	77.916	55.6641	77.8602	55.6641	77.8473	55.6641	77.7844	55.6641	77.7687	55.6641	77.7017	55.6641	77.6832	55.6641	77.6151	55.6641	77.5939	55.6641	77.5278	55.6641	77.5044	55.6641	77.4431	55.6641	77.4178	55.6641	77.3637	55.6641	77.3373	55.6641	77.2919	55.6641	77.2656	55.6641	77.2294	55.6641	77.2044	55.6641	77.1773	55.6641	77.1549	55.6641	77.136	55.6641	77.1177	55.6641	77.1057	55.6641	77.0927	55.6641	77.0861	55.6641	77.0794	55.6641	77.0773
58.5938	78.6028	58.5938	78.5945	58.5938	78.5937	58.5938	78.569	58.5938	78.5674	58.5938	78.5275	58.5938	78.5248	58.5938	78.4714	58.5938	78.4676	58.5938	78.403	58.5938	78.3978	58.5938	78.3249	58.5938	78.3181	58.5938	78.2403	58.5938	78.2317	58.5938	78.1526	58.5938	78.142	58.5938	78.0653	58.5938	78.0528	58.5938	77.9816	58.5938	77.9674	58.5938	77.9043	58.5938	77.8889	58.5938	77.8359	58.5938	77.8198	58.5938	77.7776	58.5938	77.7619	58.5938	77.7302	58.5938	77.7158	58.5938	77.6936	58.5938	77.6817	58.5938	77.6674	58.5938	77.6589	58.5938	77.6511	58.5938	77.6466	58.5938	77.6441
60.0586	78.8697	60.0586	78.8601	60.0586	78.8611	60.0586	78.8329	60.0586	78.8349	60.0586	78.7891	60.0586	78.7917	60.0586	78.7303	60.0586	78.7334	60.0586	78.6588	60.0586	78.662	60.0586	78.5776	60.0586	78.5804	60.0586	78.4898	60.0586	78.4918	60.0586	78.399	60.0586	78.3999	60.0586	78.3089	60.0586	78.3083	60.0586	78.2229	60.0586	78.2207	60.0586	78.144	60.0586	78.1402	60.0586	78.0746	60.0586	78.0695	60.0586	78.016	60.0586	78.01	60.0586	77.9688	60.0586	77.9627	60.0586	77.9329	60.0586	77.9275	60.0586	77.9077	60.0586	77.9036	60.0586	77.8925	60.0586	77.8903	60.0586	77.8867
62.9883	79.4671	62.9883	79.4573	62.9883	79.4579	62.9883	79.4288	62.9883	79.43	62.9883	79.3827	62.9883	79.3844	62.9883	79.3207	62.9883	79.3228	62.9883	79.2451	62.9883	79.2474	62.9883	79.159	62.9883	79.1613	62.9883	79.0658	62.9883	79.0679	62.9883	78.9693	62.9883	78.971	62.9883	78.8734	62.9883	78.8745	62.9883	78.7819	62.9883	78.7822	62.9883	78.6981	62.9883	78.6975	62.9883	78.6244	62.9883	78.623	62.9883	78.5626	62.9883	78.5606	62.9883	78.5132	62.9883	78.5109	62.9883	78.4761	62.9883	78.4738	62.9883	78.4504	62.9883	78.4486	62.9883	78.4352	62.9883	78.4342	62.9883	78.4299
64.4531	79.6939	64.4531	79.6842	64.4531	79.6843	64.4531	79.6555	64.4531	79.6556	64.4531	79.6089	64.4531	79.6088	64.4531	79.5461	64.4531	79.5457	64.4531	79.4695	64.4531	79.4686	64.4531	79.3822	64.4531	79.3805	64.4531	79.2876	64.4531	79.2848	64.4531	79.1895	64.4531	79.1854	64.4531	79.0919	64.4531	79.0864	64.4531	78.9986	64.4531	78.9917	64.4531	78.9128	64.4531	78.9047	64.4531	78.8373	64.4531	78.8283	64.4531	78.7735	64.4531	78.7643	64.4531	78.7222	64.4531	78.7134	64.4531	78.6832	64.4531	78.6757	64.4531	78.6558	64.4531	78.6503	64.4531	78.6392	64.4531	78.6363	64.4531	78.6327
67.3828	80.1738	67.3828	80.1637	67.3828	80.1649	67.3828	80.135	67.3828	80.1375	67.3828	80.0888	67.3828	80.0926	67.3828	80.0269	67.3828	80.0317	67.3828	79.9517	67.3828	79.9575	67.3828	79.8661	67.3828	79.8727	67.3828	79.7738	67.3828	79.7809	67.3828	79.6784	67.3828	79.6859	67.3828	79.5838	67.3828	79.5914	67.3828	79.4939	67.3828	79.5012	67.3828	79.4117	67.3828	79.4185	67.3828	79.3398	67.3828	79.3458	67.3828	79.2796	67.3828	79.2847	67.3828	79.2318	67.3828	79.2358	67.3828	79.1961	67.3828	79.199	67.3828	79.1717	67.3828	79.1736	67.3828	79.1578	67.3828	79.1587	67.3828	79.1535
68.8477	80.3707	68.8477	80.361	68.8477	80.3614	68.8477	80.3326	68.8477	80.3333	68.8477	80.2865	68.8477	80.2876	68.8477	80.2248	68.8477	80.2262	68.8477	80.1498	68.8477	80.1515	68.8477	80.0648	68.8477	80.0667	68.8477	79.9733	68.8477	79.9754	68.8477	79.8793	68.8477	79.8815	68.8477	79.7868	68.8477	79.7889	68.8477	79.6994	68.8477	79.7015	68.8477	79.6204	68.8477	79.6223	68.8477	79.552	68.8477	79.5536	68.8477	79.4956	68.8477	79.4968	68.8477	79.4513	68.8477	79.4523	68.8477	79.4187	68.8477	79.4194	68.8477	79.3968	68.8477	79.3972	68.8477	79.3842	68.8477	79.3844	68.8477	79.3802
71.7773	80.7719	71.7773	80.7627	71.7773	80.7612	71.7773	80.7341	71.7773	80.7309	71.7773	80.6872	71.7773	80.6824	71.7773	80.6241	71.7773	80.6176	71.7773	80.5475	71.7773	80.5393	71.7773	80.4608	71.7773	80.451	71.7773	80.368	71.7773	80.3567	71.7773	80.2733	71.7773	80.2606	71.7773	80.181	71.7773	80.1671	71.7773	80.0947	71.7773	80.0802	71.7773	80.0178	71.7773	80.003	71.7773	79.9523	71.7773	79.9379	71.7773	79.8993	71.7773	79.8859	71.7773	79.8585	71.7773	79.8468	71.7773	79.8289	71.7773	79.8196	71.7773	79.809	71.7773	79.8024	71.7773	79.7971	71.7773	79.7937	71.7773	79.7921
74.707	81.1637	74.707	81.1547	74.707	81.1516	74.707	81.1251	74.707	81.1189	74.707	81.0763	74.707	81.0669	74.707	81.0104	74.707	80.9977	74.707	80.9303	74.707	80.9143	74.707	80.8398	74.707	80.8204	74.707	80.743	74.707	80.7205	74.707	80.6446	74.707	80.6192	74.707	80.5489	74.707	80.5212	74.707	80.4601	74.707	80.4308	74.707	80.3815	74.707	80.3517	74.707	80.3152	74.707	80.286	74.707	80.262	74.707	80.2349	74.707	80.2215	74.707	80.1978	74.707	80.1923	74.707	80.1732	74.707	80.1724	74.707	80.159	74.707	80.1599	74.707	80.153	74.707	80.1536
77.6367	81.5112	77.6367	81.4997	77.6367	81.5011	77.6367	81.467	77.6367	81.4696	77.6367	81.4146	77.6367	81.418	77.6367	81.3448	77.6367	81.3485	77.6367	81.2608	77.6367	81.264	77.6367	81.1663	77.6367	81.1684	77.6367	81.0659	77.6367	81.0659	77.6367	80.9642	77.6367	80.9615	77.6367	80.8659	77.6367	80.8599	77.6367	80.7752	77.6367	80.7657	77.6367	80.6954	77.6367	80.6827	77.6367	80.6285	77.6367	80.6134	77.6367	80.5753	77.6367	80.5591	77.6367	80.5352	77.6367	80.5193	77.6367	80.5065	77.6367	80.4927	77.6367	80.4873	77.6367	80.477	77.6367	80.4754	77.6367	80.4699	77.6367	80.4697
79.1016	81.6447	79.1016	81.6322	79.1016	81.6355	79.1016	81.5987	79.1016	81.605	79.1016	81.5455	79.1016	81.5546	79.1016	81.4752	79.1016	81.4864	79.1016	81.3909	79.1016	81.4034	79.1016	81.2967	79.1016	81.3096	79.1016	81.197	79.1016	81.2095	79.1016	81.0968	79.1016	81.1077	79.1016	81.0007	79.1016	81.0092	79.1016	80.913	79.1016	80.9184	79.1016	80.8368	79.1016	80.8388	79.1016	80.7741	79.1016	80.7729	79.1016	80.7253	79.1016	80.7216	79.1016	80.6895	79.1016	80.6843	79.1016	80.6649	79.1016	80.6595	79.1016	80.6492	79.1016	80.6447	79.1016	80.6401	79.1016	80.6376	79.1016	80.6364
82.0312	81.9402	82.0312	81.9275	82.0312	81.9302	82.0312	81.8928	82.0312	81.898	82.0312	81.8375	82.0312	81.8451	82.0312	81.7642	82.0312	81.7739	82.0312	81.6765	82.0312	81.688	82.0312	81.5787	82.0312	81.5915	82.0312	81.4757	82.0312	81.4893	82.0312	81.3728	82.0312	81.3867	82.0312	81.2752	82.0312	81.2887	82.0312	81.1873	82.0312	81.1999	82.0312	81.1126	82.0312	81.1237	82.0312	81.0528	82.0312	81.0624	82.0312	81.0084	82.0312	81.0161	82.0312	80.9778	82.0312	80.9837	82.0312	80.9588	82.0312	80.9629	82.0312	80.9482	82.0312	80.9508	82.0312	80.9434	82.0312	80.9446	82.0312	80.9424
84.9609	82.1438	84.9609	82.13	84.9609	82.1328	84.9609	82.0919	84.9609	82.0971	84.9609	82.0315	84.9609	82.0385	84.9609	81.9519	84.9609	81.9595	84.9609	81.8571	84.9609	81.8642	84.9609	81.7523	84.9609	81.7572	84.9609	81.6429	84.9609	81.6444	84.9609	81.5349	84.9609	81.5316	84.9609	81.434	84.9609	81.4251	84.9609	81.3449	84.9609	81.3301	84.9609	81.2708	84.9609	81.2507	84.9609	81.2132	84.9609	81.1893	84.9609	81.1716	84.9609	81.1458	84.9609	81.1438	84.9609	81.1188	84.9609	81.1265	84.9609	81.1048	84.9609	81.1161	84.9609	81.1001	84.9609	81.1094	84.9609	81.101	84.9609	81.1045
87.8906	82.4942	87.8906	82.4758	87.8906	82.486	87.8906	82.4315	87.8906	82.4518	87.8906	82.3632	87.8906	82.3936	87.8906	82.2742	87.8906	82.3145	87.8906	82.169	87.8906	82.2188	87.8906	82.0533	87.8906	82.1118	87.8906	81.9338	87.8906	81.9996	87.8906	81.8174	87.8906	81.8888	87.8906	81.7111	87.8906	81.7856	87.8906	81.6205	87.8906	81.6952	87.8906	81.5497	87.8906	81.6215	87.8906	81.5001	87.8906	81.5661	87.8906	81.4707	87.8906	81.5284	87.8906	81.4582	87.8906	81.5057	87.8906	81.4576	87.8906	81.4937	87.8906	81.4637	87.8906	81.4879	87.8906	81.4719	87.8906	81.484	87.8906	81.479
90.8203	82.8055	90.8203	82.7913	90.8203	82.7915	90.8203	82.7494	90.8203	82.75	90.8203	82.6818	90.8203	82.6831	90.8203	82.5917	90.8203	82.5941	90.8203	82.4837	90.8203	82.4878	90.8203	82.3636	90.8203	82.3701	90.8203	82.2383	90.8203	82.2477	90.8203	82.1152	90.8203	82.1281	90.8203	82.0017	90.8203	82.0184	90.8203	81.9045	90.8203	81.9248	90.8203	81.8281	90.8203	81.8514	90.8203	81.7748	90.8203	81.7998	90.8203	81.7437	90.8203	81.7687	90.8203	81.7312	90.8203	81.7544	90.8203	81.7318	90.8203	81.7513	90.8203	81.7394	90.8203	81.7535	90.8203	81.7482	90.8203	81.7556	90.8203	81.7542
95.2148	83.1156	95.2148	83.1033	95.2148	83.0978	95.2148	83.0615	95.2148	83.0504	95.2148	82.9922	95.2148	82.9754	95.2148	82.8988	95.2148	82.8762	95.2148	82.7861	95.2148	82.7576	95.2148	82.6599	95.2148	82.6256	95.2148	82.5274	95.2148	82.4878	95.2148	82.3963	95.2148	82.3521	95.2148	82.2742	95.2148	82.2268	95.2148	82.168	95.2148	82.1192	95.2148	82.0828	95.2148	82.0346	95.2148	82.0208	95.2148	81.9754	95.2148	81.9813	95.2148	81.9408	95.2148	81.9609	95.2148	81.9269	95.2148	81.9537	95.2148	81.9274	95.2148	81.9535	95.2148	81.9357	95.2148	81.9543	95.2148	81.9453	95.2148	81.952
98.1445	83.3183	98.1445	83.3044	98.1445	83.3011	98.1445	83.2604	98.1445	83.2535	98.1445	83.1884	98.1445	83.1771	98.1445	83.0918	98.1445	83.0752	98.1445	82.9756	98.1445	82.9525	98.1445	82.8459	98.1445	82.815	98.1445	82.7098	98.1445	82.6702	98.1445	82.5753	98.1445	82.5263	98.1445	82.4501	98.1445	82.3918	98.1445	82.341	98.1445	82.2747	98.1445	82.2529	98.1445	82.181	98.1445	82.188	98.1445	82.114	98.1445	82.1453	98.1445	82.0737	98.1445	82.121	98.1445	82.0564	98.1445	82.1093	98.1445	82.0563	98.1445	82.1039	98.1445	82.0662	98.1445	82.099	98.1445	82.0795	98.1445	82.0912
101.074	83.3874	101.074	83.3676	101.074	83.3756	101.074	83.3169	101.074	83.3327	101.074	83.2377	101.074	83.2605	101.074	83.1337	101.074	83.1625	101.074	83.0101	101.074	83.0435	101.074	82.8736	101.074	82.9096	101.074	82.7318	101.074	82.7683	101.074	82.5934	101.074	82.6279	101.074	82.4668	101.074	82.4968	101.074	82.3593	101.074	82.3827	101.074	82.2759	101.074	82.2915	101.074	82.2186	101.074	82.2261	101.074	82.1858	101.074	82.1862	101.074	82.1727	101.074	82.168	101.074	82.1726	101.074	82.1655	101.074	82.1782	101.074	82.1716	101.074	82.1834	101.074	82.1795	101.074	82.1842
105.469	83.5336	105.469	83.5119	105.469	83.522	105.469	83.4577	105.469	83.4778	105.469	83.3732	105.469	83.403	105.469	83.2623	105.469	83.3012	105.469	83.1301	105.469	83.1774	105.469	82.9836	105.469	83.0382	105.469	82.8308	105.469	82.8914	105.469	82.681	105.469	82.7457	105.469	82.5434	105.469	82.6102	105.469	82.4261	105.469	82.4929	105.469	82.3353	105.469	82.3996	105.469	82.2737	105.469	82.3332	105.469	82.24	105.469	82.2927	105.469	82.2297	105.469	82.2738	105.469	82.2353	105.469	82.2695	105.469	82.2487	105.469	82.2721	105.469	82.2626	105.469	82.2745	105.469	82.2719
108.398	83.647	108.398	83.6292	108.398	83.631	108.398	83.5785	108.398	83.582	108.398	83.4969	108.398	83.5022	108.398	83.3884	108.398	83.3956	108.398	83.2584	108.398	83.2675	108.398	83.114	108.398	83.1249	108.398	82.9636	108.398	82.9761	108.398	82.8166	108.398	82.8303	108.398	82.6823	108.398	82.6966	108.398	82.5689	108.398	82.5832	108.398	82.4823	108.398	82.4959	108.398	82.4248	108.398	82.4371	108.398	82.3948	108.398	82.4053	108.398	82.387	108.398	82.3955	108.398	82.3939	108.398	82.4002	108.398	82.4069	108.398	82.4111	108.398	82.4185	108.398	82.4206	108.398	82.4237
112.793	83.7231	112.793	83.7059	112.793	83.7047	112.793	83.6539	112.793	83.6514	112.793	83.5697	112.793	83.5658	112.793	83.4573	112.793	83.4522	112.793	83.3231	112.793	83.3167	112.793	83.1746	112.793	83.1671	112.793	83.0213	112.793	83.0128	112.793	82.8735	112.793	82.8642	112.793	82.7413	112.793	82.7316	112.793	82.6335	112.793	82.6237	112.793	82.5559	112.793	82.5465	112.793	82.5104	112.793	82.5016	112.793	82.4942	112.793	82.4864	112.793	82.5004	112.793	82.4939	112.793	82.5198	112.793	82.5147	112.793	82.5424	112.793	82.5389	112.793	82.5595	112.793	82.5577	112.793	82.5653
117.188	83.7476	117.188	83.7297	117.188	83.7257	117.188	83.6729	117.188	83.6645	117.188	83.5803	117.188	83.5664	117.188	83.4565	117.188	83.4357	117.188	83.3082	117.188	83.2788	117.188	83.1439	117.188	83.1042	117.188	82.9739	117.188	82.9226	117.188	82.8097	117.188	82.7462	117.188	82.6627	117.188	82.5874	117.188	82.5427	117.188	82.4576	117.188	82.456	117.188	82.3648	117.188	82.4046	117.188	82.3122	117.188	82.3848	117.188	82.2968	117.188	82.3888	117.188	82.3108	117.188	82.4058	117.188	82.3428	117.188	82.4245	117.188	82.3803	117.188	82.4352	117.188	82.4125	117.188	82.4318
120.117	83.9725	120.117	83.9461	120.117	83.9571	120.117	83.8788	120.117	83.9002	120.117	83.7737	120.117	83.8042	120.117	83.6355	120.117	83.673	120.117	83.4712	120.117	83.5127	120.117	83.2896	120.117	83.3314	120.117	83.1017	120.117	83.1392	120.117	82.9199	120.117	82.9481	120.117	82.7565	120.117	82.7709	120.117	82.622	120.117	82.6194	120.117	82.5237	120.117	82.5031	120.117	82.4632	120.117	82.4266	120.117	82.4367	120.117	82.389	120.117	82.4357	120.117	82.3839	120.117	82.4489	120.117	82.4009	120.117	82.4648	120.117	82.428	120.117	82.4739	120.117	82.454	120.117	82.4706
124.512	84.2046	124.512	84.1756	124.512	84.1927	124.512	84.1063	124.512	84.1408	124.512	83.9993	124.512	84.0515	124.512	83.859	124.512	83.9293	124.512	83.692	124.512	83.7804	124.512	83.5074	124.512	83.6132	124.512	83.3164	124.512	83.4379	124.512	83.1322	124.512	83.2661	124.512	82.9681	124.512	83.1098	124.512	82.8364	124.512	82.9798	124.512	82.7453	124.512	82.8837	124.512	82.6975	124.512	82.8244	124.512	82.6892	124.512	82.7993	124.512	82.7108	124.512	82.8005	124.512	82.7495	124.512	82.8171	124.512	82.792	124.512	82.8368	124.512	82.8269	124.512	82.8492	124.512	82.8468
128.906	84.1764	128.906	84.1509	128.906	84.1573	128.906	84.0815	128.906	84.0949	128.906	83.9707	128.906	83.992	128.906	83.823	128.906	83.8536	128.906	83.6456	128.906	83.687	128.906	83.4481	128.906	83.5017	128.906	83.2432	128.906	83.3098	128.906	83.0458	128.906	83.1251	128.906	82.8717	128.906	82.962	128.906	82.7353	128.906	82.8332	128.906	82.6469	128.906	82.7473	128.906	82.6093	128.906	82.7067	128.906	82.6175	128.906	82.7062	128.906	82.6594	128.906	82.7348	128.906	82.7187	128.906	82.7774	128.906	82.7786	128.906	82.8185	128.906	82.8248	128.906	82.845	128.906	82.8481
133.301	84.2153	133.301	84.1923	133.301	84.1917	133.301	84.1231	133.301	84.1228	133.301	84.0098	133.301	84.0113	133.301	83.8562	133.301	83.8618	133.301	83.6685	133.301	83.6813	133.301	83.4557	133.301	83.4791	133.301	83.2297	133.301	83.2672	133.301	83.0053	133.301	83.06	133.301	82.7996	133.301	82.8727	133.301	82.6291	133.301	82.7197	133.301	82.5072	133.301	82.6116	133.301	82.4405	133.301	82.5522	133.301	82.4267	133.301	82.5373	133.301	82.4548	133.301	82.5556	133.301	82.5081	133.301	82.5911	133.301	82.5679	133.301	82.6267	133.301	82.6176	133.301	82.6481	133.301	82.6459
139.16	84.1131	139.16	84.0969	139.16	84.0823	139.16	84.0346	139.16	84.0057	139.16	83.9285	139.16	83.8857	139.16	83.7827	139.16	83.7271	139.16	83.6037	139.16	83.5367	139.16	83.4003	139.16	83.3242	139.16	83.184	139.16	83.1018	139.16	82.9688	139.16	82.8842	139.16	82.7703	139.16	82.6876	139.16	82.6037	139.16	82.5269	139.16	82.4808	139.16	82.4136	139.16	82.4076	139.16	82.3522	139.16	82.382	139.16	82.3391	139.16	82.3941	139.16	82.3629	139.16	82.4286	139.16	82.4076	139.16	82.4684	139.16	82.4557	139.16	82.4981	139.16	82.4922	139.16	82.5074
143.555	84.0451	143.555	84.022	143.555	84.0181	143.555	83.9495	143.555	83.942	143.555	83.8304	143.555	83.8198	143.555	83.6696	143.555	83.6566	143.555	83.4743	143.555	83.4602	143.555	83.2547	143.555	83.2412	143.555	83.0237	143.555	83.0129	143.555	82.797	143.555	82.7914	143.555	82.5916	143.555	82.5933	143.555	82.4236	143.555	82.434	143.555	82.3052	143.555	82.3242	143.555	82.2412	143.555	82.2672	143.555	82.228	143.555	82.2581	143.555	82.2539	143.555	82.2843	143.555	82.302	143.555	82.3288	143.555	82.3543	143.555	82.3742	143.555	82.395	143.555	82.4055	143.555	82.4135
147.949	84.2071	147.949	84.1892	147.949	84.1717	147.949	84.119	147.949	84.0837	147.949	83.9994	147.949	83.946	147.949	83.8355	147.949	83.7639	147.949	83.6352	147.949	83.5457	147.949	83.4091	147.949	83.303	147.949	83.1714	147.949	83.0514	147.949	82.9389	147.949	82.8097	147.949	82.7301	147.949	82.5981	147.949	82.5625	147.949	82.4352	147.949	82.4485	147.949	82.3334	147.949	82.3926	147.949	82.2953	147.949	82.3896	147.949	82.313	147.949	82.4256	147.949	82.3697	147.949	82.4817	147.949	82.4442	147.949	82.5379	147.949	82.5155	147.949	82.5775	147.949	82.5672	147.949	82.5888
153.809	84.3191	153.809	84.2887	153.809	84.2939	153.809	84.2039	153.809	84.2136	153.809	84.0674	153.809	84.08	153.809	83.8839	153.809	83.8973	153.809	83.6611	153.809	83.6722	153.809	83.4102	153.809	83.4152	153.809	83.1464	153.809	83.1412	153.809	82.8896	153.809	82.8701	153.809	82.6622	153.809	82.6256	153.809	82.4863	153.809	82.4318	153.809	82.3781	153.809	82.3081	153.809	82.343	153.809	82.2627	153.809	82.3726	153.809	82.2898	153.809	82.4471	153.809	82.3698	153.809	82.54	153.809	82.4756	153.809	82.6248	153.809	82.5788	153.809	82.6798	153.809	82.656	153.809	82.6916
159.668	84.125	159.668	84.0954	159.668	84.1026	159.668	84.0141	159.668	84.029	159.668	83.883	159.668	83.9062	159.668	83.7054	159.668	83.7379	159.668	83.4867	159.668	83.5299	159.668	83.2351	159.668	83.2904	159.668	82.9623	159.668	83.0305	159.668	82.6838	159.668	82.7652	159.668	82.419	159.668	82.5125	159.668	82.1891	159.668	82.2916	159.668	82.014	159.668	82.1203	159.668	81.9061	159.668	82.0099	159.668	81.8671	159.668	81.9618	159.668	81.8854	159.668	81.9655	159.668	81.9398	159.668	82.0017	159.668	82.0053	159.668	82.047	159.668	82.059	159.668	82.0799	159.668	82.0857
165.527	83.7843	165.527	83.7543	165.527	83.7554	165.527	83.6665	165.527	83.6688	165.527	83.5246	165.527	83.5281	165.527	83.335	165.527	83.3395	165.527	83.1071	165.527	83.1127	165.527	82.8544	165.527	82.861	165.527	82.5938	165.527	82.6014	165.527	82.3457	165.527	82.3542	165.527	82.1314	165.527	82.1409	165.527	81.9698	165.527	81.9806	165.527	81.8734	165.527	81.8854	165.527	81.8443	165.527	81.8573	165.527	81.8733	165.527	81.8867	165.527	81.9423	165.527	81.955	165.527	82.0286	165.527	82.0395	165.527	82.1096	165.527	82.1176	165.527	82.167	165.527	82.1713	165.527	82.189
171.387	84.076	171.387	84.0533	171.387	84.0315	171.387	83.964	171.387	83.9204	171.387	83.8101	171.387	83.7447	171.387	83.5953	171.387	83.5086	171.387	83.3262	171.387	83.2191	171.387	83.0133	171.387	82.888	171.387	82.6725	171.387	82.5325	171.387	82.3258	171.387	82.1767	171.387	82.0004	171.387	81.8502	171.387	81.7261	171.387	81.5839	171.387	81.5279	171.387	81.4028	171.387	81.4188	171.387	81.3176	171.387	81.3946	171.387	81.3198	171.387	81.4353	171.387	81.3852	171.387	81.511	171.387	81.4809	171.387	81.5909	171.387	81.5749	171.387	81.649	171.387	81.6424	171.387	81.6684
177.246	83.9685	177.246	83.9343	177.246	83.9416	177.246	83.8403	177.246	83.8539	177.246	83.6895	177.246	83.7072	177.246	83.487	177.246	83.5055	177.246	83.2405	177.246	83.2556	177.246	82.962	177.246	82.9684	177.246	82.6679	177.246	82.6596	177.246	82.3798	177.246	82.3507	177.246	82.123	177.246	82.068	177.246	81.9227	177.246	81.8395	177.246	81.798	177.246	81.6886	177.246	81.755	177.246	81.6267	177.246	81.7843	177.246	81.6486	177.246	81.8627	177.246	81.7332	177.246	81.9601	177.246	81.8502	177.246	82.047	177.246	81.9674	177.246	82.1	177.246	82.0583	177.246	82.1049
183.105	83.8818	183.105	83.8389	183.105	83.8581	183.105	83.73	183.105	83.7687	183.105	83.5572	183.105	83.616	183.105	83.3247	183.105	83.4043	183.105	83.0398	183.105	83.1409	183.105	82.7143	183.105	82.8372	183.105	82.3657	183.105	82.5098	183.105	82.0186	183.105	82.1814	183.105	81.7035	183.105	81.8803	183.105	81.4528	183.105	81.6363	183.105	81.2934	183.105	81.4738	183.105	81.2369	183.105	81.4042	183.105	81.2746	183.105	81.4201	183.105	81.3794	183.105	81.4975	183.105	81.5147	183.105	81.603	183.105	81.6444	183.105	81.7025	183.105	81.7397	183.105	81.7685	183.105	81.7829
188.965	84.0398	188.965	84.0095	188.965	84.0021	188.965	83.9115	188.965	83.8973	188.965	83.7476	188.965	83.7283	188.965	83.5218	188.965	83.4997	188.965	83.2416	188.965	83.2196	188.965	82.9186	188.965	82.9001	188.965	82.5708	188.965	82.5594	188.965	82.2232	188.965	82.2224	188.965	81.9072	188.965	81.9194	188.965	81.6561	188.965	81.6822	188.965	81.4968	188.965	81.5355	188.965	81.441	188.965	81.4886	188.965	81.4792	188.965	81.5304	188.965	81.5837	188.965	81.6327	188.965	81.7176	188.965	81.7592	188.965	81.8448	188.965	81.8748	188.965	81.9363	188.965	81.952	188.965	81.9742
196.289	83.9887	196.289	83.9626	196.289	83.9426	196.289	83.8644	196.289	83.8251	196.289	83.6961	196.289	83.6387	196.289	83.4613	196.289	83.3882	196.289	83.1669	196.289	83.0819	196.289	82.8246	196.289	82.7338	196.289	82.4536	196.289	82.365	196.289	82.0819	196.289	82.0057	196.289	81.7468	196.289	81.6933	196.289	81.4897	196.289	81.467	196.289	81.3451	196.289	81.3557	196.289	81.3275	196.289	81.3663	196.289	81.4228	196.289	81.4793	196.289	81.5933	196.289	81.6549	196.289	81.7906	196.289	81.8461	196.289	81.9695	196.289	82.0105	196.289	82.0952	196.289	82.1169	196.289	82.1469
203.613	83.8089	203.613	83.7628	203.613	83.7776	203.613	83.6397	203.613	83.6689	203.613	83.4415	203.613	83.4842	203.613	83.1722	203.613	83.2265	203.613	82.8388	203.613	82.902	203.613	82.4541	203.613	82.5217	203.613	82.0391	203.613	82.1048	203.613	81.6256	203.613	81.6813	203.613	81.2563	203.613	81.293	203.613	80.9791	203.613	80.9891	203.613	80.8334	203.613	80.8135	203.613	80.833	203.613	80.7869	203.613	80.9577	203.613	80.8951	203.613	81.1605	203.613	81.0935	203.613	81.3842	203.613	81.3242	203.613	81.5775	203.613	81.533	203.613	81.7029	203.613	81.6794	203.613	81.739
210.938	83.9109	210.938	83.8823	210.938	83.8552	210.938	83.7676	210.938	83.7168	210.938	83.5653	210.938	83.4978	210.938	83.2747	210.938	83.2016	210.938	82.8976	210.938	82.8344	210.938	82.4409	210.938	82.4077	210.938	81.9207	210.938	81.9419	210.938	81.3688	210.938	81.4699	210.938	80.837	210.938	81.0384	210.938	80.3961	210.938	80.7031	210.938	80.1196	210.938	80.5124	210.938	80.0513	210.938	80.4864	210.938	80.1793	210.938	80.6037	210.938	80.4401	210.938	80.8098	210.938	80.7502	210.938	81.0382	210.938	81.0355	210.938	81.23	210.938	81.2448	210.938	81.3423	210.938	81.35
218.262	84.1556	218.262	84.1386	218.262	84.0969	218.262	84.0466	218.262	83.9619	218.262	83.8796	218.262	83.7495	218.262	83.6376	218.262	83.4596	218.262	83.3209	218.262	83.0937	218.262	82.932	218.262	82.6569	218.262	82.4775	218.262	82.161	218.262	81.9726	218.262	81.6287	218.262	81.4456	218.262	81.0975	218.262	80.9411	218.262	80.6201	218.262	80.5167	218.262	80.2567	218.262	80.2287	218.262	80.0532	218.262	80.1071	218.262	80.0188	218.262	80.1373	218.262	80.1177	218.262	80.2659	218.262	80.2851	218.262	80.4237	218.262	80.4534	218.262	80.55	218.262	80.5699	218.262	80.6043
225.586	84.0242	225.586	84.0141	225.586	83.9591	225.586	83.9296	225.586	83.8189	225.586	83.7718	225.586	83.6042	225.586	83.5428	225.586	83.318	225.586	83.2465	225.586	82.9658	225.586	82.8899	225.586	82.5591	225.586	82.486	225.586	82.1176	225.586	82.0566	225.586	81.6726	225.586	81.6353	225.586	81.2678	225.586	81.266	225.586	80.9535	225.586	80.9961	225.586	80.7725	225.586	80.8597	225.586	80.7413	225.586	80.8624	225.586	80.8399	225.586	80.9758	225.586	81.0195	225.586	81.1488	225.586	81.2215	225.586	81.3261	225.586	81.3942	225.586	81.4616	225.586	81.5016	225.586	81.5247
232.91	83.8126	232.91	83.7598	232.91	83.7772	232.91	83.6199	232.91	83.6524	232.91	83.3935	232.91	83.4368	232.91	83.0825	232.91	83.1291	232.91	82.6912	232.91	82.7303	232.91	82.2304	232.91	82.2467	232.91	81.7216	232.91	81.6953	232.91	81.2037	232.91	81.1123	232.91	80.7363	232.91	80.5604	232.91	80.3941	232.91	80.1284	232.91	80.2421	232.91	79.9062	232.91	80.3017	232.91	79.9384	232.91	80.5348	232.91	80.1919	232.91	80.8618	232.91	80.5738	232.91	81.1966	232.91	80.9797	232.91	81.4704	232.91	81.3279	232.91	81.6375	232.91	81.5674	232.91	81.6728
241.699	84.0256	241.699	84.0355	241.699	83.9314	241.699	83.9619	241.699	83.7507	241.699	83.8038	241.699	83.4798	241.699	83.5582	241.699	83.115	241.699	83.2211	241.699	82.6542	241.699	82.7898	241.699	82.1001	241.699	82.2664	241.699	81.4663	241.699	81.6655	241.699	80.7877	241.699	81.0245	241.699	80.1315	241.699	80.4145	241.699	79.6014	241.699	79.9386	241.699	79.3116	241.699	79.6994	241.699	79.3241	241.699	79.7377	241.699	79.5999	241.699	79.9988	241.699	80.0212	241.699	80.3655	241.699	80.4587	241.699	80.7201	241.699	80.8156	241.699	80.9775	241.699	81.0345	241.699	81.0892
250.488	84.0146	250.488	83.9675	250.488	83.978	250.488	83.84	250.488	83.8534	250.488	83.635	250.488	83.6357	250.488	83.354	250.488	83.3186	250.488	82.9973	250.488	82.8948	250.488	82.5645	250.488	82.3569	250.488	82.0563	250.488	81.7012	250.488	81.4796	250.488	80.9347	250.488	80.855	250.488	80.0894	250.488	80.2279	250.488	79.2441	250.488	79.6746	250.488	78.5394	250.488	79.2906	250.488	78.1461	250.488	79.1462	250.488	78.1574	250.488	79.2355	250.488	78.4996	250.488	79.4708	250.488	78.9896	250.488	79.7311	250.488	79.4548	250.488	79.9109	250.488	79.7876	250.488	79.9406
259.277	85.0469	259.277	84.9788	259.277	85.0275	259.277	84.824	259.277	84.9181	259.277	84.5816	259.277	84.7137	259.277	84.2492	259.277	84.4074	259.277	83.8236	259.277	83.9898	259.277	83.3021	259.277	83.4503	259.277	82.6852	259.277	82.7798	259.277	81.9822	259.277	81.9758	259.277	81.2202	259.277	81.054	259.277	80.4546	259.277	80.0665	259.277	79.774	259.277	79.1255	259.277	79.2824	259.277	78.4045	259.277	79.0483	259.277	78.0664	259.277	79.0543	259.277	78.1356	259.277	79.2033	259.277	78.471	259.277	79.3739	259.277	78.8807	259.277	79.4677	259.277	79.2226	259.277	79.4246
268.066	84.8242	268.066	84.7786	268.066	84.8051	268.066	84.6678	268.066	84.7219	268.066	84.4913	268.066	84.5746	268.066	84.2489	268.066	84.3626	268.066	83.9401	268.066	84.0834	268.066	83.5646	268.066	83.7339	268.066	83.1233	268.066	83.3109	268.066	82.6212	268.066	82.8155	268.066	82.0721	268.066	82.2578	268.066	81.5048	268.066	81.6647	268.066	80.9676	268.066	81.0854	268.066	80.5238	268.066	80.5893	268.066	80.2308	268.066	80.245	268.066	80.1092	268.066	80.0858	268.066	80.1265	268.066	80.086	268.066	80.2127	268.066	80.1746	268.066	80.2938	268.066	80.2715	268.066	80.3187
276.855	84.2727	276.855	84.226	276.855	84.2352	276.855	84.0968	276.855	84.1113	276.855	83.886	276.855	83.8984	276.855	83.5948	276.855	83.5932	276.855	83.2259	276.855	83.1932	276.855	82.7856	276.855	82.6987	276.855	82.2881	276.855	82.1178	276.855	81.7611	276.855	81.4747	276.855	81.2512	276.855	80.8217	276.855	80.8238	276.855	80.2479	276.855	80.5487	276.855	79.8676	276.855	80.4708	276.855	79.7694	276.855	80.5823	276.855	79.9538	276.855	80.8229	276.855	80.3269	276.855	81.1078	276.855	80.7591	276.855	81.3577	276.855	81.143	276.855	81.5132	276.855	81.4123	276.855	81.537
287.109	84.4737	287.109	84.3817	287.109	84.4843	287.109	84.2038	287.109	84.4168	287.109	83.9344	287.109	84.272	287.109	83.5668	287.109	84.0474	287.109	83.0941	287.109	83.7361	287.109	82.5097	287.109	83.3265	287.109	81.8115	287.109	82.8037	287.109	81.01	287.109	82.1544	287.109	80.1443	287.109	81.3753	287.109	79.3034	287.109	80.4906	287.109	78.6357	287.109	79.5787	287.109	78.3009	287.109	78.7948	287.109	78.3559	287.109	78.3372	287.109	78.6943	287.109	78.3132	287.109	79.1275	287.109	78.6308	287.109	79.4936	287.109	79.0772	287.109	79.6943	287.109	79.4651	287.109	79.6853
297.363	84.9563	297.363	84.9709	297.363	84.8659	297.363	84.91	297.363	84.6962	297.363	84.7706	297.363	84.442	297.363	84.5449	297.363	84.0969	297.363	84.2205	297.363	83.6543	297.363	83.781	297.363	83.1092	297.363	83.2086	297.363	82.4617	297.363	82.4895	297.363	81.7237	297.363	81.6234	297.363	80.9294	297.363	80.6416	297.363	80.1464	297.363	79.6336	297.363	79.4781	297.363	78.7674	297.363	79.034	297.363	78.2458	297.363	78.8692	297.363	78.1663	297.363	78.9402	297.363	78.4251	297.363	79.1323	297.363	78.8137	297.363	79.3229	297.363	79.1595	297.363	79.4201	297.363	79.3709
307.617	84.44	307.617	84.4037	307.617	84.4197	307.617	84.3126	307.617	84.3404	307.617	84.1685	307.617	84.1992	307.617	83.9713	307.617	83.9908	307.617	83.7189	307.617	83.7073	307.617	83.4058	307.617	83.3383	307.617	83.0254	307.617	82.8739	307.617	82.5745	307.617	82.3105	307.617	82.0613	307.617	81.6617	307.617	81.5152	307.617	80.9732	307.617	80.9946	307.617	80.3352	307.617	80.581	307.617	79.8727	307.617	80.3482	307.617	79.6884	307.617	80.3165	307.617	79.7865	307.617	80.4338	307.617	80.0639	307.617	80.6037	307.617	80.3812	307.617	80.7309	307.617	80.6288	307.617	80.7491
319.336	84.1478	319.336	84.1101	319.336	84.1174	319.336	84.0092	319.336	84.0143	319.336	83.8488	319.336	83.8332	319.336	83.6298	319.336	83.5671	319.336	83.3476	319.336	83.2054	319.336	82.9913	319.336	82.7336	319.336	82.5464	319.336	82.136	319.336	82.0021	319.336	81.4044	319.336	81.3655	319.336	80.556	319.336	80.6817	319.336	79.6661	319.336	80.0537	319.336	78.904	319.336	79.6327	319.336	78.5076	319.336	79.5404	319.336	78.619	319.336	79.7671	319.336	79.1304	319.336	80.1697	319.336	79.7855	319.336	80.574	319.336	80.3687	319.336	80.8502	319.336	80.7631	319.336	80.924
329.59	84.0784	329.59	83.9712	329.59	84.106	329.59	83.7904	329.59	84.0509	329.59	83.5458	329.59	83.912	329.59	83.2488	329.59	83.6863	329.59	82.9088	329.59	83.366	329.59	82.5289	329.59	82.9361	329.59	82.105	329.59	82.3745	329.59	81.63	329.59	81.6578	329.59	81.1056	329.59	80.7752	329.59	80.5615	329.59	79.759	329.59	80.0708	329.59	78.7405	329.59	79.7436	329.59	77.9954	329.59	79.6723	329.59	77.8322	329.59	79.8543	329.59	78.2797	329.59	80.1789	329.59	79.0383	329.59	80.4945	329.59	79.7851	329.59	80.674	329.59	80.3393	329.59	80.6359
341.309	84.4339	341.309	84.3135	341.309	84.4607	341.309	84.0952	341.309	84.4004	341.309	83.7766	341.309	84.2599	341.309	83.3587	341.309	84.0444	341.309	82.8447	341.309	83.7546	341.309	82.2403	341.309	83.3837	341.309	81.5543	341.309	82.9166	341.309	80.803	341.309	82.3317	341.309	80.0217	341.309	81.6101	341.309	79.2841	341.309	80.7539	341.309	78.7154	341.309	79.8191	341.309	78.459	341.309	78.9572	341.309	78.5761	341.309	78.4113	341.309	78.9738	341.309	78.3654	341.309	79.4647	341.309	78.7496	341.309	79.8754	341.309	79.3031	341.309	80.0941	341.309	79.7866	341.309	80.0666
353.027	84.4215	353.027	84.3374	353.027	84.4009	353.027	84.146	353.027	84.2791	353.027	83.8448	353.027	84.0591	353.027	83.4304	353.027	83.7426	353.027	82.8972	353.027	83.3275	353.027	82.2362	353.027	82.8059	353.027	81.4369	353.027	82.1647	353.027	80.4966	353.027	81.3902	353.027	79.444	353.027	80.482	353.027	78.3895	353.027	79.4838	353.027	77.5809	353.027	78.5336	353.027	77.3371	353.027	77.8926	353.027	77.7519	353.027	77.819	353.027	78.5579	353.027	78.3013	353.027	79.4042	353.027	79.0528	353.027	80.0695	353.027	79.7761	353.027	80.4562	353.027	80.2952	353.027	80.5314
366.211	85.2298	366.211	85.233	366.211	85.1631	366.211	85.1637	366.211	85.0408	366.211	85.0117	366.211	84.8683	366.211	84.7634	366.211	84.6451	366.211	84.3998	366.211	84.3611	366.211	83.8939	366.211	83.9941	366.211	83.2092	366.211	83.5095	366.211	82.2991	366.211	82.8647	366.211	81.1095	366.211	82.0162	366.211	79.5906	366.211	80.9349	366.211	77.7448	366.211	79.6372	366.211	75.7869	366.211	78.2504	366.211	74.4384	366.211	77.094	366.211	74.5119	366.211	76.5784	366.211	75.5804	366.211	76.7706	366.211	76.7103	366.211	77.2825	366.211	77.4793	366.211	77.7018	366.211	77.8006
379.395	84.0784	379.395	84.0927	379.395	83.9915	379.395	84.0477	379.395	83.8251	379.395	83.9592	379.395	83.5788	379.395	83.8381	379.395	83.2563	379.395	83.6824	379.395	82.8591	379.395	83.4712	379.395	82.3812	379.395	83.1661	379.395	81.8044	379.395	82.7185	379.395	81.1021	379.395	82.0813	379.395	80.2552	379.395	81.2272	379.395	79.2885	379.395	80.1803	379.395	78.3324	379.395	79.0742	379.395	77.6678	379.395	78.2069	379.395	77.5873	379.395	77.9235	379.395	78.0711	379.395	78.2609	379.395	78.7856	379.395	78.8888	379.395	79.4055	379.395	79.457	379.395	79.7551	379.395	79.7707
392.578	84.5436	392.578	84.4409	392.578	84.5679	392.578	84.2686	392.578	84.5147	392.578	84.0445	392.578	84.3913	392.578	83.7907	392.578	84.2061	392.578	83.5227	392.578	83.9607	392.578	83.2363	392.578	83.6416	392.578	82.8983	392.578	83.2149	392.578	82.4482	392.578	82.6264	392.578	81.8102	392.578	81.8058	392.578	80.9101	392.578	80.6761	392.578	79.7023	392.578	79.1729	392.578	78.2289	392.578	77.3129	392.578	76.7532	392.578	75.4109	392.578	75.8495	392.578	74.3632	392.578	75.9119	392.578	74.7892	392.578	76.5363	392.578	75.8967	392.578	77.0844	392.578	76.8068	392.578	77.2128
405.762	84.0536	405.762	83.9037	405.762	84.0641	405.762	83.6152	405.762	83.9512	405.762	83.2098	405.762	83.7449	405.762	82.735	405.762	83.4848	405.762	82.262	405.762	83.2094	405.762	81.8673	405.762	82.9379	405.762	81.5917	405.762	82.6534	405.762	81.4078	405.762	82.2994	405.762	81.2289	405.762	81.7943	405.762	80.9551	405.762	81.056	405.762	80.519	405.762	80.0324	405.762	79.9183	405.762	78.7553	405.762	79.2384	405.762	77.4446	405.762	78.6476	405.762	76.5784	405.762	78.3078	405.762	76.5414	405.762	78.226	405.762	77.092	405.762	78.2279	405.762	77.708	405.762	78.0981
420.41	84.918	420.41	84.8528	420.41	84.8151	420.41	84.6076	420.41	84.5551	420.41	84.1691	420.41	84.1519	420.41	83.5258	420.41	83.6288	420.41	82.6773	420.41	83.0261	420.41	81.6506	420.41	82.4032	420.41	80.5244	420.41	81.8252	420.41	79.4465	420.41	81.3279	420.41	78.5939	420.41	80.8839	420.41	78.0548	420.41	80.4032	420.41	77.7522	420.41	79.7741	420.41	77.5324	420.41	78.9166	420.41	77.2984	420.41	77.8362	420.41	77.0486	420.41	76.6925	420.41	76.8258	420.41	75.8249	420.41	76.6375	420.41	75.5358	420.41	76.4238	420.41	75.7445	420.41	76.1156
435.059	84.4449	435.059	84.4341	435.059	84.341	435.059	84.3076	435.059	84.1198	435.059	84.0595	435.059	83.7768	435.059	83.6782	435.059	83.3076	435.059	83.1463	435.059	82.7106	435.059	82.4427	435.059	81.9918	435.059	81.5487	435.059	81.1707	435.059	80.461	435.059	80.289	435.059	79.222	435.059	79.4174	435.059	77.9739	435.059	78.6545	435.059	77.0052	435.059	78.1057	435.059	76.6373	435.059	77.8404	435.059	76.9096	435.059	77.8557	435.059	77.5293	435.059	78.079	435.059	78.1798	435.059	78.4049	435.059	78.6859	435.059	78.7312	435.059	78.9854	435.059	78.9748	435.059	79.0738
451.172	84.0646	451.172	84.0286	451.172	84.0342	451.172	83.9261	451.172	83.9345	451.172	83.7511	451.172	83.7589	451.172	83.4878	451.172	83.4946	451.172	83.1073	451.172	83.1211	451.172	82.5662	451.172	82.6104	451.172	81.8116	451.172	81.9303	451.172	80.7893	451.172	81.0537	451.172	79.4659	451.172	79.9743	451.172	77.8832	451.172	78.7384	451.172	76.2876	451.172	77.4982	451.172	75.2528	451.172	76.5475	451.172	75.2661	451.172	76.1892	451.172	76.0274	451.172	76.434	451.172	76.9189	451.172	76.9893	451.172	77.611	451.172	77.5536	451.172	78.0126	451.172	77.9561	451.172	78.1208
465.82	84.0793	465.82	84.0785	465.82	84.0022	465.82	84.0056	465.82	83.8479	465.82	83.8705	465.82	83.6215	465.82	83.6802	465.82	83.3282	465.82	83.4299	465.82	82.9648	465.82	83.094	465.82	82.5115	465.82	82.6223	465.82	81.927	465.82	81.9414	465.82	81.1497	465.82	80.9609	465.82	80.105	465.82	79.5829	465.82	78.7249	465.82	77.732	465.82	77.0033	465.82	75.4935	465.82	75.1739	465.82	73.5869	465.82	74.0073	465.82	73.4342	465.82	74.2791	465.82	74.79	465.82	75.4528	465.82	76.2251	465.82	76.6005	465.82	77.1629	465.82	77.3246	465.82	77.523
483.398	83.5524	483.398	83.4481	483.398	83.5338	483.398	83.2293	483.398	83.4	483.398	82.9221	483.398	83.1722	483.398	82.5668	483.398	82.8789	483.398	82.2044	483.398	82.5455	483.398	81.8531	483.398	82.1793	483.398	81.4858	483.398	81.7564	483.398	81.0284	483.398	81.2204	483.398	80.3818	483.398	80.4947	483.398	79.4583	483.398	79.5079	483.398	78.2345	483.398	78.2381	483.398	76.8649	483.398	76.8122	483.398	75.8435	483.398	75.6699	483.398	75.7685	483.398	75.4356	483.398	76.5133	483.398	76.1218	483.398	77.4055	483.398	77.0858	483.398	78.0023	483.398	77.8279	483.398	78.1509
499.512	83.2578	499.512	83.1737	499.512	83.2533	499.512	82.9973	499.512	83.1668	499.512	82.7279	499.512	83.0061	499.512	82.3675	499.512	82.7782	499.512	81.9185	499.512	82.4852	499.512	81.3801	499.512	82.119	499.512	80.743	499.512	81.6552	499.512	79.9873	499.512	81.0499	499.512	79.0856	499.512	80.2421	499.512	78.0217	499.512	79.1649	499.512	76.8346	499.512	77.7773	499.512	75.6997	499.512	76.1515	499.512	74.9766	499.512	74.6735	499.512	74.9745	499.512	74.092	499.512	75.5484	499.512	74.6484	499.512	76.2492	499.512	75.642	499.512	76.7277	499.512	76.4403	499.512	76.8123
517.09	83.2785	517.09	83.1983	517.09	83.2169	517.09	82.9822	517.09	83.0194	517.09	82.6478	517.09	82.7036	517.09	82.2222	517.09	82.2967	517.09	81.735	517.09	81.828	517.09	81.2001	517.09	81.3132	517.09	80.5928	517.09	80.7365	517.09	79.8365	517.09	80.0408	517.09	78.8106	517.09	79.1369	517.09	77.3781	517.09	77.9305	517.09	75.4611	517.09	76.3834	517.09	73.3291	517.09	74.6811	517.09	72.2458	517.09	73.5401	517.09	73.25	517.09	73.7983	517.09	75.0134	517.09	75.028	517.09	76.414	517.09	76.2778	517.09	77.219	517.09	77.1181	517.09	77.4423
536.133	83.1274	536.133	83.098	536.133	83.0135	536.133	82.9358	536.133	82.7728	536.133	82.6782	536.133	82.4506	536.133	82.3831	536.133	82.115	536.133	82.11	536.133	81.8345	536.133	81.8829	536.133	81.6343	536.133	81.657	536.133	81.4617	536.133	81.3185	536.133	81.1949	536.133	80.7123	536.133	80.683	536.133	79.6692	536.133	79.7816	536.133	78.0183	536.133	78.3763	536.133	75.6478	536.133	76.4528	536.133	72.9619	536.133	74.4002	536.133	72.084	536.133	73.4907	536.133	73.8071	536.133	74.4029	536.133	75.7116	536.133	75.8462	536.133	76.865	536.133	76.8691	536.133	77.23
555.176	83.88	555.176	83.8062	555.176	83.7791	555.176	83.5711	555.176	83.5066	555.176	83.2056	555.176	83.0861	555.176	82.7608	555.176	82.5708	555.176	82.3036	555.176	82.045	555.176	81.8919	555.176	81.5991	555.176	81.5324	555.176	81.2665	555.176	81.1501	555.176	80.9692	555.176	80.6	555.176	80.5323	555.176	79.7017	555.176	79.744	555.176	78.2652	555.176	78.3978	555.176	76.1289	555.176	76.3327	555.176	73.4524	555.176	73.7229	555.176	71.9386	555.176	72.2469	555.176	73.3779	555.176	73.6192	555.176	75.5055	555.176	75.6601	555.176	76.8918	555.176	76.968	555.176	77.3751
574.219	84.5299	574.219	84.4302	574.219	84.4413	574.219	84.1433	574.219	84.166	574.219	83.6791	574.219	83.712	574.219	83.0692	574.219	83.1045	574.219	82.3841	574.219	82.401	574.219	81.7306	574.219	81.6957	574.219	81.1975	574.219	81.0813	574.219	80.7625	574.219	80.5647	574.219	80.2598	574.219	80.0104	574.219	79.4464	574.219	79.1785	574.219	78.0769	574.219	77.7932	574.219	75.9574	574.219	75.5853	574.219	73.2548	574.219	72.5524	574.219	71.8219	574.219	70.7134	574.219	73.4151	574.219	72.6923	574.219	75.5612	574.219	75.2284	574.219	76.8996	574.219	76.7706	574.219	77.3031
594.727	84.6102	594.727	84.5143	594.727	84.538	594.727	84.2519	594.727	84.3067	594.727	83.8377	594.727	83.9375	594.727	83.3055	594.727	83.4694	594.727	82.7155	594.727	82.9616	594.727	82.1481	594.727	82.483	594.727	81.6648	594.727	82.0772	594.727	81.2436	594.727	81.7145	594.727	80.7462	594.727	81.2726	594.727	79.9522	594.727	80.5624	594.727	78.6092	594.727	79.3602	594.727	76.4547	594.727	77.4093	594.727	73.3542	594.727	74.4344	594.727	70.6029	594.727	70.7583	594.727	71.6315	594.727	70.1575	594.727	74.0447	594.727	72.9072	594.727	75.4999	594.727	74.9729	594.727	75.8076
615.234	84.691	615.234	84.5909	615.234	84.5546	615.234	84.2561	615.234	84.1836	615.234	83.6972	615.234	83.5904	615.234	82.9538	615.234	82.8197	615.234	82.127	615.234	81.986	615.234	81.4001	615.234	81.2923	615.234	80.9614	615.234	80.9395	615.234	80.8169	615.234	80.9217	615.234	80.7251	615.234	80.9843	615.234	80.3576	615.234	80.8138	615.234	79.435	615.234	80.1747	615.234	77.7532	615.234	78.9264	615.234	75.3004	615.234	77.0754	615.234	73.0606	615.234	75.1044	615.234	73.3476	615.234	74.3602	615.234	75.1596	615.234	75.2466	615.234	76.4669	615.234	76.3668	615.234	76.8535
637.207	85.4377	637.207	85.3632	637.207	85.3629	637.207	85.1286	637.207	85.1328	637.207	84.7094	637.207	84.7275	637.207	84.0763	637.207	84.1215	637.207	83.217	637.207	83.3017	637.207	82.1756	637.207	82.3026	637.207	81.0968	637.207	81.2514	637.207	80.1964	637.207	80.356	637.207	79.5543	637.207	79.724	637.207	78.9224	637.207	79.154	637.207	77.8356	637.207	78.2247	637.207	75.7579	637.207	76.5014	637.207	72.0068	637.207	73.6602	637.207	67.2101	637.207	70.5388	637.207	70.1575	637.207	71.3919	637.207	74.2257	637.207	74.3476	637.207	76.2957	637.207	76.2536	637.207	76.8957
659.18	84.588	659.18	84.5331	659.18	84.4822	659.18	84.3211	659.18	84.2166	659.18	83.9615	659.18	83.7996	659.18	83.4774	659.18	83.2584	659.18	82.9148	659.18	82.6546	659.18	82.3485	659.18	82.0899	659.18	81.8638	659.18	81.6684	659.18	81.4983	659.18	81.4102	659.18	81.1757	659.18	81.1926	659.18	80.7027	659.18	80.7881	659.18	79.8244	659.18	79.9343	659.18	78.2546	659.18	78.3517	659.18	75.6482	659.18	75.7195	659.18	71.6771	659.18	71.8981	659.18	68.3397	659.18	69.467	659.18	70.6514	659.18	71.6719	659.18	73.2941	659.18	73.7588	659.18	74.3065
682.617	84.988	682.617	84.9093	682.617	84.8897	682.617	84.6514	682.617	84.6099	682.617	84.2075	682.617	84.14	682.617	83.5749	682.617	83.4778	682.617	82.7777	682.617	82.651	682.617	81.9028	682.617	81.755	682.617	81.1256	682.617	80.9728	682.617	80.632	682.617	80.4799	682.617	80.414	682.617	80.2396	682.617	80.1943	682.617	79.9621	682.617	79.5969	682.617	79.2887	682.617	78.2852	682.617	77.9184	682.617	75.9882	682.617	75.6575	682.617	72.8296	682.617	72.8676	682.617	71.2541	682.617	71.9228	682.617	73.1469	682.617	73.6582	682.617	75.0588	682.617	75.2701	682.617	75.7755
707.52	85.2933	707.52	85.265	707.52	85.205	707.52	85.0981	707.52	84.9969	707.52	84.7498	707.52	84.6388	707.52	84.166	707.52	84.0781	707.52	83.3019	707.52	83.2589	707.52	82.1645	707.52	82.1693	707.52	80.8923	707.52	80.934	707.52	79.8138	707.52	79.8957	707.52	79.2264	707.52	79.3899	707.52	78.9492	707.52	79.2266	707.52	78.4197	707.52	78.7958	707.52	77.1019	707.52	77.5345	707.52	74.5825	707.52	74.9995	707.52	71.147	707.52	71.3252	707.52	71.0265	707.52	70.8884	707.52	74.1802	707.52	74.1544	707.52	76.3256	707.52	76.3418	707.52	77.0268
732.422	84.6215	732.422	84.5139	732.422	84.5577	732.422	84.2559	732.422	84.3202	732.422	83.8809	732.422	83.9234	732.422	83.4178	732.422	83.3917	732.422	82.8779	732.422	82.7556	732.422	82.2648	732.422	82.0593	732.422	81.6128	732.422	81.3727	732.422	81.0114	732.422	80.7793	732.422	80.5416	732.422	80.3025	732.422	80.1296	732.422	79.8158	732.422	79.495	732.422	79.0412	732.422	78.2417	732.422	77.6084	732.422	75.8896	732.422	75.0434	732.422	71.7487	732.422	70.7136	732.422	66.4687	732.422	66.6317	732.422	69.2254	732.422	70.0542	732.422	72.6945	732.422	73.0184	732.422	73.8442
757.324	85.1304	757.324	85.0265	757.324	85.0737	757.324	84.7614	757.324	84.8458	757.324	84.3241	757.324	84.4234	757.324	83.6977	757.324	83.7731	757.324	82.8771	757.324	82.8667	757.324	81.9109	757.324	81.7338	757.324	80.9618	757.324	80.5671	757.324	80.296	757.324	79.774	757.324	80.0435	757.324	79.6188	757.324	79.9463	757.324	79.7603	757.324	79.5259	757.324	79.5823	757.324	78.3389	757.324	78.6067	757.324	75.9982	757.324	76.4414	757.324	72.354	757.324	72.7098	757.324	70.0902	757.324	69.1574	757.324	72.4906	757.324	71.4908	757.324	74.6818	757.324	74.266	757.324	75.2869
785.156	84.8328	785.156	84.7598	785.156	84.7802	785.156	84.5522	785.156	84.6077	785.156	84.1901	785.156	84.3064	785.156	83.6262	785.156	83.8322	785.156	82.781	785.156	83.0982	785.156	81.576	785.156	82.0002	785.156	80.0457	785.156	80.501	785.156	78.5849	785.156	78.8373	785.156	77.9734	785.156	77.7445	785.156	78.2813	785.156	77.7061	785.156	78.5625	785.156	77.9566	785.156	78.0307	785.156	77.5337	785.156	76.225	785.156	75.8783	785.156	72.7736	785.156	72.6173	785.156	69.078	785.156	69.0064	785.156	70.9566	785.156	70.6812	785.156	73.6345	785.156	73.457	785.156	74.4589
811.523	85.0404	811.523	84.9363	811.523	84.9545	811.523	84.6447	811.523	84.6788	811.523	84.1702	811.523	84.22	811.523	83.52	811.523	83.5962	811.523	82.7031	811.523	82.8401	811.523	81.7429	811.523	81.9973	811.523	80.7239	811.523	81.1395	811.523	79.8662	811.523	80.4029	811.523	79.4522	811.523	79.9672	811.523	79.4516	811.523	79.8354	811.523	79.38	811.523	79.6574	811.523	78.6405	811.523	78.9026	811.523	76.6609	811.523	77.005	811.523	72.5793	811.523	73.1119	811.523	64.9235	811.523	65.1363	811.523	67.3842	811.523	65.9815	811.523	71.974	811.523	71.5446	811.523	73.1209
840.82	85.383	840.82	85.2588	840.82	85.2987	840.82	84.932	840.82	85.0116	840.82	84.42	840.82	84.5345	840.82	83.7443	840.82	83.8774	840.82	82.922	840.82	83.0395	840.82	81.9751	840.82	82.03	840.82	80.9859	840.82	80.9453	840.82	80.1748	840.82	80.068	840.82	79.8049	840.82	79.7259	840.82	79.8076	840.82	79.81	840.82	79.6964	840.82	79.7579	840.82	78.9148	840.82	79.0138	840.82	76.966	840.82	77.1479	840.82	73.3224	840.82	73.7886	840.82	68.995	840.82	69.9007	840.82	70.9133	840.82	71.0211	840.82	73.839	840.82	73.7339	840.82	74.7301
870.117	85.1612	870.117	85.0882	870.117	85.0817	870.117	84.868	870.117	84.8585	870.117	84.5076	870.117	84.5109	870.117	83.99	870.117	84.0456	870.117	83.2442	870.117	83.423	870.117	82.1358	870.117	82.5401	870.117	80.5235	870.117	81.268	870.117	78.5104	870.117	79.6105	870.117	77.103	870.117	78.1105	870.117	77.5318	870.117	77.847	870.117	78.6258	870.117	78.5621	870.117	78.92	870.117	78.8774	870.117	77.824	870.117	77.9605	870.117	74.8215	870.117	75.2692	870.117	69.2277	870.117	70.4622	870.117	68.2693	870.117	69.2521	870.117	72.5647	870.117	72.7652	870.117	73.9918
900.879	85.0905	900.879	84.9807	900.879	85.0307	900.879	84.7285	900.879	84.8009	900.879	84.3818	900.879	84.4176	900.879	83.9715	900.879	83.8952	900.879	83.4562	900.879	83.2183	900.879	82.6998	900.879	82.3209	900.879	81.5118	900.879	81.1119	900.879	79.7481	900.879	79.6058	900.879	77.6323	900.879	78.2245	900.879	76.4242	900.879	77.7826	900.879	76.9584	900.879	78.1756	900.879	77.5922	900.879	78.284	900.879	76.9675	900.879	77.2573	900.879	74.3811	900.879	74.4808	900.879	69.094	900.879	69.4834	900.879	67.3922	900.879	68.2201	900.879	71.7248	900.879	71.9449	900.879	73.2125
933.105	84.7704	933.105	84.67	933.105	84.6794	933.105	84.3879	933.105	84.4173	933.105	83.9542	933.105	84.0254	933.105	83.3958	933.105	83.5318	933.105	82.7088	933.105	82.9009	933.105	81.84	933.105	82.0076	933.105	80.7086	933.105	80.6814	933.105	79.3267	933.105	78.8657	933.105	78.0909	933.105	77.0745	933.105	77.7772	933.105	76.6856	933.105	78.289	933.105	77.6599	933.105	78.5402	933.105	78.3463	933.105	77.7183	933.105	77.8089	933.105	75.3242	933.105	75.5586	933.105	71.1546	933.105	71.3797	933.105	69.2696	933.105	69.6148	933.105	72.1798	933.105	72.4661	933.105	73.548
965.332	84.5288	965.332	84.4389	965.332	84.4051	965.332	84.156	965.332	84.0701	965.332	83.7181	965.332	83.5585	965.332	83.17	965.332	82.9338	965.332	82.5173	965.332	82.248	965.332	81.6639	965.332	81.4752	965.332	80.4164	965.332	80.486	965.332	78.6166	965.332	79.1256	965.332	76.5634	965.332	77.4682	965.332	75.6995	965.332	76.2743	965.332	76.609	965.332	76.3554	965.332	77.461	965.332	76.7647	965.332	77.0455	965.332	76.1139	965.332	74.7618	965.332	73.4314	965.332	69.8561	965.332	67.2675	965.332	66.6297	965.332	65.4865	965.332	70.8845	965.332	71.014	965.332	72.5309
1000.49	84.0657	1000.49	83.9625	1000.49	83.9274	1000.49	83.6192	1000.49	83.5684	1000.49	83.0674	1000.49	83.0389	1000.49	82.3909	1000.49	82.4215	1000.49	81.7295	1000.49	81.7911	1000.49	81.193	1000.49	81.1244	1000.49	80.7022	1000.49	80.257	1000.49	79.9711	1000.49	78.9693	1000.49	78.7141	1000.49	77.1903	1000.49	77.0073	1000.49	75.4457	1000.49	75.7656	1000.49	74.9648	1000.49	75.6782	1000.49	75.4981	1000.49	75.4709	1000.49	75.4439	1000.49	73.803	1000.49	73.8444	1000.49	70.3491	1000.49	70.31	1000.49	68.7119	1000.49	67.7617	1000.49	71.0026	1000.49	70.3268	1000.49	71.8691
1035.64	84.0858	1035.64	83.9218	1035.64	83.9985	1035.64	83.5379	1035.64	83.6612	1035.64	83.0013	1035.64	83.1107	1035.64	82.389	1035.64	82.4235	1035.64	81.7046	1035.64	81.6858	1035.64	80.8079	1035.64	80.9139	1035.64	79.4646	1035.64	79.9906	1035.64	77.5022	1035.64	78.6938	1035.64	75.2047	1035.64	76.8526	1035.64	74.1608	1035.64	74.9199	1035.64	75.2828	1035.64	74.6098	1035.64	76.5304	1035.64	75.7072	1035.64	76.5346	1035.64	75.9964	1035.64	74.7638	1035.64	74.4007	1035.64	71.0995	1035.64	70.3182	1035.64	69.2581	1035.64	66.8389	1035.64	71.5745	1035.64	70.3927	1035.64	72.3321
1072.27	83.8573	1072.27	83.7098	1072.27	83.7581	1072.27	83.3147	1072.27	83.4161	1072.27	82.6813	1072.27	82.8474	1072.27	81.8746	1072.27	82.0977	1072.27	81.0825	1072.27	81.2529	1072.27	80.5481	1072.27	80.4046	1072.27	80.2341	1072.27	79.5741	1072.27	79.6939	1072.27	78.683	1072.27	78.4051	1072.27	77.617	1072.27	76.1334	1072.27	76.4095	1072.27	73.8238	1072.27	75.5312	1072.27	73.6862	1072.27	75.3926	1072.27	74.1163	1072.27	75.1953	1072.27	72.6445	1072.27	73.7323	1072.27	68.1202	1072.27	70.2247	1072.27	65.8964	1072.27	67.1463	1072.27	70.3395	1072.27	70.0031	1072.27	71.6958
1108.89	84.5263	1108.89	84.379	1108.89	84.3947	1108.89	83.9308	1108.89	83.9966	1108.89	83.1831	1108.89	83.3409	1108.89	82.202	1108.89	82.4839	1108.89	81.1152	1108.89	81.5828	1108.89	80.0102	1108.89	80.8269	1108.89	78.8213	1108.89	80.1852	1108.89	77.3998	1108.89	79.3008	1108.89	75.8102	1108.89	77.7287	1108.89	74.7786	1108.89	75.3853	1108.89	75.1693	1108.89	73.8566	1108.89	76.1201	1108.89	74.8901	1108.89	76.1993	1108.89	75.8221	1108.89	74.5687	1108.89	74.8248	1108.89	70.7534	1108.89	71.4324	1108.89	68.7397	1108.89	69.4861	1108.89	72.2428	1108.89	72.6026	1108.89	73.8358
1148.44	84.1837	1148.44	84.0601	1148.44	84.1159	1148.44	83.7547	1148.44	83.8378	1148.44	83.2436	1148.44	83.3449	1148.44	82.5024	1148.44	82.6531	1148.44	81.6144	1148.44	81.7982	1148.44	80.8244	1148.44	80.8319	1148.44	80.2885	1148.44	79.7855	1148.44	79.7418	1148.44	78.6081	1148.44	78.6455	1148.44	77.1883	1148.44	76.5098	1148.44	75.6155	1148.44	73.4946	1148.44	74.7057	1148.44	72.3474	1148.44	75.1557	1148.44	73.4024	1148.44	75.64	1148.44	72.9751	1148.44	74.5593	1148.44	69.7429	1148.44	70.7651	1148.44	66.5575	1148.44	66.4292	1148.44	70.3257	1148.44	70.3823	1148.44	72.1176
1189.45	84.6443	1189.45	84.553	1189.45	84.5289	1189.45	84.2201	1189.45	84.2094	1189.45	83.6165	1189.45	83.6391	1189.45	82.7463	1189.45	82.7589	1189.45	81.6413	1189.45	81.6004	1189.45	80.3437	1189.45	80.4086	1189.45	78.9381	1189.45	79.5272	1189.45	77.5752	1189.45	78.8933	1189.45	76.2853	1189.45	77.9531	1189.45	74.9444	1189.45	76.2317	1189.45	74.2081	1189.45	74.1648	1189.45	75.0643	1189.45	73.8794	1189.45	75.9747	1189.45	74.8446	1189.45	75.2289	1189.45	74.408	1189.45	72.1228	1189.45	71.5056	1189.45	68.8049	1189.45	68.2053	1189.45	71.0333	1189.45	70.7511	1189.45	72.3667
1230.47	84.1661	1230.47	84.0631	1230.47	84.0529	1230.47	83.7665	1230.47	83.7027	1230.47	83.2707	1230.47	83.1045	1230.47	82.535	1230.47	82.271	1230.47	81.5711	1230.47	81.2721	1230.47	80.5619	1230.47	80.2136	1230.47	79.7541	1230.47	79.1189	1230.47	79.0758	1230.47	77.9236	1230.47	78.0849	1230.47	76.6435	1230.47	76.3315	1230.47	75.31	1230.47	74.017	1230.47	74.1123	1230.47	73.4674	1230.47	74.1393	1230.47	74.7451	1230.47	75.0477	1230.47	74.5302	1230.47	74.7032	1230.47	71.4125	1230.47	71.933	1230.47	67.7693	1230.47	68.0636	1230.47	70.8228	1230.47	70.2095	1230.47	72.1317
1274.41	84.1937	1274.41	84.0988	1274.41	84.0775	1274.41	83.7616	1274.41	83.7507	1274.41	83.1555	1274.41	83.1848	1274.41	82.2983	1274.41	82.3608	1274.41	81.2536	1274.41	81.3324	1274.41	80.0883	1274.41	80.2709	1274.41	78.8257	1274.41	79.3699	1274.41	77.4866	1274.41	78.6016	1274.41	76.2542	1274.41	77.6315	1274.41	75.254	1274.41	75.9578	1274.41	74.2004	1274.41	73.342	1274.41	73.5329	1274.41	71.7247	1274.41	73.9171	1274.41	72.7376	1274.41	73.5155	1274.41	72.6451	1274.41	70.5734	1274.41	69.71	1274.41	68.19	1274.41	67.6458	1274.41	71.7314	1274.41	71.5296	1274.41	73.2203
1319.82	84.3588	1319.82	84.1828	1319.82	84.2983	1319.82	83.8143	1319.82	83.9857	1319.82	83.26	1319.82	83.4512	1319.82	82.4525	1319.82	82.7379	1319.82	81.3571	1319.82	81.8384	1319.82	80.1342	1319.82	80.6877	1319.82	79.0738	1319.82	79.2634	1319.82	78.2723	1319.82	77.706	1319.82	77.5039	1319.82	76.3156	1319.82	76.228	1319.82	75.1334	1319.82	73.7434	1319.82	73.6083	1319.82	71.0427	1319.82	72.1606	1319.82	72.1239	1319.82	72.8421	1319.82	73.0661	1319.82	73.4408	1319.82	70.7442	1319.82	70.9569	1319.82	65.9776	1319.82	64.9382	1319.82	70.0522	1319.82	69.8925	1319.82	72.3329
1366.7	84.5743	1366.7	84.4497	1366.7	84.4677	1366.7	84.0834	1366.7	84.1685	1366.7	83.4732	1366.7	83.7211	1366.7	82.6488	1366.7	83.0804	1366.7	81.6791	1366.7	82.1056	1366.7	80.5994	1366.7	80.7501	1366.7	79.3544	1366.7	79.3252	1366.7	77.8714	1366.7	78.3321	1366.7	76.2397	1366.7	77.6443	1366.7	74.6278	1366.7	76.5901	1366.7	72.8642	1366.7	74.7106	1366.7	71.8012	1366.7	72.765	1366.7	72.8868	1366.7	73.1132	1366.7	73.2916	1366.7	73.6898	1366.7	70.7954	1366.7	71.555	1366.7	67.2798	1366.7	67.326	1366.7	70.9867	1366.7	70.5585	1366.7	72.7263
1413.57	84.96	1413.57	84.8377	1413.57	84.8629	1413.57	84.4931	1413.57	84.5735	1413.57	83.9589	1413.57	84.0941	1413.57	83.2086	1413.57	83.3897	1413.57	82.1164	1413.57	82.4314	1413.57	80.6505	1413.57	81.2695	1413.57	79.0797	1413.57	79.9698	1413.57	77.7606	1413.57	78.4191	1413.57	76.7253	1413.57	76.6075	1413.57	75.7625	1413.57	75.2915	1413.57	74.3293	1413.57	74.689	1413.57	72.4574	1413.57	73.8885	1413.57	72.7344	1413.57	73.7672	1413.57	73.6053	1413.57	74.1831	1413.57	71.5628	1413.57	72.5186	1413.57	67.455	1413.57	67.9951	1413.57	70.4448	1413.57	69.3611	1413.57	71.924
1463.38	85.0392	1463.38	84.8985	1463.38	84.8421	1463.38	84.4902	1463.38	84.3627	1463.38	83.91	1463.38	83.7478	1463.38	83.1827	1463.38	83.0434	1463.38	82.2407	1463.38	82.0956	1463.38	81.022	1463.38	80.7879	1463.38	79.6928	1463.38	79.3697	1463.38	78.5064	1463.38	78.2392	1463.38	77.2499	1463.38	77.3022	1463.38	75.7869	1463.38	76.2513	1463.38	74.3879	1463.38	74.5822	1463.38	72.7739	1463.38	71.8918	1463.38	72.169	1463.38	71.1105	1463.38	72.6142	1463.38	71.8393	1463.38	70.0453	1463.38	69.2505	1463.38	65.1639	1463.38	65.155	1463.38	71.4107	1463.38	71.1912	1463.38	73.5165
1516.11	84.6491	1516.11	84.559	1516.11	84.4401	1516.11	84.1569	1516.11	84.0212	1516.11	83.5539	1516.11	83.4621	1516.11	82.8665	1516.11	82.7329	1516.11	82.0101	1516.11	81.7423	1516.11	80.8495	1516.11	80.5359	1516.11	79.5468	1516.11	79.3959	1516.11	78.2713	1516.11	78.2863	1516.11	76.6683	1516.11	76.5388	1516.11	74.8742	1516.11	74.2034	1516.11	73.8407	1516.11	72.803	1516.11	72.6271	1516.11	71.582	1516.11	71.4406	1516.11	70.6512	1516.11	71.8734	1516.11	71.936	1516.11	70.418	1516.11	70.8778	1516.11	65.2129	1516.11	64.4612	1516.11	69.2305	1516.11	69.1947	1516.11	72.0435
1568.85	84.6759	1568.85	84.4801	1568.85	84.5166	1568.85	83.981	1568.85	84.0268	1568.85	83.306	1568.85	83.2805	1568.85	82.5322	1568.85	82.4037	1568.85	81.5728	1568.85	81.4934	1568.85	80.3053	1568.85	80.4313	1568.85	78.8446	1568.85	78.9937	1568.85	77.5001	1568.85	77.2669	1568.85	76.1965	1568.85	75.7039	1568.85	74.9544	1568.85	74.8042	1568.85	74.0997	1568.85	74.319	1568.85	72.5956	1568.85	72.7222	1568.85	71.0262	1568.85	70.7921	1568.85	71.7436	1568.85	72.4243	1568.85	70.7338	1568.85	72.0931	1568.85	64.7519	1568.85	65.0178	1568.85	67.2117	1568.85	65.5777	1568.85	70.2213
1624.51	85.1643	1624.51	84.8514	1624.51	84.9853	1624.51	84.1135	1624.51	84.3197	1624.51	83.0966	1624.51	83.3099	1624.51	82.0821	1624.51	82.25	1624.51	81.2085	1624.51	81.2957	1624.51	80.1038	1624.51	80.1699	1624.51	78.6399	1624.51	78.8075	1624.51	77.5973	1624.51	78.0059	1624.51	76.7627	1624.51	77.5363	1624.51	75.0475	1624.51	75.9067	1624.51	73.2552	1624.51	73.2004	1624.51	71.7113	1624.51	71.4306	1624.51	69.87	1624.51	71.0781	1624.51	71.1193	1624.51	71.6962	1624.51	70.2953	1624.51	70.7477	1624.51	64.2541	1624.51	65.7131	1624.51	69.2435	1624.51	66.4763	1624.51	70.8519
1681.64	85.3427	1681.64	85.1272	1681.64	85.1144	1681.64	84.4523	1681.64	84.4987	1681.64	83.4448	1681.64	83.566	1681.64	82.3667	1681.64	82.4594	1681.64	81.3409	1681.64	81.3874	1681.64	80.2136	1681.64	80.3817	1681.64	78.8946	1681.64	79.2891	1681.64	77.533	1681.64	78.1199	1681.64	75.815	1681.64	76.5168	1681.64	73.1477	1681.64	73.7999	1681.64	71.9568	1681.64	72.3204	1681.64	72.2512	1681.64	72.6064	1681.64	70.5068	1681.64	71.0876	1681.64	70.3051	1681.64	70.6711	1681.64	69.9228	1681.64	70.2999	1681.64	63.0182	1681.64	64.8751	1681.64	65.7261	1681.64	66.7314	1681.64	69.7668
1741.7	85.1281	1741.7	84.9828	1741.7	84.8609	1741.7	84.4478	1741.7	84.2398	1741.7	83.5876	1741.7	83.3513	1741.7	82.5088	1741.7	82.2652	1741.7	81.4627	1741.7	81.1652	1741.7	80.4704	1741.7	80.1973	1741.7	78.9087	1741.7	78.9016	1741.7	76.7853	1741.7	77.0419	1741.7	75.6452	1741.7	75.7159	1741.7	74.7576	1741.7	74.7668	1741.7	73.1539	1741.7	73.6662	1741.7	72.1014	1741.7	73.2459	1741.7	70.6379	1741.7	71.3797	1741.7	70.5363	1741.7	70.4839	1741.7	70.7399	1741.7	71.2698	1741.7	66.2952	1741.7	65.589	1741.7	63.1586	1741.7	64.003	1741.7	68.2875
1803.22	84.8361	1803.22	84.6995	1803.22	84.599	1803.22	84.2042	1803.22	84.0146	1803.22	83.3195	1803.22	83.1013	1803.22	82.0701	1803.22	81.8808	1803.22	80.8879	1803.22	80.6109	1803.22	80.0298	1803.22	79.5342	1803.22	78.7475	1803.22	78.2015	1803.22	77.3393	1803.22	76.8578	1803.22	77.286	1803.22	76.8937	1803.22	76.4226	1803.22	76.2217	1803.22	73.3875	1803.22	73.1195	1803.22	71.5525	1803.22	71.165	1803.22	70.4771	1803.22	70.1064	1803.22	70.3542	1803.22	68.3816	1803.22	70.8439	1803.22	69.1818	1803.22	65.5021	1803.22	65.0343	1803.22	66.3936	1803.22	61.722	1803.22	68.7993
1866.21	84.9316	1866.21	84.693	1866.21	84.8014	1866.21	84.0925	1866.21	84.3528	1866.21	83.1543	1866.21	83.5676	1866.21	81.9187	1866.21	82.3501	1866.21	80.6526	1866.21	80.9281	1866.21	79.6962	1866.21	79.9193	1866.21	78.79	1866.21	79.0556	1866.21	77.7553	1866.21	77.7138	1866.21	76.8786	1866.21	76.5996	1866.21	75.1015	1866.21	74.9727	1866.21	71.8267	1866.21	71.8577	1866.21	71.7271	1866.21	71.5616	1866.21	71.8907	1866.21	70.7716	1866.21	70.5861	1866.21	69.428	1866.21	70.4127	1866.21	70.4745	1866.21	65.595	1866.21	66.8723	1866.21	63.381	1866.21	62.5372	1866.21	67.9787
1932.13	85.0294	1932.13	84.7909	1932.13	84.8855	1932.13	84.2005	1932.13	84.3948	1932.13	83.3439	1932.13	83.6188	1932.13	82.2172	1932.13	82.5479	1932.13	80.765	1932.13	81.1625	1932.13	79.4596	1932.13	79.8863	1932.13	78.6246	1932.13	78.9369	1932.13	77.0272	1932.13	77.2601	1932.13	74.7951	1932.13	75.1816	1932.13	74.1036	1932.13	74.5473	1932.13	72.6204	1932.13	73.2396	1932.13	71.5142	1932.13	72.3016	1932.13	71.0984	1932.13	71.673	1932.13	69.702	1932.13	70.574	1932.13	69.9817	1932.13	72.2104	1932.13	66.4776	1932.13	68.9512	1932.13	62.2648	1932.13	62.0823	1932.13	66.4937
1999.51	84.9555	1999.51	84.7751	1999.51	84.6747	1999.51	84.159	1999.51	83.9977	1999.51	83.2541	1999.51	83.091	1999.51	82.2598	1999.51	82.0389	1999.51	81.0705	1999.51	80.7228	1999.51	79.6898	1999.51	79.3925	1999.51	78.563	1999.51	78.3782	1999.51	76.7588	1999.51	76.5007	1999.51	74.4073	1999.51	74.4786	1999.51	74.6752	1999.51	75.1494	1999.51	73.2901	1999.51	73.707	1999.51	70.6939	1999.51	70.4335	1999.51	70.8092	1999.51	70.3621	1999.51	69.2442	1999.51	68.0025	1999.51	70.4295	1999.51	69.5199	1999.51	67.1105	1999.51	68.3747	1999.51	64.0467	1999.51	61.4134	1999.51	67.434
2069.82	84.9519	2069.82	84.6985	2069.82	84.6956	2069.82	83.9865	2069.82	83.9299	2069.82	82.9594	2069.82	82.8683	2069.82	81.8285	2069.82	81.8341	2069.82	80.5836	2069.82	80.6826	2069.82	79.325	2069.82	79.2204	2069.82	78.4385	2069.82	78.1924	2069.82	77.043	2069.82	76.9665	2069.82	75.1062	2069.82	75.0833	2069.82	75.0687	2069.82	74.9723	2069.82	73.5442	2069.82	72.966	2069.82	70.2102	2069.82	69.666	2069.82	70.632	2069.82	70.6111	2069.82	69.7095	2069.82	68.6561	2069.82	69.5396	2069.82	69.7132	2069.82	66.8955	2069.82	68.6195	2069.82	61.2581	2069.82	62.2238	2069.82	65.363
2143.07	85.2257	2143.07	84.8961	2143.07	85.0595	2143.07	84.0725	2143.07	84.3863	2143.07	82.8777	2143.07	83.3476	2143.07	81.671	2143.07	82.3451	2143.07	80.5522	2143.07	81.4148	2143.07	79.142	2143.07	80.0066	2143.07	78.0008	2143.07	78.752	2143.07	77.4621	2143.07	78.3539	2143.07	75.9131	2143.07	76.9392	2143.07	74.6299	2143.07	75.0895	2143.07	72.9537	2143.07	73.2676	2143.07	70.1299	2143.07	69.9691	2143.07	70.4154	2143.07	70.7282	2143.07	69.0375	2143.07	68.7281	2143.07	70.2743	2143.07	69.5385	2143.07	67.0556	2143.07	68.6751	2143.07	63.7762	2143.07	61.0127	2143.07	65.746
2219.24	84.7284	2219.24	84.4778	2219.24	84.4886	2219.24	83.7982	2219.24	83.722	2219.24	82.7354	2219.24	82.6334	2219.24	81.7206	2219.24	81.588	2219.24	80.9411	2219.24	80.8689	2219.24	79.7474	2219.24	79.9348	2219.24	78.4192	2219.24	78.778	2219.24	77.3627	2219.24	78.105	2219.24	75.0509	2219.24	76.3082	2219.24	73.3216	2219.24	75.2515	2219.24	73.4419	2219.24	74.7662	2219.24	70.3441	2219.24	71.896	2219.24	69.5914	2219.24	70.8447	2219.24	68.2111	2219.24	69.945	2219.24	68.6587	2219.24	69.3861	2219.24	67.2011	2219.24	68.172	2219.24	62.6472	2219.24	61.957	2219.24	68.5892
2296.88	84.2503	2296.88	83.9783	2296.88	84.0398	2296.88	83.2858	2296.88	83.3604	2296.88	82.3157	2296.88	82.3257	2296.88	81.2551	2296.88	81.146	2296.88	80.329	2296.88	80.2082	2296.88	79.5068	2296.88	79.3138	2296.88	78.2476	2296.88	77.7737	2296.88	77.3418	2296.88	76.894	2296.88	75.9087	2296.88	75.715	2296.88	73.658	2296.88	73.3913	2296.88	73.2232	2296.88	73.1963	2296.88	70.4186	2296.88	70.4551	2296.88	69.6503	2296.88	69.9595	2296.88	68.4152	2296.88	68.4589	2296.88	68.4501	2296.88	67.7664	2296.88	66.816	2296.88	67.2711	2296.88	61.4061	2296.88	60.4574	2296.88	67.3715
2378.91	84.6651	2378.91	84.348	2378.91	84.4949	2378.91	83.6664	2378.91	83.878	2378.91	82.7127	2378.91	82.961	2378.91	81.5594	2378.91	81.8656	2378.91	80.4473	2378.91	80.8236	2378.91	79.4974	2378.91	80.0271	2378.91	78.2466	2378.91	78.6381	2378.91	77.1482	2378.91	77.1779	2378.91	75.914	2378.91	76.007	2378.91	73.6123	2378.91	73.6139	2378.91	73.2768	2378.91	72.8144	2378.91	70.7163	2378.91	70.5436	2378.91	69.4972	2378.91	69.048	2378.91	68.448	2378.91	68.8398	2378.91	68.191	2378.91	67.4179	2378.91	67.13	2378.91	67.7056	2378.91	61.3085	2378.91	60.8581	2378.91	67.4093
2462.4	84.513	2462.4	84.2543	2462.4	84.345	2462.4	83.6901	2462.4	83.8346	2462.4	82.9387	2462.4	83.0804	2462.4	81.9704	2462.4	82.058	2462.4	80.8406	2462.4	80.8321	2462.4	79.8383	2462.4	79.9524	2462.4	78.504	2462.4	78.8287	2462.4	77.0433	2462.4	77.425	2462.4	76.0079	2462.4	76.4623	2462.4	73.724	2462.4	74.1081	2462.4	72.9852	2462.4	73.2421	2462.4	70.997	2462.4	71.5911	2462.4	69.7196	2462.4	70.226	2462.4	69.4231	2462.4	70.1217	2462.4	67.8563	2462.4	67.8732	2462.4	67.6201	2462.4	67.9729	2462.4	60.525	2462.4	60.479	2462.4	67.6558
2548.83	83.9587	2548.83	83.7626	2548.83	83.8196	2548.83	83.3276	2548.83	83.4156	2548.83	82.7002	2548.83	82.7803	2548.83	81.8634	2548.83	81.9076	2548.83	80.8128	2548.83	80.6687	2548.83	79.7917	2548.83	79.4937	2548.83	78.5736	2548.83	78.4669	2548.83	77.0472	2548.83	76.9062	2548.83	76.003	2548.83	76.0159	2548.83	73.9034	2548.83	73.9397	2548.83	72.8011	2548.83	72.4241	2548.83	71.1674	2548.83	71.2527	2548.83	69.2603	2548.83	68.9914	2548.83	69.939	2548.83	70.029	2548.83	67.593	2548.83	67.3061	2548.83	67.9701	2548.83	68.0011	2548.83	61.5325	2548.83	59.6873	2548.83	67.6023
2639.65	83.9524	2639.65	83.8024	2639.65	83.8276	2639.65	83.4327	2639.65	83.5273	2639.65	82.8374	2639.65	82.9806	2639.65	81.957	2639.65	82.1883	2639.65	80.8241	2639.65	80.9837	2639.65	79.6026	2639.65	79.5926	2639.65	78.3987	2639.65	78.4572	2639.65	76.7734	2639.65	76.8844	2639.65	75.6007	2639.65	75.694	2639.65	73.7613	2639.65	74.179	2639.65	71.8678	2639.65	72.0907	2639.65	70.7433	2639.65	71.4263	2639.65	67.7127	2639.65	68.3472	2639.65	69.6758	2639.65	70.2291	2639.65	67.2434	2639.65	67.2689	2639.65	67.6352	2639.65	68.2427	2639.65	60.3109	2639.65	58.9603	2639.65	67.2637
2731.93	83.9705	2731.93	83.9104	2731.93	83.9214	2731.93	83.7605	2731.93	83.7896	2731.93	83.2905	2731.93	83.3638	2731.93	82.3991	2731.93	82.5372	2731.93	81.1325	2731.93	81.3359	2731.93	79.6861	2731.93	79.7847	2731.93	78.34	2731.93	78.4311	2731.93	76.7881	2731.93	76.8974	2731.93	75.3381	2731.93	75.2865	2731.93	73.728	2731.93	73.7928	2731.93	71.9607	2731.93	71.7323	2731.93	71.2917	2731.93	71.2651	2731.93	67.6419	2731.93	67.9818	2731.93	69.777	2731.93	69.9592	2731.93	66.8321	2731.93	67.0469	2731.93	67.82	2731.93	68.1339	2731.93	59.0308	2731.93	58.6906	2731.93	66.6412
2828.61	83.8987	2828.61	83.9399	2828.61	83.9528	2828.61	84.0071	2828.61	84.0292	2828.61	83.6817	2828.61	83.7355	2828.61	82.7773	2828.61	82.9195	2828.61	81.4192	2828.61	81.6984	2828.61	79.8086	2828.61	80.0439	2828.61	78.3179	2828.61	78.5385	2828.61	76.6943	2828.61	76.9836	2828.61	75.2162	2828.61	75.5755	2828.61	73.6179	2828.61	73.9759	2828.61	71.3985	2828.61	71.782	2828.61	70.8871	2828.61	71.139	2828.61	67.6519	2828.61	67.9236	2828.61	69.6995	2828.61	69.7609	2828.61	67.0382	2828.61	66.8831	2828.61	68.0689	2828.61	68.1695	2828.61	60.4659	2828.61	59.4032	2828.61	67.0002
2928.22	83.4667	2928.22	83.5847	2928.22	83.5489	2928.22	83.8086	2928.22	83.7942	2928.22	83.6093	2928.22	83.6337	2928.22	82.7894	2928.22	82.8695	2928.22	81.5599	2928.22	81.5838	2928.22	79.9471	2928.22	79.8169	2928.22	78.5203	2928.22	78.3118	2928.22	76.745	2928.22	76.6761	2928.22	75.2045	2928.22	75.2009	2928.22	73.3233	2928.22	73.5079	2928.22	71.7601	2928.22	71.6752	2928.22	70.3497	2928.22	70.2908	2928.22	67.0861	2928.22	67.7285	2928.22	69.5641	2928.22	69.7508	2928.22	66.8136	2928.22	67.4588	2928.22	68.1109	2928.22	68.0927	2928.22	57.8361	2928.22	58.4089	2928.22	66.8773
3030.76	83.7647	3030.76	83.8603	3030.76	83.9911	3030.76	84.0388	3030.76	84.253	3030.76	83.8388	3030.76	84.0876	3030.76	82.8827	3030.76	83.2532	3030.76	81.2723	3030.76	81.9011	3030.76	79.1724	3030.76	79.8509	3030.76	77.6728	3030.76	78.1242	3030.76	75.9949	3030.76	76.4895	3030.76	74.6481	3030.76	74.8244	3030.76	72.7375	3030.76	72.9675	3030.76	71.4286	3030.76	71.4736	3030.76	69.8865	3030.76	69.7351	3030.76	67.0424	3030.76	67.0168	3030.76	69.2323	3030.76	69.0796	3030.76	66.9471	3030.76	67.5645	3030.76	67.8159	3030.76	68.1365	3030.76	59.1236	3030.76	58.9555	3030.76	66.7753
3137.7	83.8742	3137.7	84.107	3137.7	83.9663	3137.7	84.3161	3137.7	84.2204	3137.7	84.2432	3137.7	84.1106	3137.7	83.5325	3137.7	83.2484	3137.7	82.1955	3137.7	81.9585	3137.7	80.1523	3137.7	80.0145	3137.7	78.2364	3137.7	77.9557	3137.7	76.2868	3137.7	76.427	3137.7	74.272	3137.7	74.4037	3137.7	72.2964	3137.7	72.8688	3137.7	70.2295	3137.7	70.9101	3137.7	68.9821	3137.7	69.5828	3137.7	65.2669	3137.7	66.5843	3137.7	67.5959	3137.7	67.3014	3137.7	66.1098	3137.7	67.347	3137.7	67.7451	3137.7	67.5614	3137.7	56.9267	3137.7	59.1689	3137.7	66.6776
3249.02	83.4854	3249.02	83.651	3249.02	83.7375	3249.02	83.8461	3249.02	84.0646	3249.02	83.5546	3249.02	83.9503	3249.02	82.581	3249.02	83.0802	3249.02	80.8488	3249.02	81.5246	3249.02	79.0597	3249.02	79.6911	3249.02	77.3014	3249.02	77.4386	3249.02	76.1538	3249.02	76.0428	3249.02	74.4007	3249.02	73.9419	3249.02	72.9439	3249.02	72.442	3249.02	71.132	3249.02	70.468	3249.02	69.2944	3249.02	68.9579	3249.02	66.6265	3249.02	67.065	3249.02	65.9816	3249.02	65.8643	3249.02	65.871	3249.02	67.1344	3249.02	66.7413	3249.02	66.9575	3249.02	56.7486	3249.02	58.6376	3249.02	66.1249
3363.28	84.1875	3363.28	84.4092	3363.28	84.1208	3363.28	84.4495	3363.28	84.271	3363.28	84.0627	3363.28	84.0269	3363.28	83.2584	3363.28	83.0315	3363.28	81.4795	3363.28	81.1869	3363.28	79.0036	3363.28	79.1229	3363.28	76.5871	3363.28	76.9302	3363.28	74.4368	3363.28	75.4288	3363.28	72.4996	3363.28	73.1938	3363.28	71.1633	3363.28	71.998	3363.28	69.3551	3363.28	69.5971	3363.28	68.4841	3363.28	68.6927	3363.28	66.7446	3363.28	66.1109	3363.28	65.1069	3363.28	64.3201	3363.28	65.4973	3363.28	66.1146	3363.28	64.8602	3363.28	65.7854	3363.28	56.5238	3363.28	58.0974	3363.28	64.7165
3481.93	84.0057	3481.93	84.0158	3481.93	84.0492	3481.93	83.9664	3481.93	84.0974	3481.93	83.6058	3481.93	83.8926	3481.93	82.582	3481.93	82.9656	3481.93	80.9265	3481.93	81.219	3481.93	78.8167	3481.93	78.7727	3481.93	77.1136	3481.93	76.634	3481.93	75.2812	3481.93	74.6808	3481.93	73.3421	3481.93	72.6705	3481.93	71.6226	3481.93	71.0955	3481.93	69.5035	3481.93	68.9894	3481.93	67.7714	3481.93	68.2903	3481.93	65.3208	3481.93	65.442	3481.93	63.7994	3481.93	63.0186	3481.93	65.4211	3481.93	65.0077	3481.93	63.8247	3481.93	64.483	3481.93	55.4709	3481.93	56.8936	3481.93	64.9851
3604.98	84.4263	3604.98	84.4297	3604.98	84.4271	3604.98	84.1813	3604.98	84.2835	3604.98	83.8123	3604.98	83.8854	3604.98	82.6879	3604.98	82.722	3604.98	80.552	3604.98	80.8222	3604.98	77.6179	3604.98	78.1744	3604.98	75.3707	3604.98	76.1927	3604.98	73.1325	3604.98	74.043	3604.98	71.5684	3604.98	72.5681	3604.98	70.9223	3604.98	71.0047	3604.98	68.8466	3604.98	68.9138	3604.98	68.6581	3604.98	68.4821	3604.98	65.9851	3604.98	65.7513	3604.98	64.0832	3604.98	63.1644	3604.98	65.6383	3604.98	65.4263	3604.98	63.4665	3604.98	63.4116	3604.98	55.5196	3604.98	58.7668	3604.98	64.0285
3732.42	84.2864	3732.42	84.2401	3732.42	84.2052	3732.42	83.974	3732.42	84.1052	3732.42	83.4285	3732.42	83.6604	3732.42	82.2731	3732.42	82.5651	3732.42	80.1498	3732.42	80.452	3732.42	77.936	3732.42	77.7207	3732.42	76.0834	3732.42	75.6055	3732.42	73.7851	3732.42	72.8997	3732.42	71.6888	3732.42	71.7004	3732.42	69.9434	3732.42	70.0957	3732.42	68.0632	3732.42	68.4551	3732.42	66.2321	3732.42	67.2248	3732.42	63.9428	3732.42	64.8895	3732.42	62.4742	3732.42	62.9215	3732.42	64.0201	3732.42	64.8967	3732.42	61.0278	3732.42	62.1639	3732.42	54.7261	3732.42	56.4748	3732.42	63.5225
3864.26	84.6628	3864.26	84.5758	3864.26	84.6564	3864.26	84.3974	3864.26	84.5441	3864.26	83.8009	3864.26	83.8771	3864.26	82.4998	3864.26	82.727	3864.26	79.9907	3864.26	80.5399	3864.26	77.1651	3864.26	77.8755	3864.26	74.6348	3864.26	75.5921	3864.26	72.5965	3864.26	73.1598	3864.26	71.3264	3864.26	71.853	3864.26	70.6123	3864.26	70.5673	3864.26	69.3185	3864.26	69.1423	3864.26	67.5546	3864.26	67.8337	3864.26	65.4414	3864.26	65.5237	3864.26	63.2792	3864.26	63.3561	3864.26	64.5855	3864.26	64.7848	3864.26	60.617	3864.26	62.1476	3864.26	54.6971	3864.26	58.4236	3864.26	63.3094
4000.49	84.0424	4000.49	84.0998	4000.49	84.08	4000.49	84.1651	4000.49	84.2345	4000.49	83.5792	4000.49	83.7546	4000.49	82.2544	4000.49	82.3899	4000.49	80.0546	4000.49	80.1906	4000.49	77.7623	4000.49	77.7971	4000.49	75.4936	4000.49	74.9335	4000.49	73.2538	4000.49	72.9701	4000.49	71.4213	4000.49	71.2902	4000.49	69.3132	4000.49	69.7635	4000.49	68.6094	4000.49	69.3507	4000.49	67.0047	4000.49	66.9033	4000.49	65.1728	4000.49	65.4587	4000.49	64.0506	4000.49	64.6786	4000.49	64.8039	4000.49	64.4168	4000.49	59.1607	4000.49	61.0069	4000.49	54.4792	4000.49	57.8557	4000.49	62.3657
4141.11	84.7291	4141.11	84.8145	4141.11	84.7461	4141.11	84.755	4141.11	84.6768	4141.11	84.0577	4141.11	84.1525	4141.11	82.5091	4141.11	82.7736	4141.11	80.1521	4141.11	80.541	4141.11	77.3227	4141.11	78.0404	4141.11	74.7447	4141.11	75.3645	4141.11	72.5455	4141.11	73.254	4141.11	71.5858	4141.11	71.5788	4141.11	70.3517	4141.11	70.8198	4141.11	69.7562	4141.11	69.5254	4141.11	67.0248	4141.11	66.9224	4141.11	65.4264	4141.11	66.4671	4141.11	64.5613	4141.11	64.8615	4141.11	65.4525	4141.11	64.9583	4141.11	60.8761	4141.11	60.2229	4141.11	56.8472	4141.11	60.1185	4141.11	62.3296
4287.6	84.1097	4287.6	84.4021	4287.6	84.4835	4287.6	84.626	4287.6	84.6404	4287.6	83.8772	4287.6	83.9811	4287.6	82.248	4287.6	82.4646	4287.6	80.1908	4287.6	80.419	4287.6	78.2123	4287.6	78.1924	4287.6	75.9939	4287.6	75.6006	4287.6	73.5236	4287.6	73.3608	4287.6	71.8435	4287.6	71.676	4287.6	69.8205	4287.6	70.4737	4287.6	68.9858	4287.6	69.2451	4287.6	67.1874	4287.6	67.0286	4287.6	65.5848	4287.6	66.4531	4287.6	64.2612	4287.6	65.1059	4287.6	64.6868	4287.6	64.7958	4287.6	59.3769	4287.6	60.9455	4287.6	57.8854	4287.6	59.4516	4287.6	62.2333
4438.48	84.7197	4438.48	85.0561	4438.48	84.9822	4438.48	85.1332	4438.48	85.097	4438.48	84.1517	4438.48	84.2143	4438.48	82.2802	4438.48	82.5049	4438.48	80.2631	4438.48	80.4963	4438.48	78.1168	4438.48	78.3187	4438.48	75.3913	4438.48	75.8367	4438.48	72.3186	4438.48	73.2169	4438.48	71.1884	4438.48	71.468	4438.48	70.5518	4438.48	70.5767	4438.48	69.1907	4438.48	69.0253	4438.48	67.9547	4438.48	66.9838	4438.48	66.4455	4438.48	66.7487	4438.48	65.3154	4438.48	64.9729	4438.48	65.3741	4438.48	64.7166	4438.48	61.0297	4438.48	60.8643	4438.48	57.0198	4438.48	60.1032	4438.48	62.0987
4595.21	84.7248	4595.21	84.9304	4595.21	84.9664	4595.21	84.8327	4595.21	85.0113	4595.21	83.5832	4595.21	84.0023	4595.21	81.7473	4595.21	82.277	4595.21	80.2794	4595.21	80.8006	4595.21	79.0152	4595.21	78.9788	4595.21	76.5344	4595.21	76.4053	4595.21	74.1848	4595.21	73.6363	4595.21	72.2794	4595.21	71.9285	4595.21	70.2459	4595.21	70.754	4595.21	68.9011	4595.21	68.8614	4595.21	67.2788	4595.21	67.5204	4595.21	65.3783	4595.21	66.493	4595.21	63.7938	4595.21	65.1085	4595.21	64.1216	4595.21	64.5573	4595.21	60.0745	4595.21	61.0573	4595.21	59.2485	4595.21	60.3376	4595.21	61.6105
4756.35	84.9094	4756.35	85.2233	4756.35	85.117	4756.35	85.0863	4756.35	84.946	4756.35	84.0002	4756.35	83.8316	4756.35	82.318	4756.35	82.1493	4756.35	80.8899	4756.35	80.8085	4756.35	79.3743	4756.35	78.9849	4756.35	75.6187	4756.35	76.1188	4756.35	72.6553	4756.35	73.0706	4756.35	70.6597	4756.35	71.3043	4756.35	69.7757	4756.35	69.7678	4756.35	68.6784	4756.35	68.3387	4756.35	67.6792	4756.35	66.8918	4756.35	66.2737	4756.35	66.0776	4756.35	64.7408	4756.35	64.8834	4756.35	64.1582	4756.35	63.7575	4756.35	60.94	4756.35	61.59	4756.35	57.6837	4756.35	59.279	4756.35	60.3824
4924.8	85.2575	4924.8	85.2599	4924.8	85.3378	4924.8	84.7124	4924.8	85.025	4924.8	83.4716	4924.8	83.8605	4924.8	81.958	4924.8	82.4721	4924.8	80.6811	4924.8	81.3364	4924.8	79.1358	4924.8	79.5129	4924.8	75.8982	4924.8	76.5403	4924.8	73.7939	4924.8	73.5595	4924.8	71.7394	4924.8	71.749	4924.8	70.2762	4924.8	70.1655	4924.8	68.4937	4924.8	68.5743	4924.8	67.4452	4924.8	67.3883	4924.8	65.4836	4924.8	66.2262	4924.8	64.5037	4924.8	64.8631	4924.8	63.351	4924.8	64.0943	4924.8	61.5915	4924.8	61.174	4924.8	58.9184	4924.8	59.5568	4924.8	61.0449
5097.66	85.5179	5097.66	85.2682	5097.66	85.2864	5097.66	84.6077	5097.66	84.794	5097.66	83.683	5097.66	83.8715	5097.66	82.6144	5097.66	82.6674	5097.66	81.2602	5097.66	81.4186	5097.66	79.4984	5097.66	79.2537	5097.66	75.6338	5097.66	76.0206	5097.66	72.8196	5097.66	72.9066	5097.66	69.7579	5097.66	70.763	5097.66	68.6574	5097.66	69.1793	5097.66	67.3655	5097.66	68.0389	5097.66	65.887	5097.66	66.0352	5097.66	64.7957	5097.66	65.6448	5097.66	64.0971	5097.66	64.1291	5097.66	63.3934	5097.66	64.2233	5097.66	61.4124	5097.66	60.6797	5097.66	55.6017	5097.66	57.122	5097.66	59.1642
5277.83	86.0399	5277.83	85.5286	5277.83	85.4192	5277.83	84.7097	5277.83	84.6891	5277.83	84.1113	5277.83	84.1012	5277.83	82.9883	5277.83	83.038	5277.83	81.2619	5277.83	81.4873	5277.83	78.8	5277.83	78.9577	5277.83	75.0205	5277.83	75.8913	5277.83	72.0501	5277.83	72.6741	5277.83	70.2039	5277.83	70.1653	5277.83	69.137	5277.83	69.0826	5277.83	68.2528	5277.83	67.9924	5277.83	67.0045	5277.83	66.5483	5277.83	65.8661	5277.83	65.9345	5277.83	63.6383	5277.83	62.8466	5277.83	63.2202	5277.83	63.386	5277.83	62.2644	5277.83	63.2635	5277.83	57.5511	5277.83	60.3919	5277.83	58.4563
5463.87	86.4316	5463.87	85.5038	5463.87	85.621	5463.87	84.5179	5463.87	84.8392	5463.87	84.286	5463.87	84.589	5463.87	83.0503	5463.87	83.5485	5463.87	80.9524	5463.87	81.4453	5463.87	78.4601	5463.87	78.7318	5463.87	75.1021	5463.87	75.451	5463.87	72.3691	5463.87	72.0655	5463.87	70.2149	5463.87	69.5597	5463.87	68.0695	5463.87	68.5157	5463.87	67.0839	5463.87	67.8827	5463.87	65.8652	5463.87	66.0107	5463.87	64.6133	5463.87	65.2865	5463.87	62.2241	5463.87	62.8753	5463.87	62.2806	5463.87	63.8853	5463.87	61.9132	5463.87	62.7487	5463.87	57.2565	5463.87	59.5394	5463.87	58.6517
5657.23	86.2578	5657.23	85.078	5657.23	85.2841	5657.23	84.2388	5657.23	84.4397	5657.23	84.4812	5657.23	84.6242	5657.23	83.2906	5657.23	83.524	5657.23	81.0984	5657.23	81.153	5657.23	78.3324	5657.23	78.1886	5657.23	75.0898	5657.23	75.0286	5657.23	72.0487	5657.23	71.9167	5657.23	68.6048	5657.23	69.1829	5657.23	67.3298	5657.23	67.9949	5657.23	66.8757	5657.23	67.7737	5657.23	65.998	5657.23	65.3905	5657.23	64.5175	5657.23	64.3644	5657.23	61.5448	5657.23	62.5216	5657.23	62.8542	5657.23	62.7122	5657.23	63.1592	5657.23	63.1674	5657.23	56.6764	5657.23	60.3214	5657.23	56.9083
5856.45	86.1786	5856.45	85.0163	5856.45	85.0423	5856.45	84.2429	5856.45	84.0496	5856.45	84.8922	5856.45	84.6707	5856.45	83.5349	5856.45	83.5522	5856.45	80.9784	5856.45	80.857	5856.45	77.5045	5856.45	77.6862	5856.45	74.3626	5856.45	74.5199	5856.45	70.4775	5856.45	71.2379	5856.45	68.2629	5856.45	68.2855	5856.45	67.5522	5856.45	67.2032	5856.45	66.7898	5856.45	66.9476	5856.45	65.4857	5856.45	65.1071	5856.45	64.5561	5856.45	63.692	5856.45	61.9536	5856.45	62.2438	5856.45	63.4999	5856.45	61.507	5856.45	63.9907	5856.45	63.8596	5856.45	58.2159	5856.45	58.9805	5856.45	57.5873
6062.99	85.8523	6062.99	84.5974	6062.99	84.6846	6062.99	83.7997	6062.99	83.6105	6062.99	84.5636	6062.99	84.4595	6062.99	83.1516	6062.99	83.4683	6062.99	80.4353	6062.99	80.4158	6062.99	76.6871	6062.99	77.464	6062.99	74.1104	6062.99	74.4209	6062.99	70.6769	6062.99	70.9174	6062.99	68.9342	6062.99	68.2862	6062.99	67.5705	6062.99	67.1798	6062.99	66.5233	6062.99	66.7838	6062.99	65.2097	6062.99	65.3342	6062.99	62.9426	6062.99	63.2871	6062.99	62.4552	6062.99	61.8336	6062.99	61.9874	6062.99	61.7568	6062.99	63.7334	6062.99	64.4998	6062.99	57.8188	6062.99	60.1189	6062.99	56.8013
6276.86	85.4822	6276.86	84.5655	6276.86	84.7502	6276.86	83.7561	6276.86	83.6862	6276.86	84.2547	6276.86	84.2786	6276.86	83.0041	6276.86	83.544	6276.86	80.4599	6276.86	80.5813	6276.86	77.1652	6276.86	77.9032	6276.86	74.9789	6276.86	74.5063	6276.86	71.3088	6276.86	71.5587	6276.86	68.8141	6276.86	67.9828	6276.86	66.9725	6276.86	67.2758	6276.86	65.0809	6276.86	65.5518	6276.86	64.1592	6276.86	64.4438	6276.86	62.6791	6276.86	62.5585	6276.86	61.4521	6276.86	61.7073	6276.86	61.695	6276.86	60.4671	6276.86	63.3931	6276.86	64.5303	6276.86	57.92	6276.86	58.0749	6276.86	55.9879
6498.05	85.3241	6498.05	84.8571	6498.05	85.1271	6498.05	83.9855	6498.05	84.0417	6498.05	83.8516	6498.05	84.0083	6498.05	82.8107	6498.05	83.4484	6498.05	80.5711	6498.05	80.6482	6498.05	77.2639	6498.05	77.9659	6498.05	74.8674	6498.05	74.21	6498.05	70.5638	6498.05	70.8995	6498.05	67.2016	6498.05	67.6364	6498.05	65.753	6498.05	66.4092	6498.05	64.3521	6498.05	65.025	6498.05	63.4941	6498.05	63.1033	6498.05	61.8417	6498.05	61.509	6498.05	60.9047	6498.05	60.5813	6498.05	60.7178	6498.05	59.9852	6498.05	62.5985	6498.05	63.8561	6498.05	54.4973	6498.05	55.9808	6498.05	53.1002
6726.56	85.2884	6726.56	85.1596	6726.56	85.4178	6726.56	84.2565	6726.56	84.4361	6726.56	83.3883	6726.56	83.5908	6726.56	82.5261	6726.56	83.1335	6726.56	80.5048	6726.56	80.5305	6726.56	77.0479	6726.56	77.8159	6726.56	73.9731	6726.56	73.6523	6726.56	69.5195	6726.56	70.55	6726.56	66.2487	6726.56	66.8401	6726.56	65.0174	6726.56	65.5041	6726.56	63.0712	6726.56	64.0096	6726.56	62.9587	6726.56	62.0336	6726.56	61.456	6726.56	61.1628	6726.56	60.1988	6726.56	61.118	6726.56	60.0459	6726.56	57.9373	6726.56	61.7947	6726.56	63.2613	6726.56	54.9618	6726.56	54.1667	6726.56	52.8373
6963.87	85.7479	6963.87	85.6346	6963.87	85.8366	6963.87	84.7463	6963.87	84.9671	6963.87	83.329	6963.87	83.5866	6963.87	82.4863	6963.87	82.9995	6963.87	80.4361	6963.87	80.4983	6963.87	76.7471	6963.87	77.4372	6963.87	72.9642	6963.87	73.299	6963.87	68.92	6963.87	69.6539	6963.87	65.0363	6963.87	66.4304	6963.87	64.1055	6963.87	64.5235	6963.87	62.6251	6963.87	62.1338	6963.87	62.174	6963.87	61.156	6963.87	61.0553	6963.87	60.8493	6963.87	59.321	6963.87	59.7887	6963.87	57.005	6963.87	57.5902	6963.87	59.8231	6963.87	62.8952	6963.87	51.408	6963.87	54.7163	6963.87	53.3346
7209.96	86.1208	7209.96	86.0038	7209.96	86.0977	7209.96	85.2545	7209.96	85.3251	7209.96	83.3257	7209.96	83.679	7209.96	82.5501	7209.96	82.7271	7209.96	80.315	7209.96	80.3964	7209.96	76.6871	7209.96	77.2539	7209.96	72.3386	7209.96	73.0545	7209.96	67.9143	7209.96	68.6998	7209.96	64.832	7209.96	66.8111	7209.96	65.2365	7209.96	63.8877	7209.96	62.8179	7209.96	62.9925	7209.96	61.4806	7209.96	62.8555	7209.96	60.4921	7209.96	62.6756	7209.96	60.0095	7209.96	60.3885	7209.96	56.8076	7209.96	59.4605	7209.96	60.287	7209.96	62.3097	7209.96	54.5003	7209.96	52.3934	7209.96	55.4256
7464.84	86.0008	7464.84	85.9758	7464.84	85.9041	7464.84	85.3093	7464.84	85.5915	7464.84	83.0514	7464.84	83.5465	7464.84	82.4642	7464.84	82.5462	7464.84	80.3826	7464.84	80.725	7464.84	76.8009	7464.84	77.2922	7464.84	72.2095	7464.84	72.9107	7464.84	68.2918	7464.84	69.0487	7464.84	66.2447	7464.84	66.6612	7464.84	64.4108	7464.84	64.0888	7464.84	62.1193	7464.84	62.9774	7464.84	60.6695	7464.84	61.8856	7464.84	60.6736	7464.84	61.8434	7464.84	57.5905	7464.84	58.4529	7464.84	56.5224	7464.84	58.7618	7464.84	61.0163	7464.84	61.4731	7464.84	54.084	7464.84	51.6481	7464.84	56.3239
7727.05	85.5528	7727.05	85.6327	7727.05	85.6432	7727.05	85.1866	7727.05	85.5572	7727.05	82.9462	7727.05	83.5492	7727.05	82.4637	7727.05	82.6322	7727.05	80.3293	7727.05	80.9357	7727.05	76.5052	7727.05	76.9529	7727.05	72.0716	7727.05	72.8447	7727.05	68.5793	7727.05	69.1346	7727.05	66.4803	7727.05	66.6878	7727.05	63.7138	7727.05	64.0719	7727.05	61.308	7727.05	62.3082	7727.05	60.2216	7727.05	60.466	7727.05	60.2606	7727.05	59.8666	7727.05	55.5337	7727.05	57.1476	7727.05	55.8707	7727.05	57.0456	7727.05	59.3191	7727.05	60.3939	7727.05	54.9568	7727.05	52.9491	7727.05	53.7043
7999.51	84.971	7999.51	85.5181	7999.51	85.5589	7999.51	85.0137	7999.51	85.3421	7999.51	83.0506	7999.51	83.57	7999.51	82.446	7999.51	82.6836	7999.51	79.9183	7999.51	80.8145	7999.51	76.4383	7999.51	76.7938	7999.51	72.6682	7999.51	73.3361	7999.51	68.82	7999.51	69.811	7999.51	66.4222	7999.51	66.6951	7999.51	62.7683	7999.51	63.4373	7999.51	61.4719	7999.51	61.0979	7999.51	59.4155	7999.51	60.2547	7999.51	59.7424	7999.51	58.7046	7999.51	54.9638	7999.51	55.4829	7999.51	55.6476	7999.51	56.1357	7999.51	59.7521	7999.51	58.1908	7999.51	54.1881	7999.51	52.1361	7999.51	54.2771
8282.23	84.8519	8282.23	85.8799	8282.23	85.829	8282.23	84.6212	8282.23	85.2743	8282.23	83.0549	8282.23	83.6219	8282.23	82.2112	8282.23	82.5422	8282.23	79.1932	8282.23	80.5183	8282.23	76.3152	8282.23	77.0425	8282.23	72.9948	8282.23	73.6683	8282.23	68.4251	8282.23	70.0236	8282.23	66.1605	8282.23	66.45	8282.23	61.6896	8282.23	63.1233	8282.23	60.87	8282.23	60.799	8282.23	59.961	8282.23	60.6789	8282.23	58.9264	8282.23	59.4226	8282.23	53.9555	8282.23	53.6009	8282.23	54.8622	8282.23	53.3871	8282.23	57.8767	8282.23	57.2708	8282.23	53.6788	8282.23	52.7988	8282.23	52.8669
8573.73	85.1794	8573.73	86.1573	8573.73	86.1876	8573.73	84.4709	8573.73	85.1706	8573.73	83.0721	8573.73	83.8034	8573.73	81.6992	8573.73	82.1057	8573.73	78.5583	8573.73	79.9961	8573.73	76.2034	8573.73	77.0499	8573.73	72.2515	8573.73	73.1138	8573.73	67.5447	8573.73	69.6105	8573.73	65.7679	8573.73	65.9205	8573.73	61.3905	8573.73	62.6347	8573.73	60.0027	8573.73	60.7699	8573.73	59.7827	8573.73	61.0541	8573.73	58.3421	8573.73	59.539	8573.73	54.944	8573.73	53.9286	8573.73	54.5302	8573.73	52.6204	8573.73	55.4184	8573.73	55.5514	8573.73	51.008	8573.73	52.2268	8573.73	53.0387
8876.95	85.7883	8876.95	86.2777	8876.95	86.395	8876.95	84.4586	8876.95	85.3191	8876.95	82.9692	8876.95	83.6788	8876.95	80.9261	8876.95	81.4055	8876.95	78.2549	8876.95	79.4647	8876.95	76.1446	8876.95	77.2278	8876.95	72.0253	8876.95	72.7841	8876.95	68.3257	8876.95	69.8589	8876.95	66.1179	8876.95	66.5601	8876.95	63.5166	8876.95	63.9921	8876.95	61.1403	8876.95	61.9017	8876.95	60.7083	8876.95	61.8525	8876.95	58.8705	8876.95	59.6843	8876.95	56.833	8876.95	56.4531	8876.95	52.9089	8876.95	53.9416	8876.95	53.1387	8876.95	52.6142	8876.95	53.1833	8876.95	50.3845	8876.95	51.7838
9188.96	86.5622	9188.96	86.4499	9188.96	86.635	9188.96	84.7164	9188.96	85.5542	9188.96	82.6579	9188.96	83.2839	9188.96	80.3796	9188.96	80.7048	9188.96	78.5559	9188.96	79.4335	9188.96	77.3657	9188.96	78.1283	9188.96	73.6081	9188.96	74.105	9188.96	70.3944	9188.96	71.2761	9188.96	67.9488	9188.96	68.2105	9188.96	66.0069	9188.96	65.8782	9188.96	63.6598	9188.96	63.4823	9188.96	62.462	9188.96	63.4135	9188.96	60.11	9188.96	61.0301	9188.96	58.4498	9188.96	58.6834	9188.96	54.8832	9188.96	55.6399	9188.96	53.8174	9188.96	52.7162	9188.96	53.6849	9188.96	49.6076	9188.96	50.3275
9514.16	86.7319	9514.16	85.9089	9514.16	86.1354	9514.16	85.154	9514.16	85.6843	9514.16	82.518	9514.16	83.0541	9514.16	81.3789	9514.16	81.4958	9514.16	80.1023	9514.16	80.6454	9514.16	78.8903	9514.16	79.4472	9514.16	75.0245	9514.16	75.203	9514.16	71.2358	9514.16	72.0289	9514.16	68.2822	9514.16	68.5888	9514.16	66.4792	9514.16	66.0583	9514.16	64.1886	9514.16	63.4678	9514.16	63.268	9514.16	64.0165	9514.16	60.9743	9514.16	61.3594	9514.16	59.6777	9514.16	59.325	9514.16	56.7276	9514.16	56.8155	9514.16	54.1278	9514.16	53.7476	9514.16	54.1086	9514.16	50.1821	9514.16	50.355
9849.61	86.7407	9849.61	85.7914	9849.61	85.9757	9849.61	85.7467	9849.61	86.0467	9849.61	83.486	9849.61	83.9751	9849.61	82.1026	9849.61	82.3435	9849.61	79.8682	9849.61	80.5781	9849.61	77.6802	9849.61	78.6958	9849.61	73.3709	9849.61	73.7069	9849.61	69.022	9849.61	69.4776	9849.61	65.1617	9849.61	66.1007	9849.61	64.2337	9849.61	64.2147	9849.61	61.6606	9849.61	60.8062	9849.61	60.0749	9849.61	61.1922	9849.61	58.3387	9849.61	58.6805	9849.61	58.3146	9849.61	57.1487	9849.61	55.0288	9849.61	55.939	9849.61	47.706	9849.61	49.4572	9849.61	53.4065	9849.61	48.8555	9849.61	47.0184
10196.8	87.8019	10196.8	86.9223	10196.8	87.226	10196.8	86.0148	10196.8	86.5778	10196.8	83.777	10196.8	84.4867	10196.8	81.6522	10196.8	82.0751	10196.8	78.29	10196.8	79.1561	10196.8	74.3029	10196.8	75.6639	10196.8	67.8812	10196.8	69.1787	10196.8	63.613	10196.8	63.6883	10196.8	59.4587	10196.8	60.8928	10196.8	60.0228	10196.8	59.6478	10196.8	56.8137	10196.8	55.265	10196.8	54.6776	10196.8	56.319	10196.8	55.9935	10196.8	53.2972	10196.8	54.6381	10196.8	54.3113	10196.8	50.0282	10196.8	52.5247	10196.8	45.1964	10196.8	43.1037	10196.8	51.2766	10196.8	43.1952	10196.8	44.9658
10555.7	88.5568	10555.7	87.4272	10555.7	87.8089	10555.7	86.5182	10555.7	86.9597	10555.7	83.5939	10555.7	84.35	10555.7	80.9744	10555.7	81.6923	10555.7	76.5731	10555.7	77.0388	10555.7	70.5003	10555.7	71.6377	10555.7	56.8489	10555.7	62.2274	10555.7	49.7025	10555.7	43.9818	10555.7	51.1577	10555.7	54.3899	10555.7	53.6938	10555.7	51.6617	10555.7	47.6972	10555.7	35.6067	10555.7	46.7893	10555.7	50.1103	10555.7	53.1795	10555.7	45.0562	10555.7	51.8784	10555.7	52.6082	10555.7	50.8524	10555.7	51.3495	10555.7	47.3051	10555.7	46.8428	10555.7	51.1954	10555.7	22.4462	10555.7	41.7991
10927.7	88.6769	10927.7	87.5931	10927.7	87.7496	10927.7	86.5103	10927.7	87.0075	10927.7	83.8333	10927.7	84.2125	10927.7	80.3811	10927.7	81.5908	10927.7	75.4495	10927.7	75.5718	10927.7	69.0676	10927.7	69.3189	10927.7	60.6842	10927.7	61.6222	10927.7	61.5525	10927.7	60.4168	10927.7	58.6089	10927.7	60.1047	10927.7	53.7516	10927.7	51.2034	10927.7	48.3223	10927.7	50.289	10927.7	45.4945	10927.7	46.3287	10927.7	49.2234	10927.7	50.2	10927.7	48.4661	10927.7	51.9787	10927.7	52.8117	10927.7	51.4043	10927.7	50.7642	10927.7	52.7442	10927.7	49.7029	10927.7	42.1081	10927.7	40.7992
11313	88.5557	11313	87.3065	11313	87.5355	11313	85.955	11313	86.7911	11313	83.8273	11313	84.2532	11313	79.9339	11313	81.2329	11313	75.9384	11313	76.0166	11313	70.1656	11313	70.0471	11313	68.4197	11313	67.5403	11313	65.9994	11313	66.3985	11313	62.3473	11313	63.7099	11313	57.7656	11313	56.3337	11313	53.7611	11313	56.3132	11313	53.0697	11313	50.9456	11313	52.3888	11313	53.1332	11313	50.5381	11313	53.4868	11313	54.1891	11313	51.2654	11313	51.996	11313	54.3196	11313	49.3835	11313	45.8041	11313	40.4649
11712.9	88.1309	11712.9	87.0318	11712.9	86.8851	11712.9	85.6315	11712.9	86.1711	11712.9	83.6098	11712.9	83.878	11712.9	78.209	11712.9	79.9833	11712.9	74.8722	11712.9	75.8121	11712.9	70.6575	11712.9	70.0585	11712.9	70.8117	11712.9	70.9468	11712.9	68.197	11712.9	68.2593	11712.9	63.0009	11712.9	65.2832	11712.9	59.8246	11712.9	59.6581	11712.9	55.526	11712.9	57.5824	11712.9	52.9719	11712.9	51.8752	11712.9	49.3205	11712.9	53.7596	11712.9	50.8629	11712.9	54.1957	11712.9	53.6826	11712.9	51.5753	11712.9	51.1804	11712.9	54.3183	11712.9	50.7821	11712.9	46.4071	11712.9	40.6808
12126	87.7684	12126	86.7811	12126	86.8387	12126	85.1246	12126	85.8193	12126	82.854	12126	83.2962	12126	77.5844	12126	78.9872	12126	73.7959	12126	75.5995	12126	72.7469	12126	72.5397	12126	71.7394	12126	72.272	12126	67.8684	12126	68.5997	12126	63.6774	12126	65.194	12126	60.8937	12126	59.6074	12126	56.3245	12126	57.2655	12126	55.1249	12126	51.4737	12126	51.4876	12126	53.2575	12126	49.5653	12126	52.6772	12126	52.042	12126	49.6971	12126	49.7789	12126	52.7848	12126	50.9086	12126	45.6207	12126	27.0719
12553.7	87.4049	12553.7	86.7885	12553.7	86.9317	12553.7	84.8168	12553.7	85.3357	12553.7	82.0664	12553.7	82.3882	12553.7	77.9213	12553.7	79.5719	12553.7	75.5051	12553.7	76.8693	12553.7	74.2654	12553.7	74.4498	12553.7	72.2415	12553.7	72.8504	12553.7	68.8766	12553.7	68.9563	12553.7	64.9007	12553.7	66.1257	12553.7	61.693	12553.7	61.5078	12553.7	58.4516	12553.7	58.1534	12553.7	56.6939	12553.7	54.064	12553.7	51.97	12553.7	54.7582	12553.7	50.7785	12553.7	54.1279	12553.7	52.3435	12553.7	49.662	12553.7	50.1139	12553.7	51.2782	12553.7	49.3988	12553.7	47.2606	12553.7	27.9961
12996.1	87.0739	12996.1	86.6155	12996.1	86.8866	12996.1	84.6039	12996.1	85.2212	12996.1	82.1922	12996.1	82.769	12996.1	78.0531	12996.1	79.8618	12996.1	75.8063	12996.1	77.4841	12996.1	73.8825	12996.1	74.5108	12996.1	71.9166	12996.1	72.8733	12996.1	67.6349	12996.1	68.8294	12996.1	63.5453	12996.1	65.4368	12996.1	60.0517	12996.1	59.9504	12996.1	57.79	12996.1	57.5505	12996.1	57.4654	12996.1	54.2391	12996.1	54.4041	12996.1	55.5208	12996.1	52.0292	12996.1	53.5358	12996.1	51.5894	12996.1	50.1864	12996.1	47.7153	12996.1	50.3373	12996.1	49.7589	12996.1	44.9543	12996.1	40.0917
13454.6	86.3025	13454.6	85.9843	13454.6	86.2362	13454.6	83.8063	13454.6	84.5464	13454.6	81.5274	13454.6	82.3262	13454.6	76.7878	13454.6	78.9521	13454.6	74.5958	13454.6	77.0449	13454.6	73.0319	13454.6	74.2656	13454.6	70.7577	13454.6	72.254	13454.6	66.6825	13454.6	68.298	13454.6	62.0905	13454.6	64.4496	13454.6	58.6557	13454.6	58.8719	13454.6	56.0918	13454.6	55.0961	13454.6	56.7073	13454.6	53.2787	13454.6	52.3818	13454.6	54.0679	13454.6	50.7368	13454.6	52.9826	13454.6	51.9929	13454.6	48.6757	13454.6	47.1735	13454.6	45.325	13454.6	50.0005	13454.6	45.4135	13454.6	42.6388
13929.2	85.5145	13929.2	85.2875	13929.2	85.4299	13929.2	82.7108	13929.2	83.7452	13929.2	80.4896	13929.2	81.4377	13929.2	76.4787	13929.2	78.5074	13929.2	74.8371	13929.2	77.4972	13929.2	73.3073	13929.2	74.5723	13929.2	70.1443	13929.2	72.115	13929.2	65.5529	13929.2	67.8007	13929.2	60.2277	13929.2	61.9331	13929.2	58.1992	13929.2	57.0127	13929.2	56.0472	13929.2	51.9596	13929.2	56.3829	13929.2	53.1971	13929.2	52.1713	13929.2	54.71	13929.2	47.7914	13929.2	53.1987	13929.2	51.4562	13929.2	47.2956	13929.2	48.0681	13929.2	45.1648	13929.2	51.4736	13929.2	44.6959	13929.2	47.2692
14419.9	85.2708	14419.9	84.4311	14419.9	84.6879	14419.9	81.877	14419.9	83.3777	14419.9	80.0713	14419.9	81.2631	14419.9	76.5872	14419.9	78.4239	14419.9	74.9386	14419.9	77.5057	14419.9	72.5985	14419.9	74.2106	14419.9	68.8047	14419.9	71.1778	14419.9	64.3278	14419.9	65.771	14419.9	58.7817	14419.9	58.7459	14419.9	55.3924	14419.9	55.3484	14419.9	53.5619	14419.9	47.2799	14419.9	54.1506	14419.9	50.7049	14419.9	50.4157	14419.9	52.0034	14419.9	47.3156	14419.9	53.3327	14419.9	49.6119	14419.9	44.974	14419.9	45.5657	14419.9	43.4331	14419.9	49.4169	14419.9	43.3479	14419.9	43.1967
14928.2	85.0761	14928.2	84.2351	14928.2	84.3871	14928.2	81.5154	14928.2	83.2971	14928.2	79.9877	14928.2	81.4392	14928.2	77.3257	14928.2	78.6943	14928.2	74.4742	14928.2	76.7419	14928.2	70.3883	14928.2	72.526	14928.2	65.9014	14928.2	68.3016	14928.2	61.0466	14928.2	61.9964	14928.2	56.7054	14928.2	56.2052	14928.2	53.3102	14928.2	54.1655	14928.2	49.6987	14928.2	37.4487	14928.2	51.3574	14928.2	46.443	14928.2	48.3182	14928.2	49.6016	14928.2	46.3314	14928.2	50.7513	14928.2	47.6209	14928.2	44.9694	14928.2	45.3046	14928.2	40.918	14928.2	46.9632	14928.2	44.4462	14928.2	42.5899
15455.6	84.6953	15455.6	83.5412	15455.6	83.8384	15455.6	81.193	15455.6	82.9937	15455.6	79.6877	15455.6	81.338	15455.6	76.6951	15455.6	78.0239	15455.6	72.7314	15455.6	75.354	15455.6	64.1805	15455.6	66.9009	15455.6	62.4975	15455.6	64.1769	15455.6	60.9255	15455.6	60.9815	15455.6	59.3989	15455.6	58.8328	15455.6	55.6302	15455.6	56.605	15455.6	51.6526	15455.6	49.4096	15455.6	49.2254	15455.6	41.3928	15455.6	45.0887	15455.6	42.9192	15455.6	47.1066	15455.6	46.3667	15455.6	43.8913	15455.6	41.9308	15455.6	44.6591	15455.6	37.4306	15455.6	39.4493	15455.6	42.4028	15455.6	39.7832
16000.5	84.0986	16000.5	83.1147	16000.5	83.4095	16000.5	80.5241	16000.5	82.4277	16000.5	78.3935	16000.5	80.1281	16000.5	74.9617	16000.5	76.5881	16000.5	70.5921	16000.5	73.391	16000.5	66.3822	16000.5	68.8539	16000.5	66.8843	16000.5	68.3148	16000.5	64.6695	16000.5	65.4243	16000.5	60.9355	16000.5	60.5633	16000.5	57.3922	16000.5	57.1244	16000.5	54.4728	16000.5	51.6604	16000.5	53.428	16000.5	47.8451	16000.5	46.3547	16000.5	46.4147	16000.5	46.5504	16000.5	43.4328	16000.5	44.9472	16000.5	41.99	16000.5	46.7723	16000.5	42.0241	16000.5	37.4626	16000.5	41.4389	16000.5	45.9476
16564.5	83.5343	16564.5	82.4947	16564.5	82.9771	16564.5	79.7938	16564.5	81.8363	16564.5	77.5631	16564.5	79.4808	16564.5	74.0875	16564.5	75.5154	16564.5	69.1567	16564.5	71.762	16564.5	65.8432	16564.5	69.3196	16564.5	64.8387	16564.5	66.6862	16564.5	61.3292	16564.5	62.1417	16564.5	57.1708	16564.5	57.6605	16564.5	52.6914	16564.5	53.7386	16564.5	50.4574	16564.5	48.3533	16564.5	50.0428	16564.5	44.7109	16564.5	41.221	16564.5	41.5528	16564.5	44.8894	16564.5	44.1319	16564.5	44.4332	16564.5	41.5336	16564.5	46.2554	16564.5	42.5341	16564.5	38.6775	16564.5	39.0388	16564.5	43.1886
17148.9	82.6779	17148.9	81.8296	17148.9	82.1263	17148.9	79.1252	17148.9	81.2788	17148.9	76.6016	17148.9	78.7209	17148.9	72.9148	17148.9	74.4851	17148.9	68.114	17148.9	70.2044	17148.9	64.606	17148.9	68.4115	17148.9	62.3986	17148.9	64.4093	17148.9	57.9998	17148.9	59.3416	17148.9	52.0345	17148.9	55.367	17148.9	48.8861	17148.9	51.1944	17148.9	44.0635	17148.9	45.969	17148.9	46.1636	17148.9	41.967	17148.9	38.7856	17148.9	43.1599	17148.9	43.0903	17148.9	40.0697	17148.9	42.1047	17148.9	41.7216	17148.9	46.1106	17148.9	43.557	17148.9	31.5029	17148.9	38.465	17148.9	41.0343
17752.4	81.8146	17752.4	81.1898	17752.4	81.4549	17752.4	78.345	17752.4	80.5847	17752.4	75.8988	17752.4	78.1598	17752.4	72.2473	17752.4	73.9071	17752.4	67.98	17752.4	69.815	17752.4	63.3371	17752.4	66.8987	17752.4	59.3112	17752.4	62.455	17752.4	52.2824	17752.4	55.3294	17752.4	46.4994	17752.4	51.8831	17752.4	42.6323	17752.4	48.2464	17752.4	37.589	17752.4	44.0563	17752.4	42.0861	17752.4	36.5367	17752.4	40.0551	17752.4	42.3309	17752.4	41.2089	17752.4	41.038	17752.4	40.6645	17752.4	40.5293	17752.4	44.254	17752.4	42.2717	17752.4	30.9786	17752.4	39.3537	17752.4	38.2896
18379.4	81.2963	18379.4	80.5963	18379.4	80.8425	18379.4	77.6641	18379.4	80.0013	18379.4	75.166	18379.4	77.7599	18379.4	71.5691	18379.4	73.5191	18379.4	66.9856	18379.4	69.1198	18379.4	61.5543	18379.4	65.2161	18379.4	55.1792	18379.4	58.2598	18379.4	47.2524	18379.4	50.5666	18379.4	47.2805	18379.4	49.3127	18379.4	40.3993	18379.4	46.714	18379.4	37.7037	18379.4	43.3969	18379.4	39.9803	18379.4	33.0711	18379.4	38.6784	18379.4	41.7048	18379.4	40.7454	18379.4	39.832	18379.4	39.3316	18379.4	41.8695	18379.4	43.5063	18379.4	41.6515	18379.4	17.0172	18379.4	39.1924	18379.4	36.956
19026.9	80.3387	19026.9	79.6052	19026.9	80.0323	19026.9	77.1602	19026.9	79.5903	19026.9	74.8114	19026.9	77.5341	19026.9	70.9873	19026.9	72.8951	19026.9	65.8754	19026.9	67.0194	19026.9	59.9063	19026.9	64.2338	19026.9	52.3875	19026.9	56.771	19026.9	41.417	19026.9	48.8223	19026.9	46.9799	19026.9	50.3785	19026.9	45.0292	19026.9	46.7564	19026.9	37.0525	19026.9	43.9199	19026.9	36.7369	19026.9	28.846	19026.9	34.4241	19026.9	39.0569	19026.9	40.4989	19026.9	41.0538	19026.9	33.8453	19026.9	40.6846	19026.9	43.1551	19026.9	40.2877	19026.9	29.0905	19026.9	37.7209	19026.9	38.3438
19697.8	79.0647	19697.8	78.6476	19697.8	79.1108	19697.8	76.817	19697.8	79.2629	19697.8	74.6935	19697.8	77.5104	19697.8	70.4096	19697.8	72.6742	19697.8	65.8519	19697.8	66.3992	19697.8	56.9007	19697.8	63.0045	19697.8	46.5599	19697.8	52.6672	19697.8	53.5769	19697.8	49.3823	19697.8	51.7766	19697.8	51.4059	19697.8	50.2395	19697.8	49.2234	19697.8	44.1695	19697.8	44.7049	19697.8	31.3837	19697.8	33.6307	19697.8	33.9895	19697.8	37.1964	19697.8	39.9381	19697.8	39.3769	19697.8	36.5509	19697.8	41.3317	19697.8	43.8261	19697.8	40.4315	19697.8	32.9071	19697.8	38.4087	19697.8	41.379
19999.5	77.8326	19999.5	77.9233	19999.5	78.4368	19999.5	76.1419	19999.5	78.9954	19999.5	74.6468	19999.5	77.4132	19999.5	70.3556	19999.5	72.4709	19999.5	65.1893	19999.5	66.4323	19999.5	55.5491	19999.5	62.1833	19999.5	55.7229	19999.5	56.5328	19999.5	55.4738	19999.5	54.2989	19999.5	54.2892	19999.5	54.0138	19999.5	52.172	19999.5	49.5442	19999.5	43.741	19999.5	43.2264	19999.5	42.9479	19999.5	43.756	19999.5	28.8302	19999.5	39.7588	19999.5	46.9103	19999.5	43.3778	19999.5	43.4528	19999.5	42.6842	19999.5	46.7623	19999.5	40.5221	19999.5	23.3935	19999.5	40.8653	19999.5	41.3473
