"SPL Vertical"
"On-Axis"		"10°"		"-10°"		"20°"		"-20°"		"30°"		"-30°"		"40°"		"-40°"		"50°"		"-50°"		"60°"		"-60°"		"70°"		"-70°"		"80°"		"-80°"		"90°"		"-90°"		"100°"		"-100°"		"110°"		"-110°"		"120°"		"-120°"		"130°"		"-130°"		"140°"		"-140°"		"150°"		"-150°"		"160°"		"-160°"		"170°"		"-170°"		"180°"
"Frequency / Hz"	"Sound Pressure Level / dB (re 20 µPa/V)  [2.83V at 1m]"	"Frequency / Hz"	"Sound Pressure Level / dB (re 20 µPa/V)  [2.83V at 1m]"	"Frequency / Hz"	"Sound Pressure Level / dB (re 20 µPa/V)  [2.83V at 1m]"	"Frequency / Hz"	"Sound Pressure Level / dB (re 20 µPa/V)  [2.83V at 1m]"	"Frequency / Hz"	"Sound Pressure Level / dB (re 20 µPa/V)  [2.83V at 1m]"	"Frequency / Hz"	"Sound Pressure Level / dB (re 20 µPa/V)  [2.83V at 1m]"	"Frequency / Hz"	"Sound Pressure Level / dB (re 20 µPa/V)  [2.83V at 1m]"	"Frequency / Hz"	"Sound Pressure Level / dB (re 20 µPa/V)  [2.83V at 1m]"	"Frequency / Hz"	"Sound Pressure Level / dB (re 20 µPa/V)  [2.83V at 1m]"	"Frequency / Hz"	"Sound Pressure Level / dB (re 20 µPa/V)  [2.83V at 1m]"	"Frequency / Hz"	"Sound Pressure Level / dB (re 20 µPa/V)  [2.83V at 1m]"	"Frequency / Hz"	"Sound Pressure Level / dB (re 20 µPa/V)  [2.83V at 1m]"	"Frequency / Hz"	"Sound Pressure Level / dB (re 20 µPa/V)  [2.83V at 1m]"	"Frequency / Hz"	"Sound Pressure Level / dB (re 20 µPa/V)  [2.83V at 1m]"	"Frequency / Hz"	"Sound Pressure Level / dB (re 20 µPa/V)  [2.83V at 1m]"	"Frequency / Hz"	"Sound Pressure Level / dB (re 20 µPa/V)  [2.83V at 1m]"	"Frequency / Hz"	"Sound Pressure Level / dB (re 20 µPa/V)  [2.83V at 1m]"	"Frequency / Hz"	"Sound Pressure Level / dB (re 20 µPa/V)  [2.83V at 1m]"	"Frequency / Hz"	"Sound Pressure Level / dB (re 20 µPa/V)  [2.83V at 1m]"	"Frequency / Hz"	"Sound Pressure Level / dB (re 20 µPa/V)  [2.83V at 1m]"	"Frequency / Hz"	"Sound Pressure Level / dB (re 20 µPa/V)  [2.83V at 1m]"	"Frequency / Hz"	"Sound Pressure Level / dB (re 20 µPa/V)  [2.83V at 1m]"	"Frequency / Hz"	"Sound Pressure Level / dB (re 20 µPa/V)  [2.83V at 1m]"	"Frequency / Hz"	"Sound Pressure Level / dB (re 20 µPa/V)  [2.83V at 1m]"	"Frequency / Hz"	"Sound Pressure Level / dB (re 20 µPa/V)  [2.83V at 1m]"	"Frequency / Hz"	"Sound Pressure Level / dB (re 20 µPa/V)  [2.83V at 1m]"	"Frequency / Hz"	"Sound Pressure Level / dB (re 20 µPa/V)  [2.83V at 1m]"	"Frequency / Hz"	"Sound Pressure Level / dB (re 20 µPa/V)  [2.83V at 1m]"	"Frequency / Hz"	"Sound Pressure Level / dB (re 20 µPa/V)  [2.83V at 1m]"	"Frequency / Hz"	"Sound Pressure Level / dB (re 20 µPa/V)  [2.83V at 1m]"	"Frequency / Hz"	"Sound Pressure Level / dB (re 20 µPa/V)  [2.83V at 1m]"	"Frequency / Hz"	"Sound Pressure Level / dB (re 20 µPa/V)  [2.83V at 1m]"	"Frequency / Hz"	"Sound Pressure Level / dB (re 20 µPa/V)  [2.83V at 1m]"	"Frequency / Hz"	"Sound Pressure Level / dB (re 20 µPa/V)  [2.83V at 1m]"	"Frequency / Hz"	"Sound Pressure Level / dB (re 20 µPa/V)  [2.83V at 1m]"	"Frequency / Hz"	"Sound Pressure Level / dB (re 20 µPa/V)  [2.83V at 1m]"
20.5078	66.2799	20.5078	66.1028	20.5078	66.4495	20.5078	65.923	20.5078	66.6062	20.5078	65.7448	20.5078	66.7446	20.5078	65.5723	20.5078	66.8589	20.5078	65.4087	20.5078	66.9434	20.5078	65.2574	20.5078	66.9932	20.5078	65.1209	20.5078	67.004	20.5078	65.0018	20.5078	66.973	20.5078	64.9024	20.5078	66.8993	20.5078	64.8249	20.5078	66.7842	20.5078	64.7712	20.5078	66.6316	20.5078	64.7433	20.5078	66.4476	20.5078	64.7431	20.5078	66.2404	20.5078	64.7722	20.5078	66.0198	20.5078	64.8319	20.5078	65.7961	20.5078	64.9229	20.5078	65.579	20.5078	65.0453	20.5078	65.3773	20.5078	65.1977
21.9727	67.2936	21.9727	67.1171	21.9727	67.4639	21.9727	66.9391	21.9727	67.6224	21.9727	66.7642	21.9727	67.7636	21.9727	66.5963	21.9727	67.8817	21.9727	66.4388	21.9727	67.971	21.9727	66.2947	21.9727	68.0263	21.9727	66.1669	21.9727	68.0434	21.9727	66.0575	21.9727	68.0196	21.9727	65.9686	21.9727	67.9539	21.9727	65.902	21.9727	67.8474	21.9727	65.8594	21.9727	67.704	21.9727	65.8421	21.9727	67.5296	21.9727	65.8515	21.9727	67.3321	21.9727	65.8886	21.9727	67.1209	21.9727	65.9544	21.9727	66.9058	21.9727	66.0493	21.9727	66.6962	21.9727	66.173	21.9727	66.5001	21.9727	66.3242
23.4375	68.3233	23.4375	68.146	23.4375	68.4943	23.4375	67.9672	23.4375	68.6534	23.4375	67.7914	23.4375	68.7949	23.4375	67.6227	23.4375	68.9133	23.4375	67.4648	23.4375	69.0028	23.4375	67.3207	23.4375	69.0584	23.4375	67.1932	23.4375	69.0761	23.4375	67.0848	23.4375	69.0532	23.4375	66.9975	23.4375	68.9888	23.4375	66.9332	23.4375	68.8845	23.4375	66.8936	23.4375	68.7439	23.4375	66.8798	23.4375	68.5729	23.4375	66.8933	23.4375	68.3792	23.4375	66.9347	23.4375	68.1719	23.4375	67.0047	23.4375	67.9603	23.4375	67.1032	23.4375	67.7532	23.4375	67.2297	23.4375	67.5585	23.4375	67.3825
24.9023	69.0288	24.9023	68.8577	24.9023	69.1946	24.9023	68.6861	24.9023	69.3497	24.9023	68.5187	24.9023	69.4882	24.9023	68.3593	24.9023	69.6044	24.9023	68.2115	24.9023	69.6927	24.9023	68.0782	24.9023	69.7482	24.9023	67.9619	24.9023	69.7668	24.9023	67.8646	24.9023	69.7461	24.9023	67.788	24.9023	69.6854	24.9023	67.7336	24.9023	69.5863	24.9023	67.7023	24.9023	69.4527	24.9023	67.695	24.9023	69.2906	24.9023	67.7124	24.9023	69.1077	24.9023	67.755	24.9023	68.9127	24.9023	67.8231	24.9023	68.7146	24.9023	67.9166	24.9023	68.5216	24.9023	68.0351	24.9023	68.3407	24.9023	68.1772
26.3672	69.76	26.3672	69.5857	26.3672	69.9284	26.3672	69.4104	26.3672	70.0853	26.3672	69.2388	26.3672	70.225	26.3672	69.0752	26.3672	70.3417	26.3672	68.9231	26.3672	70.43	26.3672	68.7859	26.3672	70.4848	26.3672	68.6661	26.3672	70.5024	26.3672	68.5662	26.3672	70.4804	26.3672	68.4881	26.3672	70.4184	26.3672	68.4331	26.3672	70.3179	26.3672	68.4024	26.3672	70.183	26.3672	68.3969	26.3672	70.0199	26.3672	68.4171	26.3672	69.8362	26.3672	68.4631	26.3672	69.6405	26.3672	68.5349	26.3672	69.4416	26.3672	68.6323	26.3672	69.2475	26.3672	68.7542	26.3672	69.065	26.3672	68.8993
27.832	70.4179	27.832	70.2439	27.832	70.5859	27.832	70.069	27.832	70.7423	27.832	69.8978	27.832	70.8814	27.832	69.7346	27.832	70.9974	27.832	69.5829	27.832	71.0848	27.832	69.4461	27.832	71.1387	27.832	69.3268	27.832	71.1554	27.832	69.2274	27.832	71.1324	27.832	69.1496	27.832	71.0695	27.832	69.0949	27.832	70.9683	27.832	69.0644	27.832	70.833	27.832	69.0589	27.832	70.6698	27.832	69.0788	27.832	70.4864	27.832	69.1243	27.832	70.2915	27.832	69.1954	27.832	70.0937	27.832	69.2917	27.832	69.901	27.832	69.4123	27.832	69.72	27.832	69.5559
29.2969	70.9143	29.2969	70.7465	29.2969	71.075	29.2969	70.577	29.2969	71.2233	29.2969	70.4104	29.2969	71.3533	29.2969	70.251	29.2969	71.4592	29.2969	70.1025	29.2969	71.5359	29.2969	69.9681	29.2969	71.5785	29.2969	69.8506	29.2969	71.5839	29.2969	69.7523	29.2969	71.5503	29.2969	69.6749	29.2969	71.4783	29.2969	69.6198	29.2969	71.3706	29.2969	69.588	29.2969	71.2322	29.2969	69.5802	29.2969	71.0699	29.2969	69.5964	29.2969	70.8919	29.2969	69.6368	29.2969	70.7064	29.2969	69.7009	29.2969	70.5212	29.2969	69.7881	29.2969	70.3431	29.2969	69.8975	29.2969	70.1773	29.2969	70.0279
30.7617	71.4589	30.7617	71.2907	30.7617	71.62	30.7617	71.1206	30.7617	71.7685	30.7617	70.9534	30.7617	71.8986	30.7617	70.7936	30.7617	72.0044	30.7617	70.6447	30.7617	72.0807	30.7617	70.5102	30.7617	72.1229	30.7617	70.3928	30.7617	72.1277	30.7617	70.2948	30.7617	72.0936	30.7617	70.218	30.7617	72.0212	30.7617	70.1637	30.7617	71.9133	30.7617	70.133	30.7617	71.7751	30.7617	70.1262	30.7617	71.6135	30.7617	70.1437	30.7617	71.4364	30.7617	70.1852	30.7617	71.2521	30.7617	70.2502	30.7617	71.0683	30.7617	70.3381	30.7617	70.8915	30.7617	70.4478	30.7617	70.7268	30.7617	70.578
32.2266	71.9884	32.2266	71.8195	32.2266	72.1498	32.2266	71.6484	32.2266	72.2983	32.2266	71.4801	32.2266	72.4278	32.2266	71.3188	32.2266	72.5327	32.2266	71.1685	32.2266	72.6076	32.2266	71.0326	32.2266	72.648	32.2266	70.9137	32.2266	72.6508	32.2266	70.8143	32.2266	72.6144	32.2266	70.7363	32.2266	72.5396	32.2266	70.6809	32.2266	72.4295	32.2266	70.6492	32.2266	72.2892	32.2266	70.6416	32.2266	72.1258	32.2266	70.6583	32.2266	71.9475	32.2266	70.699	32.2266	71.7625	32.2266	70.7634	32.2266	71.5784	32.2266	70.8506	32.2266	71.4017	32.2266	70.9597	32.2266	71.2374	32.2266	71.0892
33.6914	72.5707	33.6914	72.4014	33.6914	72.7324	33.6914	72.2296	33.6914	72.8807	33.6914	72.0603	33.6914	73.0099	33.6914	71.8978	33.6914	73.1142	33.6914	71.7459	33.6914	73.1883	33.6914	71.6081	33.6914	73.2278	33.6914	71.4871	33.6914	73.2293	33.6914	71.3854	33.6914	73.1914	33.6914	71.3048	33.6914	73.115	33.6914	71.2468	33.6914	73.0029	33.6914	71.2125	33.6914	72.8604	33.6914	71.2024	33.6914	72.6947	33.6914	71.2168	33.6914	72.5138	33.6914	71.2557	33.6914	72.3262	33.6914	71.3187	33.6914	72.1395	33.6914	71.4052	33.6914	71.9604	33.6914	71.5142	33.6914	71.7941	33.6914	71.6445
35.1562	73.0477	35.1562	72.8797	35.1562	73.2085	35.1562	72.7097	35.1562	73.3564	35.1562	72.5426	35.1562	73.4855	35.1562	72.3828	35.1562	73.5903	35.1562	72.2342	35.1562	73.6653	35.1562	72.1002	35.1562	73.7062	35.1562	71.9835	35.1562	73.7099	35.1562	71.8866	35.1562	73.675	35.1562	71.8111	35.1562	73.6023	35.1562	71.7585	35.1562	73.4949	35.1562	71.7295	35.1562	73.3581	35.1562	71.7246	35.1562	73.1988	35.1562	71.7439	35.1562	73.0247	35.1562	71.7869	35.1562	72.8439	35.1562	71.8532	35.1562	72.6636	35.1562	71.9418	35.1562	72.49	35.1562	72.0515	35.1562	72.3279	35.1562	72.1808
36.6211	73.5182	36.6211	73.3502	36.6211	73.679	36.6211	73.1804	36.6211	73.8269	36.6211	73.0136	36.6211	73.9562	36.6211	72.8542	36.6211	74.0611	36.6211	72.7063	36.6211	74.1364	36.6211	72.573	36.6211	74.1776	36.6211	72.4573	36.6211	74.1817	36.6211	72.3614	36.6211	74.1475	36.6211	72.2871	36.6211	74.0757	36.6211	72.2358	36.6211	73.9695	36.6211	72.2081	36.6211	73.8341	36.6211	72.2045	36.6211	73.6763	36.6211	72.225	36.6211	73.5039	36.6211	72.2692	36.6211	73.3247	36.6211	72.3365	36.6211	73.1459	36.6211	72.4258	36.6211	72.9734	36.6211	72.5359	36.6211	72.812	36.6211	72.6653
38.0859	73.928	38.0859	73.7609	38.0859	74.0878	38.0859	73.5919	38.0859	74.2344	38.0859	73.426	38.0859	74.3622	38.0859	73.2677	38.0859	74.4653	38.0859	73.1208	38.0859	74.5386	38.0859	72.989	38.0859	74.5776	38.0859	72.8749	38.0859	74.5795	38.0859	72.7809	38.0859	74.5432	38.0859	72.7086	38.0859	74.4698	38.0859	72.6593	38.0859	74.3628	38.0859	72.6336	38.0859	74.2276	38.0859	72.6318	38.0859	74.0714	38.0859	72.6536	38.0859	73.9018	38.0859	72.6984	38.0859	73.7267	38.0859	72.7654	38.0859	73.5527	38.0859	72.8534	38.0859	73.3855	38.0859	72.9611	38.0859	73.2292	38.0859	73.087
39.5508	74.3568	39.5508	74.1867	39.5508	74.5192	39.5508	74.0143	39.5508	74.668	39.5508	73.8447	39.5508	74.7973	39.5508	73.6826	39.5508	74.9015	39.5508	73.532	39.5508	74.9752	39.5508	73.3964	39.5508	75.014	39.5508	73.2787	39.5508	75.0152	39.5508	73.1813	39.5508	74.9776	39.5508	73.1061	39.5508	74.9022	39.5508	73.0543	39.5508	74.7925	39.5508	73.0266	39.5508	74.6541	39.5508	73.0232	39.5508	74.494	39.5508	73.0441	39.5508	74.3201	39.5508	73.0887	39.5508	74.1404	39.5508	73.1561	39.5508	73.9617	39.5508	73.2453	39.5508	73.7899	39.5508	73.355	39.5508	73.6295	39.5508	73.4837
41.0156	74.8092	41.0156	74.6395	41.0156	74.971	41.0156	74.4676	41.0156	75.1193	41.0156	74.2985	41.0156	75.248	41.0156	74.137	41.0156	75.3515	41.0156	73.987	41.0156	75.4245	41.0156	73.8523	41.0156	75.4629	41.0156	73.7357	41.0156	75.4638	41.0156	73.6397	41.0156	75.4262	41.0156	73.5662	41.0156	75.3514	41.0156	73.5162	41.0156	75.243	41.0156	73.4905	41.0156	75.1064	41.0156	73.4893	41.0156	74.9489	41.0156	73.5122	41.0156	74.7781	41.0156	73.5587	41.0156	74.6017	41.0156	73.6276	41.0156	74.4265	41.0156	73.7178	41.0156	74.2578	41.0156	73.8277	41.0156	74.0998	41.0156	73.9556
42.4805	75.1968	42.4805	75.0259	42.4805	75.3593	42.4805	74.8523	42.4805	75.5076	42.4805	74.6811	42.4805	75.6358	42.4805	74.5171	42.4805	75.7381	42.4805	74.3646	42.4805	75.8093	42.4805	74.2271	42.4805	75.8453	42.4805	74.1078	42.4805	75.8432	42.4805	74.0091	42.4805	75.8022	42.4805	73.9331	42.4805	75.7238	42.4805	73.8808	42.4805	75.6117	42.4805	73.8531	42.4805	75.4716	42.4805	73.8501	42.4805	75.311	42.4805	73.8715	42.4805	75.1377	42.4805	73.9168	42.4805	74.9594	42.4805	73.9847	42.4805	74.7828	42.4805	74.0741	42.4805	74.6134	42.4805	74.1834	42.4805	74.4551	42.4805	74.3111
43.9453	75.6198	43.9453	75.4497	43.9453	75.7812	43.9453	75.2764	43.9453	75.9278	43.9453	75.105	43.9453	76.054	43.9453	74.9404	43.9453	76.1538	43.9453	74.7865	43.9453	76.2221	43.9453	74.6472	43.9453	76.2547	43.9453	74.5254	43.9453	76.2488	43.9453	74.4236	43.9453	76.2037	43.9453	74.3437	43.9453	76.1207	43.9453	74.2872	43.9453	76.0037	43.9453	74.2547	43.9453	75.8588	43.9453	74.2466	43.9453	75.6934	43.9453	74.2628	43.9453	75.5157	43.9453	74.3028	43.9453	75.3337	43.9453	74.3659	43.9453	75.1544	43.9453	74.4509	43.9453	74.9835	43.9453	74.5568	43.9453	74.825	43.9453	74.6821
45.4102	75.9949	45.4102	75.823	45.4102	76.1581	45.4102	75.6482	45.4102	76.3069	45.4102	75.4755	45.4102	76.4353	45.4102	75.3097	45.4102	76.5374	45.4102	75.1551	45.4102	76.6082	45.4102	75.0152	45.4102	76.6432	45.4102	74.8932	45.4102	76.6396	45.4102	74.7914	45.4102	76.5967	45.4102	74.7118	45.4102	76.5156	45.4102	74.6557	45.4102	76.4001	45.4102	74.6238	45.4102	76.2559	45.4102	74.6167	45.4102	76.0905	45.4102	74.6341	45.4102	75.912	45.4102	74.6756	45.4102	75.7284	45.4102	74.7405	45.4102	75.5467	45.4102	74.8279	45.4102	75.3728	45.4102	74.9365	45.4102	75.2111	45.4102	75.0648
46.875	76.2611	46.875	76.0887	46.875	76.4249	46.875	75.9135	46.875	76.5744	46.875	75.7407	46.875	76.7035	46.875	75.5751	46.875	76.8063	46.875	75.4208	46.875	76.8778	46.875	75.2816	46.875	76.9136	46.875	75.1605	46.875	76.9109	46.875	75.06	46.875	76.869	46.875	74.9819	46.875	76.7893	46.875	74.9276	46.875	76.6754	46.875	74.8978	46.875	76.5332	46.875	74.8927	46.875	76.37	46.875	74.9123	46.875	76.1937	46.875	74.956	46.875	76.0121	46.875	75.0231	46.875	75.8321	46.875	75.1123	46.875	75.6593	46.875	75.2223	46.875	75.4981	46.875	75.3516
48.3398	76.5512	48.3398	76.38	48.3398	76.7145	48.3398	76.2065	48.3398	76.8641	48.3398	76.0359	48.3398	76.994	48.3398	75.873	48.3398	77.0985	48.3398	75.7219	48.3398	77.1726	48.3398	75.5862	48.3398	77.212	48.3398	75.469	48.3398	77.2141	48.3398	75.3727	48.3398	77.178	48.3398	75.2989	48.3398	77.1049	48.3398	75.249	48.3398	76.9985	48.3398	75.2237	48.3398	76.8639	48.3398	75.2231	48.3398	76.7081	48.3398	75.2471	48.3398	76.5384	48.3398	75.2952	48.3398	76.362	48.3398	75.3664	48.3398	76.1855	48.3398	75.4596	48.3398	76.0144	48.3398	75.5731	48.3398	75.8531	48.3398	75.705
51.2695	77.2405	51.2695	77.0695	51.2695	77.4031	51.2695	76.896	51.2695	77.5513	51.2695	76.7256	51.2695	77.6788	51.2695	76.5633	51.2695	77.78	51.2695	76.4135	51.2695	77.8498	51.2695	76.2803	51.2695	77.8844	51.2695	76.1665	51.2695	77.8817	51.2695	76.0749	51.2695	77.8414	51.2695	76.0069	51.2695	77.7656	51.2695	75.9636	51.2695	77.6587	51.2695	75.9454	51.2695	77.5268	51.2695	75.9521	51.2695	77.377	51.2695	75.9827	51.2695	77.2165	51.2695	76.0361	51.2695	77.0519	51.2695	76.1106	51.2695	76.8885	51.2695	76.2044	51.2695	76.7304	51.2695	76.3154	51.2695	76.5806	51.2695	76.4415
52.7344	77.4627	52.7344	77.2883	52.7344	77.6266	52.7344	77.1094	52.7344	77.7736	52.7344	76.932	52.7344	77.8977	52.7344	76.7615	52.7344	77.9931	52.7344	76.6027	52.7344	78.0551	52.7344	76.46	52.7344	78.0801	52.7344	76.3368	52.7344	78.0665	52.7344	76.236	52.7344	78.0147	52.7344	76.1596	52.7344	77.9276	52.7344	76.1089	52.7344	77.8103	52.7344	76.0843	52.7344	77.6696	52.7344	76.0856	52.7344	77.5129	52.7344	76.1121	52.7344	77.3474	52.7344	76.1625	52.7344	77.1795	52.7344	76.235	52.7344	77.0141	52.7344	76.3277	52.7344	76.8546	52.7344	76.4382	52.7344	76.704	52.7344	76.5644
54.1992	77.8047	54.1992	77.6297	54.1992	77.9683	54.1992	77.4492	54.1992	78.114	54.1992	77.269	54.1992	78.2358	54.1992	77.0945	54.1992	78.3279	54.1992	76.9305	54.1992	78.3853	54.1992	76.7813	54.1992	78.4045	54.1992	76.6503	54.1992	78.3835	54.1992	76.5404	54.1992	78.3229	54.1992	76.4538	54.1992	78.2253	54.1992	76.3919	54.1992	78.0962	54.1992	76.3555	54.1992	77.9426	54.1992	76.3448	54.1992	77.7725	54.1992	76.3595	54.1992	77.5939	54.1992	76.3988	54.1992	77.414	54.1992	76.4616	54.1992	77.2384	54.1992	76.5465	54.1992	77.0714	54.1992	76.6519	54.1992	76.9164	54.1992	76.7758
55.6641	78.0503	55.6641	77.875	55.6641	78.2145	55.6641	77.695	55.6641	78.3616	55.6641	77.516	55.6641	78.4853	55.6641	77.3434	55.6641	78.5798	55.6641	77.1821	55.6641	78.6402	55.6641	77.0362	55.6641	78.6629	55.6641	76.9093	55.6641	78.6461	55.6641	76.804	55.6641	78.59	55.6641	76.7225	55.6641	78.4975	55.6641	76.6659	55.6641	78.3737	55.6641	76.6348	55.6641	78.2253	55.6641	76.6292	55.6641	78.0601	55.6641	76.6487	55.6641	77.8859	55.6641	76.6921	55.6641	77.7096	55.6641	76.7582	55.6641	77.5368	55.6641	76.8457	55.6641	77.3718	55.6641	76.9526	55.6641	77.2178	55.6641	77.0773
58.5938	78.6028	58.5938	78.4264	58.5938	78.7678	58.5938	78.2448	58.5938	78.915	58.5938	78.0641	58.5938	79.0383	58.5938	77.8899	58.5938	79.1318	58.5938	77.7272	58.5938	79.1908	58.5938	77.5804	58.5938	79.2118	58.5938	77.4532	58.5938	79.1933	58.5938	77.3484	58.5938	79.1359	58.5938	77.2681	58.5938	79.0428	58.5938	77.2135	58.5938	78.9193	58.5938	77.185	58.5938	78.7724	58.5938	77.1826	58.5938	78.6098	58.5938	77.2053	58.5938	78.439	58.5938	77.252	58.5938	78.2665	58.5938	77.3211	58.5938	78.0975	58.5938	77.4108	58.5938	77.9355	58.5938	77.5192	58.5938	77.7837	58.5938	77.6441
60.0586	78.8697	60.0586	78.6908	60.0586	79.0365	60.0586	78.5064	60.0586	79.185	60.0586	78.3225	60.0586	79.3087	60.0586	78.1448	60.0586	79.4021	60.0586	77.9787	60.0586	79.4602	60.0586	77.8285	60.0586	79.4798	60.0586	77.6982	60.0586	79.4593	60.0586	77.5908	60.0586	79.3995	60.0586	77.5083	60.0586	79.3038	60.0586	77.452	60.0586	79.1775	60.0586	77.4226	60.0586	79.028	60.0586	77.4196	60.0586	78.863	60.0586	77.4425	60.0586	78.69	60.0586	77.4897	60.0586	78.5156	60.0586	77.5597	60.0586	78.3448	60.0586	77.6506	60.0586	78.1812	60.0586	77.7603	60.0586	78.0278	60.0586	77.8867
62.9883	79.4671	62.9883	79.2879	62.9883	79.6333	62.9883	79.1021	62.9883	79.7801	62.9883	78.9157	62.9883	79.9013	62.9883	78.7346	62.9883	79.9914	62.9883	78.564	62.9883	80.0456	62.9883	78.4087	62.9883	80.0607	62.9883	78.2726	62.9883	80.0355	62.9883	78.1591	62.9883	79.9709	62.9883	78.0706	62.9883	79.8705	62.9883	78.0087	62.9883	79.74	62.9883	77.9742	62.9883	79.5867	62.9883	77.967	62.9883	79.4185	62.9883	77.9867	62.9883	79.2429	62.9883	78.0318	62.9883	79.0662	62.9883	78.1009	62.9883	78.8933	62.9883	78.1917	62.9883	78.7279	62.9883	78.3022	62.9883	78.5726	62.9883	78.4299
64.4531	79.6939	64.4531	79.5159	64.4531	79.8587	64.4531	79.331	64.4531	80.0039	64.4531	79.1454	64.4531	80.1232	64.4531	78.9649	64.4531	80.2109	64.4531	78.7947	64.4531	80.2625	64.4531	78.6395	64.4531	80.2747	64.4531	78.5033	64.4531	80.2463	64.4531	78.3892	64.4531	80.1784	64.4531	78.2996	64.4531	80.0747	64.4531	78.2362	64.4531	79.9411	64.4531	78.1997	64.4531	79.7851	64.4531	78.1901	64.4531	79.6149	64.4531	78.2068	64.4531	79.4382	64.4531	78.2487	64.4531	79.2613	64.4531	78.3142	64.4531	79.0892	64.4531	78.4014	64.4531	78.9253	64.4531	78.5083	64.4531	78.7724	64.4531	78.6327
67.3828	80.1738	67.3828	79.9965	67.3828	80.3384	67.3828	79.8131	67.3828	80.484	67.3828	79.6297	67.3828	80.6041	67.3828	79.4523	67.3828	80.6931	67.3828	79.2859	67.3828	80.7462	67.3828	79.1351	67.3828	80.7603	67.3828	79.0036	67.3828	80.7342	67.3828	78.8945	67.3828	80.6691	67.3828	78.8097	67.3828	80.5686	67.3828	78.7506	67.3828	80.4386	67.3828	78.7176	67.3828	80.2866	67.3828	78.7107	67.3828	80.1203	67.3828	78.7292	67.3828	79.9473	67.3828	78.772	67.3828	79.7737	67.3828	78.8376	67.3828	79.6044	67.3828	78.9244	67.3828	79.4428	67.3828	79.0303	67.3828	79.2917	67.3828	79.1535
68.8477	80.3707	68.8477	80.1923	68.8477	80.5365	68.8477	80.0078	68.8477	80.6829	68.8477	79.8236	68.8477	80.8036	68.8477	79.6456	68.8477	80.8929	68.8477	79.4792	68.8477	80.9463	68.8477	79.3291	68.8477	80.9605	68.8477	79.199	68.8477	80.9347	68.8477	79.092	68.8477	80.8701	68.8477	79.01	68.8477	80.7707	68.8477	78.9543	68.8477	80.6425	68.8477	78.9252	68.8477	80.493	68.8477	78.9223	68.8477	80.3301	68.8477	78.9448	68.8477	80.1608	68.8477	78.9913	68.8477	79.9912	68.8477	79.0601	68.8477	79.8254	68.8477	79.1492	68.8477	79.6668	68.8477	79.2567	68.8477	79.5176	68.8477	79.3802
71.7773	80.7719	71.7773	80.5908	71.7773	80.9397	71.7773	80.4032	71.7773	81.0873	71.7773	80.2156	71.7773	81.2083	71.7773	80.0345	71.7773	81.297	71.7773	79.8654	71.7773	81.3488	71.7773	79.7133	71.7773	81.3609	71.7773	79.5822	71.7773	81.3326	71.7773	79.4752	71.7773	81.2656	71.7773	79.3944	71.7773	81.1644	71.7773	79.341	71.7773	81.0354	71.7773	79.3151	71.7773	80.8863	71.7773	79.3162	71.7773	80.7251	71.7773	79.3431	71.7773	80.5588	71.7773	79.3938	71.7773	80.3928	71.7773	79.4665	71.7773	80.2309	71.7773	79.5587	71.7773	80.0755	71.7773	79.6681	71.7773	79.9286	71.7773	79.7921
74.707	81.1637	74.707	80.9809	74.707	81.3321	74.707	80.7909	74.707	81.4793	74.707	80.6005	74.707	81.5986	74.707	80.4161	74.707	81.6845	74.707	80.2437	74.707	81.7323	74.707	80.0884	74.707	81.7393	74.707	79.9544	74.707	81.7052	74.707	79.8451	74.707	81.6322	74.707	79.7625	74.707	81.5251	74.707	79.7079	74.707	81.391	74.707	79.6814	74.707	81.2381	74.707	79.6822	74.707	81.0748	74.707	79.709	74.707	80.9082	74.707	79.7597	74.707	80.7434	74.707	79.8321	74.707	80.5838	74.707	79.9236	74.707	80.4313	74.707	80.0315	74.707	80.2874	74.707	80.1536
77.6367	81.5112	77.6367	81.3275	77.6367	81.6803	77.6367	81.1362	77.6367	81.8277	77.6367	80.9444	77.6367	81.9468	77.6367	80.7584	77.6367	82.0317	77.6367	80.5842	77.6367	82.078	77.6367	80.427	77.6367	82.0829	77.6367	80.291	77.6367	82.046	77.6367	80.1794	77.6367	81.9697	77.6367	80.0944	77.6367	81.8591	77.6367	80.0373	77.6367	81.7215	77.6367	80.0081	77.6367	81.5653	77.6367	80.0064	77.6367	81.3991	77.6367	80.0309	77.6367	81.2299	77.6367	80.0796	77.6367	81.0631	77.6367	80.1503	77.6367	80.902	77.6367	80.2406	77.6367	80.7484	77.6367	80.3479	77.6367	80.6038	77.6367	80.4697
79.1016	81.6447	79.1016	81.4597	79.1016	81.8153	79.1016	81.2676	79.1016	81.9643	79.1016	81.0756	79.1016	82.0849	79.1016	80.8902	79.1016	82.1712	79.1016	80.7175	79.1016	82.2186	79.1016	80.5625	79.1016	82.2245	79.1016	80.4294	79.1016	82.1885	79.1016	80.3213	79.1016	82.1133	79.1016	80.2401	79.1016	82.004	79.1016	80.1868	79.1016	81.8681	79.1016	80.1615	79.1016	81.7142	79.1016	80.1633	79.1016	81.5508	79.1016	80.1908	79.1016	81.3849	79.1016	80.2422	79.1016	81.2214	79.1016	80.315	79.1016	81.0633	79.1016	80.4067	79.1016	80.9123	79.1016	80.5147	79.1016	80.7695	79.1016	80.6364
82.0312	81.9402	82.0312	81.7494	82.0312	82.1157	82.0312	81.5511	82.0312	82.2684	82.0312	81.3531	82.0312	82.3911	82.0312	81.1626	82.0312	82.4778	82.0312	80.986	82.0312	82.5239	82.0312	80.829	82.0312	82.527	82.0312	80.6959	82.0312	82.4871	82.0312	80.59	82.0312	82.4073	82.0312	80.5128	82.0312	82.2935	82.0312	80.4651	82.0312	82.1538	82.0312	80.4463	82.0312	81.9976	82.0312	80.455	82.0312	81.8336	82.0312	80.4889	82.0312	81.6692	82.0312	80.5455	82.0312	81.5089	82.0312	80.622	82.0312	81.3554	82.0312	80.7154	82.0312	81.2095	82.0312	80.823	82.0312	81.0717	82.0312	80.9424
84.9609	82.1438	84.9609	81.9485	84.9609	82.3219	84.9609	81.7442	84.9609	82.4748	84.9609	81.5394	84.9609	82.5954	84.9609	81.342	84.9609	82.6776	84.9609	81.1594	84.9609	82.7174	84.9609	80.9978	84.9609	82.7127	84.9609	80.8622	84.9609	82.6644	84.9609	80.7559	84.9609	82.576	84.9609	80.6804	84.9609	82.4543	84.9609	80.6358	84.9609	82.3079	84.9609	80.6209	84.9609	82.1465	84.9609	80.6331	84.9609	81.9791	84.9609	80.6694	84.9609	81.8129	84.9609	80.7264	84.9609	81.6528	84.9609	80.801	84.9609	81.5013	84.9609	80.8902	84.9609	81.3594	84.9609	80.9919	84.9609	81.2271	84.9609	81.1045
87.8906	82.4942	87.8906	82.2894	87.8906	82.6801	87.8906	82.0741	87.8906	82.8389	87.8906	81.8571	87.8906	82.9639	87.8906	81.6474	87.8906	83.0492	87.8906	81.453	87.8906	83.0912	87.8906	81.2812	87.8906	83.0882	87.8906	81.1378	87.8906	83.0415	87.8906	81.0269	87.8906	82.9552	87.8906	80.9507	87.8906	82.8362	87.8906	80.9093	87.8906	82.6931	87.8906	80.9013	87.8906	82.5355	87.8906	80.9237	87.8906	82.3718	87.8906	80.9727	87.8906	82.2085	87.8906	81.0442	87.8906	82.0496	87.8906	81.134	87.8906	81.8969	87.8906	81.2383	87.8906	81.7509	87.8906	81.3541	87.8906	81.6115	87.8906	81.479
90.8203	82.8055	90.8203	82.6029	90.8203	82.9872	90.8203	82.3879	90.8203	83.1402	90.8203	82.1696	90.8203	83.2577	90.8203	81.9567	90.8203	83.3341	90.8203	81.7578	90.8203	83.366	90.8203	81.5806	90.8203	83.3522	90.8203	81.4315	90.8203	83.2946	90.8203	81.3152	90.8203	83.1981	90.8203	81.2345	90.8203	83.0703	90.8203	81.1899	90.8203	82.9212	90.8203	81.1801	90.8203	82.7609	90.8203	81.2023	90.8203	82.5985	90.8203	81.2522	90.8203	82.4402	90.8203	81.325	90.8203	82.2893	90.8203	81.4158	90.8203	82.1463	90.8203	81.52	90.8203	82.0102	90.8203	81.6337	90.8203	81.8798	90.8203	81.7542
95.2148	83.1156	95.2148	82.9082	95.2148	83.3003	95.2148	82.6867	95.2148	83.4543	95.2148	82.4602	95.2148	83.5706	95.2148	82.2379	95.2148	83.6437	95.2148	82.0288	95.2148	83.6702	95.2148	81.8409	95.2148	83.6488	95.2148	81.6812	95.2148	83.5816	95.2148	81.5548	95.2148	83.4737	95.2148	81.465	95.2148	83.3333	95.2148	81.4126	95.2148	83.1709	95.2148	81.3965	95.2148	82.9976	95.2148	81.4137	95.2148	82.8232	95.2148	81.4599	95.2148	82.6548	95.2148	81.5298	95.2148	82.4961	95.2148	81.6184	95.2148	82.3478	95.2148	81.7206	95.2148	82.2088	95.2148	81.8327	95.2148	82.0773	95.2148	81.952
98.1445	83.3183	98.1445	83.1126	98.1445	83.5007	98.1445	82.8923	98.1445	83.6517	98.1445	82.6664	98.1445	83.7645	98.1445	82.444	98.1445	83.8335	98.1445	82.2339	98.1445	83.8549	98.1445	82.0441	98.1445	83.8277	98.1445	81.8815	98.1445	83.7539	98.1445	81.7511	98.1445	83.6388	98.1445	81.6562	98.1445	83.4909	98.1445	81.598	98.1445	83.3211	98.1445	81.5755	98.1445	83.1411	98.1445	81.5861	98.1445	82.9611	98.1445	81.6257	98.1445	82.7888	98.1445	81.6894	98.1445	82.628	98.1445	81.7721	98.1445	82.4794	98.1445	81.8689	98.1445	82.3418	98.1445	81.9762	98.1445	82.2129	98.1445	82.0912
101.074	83.3874	101.074	83.181	101.074	83.5706	101.074	82.9606	101.074	83.7223	101.074	82.7355	101.074	83.8351	101.074	82.5152	101.074	83.9034	101.074	82.3085	101.074	83.9234	101.074	82.1237	101.074	83.894	101.074	81.9671	101.074	83.8174	101.074	81.8437	101.074	83.6992	101.074	81.756	101.074	83.5484	101.074	81.7044	101.074	83.3763	101.074	81.6875	101.074	83.195	101.074	81.7019	101.074	83.0155	101.074	81.7432	101.074	82.8455	101.074	81.8062	101.074	82.689	101.074	81.8858	101.074	82.5468	101.074	81.9775	101.074	82.417	101.074	82.0776	101.074	82.2969	101.074	82.1842
105.469	83.5336	105.469	83.3131	105.469	83.7296	105.469	83.0779	105.469	83.8921	105.469	82.8382	105.469	84.0136	105.469	82.6045	105.469	84.0879	105.469	82.3865	105.469	84.1112	105.469	82.193	105.469	84.0821	105.469	82.0311	105.469	84.0028	105.469	81.9056	105.469	83.8789	105.469	81.819	105.469	83.7194	105.469	81.7709	105.469	83.5361	105.469	81.759	105.469	83.3416	105.469	81.7789	105.469	83.1478	105.469	81.8251	105.469	82.964	105.469	81.892	105.469	82.7955	105.469	81.9737	105.469	82.644	105.469	82.066	105.469	82.5082	105.469	82.1657	105.469	82.3852	105.469	82.2719
108.398	83.647	108.398	83.4212	108.398	83.8476	108.398	83.1803	108.398	84.014	108.398	82.9348	108.398	84.1387	108.398	82.6958	108.398	84.216	108.398	82.4735	108.398	84.2421	108.398	82.2774	108.398	84.2164	108.398	82.1149	108.398	84.1412	108.398	81.991	108.398	84.0224	108.398	81.9081	108.398	83.8688	108.398	81.8657	108.398	83.6917	108.398	81.8606	108.398	83.5031	108.398	81.8882	108.398	83.314	108.398	81.9424	108.398	83.1328	108.398	82.017	108.398	82.9644	108.398	82.1061	108.398	82.8107	108.398	82.2052	108.398	82.671	108.398	82.3114	108.398	82.5428	108.398	82.4237
112.793	83.7231	112.793	83.4899	112.793	83.9291	112.793	83.2401	112.793	84.0988	112.793	82.9851	112.793	84.2244	112.793	82.737	112.793	84.3006	112.793	82.5072	112.793	84.3242	112.793	82.3063	112.793	84.2952	112.793	82.1427	112.793	84.2169	112.793	82.0221	112.793	84.0962	112.793	81.9467	112.793	83.9432	112.793	81.9156	112.793	83.7697	112.793	81.9248	112.793	83.588	112.793	81.9682	112.793	83.4086	112.793	82.0383	112.793	83.2386	112.793	82.1277	112.793	83.0817	112.793	82.2295	112.793	82.9382	112.793	82.3383	112.793	82.8064	112.793	82.4506	112.793	82.6831	112.793	82.5653
117.188	83.7476	117.188	83.4875	117.188	83.9751	117.188	83.2061	117.188	84.1604	117.188	82.9162	117.188	84.2959	117.188	82.6316	117.188	84.3764	117.188	82.3665	117.188	84.3992	117.188	82.1338	117.188	84.3648	117.188	81.9444	117.188	84.277	117.188	81.8058	117.188	84.1434	117.188	81.7211	117.188	83.9746	117.188	81.6888	117.188	83.7832	117.188	81.7035	117.188	83.5822	117.188	81.7571	117.188	83.3823	117.188	81.8402	117.188	83.1916	117.188	81.9434	117.188	83.0143	117.188	82.0587	117.188	82.8515	117.188	82.1801	117.188	82.7021	117.188	82.3047	117.188	82.5633	117.188	82.4318
120.117	83.9725	120.117	83.7038	120.117	84.2034	120.117	83.4075	120.117	84.3881	120.117	83.0957	120.117	84.5204	120.117	82.7822	120.117	84.596	120.117	82.4817	120.117	84.6135	120.117	82.2093	120.117	84.5741	120.117	81.9784	120.117	84.4822	120.117	81.7998	120.117	84.3458	120.117	81.68	120.117	84.1752	120.117	81.6204	120.117	83.9824	120.117	81.6175	120.117	83.7788	120.117	81.6638	120.117	83.5735	120.117	81.7498	120.117	83.3724	120.117	81.8653	120.117	83.1783	120.117	82.0012	120.117	82.9918	120.117	82.1502	120.117	82.8122	120.117	82.3075	120.117	82.6388	120.117	82.4706
124.512	84.2046	124.512	83.966	124.512	84.4064	124.512	83.6995	124.512	84.5639	124.512	83.4157	124.512	84.6715	124.512	83.1266	124.512	84.7259	124.512	82.8451	124.512	84.726	124.512	82.5849	124.512	84.6741	124.512	82.3589	124.512	84.576	124.512	82.1786	124.512	84.4411	124.512	82.0522	124.512	84.2813	124.512	81.9838	124.512	84.1092	124.512	81.9729	124.512	83.936	124.512	82.0146	124.512	83.7687	124.512	82.1006	124.512	83.6099	124.512	82.2208	124.512	83.458	124.512	82.3643	124.512	83.3091	124.512	82.5215	124.512	83.1592	124.512	82.6843	124.512	83.0055	124.512	82.8468
128.906	84.1764	128.906	83.9411	128.906	84.3725	128.906	83.6763	128.906	84.5217	128.906	83.3933	128.906	84.6181	128.906	83.1046	128.906	84.6583	128.906	82.8242	128.906	84.6417	128.906	82.5663	128.906	84.5712	128.906	82.3446	128.906	84.4537	128.906	82.1706	128.906	84.3003	128.906	82.0527	128.906	84.1249	128.906	81.9943	128.906	83.9426	128.906	81.9941	128.906	83.7668	128.906	82.0458	128.906	83.6061	128.906	82.1398	128.906	83.4635	128.906	82.2644	128.906	83.3362	128.906	82.4074	128.906	83.2179	128.906	82.5578	128.906	83.1011	128.906	82.7067	128.906	82.9792	128.906	82.8481
133.301	84.2153	133.301	83.9787	133.301	84.4108	133.301	83.7107	133.301	84.5575	133.301	83.4221	133.301	84.6493	133.301	83.1255	133.301	84.6823	133.301	82.8344	133.301	84.6552	133.301	82.5629	133.301	84.5703	133.301	82.3248	133.301	84.4338	133.301	82.1321	133.301	84.2563	133.301	81.994	133.301	84.0522	133.301	81.915	133.301	83.8378	133.301	81.8947	133.301	83.629	133.301	81.9278	133.301	83.4379	133.301	82.0048	133.301	83.2705	133.301	82.114	133.301	83.1265	133.301	82.243	133.301	83.0002	133.301	82.3801	133.301	82.8833	133.301	82.5164	133.301	82.7673	133.301	82.6459
139.16	84.1131	139.16	83.8736	139.16	84.3115	139.16	83.6031	139.16	84.4608	139.16	83.3131	139.16	84.5546	139.16	83.0163	139.16	84.5891	139.16	82.7265	139.16	84.563	139.16	82.4579	139.16	84.4787	139.16	82.2238	139.16	84.3424	139.16	82.0356	139.16	84.1646	139.16	81.9012	139.16	83.9591	139.16	81.8245	139.16	83.7417	139.16	81.8041	139.16	83.5274	139.16	81.8344	139.16	83.3282	139.16	81.9062	139.16	83.1511	139.16	82.008	139.16	82.9973	139.16	82.1283	139.16	82.8632	139.16	82.2564	139.16	82.7418	139.16	82.3842	139.16	82.6254	139.16	82.5074
143.555	84.0451	143.555	83.7963	143.555	84.2497	143.555	83.5138	143.555	84.4015	143.555	83.2103	143.555	84.4943	143.555	82.8999	143.555	84.5245	143.555	82.5978	143.555	84.4916	143.555	82.3197	143.555	84.3991	143.555	82.08	143.555	84.2546	143.555	81.8906	143.555	84.0699	143.555	81.7592	143.555	83.8601	143.555	81.6886	143.555	83.6416	143.555	81.676	143.555	83.4292	143.555	81.7144	143.555	83.2337	143.555	81.7934	143.555	83.0602	143.555	81.9011	143.555	82.9088	143.555	82.0257	143.555	82.7751	143.555	82.1571	143.555	82.6525	143.555	82.2878	143.555	82.534	143.555	82.4135
147.949	84.2071	147.949	83.9511	147.949	84.4137	147.949	83.656	147.949	84.5627	147.949	83.3345	147.949	84.6486	147.949	83.0017	147.949	84.6685	147.949	82.6745	147.949	84.6229	147.949	82.3712	147.949	84.5162	147.949	82.1095	147.949	84.3578	147.949	81.9045	147.949	84.1616	147.949	81.7665	147.949	83.9452	147.949	81.6994	147.949	83.7271	147.949	81.6998	147.949	83.5232	147.949	81.7586	147.949	83.3434	147.949	81.8626	147.949	83.1902	147.949	81.997	147.949	83.0593	147.949	82.1474	147.949	82.9426	147.949	82.3017	147.949	82.8306	147.949	82.4506	147.949	82.7146	147.949	82.5888
153.809	84.3191	153.809	84.076	153.809	84.5112	153.809	83.7911	153.809	84.6445	153.809	83.476	153.809	84.7132	153.809	83.1441	153.809	84.7136	153.809	82.8112	153.809	84.6452	153.809	82.4949	153.809	84.5115	153.809	82.2143	153.809	84.3214	153.809	81.9874	153.809	84.09	153.809	81.8289	153.809	83.8382	153.809	81.7473	153.809	83.5904	153.809	81.743	153.809	83.3699	153.809	81.8079	153.809	83.1928	153.809	81.9271	153.809	83.0641	153.809	82.0817	153.809	82.9763	153.809	82.2517	153.809	82.9134	153.809	82.4187	153.809	82.8557	153.809	82.5684	153.809	82.7858	153.809	82.6916
159.668	84.125	159.668	83.8816	159.668	84.3222	159.668	83.6013	159.668	84.4649	159.668	83.2949	159.668	84.5466	159.668	82.9742	159.668	84.5627	159.668	82.6522	159.668	84.5111	159.668	82.3432	159.668	84.3931	159.668	82.0615	159.668	84.2139	159.668	81.8215	159.668	83.9838	159.668	81.6353	159.668	83.7179	159.668	81.5116	159.668	83.4351	159.668	81.4537	159.668	83.1566	159.668	81.4584	159.668	82.902	159.668	81.5162	159.668	82.6858	159.668	81.613	159.668	82.5136	159.668	81.7322	159.668	82.3811	159.668	81.858	159.668	82.2758	159.668	81.978	159.668	82.1821	159.668	82.0857
165.527	83.7843	165.527	83.5232	165.527	83.995	165.527	83.2236	165.527	84.146	165.527	82.8997	165.527	84.2302	165.527	82.5676	165.527	84.244	165.527	82.2449	165.527	84.1872	165.527	81.9496	165.527	84.0641	165.527	81.6988	165.527	83.8843	165.527	81.5064	165.527	83.6628	165.527	81.3817	165.527	83.4191	165.527	81.3274	165.527	83.1749	165.527	81.3398	165.527	82.9503	165.527	81.4091	165.527	82.7602	165.527	81.5214	165.527	82.611	165.527	81.6602	165.527	82.5	165.527	81.809	165.527	82.4169	165.527	81.9532	165.527	82.347	165.527	82.0818	165.527	82.2751	165.527	82.189
171.387	84.076	171.387	83.8021	171.387	84.2904	171.387	83.4781	171.387	84.4375	171.387	83.1152	171.387	84.5116	171.387	82.7272	171.387	84.5089	171.387	82.3305	171.387	84.4286	171.387	81.944	171.387	84.2736	171.387	81.5887	171.387	84.0516	171.387	81.2857	171.387	83.7761	171.387	81.0532	171.387	83.4659	171.387	80.9035	171.387	83.1445	171.387	80.8402	171.387	82.8361	171.387	80.8569	171.387	82.5614	171.387	80.9393	171.387	82.3335	171.387	81.0678	171.387	82.154	171.387	81.2216	171.387	82.0141	171.387	81.3815	171.387	81.8978	171.387	81.533	171.387	81.7874	171.387	81.6684
177.246	83.9685	177.246	83.7133	177.246	84.1716	177.246	83.4169	177.246	84.3133	177.246	83.092	177.246	84.3868	177.246	82.7527	177.246	84.3877	177.246	82.4146	177.246	84.3151	177.246	82.0945	177.246	84.1724	177.246	81.8093	177.246	83.9682	177.246	81.5752	177.246	83.7171	177.246	81.4052	177.246	83.439	177.246	81.3074	177.246	83.1577	177.246	81.2833	177.246	82.8972	177.246	81.3266	177.246	82.6774	177.246	81.4244	177.246	82.5093	177.246	81.5592	177.246	82.3917	177.246	81.7113	177.246	82.3122	177.246	81.862	177.246	82.2509	177.246	81.9962	177.246	82.1872	177.246	82.1049
183.105	83.8818	183.105	83.599	183.105	84.106	183.105	83.2695	183.105	84.2619	183.105	82.9075	183.105	84.3426	183.105	82.5294	183.105	84.3439	183.105	82.1531	183.105	84.2655	183.105	81.7981	183.105	84.1113	183.105	81.4839	183.105	83.8905	183.105	81.2287	183.105	83.6179	183.105	81.0464	183.105	83.3132	183.105	80.9451	183.105	83.0002	183.105	80.9247	183.105	82.7039	183.105	80.9766	183.105	82.4463	183.105	81.0852	183.105	82.2423	183.105	81.2302	183.105	82.0956	183.105	81.3897	183.105	81.9968	183.105	81.5439	183.105	81.9267	183.105	81.6775	183.105	81.862	183.105	81.7829
188.965	84.0398	188.965	83.7551	188.965	84.2624	188.965	83.4198	188.965	84.4135	188.965	83.0486	188.965	84.4867	188.965	82.6583	188.965	84.4787	188.965	82.2682	188.965	84.3901	188.965	81.8996	188.965	84.226	188.965	81.574	188.965	83.9972	188.965	81.3116	188.965	83.7202	188.965	81.1277	188.965	83.417	188.965	81.0307	188.965	83.1125	188.965	81.0197	188.965	82.8315	188.965	81.0848	188.965	82.5939	188.965	81.2086	188.965	82.4108	188.965	81.3692	188.965	82.2815	188.965	81.544	188.965	82.1938	188.965	81.7122	188.965	82.1276	188.965	81.8584	188.965	82.0605	188.965	81.9742
196.289	83.9887	196.289	83.6992	196.289	84.2118	196.289	83.355	196.289	84.3595	196.289	82.9708	196.289	84.4256	196.289	82.5644	196.289	84.4075	196.289	82.1568	196.289	84.3061	196.289	81.7719	196.289	84.1274	196.289	81.4348	196.289	83.8831	196.289	81.17	196.289	83.5917	196.289	80.9966	196.289	83.2776	196.289	80.9249	196.289	82.9699	196.289	80.9534	196.289	82.6975	196.289	81.0683	196.289	82.4845	196.289	81.2464	196.289	82.3429	196.289	81.4594	196.289	82.2683	196.289	81.6782	196.289	82.241	196.289	81.8772	196.289	82.2309	196.289	82.037	196.289	82.2074	196.289	82.1469
203.613	83.8089	203.613	83.5209	203.613	84.0253	203.613	83.1727	203.613	84.1613	203.613	82.7784	203.613	84.2106	203.613	82.3552	203.613	84.1703	203.613	81.9237	203.613	84.0413	203.613	81.5078	203.613	83.8296	203.613	81.134	203.613	83.5475	203.613	80.8293	203.613	83.2147	203.613	80.617	203.613	82.8582	203.613	80.5127	203.613	82.5104	203.613	80.5191	203.613	82.2055	203.613	80.6249	203.613	81.9723	203.613	80.8058	203.613	81.8266	203.613	81.0297	203.613	81.7643	203.613	81.2624	203.613	81.761	203.613	81.4724	203.613	81.7796	203.613	81.6357	203.613	81.782	203.613	81.739
210.938	83.9109	210.938	83.6067	210.938	84.1356	210.938	83.2346	210.938	84.271	210.938	82.8088	210.938	84.3097	210.938	82.346	210.938	84.2466	210.938	81.8671	210.938	84.0801	210.938	81.397	210.938	83.8136	210.938	80.965	210.938	83.4576	210.938	80.6025	210.938	83.0316	210.938	80.3391	210.938	82.5665	210.938	80.1955	210.938	82.1049	210.938	80.1779	210.938	81.697	210.938	80.2741	210.938	81.3908	210.938	80.4561	210.938	81.2156	210.938	80.6856	210.938	81.1679	210.938	80.922	210.938	81.2107	210.938	81.1285	210.938	81.2887	210.938	81.2766	210.938	81.3479	210.938	81.35
218.262	84.1556	218.262	83.8494	218.262	84.3894	218.262	83.4824	218.262	84.5412	218.262	83.0676	218.262	84.6033	218.262	82.6195	218.262	84.5707	218.262	82.154	218.262	84.4408	218.262	81.6887	218.262	84.2145	218.262	81.2436	218.262	83.8965	218.262	80.8403	218.262	83.4957	218.262	80.502	218.262	83.0271	218.262	80.2499	218.262	82.5132	218.262	80.0988	218.262	81.9874	218.262	80.0515	218.262	81.4945	218.262	80.0955	218.262	81.0861	218.262	80.2037	218.262	80.8028	218.262	80.3403	218.262	80.6532	218.262	80.4688	218.262	80.6067	218.262	80.561	218.262	80.6082	218.262	80.6043
225.586	84.0242	225.586	83.7179	225.586	84.2605	225.586	83.355	225.586	84.4165	225.586	82.9513	225.586	84.4852	225.586	82.5252	225.586	84.4631	225.586	82.097	225.586	84.3512	225.586	81.6886	225.586	84.1548	225.586	81.3223	225.586	83.8842	225.586	81.0198	225.586	83.5549	225.586	80.7994	225.586	83.1864	225.586	80.6733	225.586	82.8022	225.586	80.6443	225.586	82.4296	225.586	80.7038	225.586	82.0988	225.586	80.8321	225.586	81.8386	225.586	81.0011	225.586	81.6673	225.586	81.1798	225.586	81.5819	225.586	81.3389	225.586	81.5559	225.586	81.4569	225.586	81.5495	225.586	81.5247
232.91	83.8126	232.91	83.455	232.91	84.0872	232.91	83.0316	232.91	84.2665	232.91	82.5636	232.91	84.3419	232.91	82.0761	232.91	84.3096	232.91	81.5975	232.91	84.17	232.91	81.1579	232.91	83.9289	232.91	80.7865	232.91	83.5979	232.91	80.5093	232.91	83.196	232.91	80.3456	232.91	82.7496	232.91	80.304	232.91	82.2948	232.91	80.3802	232.91	81.8765	232.91	80.5553	232.91	81.5456	232.91	80.7973	232.91	81.3458	232.91	81.0667	232.91	81.2926	232.91	81.3214	232.91	81.36	232.91	81.5239	232.91	81.4887	232.91	81.6457	232.91	81.6107	232.91	81.6728
241.699	84.0256	241.699	83.6617	241.699	84.295	241.699	83.2147	241.699	84.4616	241.699	82.6998	241.699	84.5198	241.699	82.1367	241.699	84.4669	241.699	81.5508	241.699	84.3035	241.699	80.975	241.699	84.034	241.699	80.449	241.699	83.6675	241.699	80.0168	241.699	83.2189	241.699	79.7202	241.699	82.7106	241.699	79.587	241.699	82.1751	241.699	79.6208	241.699	81.6579	241.699	79.7971	241.699	81.218	241.699	80.0692	241.699	80.9149	241.699	80.3807	241.699	80.7824	241.699	80.6764	241.699	80.8031	241.699	80.9109	241.699	80.9124	241.699	81.0528	241.699	81.0298	241.699	81.0892
250.488	84.0146	250.488	83.5949	250.488	84.3196	250.488	83.0721	250.488	84.5038	250.488	82.4646	250.488	84.5658	250.488	81.7988	250.488	84.5085	250.488	81.11	250.488	84.3386	250.488	80.4416	250.488	84.0668	250.488	79.8412	250.488	83.7059	250.488	79.3545	250.488	83.2689	250.488	79.0171	250.488	82.7665	250.488	78.8478	250.488	82.2063	250.488	78.8438	250.488	81.6	250.488	78.98	250.488	80.9776	250.488	79.2122	250.488	80.4024	250.488	79.4831	250.488	79.9652	250.488	79.7331	250.488	79.7395	250.488	79.9102	250.488	79.722	250.488	79.9808	250.488	79.8265	250.488	79.9406
259.277	85.0469	259.277	84.7151	259.277	85.2665	259.277	84.2726	259.277	85.3726	259.277	83.7221	259.277	85.3642	259.277	83.0688	259.277	85.2412	259.277	82.3223	259.277	85.0046	259.277	81.5016	259.277	84.6579	259.277	80.64	259.277	84.2078	259.277	79.7921	259.277	83.6657	259.277	79.0356	259.277	83.0487	259.277	78.4614	259.277	82.3808	259.277	78.1421	259.277	81.6945	259.277	78.093	259.277	81.0333	259.277	78.2603	259.277	80.45	259.277	78.5486	259.277	79.9967	259.277	78.8623	259.277	79.7016	259.277	79.1311	259.277	79.5488	259.277	79.3189	259.277	79.4808	259.277	79.4246
268.066	84.8242	268.066	84.5657	268.066	84.9974	268.066	84.2272	268.066	85.0819	268.066	83.816	268.066	85.0774	268.066	83.3409	268.066	84.9865	268.066	82.8125	268.066	84.816	268.066	82.2451	268.066	84.5758	268.066	81.6575	268.066	84.2782	268.066	81.076	268.066	83.9353	268.066	80.5352	268.066	83.5557	268.066	80.0764	268.066	83.1433	268.066	79.7408	268.066	82.7	268.066	79.5563	268.066	82.2333	268.066	79.5241	268.066	81.7647	268.066	79.6153	268.066	81.3293	268.066	79.7814	268.066	80.9642	268.066	79.9725	268.066	80.6869	268.066	80.1544	268.066	80.4839	268.066	80.3187
276.855	84.2727	276.855	83.988	276.855	84.4657	276.855	83.6208	276.855	84.5598	276.855	83.1824	276.855	84.5506	276.855	82.6856	276.855	84.4366	276.855	82.1468	276.855	84.221	276.855	81.5877	276.855	83.912	276.855	81.0385	276.855	83.5241	276.855	80.5406	276.855	83.0794	276.855	80.1447	276.855	82.6077	276.855	79.9019	276.855	82.1466	276.855	79.8455	276.855	81.7407	276.855	79.9735	276.855	81.4359	276.855	80.2445	276.855	81.2665	276.855	80.5916	276.855	81.2368	276.855	80.9437	276.855	81.3121	276.855	81.2415	276.855	81.4296	276.855	81.4452	276.855	81.5221	276.855	81.537
287.109	84.4737	287.109	84.1464	287.109	84.6961	287.109	83.724	287.109	84.8079	287.109	83.2196	287.109	84.8077	287.109	82.6489	287.109	84.6983	287.109	82.0289	287.109	84.486	287.109	81.3778	287.109	84.1796	287.109	80.7162	287.109	83.7884	287.109	80.0708	287.109	83.3188	287.109	79.4815	287.109	82.7726	287.109	79.0043	287.109	82.1496	287.109	78.7035	287.109	81.4585	287.109	78.6229	287.109	80.7381	287.109	78.7529	287.109	80.0756	287.109	79.0226	287.109	79.5935	287.109	79.3291	287.109	79.3797	287.109	79.577	287.109	79.4091	287.109	79.7025	287.109	79.5572	287.109	79.6853
297.363	84.9563	297.363	84.6951	297.363	85.1133	297.363	84.3294	297.363	85.1667	297.363	83.8602	297.363	85.1185	297.363	83.2902	297.363	84.9725	297.363	82.6259	297.363	84.7346	297.363	81.88	297.363	84.4135	297.363	81.076	297.363	84.0204	297.363	80.2524	297.363	83.5669	297.363	79.4674	297.363	83.0633	297.363	78.7987	297.363	82.5165	297.363	78.3299	297.363	81.9337	297.363	78.118	297.363	81.3323	297.363	78.1588	297.363	80.7499	297.363	78.382	297.363	80.2436	297.363	78.6865	297.363	79.8657	297.363	78.9816	297.363	79.6278	297.363	79.2132	297.363	79.4873	297.363	79.3709
307.617	84.44	307.617	84.2308	307.617	84.5715	307.617	83.9519	307.617	84.6187	307.617	83.6108	307.617	84.5784	307.617	83.213	307.617	84.4527	307.617	82.7624	307.617	84.2498	307.617	82.2638	307.617	83.983	307.617	81.7276	307.617	83.669	307.617	81.1752	307.617	83.3234	307.617	80.6436	307.617	82.9569	307.617	80.1855	307.617	82.5742	307.617	79.8596	307.617	82.1807	307.617	79.7098	307.617	81.7925	307.617	79.7412	307.617	81.4418	307.617	79.914	307.617	81.1668	307.617	80.1598	307.617	80.9882	307.617	80.4094	307.617	80.891	307.617	80.6127	307.617	80.8291	307.617	80.7491
319.336	84.1478	319.336	83.8978	319.336	84.3165	319.336	83.5801	319.336	84.3928	319.336	83.2075	319.336	84.3706	319.336	82.7877	319.336	84.2502	319.336	82.3224	319.336	84.0378	319.336	81.8092	319.336	83.744	319.336	81.2481	319.336	83.3797	319.336	80.6522	319.336	82.9518	319.336	80.0611	319.336	82.4611	319.336	79.5504	319.336	81.9099	319.336	79.2228	319.336	81.322	319.336	79.1627	319.336	80.7681	319.336	79.3752	319.336	80.3671	319.336	79.7723	319.336	80.2244	319.336	80.2227	319.336	80.3377	319.336	80.6096	319.336	80.5859	319.336	80.8557	319.336	80.8174	319.336	80.924
329.59	84.0784	329.59	83.7745	329.59	84.2806	329.59	83.3896	329.59	84.3676	329.59	82.9484	329.59	84.3349	329.59	82.474	329.59	84.1875	329.59	81.9825	329.59	83.9398	329.59	81.4796	329.59	83.6141	329.59	80.9643	329.59	83.2354	329.59	80.4391	329.59	82.8226	329.59	79.9252	329.59	82.3788	329.59	79.4758	329.59	81.8914	329.59	79.1755	329.59	81.3511	329.59	79.1057	329.59	80.787	329.59	79.2872	329.59	80.2946	329.59	79.6503	329.59	80.0098	329.59	80.0695	329.59	80.0069	329.59	80.4223	329.59	80.2156	329.59	80.6237	329.59	80.4736	329.59	80.6359
341.309	84.4339	341.309	84.1281	341.309	84.6323	341.309	83.7342	341.309	84.711	341.309	83.2753	341.309	84.6661	341.309	82.7731	341.309	84.5033	341.309	82.243	341.309	84.2385	341.309	81.6904	341.309	83.8963	341.309	81.111	341.309	83.5041	341.309	80.5005	341.309	83.0805	341.309	79.87	341.309	82.6224	341.309	79.2673	341.309	82.1024	341.309	78.7897	341.309	81.4884	341.309	78.5605	341.309	80.7863	341.309	78.6488	341.309	80.0883	341.309	78.9978	341.309	79.579	341.309	79.4514	341.309	79.4204	341.309	79.8456	341.309	79.5842	341.309	80.0669	341.309	79.8679	341.309	80.0666
353.027	84.4215	353.027	84.0445	353.027	84.66	353.027	83.5559	353.027	84.7459	353.027	82.9941	353.027	84.6773	353.027	82.4038	353.027	84.4638	353.027	81.8258	353.027	84.1267	353.027	81.2841	353.027	83.6987	353.027	80.7807	353.027	83.2197	353.027	80.3034	353.027	82.7251	353.027	79.8464	353.027	82.2271	353.027	79.4356	353.027	81.7053	353.027	79.1415	353.027	81.1248	353.027	79.0575	353.027	80.4854	353.027	79.2332	353.027	79.8794	353.027	79.6148	353.027	79.4971	353.027	80.064	353.027	79.4948	353.027	80.4301	353.027	79.8159	353.027	80.6032	353.027	80.2323	353.027	80.5314
366.211	85.2298	366.211	84.948	366.211	85.3715	366.211	84.5343	366.211	85.3719	366.211	84.0042	366.211	85.2369	366.211	83.3788	366.211	84.9786	366.211	82.6817	366.211	84.6157	366.211	81.9343	366.211	84.173	366.211	81.1512	366.211	83.6785	366.211	80.3395	366.211	83.1556	366.211	79.5084	366.211	82.6081	366.211	78.6906	366.211	82.0088	366.211	77.969	366.211	81.3022	366.211	77.4787	366.211	80.4328	366.211	77.3324	366.211	79.3968	366.211	77.5021	366.211	78.3165	366.211	77.8082	366.211	77.4843	366.211	78.0374	366.211	77.1986	366.211	78.0457	366.211	77.4188	366.211	77.8006
379.395	84.0784	379.395	83.8233	379.395	84.2194	379.395	83.4742	379.395	84.2351	379.395	83.0553	379.395	84.1247	379.395	82.5896	379.395	83.8996	379.395	82.0924	379.395	83.5846	379.395	81.5668	379.395	83.2163	379.395	81.0061	379.395	82.8351	379.395	80.4034	379.395	82.4661	379.395	79.7694	379.395	82.0996	379.395	79.1544	379.395	81.6893	379.395	78.6618	379.395	81.1816	379.395	78.4218	379.395	80.565	379.395	78.5039	379.395	79.9167	379.395	78.8421	379.395	79.4076	379.395	79.2713	379.395	79.2038	379.395	79.627	379.395	79.3113	379.395	79.8047	379.395	79.5651	379.395	79.7707
392.578	84.5436	392.578	84.2534	392.578	84.6812	392.578	83.8316	392.578	84.6581	392.578	83.313	392.578	84.4783	392.578	82.7422	392.578	84.1573	392.578	82.1622	392.578	83.7256	392.578	81.5962	392.578	83.2327	392.578	81.0342	392.578	82.7455	392.578	80.4347	392.578	82.3258	392.578	79.7478	392.578	81.9866	392.578	78.9515	392.578	81.6593	392.578	78.0962	392.578	81.213	392.578	77.3458	392.578	80.5133	392.578	76.9358	392.578	79.4887	392.578	76.971	392.578	78.2163	392.578	77.2745	392.578	77.0413	392.578	77.5392	392.578	76.4991	392.578	77.54	392.578	76.7151	392.578	77.2128
405.762	84.0536	405.762	83.7165	405.762	84.2577	405.762	83.2732	405.762	84.3096	405.762	82.7546	405.762	84.2003	405.762	82.191	405.762	83.9321	405.762	81.6055	405.762	83.5228	405.762	81.0084	405.762	83.0098	405.762	80.3954	405.762	82.4518	405.762	79.7529	405.762	81.9177	405.762	79.0722	405.762	81.4558	405.762	78.3736	405.762	81.0599	405.762	77.732	405.762	80.6693	405.762	77.2793	405.762	80.2115	405.762	77.137	405.762	79.6552	405.762	77.3018	405.762	79.0461	405.762	77.6251	405.762	78.507	405.762	77.923	405.762	78.1726	405.762	78.082	405.762	78.074	405.762	78.0981
420.41	84.918	420.41	84.5096	420.41	85.115	420.41	83.9054	420.41	85.0979	420.41	83.1418	420.41	84.8726	420.41	82.286	420.41	84.4523	420.41	81.4368	420.41	83.8612	420.41	80.7001	420.41	83.1443	420.41	80.1315	420.41	82.3788	420.41	79.6949	420.41	81.6733	420.41	79.2874	420.41	81.1232	420.41	78.8078	420.41	80.7323	420.41	78.2136	420.41	80.3844	420.41	77.5499	420.41	79.9123	420.41	76.9474	420.41	79.194	420.41	76.554	420.41	78.2219	420.41	76.4032	420.41	77.1608	420.41	76.3684	420.41	76.3437	420.41	76.2859	420.41	76.0316	420.41	76.1156
435.059	84.4449	435.059	84.1194	435.059	84.6003	435.059	83.6418	435.059	84.578	435.059	83.0408	435.059	84.3797	435.059	82.3546	435.059	84.0145	435.059	81.6274	435.059	83.499	435.059	80.9022	435.059	82.8599	435.059	80.2109	435.059	82.1413	435.059	79.5697	435.059	81.4118	435.059	78.9856	435.059	80.757	435.059	78.4788	435.059	80.247	435.059	78.1033	435.059	79.8941	435.059	77.9373	435.059	79.6473	435.059	78.0249	435.059	79.4375	435.059	78.3137	435.059	79.2319	435.059	78.6693	435.059	79.0574	435.059	78.9527	435.059	78.9731	435.059	79.0854	435.059	78.9996	435.059	79.0738
451.172	84.0646	451.172	83.8131	451.172	84.1696	451.172	83.4292	451.172	84.1227	451.172	82.932	451.172	83.9304	451.172	82.3408	451.172	83.6108	451.172	81.6724	451.172	83.193	451.172	80.9421	451.172	82.7138	451.172	80.1666	451.172	82.2108	451.172	79.3698	451.172	81.7106	451.172	78.5923	451.172	81.2164	451.172	77.9038	451.172	80.7089	451.172	77.4091	451.172	80.1662	451.172	77.2125	451.172	79.59	451.172	77.3342	451.172	79.0149	451.172	77.6618	451.172	78.4989	451.172	78.0118	451.172	78.1129	451.172	78.2312	451.172	77.927	451.172	78.2546	451.172	77.9591	451.172	78.1208
465.82	84.0793	465.82	83.7883	465.82	84.1981	465.82	83.35	465.82	84.1341	465.82	82.8011	465.82	83.8907	465.82	82.1837	465.82	83.4846	465.82	81.533	465.82	82.9464	465.82	80.8626	465.82	82.3254	465.82	80.1555	465.82	81.691	465.82	79.3695	465.82	81.1177	465.82	78.4625	465.82	80.643	465.82	77.4394	465.82	80.2255	465.82	76.4281	465.82	79.7608	465.82	75.7355	465.82	79.1537	465.82	75.6814	465.82	78.3953	465.82	76.2085	465.82	77.6152	465.82	76.9148	465.82	77.0668	465.82	77.4481	465.82	76.9535	465.82	77.6506	465.82	77.2019	465.82	77.523
483.398	83.5524	483.398	83.1786	483.398	83.7035	483.398	82.6191	483.398	83.6264	483.398	81.9524	483.398	83.3368	483.398	81.2916	483.398	82.8627	483.398	80.7418	483.398	82.2426	483.398	80.3329	483.398	81.5318	483.398	79.9926	483.398	80.8139	483.398	79.5951	483.398	80.1981	483.398	79.0349	483.398	79.7697	483.398	78.2795	483.398	79.5154	483.398	77.4215	483.398	79.3173	483.398	76.7275	483.398	79.039	483.398	76.5405	483.398	78.6183	483.398	76.9263	483.398	78.1177	483.398	77.5599	483.398	77.7236	483.398	78.0717	483.398	77.6341	483.398	78.2719	483.398	77.852	483.398	78.1509
499.512	83.2578	499.512	82.9947	499.512	83.3548	499.512	82.5686	499.512	83.2933	499.512	81.9986	499.512	83.0876	499.512	81.3245	499.512	82.7535	499.512	80.6077	499.512	82.3055	499.512	79.9188	499.512	81.7543	499.512	79.3045	499.512	81.1077	499.512	78.7536	499.512	80.372	499.512	78.2015	499.512	79.564	499.512	77.5853	499.512	78.7379	499.512	76.9184	499.512	78.0118	499.512	76.3454	499.512	77.5175	499.512	76.0937	499.512	77.2598	499.512	76.2519	499.512	77.0861	499.512	76.6251	499.512	76.8706	499.512	76.9196	499.512	76.6704	499.512	76.9703	499.512	76.6463	499.512	76.8123
517.09	83.2785	517.09	82.8585	517.09	83.4401	517.09	82.2221	517.09	83.3448	517.09	81.4708	517.09	83.0243	517.09	80.7603	517.09	82.5342	517.09	80.233	517.09	81.953	517.09	79.9087	517.09	81.3768	517.09	79.6612	517.09	80.8944	517.09	79.3135	517.09	80.5348	517.09	78.7316	517.09	80.2279	517.09	77.8663	517.09	79.8333	517.09	76.7981	517.09	79.2182	517.09	75.8306	517.09	78.3265	517.09	75.4627	517.09	77.2411	517.09	75.8907	517.09	76.2576	517.09	76.6964	517.09	75.8363	517.09	77.3672	517.09	76.1615	517.09	77.638	517.09	76.8595	517.09	77.4423
536.133	83.1274	536.133	82.7539	536.133	83.2231	536.133	82.1126	536.133	83.0564	536.133	81.2538	536.133	82.6589	536.133	80.2851	536.133	82.0728	536.133	79.3727	536.133	81.3514	536.133	78.6859	536.133	80.5708	536.133	78.2811	536.133	79.8399	536.133	78.0526	536.133	79.2783	536.133	77.825	536.133	78.9478	536.133	77.476	536.133	78.8025	536.133	77.0052	536.133	78.7245	536.133	76.5645	536.133	78.5892	536.133	76.4044	536.133	78.2953	536.133	76.6469	536.133	77.8015	536.133	77.1066	536.133	77.2112	536.133	77.4624	536.133	76.8192	536.133	77.5044	536.133	76.8752	536.133	77.23
555.176	83.88	555.176	83.583	555.176	83.8809	555.176	82.967	555.176	83.625	555.176	82.0382	555.176	83.1613	555.176	80.8597	555.176	82.5445	555.176	79.5959	555.176	81.8319	555.176	78.5213	555.176	81.0781	555.176	77.8675	555.176	80.3241	555.176	77.5827	555.176	79.5865	555.176	77.3837	555.176	78.88	555.176	77.0278	555.176	78.2795	555.176	76.4679	555.176	77.9195	555.176	75.9186	555.176	77.8002	555.176	75.8091	555.176	77.6578	555.176	76.3476	555.176	77.208	555.176	77.1755	555.176	76.511	555.176	77.7798	555.176	76.1418	555.176	77.8633	555.176	76.579	555.176	77.3751
574.219	84.5299	574.219	84.2213	574.219	84.5239	574.219	83.5846	574.219	84.2299	574.219	82.6279	574.219	83.6827	574.219	81.4021	574.219	82.922	574.219	80.0437	574.219	81.9959	574.219	78.8145	574.219	80.9785	574.219	78.01	574.219	79.9922	574.219	77.6768	574.219	79.1894	574.219	77.5316	574.219	78.6602	574.219	77.2464	574.219	78.3635	574.219	76.6757	574.219	78.1875	574.219	75.9582	574.219	78.0159	574.219	75.5719	574.219	77.7154	574.219	75.9499	574.219	77.1784	574.219	76.81	574.219	76.5165	574.219	77.5173	574.219	76.2054	574.219	77.699	574.219	76.6019	574.219	77.3031
594.727	84.6102	594.727	84.3916	594.727	84.605	594.727	83.9383	594.727	84.3968	594.727	83.2507	594.727	84.0098	594.727	82.3389	594.727	83.4647	594.727	81.2218	594.727	82.7733	594.727	79.9406	594.727	81.9399	594.727	78.5881	594.727	80.9664	594.727	77.3264	594.727	79.8651	594.727	76.3102	594.727	78.6971	594.727	75.5337	594.727	77.6489	594.727	74.8451	594.727	77.0333	594.727	74.2162	594.727	76.9619	594.727	73.9673	594.727	77.0693	594.727	74.4471	594.727	76.8819	594.727	75.3607	594.727	76.2447	594.727	76.0697	594.727	75.506	594.727	76.2094	594.727	75.3433	594.727	75.8076
615.234	84.691	615.234	84.2957	615.234	84.7873	615.234	83.6034	615.234	84.6131	615.234	82.6659	615.234	84.2122	615.234	81.6008	615.234	83.6316	615.234	80.5762	615.234	82.9133	615.234	79.7334	615.234	82.0903	615.234	79.0919	615.234	81.1813	615.234	78.553	615.234	80.1872	615.234	77.9873	615.234	79.1178	615.234	77.2968	615.234	78.0879	615.234	76.4495	615.234	77.4036	615.234	75.5548	615.234	77.3112	615.234	74.9627	615.234	77.5663	615.234	75.0654	615.234	77.6957	615.234	75.7342	615.234	77.4927	615.234	76.4298	615.234	77.1102	615.234	76.8003	615.234	76.8676	615.234	76.8535
637.207	85.4377	637.207	85.1666	637.207	85.4209	637.207	84.5555	637.207	85.1871	637.207	83.5924	637.207	84.808	637.207	82.3381	637.207	84.3339	637.207	80.974	637.207	83.7765	637.207	79.8029	637.207	83.1027	637.207	79.0662	637.207	82.2428	637.207	78.6923	637.207	81.1146	637.207	78.3693	637.207	79.6757	637.207	77.7954	637.207	78.043	637.207	76.7788	637.207	76.6481	637.207	75.3132	637.207	75.9803	637.207	73.943	637.207	75.827	637.207	73.9608	637.207	75.5727	637.207	75.3566	637.207	75.1217	637.207	76.6904	637.207	75.111	637.207	77.2361	637.207	75.9376	637.207	76.8957
659.18	84.588	659.18	84.4477	659.18	84.5161	659.18	84.027	659.18	84.2928	659.18	83.2635	659.18	83.9649	659.18	82.1276	659.18	83.5684	659.18	80.675	659.18	83.1334	659.18	79.144	659.18	82.6775	659.18	77.9983	659.18	82.1849	659.18	77.5751	659.18	81.5904	659.18	77.6203	659.18	80.8005	659.18	77.6041	659.18	79.7654	659.18	77.1738	659.18	78.6021	659.18	76.2162	659.18	77.6575	659.18	74.9334	659.18	77.1551	659.18	74.0523	659.18	76.7343	659.18	74.2119	659.18	75.8698	659.18	74.7833	659.18	74.5979	659.18	74.868	659.18	73.8779	659.18	74.3065
682.617	84.988	682.617	84.7631	682.617	84.9555	682.617	84.2357	682.617	84.7151	682.617	83.3757	682.617	84.3152	682.617	82.1882	682.617	83.8015	682.617	80.7499	682.617	83.214	682.617	79.2617	682.617	82.5778	682.617	78.0515	682.617	81.8904	682.617	77.3867	682.617	81.1221	682.617	77.2021	682.617	80.2471	682.617	77.164	682.617	79.314	682.617	76.9519	682.617	78.5374	682.617	76.4161	682.617	78.2392	682.617	75.6854	682.617	78.4094	682.617	75.2366	682.617	78.5296	682.617	75.429	682.617	78.0997	682.617	75.8614	682.617	77.0687	682.617	75.9622	682.617	76.0374	682.617	75.7755
707.52	85.2933	707.52	85.1555	707.52	85.2841	707.52	84.7954	707.52	85.1618	707.52	84.1161	707.52	84.9229	707.52	83.0327	707.52	84.5473	707.52	81.5155	707.52	84.0153	707.52	79.6671	707.52	83.3132	707.52	77.8539	707.52	82.4441	707.52	76.6665	707.52	81.45	707.52	76.2941	707.52	80.4125	707.52	76.2339	707.52	79.3723	707.52	75.9824	707.52	78.2883	707.52	75.4576	707.52	77.3213	707.52	75.0918	707.52	77.0315	707.52	75.5032	707.52	77.3994	707.52	76.4879	707.52	77.5797	707.52	77.2536	707.52	77.2229	707.52	77.3821	707.52	76.8451	707.52	77.0268
732.422	84.6215	732.422	84.2753	732.422	84.7855	732.422	83.7429	732.422	84.7617	732.422	83.0096	732.422	84.5553	732.422	82.0716	732.422	84.1954	732.422	80.9659	732.422	83.7173	732.422	79.7895	732.422	83.121	732.422	78.6819	732.422	82.356	732.422	77.7565	732.422	81.3731	732.422	77.0105	732.422	80.2174	732.422	76.2874	732.422	79.0692	732.422	75.3243	732.422	78.1545	732.422	73.8956	732.422	77.6746	732.422	72.2188	732.422	77.7094	732.422	71.6459	732.422	77.8367	732.422	72.8206	732.422	77.3462	732.422	74.0248	732.422	75.9257	732.422	74.2634	732.422	74.2516	732.422	73.8442
757.324	85.1304	757.324	84.6398	757.324	85.4502	757.324	84.0237	757.324	85.5296	757.324	83.2491	757.324	85.3423	757.324	82.2345	757.324	84.9261	757.324	80.9506	757.324	84.3503	757.324	79.5227	757.324	83.6494	757.324	78.2564	757.324	82.7886	757.324	77.443	757.324	81.7191	757.324	77.0489	757.324	80.4954	757.324	76.7483	757.324	79.3109	757.324	76.1832	757.324	78.2985	757.324	75.1103	757.324	77.5099	757.324	73.6032	757.324	77.3455	757.324	72.5331	757.324	77.9247	757.324	72.8997	757.324	78.3403	757.324	73.8618	757.324	77.8748	757.324	74.535	757.324	76.6021	757.324	75.2869
785.156	84.8328	785.156	84.0697	785.156	85.3885	785.156	83.246	785.156	85.6222	785.156	82.408	785.156	85.5162	785.156	81.4495	785.156	85.1357	785.156	80.2465	785.156	84.5675	785.156	78.8675	785.156	83.8499	785.156	77.7037	785.156	82.9614	785.156	77.2027	785.156	81.8962	785.156	77.2552	785.156	80.7405	785.156	77.3132	785.156	79.5733	785.156	76.9168	785.156	78.2354	785.156	75.8048	785.156	76.6245	785.156	74.0157	785.156	75.7889	785.156	72.4854	785.156	76.6805	785.156	72.5997	785.156	77.594	785.156	73.407	785.156	77.3354	785.156	73.8135	785.156	75.9712	785.156	74.4589
811.523	85.0404	811.523	83.965	811.523	85.774	811.523	82.8629	811.523	86.0065	811.523	82.0042	811.523	85.7308	811.523	81.283	811.523	85.056	811.523	80.3083	811.523	84.1594	811.523	78.8173	811.523	83.1887	811.523	77.0502	811.523	82.1767	811.523	76.0536	811.523	81.1119	811.523	76.4296	811.523	80.109	811.523	77.0912	811.523	79.3521	811.523	77.0449	811.523	78.7203	811.523	75.8849	811.523	77.9298	811.523	73.5435	811.523	77.3071	811.523	71.2274	811.523	77.434	811.523	71.5632	811.523	77.6199	811.523	72.6915	811.523	76.8463	811.523	72.8272	811.523	74.9544	811.523	73.1209
840.82	85.383	840.82	83.8548	840.82	86.2975	840.82	82.0003	840.82	86.5374	840.82	80.3886	840.82	86.1936	840.82	79.4838	840.82	85.4764	840.82	79.0476	840.82	84.6233	840.82	78.5178	840.82	83.719	840.82	77.6043	840.82	82.6311	840.82	76.4373	840.82	81.19	840.82	75.5862	840.82	79.4797	840.82	75.4595	840.82	78.0603	840.82	75.4784	840.82	77.3396	840.82	74.7453	840.82	76.8017	840.82	72.7268	840.82	76.4303	840.82	69.589	840.82	77.2314	840.82	67.3747	840.82	78.567	840.82	67.6738	840.82	78.9342	840.82	70.5459	840.82	77.7066	840.82	74.7301
870.117	85.1612	870.117	83.1835	870.117	86.3918	870.117	80.8263	870.117	86.783	870.117	78.8366	870.117	86.3892	870.117	77.7514	870.117	85.3997	870.117	77.2328	870.117	84.1504	870.117	76.7983	870.117	82.9853	870.117	76.3334	870.117	81.9714	870.117	75.9493	870.117	80.8958	870.117	75.8202	870.117	79.5973	870.117	75.9589	870.117	78.2251	870.117	76.0042	870.117	77.1056	870.117	75.3933	870.117	76.1942	870.117	73.6874	870.117	75.5211	870.117	70.9733	870.117	76.0952	870.117	68.6682	870.117	77.5433	870.117	68.0414	870.117	78.116	870.117	69.9331	870.117	76.9942	870.117	73.9918
900.879	85.0905	900.879	82.6044	900.879	86.5254	900.879	79.2197	900.879	86.9722	900.879	76.1421	900.879	86.5351	900.879	75.3514	900.879	85.3738	900.879	75.6903	900.879	83.7446	900.879	75.6872	900.879	81.9845	900.879	75.3289	900.879	80.3864	900.879	74.9473	900.879	79.1083	900.879	74.758	900.879	78.238	900.879	74.8001	900.879	77.7346	900.879	74.7973	900.879	77.2581	900.879	74.1788	900.879	76.4122	900.879	72.4798	900.879	75.4075	900.879	69.9995	900.879	75.4897	900.879	68.1805	900.879	76.7427	900.879	66.8661	900.879	77.411	900.879	68.2853	900.879	76.4035	900.879	73.2125
933.105	84.7704	933.105	81.8846	933.105	86.376	933.105	77.3858	933.105	86.8895	933.105	71.7086	933.105	86.4449	933.105	71.6254	933.105	85.2011	933.105	74.228	933.105	83.3771	933.105	75.1562	933.105	81.2016	933.105	74.7656	933.105	78.8041	933.105	73.8289	933.105	76.3142	933.105	73.4395	933.105	74.5232	933.105	73.974	933.105	74.71	933.105	74.5119	933.105	75.8384	933.105	74.1107	933.105	76.2353	933.105	72.1839	933.105	75.7224	933.105	68.5858	933.105	75.8167	933.105	64.4648	933.105	77.3039	933.105	58.3838	933.105	78.1866	933.105	65.5973	933.105	77.1767	933.105	73.548
965.332	84.5288	965.332	81.3807	965.332	86.2296	965.332	76.0722	965.332	86.7488	965.332	66.0721	965.332	86.2486	965.332	67.6571	965.332	84.918	965.332	72.9564	965.332	83.0341	965.332	74.8443	965.332	80.8984	965.332	75.2668	965.332	78.6248	965.332	74.9512	965.332	76.0441	965.332	74.4617	965.332	72.9641	965.332	74.2559	965.332	70.5177	965.332	74.2014	965.332	71.4864	965.332	73.5568	965.332	73.218	965.332	71.6148	965.332	73.5155	965.332	68.6114	965.332	73.7162	965.332	66.4739	965.332	75.7267	965.332	62.3119	965.332	77.2303	965.332	62.5328	965.332	76.4691	965.332	72.5309
1000.49	84.0657	1000.49	80.7352	1000.49	85.8707	1000.49	74.994	1000.49	86.4289	1000.49	61.0905	1000.49	85.8812	1000.49	67.5327	1000.49	84.3828	1000.49	73.2162	1000.49	82.217	1000.49	75.0147	1000.49	79.83	1000.49	75.0562	1000.49	77.577	1000.49	74.0441	1000.49	75.3792	1000.49	72.9358	1000.49	72.8104	1000.49	72.8188	1000.49	69.4293	1000.49	73.2509	1000.49	67.0991	1000.49	72.9873	1000.49	69.5432	1000.49	71.2971	1000.49	71.9036	1000.49	68.299	1000.49	73.2728	1000.49	65.7107	1000.49	75.0163	1000.49	61.3343	1000.49	76.32	1000.49	62.3131	1000.49	75.6399	1000.49	71.8691
1035.64	84.0858	1035.64	80.9017	1035.64	85.7203	1035.64	75.4869	1035.64	86.0921	1035.64	67.4616	1035.64	85.366	1035.64	70.1728	1035.64	83.7036	1035.64	73.9188	1035.64	81.3371	1035.64	75.4761	1035.64	78.5841	1035.64	75.782	1035.64	75.7598	1035.64	75.19	1035.64	73.1079	1035.64	74.0912	1035.64	70.8455	1035.64	73.2706	1035.64	69.1721	1035.64	73.2289	1035.64	68.5264	1035.64	73.0692	1035.64	69.1578	1035.64	71.4266	1035.64	69.7316	1035.64	67.2741	1035.64	70.2968	1035.64	62.966	1035.64	72.9881	1035.64	63.7298	1035.64	75.3389	1035.64	66.8633	1035.64	75.279	1035.64	72.3321
1072.27	83.8573	1072.27	80.6916	1072.27	85.4737	1072.27	75.597	1072.27	85.8255	1072.27	71.1204	1072.27	85.0836	1072.27	73.3244	1072.27	83.3758	1072.27	75.3609	1072.27	80.8195	1072.27	76.0836	1072.27	77.5146	1072.27	76.0426	1072.27	73.5128	1072.27	75.4071	1072.27	68.9104	1072.27	74.0834	1072.27	64.6623	1072.27	72.2732	1072.27	64.2008	1072.27	71.4362	1072.27	67.3282	1072.27	72.1224	1072.27	70.2722	1072.27	72.0604	1072.27	71.5696	1072.27	70.0203	1072.27	71.4729	1072.27	66.9084	1072.27	72.6746	1072.27	64.9429	1072.27	74.7305	1072.27	66.2259	1072.27	74.709	1072.27	71.6958
1108.89	84.5263	1108.89	81.8654	1108.89	85.8144	1108.89	78.0007	1108.89	85.8261	1108.89	74.9394	1108.89	84.6728	1108.89	75.1793	1108.89	82.5234	1108.89	76.0091	1108.89	79.7052	1108.89	76.1323	1108.89	76.6771	1108.89	75.7814	1108.89	73.5529	1108.89	75.2938	1108.89	69.7479	1108.89	74.8084	1108.89	64.3483	1108.89	74.124	1108.89	59.1104	1108.89	72.891	1108.89	63.6551	1108.89	71.3403	1108.89	67.9314	1108.89	70.2822	1108.89	70.1549	1108.89	68.8292	1108.89	71.4756	1108.89	65.6648	1108.89	73.4774	1108.89	66.0975	1108.89	75.3052	1108.89	70.5602	1108.89	75.5033	1108.89	73.8358
1148.44	84.1837	1148.44	81.7525	1148.44	85.507	1148.44	78.8003	1148.44	85.6303	1148.44	76.8974	1148.44	84.5942	1148.44	76.6662	1148.44	82.4947	1148.44	76.8204	1148.44	79.4666	1148.44	76.7073	1148.44	75.7249	1148.44	76.2008	1148.44	71.8571	1148.44	75.1394	1148.44	68.9212	1148.44	73.5327	1148.44	66.6768	1148.44	72.2138	1148.44	63.7173	1148.44	72.1469	1148.44	62.2279	1148.44	72.2535	1148.44	66.1242	1148.44	71.2962	1148.44	68.988	1148.44	69.3147	1148.44	69.7146	1148.44	67.4808	1148.44	71.0337	1148.44	66.6882	1148.44	73.3916	1148.44	68.5472	1148.44	73.9874	1148.44	72.1176
1189.45	84.6443	1189.45	82.6827	1189.45	85.6485	1189.45	80.2606	1189.45	85.5626	1189.45	78.4251	1189.45	84.387	1189.45	77.6849	1189.45	82.1936	1189.45	77.327	1189.45	79.1318	1189.45	76.8708	1189.45	75.4541	1189.45	76.2595	1189.45	71.5659	1189.45	75.3648	1189.45	68.185	1189.45	74.1466	1189.45	66.103	1189.45	73.0133	1189.45	65.166	1189.45	72.2023	1189.45	65.4065	1189.45	71.0685	1189.45	66.8199	1189.45	69.219	1189.45	67.8177	1189.45	67.5721	1189.45	68.2522	1189.45	67.5734	1189.45	70.5258	1189.45	68.8852	1189.45	73.0059	1189.45	70.5308	1189.45	73.5622	1189.45	72.3667
1230.47	84.1661	1230.47	82.5406	1230.47	85.0512	1230.47	80.5425	1230.47	85.0381	1230.47	78.851	1230.47	84.0361	1230.47	77.893	1230.47	82.0017	1230.47	77.2921	1230.47	78.9966	1230.47	76.576	1230.47	75.3442	1230.47	75.6122	1230.47	71.9014	1230.47	74.4697	1230.47	69.3652	1230.47	73.4051	1230.47	66.6655	1230.47	72.8337	1230.47	63.4293	1230.47	72.8545	1230.47	65.3435	1230.47	72.946	1230.47	68.7138	1230.47	72.1838	1230.47	69.7968	1230.47	69.6579	1230.47	69.4176	1230.47	67.0522	1230.47	70.5718	1230.47	68.9857	1230.47	72.6588	1230.47	70.8453	1230.47	73.1377	1230.47	72.1317
1274.41	84.1937	1274.41	82.8668	1274.41	84.8078	1274.41	81.2036	1274.41	84.5288	1274.41	79.7057	1274.41	83.3486	1274.41	78.6163	1274.41	81.4038	1274.41	77.7507	1274.41	78.8329	1274.41	76.9355	1274.41	75.5985	1274.41	76.0541	1274.41	72.0175	1274.41	74.747	1274.41	70.0133	1274.41	72.875	1274.41	69.3553	1274.41	71.4886	1274.41	67.0204	1274.41	71.2994	1274.41	63.9166	1274.41	71.228	1274.41	67.4568	1274.41	71.3007	1274.41	69.5951	1274.41	70.7421	1274.41	68.5169	1274.41	68.2263	1274.41	68.1635	1274.41	68.5097	1274.41	71.1006	1274.41	71.8571	1274.41	72.9183	1274.41	73.2203
1319.82	84.3588	1319.82	83.444	1319.82	84.3535	1319.82	81.8708	1319.82	83.6467	1319.82	80.2835	1319.82	82.6298	1319.82	79.0758	1319.82	81.2266	1319.82	78.0067	1319.82	78.9668	1319.82	76.9325	1319.82	75.6579	1319.82	76.0165	1319.82	71.8162	1319.82	74.9148	1319.82	69.5981	1319.82	72.7654	1319.82	70.1143	1319.82	69.9157	1319.82	70.0653	1319.82	69.9831	1319.82	68.0545	1319.82	70.7156	1319.82	67.4088	1319.82	69.5629	1319.82	69.3277	1319.82	68.6493	1319.82	69.4439	1319.82	68.2559	1319.82	69.7403	1319.82	68.4946	1319.82	71.7643	1319.82	70.8198	1319.82	72.6798	1319.82	72.3329
1366.7	84.5743	1366.7	83.6922	1366.7	84.5405	1366.7	82.1882	1366.7	83.5984	1366.7	80.5456	1366.7	82.1036	1366.7	79.1282	1366.7	80.4725	1366.7	77.8465	1366.7	78.6206	1366.7	76.5382	1366.7	76.2388	1366.7	75.7738	1366.7	73.4571	1366.7	75.8884	1366.7	70.7415	1366.7	75.5382	1366.7	68.2696	1366.7	73.4288	1366.7	66.1362	1366.7	69.598	1366.7	66.0158	1366.7	67.7467	1366.7	68.9526	1366.7	68.6141	1366.7	70.824	1366.7	69.3911	1366.7	70.1962	1366.7	68.2484	1366.7	69.3925	1366.7	68.218	1366.7	70.0215	1366.7	71.9309	1366.7	71.1289	1366.7	72.7263
1413.57	84.96	1413.57	83.9979	1413.57	84.9476	1413.57	82.3559	1413.57	83.8215	1413.57	80.5244	1413.57	81.7966	1413.57	79.0051	1413.57	79.7744	1413.57	77.7853	1413.57	78.2255	1413.57	76.4747	1413.57	76.1077	1413.57	74.9939	1413.57	73.0302	1413.57	73.7651	1413.57	71.2064	1413.57	73.2989	1413.57	71.3405	1413.57	73.4362	1413.57	70.3954	1413.57	73.0835	1413.57	66.8549	1413.57	70.9573	1413.57	66.1426	1413.57	67.0964	1413.57	69.5052	1413.57	67.1143	1413.57	68.917	1413.57	67.7135	1413.57	67.1295	1413.57	67.9278	1413.57	67.8264	1413.57	71.1264	1413.57	69.742	1413.57	71.924
1463.38	85.0392	1463.38	84.2494	1463.38	84.6947	1463.38	82.5004	1463.38	83.5148	1463.38	80.5389	1463.38	81.9186	1463.38	79.1202	1463.38	79.9924	1463.38	77.9895	1463.38	77.7986	1463.38	76.4726	1463.38	75.6012	1463.38	74.5131	1463.38	72.8795	1463.38	72.713	1463.38	69.1708	1463.38	71.1255	1463.38	69.4736	1463.38	69.6219	1463.38	71.8221	1463.38	70.5712	1463.38	70.8973	1463.38	71.9552	1463.38	67.069	1463.38	69.9822	1463.38	68.4696	1463.38	65.4382	1463.38	68.7459	1463.38	67.2516	1463.38	67.2486	1463.38	67.0887	1463.38	68.8502	1463.38	70.863	1463.38	72.1739	1463.38	73.5165
1516.11	84.6491	1516.11	83.9588	1516.11	84.2873	1516.11	82.4443	1516.11	83.1417	1516.11	80.7421	1516.11	81.6503	1516.11	79.3302	1516.11	79.9375	1516.11	78.0485	1516.11	77.9663	1516.11	76.3995	1516.11	75.7384	1516.11	74.1738	1516.11	73.2143	1516.11	72.4118	1516.11	70.4434	1516.11	72.157	1516.11	67.4724	1516.11	71.3561	1516.11	66.8852	1516.11	69.5358	1516.11	68.9919	1516.11	69.7103	1516.11	69.752	1516.11	68.7361	1516.11	70.0944	1516.11	65.8284	1516.11	69.6071	1516.11	67.0051	1516.11	68.2188	1516.11	66.9803	1516.11	68.8344	1516.11	70.0875	1516.11	70.7582	1516.11	72.0435
1568.85	84.6759	1568.85	84.1262	1568.85	84.0311	1568.85	82.5713	1568.85	82.637	1568.85	80.6398	1568.85	81.3379	1568.85	78.981	1568.85	79.999	1568.85	77.6545	1568.85	77.8452	1568.85	76.3935	1568.85	75.1384	1568.85	74.9899	1568.85	73.0122	1568.85	73.1717	1568.85	71.0028	1568.85	71.0123	1568.85	68.6736	1568.85	68.9965	1568.85	68.4683	1568.85	67.3472	1568.85	68.3217	1568.85	68.9918	1568.85	66.7373	1568.85	69.4885	1568.85	69.2189	1568.85	64.1283	1568.85	69.7207	1568.85	64.9481	1568.85	67.5408	1568.85	66.8996	1568.85	67.2161	1568.85	67.5544	1568.85	69.0288	1568.85	70.2213
1624.51	85.1643	1624.51	84.2448	1624.51	84.4194	1624.51	82.24	1624.51	82.4234	1624.51	80.3274	1624.51	80.8923	1624.51	79.0729	1624.51	80.0077	1624.51	77.9166	1624.51	78.1797	1624.51	76.3825	1624.51	75.3944	1624.51	74.726	1624.51	72.8495	1624.51	73.5016	1624.51	70.557	1624.51	71.8857	1624.51	67.0861	1624.51	68.8329	1624.51	65.5081	1624.51	66.087	1624.51	68.8362	1624.51	66.37	1624.51	69.4588	1624.51	68.1441	1624.51	69.7887	1624.51	66.1919	1624.51	69.8773	1624.51	61.4752	1624.51	67.5779	1624.51	66.0443	1624.51	66.6473	1624.51	68.7133	1624.51	69.0491	1624.51	70.8519
1681.64	85.3427	1681.64	84.2085	1681.64	84.8155	1681.64	82.402	1681.64	82.6155	1681.64	80.8059	1681.64	80.5197	1681.64	79.1367	1681.64	79.6927	1681.64	77.1313	1681.64	78.1257	1681.64	74.9401	1681.64	74.9755	1681.64	72.6072	1681.64	71.6466	1681.64	71.2337	1681.64	70.9884	1681.64	71.7979	1681.64	70.6836	1681.64	71.12	1681.64	69.0946	1681.64	67.8948	1681.64	68.2167	1681.64	66.2389	1681.64	68.2592	1681.64	66.0089	1681.64	69.3056	1681.64	65.3874	1681.64	69.0188	1681.64	63.6687	1681.64	66.6878	1681.64	64.2577	1681.64	65.6462	1681.64	67.9337	1681.64	67.8039	1681.64	69.7668
1741.7	85.1281	1741.7	84.1954	1741.7	84.8127	1741.7	82.4823	1741.7	82.9852	1741.7	80.5125	1741.7	80.4061	1741.7	78.7663	1741.7	79.1745	1741.7	77.3812	1741.7	78.3748	1741.7	76.0401	1741.7	75.8843	1741.7	74.1866	1741.7	71.7091	1741.7	72.1251	1741.7	69.0759	1741.7	71.4965	1741.7	66.9363	1741.7	70.9308	1741.7	65.5691	1741.7	68.3813	1741.7	69.9291	1741.7	66.0908	1741.7	69.8406	1741.7	66.4144	1741.7	69.6888	1741.7	63.809	1741.7	69.9801	1741.7	60.0983	1741.7	65.8374	1741.7	62.767	1741.7	63.7542	1741.7	64.7765	1741.7	66.6061	1741.7	68.2875
1803.22	84.8361	1803.22	84.1488	1803.22	84.2217	1803.22	82.4974	1803.22	82.6891	1803.22	80.6284	1803.22	80.8032	1803.22	78.7441	1803.22	79.0553	1803.22	76.8252	1803.22	77.8523	1803.22	75.0237	1803.22	76.1662	1803.22	72.6873	1803.22	72.8157	1803.22	70.0941	1803.22	69.7086	1803.22	70.0332	1803.22	69.4619	1803.22	69.639	1803.22	66.3382	1803.22	67.394	1803.22	62.9281	1803.22	66.6993	1803.22	67.6097	1803.22	66.7371	1803.22	69.3801	1803.22	64.2284	1803.22	69.582	1803.22	60.5834	1803.22	65.991	1803.22	64.2623	1803.22	63.209	1803.22	65.2751	1803.22	66.5294	1803.22	68.7993
1866.21	84.9316	1866.21	84.1404	1866.21	84.1653	1866.21	82.3974	1866.21	82.3671	1866.21	80.6101	1866.21	80.7878	1866.21	78.8638	1866.21	79.3955	1866.21	76.8286	1866.21	77.937	1866.21	74.8225	1866.21	76.0177	1866.21	73.0771	1866.21	72.3945	1866.21	70.5802	1866.21	68.4793	1866.21	67.0444	1866.21	68.2001	1866.21	64.3775	1866.21	66.6951	1866.21	62.5989	1866.21	66.4923	1866.21	65.0246	1866.21	67.1079	1866.21	67.4757	1866.21	67.5438	1866.21	65.2483	1866.21	68.983	1866.21	56.9836	1866.21	65.874	1866.21	63.4556	1866.21	63.2537	1866.21	63.8714	1866.21	66.7012	1866.21	67.9787
1932.13	85.0294	1932.13	83.812	1932.13	84.7593	1932.13	82.1585	1932.13	82.6754	1932.13	80.5704	1932.13	80.425	1932.13	78.7111	1932.13	79.4015	1932.13	76.3579	1932.13	77.8376	1932.13	73.9877	1932.13	75.3915	1932.13	72.234	1932.13	72.4228	1932.13	70.8001	1932.13	69.9537	1932.13	70.0311	1932.13	69.8969	1932.13	69.8833	1932.13	67.2186	1932.13	67.6178	1932.13	61.3165	1932.13	58.1902	1932.13	67.3624	1932.13	59.7299	1932.13	67.5846	1932.13	64.5235	1932.13	68.2426	1932.13	57.2422	1932.13	65.3242	1932.13	61.0781	1932.13	61.0099	1932.13	64.2409	1932.13	64.1266	1932.13	66.4937
1999.51	84.9555	1999.51	83.8973	1999.51	84.9383	1999.51	82.3192	1999.51	83.1701	1999.51	80.4872	1999.51	80.3846	1999.51	78.5657	1999.51	79.21	1999.51	76.3354	1999.51	78.132	1999.51	73.9234	1999.51	75.371	1999.51	71.965	1999.51	72.1102	1999.51	69.2773	1999.51	68.712	1999.51	67.0908	1999.51	66.816	1999.51	68.1615	1999.51	68.2018	1999.51	67.6018	1999.51	66.6777	1999.51	66.6889	1999.51	66.4184	1999.51	61.6355	1999.51	67.2198	1999.51	59.1214	1999.51	67.8952	1999.51	60.4172	1999.51	63.5798	1999.51	59.3473	1999.51	57.43	1999.51	63.813	1999.51	65.6627	1999.51	67.434
2069.82	84.9519	2069.82	84.0659	2069.82	84.403	2069.82	82.3487	2069.82	82.7991	2069.82	80.7433	2069.82	80.7226	2069.82	79.0329	2069.82	79.0219	2069.82	76.6706	2069.82	77.9021	2069.82	73.6487	2069.82	75.5535	2069.82	71.0651	2069.82	71.8665	2069.82	69.4841	2069.82	69.2612	2069.82	67.2704	2069.82	68.0846	2069.82	65.0585	2069.82	69.2275	2069.82	62.3222	2069.82	66.8072	2069.82	64.7581	2069.82	65.7686	2069.82	63.5521	2069.82	66.2424	2069.82	57.9802	2069.82	67.7086	2069.82	60.4635	2069.82	64.3566	2069.82	59.2434	2069.82	57.9142	2069.82	63.5336	2069.82	64.045	2069.82	65.363
2143.07	85.2257	2143.07	84.0179	2143.07	84.9495	2143.07	82.6255	2143.07	82.6502	2143.07	81.0145	2143.07	80.405	2143.07	78.805	2143.07	79.1334	2143.07	76.3127	2143.07	77.2166	2143.07	73.7652	2143.07	75.2038	2143.07	71.5324	2143.07	72.2786	2143.07	69.9476	2143.07	68.8769	2143.07	68.0747	2143.07	65.993	2143.07	67.8338	2143.07	66.2702	2143.07	66.3463	2143.07	68.8726	2143.07	59.4466	2143.07	67.1289	2143.07	64.1544	2143.07	65.5654	2143.07	61.3275	2143.07	65.4202	2143.07	59.8864	2143.07	60.9463	2143.07	60.1792	2143.07	52.8812	2143.07	64.6503	2143.07	64.9416	2143.07	65.746
2219.24	84.7284	2219.24	84.0035	2219.24	85.1133	2219.24	82.7357	2219.24	83.3951	2219.24	80.8543	2219.24	79.9951	2219.24	78.9265	2219.24	78.7056	2219.24	76.0845	2219.24	77.4714	2219.24	72.4748	2219.24	74.9515	2219.24	69.4336	2219.24	71.4309	2219.24	67.6415	2219.24	68.2922	2219.24	66.5318	2219.24	66.5557	2219.24	63.1905	2219.24	59.3708	2219.24	61.783	2219.24	65.5289	2219.24	60.0871	2219.24	66.6994	2219.24	59.3593	2219.24	64.7621	2219.24	61.2329	2219.24	65.0927	2219.24	58.1209	2219.24	62.337	2219.24	58.5968	2219.24	62.0213	2219.24	65.3025	2219.24	68.5139	2219.24	68.5892
2296.88	84.2503	2296.88	83.9448	2296.88	83.9972	2296.88	82.6576	2296.88	83.3482	2296.88	81.0846	2296.88	80.9241	2296.88	78.6434	2296.88	78.4394	2296.88	75.1455	2296.88	77.3745	2296.88	71.6239	2296.88	75.2138	2296.88	68.7704	2296.88	72.2501	2296.88	65.9622	2296.88	68.4261	2296.88	63.9343	2296.88	67.6691	2296.88	64.7409	2296.88	66.6903	2296.88	65.7156	2296.88	62.952	2296.88	63.2125	2296.88	66.3657	2296.88	61.5316	2296.88	65.3792	2296.88	60.9578	2296.88	64.635	2296.88	61.0867	2296.88	62.2697	2296.88	58.2213	2296.88	61.0865	2296.88	65.0653	2296.88	67.5947	2296.88	67.3715
2378.91	84.6651	2378.91	83.8078	2378.91	83.9592	2378.91	82.9495	2378.91	82.163	2378.91	81.1063	2378.91	80.8645	2378.91	77.8883	2378.91	78.766	2378.91	74.6896	2378.91	76.9493	2378.91	71.4867	2378.91	75.3662	2378.91	68.8837	2378.91	72.1538	2378.91	68.1682	2378.91	68.3973	2378.91	67.4632	2378.91	66.9249	2378.91	65.9804	2378.91	65.4271	2378.91	64.368	2378.91	63.238	2378.91	63.3202	2378.91	65.6539	2378.91	60.9543	2378.91	66.7254	2378.91	61.6949	2378.91	64.4237	2378.91	59.9503	2378.91	63.0438	2378.91	59.8863	2378.91	60.1007	2378.91	65.5772	2378.91	66.1854	2378.91	67.4093
2462.4	84.513	2462.4	84.0234	2462.4	84.5774	2462.4	82.9695	2462.4	82.3583	2462.4	80.674	2462.4	79.8326	2462.4	78.247	2462.4	78.8638	2462.4	75.1314	2462.4	76.8315	2462.4	71.3269	2462.4	74.7865	2462.4	68.2038	2462.4	71.6539	2462.4	67.0102	2462.4	67.4995	2462.4	65.7059	2462.4	63.5948	2462.4	64.431	2462.4	64.4586	2462.4	65.7394	2462.4	65.5525	2462.4	62.5588	2462.4	65.2437	2462.4	62.5193	2462.4	66.076	2462.4	60.031	2462.4	64.9399	2462.4	59.4403	2462.4	63.0671	2462.4	58.5751	2462.4	59.8345	2462.4	64.8096	2462.4	66.2794	2462.4	67.6558
2548.83	83.9587	2548.83	84.092	2548.83	83.9261	2548.83	82.9669	2548.83	82.9231	2548.83	80.9101	2548.83	79.8916	2548.83	77.8662	2548.83	78.2429	2548.83	73.6606	2548.83	76.8712	2548.83	71.0631	2548.83	74.0952	2548.83	69.8002	2548.83	72.1254	2548.83	67.6691	2548.83	67.9009	2548.83	66.9048	2548.83	67.4962	2548.83	65.0917	2548.83	64.5298	2548.83	64.2392	2548.83	63.9791	2548.83	63.1134	2548.83	62.9418	2548.83	61.5538	2548.83	66.8192	2548.83	62.5421	2548.83	63.5354	2548.83	58.813	2548.83	63.0183	2548.83	59.1562	2548.83	58.84	2548.83	65.1214	2548.83	66.2342	2548.83	67.6023
2639.65	83.9524	2639.65	83.8871	2639.65	83.1608	2639.65	82.78	2639.65	82.3279	2639.65	80.9035	2639.65	80.4366	2639.65	77.6929	2639.65	78.0628	2639.65	74.4793	2639.65	76.7711	2639.65	72.3578	2639.65	74.0215	2639.65	69.9211	2639.65	69.5654	2639.65	67.7112	2639.65	65.4675	2639.65	66.3514	2639.65	62.4707	2639.65	65.958	2639.65	62.7617	2639.65	65.1907	2639.65	64.8845	2639.65	63.7191	2639.65	59.9451	2639.65	61.5586	2639.65	65.459	2639.65	62.7647	2639.65	64.5938	2639.65	60.1872	2639.65	63.1537	2639.65	58.3362	2639.65	57.779	2639.65	64.4476	2639.65	65.6769	2639.65	67.2637
2731.93	83.9705	2731.93	83.8079	2731.93	83.4745	2731.93	82.7162	2731.93	81.8987	2731.93	80.5426	2731.93	79.9196	2731.93	77.8849	2731.93	78.4327	2731.93	75.2822	2731.93	76.4055	2731.93	72.0307	2731.93	74.1568	2731.93	68.5946	2731.93	70.435	2731.93	66.1609	2731.93	66.93	2731.93	65.4679	2731.93	62.4705	2731.93	64.0169	2731.93	54.479	2731.93	64.0223	2731.93	65.543	2731.93	63.0819	2731.93	64.7015	2731.93	60.4872	2731.93	62.8526	2731.93	62.6696	2731.93	62.4935	2731.93	58.8801	2731.93	61.7953	2731.93	58.4387	2731.93	57.501	2731.93	64.912	2731.93	65.2677	2731.93	66.6412
2828.61	83.8987	2828.61	83.96	2828.61	83.2807	2828.61	82.8893	2828.61	82.6214	2828.61	80.6534	2828.61	79.939	2828.61	77.798	2828.61	77.7156	2828.61	74.8246	2828.61	76.5837	2828.61	71.2368	2828.61	73.553	2828.61	67.9624	2828.61	70.8559	2828.61	65.5792	2828.61	66.1798	2828.61	64.3291	2828.61	67.1046	2828.61	62.0533	2828.61	62.6051	2828.61	61.6828	2828.61	63.1123	2828.61	61.499	2828.61	64.7875	2828.61	59.9586	2828.61	65.3837	2828.61	61.3277	2828.61	61.674	2828.61	60.5171	2828.61	60.4473	2828.61	58.0762	2828.61	57.6874	2828.61	64.4084	2828.61	65.1457	2828.61	67.0002
2928.22	83.4667	2928.22	83.4874	2928.22	82.9198	2928.22	82.7785	2928.22	82.322	2928.22	80.9187	2928.22	80.6033	2928.22	78.2945	2928.22	77.254	2928.22	74.6869	2928.22	76.507	2928.22	71.1781	2928.22	73.6565	2928.22	68.2017	2928.22	70.6336	2928.22	65.3324	2928.22	66.497	2928.22	65.5765	2928.22	65.6019	2928.22	65.934	2928.22	59.9002	2928.22	64.1584	2928.22	64.3398	2928.22	63.1541	2928.22	65.0728	2928.22	60.5177	2928.22	64.6788	2928.22	61.4582	2928.22	60.0266	2928.22	58.8852	2928.22	59.6535	2928.22	57.2695	2928.22	59.4403	2928.22	65.2373	2928.22	65.5875	2928.22	66.8773
3030.76	83.7647	3030.76	83.5875	3030.76	82.9517	3030.76	82.3339	3030.76	81.9868	3030.76	80.5159	3030.76	80.3981	3030.76	78.2049	3030.76	77.489	3030.76	74.6597	3030.76	76.1897	3030.76	71.0168	3030.76	74.216	3030.76	69.1806	3030.76	70.4877	3030.76	67.2946	3030.76	67.9409	3030.76	65.7337	3030.76	67.2021	3030.76	63.1007	3030.76	62.3323	3030.76	63.3003	3030.76	60.7229	3030.76	62.5197	3030.76	66.4523	3030.76	60.7898	3030.76	63.3686	3030.76	60.9245	3030.76	58.3827	3030.76	58.7587	3030.76	58.7301	3030.76	56.9882	3030.76	58.284	3030.76	64.4144	3030.76	64.5966	3030.76	66.7753
3137.7	83.8742	3137.7	83.9289	3137.7	83.4285	3137.7	82.8461	3137.7	82.5281	3137.7	81.0159	3137.7	80.4463	3137.7	78.234	3137.7	77.1918	3137.7	74.7301	3137.7	75.8807	3137.7	71.9211	3137.7	74.267	3137.7	69.1427	3137.7	71.8131	3137.7	67.2462	3137.7	67.5564	3137.7	64.1588	3137.7	66.5672	3137.7	63.9723	3137.7	64.2381	3137.7	63.3539	3137.7	57.287	3137.7	63.0773	3137.7	65.6635	3137.7	62.4034	3137.7	63.3734	3137.7	61.3502	3137.7	58.5254	3137.7	60.3714	3137.7	58.3394	3137.7	57.3172	3137.7	57.5829	3137.7	63.7658	3137.7	64.2473	3137.7	66.6776
3249.02	83.4854	3249.02	83.2209	3249.02	82.8645	3249.02	82.3033	3249.02	82.27	3249.02	80.9289	3249.02	80.9105	3249.02	78.2149	3249.02	77.1144	3249.02	74.783	3249.02	75.2524	3249.02	72.9187	3249.02	73.5099	3249.02	71.1841	3249.02	71.2554	3249.02	68.4847	3249.02	67.0026	3249.02	65.5846	3249.02	65.4165	3249.02	66.1541	3249.02	62.6578	3249.02	61.7695	3249.02	58.7902	3249.02	63.9342	3249.02	65.2172	3249.02	60.9829	3249.02	62.6229	3249.02	62.6868	3249.02	58.9439	3249.02	59.9833	3249.02	57.6519	3249.02	58.4368	3249.02	59.1512	3249.02	64.1378	3249.02	62.9561	3249.02	66.1249
3363.28	84.1875	3363.28	83.8937	3363.28	83.5678	3363.28	82.4751	3363.28	82.4577	3363.28	80.8427	3363.28	80.6844	3363.28	78.0965	3363.28	77.1335	3363.28	75.8362	3363.28	75.3052	3363.28	73.5721	3363.28	73.6827	3363.28	70.2007	3363.28	71.0805	3363.28	67.9839	3363.28	67.1309	3363.28	65.4829	3363.28	63.0692	3363.28	63.4372	3363.28	58.9261	3363.28	60.5863	3363.28	56.0986	3363.28	61.985	3363.28	64.3441	3363.28	60.0207	3363.28	62.42	3363.28	60.9246	3363.28	59.0908	3363.28	59.9275	3363.28	57.1554	3363.28	58.2599	3363.28	59.9687	3363.28	63.6073	3363.28	61.9504	3363.28	64.7165
3481.93	84.0057	3481.93	83.3962	3481.93	83.5387	3481.93	82.5872	3481.93	82.1813	3481.93	80.8262	3481.93	80.8771	3481.93	77.8954	3481.93	77.1194	3481.93	75.8533	3481.93	74.7609	3481.93	73.7506	3481.93	73.9948	3481.93	70.9627	3481.93	71.9937	3481.93	67.7342	3481.93	67.0466	3481.93	64.4616	3481.93	63.769	3481.93	61.2956	3481.93	59.2537	3481.93	61.1764	3481.93	55.3453	3481.93	61.1586	3481.93	59.8508	3481.93	60.4483	3481.93	61.0325	3481.93	60.572	3481.93	57.2571	3481.93	59.4782	3481.93	53.2313	3481.93	58.6332	3481.93	58.9855	3481.93	63.6107	3481.93	60.8082	3481.93	64.9851
3604.98	84.4263	3604.98	83.759	3604.98	83.9365	3604.98	82.3569	3604.98	82.4301	3604.98	80.677	3604.98	80.591	3604.98	78.4212	3604.98	77.5092	3604.98	76.3917	3604.98	74.9889	3604.98	73.3541	3604.98	74.455	3604.98	69.3135	3604.98	72.072	3604.98	66.9191	3604.98	69.1522	3604.98	63.4065	3604.98	64.4906	3604.98	60.9646	3604.98	63.8826	3604.98	59.7419	3604.98	51.463	3604.98	59.0815	3604.98	58.6515	3604.98	59.0381	3604.98	58.4971	3604.98	59.9051	3604.98	55.7792	3604.98	59.6529	3604.98	51.5126	3604.98	58.8505	3604.98	59.1056	3604.98	63.3784	3604.98	59.219	3604.98	64.0285
3732.42	84.2864	3732.42	83.6349	3732.42	83.8634	3732.42	82.6775	3732.42	82.1195	3732.42	80.4676	3732.42	80.742	3732.42	78.29	3732.42	77.4426	3732.42	76.1371	3732.42	74.6587	3732.42	72.8392	3732.42	74.5805	3732.42	71.351	3732.42	72.7917	3732.42	67.7104	3732.42	69.73	3732.42	64.0611	3732.42	66.2732	3732.42	63.8914	3732.42	66.2889	3732.42	60.5216	3732.42	50.5792	3732.42	61.2573	3732.42	62.434	3732.42	59.3993	3732.42	60.6494	3732.42	59.3763	3732.42	56.5413	3732.42	60.2839	3732.42	54.4089	3732.42	58.9886	3732.42	61.3015	3732.42	63.3766	3732.42	58.5672	3732.42	63.5225
3864.26	84.6628	3864.26	84.0169	3864.26	84.4285	3864.26	82.3203	3864.26	82.1609	3864.26	80.0433	3864.26	80.2034	3864.26	78.408	3864.26	77.7532	3864.26	75.4908	3864.26	74.2578	3864.26	73.5398	3864.26	73.7318	3864.26	71.248	3864.26	72.4152	3864.26	68.3949	3864.26	70.7591	3864.26	65.0205	3864.26	67.6554	3864.26	61.8162	3864.26	68.1556	3864.26	59.8439	3864.26	59.7721	3864.26	58.8149	3864.26	61.8917	3864.26	59.2652	3864.26	59.9146	3864.26	58.4171	3864.26	54.8581	3864.26	60.0595	3864.26	54.8461	3864.26	59.7461	3864.26	60.7096	3864.26	63.8221	3864.26	57.7485	3864.26	63.3094
4000.49	84.0424	4000.49	83.8217	4000.49	83.7429	4000.49	82.5098	4000.49	82.3508	4000.49	80.0387	4000.49	79.9123	4000.49	77.5372	4000.49	77.7987	4000.49	75.7495	4000.49	74.5886	4000.49	73.6383	4000.49	74.3697	4000.49	70.537	4000.49	70.8532	4000.49	66.439	4000.49	69.325	4000.49	64.0307	4000.49	67.2144	4000.49	61.8833	4000.49	65.3724	4000.49	56.8326	4000.49	60.7795	4000.49	57.5555	4000.49	62.0009	4000.49	59.8582	4000.49	60.5464	4000.49	58.8041	4000.49	51.1832	4000.49	59.6462	4000.49	52.6237	4000.49	59.8674	4000.49	60.3347	4000.49	63.0834	4000.49	56.564	4000.49	62.3657
4141.11	84.7291	4141.11	84.3051	4141.11	84.3043	4141.11	81.6366	4141.11	81.9254	4141.11	79.7468	4141.11	79.7494	4141.11	77.3824	4141.11	77.5324	4141.11	75.2783	4141.11	73.732	4141.11	72.8056	4141.11	74.2972	4141.11	69.1885	4141.11	71.7334	4141.11	67.2733	4141.11	67.1516	4141.11	64.1227	4141.11	65.7173	4141.11	59.4463	4141.11	63.3292	4141.11	59.1436	4141.11	57.2085	4141.11	57.4981	4141.11	60.8814	4141.11	55.4689	4141.11	57.1777	4141.11	55.5413	4141.11	52.9527	4141.11	57.5729	4141.11	55.9806	4141.11	60.3889	4141.11	59.5777	4141.11	63.3805	4141.11	58.7027	4141.11	62.3296
4287.6	84.1097	4287.6	83.4618	4287.6	83.6779	4287.6	82.1484	4287.6	82.4554	4287.6	79.8349	4287.6	79.3542	4287.6	76.74	4287.6	77.6552	4287.6	74.8639	4287.6	73.4665	4287.6	71.9386	4287.6	72.8183	4287.6	69.5402	4287.6	70.9156	4287.6	65.7787	4287.6	67.6995	4287.6	64.3211	4287.6	62.9218	4287.6	60.9375	4287.6	65.2421	4287.6	58.6244	4287.6	55.657	4287.6	57.6618	4287.6	55.0341	4287.6	59.371	4287.6	55.6712	4287.6	57.6185	4287.6	51.7044	4287.6	59.0212	4287.6	53.3689	4287.6	60.2677	4287.6	59.647	4287.6	62.6509	4287.6	57.8342	4287.6	62.2333
4438.48	84.7197	4438.48	83.8857	4438.48	83.667	4438.48	82.0466	4438.48	82.1144	4438.48	79.1128	4438.48	78.9405	4438.48	76.8473	4438.48	77.5372	4438.48	73.6165	4438.48	72.7196	4438.48	72.3155	4438.48	73.1044	4438.48	69.9198	4438.48	69.8379	4438.48	68.1243	4438.48	66.8363	4438.48	64.0904	4438.48	58.1819	4438.48	59.1615	4438.48	58.5399	4438.48	59.9967	4438.48	55.4816	4438.48	57.7378	4438.48	56.4158	4438.48	56.7647	4438.48	57.056	4438.48	55.3579	4438.48	53.0009	4438.48	58.2327	4438.48	55.4432	4438.48	60.4086	4438.48	59.2307	4438.48	63.1709	4438.48	57.934	4438.48	62.0987
4595.21	84.7248	4595.21	83.2047	4595.21	83.617	4595.21	81.7622	4595.21	81.9767	4595.21	79.4199	4595.21	78.7016	4595.21	76.0475	4595.21	77.2477	4595.21	73.4883	4595.21	73.2356	4595.21	72.2248	4595.21	72.0788	4595.21	70.545	4595.21	70.4693	4595.21	67.0725	4595.21	67.8142	4595.21	64.5695	4595.21	61.5383	4595.21	61.8451	4595.21	62.9914	4595.21	59.409	4595.21	59.9024	4595.21	58.6311	4595.21	57.7283	4595.21	59.9897	4595.21	50.8934	4595.21	56.1794	4595.21	50.2986	4595.21	59.1208	4595.21	53.8511	4595.21	60.8137	4595.21	56.9744	4595.21	62.8422	4595.21	57.2904	4595.21	61.6105
4756.35	84.9094	4756.35	83.7142	4756.35	83.7122	4756.35	82.0801	4756.35	82.1567	4756.35	78.7672	4756.35	78.4019	4756.35	76.031	4756.35	77.5028	4756.35	72.8742	4756.35	72.2911	4756.35	72.2052	4756.35	71.5356	4756.35	70.1066	4756.35	70.8213	4756.35	67.2672	4756.35	68.644	4756.35	63.837	4756.35	63.8393	4756.35	58.3719	4756.35	62.2799	4756.35	58.6076	4756.35	59.6858	4756.35	57.3689	4756.35	60.6257	4756.35	57.3328	4756.35	53.9657	4756.35	54.6517	4756.35	43.8946	4756.35	58.2323	4756.35	54.9519	4756.35	59.7431	4756.35	58.0671	4756.35	62.0632	4756.35	56.6987	4756.35	60.3824
4924.8	85.2575	4924.8	84.0092	4924.8	84.241	4924.8	81.5952	4924.8	81.7826	4924.8	78.8939	4924.8	78.7315	4924.8	75.545	4924.8	77.0998	4924.8	73.1616	4924.8	73.1472	4924.8	72.0985	4924.8	70.8143	4924.8	70.1284	4924.8	71.8178	4924.8	68.5492	4924.8	68.2476	4924.8	65.6234	4924.8	64.4938	4924.8	62.0116	4924.8	68.0629	4924.8	60.2516	4924.8	57.3856	4924.8	58.9441	4924.8	59.062	4924.8	59.21	4924.8	55.8019	4924.8	57.1772	4924.8	47.0487	4924.8	58.568	4924.8	55.4216	4924.8	59.7761	4924.8	56.9589	4924.8	62.1874	4924.8	54.8174	4924.8	61.0449
5097.66	85.5179	5097.66	84.5731	5097.66	84.4118	5097.66	81.4677	5097.66	81.9826	5097.66	78.784	5097.66	78.3444	5097.66	75.3508	5097.66	77.4796	5097.66	73.1148	5097.66	71.5957	5097.66	71.8978	5097.66	71.5632	5097.66	71.4505	5097.66	73.204	5097.66	69.4154	5097.66	71.0225	5097.66	66.0057	5097.66	63.6907	5097.66	62.0735	5097.66	67.5372	5097.66	60.2514	5097.66	59.1345	5097.66	60.4527	5097.66	58.8789	5097.66	59.7079	5097.66	56.5961	5097.66	58.142	5097.66	44.2137	5097.66	59.744	5097.66	55.0187	5097.66	60.6578	5097.66	54.721	5097.66	61.4895	5097.66	53.9829	5097.66	59.1642
5277.83	86.0399	5277.83	85.2325	5277.83	85.0631	5277.83	81.2441	5277.83	81.9979	5277.83	78.2799	5277.83	78.1084	5277.83	75.4093	5277.83	77.1215	5277.83	72.824	5277.83	73.0021	5277.83	73.3741	5277.83	71.0508	5277.83	72.3972	5277.83	74.3206	5277.83	69.9477	5277.83	71.7664	5277.83	66.1071	5277.83	66.9478	5277.83	63.8246	5277.83	68.5433	5277.83	60.3112	5277.83	60.5695	5277.83	58.9277	5277.83	58.4436	5277.83	59.7699	5277.83	58.4698	5277.83	57.0456	5277.83	45.3261	5277.83	62.0046	5277.83	52.5724	5277.83	60.2524	5277.83	51.9754	5277.83	61.3859	5277.83	57.7235	5277.83	58.4563
5463.87	86.4316	5463.87	85.2586	5463.87	85.0617	5463.87	80.9421	5463.87	81.7014	5463.87	77.7671	5463.87	77.9498	5463.87	75.0126	5463.87	76.4553	5463.87	73.9393	5463.87	74.3555	5463.87	73.9997	5463.87	71.0877	5463.87	72.295	5463.87	74.7119	5463.87	70.3446	5463.87	72.3127	5463.87	66.2516	5463.87	67.2344	5463.87	63.831	5463.87	67.0794	5463.87	59.5002	5463.87	58.8821	5463.87	59.8971	5463.87	57.4748	5463.87	59.6286	5463.87	57.7009	5463.87	58.2619	5463.87	39.4912	5463.87	62.4852	5463.87	53.7072	5463.87	60.6435	5463.87	52.5956	5463.87	60.873	5463.87	55.793	5463.87	58.6517
5657.23	86.2578	5657.23	85.1918	5657.23	85.2046	5657.23	81.0994	5657.23	81.4117	5657.23	76.1118	5657.23	77.4909	5657.23	74.9643	5657.23	74.5557	5657.23	75.288	5657.23	76.1635	5657.23	73.8636	5657.23	71.0932	5657.23	72.7302	5657.23	74.5965	5657.23	70.2328	5657.23	71.994	5657.23	67.2625	5657.23	66.7356	5657.23	63.2749	5657.23	68.5887	5657.23	61.1758	5657.23	61.485	5657.23	60.5487	5657.23	51.1648	5657.23	58.8782	5657.23	53.0915	5657.23	57.6816	5657.23	47.0668	5657.23	61.8783	5657.23	55.2594	5657.23	60.5606	5657.23	47.0922	5657.23	60.3041	5657.23	55.7506	5657.23	56.9083
5856.45	86.1786	5856.45	85.4855	5856.45	85.2819	5856.45	80.6988	5856.45	80.7347	5856.45	74.7781	5856.45	76.5793	5856.45	75.3461	5856.45	72.7938	5856.45	75.5699	5856.45	76.8605	5856.45	74.4922	5856.45	71.5567	5856.45	73.0046	5856.45	73.9402	5856.45	70.8748	5856.45	71.6494	5856.45	68.1498	5856.45	63.9955	5856.45	64.9736	5856.45	64.4744	5856.45	61.4282	5856.45	60.1487	5856.45	60.6318	5856.45	40.6158	5856.45	58.9863	5856.45	50.6126	5856.45	57.305	5856.45	46.3796	5856.45	61.5827	5856.45	52.7725	5856.45	60.4399	5856.45	42.7546	5856.45	60.0399	5856.45	57.3314	5856.45	57.5873
6062.99	85.8523	6062.99	85.0956	6062.99	84.6274	6062.99	80.1234	6062.99	80.9887	6062.99	74.6197	6062.99	75.633	6062.99	74.2734	6062.99	72.6214	6062.99	76.1712	6062.99	77.5562	6062.99	74.7214	6062.99	71.8984	6062.99	73.2031	6062.99	72.2667	6062.99	69.9895	6062.99	69.9362	6062.99	66.2253	6062.99	66.0163	6062.99	63.9493	6062.99	64.7378	6062.99	58.4332	6062.99	58.2061	6062.99	59.059	6062.99	42.3189	6062.99	56.9594	6062.99	38.2736	6062.99	56.5525	6062.99	48.5138	6062.99	60.5115	6062.99	52.6563	6062.99	60.1569	6062.99	51.4374	6062.99	59.4643	6062.99	56.2049	6062.99	56.8013
6276.86	85.4822	6276.86	84.6086	6276.86	84.4401	6276.86	79.989	6276.86	80.6309	6276.86	74.9056	6276.86	75.9389	6276.86	74.1314	6276.86	73.862	6276.86	76.5296	6276.86	77.4043	6276.86	74.9304	6276.86	72.2841	6276.86	72.0798	6276.86	71.6807	6276.86	66.9773	6276.86	69.8574	6276.86	64.0975	6276.86	60.8839	6276.86	61.6534	6276.86	66.4563	6276.86	58.8547	6276.86	56.2622	6276.86	56.3878	6276.86	53.8624	6276.86	54.3404	6276.86	46.1089	6276.86	53.9879	6276.86	48.2118	6276.86	58.5495	6276.86	52.8981	6276.86	57.4756	6276.86	46.4817	6276.86	57.2821	6276.86	55.1129	6276.86	55.9879
6498.05	85.3241	6498.05	84.011	6498.05	83.9532	6498.05	80.374	6498.05	80.6841	6498.05	75.4206	6498.05	76.7726	6498.05	75.3435	6498.05	75.3771	6498.05	76.49	6498.05	77.0308	6498.05	74.2199	6498.05	72.3204	6498.05	70.7003	6498.05	70.4591	6498.05	66.9785	6498.05	70.8132	6498.05	65.1617	6498.05	64.0643	6498.05	61.5195	6498.05	63.1751	6498.05	58.4269	6498.05	52.1761	6498.05	56.1684	6498.05	50.3796	6498.05	53.9485	6498.05	51.9153	6498.05	54.6984	6498.05	39.6976	6498.05	54.0662	6498.05	49.3823	6498.05	55.5944	6498.05	45.5647	6498.05	54.5921	6498.05	54.2645	6498.05	53.1002
6726.56	85.2884	6726.56	83.794	6726.56	83.9908	6726.56	80.728	6726.56	81.038	6726.56	76.6757	6726.56	77.8163	6726.56	76.3695	6726.56	76.4022	6726.56	76.1554	6726.56	77.4004	6726.56	73.3874	6726.56	69.6908	6726.56	69.7832	6726.56	71.1457	6726.56	66.0407	6726.56	69.6667	6726.56	61.7338	6726.56	64.9862	6726.56	60.9046	6726.56	63.3702	6726.56	56.0107	6726.56	58.0024	6726.56	55.1927	6726.56	55.4725	6726.56	55.8228	6726.56	50.7821	6726.56	55.0165	6726.56	41.1313	6726.56	47.5288	6726.56	39.641	6726.56	51.7982	6726.56	46.4692	6726.56	53.0429	6726.56	54.0097	6726.56	52.8373
6963.87	85.7479	6963.87	84.3642	6963.87	84.5393	6963.87	81.1328	6963.87	81.5607	6963.87	77.9273	6963.87	78.5132	6963.87	76.4217	6963.87	77.1683	6963.87	75.9	6963.87	76.9366	6963.87	72.264	6963.87	67.8988	6963.87	67.9754	6963.87	70.8083	6963.87	66.5963	6963.87	68.4332	6963.87	65.3309	6963.87	64.8844	6963.87	62.2036	6963.87	66.7866	6963.87	57.8163	6963.87	62.249	6963.87	56.9995	6963.87	57.022	6963.87	57.2502	6963.87	49.9836	6963.87	57.1355	6963.87	46.2709	6963.87	50.9213	6963.87	46.4924	6963.87	44.9253	6963.87	48.7436	6963.87	45.5065	6963.87	48.9819	6963.87	53.3346
7209.96	86.1208	7209.96	84.762	7209.96	84.8597	7209.96	81.9502	7209.96	82.2273	7209.96	77.8401	7209.96	78.5804	7209.96	76.0118	7209.96	76.6903	7209.96	74.7403	7209.96	75.5435	7209.96	72.4333	7209.96	70.8896	7209.96	70.756	7209.96	71.2557	7209.96	69.5666	7209.96	70.3634	7209.96	67.8193	7209.96	67.8354	7209.96	64.8815	7209.96	67.9187	7209.96	59.5695	7209.96	62.5386	7209.96	58.6007	7209.96	57.3257	7209.96	59.4518	7209.96	44.7692	7209.96	58.3279	7209.96	52.5286	7209.96	54.299	7209.96	49.1963	7209.96	51.3419	7209.96	45.3552	7209.96	57.29	7209.96	54.0021	7209.96	55.4256
7464.84	86.0008	7464.84	84.4529	7464.84	84.5402	7464.84	82.2542	7464.84	82.4902	7464.84	77.1323	7464.84	78.0987	7464.84	74.578	7464.84	74.7494	7464.84	73.2737	7464.84	74.3528	7464.84	73.5864	7464.84	73.0179	7464.84	72.8855	7464.84	71.9128	7464.84	70.1065	7464.84	69.4732	7464.84	66.7066	7464.84	66.0505	7464.84	65.3846	7464.84	67.1358	7464.84	59.8914	7464.84	61.5672	7464.84	58.5293	7464.84	48.0778	7464.84	58.1679	7464.84	55.983	7464.84	58.8065	7464.84	47.3217	7464.84	54.0714	7464.84	30.9938	7464.84	52.7072	7464.84	47.157	7464.84	57.8294	7464.84	50.1563	7464.84	56.3239
7727.05	85.5528	7727.05	84.2732	7727.05	84.5801	7727.05	81.9679	7727.05	82.0899	7727.05	77.0088	7727.05	77.6924	7727.05	72.3332	7727.05	73.3554	7727.05	71.8858	7727.05	72.7289	7727.05	73.9527	7727.05	73.7538	7727.05	72.1774	7727.05	71.9272	7727.05	68.6251	7727.05	69.4256	7727.05	66.1926	7727.05	64.619	7727.05	63.0189	7727.05	62.7819	7727.05	58.2011	7727.05	61.1009	7727.05	57.2732	7727.05	48.1537	7727.05	55.9933	7727.05	49.8757	7727.05	55.7178	7727.05	51.7618	7727.05	50.5245	7727.05	45.8888	7727.05	52.007	7727.05	49.2442	7727.05	58.0507	7727.05	52.3448	7727.05	53.7043
7999.51	84.971	7999.51	84.2357	7999.51	84.5498	7999.51	81.9118	7999.51	82.2513	7999.51	76.6735	7999.51	77.82	7999.51	72.1067	7999.51	72.825	7999.51	71.3636	7999.51	71.8897	7999.51	73.3442	7999.51	73.0782	7999.51	71.3676	7999.51	70.1563	7999.51	67.2491	7999.51	69.1245	7999.51	63.3278	7999.51	66.7158	7999.51	61.0135	7999.51	55.1063	7999.51	57.1426	7999.51	60.8917	7999.51	53.1819	7999.51	48.9379	7999.51	53.4718	7999.51	52.46	7999.51	52.8591	7999.51	53.2724	7999.51	41.4037	7999.51	45.4412	7999.51	49.2685	7999.51	50.6442	7999.51	56.8147	7999.51	51.2448	7999.51	54.2771
8282.23	84.8519	8282.23	83.956	8282.23	84.1556	8282.23	82.1424	8282.23	82.3686	8282.23	76.078	8282.23	77.6192	8282.23	71.0932	8282.23	72.1538	8282.23	72.1389	8282.23	72.6129	8282.23	72.7293	8282.23	71.3981	8282.23	69.3832	8282.23	69.0547	8282.23	65.2925	8282.23	66.7475	8282.23	60.9325	8282.23	63.3728	8282.23	56.9283	8282.23	60.6585	8282.23	57.7131	8282.23	58.1564	8282.23	51.4342	8282.23	51.0981	8282.23	51.3476	8282.23	49.0045	8282.23	50.8224	8282.23	49.2158	8282.23	40.2442	8282.23	40.5225	8282.23	41.3002	8282.23	49.3086	8282.23	55.4747	8282.23	50.596	8282.23	52.8669
8573.73	85.1794	8573.73	84.0771	8573.73	84.3682	8573.73	81.9821	8573.73	82.345	8573.73	75.9037	8573.73	76.9257	8573.73	69.8225	8573.73	72.2914	8573.73	72.5527	8573.73	72.6613	8573.73	72.1972	8573.73	70.5818	8573.73	67.5891	8573.73	67.4714	8573.73	63.2249	8573.73	66.1293	8573.73	60.5595	8573.73	62.2064	8573.73	53.7776	8573.73	59.1559	8573.73	57.7035	8573.73	55.6385	8573.73	53.8016	8573.73	53.6223	8573.73	52.025	8573.73	36.7822	8573.73	51.6824	8573.73	51.8426	8573.73	44.9167	8573.73	35.846	8573.73	30.6519	8573.73	51.9732	8573.73	53.8106	8573.73	50.6033	8573.73	53.0387
8876.95	85.7883	8876.95	84.6162	8876.95	84.8669	8876.95	81.8148	8876.95	82.3881	8876.95	75.1035	8876.95	76.5058	8876.95	71.763	8876.95	73.0542	8876.95	72.9492	8876.95	72.9902	8876.95	72.1608	8876.95	70.9858	8876.95	68.0029	8876.95	64.3893	8876.95	63.384	8876.95	64.8251	8876.95	62.4349	8876.95	60.8435	8876.95	55.4419	8876.95	59.3835	8876.95	58.3602	8876.95	59.6933	8876.95	55.6658	8876.95	52.2528	8876.95	54.6391	8876.95	31.0252	8876.95	54.8294	8876.95	51.6799	8876.95	49.7702	8876.95	44.5312	8876.95	41.4994	8876.95	47.8777	8876.95	51.335	8876.95	49.8435	8876.95	51.7838
9188.96	86.5622	9188.96	85.1806	9188.96	85.7007	9188.96	82.1104	9188.96	82.4642	9188.96	75.0788	9188.96	76.7282	9188.96	73.8177	9188.96	75.1447	9188.96	73.9568	9188.96	73.0999	9188.96	72.5031	9188.96	71.8499	9188.96	70.4449	9188.96	63.8128	9188.96	66.6732	9188.96	66.733	9188.96	64.9362	9188.96	66.3588	9188.96	59.6279	9188.96	60.2974	9188.96	60.9526	9188.96	61.2029	9188.96	57.8108	9188.96	53.7845	9188.96	56.9528	9188.96	36.4567	9188.96	57.2214	9188.96	49.3827	9188.96	52.334	9188.96	40.8446	9188.96	49.2029	9188.96	48.1237	9188.96	52.1681	9188.96	49.8447	9188.96	50.3275
9514.16	86.7319	9514.16	85.4534	9514.16	85.9899	9514.16	81.9378	9514.16	82.2966	9514.16	77.4913	9514.16	77.7043	9514.16	74.1175	9514.16	75.4749	9514.16	72.3868	9514.16	72.1192	9514.16	72.7568	9514.16	73.0248	9514.16	72.5467	9514.16	64.2718	9514.16	69.2168	9514.16	70.0897	9514.16	65.8713	9514.16	66.5329	9514.16	60.9773	9514.16	65.1878	9514.16	61.9748	9514.16	63.5387	9514.16	58.1288	9514.16	48.6764	9514.16	57.1043	9514.16	40.3053	9514.16	57.3369	9514.16	41.8202	9514.16	52.7874	9514.16	42.7974	9514.16	50.4934	9514.16	42.7084	9514.16	55.4067	9514.16	48.9272	9514.16	50.355
9849.61	86.7407	9849.61	85.9446	9849.61	86.1854	9849.61	82.0833	9849.61	82.1622	9849.61	77.8906	9849.61	77.5628	9849.61	72.3158	9849.61	72.9324	9849.61	70.2073	9849.61	70.6899	9849.61	71.653	9849.61	72.9362	9849.61	71.9328	9849.61	64.2933	9849.61	67.7345	9849.61	68.5211	9849.61	64.5139	9849.61	65.9317	9849.61	58.2444	9849.61	65.5101	9849.61	60.1299	9849.61	66.043	9849.61	54.83	9849.61	51.1802	9849.61	53.8246	9849.61	46.1641	9849.61	54.2562	9849.61	46.5744	9849.61	51.058	9849.61	45.8616	9849.61	47.5829	9849.61	49.6001	9849.61	52.9776	9849.61	45.483	9849.61	47.0184
10196.8	87.8019	10196.8	86.4901	10196.8	86.6301	10196.8	82.4254	10196.8	82.4546	10196.8	77.9403	10196.8	77.3758	10196.8	73.4919	10196.8	72.0991	10196.8	71.7165	10196.8	71.3156	10196.8	71.8523	10196.8	73.0932	10196.8	70.9629	10196.8	64.9987	10196.8	66.405	10196.8	66.422	10196.8	62.6153	10196.8	64.105	10196.8	56.2357	10196.8	63.9869	10196.8	57.9728	10196.8	62.8865	10196.8	51.4661	10196.8	54.7369	10196.8	49.6699	10196.8	44.7284	10196.8	51.4884	10196.8	35.3247	10196.8	48.7693	10196.8	39.7807	10196.8	46.6525	10196.8	40.633	10196.8	52.1633	10196.8	44.2566	10196.8	44.9658
10555.7	88.5568	10555.7	87.239	10555.7	87.24	10555.7	82.2544	10555.7	82.5307	10555.7	78.3897	10555.7	78.6966	10555.7	74.9904	10555.7	74.0041	10555.7	74.2458	10555.7	73.0627	10555.7	72.2953	10555.7	72.7787	10555.7	70.0944	10555.7	64.7957	10555.7	64.0576	10555.7	65.096	10555.7	61.0384	10555.7	63.4312	10555.7	55.9972	10555.7	59.6551	10555.7	56.4444	10555.7	61.7665	10555.7	48.5699	10555.7	46.2583	10555.7	49.5265	10555.7	41.4358	10555.7	50.3685	10555.7	42.7811	10555.7	47.1228	10555.7	34.489	10555.7	42.7265	10555.7	43.7372	10555.7	52.0776	10555.7	47.359	10555.7	41.7991
10927.7	88.6769	10927.7	87.0889	10927.7	87.1766	10927.7	82.2613	10927.7	82.5137	10927.7	79.0064	10927.7	79.4185	10927.7	76.54	10927.7	76.2696	10927.7	74.8037	10927.7	73.6399	10927.7	73.0713	10927.7	72.7719	10927.7	69.5783	10927.7	63.8809	10927.7	63.8805	10927.7	64.9314	10927.7	60.3522	10927.7	61.7436	10927.7	58.6753	10927.7	59.0813	10927.7	56.823	10927.7	59.5571	10927.7	48.6732	10927.7	43.2253	10927.7	50.3795	10927.7	40.9317	10927.7	50.9986	10927.7	42.5679	10927.7	46.3849	10927.7	39.6408	10927.7	40.5804	10927.7	37.8177	10927.7	51.9053	10927.7	47.9759	10927.7	40.7992
11313	88.5557	11313	86.5282	11313	86.5116	11313	81.6691	11313	81.6797	11313	79.4874	11313	79.9506	11313	77.5237	11313	77.1111	11313	75.2332	11313	74.1032	11313	73.0549	11313	72.3874	11313	69.5559	11313	64.9705	11313	65.3712	11313	66.2999	11313	63.0865	11313	61.2718	11313	59.7162	11313	58.1881	11313	57.914	11313	58.9664	11313	51.5872	11313	39.0601	11313	52.7493	11313	40.8652	11313	52.8967	11313	45.0603	11313	46.9725	11313	43.9875	11313	35.2227	11313	45.4437	11313	53.0097	11313	46.7126	11313	40.4649
11712.9	88.1309	11712.9	86.3144	11712.9	86.3317	11712.9	82.0623	11712.9	82.0153	11712.9	79.9532	11712.9	80.1723	11712.9	77.5	11712.9	77.913	11712.9	74.1491	11712.9	73.7043	11712.9	72.3344	11712.9	70.3499	11712.9	70.9686	11712.9	66.3264	11712.9	66.8819	11712.9	68.762	11712.9	63.0606	11712.9	64.2308	11712.9	61.035	11712.9	56.2642	11712.9	58.1587	11712.9	59.885	11712.9	50.8545	11712.9	50.6689	11712.9	52.9763	11712.9	41.8763	11712.9	52.47	11712.9	47.4721	11712.9	49.6388	11712.9	47.4073	11712.9	47.9234	11712.9	43.7906	11712.9	53.6333	11712.9	44.0658	11712.9	40.6808
12126	87.7684	12126	85.7384	12126	85.6821	12126	81.8284	12126	81.8262	12126	79.7317	12126	79.7337	12126	76.6882	12126	77.6359	12126	72.5982	12126	72.3006	12126	72.8677	12126	71.5411	12126	72.1529	12126	69.1548	12126	67.936	12126	68.7661	12126	63.5358	12126	63.2938	12126	59.9256	12126	58.0729	12126	57.6843	12126	61.8605	12126	52.7104	12126	45.8862	12126	51.8744	12126	47.118	12126	48.6453	12126	44.6677	12126	50.1305	12126	36.7258	12126	51.0245	12126	41.6098	12126	53.4688	12126	39.7927	12126	27.0719
12553.7	87.4049	12553.7	85.2721	12553.7	85.6985	12553.7	81.7506	12553.7	81.5553	12553.7	79.7087	12553.7	79.5883	12553.7	76.1628	12553.7	76.8151	12553.7	72.6793	12553.7	74.4462	12553.7	73.8152	12553.7	72.6533	12553.7	71.113	12553.7	67.8432	12553.7	65.5609	12553.7	65.2557	12553.7	60.5305	12553.7	58.1939	12553.7	58.4236	12553.7	58.7813	12553.7	55.5439	12553.7	59.9536	12553.7	48.9754	12553.7	43.4576	12553.7	50.9024	12553.7	38.7787	12553.7	45.6189	12553.7	49.7199	12553.7	50.1289	12553.7	35.5416	12553.7	51.8169	12553.7	44.3768	12553.7	53.5842	12553.7	36.5745	12553.7	27.9961
12996.1	87.0739	12996.1	85.0415	12996.1	85.536	12996.1	82.0193	12996.1	81.8533	12996.1	79.658	12996.1	79.3333	12996.1	76.442	12996.1	76.8118	12996.1	74.2805	12996.1	75.428	12996.1	71.9632	12996.1	69.416	12996.1	66.5626	12996.1	64.0729	12996.1	63.7302	12996.1	60.2838	12996.1	55.923	12996.1	51.9344	12996.1	55.7111	12996.1	60.702	12996.1	50.9093	12996.1	62.5864	12996.1	46.767	12996.1	50.8684	12996.1	47.0105	12996.1	36.2275	12996.1	42.3207	12996.1	45.8786	12996.1	50.4954	12996.1	40.196	12996.1	50.5195	12996.1	41.8187	12996.1	51.3242	12996.1	37.7818	12996.1	40.0917
13454.6	86.3025	13454.6	84.8503	13454.6	85.1971	13454.6	82.603	13454.6	82.4557	13454.6	79.2173	13454.6	79.2033	13454.6	76.4181	13454.6	76.2993	13454.6	73.4681	13454.6	74.3654	13454.6	69.7726	13454.6	67.9164	13454.6	67.6979	13454.6	65.1533	13454.6	64.5234	13454.6	61.1086	13454.6	56.5922	13454.6	50.2143	13454.6	55.2372	13454.6	62.2421	13454.6	51.287	13454.6	62.3923	13454.6	41.9212	13454.6	49.2119	13454.6	43.48	13454.6	32.7942	13454.6	44.4029	13454.6	46.5636	13454.6	50.4257	13454.6	43.4829	13454.6	49.9424	13454.6	45.5188	13454.6	50.9759	13454.6	33.6982	13454.6	42.6388
13929.2	85.5145	13929.2	84.5401	13929.2	84.9056	13929.2	82.1639	13929.2	82.14	13929.2	79.3117	13929.2	79.0815	13929.2	76.379	13929.2	76.1945	13929.2	72.5947	13929.2	73.6614	13929.2	71.2633	13929.2	68.7088	13929.2	68.0617	13929.2	66.4749	13929.2	62.921	13929.2	59.036	13929.2	56.5503	13929.2	57.2998	13929.2	54.294	13929.2	61.8067	13929.2	49.4453	13929.2	59.332	13929.2	43.9459	13929.2	53.9732	13929.2	43.181	13929.2	32.1739	13929.2	44.6673	13929.2	51.3001	13929.2	50.9949	13929.2	44.5774	13929.2	47.594	13929.2	46.0766	13929.2	49.3354	13929.2	29.6041	13929.2	47.2692
14419.9	85.2708	14419.9	84.2778	14419.9	84.7335	14419.9	82.1437	14419.9	82.199	14419.9	79.8517	14419.9	79.3029	14419.9	76.7478	14419.9	76.5267	14419.9	72.5266	14419.9	73.1704	14419.9	71.5252	14419.9	69.0111	14419.9	66.6149	14419.9	65.7015	14419.9	61.7789	14419.9	58.5318	14419.9	54.0182	14419.9	54.9159	14419.9	52.6802	14419.9	57.8851	14419.9	44.6455	14419.9	52.5536	14419.9	44.8422	14419.9	50.0194	14419.9	43.9985	14419.9	42.1461	14419.9	43.4762	14419.9	48.6681	14419.9	50.646	14419.9	44.7591	14419.9	46.4128	14419.9	43.0532	14419.9	47.5746	14419.9	36.1758	14419.9	43.1967
14928.2	85.0761	14928.2	83.9248	14928.2	84.2421	14928.2	81.5107	14928.2	81.9863	14928.2	79.5528	14928.2	78.8948	14928.2	76.0119	14928.2	76.1246	14928.2	72.4223	14928.2	73.2308	14928.2	69.9272	14928.2	68.3693	14928.2	64.6055	14928.2	64.3922	14928.2	60.3954	14928.2	52.6815	14928.2	49.4611	14928.2	48.3943	14928.2	51.4564	14928.2	53.5024	14928.2	43.5913	14928.2	39.0734	14928.2	47.0111	14928.2	44.1005	14928.2	46.2571	14928.2	41.5596	14928.2	41.7422	14928.2	50.8278	14928.2	49.8991	14928.2	43.7338	14928.2	43.7829	14928.2	41.1834	14928.2	46.12	14928.2	30.745	14928.2	42.5899
15455.6	84.6953	15455.6	83.3204	15455.6	83.6757	15455.6	81.169	15455.6	81.6648	15455.6	78.6557	15455.6	78.0895	15455.6	74.3192	15455.6	75.2998	15455.6	71.3044	15455.6	72.535	15455.6	68.2338	15455.6	67.0755	15455.6	61.5686	15455.6	64.2948	15455.6	58.371	15455.6	49.6872	15455.6	51.9821	15455.6	53.489	15455.6	46.9963	15455.6	56.8867	15455.6	45.5829	15455.6	48.0227	15455.6	48.3815	15455.6	40.6163	15455.6	44.9078	15455.6	40.0482	15455.6	37.7603	15455.6	46.3417	15455.6	46.7329	15455.6	43.3057	15455.6	43.6044	15455.6	39.0866	15455.6	46.7627	15455.6	10.4311	15455.6	39.7832
16000.5	84.0986	16000.5	82.5543	16000.5	82.8437	16000.5	80.7029	16000.5	81.1983	16000.5	77.9044	16000.5	77.5205	16000.5	73.9734	16000.5	75.151	16000.5	68.9337	16000.5	70.1667	16000.5	64.9663	16000.5	65.7611	16000.5	61.4689	16000.5	63.7045	16000.5	59.061	16000.5	51.6742	16000.5	51.1945	16000.5	55.4809	16000.5	47.0925	16000.5	53.5009	16000.5	46.1688	16000.5	48.1059	16000.5	44.7665	16000.5	39.2803	16000.5	41.8815	16000.5	42.0052	16000.5	34.3852	16000.5	45.852	16000.5	45.8926	16000.5	44.4821	16000.5	40.0699	16000.5	42.2984	16000.5	43.7386	16000.5	28.9823	16000.5	45.9476
16564.5	83.5343	16564.5	81.6607	16564.5	81.9638	16564.5	79.7771	16564.5	80.3067	16564.5	76.8976	16564.5	76.7475	16564.5	72.5103	16564.5	74.1869	16564.5	66.8652	16564.5	67.3303	16564.5	64.0811	16564.5	64.7517	16564.5	59.555	16564.5	61.7574	16564.5	55.3355	16564.5	47.5311	16564.5	43.9156	16564.5	49.1182	16564.5	42.098	16564.5	53.4373	16564.5	35.548	16564.5	48.1478	16564.5	41.411	16564.5	40.0907	16564.5	40.5625	16564.5	31.7281	16564.5	25.3604	16564.5	45.348	16564.5	41.4913	16564.5	40.516	16564.5	31.6344	16564.5	43.6806	16564.5	39.5515	16564.5	16.752	16564.5	43.1886
17148.9	82.6779	17148.9	80.8741	17148.9	81.1536	17148.9	79.1204	17148.9	79.6424	17148.9	76.0468	17148.9	76.2091	17148.9	70.815	17148.9	72.9497	17148.9	65.7114	17148.9	66.1045	17148.9	63.7458	17148.9	64.1733	17148.9	55.5068	17148.9	59.5642	17148.9	51.9797	17148.9	49.3327	17148.9	44.6596	17148.9	44.5263	17148.9	38.7084	17148.9	50.5962	17148.9	25.057	17148.9	47.3418	17148.9	42.4751	17148.9	40.7415	17148.9	41.0662	17148.9	33.7269	17148.9	21.557	17148.9	43.389	17148.9	43.1238	17148.9	39.5634	17148.9	34.7352	17148.9	40.1009	17148.9	37.7882	17148.9	27.9891	17148.9	41.0343
17752.4	81.8146	17752.4	79.9711	17752.4	80.2121	17752.4	77.5745	17752.4	78.1676	17752.4	75.0131	17752.4	75.5344	17752.4	69.6854	17752.4	72.0182	17752.4	65.2767	17752.4	66.0078	17752.4	62.2963	17752.4	62.7458	17752.4	53.3423	17752.4	55.9942	17752.4	50.3287	17752.4	53.6405	17752.4	46.567	17752.4	45.2511	17752.4	37.1372	17752.4	43.1892	17752.4	23.6756	17752.4	47.7155	17752.4	41.7915	17752.4	38.7492	17752.4	39.1429	17752.4	28.1678	17752.4	25.2247	17752.4	44.6251	17752.4	41.3739	17752.4	40.9169	17752.4	25.7575	17752.4	40.6683	17752.4	38.0331	17752.4	27.3497	17752.4	38.2896
18379.4	81.2963	18379.4	78.97	18379.4	79.0379	18379.4	76.7696	18379.4	77.435	18379.4	74.7785	18379.4	75.5523	18379.4	69.1047	18379.4	71.259	18379.4	64.3657	18379.4	64.2427	18379.4	58.1831	18379.4	59.7805	18379.4	51.3842	18379.4	55.0281	18379.4	47.7455	18379.4	52.0071	18379.4	42.9213	18379.4	45.3071	18379.4	28.4008	18379.4	28.7458	18379.4	24.4329	18379.4	44.7569	18379.4	39.3464	18379.4	40.9572	18379.4	33.116	18379.4	33.2864	18379.4	29.6522	18379.4	43.9511	18379.4	40.4225	18379.4	40.1835	18379.4	29.2191	18379.4	34.7366	18379.4	36.1838	18379.4	23.1401	18379.4	36.956
19026.9	80.3387	19026.9	77.4126	19026.9	77.1536	19026.9	76.4937	19026.9	76.8812	19026.9	74.2626	19026.9	74.8777	19026.9	67.7964	19026.9	69.9812	19026.9	61.3271	19026.9	60.2364	19026.9	53.4279	19026.9	54.7318	19026.9	43.4695	19026.9	51.6117	19026.9	28.6553	19026.9	46.4561	19026.9	32.9205	19026.9	41.0682	19026.9	31.8682	19026.9	31.6035	19026.9	23.986	19026.9	41.7085	19026.9	35.2489	19026.9	40.774	19026.9	33.7313	19026.9	32.6884	19026.9	19.8564	19026.9	43.6417	19026.9	40.0587	19026.9	39.1807	19026.9	34.7241	19026.9	34.7764	19026.9	38.4675	19026.9	27.6497	19026.9	38.3438
19697.8	79.0647	19697.8	76.5059	19697.8	76.0109	19697.8	76.8841	19697.8	77.4082	19697.8	74.5008	19697.8	74.9541	19697.8	66.6066	19697.8	68.5272	19697.8	56.2427	19697.8	55.1148	19697.8	47.3062	19697.8	49.7147	19697.8	46.2159	19697.8	39.1142	19697.8	44.5832	19697.8	44.8031	19697.8	39.5197	19697.8	37.7411	19697.8	37.9362	19697.8	41.3384	19697.8	29.4364	19697.8	36.2077	19697.8	35.0797	19697.8	38.8339	19697.8	34.9564	19697.8	36.6616	19697.8	17.4462	19697.8	44.0405	19697.8	40.7144	19697.8	39.9074	19697.8	35.016	19697.8	31.0947	19697.8	39.2585	19697.8	31.2581	19697.8	41.379
19999.5	77.8326	19999.5	76.2065	19999.5	75.8293	19999.5	77.0152	19999.5	77.3462	19999.5	74.4728	19999.5	74.6791	19999.5	65.3494	19999.5	67.4009	19999.5	50.0633	19999.5	54.3272	19999.5	32.8867	19999.5	46.2782	19999.5	47.5399	19999.5	51.28	19999.5	49.2666	19999.5	46.3612	19999.5	42.9431	19999.5	45.8866	19999.5	40.1535	19999.5	46.0359	19999.5	40.9097	19999.5	42.2078	19999.5	36.637	19999.5	46.0485	19999.5	37.1576	19999.5	33.9188	19999.5	37.4788	19999.5	51.1957	19999.5	32.1483	19999.5	38.2813	19999.5	32.2594	19999.5	33.0652	19999.5	39.565	19999.5	34.8145	19999.5	41.3473
