"SPL Vertical"
"On-Axis"		"10°"		"-10°"		"20°"		"-20°"		"30°"		"-30°"		"40°"		"-40°"		"50°"		"-50°"		"60°"		"-60°"		"70°"		"-70°"		"80°"		"-80°"		"90°"		"-90°"		"100°"		"-100°"		"110°"		"-110°"		"120°"		"-120°"		"130°"		"-130°"		"140°"		"-140°"		"150°"		"-150°"		"160°"		"-160°"		"170°"		"-170°"		"180°"
"Frequency / Hz"	"Sound Pressure Level / dB (re 20 µPa/V)  [2.83  V @ 1. m]"	"Frequency / Hz"	"Sound Pressure Level / dB (re 20 µPa/V)  [2.83  V @ 1. m]"	"Frequency / Hz"	"Sound Pressure Level / dB (re 20 µPa/V)  [2.83  V @ 1. m]"	"Frequency / Hz"	"Sound Pressure Level / dB (re 20 µPa/V)  [2.83  V @ 1. m]"	"Frequency / Hz"	"Sound Pressure Level / dB (re 20 µPa/V)  [2.83  V @ 1. m]"	"Frequency / Hz"	"Sound Pressure Level / dB (re 20 µPa/V)  [2.83  V @ 1. m]"	"Frequency / Hz"	"Sound Pressure Level / dB (re 20 µPa/V)  [2.83  V @ 1. m]"	"Frequency / Hz"	"Sound Pressure Level / dB (re 20 µPa/V)  [2.83  V @ 1. m]"	"Frequency / Hz"	"Sound Pressure Level / dB (re 20 µPa/V)  [2.83  V @ 1. m]"	"Frequency / Hz"	"Sound Pressure Level / dB (re 20 µPa/V)  [2.83  V @ 1. m]"	"Frequency / Hz"	"Sound Pressure Level / dB (re 20 µPa/V)  [2.83  V @ 1. m]"	"Frequency / Hz"	"Sound Pressure Level / dB (re 20 µPa/V)  [2.83  V @ 1. m]"	"Frequency / Hz"	"Sound Pressure Level / dB (re 20 µPa/V)  [2.83  V @ 1. m]"	"Frequency / Hz"	"Sound Pressure Level / dB (re 20 µPa/V)  [2.83  V @ 1. m]"	"Frequency / Hz"	"Sound Pressure Level / dB (re 20 µPa/V)  [2.83  V @ 1. m]"	"Frequency / Hz"	"Sound Pressure Level / dB (re 20 µPa/V)  [2.83  V @ 1. m]"	"Frequency / Hz"	"Sound Pressure Level / dB (re 20 µPa/V)  [2.83  V @ 1. m]"	"Frequency / Hz"	"Sound Pressure Level / dB (re 20 µPa/V)  [2.83  V @ 1. m]"	"Frequency / Hz"	"Sound Pressure Level / dB (re 20 µPa/V)  [2.83  V @ 1. m]"	"Frequency / Hz"	"Sound Pressure Level / dB (re 20 µPa/V)  [2.83  V @ 1. m]"	"Frequency / Hz"	"Sound Pressure Level / dB (re 20 µPa/V)  [2.83  V @ 1. m]"	"Frequency / Hz"	"Sound Pressure Level / dB (re 20 µPa/V)  [2.83  V @ 1. m]"	"Frequency / Hz"	"Sound Pressure Level / dB (re 20 µPa/V)  [2.83  V @ 1. m]"	"Frequency / Hz"	"Sound Pressure Level / dB (re 20 µPa/V)  [2.83  V @ 1. m]"	"Frequency / Hz"	"Sound Pressure Level / dB (re 20 µPa/V)  [2.83  V @ 1. m]"	"Frequency / Hz"	"Sound Pressure Level / dB (re 20 µPa/V)  [2.83  V @ 1. m]"	"Frequency / Hz"	"Sound Pressure Level / dB (re 20 µPa/V)  [2.83  V @ 1. m]"	"Frequency / Hz"	"Sound Pressure Level / dB (re 20 µPa/V)  [2.83  V @ 1. m]"	"Frequency / Hz"	"Sound Pressure Level / dB (re 20 µPa/V)  [2.83  V @ 1. m]"	"Frequency / Hz"	"Sound Pressure Level / dB (re 20 µPa/V)  [2.83  V @ 1. m]"	"Frequency / Hz"	"Sound Pressure Level / dB (re 20 µPa/V)  [2.83  V @ 1. m]"	"Frequency / Hz"	"Sound Pressure Level / dB (re 20 µPa/V)  [2.83  V @ 1. m]"	"Frequency / Hz"	"Sound Pressure Level / dB (re 20 µPa/V)  [2.83  V @ 1. m]"	"Frequency / Hz"	"Sound Pressure Level / dB (re 20 µPa/V)  [2.83  V @ 1. m]"	"Frequency / Hz"	"Sound Pressure Level / dB (re 20 µPa/V)  [2.83  V @ 1. m]"	"Frequency / Hz"	"Sound Pressure Level / dB (re 20 µPa/V)  [2.83  V @ 1. m]"
20.5078	52.0036	20.5078	51.6222	20.5078	52.468	20.5078	51.3341	20.5078	52.9937	20.5078	51.1379	20.5078	53.5502	20.5078	51.0224	20.5078	54.1015	20.5078	50.9714	20.5078	54.6104	20.5078	50.9674	20.5078	55.0417	20.5078	50.995	20.5078	55.3661	20.5078	51.043	20.5078	55.5635	20.5078	51.105	20.5078	55.6248	20.5078	51.179	20.5078	55.5531	20.5078	51.2671	20.5078	55.3629	20.5078	51.3746	20.5078	55.0778	20.5078	51.5087	20.5078	54.7255	20.5078	51.6769	20.5078	54.3338	20.5078	51.8853	20.5078	53.9262	20.5078	52.137	20.5078	53.5208	20.5078	52.4314	20.5078	53.1304	20.5078	52.7646
21.9727	54.6513	21.9727	54.2881	21.9727	55.0748	21.9727	53.9926	21.9727	55.543	21.9727	53.7648	21.9727	56.0331	21.9727	53.5988	21.9727	56.5171	21.9727	53.4852	21.9727	56.9636	21.9727	53.4133	21.9727	57.3419	21.9727	53.3738	21.9727	57.6247	21.9727	53.3596	21.9727	57.7922	21.9727	53.3669	21.9727	57.8344	21.9727	53.3952	21.9727	57.7523	21.9727	53.4471	21.9727	57.5575	21.9727	53.5275	21.9727	57.2703	21.9727	53.643	21.9727	56.9153	21.9727	53.8003	21.9727	56.518	21.9727	54.0045	21.9727	56.1015	21.9727	54.2578	21.9727	55.6841	21.9727	54.5586	21.9727	55.2804	21.9727	54.9021
23.4375	56.5294	23.4375	56.1374	23.4375	56.9661	23.4375	55.7989	23.4375	57.4332	23.4375	55.5173	23.4375	57.911	23.4375	55.2915	23.4375	58.3757	23.4375	55.1174	23.4375	58.8006	23.4375	54.989	23.4375	59.1587	23.4375	54.9008	23.4375	59.4258	23.4375	54.8484	23.4375	59.5836	23.4375	54.8301	23.4375	59.6224	23.4375	54.8463	23.4375	59.5425	23.4375	54.9004	23.4375	59.3536	23.4375	54.9969	23.4375	59.0733	23.4375	55.1413	23.4375	58.7232	23.4375	55.3379	23.4375	58.326	23.4375	55.5883	23.4375	57.9021	23.4375	55.8906	23.4375	57.4683	23.4375	56.2391	23.4375	57.0387	23.4375	56.6253
24.9023	58.5876	24.9023	58.1963	24.9023	59.0178	24.9023	57.8533	24.9023	59.4725	24.9023	57.5635	24.9023	59.9328	24.9023	57.3274	24.9023	60.376	24.9023	57.1427	24.9023	60.7774	24.9023	57.0056	24.9023	61.1124	24.9023	56.9119	24.9023	61.359	24.9023	56.8584	24.9023	61.5011	24.9023	56.8433	24.9023	61.5303	24.9023	56.8667	24.9023	61.4473	24.9023	56.9303	24.9023	61.2616	24.9023	57.0369	24.9023	60.9899	24.9023	57.1896	24.9023	60.6525	24.9023	57.3904	24.9023	60.2708	24.9023	57.6397	24.9023	59.8642	24.9023	57.9351	24.9023	59.4488	24.9023	58.2717	24.9023	59.0378	24.9023	58.6421
26.3672	61.1573	26.3672	60.8212	26.3672	61.5216	26.3672	60.5208	26.3672	61.9031	26.3672	60.2605	26.3672	62.2871	26.3672	60.0416	26.3672	62.6557	26.3672	59.8636	26.3672	62.9888	26.3672	59.725	26.3672	63.2656	26.3672	59.6237	26.3672	63.4673	26.3672	59.5581	26.3672	63.5795	26.3672	59.5277	26.3672	63.5946	26.3672	59.5328	26.3672	63.5128	26.3672	59.5748	26.3672	63.3422	26.3672	59.6561	26.3672	63.0971	26.3672	59.7788	26.3672	62.7953	26.3672	59.9449	26.3672	62.4554	26.3672	60.1546	26.3672	62.0945	26.3672	60.4064	26.3672	61.7269	26.3672	60.6963	26.3672	61.3648	26.3672	61.0183
27.832	62.4059	27.832	62.0824	27.832	62.7571	27.832	61.7937	27.832	63.1253	27.832	61.5436	27.832	63.4965	27.832	61.3335	27.832	63.8534	27.832	61.1626	27.832	64.1765	27.832	61.0293	27.832	64.4457	27.832	60.9319	27.832	64.6426	27.832	60.8688	27.832	64.7532	27.832	60.8396	27.832	64.7699	27.832	60.8448	27.832	64.6929	27.832	60.886	27.832	64.53	27.832	60.9653	27.832	64.295	27.832	61.0849	27.832	64.0051	27.832	61.2467	27.832	63.6781	27.832	61.4508	27.832	63.3302	27.832	61.6956	27.832	62.9755	27.832	61.9772	27.832	62.6253	27.832	62.2897
29.2969	64.1512	29.2969	63.8409	29.2969	64.4846	29.2969	63.5607	29.2969	64.8312	29.2969	63.3147	29.2969	65.1781	29.2969	63.105	29.2969	65.5096	29.2969	62.9321	29.2969	65.808	29.2969	62.7952	29.2969	66.055	29.2969	62.6936	29.2969	66.2338	29.2969	62.6265	29.2969	66.3316	29.2969	62.5938	29.2969	66.3414	29.2969	62.5959	29.2969	66.2635	29.2969	62.634	29.2969	66.1054	29.2969	62.7097	29.2969	65.8799	29.2969	62.8245	29.2969	65.6032	29.2969	62.9794	29.2969	65.2918	29.2969	63.1744	29.2969	64.961	29.2969	63.4077	29.2969	64.6238	29.2969	63.6754	29.2969	64.2911	29.2969	63.9723
30.7617	65.8657	30.7617	65.5767	30.7617	66.1764	30.7617	65.3151	30.7617	66.5001	30.7617	65.0845	30.7617	66.8257	30.7617	64.8868	30.7617	67.1389	30.7617	64.7223	30.7617	67.4232	30.7617	64.5909	30.7617	67.6612	30.7617	64.492	30.7617	67.8365	30.7617	64.4253	30.7617	67.9364	30.7617	64.391	30.7617	67.9538	30.7617	64.3899	30.7617	67.8883	30.7617	64.4237	30.7617	67.7464	30.7617	64.494	30.7617	67.5395	30.7617	64.603	30.7617	67.282	30.7617	64.7519	30.7617	66.9891	30.7617	64.9408	30.7617	66.6746	30.7617	65.168	30.7617	66.3511	30.7617	65.4294	30.7617	66.0293	30.7617	65.7191
32.2266	67.2189	32.2266	66.9315	32.2266	67.5269	32.2266	66.6714	32.2266	67.8459	32.2266	66.443	32.2266	68.1637	32.2266	66.2484	32.2266	68.4657	32.2266	66.0881	32.2266	68.7356	32.2266	65.9618	32.2266	68.9571	32.2266	65.8688	32.2266	69.1154	32.2266	65.8084	32.2266	69.1995	32.2266	65.7801	32.2266	69.204	32.2266	65.7843	32.2266	69.1298	32.2266	65.8217	32.2266	68.9838	32.2266	65.8931	32.2266	68.7779	32.2266	65.9999	32.2266	68.5265	32.2266	66.1426	32.2266	68.2442	32.2266	66.321	32.2266	67.9443	32.2266	66.5336	32.2266	67.6385	32.2266	66.7772	32.2266	67.3365	32.2266	67.047
33.6914	68.8179	33.6914	68.5491	33.6914	69.0996	33.6914	68.2992	33.6914	69.3857	33.6914	68.073	33.6914	69.6662	33.6914	67.8732	33.6914	69.9286	33.6914	67.7017	33.6914	70.1595	33.6914	67.5595	33.6914	70.3447	33.6914	67.4471	33.6914	70.4713	33.6914	67.365	33.6914	70.5296	33.6914	67.3138	33.6914	70.5148	33.6914	67.2947	33.6914	70.4279	33.6914	67.3088	33.6914	70.2758	33.6914	67.3578	33.6914	70.0696	33.6914	67.443	33.6914	69.8225	33.6914	67.5653	33.6914	69.5481	33.6914	67.7248	33.6914	69.2587	33.6914	67.9197	33.6914	68.9651	33.6914	68.1469	33.6914	68.6765	33.6914	68.4013
35.1562	70.2027	35.1562	69.924	35.1562	70.4969	35.1562	69.6673	35.1562	70.7972	35.1562	69.4372	35.1562	71.0919	35.1562	69.2361	35.1562	71.3674	35.1562	69.0651	35.1562	71.609	35.1562	68.9244	35.1562	71.8022	35.1562	68.8139	35.1562	71.934	35.1562	68.7336	35.1562	71.9952	35.1562	68.6836	35.1562	71.9809	35.1562	68.6645	35.1562	71.8921	35.1562	68.6773	35.1562	71.7352	35.1562	68.7234	35.1562	71.5205	35.1562	68.8046	35.1562	71.2611	35.1562	68.9223	35.1562	70.9711	35.1562	69.0778	35.1562	70.6639	35.1562	69.2709	35.1562	70.3523	35.1562	69.4999	35.1562	70.0479	35.1562	69.761
36.6211	71.3861	36.6211	71.1127	36.6211	71.6738	36.6211	70.8603	36.6211	71.9664	36.6211	70.6336	36.6211	72.2525	36.6211	70.4354	36.6211	72.5186	36.6211	70.2672	36.6211	72.7507	36.6211	70.1292	36.6211	72.9347	36.6211	70.0218	36.6211	73.0584	36.6211	69.9448	36.6211	73.1129	36.6211	69.8983	36.6211	73.0942	36.6211	69.8825	36.6211	73.0036	36.6211	69.8981	36.6211	72.8477	36.6211	69.946	36.6211	72.6372	36.6211	70.0273	36.6211	72.385	36.6211	70.143	36.6211	72.1048	36.6211	70.2939	36.6211	71.8096	36.6211	70.4796	36.6211	71.5114	36.6211	70.6987	36.6211	71.2211	36.6211	70.9477
38.0859	72.8252	38.0859	72.5632	38.0859	73.0985	38.0859	72.3191	38.0859	73.3741	38.0859	72.0977	38.0859	73.6412	38.0859	71.9021	38.0859	73.8874	38.0859	71.7339	38.0859	74.0995	38.0859	71.5941	38.0859	74.2644	38.0859	71.483	38.0859	74.3708	38.0859	71.4006	38.0859	74.4107	38.0859	71.3473	38.0859	74.3805	38.0859	71.3232	38.0859	74.2817	38.0859	71.3289	38.0859	74.1211	38.0859	71.3653	38.0859	73.909	38.0859	71.4333	38.0859	73.6584	38.0859	71.5343	38.0859	73.3828	38.0859	71.669	38.0859	73.0952	38.0859	71.8377	38.0859	72.8074	38.0859	72.0395	38.0859	72.5301	38.0859	72.2718
39.5508	74.1338	39.5508	73.8826	39.5508	74.3953	39.5508	73.6482	39.5508	74.6585	39.5508	73.4352	39.5508	74.9131	39.5508	73.2466	39.5508	75.1472	39.5508	73.0842	39.5508	75.3481	39.5508	72.9491	39.5508	75.5035	39.5508	72.8416	39.5508	75.6027	39.5508	72.7619	39.5508	75.6382	39.5508	72.7103	39.5508	75.6068	39.5508	72.687	39.5508	75.5103	39.5508	72.6925	39.5508	75.3552	39.5508	72.7275	39.5508	75.1518	39.5508	72.7927	39.5508	74.9121	39.5508	72.8893	39.5508	74.6492	39.5508	73.0179	39.5508	74.3752	39.5508	73.1788	39.5508	74.1014	39.5508	73.3709	39.5508	73.8376	39.5508	73.592
41.0156	75.4063	41.0156	75.161	41.0156	75.6595	41.0156	74.93	41.0156	75.9123	41.0156	74.7183	41.0156	76.1547	41.0156	74.5289	41.0156	76.3755	41.0156	74.3641	41.0156	76.5627	41.0156	74.2252	41.0156	76.7047	41.0156	74.1128	41.0156	76.7914	41.0156	74.0275	41.0156	76.816	41.0156	73.9695	41.0156	76.7756	41.0156	73.9392	41.0156	76.6722	41.0156	73.9371	41.0156	76.5124	41.0156	73.9637	41.0156	76.3062	41.0156	74.02	41.0156	76.0659	41.0156	74.107	41.0156	75.8041	41.0156	74.2256	41.0156	75.5332	41.0156	74.3761	41.0156	75.2644	41.0156	74.5582	41.0156	75.0072	41.0156	74.7699
42.4805	76.6918	42.4805	76.4526	42.4805	76.9371	42.4805	76.226	42.4805	77.1807	42.4805	76.0168	42.4805	77.4128	42.4805	75.8284	42.4805	77.6229	42.4805	75.6633	42.4805	77.7997	42.4805	75.5231	42.4805	77.9321	42.4805	75.4087	42.4805	78.0109	42.4805	75.3208	42.4805	78.0297	42.4805	75.2599	42.4805	77.9859	42.4805	75.2265	42.4805	77.8815	42.4805	75.221	42.4805	77.7231	42.4805	75.244	42.4805	77.5202	42.4805	75.2964	42.4805	77.2845	42.4805	75.379	42.4805	77.0284	42.4805	75.4927	42.4805	76.7636	42.4805	75.6379	42.4805	76.5012	42.4805	75.8142	42.4805	76.2506	42.4805	76.0196
43.9453	77.8557	43.9453	77.6199	43.9453	78.0959	43.9453	77.3949	43.9453	78.3326	43.9453	77.1854	43.9453	78.5566	43.9453	76.9954	43.9453	78.7578	43.9453	76.8274	43.9453	78.9257	43.9453	76.6836	43.9453	79.0499	43.9453	76.5651	43.9453	79.1219	43.9453	76.4732	43.9453	79.1357	43.9453	76.4084	43.9453	79.0892	43.9453	76.3714	43.9453	78.9845	43.9453	76.3629	43.9453	78.8278	43.9453	76.3835	43.9453	78.6282	43.9453	76.4339	43.9453	78.3969	43.9453	76.515	43.9453	78.1454	43.9453	76.6275	43.9453	77.885	43.9453	76.7716	43.9453	77.6265	43.9453	76.9466	43.9453	77.379	43.9453	77.1504
45.4102	78.9392	45.4102	78.7097	45.4102	79.1714	45.4102	78.4893	45.4102	79.3989	45.4102	78.283	45.4102	79.6126	45.4102	78.0947	45.4102	79.803	45.4102	77.9272	45.4102	79.9599	45.4102	77.7829	45.4102	80.0737	45.4102	77.6633	45.4102	80.1363	45.4102	77.5696	45.4102	80.1424	45.4102	77.5026	45.4102	80.0901	45.4102	77.4629	45.4102	79.9819	45.4102	77.4511	45.4102	79.8239	45.4102	77.4677	45.4102	79.6252	45.4102	77.5132	45.4102	79.3969	45.4102	77.5884	45.4102	79.1503	45.4102	77.6937	45.4102	78.8966	45.4102	77.8294	45.4102	78.6462	45.4102	77.9951	45.4102	78.4079	45.4102	78.1891
46.875	79.9249	46.875	79.7048	46.875	80.1471	46.875	79.4929	46.875	80.3641	46.875	79.2941	46.875	80.5676	46.875	79.1121	46.875	80.7482	46.875	78.9499	46.875	80.8965	46.875	78.8098	46.875	81.0034	46.875	78.6935	46.875	81.0615	46.875	78.6021	46.875	81.0656	46.875	78.5367	46.875	81.0144	46.875	78.4978	46.875	80.9102	46.875	78.4859	46.875	80.7589	46.875	78.5016	46.875	80.5691	46.875	78.5454	46.875	80.3511	46.875	78.6177	46.875	80.1156	46.875	78.7191	46.875	79.8732	46.875	78.8497	46.875	79.6335	46.875	79.009	46.875	79.4052	46.875	79.1953
48.3398	80.745	48.3398	80.5297	48.3398	80.9618	48.3398	80.322	48.3398	81.1728	48.3398	80.1269	48.3398	81.3698	48.3398	79.9484	48.3398	81.5439	48.3398	79.7895	48.3398	81.6859	48.3398	79.6527	48.3398	81.7873	48.3398	79.5398	48.3398	81.8412	48.3398	79.4519	48.3398	81.8431	48.3398	79.39	48.3398	81.792	48.3398	79.3545	48.3398	81.6905	48.3398	79.3458	48.3398	81.5444	48.3398	79.3641	48.3398	81.3621	48.3398	79.4096	48.3398	81.1535	48.3398	79.4826	48.3398	80.9285	48.3398	79.5833	48.3398	80.6969	48.3398	79.7115	48.3398	80.4677	48.3398	79.8666	48.3398	80.2488	48.3398	80.0468
51.2695	82.1259	51.2695	81.9183	51.2695	82.3328	51.2695	81.7163	51.2695	82.532	51.2695	81.5249	51.2695	82.7156	51.2695	81.3486	51.2695	82.8754	51.2695	81.1907	51.2695	83.003	51.2695	81.0541	51.2695	83.0908	51.2695	80.9407	51.2695	83.1327	51.2695	80.852	51.2695	83.1251	51.2695	80.7889	51.2695	83.0676	51.2695	80.7517	51.2695	82.9631	51.2695	80.7407	51.2695	82.8177	51.2695	80.7558	51.2695	82.6395	51.2695	80.797	51.2695	82.4378	51.2695	80.8643	51.2695	82.2223	51.2695	80.9576	51.2695	82.0019	51.2695	81.0769	51.2695	81.7851	51.2695	81.2214	51.2695	81.5791	51.2695	81.3897
52.7344	82.6404	52.7344	82.4364	52.7344	82.8419	52.7344	82.2362	52.7344	83.0342	52.7344	82.0451	52.7344	83.2096	52.7344	81.8676	52.7344	83.3601	52.7344	81.7073	52.7344	83.478	52.7344	81.5675	52.7344	83.556	52.7344	81.4502	52.7344	83.5886	52.7344	81.3572	52.7344	83.5726	52.7344	81.2896	52.7344	83.5079	52.7344	81.2478	52.7344	83.3978	52.7344	81.2321	52.7344	83.2486	52.7344	81.2425	52.7344	83.0686	52.7344	81.2788	52.7344	82.8671	52.7344	81.3409	52.7344	82.6536	52.7344	81.4288	52.7344	82.437	52.7344	81.5421	52.7344	82.2252	52.7344	81.6803	52.7344	82.0251	52.7344	81.8422
54.1992	83.0363	54.1992	82.8374	54.1992	83.2317	54.1992	82.6408	54.1992	83.4167	54.1992	82.452	54.1992	83.5842	54.1992	82.2754	54.1992	83.7265	54.1992	82.115	54.1992	83.836	54.1992	81.9739	54.1992	83.9059	54.1992	81.8547	54.1992	83.9312	54.1992	81.7593	54.1992	83.9091	54.1992	81.6889	54.1992	83.8398	54.1992	81.6441	54.1992	83.7269	54.1992	81.6252	54.1992	83.5769	54.1992	81.6321	54.1992	83.398	54.1992	81.6647	54.1992	83.1995	54.1992	81.7227	54.1992	82.9903	54.1992	81.8061	54.1992	82.7791	54.1992	81.9144	54.1992	82.5734	54.1992	82.0471	54.1992	82.3796	54.1992	82.2029
55.6641	83.1999	55.6641	83.0006	55.6641	83.3959	55.6641	82.8041	55.6641	83.582	55.6641	82.6158	55.6641	83.7506	55.6641	82.4403	55.6641	83.8941	55.6641	82.2813	55.6641	84.0049	55.6641	82.1422	55.6641	84.0762	55.6641	82.0253	55.6641	84.1032	55.6641	81.9326	55.6641	84.0832	55.6641	81.8653	55.6641	84.0166	55.6641	81.824	55.6641	83.9071	55.6641	81.8088	55.6641	83.761	55.6641	81.8198	55.6641	83.5864	55.6641	81.8566	55.6641	83.3923	55.6641	81.9187	55.6641	83.1874	55.6641	82.0058	55.6641	82.9799	55.6641	82.1171	55.6641	82.7771	55.6641	82.252	55.6641	82.5851	55.6641	82.4088
58.5938	83.4916	58.5938	83.288	58.5938	83.6884	58.5938	83.0838	58.5938	83.8714	58.5938	82.8848	58.5938	84.0336	58.5938	82.6962	58.5938	84.1674	58.5938	82.5226	58.5938	84.2656	58.5938	82.3682	58.5938	84.3218	58.5938	82.2362	58.5938	84.3314	58.5938	82.1292	58.5938	84.2923	58.5938	82.049	58.5938	84.2056	58.5938	81.9966	58.5938	84.0756	58.5938	81.9723	58.5938	83.9099	58.5938	81.9757	58.5938	83.7176	58.5938	82.0062	58.5938	83.5091	58.5938	82.0625	58.5938	83.2944	58.5938	82.1435	58.5938	83.0823	58.5938	82.248	58.5938	82.88	58.5938	82.375	58.5938	82.6926	58.5938	82.5237
60.0586	83.6026	60.0586	83.4044	60.0586	83.793	60.0586	83.2048	60.0586	83.9693	60.0586	83.0092	60.0586	84.1244	60.0586	82.823	60.0586	84.2512	60.0586	82.6505	60.0586	84.3427	60.0586	82.4959	60.0586	84.393	60.0586	82.3623	60.0586	84.3975	60.0586	82.2522	60.0586	84.3542	60.0586	82.1674	60.0586	84.2642	60.0586	82.1088	60.0586	84.1315	60.0586	82.0769	60.0586	83.9631	60.0586	82.0715	60.0586	83.768	60.0586	82.0921	60.0586	83.5564	60.0586	82.1382	60.0586	83.3384	60.0586	82.2091	60.0586	83.1236	60.0586	82.3043	60.0586	82.9198	60.0586	82.4237	60.0586	82.7329	60.0586	82.5669
62.9883	83.5882	62.9883	83.3935	62.9883	83.775	62.9883	83.1974	62.9883	83.9474	62.9883	83.0057	62.9883	84.0984	62.9883	82.8238	62.9883	84.2209	62.9883	82.6565	62.9883	84.3084	62.9883	82.5078	62.9883	84.3555	62.9883	82.3811	62.9883	84.3585	62.9883	82.2787	62.9883	84.316	62.9883	82.2021	62.9883	84.2296	62.9883	82.152	62.9883	84.1037	62.9883	82.1284	62.9883	83.9451	62.9883	82.1308	62.9883	83.7623	62.9883	82.158	62.9883	83.5645	62.9883	82.209	62.9883	83.361	62.9883	82.2829	62.9883	83.1602	62.9883	82.3787	62.9883	82.9689	62.9883	82.496	62.9883	82.7925	62.9883	82.6342
64.4531	83.5343	64.4531	83.3406	64.4531	83.7198	64.4531	83.1451	64.4531	83.8903	64.4531	82.9539	64.4531	84.0387	64.4531	82.7727	64.4531	84.1582	64.4531	82.6064	64.4531	84.2426	64.4531	82.4591	64.4531	84.2868	64.4531	82.3342	64.4531	84.2877	64.4531	82.2341	64.4531	84.2445	64.4531	82.1603	64.4531	84.1591	64.4531	82.1133	64.4531	84.0359	64.4531	82.0929	64.4531	83.8816	64.4531	82.0982	64.4531	83.7043	64.4531	82.1282	64.4531	83.5126	64.4531	82.1814	64.4531	83.3153	64.4531	82.2566	64.4531	83.1202	64.4531	82.3528	64.4531	82.9339	64.4531	82.4695	64.4531	82.7614	64.4531	82.606
67.3828	83.3561	67.3828	83.1618	67.3828	83.5416	67.3828	82.9654	67.3828	83.7113	67.3828	82.7734	67.3828	83.8582	67.3828	82.5918	67.3828	83.9759	67.3828	82.4256	67.3828	84.0585	67.3828	82.2794	67.3828	84.1014	67.3828	82.1566	67.3828	84.1019	67.3828	82.0596	67.3828	84.0595	67.3828	81.9897	67.3828	83.9761	67.3828	81.9472	67.3828	83.8563	67.3828	81.9316	67.3828	83.7063	67.3828	81.9417	67.3828	83.534	67.3828	81.976	67.3828	83.3476	67.3828	82.0328	67.3828	83.1554	67.3828	82.1106	67.3828	82.965	67.3828	82.2083	67.3828	82.7828	67.3828	82.3251	67.3828	82.6136	67.3828	82.4605
68.8477	83.2794	68.8477	83.0826	68.8477	83.4673	68.8477	82.8839	68.8477	83.6394	68.8477	82.6899	68.8477	83.789	68.8477	82.5068	68.8477	83.9098	68.8477	82.3401	68.8477	83.9961	68.8477	82.1947	68.8477	84.0436	68.8477	82.0744	68.8477	84.05	68.8477	81.9817	68.8477	84.0147	68.8477	81.9181	68.8477	83.9399	68.8477	81.8838	68.8477	83.8298	68.8477	81.8781	68.8477	83.6903	68.8477	81.8992	68.8477	83.5286	68.8477	81.9453	68.8477	83.352	68.8477	82.0141	68.8477	83.1681	68.8477	82.1034	68.8477	82.9835	68.8477	82.2114	68.8477	82.8043	68.8477	82.3368	68.8477	82.6348	68.8477	82.4783
71.7773	83.2486	71.7773	83.0567	71.7773	83.4293	71.7773	82.8606	71.7773	83.5921	71.7773	82.6669	71.7773	83.7305	71.7773	82.482	71.7773	83.8387	71.7773	82.312	71.7773	83.9118	71.7773	82.1621	71.7773	83.9463	71.7773	82.0365	71.7773	83.9406	71.7773	81.9383	71.7773	83.8956	71.7773	81.8695	71.7773	83.8141	71.7773	81.8307	71.7773	83.7011	71.7773	81.8214	71.7773	83.5629	71.7773	81.8401	71.7773	83.4064	71.7773	81.8847	71.7773	83.2382	71.7773	81.9527	71.7773	83.0645	71.7773	82.0414	71.7773	82.8907	71.7773	82.1485	71.7773	82.7214	71.7773	82.2718	71.7773	82.5601	71.7773	82.4096
74.707	83.2865	74.707	83.1032	74.707	83.4576	74.707	82.9141	74.707	83.6098	74.707	82.726	74.707	83.7369	74.707	82.5451	74.707	83.8336	74.707	82.3772	74.707	83.8952	74.707	82.2275	74.707	83.9185	74.707	82.1	74.707	83.9024	74.707	81.9979	74.707	83.8475	74.707	81.923	74.707	83.757	74.707	81.8761	74.707	83.6358	74.707	81.8568	74.707	83.4905	74.707	81.864	74.707	83.3283	74.707	81.8957	74.707	83.1562	74.707	81.9499	74.707	82.9813	74.707	82.0243	74.707	82.8092	74.707	82.117	74.707	82.6449	74.707	82.2266	74.707	82.4917	74.707	82.3518
77.6367	83.2177	77.6367	83.0373	77.6367	83.3857	77.6367	82.8514	77.6367	83.5349	77.6367	82.6666	77.6367	83.659	77.6367	82.4894	77.6367	83.7528	77.6367	82.3259	77.6367	83.812	77.6367	82.1812	77.6367	83.8337	77.6367	82.0596	77.6367	83.8172	77.6367	81.9639	77.6367	83.7636	77.6367	81.8959	77.6367	83.6765	77.6367	81.856	77.6367	83.5611	77.6367	81.8435	77.6367	83.4236	77.6367	81.8568	77.6367	83.2708	77.6367	81.8935	77.6367	83.1093	77.6367	81.9513	77.6367	82.9451	77.6367	82.0276	77.6367	82.7833	77.6367	82.1203	77.6367	82.6282	77.6367	82.2278	77.6367	82.4828	77.6367	82.3489
79.1016	83.1544	79.1016	82.9716	79.1016	83.3244	79.1016	82.783	79.1016	83.4749	79.1016	82.5955	79.1016	83.5996	79.1016	82.4159	79.1016	83.6929	79.1016	82.2503	79.1016	83.7508	79.1016	82.104	79.1016	83.7704	79.1016	81.9814	79.1016	83.7513	79.1016	81.8855	79.1016	83.6949	79.1016	81.8178	79.1016	83.6053	79.1016	81.7787	79.1016	83.4878	79.1016	81.7675	79.1016	83.3492	79.1016	81.7823	79.1016	83.1961	79.1016	81.8208	79.1016	83.035	79.1016	81.8802	79.1016	82.8719	79.1016	81.9579	79.1016	82.7116	79.1016	82.0516	79.1016	82.558	79.1016	82.1595	79.1016	82.4137	79.1016	82.2806
82.0312	82.9949	82.0312	82.8096	82.0312	83.1656	82.0312	82.6169	82.0312	83.3148	82.0312	82.4246	82.0312	83.4364	82.0312	82.2401	82.0312	83.5251	82.0312	82.0702	82.0312	83.5776	82.0312	81.921	82.0312	83.5918	82.0312	81.7975	82.0312	83.5682	82.0312	81.7029	82.0312	83.5089	82.0312	81.639	82.0312	83.4184	82.0312	81.6059	82.0312	83.3021	82.0312	81.6021	82.0312	83.1665	82.0312	81.6251	82.0312	83.018	82.0312	81.6714	82.0312	82.8629	82.0312	81.7375	82.0312	82.7064	82.0312	81.82	82.0312	82.5533	82.0312	81.9159	82.0312	82.4069	82.0312	82.0233	82.0312	82.2692	82.0312	82.1412
84.9609	82.9823	84.9609	82.8089	84.9609	83.1364	84.9609	82.623	84.9609	83.2655	84.9609	82.4316	84.9609	83.3649	84.9609	82.2422	84.9609	83.4314	84.9609	82.0622	84.9609	83.4632	84.9609	81.8984	84.9609	83.46	84.9609	81.7565	84.9609	83.4233	84.9609	81.6414	84.9609	83.3563	84.9609	81.5564	84.9609	83.2634	84.9609	81.5032	84.9609	83.1502	84.9609	81.4821	84.9609	83.0218	84.9609	81.4919	84.9609	82.8833	84.9609	81.5299	84.9609	82.7385	84.9609	81.5929	84.9609	82.5907	84.9609	81.6771	84.9609	82.4426	84.9609	81.7786	84.9609	82.2968	84.9609	81.894	84.9609	82.1554	84.9609	82.0204
87.8906	82.8137	87.8906	82.6335	87.8906	82.9777	87.8906	82.4442	87.8906	83.1194	87.8906	82.2531	87.8906	83.2333	87.8906	82.0681	87.8906	83.3153	87.8906	81.8966	87.8906	83.3624	87.8906	81.7456	87.8906	83.3738	87.8906	81.6211	87.8906	83.3505	87.8906	81.5275	87.8906	83.2962	87.8906	81.4677	87.8906	83.2165	87.8906	81.4426	87.8906	83.1182	87.8906	81.4514	87.8906	83.0081	87.8906	81.4913	87.8906	82.8913	87.8906	81.5586	87.8906	82.771	87.8906	81.6485	87.8906	82.6484	87.8906	81.7559	87.8906	82.5236	87.8906	81.8757	87.8906	82.3961	87.8906	82.0032	87.8906	82.2661	87.8906	82.1344
90.8203	83.3681	90.8203	83.1809	90.8203	83.5282	90.8203	82.9739	90.8203	83.6547	90.8203	82.7545	90.8203	83.742	90.8203	82.5304	90.8203	83.7859	90.8203	82.3093	90.8203	83.784	90.8203	82.0984	90.8203	83.736	90.8203	81.9045	90.8203	83.6443	90.8203	81.7341	90.8203	83.5138	90.8203	81.5925	90.8203	83.3521	90.8203	81.4839	90.8203	83.1685	90.8203	81.4109	90.8203	82.9729	90.8203	81.3747	90.8203	82.7746	90.8203	81.3743	90.8203	82.5811	90.8203	81.4073	90.8203	82.3973	90.8203	81.4696	90.8203	82.2258	90.8203	81.5564	90.8203	82.0668	90.8203	81.6629	90.8203	81.9199	90.8203	81.7849
95.2148	82.6193	95.2148	82.4342	95.2148	82.7875	95.2148	82.2408	95.2148	82.9311	95.2148	82.0482	95.2148	83.0438	95.2148	81.8654	95.2148	83.1212	95.2148	81.7006	95.2148	83.161	95.2148	81.5607	95.2148	83.1631	95.2148	81.4506	95.2148	83.1296	95.2148	81.3732	95.2148	83.0652	95.2148	81.3288	95.2148	82.9757	95.2148	81.3161	95.2148	82.8682	95.2148	81.332	95.2148	82.7493	95.2148	81.3724	95.2148	82.6247	95.2148	81.4329	95.2148	82.4985	95.2148	81.509	95.2148	82.3735	95.2148	81.597	95.2148	82.2511	95.2148	81.6936	95.2148	82.132	95.2148	81.7967	95.2148	82.0164	95.2148	81.9045
98.1445	82.7493	98.1445	82.5752	98.1445	82.9014	98.1445	82.3855	98.1445	83.0258	98.1445	82.188	98.1445	83.1185	98.1445	81.991	98.1445	83.1765	98.1445	81.803	98.1445	83.1983	98.1445	81.6321	98.1445	83.1839	98.1445	81.4854	98.1445	83.135	98.1445	81.3685	98.1445	83.0553	98.1445	81.2848	98.1445	82.9498	98.1445	81.2356	98.1445	82.8247	98.1445	81.22	98.1445	82.6864	98.1445	81.235	98.1445	82.5409	98.1445	81.2767	98.1445	82.3933	98.1445	81.3402	98.1445	82.2477	98.1445	81.4207	98.1445	82.1073	98.1445	81.5141	98.1445	81.9736	98.1445	81.6173	98.1445	81.8474	98.1445	81.7287
101.074	82.4907	101.074	82.2996	101.074	82.6624	101.074	82.0973	101.074	82.8078	101.074	81.8927	101.074	82.9212	101.074	81.6949	101.074	82.9989	101.074	81.5133	101.074	83.0393	101.074	81.3564	101.074	83.0435	101.074	81.2319	101.074	83.0152	101.074	81.1453	101.074	82.9607	101.074	81.0997	101.074	82.8871	101.074	81.0958	101.074	82.8017	101.074	81.1311	101.074	82.7102	101.074	81.2012	101.074	82.6157	101.074	81.2993	101.074	82.5192	101.074	81.4181	101.074	82.4196	101.074	81.5499	101.074	82.3152	101.074	81.6875	101.074	82.2043	101.074	81.8253	101.074	82.0855	101.074	81.9589
105.469	82.8222	105.469	82.6424	105.469	82.9737	105.469	82.4427	105.469	83.0897	105.469	82.2322	105.469	83.1646	105.469	82.0202	105.469	83.1949	105.469	81.8162	105.469	83.1793	105.469	81.6286	105.469	83.1198	105.469	81.4649	105.469	83.0214	105.469	81.3311	105.469	82.8923	105.469	81.231	105.469	82.7431	105.469	81.1667	105.469	82.5851	105.469	81.1378	105.469	82.4289	105.469	81.1423	105.469	82.2817	105.469	81.1763	105.469	82.1473	105.469	81.235	105.469	82.0256	105.469	81.3125	105.469	81.9138	105.469	81.4031	105.469	81.8082	105.469	81.5012	105.469	81.7051	105.469	81.6027
108.398	82.9773	108.398	82.7961	108.398	83.1282	108.398	82.5929	108.398	83.2417	108.398	82.3764	108.398	83.3122	108.398	82.156	108.398	83.3359	108.398	81.9406	108.398	83.3115	108.398	81.7391	108.398	83.2405	108.398	81.5594	108.398	83.128	108.398	81.408	108.398	82.982	108.398	81.2896	108.398	82.8132	108.398	81.2069	108.398	82.6335	108.398	81.1604	108.398	82.4541	108.398	81.1485	108.398	82.2841	108.398	81.1677	108.398	82.129	108.398	81.2131	108.398	81.9903	108.398	81.2791	108.398	81.8664	108.398	81.36	108.398	81.7536	108.398	81.4507	108.398	81.6482	108.398	81.5473
112.793	82.9881	112.793	82.8115	112.793	83.1292	112.793	82.6076	112.793	83.2285	112.793	82.3863	112.793	83.2821	112.793	82.1582	112.793	83.2887	112.793	81.9344	112.793	83.2497	112.793	81.7258	112.793	83.1693	112.793	81.5421	112.793	83.0544	112.793	81.3913	112.793	82.9143	112.793	81.2788	112.793	82.7596	112.793	81.2073	112.793	82.6009	112.793	81.1763	112.793	82.4473	112.793	81.1827	112.793	82.3051	112.793	81.2213	112.793	82.1768	112.793	81.2855	112.793	82.0617	112.793	81.3679	112.793	81.9566	112.793	81.4616	112.793	81.8571	112.793	81.5606	112.793	81.7593	112.793	81.6606
117.188	82.9355	117.188	82.7432	117.188	83.0942	117.188	82.5252	117.188	83.2122	117.188	82.2904	117.188	83.284	117.188	82.0484	117.188	83.306	117.188	81.8089	117.188	83.2764	117.188	81.5819	117.188	83.1965	117.188	81.3769	117.188	83.0708	117.188	81.2023	117.188	82.9072	117.188	81.065	117.188	82.7171	117.188	80.9697	117.188	82.5138	117.188	80.9182	117.188	82.3111	117.188	80.9091	117.188	82.1214	117.188	80.938	117.188	81.9529	117.188	80.9979	117.188	81.8086	117.188	81.0801	117.188	81.6857	117.188	81.1757	117.188	81.5779	117.188	81.2767	117.188	81.4773	117.188	81.3778
120.117	83.0957	120.117	82.9186	120.117	83.2376	120.117	82.7143	120.117	83.3374	120.117	82.4912	120.117	83.3896	120.117	82.2579	120.117	83.3908	120.117	82.023	120.117	83.3396	120.117	81.7945	120.117	83.2376	120.117	81.5802	120.117	83.0891	120.117	81.3868	120.117	82.9011	120.117	81.2203	120.117	82.6834	120.117	81.0854	120.117	82.4476	120.117	80.9852	120.117	82.207	120.117	80.9207	120.117	81.9745	120.117	80.8908	120.117	81.7619	120.117	80.8922	120.117	81.5771	120.117	80.9197	120.117	81.4228	120.117	80.9676	120.117	81.2967	120.117	81.0305	120.117	81.1929	120.117	81.1055
124.512	82.7235	124.512	82.5533	124.512	82.8617	124.512	82.3587	124.512	82.9622	124.512	82.1489	124.512	83.0217	124.512	81.9339	124.512	83.039	124.512	81.7234	124.512	83.0152	124.512	81.5265	124.512	82.9533	124.512	81.3504	124.512	82.8576	124.512	81.2003	124.512	82.7337	124.512	81.0792	124.512	82.5871	124.512	80.9882	124.512	82.4237	124.512	80.9267	124.512	82.2486	124.512	80.8932	124.512	82.0675	124.512	80.8856	124.512	81.8863	124.512	80.9014	124.512	81.7113	124.512	80.9385	124.512	81.5482	124.512	80.9951	124.512	81.4013	124.512	81.0698	124.512	81.2725	124.512	81.1622
128.906	82.6109	128.906	82.4297	128.906	82.7634	128.906	82.2282	128.906	82.8806	128.906	82.0162	128.906	82.9577	128.906	81.8043	128.906	82.9924	128.906	81.6035	128.906	82.9848	128.906	81.4241	128.906	82.9378	128.906	81.2747	128.906	82.8573	128.906	81.1616	128.906	82.7511	128.906	81.0879	128.906	82.6282	128.906	81.0533	128.906	82.4968	128.906	81.055	128.906	82.3638	128.906	81.0875	128.906	82.2336	128.906	81.1444	128.906	82.1091	128.906	81.2188	128.906	81.9916	128.906	81.3042	128.906	81.8815	128.906	81.3955	128.906	81.7781	128.906	81.4892	128.906	81.6795	128.906	81.5837
133.301	82.5639	133.301	82.3709	133.301	82.724	133.301	82.1549	133.301	82.8431	133.301	81.9267	133.301	82.9154	133.301	81.6976	133.301	82.938	133.301	81.4791	133.301	82.9116	133.301	81.2814	133.301	82.8409	133.301	81.1137	133.301	82.7338	133.301	80.9826	133.301	82.6013	133.301	80.8921	133.301	82.4553	133.301	80.8432	133.301	82.3068	133.301	80.8338	133.301	82.1643	133.301	80.8597	133.301	82.0325	133.301	80.9147	133.301	81.9123	133.301	80.9918	133.301	81.802	133.301	81.0841	133.301	81.6982	133.301	81.1851	133.301	81.5974	133.301	81.2896	133.301	81.4966	133.301	81.394
139.16	82.548	139.16	82.3513	139.16	82.7063	139.16	82.1261	139.16	82.8187	139.16	81.8837	139.16	82.8806	139.16	81.6364	139.16	82.8902	139.16	81.3966	139.16	82.8496	139.16	81.1757	139.16	82.7636	139.16	80.9838	139.16	82.6404	139.16	80.8286	139.16	82.49	139.16	80.7152	139.16	82.3234	139.16	80.6456	139.16	82.1516	139.16	80.6191	139.16	81.9844	139.16	80.6322	139.16	81.829	139.16	80.6796	139.16	81.6901	139.16	80.754	139.16	81.5682	139.16	80.8472	139.16	81.4604	139.16	80.9509	139.16	81.3608	139.16	81.0578	139.16	81.2631	139.16	81.1626
143.555	82.4703	143.555	82.2704	143.555	82.6278	143.555	82.0383	143.555	82.7352	143.555	81.7863	143.555	82.7886	143.555	81.5284	143.555	82.7873	143.555	81.2786	143.555	82.7348	143.555	81.0506	143.555	82.6378	143.555	80.8558	143.555	82.5061	143.555	80.7028	143.555	82.3514	143.555	80.5966	143.555	82.1858	143.555	80.538	143.555	82.0202	143.555	80.5247	143.555	81.8633	143.555	80.5513	143.555	81.7208	143.555	80.6106	143.555	81.5953	143.555	80.6942	143.555	81.4858	143.555	80.7935	143.555	81.3885	143.555	80.9002	143.555	81.2974	143.555	81.0073	143.555	81.206	143.555	81.1098
147.949	82.4008	147.949	82.1983	147.949	82.5575	147.949	81.9594	147.949	82.6618	147.949	81.696	147.949	82.7103	147.949	81.4221	147.949	82.7035	147.949	81.1524	147.949	82.6452	147.949	80.9016	147.949	82.5424	147.949	80.6832	147.949	82.4049	147.949	80.5083	147.949	82.2439	147.949	80.384	147.949	82.0712	147.949	80.3135	147.949	81.8974	147.949	80.2951	147.949	81.7315	147.949	80.3235	147.949	81.5797	147.949	80.3901	147.949	81.4458	147.949	80.4847	147.949	81.3298	147.949	80.5962	147.949	81.2279	147.949	80.7143	147.949	81.1337	147.949	80.8305	147.949	81.0396	147.949	80.9394
153.809	82.319	153.809	82.1181	153.809	82.4714	153.809	81.8782	153.809	82.5688	153.809	81.6109	153.809	82.6078	153.809	81.3297	153.809	82.5889	153.809	81.0486	153.809	82.5164	153.809	80.7818	153.809	82.3981	153.809	80.5421	153.809	82.2448	153.809	80.3405	153.809	82.0689	153.809	80.1852	153.809	81.8832	153.809	80.0809	153.809	81.6987	153.809	80.0289	153.809	81.5237	153.809	80.0269	153.809	81.3632	153.809	80.0694	153.809	81.219	153.809	80.1481	153.809	81.0898	153.809	80.2531	153.809	80.9714	153.809	80.3737	153.809	80.858	153.809	80.4999	153.809	80.7437	153.809	80.6245
159.668	82.2901	159.668	82.0907	159.668	82.4428	159.668	81.8545	159.668	82.542	159.668	81.5937	159.668	82.5842	159.668	81.3222	159.668	82.57	159.668	81.0545	159.668	82.5035	159.668	80.8044	159.668	82.3924	159.668	80.584	159.668	82.247	159.668	80.4025	159.668	82.0792	159.668	80.2658	159.668	81.9006	159.668	80.1763	159.668	81.7218	159.668	80.1333	159.668	81.5507	159.668	80.1339	159.668	81.3929	159.668	80.1729	159.668	81.2513	159.668	80.2438	159.668	81.1252	159.668	80.3386	159.668	81.011	159.668	80.4486	159.668	80.9028	159.668	80.5654	159.668	80.7944	159.668	80.6819
165.527	82.2627	165.527	82.0672	165.527	82.4101	165.527	81.8338	165.527	82.5023	165.527	81.5756	165.527	82.5364	165.527	81.3074	165.527	82.5136	165.527	81.0452	165.527	82.4397	165.527	80.8041	165.527	82.3243	165.527	80.5977	165.527	82.1804	165.527	80.436	165.527	82.0222	165.527	80.3253	165.527	81.8633	165.527	80.2673	165.527	81.7149	165.527	80.2597	165.527	81.5841	165.527	80.2972	165.527	81.4736	165.527	80.3723	165.527	81.3823	165.527	80.4758	165.527	81.305	165.527	80.5976	165.527	81.2336	165.527	80.7271	165.527	81.1588	165.527	80.8543	165.527	81.0728	165.527	80.9712
171.387	82.3964	171.387	82.209	171.387	82.5282	171.387	81.9757	171.387	82.5976	171.387	81.7092	171.387	82.6013	171.387	81.424	171.387	82.5406	171.387	81.1359	171.387	82.421	171.387	80.8616	171.387	82.2527	171.387	80.6166	171.387	82.0499	171.387	80.4143	171.387	81.8297	171.387	80.2643	171.387	81.61	171.387	80.1714	171.387	81.4076	171.387	80.1355	171.387	81.2361	171.387	80.1521	171.387	81.1033	171.387	80.2127	171.387	81.0099	171.387	80.3061	171.387	80.9489	171.387	80.419	171.387	80.9067	171.387	80.5377	171.387	80.8671	171.387	80.6493	171.387	80.8157	171.387	80.7437
177.246	82.2276	177.246	82.0328	177.246	82.3635	177.246	81.7886	177.246	82.4347	177.246	81.5073	177.246	82.4391	177.246	81.2031	177.246	82.3788	177.246	80.8915	177.246	82.2595	177.246	80.5884	177.246	82.0902	177.246	80.3087	177.246	81.8818	177.246	80.0656	177.246	81.6456	177.246	79.87	177.246	81.3934	177.246	79.7298	177.246	81.1378	177.246	79.6489	177.246	80.8938	177.246	79.6268	177.246	80.6781	177.246	79.658	177.246	80.5061	177.246	79.7319	177.246	80.3844	177.246	79.8335	177.246	80.3065	177.246	79.9455	177.246	80.2536	177.246	80.0511	177.246	80.2034	177.246	80.1384
183.105	81.7192	183.105	81.5246	183.105	81.8554	183.105	81.2828	183.105	81.927	183.105	81.0088	183.105	81.9337	183.105	80.7205	183.105	81.8812	183.105	80.4367	183.105	81.7813	183.105	80.1749	183.105	81.6498	183.105	79.9493	183.105	81.5038	183.105	79.7694	183.105	81.3573	183.105	79.6392	183.105	81.2176	183.105	79.5587	183.105	81.0845	183.105	79.5249	183.105	80.9534	183.105	79.5337	183.105	80.82	183.105	79.5798	183.105	80.6853	183.105	79.6568	183.105	80.5541	183.105	79.7567	183.105	80.4316	183.105	79.87	183.105	80.3186	183.105	79.9871	183.105	80.2106	183.105	80.1013
188.965	81.794	188.965	81.5728	188.965	81.9505	188.965	81.2985	188.965	82.0349	188.965	80.9861	188.965	82.0443	188.965	80.6535	188.965	81.9812	188.965	80.3205	188.965	81.8535	188.965	80.0071	188.965	81.6748	188.965	79.7316	188.965	81.4632	188.965	79.5082	188.965	81.2394	188.965	79.3461	188.965	81.0235	188.965	79.2483	188.965	80.8316	188.965	79.2136	188.965	80.6732	188.965	79.2367	188.965	80.5504	188.965	79.3102	188.965	80.4581	188.965	79.4244	188.965	80.3856	188.965	79.5674	188.965	80.3187	188.965	79.7249	188.965	80.2429	188.965	79.8822	188.965	80.1469	188.965	80.0259
196.289	81.9542	196.289	81.7588	196.289	82.0811	196.289	81.5056	196.289	82.1333	196.289	81.2091	196.289	82.1101	196.289	80.8865	196.289	82.0161	196.289	80.5568	196.289	81.8619	196.289	80.239	196.289	81.663	196.289	79.9501	196.289	81.4373	196.289	79.7036	196.289	81.2019	196.289	79.5079	196.289	80.9703	196.289	79.3663	196.289	80.7508	196.289	79.2786	196.289	80.5481	196.289	79.2417	196.289	80.3665	196.289	79.2513	196.289	80.2105	196.289	79.3014	196.289	80.0824	196.289	79.3834	196.289	79.9786	196.289	79.4861	196.289	79.8889	196.289	79.5967	196.289	79.8004	196.289	79.7035
203.613	81.7739	203.613	81.571	203.613	81.8996	203.613	81.3035	203.613	81.9405	203.613	80.9876	203.613	81.8943	203.613	80.6424	203.613	81.7653	203.613	80.2893	203.613	81.565	203.613	79.95	203.613	81.3121	203.613	79.6443	203.613	81.0303	203.613	79.3884	203.613	80.745	203.613	79.1924	203.613	80.4779	203.613	79.0602	203.613	80.244	203.613	78.9899	203.613	80.0508	203.613	78.9762	203.613	79.9007	203.613	79.0111	203.613	79.7925	203.613	79.0851	203.613	79.7205	203.613	79.1864	203.613	79.6727	203.613	79.3006	203.613	79.632	203.613	79.4124	203.613	79.5809	203.613	79.5083
210.938	81.7876	210.938	81.6022	210.938	81.9001	210.938	81.3543	210.938	81.9334	210.938	81.0573	210.938	81.8859	210.938	80.7272	210.938	81.7621	210.938	80.3817	210.938	81.5724	210.938	80.039	210.938	81.3328	210.938	79.7162	210.938	81.0625	210.938	79.4279	210.938	80.7799	210.938	79.1845	210.938	80.4998	210.938	78.9919	210.938	80.2315	210.938	78.8522	210.938	79.9812	210.938	78.7648	210.938	79.7557	210.938	78.7278	210.938	79.5634	210.938	78.737	210.938	79.4107	210.938	78.7853	210.938	79.2958	210.938	78.8617	210.938	79.2066	210.938	78.9519	210.938	79.1265	210.938	79.0426
218.262	81.4086	218.262	81.2057	218.262	81.5514	218.262	80.9548	218.262	81.6262	218.262	80.671	218.262	81.6296	218.262	80.3717	218.262	81.5628	218.262	80.0752	218.262	81.4325	218.262	79.7984	218.262	81.25	218.262	79.5553	218.262	81.0303	218.262	79.355	218.262	80.7902	218.262	79.2011	218.262	80.5451	218.262	79.0919	218.262	80.3071	218.262	79.0224	218.262	80.0845	218.262	78.9869	218.262	79.8839	218.262	78.9802	218.262	79.711	218.262	78.9984	218.262	79.5696	218.262	79.0377	218.262	79.4589	218.262	79.0931	218.262	79.3717	218.262	79.1585	218.262	79.2975	218.262	79.2275
225.586	81.3982	225.586	81.1624	225.586	81.568	225.586	80.8765	225.586	81.6605	225.586	80.5593	225.586	81.6703	225.586	80.2317	225.586	81.599	225.586	79.9142	225.586	81.4554	225.586	79.6252	225.586	81.2548	225.586	79.3786	225.586	81.0159	225.586	79.1828	225.586	80.7571	225.586	79.0405	225.586	80.4935	225.586	78.9501	225.586	80.2376	225.586	78.9075	225.586	80.0024	225.586	78.9082	225.586	79.8038	225.586	78.9472	225.586	79.6565	225.586	79.0189	225.586	79.5653	225.586	79.1144	225.586	79.5187	225.586	79.2208	225.586	79.4925	225.586	79.3225	225.586	79.4604	225.586	79.405
232.91	81.5914	232.91	81.367	232.91	81.7349	232.91	81.0777	232.91	81.7874	232.91	80.7435	232.91	81.7463	232.91	80.3864	232.91	81.6177	232.91	80.0279	232.91	81.4163	232.91	79.6868	232.91	81.1624	232.91	79.3769	232.91	80.8772	232.91	79.1067	232.91	80.5767	232.91	78.8801	232.91	80.2682	232.91	78.699	232.91	79.9543	232.91	78.5653	232.91	79.6426	232.91	78.4825	232.91	79.3544	232.91	78.4544	232.91	79.1221	232.91	78.481	232.91	78.9722	232.91	78.5537	232.91	78.9036	232.91	78.6537	232.91	78.8847	232.91	78.7545	232.91	78.8714	232.91	78.8312
241.699	80.9029	241.699	80.6719	241.699	81.0657	241.699	80.391	241.699	81.15	241.699	80.0841	241.699	81.1541	241.699	79.7782	241.699	81.0854	241.699	79.4981	241.699	80.9591	241.699	79.2615	241.699	80.7941	241.699	79.0737	241.699	80.6062	241.699	78.9275	241.699	80.3995	241.699	78.8058	241.699	80.1636	241.699	78.6878	241.699	79.8775	241.699	78.5564	241.699	79.5244	241.699	78.4039	241.699	79.1086	241.699	78.235	241.699	78.6664	241.699	78.0653	241.699	78.2604	241.699	77.9151	241.699	77.9521	241.699	77.7993	241.699	77.7679	241.699	77.7227	241.699	77.6905	241.699	77.684
250.488	79.9102	250.488	79.6096	250.488	80.1591	250.488	79.2859	250.488	80.3409	250.488	78.9771	250.488	80.4542	250.488	78.723	250.488	80.5105	250.488	78.5543	250.488	80.5308	250.488	78.4815	250.488	80.5371	250.488	78.4913	250.488	80.5409	250.488	78.5503	250.488	80.5335	250.488	78.6157	250.488	80.4844	250.488	78.6456	250.488	80.3508	250.488	78.6074	250.488	80.0939	250.488	78.4828	250.488	79.694	250.488	78.2711	250.488	79.164	250.488	77.9908	250.488	78.5562	250.488	77.678	250.488	77.9583	250.488	77.3825	250.488	77.4707	250.488	77.1618	250.488	77.1682	250.488	77.0736
259.277	79.0329	259.277	78.571	259.277	79.2588	259.277	77.9069	259.277	79.2441	259.277	77.1203	259.277	79.0144	259.277	76.3685	259.277	78.644	259.277	75.8937	259.277	78.2814	259.277	75.9161	259.277	78.1455	259.277	76.4459	259.277	78.4195	259.277	77.276	259.277	79.0919	259.277	78.1706	259.277	79.9625	259.277	78.9817	259.277	80.8076	259.277	79.6464	259.277	81.4847	259.277	80.1529	259.277	81.936	259.277	80.5168	259.277	82.1605	259.277	80.7688	259.277	82.191	259.277	80.9478	259.277	82.0783	259.277	81.0959	259.277	81.8802	259.277	81.2502	259.277	81.6516	259.277	81.4345
268.066	83.4503	268.066	83.0672	268.066	83.6231	268.066	82.4739	268.066	83.5814	268.066	81.6704	268.066	83.3174	268.066	80.6623	268.066	82.8207	268.066	79.4757	268.066	82.0859	268.066	78.1902	268.066	81.1326	268.066	76.9985	268.066	80.0526	268.066	76.2425	268.066	79.0879	268.066	76.2442	268.066	78.6353	268.066	76.9685	268.066	78.9461	268.066	78.07	268.066	79.8134	268.066	79.2355	268.066	80.8349	268.066	80.3039	268.066	81.749	268.066	81.2162	268.066	82.456	268.066	81.9589	268.066	82.9391	268.066	82.5346	268.066	83.2117	268.066	82.9484	268.066	83.294	268.066	83.2027
276.855	83.187	276.855	82.8874	276.855	83.342	276.855	82.4492	276.855	83.3458	276.855	81.8782	276.855	83.1923	276.855	81.1815	276.855	82.8779	276.855	80.3722	276.855	82.405	276.855	79.4788	276.855	81.7861	276.855	78.5608	276.855	81.0533	276.855	77.7291	276.855	80.274	276.855	77.1479	276.855	79.5685	276.855	76.9747	276.855	79.1011	276.855	77.25	276.855	79.0054	276.855	77.8599	276.855	79.2822	276.855	78.6274	276.855	79.7939	276.855	79.4063	276.855	80.3643	276.855	80.1055	276.855	80.8591	276.855	80.6745	276.855	81.2012	276.855	81.084	276.855	81.3562	276.855	81.3154
287.109	82.8905	287.109	82.6483	287.109	82.988	287.109	82.2636	287.109	82.94	287.109	81.7424	287.109	82.7487	287.109	81.0974	287.109	82.42	287.109	80.3528	287.109	81.9665	287.109	79.5505	287.109	81.4111	287.109	78.7562	287.109	80.7943	287.109	78.0591	287.109	80.1818	287.109	77.5575	287.109	79.6662	287.109	77.3261	287.109	79.3436	287.109	77.3811	287.109	79.2644	287.109	77.676	287.109	79.3995	287.109	78.1298	287.109	79.6608	287.109	78.6572	287.109	79.9515	287.109	79.1853	287.109	80.1973	287.109	79.6566	287.109	80.3501	287.109	80.0286	287.109	80.3807	287.109	80.2741
297.363	83.0342	297.363	82.7861	297.363	83.1436	297.363	82.405	297.363	83.1081	297.363	81.8963	297.363	82.9239	297.363	81.2674	297.363	82.5927	297.363	80.5331	297.363	82.1256	297.363	79.7239	297.363	81.547	297.363	78.8968	297.363	80.8984	297.363	78.1427	297.363	80.2437	297.363	77.5773	297.363	79.671	297.363	77.3023	297.363	79.2814	297.363	77.3514	297.363	79.1537	297.363	77.6749	297.363	79.2983	297.363	78.1762	297.363	79.6404	297.363	78.7588	297.363	80.0554	297.363	79.3458	297.363	80.4231	297.363	79.8783	297.363	80.6592	297.363	80.3092	297.363	80.7211	297.363	80.5998
307.617	83.3521	307.617	83.0685	307.617	83.5004	307.617	82.6605	307.617	83.5033	307.617	82.1388	307.617	83.3539	307.617	81.5153	307.617	83.0506	307.617	80.8071	307.617	82.5988	307.617	80.0415	307.617	82.0124	307.617	79.2629	307.617	81.3179	307.617	78.5356	307.617	80.5614	307.617	77.939	307.617	79.8163	307.617	77.5494	307.617	79.1839	307.617	77.4131	307.617	78.7785	307.617	77.5313	307.617	78.6851	307.617	77.8643	307.617	78.9	307.617	78.3461	307.617	79.3113	307.617	78.8972	307.617	79.7548	307.617	79.433	307.617	80.0892	307.617	79.8741	307.617	80.2316	307.617	80.155
319.336	83.0833	319.336	82.7369	319.336	83.2927	319.336	82.2706	319.336	83.3517	319.336	81.7036	319.336	83.2522	319.336	81.0559	319.336	82.9931	319.336	80.3498	319.336	82.5824	319.336	79.6137	319.336	82.0395	319.336	78.8889	319.336	81.3992	319.336	78.2349	319.336	80.7165	319.336	77.7261	319.336	80.0658	319.336	77.4313	319.336	79.5265	319.336	77.3829	319.336	79.1586	319.336	77.5613	319.336	78.9887	319.336	77.9088	319.336	79.0113	319.336	78.3541	319.336	79.1893	319.336	78.8273	319.336	79.4477	319.336	79.263	319.336	79.6881	319.336	79.6018	319.336	79.8217	319.336	79.7963
329.59	83.4049	329.59	83.0752	329.59	83.5926	329.59	82.6124	329.59	83.6321	329.59	82.0276	329.59	83.521	329.59	81.3356	329.59	83.2616	329.59	80.5585	329.59	82.8624	329.59	79.7304	329.59	82.3367	329.59	78.9056	329.59	81.7034	329.59	78.1635	329.59	80.9926	329.59	77.6016	329.59	80.2568	329.59	77.3065	329.59	79.5801	329.59	77.3133	329.59	79.0727	329.59	77.5887	329.59	78.8375	329.59	78.0539	329.59	78.913	329.59	78.6176	329.59	79.234	329.59	79.1936	329.59	79.6581	329.59	79.7042	329.59	80.0355	329.59	80.0824	329.59	80.2591	329.59	80.2767
341.309	83.6744	341.309	83.3163	341.309	83.8986	341.309	82.8356	341.309	83.9803	341.309	82.2455	341.309	83.9152	341.309	81.5617	341.309	83.7058	341.309	80.8055	341.309	83.3626	341.309	80.0093	341.309	82.905	341.309	79.2234	341.309	82.3594	341.309	78.5208	341.309	81.7572	341.309	77.99	341.309	81.1346	341.309	77.7092	341.309	80.5358	341.309	77.7111	341.309	80.023	341.309	77.9689	341.309	79.6797	341.309	78.4147	341.309	79.5825	341.309	78.9655	341.309	79.7397	341.309	79.5372	341.309	80.0576	341.309	80.0487	341.309	80.3877	341.309	80.4276	341.309	80.5999	341.309	80.6195
353.027	84.6278	353.027	84.1086	353.027	84.9875	353.027	83.4439	353.027	85.1756	353.027	82.6505	353.027	85.184	353.027	81.7495	353.027	85.0126	353.027	80.7701	353.027	84.673	353.027	79.7556	353.027	84.1902	353.027	78.7755	353.027	83.6	353.027	77.9362	353.027	82.9483	353.027	77.3747	353.027	82.2938	353.027	77.2069	353.027	81.705	353.027	77.4549	353.027	81.2474	353.027	78.0324	353.027	80.9677	353.027	78.8026	353.027	80.8871	353.027	79.6342	353.027	80.9947	353.027	80.4172	353.027	81.2349	353.027	81.0632	353.027	81.5084	353.027	81.5077	353.027	81.7006	353.027	81.7178
366.211	84.3583	366.211	83.5287	366.211	85.0298	366.211	82.5481	366.211	85.5339	366.211	81.4175	366.211	85.8653	366.211	80.1322	366.211	86.0272	366.211	78.6876	366.211	86.0318	366.211	77.096	366.211	85.8968	366.211	75.4197	366.211	85.6403	366.211	73.8289	366.211	85.2778	366.211	72.6436	366.211	84.8214	366.211	72.2031	366.211	84.2821	366.211	72.5597	366.211	83.6792	366.211	73.4697	366.211	83.0588	366.211	74.6762	366.211	82.4983	366.211	76.0117	366.211	82.0652	366.211	77.3517	366.211	81.7497	366.211	78.5886	366.211	81.4545	366.211	79.6414	366.211	81.0564	366.211	80.4655
379.395	75.0839	379.395	73.2678	379.395	76.7507	379.395	71.5459	379.395	78.1507	379.395	70.2823	379.395	79.2396	379.395	69.7317	379.395	80.0122	379.395	69.7672	379.395	80.4869	379.395	70.0246	379.395	80.6984	379.395	70.1934	379.395	80.6953	379.395	70.0887	379.395	80.5399	379.395	69.6054	379.395	80.3012	379.395	68.6694	379.395	80.0358	379.395	67.1921	379.395	79.7688	379.395	65.033	379.395	79.4938	379.395	62.1956	379.395	79.1814	379.395	60.8848	379.395	78.7762	379.395	64.3028	379.395	78.1892	379.395	68.4617	379.395	77.3081	379.395	71.7377	379.395	76.0169	379.395	74.2021
392.578	77.1763	392.578	76.9688	392.578	77.4325	392.578	76.7954	392.578	77.7251	392.578	76.633	392.578	78.0088	392.578	76.4619	392.578	78.2206	392.578	76.267	392.578	78.3018	392.578	76.031	392.578	78.2141	392.578	75.732	392.578	77.947	392.578	75.3475	392.578	77.519	392.578	74.8646	392.578	76.9748	392.578	74.2869	392.578	76.3745	392.578	73.6361	392.578	75.7877	392.578	72.9479	392.578	75.3017	392.578	72.2789	392.578	75.0037	392.578	71.7362	392.578	74.8943	392.578	71.5041	392.578	74.8321	392.578	71.7594	392.578	74.6184	392.578	72.4673	392.578	74.1242	392.578	73.3538
405.762	78.5625	405.762	78.3869	405.762	78.6448	405.762	78.1099	405.762	78.6472	405.762	77.7332	405.762	78.5826	405.762	77.2672	405.762	78.4584	405.762	76.7277	405.762	78.2747	405.762	76.1322	405.762	78.0264	405.762	75.5026	405.762	77.7074	405.762	74.8737	405.762	77.3158	405.762	74.2996	405.762	76.8593	405.762	73.8438	405.762	76.36	405.762	73.5493	405.762	75.8626	405.762	73.4142	405.762	75.445	405.762	73.4081	405.762	75.2023	405.762	73.5128	405.762	75.1729	405.762	73.7401	405.762	75.2727	405.762	74.099	405.762	75.3417	405.762	74.5434	405.762	75.2512	405.762	74.9657
420.41	79.7845	420.41	79.5791	420.41	79.8679	420.41	79.2605	420.41	79.8268	420.41	78.8445	420.41	79.663	420.41	78.351	420.41	79.3817	420.41	77.7976	420.41	78.9913	420.41	77.1921	420.41	78.5036	420.41	76.5317	420.41	77.9358	420.41	75.8116	420.41	77.3131	420.41	75.0432	420.41	76.6682	420.41	74.2752	420.41	76.0312	420.41	73.6036	420.41	75.4291	420.41	73.153	420.41	74.9178	420.41	73.0246	420.41	74.6119	420.41	73.24	420.41	74.6171	420.41	73.7233	420.41	74.8846	420.41	74.3288	420.41	75.2063	420.41	74.8899	420.41	75.3698	420.41	75.2647
435.059	79.425	435.059	79.2388	435.059	79.4911	435.059	78.9417	435.059	79.4363	435.059	78.5515	435.059	79.2665	435.059	78.09	435.059	78.9931	435.059	77.5765	435.059	78.6319	435.059	77.0213	435.059	78.203	435.059	76.4266	435.059	77.7303	435.059	75.7959	435.059	77.2369	435.059	75.1472	435.059	76.7371	435.059	74.5172	435.059	76.2302	435.059	73.9554	435.059	75.7148	435.059	73.5141	435.059	75.2296	435.059	73.2543	435.059	74.8834	435.059	73.2487	435.059	74.793	435.059	73.5386	435.059	74.9433	435.059	74.0561	435.059	75.1579	435.059	74.6244	435.059	75.2333	435.059	75.0545
451.172	80.3361	451.172	80.0051	451.172	80.5118	451.172	79.5338	451.172	80.5191	451.172	78.9458	451.172	80.3428	451.172	78.275	451.172	79.9716	451.172	77.5567	451.172	79.4124	451.172	76.8132	451.172	78.7031	451.172	76.0458	451.172	77.915	451.172	75.2453	451.172	77.1418	451.172	74.4223	451.172	76.4701	451.172	73.6479	451.172	75.9413	451.172	73.0736	451.172	75.5485	451.172	72.8702	451.172	75.304	451.172	73.1015	451.172	75.2987	451.172	73.6847	451.172	75.6074	451.172	74.4721	451.172	76.117	451.172	75.312	451.172	76.5679	451.172	76.0557	451.172	76.7458	451.172	76.5663
465.82	80.5773	465.82	80.2355	465.82	80.7738	465.82	79.7689	465.82	80.8079	465.82	79.2072	465.82	80.6669	465.82	78.5906	465.82	80.3504	465.82	77.9602	465.82	79.8777	465.82	77.3405	465.82	79.2818	465.82	76.7258	465.82	78.5977	465.82	76.0833	465.82	77.8677	465.82	75.3734	465.82	77.1578	465.82	74.5794	465.82	76.5311	465.82	73.7374	465.82	75.9813	465.82	72.9639	465.82	75.4427	465.82	72.4609	465.82	74.9112	465.82	72.4329	465.82	74.5347	465.82	72.9039	465.82	74.4866	465.82	73.648	465.82	74.6989	465.82	74.3536	465.82	74.8831	465.82	74.7937
483.398	80.6402	483.398	80.3017	483.398	80.8111	483.398	79.813	483.398	80.8177	483.398	79.2186	483.398	80.6776	483.398	78.5897	483.398	80.4192	483.398	78.0055	483.398	80.0748	483.398	77.518	483.398	79.6674	483.398	77.1227	483.398	79.1977	483.398	76.7591	483.398	78.6455	483.398	76.3424	483.398	77.9912	483.398	75.8018	483.398	77.2499	483.398	75.1105	483.398	76.5036	483.398	74.3209	483.398	75.9143	483.398	73.628	483.398	75.6735	483.398	73.3901	483.398	75.8537	483.398	73.8635	483.398	76.2968	483.398	74.8386	483.398	76.7113	483.398	75.8494	483.398	76.8455	483.398	76.5627
499.512	80.7499	499.512	80.4391	499.512	80.8536	499.512	79.9383	499.512	80.7561	499.512	79.2949	499.512	80.4818	499.512	78.5904	499.512	80.0757	499.512	77.9234	499.512	79.6021	499.512	77.3676	499.512	79.1309	499.512	76.9314	499.512	78.7115	499.512	76.562	499.512	78.3468	499.512	76.1937	499.512	77.9878	499.512	75.7896	499.512	77.5651	499.512	75.342	499.512	77.0547	499.512	74.8601	499.512	76.5437	499.512	74.3963	499.512	76.2311	499.512	74.1162	499.512	76.2754	499.512	74.2772	499.512	76.5927	499.512	74.9525	499.512	76.9039	499.512	75.8508	499.512	76.9469	499.512	76.5877
517.09	81.9476	517.09	81.6536	517.09	82.0124	517.09	81.1346	517.09	81.8664	517.09	80.4291	517.09	81.5409	517.09	79.6159	517.09	81.0697	517.09	78.8023	517.09	80.482	517.09	78.0863	517.09	79.8013	517.09	77.5046	517.09	79.0568	517.09	77.012	517.09	78.2982	517.09	76.5194	517.09	77.5885	517.09	75.9593	517.09	76.9621	517.09	75.3337	517.09	76.3954	517.09	74.7288	517.09	75.8762	517.09	74.3083	517.09	75.5484	517.09	74.2759	517.09	75.6807	517.09	74.7486	517.09	76.2756	517.09	75.5971	517.09	76.9373	517.09	76.4921	517.09	77.2724	517.09	77.1137
536.133	81.8095	536.133	81.604	536.133	81.7186	536.133	81.1121	536.133	81.3448	536.133	80.3792	536.133	80.722	536.133	79.5042	536.133	79.9155	536.133	78.6441	536.133	79.0432	536.133	77.9657	536.133	78.2831	536.133	77.5389	536.133	77.805	536.133	77.2726	536.133	77.6238	536.133	76.9952	536.133	77.5448	536.133	76.581	536.133	77.3049	536.133	75.9949	536.133	76.741	536.133	75.2566	536.133	75.8906	536.133	74.4074	536.133	75.0858	536.133	73.5894	536.133	74.8651	536.133	73.2178	536.133	75.3468	536.133	73.7359	536.133	75.9829	536.133	74.8477	536.133	76.2187	536.133	75.8187
555.176	82.0892	555.176	81.885	555.176	82.027	555.176	81.4114	555.176	81.7038	555.176	80.6842	555.176	81.1265	555.176	79.7601	555.176	80.3148	555.176	78.756	555.176	79.3138	555.176	77.8434	555.176	78.2084	555.176	77.1834	555.176	77.1583	555.176	76.8142	555.176	76.4185	555.176	76.6217	555.176	76.159	555.176	76.4503	555.176	76.2029	555.176	76.2019	555.176	76.1774	555.176	75.8386	555.176	75.8448	555.176	75.3622	555.176	75.2516	555.176	74.8623	555.176	74.7999	555.176	74.6049	555.176	74.9763	555.176	74.8772	555.176	75.6236	555.176	75.5361	555.176	76.1136	555.176	76.0735
574.219	82.3672	574.219	82.2206	574.219	82.2769	574.219	81.8296	574.219	81.9705	574.219	81.2088	574.219	81.4667	574.219	80.3926	574.219	80.7738	574.219	79.4346	574.219	79.8929	574.219	78.4196	574.219	78.8278	574.219	77.4764	574.219	77.6278	574.219	76.7362	574.219	76.4983	574.219	76.2355	574.219	75.8001	574.219	75.8927	574.219	75.6584	574.219	75.5982	574.219	75.772	574.219	75.2816	574.219	75.8394	574.219	74.9183	574.219	75.775	574.219	74.5598	574.219	75.6211	574.219	74.3938	574.219	75.5062	574.219	74.6266	574.219	75.5597	574.219	75.1486	574.219	75.6776	574.219	75.5767
594.727	82.2765	594.727	82.1522	594.727	82.1688	594.727	81.8059	594.727	81.8424	594.727	81.2617	594.727	81.3384	594.727	80.5463	594.727	80.7114	594.727	79.6833	594.727	79.989	594.727	78.702	594.727	79.1353	594.727	77.673	594.727	78.0934	594.727	76.7504	594.727	76.9048	594.727	76.1249	594.727	75.7857	594.727	75.8389	594.727	75.0481	594.727	75.7347	594.727	74.8645	594.727	75.6469	594.727	75.0906	594.727	75.5166	594.727	75.4062	594.727	75.3656	594.727	75.6394	594.727	75.2894	594.727	75.8766	594.727	75.4449	594.727	76.1918	594.727	75.8582	594.727	76.3984	594.727	76.2742
615.234	82.7104	615.234	82.7608	615.234	82.3654	615.234	82.5124	615.234	81.7734	615.234	82.0145	615.234	81.0074	615.234	81.3539	615.234	80.1486	615.234	80.6133	615.234	79.2671	615.234	79.8238	615.234	78.3965	615.234	78.9698	615.234	77.54	615.234	78.0682	615.234	76.7382	615.234	77.244	615.234	76.0766	615.234	76.6505	615.234	75.5144	615.234	76.2687	615.234	74.7966	615.234	75.8974	615.234	73.7098	615.234	75.3407	615.234	72.5671	615.234	74.5744	615.234	72.452	615.234	73.9015	615.234	73.6363	615.234	73.8913	615.234	74.931	615.234	74.6096	615.234	75.5544	615.234	75.3689
637.207	82.7507	637.207	82.9274	637.207	82.2116	637.207	82.7641	637.207	81.33	637.207	82.3148	637.207	80.191	637.207	81.6616	637.207	78.9494	637.207	80.9037	637.207	77.7526	637.207	80.13	637.207	76.6359	637.207	79.39	637.207	75.6165	637.207	78.6967	637.207	74.9027	637.207	78.0623	637.207	74.7003	637.207	77.5313	637.207	74.8382	637.207	77.1707	637.207	74.9863	637.207	76.998	637.207	74.9444	637.207	76.9159	637.207	74.6482	637.207	76.7653	637.207	74.2838	637.207	76.4844	637.207	74.3737	637.207	76.2123	637.207	75.0601	637.207	76.1202	637.207	75.7642	637.207	76.082
659.18	84.0876	659.18	84.4519	659.18	83.2904	659.18	84.3973	659.18	82.0697	659.18	83.9388	659.18	80.4991	659.18	83.1004	659.18	78.7449	659.18	81.9516	659.18	77.0208	659.18	80.6487	659.18	75.442	659.18	79.4201	659.18	73.9271	659.18	78.4478	659.18	72.3526	659.18	77.7916	659.18	70.9418	659.18	77.5113	659.18	70.5374	659.18	77.6722	659.18	71.391	659.18	78.1055	659.18	72.2777	659.18	78.4664	659.18	72.1942	659.18	78.5235	659.18	71.0753	659.18	78.2203	659.18	70.4277	659.18	77.5948	659.18	71.9348	659.18	76.7089	659.18	73.9989	659.18	75.5619
682.617	85.6821	682.617	86.0155	682.617	84.7026	682.617	85.7573	682.617	83.1098	682.617	85.0284	682.617	81.0832	682.617	84.0097	682.617	78.9148	682.617	82.8904	682.617	76.7194	682.617	81.7823	682.617	74.3411	682.617	80.7204	682.617	71.7579	682.617	79.7326	682.617	69.2262	682.617	78.8138	682.617	66.9624	682.617	77.9135	682.617	65.3346	682.617	77.1557	682.617	65.4741	682.617	76.9331	682.617	67.2904	682.617	77.4406	682.617	68.9881	682.617	78.3393	682.617	69.7252	682.617	79.1753	682.617	70.3473	682.617	79.6422	682.617	72.8215	682.617	79.4637	682.617	76.0495	682.617	78.3413
707.52	85.2378	707.52	85.6191	707.52	84.6653	707.52	85.6333	707.52	83.9831	707.52	85.1278	707.52	83.1161	707.52	84.053	707.52	81.8971	707.52	82.506	707.52	80.2179	707.52	80.759	707.52	78.1392	707.52	79.1772	707.52	75.8036	707.52	77.9264	707.52	73.2272	707.52	76.9012	707.52	70.4654	707.52	76.1429	707.52	69.1072	707.52	75.8292	707.52	70.7844	707.52	75.8184	707.52	72.5616	707.52	75.8795	707.52	73.2722	707.52	76.2829	707.52	74.2215	707.52	77.3803	707.52	75.803	707.52	78.5534	707.52	76.9531	707.52	78.9988	707.52	77.7428	707.52	78.5685
732.422	84.4354	732.422	84.2528	732.422	84.1015	732.422	83.6768	732.422	83.2175	732.422	82.867	732.422	81.9034	732.422	81.9606	732.422	80.4683	732.422	81.0319	732.422	79.1531	732.422	80.0968	732.422	77.7373	732.422	79.1666	732.422	75.8571	732.422	78.2558	732.422	73.6863	732.422	77.3197	732.422	72.047	732.422	76.3878	732.422	71.0588	732.422	75.7306	732.422	69.3686	732.422	75.5728	732.422	66.8878	732.422	75.6547	732.422	68.231	732.422	75.511	732.422	70.2966	732.422	75.1924	732.422	70.9261	732.422	75.3028	732.422	72.6026	732.422	75.8125	732.422	74.7972	732.422	75.8668
757.324	82.4537	757.324	82.8498	757.324	81.8889	757.324	82.7262	757.324	81.4359	757.324	81.9557	757.324	80.9372	757.324	80.6022	757.324	79.98	757.324	78.7708	757.324	78.2804	757.324	76.4924	757.324	75.8914	757.324	73.847	757.324	73.3309	757.324	71.4831	757.324	71.2322	757.324	70.2874	757.324	69.3624	757.324	69.9556	757.324	67.495	757.324	70.0275	757.324	68.4164	757.324	70.5585	757.324	70.7104	757.324	71.8268	757.324	71.6069	757.324	73.7579	757.324	71.1565	757.324	75.58	757.324	68.9	757.324	76.6795	757.324	67.1661	757.324	76.7701	757.324	72.0416	757.324	75.4682
785.156	83.2651	785.156	78.6432	785.156	84.8355	785.156	72.7266	785.156	83.7712	785.156	78.4506	785.156	79.0311	785.156	82.3974	785.156	55.172	785.156	84.3625	785.156	77.765	785.156	85.3026	785.156	82.4332	785.156	85.7533	785.156	84.0872	785.156	86.0056	785.156	84.3917	785.156	86.0185	785.156	83.9913	785.156	85.5789	785.156	83.2459	785.156	84.6655	785.156	81.8577	785.156	83.4495	785.156	79.009	785.156	81.8447	785.156	75.2777	785.156	79.7211	785.156	76.7365	785.156	77.4602	785.156	79.4814	785.156	74.9909	785.156	79.642	785.156	69.0877	785.156	76.2759	785.156	64.1304
811.523	80.8879	811.523	80.1439	811.523	80.1737	811.523	78.3695	811.523	77.8053	811.523	76.0008	811.523	75.8961	811.523	73.9115	811.523	77.7799	811.523	73.9884	811.523	79.5881	811.523	76.0141	811.523	79.8726	811.523	77.9841	811.523	78.9898	811.523	79.0549	811.523	77.6543	811.523	78.9541	811.523	76.9428	811.523	77.8908	811.523	76.9315	811.523	76.6307	811.523	76.3866	811.523	75.0417	811.523	74.6306	811.523	71.8952	811.523	71.7836	811.523	66.6763	811.523	66.0828	811.523	60.3758	811.523	59.1334	811.523	65.2763	811.523	70.6844	811.523	70.7043	811.523	73.726	811.523	73.444
840.82	81.6957	840.82	80.99	840.82	79.8779	840.82	77.8204	840.82	74.341	840.82	70.8416	840.82	73.1678	840.82	69.609	840.82	79.3026	840.82	76.3279	840.82	81.7913	840.82	79.7765	840.82	82.3131	840.82	81.8606	840.82	81.8564	840.82	83.1141	840.82	80.9602	840.82	83.4336	840.82	80.2502	840.82	82.5904	840.82	80.1882	840.82	80.8999	840.82	80.0946	840.82	78.9667	840.82	79.0585	840.82	75.9472	840.82	76.3102	840.82	71.317	840.82	69.6896	840.82	67.0922	840.82	64.8382	840.82	63.3257	840.82	72.979	840.82	68.339	840.82	74.5863	840.82	72.9287
870.117	78.1706	870.117	80.3875	870.117	74.0203	870.117	80.255	870.117	77.4956	870.117	78.1033	870.117	81.5442	870.117	73.6449	870.117	82.6755	870.117	71.8194	870.117	81.5062	870.117	77.136	870.117	78.8643	870.117	80.7331	870.117	76.3791	870.117	82.5794	870.117	75.3784	870.117	82.8198	870.117	75.7953	870.117	81.5214	870.117	76.2075	870.117	79.2764	870.117	76.561	870.117	75.602	870.117	77.3175	870.117	67.0527	870.117	77.9154	870.117	67.4527	870.117	76.7972	870.117	68.4962	870.117	71.0512	870.117	69.191	870.117	62.8999	870.117	73.8606	870.117	73.6636	870.117	75.6018
900.879	79.8862	900.879	76.8197	900.879	80.7092	900.879	73.2252	900.879	78.8551	900.879	73.8436	900.879	73.7257	900.879	76.1872	900.879	74.7689	900.879	78.1667	900.879	79.5721	900.879	79.6953	900.879	81.2139	900.879	80.458	900.879	81.2724	900.879	80.4194	900.879	81.0559	900.879	80.2523	900.879	80.7511	900.879	80.3274	900.879	80.5163	900.879	79.6264	900.879	80.343	900.879	78.285	900.879	78.9935	900.879	77.4851	900.879	74.3016	900.879	75.4999	900.879	43.2727	900.879	71.5065	900.879	72.7532	900.879	70.7844	900.879	75.0939	900.879	71.2138	900.879	71.4284	900.879	67.7089
933.105	78.9678	933.105	79.6151	933.105	76.74	933.105	79.003	933.105	75.7571	933.105	77.3271	933.105	78.4911	933.105	73.9373	933.105	80.2534	933.105	66.4137	933.105	80.0049	933.105	69.0113	933.105	77.6503	933.105	75.7855	933.105	73.4314	933.105	78.6914	933.105	68.4592	933.105	79.7583	933.105	67.0795	933.105	79.4653	933.105	71.1676	933.105	77.86	933.105	75.3411	933.105	75.8258	933.105	78.0269	933.105	72.8423	933.105	78.8946	933.105	65.1009	933.105	76.6428	933.105	66.4837	933.105	65.5471	933.105	68.8745	933.105	71.7298	933.105	67.0249	933.105	75.1849	933.105	72.3487
965.332	81.8205	965.332	81.1285	965.332	79.8053	965.332	78.6014	965.332	74.661	965.332	76.3037	965.332	76.4616	965.332	76.895	965.332	80.3145	965.332	78.4616	965.332	81.1816	965.332	80.162	965.332	79.5366	965.332	82.0946	965.332	76.1641	965.332	83.4978	965.332	75.2335	965.332	83.9042	965.332	76.5422	965.332	83.498	965.332	77.7655	965.332	82.4196	965.332	79.1785	965.332	80.2149	965.332	80.1448	965.332	76.8766	965.332	79.3856	965.332	72.4984	965.332	75.1074	965.332	64.5457	965.332	59.9185	965.332	68.3396	965.332	71.6005	965.332	71.2285	965.332	74.3062	965.332	73.0776
1,000.49	81.1362	1,000.49	82.1939	1,000.49	77.169	1,000.49	80.92	1,000.49	77.1148	1,000.49	77.9981	1,000.49	80.4328	1,000.49	74.9544	1,000.49	80.0539	1,000.49	72.1471	1,000.49	75.8355	1,000.49	67.1248	1,000.49	64.3514	1,000.49	74.3158	1,000.49	74.4132	1,000.49	79.8651	1,000.49	79.7138	1,000.49	82.2465	1,000.49	81.7071	1,000.49	83.1747	1,000.49	81.4681	1,000.49	82.9546	1,000.49	79.6736	1,000.49	80.4451	1,000.49	78.822	1,000.49	76.4775	1,000.49	80.3921	1,000.49	74.6923	1,000.49	81.2403	1,000.49	75.8572	1,000.49	78.9637	1,000.49	77.8833	1,000.49	71.4021	1,000.49	77.9941	1,000.49	74.3051	1,000.49	77.7025
1,035.64	80.4423	1,035.64	82.348	1,035.64	76.2949	1,035.64	81.7194	1,035.64	79.2409	1,035.64	78.8746	1,035.64	82.0325	1,035.64	74.6132	1,035.64	80.6573	1,035.64	74.0144	1,035.64	74.0662	1,035.64	76.4961	1,035.64	62.0911	1,035.64	78.4233	1,035.64	74.8532	1,035.64	80.0924	1,035.64	77.5798	1,035.64	81.2188	1,035.64	78.2043	1,035.64	80.2311	1,035.64	77.3756	1,035.64	76.4466	1,035.64	74.3776	1,035.64	72.3055	1,035.64	67.6063	1,035.64	63.0236	1,035.64	67.7708	1,035.64	67.9011	1,035.64	72.9885	1,035.64	72.6168	1,035.64	73.7344	1,035.64	75.2852	1,035.64	69.2486	1,035.64	75.3471	1,035.64	60.4833	1,035.64	72.6575
1,072.27	79.5308	1,072.27	82.5807	1,072.27	77.3393	1,072.27	82.9412	1,072.27	81.2672	1,072.27	80.5558	1,072.27	82.5669	1,072.27	75.2955	1,072.27	79.6833	1,072.27	71.8003	1,072.27	71.7874	1,072.27	75.857	1,072.27	74.7065	1,072.27	78.4544	1,072.27	79.064	1,072.27	79.1686	1,072.27	80.1557	1,072.27	78.7371	1,072.27	80.4979	1,072.27	77.5528	1,072.27	80.1932	1,072.27	73.8681	1,072.27	77.9985	1,072.27	71.4668	1,072.27	72.8527	1,072.27	71.5528	1,072.27	61.8922	1,072.27	73.3166	1,072.27	74.3734	1,072.27	75.574	1,072.27	77.0234	1,072.27	75.4426	1,072.27	73.9926	1,072.27	74.4202	1,072.27	53.3793	1,072.27	70.9936
1,108.89	79.7154	1,108.89	82.9922	1,108.89	75.1221	1,108.89	82.7965	1,108.89	80.9903	1,108.89	79.2033	1,108.89	83.3757	1,108.89	73.3121	1,108.89	81.1905	1,108.89	77.7409	1,108.89	73.6237	1,108.89	80.5489	1,108.89	74.2496	1,108.89	79.2146	1,108.89	78.6627	1,108.89	74.5534	1,108.89	79.4135	1,108.89	75.0453	1,108.89	79.3735	1,108.89	78.0569	1,108.89	80.1874	1,108.89	76.3295	1,108.89	80.7138	1,108.89	72.076	1,108.89	79.4557	1,108.89	74.9004	1,108.89	74.4172	1,108.89	78.1536	1,108.89	71.217	1,108.89	78.6231	1,108.89	77.6093	1,108.89	76.7796	1,108.89	77.1089	1,108.89	75.4755	1,108.89	66.7592	1,108.89	71.6855
1,148.44	78.2124	1,148.44	80.1215	1,148.44	81.1619	1,148.44	82.8753	1,148.44	82.4009	1,148.44	83.1052	1,148.44	79.6142	1,148.44	80.9412	1,148.44	75.942	1,148.44	75.5203	1,148.44	80.8458	1,148.44	64.9139	1,148.44	82.9184	1,148.44	72.5014	1,148.44	82.407	1,148.44	74.0757	1,148.44	80.4569	1,148.44	73.8692	1,148.44	79.594	1,148.44	75.3659	1,148.44	79.5397	1,148.44	75.1119	1,148.44	79.8524	1,148.44	75.9904	1,148.44	79.5388	1,148.44	75.5347	1,148.44	76.3512	1,148.44	76.7531	1,148.44	64.4961	1,148.44	77.4946	1,148.44	71.3917	1,148.44	74.7497	1,148.44	75.8816	1,148.44	70.7228	1,148.44	71.9044	1,148.44	53.7852
1,189.45	75.7702	1,189.45	81.7664	1,189.45	81.2873	1,189.45	84.4759	1,189.45	84.1418	1,189.45	82.9902	1,189.45	82.8253	1,189.45	75.6969	1,189.45	74.5379	1,189.45	74.9367	1,189.45	76.1408	1,189.45	82.4648	1,189.45	81.8796	1,189.45	84.287	1,189.45	83.5836	1,189.45	84.278	1,189.45	83.1467	1,189.45	82.7355	1,189.45	81.0526	1,189.45	79.6074	1,189.45	77.7119	1,189.45	77.8222	1,189.45	68.2255	1,189.45	79.0199	1,189.45	72.7905	1,189.45	79.3516	1,189.45	77.3472	1,189.45	79.6484	1,189.45	76.0754	1,189.45	77.8829	1,189.45	60.9914	1,189.45	71.2959	1,189.45	72.7102	1,189.45	61.0145	1,189.45	73.5155	1,189.45	63.0062
1,230.47	82.2524	1,230.47	79.691	1,230.47	82.0023	1,230.47	80.3288	1,230.47	78.2466	1,230.47	83.1432	1,230.47	78.3293	1,230.47	83.5119	1,230.47	83.1962	1,230.47	80.0651	1,230.47	84.7472	1,230.47	67.9715	1,230.47	83.4219	1,230.47	71.8031	1,230.47	81.2986	1,230.47	77.0692	1,230.47	79.2682	1,230.47	77.9252	1,230.47	77.4713	1,230.47	76.5078	1,230.47	76.7196	1,230.47	75.5212	1,230.47	74.2502	1,230.47	76.3819	1,230.47	65.0051	1,230.47	77.831	1,230.47	67.1071	1,230.47	77.4565	1,230.47	75.2853	1,230.47	71.7715	1,230.47	74.6613	1,230.47	60.098	1,230.47	59.0802	1,230.47	67.0596	1,230.47	72.949	1,230.47	71.8504
1,274.41	81.1041	1,274.41	81.2202	1,274.41	82.0844	1,274.41	82.2737	1,274.41	81.81	1,274.41	82.2495	1,274.41	79.9083	1,274.41	80.7648	1,274.41	79.7063	1,274.41	78.3611	1,274.41	81.1344	1,274.41	76.7113	1,274.41	80.3016	1,274.41	75.1878	1,274.41	77.762	1,274.41	73.5999	1,274.41	73.1381	1,274.41	71.2778	1,274.41	64.0154	1,274.41	69.0638	1,274.41	65.0615	1,274.41	60.5688	1,274.41	70.8468	1,274.41	69.5839	1,274.41	75.7413	1,274.41	71.5855	1,274.41	76.3543	1,274.41	75.244	1,274.41	72.2077	1,274.41	75.8081	1,274.41	67.4584	1,274.41	71.5785	1,274.41	70.553	1,274.41	61.8356	1,274.41	70.1983	1,274.41	63.1117
1,319.82	84.0538	1,319.82	82.6274	1,319.82	83.8926	1,319.82	82.1693	1,319.82	82.3654	1,319.82	82.6978	1,319.82	81.9331	1,319.82	81.6023	1,319.82	81.6775	1,319.82	77.8582	1,319.82	80.4935	1,319.82	74.0753	1,319.82	78.3976	1,319.82	72.9211	1,319.82	75.2716	1,319.82	73.5071	1,319.82	74.4372	1,319.82	75.457	1,319.82	74.5525	1,319.82	76.8018	1,319.82	75.7564	1,319.82	77.5937	1,319.82	76.1969	1,319.82	78.723	1,319.82	71.7066	1,319.82	77.6089	1,319.82	53.6175	1,319.82	75.7488	1,319.82	72.839	1,319.82	70.9386	1,319.82	75.4861	1,319.82	68.2893	1,319.82	67.0911	1,319.82	71.8929	1,319.82	67.7787	1,319.82	72.8891
1,366.7	84.5231	1,366.7	82.6432	1,366.7	86.1655	1,366.7	83.483	1,366.7	84.7393	1,366.7	82.3845	1,366.7	83.2909	1,366.7	77.9268	1,366.7	84.1086	1,366.7	69.8464	1,366.7	82.6454	1,366.7	75.0085	1,366.7	78.52	1,366.7	77.5765	1,366.7	75.7605	1,366.7	79.4178	1,366.7	74.9225	1,366.7	79.2955	1,366.7	74.7367	1,366.7	78.587	1,366.7	75.354	1,366.7	76.5668	1,366.7	72.5841	1,366.7	73.4709	1,366.7	67.4869	1,366.7	70.5296	1,366.7	56.0735	1,366.7	73.2578	1,366.7	71.3258	1,366.7	73.8146	1,366.7	74.2317	1,366.7	70.7869	1,366.7	68.9174	1,366.7	64.3381	1,366.7	72.0012	1,366.7	67.0595
1,413.57	83.8658	1,413.57	81.2868	1,413.57	85.1295	1,413.57	79.9144	1,413.57	84.8303	1,413.57	80.4586	1,413.57	84.7295	1,413.57	78.9447	1,413.57	85.3534	1,413.57	71.1752	1,413.57	84.1116	1,413.57	72.6668	1,413.57	77.6727	1,413.57	79.2892	1,413.57	62.8966	1,413.57	79.0431	1,413.57	67.7886	1,413.57	72.8548	1,413.57	71.8795	1,413.57	64.8263	1,413.57	71.8377	1,413.57	69.5701	1,413.57	71.6782	1,413.57	74.6177	1,413.57	58.0588	1,413.57	74.3702	1,413.57	69.8057	1,413.57	73.0829	1,413.57	74.3555	1,413.57	75.1633	1,413.57	73.5169	1,413.57	70.2655	1,413.57	70.5651	1,413.57	58.5887	1,413.57	73.1502	1,413.57	65.8129
1,463.38	82.8343	1,463.38	79.708	1,463.38	83.44	1,463.38	78.2656	1,463.38	84.5548	1,463.38	81.6652	1,463.38	86.9453	1,463.38	82.1833	1,463.38	86.4122	1,463.38	80.1512	1,463.38	80.6456	1,463.38	74.2323	1,463.38	77.5176	1,463.38	75.3254	1,463.38	81.3288	1,463.38	79.939	1,463.38	81.6446	1,463.38	77.1421	1,463.38	80.9158	1,463.38	75.8563	1,463.38	73.5429	1,463.38	77.6074	1,463.38	70.3598	1,463.38	79.0478	1,463.38	74.6365	1,463.38	77.4282	1,463.38	75.3928	1,463.38	70.2203	1,463.38	64.3417	1,463.38	70.2867	1,463.38	76.8467	1,463.38	70.7236	1,463.38	71.7512	1,463.38	60.4362	1,463.38	69.8831	1,463.38	65.9715
1,516.11	80.9336	1,516.11	79.644	1,516.11	82.2681	1,516.11	79.2248	1,516.11	84.7477	1,516.11	81.4343	1,516.11	85.7851	1,516.11	82.2168	1,516.11	84.5467	1,516.11	81.8153	1,516.11	81.0312	1,516.11	78.4603	1,516.11	80.0551	1,516.11	71.6148	1,516.11	81.8285	1,516.11	75.0423	1,516.11	79.616	1,516.11	78.2758	1,516.11	78.062	1,516.11	75.3056	1,516.11	73.6441	1,516.11	74.1727	1,516.11	68.6347	1,516.11	76.3852	1,516.11	72.8653	1,516.11	77.6495	1,516.11	73.7949	1,516.11	74.9374	1,516.11	66.9609	1,516.11	73.0962	1,516.11	74.1328	1,516.11	73.6726	1,516.11	71.292	1,516.11	65.9677	1,516.11	68.2205	1,516.11	43.7441
1,568.85	78.6716	1,568.85	80.268	1,568.85	80.815	1,568.85	78.4836	1,568.85	85.7382	1,568.85	79.4989	1,568.85	85.4116	1,568.85	84.172	1,568.85	79.9679	1,568.85	85.2881	1,568.85	82.3887	1,568.85	80.3677	1,568.85	83.3612	1,568.85	69.6789	1,568.85	79.7639	1,568.85	63.9127	1,568.85	75.9086	1,568.85	68.8284	1,568.85	76.6261	1,568.85	70.4308	1,568.85	77.5766	1,568.85	54.9882	1,568.85	76.7525	1,568.85	63.4771	1,568.85	66.589	1,568.85	72.7255	1,568.85	73.7573	1,568.85	75.5342	1,568.85	74.0453	1,568.85	74.5195	1,568.85	76.1434	1,568.85	73.2652	1,568.85	68.8159	1,568.85	63.704	1,568.85	69.9132	1,568.85	66.3537
1,624.51	81.4488	1,624.51	80.0522	1,624.51	83.0463	1,624.51	80.8682	1,624.51	83.1677	1,624.51	80.4418	1,624.51	82.5895	1,624.51	80.2781	1,624.51	81.9279	1,624.51	81.6343	1,624.51	78.5878	1,624.51	80.3485	1,624.51	76.4159	1,624.51	80.6843	1,624.51	77.7996	1,624.51	81.2781	1,624.51	77.9231	1,624.51	76.6111	1,624.51	75.5665	1,624.51	75.2791	1,624.51	75.841	1,624.51	75.1472	1,624.51	75.0501	1,624.51	70.6005	1,624.51	70.7645	1,624.51	73.5795	1,624.51	73.2357	1,624.51	75.7031	1,624.51	65.1825	1,624.51	73.0596	1,624.51	76.9308	1,624.51	73.9786	1,624.51	70.0221	1,624.51	59.5599	1,624.51	62.4611	1,624.51	64.6019
1,681.64	83.329	1,681.64	81.4619	1,681.64	83.9491	1,681.64	79.4606	1,681.64	84.6337	1,681.64	81.1665	1,681.64	84.1154	1,681.64	82.089	1,681.64	78.5602	1,681.64	77.8313	1,681.64	79.8426	1,681.64	76.9545	1,681.64	83.0621	1,681.64	80.7631	1,681.64	82.4298	1,681.64	82.4238	1,681.64	80.9732	1,681.64	81.4953	1,681.64	79.2117	1,681.64	79.7665	1,681.64	77.7782	1,681.64	80.058	1,681.64	72.6207	1,681.64	80.1112	1,681.64	68.7046	1,681.64	76.5577	1,681.64	77.8718	1,681.64	75.3689	1,681.64	74.5318	1,681.64	68.836	1,681.64	71.5847	1,681.64	67.3802	1,681.64	74.6686	1,681.64	68.3606	1,681.64	60.6188	1,681.64	63.9746
1,741.7	83.5299	1,741.7	81.3937	1,741.7	85.6614	1,741.7	81.0857	1,741.7	84.493	1,741.7	78.7483	1,741.7	81.7242	1,741.7	81.1422	1,741.7	82.3393	1,741.7	82.934	1,741.7	80.3909	1,741.7	78.3345	1,741.7	74.4646	1,741.7	69.3512	1,741.7	67.3034	1,741.7	69.9158	1,741.7	75.2295	1,741.7	77.8472	1,741.7	74.8649	1,741.7	75.9563	1,741.7	74.9687	1,741.7	72.6639	1,741.7	75.4187	1,741.7	61.6411	1,741.7	75.5199	1,741.7	65.3761	1,741.7	68.7021	1,741.7	69.574	1,741.7	62.9759	1,741.7	71.3076	1,741.7	71.4175	1,741.7	70.7257	1,741.7	70.714	1,741.7	62.7042	1,741.7	63.1756	1,741.7	57.88
1,803.22	84.9038	1,803.22	82.4603	1,803.22	85.9868	1,803.22	80.8069	1,803.22	84.8795	1,803.22	78.8034	1,803.22	83.2782	1,803.22	79.3669	1,803.22	79.4484	1,803.22	79.4062	1,803.22	78.4349	1,803.22	78.655	1,803.22	79.445	1,803.22	78.9869	1,803.22	77.2171	1,803.22	77.0835	1,803.22	73.1663	1,803.22	77.0328	1,803.22	70.1934	1,803.22	75.0909	1,803.22	63.7219	1,803.22	70.3948	1,803.22	65.3319	1,803.22	72.3311	1,803.22	63.7271	1,803.22	74.4862	1,803.22	68.2057	1,803.22	72.9501	1,803.22	75.9612	1,803.22	67.0635	1,803.22	56.5541	1,803.22	65.2944	1,803.22	75.8289	1,803.22	61.0789	1,803.22	68.4812	1,803.22	58.9923
1,866.21	84.6798	1,866.21	82.4862	1,866.21	84.3556	1,866.21	79.8577	1,866.21	85.0688	1,866.21	80.7759	1,866.21	84.2571	1,866.21	78.3833	1,866.21	78.4999	1,866.21	79.9973	1,866.21	79.6029	1,866.21	79.5102	1,866.21	77.9952	1,866.21	76.9639	1,866.21	76.0046	1,866.21	75.8053	1,866.21	72.6916	1,866.21	73.3597	1,866.21	71.9943	1,866.21	74.0056	1,866.21	72.8941	1,866.21	67.0646	1,866.21	64.2026	1,866.21	69.2098	1,866.21	73.642	1,866.21	68.8148	1,866.21	64.6777	1,866.21	73.6675	1,866.21	68.8676	1,866.21	71.9283	1,866.21	71.4691	1,866.21	70.4114	1,866.21	71.0328	1,866.21	47.1698	1,866.21	68.8824	1,866.21	64.9088
1,932.13	82.5786	1,932.13	82.5198	1,932.13	83.9022	1,932.13	81.8914	1,932.13	84.2989	1,932.13	79.5439	1,932.13	82.8206	1,932.13	78.6307	1,932.13	80.918	1,932.13	80.4869	1,932.13	80.0779	1,932.13	79.1798	1,932.13	79.0876	1,932.13	76.2139	1,932.13	77.4955	1,932.13	75.0117	1,932.13	74.153	1,932.13	65.3588	1,932.13	69.7798	1,932.13	59.5958	1,932.13	65.8309	1,932.13	69.7391	1,932.13	64.0557	1,932.13	67.5759	1,932.13	69.8254	1,932.13	70.3518	1,932.13	64.4757	1,932.13	69.3274	1,932.13	69.4393	1,932.13	67.8232	1,932.13	70.942	1,932.13	62.1437	1,932.13	69.9637	1,932.13	42.5613	1,932.13	69.7076	1,932.13	55.3641
1,999.51	83.0265	1,999.51	81.6477	1,999.51	83.187	1,999.51	80.0768	1,999.51	82.5672	1,999.51	79.414	1,999.51	80.6418	1,999.51	79.9115	1,999.51	80.1003	1,999.51	79.1375	1,999.51	79.6338	1,999.51	77.592	1,999.51	78.6591	1,999.51	77.1166	1,999.51	76.4129	1,999.51	74.1655	1,999.51	74.3166	1,999.51	72.9389	1,999.51	70.3288	1,999.51	70.5265	1,999.51	68.5686	1,999.51	66.2376	1,999.51	62.85	1,999.51	63.5494	1,999.51	67.5436	1,999.51	69.5666	1,999.51	54.7629	1,999.51	70.5427	1,999.51	68.6121	1,999.51	68.7755	1,999.51	69.2786	1,999.51	69.1691	1,999.51	70.6917	1,999.51	55.3247	1,999.51	67.0624	1,999.51	58.7404
2,069.82	82.8718	2,069.82	79.9195	2,069.82	82.8713	2,069.82	76.8319	2,069.82	81.7426	2,069.82	79.0381	2,069.82	80.6056	2,069.82	80.2536	2,069.82	79.5626	2,069.82	78.4239	2,069.82	79.3138	2,069.82	76.9351	2,069.82	77.7454	2,069.82	73.9304	2,069.82	76.0073	2,069.82	69.0654	2,069.82	72.589	2,069.82	69.1545	2,069.82	65.2588	2,069.82	63.7721	2,069.82	66.5931	2,069.82	64.6477	2,069.82	64.2881	2,069.82	66.2751	2,069.82	62.8577	2,069.82	64.7563	2,069.82	57.4263	2,069.82	70.2368	2,069.82	63.0432	2,069.82	65.6673	2,069.82	66.1254	2,069.82	66.4321	2,069.82	68.6489	2,069.82	58.329	2,069.82	63.8644	2,069.82	57.9194
2,143.07	81.6776	2,143.07	78.4769	2,143.07	82.1804	2,143.07	75.2886	2,143.07	81.7183	2,143.07	78.5583	2,143.07	79.8831	2,143.07	79.5144	2,143.07	78.1414	2,143.07	77.9817	2,143.07	77.3589	2,143.07	75.5634	2,143.07	74.0241	2,143.07	73.363	2,143.07	72.5457	2,143.07	71.8534	2,143.07	71.3923	2,143.07	66.2706	2,143.07	67.932	2,143.07	66.5686	2,143.07	65.9965	2,143.07	62.8665	2,143.07	53.3112	2,143.07	64.3098	2,143.07	59.8453	2,143.07	64.5261	2,143.07	57.7741	2,143.07	67.6624	2,143.07	62.9747	2,143.07	65.7469	2,143.07	64.6947	2,143.07	65.2589	2,143.07	64.3094	2,143.07	60.6969	2,143.07	58.8561	2,143.07	52.8907
2,219.24	79.1998	2,219.24	71.7649	2,219.24	81.889	2,219.24	74.5748	2,219.24	82.2377	2,219.24	79.0379	2,219.24	80.5352	2,219.24	79.9679	2,219.24	77.165	2,219.24	78.6199	2,219.24	72.0356	2,219.24	76.333	2,219.24	64.4254	2,219.24	72.4844	2,219.24	60.2531	2,219.24	70.4155	2,219.24	62.4704	2,219.24	68.2945	2,219.24	63.0708	2,219.24	65.9726	2,219.24	61.9607	2,219.24	62.4084	2,219.24	61.0631	2,219.24	62.1795	2,219.24	55.1669	2,219.24	62.178	2,219.24	54.2033	2,219.24	67.3195	2,219.24	63.7021	2,219.24	66.3459	2,219.24	65.1879	2,219.24	64.1769	2,219.24	64.2108	2,219.24	60.0535	2,219.24	60.1809	2,219.24	56.367
2,296.88	82.3996	2,296.88	74.9833	2,296.88	84.06	2,296.88	74.2362	2,296.88	84.0571	2,296.88	81.1051	2,296.88	81.5339	2,296.88	81.9897	2,296.88	72.9196	2,296.88	81.5279	2,296.88	70.634	2,296.88	79.1797	2,296.88	72.1149	2,296.88	76.9844	2,296.88	71.8814	2,296.88	74.3814	2,296.88	66.4158	2,296.88	69.7053	2,296.88	64.403	2,296.88	68.4517	2,296.88	64.421	2,296.88	65.2641	2,296.88	70.0924	2,296.88	62.126	2,296.88	64.9523	2,296.88	65.7123	2,296.88	64.7847	2,296.88	68.4674	2,296.88	64.6354	2,296.88	69.2089	2,296.88	64.2705	2,296.88	68.1915	2,296.88	65.8185	2,296.88	64.9468	2,296.88	66.5588	2,296.88	63.9829
2,378.91	84.0625	2,378.91	80.133	2,378.91	83.9706	2,378.91	75.5259	2,378.91	82.1123	2,378.91	80.2083	2,378.91	79.4302	2,378.91	82.0891	2,378.91	70.5689	2,378.91	82.2943	2,378.91	78.1666	2,378.91	79.7667	2,378.91	78.6131	2,378.91	77.037	2,378.91	77.4128	2,378.91	73.0121	2,378.91	75.0042	2,378.91	70.5306	2,378.91	68.9651	2,378.91	66.1417	2,378.91	67.6399	2,378.91	69.1105	2,378.91	69.4708	2,378.91	62.2541	2,378.91	71.0464	2,378.91	64.0856	2,378.91	68.2584	2,378.91	66.8966	2,378.91	65.5769	2,378.91	69.942	2,378.91	60.0101	2,378.91	68.0343	2,378.91	64.2121	2,378.91	65.1854	2,378.91	67.507	2,378.91	66.892
2,462.4	85.8027	2,462.4	82.3097	2,462.4	84.0742	2,462.4	77.6758	2,462.4	78.1831	2,462.4	78.0302	2,462.4	74.8891	2,462.4	81.2866	2,462.4	75.8007	2,462.4	81.4427	2,462.4	79.8768	2,462.4	79.418	2,462.4	80.5505	2,462.4	77.4313	2,462.4	78.7437	2,462.4	76.1793	2,462.4	75.173	2,462.4	72.2485	2,462.4	69.5208	2,462.4	69.9872	2,462.4	70.0816	2,462.4	67.4425	2,462.4	63.0372	2,462.4	67.68	2,462.4	68.1106	2,462.4	64.4638	2,462.4	68.4827	2,462.4	67.2267	2,462.4	62.6176	2,462.4	66.7914	2,462.4	56.9169	2,462.4	66.2773	2,462.4	61.5761	2,462.4	63.456	2,462.4	68.7463	2,462.4	67.9038
2,548.83	84.0688	2,548.83	82.581	2,548.83	82.4379	2,548.83	77.0568	2,548.83	75.6841	2,548.83	75.1088	2,548.83	68.0442	2,548.83	77.5811	2,548.83	77.0157	2,548.83	78.5718	2,548.83	79.1555	2,548.83	78.0431	2,548.83	79.0874	2,548.83	75.2998	2,548.83	75.399	2,548.83	72.1272	2,548.83	70.008	2,548.83	72.0998	2,548.83	71.578	2,548.83	67.6628	2,548.83	70.8125	2,548.83	66.0326	2,548.83	65.5527	2,548.83	65.363	2,548.83	62.7324	2,548.83	64.8757	2,548.83	67.8376	2,548.83	62.6246	2,548.83	62.9266	2,548.83	65.7269	2,548.83	59.7642	2,548.83	65.025	2,548.83	62.3926	2,548.83	60.8753	2,548.83	65.5011	2,548.83	65.6682
2,639.65	80.872	2,639.65	78.5065	2,639.65	78.9514	2,639.65	70.486	2,639.65	72.1451	2,639.65	72.4472	2,639.65	54.2551	2,639.65	74.8621	2,639.65	73.1247	2,639.65	75.8773	2,639.65	76.3288	2,639.65	74.6556	2,639.65	76.1846	2,639.65	72.1726	2,639.65	73.175	2,639.65	66.2964	2,639.65	68.8067	2,639.65	62.2328	2,639.65	68.0387	2,639.65	57.5256	2,639.65	67.7423	2,639.65	61.901	2,639.65	57.8383	2,639.65	59.5967	2,639.65	63.0789	2,639.65	62.2086	2,639.65	61.008	2,639.65	59.9634	2,639.65	61.0649	2,639.65	63.5283	2,639.65	56.8247	2,639.65	59.8712	2,639.65	62.5102	2,639.65	55.9428	2,639.65	61.7557	2,639.65	63.4802
2,731.93	82.8971	2,731.93	78.456	2,731.93	81.9504	2,731.93	76.3018	2,731.93	78.012	2,731.93	77.0262	2,731.93	72.2918	2,731.93	79.746	2,731.93	73.4451	2,731.93	78.7163	2,731.93	79.6465	2,731.93	75.9673	2,731.93	79.6163	2,731.93	72.4249	2,731.93	76.4697	2,731.93	69.1503	2,731.93	72.5849	2,731.93	65.6367	2,731.93	68.5033	2,731.93	64.5656	2,731.93	68.3847	2,731.93	60.2946	2,731.93	66.3023	2,731.93	62.8564	2,731.93	66.3023	2,731.93	60.887	2,731.93	64.4033	2,731.93	61.8586	2,731.93	58.6799	2,731.93	62.7873	2,731.93	60.876	2,731.93	59.2623	2,731.93	64.3492	2,731.93	59.3621	2,731.93	63.9377	2,731.93	62.9232
2,828.61	84.2861	2,828.61	82.5563	2,828.61	83.7817	2,828.61	79.0852	2,828.61	78.4183	2,828.61	79.3577	2,828.61	78.1511	2,828.61	82.0898	2,828.61	79.4125	2,828.61	80.9573	2,828.61	81.5662	2,828.61	77.2053	2,828.61	80.6143	2,828.61	74.8283	2,828.61	77.0645	2,828.61	72.6588	2,828.61	76.0778	2,828.61	70.1087	2,828.61	68.2073	2,828.61	66.7638	2,828.61	56.1022	2,828.61	64.1338	2,828.61	61.348	2,828.61	64.1329	2,828.61	69.0228	2,828.61	63.0239	2,828.61	64.1455	2,828.61	64.337	2,828.61	60.6644	2,828.61	65.5749	2,828.61	59.6579	2,828.61	61.7868	2,828.61	64.6524	2,828.61	64.0123	2,828.61	66.0957	2,828.61	65.4338
2,928.22	85.0687	2,928.22	84.5317	2,928.22	83.5806	2,928.22	79.9378	2,928.22	78.3179	2,928.22	80.8462	2,928.22	78.8064	2,928.22	82.2261	2,928.22	81.153	2,928.22	80.646	2,928.22	81.5468	2,928.22	78.3094	2,928.22	80.7868	2,928.22	77.0165	2,928.22	76.89	2,928.22	73.4536	2,928.22	74.0804	2,928.22	70.5481	2,928.22	63.1533	2,928.22	68.5583	2,928.22	64.8728	2,928.22	65.9724	2,928.22	61.8975	2,928.22	65.5379	2,928.22	68.0581	2,928.22	64.87	2,928.22	62.155	2,928.22	66.7569	2,928.22	63.5006	2,928.22	66.8418	2,928.22	61.2884	2,928.22	61.4978	2,928.22	63.0647	2,928.22	63.5133	2,928.22	66.7346	2,928.22	66.3989
3,030.76	85.3164	3,030.76	84.5088	3,030.76	83.0753	3,030.76	80.7789	3,030.76	78.5273	3,030.76	81.3457	3,030.76	78.5409	3,030.76	81.6034	3,030.76	81.1591	3,030.76	80.3246	3,030.76	81.2918	3,030.76	79.1132	3,030.76	80.554	3,030.76	76.0175	3,030.76	78.2479	3,030.76	73.6524	3,030.76	71.6586	3,030.76	72.6585	3,030.76	65.6841	3,030.76	68.673	3,030.76	67.4401	3,030.76	65.3782	3,030.76	63.1871	3,030.76	65.8507	3,030.76	61.5643	3,030.76	63.9806	3,030.76	66.2501	3,030.76	64.5932	3,030.76	62.2245	3,030.76	66.5866	3,030.76	62.1835	3,030.76	63.1331	3,030.76	63.549	3,030.76	63.7769	3,030.76	66.7108	3,030.76	67.9494
3,137.7	84.6826	3,137.7	83.4748	3,137.7	82.4376	3,137.7	80.6877	3,137.7	79.6229	3,137.7	80.7592	3,137.7	78.8058	3,137.7	80.9083	3,137.7	79.9274	3,137.7	80.3834	3,137.7	80.4473	3,137.7	77.461	3,137.7	78.5676	3,137.7	74.979	3,137.7	76.5003	3,137.7	71.1132	3,137.7	68.7846	3,137.7	66.8526	3,137.7	69.4969	3,137.7	61.85	3,137.7	67.2197	3,137.7	61.2988	3,137.7	60.8326	3,137.7	62.9839	3,137.7	62.7035	3,137.7	60.1388	3,137.7	63.3863	3,137.7	63.8528	3,137.7	64.0626	3,137.7	63.7032	3,137.7	62.1068	3,137.7	62.4446	3,137.7	60.6302	3,137.7	62.4302	3,137.7	65.2916	3,137.7	66.7802
3,249.02	83.6727	3,249.02	82.3283	3,249.02	82.1018	3,249.02	79.9495	3,249.02	80.0968	3,249.02	80.5336	3,249.02	80.4338	3,249.02	80.9588	3,249.02	78.8104	3,249.02	79.7648	3,249.02	78.7896	3,249.02	77.2677	3,249.02	77.3018	3,249.02	72.9738	3,249.02	76.8774	3,249.02	68.2286	3,249.02	72.1937	3,249.02	67.4809	3,249.02	71.4407	3,249.02	64.1896	3,249.02	60.6997	3,249.02	62.3997	3,249.02	64.0516	3,249.02	59.7147	3,249.02	61.7567	3,249.02	59.1468	3,249.02	63.4032	3,249.02	60.816	3,249.02	62.8115	3,249.02	62.1021	3,249.02	60.3673	3,249.02	60.946	3,249.02	59.6612	3,249.02	59.6243	3,249.02	64.6109	3,249.02	64.5358
3,363.28	83.26	3,363.28	81.6999	3,363.28	81.6136	3,363.28	79.0352	3,363.28	80.1162	3,363.28	79.6419	3,363.28	80.8636	3,363.28	80.8359	3,363.28	79.7866	3,363.28	78.2585	3,363.28	77.4663	3,363.28	74.6303	3,363.28	77.5904	3,363.28	69.4339	3,363.28	77.5094	3,363.28	69.1129	3,363.28	73.2835	3,363.28	62.5777	3,363.28	73.0762	3,363.28	59.7053	3,363.28	61.0112	3,363.28	56.8949	3,363.28	62.627	3,363.28	55.0983	3,363.28	61.6436	3,363.28	55.2668	3,363.28	62.1979	3,363.28	55.5268	3,363.28	63.5286	3,363.28	58.9471	3,363.28	62.2242	3,363.28	54.7126	3,363.28	60.4678	3,363.28	60.232	3,363.28	63.6221	3,363.28	63.3601
3,481.93	82.6617	3,481.93	81.8096	3,481.93	80.958	3,481.93	80.4534	3,481.93	80.0207	3,481.93	79.3244	3,481.93	79.8517	3,481.93	80.0878	3,481.93	79.1565	3,481.93	77.6788	3,481.93	74.8102	3,481.93	72.8304	3,481.93	76.9309	3,481.93	70.4615	3,481.93	75.4923	3,481.93	64.2253	3,481.93	72.4572	3,481.93	66.6809	3,481.93	69.3943	3,481.93	62.1824	3,481.93	25.157	3,481.93	60.633	3,481.93	50.6778	3,481.93	58.948	3,481.93	56.6964	3,481.93	57.6688	3,481.93	55.4151	3,481.93	58.6973	3,481.93	61.5594	3,481.93	57.3866	3,481.93	60.0174	3,481.93	51.8457	3,481.93	58.445	3,481.93	57.0373	3,481.93	61.8182	3,481.93	62.8495
3,604.98	82.0406	3,604.98	81.9559	3,604.98	79.9584	3,604.98	80.4054	3,604.98	80.8377	3,604.98	79.9	3,604.98	80.7493	3,604.98	79.3159	3,604.98	79.0375	3,604.98	76.1366	3,604.98	74.5344	3,604.98	72.1774	3,604.98	76.7512	3,604.98	69.6074	3,604.98	73.6707	3,604.98	68.4697	3,604.98	72.3378	3,604.98	64.9419	3,604.98	65.3567	3,604.98	59.5951	3,604.98	50.3811	3,604.98	58.9141	3,604.98	39.5147	3,604.98	53.4398	3,604.98	54.4331	3,604.98	57.0157	3,604.98	55.7038	3,604.98	56.2852	3,604.98	61.8589	3,604.98	52.6228	3,604.98	60.5796	3,604.98	52.2897	3,604.98	58.8218	3,604.98	57.6907	3,604.98	61.2757	3,604.98	63.1984
3,732.42	80.9299	3,732.42	80.757	3,732.42	79.2298	3,732.42	77.1094	3,732.42	78.7733	3,732.42	78.6295	3,732.42	79.3709	3,732.42	77.2361	3,732.42	77.461	3,732.42	73.2504	3,732.42	73.6347	3,732.42	70.4623	3,732.42	75.9991	3,732.42	67.6383	3,732.42	72.0935	3,732.42	62.5177	3,732.42	69.0144	3,732.42	57.8593	3,732.42	61.7858	3,732.42	59.4658	3,732.42	51.6234	3,732.42	49.901	3,732.42	55.5088	3,732.42	53.7626	3,732.42	53.8517	3,732.42	53.694	3,732.42	56.7975	3,732.42	47.4859	3,732.42	57.7747	3,732.42	50.8294	3,732.42	58.8979	3,732.42	49.1571	3,732.42	55.434	3,732.42	56.9789	3,732.42	59.6944	3,732.42	60.8369
3,864.26	82.551	3,864.26	81.1296	3,864.26	81.2542	3,864.26	79.2268	3,864.26	80.6626	3,864.26	78.8181	3,864.26	80.5611	3,864.26	76.3037	3,864.26	78.6033	3,864.26	72.835	3,864.26	75.5695	3,864.26	69.2636	3,864.26	76.4469	3,864.26	64.603	3,864.26	73.6068	3,864.26	65.1954	3,864.26	68.2597	3,864.26	61.583	3,864.26	63.4269	3,864.26	59.4766	3,864.26	47.1159	3,864.26	57.7308	3,864.26	55.4451	3,864.26	54.6401	3,864.26	52.1151	3,864.26	55.4346	3,864.26	58.1274	3,864.26	52.5685	3,864.26	60.0501	3,864.26	56.9357	3,864.26	61.0755	3,864.26	47.7853	3,864.26	56.5354	3,864.26	56.3729	3,864.26	63.8025	3,864.26	55.7192
4,000.49	83.5056	4,000.49	83.2772	4,000.49	81.7822	4,000.49	82.4958	4,000.49	82.7213	4,000.49	82.0289	4,000.49	81.7279	4,000.49	79.6372	4,000.49	78.8281	4,000.49	77.865	4,000.49	77.2029	4,000.49	73.5072	4,000.49	75.2802	4,000.49	70.0986	4,000.49	73.0637	4,000.49	66.695	4,000.49	65.7652	4,000.49	64.4058	4,000.49	65.1172	4,000.49	61.5941	4,000.49	59.1659	4,000.49	60.4168	4,000.49	50.0962	4,000.49	60.9699	4,000.49	51.9166	4,000.49	61.1046	4,000.49	59.8301	4,000.49	58.0769	4,000.49	60.6435	4,000.49	58.3643	4,000.49	61.9205	4,000.49	54.6004	4,000.49	58.588	4,000.49	57.1785	4,000.49	65.5383	4,000.49	62.5933
4,141.11	83.8282	4,141.11	83.6633	4,141.11	82.03	4,141.11	82.0457	4,141.11	81.9412	4,141.11	81.8349	4,141.11	81.2297	4,141.11	80.2536	4,141.11	76.834	4,141.11	76.603	4,141.11	76.074	4,141.11	72.9416	4,141.11	74.0415	4,141.11	67.1244	4,141.11	69.192	4,141.11	69.0398	4,141.11	60.0522	4,141.11	64.5282	4,141.11	66.4379	4,141.11	63.071	4,141.11	59.4678	4,141.11	57.1776	4,141.11	56.3835	4,141.11	57.7464	4,141.11	52.8564	4,141.11	57.8303	4,141.11	56.7995	4,141.11	57.8008	4,141.11	59.7971	4,141.11	58.1749	4,141.11	61.5914	4,141.11	53.6726	4,141.11	56.7837	4,141.11	57.4146	4,141.11	64.154	4,141.11	61.8283
4,287.6	84.1755	4,287.6	83.786	4,287.6	83.0605	4,287.6	82.7506	4,287.6	82.0523	4,287.6	80.949	4,287.6	80.7516	4,287.6	79.4641	4,287.6	77.2756	4,287.6	74.8654	4,287.6	75.0208	4,287.6	71.127	4,287.6	70.9521	4,287.6	68.7952	4,287.6	66.207	4,287.6	65.7677	4,287.6	70.1006	4,287.6	63.31	4,287.6	68.686	4,287.6	61.576	4,287.6	59.0377	4,287.6	57.301	4,287.6	48.0988	4,287.6	59.1958	4,287.6	56.7535	4,287.6	60.0144	4,287.6	59.3637	4,287.6	57.6564	4,287.6	56.038	4,287.6	58.1838	4,287.6	61.6059	4,287.6	56.2132	4,287.6	56.9705	4,287.6	57.8669	4,287.6	62.9761	4,287.6	60.1337
4,438.48	83.9558	4,438.48	83.7284	4,438.48	82.2982	4,438.48	83.2195	4,438.48	82.2851	4,438.48	80.9892	4,438.48	79.1404	4,438.48	79.3092	4,438.48	76.1171	4,438.48	74.9435	4,438.48	71.9617	4,438.48	71.4304	4,438.48	68.0728	4,438.48	67.3344	4,438.48	68.9644	4,438.48	67.5259	4,438.48	69.2491	4,438.48	63.7911	4,438.48	61.8048	4,438.48	60.3573	4,438.48	54.513	4,438.48	56.7672	4,438.48	55.3019	4,438.48	57.5625	4,438.48	56.6169	4,438.48	55.7295	4,438.48	59.3909	4,438.48	59.2586	4,438.48	56.2059	4,438.48	62.1429	4,438.48	61.4253	4,438.48	57.6952	4,438.48	55.6594	4,438.48	58.8335	4,438.48	62.6976	4,438.48	60.0364
4,595.21	82.5414	4,595.21	82.9736	4,595.21	80.9499	4,595.21	81.8006	4,595.21	80.3586	4,595.21	81.2495	4,595.21	77.9283	4,595.21	79.4789	4,595.21	73.609	4,595.21	75.5509	4,595.21	70.307	4,595.21	71.9631	4,595.21	66.1484	4,595.21	70.4872	4,595.21	66.7968	4,595.21	66.8973	4,595.21	59.9289	4,595.21	62.4628	4,595.21	58.6961	4,595.21	61.8169	4,595.21	53.3318	4,595.21	55.4953	4,595.21	52.9682	4,595.21	55.3114	4,595.21	51.0942	4,595.21	58.5289	4,595.21	55.8692	4,595.21	59.791	4,595.21	54.3996	4,595.21	59.4363	4,595.21	60.2268	4,595.21	59.7225	4,595.21	52.4667	4,595.21	58.2683	4,595.21	59.2613	4,595.21	58.1935
4,756.35	82.3588	4,756.35	83.1994	4,756.35	80.8263	4,756.35	83.3411	4,756.35	80.8994	4,756.35	81.5916	4,756.35	79.432	4,756.35	79.9074	4,756.35	73.252	4,756.35	75.0804	4,756.35	68.0326	4,756.35	71.5899	4,756.35	67.4859	4,756.35	68.1712	4,756.35	66.9859	4,756.35	66.4202	4,756.35	65.7637	4,756.35	65.0808	4,756.35	57.843	4,756.35	60.4071	4,756.35	57.1663	4,756.35	56.9465	4,756.35	45.3709	4,756.35	59.493	4,756.35	37.3879	4,756.35	59.344	4,756.35	56.1381	4,756.35	59.5979	4,756.35	50.3811	4,756.35	62.8665	4,756.35	60.6891	4,756.35	61.8719	4,756.35	56.3123	4,756.35	58.4998	4,756.35	60.7953	4,756.35	57.2269
4,924.8	82.1905	4,924.8	82.3579	4,924.8	81.8243	4,924.8	81.1881	4,924.8	80.6764	4,924.8	80.2154	4,924.8	79.3002	4,924.8	77.3722	4,924.8	73.9044	4,924.8	72.9312	4,924.8	64.4003	4,924.8	68.8535	4,924.8	68.0087	4,924.8	68.1391	4,924.8	69.9331	4,924.8	64.7141	4,924.8	61.6807	4,924.8	63.7135	4,924.8	59.9275	4,924.8	60.4065	4,924.8	58.6415	4,924.8	58.3655	4,924.8	49.5167	4,924.8	51.6075	4,924.8	44.2626	4,924.8	55.5371	4,924.8	53.5224	4,924.8	60.1015	4,924.8	49.3299	4,924.8	63.2598	4,924.8	59.9839	4,924.8	60.6446	4,924.8	55.5187	4,924.8	56.561	4,924.8	59.9622	4,924.8	52.4143
5,097.66	83.1705	5,097.66	83.9121	5,097.66	83.5831	5,097.66	82.414	5,097.66	82.1793	5,097.66	80.7492	5,097.66	78.472	5,097.66	78.3747	5,097.66	73.423	5,097.66	73.7178	5,097.66	60.3874	5,097.66	71.4836	5,097.66	69.7233	5,097.66	69.7849	5,097.66	69.6068	5,097.66	67.6411	5,097.66	67.0468	5,097.66	64.8795	5,097.66	66.1167	5,097.66	62.5354	5,097.66	59.1378	5,097.66	59.5918	5,097.66	50.2359	5,097.66	57.7629	5,097.66	48.5331	5,097.66	60.0111	5,097.66	52.9539	5,097.66	61.5199	5,097.66	50.7358	5,097.66	63.8482	5,097.66	60.0218	5,097.66	63.4921	5,097.66	55.6472	5,097.66	58.78	5,097.66	62.4638	5,097.66	56.986
5,277.83	84.4121	5,277.83	84.7224	5,277.83	84.1944	5,277.83	83.2169	5,277.83	82.4385	5,277.83	81.5556	5,277.83	78.9613	5,277.83	78.7857	5,277.83	73.8171	5,277.83	74.3768	5,277.83	68.0505	5,277.83	71.8775	5,277.83	70.4162	5,277.83	70.8887	5,277.83	70.0618	5,277.83	68.4831	5,277.83	69.7906	5,277.83	68.4724	5,277.83	69.557	5,277.83	61.9738	5,277.83	61.5219	5,277.83	60.1983	5,277.83	59.5227	5,277.83	58.5802	5,277.83	47.544	5,277.83	59.0608	5,277.83	46.6894	5,277.83	60.7785	5,277.83	53.0342	5,277.83	64.9557	5,277.83	58.9978	5,277.83	64.6073	5,277.83	51.9803	5,277.83	60.0833	5,277.83	61.7452	5,277.83	56.4285
5,463.87	84.7017	5,463.87	84.8672	5,463.87	84.0622	5,463.87	82.7391	5,463.87	82.2061	5,463.87	80.7669	5,463.87	79.7714	5,463.87	77.948	5,463.87	74.261	5,463.87	73.881	5,463.87	70.7403	5,463.87	72.3204	5,463.87	69.5493	5,463.87	72.3386	5,463.87	69.5702	5,463.87	66.9442	5,463.87	69.7691	5,463.87	65.4228	5,463.87	66.3953	5,463.87	61.9136	5,463.87	57.8299	5,463.87	59.3268	5,463.87	56.5258	5,463.87	52.5494	5,463.87	47.4291	5,463.87	55.3979	5,463.87	48.8814	5,463.87	61.1514	5,463.87	46.5538	5,463.87	64.0541	5,463.87	59.0122	5,463.87	63.6815	5,463.87	53.9554	5,463.87	59.7298	5,463.87	60.7979	5,463.87	53.7864
5,657.23	84.2168	5,657.23	84	5,657.23	83.501	5,657.23	82.9212	5,657.23	81.0071	5,657.23	80.4336	5,657.23	77.0564	5,657.23	78.0836	5,657.23	70.834	5,657.23	75.047	5,657.23	70.5075	5,657.23	72.8915	5,657.23	66.4493	5,657.23	71.9245	5,657.23	70.6573	5,657.23	67.7293	5,657.23	68.3112	5,657.23	65.7106	5,657.23	62.756	5,657.23	61.6974	5,657.23	57.624	5,657.23	58.0174	5,657.23	51.4855	5,657.23	57.1383	5,657.23	35.4825	5,657.23	57.3079	5,657.23	50.5284	5,657.23	60.1306	5,657.23	51.3358	5,657.23	63.5184	5,657.23	57.345	5,657.23	63.9636	5,657.23	50.7382	5,657.23	60.7387	5,657.23	59.7813	5,657.23	55.8644
5,856.45	84.5041	5,856.45	84.5165	5,856.45	84.2	5,856.45	82.1926	5,856.45	81.9923	5,856.45	78.7599	5,856.45	77.9759	5,856.45	77.4135	5,856.45	78.6719	5,856.45	75.1232	5,856.45	75.8282	5,856.45	73.2926	5,856.45	72.7673	5,856.45	71.3368	5,856.45	75.0099	5,856.45	68.5011	5,856.45	71.6114	5,856.45	67.2368	5,856.45	69.1702	5,856.45	64.1761	5,856.45	53.091	5,856.45	59.327	5,856.45	45.9748	5,856.45	57.6988	5,856.45	43.3307	5,856.45	60.2484	5,856.45	39.553	5,856.45	60.8539	5,856.45	54.1801	5,856.45	63.6182	5,856.45	57.6444	5,856.45	64.0768	5,856.45	44.3536	5,856.45	60.9731	5,856.45	59.7649	5,856.45	47.671
6,062.99	85.8363	6,062.99	85.5396	6,062.99	84.1372	6,062.99	83.7821	6,062.99	81.5444	6,062.99	81.2035	6,062.99	76.7742	6,062.99	80.0645	6,062.99	78.562	6,062.99	78.2623	6,062.99	74.8938	6,062.99	75.6349	6,062.99	72.5405	6,062.99	74.621	6,062.99	74.368	6,062.99	70.9631	6,062.99	72.9158	6,062.99	68.9122	6,062.99	68.4043	6,062.99	64.8959	6,062.99	62.9377	6,062.99	60.9127	6,062.99	53.3706	6,062.99	53.9042	6,062.99	50.6046	6,062.99	62.1581	6,062.99	27.7857	6,062.99	64.4266	6,062.99	57.4753	6,062.99	64.3435	6,062.99	58.8567	6,062.99	66.4623	6,062.99	53.0769	6,062.99	62.7748	6,062.99	59.9145	6,062.99	53.2493
6,276.86	84.0788	6,276.86	84.2661	6,276.86	83.4107	6,276.86	81.2793	6,276.86	80.4965	6,276.86	80.4666	6,276.86	74.451	6,276.86	79.0219	6,276.86	77.8516	6,276.86	77.5953	6,276.86	73.3948	6,276.86	75.16	6,276.86	69.549	6,276.86	74.0538	6,276.86	74.0236	6,276.86	69.8546	6,276.86	73.73	6,276.86	66.1856	6,276.86	67.4309	6,276.86	63.2338	6,276.86	62.1976	6,276.86	60.0718	6,276.86	55.969	6,276.86	56.2551	6,276.86	43.0949	6,276.86	60.0737	6,276.86	34.441	6,276.86	61.6221	6,276.86	57.6636	6,276.86	63.0357	6,276.86	54.2535	6,276.86	63.9617	6,276.86	48.7126	6,276.86	61.3884	6,276.86	58.2251	6,276.86	46.3144
6,498.05	82.4175	6,498.05	82.3723	6,498.05	79.7196	6,498.05	80.3896	6,498.05	76.1733	6,498.05	80.624	6,498.05	76.2023	6,498.05	80.498	6,498.05	75.2553	6,498.05	78.8953	6,498.05	75.7139	6,498.05	77.4189	6,498.05	70.0006	6,498.05	74.5237	6,498.05	75.3809	6,498.05	70.1236	6,498.05	72.4442	6,498.05	68.4628	6,498.05	67.34	6,498.05	63.3896	6,498.05	63.4636	6,498.05	59.6376	6,498.05	53.0415	6,498.05	52.1712	6,498.05	41.9434	6,498.05	58.4717	6,498.05	42.3675	6,498.05	62.0723	6,498.05	54.6115	6,498.05	61.8999	6,498.05	50.6021	6,498.05	63.0558	6,498.05	37.5448	6,498.05	59.2317	6,498.05	52.1711	6,498.05	46.6403
6,726.56	81.3231	6,726.56	81.431	6,726.56	80.5209	6,726.56	80.1249	6,726.56	79.1271	6,726.56	79.5878	6,726.56	79.0739	6,726.56	78.9549	6,726.56	76.3038	6,726.56	77.0502	6,726.56	74.4944	6,726.56	74.3434	6,726.56	70.9034	6,726.56	71.9178	6,726.56	73.0245	6,726.56	66.6576	6,726.56	64.3111	6,726.56	65.2	6,726.56	61.0039	6,726.56	60.9947	6,726.56	57.6191	6,726.56	58.4816	6,726.56	54.7408	6,726.56	45.208	6,726.56	42.6456	6,726.56	55.6743	6,726.56	40.1423	6,726.56	58.7567	6,726.56	55.3309	6,726.56	58.9364	6,726.56	48.639	6,726.56	58.9982	6,726.56	50.718	6,726.56	46.9915	6,726.56	51.2259	6,726.56	51.6139
6,963.87	86.3048	6,963.87	87.2292	6,963.87	85.5488	6,963.87	86.1644	6,963.87	83.7241	6,963.87	84.1391	6,963.87	80.6776	6,963.87	81.9954	6,963.87	77.5433	6,963.87	77.8215	6,963.87	74.5719	6,963.87	74.532	6,963.87	71.6013	6,963.87	71.1212	6,963.87	68.7157	6,963.87	66.3114	6,963.87	65.5858	6,963.87	61.9632	6,963.87	61.7366	6,963.87	56.1939	6,963.87	58.4933	6,963.87	47.176	6,963.87	59.3807	6,963.87	49.4799	6,963.87	42.7436	6,963.87	54.2783	6,963.87	39.3912	6,963.87	55.3801	6,963.87	55.2163	6,963.87	54.322	6,963.87	54.3368	6,963.87	54.5097	6,963.87	50.1346	6,963.87	55.9858	6,963.87	56.4892	6,963.87	57.6073
7,209.96	88.7259	7,209.96	89.4659	7,209.96	87.3424	7,209.96	87.6642	7,209.96	84.706	7,209.96	84.0016	7,209.96	78.1874	7,209.96	81.091	7,209.96	71.1891	7,209.96	78.0053	7,209.96	76.5832	7,209.96	75.5181	7,209.96	73.5748	7,209.96	72.1936	7,209.96	70.1022	7,209.96	65.2389	7,209.96	75.449	7,209.96	64.7995	7,209.96	66.5718	7,209.96	57.6929	7,209.96	60.9123	7,209.96	59.7038	7,209.96	58.5738	7,209.96	54.0159	7,209.96	53.5122	7,209.96	55.1252	7,209.96	25.997	7,209.96	55.6621	7,209.96	56.6696	7,209.96	54.4822	7,209.96	52.5316	7,209.96	51.129	7,209.96	56.4795	7,209.96	59.1646	7,209.96	56.0276	7,209.96	58.7962
7,464.84	88.5478	7,464.84	87.3182	7,464.84	85.006	7,464.84	81.7224	7,464.84	77.5633	7,464.84	71.1304	7,464.84	66.7102	7,464.84	74.5427	7,464.84	73.9909	7,464.84	79.1028	7,464.84	81.7086	7,464.84	78.7553	7,464.84	75.9411	7,464.84	75.6508	7,464.84	78.1031	7,464.84	69.5017	7,464.84	79.1105	7,464.84	65.908	7,464.84	69.1903	7,464.84	62.7795	7,464.84	60.8978	7,464.84	63.7869	7,464.84	60.7438	7,464.84	52.7628	7,464.84	54.6826	7,464.84	60.6925	7,464.84	51.9273	7,464.84	63.1825	7,464.84	56.3106	7,464.84	56.78	7,464.84	42.3993	7,464.84	61.1205	7,464.84	54.7056	7,464.84	61.0242	7,464.84	49.9046	7,464.84	59.1707
7,727.05	83.8662	7,727.05	82.4707	7,727.05	82.5035	7,727.05	80.5746	7,727.05	81.1193	7,727.05	78.8345	7,727.05	78.5485	7,727.05	79.2872	7,727.05	77.7763	7,727.05	77.3221	7,727.05	79.0927	7,727.05	76.3105	7,727.05	68.9209	7,727.05	71.8966	7,727.05	75.9162	7,727.05	68.3514	7,727.05	70.7873	7,727.05	64.6254	7,727.05	63.4817	7,727.05	61.1269	7,727.05	54.8105	7,727.05	55.6142	7,727.05	55.8242	7,727.05	46.6356	7,727.05	45.2418	7,727.05	58.491	7,727.05	44.8787	7,727.05	60.6119	7,727.05	51.9371	7,727.05	57.4745	7,727.05	53.5734	7,727.05	60.2151	7,727.05	46.4742	7,727.05	58.2426	7,727.05	52.944	7,727.05	42.9559
7,999.51	85.8153	7,999.51	85.3294	7,999.51	85.1774	7,999.51	82.5498	7,999.51	82.5993	7,999.51	80.4953	7,999.51	79.4006	7,999.51	77.1016	7,999.51	74.8743	7,999.51	71.7127	7,999.51	71.8327	7,999.51	67.4499	7,999.51	65.851	7,999.51	64.1431	7,999.51	67.5498	7,999.51	56.7337	7,999.51	62.9398	7,999.51	52.8354	7,999.51	52.0517	7,999.51	52.2662	7,999.51	41.7107	7,999.51	44.3765	7,999.51	51.435	7,999.51	46.5726	7,999.51	46.8181	7,999.51	47.7805	7,999.51	48.7785	7,999.51	46.1585	7,999.51	49.1042	7,999.51	51.8422	7,999.51	50.9221	7,999.51	55.5363	7,999.51	50.514	7,999.51	51.5771	7,999.51	50.5646	7,999.51	52.6737
8,282.23	88.0626	8,282.23	86.6394	8,282.23	87.3766	8,282.23	83.5206	8,282.23	84.5457	8,282.23	79.4594	8,282.23	79.8227	8,282.23	71.3632	8,282.23	72.7308	8,282.23	65.0981	8,282.23	69.0999	8,282.23	58.9275	8,282.23	66.3502	8,282.23	46.5329	8,282.23	59.1602	8,282.23	53.5666	8,282.23	63.1608	8,282.23	53.0936	8,282.23	53.0982	8,282.23	49.7801	8,282.23	46.405	8,282.23	48.3592	8,282.23	32.9923	8,282.23	40.8315	8,282.23	45.1719	8,282.23	36.6004	8,282.23	41.0314	8,282.23	44.5326	8,282.23	47.6078	8,282.23	43.5511	8,282.23	49.2017	8,282.23	47.9814	8,282.23	52.577	8,282.23	55.0893	8,282.23	53.656	8,282.23	55.2074
8,573.73	88.7583	8,573.73	87.4023	8,573.73	87.1137	8,573.73	83.9599	8,573.73	83.0357	8,573.73	79.0364	8,573.73	76.2659	8,573.73	71.2739	8,573.73	69.697	8,573.73	68.7155	8,573.73	67.4571	8,573.73	66.6639	8,573.73	58.5128	8,573.73	59.2433	8,573.73	52.3595	8,573.73	55.8617	8,573.73	62.2461	8,573.73	54.6825	8,573.73	55.9326	8,573.73	47.0136	8,573.73	40.2692	8,573.73	48.3012	8,573.73	37.2276	8,573.73	43.0165	8,573.73	47.3176	8,573.73	46.9924	8,573.73	45.3106	8,573.73	49.2021	8,573.73	44.4564	8,573.73	46.0566	8,573.73	43.8871	8,573.73	50.9655	8,573.73	49.4305	8,573.73	54.9952	8,573.73	52.0885	8,573.73	54.8482
8,876.95	86.9021	8,876.95	86.1527	8,876.95	85.5977	8,876.95	83.165	8,876.95	82.3846	8,876.95	78.593	8,876.95	76.984	8,876.95	75.4455	8,876.95	74.1692	8,876.95	73.5183	8,876.95	70.6285	8,876.95	67.4549	8,876.95	65.0429	8,876.95	60.1409	8,876.95	61.3161	8,876.95	60.3545	8,876.95	61.5553	8,876.95	56.2315	8,876.95	47.1379	8,876.95	52.0035	8,876.95	43.2842	8,876.95	50.8026	8,876.95	41.152	8,876.95	45.0308	8,876.95	43.8111	8,876.95	48.7583	8,876.95	46.6106	8,876.95	52.4644	8,876.95	43.4532	8,876.95	53.8666	8,876.95	46.4144	8,876.95	54.2649	8,876.95	50.1642	8,876.95	54.3286	8,876.95	49.586	8,876.95	50.2099
9,188.96	89.132	9,188.96	88.1495	9,188.96	87.4419	9,188.96	84.8295	9,188.96	83.696	9,188.96	80.0814	9,188.96	78.0108	9,188.96	73.5467	9,188.96	69.5669	9,188.96	64.0005	9,188.96	64.5257	9,188.96	56.8811	9,188.96	57.5702	9,188.96	54.0959	9,188.96	54.5983	9,188.96	53.3642	9,188.96	54.4944	9,188.96	46.1276	9,188.96	45.783	9,188.96	47.7247	9,188.96	48.7206	9,188.96	48.241	9,188.96	49.4414	9,188.96	37.4798	9,188.96	38.763	9,188.96	47.2017	9,188.96	41.3228	9,188.96	46.7571	9,188.96	33.1456	9,188.96	45.7976	9,188.96	44.9979	9,188.96	49.9645	9,188.96	47.5044	9,188.96	48.9178	9,188.96	51.8217	9,188.96	52.9344
9,514.16	90.6612	9,514.16	89.5704	9,514.16	88.3363	9,514.16	85.0604	9,514.16	82.2577	9,514.16	76.1719	9,514.16	65.0436	9,514.16	65.4377	9,514.16	66.0039	9,514.16	66.9598	9,514.16	66.5314	9,514.16	64.8307	9,514.16	65.2587	9,514.16	66.8063	9,514.16	50.6564	9,514.16	63.6181	9,514.16	63.7999	9,514.16	61.9181	9,514.16	55.0931	9,514.16	57.4548	9,514.16	60.4253	9,514.16	50.974	9,514.16	54.7299	9,514.16	46.8094	9,514.16	43.2974	9,514.16	54.5453	9,514.16	43.9809	9,514.16	54.5482	9,514.16	43.6816	9,514.16	55.2986	9,514.16	44.1533	9,514.16	48.354	9,514.16	33.3468	9,514.16	54.6486	9,514.16	52.6269	9,514.16	55.4545
9,849.61	90.1326	9,849.61	88.6983	9,849.61	87.2274	9,849.61	82.999	9,849.61	79.9456	9,849.61	71.1023	9,849.61	70.9785	9,849.61	75.1549	9,849.61	74.1765	9,849.61	69.9785	9,849.61	65.6823	9,849.61	68.9721	9,849.61	68.9933	9,849.61	68.7097	9,849.61	61.4801	9,849.61	67.1438	9,849.61	66.2987	9,849.61	63.8158	9,849.61	50.001	9,849.61	58.6995	9,849.61	63.2465	9,849.61	57.5673	9,849.61	57.4636	9,849.61	50.4298	9,849.61	41.9524	9,849.61	51.1946	9,849.61	45.3632	9,849.61	55.3969	9,849.61	46.491	9,849.61	58.7932	9,849.61	48.6096	9,849.61	56.575	9,849.61	39.6921	9,849.61	58.3922	9,849.61	51.6796	9,849.61	53.2705
10,196.8	89.7826	10,196.8	88.5952	10,196.8	86.7257	10,196.8	82.3534	10,196.8	79.2646	10,196.8	75.2867	10,196.8	75.2365	10,196.8	74.9592	10,196.8	74.2428	10,196.8	65.9844	10,196.8	67.1138	10,196.8	69.7067	10,196.8	70.7025	10,196.8	67.6544	10,196.8	65.8609	10,196.8	65.5088	10,196.8	63.5822	10,196.8	58.553	10,196.8	55.496	10,196.8	56.0191	10,196.8	62.7537	10,196.8	54.6602	10,196.8	59.7293	10,196.8	44.8778	10,196.8	38.2478	10,196.8	50.7166	10,196.8	34.7537	10,196.8	49.7696	10,196.8	36.1405	10,196.8	53.5258	10,196.8	45.9455	10,196.8	51.0228	10,196.8	45.4716	10,196.8	55.7193	10,196.8	52.5131	10,196.8	52.679
10,555.7	88.7289	10,555.7	87.4098	10,555.7	85.6684	10,555.7	79.9789	10,555.7	77.8115	10,555.7	78.2544	10,555.7	77.2727	10,555.7	75.8045	10,555.7	74.4245	10,555.7	68.492	10,555.7	74.7104	10,555.7	71.5599	10,555.7	71.5058	10,555.7	68.0136	10,555.7	67.3703	10,555.7	63.9288	10,555.7	66.2069	10,555.7	60.7867	10,555.7	57.7585	10,555.7	55.1809	10,555.7	63.3194	10,555.7	46.378	10,555.7	60.4499	10,555.7	52.7224	10,555.7	39.9361	10,555.7	52.6927	10,555.7	43.7003	10,555.7	55.022	10,555.7	42.2117	10,555.7	58.7012	10,555.7	47.562	10,555.7	56.8851	10,555.7	49.4145	10,555.7	57.4065	10,555.7	50.8371	10,555.7	48.2797
10,927.7	87.6972	10,927.7	86.3589	10,927.7	85.0879	10,927.7	80.6027	10,927.7	79.6465	10,927.7	77.4847	10,927.7	76.5454	10,927.7	70.5799	10,927.7	70.268	10,927.7	64.018	10,927.7	72.0182	10,927.7	65.8564	10,927.7	65.534	10,927.7	62.0237	10,927.7	63.2607	10,927.7	60.6071	10,927.7	60.6482	10,927.7	57.1779	10,927.7	51.0979	10,927.7	50.7872	10,927.7	58.1539	10,927.7	44.732	10,927.7	56.6063	10,927.7	43.1456	10,927.7	47.9478	10,927.7	32.3974	10,927.7	44.072	10,927.7	44.006	10,927.7	31.1773	10,927.7	48.2416	10,927.7	48.0336	10,927.7	46.7963	10,927.7	45.2435	10,927.7	54.0985	10,927.7	50.5649	10,927.7	46.5813
11,313	88.5565	11,313	87.2051	11,313	85.2802	11,313	81.0868	11,313	79.0986	11,313	78.901	11,313	76.3359	11,313	70.3296	11,313	74.4982	11,313	68.4478	11,313	73.763	11,313	68.1167	11,313	68.7201	11,313	64.6293	11,313	64.4859	11,313	62.8174	11,313	57.485	11,313	58.7684	11,313	52.1492	11,313	55.3185	11,313	63.8142	11,313	47.8172	11,313	61.4257	11,313	47.1104	11,313	49.1416	11,313	49.4632	11,313	47.6216	11,313	48.4695	11,313	40.5994	11,313	51.8994	11,313	50.1275	11,313	52.7829	11,313	47.6102	11,313	55.4723	11,313	51.6973	11,313	49.4831
11,712.9	88.8403	11,712.9	87.3685	11,712.9	86.7736	11,712.9	82.0076	11,712.9	82.8923	11,712.9	76.0564	11,712.9	78.0443	11,712.9	62.8023	11,712.9	71.9209	11,712.9	67.7793	11,712.9	67.3029	11,712.9	67.9393	11,712.9	63.6239	11,712.9	64.7735	11,712.9	59.919	11,712.9	60.0521	11,712.9	51.7365	11,712.9	55.7478	11,712.9	45.5442	11,712.9	49.3093	11,712.9	63.0781	11,712.9	52.6953	11,712.9	60.9615	11,712.9	48.1463	11,712.9	47.4965	11,712.9	48.6318	11,712.9	41.859	11,712.9	48.0747	11,712.9	41.5097	11,712.9	52.3081	11,712.9	45.9495	11,712.9	52.2097	11,712.9	46.7322	11,712.9	55.3379	11,712.9	53.5435	11,712.9	49.0247
12,126	90.8378	12,126	88.7709	12,126	87.5716	12,126	81.6316	12,126	79.8626	12,126	76.9122	12,126	67.1654	12,126	64.8098	12,126	66.4692	12,126	66.0562	12,126	70.498	12,126	67.3515	12,126	68.6614	12,126	63.604	12,126	65.1105	12,126	58.7378	12,126	52.9038	12,126	53.4103	12,126	46.5233	12,126	49.238	12,126	67.6203	12,126	49.9615	12,126	64.8241	12,126	39.4608	12,126	50.8356	12,126	44.3868	12,126	45.5214	12,126	46.8164	12,126	47.3257	12,126	51.0566	12,126	45.9021	12,126	52.1069	12,126	46.1492	12,126	54.2647	12,126	53.3716	12,126	49.3564
12,553.7	91.016	12,553.7	89.0892	12,553.7	88.0941	12,553.7	85.0082	12,553.7	83.5268	12,553.7	78.1329	12,553.7	75.8234	12,553.7	64.7036	12,553.7	71.906	12,553.7	70.254	12,553.7	73.4636	12,553.7	72.4955	12,553.7	69.1099	12,553.7	67.7921	12,553.7	68.2469	12,553.7	65.7868	12,553.7	52.7799	12,553.7	59.642	12,553.7	59.4167	12,553.7	58.3631	12,553.7	71.2347	12,553.7	44.0934	12,553.7	69.3611	12,553.7	35.4979	12,553.7	54.5026	12,553.7	49.8541	12,553.7	41.7593	12,553.7	52.098	12,553.7	47.8648	12,553.7	55.377	12,553.7	49.4545	12,553.7	56.5795	12,553.7	51.4377	12,553.7	56.9213	12,553.7	56.2819	12,553.7	51.082
12,996.1	90.8489	12,996.1	89.4697	12,996.1	88.8972	12,996.1	86.3335	12,996.1	85.8125	12,996.1	75.1454	12,996.1	75.957	12,996.1	72.3115	12,996.1	71.7639	12,996.1	75.1733	12,996.1	75.12	12,996.1	75.8392	12,996.1	71.8253	12,996.1	70.4755	12,996.1	67.8752	12,996.1	67.6384	12,996.1	58.5291	12,996.1	61.6741	12,996.1	59.4601	12,996.1	58.4289	12,996.1	73.2639	12,996.1	50.5908	12,996.1	71.0553	12,996.1	44.0383	12,996.1	53.4484	12,996.1	50.5497	12,996.1	44.3748	12,996.1	51.9657	12,996.1	52.9376	12,996.1	55.6734	12,996.1	53.0333	12,996.1	58.2065	12,996.1	52.4244	12,996.1	57.5787	12,996.1	56.8719	12,996.1	51.1888
13,454.6	90.4022	13,454.6	89.1409	13,454.6	89.2403	13,454.6	84.9367	13,454.6	84.4945	13,454.6	75.8058	13,454.6	73.2891	13,454.6	77.6296	13,454.6	77.5944	13,454.6	77.2847	13,454.6	76.4342	13,454.6	75.3958	13,454.6	72.7377	13,454.6	67.8958	13,454.6	66.4893	13,454.6	65.9643	13,454.6	59.8641	13,454.6	58.8187	13,454.6	58.5765	13,454.6	49.377	13,454.6	72.2192	13,454.6	53.8857	13,454.6	69.2152	13,454.6	25.1825	13,454.6	51.605	13,454.6	52.7737	13,454.6	42.9123	13,454.6	50.1264	13,454.6	51.3727	13,454.6	54.0961	13,454.6	51.6292	13,454.6	56.4572	13,454.6	51.5373	13,454.6	55.1156	13,454.6	55.1503	13,454.6	48.629
13,929.2	92.3701	13,929.2	90.8382	13,929.2	89.4884	13,929.2	83.8509	13,929.2	81.2797	13,929.2	77.8944	13,929.2	74.9067	13,929.2	76.5537	13,929.2	76.3007	13,929.2	73.6822	13,929.2	72.6751	13,929.2	69.0203	13,929.2	66.9086	13,929.2	57.8696	13,929.2	61.282	13,929.2	56.3126	13,929.2	51.9388	13,929.2	45.1118	13,929.2	52.2338	13,929.2	38.878	13,929.2	69.0648	13,929.2	44.2056	13,929.2	67.1679	13,929.2	42.3176	13,929.2	48.2323	13,929.2	37.8911	13,929.2	40.2359	13,929.2	37.9221	13,929.2	43.6655	13,929.2	39.474	13,929.2	46.2025	13,929.2	47.1927	13,929.2	43.0742	13,929.2	47.2676	13,929.2	49.5151	13,929.2	42.3396
14,419.9	92.4957	14,419.9	90.4025	14,419.9	88.918	14,419.9	81.3347	14,419.9	78.5866	14,419.9	78.2613	14,419.9	78.2681	14,419.9	77.4681	14,419.9	77.2749	14,419.9	73.0377	14,419.9	72.7916	14,419.9	67.5026	14,419.9	66.1748	14,419.9	59.045	14,419.9	58.0913	14,419.9	55.776	14,419.9	55.1499	14,419.9	49.3755	14,419.9	50.9066	14,419.9	45.0373	14,419.9	68.6058	14,419.9	45.087	14,419.9	66.7373	14,419.9	45.1462	14,419.9	46.8529	14,419.9	39.4604	14,419.9	36.4393	14,419.9	25.9471	14,419.9	42.267	14,419.9	36.0486	14,419.9	48.7336	14,419.9	44.4463	14,419.9	35.4277	14,419.9	45.281	14,419.9	44.5676	14,419.9	39.5569
14,928.2	92.771	14,928.2	90.0039	14,928.2	88.1829	14,928.2	81.4519	14,928.2	81.5938	14,928.2	80.1678	14,928.2	80.6072	14,928.2	76.7896	14,928.2	76.2331	14,928.2	70.6797	14,928.2	71.7172	14,928.2	67.7632	14,928.2	67.7897	14,928.2	62.7401	14,928.2	56.6914	14,928.2	60.346	14,928.2	57.1259	14,928.2	57.6131	14,928.2	46.234	14,928.2	48.2638	14,928.2	67.4657	14,928.2	42.9767	14,928.2	67.1078	14,928.2	44.7227	14,928.2	48.3601	14,928.2	33.8174	14,928.2	36.8043	14,928.2	37.0122	14,928.2	38.221	14,928.2	44.4893	14,928.2	43.9088	14,928.2	45.1866	14,928.2	45.792	14,928.2	46.9593	14,928.2	41.7782	14,928.2	42.7418
15,455.6	92.6113	15,455.6	90.1941	15,455.6	88.4546	15,455.6	83.7587	15,455.6	83.04	15,455.6	80.5066	15,455.6	78.8622	15,455.6	75.2886	15,455.6	74.5259	15,455.6	70.9982	15,455.6	70.5979	15,455.6	70.0726	15,455.6	68.4694	15,455.6	65.6257	15,455.6	63.6625	15,455.6	62.9205	15,455.6	55.4995	15,455.6	59.5287	15,455.6	52.9206	15,455.6	52.5257	15,455.6	64.1651	15,455.6	43.3462	15,455.6	65.9828	15,455.6	22.7866	15,455.6	40.7552	15,455.6	40.468	15,455.6	46.149	15,455.6	38.2046	15,455.6	44.7391	15,455.6	48.296	15,455.6	15.2739	15,455.6	48.6535	15,455.6	48.9784	15,455.6	48.4122	15,455.6	45.8946	15,455.6	41.9947
16,000.5	91.7456	16,000.5	90.2618	16,000.5	87.8013	16,000.5	83.2392	16,000.5	80.5582	16,000.5	74.924	16,000.5	71.1755	16,000.5	70.1252	16,000.5	64.1796	16,000.5	70.8064	16,000.5	60.0933	16,000.5	69.3798	16,000.5	62.8303	16,000.5	64.6524	16,000.5	54.5368	16,000.5	61.8181	16,000.5	47.3218	16,000.5	57.717	16,000.5	48.2302	16,000.5	53.7662	16,000.5	66.4062	16,000.5	31.6041	16,000.5	65.139	16,000.5	42.0406	16,000.5	40.2413	16,000.5	37.8253	16,000.5	42.2771	16,000.5	41.5202	16,000.5	37.8124	16,000.5	45.2223	16,000.5	37.1762	16,000.5	49.4662	16,000.5	44.6914	16,000.5	44.3242	16,000.5	46.0051	16,000.5	38.9727
16,564.5	92.2746	16,564.5	89.3618	16,564.5	87.4463	16,564.5	80.5945	16,564.5	76.9341	16,564.5	73.6062	16,564.5	64.8152	16,564.5	69.0713	16,564.5	68.7848	16,564.5	66.2627	16,564.5	68.159	16,564.5	62.4676	16,564.5	68.8766	16,564.5	62.2398	16,564.5	61.0581	16,564.5	55.6182	16,564.5	54.2858	16,564.5	50.994	16,564.5	48.8902	16,564.5	45.4016	16,564.5	65.3904	16,564.5	39.8899	16,564.5	63.5165	16,564.5	41.3416	16,564.5	22.2202	16,564.5	43.0106	16,564.5	45.9926	16,564.5	38.4813	16,564.5	43.162	16,564.5	38.8954	16,564.5	22.996	16,564.5	39.9849	16,564.5	37.7912	16,564.5	43.91	16,564.5	47.8191	16,564.5	37.7586
17,148.9	91.2811	17,148.9	88.7868	17,148.9	86.5883	17,148.9	81.3127	17,148.9	78.4538	17,148.9	74.3308	17,148.9	68.7887	17,148.9	67.1797	17,148.9	69.8315	17,148.9	64.5769	17,148.9	66.8149	17,148.9	66.727	17,148.9	68.6586	17,148.9	62.2506	17,148.9	61.0682	17,148.9	52.9585	17,148.9	53.6812	17,148.9	47.7692	17,148.9	43.7805	17,148.9	45.1378	17,148.9	61.3785	17,148.9	36.8505	17,148.9	61.4554	17,148.9	40.4039	17,148.9	33.1895	17,148.9	43.5022	17,148.9	41.3946	17,148.9	41.1477	17,148.9	41.3579	17,148.9	34.972	17,148.9	32.4887	17,148.9	41.5059	17,148.9	38.4232	17,148.9	40.2081	17,148.9	46.5006	17,148.9	38.8639
17,752.4	90.338	17,752.4	87.2988	17,752.4	84.0618	17,752.4	77.0339	17,752.4	68.0295	17,752.4	75.2542	17,752.4	72.9985	17,752.4	73.1585	17,752.4	74.1716	17,752.4	68.3246	17,752.4	71.6525	17,752.4	70.2228	17,752.4	69.663	17,752.4	60.3116	17,752.4	62.3786	17,752.4	58.4582	17,752.4	56.5425	17,752.4	50.9338	17,752.4	52.8957	17,752.4	49.0163	17,752.4	56.402	17,752.4	44.5785	17,752.4	52.0326	17,752.4	42.4771	17,752.4	31.7754	17,752.4	42.683	17,752.4	35.5875	17,752.4	37.4336	17,752.4	42.3302	17,752.4	26.3058	17,752.4	28.662	17,752.4	42.0479	17,752.4	42.2013	17,752.4	28.3064	17,752.4	41.7517	17,752.4	39.9705
18,379.4	88.6803	18,379.4	86.4724	18,379.4	84.5377	18,379.4	78.1857	18,379.4	75.2118	18,379.4	71.8447	18,379.4	72.8222	18,379.4	70.7076	18,379.4	74.7624	18,379.4	72.0205	18,379.4	73.5755	18,379.4	70.6204	18,379.4	67.8428	18,379.4	63.9999	18,379.4	62.5301	18,379.4	62.9554	18,379.4	58.8373	18,379.4	54.475	18,379.4	49.605	18,379.4	50.4234	18,379.4	56.7091	18,379.4	44.3966	18,379.4	56.2984	18,379.4	45.4796	18,379.4	34.7487	18,379.4	43.869	18,379.4	39.0673	18,379.4	43.0027	18,379.4	44.2862	18,379.4	37.1709	18,379.4	31.8804	18,379.4	44.6239	18,379.4	44.2264	18,379.4	36.8923	18,379.4	34.7302	18,379.4	34.6211
19,026.9	87.3843	19,026.9	86.1931	19,026.9	83.3158	19,026.9	76.8578	19,026.9	70.1451	19,026.9	72.4424	19,026.9	71.5125	19,026.9	71.3299	19,026.9	72.6425	19,026.9	72.4975	19,026.9	72.5251	19,026.9	68.1765	19,026.9	64.611	19,026.9	64.1028	19,026.9	59.2882	19,026.9	59.5794	19,026.9	55.5178	19,026.9	50.4422	19,026.9	42.5797	19,026.9	47.1735	19,026.9	57.0664	19,026.9	37.3996	19,026.9	56.6287	19,026.9	42.6213	19,026.9	38.1757	19,026.9	33.8401	19,026.9	39.9982	19,026.9	40.6334	19,026.9	38.5406	19,026.9	38.979	19,026.9	30.3234	19,026.9	46.5	19,026.9	43.2887	19,026.9	43.1641	19,026.9	39.5529	19,026.9	34.6931
19,697.8	87.6495	19,697.8	85.407	19,697.8	82.5955	19,697.8	72.9875	19,697.8	59.8187	19,697.8	71.3	19,697.8	70.7785	19,697.8	71.8008	19,697.8	71.9973	19,697.8	71.2609	19,697.8	69.9042	19,697.8	65.9738	19,697.8	58.9553	19,697.8	59.4691	19,697.8	54.0324	19,697.8	54.9886	19,697.8	53.3102	19,697.8	47.599	19,697.8	32.3537	19,697.8	34.2958	19,697.8	56.6073	19,697.8	36.6786	19,697.8	56.6276	19,697.8	43.9387	19,697.8	34.0431	19,697.8	35.6987	19,697.8	35.7739	19,697.8	34.9464	19,697.8	41.7043	19,697.8	39.3283	19,697.8	35.3171	19,697.8	43.8054	19,697.8	46.7123	19,697.8	36.7488	19,697.8	44.6517	19,697.8	42.4298
19,999.5	88.0872	19,999.5	85.7939	19,999.5	81.5453	19,999.5	69.5442	19,999.5	69.0469	19,999.5	73.5201	19,999.5	67.203	19,999.5	73.114	19,999.5	71.6394	19,999.5	70.8499	19,999.5	71.196	19,999.5	66.0365	19,999.5	61.5361	19,999.5	57.6132	19,999.5	52.7818	19,999.5	54.0837	19,999.5	55.0076	19,999.5	47.4092	19,999.5	46.0228	19,999.5	36.2171	19,999.5	56.4118	19,999.5	46.4181	19,999.5	56.0526	19,999.5	40.8238	19,999.5	52.4535	19,999.5	42.8927	19,999.5	39.105	19,999.5	42.1926	19,999.5	50.9427	19,999.5	39.2759	19,999.5	48.1028	19,999.5	44.7188	19,999.5	49.7364	19,999.5	43.2012	19,999.5	45.377	19,999.5	40.9767
