"SPL Horizontal"
"On-Axis"		"10°"		"-10°"		"20°"		"-20°"		"30°"		"-30°"		"40°"		"-40°"		"50°"		"-50°"		"60°"		"-60°"		"70°"		"-70°"		"80°"		"-80°"		"90°"		"-90°"		"100°"		"-100°"		"110°"		"-110°"		"120°"		"-120°"		"130°"		"-130°"		"140°"		"-140°"		"150°"		"-150°"		"160°"		"-160°"		"170°"		"-170°"		"180°"
"Frequency / Hz"	"Sound Pressure Level / dB (re 20 µPa/V)  [2.83  V @ 1. m]"	"Frequency / Hz"	"Sound Pressure Level / dB (re 20 µPa/V)  [2.83  V @ 1. m]"	"Frequency / Hz"	"Sound Pressure Level / dB (re 20 µPa/V)  [2.83  V @ 1. m]"	"Frequency / Hz"	"Sound Pressure Level / dB (re 20 µPa/V)  [2.83  V @ 1. m]"	"Frequency / Hz"	"Sound Pressure Level / dB (re 20 µPa/V)  [2.83  V @ 1. m]"	"Frequency / Hz"	"Sound Pressure Level / dB (re 20 µPa/V)  [2.83  V @ 1. m]"	"Frequency / Hz"	"Sound Pressure Level / dB (re 20 µPa/V)  [2.83  V @ 1. m]"	"Frequency / Hz"	"Sound Pressure Level / dB (re 20 µPa/V)  [2.83  V @ 1. m]"	"Frequency / Hz"	"Sound Pressure Level / dB (re 20 µPa/V)  [2.83  V @ 1. m]"	"Frequency / Hz"	"Sound Pressure Level / dB (re 20 µPa/V)  [2.83  V @ 1. m]"	"Frequency / Hz"	"Sound Pressure Level / dB (re 20 µPa/V)  [2.83  V @ 1. m]"	"Frequency / Hz"	"Sound Pressure Level / dB (re 20 µPa/V)  [2.83  V @ 1. m]"	"Frequency / Hz"	"Sound Pressure Level / dB (re 20 µPa/V)  [2.83  V @ 1. m]"	"Frequency / Hz"	"Sound Pressure Level / dB (re 20 µPa/V)  [2.83  V @ 1. m]"	"Frequency / Hz"	"Sound Pressure Level / dB (re 20 µPa/V)  [2.83  V @ 1. m]"	"Frequency / Hz"	"Sound Pressure Level / dB (re 20 µPa/V)  [2.83  V @ 1. m]"	"Frequency / Hz"	"Sound Pressure Level / dB (re 20 µPa/V)  [2.83  V @ 1. m]"	"Frequency / Hz"	"Sound Pressure Level / dB (re 20 µPa/V)  [2.83  V @ 1. m]"	"Frequency / Hz"	"Sound Pressure Level / dB (re 20 µPa/V)  [2.83  V @ 1. m]"	"Frequency / Hz"	"Sound Pressure Level / dB (re 20 µPa/V)  [2.83  V @ 1. m]"	"Frequency / Hz"	"Sound Pressure Level / dB (re 20 µPa/V)  [2.83  V @ 1. m]"	"Frequency / Hz"	"Sound Pressure Level / dB (re 20 µPa/V)  [2.83  V @ 1. m]"	"Frequency / Hz"	"Sound Pressure Level / dB (re 20 µPa/V)  [2.83  V @ 1. m]"	"Frequency / Hz"	"Sound Pressure Level / dB (re 20 µPa/V)  [2.83  V @ 1. m]"	"Frequency / Hz"	"Sound Pressure Level / dB (re 20 µPa/V)  [2.83  V @ 1. m]"	"Frequency / Hz"	"Sound Pressure Level / dB (re 20 µPa/V)  [2.83  V @ 1. m]"	"Frequency / Hz"	"Sound Pressure Level / dB (re 20 µPa/V)  [2.83  V @ 1. m]"	"Frequency / Hz"	"Sound Pressure Level / dB (re 20 µPa/V)  [2.83  V @ 1. m]"	"Frequency / Hz"	"Sound Pressure Level / dB (re 20 µPa/V)  [2.83  V @ 1. m]"	"Frequency / Hz"	"Sound Pressure Level / dB (re 20 µPa/V)  [2.83  V @ 1. m]"	"Frequency / Hz"	"Sound Pressure Level / dB (re 20 µPa/V)  [2.83  V @ 1. m]"	"Frequency / Hz"	"Sound Pressure Level / dB (re 20 µPa/V)  [2.83  V @ 1. m]"	"Frequency / Hz"	"Sound Pressure Level / dB (re 20 µPa/V)  [2.83  V @ 1. m]"	"Frequency / Hz"	"Sound Pressure Level / dB (re 20 µPa/V)  [2.83  V @ 1. m]"	"Frequency / Hz"	"Sound Pressure Level / dB (re 20 µPa/V)  [2.83  V @ 1. m]"	"Frequency / Hz"	"Sound Pressure Level / dB (re 20 µPa/V)  [2.83  V @ 1. m]"
20.5078	52.0036	20.5078	52.0529	20.5078	51.9694	20.5078	52.1169	20.5078	51.9504	20.5078	52.1939	20.5078	51.9456	20.5078	52.2814	20.5078	51.9541	20.5078	52.376	20.5078	51.9749	20.5078	52.4729	20.5078	52.0075	20.5078	52.5667	20.5078	52.0519	20.5078	52.6514	20.5078	52.1079	20.5078	52.722	20.5078	52.1749	20.5078	52.7754	20.5078	52.2509	20.5078	52.8111	20.5078	52.3328	20.5078	52.831	20.5078	52.4159	20.5078	52.8384	20.5078	52.4958	20.5078	52.8367	20.5078	52.5687	20.5078	52.8279	20.5078	52.6323	20.5078	52.8131	20.5078	52.6857	20.5078	52.7922	20.5078	52.7295	20.5078	52.7646
21.9727	54.6513	21.9727	54.6328	21.9727	54.6789	21.9727	54.6236	21.9727	54.7147	21.9727	54.6232	21.9727	54.7569	21.9727	54.6305	21.9727	54.8032	21.9727	54.6435	21.9727	54.8511	21.9727	54.6599	21.9727	54.898	21.9727	54.6771	21.9727	54.9417	21.9727	54.6928	21.9727	54.9804	21.9727	54.7061	21.9727	55.0126	21.9727	54.7175	21.9727	55.0367	21.9727	54.7289	21.9727	55.0513	21.9727	54.7426	21.9727	55.0552	21.9727	54.7602	21.9727	55.0479	21.9727	54.7822	21.9727	55.0301	21.9727	54.8082	21.9727	55.0037	21.9727	54.8372	21.9727	54.9716	21.9727	54.8686	21.9727	54.9369	21.9727	54.9021
23.4375	56.5294	23.4375	56.5295	23.4375	56.53	23.4375	56.5286	23.4375	56.5328	23.4375	56.5258	23.4375	56.539	23.4375	56.5207	23.4375	56.5496	23.4375	56.5133	23.4375	56.5648	23.4375	56.5046	23.4375	56.5842	23.4375	56.4954	23.4375	56.6068	23.4375	56.487	23.4375	56.6311	23.4375	56.4806	23.4375	56.6549	23.4375	56.4774	23.4375	56.6762	23.4375	56.4789	23.4375	56.6926	23.4375	56.486	23.4375	56.7026	23.4375	56.4993	23.4375	56.7053	23.4375	56.5186	23.4375	56.7007	23.4375	56.5426	23.4375	56.6893	23.4375	56.5697	23.4375	56.6722	23.4375	56.5979	23.4375	56.6505	23.4375	56.6253
24.9023	58.5876	24.9023	58.5896	24.9023	58.5871	24.9023	58.5929	24.9023	58.5879	24.9023	58.5976	24.9023	58.5899	24.9023	58.6036	24.9023	58.5933	24.9023	58.6106	24.9023	58.5981	24.9023	58.6183	24.9023	58.6044	24.9023	58.6261	24.9023	58.6123	24.9023	58.6334	24.9023	58.6218	24.9023	58.6394	24.9023	58.6322	24.9023	58.6437	24.9023	58.6423	24.9023	58.6461	24.9023	58.6508	24.9023	58.6467	24.9023	58.6565	24.9023	58.6459	24.9023	58.6586	24.9023	58.6443	24.9023	58.6574	24.9023	58.6426	24.9023	58.6539	24.9023	58.6412	24.9023	58.6493	24.9023	58.6409	24.9023	58.6451	24.9023	58.6421
26.3672	61.1573	26.3672	61.1637	26.3672	61.1509	26.3672	61.1702	26.3672	61.1445	26.3672	61.1767	26.3672	61.1377	26.3672	61.1829	26.3672	61.1303	26.3672	61.1885	26.3672	61.122	26.3672	61.1926	26.3672	61.1128	26.3672	61.1945	26.3672	61.1027	26.3672	61.193	26.3672	61.092	26.3672	61.1871	26.3672	61.0808	26.3672	61.1763	26.3672	61.0693	26.3672	61.1607	26.3672	61.0574	26.3672	61.141	26.3672	61.0452	26.3672	61.1184	26.3672	61.0332	26.3672	61.0944	26.3672	61.0224	26.3672	61.0707	26.3672	61.0142	26.3672	61.0491	26.3672	61.01	26.3672	61.0312	26.3672	61.0112	26.3672	61.0183
27.832	62.4059	27.832	62.4151	27.832	62.3967	27.832	62.4241	27.832	62.3876	27.832	62.4326	27.832	62.3786	27.832	62.4402	27.832	62.3697	27.832	62.4463	27.832	62.3613	27.832	62.4503	27.832	62.3535	27.832	62.4513	27.832	62.3466	27.832	62.4484	27.832	62.3408	27.832	62.4411	27.832	62.3357	27.832	62.4291	27.832	62.3308	27.832	62.4127	27.832	62.3255	27.832	62.3929	27.832	62.3191	27.832	62.3711	27.832	62.3114	27.832	62.349	27.832	62.3031	27.832	62.3283	27.832	62.2952	27.832	62.3108	27.832	62.2893	27.832	62.2976	27.832	62.2871	27.832	62.2897
29.2969	64.1512	29.2969	64.1627	29.2969	64.1385	29.2969	64.1725	29.2969	64.125	29.2969	64.1802	29.2969	64.1109	29.2969	64.1854	29.2969	64.0966	29.2969	64.1876	29.2969	64.0823	29.2969	64.1865	29.2969	64.0682	29.2969	64.1814	29.2969	64.0546	29.2969	64.1721	29.2969	64.0416	29.2969	64.1581	29.2969	64.0294	29.2969	64.1397	29.2969	64.0179	29.2969	64.1177	29.2969	64.0068	29.2969	64.0931	29.2969	63.9959	29.2969	64.0675	29.2969	63.9855	29.2969	64.0424	29.2969	63.9763	29.2969	64.0192	29.2969	63.9692	29.2969	63.9992	29.2969	63.9656	29.2969	63.9833	29.2969	63.9664	29.2969	63.9723
30.7617	65.8657	30.7617	65.8769	30.7617	65.8534	30.7617	65.8867	30.7617	65.8399	30.7617	65.8949	30.7617	65.8255	30.7617	65.9013	30.7617	65.8102	30.7617	65.9057	30.7617	65.7942	30.7617	65.9079	30.7617	65.7779	30.7617	65.9073	30.7617	65.7615	30.7617	65.9034	30.7617	65.7458	30.7617	65.8957	30.7617	65.7313	30.7617	65.884	30.7617	65.7185	30.7617	65.8681	30.7617	65.7076	30.7617	65.8488	30.7617	65.6991	30.7617	65.8268	30.7617	65.6932	30.7617	65.8033	30.7617	65.6904	30.7617	65.7797	30.7617	65.6912	30.7617	65.757	30.7617	65.6962	30.7617	65.7365	30.7617	65.7055	30.7617	65.7191
32.2266	67.2189	32.2266	67.2371	32.2266	67.1991	32.2266	67.2533	32.2266	67.1781	32.2266	67.2672	32.2266	67.1563	32.2266	67.2785	32.2266	67.1344	32.2266	67.287	32.2266	67.113	32.2266	67.2922	32.2266	67.0931	32.2266	67.2934	32.2266	67.0752	32.2266	67.2901	32.2266	67.0599	32.2266	67.2813	32.2266	67.0473	32.2266	67.2668	32.2266	67.0373	32.2266	67.2466	32.2266	67.0292	32.2266	67.2211	32.2266	67.0227	32.2266	67.1917	32.2266	67.0176	32.2266	67.1598	32.2266	67.0147	32.2266	67.1276	32.2266	67.015	32.2266	67.0968	32.2266	67.0199	32.2266	67.0694	32.2266	67.0304	32.2266	67.047
33.6914	68.8179	33.6914	68.8266	33.6914	68.8054	33.6914	68.8311	33.6914	68.789	33.6914	68.8313	33.6914	68.7691	33.6914	68.827	33.6914	68.7459	33.6914	68.8179	33.6914	68.7198	33.6914	68.8037	33.6914	68.691	33.6914	68.7842	33.6914	68.66	33.6914	68.7589	33.6914	68.6274	33.6914	68.728	33.6914	68.5933	33.6914	68.6917	33.6914	68.5585	33.6914	68.651	33.6914	68.5235	33.6914	68.6074	33.6914	68.4894	33.6914	68.5628	33.6914	68.4577	33.6914	68.5193	33.6914	68.4304	33.6914	68.4794	33.6914	68.4095	33.6914	68.4452	33.6914	68.3969	33.6914	68.4187	33.6914	68.3939	33.6914	68.4013
35.1562	70.2027	35.1562	70.2163	35.1562	70.1837	35.1562	70.2242	35.1562	70.1596	35.1562	70.2262	35.1562	70.1312	35.1562	70.2222	35.1562	70.0989	35.1562	70.2121	35.1562	70.0636	35.1562	70.196	35.1562	70.0261	35.1562	70.1739	35.1562	69.9875	35.1562	70.1458	35.1562	69.9486	35.1562	70.1119	35.1562	69.9102	35.1562	70.0728	35.1562	69.8732	35.1562	70.0294	35.1562	69.8386	35.1562	69.9834	35.1562	69.8073	35.1562	69.9368	35.1562	69.7807	35.1562	69.8917	35.1562	69.7602	35.1562	69.8499	35.1562	69.7472	35.1562	69.8134	35.1562	69.7427	35.1562	69.7833	35.1562	69.7473	35.1562	69.761
36.6211	71.3861	36.6211	71.4009	36.6211	71.3654	36.6211	71.4093	36.6211	71.3392	36.6211	71.4114	36.6211	71.3082	36.6211	71.407	36.6211	71.2732	36.6211	71.3962	36.6211	71.2352	36.6211	71.3793	36.6211	71.1952	36.6211	71.3563	36.6211	71.1545	36.6211	71.3274	36.6211	71.1143	36.6211	71.293	36.6211	71.0758	36.6211	71.2537	36.6211	71.0398	36.6211	71.2105	36.6211	71.0074	36.6211	71.1651	36.6211	70.9794	36.6211	71.1193	36.6211	70.9566	36.6211	71.0751	36.6211	70.9398	36.6211	71.0345	36.6211	70.93	36.6211	70.9988	36.6211	70.9278	36.6211	70.9696	36.6211	70.9336	36.6211	70.9477
38.0859	72.8252	38.0859	72.8355	38.0859	72.8077	38.0859	72.8385	38.0859	72.7835	38.0859	72.8341	38.0859	72.753	38.0859	72.8223	38.0859	72.7169	38.0859	72.8035	38.0859	72.6761	38.0859	72.7778	38.0859	72.6316	38.0859	72.7456	38.0859	72.5845	38.0859	72.7072	38.0859	72.536	38.0859	72.6632	38.0859	72.4873	38.0859	72.6144	38.0859	72.4399	38.0859	72.5622	38.0859	72.395	38.0859	72.5084	38.0859	72.3543	38.0859	72.4552	38.0859	72.3192	38.0859	72.405	38.0859	72.2912	38.0859	72.3599	38.0859	72.2717	38.0859	72.3218	38.0859	72.2616	38.0859	72.2921	38.0859	72.2616	38.0859	72.2718
39.5508	74.1338	39.5508	74.1488	39.5508	74.1113	39.5508	74.1559	39.5508	74.0817	39.5508	74.1549	39.5508	74.046	39.5508	74.146	39.5508	74.0051	39.5508	74.1294	39.5508	73.9602	39.5508	74.1053	39.5508	73.9125	39.5508	74.0743	39.5508	73.8634	39.5508	74.0367	39.5508	73.8142	39.5508	73.9929	39.5508	73.7663	39.5508	73.9441	39.5508	73.721	39.5508	73.8915	39.5508	73.6797	39.5508	73.8372	39.5508	73.6437	39.5508	73.7835	39.5508	73.6141	39.5508	73.7325	39.5508	73.5919	39.5508	73.6864	39.5508	73.5782	39.5508	73.6468	39.5508	73.5735	39.5508	73.6151	39.5508	73.578	39.5508	73.592
41.0156	75.4063	41.0156	75.4213	41.0156	75.3824	41.0156	75.4271	41.0156	75.3502	41.0156	75.4236	41.0156	75.3108	41.0156	75.4108	41.0156	75.2652	41.0156	75.389	41.0156	75.2146	41.0156	75.3588	41.0156	75.1606	41.0156	75.3206	41.0156	75.1046	41.0156	75.275	41.0156	75.0481	41.0156	75.223	41.0156	74.9926	41.0156	75.1657	41.0156	74.9397	41.0156	75.1047	41.0156	74.8909	41.0156	75.0424	41.0156	74.8476	41.0156	74.9811	41.0156	74.8112	41.0156	74.9234	41.0156	74.7829	41.0156	74.8717	41.0156	74.7639	41.0156	74.828	41.0156	74.7551	41.0156	74.7937	41.0156	74.757	41.0156	74.7699
42.4805	76.6918	42.4805	76.7023	42.4805	76.6716	42.4805	76.7029	42.4805	76.6425	42.4805	76.6933	42.4805	76.6053	42.4805	76.674	42.4805	76.561	42.4805	76.6452	42.4805	76.511	42.4805	76.6079	42.4805	76.4567	42.4805	76.563	42.4805	76.3995	42.4805	76.5116	42.4805	76.3409	42.4805	76.4551	42.4805	76.2825	42.4805	76.3951	42.4805	76.2259	42.4805	76.3334	42.4805	76.1728	42.4805	76.2718	42.4805	76.1247	42.4805	76.2127	42.4805	76.0834	42.4805	76.158	42.4805	76.0503	42.4805	76.1098	42.4805	76.0266	42.4805	76.0698	42.4805	76.0133	42.4805	76.0395	42.4805	76.0109	42.4805	76.0196
43.9453	77.8557	43.9453	77.8673	43.9453	77.8337	43.9453	77.868	43.9453	77.802	43.9453	77.8579	43.9453	77.7615	43.9453	77.8369	43.9453	77.7134	43.9453	77.8058	43.9453	77.6592	43.9453	77.7654	43.9453	77.6006	43.9453	77.7169	43.9453	77.5391	43.9453	77.6617	43.9453	77.4766	43.9453	77.6016	43.9453	77.4147	43.9453	77.5385	43.9453	77.3551	43.9453	77.4743	43.9453	77.2996	43.9453	77.4111	43.9453	77.2499	43.9453	77.3508	43.9453	77.2076	43.9453	77.2952	43.9453	77.1743	43.9453	77.246	43.9453	77.1514	43.9453	77.2047	43.9453	77.1396	43.9453	77.1724	43.9453	77.1392	43.9453	77.1504
45.4102	78.9392	45.4102	78.9509	45.4102	78.9163	45.4102	78.951	45.4102	78.883	45.4102	78.9393	45.4102	78.8403	45.4102	78.916	45.4102	78.7895	45.4102	78.8818	45.4102	78.732	45.4102	78.8375	45.4102	78.6697	45.4102	78.7845	45.4102	78.6043	45.4102	78.7245	45.4102	78.5378	45.4102	78.6596	45.4102	78.4721	45.4102	78.5918	45.4102	78.4091	45.4102	78.5234	45.4102	78.3506	45.4102	78.4565	45.4102	78.2984	45.4102	78.3931	45.4102	78.2541	45.4102	78.3352	45.4102	78.2191	45.4102	78.2845	45.4102	78.1945	45.4102	78.2425	45.4102	78.1811	45.4102	78.2104	45.4102	78.1792	45.4102	78.1891
46.875	79.9249	46.875	79.9368	46.875	79.9019	46.875	79.9373	46.875	79.8686	46.875	79.9262	46.875	79.8258	46.875	79.9039	46.875	79.775	46.875	79.871	46.875	79.7177	46.875	79.8284	46.875	79.6554	46.875	79.7776	46.875	79.5902	46.875	79.7202	46.875	79.524	46.875	79.658	46.875	79.4587	46.875	79.5931	46.875	79.3963	46.875	79.5274	46.875	79.3388	46.875	79.463	46.875	79.2881	46.875	79.4016	46.875	79.2457	46.875	79.345	46.875	79.2132	46.875	79.2948	46.875	79.1915	46.875	79.2523	46.875	79.1813	46.875	79.2188	46.875	79.1826	46.875	79.1953
48.3398	80.745	48.3398	80.7545	48.3398	80.7246	48.3398	80.7528	48.3398	80.694	48.3398	80.74	48.3398	80.654	48.3398	80.7164	48.3398	80.6059	48.3398	80.6826	48.3398	80.5512	48.3398	80.6399	48.3398	80.4918	48.3398	80.5894	48.3398	80.4293	48.3398	80.5329	48.3398	80.3659	48.3398	80.4721	48.3398	80.3036	48.3398	80.4092	48.3398	80.2442	48.3398	80.3462	48.3398	80.1896	48.3398	80.2852	48.3398	80.1416	48.3398	80.2281	48.3398	80.1015	48.3398	80.1764	48.3398	80.0704	48.3398	80.1315	48.3398	80.0492	48.3398	80.0944	48.3398	80.0381	48.3398	80.066	48.3398	80.0374	48.3398	80.0468
51.2695	82.1259	51.2695	82.1372	51.2695	82.1028	51.2695	82.1364	51.2695	82.0686	51.2695	82.1234	51.2695	82.0244	51.2695	82.0987	51.2695	81.9716	51.2695	82.0631	51.2695	81.912	51.2695	82.0177	51.2695	81.8474	51.2695	81.9641	51.2695	81.78	51.2695	81.9039	51.2695	81.712	51.2695	81.8393	51.2695	81.6457	51.2695	81.7723	51.2695	81.5831	51.2695	81.7054	51.2695	81.5263	51.2695	81.6407	51.2695	81.4771	51.2695	81.5803	51.2695	81.4369	51.2695	81.5259	51.2695	81.4067	51.2695	81.479	51.2695	81.3869	51.2695	81.4402	51.2695	81.3777	51.2695	81.4103	51.2695	81.3787	51.2695	81.3897
52.7344	82.6404	52.7344	82.6497	52.7344	82.618	52.7344	82.6459	52.7344	82.5835	52.7344	82.6288	52.7344	82.5377	52.7344	82.5992	52.7344	82.4823	52.7344	82.5579	52.7344	82.419	52.7344	82.5063	52.7344	82.3499	52.7344	82.4463	52.7344	82.2773	52.7344	82.3797	52.7344	82.2034	52.7344	82.3091	52.7344	82.1309	52.7344	82.2367	52.7344	82.0622	52.7344	82.1652	52.7344	81.9996	52.7344	82.0969	52.7344	81.9451	52.7344	82.0339	52.7344	81.9004	52.7344	81.9779	52.7344	81.8666	52.7344	81.9302	52.7344	81.844	52.7344	81.8914	52.7344	81.8327	52.7344	81.862	52.7344	81.8322	52.7344	81.8422
54.1992	83.0363	54.1992	83.039	54.1992	83.0197	54.1992	83.0275	54.1992	82.9897	54.1992	83.0023	54.1992	82.9474	54.1992	82.964	54.1992	82.8943	54.1992	82.914	54.1992	82.8322	54.1992	82.854	54.1992	82.7633	54.1992	82.7863	54.1992	82.6898	54.1992	82.7134	54.1992	82.6143	54.1992	82.638	54.1992	82.5393	54.1992	82.5628	54.1992	82.4675	54.1992	82.4905	54.1992	82.4012	54.1992	82.4235	54.1992	82.3424	54.1992	82.3636	54.1992	82.2929	54.1992	82.3124	54.1992	82.2535	54.1992	82.2704	54.1992	82.225	54.1992	82.2382	54.1992	82.2072	54.1992	82.2157	54.1992	82.2	54.1992	82.2029
55.6641	83.1999	55.6641	83.2053	55.6641	83.1811	55.6641	83.1974	55.6641	83.1495	55.6641	83.1764	55.6641	83.1061	55.6641	83.1432	55.6641	83.0522	55.6641	83.0987	55.6641	82.9896	55.6641	83.0446	55.6641	82.9203	55.6641	82.9828	55.6641	82.8469	55.6641	82.9155	55.6641	82.772	55.6641	82.8453	55.6641	82.6983	55.6641	82.7747	55.6641	82.6287	55.6641	82.7061	55.6641	82.5656	55.6641	82.6416	55.6641	82.5111	55.6641	82.5831	55.6641	82.4669	55.6641	82.5317	55.6641	82.4337	55.6641	82.4883	55.6641	82.4117	55.6641	82.4533	55.6641	82.4007	55.6641	82.4267	55.6641	82.3999	55.6641	82.4088
58.5938	83.4916	58.5938	83.4936	58.5938	83.4737	58.5938	83.4795	58.5938	83.4405	58.5938	83.4497	58.5938	83.3931	58.5938	83.4052	58.5938	83.3332	58.5938	83.3474	58.5938	83.2627	58.5938	83.2785	58.5938	83.1842	58.5938	83.201	58.5938	83.1002	58.5938	83.1175	58.5938	83.0137	58.5938	83.0313	58.5938	82.9276	58.5938	82.9451	58.5938	82.8447	58.5938	82.862	58.5938	82.7677	58.5938	82.7843	58.5938	82.6987	58.5938	82.7143	58.5938	82.6397	58.5938	82.6535	58.5938	82.5918	58.5938	82.6034	58.5938	82.5559	58.5938	82.5647	58.5938	82.5325	58.5938	82.538	58.5938	82.5218	58.5938	82.5237
60.0586	83.6026	60.0586	83.6063	60.0586	83.5827	60.0586	83.5936	60.0586	83.5473	60.0586	83.5648	60.0586	83.4977	60.0586	83.5206	60.0586	83.4355	60.0586	83.4623	60.0586	83.3625	60.0586	83.3919	60.0586	83.2812	60.0586	83.3116	60.0586	83.194	60.0586	83.224	60.0586	83.1036	60.0586	83.1323	60.0586	83.0129	60.0586	83.0394	60.0586	82.9247	60.0586	82.9484	60.0586	82.8416	60.0586	82.8623	60.0586	82.7662	60.0586	82.7837	60.0586	82.7005	60.0586	82.7149	60.0586	82.6465	60.0586	82.6577	60.0586	82.6054	60.0586	82.6135	60.0586	82.5781	60.0586	82.583	60.0586	82.5652	60.0586	82.5669
62.9883	83.5882	62.9883	83.5898	62.9883	83.5708	62.9883	83.5757	62.9883	83.5383	62.9883	83.5461	62.9883	83.4919	62.9883	83.5021	62.9883	83.4332	62.9883	83.4451	62.9883	83.3642	62.9883	83.3773	62.9883	83.2873	62.9883	83.301	62.9883	83.205	62.9883	83.219	62.9883	83.1201	62.9883	83.1344	62.9883	83.0353	62.9883	83.0501	62.9883	82.9533	62.9883	82.9688	62.9883	82.8768	62.9883	82.8929	62.9883	82.8079	62.9883	82.8244	62.9883	82.7487	62.9883	82.7647	62.9883	82.7007	62.9883	82.7151	62.9883	82.6649	62.9883	82.6764	62.9883	82.6418	62.9883	82.6493	62.9883	82.6316	62.9883	82.6342
64.4531	83.5343	64.4531	83.5348	64.4531	83.5179	64.4531	83.5194	64.4531	83.4863	64.4531	83.4886	64.4531	83.4407	64.4531	83.4435	64.4531	83.3827	64.4531	83.3858	64.4531	83.3145	64.4531	83.3177	64.4531	83.2386	64.4531	83.2418	64.4531	83.1575	64.4531	83.161	64.4531	83.0742	64.4531	83.0783	64.4531	82.9913	64.4531	82.9967	64.4531	82.9115	64.4531	82.9187	64.4531	82.8374	64.4531	82.8466	64.4531	82.7711	64.4531	82.7822	64.4531	82.7144	64.4531	82.7265	64.4531	82.6687	64.4531	82.6806	64.4531	82.6348	64.4531	82.6449	64.4531	82.6131	64.4531	82.6199	64.4531	82.6036	64.4531	82.606
67.3828	83.3561	67.3828	83.3555	67.3828	83.3412	67.3828	83.3396	67.3828	83.3114	67.3828	83.3089	67.3828	83.2678	67.3828	83.2647	67.3828	83.2119	67.3828	83.2086	67.3828	83.1457	67.3828	83.1427	67.3828	83.0716	67.3828	83.0696	67.3828	82.9924	67.3828	82.992	67.3828	82.9108	67.3828	82.9128	67.3828	82.8298	67.3828	82.8346	67.3828	82.7521	67.3828	82.7599	67.3828	82.6803	67.3828	82.6908	67.3828	82.6164	67.3828	82.629	67.3828	82.5621	67.3828	82.5756	67.3828	82.5187	67.3828	82.5317	67.3828	82.4868	67.3828	82.4977	67.3828	82.4666	67.3828	82.4738	67.3828	82.4579	67.3828	82.4605
68.8477	83.2794	68.8477	83.2757	68.8477	83.2682	68.8477	83.2573	68.8477	83.2428	68.8477	83.225	68.8477	83.2042	68.8477	83.1799	68.8477	83.1541	68.8477	83.1239	68.8477	83.0944	68.8477	83.0592	68.8477	83.0277	68.8477	82.9887	68.8477	82.9565	68.8477	82.9152	68.8477	82.8835	68.8477	82.8417	68.8477	82.8116	68.8477	82.771	68.8477	82.743	68.8477	82.7054	68.8477	82.68	68.8477	82.6468	68.8477	82.6242	68.8477	82.5966	68.8477	82.5767	68.8477	82.5554	68.8477	82.5384	68.8477	82.5233	68.8477	82.5096	68.8477	82.4999	68.8477	82.4902	68.8477	82.485	68.8477	82.48	68.8477	82.4783
71.7773	83.2486	71.7773	83.2428	71.7773	83.2375	71.7773	83.22	71.7773	83.2103	71.7773	83.1812	71.7773	83.1684	71.7773	83.1279	71.7773	83.114	71.7773	83.0622	71.7773	83.0497	71.7773	82.9872	71.7773	82.9784	71.7773	82.9061	71.7773	82.9034	71.7773	82.8225	71.7773	82.8279	71.7773	82.7401	71.7773	82.7547	71.7773	82.6624	71.7773	82.6865	71.7773	82.5923	71.7773	82.6249	71.7773	82.5323	71.7773	82.5714	71.7773	82.4838	71.7773	82.5263	71.7773	82.4476	71.7773	82.4893	71.7773	82.4232	71.7773	82.4598	71.7773	82.4097	71.7773	82.4369	71.7773	82.4056	71.7773	82.4202	71.7773	82.4096
74.707	83.2865	74.707	83.2807	74.707	83.2749	74.707	83.2572	74.707	83.2467	74.707	83.2168	74.707	83.2032	74.707	83.1609	74.707	83.1464	74.707	83.0914	74.707	83.0789	74.707	83.0112	74.707	83.0035	74.707	82.9235	74.707	82.9233	74.707	82.832	74.707	82.8412	74.707	82.7406	74.707	82.7602	74.707	82.6533	74.707	82.683	74.707	82.5735	74.707	82.6116	74.707	82.5042	74.707	82.5478	74.707	82.4473	74.707	82.4928	74.707	82.4038	74.707	82.447	74.707	82.3737	74.707	82.4105	74.707	82.3559	74.707	82.3827	74.707	82.3491	74.707	82.3632	74.707	82.3518
77.6367	83.2177	77.6367	83.2102	77.6367	83.2084	77.6367	83.1859	77.6367	83.1831	77.6367	83.1457	77.6367	83.143	77.6367	83.091	77.6367	83.0903	77.6367	83.0241	77.6367	83.0274	77.6367	82.9477	77.6367	82.9572	77.6367	82.8652	77.6367	82.8826	77.6367	82.7802	77.6367	82.8064	77.6367	82.6962	77.6367	82.7315	77.6367	82.6168	77.6367	82.6601	77.6367	82.5449	77.6367	82.5941	77.6367	82.4828	77.6367	82.535	77.6367	82.4323	77.6367	82.4835	77.6367	82.3938	77.6367	82.4403	77.6367	82.3672	77.6367	82.4055	77.6367	82.3516	77.6367	82.3788	77.6367	82.3459	77.6367	82.36	77.6367	82.3489
79.1016	83.1544	79.1016	83.1488	79.1016	83.1431	79.1016	83.1263	79.1016	83.1156	79.1016	83.0877	79.1016	83.0735	79.1016	83.0345	79.1016	83.0188	79.1016	82.9688	79.1016	82.9541	79.1016	82.8933	79.1016	82.8822	79.1016	82.8114	79.1016	82.8063	79.1016	82.7265	79.1016	82.7292	79.1016	82.6421	79.1016	82.6538	79.1016	82.5617	79.1016	82.5824	79.1016	82.4883	79.1016	82.5168	79.1016	82.4245	79.1016	82.4585	79.1016	82.3719	79.1016	82.4082	79.1016	82.3315	79.1016	82.3664	79.1016	82.3031	79.1016	82.333	79.1016	82.286	79.1016	82.3078	79.1016	82.2789	79.1016	82.2903	79.1016	82.2806
82.0312	82.9949	82.0312	82.9908	82.0312	82.9805	82.0312	82.9677	82.0312	82.9488	82.0312	82.9264	82.0312	82.9017	82.0312	82.8684	82.0312	82.8423	82.0312	82.7962	82.0312	82.7737	82.0312	82.7129	82.0312	82.6996	82.0312	82.6224	82.0312	82.6237	82.0312	82.5289	82.0312	82.5495	82.0312	82.4371	82.0312	82.4798	82.0312	82.3514	82.0312	82.4167	82.0312	82.2759	82.0312	82.3615	82.0312	82.2139	82.0312	82.3142	82.0312	82.1672	82.0312	82.2742	82.0312	82.1366	82.0312	82.2402	82.0312	82.1211	82.0312	82.2107	82.0312	82.1185	82.0312	82.1845	82.0312	82.1262	82.0312	82.1612	82.0312	82.1412
84.9609	82.9823	84.9609	82.9814	84.9609	82.9632	84.9609	82.9603	84.9609	82.9251	84.9609	82.9197	84.9609	82.8695	84.9609	82.8611	84.9609	82.7989	84.9609	82.7866	84.9609	82.7164	84.9609	82.6994	84.9609	82.6258	84.9609	82.6031	84.9609	82.5314	84.9609	82.502	84.9609	82.4378	84.9609	82.4012	84.9609	82.3492	84.9609	82.3056	84.9609	82.2695	84.9609	82.2202	84.9609	82.2013	84.9609	82.1488	84.9609	82.1461	84.9609	82.0938	84.9609	82.1037	84.9609	82.0555	84.9609	82.0729	84.9609	82.0322	84.9609	82.0514	84.9609	82.0208	84.9609	82.0367	84.9609	82.0179	84.9609	82.0268	84.9609	82.0204
87.8906	82.8137	87.8906	82.833	87.8906	82.7739	87.8906	82.8315	87.8906	82.7154	87.8906	82.8103	87.8906	82.641	87.8906	82.7716	87.8906	82.555	87.8906	82.7186	87.8906	82.4624	87.8906	82.6552	87.8906	82.369	87.8906	82.5858	87.8906	82.2805	87.8906	82.5148	87.8906	82.2022	87.8906	82.4459	87.8906	82.1384	87.8906	82.3825	87.8906	82.0913	87.8906	82.3268	87.8906	82.0616	87.8906	82.2804	87.8906	82.0478	87.8906	82.2433	87.8906	82.0474	87.8906	82.2146	87.8906	82.0569	87.8906	82.1919	87.8906	82.073	87.8906	82.1725	87.8906	82.0928	87.8906	82.1538	87.8906	82.1138	87.8906	82.1344
90.8203	83.3681	90.8203	83.3854	90.8203	83.3195	90.8203	83.3716	90.8203	83.2404	90.8203	83.3282	90.8203	83.1328	90.8203	83.2573	90.8203	83.0003	90.8203	83.1621	90.8203	82.8477	90.8203	83.0467	90.8203	82.6814	90.8203	82.9157	90.8203	82.5087	90.8203	82.7744	90.8203	82.3383	90.8203	82.6284	90.8203	82.1787	90.8203	82.4835	90.8203	82.0378	90.8203	82.3453	90.8203	81.9219	90.8203	82.2184	90.8203	81.8342	90.8203	82.1066	90.8203	81.7752	90.8203	82.0119	90.8203	81.7423	90.8203	81.9344	90.8203	81.7313	90.8203	81.8723	90.8203	81.7373	90.8203	81.8233	90.8203	81.756	90.8203	81.7849
95.2148	82.6193	95.2148	82.6212	95.2148	82.5983	95.2148	82.6038	95.2148	82.5595	95.2148	82.5683	95.2148	82.5054	95.2148	82.5168	95.2148	82.4394	95.2148	82.4529	95.2148	82.3655	95.2148	82.3805	95.2148	82.2878	95.2148	82.3042	95.2148	82.2106	95.2148	82.2284	95.2148	82.1374	95.2148	82.1571	95.2148	82.0714	95.2148	82.0935	95.2148	82.0149	95.2148	82.0396	95.2148	81.9695	95.2148	81.9963	95.2148	81.9356	95.2148	81.9637	95.2148	81.913	95.2148	81.9405	95.2148	81.9004	95.2148	81.9253	95.2148	81.8958	95.2148	81.9157	95.2148	81.8966	95.2148	81.9095	95.2148	81.9001	95.2148	81.9045
98.1445	82.7493	98.1445	82.7531	98.1445	82.7202	98.1445	82.7318	98.1445	82.667	98.1445	82.6869	98.1445	82.5923	98.1445	82.6214	98.1445	82.5003	98.1445	82.5394	98.1445	82.396	98.1445	82.4459	98.1445	82.2854	98.1445	82.3465	98.1445	82.1747	98.1445	82.2467	98.1445	82.0699	98.1445	82.1516	98.1445	81.9759	98.1445	82.065	98.1445	81.8962	98.1445	81.9893	98.1445	81.8324	98.1445	81.9251	98.1445	81.7843	98.1445	81.872	98.1445	81.7506	98.1445	81.8287	98.1445	81.7292	98.1445	81.7938	98.1445	81.7179	98.1445	81.766	98.1445	81.7148	98.1445	81.7444	98.1445	81.7187	98.1445	81.7287
101.074	82.4907	101.074	82.4934	101.074	82.4671	101.074	82.4749	101.074	82.4241	101.074	82.4362	101.074	82.3642	101.074	82.3796	101.074	82.2911	101.074	82.3088	101.074	82.2091	101.074	82.229	101.074	82.1234	101.074	82.1463	101.074	82.0398	101.074	82.0676	101.074	81.9642	101.074	81.9996	101.074	81.9022	101.074	81.9475	101.074	81.8581	101.074	81.9147	101.074	81.8341	101.074	81.901	101.074	81.8299	101.074	81.9038	101.074	81.8424	101.074	81.9175	101.074	81.8664	101.074	81.9356	101.074	81.8957	101.074	81.9516	101.074	81.924	101.074	81.9604	101.074	81.9462	101.074	81.9589
105.469	82.8222	105.469	82.8224	105.469	82.7926	105.469	82.7932	105.469	82.7349	105.469	82.7366	105.469	82.6523	105.469	82.6559	105.469	82.5495	105.469	82.5557	105.469	82.4321	105.469	82.4414	105.469	82.3063	105.469	82.3189	105.469	82.1785	105.469	82.1944	105.469	82.0546	105.469	82.0739	105.469	81.9401	105.469	81.9626	105.469	81.8394	105.469	81.865	105.469	81.7557	105.469	81.7839	105.469	81.6909	105.469	81.7205	105.469	81.6453	105.469	81.6741	105.469	81.6169	105.469	81.6424	105.469	81.6023	105.469	81.6223	105.469	81.5975	105.469	81.6101	105.469	81.5984	105.469	81.6027
108.398	82.9773	108.398	82.9603	108.398	82.9606	108.398	82.9102	108.398	82.9117	108.398	82.8288	108.398	82.8331	108.398	82.7198	108.398	82.7292	108.398	82.5885	108.398	82.6058	108.398	82.4417	108.398	82.4698	108.398	82.2872	108.398	82.3287	108.398	82.1332	108.398	82.1902	108.398	81.9879	108.398	82.0608	108.398	81.8579	108.398	81.9456	108.398	81.7486	108.398	81.8475	108.398	81.6628	108.398	81.7671	108.398	81.6008	108.398	81.7034	108.398	81.5608	108.398	81.6541	108.398	81.5393	108.398	81.6163	108.398	81.5323	108.398	81.5872	108.398	81.536	108.398	81.5645	108.398	81.5473
112.793	82.9881	112.793	82.9894	112.793	82.9503	112.793	82.954	112.793	82.8783	112.793	82.8833	112.793	82.7761	112.793	82.7808	112.793	82.6494	112.793	82.652	112.793	82.5054	112.793	82.5044	112.793	82.3527	112.793	82.3472	112.793	82.2006	112.793	82.1906	112.793	82.0581	112.793	82.0445	112.793	81.9328	112.793	81.9177	112.793	81.8303	112.793	81.8161	112.793	81.7529	112.793	81.7423	112.793	81.7002	112.793	81.6948	112.793	81.6691	112.793	81.6693	112.793	81.6548	112.793	81.6593	112.793	81.6518	112.793	81.6582	112.793	81.6545	112.793	81.6599	112.793	81.6585	112.793	81.6606
117.188	82.9355	117.188	82.9341	117.188	82.901	117.188	82.8977	117.188	82.8307	117.188	82.8287	117.188	82.7262	117.188	82.7305	117.188	82.5907	117.188	82.6076	117.188	82.4293	117.188	82.4661	117.188	82.2488	117.188	82.313	117.188	82.0583	117.188	82.1562	117.188	81.8684	117.188	82.0045	117.188	81.6908	117.188	81.8656	117.188	81.5368	117.188	81.7458	117.188	81.4152	117.188	81.6486	117.188	81.3309	117.188	81.5738	117.188	81.284	117.188	81.5185	117.188	81.2698	117.188	81.4771	117.188	81.2808	117.188	81.4433	117.188	81.3077	117.188	81.4114	117.188	81.3422	117.188	81.3778
120.117	83.0957	120.117	83.0803	120.117	83.0774	120.117	83.0316	120.117	83.0255	120.117	82.9508	120.117	82.9413	120.117	82.8402	120.117	82.8265	120.117	82.7028	120.117	82.6841	120.117	82.5431	120.117	82.5182	120.117	82.3666	120.117	82.3344	120.117	82.1803	120.117	82.1395	120.117	81.9922	120.117	81.942	120.117	81.8108	120.117	81.7511	120.117	81.6439	120.117	81.5761	120.117	81.4978	120.117	81.4248	120.117	81.3765	120.117	81.3026	120.117	81.2808	120.117	81.2115	120.117	81.2091	120.117	81.1503	120.117	81.1581	120.117	81.1153	120.117	81.1243	120.117	81.1017	120.117	81.1055
124.512	82.7235	124.512	82.7255	124.512	82.6929	124.512	82.6987	124.512	82.6348	124.512	82.644	124.512	82.5514	124.512	82.5636	124.512	82.4461	124.512	82.4607	124.512	82.3228	124.512	82.3395	124.512	82.1863	124.512	82.2053	124.512	82.0416	124.512	82.0638	124.512	81.8937	124.512	81.9211	124.512	81.7478	124.512	81.7829	124.512	81.6088	124.512	81.6541	124.512	81.4817	124.512	81.5384	124.512	81.3714	124.512	81.438	124.512	81.2816	124.512	81.3536	124.512	81.2149	124.512	81.2849	124.512	81.1716	124.512	81.2308	124.512	81.1504	124.512	81.19	124.512	81.1482	124.512	81.1622
128.906	82.6109	128.906	82.6012	128.906	82.5906	128.906	82.5621	128.906	82.5415	128.906	82.4954	128.906	82.4661	128.906	82.4045	128.906	82.3685	128.906	82.2943	128.906	82.2542	128.906	82.1711	128.906	82.1302	128.906	82.0426	128.906	82.0039	128.906	81.9171	128.906	81.8834	128.906	81.8029	128.906	81.7758	128.906	81.7071	128.906	81.6872	128.906	81.6346	128.906	81.6209	128.906	81.5869	128.906	81.5781	128.906	81.5623	128.906	81.5567	128.906	81.5561	128.906	81.5523	128.906	81.5617	128.906	81.559	128.906	81.5719	128.906	81.5701	128.906	81.5807	128.906	81.5797	128.906	81.5837
133.301	82.5639	133.301	82.5698	133.301	82.5252	133.301	82.5427	133.301	82.4556	133.301	82.4841	133.301	82.3588	133.301	82.3973	133.301	82.2404	133.301	82.2873	133.301	82.107	133.301	82.1603	133.301	81.9667	133.301	82.0241	133.301	81.8279	133.301	81.8872	133.301	81.6988	133.301	81.7584	133.301	81.5865	133.301	81.6458	133.301	81.4961	133.301	81.5551	133.301	81.4299	133.301	81.4887	133.301	81.3875	133.301	81.4454	133.301	81.3658	133.301	81.421	133.301	81.36	133.301	81.4092	133.301	81.3647	133.301	81.4039	133.301	81.3745	133.301	81.3998	133.301	81.3852	133.301	81.394
139.16	82.548	139.16	82.551	139.16	82.5063	139.16	82.5163	139.16	82.4271	139.16	82.447	139.16	82.3138	139.16	82.3481	139.16	82.1718	139.16	82.2261	139.16	82.0083	139.16	82.0886	139.16	81.8322	139.16	81.9439	139.16	81.6537	139.16	81.7999	139.16	81.4834	139.16	81.6641	139.16	81.3314	139.16	81.5428	139.16	81.2067	139.16	81.4405	139.16	81.1152	139.16	81.3598	139.16	81.059	139.16	81.3003	139.16	81.0361	139.16	81.2589	139.16	81.0406	139.16	81.2306	139.16	81.0641	139.16	81.2089	139.16	81.0972	139.16	81.1878	139.16	81.1318	139.16	81.1626
143.555	82.4703	143.555	82.4599	143.555	82.4384	143.555	82.4073	143.555	82.3659	143.555	82.3156	143.555	82.2569	143.555	82.1898	143.555	82.1174	143.555	82.0379	143.555	81.9553	143.555	81.8699	143.555	81.7798	143.555	81.6972	143.555	81.6018	143.555	81.5319	143.555	81.4321	143.555	81.3849	143.555	81.2814	143.555	81.2651	143.555	81.1585	143.555	81.1775	143.555	81.0693	143.555	81.1229	143.555	81.016	143.555	81.0976	143.555	80.9961	143.555	81.0939	143.555	81.0034	143.555	81.1022	143.555	81.0285	143.555	81.1126	143.555	81.0606	143.555	81.1169	143.555	81.09	143.555	81.1098
147.949	82.4008	147.949	82.3866	147.949	82.3726	147.949	82.3306	147.949	82.3034	147.949	82.2353	147.949	82.1964	147.949	82.1053	147.949	82.0573	147.949	81.9471	147.949	81.8935	147.949	81.7694	147.949	81.7144	147.949	81.5827	147.949	81.5311	147.949	81.3987	147.949	81.3554	147.949	81.2295	147.949	81.1984	147.949	81.0862	147.949	81.0695	147.949	80.9772	147.949	80.9749	147.949	80.9062	147.949	80.9162	147.949	80.872	147.949	80.8902	147.949	80.8679	147.949	80.8896	147.949	80.8836	147.949	80.9043	147.949	80.9074	147.949	80.9233	147.949	80.9285	147.949	80.9371	147.949	80.9394
153.809	82.319	153.809	82.301	153.809	82.2928	153.809	82.2394	153.809	82.2232	153.809	82.1368	153.809	82.1133	153.809	81.9978	153.809	81.9676	153.809	81.8291	153.809	81.7927	153.809	81.6394	153.809	81.5973	153.809	81.4389	153.809	81.3924	153.809	81.2392	153.809	81.1904	153.809	81.052	153.809	81.0044	153.809	80.8884	153.809	80.8464	153.809	80.7573	153.809	80.725	153.809	80.6643	153.809	80.644	153.809	80.6094	153.809	80.6008	153.809	80.5877	153.809	80.5878	153.809	80.5895	153.809	80.5944	153.809	80.6032	153.809	80.6087	153.809	80.6175	153.809	80.621	153.809	80.6245
159.668	82.2901	159.668	82.2838	159.668	82.2517	159.668	82.2326	159.668	82.1708	159.668	82.1383	159.668	82.0514	159.668	82.0049	159.668	81.8997	159.668	81.8387	159.668	81.7234	159.668	81.6485	159.668	81.532	159.668	81.4452	159.668	81.3362	159.668	81.2417	159.668	81.1476	159.668	81.0514	159.668	80.9776	159.668	80.8871	159.668	80.8363	159.668	80.7584	159.668	80.7312	159.668	80.6706	159.668	80.6653	159.668	80.6232	159.668	80.6358	159.668	80.6104	159.668	80.6346	159.668	80.6217	159.668	80.65	159.668	80.6449	159.668	80.6693	159.668	80.668	159.668	80.6821	159.668	80.6819
165.527	82.2627	165.527	82.2456	165.527	82.2339	165.527	82.1831	165.527	82.1611	165.527	82.0785	165.527	82.0486	165.527	81.9378	165.527	81.9034	165.527	81.7693	165.527	81.7342	165.527	81.5836	165.527	81.5515	165.527	81.3928	165.527	81.3669	165.527	81.2099	165.527	81.1925	165.527	81.048	165.527	81.04	165.527	80.9194	165.527	80.9198	165.527	80.8327	165.527	80.8392	165.527	80.7915	165.527	80.8008	165.527	80.7923	165.527	80.8014	165.527	80.8245	165.527	80.8316	165.527	80.8733	165.527	80.8778	165.527	80.9224	165.527	80.9247	165.527	80.9581	165.527	80.9589	165.527	80.9712
171.387	82.3964	171.387	82.3791	171.387	82.3582	171.387	82.307	171.387	82.2663	171.387	82.1833	171.387	82.1257	171.387	82.0143	171.387	81.944	171.387	81.8092	171.387	81.7319	171.387	81.5803	171.387	81.5025	171.387	81.3428	171.387	81.2713	171.387	81.1137	171.387	81.0541	171.387	80.9104	171.387	80.8659	171.387	80.7483	171.387	80.719	171.387	80.6376	171.387	80.621	171.387	80.5812	171.387	80.5734	171.387	80.5734	171.387	80.5705	171.387	80.6015	171.387	80.6006	171.387	80.6482	171.387	80.6477	171.387	80.6963	171.387	80.6957	171.387	80.7312	171.387	80.7308	171.387	80.7437
177.246	82.2276	177.246	82.2217	177.246	82.183	177.246	82.1642	177.246	82.0902	177.246	82.056	177.246	81.9531	177.246	81.8997	177.246	81.7767	177.246	81.6997	177.246	81.5676	177.246	81.4634	177.246	81.3342	177.246	81.2009	177.246	81.0872	177.246	80.926	177.246	80.8395	177.246	80.6561	177.246	80.6065	177.246	80.4109	177.246	80.4045	177.246	80.21	177.246	80.248	177.246	80.0682	177.246	80.1459	177.246	79.9914	177.246	80.0981	177.246	79.974	177.246	80.0939	177.246	80.0007	177.246	80.1148	177.246	80.0504	177.246	80.1396	177.246	80.1019	177.246	80.1508	177.246	80.1384
183.105	81.7192	183.105	81.7368	183.105	81.6538	183.105	81.706	183.105	81.5435	183.105	81.6287	183.105	81.3947	183.105	81.5085	183.105	81.2162	183.105	81.3511	183.105	81.0197	183.105	81.1638	183.105	80.8178	183.105	80.9567	183.105	80.6229	183.105	80.7421	183.105	80.445	183.105	80.5346	183.105	80.2914	183.105	80.3497	183.105	80.167	183.105	80.2012	183.105	80.0753	183.105	80.0979	183.105	80.0186	183.105	80.0416	183.105	79.9966	183.105	80.0263	183.105	80.0046	183.105	80.0397	183.105	80.0325	183.105	80.0663	183.105	80.0664	183.105	80.0907	183.105	80.0925	183.105	80.1013
188.965	81.794	188.965	81.8032	188.965	81.7275	188.965	81.7584	188.965	81.6033	188.965	81.6654	188.965	81.4239	188.965	81.5312	188.965	81.1963	188.965	81.364	188.965	80.9316	188.965	81.1724	188.965	80.6462	188.965	80.965	188.965	80.3607	188.965	80.7514	188.965	80.0979	188.965	80.5427	188.965	79.8796	188.965	80.3524	188.965	79.7221	188.965	80.1948	188.965	79.6338	188.965	80.0814	188.965	79.613	188.965	80.0168	188.965	79.6493	188.965	79.9961	188.965	79.7254	188.965	80.0052	188.965	79.8201	188.965	80.0252	188.965	79.9119	188.965	80.037	188.965	79.9838	188.965	80.0259
196.289	81.9542	196.289	81.9367	196.289	81.9089	196.289	81.8586	196.289	81.8015	196.289	81.725	196.289	81.6354	196.289	81.5444	196.289	81.4167	196.289	81.3283	196.289	81.1545	196.289	81.0905	196.289	80.8611	196.289	80.8459	196.289	80.5523	196.289	80.6091	196.289	80.2466	196.289	80.3928	196.289	79.9643	196.289	80.2076	196.289	79.7247	196.289	80.0611	196.289	79.5436	196.289	79.9563	196.289	79.4298	196.289	79.8904	196.289	79.3835	196.289	79.8534	196.289	79.3963	196.289	79.8304	196.289	79.453	196.289	79.805	196.289	79.535	196.289	79.7647	196.289	79.6237	196.289	79.7035
203.613	81.7739	203.613	81.7459	203.613	81.7323	203.613	81.6505	203.613	81.6221	203.613	81.4929	203.613	81.4469	203.613	81.2816	203.613	81.2133	203.613	81.0281	203.613	80.9314	203.613	80.7474	203.613	80.6152	203.613	80.4567	203.613	80.2824	203.613	80.1744	203.613	79.9544	203.613	79.9189	203.613	79.6549	203.613	79.7066	203.613	79.4073	203.613	79.5506	203.613	79.2303	203.613	79.4577	203.613	79.1337	203.613	79.4258	203.613	79.1153	203.613	79.4416	203.613	79.1609	203.613	79.4819	203.613	79.2482	203.613	79.5202	203.613	79.3508	203.613	79.5334	203.613	79.444	203.613	79.5083
210.938	81.7876	210.938	81.7338	210.938	81.7812	210.938	81.6189	210.938	81.7167	210.938	81.4444	210.938	81.5969	210.938	81.2149	210.938	81.4262	210.938	80.9399	210.938	81.2102	210.938	80.6339	210.938	80.9565	210.938	80.3158	210.938	80.6747	210.938	80.0064	210.938	80.3766	210.938	79.724	210.938	80.0764	210.938	79.4819	210.938	79.791	210.938	79.2868	210.938	79.5386	210.938	79.1406	210.938	79.3359	210.938	79.0423	210.938	79.1933	210.938	78.9895	210.938	79.1098	210.938	78.976	210.938	79.0728	210.938	78.9906	210.938	79.0619	210.938	79.0178	210.938	79.0564	210.938	79.0426
218.262	81.4086	218.262	81.4141	218.262	81.3521	218.262	81.3641	218.262	81.2511	218.262	81.2561	218.262	81.1129	218.262	81.0901	218.262	80.9458	218.262	80.8697	218.262	80.7581	218.262	80.6028	218.262	80.5581	218.262	80.3033	218.262	80.3541	218.262	79.9917	218.262	80.1544	218.262	79.6936	218.262	79.9676	218.262	79.4362	218.262	79.8012	218.262	79.242	218.262	79.6612	218.262	79.1214	218.262	79.5497	218.262	79.0697	218.262	79.4648	218.262	79.0699	218.262	79.4005	218.262	79.1003	218.262	79.3498	218.262	79.1428	218.262	79.3066	218.262	79.1864	218.262	79.2668	218.262	79.2275
225.586	81.3982	225.586	81.4286	225.586	81.3053	225.586	81.3984	225.586	81.151	225.586	81.3111	225.586	80.9403	225.586	81.1712	225.586	80.6839	225.586	80.9836	225.586	80.3976	225.586	80.7543	225.586	80.1017	225.586	80.4918	225.586	79.8184	225.586	80.208	225.586	79.5686	225.586	79.9203	225.586	79.3689	225.586	79.6509	225.586	79.2295	225.586	79.4254	225.586	79.1542	225.586	79.266	225.586	79.1399	225.586	79.184	225.586	79.1762	225.586	79.1746	225.586	79.2449	225.586	79.2185	225.586	79.3223	225.586	79.2888	225.586	79.385	225.586	79.3583	225.586	79.4151	225.586	79.405
232.91	81.5914	232.91	81.5776	232.91	81.5365	232.91	81.5004	232.91	81.411	232.91	81.3669	232.91	81.2163	232.91	81.1859	232.91	80.9575	232.91	80.9663	232.91	80.6425	232.91	80.7165	232.91	80.2825	232.91	80.4435	232.91	79.892	232.91	80.153	232.91	79.4915	232.91	79.8516	232.91	79.1088	232.91	79.5505	232.91	78.7787	232.91	79.27	232.91	78.536	232.91	79.0376	232.91	78.4031	232.91	78.8793	232.91	78.3802	232.91	78.8044	232.91	78.4431	232.91	78.7974	232.91	78.554	232.91	78.8235	232.91	78.6742	232.91	78.8442	232.91	78.7729	232.91	78.8312
241.699	80.9029	241.699	80.8665	241.699	80.8819	241.699	80.7776	241.699	80.8043	241.699	80.6461	241.699	80.6756	241.699	80.4862	241.699	80.5044	241.699	80.3122	241.699	80.301	241.699	80.1339	241.699	80.0735	241.699	79.9526	241.699	79.8256	241.699	79.7605	241.699	79.5555	241.699	79.5446	241.699	79.2583	241.699	79.2932	241.699	78.9331	241.699	79.0041	241.699	78.5912	241.699	78.6903	241.699	78.2596	241.699	78.3806	241.699	77.9765	241.699	78.112	241.699	77.7758	241.699	77.9134	241.699	77.6692	241.699	77.7905	241.699	77.6396	241.699	77.7237	241.699	77.6538	241.699	77.684
250.488	79.9102	250.488	79.9176	250.488	79.8587	250.488	79.8817	250.488	79.7728	250.488	79.8137	250.488	79.6706	250.488	79.7333	250.488	79.5748	250.488	79.6636	250.488	79.5051	250.488	79.622	250.488	79.4698	250.488	79.6105	250.488	79.4593	250.488	79.6102	250.488	79.4465	250.488	79.5858	250.488	79.3954	250.488	79.497	250.488	79.2726	250.488	79.3122	250.488	79.0575	250.488	79.0191	250.488	78.7499	250.488	78.6311	250.488	78.3725	250.488	78.1894	250.488	77.9689	250.488	77.7566	250.488	77.5947	250.488	77.3994	250.488	77.301	250.488	77.1656	250.488	77.1217	250.488	77.0736
259.277	79.0329	259.277	78.9368	259.277	78.9235	259.277	78.6434	259.277	78.6161	259.277	78.1812	259.277	78.1421	259.277	77.6181	259.277	77.5807	259.277	77.0923	259.277	77.0899	259.277	76.8213	259.277	76.8983	259.277	77.0081	259.277	77.1798	259.277	77.6658	259.277	77.8888	259.277	78.5946	259.277	78.8007	259.277	79.5533	259.277	79.6928	259.277	80.3808	259.277	80.4329	259.277	81.0024	259.277	80.9701	259.277	81.401	259.277	81.3036	259.277	81.5961	259.277	81.4635	259.277	81.6331	259.277	81.4984	259.277	81.5751	259.277	81.4679	259.277	81.4904	259.277	81.4317	259.277	81.4345
268.066	83.4503	268.066	83.3888	268.066	83.3349	268.066	83.1487	268.066	83.0387	268.066	82.7249	268.066	82.5519	268.066	82.1109	268.066	81.8591	268.066	81.3031	268.066	80.9452	268.066	80.3144	268.066	79.8138	268.066	79.2117	268.066	78.5381	268.066	78.1916	268.066	77.3712	268.066	77.6299	268.066	76.8166	268.066	77.8557	268.066	77.2507	268.066	78.7509	268.066	78.396	268.066	79.8926	268.066	79.709	268.066	80.9619	268.066	80.8741	268.066	81.8261	268.066	81.7906	268.066	82.46	268.066	82.4531	268.066	82.8824	268.066	82.8881	268.066	83.1225	268.066	83.1289	268.066	83.2027
276.855	83.187	276.855	83.1508	276.855	83.1263	276.855	83.0043	276.855	82.9715	276.855	82.7271	276.855	82.7159	276.855	82.296	276.855	82.3428	276.855	81.6947	276.855	81.8291	276.855	80.924	276.855	81.1537	276.855	80.0159	276.855	80.3165	276.855	79.053	276.855	79.3717	276.855	78.1955	276.855	78.4704	276.855	77.6793	276.855	77.8582	276.855	77.7061	276.855	77.7404	276.855	78.2589	276.855	78.0976	276.855	79.0997	276.855	78.7273	276.855	79.9608	276.855	79.4311	276.855	80.6667	276.855	80.0926	276.855	81.1356	276.855	80.6523	276.855	81.3471	276.855	81.0718	276.855	81.3154
287.109	82.8905	287.109	82.8495	287.109	82.8232	287.109	82.6994	287.109	82.6471	287.109	82.4374	287.109	82.3634	287.109	82.0579	287.109	81.9765	287.109	81.553	287.109	81.4942	287.109	80.9179	287.109	80.9242	287.109	80.1647	287.109	80.2721	287.109	79.3466	287.109	79.5507	287.109	78.5827	287.109	78.8109	287.109	78.0481	287.109	78.1837	287.109	77.885	287.109	77.8686	287.109	78.0909	287.109	77.9926	287.109	78.5299	287.109	78.4674	287.109	79.0443	287.109	79.0694	287.109	79.524	287.109	79.613	287.109	79.9077	287.109	80.0067	287.109	80.1637	287.109	80.2258	287.109	80.2741
297.363	83.0342	297.363	83.0727	297.363	82.899	297.363	83.0186	297.363	82.66	297.363	82.8708	297.363	82.3102	297.363	82.6199	297.363	81.8457	297.363	82.2491	297.363	81.2688	297.363	81.7382	297.363	80.5913	297.363	81.0767	297.363	79.8383	297.363	80.284	297.363	79.0578	297.363	79.4405	297.363	78.3403	297.363	78.7136	297.363	77.8358	297.363	78.3198	297.363	77.7077	297.363	78.3755	297.363	78.0023	297.363	78.7848	297.363	78.5836	297.363	79.3373	297.363	79.2428	297.363	79.8612	297.363	79.825	297.363	80.2658	297.363	80.2561	297.363	80.5156	297.363	80.5145	297.363	80.5998
307.617	83.3521	307.617	83.251	307.617	83.3594	307.617	83.0569	307.617	83.2663	307.617	82.766	307.617	83.0604	307.617	82.3724	307.617	82.7245	307.617	81.8735	307.617	82.2408	307.617	81.2761	307.617	81.5985	307.617	80.601	307.617	80.8049	307.617	79.8836	307.617	79.8969	307.617	79.1774	307.617	78.9522	307.617	78.5641	307.617	78.0963	307.617	78.1608	307.617	77.4954	307.617	78.0846	307.617	77.3041	307.617	78.3609	307.617	77.5621	307.617	78.8735	307.617	78.1429	307.617	79.4353	307.617	78.8372	307.617	79.8887	307.617	79.4668	307.617	80.1416	307.617	79.9236	307.617	80.155
319.336	83.0833	319.336	83.0378	319.336	83.0195	319.336	82.8775	319.336	82.8535	319.336	82.5971	319.336	82.5925	319.336	82.1901	319.336	82.2426	319.336	81.6457	319.336	81.8081	319.336	80.95	319.336	81.292	319.336	80.0964	319.336	80.7005	319.336	79.1112	319.336	80.054	319.336	78.0999	319.336	79.403	319.336	77.2857	319.336	78.8398	319.336	76.9361	319.336	78.4804	319.336	77.1315	319.336	78.4015	319.336	77.6807	319.336	78.5802	319.336	78.3292	319.336	78.9099	319.336	78.9172	319.336	79.27	319.336	79.3734	319.336	79.5711	319.336	79.6696	319.336	79.7576	319.336	79.7963
329.59	83.4049	329.59	83.3896	329.59	83.3495	329.59	83.3026	329.59	83.2132	329.59	83.1334	329.59	82.9767	329.59	82.8664	329.59	82.619	329.59	82.4834	329.59	82.1238	329.59	81.9632	329.59	81.4823	329.59	81.2831	329.59	80.695	329.59	80.4277	329.59	79.78	329.59	79.4166	329.59	78.7988	329.59	78.3575	329.59	77.9023	329.59	77.5051	329.59	77.3458	329.59	77.1901	329.59	77.3498	329.59	77.5169	329.59	77.8684	329.59	78.234	329.59	78.6247	329.59	79.0135	329.59	79.3526	329.59	79.6582	329.59	79.9028	329.59	80.0879	329.59	80.2157	329.59	80.2767
341.309	83.6744	341.309	83.7019	341.309	83.5599	341.309	83.6338	341.309	83.3661	341.309	83.4652	341.309	83.096	341.309	83.1971	341.309	82.7458	341.309	82.8338	341.309	82.3081	341.309	82.374	341.309	81.7791	341.309	81.8027	341.309	81.1673	341.309	81.0949	341.309	80.5034	341.309	80.2422	341.309	79.8474	341.309	79.3064	341.309	79.2924	341.309	78.4818	341.309	78.9508	341.309	78.0658	341.309	78.9037	341.309	78.2173	341.309	79.1398	341.309	78.7735	341.309	79.5529	341.309	79.4424	341.309	80.004	341.309	80.0238	341.309	80.3777	341.309	80.4269	341.309	80.5973	341.309	80.6195
353.027	84.6278	353.027	84.6515	353.027	84.5507	353.027	84.6097	353.027	84.4119	353.027	84.4748	353.027	84.1871	353.027	84.2195	353.027	83.8438	353.027	83.8345	353.027	83.346	353.027	83.3335	353.027	82.6606	353.027	82.7373	353.027	81.7662	353.027	82.0514	353.027	80.6685	353.027	81.2696	353.027	79.4322	353.027	80.4227	353.027	78.2478	353.027	79.6534	353.027	77.4952	353.027	79.2231	353.027	77.5605	353.027	79.3232	353.027	78.3787	353.027	79.855	353.027	79.485	353.027	80.5367	353.027	80.4879	353.027	81.1393	353.027	81.2114	353.027	81.549	353.027	81.6156	353.027	81.7178
366.211	84.3583	366.211	84.2016	366.211	84.4246	366.211	83.9847	366.211	84.3823	366.211	83.7298	366.211	84.2307	366.211	83.4306	366.211	83.9779	366.211	83.0551	366.211	83.6263	366.211	82.5756	366.211	83.1623	366.211	82.0023	366.211	82.5577	366.211	81.3912	366.211	81.7868	366.211	80.8105	366.211	80.8578	366.211	80.2976	366.211	79.8513	366.211	79.8783	366.211	78.9415	366.211	79.6304	366.211	78.3487	366.211	79.6555	366.211	78.2071	366.211	79.9371	366.211	78.4748	366.211	80.3039	366.211	78.9909	366.211	80.5683	366.211	79.578	366.211	80.6293	366.211	80.0986	366.211	80.4655
379.395	75.0839	379.395	75.1578	379.395	74.9321	379.395	75.0953	379.395	74.7524	379.395	74.8603	379.395	74.5572	379.395	74.4509	379.395	74.3207	379.395	73.8888	379.395	74.0074	379.395	73.1842	379.395	73.602	379.395	72.305	379.395	73.109	379.395	71.2197	379.395	72.5266	379.395	70.0404	379.395	71.845	379.395	69.1701	379.395	71.121	379.395	69.0889	379.395	70.5959	379.395	69.76	379.395	70.6323	379.395	70.746	379.395	71.3087	379.395	71.7455	379.395	72.2842	379.395	72.6461	379.395	73.1909	379.395	73.3918	379.395	73.8424	379.395	73.9272	379.395	74.1805	379.395	74.2021
392.578	77.1763	392.578	77.2231	392.578	77.0808	392.578	77.2178	392.578	76.9282	392.578	77.141	392.578	76.7078	392.578	76.9625	392.578	76.4098	392.578	76.6503	392.578	76.021	392.578	76.1751	392.578	75.5179	392.578	75.5045	392.578	74.8652	392.578	74.5917	392.578	74.0247	392.578	73.3727	392.578	72.9734	392.578	71.7999	392.578	71.7445	392.578	69.985	392.578	70.5212	392.578	68.5571	392.578	69.7338	392.578	68.5624	392.578	69.8179	392.578	69.8386	392.578	70.6456	392.578	71.311	392.578	71.6939	392.578	72.444	392.578	72.5871	392.578	73.1235	392.578	73.1625	392.578	73.3538
405.762	78.5625	405.762	78.5559	405.762	78.4669	405.762	78.4583	405.762	78.2623	405.762	78.2828	405.762	77.9481	405.762	78.0394	405.762	77.528	405.762	77.7287	405.762	77.0072	405.762	77.3286	405.762	76.388	405.762	76.7852	405.762	75.6656	405.762	76.0207	405.762	74.8299	405.762	74.9661	405.762	73.8879	405.762	73.6234	405.762	72.9237	405.762	72.1726	405.762	72.1754	405.762	71.097	405.762	71.9778	405.762	70.9687	405.762	72.4303	405.762	71.7488	405.762	73.2453	405.762	72.8643	405.762	74.0635	405.762	73.8744	405.762	74.674	405.762	74.5933	405.762	74.9871	405.762	74.9657
420.41	79.7845	420.41	79.6776	420.41	79.7798	420.41	79.4667	420.41	79.6733	420.41	79.1792	420.41	79.4805	420.41	78.8516	420.41	79.2049	420.41	78.509	420.41	78.825	420.41	78.1388	420.41	78.2926	420.41	77.6766	420.41	77.5398	420.41	77.0198	420.41	76.4866	420.41	76.0739	420.41	75.0437	420.41	74.8255	420.41	73.1383	420.41	73.4614	420.41	70.8945	420.41	72.4815	420.41	69.2767	420.41	72.3953	420.41	69.8043	420.41	73.0541	420.41	71.6293	420.41	73.9161	420.41	73.2956	420.41	74.6423	420.41	74.4307	420.41	75.1091	420.41	75.0605	420.41	75.2647
435.059	79.425	435.059	79.3907	435.059	79.4058	435.059	79.2967	435.059	79.3318	435.059	79.1296	435.059	79.1967	435.059	78.8688	435.059	78.9943	435.059	78.4885	435.059	78.7202	435.059	77.9638	435.059	78.3611	435.059	77.275	435.059	77.8792	435.059	76.3985	435.059	77.2113	435.059	75.2899	435.059	76.291	435.059	73.8967	435.059	75.0874	435.059	72.2795	435.059	73.6619	435.059	70.9304	435.059	72.2659	435.059	70.7772	435.059	71.4292	435.059	71.8506	435.059	71.6378	435.059	73.2145	435.059	72.6584	435.059	74.2942	435.059	73.8213	435.059	74.9221	435.059	74.6767	435.059	75.0545
451.172	80.3361	451.172	80.3312	451.172	80.2748	451.172	80.2561	451.172	80.1442	451.172	80.1021	451.172	79.9321	451.172	79.8563	451.172	79.6223	451.172	79.5033	451.172	79.2003	451.172	79.0259	451.172	78.6495	451.172	78.3911	451.172	77.9317	451.172	77.5295	451.172	76.9766	451.172	76.3335	451.172	75.6966	451.172	74.6962	451.172	74.0476	451.172	72.6369	451.172	72.2114	451.172	70.7268	451.172	70.9723	451.172	70.5121	451.172	71.3052	451.172	72.2152	451.172	72.7289	451.172	74.1963	451.172	74.229	451.172	75.6368	451.172	75.4144	451.172	76.4076	451.172	76.2085	451.172	76.5663
465.82	80.5773	465.82	80.5009	465.82	80.5251	465.82	80.2941	465.82	80.3769	465.82	79.9997	465.82	80.1716	465.82	79.6892	465.82	79.9337	465.82	79.4124	465.82	79.6639	465.82	79.1502	465.82	79.3405	465.82	78.819	465.82	78.9202	465.82	78.3172	465.82	78.3324	465.82	77.5576	465.82	77.4746	465.82	76.4645	465.82	76.2303	465.82	74.9738	465.82	74.5465	465.82	73.1427	465.82	72.6726	465.82	71.5303	465.82	71.5497	465.82	71.2676	465.82	71.9924	465.82	72.3141	465.82	73.1951	465.82	73.5347	465.82	74.2068	465.82	74.3888	465.82	74.7426	465.82	74.7937
483.398	80.6402	483.398	80.6615	483.398	80.5333	483.398	80.6234	483.398	80.3326	483.398	80.5475	483.398	80.0588	483.398	80.4319	483.398	79.7533	483.398	80.249	483.398	79.4504	483.398	79.9516	483.398	79.139	483.398	79.4735	483.398	78.7422	483.398	78.7273	483.398	78.1399	483.398	77.6107	483.398	77.2226	483.398	76.0334	483.398	75.9543	483.398	74.0084	483.398	74.4688	483.398	71.976	483.398	73.2323	483.398	71.2393	483.398	72.943	483.398	72.3777	483.398	73.6834	483.398	74.0812	483.398	74.7964	483.398	75.4465	483.398	75.7607	483.398	76.2707	483.398	76.3744	483.398	76.5627
499.512	80.7499	499.512	80.744	499.512	80.6844	499.512	80.6413	499.512	80.5543	499.512	80.4098	499.512	80.3522	499.512	80.0386	499.512	80.0657	499.512	79.5577	499.512	79.6837	499.512	79.0252	499.512	79.1972	499.512	78.4744	499.512	78.5944	499.512	77.8575	499.512	77.838	499.512	77.0372	499.512	76.8325	499.512	75.8326	499.512	75.4108	499.512	74.1151	499.512	73.3963	499.512	72.0989	499.512	70.9723	499.512	70.9937	499.512	69.8328	499.512	71.9384	499.512	71.4525	499.512	73.727	499.512	73.7356	499.512	75.2329	499.512	75.4168	499.512	76.1999	499.512	76.3494	499.512	76.5877
517.09	81.9476	517.09	81.7935	517.09	81.9372	517.09	81.5113	517.09	81.7714	517.09	81.1815	517.09	81.493	517.09	80.8837	517.09	81.1673	517.09	80.6292	517.09	80.8585	517.09	80.3446	517.09	80.5778	517.09	79.9234	517.09	80.2425	517.09	79.2772	517.09	79.6982	517.09	78.3229	517.09	78.7807	517.09	76.923	517.09	77.3564	517.09	74.8581	517.09	75.324	517.09	72.0251	517.09	72.686	517.09	69.757	517.09	70.2903	517.09	71.0673	517.09	70.7038	517.09	73.7502	517.09	73.1854	517.09	75.7208	517.09	75.332	517.09	76.8159	517.09	76.6333	517.09	77.1137
536.133	81.8095	536.133	81.7389	536.133	81.6541	536.133	81.4747	536.133	81.2747	536.133	81.0609	536.133	80.7223	536.133	80.5496	536.133	80.0937	536.133	80.0288	536.133	79.5079	536.133	79.6155	536.133	79.0551	536.133	79.3261	536.133	78.73	536.133	78.9722	536.133	78.4025	536.133	78.2796	536.133	77.8706	536.133	77.0754	536.133	76.9433	536.133	75.3515	536.133	75.5026	536.133	73.232	536.133	73.6327	536.133	71.1088	536.133	72.0294	536.133	70.3965	536.133	71.9759	536.133	72.0247	536.133	73.2726	536.133	74.0792	536.133	74.6475	536.133	75.3753	536.133	75.5413	536.133	75.8187
555.176	82.0892	555.176	82.1087	555.176	81.9869	555.176	82.0035	555.176	81.8213	555.176	81.7562	555.176	81.5752	555.176	81.3924	555.176	81.2232	555.176	80.9425	555.176	80.759	555.176	80.4111	555.176	80.194	555.176	79.818	555.176	79.5315	555.176	79.2193	555.176	78.7287	555.176	78.5817	555.176	77.6598	555.176	77.6316	555.176	76.1168	555.176	75.8994	555.176	73.884	555.176	72.8567	555.176	71.0364	555.176	68.5349	555.176	69.059	555.176	67.6813	555.176	70.2114	555.176	71.025	555.176	72.7102	555.176	73.6583	555.176	74.7497	555.176	75.307	555.176	75.8999	555.176	76.0735
574.219	82.3672	574.219	82.3096	574.219	82.2466	574.219	82.0899	574.219	81.9637	574.219	81.7295	574.219	81.5861	574.219	81.2783	574.219	81.1996	574.219	80.8385	574.219	80.8641	574.219	80.4893	574.219	80.599	574.219	80.1606	574.219	80.3584	574.219	79.6597	574.219	80.0119	574.219	78.8272	574.219	79.3837	574.219	77.6117	574.219	78.2863	574.219	76.0011	574.219	76.4773	574.219	73.9654	574.219	73.5992	574.219	71.8638	574.219	69.5918	574.219	71.3907	574.219	68.14	574.219	72.9927	574.219	71.0802	574.219	74.6391	574.219	73.5237	574.219	75.5042	574.219	74.935	574.219	75.5767
594.727	82.2765	594.727	82.2058	594.727	82.0991	594.727	81.9044	594.727	81.6991	594.727	81.439	594.727	81.1349	594.727	80.8997	594.727	80.5153	594.727	80.3877	594.727	79.9997	594.727	80.05	594.727	79.707	594.727	79.9913	594.727	79.5843	594.727	80.0412	594.727	79.4123	594.727	79.8125	594.727	78.9373	594.727	78.9802	594.727	77.969	594.727	77.3639	594.727	76.397	594.727	74.819	594.727	74.2017	594.727	71.1725	594.727	71.8378	594.727	67.9332	594.727	71.3635	594.727	70.1838	594.727	73.3252	594.727	73.5289	594.727	75.2208	594.727	75.4771	594.727	76.1887	594.727	76.2742
615.234	82.7104	615.234	82.6511	615.234	82.5941	615.234	82.4017	615.234	82.2867	615.234	81.9429	615.234	81.7699	615.234	81.3156	615.234	81.069	615.234	80.6282	615.234	80.2885	615.234	79.9506	615.234	79.5883	615.234	79.284	615.234	79.0883	615.234	78.6959	615.234	78.7707	615.234	78.2618	615.234	78.446	615.234	77.7547	615.234	77.7959	615.234	76.6889	615.234	76.4511	615.234	74.5698	615.234	74.0303	615.234	70.897	615.234	70.2314	615.234	66.9443	615.234	66.8213	615.234	69.5682	615.234	69.1299	615.234	73.1015	615.234	72.4812	615.234	74.9351	615.234	74.5562	615.234	75.3689
637.207	82.7507	637.207	82.6217	637.207	82.6023	637.207	82.2294	637.207	82.2173	637.207	81.6576	637.207	81.6377	637.207	81.0191	637.207	80.8783	637.207	80.4104	637.207	79.9919	637.207	79.9326	637.207	79.1889	637.207	79.6781	637.207	78.7591	637.207	79.5775	637.207	78.6855	637.207	79.368	637.207	78.5583	637.207	78.7509	637.207	77.9112	637.207	77.4591	637.207	76.3882	637.207	75.2738	637.207	73.7483	637.207	72.3422	637.207	70.1626	637.207	70.6351	637.207	68.5684	637.207	72.2738	637.207	71.1095	637.207	74.5488	637.207	73.6926	637.207	75.8695	637.207	75.3268	637.207	76.082
659.18	84.0876	659.18	84.0251	659.18	83.9413	659.18	83.7523	659.18	83.5797	659.18	83.273	659.18	83.0002	659.18	82.5952	659.18	82.2324	659.18	81.7404	659.18	81.3471	659.18	80.8102	659.18	80.4726	659.18	80.0178	659.18	79.784	659.18	79.5218	659.18	79.3119	659.18	79.2323	659.18	78.8221	659.18	78.8713	659.18	78.0322	659.18	78.082	659.18	76.6927	659.18	76.438	659.18	74.4028	659.18	73.4624	659.18	70.6524	659.18	69.3451	659.18	67.6528	659.18	68.8351	659.18	70.9885	659.18	71.9055	659.18	74.2429	659.18	74.2502	659.18	75.6714	659.18	75.5619
682.617	85.6821	682.617	85.7095	682.617	85.4267	682.617	85.4938	682.617	84.9269	682.617	84.9716	682.617	84.1941	682.617	84.1269	682.617	83.2975	682.617	83.126	682.617	82.3928	682.617	82.3074	682.617	81.7029	682.617	81.8718	682.617	81.3621	682.617	81.6724	682.617	81.3069	682.617	81.4743	682.617	81.2879	682.617	81.103	682.617	80.9052	682.617	80.3058	682.617	79.7358	682.617	78.6867	682.617	77.3798	682.617	75.7397	682.617	73.3074	682.617	71.5235	682.617	68.7505	682.617	71.8088	682.617	71.8771	682.617	75.5226	682.617	75.694	682.617	77.6727	682.617	77.7217	682.617	78.3413
707.52	85.2378	707.52	85.2336	707.52	85.0341	707.52	84.9752	707.52	84.6184	707.52	84.4454	707.52	83.9381	707.52	83.7041	707.52	82.9738	707.52	82.8344	707.52	81.8111	707.52	81.9153	707.52	80.6889	707.52	81.2029	707.52	80.0232	707.52	81.0915	707.52	80.052	707.52	81.3556	707.52	80.3788	707.52	81.2539	707.52	80.397	707.52	80.276	707.52	79.7157	707.52	78.0574	707.52	78.0462	707.52	74.1819	707.52	74.9922	707.52	69.9576	707.52	70.9832	707.52	72.2557	707.52	72.1776	707.52	75.8759	707.52	75.8646	707.52	77.9196	707.52	77.9406	707.52	78.5685
732.422	84.4354	732.422	84.3041	732.422	84.4072	732.422	83.9734	732.422	84.1935	732.422	83.408	732.422	83.7077	732.422	82.5772	732.422	82.916	732.422	81.4658	732.422	81.9015	732.422	80.224	732.422	80.8497	732.422	79.2156	732.422	80.0082	732.422	78.7305	732.422	79.5165	732.422	78.7665	732.422	79.2438	732.422	78.9734	732.422	78.891	732.422	78.7436	732.422	78.0344	732.422	77.5738	732.422	76.1031	732.422	75.124	732.422	72.4315	732.422	71.3049	732.422	67.1865	732.422	69.3083	732.422	68.9894	732.422	72.2556	732.422	73.3315	732.422	74.8223	732.422	75.4574	732.422	75.8668
757.324	82.4537	757.324	82.3367	757.324	82.2749	757.324	81.9568	757.324	81.7592	757.324	81.2784	757.324	80.9358	757.324	80.3262	757.324	79.8977	757.324	79.2049	757.324	78.7924	757.324	77.9467	757.324	77.7285	757.324	76.7627	757.324	76.807	757.324	76.2299	757.324	76.4055	757.324	76.2487	757.324	76.6895	757.324	76.1091	757.324	77.0611	757.324	75.5263	757.324	76.8456	757.324	74.1357	757.324	75.4916	757.324	70.9412	757.324	72.2921	757.324	66.7819	757.324	66.8773	757.324	69.2755	757.324	67.2444	757.324	72.6059	757.324	71.8984	757.324	74.6815	757.324	74.6064	757.324	75.4682
785.156	83.2651	785.156	83.6056	785.156	82.8259	785.156	83.8363	785.156	82.2721	785.156	83.8056	785.156	81.6928	785.156	83.3604	785.156	81.0959	785.156	82.5534	785.156	80.2685	785.156	81.6075	785.156	79.1495	785.156	80.7034	785.156	78.0865	785.156	80.0266	785.156	77.44	785.156	79.6979	785.156	77.3476	785.156	79.6748	785.156	77.7593	785.156	80.0126	785.156	78.0486	785.156	80.2882	785.156	77.3846	785.156	79.844	785.156	75.4276	785.156	78.3574	785.156	72.2522	785.156	75.2655	785.156	67.8878	785.156	69.2992	785.156	65.0297	785.156	60.9176	785.156	65.765	785.156	64.1304
811.523	80.8879	811.523	81.0631	811.523	80.45	811.523	80.9692	811.523	79.9709	811.523	80.7746	811.523	79.5879	811.523	80.5621	811.523	79.0915	811.523	80.1512	811.523	78.2224	811.523	79.3665	811.523	77.0465	811.523	78.3682	811.523	76.075	811.523	77.4649	811.523	76.0237	811.523	76.7521	811.523	76.7194	811.523	76.3005	811.523	77.3067	811.523	76.0297	811.523	77.4371	811.523	75.3357	811.523	76.9653	811.523	73.2993	811.523	75.6287	811.523	68.974	811.523	73.5945	811.523	63.8828	811.523	71.5939	811.523	68.1078	811.523	71.2721	811.523	71.9611	811.523	72.8444	811.523	73.444
840.82	81.6957	840.82	81.9577	840.82	81.1564	840.82	81.9264	840.82	80.2946	840.82	81.5431	840.82	79.2827	840.82	80.9148	840.82	78.4275	840.82	80.3153	840.82	77.563	840.82	79.8469	840.82	76.3531	840.82	79.3012	840.82	75.1772	840.82	78.6562	840.82	74.7183	840.82	78.3374	840.82	75.0618	840.82	78.5778	840.82	75.9767	840.82	78.6357	840.82	76.6357	840.82	77.7936	840.82	76.1916	840.82	76.2474	840.82	74.5882	840.82	73.9223	840.82	72.8968	840.82	69.8699	840.82	72.7613	840.82	67.6305	840.82	73.526	840.82	70.9941	840.82	73.6711	840.82	72.9287
870.117	78.1706	870.117	78.3319	870.117	77.7047	870.117	78.4312	870.117	76.7406	870.117	78.4858	870.117	75.2073	870.117	78.2073	870.117	73.4119	870.117	77.444	870.117	71.7347	870.117	76.4069	870.117	69.5959	870.117	75.7906	870.117	67.2794	870.117	76.19	870.117	68.0275	870.117	76.4582	870.117	69.983	870.117	76.0906	870.117	71.1083	870.117	76.1273	870.117	71.9021	870.117	75.6329	870.117	71.924	870.117	73.3118	870.117	70.6924	870.117	70.3432	870.117	69.722	870.117	69.9577	870.117	70.9745	870.117	71.681	870.117	73.6829	870.117	73.9106	870.117	75.6174	870.117	75.6018
900.879	79.8862	900.879	79.8916	900.879	79.6425	900.879	79.9319	900.879	78.7383	900.879	79.7047	900.879	77.3142	900.879	78.9852	900.879	75.8435	900.879	78.3189	900.879	74.0691	900.879	78.0933	900.879	71.4705	900.879	77.6208	900.879	69.7458	900.879	76.4914	900.879	70.1957	900.879	75.4967	900.879	70.1771	900.879	75.5812	900.879	69.4691	900.879	76.1706	900.879	69.2605	900.879	76.2861	900.879	68.3483	900.879	75.5813	900.879	63.8784	900.879	73.7391	900.879	46.6801	900.879	69.2884	900.879	63.1502	900.879	61.2495	900.879	67.3831	900.879	65.6043	900.879	68.2403	900.879	67.7089
933.105	78.9678	933.105	79.2115	933.105	78.3531	933.105	79.5422	933.105	77.1461	933.105	79.7867	933.105	75.6139	933.105	79.3324	933.105	73.9364	933.105	78.3553	933.105	71.8611	933.105	77.9241	933.105	69.0391	933.105	78.0602	933.105	64.8477	933.105	77.9132	933.105	56.5696	933.105	77.4011	933.105	55.4354	933.105	76.8776	933.105	62.0734	933.105	77.2423	933.105	61.3109	933.105	77.7364	933.105	58.3064	933.105	76.7931	933.105	57.5085	933.105	73.7766	933.105	58.4897	933.105	67.7533	933.105	65.5547	933.105	64.1334	933.105	70.6849	933.105	69.7057	933.105	72.7536	933.105	72.3487
965.332	81.8205	965.332	82.2989	965.332	80.8757	965.332	82.3085	965.332	79.8867	965.332	82.1993	965.332	79.0884	965.332	81.895	965.332	78.4562	965.332	81.3012	965.332	77.5579	965.332	80.6639	965.332	75.6593	965.332	79.7998	965.332	72.5269	965.332	78.4946	965.332	68.7142	965.332	77.4865	965.332	67.2218	965.332	76.9677	965.332	70.4118	965.332	76.7062	965.332	72.4079	965.332	77.3097	965.332	73.1289	965.332	77.6962	965.332	72.4161	965.332	76.3012	965.332	69.6591	965.332	71.8783	965.332	66.6203	965.332	68.6081	965.332	70.6902	965.332	71.0806	965.332	73.5791	965.332	73.0776
1,000.49	81.1362	1,000.49	81.5963	1,000.49	80.0935	1,000.49	81.3104	1,000.49	78.7843	1,000.49	80.7516	1,000.49	77.0792	1,000.49	80.1852	1,000.49	75.4874	1,000.49	79.4297	1,000.49	75.263	1,000.49	78.7866	1,000.49	75.6711	1,000.49	78.3641	1,000.49	75.3407	1,000.49	77.7187	1,000.49	74.1096	1,000.49	77.1912	1,000.49	71.2511	1,000.49	76.6765	1,000.49	64.6656	1,000.49	75.9592	1,000.49	52.1277	1,000.49	75.0852	1,000.49	61.7715	1,000.49	72.813	1,000.49	64.3571	1,000.49	67.1703	1,000.49	67.6269	1,000.49	49.9529	1,000.49	73.4781	1,000.49	70.5404	1,000.49	76.7954	1,000.49	75.7881	1,000.49	78.0993	1,000.49	77.7025
1,035.64	80.4423	1,035.64	80.2226	1,035.64	80.1886	1,035.64	79.3712	1,035.64	80.0044	1,035.64	78.5005	1,035.64	79.6851	1,035.64	77.8677	1,035.64	78.9451	1,035.64	77.1094	1,035.64	78.411	1,035.64	76.3184	1,035.64	77.8372	1,035.64	75.6916	1,035.64	76.3276	1,035.64	74.7579	1,035.64	74.7223	1,035.64	74.0693	1,035.64	73.1797	1,035.64	75.2617	1,035.64	70.579	1,035.64	76.4093	1,035.64	68.2857	1,035.64	76.1012	1,035.64	66.1399	1,035.64	75.7312	1,035.64	62.8481	1,035.64	74.2408	1,035.64	63.8738	1,035.64	68.5264	1,035.64	71.1529	1,035.64	59.46	1,035.64	74.3565	1,035.64	68.5844	1,035.64	74.3631	1,035.64	72.6575
1,072.27	79.5308	1,072.27	79.1136	1,072.27	79.9017	1,072.27	78.3729	1,072.27	80.4998	1,072.27	77.9047	1,072.27	80.6815	1,072.27	77.5967	1,072.27	80.3665	1,072.27	76.9667	1,072.27	80.1223	1,072.27	75.9959	1,072.27	79.937	1,072.27	74.8577	1,072.27	78.9766	1,072.27	73.9389	1,072.27	77.5737	1,072.27	72.6312	1,072.27	76.0606	1,072.27	71.3319	1,072.27	74.3229	1,072.27	71.7351	1,072.27	73.7652	1,072.27	72.0638	1,072.27	73.0937	1,072.27	71.4683	1,072.27	71.1542	1,072.27	68.7088	1,072.27	67.9058	1,072.27	59.7136	1,072.27	69.731	1,072.27	62.6867	1,072.27	73.004	1,072.27	68.3775	1,072.27	73.3058	1,072.27	70.9936
1,108.89	79.7154	1,108.89	78.9541	1,108.89	80.3663	1,108.89	77.6339	1,108.89	81.0031	1,108.89	76.6344	1,108.89	80.8664	1,108.89	76.7062	1,108.89	79.8456	1,108.89	76.5752	1,108.89	78.7802	1,108.89	75.8995	1,108.89	77.9623	1,108.89	76.0657	1,108.89	76.6978	1,108.89	75.7229	1,108.89	76.4681	1,108.89	74.8551	1,108.89	76.9492	1,108.89	73.2525	1,108.89	75.5758	1,108.89	72.6089	1,108.89	73.6522	1,108.89	73.0338	1,108.89	71.4531	1,108.89	72.1108	1,108.89	69.8333	1,108.89	70.5383	1,108.89	70.7029	1,108.89	61.974	1,108.89	73.9332	1,108.89	58.9372	1,108.89	75.3985	1,108.89	67.8085	1,108.89	74.2158	1,108.89	71.6855
1,148.44	78.2124	1,148.44	77.1059	1,148.44	79.4195	1,148.44	76.6452	1,148.44	80.0232	1,148.44	76.3076	1,148.44	79.7353	1,148.44	75.1844	1,148.44	78.8149	1,148.44	73.543	1,148.44	77.9372	1,148.44	72.1769	1,148.44	77.1467	1,148.44	70.32	1,148.44	75.6638	1,148.44	68.7342	1,148.44	73.8998	1,148.44	66.9256	1,148.44	74.1047	1,148.44	62.6436	1,148.44	73.4237	1,148.44	62.3389	1,148.44	74.3401	1,148.44	65.1805	1,148.44	75.3758	1,148.44	64.9071	1,148.44	75.2606	1,148.44	67.6562	1,148.44	74.6721	1,148.44	65.3197	1,148.44	73.5356	1,148.44	57.1772	1,148.44	70.8526	1,148.44	57.7651	1,148.44	65.0214	1,148.44	53.7852
1,189.45	75.7702	1,189.45	75.7906	1,189.45	77.1647	1,189.45	76.6361	1,189.45	78.7971	1,189.45	76.923	1,189.45	79.2866	1,189.45	77.0322	1,189.45	77.8865	1,189.45	76.0258	1,189.45	76.2204	1,189.45	73.5251	1,189.45	76.6306	1,189.45	72.294	1,189.45	76.2029	1,189.45	69.8111	1,189.45	74.3455	1,189.45	63.3316	1,189.45	74.3342	1,189.45	64.9976	1,189.45	73.5814	1,189.45	68.4222	1,189.45	75.0862	1,189.45	66.2377	1,189.45	76.1372	1,189.45	64.1497	1,189.45	75.7527	1,189.45	68.2419	1,189.45	74.0652	1,189.45	66.8876	1,189.45	72.2467	1,189.45	60.6658	1,189.45	69.4081	1,189.45	61.0105	1,189.45	60.8008	1,189.45	63.0062
1,230.47	82.2524	1,230.47	82.1071	1,230.47	81.5308	1,230.47	81.1795	1,230.47	80.6091	1,230.47	80.5614	1,230.47	80.0072	1,230.47	80.3369	1,230.47	79.3257	1,230.47	79.9082	1,230.47	78.2093	1,230.47	78.9024	1,230.47	76.8234	1,230.47	78.5624	1,230.47	76.349	1,230.47	78.587	1,230.47	74.7973	1,230.47	76.6817	1,230.47	71.86	1,230.47	74.1726	1,230.47	69.2683	1,230.47	69.205	1,230.47	67.747	1,230.47	68.0315	1,230.47	70.9474	1,230.47	69.6143	1,230.47	71.4188	1,230.47	66.7172	1,230.47	71.8492	1,230.47	57.6963	1,230.47	69.3569	1,230.47	58.4091	1,230.47	62.6042	1,230.47	67.5753	1,230.47	69.575	1,230.47	71.8504
1,274.41	81.1041	1,274.41	80.9936	1,274.41	81.258	1,274.41	80.7506	1,274.41	80.7711	1,274.41	80.1051	1,274.41	80.1411	1,274.41	79.4973	1,274.41	79.6483	1,274.41	79.1241	1,274.41	78.8775	1,274.41	78.2934	1,274.41	77.7826	1,274.41	76.6261	1,274.41	77.0891	1,274.41	75.73	1,274.41	75.6203	1,274.41	73.9129	1,274.41	74.3918	1,274.41	72.2767	1,274.41	72.9286	1,274.41	72.6067	1,274.41	71.8869	1,274.41	73.6039	1,274.41	73.0867	1,274.41	72.6624	1,274.41	73.7781	1,274.41	71.1684	1,274.41	72.2323	1,274.41	65.936	1,274.41	69.0527	1,274.41	61.5706	1,274.41	64.5448	1,274.41	54.4528	1,274.41	62.8161	1,274.41	63.1117
1,319.82	84.0538	1,319.82	84.0531	1,319.82	83.5192	1,319.82	83.4949	1,319.82	82.6998	1,319.82	82.6583	1,319.82	81.4322	1,319.82	81.0865	1,319.82	79.7229	1,319.82	79.6461	1,319.82	78.0005	1,319.82	78.584	1,319.82	77.2382	1,319.82	77.7829	1,319.82	76.8493	1,319.82	77.7417	1,319.82	76.1545	1,319.82	76.5111	1,319.82	74.2724	1,319.82	74.4126	1,319.82	71.4126	1,319.82	71.4597	1,319.82	71.4591	1,319.82	71.333	1,319.82	74.4446	1,319.82	74.1866	1,319.82	75.2765	1,319.82	73.5438	1,319.82	73.7068	1,319.82	69.8194	1,319.82	67.5957	1,319.82	52.8441	1,319.82	62.6487	1,319.82	67.3736	1,319.82	71.4608	1,319.82	72.8891
1,366.7	84.5231	1,366.7	84.1927	1,366.7	84.1527	1,366.7	84.1059	1,366.7	83.3226	1,366.7	83.5821	1,366.7	82.7958	1,366.7	82.3442	1,366.7	81.5357	1,366.7	81.4337	1,366.7	79.8107	1,366.7	80.3408	1,366.7	78.2441	1,366.7	78.1641	1,366.7	76.2715	1,366.7	75.4397	1,366.7	74.0548	1,366.7	72.8236	1,366.7	71.6203	1,366.7	69.1204	1,366.7	72.473	1,366.7	61.9948	1,366.7	73.6136	1,366.7	69.2493	1,366.7	74.3579	1,366.7	73.5044	1,366.7	75.1901	1,366.7	74.8699	1,366.7	76.0587	1,366.7	71.6564	1,366.7	73.2131	1,366.7	63.8832	1,366.7	68.31	1,366.7	61.8354	1,366.7	56.8867	1,366.7	67.0595
1,413.57	83.8658	1,413.57	83.7945	1,413.57	83.4409	1,413.57	83.1212	1,413.57	82.3357	1,413.57	82.5183	1,413.57	80.6814	1,413.57	81.3265	1,413.57	80.066	1,413.57	80.2525	1,413.57	78.256	1,413.57	79.3871	1,413.57	76.6157	1,413.57	77.0506	1,413.57	76.5659	1,413.57	77.3307	1,413.57	73.2763	1,413.57	76.6083	1,413.57	70.9134	1,413.57	73.963	1,413.57	70.464	1,413.57	69.8548	1,413.57	70.2054	1,413.57	67.1345	1,413.57	74.1674	1,413.57	71.7754	1,413.57	76.3031	1,413.57	72.1633	1,413.57	76.9844	1,413.57	68.8035	1,413.57	74.4356	1,413.57	67.2784	1,413.57	64.8914	1,413.57	54.7065	1,413.57	62.593	1,413.57	65.8129
1,463.38	82.8343	1,463.38	82.7179	1,463.38	82.3158	1,463.38	81.7789	1,463.38	82.0668	1,463.38	81.1564	1,463.38	80.7716	1,463.38	80.3652	1,463.38	79.9274	1,463.38	78.7953	1,463.38	77.8068	1,463.38	76.9385	1,463.38	73.9663	1,463.38	75.2334	1,463.38	74.0432	1,463.38	74.2131	1,463.38	72.9879	1,463.38	74.0669	1,463.38	73.0951	1,463.38	72.2164	1,463.38	70.7453	1,463.38	69.7291	1,463.38	59.8221	1,463.38	62.7897	1,463.38	64.8458	1,463.38	66.2788	1,463.38	71.2393	1,463.38	70.1882	1,463.38	72.0852	1,463.38	69.9752	1,463.38	70.0321	1,463.38	65.2642	1,463.38	65.9703	1,463.38	58.3856	1,463.38	58.3296	1,463.38	65.9715
1,516.11	80.9336	1,516.11	80.7523	1,516.11	80.0576	1,516.11	80.5312	1,516.11	79.8896	1,516.11	80.3555	1,516.11	79.7268	1,516.11	79.3482	1,516.11	78.051	1,516.11	78.179	1,516.11	77.4581	1,516.11	76.8938	1,516.11	75.7355	1,516.11	75.2761	1,516.11	73.9145	1,516.11	74.3834	1,516.11	74.8167	1,516.11	73.1421	1,516.11	74.607	1,516.11	72.6244	1,516.11	68.3894	1,516.11	71.6389	1,516.11	67.3867	1,516.11	70.5487	1,516.11	64.3987	1,516.11	69.329	1,516.11	68.6757	1,516.11	72.9896	1,516.11	69.886	1,516.11	73.092	1,516.11	70.9355	1,516.11	65.8589	1,516.11	65.6588	1,516.11	58.7186	1,516.11	58.3091	1,516.11	43.7441
1,568.85	78.6716	1,568.85	78.4412	1,568.85	79.6922	1,568.85	77.9673	1,568.85	79.4255	1,568.85	77.4175	1,568.85	77.9793	1,568.85	77.5413	1,568.85	77.2874	1,568.85	76.91	1,568.85	76.9055	1,568.85	74.9716	1,568.85	77.4627	1,568.85	74.4352	1,568.85	75.1903	1,568.85	72.7278	1,568.85	74.9208	1,568.85	71.4815	1,568.85	73.6731	1,568.85	72.5486	1,568.85	72.075	1,568.85	71.9078	1,568.85	73.6442	1,568.85	68.6254	1,568.85	69.6885	1,568.85	50.1739	1,568.85	68.1607	1,568.85	72.2732	1,568.85	72.7943	1,568.85	72.1127	1,568.85	70.7337	1,568.85	68.6792	1,568.85	66.4881	1,568.85	62.5633	1,568.85	68.1188	1,568.85	66.3537
1,624.51	81.4488	1,624.51	81.6622	1,624.51	81.9568	1,624.51	81.0902	1,624.51	81.6372	1,624.51	80.4713	1,624.51	81.393	1,624.51	80.7079	1,624.51	80.5554	1,624.51	78.9099	1,624.51	79.7653	1,624.51	77.2642	1,624.51	79.5745	1,624.51	75.442	1,624.51	78.5148	1,624.51	74.0683	1,624.51	77.1311	1,624.51	72.1997	1,624.51	73.5202	1,624.51	73.9155	1,624.51	73.2175	1,624.51	75.0068	1,624.51	72.3396	1,624.51	73.1298	1,624.51	68.1422	1,624.51	62.6406	1,624.51	62.3253	1,624.51	65.2375	1,624.51	70.097	1,624.51	65.5741	1,624.51	71.9506	1,624.51	62.9869	1,624.51	68.5638	1,624.51	61.3768	1,624.51	69.747	1,624.51	64.6019
1,681.64	83.329	1,681.64	83.9969	1,681.64	83.5614	1,681.64	83.1464	1,681.64	82.8923	1,681.64	81.8808	1,681.64	82.5688	1,681.64	81.6214	1,681.64	80.4009	1,681.64	80.6548	1,681.64	80.1143	1,681.64	78.7347	1,681.64	79.1832	1,681.64	76.7735	1,681.64	77.6634	1,681.64	74.8533	1,681.64	77.0276	1,681.64	74.5107	1,681.64	76.0494	1,681.64	73.4863	1,681.64	76.2624	1,681.64	72.3864	1,681.64	74.4068	1,681.64	72.415	1,681.64	74.4994	1,681.64	63.7531	1,681.64	72.8649	1,681.64	69.0274	1,681.64	67.5354	1,681.64	70.1649	1,681.64	69.824	1,681.64	58.1898	1,681.64	66.4106	1,681.64	62.3306	1,681.64	62.2445	1,681.64	63.9746
1,741.7	83.5299	1,741.7	83.7461	1,741.7	83.8703	1,741.7	83.8479	1,741.7	83.1752	1,741.7	82.7799	1,741.7	82.2511	1,741.7	81.9529	1,741.7	80.8317	1,741.7	81.2031	1,741.7	79.5545	1,741.7	78.8506	1,741.7	78.4136	1,741.7	78.247	1,741.7	76.732	1,741.7	76.2138	1,741.7	74.782	1,741.7	74.4903	1,741.7	73.9707	1,741.7	71.2329	1,741.7	70.4681	1,741.7	69.2382	1,741.7	67.5471	1,741.7	68.5591	1,741.7	65.0167	1,741.7	66.5668	1,741.7	65.0758	1,741.7	62.0426	1,741.7	68.8767	1,741.7	67.3756	1,741.7	69.3758	1,741.7	65.9987	1,741.7	66.9595	1,741.7	64.4107	1,741.7	62.9808	1,741.7	57.88
1,803.22	84.9038	1,803.22	84.7309	1,803.22	84.9739	1,803.22	84.3874	1,803.22	83.2564	1,803.22	83.7558	1,803.22	82.6219	1,803.22	83.3016	1,803.22	82.2141	1,803.22	81.3122	1,803.22	80.7191	1,803.22	80.7205	1,803.22	78.2399	1,803.22	78.4549	1,803.22	77.2425	1,803.22	78.0109	1,803.22	75.7996	1,803.22	76.2935	1,803.22	75.4505	1,803.22	72.7826	1,803.22	71.2983	1,803.22	70.8036	1,803.22	67.2415	1,803.22	71.6876	1,803.22	72.3303	1,803.22	70.1501	1,803.22	70.2696	1,803.22	66.6844	1,803.22	71.3161	1,803.22	74.04	1,803.22	71.4213	1,803.22	68.6183	1,803.22	70.1444	1,803.22	58.8258	1,803.22	61.7791	1,803.22	58.9923
1,866.21	84.6798	1,866.21	84.6319	1,866.21	84.8857	1,866.21	84.4041	1,866.21	83.8708	1,866.21	83.5732	1,866.21	82.904	1,866.21	82.9628	1,866.21	81.8128	1,866.21	81.758	1,866.21	79.7416	1,866.21	79.9074	1,866.21	78.0741	1,866.21	77.5413	1,866.21	77.5514	1,866.21	76.1702	1,866.21	76.0346	1,866.21	77.4922	1,866.21	72.933	1,866.21	75.1679	1,866.21	70.1321	1,866.21	73.4328	1,866.21	69.8223	1,866.21	72.2925	1,866.21	72.0947	1,866.21	70.4851	1,866.21	66.8517	1,866.21	68.7139	1,866.21	69.7631	1,866.21	66.9624	1,866.21	72.7453	1,866.21	71.0765	1,866.21	65.1084	1,866.21	66.3458	1,866.21	64.844	1,866.21	64.9088
1,932.13	82.5786	1,932.13	83.0424	1,932.13	82.6019	1,932.13	82.677	1,932.13	82.3648	1,932.13	81.7228	1,932.13	81.0411	1,932.13	81.0961	1,932.13	80.003	1,932.13	80.1057	1,932.13	79.0256	1,932.13	79.3151	1,932.13	78.1998	1,932.13	77.911	1,932.13	75.7659	1,932.13	75.7555	1,932.13	73.9016	1,932.13	73.6539	1,932.13	73.4087	1,932.13	72.8463	1,932.13	71.6888	1,932.13	70.204	1,932.13	69.0273	1,932.13	71.0426	1,932.13	71.3476	1,932.13	70.673	1,932.13	66.7642	1,932.13	70.0484	1,932.13	63.4998	1,932.13	67.9571	1,932.13	66.9991	1,932.13	66.4199	1,932.13	66.6943	1,932.13	59.8302	1,932.13	60.632	1,932.13	55.3641
1,999.51	83.0265	1,999.51	83.0864	1,999.51	82.8322	1,999.51	82.6103	1,999.51	82.5651	1,999.51	82.1006	1,999.51	81.6148	1,999.51	80.6613	1,999.51	80.745	1,999.51	79.028	1,999.51	79.2069	1,999.51	78.0967	1,999.51	78.2713	1,999.51	76.4564	1,999.51	76.4444	1,999.51	74.1492	1,999.51	73.9286	1,999.51	72.717	1,999.51	72.2307	1,999.51	70.8164	1,999.51	72.2628	1,999.51	67.7701	1,999.51	69.5642	1,999.51	69.8961	1,999.51	68.6037	1,999.51	67.3023	1,999.51	68.1233	1,999.51	66.3074	1,999.51	66.3217	1,999.51	69.7411	1,999.51	69.2155	1,999.51	67.2579	1,999.51	68.1367	1,999.51	61.7914	1,999.51	61.4686	1,999.51	58.7404
2,069.82	82.8718	2,069.82	82.3843	2,069.82	82.7291	2,069.82	82.0775	2,069.82	82.1425	2,069.82	81.4395	2,069.82	81.4826	2,069.82	80.29	2,069.82	80.1989	2,069.82	78.2964	2,069.82	78.6495	2,069.82	76.2031	2,069.82	77.3255	2,069.82	75.1244	2,069.82	76.0442	2,069.82	73.022	2,069.82	73.7674	2,069.82	69.9192	2,069.82	71.7383	2,069.82	69.8662	2,069.82	71.1081	2,069.82	67.1945	2,069.82	67.6574	2,069.82	66.5306	2,069.82	67.9572	2,069.82	67.2933	2,069.82	67.6415	2,069.82	60.8639	2,069.82	65.0968	2,069.82	66.9847	2,069.82	66.8097	2,069.82	66.0166	2,069.82	66.118	2,069.82	61.0916	2,069.82	61.4404	2,069.82	57.9194
2,143.07	81.6776	2,143.07	81.5786	2,143.07	81.4847	2,143.07	80.9537	2,143.07	80.9889	2,143.07	79.9741	2,143.07	80.0056	2,143.07	78.8329	2,143.07	78.7696	2,143.07	76.8657	2,143.07	76.8115	2,143.07	74.8176	2,143.07	74.4449	2,143.07	72.9578	2,143.07	72.7949	2,143.07	71.6723	2,143.07	70.8099	2,143.07	68.0929	2,143.07	67.9029	2,143.07	66.6885	2,143.07	67.079	2,143.07	65.1797	2,143.07	65.27	2,143.07	63.3576	2,143.07	63.3049	2,143.07	66.1986	2,143.07	64.984	2,143.07	63.1393	2,143.07	62.0469	2,143.07	60.9479	2,143.07	64.6167	2,143.07	63.1796	2,143.07	63.3208	2,143.07	56.1825	2,143.07	57.4598	2,143.07	52.8907
2,219.24	79.1998	2,219.24	78.9152	2,219.24	78.6813	2,219.24	78.1569	2,219.24	77.8659	2,219.24	77.183	2,219.24	76.3243	2,219.24	75.6534	2,219.24	74.567	2,219.24	73.8402	2,219.24	72.3268	2,219.24	71.3851	2,219.24	69.065	2,219.24	68.0082	2,219.24	66.9622	2,219.24	65.3299	2,219.24	65.0745	2,219.24	64.1085	2,219.24	62.3655	2,219.24	61.5613	2,219.24	61.0152	2,219.24	61.8216	2,219.24	61.4636	2,219.24	56.2031	2,219.24	54.5273	2,219.24	55.9891	2,219.24	58.8639	2,219.24	57.2308	2,219.24	54.7955	2,219.24	54.2997	2,219.24	56.8485	2,219.24	58.5935	2,219.24	59.2141	2,219.24	58.5863	2,219.24	58.6472	2,219.24	56.367
2,296.88	82.3996	2,296.88	82.156	2,296.88	81.9565	2,296.88	81.6089	2,296.88	80.8396	2,296.88	80.6478	2,296.88	79.6733	2,296.88	79.4671	2,296.88	77.9687	2,296.88	78.3154	2,296.88	76.3432	2,296.88	76.3013	2,296.88	74.3969	2,296.88	74.6507	2,296.88	72.3403	2,296.88	72.4916	2,296.88	69.93	2,296.88	70.3083	2,296.88	67.7355	2,296.88	69.886	2,296.88	66.7091	2,296.88	68.3595	2,296.88	66.3909	2,296.88	66.1619	2,296.88	64.3527	2,296.88	64.9766	2,296.88	64.1875	2,296.88	63.2858	2,296.88	63.2685	2,296.88	63.8743	2,296.88	60.0613	2,296.88	63.8117	2,296.88	62.3957	2,296.88	62.4513	2,296.88	64.4222	2,296.88	63.9829
2,378.91	84.0625	2,378.91	83.9253	2,378.91	83.8789	2,378.91	83.4422	2,378.91	83.4282	2,378.91	82.7984	2,378.91	82.4181	2,378.91	81.4741	2,378.91	81.1298	2,378.91	80.1482	2,378.91	79.435	2,378.91	78.4449	2,378.91	77.7329	2,378.91	76.6605	2,378.91	75.9391	2,378.91	74.8689	2,378.91	74.4791	2,378.91	72.7521	2,378.91	72.8421	2,378.91	71.4094	2,378.91	70.6514	2,378.91	70.2405	2,378.91	68.6615	2,378.91	68.1	2,378.91	67.5227	2,378.91	69.4669	2,378.91	69.0844	2,378.91	68.9756	2,378.91	68.2195	2,378.91	67.5495	2,378.91	67.0527	2,378.91	64.2648	2,378.91	66.1397	2,378.91	63.4173	2,378.91	64.2313	2,378.91	66.892
2,462.4	85.8027	2,462.4	85.3347	2,462.4	85.4696	2,462.4	84.8966	2,462.4	84.972	2,462.4	84.1374	2,462.4	84.28	2,462.4	83.2206	2,462.4	83.0523	2,462.4	81.5749	2,462.4	81.7386	2,462.4	79.1172	2,462.4	79.8111	2,462.4	77.2674	2,462.4	77.6143	2,462.4	75.5742	2,462.4	76.2254	2,462.4	72.9618	2,462.4	73.3429	2,462.4	70.7513	2,462.4	72.3277	2,462.4	70.9768	2,462.4	71.7601	2,462.4	66.8929	2,462.4	68.97	2,462.4	68.175	2,462.4	69.9429	2,462.4	68.8152	2,462.4	70.1631	2,462.4	68.6308	2,462.4	69.1328	2,462.4	67.1306	2,462.4	67.8772	2,462.4	63.526	2,462.4	65.9287	2,462.4	67.9038
2,548.83	84.0688	2,548.83	83.9579	2,548.83	84.1861	2,548.83	83.9966	2,548.83	83.7348	2,548.83	83.1478	2,548.83	82.9504	2,548.83	82.2355	2,548.83	81.558	2,548.83	81.0147	2,548.83	80.0792	2,548.83	78.946	2,548.83	78.1795	2,548.83	76.467	2,548.83	75.9987	2,548.83	75.2622	2,548.83	73.8964	2,548.83	72.5724	2,548.83	71.969	2,548.83	70.3896	2,548.83	69.7721	2,548.83	70.1358	2,548.83	69.173	2,548.83	66.7934	2,548.83	66.5029	2,548.83	66.4034	2,548.83	67.7924	2,548.83	66.5131	2,548.83	66.9509	2,548.83	67.1429	2,548.83	66.5117	2,548.83	66.8516	2,548.83	66.6349	2,548.83	63.0601	2,548.83	65.3081	2,548.83	65.6682
2,639.65	80.872	2,639.65	81.1902	2,639.65	80.7591	2,639.65	80.4874	2,639.65	80.172	2,639.65	80.1186	2,639.65	79.1776	2,639.65	78.6535	2,639.65	77.7895	2,639.65	77.7227	2,639.65	75.7323	2,639.65	76.1979	2,639.65	73.6221	2,639.65	73.7698	2,639.65	71.3573	2,639.65	70.7999	2,639.65	68.8708	2,639.65	69.1506	2,639.65	67.5698	2,639.65	66.9097	2,639.65	63.7679	2,639.65	65.5601	2,639.65	63.6724	2,639.65	63.9388	2,639.65	60.1993	2,639.65	61.456	2,639.65	62.5861	2,639.65	64.264	2,639.65	60.9897	2,639.65	65.3125	2,639.65	62.1895	2,639.65	63.564	2,639.65	60.8706	2,639.65	63.1541	2,639.65	58.2236	2,639.65	63.4802
2,731.93	82.8971	2,731.93	83.0117	2,731.93	82.1218	2,731.93	82.3015	2,731.93	82.1101	2,731.93	81.9821	2,731.93	80.8993	2,731.93	80.3872	2,731.93	79.9247	2,731.93	78.2668	2,731.93	78.028	2,731.93	77.4432	2,731.93	76.716	2,731.93	75.8407	2,731.93	74.6486	2,731.93	71.6277	2,731.93	72.036	2,731.93	71.7682	2,731.93	70.2079	2,731.93	68.231	2,731.93	67.7707	2,731.93	66.5344	2,731.93	67.5003	2,731.93	65.3143	2,731.93	64.9612	2,731.93	63.1524	2,731.93	64.2316	2,731.93	64.7854	2,731.93	66.3266	2,731.93	64.7241	2,731.93	65.0989	2,731.93	65.6986	2,731.93	64.9697	2,731.93	59.127	2,731.93	60.7102	2,731.93	62.9232
2,828.61	84.2861	2,828.61	83.9311	2,828.61	84.1732	2,828.61	84.082	2,828.61	83.8143	2,828.61	83.31	2,828.61	83.4366	2,828.61	82.5963	2,828.61	82.4373	2,828.61	80.7543	2,828.61	80.944	2,828.61	78.4476	2,828.61	79.0847	2,828.61	75.8012	2,828.61	77.463	2,828.61	74.5416	2,828.61	75.1607	2,828.61	72.9477	2,828.61	73.1127	2,828.61	71.2703	2,828.61	71.7154	2,828.61	69.2258	2,828.61	68.7029	2,828.61	68.5178	2,828.61	68.2655	2,828.61	65.5546	2,828.61	65.7188	2,828.61	68.1063	2,828.61	67.3458	2,828.61	65.1255	2,828.61	67.4014	2,828.61	67.3428	2,828.61	66.8861	2,828.61	61.6035	2,828.61	60.9783	2,828.61	65.4338
2,928.22	85.0687	2,928.22	85.1108	2,928.22	85.563	2,928.22	85.2603	2,928.22	85.0875	2,928.22	84.6293	2,928.22	84.7663	2,928.22	83.7828	2,928.22	83.6717	2,928.22	82.7666	2,928.22	82.4273	2,928.22	80.111	2,928.22	80.4786	2,928.22	78.008	2,928.22	78.3789	2,928.22	76.9505	2,928.22	76.1824	2,928.22	73.6492	2,928.22	73.9354	2,928.22	71.6581	2,928.22	72.1489	2,928.22	69.9483	2,928.22	69.5633	2,928.22	68.7302	2,928.22	69.2169	2,928.22	64.5706	2,928.22	65.4697	2,928.22	67.761	2,928.22	67.9739	2,928.22	65.0814	2,928.22	67.8835	2,928.22	67.8723	2,928.22	67.5764	2,928.22	58.7097	2,928.22	64.5016	2,928.22	66.3989
3,030.76	85.3164	3,030.76	85.5245	3,030.76	85.5268	3,030.76	85.2424	3,030.76	85.3283	3,030.76	84.9268	3,030.76	84.8352	3,030.76	84.1119	3,030.76	83.8525	3,030.76	83.0248	3,030.76	82.2509	3,030.76	80.6798	3,030.76	80.2982	3,030.76	79.2635	3,030.76	78.1106	3,030.76	76.8788	3,030.76	76.0375	3,030.76	74.0158	3,030.76	74.2764	3,030.76	71.9989	3,030.76	72.0653	3,030.76	69.6853	3,030.76	70.2502	3,030.76	69.3014	3,030.76	69.5445	3,030.76	63.1497	3,030.76	65.2009	3,030.76	67.873	3,030.76	68.2757	3,030.76	67.4678	3,030.76	66.4253	3,030.76	67.9966	3,030.76	68.2873	3,030.76	64.8216	3,030.76	63.014	3,030.76	67.9494
3,137.7	84.6826	3,137.7	85.0226	3,137.7	84.3909	3,137.7	84.8849	3,137.7	84.6179	3,137.7	84.5971	3,137.7	83.8313	3,137.7	83.6652	3,137.7	82.891	3,137.7	81.6992	3,137.7	81.1755	3,137.7	80.2644	3,137.7	79.393	3,137.7	78.621	3,137.7	77.142	3,137.7	75.4239	3,137.7	75.0594	3,137.7	73.7209	3,137.7	73.6064	3,137.7	71.1616	3,137.7	71.0724	3,137.7	69.5064	3,137.7	69.8684	3,137.7	68.793	3,137.7	68.974	3,137.7	65.0549	3,137.7	64.879	3,137.7	66.7357	3,137.7	67.4601	3,137.7	65.7337	3,137.7	66.3872	3,137.7	67.9997	3,137.7	67.086	3,137.7	61.8224	3,137.7	62.2588	3,137.7	66.7802
3,249.02	83.6727	3,249.02	83.6713	3,249.02	83.6541	3,249.02	83.5331	3,249.02	83.3198	3,249.02	83.429	3,249.02	82.8824	3,249.02	82.2203	3,249.02	81.994	3,249.02	80.7935	3,249.02	80.5925	3,249.02	79.2082	3,249.02	78.7408	3,249.02	77.3729	3,249.02	76.5235	3,249.02	75.1745	3,249.02	74.6803	3,249.02	73.865	3,249.02	73.1037	3,249.02	71.735	3,249.02	70.337	3,249.02	69.2949	3,249.02	68.9909	3,249.02	67.7741	3,249.02	68.1454	3,249.02	66.1786	3,249.02	65.1869	3,249.02	66.5335	3,249.02	67.1621	3,249.02	65.975	3,249.02	66.0383	3,249.02	67.4128	3,249.02	66.9495	3,249.02	60.2669	3,249.02	60.4146	3,249.02	64.5358
3,363.28	83.26	3,363.28	82.9801	3,363.28	83.2917	3,363.28	83.116	3,363.28	83.0404	3,363.28	82.8114	3,363.28	82.7058	3,363.28	81.5575	3,363.28	81.5378	3,363.28	79.9219	3,363.28	80.1429	3,363.28	78.2471	3,363.28	78.7136	3,363.28	75.9064	3,363.28	76.8168	3,363.28	74.3516	3,363.28	74.4397	3,363.28	71.9603	3,363.28	72.4485	3,363.28	70.1815	3,363.28	70.0028	3,363.28	68.0378	3,363.28	69.0641	3,363.28	67.2981	3,363.28	67.5416	3,363.28	66.0138	3,363.28	65.9335	3,363.28	64.1138	3,363.28	66.214	3,363.28	65.2776	3,363.28	65.8771	3,363.28	65.067	3,363.28	66.7452	3,363.28	61.1122	3,363.28	58.4753	3,363.28	63.3601
3,481.93	82.6617	3,481.93	82.7384	3,481.93	82.914	3,481.93	82.5871	3,481.93	82.4467	3,481.93	82.2058	3,481.93	82.0733	3,481.93	81.1762	3,481.93	81.1231	3,481.93	80.4066	3,481.93	79.8262	3,481.93	78.1104	3,481.93	77.4643	3,481.93	76.1511	3,481.93	75.4125	3,481.93	74.0479	3,481.93	73.2117	3,481.93	71.7186	3,481.93	71.1982	3,481.93	69.4364	3,481.93	69.0254	3,481.93	67.7613	3,481.93	66.7777	3,481.93	66.4618	3,481.93	64.7472	3,481.93	64.9205	3,481.93	64.6645	3,481.93	64.3199	3,481.93	65.3922	3,481.93	63.9295	3,481.93	64.899	3,481.93	64.6946	3,481.93	65.6246	3,481.93	59.528	3,481.93	59.7591	3,481.93	62.8495
3,604.98	82.0406	3,604.98	82.2982	3,604.98	82.059	3,604.98	82.29	3,604.98	82.1186	3,604.98	81.871	3,604.98	81.5023	3,604.98	81.2481	3,604.98	80.8751	3,604.98	79.9181	3,604.98	79.231	3,604.98	78.172	3,604.98	77.6369	3,604.98	76.2806	3,604.98	75.654	3,604.98	74.2366	3,604.98	73.5018	3,604.98	71.5938	3,604.98	70.846	3,604.98	69.9781	3,604.98	69.6224	3,604.98	67.8571	3,604.98	66.6769	3,604.98	65.7105	3,604.98	64.7744	3,604.98	65.0141	3,604.98	65.0561	3,604.98	64.1507	3,604.98	64.2958	3,604.98	65.5215	3,604.98	64.1808	3,604.98	65.8153	3,604.98	65.034	3,604.98	58.4819	3,604.98	56.9303	3,604.98	63.1984
3,732.42	80.9299	3,732.42	81.3799	3,732.42	80.906	3,732.42	81.2951	3,732.42	81.4092	3,732.42	80.8923	3,732.42	80.8306	3,732.42	80.3095	3,732.42	79.902	3,732.42	78.4286	3,732.42	78.1741	3,732.42	76.6623	3,732.42	76.689	3,732.42	74.9867	3,732.42	74.9294	3,732.42	72.8368	3,732.42	72.3576	3,732.42	70.2004	3,732.42	69.861	3,732.42	68.1342	3,732.42	68.5396	3,732.42	66.2568	3,732.42	66.5151	3,732.42	64.4534	3,732.42	64.2641	3,732.42	62.9081	3,732.42	64.2741	3,732.42	61.7889	3,732.42	63.1794	3,732.42	64.46	3,732.42	63.419	3,732.42	62.9597	3,732.42	63.8514	3,732.42	56.8004	3,732.42	53.9199	3,732.42	60.8369
3,864.26	82.551	3,864.26	82.4556	3,864.26	82.6087	3,864.26	82.1934	3,864.26	81.8831	3,864.26	82.0492	3,864.26	81.4123	3,864.26	80.566	3,864.26	80.189	3,864.26	79.2668	3,864.26	78.8274	3,864.26	77.4907	3,864.26	77.3189	3,864.26	75.9367	3,864.26	75.039	3,864.26	73.8385	3,864.26	72.1377	3,864.26	71.1581	3,864.26	70.084	3,864.26	69.2009	3,864.26	67.7858	3,864.26	67.0643	3,864.26	65.9953	3,864.26	65.4277	3,864.26	63.8931	3,864.26	63.9084	3,864.26	64.8837	3,864.26	62.414	3,864.26	63.3036	3,864.26	65.0177	3,864.26	64.0858	3,864.26	63.7435	3,864.26	65.194	3,864.26	59.9635	3,864.26	56.6027	3,864.26	55.7192
4,000.49	83.5056	4,000.49	83.3777	4,000.49	83.678	4,000.49	83.3069	4,000.49	83.1792	4,000.49	82.858	4,000.49	82.6847	4,000.49	81.6278	4,000.49	81.8076	4,000.49	80.5713	4,000.49	80.2757	4,000.49	78.8685	4,000.49	78.4636	4,000.49	77.4029	4,000.49	76.5999	4,000.49	75.0148	4,000.49	74.3665	4,000.49	73.4533	4,000.49	72.8411	4,000.49	70.6728	4,000.49	70.249	4,000.49	68.6628	4,000.49	68.2621	4,000.49	67.0315	4,000.49	66.4227	4,000.49	65.7991	4,000.49	65.0157	4,000.49	64.9084	4,000.49	63.9241	4,000.49	67.3857	4,000.49	66.8232	4,000.49	65.7279	4,000.49	65.951	4,000.49	62.5838	4,000.49	60.5937	4,000.49	62.5933
4,141.11	83.8282	4,141.11	84.0212	4,141.11	83.6795	4,141.11	83.5284	4,141.11	83.7166	4,141.11	82.9743	4,141.11	83.1566	4,141.11	82.4718	4,141.11	82.3392	4,141.11	80.9646	4,141.11	80.655	4,141.11	79.3565	4,141.11	78.9034	4,141.11	77.2399	4,141.11	77.052	4,141.11	74.7042	4,141.11	74.8288	4,141.11	72.7551	4,141.11	73.1938	4,141.11	70.5096	4,141.11	70.443	4,141.11	68.1499	4,141.11	68.7479	4,141.11	66.3979	4,141.11	66.7894	4,141.11	64.8223	4,141.11	64.9446	4,141.11	64.6413	4,141.11	64.7322	4,141.11	66.0786	4,141.11	66.5082	4,141.11	64.4401	4,141.11	65.0484	4,141.11	61.6866	4,141.11	60.1578	4,141.11	61.8283
4,287.6	84.1755	4,287.6	84.1558	4,287.6	84.1778	4,287.6	83.9746	4,287.6	83.7396	4,287.6	83.2789	4,287.6	83.0543	4,287.6	82.334	4,287.6	81.8622	4,287.6	81.1186	4,287.6	80.5604	4,287.6	79.5759	4,287.6	79.1431	4,287.6	78.0158	4,287.6	77.5535	4,287.6	76.0285	4,287.6	75.1634	4,287.6	73.5516	4,287.6	72.5831	4,287.6	70.7624	4,287.6	70.401	4,287.6	68.9922	4,287.6	68.5643	4,287.6	66.2089	4,287.6	66.2721	4,287.6	63.534	4,287.6	64.232	4,287.6	63.2627	4,287.6	64.8034	4,287.6	66.43	4,287.6	65.8682	4,287.6	64.5643	4,287.6	64.7929	4,287.6	63.2886	4,287.6	56.9238	4,287.6	60.1337
4,438.48	83.9558	4,438.48	83.6965	4,438.48	83.7555	4,438.48	83.3439	4,438.48	83.0857	4,438.48	82.4458	4,438.48	81.9779	4,438.48	81.4731	4,438.48	81.4894	4,438.48	80.356	4,438.48	80.4449	4,438.48	79.219	4,438.48	79.2808	4,438.48	77.395	4,438.48	77.2964	4,438.48	74.8982	4,438.48	74.9591	4,438.48	72.3006	4,438.48	73.1011	4,438.48	70.1851	4,438.48	70.3355	4,438.48	69.0023	4,438.48	68.3493	4,438.48	66.8395	4,438.48	66.174	4,438.48	65.1897	4,438.48	63.8458	4,438.48	62.8549	4,438.48	63.2134	4,438.48	67.1922	4,438.48	66.6181	4,438.48	64.6563	4,438.48	65.1382	4,438.48	64.4936	4,438.48	61.723	4,438.48	60.0364
4,595.21	82.5414	4,595.21	82.614	4,595.21	82.6168	4,595.21	82.1009	4,595.21	82.2634	4,595.21	81.8151	4,595.21	81.5577	4,595.21	81.2931	4,595.21	80.9333	4,595.21	80.0604	4,595.21	79.6207	4,595.21	78.4265	4,595.21	77.8389	4,595.21	76.2633	4,595.21	75.6227	4,595.21	73.3138	4,595.21	72.8498	4,595.21	70.9808	4,595.21	70.6958	4,595.21	67.954	4,595.21	67.7821	4,595.21	65.384	4,595.21	66.3827	4,595.21	63.5864	4,595.21	64.5544	4,595.21	63.2485	4,595.21	62.7897	4,595.21	60.9208	4,595.21	60.3765	4,595.21	62.5569	4,595.21	64.2213	4,595.21	62.4734	4,595.21	63.3954	4,595.21	61.9773	4,595.21	61.0503	4,595.21	58.1935
4,756.35	82.3588	4,756.35	82.482	4,756.35	82.8252	4,756.35	82.9794	4,756.35	82.7333	4,756.35	82.3361	4,756.35	82.5013	4,756.35	81.4784	4,756.35	81.2679	4,756.35	79.738	4,756.35	79.5817	4,756.35	77.6354	4,756.35	77.8564	4,756.35	75.2956	4,756.35	75.7821	4,756.35	73.5807	4,756.35	73.6275	4,756.35	70.618	4,756.35	71.3851	4,756.35	69.4894	4,756.35	68.5363	4,756.35	66.2542	4,756.35	65.832	4,756.35	63.5483	4,756.35	62.795	4,756.35	62.1331	4,756.35	61.9956	4,756.35	61.9018	4,756.35	60.9603	4,756.35	62.9611	4,756.35	62.8477	4,756.35	60.4045	4,756.35	61.47	4,756.35	62.3132	4,756.35	59.6936	4,756.35	57.2269
4,924.8	82.1905	4,924.8	82.4073	4,924.8	82.2077	4,924.8	82.497	4,924.8	82.2879	4,924.8	82.0892	4,924.8	81.3811	4,924.8	81.0858	4,924.8	80.6826	4,924.8	79.7936	4,924.8	79.6604	4,924.8	78.6218	4,924.8	78.1731	4,924.8	76.5913	4,924.8	76.1614	4,924.8	73.8674	4,924.8	73.8508	4,924.8	70.8745	4,924.8	71.5668	4,924.8	68.3735	4,924.8	68.667	4,924.8	66.6437	4,924.8	66.3612	4,924.8	63.7923	4,924.8	63.9649	4,924.8	63.2309	4,924.8	63.356	4,924.8	59.1862	4,924.8	61.8194	4,924.8	63.3332	4,924.8	63.8541	4,924.8	61.6	4,924.8	62.3453	4,924.8	61.63	4,924.8	60.6072	4,924.8	52.4143
5,097.66	83.1705	5,097.66	83.2327	5,097.66	83.334	5,097.66	82.5944	5,097.66	82.8417	5,097.66	82.3169	5,097.66	82.4441	5,097.66	81.8481	5,097.66	81.9614	5,097.66	81.1762	5,097.66	80.9597	5,097.66	80.0067	5,097.66	79.6212	5,097.66	77.7926	5,097.66	77.4218	5,097.66	75.9023	5,097.66	75.0555	5,097.66	73.6211	5,097.66	72.5708	5,097.66	71.5223	5,097.66	69.8365	5,097.66	68.7506	5,097.66	67.8515	5,097.66	66.3776	5,097.66	65.4598	5,097.66	65.0603	5,097.66	64.3447	5,097.66	64.1196	5,097.66	62.1683	5,097.66	62.7836	5,097.66	64.4724	5,097.66	63.3732	5,097.66	63.3957	5,097.66	63.5985	5,097.66	62.4947	5,097.66	56.986
5,277.83	84.4121	5,277.83	84.3214	5,277.83	84.3777	5,277.83	83.8592	5,277.83	83.7173	5,277.83	83.3056	5,277.83	83.0971	5,277.83	83.0872	5,277.83	82.7359	5,277.83	81.8219	5,277.83	81.6944	5,277.83	80.1008	5,277.83	80.0191	5,277.83	77.2896	5,277.83	77.522	5,277.83	75.1079	5,277.83	74.8701	5,277.83	71.7699	5,277.83	72.8894	5,277.83	70.5792	5,277.83	70.0305	5,277.83	67.8832	5,277.83	67.6112	5,277.83	65.8499	5,277.83	65.597	5,277.83	63.0503	5,277.83	63.1825	5,277.83	62.2541	5,277.83	61.854	5,277.83	64.2472	5,277.83	65.18	5,277.83	64.102	5,277.83	65.0972	5,277.83	63.1515	5,277.83	63.1106	5,277.83	56.4285
5,463.87	84.7017	5,463.87	84.4789	5,463.87	84.2248	5,463.87	83.6538	5,463.87	83.7801	5,463.87	83.4344	5,463.87	83.1285	5,463.87	83.2228	5,463.87	83.1881	5,463.87	82.2862	5,463.87	81.997	5,463.87	80.7293	5,463.87	80.1851	5,463.87	79.0695	5,463.87	77.6318	5,463.87	75.9305	5,463.87	75.3613	5,463.87	73.4586	5,463.87	72.0948	5,463.87	69.5561	5,463.87	70.0619	5,463.87	66.9913	5,463.87	67.8255	5,463.87	64.2017	5,463.87	65.2486	5,463.87	62.7007	5,463.87	63.3159	5,463.87	60.9266	5,463.87	61.2626	5,463.87	63.3827	5,463.87	64.4804	5,463.87	64.5318	5,463.87	63.9182	5,463.87	62.7215	5,463.87	62.1213	5,463.87	53.7864
5,657.23	84.2168	5,657.23	83.7261	5,657.23	83.8677	5,657.23	82.9393	5,657.23	82.8324	5,657.23	82.2714	5,657.23	82.8304	5,657.23	82.3087	5,657.23	82.151	5,657.23	80.6475	5,657.23	80.7978	5,657.23	78.7265	5,657.23	78.958	5,657.23	76.0651	5,657.23	76.7764	5,657.23	73.67	5,657.23	73.3556	5,657.23	71.1239	5,657.23	71.3024	5,657.23	69.7515	5,657.23	68.8811	5,657.23	66.7075	5,657.23	66.7282	5,657.23	65.1746	5,657.23	63.5839	5,657.23	63.1764	5,657.23	61.9832	5,657.23	61.6971	5,657.23	60.7766	5,657.23	62.8715	5,657.23	63.5029	5,657.23	64.3824	5,657.23	63.3957	5,657.23	63.4384	5,657.23	62.3266	5,657.23	55.8644
5,856.45	84.5041	5,856.45	83.9389	5,856.45	83.7908	5,856.45	83.1623	5,856.45	83.495	5,856.45	83.3359	5,856.45	82.8963	5,856.45	83.1036	5,856.45	82.7741	5,856.45	81.5134	5,856.45	81.2254	5,856.45	79.4068	5,856.45	79.2493	5,856.45	77.6117	5,856.45	76.9689	5,856.45	74.9302	5,856.45	74.388	5,856.45	72.5374	5,856.45	72.1196	5,856.45	69.9158	5,856.45	69.0176	5,856.45	66.8227	5,856.45	67.3341	5,856.45	64.8527	5,856.45	65.0201	5,856.45	62.7188	5,856.45	65.3484	5,856.45	56.8321	5,856.45	61.639	5,856.45	61.1714	5,856.45	63.2446	5,856.45	63.723	5,856.45	63.3479	5,856.45	61.8405	5,856.45	61.9279	5,856.45	47.671
6,062.99	85.8363	6,062.99	85.3157	6,062.99	85.611	6,062.99	84.7029	6,062.99	84.5331	6,062.99	84.5475	6,062.99	84.5896	6,062.99	84.0445	6,062.99	83.7314	6,062.99	81.9602	6,062.99	81.8737	6,062.99	80.3089	6,062.99	80.3397	6,062.99	78.5559	6,062.99	78.5648	6,062.99	75.8145	6,062.99	75.7943	6,062.99	73.6521	6,062.99	73.7374	6,062.99	71.4052	6,062.99	70.9885	6,062.99	69.2666	6,062.99	68.1859	6,062.99	68.0078	6,062.99	66.2597	6,062.99	65.2499	6,062.99	65.6795	6,062.99	64.1872	6,062.99	62.363	6,062.99	64.7413	6,062.99	64.0211	6,062.99	66.437	6,062.99	63.4789	6,062.99	64.9207	6,062.99	63.4558	6,062.99	53.2493
6,276.86	84.0788	6,276.86	83.5991	6,276.86	83.4069	6,276.86	82.8459	6,276.86	83.0065	6,276.86	82.9788	6,276.86	82.5972	6,276.86	82.4926	6,276.86	81.9685	6,276.86	80.9706	6,276.86	80.205	6,276.86	79.4902	6,276.86	78.4829	6,276.86	77.3445	6,276.86	76.4863	6,276.86	75.3655	6,276.86	74.3457	6,276.86	72.9662	6,276.86	72.273	6,276.86	70.6288	6,276.86	69.5913	6,276.86	68.2947	6,276.86	67.0203	6,276.86	64.9891	6,276.86	65.009	6,276.86	60.0841	6,276.86	64.9257	6,276.86	58.4269	6,276.86	61.4738	6,276.86	61.1881	6,276.86	61.5053	6,276.86	64.4626	6,276.86	63.0046	6,276.86	62.7362	6,276.86	61.654	6,276.86	46.3144
6,498.05	82.4175	6,498.05	81.8512	6,498.05	81.9717	6,498.05	81.1895	6,498.05	81.0709	6,498.05	81.1851	6,498.05	81.2402	6,498.05	80.4202	6,498.05	80.3025	6,498.05	79.1998	6,498.05	78.8366	6,498.05	77.6398	6,498.05	77.6002	6,498.05	75.4983	6,498.05	75.7517	6,498.05	73.6621	6,498.05	73.2196	6,498.05	70.8733	6,498.05	70.1946	6,498.05	67.8746	6,498.05	68.0811	6,498.05	65.6702	6,498.05	65.0658	6,498.05	63.6892	6,498.05	62.7465	6,498.05	59.9642	6,498.05	57.833	6,498.05	55.5444	6,498.05	56.7524	6,498.05	57.9765	6,498.05	60.1368	6,498.05	62.7414	6,498.05	60.903	6,498.05	61.4689	6,498.05	61.142	6,498.05	46.6403
6,726.56	81.3231	6,726.56	80.958	6,726.56	81.1012	6,726.56	80.7779	6,726.56	81.6241	6,726.56	80.8181	6,726.56	80.9938	6,726.56	79.8526	6,726.56	80.2882	6,726.56	78.1954	6,726.56	79.0043	6,726.56	77.006	6,726.56	77.2697	6,726.56	74.726	6,726.56	75.2864	6,726.56	72.0064	6,726.56	72.4218	6,726.56	68.88	6,726.56	69.8389	6,726.56	66.2625	6,726.56	67.1502	6,726.56	63.5777	6,726.56	64.9599	6,726.56	62.0773	6,726.56	62.9601	6,726.56	56.9314	6,726.56	61.248	6,726.56	59.6919	6,726.56	58.2897	6,726.56	55.0239	6,726.56	55.3031	6,726.56	58.6384	6,726.56	56.6728	6,726.56	57.3971	6,726.56	59.0299	6,726.56	51.6139
6,963.87	86.3048	6,963.87	86.2079	6,963.87	86.3918	6,963.87	86.047	6,963.87	86.2479	6,963.87	85.4239	6,963.87	85.5025	6,963.87	84.5048	6,963.87	84.3447	6,963.87	83.1528	6,963.87	83.1174	6,963.87	81.4997	6,963.87	81.5215	6,963.87	78.9653	6,963.87	79.0543	6,963.87	76.2984	6,963.87	76.0354	6,963.87	73.8369	6,963.87	73.7939	6,963.87	71.2578	6,963.87	70.9341	6,963.87	69.2329	6,963.87	68.5687	6,963.87	67.2489	6,963.87	66.7017	6,963.87	64.3765	6,963.87	64.334	6,963.87	62.8786	6,963.87	62.5735	6,963.87	60.0679	6,963.87	59.665	6,963.87	63.3935	6,963.87	59.57	6,963.87	61.411	6,963.87	59.3913	6,963.87	57.6073
7,209.96	88.7259	7,209.96	88.8116	7,209.96	88.7855	7,209.96	88.5142	7,209.96	88.2939	7,209.96	87.5792	7,209.96	87.2538	7,209.96	87.1377	7,209.96	86.3889	7,209.96	85.7375	7,209.96	85.0002	7,209.96	83.6237	7,209.96	82.9198	7,209.96	80.619	7,209.96	80.3726	7,209.96	77.9994	7,209.96	76.8849	7,209.96	75.5139	7,209.96	74.6761	7,209.96	72.2613	7,209.96	71.684	7,209.96	70.0518	7,209.96	69.5684	7,209.96	67.2722	7,209.96	67.238	7,209.96	63.8274	7,209.96	65.3389	7,209.96	63.4435	7,209.96	64.2789	7,209.96	63.7842	7,209.96	62.9188	7,209.96	64.5308	7,209.96	62.3791	7,209.96	59.5289	7,209.96	59.039	7,209.96	58.7962
7,464.84	88.5478	7,464.84	88.4461	7,464.84	88.463	7,464.84	87.804	7,464.84	87.7317	7,464.84	86.7443	7,464.84	86.334	7,464.84	85.8907	7,464.84	85.5297	7,464.84	83.8947	7,464.84	83.9849	7,464.84	81.9015	7,464.84	81.6384	7,464.84	79.4499	7,464.84	79.0508	7,464.84	77.0388	7,464.84	76.461	7,464.84	74.1336	7,464.84	74.1659	7,464.84	71.9751	7,464.84	71.2536	7,464.84	69.9552	7,464.84	68.4983	7,464.84	65.735	7,464.84	67.0022	7,464.84	64.383	7,464.84	63.1496	7,464.84	63.3959	7,464.84	62.0953	7,464.84	65.0199	7,464.84	64.7417	7,464.84	64.8456	7,464.84	66.2489	7,464.84	59.1935	7,464.84	56.9082	7,464.84	59.1707
7,727.05	83.8662	7,727.05	84.5337	7,727.05	84.433	7,727.05	84.0192	7,727.05	84.1978	7,727.05	82.9567	7,727.05	82.891	7,727.05	82.4922	7,727.05	82.0149	7,727.05	80.6536	7,727.05	80.3293	7,727.05	78.6787	7,727.05	78.134	7,727.05	76.2841	7,727.05	75.228	7,727.05	74.0763	7,727.05	73.1767	7,727.05	71.8999	7,727.05	70.4613	7,727.05	68.7276	7,727.05	67.7304	7,727.05	66.0033	7,727.05	65.0916	7,727.05	64.1028	7,727.05	64.4129	7,727.05	62.055	7,727.05	59.5102	7,727.05	58.4652	7,727.05	57.9206	7,727.05	55.8836	7,727.05	54.0566	7,727.05	58.9119	7,727.05	57.3846	7,727.05	58.7417	7,727.05	59.7746	7,727.05	42.9559
7,999.51	85.8153	7,999.51	86.2625	7,999.51	86.3923	7,999.51	85.8663	7,999.51	85.709	7,999.51	84.8475	7,999.51	84.6636	7,999.51	84.4575	7,999.51	83.9112	7,999.51	82.3703	7,999.51	81.9021	7,999.51	80.2065	7,999.51	79.8003	7,999.51	77.5735	7,999.51	77.7687	7,999.51	75.0953	7,999.51	74.5148	7,999.51	71.7969	7,999.51	72.3496	7,999.51	68.8961	7,999.51	69.6185	7,999.51	66.6313	7,999.51	67.2537	7,999.51	64.248	7,999.51	65.1308	7,999.51	61.19	7,999.51	59.2389	7,999.51	59.4588	7,999.51	59.4286	7,999.51	58.5003	7,999.51	56.6194	7,999.51	61.0811	7,999.51	59.9784	7,999.51	58.0744	7,999.51	59.7355	7,999.51	52.6737
8,282.23	88.0626	8,282.23	88.558	8,282.23	88.5164	8,282.23	87.8586	8,282.23	87.5323	8,282.23	87.0133	8,282.23	86.5284	8,282.23	86.2644	8,282.23	85.4895	8,282.23	83.9275	8,282.23	83.4283	8,282.23	82.2851	8,282.23	81.5068	8,282.23	79.4986	8,282.23	79.2561	8,282.23	77.0443	8,282.23	76.2507	8,282.23	74.3842	8,282.23	73.5641	8,282.23	71.3444	8,282.23	70.048	8,282.23	69.0055	8,282.23	67.9938	8,282.23	66.214	8,282.23	66.0734	8,282.23	64.6701	8,282.23	60.6572	8,282.23	63.403	8,282.23	60.9689	8,282.23	60.1777	8,282.23	59.6156	8,282.23	63.2416	8,282.23	63.8603	8,282.23	58.6258	8,282.23	58.1021	8,282.23	55.2074
8,573.73	88.7583	8,573.73	88.851	8,573.73	89.1348	8,573.73	88.0143	8,573.73	88.3312	8,573.73	87.147	8,573.73	87.3839	8,573.73	86.1263	8,573.73	86.1653	8,573.73	83.8706	8,573.73	84.1532	8,573.73	82.1544	8,573.73	82.2756	8,573.73	79.4254	8,573.73	79.7246	8,573.73	76.255	8,573.73	76.5422	8,573.73	73.698	8,573.73	73.9575	8,573.73	70.5594	8,573.73	70.4917	8,573.73	68.3569	8,573.73	68.7597	8,573.73	65.3958	8,573.73	66.268	8,573.73	63.8358	8,573.73	61.5123	8,573.73	61.3904	8,573.73	60.7403	8,573.73	58.4242	8,573.73	60.2462	8,573.73	62.3393	8,573.73	63.0864	8,573.73	56.3023	8,573.73	59.7119	8,573.73	54.8482
8,876.95	86.9021	8,876.95	86.7937	8,876.95	86.9827	8,876.95	85.9549	8,876.95	86.3981	8,876.95	85.2253	8,876.95	85.4287	8,876.95	84.0847	8,876.95	84.094	8,876.95	82.1083	8,876.95	82.2336	8,876.95	80.1234	8,876.95	79.9953	8,876.95	76.9924	8,876.95	76.9324	8,876.95	73.8321	8,876.95	73.944	8,876.95	71.2884	8,876.95	71.4355	8,876.95	68.542	8,876.95	69.0433	8,876.95	66.3719	8,876.95	66.1281	8,876.95	63.3474	8,876.95	63.1307	8,876.95	62.2735	8,876.95	60.8733	8,876.95	60.1029	8,876.95	58.393	8,876.95	55.5121	8,876.95	56.1471	8,876.95	60.0248	8,876.95	61.148	8,876.95	54.8384	8,876.95	57.2097	8,876.95	50.2099
9,188.96	89.132	9,188.96	88.8633	9,188.96	88.7324	9,188.96	88.2732	9,188.96	88.0529	9,188.96	87.3359	9,188.96	86.7985	9,188.96	86.249	9,188.96	85.3817	9,188.96	84.4287	9,188.96	83.5699	9,188.96	82.1591	9,188.96	81.2324	9,188.96	78.9877	9,188.96	78.2152	9,188.96	76.181	9,188.96	75.2356	9,188.96	73.9154	9,188.96	72.7146	9,188.96	70.4292	9,188.96	69.9134	9,188.96	68.4766	9,188.96	67.8264	9,188.96	65.3509	9,188.96	64.9684	9,188.96	63.9424	9,188.96	61.3254	9,188.96	61.2912	9,188.96	60.9178	9,188.96	59.171	9,188.96	58.4513	9,188.96	60.4925	9,188.96	60.1438	9,188.96	55.179	9,188.96	59.0524	9,188.96	52.9344
9,514.16	90.6612	9,514.16	90.0716	9,514.16	90.3008	9,514.16	89.5496	9,514.16	90.0669	9,514.16	88.2614	9,514.16	88.7007	9,514.16	87.0123	9,514.16	87.431	9,514.16	84.9482	9,514.16	85.645	9,514.16	82.2344	9,514.16	83.1199	9,514.16	79.2101	9,514.16	80.3631	9,514.16	77.0927	9,514.16	77.4908	9,514.16	74.5747	9,514.16	74.9335	9,514.16	71.4752	9,514.16	71.8599	9,514.16	69.0924	9,514.16	69.4958	9,514.16	66.4892	9,514.16	66.3751	9,514.16	65.1766	9,514.16	63.7906	9,514.16	61.6526	9,514.16	62.437	9,514.16	59.1287	9,514.16	60.1163	9,514.16	62.1522	9,514.16	63.7492	9,514.16	55.5168	9,514.16	58.2371	9,514.16	55.4545
9,849.61	90.1326	9,849.61	89.3324	9,849.61	89.7233	9,849.61	88.9694	9,849.61	89.4852	9,849.61	87.2081	9,849.61	88.0549	9,849.61	86.2019	9,849.61	86.889	9,849.61	83.9024	9,849.61	84.7831	9,849.61	81.6304	9,849.61	82.2889	9,849.61	79.3005	9,849.61	80.0247	9,849.61	76.4314	9,849.61	76.5751	9,849.61	73.7618	9,849.61	74.0117	9,849.61	69.8431	9,849.61	70.8252	9,849.61	68.3499	9,849.61	68.5766	9,849.61	65.1858	9,849.61	65.5965	9,849.61	64.3123	9,849.61	63.2422	9,849.61	59.8909	9,849.61	60.8669	9,849.61	58.324	9,849.61	59.9396	9,849.61	59.3254	9,849.61	62.7673	9,849.61	57.0986	9,849.61	57.0397	9,849.61	53.2705
10,196.8	89.7826	10,196.8	89.077	10,196.8	89.0723	10,196.8	88.7596	10,196.8	88.5846	10,196.8	87.1416	10,196.8	87.046	10,196.8	86.5409	10,196.8	85.7592	10,196.8	83.8501	10,196.8	83.2132	10,196.8	81.9725	10,196.8	81.0762	10,196.8	79.2681	10,196.8	78.2827	10,196.8	75.9782	10,196.8	74.8476	10,196.8	72.6034	10,196.8	72.0394	10,196.8	69.6812	10,196.8	69.3568	10,196.8	67.9562	10,196.8	66.4432	10,196.8	65.3806	10,196.8	64.7583	10,196.8	63.3444	10,196.8	61.166	10,196.8	59.4102	10,196.8	59.8903	10,196.8	55.6633	10,196.8	57.2636	10,196.8	59.3355	10,196.8	62.3142	10,196.8	56.1908	10,196.8	55.716	10,196.8	52.679
10,555.7	88.7289	10,555.7	87.9543	10,555.7	88.2403	10,555.7	87.0575	10,555.7	87.9468	10,555.7	85.4925	10,555.7	86.5956	10,555.7	84.3954	10,555.7	85.2499	10,555.7	81.5345	10,555.7	82.817	10,555.7	80.1338	10,555.7	80.5984	10,555.7	76.168	10,555.7	77.4739	10,555.7	73.3378	10,555.7	73.847	10,555.7	69.9826	10,555.7	71.2209	10,555.7	68.1181	10,555.7	68.5551	10,555.7	66.1972	10,555.7	65.7421	10,555.7	63.1457	10,555.7	63.086	10,555.7	60.8929	10,555.7	59.651	10,555.7	55.1908	10,555.7	58.2839	10,555.7	52.6398	10,555.7	56.2572	10,555.7	56.6514	10,555.7	60.7644	10,555.7	54.2517	10,555.7	55.6536	10,555.7	48.2797
10,927.7	87.6972	10,927.7	87.457	10,927.7	87.1964	10,927.7	86.6491	10,927.7	86.0594	10,927.7	85.6286	10,927.7	84.4588	10,927.7	84.2421	10,927.7	82.8196	10,927.7	82.1603	10,927.7	80.7534	10,927.7	80.1683	10,927.7	78.2962	10,927.7	76.5319	10,927.7	75.3149	10,927.7	73.6674	10,927.7	71.8711	10,927.7	71.4238	10,927.7	69.4526	10,927.7	68.0355	10,927.7	66.8048	10,927.7	66.728	10,927.7	64.0163	10,927.7	63.5199	10,927.7	61.6001	10,927.7	59.9609	10,927.7	58.3928	10,927.7	56.9703	10,927.7	57.3912	10,927.7	54.0391	10,927.7	54.9347	10,927.7	53.9364	10,927.7	58.981	10,927.7	54.3826	10,927.7	53.3729	10,927.7	46.5813
11,313	88.5565	11,313	88.3485	11,313	88.2482	11,313	87.2974	11,313	86.9492	11,313	86.1781	11,313	85.5326	11,313	84.7212	11,313	83.5566	11,313	83.0866	11,313	81.8198	11,313	80.5737	11,313	78.7706	11,313	77.5576	11,313	75.6653	11,313	75.401	11,313	73.1018	11,313	72.2413	11,313	70.6765	11,313	69.5239	11,313	68.042	11,313	66.9062	11,313	64.829	11,313	64.2841	11,313	63.4398	11,313	60.5823	11,313	58.7968	11,313	58.7572	11,313	58.4104	11,313	53.4311	11,313	55.8441	11,313	55.6051	11,313	60.2662	11,313	53.7974	11,313	51.2304	11,313	49.4831
11,712.9	88.8403	11,712.9	89.027	11,712.9	88.4754	11,712.9	87.9855	11,712.9	87.0971	11,712.9	86.9449	11,712.9	85.6262	11,712.9	85.7833	11,712.9	83.8164	11,712.9	83.8688	11,712.9	81.9928	11,712.9	81.3432	11,712.9	78.9204	11,712.9	78.872	11,712.9	76.6172	11,712.9	76.1492	11,712.9	73.4502	11,712.9	72.6742	11,712.9	70.8241	11,712.9	69.5879	11,712.9	67.5764	11,712.9	66.9441	11,712.9	64.7949	11,712.9	63.8754	11,712.9	62.9601	11,712.9	60.4054	11,712.9	59.0442	11,712.9	55.5962	11,712.9	58.4492	11,712.9	53.1609	11,712.9	57.0025	11,712.9	53.3759	11,712.9	59.1614	11,712.9	52.848	11,712.9	50.5918	11,712.9	49.0247
12,126	90.8378	12,126	90.6964	12,126	90.3773	12,126	89.6571	12,126	89.108	12,126	88.1226	12,126	87.357	12,126	87.1449	12,126	85.6971	12,126	84.4061	12,126	83.4046	12,126	82.5299	12,126	80.8442	12,126	79.6691	12,126	77.9341	12,126	75.8754	12,126	74.1129	12,126	72.7093	12,126	71.3811	12,126	69.6018	12,126	68.1972	12,126	67.0992	12,126	65.4533	12,126	64.2143	12,126	63.7427	12,126	60.5684	12,126	59.816	12,126	56.1673	12,126	58.8514	12,126	53.4829	12,126	56.9933	12,126	50.8224	12,126	58.4399	12,126	51.2791	12,126	46.9684	12,126	49.3564
12,553.7	91.016	12,553.7	90.8843	12,553.7	90.4111	12,553.7	90.3762	12,553.7	89.3176	12,553.7	88.4965	12,553.7	87.1834	12,553.7	87.9584	12,553.7	85.7789	12,553.7	85.1437	12,553.7	83.393	12,553.7	83.6916	12,553.7	81.1045	12,553.7	79.7737	12,553.7	77.3482	12,553.7	76.1409	12,553.7	73.4725	12,553.7	73.784	12,553.7	71.1196	12,553.7	70.122	12,553.7	67.6764	12,553.7	68.3018	12,553.7	64.8999	12,553.7	64.3615	12,553.7	63.4898	12,553.7	60.8214	12,553.7	58.5139	12,553.7	55.8102	12,553.7	59.2745	12,553.7	54.5474	12,553.7	54.7872	12,553.7	49.8754	12,553.7	57.6317	12,553.7	54.7049	12,553.7	49.8615	12,553.7	51.082
12,996.1	90.8489	12,996.1	90.5638	12,996.1	90.177	12,996.1	90.381	12,996.1	89.4935	12,996.1	88.7684	12,996.1	87.7274	12,996.1	88.3019	12,996.1	86.4714	12,996.1	85.9394	12,996.1	84.8789	12,996.1	84.1799	12,996.1	81.8904	12,996.1	80.2348	12,996.1	78.0257	12,996.1	77.5809	12,996.1	75.2844	12,996.1	74.919	12,996.1	72.7141	12,996.1	71.1289	12,996.1	68.7839	12,996.1	69.0096	12,996.1	66.1122	12,996.1	65.175	12,996.1	64.7073	12,996.1	61.2827	12,996.1	57.9841	12,996.1	54.1046	12,996.1	58.9597	12,996.1	53.302	12,996.1	54.1912	12,996.1	48.1201	12,996.1	58.5747	12,996.1	55.0615	12,996.1	53.6832	12,996.1	51.1888
13,454.6	90.4022	13,454.6	89.8707	13,454.6	89.7406	13,454.6	89.4304	13,454.6	89.0107	13,454.6	88.4521	13,454.6	87.609	13,454.6	87.3871	13,454.6	86.2889	13,454.6	85.8208	13,454.6	85.2253	13,454.6	83.1304	13,454.6	81.8049	13,454.6	80.2778	13,454.6	78.8512	13,454.6	77.3783	13,454.6	75.2541	13,454.6	73.8165	13,454.6	72.3578	13,454.6	70.2861	13,454.6	68.4057	13,454.6	67.6003	13,454.6	65.4897	13,454.6	63.588	13,454.6	64.269	13,454.6	60.8858	13,454.6	55.2416	13,454.6	55.1157	13,454.6	57.543	13,454.6	50.4926	13,454.6	54.1863	13,454.6	46.4765	13,454.6	56.1758	13,454.6	54.8096	13,454.6	54.7304	13,454.6	48.629
13,929.2	92.3701	13,929.2	91.9202	13,929.2	91.7894	13,929.2	90.9539	13,929.2	90.5689	13,929.2	89.6624	13,929.2	88.9189	13,929.2	87.9523	13,929.2	87.1877	13,929.2	86.1417	13,929.2	85.8218	13,929.2	83.6518	13,929.2	82.9683	13,929.2	80.7992	13,929.2	79.5489	13,929.2	76.3235	13,929.2	74.8891	13,929.2	72.4676	13,929.2	72.4502	13,929.2	69.6919	13,929.2	67.8828	13,929.2	66.8501	13,929.2	65.3345	13,929.2	62.0795	13,929.2	63.7617	13,929.2	58.1443	13,929.2	55.965	13,929.2	53.2029	13,929.2	57.9541	13,929.2	42.1848	13,929.2	55.1948	13,929.2	40.4221	13,929.2	50.4098	13,929.2	52.8572	13,929.2	52.6265	13,929.2	42.3396
14,419.9	92.4957	14,419.9	92.1859	14,419.9	92.0018	14,419.9	90.9781	14,419.9	90.6195	14,419.9	89.3291	14,419.9	88.8503	14,419.9	88.0699	14,419.9	87.0258	14,419.9	85.4454	14,419.9	85.2927	14,419.9	84.0574	14,419.9	82.9232	14,419.9	79.7282	14,419.9	78.7682	14,419.9	74.955	14,419.9	73.9704	14,419.9	72.4308	14,419.9	72.0602	14,419.9	69.2449	14,419.9	66.99	14,419.9	66.9313	14,419.9	65.2926	14,419.9	62.6481	14,419.9	63.5115	14,419.9	58.6102	14,419.9	55.7437	14,419.9	52.0571	14,419.9	56.709	14,419.9	38.4308	14,419.9	55.0689	14,419.9	47.3824	14,419.9	45.8359	14,419.9	45.0393	14,419.9	51.3053	14,419.9	39.5569
14,928.2	92.771	14,928.2	92.3985	14,928.2	92.226	14,928.2	91.1319	14,928.2	90.6197	14,928.2	88.7727	14,928.2	88.473	14,928.2	87.7398	14,928.2	86.3605	14,928.2	84.9087	14,928.2	84.5936	14,928.2	83.553	14,928.2	82.085	14,928.2	79.3314	14,928.2	77.9428	14,928.2	75.7802	14,928.2	73.8611	14,928.2	73.3715	14,928.2	71.3568	14,928.2	68.5888	14,928.2	66.4989	14,928.2	66.3201	14,928.2	64.8846	14,928.2	62.3745	14,928.2	62.1514	14,928.2	58.0981	14,928.2	49.6248	14,928.2	50.9773	14,928.2	54.7854	14,928.2	41.8554	14,928.2	53.7644	14,928.2	49.3497	14,928.2	42.0848	14,928.2	44.9901	14,928.2	46.7123	14,928.2	42.7418
15,455.6	92.6113	15,455.6	92.2848	15,455.6	91.9701	15,455.6	91.2236	15,455.6	90.476	15,455.6	88.965	15,455.6	88.2818	15,455.6	87.6502	15,455.6	85.6821	15,455.6	84.8878	15,455.6	84.0639	15,455.6	82.6207	15,455.6	81.1601	15,455.6	80.1773	15,455.6	78.0598	15,455.6	75.7903	15,455.6	73.782	15,455.6	72.4649	15,455.6	70.0972	15,455.6	67.6186	15,455.6	65.4327	15,455.6	65.3222	15,455.6	63.8406	15,455.6	60.459	15,455.6	60.3043	15,455.6	55.9354	15,455.6	46.8986	15,455.6	48.6252	15,455.6	53.1059	15,455.6	44.141	15,455.6	52.397	15,455.6	52.8631	15,455.6	46.0788	15,455.6	47.7486	15,455.6	43.1153	15,455.6	41.9947
16,000.5	91.7456	16,000.5	91.4772	16,000.5	90.9305	16,000.5	90.6472	16,000.5	89.522	16,000.5	88.8977	16,000.5	87.4988	16,000.5	87.5599	16,000.5	85.1355	16,000.5	84.9786	16,000.5	83.3696	16,000.5	83.0621	16,000.5	81.0106	16,000.5	79.7979	16,000.5	77.1996	16,000.5	75.1735	16,000.5	72.6282	16,000.5	72.1088	16,000.5	69.4275	16,000.5	68.472	16,000.5	65.7129	16,000.5	65.7554	16,000.5	63.3702	16,000.5	60.7854	16,000.5	59.0844	16,000.5	55.9447	16,000.5	43.6213	16,000.5	49.073	16,000.5	52.6976	16,000.5	48.7208	16,000.5	51.7155	16,000.5	53.2841	16,000.5	46.9527	16,000.5	46.2142	16,000.5	48.2527	16,000.5	38.9727
16,564.5	92.2746	16,564.5	91.8387	16,564.5	91.4406	16,564.5	90.9026	16,564.5	89.9838	16,564.5	88.9593	16,564.5	87.8048	16,564.5	87.7725	16,564.5	85.3799	16,564.5	84.7422	16,564.5	83.419	16,564.5	83.3301	16,564.5	81.1811	16,564.5	79.3684	16,564.5	77.1772	16,564.5	75.4441	16,564.5	72.8729	16,564.5	72.4999	16,564.5	70.2262	16,564.5	68.6793	16,564.5	65.701	16,564.5	65.9999	16,564.5	63.3967	16,564.5	60.809	16,564.5	58.6982	16,564.5	57.7404	16,564.5	49.5901	16,564.5	49.4219	16,564.5	52.1737	16,564.5	51.1548	16,564.5	49.2902	16,564.5	53.4364	16,564.5	54.1825	16,564.5	47.9241	16,564.5	40.0386	16,564.5	37.7586
17,148.9	91.2811	17,148.9	91.09	17,148.9	90.2535	17,148.9	90.1316	17,148.9	88.6172	17,148.9	88.3076	17,148.9	86.2725	17,148.9	87.1245	17,148.9	83.7344	17,148.9	83.904	17,148.9	81.7958	17,148.9	82.4492	17,148.9	79.3215	17,148.9	79.1752	17,148.9	76.065	17,148.9	75.3249	17,148.9	71.3196	17,148.9	71.9102	17,148.9	68.6546	17,148.9	67.2511	17,148.9	64.0626	17,148.9	64.6059	17,148.9	61.3385	17,148.9	59.542	17,148.9	56.5183	17,148.9	55.8777	17,148.9	50.9547	17,148.9	47.858	17,148.9	49.6127	17,148.9	51.5867	17,148.9	44.929	17,148.9	49.6398	17,148.9	54.1012	17,148.9	48.4511	17,148.9	37.952	17,148.9	38.8639
17,752.4	90.338	17,752.4	90.246	17,752.4	89.3872	17,752.4	89.3564	17,752.4	87.7709	17,752.4	87.408	17,752.4	85.6661	17,752.4	86.2708	17,752.4	83.1719	17,752.4	83.027	17,752.4	81.4809	17,752.4	80.8165	17,752.4	78.9221	17,752.4	77.9021	17,752.4	75.6501	17,752.4	73.6807	17,752.4	70.5293	17,752.4	70.0647	17,752.4	67.9815	17,752.4	66.3266	17,752.4	62.6888	17,752.4	62.9622	17,752.4	60.2005	17,752.4	57.6697	17,752.4	56.4617	17,752.4	55.1394	17,752.4	55.0449	17,752.4	48.5842	17,752.4	50.349	17,752.4	51.5509	17,752.4	49.5116	17,752.4	38.9804	17,752.4	55.6611	17,752.4	45.5143	17,752.4	35.1863	17,752.4	39.9705
18,379.4	88.6803	18,379.4	88.7871	18,379.4	87.8784	18,379.4	87.9518	18,379.4	86.3718	18,379.4	86.2587	18,379.4	84.6034	18,379.4	85.2663	18,379.4	82.5407	18,379.4	82.31	18,379.4	80.7398	18,379.4	80.0554	18,379.4	78.5295	18,379.4	76.8873	18,379.4	75.2738	18,379.4	72.542	18,379.4	69.6953	18,379.4	69.0204	18,379.4	67.1324	18,379.4	64.4664	18,379.4	61.173	18,379.4	61.9488	18,379.4	59.7392	18,379.4	55.8927	18,379.4	56.5637	18,379.4	53.1647	18,379.4	53.2161	18,379.4	45.3206	18,379.4	49.719	18,379.4	51.8105	18,379.4	49.0712	18,379.4	42.1156	18,379.4	53.6418	18,379.4	45.6478	18,379.4	40.7041	18,379.4	34.6211
19,026.9	87.3843	19,026.9	87.3562	19,026.9	86.7283	19,026.9	86.2486	19,026.9	85.173	19,026.9	84.7654	19,026.9	83.624	19,026.9	83.809	19,026.9	81.6719	19,026.9	80.6001	19,026.9	79.481	19,026.9	78.6488	19,026.9	77.2878	19,026.9	75.1304	19,026.9	73.9604	19,026.9	71.2839	19,026.9	68.4623	19,026.9	67.3138	19,026.9	65.5873	19,026.9	63.2333	19,026.9	59.6206	19,026.9	60.2689	19,026.9	58.4653	19,026.9	54.3483	19,026.9	53.301	19,026.9	52.8231	19,026.9	52.7646	19,026.9	41.8081	19,026.9	47.0409	19,026.9	49.9972	19,026.9	43.4776	19,026.9	45.5383	19,026.9	50.8143	19,026.9	47.0075	19,026.9	43.574	19,026.9	34.6931
19,697.8	87.6495	19,697.8	87.4694	19,697.8	86.7561	19,697.8	86.2434	19,697.8	85.0663	19,697.8	84.478	19,697.8	83.6294	19,697.8	83.382	19,697.8	81.5334	19,697.8	79.847	19,697.8	79.343	19,697.8	77.5508	19,697.8	77.1315	19,697.8	74.6215	19,697.8	73.8277	19,697.8	70.3555	19,697.8	68.0887	19,697.8	66.0305	19,697.8	65.3639	19,697.8	61.7402	19,697.8	60.1822	19,697.8	58.8076	19,697.8	58.4017	19,697.8	53.3889	19,697.8	53.7657	19,697.8	52.4344	19,697.8	53.4227	19,697.8	30.0586	19,697.8	46.5138	19,697.8	48.3762	19,697.8	41.5272	19,697.8	47.5382	19,697.8	47.9203	19,697.8	45.5783	19,697.8	46.1584	19,697.8	42.4298
19,999.5	88.0872	19,999.5	87.5002	19,999.5	87.3517	19,999.5	86.141	19,999.5	86.0831	19,999.5	84.2236	19,999.5	84.7723	19,999.5	82.7098	19,999.5	82.538	19,999.5	78.9184	19,999.5	80.6341	19,999.5	76.7135	19,999.5	78.235	19,999.5	73.7221	19,999.5	74.8714	19,999.5	70.1142	19,999.5	69.5958	19,999.5	64.2999	19,999.5	66.1852	19,999.5	64.1772	19,999.5	62.0928	19,999.5	61.2374	19,999.5	58.0543	19,999.5	52.5937	19,999.5	57.5715	19,999.5	50.6124	19,999.5	50.1929	19,999.5	40.2639	19,999.5	45.3018	19,999.5	48.8379	19,999.5	42.0901	19,999.5	44.0695	19,999.5	50.4825	19,999.5	40.6775	19,999.5	50.355	19,999.5	40.9767
