"SPL Vertical"
"On-Axis"		"10°"		"-10°"		"20°"		"-20°"		"30°"		"-30°"		"40°"		"-40°"		"50°"		"-50°"		"60°"		"-60°"		"70°"		"-70°"		"80°"		"-80°"		"90°"		"-90°"		"100°"		"-100°"		"110°"		"-110°"		"120°"		"-120°"		"130°"		"-130°"		"140°"		"-140°"		"150°"		"-150°"		"160°"		"-160°"		"170°"		"-170°"		"180°"
"Frequency / Hz"	"Sound Pressure Level / dB (re 20 µPa/V)  [2.83  V @ 1. m]"	"Frequency / Hz"	"Sound Pressure Level / dB (re 20 µPa/V)  [2.83  V @ 1. m]"	"Frequency / Hz"	"Sound Pressure Level / dB (re 20 µPa/V)  [2.83  V @ 1. m]"	"Frequency / Hz"	"Sound Pressure Level / dB (re 20 µPa/V)  [2.83  V @ 1. m]"	"Frequency / Hz"	"Sound Pressure Level / dB (re 20 µPa/V)  [2.83  V @ 1. m]"	"Frequency / Hz"	"Sound Pressure Level / dB (re 20 µPa/V)  [2.83  V @ 1. m]"	"Frequency / Hz"	"Sound Pressure Level / dB (re 20 µPa/V)  [2.83  V @ 1. m]"	"Frequency / Hz"	"Sound Pressure Level / dB (re 20 µPa/V)  [2.83  V @ 1. m]"	"Frequency / Hz"	"Sound Pressure Level / dB (re 20 µPa/V)  [2.83  V @ 1. m]"	"Frequency / Hz"	"Sound Pressure Level / dB (re 20 µPa/V)  [2.83  V @ 1. m]"	"Frequency / Hz"	"Sound Pressure Level / dB (re 20 µPa/V)  [2.83  V @ 1. m]"	"Frequency / Hz"	"Sound Pressure Level / dB (re 20 µPa/V)  [2.83  V @ 1. m]"	"Frequency / Hz"	"Sound Pressure Level / dB (re 20 µPa/V)  [2.83  V @ 1. m]"	"Frequency / Hz"	"Sound Pressure Level / dB (re 20 µPa/V)  [2.83  V @ 1. m]"	"Frequency / Hz"	"Sound Pressure Level / dB (re 20 µPa/V)  [2.83  V @ 1. m]"	"Frequency / Hz"	"Sound Pressure Level / dB (re 20 µPa/V)  [2.83  V @ 1. m]"	"Frequency / Hz"	"Sound Pressure Level / dB (re 20 µPa/V)  [2.83  V @ 1. m]"	"Frequency / Hz"	"Sound Pressure Level / dB (re 20 µPa/V)  [2.83  V @ 1. m]"	"Frequency / Hz"	"Sound Pressure Level / dB (re 20 µPa/V)  [2.83  V @ 1. m]"	"Frequency / Hz"	"Sound Pressure Level / dB (re 20 µPa/V)  [2.83  V @ 1. m]"	"Frequency / Hz"	"Sound Pressure Level / dB (re 20 µPa/V)  [2.83  V @ 1. m]"	"Frequency / Hz"	"Sound Pressure Level / dB (re 20 µPa/V)  [2.83  V @ 1. m]"	"Frequency / Hz"	"Sound Pressure Level / dB (re 20 µPa/V)  [2.83  V @ 1. m]"	"Frequency / Hz"	"Sound Pressure Level / dB (re 20 µPa/V)  [2.83  V @ 1. m]"	"Frequency / Hz"	"Sound Pressure Level / dB (re 20 µPa/V)  [2.83  V @ 1. m]"	"Frequency / Hz"	"Sound Pressure Level / dB (re 20 µPa/V)  [2.83  V @ 1. m]"	"Frequency / Hz"	"Sound Pressure Level / dB (re 20 µPa/V)  [2.83  V @ 1. m]"	"Frequency / Hz"	"Sound Pressure Level / dB (re 20 µPa/V)  [2.83  V @ 1. m]"	"Frequency / Hz"	"Sound Pressure Level / dB (re 20 µPa/V)  [2.83  V @ 1. m]"	"Frequency / Hz"	"Sound Pressure Level / dB (re 20 µPa/V)  [2.83  V @ 1. m]"	"Frequency / Hz"	"Sound Pressure Level / dB (re 20 µPa/V)  [2.83  V @ 1. m]"	"Frequency / Hz"	"Sound Pressure Level / dB (re 20 µPa/V)  [2.83  V @ 1. m]"	"Frequency / Hz"	"Sound Pressure Level / dB (re 20 µPa/V)  [2.83  V @ 1. m]"	"Frequency / Hz"	"Sound Pressure Level / dB (re 20 µPa/V)  [2.83  V @ 1. m]"	"Frequency / Hz"	"Sound Pressure Level / dB (re 20 µPa/V)  [2.83  V @ 1. m]"	"Frequency / Hz"	"Sound Pressure Level / dB (re 20 µPa/V)  [2.83  V @ 1. m]"
20.5078	48.228	20.5078	48.1303	20.5078	48.2511	20.5078	47.9652	20.5078	48.1942	20.5078	47.7411	20.5078	48.0545	20.5078	47.4673	20.5078	47.8318	20.5078	47.1529	20.5078	47.5286	20.5078	46.8065	20.5078	47.1506	20.5078	46.4365	20.5078	46.7067	20.5078	46.0509	20.5078	46.2099	20.5078	45.6577	20.5078	45.6782	20.5078	45.2655	20.5078	45.135	20.5078	44.8837	20.5078	44.6089	20.5078	44.5219	20.5078	44.1309	20.5078	44.1895	20.5078	43.7299	20.5078	43.8943	20.5078	43.4262	20.5078	43.6417	20.5078	43.2272	20.5078	43.4347	20.5078	43.1271	20.5078	43.2749	20.5078	43.1116	20.5078	43.1649
21.9727	43.4692	21.9727	43.3646	21.9727	43.5374	21.9727	43.2385	21.9727	43.5559	21.9727	43.1051	21.9727	43.5149	21.9727	42.9771	21.9727	43.4095	21.9727	42.8647	21.9727	43.2418	21.9727	42.7755	21.9727	43.0213	21.9727	42.7143	21.9727	42.7654	21.9727	42.6832	21.9727	42.4992	21.9727	42.6823	21.9727	42.2536	21.9727	42.7091	21.9727	42.0621	21.9727	42.7591	21.9727	41.954	21.9727	42.8256	21.9727	41.946	21.9727	42.8994	21.9727	42.0359	21.9727	42.9689	21.9727	42.2018	21.9727	43.0208	21.9727	42.4087	21.9727	43.0408	21.9727	42.6191	21.9727	43.0159	21.9727	42.8019	21.9727	42.9369
23.4375	43.9933	23.4375	44.0176	23.4375	43.9318	23.4375	44.0186	23.4375	43.8227	23.4375	44.0119	23.4375	43.6605	23.4375	44.0136	23.4375	43.4459	23.4375	44.0377	23.4375	43.188	23.4375	44.0951	23.4375	42.9065	23.4375	44.1918	23.4375	42.6337	23.4375	44.3288	23.4375	42.4146	23.4375	44.5019	23.4375	42.3016	23.4375	44.7024	23.4375	42.3399	23.4375	44.9178	23.4375	42.5491	23.4375	45.1329	23.4375	42.9119	23.4375	45.3302	23.4375	43.3796	23.4375	45.4916	23.4375	43.8905	23.4375	45.5986	23.4375	44.3873	23.4375	45.6338	23.4375	44.8262	23.4375	45.582	23.4375	45.1792	23.4375	45.4322
24.9023	20.4924	24.9023	25.3348	24.9023	14.9765	24.9023	29.2283	24.9023	11.5593	24.9023	32.3789	24.9023	14.008	24.9023	34.9801	24.9023	19.7298	24.9023	37.1701	24.9023	25.1158	24.9023	39.0444	24.9023	29.5221	24.9023	40.6699	24.9023	33.1167	24.9023	42.0931	24.9023	36.0969	24.9023	43.3462	24.9023	38.6027	24.9023	44.4506	24.9023	40.7272	24.9023	45.4194	24.9023	42.5315	24.9023	46.2592	24.9023	44.0559	24.9023	46.971	24.9023	45.3273	24.9023	47.5518	24.9023	46.364	24.9023	47.9948	24.9023	47.1792	24.9023	48.2908	24.9023	47.7833	24.9023	48.429	24.9023	48.1863	24.9023	48.3979
26.3672	41.2753	26.3672	40.3049	26.3672	41.9084	26.3672	38.9181	26.3672	42.2388	26.3672	36.951	26.3672	42.2724	26.3672	34.0341	26.3672	41.9899	26.3672	29.1148	26.3672	41.3425	26.3672	18.0117	26.3672	40.2363	26.3672	26.8791	26.3672	38.4939	26.3672	33.5163	26.3672	35.7602	26.3672	37.348	26.3672	31.3597	26.3672	40.0113	26.3672	27.6475	26.3672	42.013	26.3672	32.9635	26.3672	43.5679	26.3672	37.6638	26.3672	44.7813	26.3672	40.807	26.3672	45.7074	26.3672	43.013	26.3672	46.3724	26.3672	44.5913	26.3672	46.785	26.3672	45.7002	26.3672	46.9421	26.3672	46.4285	26.3672	46.8308
27.832	44.9613	27.832	44.3148	27.832	45.3536	27.832	43.3967	27.832	45.4972	27.832	42.1845	27.832	45.3839	27.832	40.6807	27.832	44.9898	27.832	39.0285	27.832	44.2738	27.832	37.8157	27.832	43.1767	27.832	38.0579	27.832	41.6417	27.832	39.7637	27.832	39.7442	27.832	41.9191	27.832	38.2301	27.832	43.931	27.832	38.7805	27.832	45.6541	27.832	41.156	27.832	47.086	27.832	43.7005	27.832	48.2505	27.832	45.8217	27.832	49.168	27.832	47.4774	27.832	49.8503	27.832	48.7231	27.832	50.3004	27.832	49.6134	27.832	50.5147	27.832	50.19	27.832	50.4831
29.2969	47.9584	29.2969	47.3229	29.2969	48.3634	29.2969	46.4578	29.2969	48.5368	29.2969	45.3794	29.2969	48.4712	29.2969	44.1638	29.2969	48.1516	29.2969	43.0478	29.2969	47.5552	29.2969	42.5196	29.2969	46.6594	29.2969	43.0244	29.2969	45.4722	29.2969	44.3869	29.2969	44.1405	29.2969	46.0659	29.2969	43.1955	29.2969	47.7025	29.2969	43.4927	29.2969	49.1599	29.2969	45.0625	29.2969	50.4033	29.2969	47.0485	29.2969	51.43	29.2969	48.8832	29.2969	52.2438	29.2969	50.3989	29.2969	52.8462	29.2969	51.5796	29.2969	53.2346	29.2969	52.4461	29.2969	53.4017	29.2969	53.0242	29.2969	53.3365
30.7617	50.7726	30.7617	50.2467	30.7617	51.124	30.7617	49.5683	30.7617	51.2889	30.7617	48.7858	30.7617	51.2583	30.7617	48.0036	30.7617	51.0248	30.7617	47.4149	30.7617	50.5861	30.7617	47.276	30.7617	49.9585	30.7617	47.7443	30.7617	49.2101	30.7617	48.7257	30.7617	48.5225	30.7617	49.9716	30.7617	48.2315	30.7617	51.2659	30.7617	48.6564	30.7617	52.4841	30.7617	49.7534	30.7617	53.5676	30.7617	51.1643	30.7617	54.4902	30.7617	52.5675	30.7617	55.239	30.7617	53.7981	30.7617	55.8049	30.7617	54.7949	30.7617	56.179	30.7617	55.5427	30.7617	56.3511	30.7617	56.0447	30.7617	56.3103
32.2266	53.4234	32.2266	53.0439	32.2266	53.6669	32.2266	52.5524	32.2266	53.7592	32.2266	51.9919	32.2266	53.6895	32.2266	51.4385	32.2266	53.4501	32.2266	51.0133	32.2266	53.0399	32.2266	50.8677	32.2266	52.4766	32.2266	51.1163	32.2266	51.8228	32.2266	51.7565	32.2266	51.2297	32.2266	52.6704	32.2266	50.9595	32.2266	53.7059	32.2266	51.2682	32.2266	54.7418	32.2266	52.1623	32.2266	55.7014	32.2266	53.3845	32.2266	56.5402	32.2266	54.6541	32.2266	57.2319	32.2266	55.8	32.2266	57.7587	32.2266	56.7456	32.2266	58.1065	32.2266	57.4642	32.2266	58.2627	32.2266	57.9522	32.2266	58.2151
33.6914	55.6295	33.6914	55.2756	33.6914	55.8743	33.6914	54.8433	33.6914	55.992	33.6914	54.3831	33.6914	55.9719	33.6914	53.9746	33.6914	55.8105	33.6914	53.7264	33.6914	55.5159	33.6914	53.7503	33.6914	55.118	33.6914	54.1077	33.6914	54.6881	33.6914	54.7693	33.6914	54.3596	33.6914	55.6351	33.6914	54.3164	33.6914	56.5894	33.6914	54.7005	33.6914	57.5394	33.6914	55.4936	33.6914	58.4224	33.6914	56.5279	33.6914	59.1988	33.6914	57.6118	33.6914	59.843	33.6914	58.61	33.6914	60.3365	33.6914	59.4491	33.6914	60.6647	33.6914	60.0955	33.6914	60.8148	33.6914	60.5377	33.6914	60.7755
35.1562	57.5789	35.1562	57.2678	35.1562	57.7964	35.1562	56.8962	35.1562	57.9	35.1562	56.5157	35.1562	57.8784	35.1562	56.2021	35.1562	57.7286	35.1562	56.0496	35.1562	57.4607	35.1562	56.1461	35.1562	57.1078	35.1562	56.5314	35.1562	56.7431	35.1562	57.1739	35.1562	56.4941	35.1562	57.9893	35.1562	56.5235	35.1562	58.8815	35.1562	56.9448	35.1562	59.7708	35.1562	57.7291	35.1562	60.6007	35.1562	58.7252	35.1562	61.3334	35.1562	59.7632	35.1562	61.9431	35.1562	60.7207	35.1562	62.4107	35.1562	61.5284	35.1562	62.7207	35.1562	62.1534	35.1562	62.8599	35.1562	62.5833	35.1562	62.817
36.6211	59.7537	36.6211	59.485	36.6211	59.945	36.6211	59.1729	36.6211	60.037	36.6211	58.8681	36.6211	60.0179	36.6211	58.639	36.6211	59.8855	36.6211	58.5644	36.6211	59.6515	36.6211	58.7108	36.6211	59.3507	36.6211	59.1032	36.6211	59.0543	36.6211	59.712	36.6211	58.8777	36.6211	60.4684	36.6211	58.9584	36.6211	61.2936	36.6211	59.3851	36.6211	62.1194	36.6211	60.1295	36.6211	62.8948	36.6211	61.064	36.6211	63.5833	36.6211	62.0412	36.6211	64.1587	36.6211	62.95	36.6211	64.6008	36.6211	63.7231	36.6211	64.8931	36.6211	64.3261	36.6211	65.0216	36.6211	64.7443	36.6211	64.9748
38.0859	61.4915	38.0859	61.2926	38.0859	61.6445	38.0859	61.0823	38.0859	61.729	38.0859	60.9079	38.0859	61.733	38.0859	60.8263	38.0859	61.6565	38.0859	60.8938	38.0859	61.5145	38.0859	61.1486	38.0859	61.3441	38.0859	61.5953	38.0859	61.2113	38.0859	62.2027	38.0859	61.2086	38.0859	62.9167	38.0859	61.4292	38.0859	63.6783	38.0859	61.9184	38.0859	64.435	38.0859	62.6407	38.0859	65.1456	38.0859	63.499	38.0859	65.7785	38.0859	64.3835	38.0859	66.3092	38.0859	65.2067	38.0859	66.718	38.0859	65.9113	38.0859	66.9887	38.0859	66.4644	38.0859	67.1076	38.0859	66.8502	38.0859	67.0638
39.5508	63.8487	39.5508	63.718	39.5508	63.9561	39.5508	63.5917	39.5508	64.021	39.5508	63.5049	39.5508	64.0334	39.5508	63.497	39.5508	63.9937	39.5508	63.6043	39.5508	63.916	39.5508	63.8508	39.5508	63.8319	39.5508	64.24	39.5508	63.793	39.5508	64.7535	39.5508	63.8661	39.5508	65.3564	39.5508	64.1133	39.5508	66.007	39.5508	64.5631	39.5508	66.6642	39.5508	65.1908	39.5508	67.2921	39.5508	65.9284	39.5508	67.8603	39.5508	66.6936	39.5508	68.3437	39.5508	67.4139	39.5508	68.7214	39.5508	68.0368	39.5508	68.9757	39.5508	68.5291	39.5508	69.0922	39.5508	68.8725	39.5508	69.06
41.0156	65.7875	41.0156	65.6718	41.0156	65.882	41.0156	65.5598	41.0156	65.9378	41.0156	65.4827	41.0156	65.9457	41.0156	65.4751	41.0156	65.9065	41.0156	65.5694	41.0156	65.833	41.0156	65.7879	41.0156	65.7541	41.0156	66.1361	41.0156	65.7167	41.0156	66.6005	41.0156	65.7805	41.0156	67.1524	41.0156	66.002	41.0156	67.7547	41.0156	66.4091	41.0156	68.3694	41.0156	66.9834	41.0156	68.9615	41.0156	67.6664	41.0156	69.501	41.0156	68.383	41.0156	69.9621	41.0156	69.0643	41.0156	70.3232	41.0156	69.6582	41.0156	70.5664	41.0156	70.1306	41.0156	70.677	41.0156	70.4621	41.0156	70.6443
42.4805	67.7858	42.4805	67.6829	42.4805	67.87	42.4805	67.5817	42.4805	67.9216	42.4805	67.5083	42.4805	67.9337	42.4805	67.4922	42.4805	67.9079	42.4805	67.562	42.4805	67.8561	42.4805	67.7397	42.4805	67.8031	42.4805	68.0342	42.4805	67.7876	42.4805	68.4382	42.4805	67.8582	42.4805	68.9298	42.4805	68.0608	42.4805	69.4776	42.4805	68.4201	42.4805	70.0466	42.4805	68.925	42.4805	70.6028	42.4805	69.5302	42.4805	71.1158	42.4805	70.1731	42.4805	71.559	42.4805	70.7917	42.4805	71.9099	42.4805	71.3361	42.4805	72.1497	42.4805	71.7714	42.4805	72.2636	42.4805	72.0764	42.4805	72.2409
43.9453	69.1918	43.9453	69.0922	43.9453	69.278	43.9453	68.9989	43.9453	69.3376	43.9453	68.9366	43.9453	69.3643	43.9453	68.933	43.9453	69.3599	43.9453	69.0144	43.9453	69.3359	43.9453	69.2003	43.9453	69.3154	43.9453	69.4977	43.9453	69.3331	43.9453	69.8988	43.9453	69.4315	43.9453	70.3825	43.9453	69.6493	43.9453	70.9187	43.9453	70.0064	43.9453	71.4745	43.9453	70.4924	43.9453	72.0177	43.9453	71.0674	43.9453	72.519	43.9453	71.6758	43.9453	72.9528	43.9453	72.2613	43.9453	73.2974	43.9453	72.7774	43.9453	73.5345	43.9453	73.1903	43.9453	73.6496	43.9453	73.4789	43.9453	73.6326
45.4102	70.4143	45.4102	70.3311	45.4102	70.4977	45.4102	70.2663	45.4102	70.5683	45.4102	70.242	45.4102	70.6194	45.4102	70.2812	45.4102	70.6519	45.4102	70.4045	45.4102	70.6753	45.4102	70.6253	45.4102	70.7093	45.4102	70.946	45.4102	70.7829	45.4102	71.3568	45.4102	70.9303	45.4102	71.8377	45.4102	71.1815	45.4102	72.3619	45.4102	71.5505	45.4102	72.9001	45.4102	72.0267	45.4102	73.4238	45.4102	72.576	45.4102	73.9063	45.4102	73.1508	45.4102	74.3242	45.4102	73.7019	45.4102	74.6569	45.4102	74.1872	45.4102	74.8871	45.4102	74.5754	45.4102	75.0009	45.4102	74.846	45.4102	74.9886
46.875	72.1113	46.875	72.0454	46.875	72.1811	46.875	71.9979	46.875	72.2444	46.875	71.9858	46.875	72.2952	46.875	72.0271	46.875	72.3336	46.875	72.1383	46.875	72.3667	46.875	72.3307	46.875	72.4095	46.875	72.6079	46.875	72.4848	46.875	72.964	46.875	72.6201	46.875	73.3844	46.875	72.8407	46.875	73.8478	46.875	73.1604	46.875	74.3293	46.875	73.5739	46.875	74.8028	46.875	74.0557	46.875	75.2435	46.875	74.5666	46.875	75.6281	46.875	75.0629	46.875	75.9362	46.875	75.5049	46.875	76.1502	46.875	75.8618	46.875	76.2562	46.875	76.1122	46.875	76.2448
48.3398	73.5372	48.3398	73.4673	48.3398	73.6056	48.3398	73.4098	48.3398	73.6621	48.3398	73.382	48.3398	73.7018	48.3398	73.4024	48.3398	73.7253	48.3398	73.4881	48.3398	73.7403	48.3398	73.6518	48.3398	73.7622	48.3398	73.8985	48.3398	73.8139	48.3398	74.2241	48.3398	73.9228	48.3398	74.6154	48.3398	74.1143	48.3398	75.0521	48.3398	74.4031	48.3398	75.5099	48.3398	74.7856	48.3398	75.9631	48.3398	75.2385	48.3398	76.3868	48.3398	75.7242	48.3398	76.7576	48.3398	76.2002	48.3398	77.0549	48.3398	76.6271	48.3398	77.2611	48.3398	76.9737	48.3398	77.3622	48.3398	77.2184	48.3398	77.3491
51.2695	76.2276	51.2695	76.1812	51.2695	76.282	51.2695	76.1529	51.2695	76.3369	51.2695	76.1547	51.2695	76.3884	51.2695	76.199	51.2695	76.4368	51.2695	76.2969	51.2695	76.4874	51.2695	76.4564	51.2695	76.5508	51.2695	76.6805	51.2695	76.6422	51.2695	76.9664	51.2695	76.7791	51.2695	77.3048	51.2695	76.9773	51.2695	77.6814	51.2695	77.2455	51.2695	78.0778	51.2695	77.5806	51.2695	78.4734	51.2695	77.9661	51.2695	78.8469	51.2695	78.3749	51.2695	79.1778	51.2695	78.7748	51.2695	79.4467	51.2695	79.1338	51.2695	79.637	51.2695	79.4252	51.2695	79.7356	51.2695	79.6291	51.2695	79.7339
52.7344	77.5114	52.7344	77.4688	52.7344	77.5619	52.7344	77.4423	52.7344	77.6141	52.7344	77.4419	52.7344	77.665	52.7344	77.4781	52.7344	77.7149	52.7344	77.5611	52.7344	77.7682	52.7344	77.6986	52.7344	77.8337	52.7344	77.8948	52.7344	77.9241	52.7344	78.1487	52.7344	78.0546	52.7344	78.4536	52.7344	78.2386	52.7344	78.7976	52.7344	78.4843	52.7344	79.1643	52.7344	78.7896	52.7344	79.5347	52.7344	79.1409	52.7344	79.8883	52.7344	79.5145	52.7344	80.2046	52.7344	79.8812	52.7344	80.4644	52.7344	80.2112	52.7344	80.6512	52.7344	80.4788	52.7344	80.7515	52.7344	80.6646	52.7344	80.7569
54.1992	78.6096	54.1992	78.5667	54.1992	78.6618	54.1992	78.5408	54.1992	78.7177	54.1992	78.541	54.1992	78.7743	54.1992	78.577	54.1992	78.8321	54.1992	78.6581	54.1992	78.8946	54.1992	78.7914	54.1992	78.9696	54.1992	78.9806	54.1992	79.0678	54.1992	79.2244	54.1992	79.202	54.1992	79.5167	54.1992	79.3838	54.1992	79.8462	54.1992	79.6199	54.1992	80.1977	54.1992	79.9084	54.1992	80.5531	54.1992	80.2375	54.1992	80.893	54.1992	80.5862	54.1992	81.198	54.1992	80.9281	54.1992	81.4495	54.1992	81.2358	54.1992	81.6316	54.1992	81.485	54.1992	81.7313	54.1992	81.6571	54.1992	81.7407
55.6641	79.7842	55.6641	79.7384	55.6641	79.8376	55.6641	79.7074	55.6641	79.8935	55.6641	79.6997	55.6641	79.9489	55.6641	79.7246	55.6641	80.0041	55.6641	79.7907	55.6641	80.0625	55.6641	79.9052	55.6641	80.131	55.6641	80.0722	55.6641	80.2196	55.6641	80.2915	55.6641	80.3401	55.6641	80.5581	55.6641	80.5036	55.6641	80.8621	55.6641	80.7167	55.6641	81.1896	55.6641	80.9786	55.6641	81.5236	55.6641	81.2791	55.6641	81.8455	55.6641	81.5994	55.6641	82.1363	55.6641	81.915	55.6641	82.3779	55.6641	82.2001	55.6641	82.5542	55.6641	82.4312	55.6641	82.6528	55.6641	82.5902	55.6641	82.6655
58.5938	81.9421	58.5938	81.9099	58.5938	81.9861	58.5938	81.8945	58.5938	82.0382	58.5938	81.9018	58.5938	82.0967	58.5938	81.9382	58.5938	82.1617	58.5938	82.0095	58.5938	82.2353	58.5938	82.1206	58.5938	82.322	58.5938	82.274	58.5938	82.4278	58.5938	82.4694	58.5938	82.5598	58.5938	82.7033	58.5938	82.7242	58.5938	82.9682	58.5938	82.9245	58.5938	83.2537	58.5938	83.159	58.5938	83.5461	58.5938	83.4201	58.5938	83.8299	58.5938	83.6935	58.5938	84.0888	58.5938	83.9606	58.5938	84.3066	58.5938	84.2005	58.5938	84.4685	58.5938	84.3938	58.5938	84.5629	58.5938	84.5245	58.5938	84.5822
60.0586	82.9735	60.0586	82.9436	60.0586	83.0165	60.0586	82.931	60.0586	83.0697	60.0586	82.9405	60.0586	83.1312	60.0586	82.9772	60.0586	83.201	60.0586	83.046	60.0586	83.2805	60.0586	83.1509	60.0586	83.3729	60.0586	83.294	60.0586	83.4827	60.0586	83.4752	60.0586	83.6151	60.0586	83.6914	60.0586	83.7748	60.0586	83.9367	60.0586	83.9643	60.0586	84.2016	60.0586	84.1821	60.0586	84.4741	60.0586	84.4216	60.0586	84.7402	60.0586	84.6705	60.0586	84.9844	60.0586	84.9126	60.0586	85.1916	60.0586	85.1292	60.0586	85.3477	60.0586	85.3025	60.0586	85.4413	60.0586	85.4178	60.0586	85.4654
62.9883	84.8734	62.9883	84.848	62.9883	84.9134	62.9883	84.84	62.9883	84.966	62.9883	84.8523	62.9883	85.03	62.9883	84.8882	62.9883	85.1047	62.9883	84.9509	62.9883	85.1906	62.9883	85.0428	62.9883	85.2891	62.9883	85.1655	62.9883	85.402	62.9883	85.3191	62.9883	85.5319	62.9883	85.5017	62.9883	85.6809	62.9883	85.709	62.9883	85.8498	62.9883	85.9341	62.9883	86.037	62.9883	86.1679	62.9883	86.2374	62.9883	86.3987	62.9883	86.442	62.9883	86.6135	62.9883	86.6385	62.9883	86.799	62.9883	86.8123	62.9883	86.9425	62.9883	86.949	62.9883	87.0335	62.9883	87.0361	62.9883	87.0654
64.4531	85.748	64.4531	85.7248	64.4531	85.7859	64.4531	85.7184	64.4531	85.8372	64.4531	85.7311	64.4531	85.9005	64.4531	85.7654	64.4531	85.9755	64.4531	85.8238	64.4531	86.0621	64.4531	85.9083	64.4531	86.161	64.4531	86.0203	64.4531	86.2731	64.4531	86.16	64.4531	86.3998	64.4531	86.326	64.4531	86.5423	64.4531	86.5149	64.4531	86.7006	64.4531	86.7209	64.4531	86.8731	64.4531	86.9359	64.4531	87.0554	64.4531	87.1496	64.4531	87.2397	64.4531	87.35	64.4531	87.4154	64.4531	87.5246	64.4531	87.5697	64.4531	87.6614	64.4531	87.6897	64.4531	87.7505	64.4531	87.7641	64.4531	87.7854
67.3828	87.2242	67.3828	87.2037	67.3828	87.2611	67.3828	87.2004	67.3828	87.3134	67.3828	87.2153	67.3828	87.3805	67.3828	87.2495	67.3828	87.4616	67.3828	87.3041	67.3828	87.5558	67.3828	87.3802	67.3828	87.6622	67.3828	87.4786	67.3828	87.7799	67.3828	87.5992	67.3828	87.9082	67.3828	87.7414	67.3828	88.0461	67.3828	87.9027	67.3828	88.1921	67.3828	88.0792	67.3828	88.3442	67.3828	88.2647	67.3828	88.4984	67.3828	88.4512	67.3828	88.6492	67.3828	88.6288	67.3828	88.7886	67.3828	88.7869	67.3828	88.9073	67.3828	88.915	67.3828	88.9954	67.3828	89.0039	67.3828	89.0442	67.3828	89.0478
68.8477	87.7793	68.8477	87.7587	68.8477	87.8173	68.8477	87.7559	68.8477	87.8721	68.8477	87.7714	68.8477	87.9431	68.8477	87.8057	68.8477	88.0291	68.8477	87.8592	68.8477	88.1287	68.8477	87.9324	68.8477	88.2404	68.8477	88.0258	68.8477	88.3623	68.8477	88.1392	68.8477	88.4926	68.8477	88.2719	68.8477	88.6293	68.8477	88.422	68.8477	88.7704	68.8477	88.5862	68.8477	88.9133	68.8477	88.7592	68.8477	89.0547	68.8477	88.934	68.8477	89.1897	68.8477	89.1018	68.8477	89.3118	68.8477	89.2528	68.8477	89.4132	68.8477	89.3773	68.8477	89.4855	68.8477	89.4669	68.8477	89.5214	68.8477	89.5157
71.7773	88.4815	71.7773	88.4644	71.7773	88.5168	71.7773	88.4652	71.7773	88.5703	71.7773	88.483	71.7773	88.6415	71.7773	88.5172	71.7773	88.729	71.7773	88.5671	71.7773	88.8308	71.7773	88.6322	71.7773	88.9441	71.7773	88.7123	71.7773	89.0657	71.7773	88.8071	71.7773	89.192	71.7773	88.916	71.7773	89.3197	71.7773	89.0381	71.7773	89.4457	71.7773	89.1713	71.7773	89.5671	71.7773	89.3125	71.7773	89.681	71.7773	89.4568	71.7773	89.7841	71.7773	89.5978	71.7773	89.8723	71.7773	89.7278	71.7773	89.9407	71.7773	89.8388	71.7773	89.9841	71.7773	89.9238	71.7773	89.9974	71.7773	89.9775
74.707	88.6936	74.707	88.6774	74.707	88.7279	74.707	88.678	74.707	88.7805	74.707	88.694	74.707	88.851	74.707	88.7238	74.707	88.9379	74.707	88.7658	74.707	89.0385	74.707	88.819	74.707	89.1493	74.707	88.8826	74.707	89.266	74.707	88.9561	74.707	89.3839	74.707	89.0394	74.707	89.4989	74.707	89.1324	74.707	89.6068	74.707	89.2344	74.707	89.7048	74.707	89.344	74.707	89.7903	74.707	89.4585	74.707	89.8614	74.707	89.5734	74.707	89.9161	74.707	89.6834	74.707	89.9521	74.707	89.7821	74.707	89.9667	74.707	89.8635	74.707	89.9574	74.707	89.9228
77.6367	88.641	77.6367	88.6255	77.6367	88.6747	77.6367	88.6262	77.6367	88.7272	77.6367	88.6412	77.6367	88.7983	77.6367	88.668	77.6367	88.8866	77.6367	88.7046	77.6367	88.9889	77.6367	88.7493	77.6367	89.1011	77.6367	88.801	77.6367	89.2179	77.6367	88.8591	77.6367	89.3338	77.6367	88.9238	77.6367	89.4432	77.6367	88.9955	77.6367	89.5413	77.6367	89.0746	77.6367	89.6246	77.6367	89.161	77.6367	89.6906	77.6367	89.2535	77.6367	89.7381	77.6367	89.3498	77.6367	89.7666	77.6367	89.4461	77.6367	89.7758	77.6367	89.5374	77.6367	89.7654	77.6367	89.6188	77.6367	89.7353	77.6367	89.6859
79.1016	88.588	79.1016	88.5714	79.1016	88.6224	79.1016	88.5707	79.1016	88.6755	79.1016	88.5836	79.1016	88.7472	79.1016	88.6076	79.1016	88.8357	79.1016	88.6401	79.1016	88.9379	79.1016	88.6794	79.1016	89.0493	79.1016	88.7243	79.1016	89.1643	79.1016	88.774	79.1016	89.277	79.1016	88.8289	79.1016	89.3815	79.1016	88.8897	79.1016	89.4726	79.1016	88.9571	79.1016	89.5468	79.1016	89.0316	79.1016	89.6016	79.1016	89.1129	79.1016	89.6363	79.1016	89.1995	79.1016	89.6511	79.1016	89.2884	79.1016	89.6467	79.1016	89.3756	79.1016	89.6238	79.1016	89.4565	79.1016	89.5834	79.1016	89.5269
82.0312	88.4059	82.0312	88.3875	82.0312	88.4423	82.0312	88.385	82.0312	88.4975	82.0312	88.3958	82.0312	88.5711	82.0312	88.417	82.0312	88.6611	82.0312	88.4457	82.0312	88.7642	82.0312	88.4795	82.0312	88.8754	82.0312	88.5169	82.0312	88.9888	82.0312	88.5569	82.0312	89.0981	82.0312	88.5997	82.0312	89.197	82.0312	88.6461	82.0312	89.2799	82.0312	88.6976	82.0312	89.3429	82.0312	88.7555	82.0312	89.3835	82.0312	88.8208	82.0312	89.4014	82.0312	88.8934	82.0312	89.3974	82.0312	88.9717	82.0312	89.3737	82.0312	89.053	82.0312	89.3327	82.0312	89.1337	82.0312	89.277	82.0312	89.2096
84.9609	88.2293	84.9609	88.2201	84.9609	88.258	84.9609	88.2274	84.9609	88.3077	84.9609	88.2478	84.9609	88.3787	84.9609	88.2776	84.9609	88.4695	84.9609	88.3132	84.9609	88.5766	84.9609	88.3517	84.9609	88.695	84.9609	88.3909	84.9609	88.8181	84.9609	88.4297	84.9609	88.9383	84.9609	88.4682	84.9609	89.0479	84.9609	88.5074	84.9609	89.1399	84.9609	88.5493	84.9609	89.2087	84.9609	88.5961	84.9609	89.251	84.9609	88.6499	84.9609	89.2657	84.9609	88.7121	84.9609	89.2543	84.9609	88.7826	84.9609	89.2199	84.9609	88.86	84.9609	89.1666	84.9609	88.9412	84.9609	89.0992	84.9609	89.0225
87.8906	88.0687	87.8906	88.0561	87.8906	88.1033	87.8906	88.0624	87.8906	88.1619	87.8906	88.0837	87.8906	88.2448	87.8906	88.1158	87.8906	88.3504	87.8906	88.1546	87.8906	88.4748	87.8906	88.1964	87.8906	88.612	87.8906	88.2384	87.8906	88.754	87.8906	88.2786	87.8906	88.8915	87.8906	88.3167	87.8906	89.015	87.8906	88.3535	87.8906	89.1156	87.8906	88.3909	87.8906	89.1868	87.8906	88.432	87.8906	89.2243	87.8906	88.48	87.8906	89.2274	87.8906	88.5379	87.8906	89.1983	87.8906	88.6074	87.8906	89.1417	87.8906	88.6885	87.8906	89.0643	87.8906	88.7794	87.8906	88.9733	87.8906	88.8761
90.8203	88.2737	90.8203	88.2624	90.8203	88.3034	90.8203	88.2656	90.8203	88.3535	90.8203	88.2786	90.8203	88.424	90.8203	88.2961	90.8203	88.5128	90.8203	88.313	90.8203	88.615	90.8203	88.3249	90.8203	88.7241	90.8203	88.3287	90.8203	88.8317	90.8203	88.3227	90.8203	88.9288	90.8203	88.3074	90.8203	89.0064	90.8203	88.2851	90.8203	89.0567	90.8203	88.2599	90.8203	89.074	90.8203	88.2375	90.8203	89.0556	90.8203	88.2243	90.8203	89.0027	90.8203	88.2269	90.8203	88.9196	90.8203	88.2505	90.8203	88.8144	90.8203	88.2984	90.8203	88.6967	90.8203	88.371	90.8203	88.5771	90.8203	88.4659
95.2148	88.0002	95.2148	87.9756	95.2148	88.0416	95.2148	87.9648	95.2148	88.1017	95.2148	87.9642	95.2148	88.1808	95.2148	87.9699	95.2148	88.2774	95.2148	87.9782	95.2148	88.3877	95.2148	87.9856	95.2148	88.5057	95.2148	87.9899	95.2148	88.6235	95.2148	87.9895	95.2148	88.7317	95.2148	87.9844	95.2148	88.8206	95.2148	87.9761	95.2148	88.8814	95.2148	87.9675	95.2148	88.9072	95.2148	87.963	95.2148	88.8944	95.2148	87.9676	95.2148	88.8435	95.2148	87.9868	95.2148	88.759	95.2148	88.0254	95.2148	88.6492	95.2148	88.0866	95.2148	88.5247	95.2148	88.1709	95.2148	88.3969	95.2148	88.2762
98.1445	88.0247	98.1445	88.0006	98.1445	88.0665	98.1445	87.991	98.1445	88.1282	98.1445	87.9919	98.1445	88.2099	98.1445	87.9987	98.1445	88.3098	98.1445	88.0072	98.1445	88.4236	98.1445	88.0136	98.1445	88.5446	98.1445	88.0147	98.1445	88.6638	98.1445	88.0089	98.1445	88.7713	98.1445	87.9957	98.1445	88.8565	98.1445	87.9765	98.1445	88.9101	98.1445	87.9546	98.1445	88.9252	98.1445	87.9347	98.1445	88.8984	98.1445	87.9232	98.1445	88.831	98.1445	87.9269	98.1445	88.7286	98.1445	87.9522	98.1445	88.601	98.1445	88.004	98.1445	88.4603	98.1445	88.0842	98.1445	88.3198	98.1445	88.1914
101.074	87.6814	101.074	87.6622	101.074	87.7261	101.074	87.6652	101.074	87.7982	101.074	87.6855	101.074	87.8971	101.074	87.7174	101.074	88.0197	101.074	87.7551	101.074	88.1602	101.074	87.7928	101.074	88.3105	101.074	87.8259	101.074	88.4605	101.074	87.8508	101.074	88.5988	101.074	87.8657	101.074	88.7141	101.074	87.8709	101.074	88.7961	101.074	87.8693	101.074	88.8371	101.074	87.8656	101.074	88.833	101.074	87.8666	101.074	88.7841	101.074	87.8799	101.074	88.6957	101.074	87.913	101.074	88.5771	101.074	87.9714	101.074	88.4408	101.074	88.0575	101.074	88.3006	101.074	88.1693
105.469	87.8513	105.469	87.8338	105.469	87.8862	105.469	87.8302	105.469	87.9402	105.469	87.8358	105.469	88.013	105.469	87.8449	105.469	88.1021	105.469	87.8516	105.469	88.2029	105.469	87.8505	105.469	88.3088	105.469	87.8372	105.469	88.4112	105.469	87.8091	105.469	88.5005	105.469	87.7656	105.469	88.5664	105.469	87.7086	105.469	88.5993	105.469	87.6428	105.469	88.5917	105.469	87.5753	105.469	88.5396	105.469	87.5158	105.469	88.4437	105.469	87.475	105.469	88.3102	105.469	87.4636	105.469	88.1501	105.469	87.4899	105.469	87.9787	105.469	87.5586	105.469	87.8128	105.469	87.6686
108.398	87.9178	108.398	87.894	108.398	87.9567	108.398	87.8825	108.398	88.0121	108.398	87.879	108.398	88.0834	108.398	87.8786	108.398	88.1682	108.398	87.8759	108.398	88.2624	108.398	87.8659	108.398	88.3595	108.398	87.8444	108.398	88.4518	108.398	87.8086	108.398	88.5298	108.398	87.7577	108.398	88.5837	108.398	87.6934	108.398	88.6042	108.398	87.6198	108.398	88.5839	108.398	87.544	108.398	88.519	108.398	87.4754	108.398	88.4104	108.398	87.4253	108.398	88.2648	108.398	87.4049	108.398	88.094	108.398	87.4238	108.398	87.9139	108.398	87.4876	108.398	87.7423	108.398	87.596
112.793	87.9126	112.793	87.8934	112.793	87.9435	112.793	87.883	112.793	87.9878	112.793	87.8775	112.793	88.0458	112.793	87.8722	112.793	88.1164	112.793	87.8619	112.793	88.1968	112.793	87.8419	112.793	88.2822	112.793	87.8081	112.793	88.3655	112.793	87.758	112.793	88.4377	112.793	87.6911	112.793	88.4884	112.793	87.6095	112.793	88.5072	112.793	87.5182	112.793	88.4855	112.793	87.425	112.793	88.4181	112.793	87.3405	112.793	88.3048	112.793	87.2771	112.793	88.1517	112.793	87.2474	112.793	87.9709	112.793	87.2618	112.793	87.7793	112.793	87.3265	112.793	87.5964	112.793	87.4406
117.188	87.8606	117.188	87.8322	117.188	87.8979	117.188	87.8099	117.188	87.9455	117.188	87.7902	117.188	88.0035	117.188	87.7683	117.188	88.0703	117.188	87.7395	117.188	88.1427	117.188	87.699	117.188	88.2152	117.188	87.6427	117.188	88.2807	117.188	87.5681	117.188	88.33	117.188	87.4745	117.188	88.3531	117.188	87.3641	117.188	88.3402	117.188	87.2421	117.188	88.2833	117.188	87.1171	117.188	88.1784	117.188	87.001	117.188	88.0267	117.188	86.9082	117.188	87.8359	117.188	86.8537	117.188	87.62	117.188	86.8506	117.188	87.3984	117.188	86.9071	117.188	87.1928	117.188	87.0238
120.117	87.9705	120.117	87.9463	120.117	88.0023	120.117	87.9266	120.117	88.043	120.117	87.9071	120.117	88.0924	120.117	87.8828	120.117	88.1488	120.117	87.8478	120.117	88.2086	120.117	87.7967	120.117	88.2664	120.117	87.725	120.117	88.3149	120.117	87.6296	120.117	88.3449	120.117	87.5102	120.117	88.3465	120.117	87.3693	120.117	88.3097	120.117	87.2131	120.117	88.2269	120.117	87.0515	120.117	88.0944	120.117	86.8983	120.117	87.914	120.117	86.7702	120.117	87.6947	120.117	86.6849	120.117	87.4525	120.117	86.6582	120.117	87.2089	120.117	86.7002	120.117	86.9881	120.117	86.8128
124.512	87.7358	124.512	87.7137	124.512	87.7651	124.512	87.6956	124.512	87.8035	124.512	87.6773	124.512	87.8518	124.512	87.6536	124.512	87.9092	124.512	87.6193	124.512	87.9731	124.512	87.5694	124.512	88.0386	124.512	87.4996	124.512	88.0985	124.512	87.4075	124.512	88.1432	124.512	87.2928	124.512	88.1614	124.512	87.1582	124.512	88.1421	124.512	87.0099	124.512	88.0757	124.512	86.8575	124.512	87.9573	124.512	86.7146	124.512	87.7876	124.512	86.5974	124.512	87.5751	124.512	86.5232	124.512	87.3353	124.512	86.5074	124.512	87.0901	124.512	86.5598	124.512	86.8645	124.512	86.6818
128.906	87.3956	128.906	87.3778	128.906	87.4258	128.906	87.3684	128.906	87.4716	128.906	87.3629	128.906	87.5349	128.906	87.3566	128.906	87.6159	128.906	87.3446	128.906	87.712	128.906	87.322	128.906	87.8174	128.906	87.2847	128.906	87.9229	128.906	87.2297	128.906	88.0165	128.906	87.1557	128.906	88.0846	128.906	87.0642	128.906	88.1136	128.906	86.9597	128.906	88.0922	128.906	86.8503	128.906	88.0139	128.906	86.7481	128.906	87.8785	128.906	86.6677	128.906	87.6936	128.906	86.6251	128.906	87.4744	128.906	86.6346	128.906	87.2426	128.906	86.7051	128.906	87.0224	128.906	86.8373
133.301	87.3645	133.301	87.3337	133.301	87.412	133.301	87.3166	133.301	87.4776	133.301	87.3082	133.301	87.5605	133.301	87.3026	133.301	87.6578	133.301	87.2933	133.301	87.7647	133.301	87.2734	133.301	87.8742	133.301	87.2371	133.301	87.9768	133.301	87.1799	133.301	88.0613	133.301	87.0998	133.301	88.1151	133.301	86.9976	133.301	88.1259	133.301	86.8784	133.301	88.0832	133.301	86.7514	133.301	87.9814	133.301	86.63	133.301	87.821	133.301	86.5311	133.301	87.6104	133.301	86.473	133.301	87.3663	133.301	86.4722	133.301	87.1117	133.301	86.5393	133.301	86.8733	133.301	86.6761
139.16	87.3311	139.16	87.2954	139.16	87.378	139.16	87.2694	139.16	87.4366	139.16	87.2499	139.16	87.506	139.16	87.2321	139.16	87.5846	139.16	87.2101	139.16	87.6697	139.16	87.1777	139.16	87.757	139.16	87.1293	139.16	87.8401	139.16	87.0605	139.16	87.9098	139.16	86.9699	139.16	87.9548	139.16	86.8591	139.16	87.963	139.16	86.7336	139.16	87.9235	139.16	86.6032	139.16	87.8292	139.16	86.482	139.16	87.6789	139.16	86.3868	139.16	87.4791	139.16	86.3352	139.16	87.2443	139.16	86.3424	139.16	86.9959	139.16	86.4175	139.16	86.7596	139.16	86.5601
143.555	87.3069	143.555	87.2681	143.555	87.3522	143.555	87.234	143.555	87.4049	143.555	87.2019	143.555	87.4652	143.555	87.1678	143.555	87.5331	143.555	87.1268	143.555	87.607	143.555	87.0735	143.555	87.684	143.555	87.0031	143.555	87.7577	143.555	86.9122	143.555	87.8189	143.555	86.7997	143.555	87.8556	143.555	86.6676	143.555	87.8545	143.555	86.5222	143.555	87.8037	143.555	86.3739	143.555	87.6953	143.555	86.2375	143.555	87.528	143.555	86.1309	143.555	87.3087	143.555	86.0727	143.555	87.053	143.555	86.079	143.555	86.7837	143.555	86.1592	143.555	86.528	143.555	86.3128
147.949	87.2334	147.949	87.1945	147.949	87.278	147.949	87.1597	147.949	87.3297	147.949	87.1261	147.949	87.389	147.949	87.0897	147.949	87.4559	147.949	87.0459	147.949	87.5293	147.949	86.9895	147.949	87.6058	147.949	86.9156	147.949	87.6791	147.949	86.8208	147.949	87.7395	147.949	86.7042	147.949	87.7747	147.949	86.568	147.949	87.7715	147.949	86.4186	147.949	87.7178	147.949	86.2669	147.949	87.6059	147.949	86.128	147.949	87.4347	147.949	86.02	147.949	87.2115	147.949	85.9615	147.949	86.9522	147.949	85.9684	147.949	86.68	147.949	86.0498	147.949	86.422	147.949	86.2049
153.809	87.1685	153.809	87.1291	153.809	87.2118	153.809	87.0923	153.809	87.2595	153.809	87.0558	153.809	87.3119	153.809	87.016	153.809	87.3693	153.809	86.9679	153.809	87.4314	153.809	86.9059	153.809	87.496	153.809	86.8245	153.809	87.5582	153.809	86.72	153.809	87.6092	153.809	86.5907	153.809	87.6368	153.809	86.4387	153.809	87.627	153.809	86.2708	153.809	87.5668	153.809	86.0986	153.809	87.4471	153.809	85.9388	153.809	87.266	153.809	85.8113	153.809	87.0304	153.809	85.7372	153.809	86.7567	153.809	85.7342	153.809	86.4696	153.809	85.8125	153.809	86.1982	153.809	85.9714
159.668	87.0463	159.668	87.0046	159.668	87.0937	159.668	86.9677	159.668	87.1468	159.668	86.9339	159.668	87.206	159.668	86.8999	159.668	87.2714	159.668	86.8608	159.668	87.3425	159.668	86.8109	159.668	87.417	159.668	86.7443	159.668	87.4896	159.668	86.6562	159.668	87.5511	159.668	86.5445	159.668	87.5892	159.668	86.4106	159.668	87.59	159.668	86.2606	159.668	87.5406	159.668	86.1058	159.668	87.4325	159.668	85.9623	159.668	87.2638	159.668	85.8493	159.668	87.0416	159.668	85.7869	159.668	86.7819	159.668	85.7917	159.668	86.5082	159.668	85.8728	159.668	86.2482	159.668	86.0291
165.527	87.0263	165.527	86.9881	165.527	87.0706	165.527	86.9558	165.527	87.1211	165.527	86.9278	165.527	87.1779	165.527	86.901	165.527	87.2414	165.527	86.8706	165.527	87.3115	165.527	86.8305	165.527	87.3868	165.527	86.7743	165.527	87.4622	165.527	86.6969	165.527	87.529	165.527	86.5951	165.527	87.5741	165.527	86.4699	165.527	87.5828	165.527	86.3268	165.527	87.5411	165.527	86.1767	165.527	87.4398	165.527	86.0353	165.527	87.2768	165.527	85.9219	165.527	87.0598	165.527	85.8563	165.527	86.8056	165.527	85.8553	165.527	86.5384	165.527	85.9286	165.527	86.2863	165.527	86.0761
171.387	87.054	171.387	87.0025	171.387	87.1085	171.387	86.9556	171.387	87.1637	171.387	86.9129	171.387	87.2177	171.387	86.8722	171.387	87.2695	171.387	86.8285	171.387	87.3188	171.387	86.7757	171.387	87.3654	171.387	86.7071	171.387	87.4071	171.387	86.6172	171.387	87.4384	171.387	86.5033	171.387	87.4499	171.387	86.3664	171.387	87.4297	171.387	86.2126	171.387	87.3655	171.387	86.0533	171.387	87.249	171.387	85.9042	171.387	87.0783	171.387	85.7845	171.387	86.8601	171.387	85.7132	171.387	86.6103	171.387	85.7061	171.387	86.3513	171.387	85.7718	171.387	86.1096	171.387	85.9099
177.246	87.2407	177.246	87.1836	177.246	87.2849	177.246	87.1158	177.246	87.3148	177.246	87.0383	177.246	87.3302	177.246	86.9506	177.246	87.3326	177.246	86.8503	177.246	87.3252	177.246	86.7336	177.246	87.3106	177.246	86.5968	177.246	87.2889	177.246	86.437	177.246	87.2561	177.246	86.2544	177.246	87.2036	177.246	86.0527	177.246	87.1205	177.246	85.8406	177.246	86.996	177.246	85.6316	177.246	86.824	177.246	85.4431	177.246	86.6054	177.246	85.2941	177.246	86.35	177.246	85.2023	177.246	86.0753	177.246	85.1807	177.246	85.804	177.246	85.2356	177.246	85.5602	177.246	85.3652
183.105	86.8483	183.105	86.8186	183.105	86.8737	183.105	86.7838	183.105	86.8964	183.105	86.7426	183.105	86.9193	183.105	86.692	183.105	86.947	183.105	86.6274	183.105	86.9838	183.105	86.5425	183.105	87.0316	183.105	86.431	183.105	87.0867	183.105	86.288	183.105	87.1382	183.105	86.1118	183.105	87.1686	183.105	85.9057	183.105	87.1569	183.105	85.6789	183.105	87.0838	183.105	85.4476	183.105	86.9368	183.105	85.2337	183.105	86.7141	183.105	85.0623	183.105	86.4269	183.105	84.9584	183.105	86.0986	183.105	84.941	183.105	85.761	183.105	85.0201	183.105	85.4488	183.105	85.1938
188.965	86.831	188.965	86.7848	188.965	86.8669	188.965	86.7296	188.965	86.8924	188.965	86.6661	188.965	86.9093	188.965	86.5939	188.965	86.9216	188.965	86.5107	188.965	86.9351	188.965	86.4127	188.965	86.9546	188.965	86.2956	188.965	86.9815	188.965	86.1558	188.965	87.0108	188.965	85.9923	188.965	87.0302	188.965	85.8079	188.965	87.022	188.965	85.6107	188.965	86.9674	188.965	85.4148	188.965	86.8516	188.965	85.2391	188.965	86.6691	188.965	85.1053	188.965	86.4259	188.965	85.0343	188.965	86.14	188.965	85.0416	188.965	85.8381	188.965	85.1343	188.965	85.5512	188.965	85.3088
196.289	86.8445	196.289	86.7977	196.289	86.8787	196.289	86.7403	196.289	86.8992	196.289	86.6739	196.289	86.907	196.289	86.598	196.289	86.9057	196.289	86.51	196.289	86.9012	196.289	86.4053	196.289	86.8989	196.289	86.2786	196.289	86.9009	196.289	86.1256	196.289	86.9033	196.289	85.9448	196.289	86.8947	196.289	85.7395	196.289	86.8585	196.289	85.5188	196.289	86.7773	196.289	85.298	196.289	86.6382	196.289	85.0979	196.289	86.4376	196.289	84.942	196.289	86.1831	196.289	84.8521	196.289	85.8933	196.289	84.8435	196.289	85.5944	196.289	84.9224	196.289	85.3157	196.289	85.0844
203.613	86.8149	203.613	86.7589	203.613	86.8509	203.613	86.6868	203.613	86.8641	203.613	86.6023	203.613	86.8546	203.613	86.5071	203.613	86.8262	203.613	86.4005	203.613	86.7863	203.613	86.2794	203.613	86.7431	203.613	86.1395	203.613	86.7031	203.613	85.977	203.613	86.6667	203.613	85.7904	203.613	86.6265	203.613	85.5826	203.613	86.5683	203.613	85.3622	203.613	86.4752	203.613	85.1438	203.613	86.3341	203.613	84.9472	203.613	86.1405	203.613	84.7943	203.613	85.9009	203.613	84.7047	203.613	85.6327	203.613	84.6915	203.613	85.3599	203.613	84.7588	203.613	85.1084	203.613	84.9018
210.938	86.7662	210.938	86.7205	210.938	86.7925	210.938	86.6587	210.938	86.797	210.938	86.5833	210.938	86.7801	210.938	86.4946	210.938	86.7458	210.938	86.3905	210.938	86.7015	210.938	86.2668	210.938	86.656	210.938	86.1184	210.938	86.6157	210.938	85.9414	210.938	86.5804	210.938	85.7347	210.938	86.5413	210.938	85.5023	210.938	86.4822	210.938	85.2549	210.938	86.3846	210.938	85.0095	210.938	86.2341	210.938	84.7886	210.938	86.0263	210.938	84.6164	210.938	85.7692	210.938	84.5139	210.938	85.4822	210.938	84.4944	210.938	85.1919	210.938	84.5615	210.938	84.9262	210.938	84.7097
218.262	86.5956	218.262	86.5497	218.262	86.6237	218.262	86.4908	218.262	86.6308	218.262	86.4227	218.262	86.617	218.262	86.3466	218.262	86.5869	218.262	86.2604	218.262	86.5494	218.262	86.1591	218.262	86.5148	218.262	86.0363	218.262	86.4912	218.262	85.8867	218.262	86.4793	218.262	85.7079	218.262	86.4702	218.262	85.5029	218.262	86.4461	218.262	85.2818	218.262	86.3862	218.262	85.0613	218.262	86.2736	218.262	84.8643	218.262	86.1013	218.262	84.7149	218.262	85.8755	218.262	84.6338	218.262	85.6139	218.262	84.6331	218.262	85.3416	218.262	84.7143	218.262	85.0855	218.262	84.8699
225.586	86.637	225.586	86.5796	225.586	86.6728	225.586	86.5075	225.586	86.6815	225.586	86.4264	225.586	86.6608	225.586	86.3392	225.586	86.613	225.586	86.2452	225.586	86.5451	225.586	86.14	225.586	86.4677	225.586	86.0171	225.586	86.3917	225.586	85.8705	225.586	86.3239	225.586	85.6973	225.586	86.2632	225.586	85.4999	225.586	86.1998	225.586	85.2881	225.586	86.1194	225.586	85.0788	225.586	86.0087	225.586	84.8942	225.586	85.8611	225.586	84.7574	225.586	85.6793	225.586	84.6861	225.586	85.4746	225.586	84.6878	225.586	85.2632	225.586	84.7593	225.586	85.0624	225.586	84.8891
232.91	86.7542	232.91	86.6797	232.91	86.8001	232.91	86.5849	232.91	86.8111	232.91	86.4771	232.91	86.7844	232.91	86.3608	232.91	86.7228	232.91	86.2363	232.91	86.6338	232.91	86.1004	232.91	86.5281	232.91	85.9474	232.91	86.4158	232.91	85.772	232.91	86.3021	232.91	85.5724	232.91	86.1849	232.91	85.3521	232.91	86.0559	232.91	85.1221	232.91	85.9054	232.91	84.9001	232.91	85.7283	232.91	84.7078	232.91	85.5281	232.91	84.5658	232.91	85.3164	232.91	84.4877	232.91	85.1087	232.91	84.4762	232.91	84.9182	232.91	84.5241	232.91	84.7535	232.91	84.6199
241.699	86.5651	241.699	86.4862	241.699	86.6117	241.699	86.3832	241.699	86.6206	241.699	86.264	241.699	86.5907	241.699	86.1344	241.699	86.5266	241.699	85.9961	241.699	86.4377	241.699	85.8467	241.699	86.3354	241.699	85.6808	241.699	86.2293	241.699	85.4929	241.699	86.1223	241.699	85.2801	241.699	86.0079	241.699	85.0452	241.699	85.8721	241.699	84.7984	241.699	85.7005	241.699	84.5581	241.699	85.4862	241.699	84.3472	241.699	85.2359	241.699	84.1879	241.699	84.9701	241.699	84.0942	241.699	84.7156	241.699	84.0684	241.699	84.4947	241.699	84.1028	241.699	84.3184	241.699	84.1878
250.488	86.69	250.488	86.5511	250.488	86.7849	250.488	86.379	250.488	86.8282	250.488	86.1861	250.488	86.8174	250.488	85.983	250.488	86.7562	250.488	85.7769	250.488	86.6543	250.488	85.5704	250.488	86.5256	250.488	85.3613	250.488	86.3845	250.488	85.1453	250.488	86.2402	250.488	84.9185	250.488	86.0918	250.488	84.6813	250.488	85.9282	250.488	84.4409	250.488	85.7333	250.488	84.2122	250.488	85.4955	250.488	84.0157	250.488	85.2158	250.488	83.8716	250.488	84.9111	250.488	83.7935	250.488	84.6093	250.488	83.7842	250.488	84.3385	250.488	83.8386	250.488	84.117	250.488	83.9503
259.277	86.7369	259.277	86.6306	259.277	86.8024	259.277	86.493	259.277	86.8217	259.277	86.3348	259.277	86.7945	259.277	86.1651	259.277	86.7267	259.277	85.9896	259.277	86.6293	259.277	85.809	259.277	86.5161	259.277	85.6199	259.277	86.3987	259.277	85.4167	259.277	86.2814	259.277	85.1952	259.277	86.1586	259.277	84.9569	259.277	86.0158	259.277	84.711	259.277	85.837	259.277	84.4755	259.277	85.6137	259.277	84.2741	259.277	85.3517	259.277	84.1291	259.277	85.0708	259.277	84.0543	259.277	84.7986	259.277	84.0499	259.277	84.5588	259.277	84.1063	259.277	84.3629	259.277	84.2123
268.066	86.751	268.066	86.635	268.066	86.8138	268.066	86.4744	268.066	86.8189	268.066	86.2794	268.066	86.7682	268.066	86.06	268.066	86.6709	268.066	85.8239	268.066	86.5423	268.066	85.5759	268.066	86.4008	268.066	85.3185	268.066	86.2615	268.066	85.0533	268.066	86.1297	268.066	84.7835	268.066	85.9971	268.066	84.5166	268.066	85.845	268.066	84.2662	268.066	85.6528	268.066	84.0511	268.066	85.4104	268.066	83.8912	268.066	85.126	268.066	83.7999	268.066	84.8266	268.066	83.7782	268.066	84.5469	268.066	83.8143	268.066	84.3136	268.066	83.8909	268.066	84.1334	268.066	83.9966
276.855	86.6609	276.855	86.5492	276.855	86.727	276.855	86.3968	276.855	86.7452	276.855	86.2093	276.855	86.7164	276.855	85.9912	276.855	86.6459	276.855	85.7449	276.855	86.5423	276.855	85.4706	276.855	86.4166	276.855	85.1675	276.855	86.2793	276.855	84.836	276.855	86.1352	276.855	84.4804	276.855	85.9805	276.855	84.1116	276.855	85.8016	276.855	83.7503	276.855	85.5812	276.855	83.4264	276.855	85.3071	276.855	83.1749	276.855	84.9809	276.855	83.0245	276.855	84.621	276.855	82.986	276.855	84.2578	276.855	83.0484	276.855	83.9211	276.855	83.188	276.855	83.6286	276.855	83.3843
287.109	86.3997	287.109	86.3377	287.109	86.4192	287.109	86.2382	287.109	86.3945	287.109	86.1065	287.109	86.3298	287.109	85.9453	287.109	86.2364	287.109	85.7544	287.109	86.1314	287.109	85.5318	287.109	86.0336	287.109	85.2754	287.109	85.9566	287.109	84.9865	287.109	85.9021	287.109	84.6727	287.109	85.8565	287.109	84.35	287.109	85.7947	287.109	84.0436	287.109	85.6911	287.109	83.7861	287.109	85.5304	287.109	83.61	287.109	85.3148	287.109	83.5369	287.109	85.0622	287.109	83.5687	287.109	84.7975	287.109	83.6872	287.109	84.54	287.109	83.8635	287.109	84.2981	287.109	84.0717
297.363	86.8028	297.363	86.6938	297.363	86.8444	297.363	86.5329	297.363	86.8074	297.363	86.3356	297.363	86.6879	297.363	86.1148	297.363	86.492	297.363	85.8774	297.363	86.238	297.363	85.6238	297.363	85.9556	297.363	85.3499	297.363	85.6805	297.363	85.0515	297.363	85.4424	297.363	84.7294	297.363	85.2531	297.363	84.3939	297.363	85.1024	297.363	84.0681	297.363	84.9667	297.363	83.786	297.363	84.8248	297.363	83.5845	297.363	84.6688	297.363	83.4892	297.363	84.5055	297.363	83.5017	297.363	84.3465	297.363	83.5984	297.363	84.1967	297.363	83.742	297.363	84.0503	297.363	83.8986
307.617	86.9321	307.617	86.8237	307.617	86.979	307.617	86.6683	307.617	86.9541	307.617	86.4797	307.617	86.8543	307.617	86.2667	307.617	86.6861	307.617	86.0311	307.617	86.465	307.617	85.7681	307.617	86.2125	307.617	85.4699	307.617	85.9515	307.617	85.1304	307.617	85.6992	307.617	84.7509	307.617	85.4602	307.617	84.3464	307.617	85.226	307.617	83.9491	307.617	84.9847	307.617	83.6082	307.617	84.7348	307.617	83.3782	307.617	84.4939	307.617	83.2956	307.617	84.2914	307.617	83.3549	307.617	84.1462	307.617	83.5085	307.617	84.0484	307.617	83.6903	307.617	83.9619	307.617	83.848
319.336	86.7616	319.336	86.6245	319.336	86.8314	319.336	86.4352	319.336	86.8237	319.336	86.211	319.336	86.7345	319.336	85.9672	319.336	86.5675	319.336	85.7133	319.336	86.3341	319.336	85.451	319.336	86.0525	319.336	85.1751	319.336	85.7452	319.336	84.8769	319.336	85.4338	319.336	84.5513	319.336	85.1331	319.336	84.202	319.336	84.849	319.336	83.8477	319.336	84.5818	319.336	83.5227	319.336	84.3342	319.336	83.2717	319.336	84.1159	319.336	83.1333	319.336	83.9393	319.336	83.1196	319.336	83.8076	319.336	83.2064	319.336	83.7061	319.336	83.3453	319.336	83.6074	319.336	83.4878
329.59	86.4033	329.59	86.2865	329.59	86.4613	329.59	86.1227	329.59	86.4516	329.59	85.9237	329.59	86.3715	329.59	85.6979	329.59	86.2259	329.59	85.4491	329.59	86.0266	329.59	85.1771	329.59	85.7902	329.59	84.8802	329.59	85.5327	329.59	84.5587	329.59	85.263	329.59	84.2189	329.59	84.9782	329.59	83.8775	329.59	84.6674	329.59	83.5621	329.59	84.3246	329.59	83.3085	329.59	83.9658	329.59	83.1498	329.59	83.6375	329.59	83.1005	329.59	83.4011	329.59	83.1444	329.59	83.293	329.59	83.2367	329.59	83.2934	329.59	83.3219	329.59	83.3375	329.59	83.3583
341.309	86.5729	341.309	86.4051	341.309	86.6647	341.309	86.1805	341.309	86.6676	341.309	85.9206	341.309	86.5784	341.309	85.6425	341.309	86.4054	341.309	85.3543	341.309	86.1678	341.309	85.0534	341.309	85.8929	341.309	84.7298	341.309	85.6082	341.309	84.3738	341.309	85.3298	341.309	83.9848	341.309	85.055	341.309	83.5799	341.309	84.7664	341.309	83.1996	341.309	84.4496	341.309	82.9031	341.309	84.1154	341.309	82.749	341.309	83.8079	341.309	82.7621	341.309	83.587	341.309	82.9118	341.309	83.4843	341.309	83.1248	341.309	83.4731	341.309	83.3204	341.309	83.4829	341.309	83.4437
353.027	86.5789	353.027	86.4267	353.027	86.649	353.027	86.2092	353.027	86.6247	353.027	85.9427	353.027	86.5023	353.027	85.638	353.027	86.2904	353.027	85.2993	353.027	86.0111	353.027	84.9247	353.027	85.697	353.027	84.5113	353.027	85.3832	353.027	84.061	353.027	85.0922	353.027	83.5881	353.027	84.8206	353.027	83.1252	353.027	84.5404	353.027	82.7257	353.027	84.22	353.027	82.4538	353.027	83.8552	353.027	82.3589	353.027	83.49	353.027	82.4429	353.027	83.2057	353.027	82.6493	353.027	83.0678	353.027	82.8868	353.027	83.0688	353.027	83.0696	353.027	83.1281	353.027	83.1486
366.211	86.8513	366.211	86.7213	366.211	86.8883	366.211	86.5108	366.211	86.8253	366.211	86.2346	366.211	86.6635	366.211	85.9056	366.211	86.4129	366.211	85.5319	366.211	86.0933	366.211	85.116	366.211	85.7355	366.211	84.6573	366.211	85.3789	366.211	84.1564	366.211	85.0589	366.211	83.6218	366.211	84.7859	366.211	83.0767	366.211	84.5336	366.211	82.5641	366.211	84.2548	366.211	82.1465	366.211	83.9172	366.211	81.8909	366.211	83.5364	366.211	81.8375	366.211	83.1795	366.211	81.9669	366.211	82.9233	366.211	82.201	366.211	82.7881	366.211	82.4413	366.211	82.7151	366.211	82.6169
379.395	86.8975	379.395	86.7469	379.395	86.9891	379.395	86.5544	379.395	87.0068	379.395	86.3336	379.395	86.9402	379.395	86.0881	379.395	86.7834	379.395	85.8086	379.395	86.5357	379.395	85.4766	379.395	86.2035	379.395	85.0733	379.395	85.8014	379.395	84.5901	379.395	85.3498	379.395	84.0369	379.395	84.8684	379.395	83.4484	379.395	84.3742	379.395	82.8856	379.395	83.8888	379.395	82.4289	379.395	83.4514	379.395	82.1555	379.395	83.1188	379.395	82.1019	379.395	82.9361	379.395	82.2374	379.395	82.8959	379.395	82.4757	379.395	82.9301	379.395	82.7165	379.395	82.9486	379.395	82.8843
392.578	86.3893	392.578	86.2271	392.578	86.4839	392.578	86.0169	392.578	86.4954	392.578	85.7778	392.578	86.4146	392.578	85.5214	392.578	86.2414	392.578	85.2461	392.578	85.9892	392.578	84.9369	392.578	85.6866	392.578	84.5731	392.578	85.3711	392.578	84.1404	392.578	85.0699	392.578	83.6437	392.578	84.7775	392.578	83.1186	392.578	84.4521	392.578	82.6364	392.578	84.0428	392.578	82.2926	392.578	83.5408	392.578	82.1663	392.578	83.0254	392.578	82.2673	392.578	82.6579	392.578	82.5203	392.578	82.5673	392.578	82.8041	392.578	82.7153	392.578	83.005	392.578	82.9296	392.578	83.0504
405.762	86.7109	405.762	86.517	405.762	86.8046	405.762	86.2495	405.762	86.7777	405.762	85.9354	405.762	86.622	405.762	85.5949	405.762	86.3472	405.762	85.2353	405.762	85.9833	405.762	84.8476	405.762	85.5762	405.762	84.4124	405.762	85.1745	405.762	83.9117	405.762	84.81	405.762	83.3458	405.762	84.4825	405.762	82.7492	405.762	84.1623	405.762	82.2019	405.762	83.8156	405.762	81.82	405.762	83.4434	405.762	81.7077	405.762	83.1071	405.762	81.8836	405.762	82.9072	405.762	82.2554	405.762	82.9006	405.762	82.6743	405.762	83.031	405.762	83.0074	405.762	83.1636	405.762	83.1751
420.41	86.7567	420.41	86.6152	420.41	86.812	420.41	86.4125	420.41	86.7665	420.41	86.1745	420.41	86.6207	420.41	85.9153	420.41	86.3861	420.41	85.6296	420.41	86.0804	420.41	85.2931	420.41	85.7227	420.41	84.8729	420.41	85.3339	420.41	84.3427	420.41	84.9323	420.41	83.699	420.41	84.5232	420.41	82.9769	420.41	84.0929	420.41	82.2657	420.41	83.6229	420.41	81.7105	420.41	83.1249	420.41	81.4675	420.41	82.68	420.41	81.5997	420.41	82.429	420.41	82.0095	420.41	82.4633	420.41	82.4992	420.41	82.7062	420.41	82.8819	420.41	82.9583	420.41	83.043
435.059	86.1499	435.059	85.9347	435.059	86.2777	435.059	85.6668	435.059	86.2951	435.059	85.3839	435.059	86.1955	435.059	85.1123	435.059	85.99	435.059	84.8551	435.059	85.709	435.059	84.5896	435.059	85.3974	435.059	84.2783	435.059	85.0973	435.059	83.8864	435.059	84.8187	435.059	83.3999	435.059	84.5214	435.059	82.8418	435.059	84.1347	435.059	82.2873	435.059	83.6133	435.059	81.8671	435.059	83.0053	435.059	81.7267	435.059	82.493	435.059	81.9264	435.059	82.3103	435.059	82.3715	435.059	82.5156	435.059	82.8706	435.059	82.9155	435.059	83.2449	435.059	83.2578	435.059	83.3847
451.172	86.97	451.172	86.7008	451.172	87.1137	451.172	86.3329	451.172	87.1126	451.172	85.8974	451.172	86.955	451.172	85.4206	451.172	86.6414	451.172	84.9123	451.172	86.1939	451.172	84.3614	451.172	85.6659	451.172	83.7455	451.172	85.1362	451.172	83.0477	451.172	84.6715	451.172	82.2721	451.172	84.2679	451.172	81.4593	451.172	83.8282	451.172	80.7066	451.172	83.2139	451.172	80.1832	451.172	82.3515	451.172	80.0758	451.172	81.3736	451.172	80.4338	451.172	80.721	451.172	81.085	451.172	80.8145	451.172	81.7576	451.172	81.4428	451.172	82.225	451.172	82.0599	451.172	82.345
465.82	86.7696	465.82	86.5113	465.82	86.8975	465.82	86.1551	465.82	86.872	465.82	85.7374	465.82	86.6846	465.82	85.2897	465.82	86.345	465.82	84.8271	465.82	85.8824	465.82	84.342	465.82	85.3442	465.82	83.8096	465.82	84.792	465.82	83.2036	465.82	84.2897	465.82	82.5151	465.82	83.8705	465.82	81.7734	465.82	83.5009	465.82	81.0707	465.82	83.0877	465.82	80.5725	465.82	82.5449	465.82	80.4554	465.82	81.8848	465.82	80.7555	465.82	81.2924	465.82	81.2969	465.82	81.0622	465.82	81.8169	465.82	81.296	465.82	82.1099	465.82	81.7447	465.82	82.0774
483.398	86.4676	483.398	86.2923	483.398	86.5272	483.398	86.0332	483.398	86.457	483.398	85.7282	483.398	86.2658	483.398	85.4017	483.398	85.9827	483.398	85.0485	483.398	85.647	483.398	84.6325	483.398	85.2974	483.398	84.1039	483.398	84.9625	483.398	83.4219	483.398	84.6501	483.398	82.5737	483.398	84.3337	483.398	81.5963	483.398	83.9517	483.398	80.6163	483.398	83.435	483.398	79.8916	483.398	82.7647	483.398	79.732	483.398	82.0514	483.398	80.2134	483.398	81.5732	483.398	81.0554	483.398	81.5882	483.398	81.8864	483.398	82.0035	483.398	82.4561	483.398	82.4557	483.398	82.6481
499.512	86.6579	499.512	86.3406	499.512	86.837	499.512	85.9429	499.512	86.8441	499.512	85.5342	499.512	86.6702	499.512	85.1698	499.512	86.3286	499.512	84.8612	499.512	85.8532	499.512	84.5646	499.512	85.3004	499.512	84.1988	499.512	84.7448	499.512	83.6749	499.512	84.2508	499.512	82.9197	499.512	83.8259	499.512	81.897	499.512	83.4055	499.512	80.6536	499.512	82.9007	499.512	79.4341	499.512	82.2893	499.512	78.7873	499.512	81.7134	499.512	79.1696	499.512	81.4736	499.512	80.2698	499.512	81.7359	499.512	81.4418	499.512	82.2663	499.512	82.3043	499.512	82.6775	499.512	82.7207
517.09	86.4532	517.09	86.0644	517.09	86.6557	517.09	85.5553	517.09	86.65	517.09	85.0336	517.09	86.4496	517.09	84.6096	517.09	86.0958	517.09	84.3298	517.09	85.6517	517.09	84.1449	517.09	85.1903	517.09	83.9479	517.09	84.7715	517.09	83.6285	517.09	84.4083	517.09	83.0986	517.09	84.0424	517.09	82.3103	517.09	83.5553	517.09	81.3044	517.09	82.8193	517.09	80.3225	517.09	81.7908	517.09	79.8802	517.09	80.703	517.09	80.3655	517.09	80.2553	517.09	81.4673	517.09	80.9415	517.09	82.5811	517.09	82.1552	517.09	83.3251	517.09	83.1215	517.09	83.5269
536.133	87.2275	536.133	86.7545	536.133	87.3855	536.133	86.0056	536.133	87.2214	536.133	85.0761	536.133	86.7524	536.133	84.1414	536.133	86.0256	536.133	83.4261	536.133	85.1379	536.133	83.0655	536.133	84.2642	536.133	82.9812	536.133	83.6455	536.133	82.946	536.133	83.4381	536.133	82.7358	536.133	83.5149	536.133	82.2116	536.133	83.5351	536.133	81.3534	536.133	83.1744	536.133	80.3319	536.133	82.2412	536.133	79.6271	536.133	80.7903	536.133	79.8237	536.133	79.5222	536.133	80.8435	536.133	79.7193	536.133	82.0097	536.133	81.103	536.133	82.7934	536.133	82.3601	536.133	82.9436
555.176	87.4176	555.176	87.0022	555.176	87.5575	555.176	86.3258	555.176	87.4257	555.176	85.439	555.176	87.0388	555.176	84.4527	555.176	86.4254	555.176	83.5348	555.176	85.627	555.176	82.8339	555.176	84.7127	555.176	82.3606	555.176	83.8186	555.176	81.9658	555.176	83.151	555.176	81.4473	555.176	82.8361	555.176	80.6561	555.176	82.7436	555.176	79.5547	555.176	82.5617	555.176	78.316	555.176	81.9909	555.176	77.5279	555.176	80.8649	555.176	77.9354	555.176	79.3904	555.176	79.2928	555.176	78.6345	555.176	80.6748	555.176	79.4755	555.176	81.5091	555.176	80.8071	555.176	81.5704
574.219	87.7436	574.219	87.3225	574.219	87.9045	574.219	86.6695	574.219	87.7976	574.219	85.8512	574.219	87.4232	574.219	84.981	574.219	86.7878	574.219	84.1938	574.219	85.918	574.219	83.5699	574.219	84.8872	574.219	83.0586	574.219	83.8483	574.219	82.4961	574.219	83.0245	574.219	81.696	574.219	82.5598	574.219	80.5126	574.219	82.3198	574.219	78.872	574.219	81.9633	574.219	76.9522	574.219	81.1995	574.219	75.8125	574.219	79.9916	574.219	76.8212	574.219	78.8556	574.219	78.9093	574.219	78.863	574.219	80.654	574.219	80.0311	574.219	81.6476	574.219	81.2374	574.219	81.8334
594.727	88.0324	594.727	87.6322	594.727	88.1564	594.727	86.9599	594.727	88.0084	594.727	86.0386	594.727	87.596	594.727	84.9355	594.727	86.9243	594.727	83.7889	594.727	85.9906	594.727	82.7877	594.727	84.8105	594.727	82.0562	594.727	83.5158	594.727	81.5402	594.727	82.4594	594.727	81.0405	594.727	82.0013	594.727	80.3178	594.727	81.9778	594.727	79.1527	594.727	81.782	594.727	77.4095	594.727	80.8548	594.727	75.4255	594.727	78.877	594.727	75.041	594.727	76.4369	594.727	77.1511	594.727	76.645	594.727	79.527	594.727	79.1291	594.727	81.0574	594.727	80.935	594.727	81.5521
615.234	87.873	615.234	87.566	615.234	87.9678	615.234	87.0298	615.234	87.865	615.234	86.275	615.234	87.553	615.234	85.37	615.234	86.9931	615.234	84.4548	615.234	86.1471	615.234	83.7006	615.234	85.015	615.234	83.1883	615.234	83.6849	615.234	82.8061	615.234	82.4314	615.234	82.3111	615.234	81.7397	615.234	81.4781	615.234	81.8325	615.234	80.1709	615.234	82.2269	615.234	78.3394	615.234	82.2304	615.234	76.1401	615.234	81.3284	615.234	74.5984	615.234	79.0857	615.234	75.294	615.234	75.2698	615.234	77.0694	615.234	73.1242	615.234	78.1555	615.234	75.8959	615.234	77.8825
637.207	87.4019	637.207	86.97	637.207	87.604	637.207	86.3298	637.207	87.5808	637.207	85.5391	637.207	87.3483	637.207	84.6935	637.207	86.9094	637.207	83.9153	637.207	86.2177	637.207	83.3261	637.207	85.1778	637.207	82.9775	637.207	83.7312	637.207	82.7615	637.207	82.0307	637.207	82.4256	637.207	80.6501	637.207	81.7132	637.207	80.2988	637.207	80.4593	637.207	80.7136	637.207	78.5814	637.207	80.9702	637.207	76.1978	637.207	80.5144	637.207	74.4762	637.207	79.248	637.207	75.3311	637.207	77.6889	637.207	77.2973	637.207	77.2219	637.207	78.5749	637.207	78.0713	637.207	78.7864
659.18	87.6976	659.18	87.4501	659.18	87.6699	659.18	86.8938	659.18	87.4212	659.18	86.0427	659.18	87.001	659.18	84.9788	659.18	86.4366	659.18	83.8464	659.18	85.7296	659.18	82.8117	659.18	84.8496	659.18	82.0087	659.18	83.7219	659.18	81.4936	659.18	82.2848	659.18	81.1851	659.18	80.6737	659.18	80.8372	659.18	79.3705	659.18	80.1269	659.18	78.8065	659.18	78.7946	659.18	78.7006	659.18	76.8408	659.18	78.472	659.18	75.0892	659.18	77.896	659.18	75.2564	659.18	77.3372	659.18	76.8707	659.18	77.5198	659.18	78.2166	659.18	78.2763	659.18	78.6799
682.617	88.3649	682.617	88.146	682.617	88.3006	682.617	87.6431	682.617	88.012	682.617	86.9019	682.617	87.6042	682.617	86.0068	682.617	87.1547	682.617	85.0671	682.617	86.6383	682.617	84.1735	682.617	85.9819	682.617	83.3477	682.617	85.1776	682.617	82.5592	682.617	84.2527	682.617	81.7711	682.617	83.1265	682.617	80.9035	682.617	81.6086	682.617	79.7802	682.617	79.7233	682.617	78.2329	682.617	78.1208	682.617	76.4955	682.617	77.1956	682.617	75.8929	682.617	75.9938	682.617	77.3767	682.617	74.7515	682.617	79.3938	682.617	76.4768	682.617	80.6541	682.617	79.2527	682.617	80.6905
707.52	88.6278	707.52	88.5652	707.52	88.4816	707.52	88.2184	707.52	88.2308	707.52	87.5936	707.52	87.9387	707.52	86.805	707.52	87.6041	707.52	86.0593	707.52	87.2225	707.52	85.5543	707.52	86.82	707.52	85.2932	707.52	86.3788	707.52	85.004	707.52	85.7812	707.52	84.3233	707.52	84.8872	707.52	83.0474	707.52	83.6477	707.52	81.1959	707.52	82.0775	707.52	78.8003	707.52	79.9337	707.52	75.4266	707.52	76.2149	707.52	69.5246	707.52	68.9815	707.52	67.2852	707.52	71.9888	707.52	74.5227	707.52	77.3699	707.52	78.1947	707.52	79.501	707.52	79.6913
732.422	87.2698	732.422	87.216	732.422	86.9987	732.422	86.8748	732.422	86.5088	732.422	86.399	732.422	86.0156	732.422	85.9893	732.422	85.6914	732.422	85.783	732.422	85.505	732.422	85.7823	732.422	85.2922	732.422	85.8863	732.422	84.956	732.422	85.9149	732.422	84.548	732.422	85.6354	732.422	84.2047	732.422	84.9212	732.422	84.0048	732.422	83.8297	732.422	83.8145	732.422	82.4362	732.422	83.2662	732.422	80.6195	732.422	81.89	732.422	78.0481	732.422	79.1341	732.422	74.7619	732.422	74.1378	732.422	73.446	732.422	68.9241	732.422	74.9112	732.422	72.9256	732.422	75.2405
757.324	86.8009	757.324	86.9608	757.324	86.3963	757.324	86.7347	757.324	85.9201	757.324	86.1029	757.324	85.4332	757.324	85.1899	757.324	84.9022	757.324	84.2768	757.324	84.3989	757.324	83.7007	757.324	84.1384	757.324	83.5393	757.324	84.2409	757.324	83.6471	757.324	84.5872	757.324	83.8611	757.324	84.9783	757.324	83.8242	757.324	85.2583	757.324	83.052	757.324	85.2505	757.324	81.2532	757.324	84.6924	757.324	78.5271	757.324	83.2329	757.324	75.4186	757.324	80.4114	757.324	73.2951	757.324	75.9311	757.324	74.4935	757.324	74.0893	757.324	77.0587	757.324	77.0087	757.324	78.1673
785.156	87.5778	785.156	86.5835	785.156	87.1932	785.156	84.184	785.156	85.4243	785.156	81.2811	785.156	82.2681	785.156	82.4234	785.156	78.439	785.156	85.8097	785.156	77.2458	785.156	87.9246	785.156	78.7705	785.156	88.7086	785.156	79.8871	785.156	88.6242	785.156	79.7923	785.156	88.1719	785.156	78.4997	785.156	87.7271	785.156	77.5527	785.156	87.3082	785.156	78.7306	785.156	86.5404	785.156	80.1893	785.156	84.977	785.156	80.8603	785.156	82.534	785.156	80.7386	785.156	80.0573	785.156	78.9696	785.156	78.9016	785.156	73.0809	785.156	78.1785	785.156	65.1593	785.156	75.3963
811.523	85.8007	811.523	86.4871	811.523	84.7784	811.523	86.2054	811.523	84.334	811.523	84.5379	811.523	84.5275	811.523	81.0059	811.523	84.4547	811.523	76.7953	811.523	83.455	811.523	78.6696	811.523	81.3435	811.523	81.6927	811.523	78.436	811.523	83.4023	811.523	75.99	811.523	84.4179	811.523	76.1881	811.523	85.2086	811.523	78.5901	811.523	85.8731	811.523	80.7561	811.523	86.1289	811.523	81.7118	811.523	85.5532	811.523	81.93	811.523	83.9274	811.523	82.2916	811.523	81.5028	811.523	82.3033	811.523	78.7402	811.523	80.7797	811.523	74.9024	811.523	76.6775	811.523	70.9375
840.82	86.6099	840.82	86.9867	840.82	87.2817	840.82	87.6921	840.82	87.999	840.82	87.7717	840.82	87.6994	840.82	86.9496	840.82	86.0107	840.82	85.1939	840.82	82.94	840.82	82.4991	840.82	79.2107	840.82	78.9375	840.82	76.7647	840.82	74.9276	840.82	75.5944	840.82	72.9881	840.82	72.752	840.82	76.3682	840.82	58.5015	840.82	80.3734	840.82	72.0167	840.82	82.7012	840.82	78.6202	840.82	83.3835	840.82	81.3538	840.82	82.7409	840.82	82.3783	840.82	81.0981	840.82	82.0921	840.82	78.9415	840.82	80.4697	840.82	76.7248	840.82	77.7623	840.82	75.7011
870.117	89.2169	870.117	89.9555	870.117	86.586	870.117	88.96	870.117	83.1982	870.117	86.0504	870.117	84.7002	870.117	80.1422	870.117	87.4673	870.117	74.9819	870.117	88.4652	870.117	82.067	870.117	87.9227	870.117	85.8471	870.117	86.4821	870.117	87.7005	870.117	85.1575	870.117	88.2646	870.117	84.684	870.117	87.7509	870.117	84.973	870.117	86.3282	870.117	85.4681	870.117	83.8266	870.117	85.2408	870.117	79.6087	870.117	83.3187	870.117	73.2715	870.117	78.4114	870.117	72.1038	870.117	68.3911	870.117	77.783	870.117	77.4658	870.117	81.5414	870.117	81.8936	870.117	82.9463
900.879	86.5064	900.879	86.5695	900.879	87.7416	900.879	87.7047	900.879	88.4747	900.879	88.5032	900.879	87.6741	900.879	88.4868	900.879	84.788	900.879	87.5218	900.879	78.2919	900.879	85.5895	900.879	73.1615	900.879	83.2916	900.879	80.8413	900.879	82.1147	900.879	83.5285	900.879	81.6776	900.879	83.7552	900.879	80.1059	900.879	82.0553	900.879	79.3405	900.879	77.8439	900.879	81.9525	900.879	74.1109	900.879	83.8017	900.879	79.1194	900.879	84.083	900.879	82.4524	900.879	83.6655	900.879	83.395	900.879	83.3115	900.879	81.6908	900.879	81.8693	900.879	76.2328	900.879	77.1746
933.105	86.6433	933.105	87.8495	933.105	85.9075	933.105	88.2445	933.105	86.3661	933.105	87.4412	933.105	86.6257	933.105	85.4006	933.105	85.6596	933.105	82.354	933.105	83.3556	933.105	79.5875	933.105	80.3645	933.105	78.8335	933.105	78.0661	933.105	79.2205	933.105	76.9535	933.105	79.7701	933.105	76.5151	933.105	80.3559	933.105	77.3112	933.105	80.8346	933.105	78.9949	933.105	81.1185	933.105	79.5108	933.105	81.0781	933.105	77.6891	933.105	80.1271	933.105	74.2083	933.105	78.0762	933.105	76.4839	933.105	76.3258	933.105	80.0743	933.105	76.4724	933.105	80.8511	933.105	79.0312
965.332	88.0304	965.332	87.4998	965.332	87.4548	965.332	86.3879	965.332	85.7014	965.332	85.6358	965.332	83.6194	965.332	85.7832	965.332	83.292	965.332	86.0955	965.332	84.3807	965.332	85.6958	965.332	84.9264	965.332	84.5322	965.332	84.3332	965.332	83.0697	965.332	82.9021	965.332	81.7294	965.332	81.3626	965.332	80.7345	965.332	80.1012	965.332	80.3727	965.332	78.9517	965.332	80.8187	965.332	78.2074	965.332	81.183	965.332	77.549	965.332	80.3816	965.332	75.5227	965.332	78.4556	965.332	74.6467	965.332	77.2534	965.332	78.3476	965.332	78.2636	965.332	80.396	965.332	80.0047
1,000.49	86.4567	1,000.49	86.9457	1,000.49	85.9043	1,000.49	87.0398	1,000.49	85.3326	1,000.49	86.4861	1,000.49	84.5495	1,000.49	85.2786	1,000.49	83.4466	1,000.49	83.649	1,000.49	82.0199	1,000.49	81.5721	1,000.49	80.8275	1,000.49	78.6221	1,000.49	80.695	1,000.49	74.4302	1,000.49	80.9386	1,000.49	70.8724	1,000.49	80.2824	1,000.49	70.6588	1,000.49	78.1416	1,000.49	69.6695	1,000.49	74.927	1,000.49	71.0028	1,000.49	69.7303	1,000.49	74.7492	1,000.49	69.6025	1,000.49	77.7738	1,000.49	76.3766	1,000.49	79.0448	1,000.49	76.9148	1,000.49	79.1857	1,000.49	74.4998	1,000.49	79.4257	1,000.49	76.7862	1,000.49	79.1441
1,035.64	85.8542	1,035.64	87.2208	1,035.64	84.4383	1,035.64	87.4433	1,035.64	84.6348	1,035.64	86.3985	1,035.64	85.1552	1,035.64	84.3353	1,035.64	84.4357	1,035.64	82.1276	1,035.64	82.5339	1,035.64	80.4002	1,035.64	81.0084	1,035.64	78.4357	1,035.64	80.5443	1,035.64	75.7589	1,035.64	79.4454	1,035.64	72.4083	1,035.64	77.7827	1,035.64	71.0062	1,035.64	77.2807	1,035.64	75.0171	1,035.64	77.8904	1,035.64	78.9631	1,035.64	77.2877	1,035.64	80.3649	1,035.64	74.8174	1,035.64	80.0974	1,035.64	72.9425	1,035.64	79.5488	1,035.64	74.0754	1,035.64	79.376	1,035.64	76.6749	1,035.64	79.1654	1,035.64	77.8664	1,035.64	78.4251
1,072.27	85.5013	1,072.27	86.7987	1,072.27	84.4417	1,072.27	87.252	1,072.27	84.4711	1,072.27	86.4271	1,072.27	84.5038	1,072.27	84.5116	1,072.27	83.8053	1,072.27	83.0994	1,072.27	82.9721	1,072.27	82.8908	1,072.27	82.4655	1,072.27	82.2417	1,072.27	81.7402	1,072.27	80.8465	1,072.27	80.9685	1,072.27	79.8846	1,072.27	80.4019	1,072.27	79.2947	1,072.27	80.3084	1,072.27	77.3973	1,072.27	81.8693	1,072.27	77.0037	1,072.27	82.5183	1,072.27	79.4532	1,072.27	79.5718	1,072.27	80.3908	1,072.27	69.6673	1,072.27	80.4524	1,072.27	71.7215	1,072.27	79.9712	1,072.27	76.4509	1,072.27	79.2429	1,072.27	78.2688	1,072.27	78.8262
1,108.89	84.1636	1,108.89	85.9059	1,108.89	84.6103	1,108.89	87.4781	1,108.89	85.6628	1,108.89	87.4611	1,108.89	84.9962	1,108.89	85.2142	1,108.89	82.0827	1,108.89	81.074	1,108.89	77.87	1,108.89	81	1,108.89	77.7377	1,108.89	83.2513	1,108.89	79.048	1,108.89	84.7386	1,108.89	78.3116	1,108.89	85.7943	1,108.89	76.2662	1,108.89	85.7047	1,108.89	69.9144	1,108.89	84.1064	1,108.89	74.561	1,108.89	83.2439	1,108.89	80.4687	1,108.89	83.2679	1,108.89	81.53	1,108.89	81.1165	1,108.89	78.971	1,108.89	77.2649	1,108.89	67.2325	1,108.89	75.2595	1,108.89	76.5742	1,108.89	77.123	1,108.89	80.9613	1,108.89	80.2774
1,148.44	85.0231	1,148.44	85.956	1,148.44	84.9545	1,148.44	87.1652	1,148.44	84.554	1,148.44	87.3264	1,148.44	82.8948	1,148.44	85.6141	1,148.44	81.496	1,148.44	82.4249	1,148.44	82.5875	1,148.44	80.5285	1,148.44	83.9796	1,148.44	80.2013	1,148.44	83.7285	1,148.44	79.1155	1,148.44	81.5249	1,148.44	78.2636	1,148.44	78.081	1,148.44	77.2309	1,148.44	74.4734	1,148.44	73.9581	1,148.44	76.6343	1,148.44	74.4471	1,148.44	80.466	1,148.44	78.4034	1,148.44	79.8272	1,148.44	78.783	1,148.44	74.0479	1,148.44	78.0232	1,148.44	75.473	1,148.44	78.8193	1,148.44	76.9503	1,148.44	80.0952	1,148.44	78.6955	1,148.44	80.24
1,189.45	85.0579	1,189.45	85.9779	1,189.45	85.6485	1,189.45	86.5754	1,189.45	86.1039	1,189.45	85.9564	1,189.45	84.5702	1,189.45	83.9589	1,189.45	82.2458	1,189.45	80.9562	1,189.45	81.6986	1,189.45	80.0185	1,189.45	82.4085	1,189.45	82.2662	1,189.45	82.9744	1,189.45	83.2048	1,189.45	82.6725	1,189.45	82.9529	1,189.45	81.0032	1,189.45	82.9214	1,189.45	75.2618	1,189.45	81.722	1,189.45	67.181	1,189.45	78.7033	1,189.45	77.5837	1,189.45	79.8281	1,189.45	80.0509	1,189.45	80.8842	1,189.45	76.2932	1,189.45	81.1934	1,189.45	62.7855	1,189.45	81.8379	1,189.45	78.0699	1,189.45	81.9477	1,189.45	80.5856	1,189.45	81.2486
1,230.47	85.5845	1,230.47	85.4542	1,230.47	86.3703	1,230.47	85.9619	1,230.47	86.1996	1,230.47	86.5053	1,230.47	84.6981	1,230.47	86.3188	1,230.47	83.8105	1,230.47	84.1617	1,230.47	83.8953	1,230.47	78.4337	1,230.47	84.3721	1,230.47	78.1409	1,230.47	85.3347	1,230.47	82.884	1,230.47	85.6463	1,230.47	83.385	1,230.47	84.2569	1,230.47	81.9155	1,230.47	81.0414	1,230.47	79.5544	1,230.47	78.1451	1,230.47	78.9297	1,230.47	77.9548	1,230.47	78.9053	1,230.47	79.7139	1,230.47	79.4953	1,230.47	76.1088	1,230.47	80.4361	1,230.47	66.2162	1,230.47	81.0396	1,230.47	79.2473	1,230.47	81.9922	1,230.47	81.3283	1,230.47	81.786
1,274.41	86.2978	1,274.41	86.5576	1,274.41	86.8908	1,274.41	85.5804	1,274.41	87.6016	1,274.41	83.4236	1,274.41	86.7196	1,274.41	83.485	1,274.41	84.078	1,274.41	84.068	1,274.41	81.3906	1,274.41	82.876	1,274.41	81.4515	1,274.41	82.2415	1,274.41	83.6088	1,274.41	84.5641	1,274.41	85.7302	1,274.41	85.8012	1,274.41	86.0436	1,274.41	84.789	1,274.41	83.8071	1,274.41	81.0826	1,274.41	77.798	1,274.41	77.4797	1,274.41	65.9829	1,274.41	79.3157	1,274.41	78.4991	1,274.41	80.2414	1,274.41	78.868	1,274.41	81.7482	1,274.41	69.8041	1,274.41	83.1853	1,274.41	79.6311	1,274.41	83.9959	1,274.41	83.4815	1,274.41	84.1049
1,319.82	88.0775	1,319.82	87.0872	1,319.82	88.6104	1,319.82	86.3493	1,319.82	87.7506	1,319.82	85.3588	1,319.82	86.7563	1,319.82	84.7943	1,319.82	87.3932	1,319.82	84.9449	1,319.82	86.9616	1,319.82	83.0207	1,319.82	83.2347	1,319.82	66.4444	1,319.82	75.2706	1,319.82	81.4493	1,319.82	74.2737	1,319.82	82.9233	1,319.82	74.2117	1,319.82	77.2479	1,319.82	72.3063	1,319.82	64.5605	1,319.82	69.2683	1,319.82	74.331	1,319.82	82.2094	1,319.82	66.1072	1,319.82	86.0718	1,319.82	77.9862	1,319.82	86.222	1,319.82	83.3226	1,319.82	82.682	1,319.82	85.2388	1,319.82	81.9551	1,319.82	86.2681	1,319.82	86.1576	1,319.82	86.9596
1,366.7	89.0148	1,366.7	88.9121	1,366.7	88.7208	1,366.7	88.4729	1,366.7	87.4433	1,366.7	86.7892	1,366.7	87.0546	1,366.7	85.1511	1,366.7	87.0753	1,366.7	86.245	1,366.7	85.0467	1,366.7	86.6284	1,366.7	82.2834	1,366.7	83.2967	1,366.7	83.8107	1,366.7	80.2058	1,366.7	83.5956	1,366.7	74.8697	1,366.7	82.6401	1,366.7	72.6314	1,366.7	85.0035	1,366.7	81.3823	1,366.7	84.1523	1,366.7	80.6904	1,366.7	78.9913	1,366.7	75.3942	1,366.7	84.395	1,366.7	76.1424	1,366.7	87.3681	1,366.7	81.4937	1,366.7	85.0991	1,366.7	85.1003	1,366.7	76.9708	1,366.7	86.0135	1,366.7	81.5886	1,366.7	84.9046
1,413.57	89.7579	1,413.57	88.807	1,413.57	88.5267	1,413.57	87.8406	1,413.57	86.086	1,413.57	87.6849	1,413.57	88.6056	1,413.57	87.4433	1,413.57	89.1858	1,413.57	86.008	1,413.57	85.7309	1,413.57	81.1288	1,413.57	79.6551	1,413.57	70.0391	1,413.57	81.2719	1,413.57	70.3624	1,413.57	82.3544	1,413.57	76.571	1,413.57	77.3996	1,413.57	81.0541	1,413.57	74.0632	1,413.57	78.4452	1,413.57	74.4555	1,413.57	58.7134	1,413.57	69.2356	1,413.57	67.026	1,413.57	79.1029	1,413.57	78.1331	1,413.57	84.0901	1,413.57	80.0472	1,413.57	82.9915	1,413.57	81.876	1,413.57	73.6108	1,413.57	82.8734	1,413.57	78.9724	1,413.57	81.913
1,463.38	88.1111	1,463.38	87.9117	1,463.38	87.7955	1,463.38	87.7834	1,463.38	87.9786	1,463.38	87.4972	1,463.38	88.3685	1,463.38	86.4191	1,463.38	86.6317	1,463.38	85.1008	1,463.38	85.5073	1,463.38	85.1287	1,463.38	85.8097	1,463.38	84.7184	1,463.38	85.1017	1,463.38	81.5013	1,463.38	82.8248	1,463.38	73.2456	1,463.38	79.0259	1,463.38	78.0784	1,463.38	80.036	1,463.38	78.9452	1,463.38	81.1081	1,463.38	79.765	1,463.38	76.4261	1,463.38	72.0147	1,463.38	77.3606	1,463.38	77.8116	1,463.38	85.7982	1,463.38	80.4499	1,463.38	85.7959	1,463.38	80.6279	1,463.38	78.7563	1,463.38	81.7888	1,463.38	76.9451	1,463.38	80.904
1,516.11	86.9025	1,516.11	86.8802	1,516.11	87.6524	1,516.11	86.9814	1,516.11	89.4361	1,516.11	87.0233	1,516.11	88.6917	1,516.11	86.3397	1,516.11	85.2943	1,516.11	85.1593	1,516.11	86.2039	1,516.11	84.8748	1,516.11	87.3827	1,516.11	86.1999	1,516.11	88.3369	1,516.11	85.3497	1,516.11	87.3528	1,516.11	83.2628	1,516.11	84.731	1,516.11	78.3754	1,516.11	83.9164	1,516.11	72.2449	1,516.11	84.4452	1,516.11	82.2423	1,516.11	81.8251	1,516.11	78.6868	1,516.11	71.9615	1,516.11	68.3061	1,516.11	83.6027	1,516.11	74.0819	1,516.11	85.7795	1,516.11	73.5086	1,516.11	81.3495	1,516.11	77.7543	1,516.11	68.753	1,516.11	79.2037
1,568.85	86.4706	1,568.85	85.3924	1,568.85	87.8834	1,568.85	85.3045	1,568.85	89.0571	1,568.85	86.2666	1,568.85	88.652	1,568.85	85.6542	1,568.85	87.7743	1,568.85	82.5677	1,568.85	86.1759	1,568.85	80.5071	1,568.85	83.0279	1,568.85	82.9127	1,568.85	80.9792	1,568.85	83.3413	1,568.85	78.5672	1,568.85	79.5397	1,568.85	72.2985	1,568.85	74.1656	1,568.85	67.9305	1,568.85	78.5554	1,568.85	78.2836	1,568.85	83.6449	1,568.85	82.5541	1,568.85	80.7228	1,568.85	78.7499	1,568.85	71.7704	1,568.85	76.9031	1,568.85	72.065	1,568.85	83.493	1,568.85	66.2471	1,568.85	80.3503	1,568.85	72.7143	1,568.85	64.7081	1,568.85	71.288
1,624.51	86.409	1,624.51	86.2435	1,624.51	88.2316	1,624.51	86.2751	1,624.51	88.5227	1,624.51	85.6445	1,624.51	86.9131	1,624.51	85.4107	1,624.51	87.4066	1,624.51	83.9776	1,624.51	85.938	1,624.51	82.0794	1,624.51	81.4248	1,624.51	83.1652	1,624.51	77.9755	1,624.51	83.0092	1,624.51	79.0522	1,624.51	79.5752	1,624.51	77.2597	1,624.51	73.0713	1,624.51	75.8146	1,624.51	69.6182	1,624.51	75.2525	1,624.51	76.2778	1,624.51	79.8214	1,624.51	79.3599	1,624.51	74.0914	1,624.51	75.9796	1,624.51	75.3058	1,624.51	76.989	1,624.51	79.5298	1,624.51	74.1012	1,624.51	74.4373	1,624.51	65.8399	1,624.51	71.6142	1,624.51	71.3352
1,681.64	86.7253	1,681.64	85.7824	1,681.64	88.7089	1,681.64	86.1938	1,681.64	88.6777	1,681.64	84.7785	1,681.64	88.3324	1,681.64	83.521	1,681.64	88.9442	1,681.64	84.0514	1,681.64	85.7423	1,681.64	84.6439	1,681.64	79.8508	1,681.64	83.2103	1,681.64	77.5159	1,681.64	81.226	1,681.64	75.8725	1,681.64	79.6399	1,681.64	76.4773	1,681.64	77.9589	1,681.64	71.1914	1,681.64	76.7096	1,681.64	69.7244	1,681.64	79.2361	1,681.64	77.4201	1,681.64	81.5133	1,681.64	78.497	1,681.64	75.6959	1,681.64	75.0816	1,681.64	73.8867	1,681.64	75.7188	1,681.64	75.2155	1,681.64	76.3396	1,681.64	73.3911	1,681.64	68.3702	1,681.64	66.6945
1,741.7	88.0453	1,741.7	86.0865	1,741.7	88.2778	1,741.7	84.8712	1,741.7	88.8847	1,741.7	84.6266	1,741.7	89.7286	1,741.7	79.5723	1,741.7	87.0359	1,741.7	75.2022	1,741.7	81.9167	1,741.7	84.1462	1,741.7	83.5585	1,741.7	84.3796	1,741.7	81.753	1,741.7	80.921	1,741.7	78.7941	1,741.7	79.7554	1,741.7	79.0746	1,741.7	78.1659	1,741.7	75.1458	1,741.7	76.8105	1,741.7	60.2134	1,741.7	72.4058	1,741.7	76.0085	1,741.7	79.4007	1,741.7	79.7827	1,741.7	79.271	1,741.7	69.4477	1,741.7	75.2437	1,741.7	77.3945	1,741.7	72.4997	1,741.7	75.7963	1,741.7	69.5018	1,741.7	72.0091	1,741.7	70.3598
1,803.22	86.9917	1,803.22	85.6908	1,803.22	88.6286	1,803.22	83.652	1,803.22	89.5686	1,803.22	81.2571	1,803.22	89.0626	1,803.22	81.9912	1,803.22	87.4809	1,803.22	82.2006	1,803.22	84.9777	1,803.22	81.0209	1,803.22	81.8301	1,803.22	80.3092	1,803.22	78.3551	1,803.22	77.9524	1,803.22	74.7216	1,803.22	70.913	1,803.22	72.7401	1,803.22	74.5444	1,803.22	71.5201	1,803.22	77.5658	1,803.22	72.5716	1,803.22	69.5518	1,803.22	72.9115	1,803.22	75.035	1,803.22	73.9381	1,803.22	77.363	1,803.22	77.1276	1,803.22	76.8356	1,803.22	76.3167	1,803.22	75.8255	1,803.22	74.1978	1,803.22	70.9435	1,803.22	70.8009	1,803.22	68.4272
1,866.21	86.4193	1,866.21	84.1323	1,866.21	88.3152	1,866.21	82.1195	1,866.21	89.1313	1,866.21	81.4858	1,866.21	88.6363	1,866.21	82.7915	1,866.21	86.9585	1,866.21	81.9483	1,866.21	84.4562	1,866.21	79.6748	1,866.21	79.9947	1,866.21	80.0055	1,866.21	76.5369	1,866.21	78.2069	1,866.21	73.4839	1,866.21	75.7477	1,866.21	70.4698	1,866.21	72.7779	1,866.21	66.593	1,866.21	74.8414	1,866.21	70.7635	1,866.21	73.1966	1,866.21	70.5085	1,866.21	69.959	1,866.21	72.6535	1,866.21	75.035	1,866.21	75.9575	1,866.21	75.7341	1,866.21	75.5878	1,866.21	75.1956	1,866.21	72.2263	1,866.21	71.6021	1,866.21	69.6411	1,866.21	68.5743
1,932.13	85.3706	1,932.13	82.2077	1,932.13	87.7374	1,932.13	80.7661	1,932.13	88.2681	1,932.13	81.7124	1,932.13	87.795	1,932.13	82.3777	1,932.13	86.7968	1,932.13	80.7248	1,932.13	83.1934	1,932.13	80.0414	1,932.13	78.6783	1,932.13	79.2848	1,932.13	75.2116	1,932.13	76.0793	1,932.13	72.0392	1,932.13	75.285	1,932.13	71.5674	1,932.13	74.4519	1,932.13	69.3489	1,932.13	73.607	1,932.13	59.3115	1,932.13	72.791	1,932.13	69.9728	1,932.13	71.6367	1,932.13	64.0687	1,932.13	73.7379	1,932.13	72.9272	1,932.13	75.8432	1,932.13	74.8279	1,932.13	73.6864	1,932.13	72.7021	1,932.13	70.4375	1,932.13	67.0627	1,932.13	68.8687
1,999.51	85.4218	1,999.51	81.4656	1,999.51	87.8133	1,999.51	80.6354	1,999.51	88.0614	1,999.51	81.7906	1,999.51	87.5134	1,999.51	81.3117	1,999.51	85.6336	1,999.51	81.4813	1,999.51	81.3055	1,999.51	81.4912	1,999.51	77.6369	1,999.51	79.1208	1,999.51	74.1152	1,999.51	76.7483	1,999.51	72.298	1,999.51	74.5468	1,999.51	68.6276	1,999.51	71.2053	1,999.51	64.7361	1,999.51	74.922	1,999.51	57.6127	1,999.51	74.6756	1,999.51	66.8534	1,999.51	71.5444	1,999.51	66.1747	1,999.51	73.1696	1,999.51	68.4032	1,999.51	74.5681	1,999.51	73.9457	1,999.51	72.6059	1,999.51	74.9311	1,999.51	68.6324	1,999.51	69.244	1,999.51	64.7009
2,069.82	86.2075	2,069.82	81.5119	2,069.82	88.4327	2,069.82	78.5423	2,069.82	88.2998	2,069.82	81.2009	2,069.82	86.5316	2,069.82	81.5373	2,069.82	83.4423	2,069.82	81.4108	2,069.82	79.2379	2,069.82	80.6403	2,069.82	74.9677	2,069.82	79.6234	2,069.82	72.633	2,069.82	78.6546	2,069.82	72.3461	2,069.82	77.9882	2,069.82	71.9875	2,069.82	75.9326	2,069.82	66.6087	2,069.82	71.7011	2,069.82	55.3581	2,069.82	74.1482	2,069.82	58.1414	2,069.82	72.8763	2,069.82	66.2221	2,069.82	73.0617	2,069.82	67.0704	2,069.82	74.7164	2,069.82	72.1573	2,069.82	71.654	2,069.82	75.1137	2,069.82	64.2103	2,069.82	69.8215	2,069.82	51.8226
2,143.07	86.5289	2,143.07	82.4492	2,143.07	88.8916	2,143.07	76.3315	2,143.07	88.7028	2,143.07	78.7053	2,143.07	85.992	2,143.07	80.6378	2,143.07	81.3595	2,143.07	80.5369	2,143.07	74.8507	2,143.07	80.3488	2,143.07	69.7561	2,143.07	79.6222	2,143.07	67.8066	2,143.07	76.1764	2,143.07	73.0767	2,143.07	73.4267	2,143.07	73.3003	2,143.07	73.8386	2,143.07	71.4147	2,143.07	72.8949	2,143.07	64.9081	2,143.07	71.9236	2,143.07	58.6809	2,143.07	74.1795	2,143.07	62.1251	2,143.07	73.3177	2,143.07	66.9923	2,143.07	74.682	2,143.07	68.7527	2,143.07	70.4909	2,143.07	73.5502	2,143.07	58.286	2,143.07	71.4973	2,143.07	60.0728
2,219.24	85.9604	2,219.24	82.2271	2,219.24	88.3434	2,219.24	75.0429	2,219.24	88.6539	2,219.24	75.6211	2,219.24	86.0694	2,219.24	79.6426	2,219.24	78.9276	2,219.24	80.9509	2,219.24	68.7176	2,219.24	80.7379	2,219.24	61.2256	2,219.24	79.246	2,219.24	62.7094	2,219.24	77.7512	2,219.24	68.8779	2,219.24	75.3481	2,219.24	73.1282	2,219.24	74.1124	2,219.24	73.7597	2,219.24	73.8556	2,219.24	69.692	2,219.24	71.0561	2,219.24	64.5725	2,219.24	73.1886	2,219.24	64.2694	2,219.24	73.6157	2,219.24	66.8519	2,219.24	75.1244	2,219.24	67.1788	2,219.24	71.9591	2,219.24	71.9629	2,219.24	60.7571	2,219.24	71.4747	2,219.24	60.0982
2,296.88	85.336	2,296.88	81.424	2,296.88	87.3722	2,296.88	73.125	2,296.88	87.7702	2,296.88	74.2837	2,296.88	85.3048	2,296.88	79.9947	2,296.88	77.9949	2,296.88	82.5334	2,296.88	66.9544	2,296.88	81.9077	2,296.88	72.013	2,296.88	80.5463	2,296.88	71.1149	2,296.88	79.4159	2,296.88	56.0585	2,296.88	76.885	2,296.88	68.8241	2,296.88	74.826	2,296.88	73.4314	2,296.88	74.1766	2,296.88	72.1124	2,296.88	71.655	2,296.88	67.6607	2,296.88	72.3264	2,296.88	66.7869	2,296.88	74.49	2,296.88	63.4895	2,296.88	75.1922	2,296.88	65.9548	2,296.88	71.9709	2,296.88	69.8092	2,296.88	57.3879	2,296.88	70.4437	2,296.88	55.584
2,378.91	85.7134	2,378.91	80.3642	2,378.91	86.948	2,378.91	67.8342	2,378.91	86.0546	2,378.91	73.114	2,378.91	83.3791	2,378.91	80.1189	2,378.91	76.1289	2,378.91	81.9796	2,378.91	63.5402	2,378.91	81.5329	2,378.91	71.7955	2,378.91	79.5246	2,378.91	74.9726	2,378.91	77.4583	2,378.91	72.3934	2,378.91	77.5942	2,378.91	68.9057	2,378.91	73.273	2,378.91	70.9068	2,378.91	74.7642	2,378.91	68.6549	2,378.91	73.1621	2,378.91	65.4853	2,378.91	71.0102	2,378.91	64.61	2,378.91	73.0656	2,378.91	58.8244	2,378.91	72.4126	2,378.91	64.4997	2,378.91	69.6736	2,378.91	69.3719	2,378.91	53.4316	2,378.91	71.4409	2,378.91	65.623
2,462.4	87.4921	2,462.4	83.0282	2,462.4	88.2896	2,462.4	70.4489	2,462.4	85.72	2,462.4	74.909	2,462.4	80.2721	2,462.4	80.6883	2,462.4	71.6834	2,462.4	81.427	2,462.4	66.198	2,462.4	80.5541	2,462.4	73.8244	2,462.4	80.1675	2,462.4	74.3547	2,462.4	78.1319	2,462.4	74.0366	2,462.4	74.0896	2,462.4	73.7249	2,462.4	73.3001	2,462.4	69.2166	2,462.4	73.3571	2,462.4	67.1936	2,462.4	72.581	2,462.4	55.5772	2,462.4	71.5355	2,462.4	66.6818	2,462.4	73.0775	2,462.4	56.5756	2,462.4	73.7778	2,462.4	59.2015	2,462.4	71.0075	2,462.4	69.399	2,462.4	57.9298	2,462.4	72.3195	2,462.4	67.5156
2,548.83	87.9334	2,548.83	84.463	2,548.83	89.1769	2,548.83	72.944	2,548.83	86.8793	2,548.83	76.8753	2,548.83	78.8944	2,548.83	80.6173	2,548.83	67.5881	2,548.83	81.5147	2,548.83	72.1397	2,548.83	81.4792	2,548.83	74.6116	2,548.83	79.7263	2,548.83	70.7029	2,548.83	77.4005	2,548.83	72.3531	2,548.83	75.5665	2,548.83	77.5959	2,548.83	73.7556	2,548.83	73.1314	2,548.83	72.9303	2,548.83	66.8811	2,548.83	73.2199	2,548.83	66.1042	2,548.83	70.5015	2,548.83	68.0138	2,548.83	73.5547	2,548.83	55.0065	2,548.83	73.6101	2,548.83	53.8544	2,548.83	69.034	2,548.83	69.4127	2,548.83	60.6166	2,548.83	73.4247	2,548.83	67.9025
2,639.65	87.1965	2,639.65	84.0996	2,639.65	88.3931	2,639.65	74.2238	2,639.65	87.2403	2,639.65	76.9732	2,639.65	80.4318	2,639.65	81.7312	2,639.65	68.0138	2,639.65	83.2304	2,639.65	76.7574	2,639.65	82.5068	2,639.65	78.1191	2,639.65	81.4591	2,639.65	75.867	2,639.65	78.942	2,639.65	68.1744	2,639.65	75.612	2,639.65	77.0908	2,639.65	74.5528	2,639.65	74.9689	2,639.65	70.7757	2,639.65	68.0064	2,639.65	73.1632	2,639.65	64.7084	2,639.65	71.2055	2,639.65	68.254	2,639.65	73.6516	2,639.65	53.5629	2,639.65	74.4749	2,639.65	63.9783	2,639.65	69.9969	2,639.65	66.6163	2,639.65	58.1262	2,639.65	73.1364	2,639.65	68.8324
2,731.93	86.773	2,731.93	82.3537	2,731.93	87.2484	2,731.93	76.5019	2,731.93	86.0755	2,731.93	76.5124	2,731.93	80.0738	2,731.93	82.8021	2,731.93	71.7032	2,731.93	82.8869	2,731.93	79.4778	2,731.93	82.5598	2,731.93	79.232	2,731.93	79.7811	2,731.93	77.2083	2,731.93	77.875	2,731.93	72.0523	2,731.93	76.275	2,731.93	73.0618	2,731.93	72.3058	2,731.93	71.5804	2,731.93	72.013	2,731.93	70.2324	2,731.93	73.042	2,731.93	69.1804	2,731.93	71.2608	2,731.93	68.0523	2,731.93	72.694	2,731.93	61.3362	2,731.93	72.8789	2,731.93	60.9229	2,731.93	70.577	2,731.93	67.7051	2,731.93	60.6147	2,731.93	71.0395	2,731.93	63.708
2,828.61	86.9309	2,828.61	83.3562	2,828.61	87.4618	2,828.61	77.2421	2,828.61	84.7866	2,828.61	77.9911	2,828.61	78.5377	2,828.61	82.512	2,828.61	76.1163	2,828.61	83.845	2,828.61	80.5924	2,828.61	82.8673	2,828.61	79.6972	2,828.61	79.8431	2,828.61	79.0743	2,828.61	76.9433	2,828.61	75.5996	2,828.61	75.1219	2,828.61	68.8342	2,828.61	73.6914	2,828.61	68.2918	2,828.61	72.6528	2,828.61	67.8508	2,828.61	71.3688	2,828.61	71.1508	2,828.61	70.6286	2,828.61	64.4837	2,828.61	71.1747	2,828.61	60.1545	2,828.61	72.8767	2,828.61	46.3789	2,828.61	69.7606	2,828.61	66.1445	2,828.61	65.825	2,828.61	71.4199	2,828.61	69.0077
2,928.22	87.3981	2,928.22	85.3122	2,928.22	87.9443	2,928.22	79.7674	2,928.22	84.4592	2,928.22	80.6724	2,928.22	76.6726	2,928.22	83.7935	2,928.22	77.9646	2,928.22	84.5674	2,928.22	81.8238	2,928.22	82.107	2,928.22	80.9001	2,928.22	79.2547	2,928.22	79.5849	2,928.22	78.1596	2,928.22	73.9095	2,928.22	75.9651	2,928.22	57.9967	2,928.22	71.6659	2,928.22	74.3564	2,928.22	67.8758	2,928.22	74.1214	2,928.22	70.1471	2,928.22	68.1245	2,928.22	67.5048	2,928.22	64.3475	2,928.22	71.8564	2,928.22	58.0684	2,928.22	71.1945	2,928.22	51.9209	2,928.22	69.3844	2,928.22	66.4641	2,928.22	63.7339	2,928.22	72.2293	2,928.22	68.3559
3,030.76	87.8109	3,030.76	86.0596	3,030.76	88.041	3,030.76	80.8848	3,030.76	84.9341	3,030.76	82.0443	3,030.76	75.7135	3,030.76	84.4065	3,030.76	80.3599	3,030.76	83.7301	3,030.76	83.4096	3,030.76	81.1906	3,030.76	82.1548	3,030.76	79.6897	3,030.76	80.5546	3,030.76	75.6897	3,030.76	72.5525	3,030.76	72.1521	3,030.76	72.2076	3,030.76	69.6214	3,030.76	77.3582	3,030.76	70.5878	3,030.76	68.8653	3,030.76	70.5013	3,030.76	65.241	3,030.76	68.2863	3,030.76	66.1209	3,030.76	71.3583	3,030.76	62.2169	3,030.76	71.6371	3,030.76	48.5455	3,030.76	69.4039	3,030.76	66.1796	3,030.76	66.88	3,030.76	72.7628	3,030.76	70.104
3,137.7	87.5308	3,137.7	85.9548	3,137.7	87.7035	3,137.7	81.9806	3,137.7	85.4316	3,137.7	83.5242	3,137.7	77.5451	3,137.7	84.7649	3,137.7	81.6137	3,137.7	83.2602	3,137.7	83.8146	3,137.7	81.2398	3,137.7	81.9102	3,137.7	78.0061	3,137.7	80.7829	3,137.7	74.1016	3,137.7	74.023	3,137.7	75.4769	3,137.7	73.6312	3,137.7	72.5231	3,137.7	78.1641	3,137.7	69.7825	3,137.7	68.325	3,137.7	69.7867	3,137.7	51.028	3,137.7	69.9272	3,137.7	66.1223	3,137.7	70.3093	3,137.7	59.8924	3,137.7	71.2665	3,137.7	56.3746	3,137.7	68.6924	3,137.7	65.5844	3,137.7	65.3434	3,137.7	73.1472	3,137.7	71.1115
3,249.02	87.1283	3,249.02	85.4786	3,249.02	86.7074	3,249.02	81.6155	3,249.02	85.2515	3,249.02	84.4262	3,249.02	80.9292	3,249.02	85.173	3,249.02	81.3902	3,249.02	83.4843	3,249.02	82.9052	3,249.02	81.1294	3,249.02	82.6335	3,249.02	78.3653	3,249.02	82.4061	3,249.02	78.7517	3,249.02	78.8006	3,249.02	75.1349	3,249.02	76.2507	3,249.02	70.8782	3,249.02	76.1387	3,249.02	68.6274	3,249.02	66.3604	3,249.02	69.1018	3,249.02	65.1714	3,249.02	69.0959	3,249.02	67.1892	3,249.02	71.0402	3,249.02	66.7134	3,249.02	71.5891	3,249.02	58.1185	3,249.02	69.659	3,249.02	67.5629	3,249.02	62.8922	3,249.02	73.4241	3,249.02	70.3664
3,363.28	87.6835	3,363.28	85.8237	3,363.28	86.0146	3,363.28	83.2844	3,363.28	84.3587	3,363.28	84.3409	3,363.28	81.4541	3,363.28	84.3762	3,363.28	82.3705	3,363.28	83.4714	3,363.28	83.1588	3,363.28	81.2109	3,363.28	84.6357	3,363.28	80.193	3,363.28	83.3201	3,363.28	76.1816	3,363.28	80.2621	3,363.28	71.3239	3,363.28	78.8228	3,363.28	70.8996	3,363.28	74.9433	3,363.28	70.1716	3,363.28	67.4426	3,363.28	69.9759	3,363.28	67.0167	3,363.28	69.6908	3,363.28	65.8217	3,363.28	69.3406	3,363.28	68.4558	3,363.28	70.8286	3,363.28	59.3138	3,363.28	68.0879	3,363.28	68.8886	3,363.28	63.1154	3,363.28	70.7302	3,363.28	65.3598
3,481.93	88.1924	3,481.93	86.4663	3,481.93	86.3154	3,481.93	85.0392	3,481.93	84.1366	3,481.93	84.7168	3,481.93	81.4833	3,481.93	85.2375	3,481.93	82.3011	3,481.93	83.7993	3,481.93	82.786	3,481.93	81.7216	3,481.93	85.888	3,481.93	78.5404	3,481.93	82.4585	3,481.93	76.0529	3,481.93	80.2626	3,481.93	76.4905	3,481.93	76.8931	3,481.93	71.7215	3,481.93	71.2538	3,481.93	69.8754	3,481.93	67.3665	3,481.93	66.7261	3,481.93	67.0187	3,481.93	69.7706	3,481.93	67.4847	3,481.93	70.4362	3,481.93	68.0043	3,481.93	71.1939	3,481.93	61.6813	3,481.93	66.6512	3,481.93	67.8952	3,481.93	66.6937	3,481.93	69.9589	3,481.93	68.7412
3,604.98	88.0682	3,604.98	86.2288	3,604.98	86.485	3,604.98	85.7254	3,604.98	83.7399	3,604.98	85.4366	3,604.98	82.5159	3,604.98	84.3935	3,604.98	81.1165	3,604.98	83.6133	3,604.98	84.7069	3,604.98	81.6767	3,604.98	86.2373	3,604.98	79.2717	3,604.98	82.778	3,604.98	78.3281	3,604.98	78.0458	3,604.98	73.7848	3,604.98	70.493	3,604.98	70.5949	3,604.98	70.9898	3,604.98	70.6129	3,604.98	64.8755	3,604.98	69.3286	3,604.98	63.954	3,604.98	67.5364	3,604.98	64.4805	3,604.98	69.7458	3,604.98	67.754	3,604.98	70.8565	3,604.98	64.6977	3,604.98	67.3714	3,604.98	66.5518	3,604.98	67.6976	3,604.98	70.8331	3,604.98	69.3909
3,732.42	88.2342	3,732.42	86.2661	3,732.42	87.4781	3,732.42	85.5468	3,732.42	83.4505	3,732.42	85.7753	3,732.42	82.6389	3,732.42	85.3735	3,732.42	82.5522	3,732.42	84.1961	3,732.42	84.6755	3,732.42	81.8006	3,732.42	85.2214	3,732.42	79.9675	3,732.42	81.282	3,732.42	75.5543	3,732.42	77.0188	3,732.42	74.4266	3,732.42	64.8405	3,732.42	70.8256	3,732.42	73.699	3,732.42	67.402	3,732.42	57.8948	3,732.42	69.5595	3,732.42	56.5139	3,732.42	68.4956	3,732.42	60.9285	3,732.42	69.5046	3,732.42	65.0155	3,732.42	68.8214	3,732.42	62.7704	3,732.42	66.6779	3,732.42	65.8291	3,732.42	67.2767	3,732.42	71.0297	3,732.42	69.6013
3,864.26	87.5252	3,864.26	87.3796	3,864.26	87.8976	3,864.26	86.4398	3,864.26	85.6155	3,864.26	85.7645	3,864.26	83.4466	3,864.26	85.3065	3,864.26	83.4327	3,864.26	84.1417	3,864.26	85.3947	3,864.26	82.5944	3,864.26	84.6662	3,864.26	78.3421	3,864.26	82.1267	3,864.26	77.8178	3,864.26	72.6901	3,864.26	75.4445	3,864.26	67.4501	3,864.26	71.3354	3,864.26	70.0543	3,864.26	67.2073	3,864.26	67.3715	3,864.26	65.2063	3,864.26	65.3242	3,864.26	67.7286	3,864.26	64.9717	3,864.26	68.2027	3,864.26	65.513	3,864.26	69.9808	3,864.26	62.5053	3,864.26	65.6427	3,864.26	67.3207	3,864.26	63.3233	3,864.26	70.7981	3,864.26	69.9095
4,000.49	86.9809	4,000.49	87.5498	4,000.49	85.9891	4,000.49	86.5812	4,000.49	86.3246	4,000.49	85.7754	4,000.49	85.0559	4,000.49	85.2682	4,000.49	84.2256	4,000.49	84.9678	4,000.49	85.3719	4,000.49	81.8869	4,000.49	84.9501	4,000.49	79.357	4,000.49	80.5319	4,000.49	76.9746	4,000.49	75.5137	4,000.49	68.9677	4,000.49	71.8317	4,000.49	69.3839	4,000.49	74.2085	4,000.49	67.7332	4,000.49	73.8779	4,000.49	66.3007	4,000.49	59.1756	4,000.49	66.0433	4,000.49	62.7127	4,000.49	65.3153	4,000.49	63.3556	4,000.49	68.5728	4,000.49	66.293	4,000.49	66.6265	4,000.49	65.6355	4,000.49	60.8546	4,000.49	67.41	4,000.49	67.6257
4,141.11	87.7482	4,141.11	87.3406	4,141.11	87.0749	4,141.11	85.8825	4,141.11	86.0725	4,141.11	86.3939	4,141.11	86.1417	4,141.11	86.3701	4,141.11	84.056	4,141.11	83.9518	4,141.11	85.0699	4,141.11	80.9674	4,141.11	84.0586	4,141.11	77.1622	4,141.11	76.8297	4,141.11	72.0037	4,141.11	76.1718	4,141.11	74.1264	4,141.11	75.8217	4,141.11	67.2617	4,141.11	75.3256	4,141.11	65.3861	4,141.11	71.5407	4,141.11	62.3377	4,141.11	65.373	4,141.11	63.6722	4,141.11	64.0434	4,141.11	62.9572	4,141.11	64.7652	4,141.11	66.0054	4,141.11	65.4077	4,141.11	62.957	4,141.11	66.8929	4,141.11	64.2411	4,141.11	67.1144	4,141.11	69.0445
4,287.6	88.2199	4,287.6	87.7412	4,287.6	87.022	4,287.6	87.131	4,287.6	86.4549	4,287.6	86.1311	4,287.6	86.8071	4,287.6	85.2043	4,287.6	85.1207	4,287.6	83.1576	4,287.6	84.3517	4,287.6	79.8461	4,287.6	82.4863	4,287.6	74.0438	4,287.6	79.9397	4,287.6	77.0603	4,287.6	79.0802	4,287.6	65.7729	4,287.6	76.3159	4,287.6	67.4819	4,287.6	71.2229	4,287.6	65.84	4,287.6	67.9647	4,287.6	65.8914	4,287.6	65.6487	4,287.6	66.2137	4,287.6	70.6337	4,287.6	59.4294	4,287.6	67.5764	4,287.6	64.7571	4,287.6	66.8192	4,287.6	60.897	4,287.6	66.1271	4,287.6	64.1607	4,287.6	68.4628	4,287.6	69.2496
4,438.48	87.6479	4,438.48	87.9987	4,438.48	86.3526	4,438.48	87.3047	4,438.48	86.3969	4,438.48	86.2094	4,438.48	86.6037	4,438.48	85.936	4,438.48	84.7124	4,438.48	82.1628	4,438.48	82.5927	4,438.48	78.6958	4,438.48	76.9967	4,438.48	76.9164	4,438.48	81.4654	4,438.48	69.6814	4,438.48	81.1952	4,438.48	73.4971	4,438.48	74.8073	4,438.48	68.4908	4,438.48	67.4892	4,438.48	65.537	4,438.48	59.6758	4,438.48	65.2816	4,438.48	68.3933	4,438.48	64.9918	4,438.48	71.8788	4,438.48	62.4204	4,438.48	67.9727	4,438.48	62.4572	4,438.48	67.5039	4,438.48	61.0729	4,438.48	65.0971	4,438.48	59.201	4,438.48	68.5328	4,438.48	66.2296
4,595.21	87.1604	4,595.21	87.3435	4,595.21	87.0221	4,595.21	85.6312	4,595.21	86.8254	4,595.21	86.7028	4,595.21	87.1636	4,595.21	84.5221	4,595.21	84.455	4,595.21	81.1707	4,595.21	80.5836	4,595.21	77.8829	4,595.21	80.9552	4,595.21	74.5888	4,595.21	83.1792	4,595.21	76.0488	4,595.21	80.8369	4,595.21	68.3029	4,595.21	75.3958	4,595.21	67.7814	4,595.21	68.8989	4,595.21	65.7703	4,595.21	63.3171	4,595.21	64.9803	4,595.21	65.8735	4,595.21	66.0574	4,595.21	68.8749	4,595.21	67.2141	4,595.21	63.8073	4,595.21	62.1272	4,595.21	65.9016	4,595.21	55.9196	4,595.21	64.4306	4,595.21	54.6083	4,595.21	68.0708	4,595.21	66.8113
4,756.35	88.3685	4,756.35	88.2155	4,756.35	86.3017	4,756.35	87.9422	4,756.35	86.3759	4,756.35	86.8422	4,756.35	87.5041	4,756.35	83.8262	4,756.35	82.7709	4,756.35	81.7069	4,756.35	80.0622	4,756.35	78.3938	4,756.35	83.368	4,756.35	76.4111	4,756.35	81.9798	4,756.35	72.1135	4,756.35	75.939	4,756.35	71.3359	4,756.35	69.5725	4,756.35	68.133	4,756.35	62.1479	4,756.35	67.1212	4,756.35	51.7241	4,756.35	65.5393	4,756.35	65.3834	4,756.35	66.8905	4,756.35	64.5839	4,756.35	66.8082	4,756.35	62.0052	4,756.35	62.5698	4,756.35	65.167	4,756.35	59.1123	4,756.35	63.8026	4,756.35	64.3691	4,756.35	66.8278	4,756.35	65.948
4,924.8	88.5204	4,924.8	88.2513	4,924.8	87.5198	4,924.8	87.2135	4,924.8	86.147	4,924.8	86.2315	4,924.8	86.2913	4,924.8	84.2717	4,924.8	83.2518	4,924.8	80.8158	4,924.8	79.0057	4,924.8	77.9598	4,924.8	83.6709	4,924.8	74.9747	4,924.8	79.786	4,924.8	75.482	4,924.8	71.3156	4,924.8	70.5052	4,924.8	70.6626	4,924.8	68.5345	4,924.8	64.2954	4,924.8	61.4342	4,924.8	68.5181	4,924.8	64.0669	4,924.8	61.0675	4,924.8	64.1203	4,924.8	61.4883	4,924.8	65.33	4,924.8	58.0206	4,924.8	63.8766	4,924.8	65.0375	4,924.8	55.3121	4,924.8	62.9939	4,924.8	63.039	4,924.8	67.1889	4,924.8	66.3823
5,097.66	87.9055	5,097.66	87.7387	5,097.66	87.022	5,097.66	87.3762	5,097.66	87.5178	5,097.66	86.0015	5,097.66	84.817	5,097.66	83.5347	5,097.66	82.4031	5,097.66	80.5712	5,097.66	79.1898	5,097.66	78.0536	5,097.66	82.7946	5,097.66	75.831	5,097.66	76.8024	5,097.66	71.4312	5,097.66	73.1819	5,097.66	68.2517	5,097.66	69.1121	5,097.66	65.3518	5,097.66	59.2211	5,097.66	62.9713	5,097.66	68.5536	5,097.66	62.2201	5,097.66	46.9768	5,097.66	64.8008	5,097.66	53.7982	5,097.66	64.1073	5,097.66	64.2547	5,097.66	59.2185	5,097.66	63.6131	5,097.66	60.0859	5,097.66	61.2332	5,097.66	58.1792	5,097.66	67.1458	5,097.66	66.8582
5,277.83	88.5001	5,277.83	88.3344	5,277.83	87.4636	5,277.83	87.7683	5,277.83	86.9717	5,277.83	85.8571	5,277.83	85.1591	5,277.83	83.7081	5,277.83	81.8304	5,277.83	80.3385	5,277.83	80.663	5,277.83	77.6089	5,277.83	80.3445	5,277.83	73.3621	5,277.83	74.4051	5,277.83	72.1104	5,277.83	71.3576	5,277.83	66.9389	5,277.83	70.5621	5,277.83	65.0666	5,277.83	53.0558	5,277.83	62.7902	5,277.83	64.4402	5,277.83	62.2939	5,277.83	55.5552	5,277.83	65.1286	5,277.83	41.5749	5,277.83	63.5977	5,277.83	64.7663	5,277.83	63.4795	5,277.83	65.473	5,277.83	56.0159	5,277.83	62.0483	5,277.83	52.281	5,277.83	66.6443	5,277.83	61.0989
5,463.87	88.7013	5,463.87	88.5428	5,463.87	87.6761	5,463.87	87.5272	5,463.87	87.0702	5,463.87	85.7168	5,463.87	86.8779	5,463.87	83.0119	5,463.87	82.4262	5,463.87	80.0966	5,463.87	80.1129	5,463.87	75.0905	5,463.87	77.3042	5,463.87	72.1747	5,463.87	72.6054	5,463.87	69.0634	5,463.87	70.168	5,463.87	69.9255	5,463.87	69.055	5,463.87	65.404	5,463.87	60.5609	5,463.87	63.9807	5,463.87	63.029	5,463.87	61.1757	5,463.87	49.2617	5,463.87	62.8012	5,463.87	56.6354	5,463.87	65.2603	5,463.87	60.5129	5,463.87	61.8556	5,463.87	62.4266	5,463.87	60.0401	5,463.87	60.1613	5,463.87	54.2927	5,463.87	65.6738	5,463.87	64.8067
5,657.23	88.7291	5,657.23	88.1798	5,657.23	87.9283	5,657.23	87.473	5,657.23	87.5468	5,657.23	85.6134	5,657.23	86.6018	5,657.23	82.9914	5,657.23	82.2735	5,657.23	79.2478	5,657.23	77.6594	5,657.23	74.1618	5,657.23	75.675	5,657.23	73.4309	5,657.23	74.6138	5,657.23	71.1213	5,657.23	71.0119	5,657.23	65.9132	5,657.23	64.7434	5,657.23	64.5041	5,657.23	45.8724	5,657.23	62.23	5,657.23	61.4219	5,657.23	61.1109	5,657.23	47.1397	5,657.23	64.5093	5,657.23	58.4088	5,657.23	64.1859	5,657.23	59.9559	5,657.23	63.263	5,657.23	64.2762	5,657.23	60.6703	5,657.23	63.0133	5,657.23	60.5613	5,657.23	65.9447	5,657.23	62.3835
5,856.45	88.6357	5,856.45	88.6198	5,856.45	87.9284	5,856.45	87.4885	5,856.45	87.6806	5,856.45	84.6551	5,856.45	86.073	5,856.45	82.6037	5,856.45	81.4834	5,856.45	78.3161	5,856.45	76.2037	5,856.45	74.0815	5,856.45	74.7084	5,856.45	72.9979	5,856.45	75.3246	5,856.45	68.9266	5,856.45	72.0783	5,856.45	69.4357	5,856.45	69.7845	5,856.45	63.2893	5,856.45	63.0646	5,856.45	61.6781	5,856.45	64.4003	5,856.45	61.0682	5,856.45	49.2748	5,856.45	62.4788	5,856.45	56.4881	5,856.45	65.7836	5,856.45	53.6204	5,856.45	63.4174	5,856.45	62.2816	5,856.45	57.9484	5,856.45	62.11	5,856.45	58.5056	5,856.45	65.8954	5,856.45	61.4198
6,062.99	89.2268	6,062.99	88.607	6,062.99	88.0837	6,062.99	87.3242	6,062.99	85.4135	6,062.99	85.3174	6,062.99	85.8213	6,062.99	81.8214	6,062.99	80.5677	6,062.99	77.5946	6,062.99	74.7609	6,062.99	74.3806	6,062.99	74.3729	6,062.99	72.3718	6,062.99	74.8686	6,062.99	66.6881	6,062.99	72.2344	6,062.99	63.9058	6,062.99	71.2167	6,062.99	62.8234	6,062.99	63.4959	6,062.99	57.6716	6,062.99	59.2684	6,062.99	58.3282	6,062.99	58.4482	6,062.99	60.6849	6,062.99	52.6782	6,062.99	64.1335	6,062.99	60.0559	6,062.99	64.0159	6,062.99	63.3158	6,062.99	61.2242	6,062.99	58.6708	6,062.99	55.1675	6,062.99	61.1611	6,062.99	60.324
6,276.86	88.5479	6,276.86	88.6561	6,276.86	88.504	6,276.86	87.0455	6,276.86	86.8963	6,276.86	84.9791	6,276.86	84.0806	6,276.86	81.183	6,276.86	80.5329	6,276.86	76.9927	6,276.86	70.4571	6,276.86	73.6359	6,276.86	73.3872	6,276.86	69.9841	6,276.86	74.8829	6,276.86	67.6616	6,276.86	71.8401	6,276.86	65.3832	6,276.86	68.1193	6,276.86	63.774	6,276.86	66.0529	6,276.86	59.7734	6,276.86	63.2504	6,276.86	60.3663	6,276.86	58.7382	6,276.86	61.7784	6,276.86	56.0476	6,276.86	63.7516	6,276.86	53.6202	6,276.86	63.2431	6,276.86	59.3057	6,276.86	64.0679	6,276.86	57.5864	6,276.86	58.6619	6,276.86	62.3636	6,276.86	61.4679
6,498.05	88.9026	6,498.05	88.929	6,498.05	88.4059	6,498.05	87.0549	6,498.05	87.3132	6,498.05	84.9272	6,498.05	84.0539	6,498.05	80.7203	6,498.05	78.5612	6,498.05	76.9012	6,498.05	73.2465	6,498.05	71.8936	6,498.05	70.1257	6,498.05	70.2067	6,498.05	74.7907	6,498.05	66.2466	6,498.05	67.1559	6,498.05	67.1095	6,498.05	69.0703	6,498.05	62.4645	6,498.05	69.1689	6,498.05	57.6766	6,498.05	63.7696	6,498.05	59.3449	6,498.05	55.1836	6,498.05	61.2066	6,498.05	58.2346	6,498.05	64.1105	6,498.05	53.2406	6,498.05	63.8203	6,498.05	61.2569	6,498.05	65.1746	6,498.05	57.6751	6,498.05	60.6689	6,498.05	61.1187	6,498.05	58.7174
6,726.56	89.0702	6,726.56	88.7342	6,726.56	88.6113	6,726.56	86.827	6,726.56	86.7822	6,726.56	84.5229	6,726.56	83.946	6,726.56	79.4643	6,726.56	79.5699	6,726.56	76.4401	6,726.56	72.1936	6,726.56	71.0103	6,726.56	72.2262	6,726.56	70.3062	6,726.56	73.8506	6,726.56	65.6558	6,726.56	64.295	6,726.56	65.6082	6,726.56	61.3802	6,726.56	62.2852	6,726.56	62.9884	6,726.56	60.9049	6,726.56	62.0368	6,726.56	59.5524	6,726.56	54.5024	6,726.56	60.8801	6,726.56	52.6734	6,726.56	64.3746	6,726.56	56.8322	6,726.56	63.0273	6,726.56	60.4469	6,726.56	64.8466	6,726.56	58.1071	6,726.56	61.6381	6,726.56	62.0706	6,726.56	58.3206
6,963.87	88.9312	6,963.87	88.4042	6,963.87	88.1474	6,963.87	86.927	6,963.87	86.5903	6,963.87	83.7792	6,963.87	84.0304	6,963.87	80.0717	6,963.87	80.0939	6,963.87	74.6732	6,963.87	71.0132	6,963.87	72.8255	6,963.87	73.0825	6,963.87	69.2097	6,963.87	68.2383	6,963.87	68.0754	6,963.87	71.1041	6,963.87	66.2994	6,963.87	67.6828	6,963.87	62.7187	6,963.87	61.2089	6,963.87	57.888	6,963.87	51.3888	6,963.87	58.29	6,963.87	49.3439	6,963.87	63.5612	6,963.87	55.7512	6,963.87	64.3545	6,963.87	53.9459	6,963.87	63.1083	6,963.87	58.6688	6,963.87	65.1961	6,963.87	58.3257	6,963.87	63.0139	6,963.87	63.3813	6,963.87	55.7969
7,209.96	89.3314	7,209.96	88.6925	7,209.96	88.2815	7,209.96	86.9585	7,209.96	86.4454	7,209.96	82.9439	7,209.96	83.6305	7,209.96	79.628	7,209.96	79.5853	7,209.96	74.6311	7,209.96	72.436	7,209.96	71.063	7,209.96	71.8637	7,209.96	69.9633	7,209.96	70.8966	7,209.96	66.1045	7,209.96	73.9571	7,209.96	66.3167	7,209.96	67.2212	7,209.96	61.589	7,209.96	59.0045	7,209.96	60.8045	7,209.96	53.3003	7,209.96	56.5027	7,209.96	41.5803	7,209.96	59.736	7,209.96	55.4466	7,209.96	64.7848	7,209.96	48.4045	7,209.96	64.1923	7,209.96	58.9064	7,209.96	66.071	7,209.96	53.0834	7,209.96	63.7028	7,209.96	60.6812	7,209.96	55.9023
7,464.84	89.191	7,464.84	88.2813	7,464.84	88.8026	7,464.84	86.6304	7,464.84	86.5344	7,464.84	83.1215	7,464.84	82.3781	7,464.84	79.5765	7,464.84	79.0504	7,464.84	74.6692	7,464.84	73.4407	7,464.84	71.8255	7,464.84	67.2649	7,464.84	72.0061	7,464.84	76.5927	7,464.84	68.7329	7,464.84	73.3678	7,464.84	67.7279	7,464.84	70.7254	7,464.84	63.9867	7,464.84	63.8143	7,464.84	57.7207	7,464.84	58.821	7,464.84	60.0161	7,464.84	48.4689	7,464.84	63.5743	7,464.84	42.7422	7,464.84	64.47	7,464.84	51.2592	7,464.84	64.6638	7,464.84	55.7351	7,464.84	66.6386	7,464.84	52.569	7,464.84	64.2784	7,464.84	61.4679	7,464.84	50.8224
7,727.05	88.7856	7,727.05	88.4214	7,727.05	88.053	7,727.05	86.4211	7,727.05	86.2798	7,727.05	82.6344	7,727.05	80.9145	7,727.05	79.0716	7,727.05	77.6681	7,727.05	75.2512	7,727.05	75.5836	7,727.05	73.315	7,727.05	68.6522	7,727.05	72.748	7,727.05	76.9071	7,727.05	70.3625	7,727.05	68.5387	7,727.05	66.6544	7,727.05	69.3286	7,727.05	64.6267	7,727.05	64.9874	7,727.05	61.343	7,727.05	63.2361	7,727.05	58.4956	7,727.05	49.2967	7,727.05	62.0209	7,727.05	44.4825	7,727.05	64.8598	7,727.05	55.6529	7,727.05	64.4904	7,727.05	55.3777	7,727.05	66.8168	7,727.05	54.7511	7,727.05	64.1235	7,727.05	60.4872	7,727.05	52.9663
7,999.51	88.6646	7,999.51	88.2453	7,999.51	88.2666	7,999.51	85.5667	7,999.51	85.9728	7,999.51	82.844	7,999.51	81.0258	7,999.51	78.8904	7,999.51	78.1747	7,999.51	75.1057	7,999.51	75.2347	7,999.51	74.3898	7,999.51	72.5971	7,999.51	73.1858	7,999.51	73.1352	7,999.51	69.9819	7,999.51	68.2108	7,999.51	67.844	7,999.51	61.0799	7,999.51	63.7417	7,999.51	64.5473	7,999.51	57.2524	7,999.51	57.1448	7,999.51	58.6905	7,999.51	52.4758	7,999.51	59.8998	7,999.51	56.8296	7,999.51	63.088	7,999.51	55.4927	7,999.51	64.6667	7,999.51	56.4775	7,999.51	66.8767	7,999.51	49.8541	7,999.51	62.9064	7,999.51	58.705	7,999.51	48.986
8,282.23	88.6248	8,282.23	87.6547	8,282.23	87.8998	8,282.23	85.3836	8,282.23	85.4081	8,282.23	82.7795	8,282.23	82.1074	8,282.23	77.9195	8,282.23	77.4997	8,282.23	76.0114	8,282.23	75.5016	8,282.23	74.5712	8,282.23	71.7041	8,282.23	73.4191	8,282.23	69.5801	8,282.23	68.8899	8,282.23	73.0124	8,282.23	65.758	8,282.23	67.2051	8,282.23	62.2351	8,282.23	63.2514	8,282.23	58.8401	8,282.23	50.5607	8,282.23	57.6012	8,282.23	52.7099	8,282.23	59.4244	8,282.23	50.5894	8,282.23	60.5872	8,282.23	47.6508	8,282.23	63.8475	8,282.23	52.6822	8,282.23	65.3335	8,282.23	54.3979	8,282.23	61.2042	8,282.23	57.9159	8,282.23	51.6495
8,573.73	88.6278	8,573.73	87.1659	8,573.73	87.8861	8,573.73	85.0892	8,573.73	85.0616	8,573.73	81.9897	8,573.73	80.8729	8,573.73	78.5329	8,573.73	76.6038	8,573.73	75.4564	8,573.73	76.4047	8,573.73	75.1038	8,573.73	71.3485	8,573.73	72.1118	8,573.73	71.6745	8,573.73	68.6214	8,573.73	71.2576	8,573.73	66.4157	8,573.73	66.9288	8,573.73	62.9581	8,573.73	61.8112	8,573.73	56.5439	8,573.73	51.2147	8,573.73	54.7186	8,573.73	54.2433	8,573.73	60.5924	8,573.73	49.0478	8,573.73	61.2055	8,573.73	48.878	8,573.73	62.33	8,573.73	50.2765	8,573.73	64.1827	8,573.73	48.9757	8,573.73	61.3675	8,573.73	57.0749	8,573.73	49.7846
8,876.95	88.3673	8,876.95	87.2608	8,876.95	87.4429	8,876.95	85.1328	8,876.95	84.1733	8,876.95	81.6221	8,876.95	79.1928	8,876.95	78.2467	8,876.95	78.5177	8,876.95	75.9787	8,876.95	76.5819	8,876.95	74.7729	8,876.95	69.3016	8,876.95	72.6136	8,876.95	74.3141	8,876.95	67.5082	8,876.95	69.2929	8,876.95	64.1952	8,876.95	64.5858	8,876.95	61.9213	8,876.95	62.6091	8,876.95	54.622	8,876.95	62.8339	8,876.95	54.1443	8,876.95	51.5754	8,876.95	59.9473	8,876.95	48.2808	8,876.95	60.3665	8,876.95	52.9472	8,876.95	58.5707	8,876.95	49.6694	8,876.95	63.1779	8,876.95	51.3099	8,876.95	61.2777	8,876.95	57.7047	8,876.95	52.2471
9,188.96	88.2243	9,188.96	87.037	9,188.96	87.1996	9,188.96	84.7985	9,188.96	84.4473	9,188.96	81.2498	9,188.96	80.5133	9,188.96	77.822	9,188.96	78.0587	9,188.96	75.8634	9,188.96	77.2163	9,188.96	73.6554	9,188.96	68.9139	9,188.96	69.9801	9,188.96	70.5453	9,188.96	64.4783	9,188.96	70.1815	9,188.96	60.6147	9,188.96	63.4991	9,188.96	60.7578	9,188.96	64.8048	9,188.96	50.3972	9,188.96	61.9845	9,188.96	52.8618	9,188.96	45.0341	9,188.96	58.8334	9,188.96	46.6688	9,188.96	57.8101	9,188.96	46.602	9,188.96	56.0306	9,188.96	44.2036	9,188.96	60.7584	9,188.96	49.3584	9,188.96	60.1858	9,188.96	55.2214	9,188.96	46.1183
9,514.16	88.2664	9,514.16	86.9777	9,514.16	86.9122	9,514.16	84.8143	9,514.16	84.4691	9,514.16	80.9478	9,514.16	81.2422	9,514.16	77.9307	9,514.16	75.9035	9,514.16	75.3482	9,514.16	75.9469	9,514.16	72.0512	9,514.16	71.1894	9,514.16	68.8687	9,514.16	65.0398	9,514.16	65.1056	9,514.16	70.3795	9,514.16	61.4561	9,514.16	56.5249	9,514.16	57.1644	9,514.16	65.4262	9,514.16	55.1456	9,514.16	62.3235	9,514.16	52.1638	9,514.16	47.6167	9,514.16	56.4291	9,514.16	41.9657	9,514.16	56.9553	9,514.16	45.2463	9,514.16	57.8784	9,514.16	35.0239	9,514.16	61.6791	9,514.16	50.1484	9,514.16	60.5611	9,514.16	57.5575	9,514.16	53.8382
9,849.61	88.3955	9,849.61	87.2083	9,849.61	87.1291	9,849.61	85.0041	9,849.61	83.5223	9,849.61	80.4772	9,849.61	79.8074	9,849.61	77.6922	9,849.61	76.5118	9,849.61	74.3516	9,849.61	72.9971	9,849.61	71.0092	9,849.61	68.9864	9,849.61	67.9509	9,849.61	65.8188	9,849.61	63.2	9,849.61	68.0737	9,849.61	59.5996	9,849.61	55.8965	9,849.61	57.4136	9,849.61	62.6667	9,849.61	50.3729	9,849.61	60.3099	9,849.61	51.1825	9,849.61	49.1416	9,849.61	54.2347	9,849.61	45.4751	9,849.61	54.8629	9,849.61	45.6478	9,849.61	54.6781	9,849.61	40.2405	9,849.61	61.3952	9,849.61	52.8886	9,849.61	60.2026	9,849.61	57.1232	9,849.61	52.0176
10,196.8	88.61	10,196.8	87.7369	10,196.8	87.5444	10,196.8	84.8302	10,196.8	83.8525	10,196.8	80.1562	10,196.8	78.7116	10,196.8	76.5322	10,196.8	75.6444	10,196.8	73.2375	10,196.8	72.0233	10,196.8	69.7967	10,196.8	68.4194	10,196.8	65.974	10,196.8	66.3062	10,196.8	62.9333	10,196.8	67.7901	10,196.8	59.1479	10,196.8	56.183	10,196.8	57.2936	10,196.8	56.9079	10,196.8	50.5519	10,196.8	52.0295	10,196.8	48.8797	10,196.8	41.6322	10,196.8	56.3515	10,196.8	42.3177	10,196.8	55.7944	10,196.8	43.7827	10,196.8	53.6933	10,196.8	37.9374	10,196.8	59.0954	10,196.8	50.4068	10,196.8	60.2123	10,196.8	55.2314	10,196.8	52.5335
10,555.7	88.8841	10,555.7	87.8135	10,555.7	87.764	10,555.7	84.3938	10,555.7	83.6844	10,555.7	79.956	10,555.7	78.5561	10,555.7	75.6351	10,555.7	75.2143	10,555.7	72.7921	10,555.7	72.9242	10,555.7	69.9528	10,555.7	64.9707	10,555.7	65.4097	10,555.7	65.9616	10,555.7	64.334	10,555.7	66.8917	10,555.7	58.6228	10,555.7	53.2865	10,555.7	57.6472	10,555.7	62.302	10,555.7	54.7564	10,555.7	57.8901	10,555.7	45.365	10,555.7	49.2748	10,555.7	52.3895	10,555.7	50.4411	10,555.7	55.0377	10,555.7	41.8475	10,555.7	56.1889	10,555.7	34.5061	10,555.7	59.5507	10,555.7	49.0502	10,555.7	60.7079	10,555.7	53.2329	10,555.7	51.3312
10,927.7	89.4218	10,927.7	88.0074	10,927.7	88.0031	10,927.7	84.1086	10,927.7	83.9227	10,927.7	79.424	10,927.7	78.8486	10,927.7	75.8544	10,927.7	74.1801	10,927.7	72.4027	10,927.7	73.0652	10,927.7	70.468	10,927.7	68.1968	10,927.7	66.1186	10,927.7	64.2241	10,927.7	63.334	10,927.7	63.2047	10,927.7	58.3232	10,927.7	49.0812	10,927.7	56.0971	10,927.7	64.0653	10,927.7	49.1308	10,927.7	62.3789	10,927.7	52.7902	10,927.7	45.7295	10,927.7	55.3212	10,927.7	46.3662	10,927.7	53.8346	10,927.7	49.6177	10,927.7	54.2198	10,927.7	38.5871	10,927.7	58.8395	10,927.7	49.7629	10,927.7	61.6039	10,927.7	52.5542	10,927.7	53.0767
11,313	89.6881	11,313	88.2529	11,313	88.0697	11,313	84.0221	11,313	83.5743	11,313	79.2041	11,313	77.9408	11,313	76.1581	11,313	75.1541	11,313	72.2161	11,313	71.7148	11,313	70.4015	11,313	67.9744	11,313	66.7293	11,313	60.2101	11,313	62.9117	11,313	64.7158	11,313	58.358	11,313	53.7977	11,313	55.6944	11,313	65.5199	11,313	49.4594	11,313	64.475	11,313	45.0004	11,313	46.247	11,313	54.149	11,313	26.5463	11,313	54.2839	11,313	42.4378	11,313	55.0873	11,313	29.6889	11,313	57.6889	11,313	45.6865	11,313	60.7977	11,313	51.2304	11,313	53.2934
11,712.9	89.8169	11,712.9	88.3953	11,712.9	88.4579	11,712.9	84.181	11,712.9	84.0315	11,712.9	79.5476	11,712.9	76.7902	11,712.9	75.6876	11,712.9	74.4047	11,712.9	72.0127	11,712.9	71.4317	11,712.9	70.5414	11,712.9	67.5531	11,712.9	65.3512	11,712.9	63.7058	11,712.9	62.5617	11,712.9	65.6657	11,712.9	58.3195	11,712.9	44.32	11,712.9	55.5085	11,712.9	67.8209	11,712.9	49.8495	11,712.9	67.2643	11,712.9	43.937	11,712.9	53.3784	11,712.9	50.7873	11,712.9	46.2521	11,712.9	52.7694	11,712.9	44.1444	11,712.9	53.6709	11,712.9	46.4365	11,712.9	55.5902	11,712.9	42.2778	11,712.9	59.8227	11,712.9	53.8801	11,712.9	51.9452
12,126	90.0502	12,126	88.6483	12,126	88.468	12,126	84.4924	12,126	84.395	12,126	79.4334	12,126	78.9627	12,126	75.0949	12,126	73.8709	12,126	71.5745	12,126	71.065	12,126	69.9089	12,126	66.7402	12,126	63.4598	12,126	62.9309	12,126	61.0019	12,126	60.7113	12,126	56.7779	12,126	47.4059	12,126	54.6816	12,126	68.9374	12,126	45.3914	12,126	69.2555	12,126	49.5568	12,126	54.6838	12,126	50.6588	12,126	46.9802	12,126	53.0321	12,126	38.4385	12,126	52.7006	12,126	44.722	12,126	53.5487	12,126	42.7777	12,126	59.4344	12,126	52.4859	12,126	52.3263
12,553.7	90.2864	12,553.7	89.0073	12,553.7	88.4147	12,553.7	84.5546	12,553.7	84.3235	12,553.7	78.9998	12,553.7	78.7514	12,553.7	74.9776	12,553.7	74.4242	12,553.7	72.106	12,553.7	71.168	12,553.7	68.461	12,553.7	64.1037	12,553.7	61.4633	12,553.7	56.1843	12,553.7	60.2545	12,553.7	61.4363	12,553.7	57.4382	12,553.7	52.1643	12,553.7	55.1771	12,553.7	70.2154	12,553.7	48.8713	12,553.7	70.1544	12,553.7	47.2655	12,553.7	56.1109	12,553.7	52.8859	12,553.7	41.4792	12,553.7	53.6039	12,553.7	49.8827	12,553.7	54.8468	12,553.7	40.6413	12,553.7	51.7901	12,553.7	44.2599	12,553.7	58.6372	12,553.7	48.8309	12,553.7	52.0945
12,996.1	90.3966	12,996.1	89.3772	12,996.1	88.5176	12,996.1	84.8541	12,996.1	84.6398	12,996.1	79.2608	12,996.1	78.4058	12,996.1	75.1936	12,996.1	73.73	12,996.1	71.1027	12,996.1	72.0224	12,996.1	66.2592	12,996.1	64.2622	12,996.1	60.6063	12,996.1	58.4259	12,996.1	61.6846	12,996.1	61.0503	12,996.1	58.6043	12,996.1	57.3904	12,996.1	56.1748	12,996.1	70.7239	12,996.1	50.2445	12,996.1	70.4986	12,996.1	38.1462	12,996.1	57.795	12,996.1	51.8888	12,996.1	42.86	12,996.1	53.3883	12,996.1	48.1189	12,996.1	54.2374	12,996.1	45.2401	12,996.1	50.9127	12,996.1	37.7828	12,996.1	57.2959	12,996.1	46.7617	12,996.1	50.6218
13,454.6	90.5128	13,454.6	89.5774	13,454.6	88.8096	13,454.6	85.2105	13,454.6	84.8239	13,454.6	79.5	13,454.6	78.8135	13,454.6	75.261	13,454.6	73.9499	13,454.6	69.0094	13,454.6	69.4958	13,454.6	65.1014	13,454.6	64.2232	13,454.6	64.3921	13,454.6	61.7234	13,454.6	62.5691	13,454.6	61.6435	13,454.6	58.8394	13,454.6	59.792	13,454.6	56.0827	13,454.6	70.986	13,454.6	44.1975	13,454.6	70.9385	13,454.6	40.5484	13,454.6	57.5575	13,454.6	51.6069	13,454.6	44.5008	13,454.6	53.11	13,454.6	41.7958	13,454.6	53.4858	13,454.6	45.2097	13,454.6	46.9414	13,454.6	34.2038	13,454.6	56.2107	13,454.6	46.1463	13,454.6	49.743
13,929.2	90.4502	13,929.2	89.4143	13,929.2	88.8245	13,929.2	85.1651	13,929.2	84.7569	13,929.2	78.9575	13,929.2	77.9462	13,929.2	74.2266	13,929.2	73.1533	13,929.2	66.7048	13,929.2	69.4614	13,929.2	66.9892	13,929.2	65.4238	13,929.2	65.0262	13,929.2	65.7557	13,929.2	62.8375	13,929.2	58.5217	13,929.2	58.2838	13,929.2	58.7389	13,929.2	54.2756	13,929.2	71.2528	13,929.2	44.588	13,929.2	71.4178	13,929.2	40.9901	13,929.2	60.1212	13,929.2	51.0243	13,929.2	38.4314	13,929.2	52.2757	13,929.2	42.9232	13,929.2	52.0634	13,929.2	38.7321	13,929.2	45.2218	13,929.2	46.0099	13,929.2	54.5898	13,929.2	33.8877	13,929.2	48.3029
14,419.9	90.6814	14,419.9	89.3649	14,419.9	88.7652	14,419.9	84.764	14,419.9	83.7604	14,419.9	77.5827	14,419.9	76.131	14,419.9	72.3653	14,419.9	71.8565	14,419.9	66.2508	14,419.9	69.8694	14,419.9	67.9809	14,419.9	65.9272	14,419.9	64.9572	14,419.9	64.3052	14,419.9	61.553	14,419.9	61.655	14,419.9	55.4487	14,419.9	60.188	14,419.9	51.322	14,419.9	71.7261	14,419.9	44.2942	14,419.9	72.3589	14,419.9	39.146	14,419.9	61.1603	14,419.9	48.5065	14,419.9	37.4842	14,419.9	48.8169	14,419.9	42.6993	14,419.9	47.9874	14,419.9	19.7874	14,419.9	36.0278	14,419.9	45.1389	14,419.9	52.4492	14,419.9	33.5758	14,419.9	49.4952
14,928.2	90.593	14,928.2	89.0928	14,928.2	88.498	14,928.2	83.8769	14,928.2	82.53	14,928.2	76.2342	14,928.2	74.8208	14,928.2	71.2175	14,928.2	70.9321	14,928.2	68.1391	14,928.2	68.7616	14,928.2	68.3827	14,928.2	67.2754	14,928.2	63.0243	14,928.2	63.1647	14,928.2	59.3126	14,928.2	58.8274	14,928.2	53.395	14,928.2	59.4154	14,928.2	47.4423	14,928.2	71.4578	14,928.2	45.2597	14,928.2	71.8612	14,928.2	35.8416	14,928.2	60.3596	14,928.2	46.0917	14,928.2	36.6754	14,928.2	45.9455	14,928.2	38.7653	14,928.2	45.8757	14,928.2	36.8785	14,928.2	37.9674	14,928.2	47.4501	14,928.2	51.6816	14,928.2	29.041	14,928.2	47.695
15,455.6	89.9315	15,455.6	88.2605	15,455.6	87.6624	15,455.6	82.598	15,455.6	81.1733	15,455.6	75.056	15,455.6	74.0276	15,455.6	70.6674	15,455.6	70.1404	15,455.6	68.2838	15,455.6	68.8845	15,455.6	67.351	15,455.6	64.6846	15,455.6	59.9257	15,455.6	62.1312	15,455.6	57.0886	15,455.6	52.7723	15,455.6	51.4203	15,455.6	58.1772	15,455.6	45.7572	15,455.6	71.0158	15,455.6	43.7225	15,455.6	71.954	15,455.6	34.422	15,455.6	60.3554	15,455.6	46.6116	15,455.6	42.3143	15,455.6	45.6317	15,455.6	30.9346	15,455.6	48.1542	15,455.6	33.3941	15,455.6	39.5451	15,455.6	46.0147	15,455.6	50.1869	15,455.6	33.2222	15,455.6	43.2841
16,000.5	88.6538	16,000.5	86.8502	16,000.5	86.2605	16,000.5	80.5558	16,000.5	79.3669	16,000.5	73.8732	16,000.5	73.1218	16,000.5	70.0676	16,000.5	68.2448	16,000.5	66.8181	16,000.5	66.0335	16,000.5	65.1027	16,000.5	63.4175	16,000.5	58.0111	16,000.5	57.9452	16,000.5	55.7204	16,000.5	51.8161	16,000.5	50.1648	16,000.5	55.6415	16,000.5	47.0287	16,000.5	69.5492	16,000.5	39.4291	16,000.5	70.4774	16,000.5	37.4207	16,000.5	58.4004	16,000.5	45.0753	16,000.5	34.2764	16,000.5	44.9236	16,000.5	21.973	16,000.5	45.5839	16,000.5	29.5443	16,000.5	37.8217	16,000.5	46.8308	16,000.5	47.5779	16,000.5	34.4582	16,000.5	41.1227
16,564.5	87.1422	16,564.5	85.002	16,564.5	84.436	16,564.5	78.1813	16,564.5	77.52	16,564.5	72.9053	16,564.5	72.2835	16,564.5	68.5034	16,564.5	67.5852	16,564.5	65.2779	16,564.5	64.0055	16,564.5	62.7691	16,564.5	61.6812	16,564.5	57.3168	16,564.5	57.3392	16,564.5	53.5	16,564.5	47.9075	16,564.5	49.5179	16,564.5	52.6995	16,564.5	44.1244	16,564.5	67.745	16,564.5	35.6834	16,564.5	68.4913	16,564.5	38.2342	16,564.5	55.7445	16,564.5	43.7274	16,564.5	36.6338	16,564.5	42.5358	16,564.5	21.0726	16,564.5	40.1065	16,564.5	32.9241	16,564.5	42.8683	16,564.5	40.4196	16,564.5	43.4914	16,564.5	32.1766	16,564.5	37.4295
17,148.9	86.3442	17,148.9	84.1917	17,148.9	83.5068	17,148.9	77.371	17,148.9	76.6156	17,148.9	72.8829	17,148.9	71.645	17,148.9	67.7779	17,148.9	66.7483	17,148.9	64.0592	17,148.9	64.1477	17,148.9	62.9198	17,148.9	60.6484	17,148.9	55.7295	17,148.9	54.8009	17,148.9	51.0799	17,148.9	50.7037	17,148.9	47.5095	17,148.9	50.408	17,148.9	43.3687	17,148.9	66.1383	17,148.9	29.5658	17,148.9	67.1574	17,148.9	35.9415	17,148.9	54.981	17,148.9	41.7015	17,148.9	37.4058	17,148.9	40.2087	17,148.9	32.0611	17,148.9	39.6549	17,148.9	35.9996	17,148.9	45.1698	17,148.9	38.3621	17,148.9	40.2451	17,148.9	39.0237	17,148.9	29.422
17,752.4	87.3228	17,752.4	84.9213	17,752.4	84.396	17,752.4	78.697	17,752.4	77.8353	17,752.4	74.253	17,752.4	72.653	17,752.4	68.8733	17,752.4	68.7076	17,752.4	65.1344	17,752.4	66.0818	17,752.4	64.0006	17,752.4	63.0497	17,752.4	54.0957	17,752.4	55.0528	17,752.4	52.6713	17,752.4	50.2443	17,752.4	49.9624	17,752.4	49.1791	17,752.4	44.5073	17,752.4	66.0695	17,752.4	32.4791	17,752.4	67.461	17,752.4	33.7015	17,752.4	53.4994	17,752.4	42.1795	17,752.4	37.0368	17,752.4	42.717	17,752.4	33.7695	17,752.4	45.1181	17,752.4	33.1108	17,752.4	45.3089	17,752.4	39.0271	17,752.4	45.0596	17,752.4	44.603	17,752.4	35.8877
18,379.4	87.8589	18,379.4	85.5944	18,379.4	85.1514	18,379.4	80.336	18,379.4	79.0112	18,379.4	75.0098	18,379.4	73.0102	18,379.4	70.5868	18,379.4	69.8042	18,379.4	67.7358	18,379.4	69.1383	18,379.4	64.2923	18,379.4	62.9434	18,379.4	54.6473	18,379.4	57.5222	18,379.4	55.5864	18,379.4	50.6905	18,379.4	50.9784	18,379.4	47.271	18,379.4	43.9656	18,379.4	65.4994	18,379.4	37.9457	18,379.4	66.1676	18,379.4	34.695	18,379.4	53.3819	18,379.4	44.9595	18,379.4	41.8785	18,379.4	45.6609	18,379.4	36.379	18,379.4	48.763	18,379.4	33.1027	18,379.4	46.8623	18,379.4	34.4473	18,379.4	46.9264	18,379.4	45.1254	18,379.4	41.2017
19,026.9	87.9793	19,026.9	85.9822	19,026.9	85.1	19,026.9	80.5584	19,026.9	78.692	19,026.9	75.0723	19,026.9	74.3035	19,026.9	71.5537	19,026.9	72.7848	19,026.9	67.0325	19,026.9	68.5505	19,026.9	60.9419	19,026.9	61.0601	19,026.9	51.9188	19,026.9	54.0207	19,026.9	51.3494	19,026.9	50.9057	19,026.9	45.421	19,026.9	44.1761	19,026.9	37.7335	19,026.9	64.8062	19,026.9	34.414	19,026.9	65.932	19,026.9	34.5916	19,026.9	52.7501	19,026.9	42.179	19,026.9	42.7286	19,026.9	41.3356	19,026.9	38.7905	19,026.9	44.7734	19,026.9	35.119	19,026.9	40.9723	19,026.9	37.2864	19,026.9	40.5076	19,026.9	43.9855	19,026.9	38.2767
19,697.8	88.2301	19,697.8	86.1822	19,697.8	84.9926	19,697.8	79.6444	19,697.8	78.1659	19,697.8	75.0751	19,697.8	74.4663	19,697.8	70.3234	19,697.8	70.4326	19,697.8	62.9886	19,697.8	65.4364	19,697.8	55.8898	19,697.8	54.7404	19,697.8	41.5781	19,697.8	49.091	19,697.8	38.3606	19,697.8	39.7057	19,697.8	32.9561	19,697.8	46.4094	19,697.8	31.5905	19,697.8	64.8335	19,697.8	32.2063	19,697.8	66.3372	19,697.8	32.8775	19,697.8	52.5723	19,697.8	26.4697	19,697.8	43.5445	19,697.8	31.0016	19,697.8	39.45	19,697.8	33.8945	19,697.8	29.4633	19,697.8	35.1399	19,697.8	37.9031	19,697.8	38.0563	19,697.8	41.9429	19,697.8	33.8383
19,999.5	88.33	19,999.5	86.1311	19,999.5	84.7937	19,999.5	79.1893	19,999.5	77.9981	19,999.5	74.9258	19,999.5	74.6055	19,999.5	68.521	19,999.5	69.9146	19,999.5	60.5895	19,999.5	62.5947	19,999.5	54.9782	19,999.5	50.4745	19,999.5	54.445	19,999.5	55.1508	19,999.5	50.9653	19,999.5	48.6317	19,999.5	38.5919	19,999.5	47.8883	19,999.5	43.6494	19,999.5	63.5255	19,999.5	49.7489	19,999.5	65.5133	19,999.5	37.0942	19,999.5	44.9457	19,999.5	44.0924	19,999.5	44.4585	19,999.5	38.0777	19,999.5	50.7572	19,999.5	50.4484	19,999.5	44.4416	19,999.5	37.1641	19,999.5	53.1146	19,999.5	30.9132	19,999.5	45.5024	19,999.5	39.7932
