"SPL Horizontal"
"On-Axis"		"10°"		"-10°"		"20°"		"-20°"		"30°"		"-30°"		"40°"		"-40°"		"50°"		"-50°"		"60°"		"-60°"		"70°"		"-70°"		"80°"		"-80°"		"90°"		"-90°"		"100°"		"-100°"		"110°"		"-110°"		"120°"		"-120°"		"130°"		"-130°"		"140°"		"-140°"		"150°"		"-150°"		"160°"		"-160°"		"170°"		"-170°"		"180°"
"Frequency / Hz"	"Sound Pressure Level / dB (re 20 µPa/V)  [2.83  V @ 1. m]"	"Frequency / Hz"	"Sound Pressure Level / dB (re 20 µPa/V)  [2.83  V @ 1. m]"	"Frequency / Hz"	"Sound Pressure Level / dB (re 20 µPa/V)  [2.83  V @ 1. m]"	"Frequency / Hz"	"Sound Pressure Level / dB (re 20 µPa/V)  [2.83  V @ 1. m]"	"Frequency / Hz"	"Sound Pressure Level / dB (re 20 µPa/V)  [2.83  V @ 1. m]"	"Frequency / Hz"	"Sound Pressure Level / dB (re 20 µPa/V)  [2.83  V @ 1. m]"	"Frequency / Hz"	"Sound Pressure Level / dB (re 20 µPa/V)  [2.83  V @ 1. m]"	"Frequency / Hz"	"Sound Pressure Level / dB (re 20 µPa/V)  [2.83  V @ 1. m]"	"Frequency / Hz"	"Sound Pressure Level / dB (re 20 µPa/V)  [2.83  V @ 1. m]"	"Frequency / Hz"	"Sound Pressure Level / dB (re 20 µPa/V)  [2.83  V @ 1. m]"	"Frequency / Hz"	"Sound Pressure Level / dB (re 20 µPa/V)  [2.83  V @ 1. m]"	"Frequency / Hz"	"Sound Pressure Level / dB (re 20 µPa/V)  [2.83  V @ 1. m]"	"Frequency / Hz"	"Sound Pressure Level / dB (re 20 µPa/V)  [2.83  V @ 1. m]"	"Frequency / Hz"	"Sound Pressure Level / dB (re 20 µPa/V)  [2.83  V @ 1. m]"	"Frequency / Hz"	"Sound Pressure Level / dB (re 20 µPa/V)  [2.83  V @ 1. m]"	"Frequency / Hz"	"Sound Pressure Level / dB (re 20 µPa/V)  [2.83  V @ 1. m]"	"Frequency / Hz"	"Sound Pressure Level / dB (re 20 µPa/V)  [2.83  V @ 1. m]"	"Frequency / Hz"	"Sound Pressure Level / dB (re 20 µPa/V)  [2.83  V @ 1. m]"	"Frequency / Hz"	"Sound Pressure Level / dB (re 20 µPa/V)  [2.83  V @ 1. m]"	"Frequency / Hz"	"Sound Pressure Level / dB (re 20 µPa/V)  [2.83  V @ 1. m]"	"Frequency / Hz"	"Sound Pressure Level / dB (re 20 µPa/V)  [2.83  V @ 1. m]"	"Frequency / Hz"	"Sound Pressure Level / dB (re 20 µPa/V)  [2.83  V @ 1. m]"	"Frequency / Hz"	"Sound Pressure Level / dB (re 20 µPa/V)  [2.83  V @ 1. m]"	"Frequency / Hz"	"Sound Pressure Level / dB (re 20 µPa/V)  [2.83  V @ 1. m]"	"Frequency / Hz"	"Sound Pressure Level / dB (re 20 µPa/V)  [2.83  V @ 1. m]"	"Frequency / Hz"	"Sound Pressure Level / dB (re 20 µPa/V)  [2.83  V @ 1. m]"	"Frequency / Hz"	"Sound Pressure Level / dB (re 20 µPa/V)  [2.83  V @ 1. m]"	"Frequency / Hz"	"Sound Pressure Level / dB (re 20 µPa/V)  [2.83  V @ 1. m]"	"Frequency / Hz"	"Sound Pressure Level / dB (re 20 µPa/V)  [2.83  V @ 1. m]"	"Frequency / Hz"	"Sound Pressure Level / dB (re 20 µPa/V)  [2.83  V @ 1. m]"	"Frequency / Hz"	"Sound Pressure Level / dB (re 20 µPa/V)  [2.83  V @ 1. m]"	"Frequency / Hz"	"Sound Pressure Level / dB (re 20 µPa/V)  [2.83  V @ 1. m]"	"Frequency / Hz"	"Sound Pressure Level / dB (re 20 µPa/V)  [2.83  V @ 1. m]"	"Frequency / Hz"	"Sound Pressure Level / dB (re 20 µPa/V)  [2.83  V @ 1. m]"	"Frequency / Hz"	"Sound Pressure Level / dB (re 20 µPa/V)  [2.83  V @ 1. m]"	"Frequency / Hz"	"Sound Pressure Level / dB (re 20 µPa/V)  [2.83  V @ 1. m]"
20.5078	48.228	20.5078	47.89	20.5078	48.5096	20.5078	47.5124	20.5078	48.7178	20.5078	47.1108	20.5078	48.8362	20.5078	46.6986	20.5078	48.8491	20.5078	46.285	20.5078	48.7423	20.5078	45.8751	20.5078	48.5043	20.5078	45.4705	20.5078	48.1286	20.5078	45.0717	20.5078	47.6173	20.5078	44.6826	20.5078	46.9849	20.5078	44.313	20.5078	46.2629	20.5078	43.9791	20.5078	45.5019	20.5078	43.7002	20.5078	44.7684	20.5078	43.4908	20.5078	44.1338	20.5078	43.3527	20.5078	43.6538	20.5078	43.2725	20.5078	43.3489	20.5078	43.2268	20.5078	43.1982	20.5078	43.1937	20.5078	43.1541	20.5078	43.1649
21.9727	43.4692	21.9727	43.0328	21.9727	43.8486	21.9727	42.5626	21.9727	44.155	21.9727	42.0893	21.9727	44.3794	21.9727	41.649	21.9727	44.5182	21.9727	41.2796	21.9727	44.5727	21.9727	41.0136	21.9727	44.5473	21.9727	40.8716	21.9727	44.4495	21.9727	40.8574	21.9727	44.2893	21.9727	40.9589	21.9727	44.0799	21.9727	41.1528	21.9727	43.8389	21.9727	41.4109	21.9727	43.5886	21.9727	41.7047	21.9727	43.3552	21.9727	42.0075	21.9727	43.1647	21.9727	42.2948	21.9727	43.0356	21.9727	42.5448	21.9727	42.9711	21.9727	42.74	21.9727	42.9549	21.9727	42.8703	21.9727	42.9555	21.9727	42.9369
23.4375	43.9933	23.4375	43.4899	23.4375	44.4591	23.4375	42.9698	23.4375	44.8704	23.4375	42.4595	23.4375	45.2134	23.4375	41.9908	23.4375	45.4774	23.4375	41.5988	23.4375	45.6549	23.4375	41.3181	23.4375	45.744	23.4375	41.177	23.4375	45.7511	23.4375	41.1929	23.4375	45.6934	23.4375	41.3694	23.4375	45.5991	23.4375	41.6949	23.4375	45.5039	23.4375	42.1431	23.4375	45.4416	23.4375	42.6764	23.4375	45.4323	23.4375	43.251	23.4375	45.4748	23.4375	43.8232	23.4375	45.5467	23.4375	44.3538	23.4375	45.6126	23.4375	44.8118	23.4375	45.6349	23.4375	45.1751	23.4375	45.582	23.4375	45.4322
24.9023	20.4924	24.9023	20.5017	24.9023	22.9663	24.9023	22.9374	24.9023	26.4258	24.9023	26.2841	24.9023	29.843	24.9023	29.5764	24.9023	32.8834	24.9023	32.5263	24.9023	35.5023	24.9023	35.1064	24.9023	37.7401	24.9023	37.3575	24.9023	39.6544	24.9023	39.3278	24.9023	41.3001	24.9023	41.0575	24.9023	42.7226	24.9023	42.5761	24.9023	43.9566	24.9023	43.9035	24.9023	45.0263	24.9023	45.0522	24.9023	45.9459	24.9023	46.0294	24.9023	46.7224	24.9023	46.8381	24.9023	47.3568	24.9023	47.4794	24.9023	47.8467	24.9023	47.9531	24.9023	48.1871	24.9023	48.2589	24.9023	48.3726	24.9023	48.3979
26.3672	41.2753	26.3672	40.9665	26.3672	41.293	26.3672	40.3528	26.3672	41.0099	26.3672	39.3917	26.3672	40.3917	26.3672	37.9926	26.3672	39.3653	26.3672	35.9755	26.3672	37.7854	26.3672	32.9755	26.3672	35.338	26.3672	28.4235	26.3672	31.2031	26.3672	26.1532	26.3672	22.5516	26.3672	31.5489	26.3672	26.5807	26.3672	35.9911	26.3672	33.994	26.3672	39.1137	26.3672	38.1434	26.3672	41.4288	26.3672	40.9364	26.3672	43.1977	26.3672	42.9565	26.3672	44.5529	26.3672	44.4469	26.3672	45.5647	26.3672	45.5277	26.3672	46.2707	26.3672	46.2639	26.3672	46.6902	26.3672	46.6917	26.3672	46.8308
27.832	44.9613	27.832	44.817	27.832	44.8804	27.832	44.4542	27.832	44.5547	27.832	43.8729	27.832	43.9454	27.832	43.0776	27.832	42.986	27.832	42.1045	27.832	41.5668	27.832	41.0877	27.832	39.5184	27.832	40.3656	27.832	36.6931	27.832	40.4363	27.832	34.0794	27.832	41.4681	27.832	35.5845	27.832	43.0593	27.832	39.3511	27.832	44.7449	27.832	42.522	27.832	46.2859	27.832	44.9338	27.832	47.5997	27.832	46.767	27.832	48.6669	27.832	48.1547	27.832	49.487	27.832	49.1791	27.832	50.063	27.832	49.89	27.832	50.3959	27.832	50.3183	27.832	50.4831
29.2969	47.9584	29.2969	47.8111	29.2969	47.8784	29.2969	47.438	29.2969	47.5637	29.2969	46.8364	29.2969	47.0012	29.2969	46.0082	29.2969	46.1777	29.2969	44.9829	29.2969	45.1	29.2969	43.882	29.2969	43.8611	29.2969	43.038	29.2969	42.801	29.2969	42.9909	29.2969	42.6023	29.2969	43.9785	29.2969	43.654	29.2969	45.5921	29.2969	45.4383	29.2969	47.3211	29.2969	47.308	29.2969	48.9048	29.2969	48.9743	29.2969	50.2567	29.2969	50.3634	29.2969	51.3587	29.2969	51.4718	29.2969	52.2129	29.2969	52.3123	29.2969	52.825	29.2969	52.8976	29.2969	53.1989	29.2969	53.2371	29.2969	53.3365
30.7617	50.7726	30.7617	50.7441	30.7617	50.6189	30.7617	50.5402	30.7617	50.2792	30.7617	50.1738	30.7617	49.7555	30.7617	49.6721	30.7617	49.0651	30.7617	49.0941	30.7617	48.2664	30.7617	48.5575	30.7617	47.5088	30.7617	48.2548	30.7617	47.0791	30.7617	48.3968	30.7617	47.302	30.7617	49.0619	30.7617	48.237	30.7617	50.1188	30.7617	49.6022	30.7617	51.3441	30.7617	51.0687	30.7617	52.5579	30.7617	52.4392	30.7617	53.6559	30.7617	53.6281	30.7617	54.5869	30.7617	54.6048	30.7617	55.3268	30.7617	55.3612	30.7617	55.8643	30.7617	55.8964	30.7617	56.1934	30.7617	56.2121	30.7617	56.3103
32.2266	53.4234	32.2266	53.3667	32.2266	53.3354	32.2266	53.1688	32.2266	53.1034	32.2266	52.8394	32.2266	52.7353	32.2266	52.3996	32.2266	52.2536	32.2266	51.8947	32.2266	51.7107	32.2266	51.411	32.2266	51.2117	32.2266	51.0891	32.2266	50.9256	32.2266	51.097	32.2266	51.0372	32.2266	51.5375	32.2266	51.6218	32.2266	52.3627	32.2266	52.5749	32.2266	53.4113	32.2266	53.6994	32.2266	54.5139	32.2266	54.8253	32.2266	55.5516	32.2266	55.8478	32.2266	56.4555	32.2266	56.7117	32.2266	57.1889	32.2266	57.3903	32.2266	57.7326	32.2266	57.8706	32.2266	58.0764	32.2266	58.1464	32.2266	58.2151
33.6914	55.6295	33.6914	55.5474	33.6914	55.5932	33.6914	55.3517	33.6914	55.4412	33.6914	55.0563	33.6914	55.1858	33.6914	54.6898	33.6914	54.8552	33.6914	54.3053	33.6914	54.5041	33.6914	53.9911	33.6914	54.224	33.6914	53.8677	33.6914	54.1388	33.6914	54.051	33.6914	54.362	33.6914	54.5844	33.6914	54.9269	33.6914	55.4049	33.6914	55.7592	33.6914	56.3838	33.6914	56.7268	33.6914	57.3934	33.6914	57.7059	33.6914	58.3407	33.6914	58.6097	33.6914	59.1676	33.6914	59.3859	33.6914	59.8401	33.6914	60.0044	33.6914	60.3386	33.6914	60.448	33.6914	60.6523	33.6914	60.7068	33.6914	60.7755
35.1562	57.5789	35.1562	57.5199	35.1562	57.5306	35.1562	57.3571	35.1562	57.3803	35.1562	57.1037	35.1562	57.1436	35.1562	56.7886	35.1562	56.8524	35.1562	56.4646	35.1562	56.5626	35.1562	56.2157	35.1562	56.3608	35.1562	56.1508	35.1562	56.3534	35.1562	56.3682	35.1562	56.6281	35.1562	56.8994	35.1562	57.2021	35.1562	57.6858	35.1562	58.0071	35.1562	58.6143	35.1562	58.9303	35.1562	59.5718	35.1562	59.8643	35.1562	60.4735	35.1562	60.73	35.1562	61.2643	35.1562	61.4767	35.1562	61.9105	35.1562	62.0736	35.1562	62.3919	35.1562	62.5022	35.1562	62.6962	35.1562	62.7519	35.1562	62.817
36.6211	59.7537	36.6211	59.7008	36.6211	59.7158	36.6211	59.56	36.6211	59.594	36.6211	59.3451	36.6211	59.4067	36.6211	59.0851	36.6211	59.1879	36.6211	58.8294	36.6211	58.9922	36.6211	58.6514	36.6211	58.894	36.6211	58.6401	36.6211	58.9746	36.6211	58.8716	36.6211	59.2916	36.6211	59.3699	36.6211	59.8477	36.6211	60.0906	36.6211	60.5873	36.6211	60.9442	36.6211	61.4235	36.6211	61.8353	36.6211	62.2709	36.6211	62.6865	36.6211	63.0621	36.6211	63.4432	36.6211	63.7497	36.6211	64.0694	36.6211	64.3018	36.6211	64.5419	36.6211	64.6978	36.6211	64.8463	36.6211	64.9246	36.6211	64.9748
38.0859	61.4915	38.0859	61.4503	38.0859	61.4711	38.0859	61.351	38.0859	61.3963	38.0859	61.2091	38.0859	61.2858	38.0859	61.0538	38.0859	61.1723	38.0859	60.9313	38.0859	61.1034	38.0859	60.902	38.0859	61.1379	38.0859	61.0298	38.0859	61.3318	38.0859	61.3592	38.0859	61.7175	38.0859	61.8937	38.0859	62.2868	38.0859	62.5918	38.0859	62.9932	38.0859	63.3847	38.0859	63.77	38.0859	64.1998	38.0859	64.5505	38.0859	64.9756	38.0859	65.2794	38.0859	65.6661	38.0859	65.9152	38.0859	66.2386	38.0859	66.4284	38.0859	66.671	38.0859	66.7988	38.0859	66.9488	38.0859	67.0131	38.0859	67.0638
39.5508	63.8487	39.5508	63.8152	39.5508	63.8439	39.5508	63.7468	39.5508	63.8068	39.5508	63.6571	39.5508	63.7531	39.5508	63.5708	39.5508	63.7085	39.5508	63.5244	39.5508	63.708	39.5508	63.5623	39.5508	63.792	39.5508	63.7281	39.5508	63.9977	39.5508	64.0504	39.5508	64.3469	39.5508	64.5297	39.5508	64.8361	39.5508	65.1366	39.5508	65.4365	39.5508	65.8216	39.5508	66.1016	39.5508	66.5293	39.5508	66.7801	39.5508	67.2089	39.5508	67.4245	39.5508	67.8191	39.5508	67.9955	39.5508	68.3287	39.5508	68.4631	39.5508	68.7146	39.5508	68.8053	39.5508	68.9614	39.5508	69.0071	39.5508	69.06
41.0156	65.7875	41.0156	65.7622	41.0156	65.7774	41.0156	65.7046	41.0156	65.7378	41.0156	65.627	41.0156	65.6836	41.0156	65.5514	41.0156	65.6391	41.0156	65.5099	41.0156	65.6369	41.0156	65.5416	41.0156	65.7141	41.0156	65.6855	41.0156	65.9042	41.0156	65.9688	41.0156	66.2271	41.0156	66.3956	41.0156	66.6801	41.0156	66.9441	41.0156	67.2375	41.0156	67.5722	41.0156	67.8577	41.0156	68.2297	41.0156	68.4935	41.0156	68.8685	41.0156	69.1001	41.0156	69.4477	41.0156	69.6397	41.0156	69.935	41.0156	70.0826	41.0156	70.3067	41.0156	70.4067	41.0156	70.5464	41.0156	70.5968	41.0156	70.6443
42.4805	67.7858	42.4805	67.7638	42.4805	67.7785	42.4805	67.7148	42.4805	67.7474	42.4805	67.6486	42.4805	67.7054	42.4805	67.5837	42.4805	67.6732	42.4805	67.5467	42.4805	67.6781	42.4805	67.5707	42.4805	67.7512	42.4805	67.6896	42.4805	67.9214	42.4805	67.929	42.4805	68.207	42.4805	68.2972	42.4805	68.6083	42.4805	68.78	42.4805	69.1065	42.4805	69.3441	42.4805	69.6669	42.4805	69.9458	42.4805	70.2478	42.4805	70.5399	42.4805	70.8076	42.4805	71.0857	42.4805	71.3092	42.4805	71.5503	42.4805	71.7228	42.4805	71.9082	42.4805	72.0254	42.4805	72.142	42.4805	72.2011	42.4805	72.2409
43.9453	69.1918	43.9453	69.1793	43.9453	69.1807	43.9453	69.1456	43.9453	69.1512	43.9453	69.1006	43.9453	69.1158	43.9453	69.0619	43.9453	69.094	43.9453	69.0544	43.9453	69.1118	43.9453	69.1078	43.9453	69.1978	43.9453	69.2514	43.9453	69.3781	43.9453	69.5061	43.9453	69.6684	43.9453	69.8769	43.9453	70.0679	43.9453	70.3495	43.9453	70.5579	43.9453	70.8933	43.9453	71.1056	43.9453	71.4686	43.9453	71.6718	43.9453	72.0339	43.9453	72.2171	43.9453	72.5518	43.9453	72.7065	43.9453	72.9911	43.9453	73.1115	43.9453	73.3279	43.9453	73.41	43.9453	73.5451	43.9453	73.5867	43.9453	73.6326
45.4102	70.4143	45.4102	70.4161	45.4102	70.4022	45.4102	70.4089	45.4102	70.3851	45.4102	70.401	45.4102	70.375	45.4102	70.4074	45.4102	70.3898	45.4102	70.4488	45.4102	70.4519	45.4102	70.5493	45.4102	70.5846	45.4102	70.7318	45.4102	70.807	45.4102	71.0116	45.4102	71.1283	45.4102	71.3908	45.4102	71.5437	45.4102	71.856	45.4102	72.0339	45.4102	72.3805	45.4102	72.5694	45.4102	72.9298	45.4102	73.1155	45.4102	73.4674	45.4102	73.6379	45.4102	73.9594	45.4102	74.1053	45.4102	74.3771	45.4102	74.4916	45.4102	74.6978	45.4102	74.7764	45.4102	74.905	45.4102	74.9449	45.4102	74.9886
46.875	72.1113	46.875	72.1087	46.875	72.109	46.875	72.1025	46.875	72.1059	46.875	72.0992	46.875	72.1108	46.875	72.1109	46.875	72.1375	46.875	72.154	46.875	72.203	46.875	72.2479	46.875	72.3255	46.875	72.4113	46.875	72.5207	46.875	72.6577	46.875	72.7977	46.875	72.9901	46.875	73.1552	46.875	73.3994	46.875	73.5802	46.875	73.8644	46.875	74.0499	46.875	74.3562	46.875	74.5353	46.875	74.8424	46.875	75.0054	46.875	75.2918	46.875	75.4307	46.875	75.6763	46.875	75.7854	46.875	75.9735	46.875	76.0484	46.875	76.1664	46.875	76.2045	46.875	76.2448
48.3398	73.5372	48.3398	73.5341	48.3398	73.5314	48.3398	73.5233	48.3398	73.5205	48.3398	73.5111	48.3398	73.5135	48.3398	73.5092	48.3398	73.5237	48.3398	73.5336	48.3398	73.5683	48.3398	73.6036	48.3398	73.6659	48.3398	73.7383	48.3398	73.833	48.3398	73.9521	48.3398	74.0797	48.3398	74.2505	48.3398	74.4062	48.3398	74.6262	48.3398	74.8013	48.3398	75.0606	48.3398	75.2435	48.3398	75.5258	48.3398	75.7048	48.3398	75.9904	48.3398	76.1546	48.3398	76.4228	48.3398	76.5637	48.3398	76.795	48.3398	76.9059	48.3398	77.0838	48.3398	77.1601	48.3398	77.2721	48.3398	77.3109	48.3398	77.3491
51.2695	76.2276	51.2695	76.2357	51.2695	76.2211	51.2695	76.2462	51.2695	76.219	51.2695	76.2639	51.2695	76.228	51.2695	76.297	51.2695	76.2579	51.2695	76.3564	51.2695	76.3211	51.2695	76.4549	51.2695	76.4303	51.2695	76.6043	51.2695	76.5968	51.2695	76.8134	51.2695	76.8273	51.2695	77.0846	51.2695	77.1215	51.2695	77.4128	51.2695	77.4708	51.2695	77.7845	51.2695	77.8588	51.2695	78.1797	51.2695	78.2635	51.2695	78.5743	51.2695	78.6598	51.2695	78.9431	51.2695	79.0224	51.2695	79.2619	51.2695	79.328	51.2695	79.5098	51.2695	79.5572	51.2695	79.6707	51.2695	79.6954	51.2695	79.7339
52.7344	77.5114	52.7344	77.5227	52.7344	77.5027	52.7344	77.537	52.7344	77.4991	52.7344	77.5583	52.7344	77.5065	52.7344	77.5932	52.7344	77.5336	52.7344	77.6511	52.7344	77.591	52.7344	77.7426	52.7344	77.6901	52.7344	77.8782	52.7344	77.8412	52.7344	78.066	52.7344	78.0508	52.7344	78.3094	52.7344	78.3193	52.7344	78.6052	52.7344	78.6398	52.7344	78.9426	52.7344	78.9982	52.7344	79.3045	52.7344	79.3743	52.7344	79.669	52.7344	79.7447	52.7344	80.0124	52.7344	80.0852	52.7344	80.3112	52.7344	80.3732	52.7344	80.5448	52.7344	80.5897	52.7344	80.6969	52.7344	80.7204	52.7344	80.7569
54.1992	78.6096	54.1992	78.6225	54.1992	78.6018	54.1992	78.6406	54.1992	78.6019	54.1992	78.6669	54.1992	78.6153	54.1992	78.707	54.1992	78.6501	54.1992	78.769	54.1992	78.7157	54.1992	78.8621	54.1992	78.822	54.1992	78.9955	54.1992	78.9771	54.1992	79.1766	54.1992	79.1861	54.1992	79.4086	54.1992	79.4481	54.1992	79.6889	54.1992	79.7561	54.1992	80.0079	54.1992	80.0969	54.1992	80.3504	54.1992	80.4521	54.1992	80.6962	54.1992	80.8002	54.1992	81.0229	54.1992	81.1192	54.1992	81.3083	54.1992	81.3883	54.1992	81.5327	54.1992	81.5896	54.1992	81.6802	54.1992	81.7098	54.1992	81.7407
55.6641	79.7842	55.6641	79.7954	55.6641	79.778	55.6641	79.8118	55.6641	79.7788	55.6641	79.8358	55.6641	79.7915	55.6641	79.8724	55.6641	79.8225	55.6641	79.9285	55.6641	79.8803	55.6641	80.0123	55.6641	79.9738	55.6641	80.132	55.6641	80.111	55.6641	80.2947	55.6641	80.2971	55.6641	80.5039	55.6641	80.5328	55.6641	80.7581	55.6641	80.8127	55.6641	81.0498	55.6641	81.1252	55.6641	81.3652	55.6641	81.4537	55.6641	81.6859	55.6641	81.7781	55.6641	81.9908	55.6641	82.0773	55.6641	82.2586	55.6641	82.3309	55.6641	82.4697	55.6641	82.5215	55.6641	82.6088	55.6641	82.6357	55.6641	82.6655
58.5938	81.9421	58.5938	81.9527	58.5938	81.941	58.5938	81.9729	58.5938	81.951	58.5938	82.0046	58.5938	81.9754	58.5938	82.0511	58.5938	82.0187	58.5938	82.1172	58.5938	82.0865	58.5938	82.2083	58.5938	82.1847	58.5938	82.3299	58.5938	82.3185	58.5938	82.4864	58.5938	82.4911	58.5938	82.6799	58.5938	82.7028	58.5938	82.9088	58.5938	82.9495	58.5938	83.1669	58.5938	83.2226	58.5938	83.4435	58.5938	83.5093	58.5938	83.7239	58.5938	83.7933	58.5938	83.9906	58.5938	84.0568	58.5938	84.2252	58.5938	84.2816	58.5938	84.4108	58.5938	84.4517	58.5938	84.5329	58.5938	84.5545	58.5938	84.5822
60.0586	82.9735	60.0586	82.9838	60.0586	82.9746	60.0586	83.0055	60.0586	82.9882	60.0586	83.0403	60.0586	83.0169	60.0586	83.0906	60.0586	83.0642	60.0586	83.1603	60.0586	83.1346	60.0586	83.2534	60.0586	83.2325	60.0586	83.3741	60.0586	83.3621	60.0586	83.5256	60.0586	83.5259	60.0586	83.7092	60.0586	83.724	60.0586	83.9231	60.0586	83.9529	60.0586	84.1622	60.0586	84.2054	60.0586	84.4171	60.0586	84.47	60.0586	84.675	60.0586	84.7324	60.0586	84.9204	60.0586	84.9762	60.0586	85.1365	60.0586	85.1848	60.0586	85.3076	60.0586	85.3431	60.0586	85.4203	60.0586	85.4391	60.0586	85.4654
62.9883	84.8734	62.9883	84.8817	62.9883	84.879	62.9883	84.9039	62.9883	84.8992	62.9883	84.9407	62.9883	84.9354	62.9883	84.9935	62.9883	84.9895	62.9883	85.0641	62.9883	85.0637	62.9883	85.1548	62.9883	85.1605	62.9883	85.2676	62.9883	85.282	62.9883	85.4045	62.9883	85.4294	62.9883	85.566	62.9883	85.6022	62.9883	85.7507	62.9883	85.7977	62.9883	85.9548	62.9883	86.0106	62.9883	86.1712	62.9883	86.2323	62.9883	86.3899	62.9883	86.4517	62.9883	86.5983	62.9883	86.6558	62.9883	86.7825	62.9883	86.8307	62.9883	86.9289	62.9883	86.9636	62.9883	87.0259	62.9883	87.044	62.9883	87.0654
64.4531	85.748	64.4531	85.7553	64.4531	85.7552	64.4531	85.7772	64.4531	85.7773	64.4531	85.8139	64.4531	85.8153	64.4531	85.8664	64.4531	85.8703	64.4531	85.936	64.4531	85.9439	64.4531	86.0241	64.4531	86.0375	64.4531	86.1323	64.4531	86.1526	64.4531	86.2616	64.4531	86.2898	64.4531	86.4124	64.4531	86.4487	64.4531	86.5835	64.4531	86.6271	64.4531	86.7712	64.4531	86.8204	64.4531	86.9695	64.4531	87.0218	64.4531	87.1694	64.4531	87.2213	64.4531	87.3598	64.4531	87.4075	64.4531	87.5281	64.4531	87.5678	64.4531	87.6618	64.4531	87.6902	64.4531	87.75	64.4531	87.7649	64.4531	87.7854
67.3828	87.2242	67.3828	87.2315	67.3828	87.2335	67.3828	87.2552	67.3828	87.2594	67.3828	87.2954	67.3828	87.3019	67.3828	87.3518	67.3828	87.3611	67.3828	87.4247	67.3828	87.437	67.3828	87.5139	67.3828	87.5297	67.3828	87.6196	67.3828	87.6392	67.3828	87.7414	67.3828	87.7652	67.3828	87.8789	67.3828	87.907	67.3828	88.0304	67.3828	88.0626	67.3828	88.1931	67.3828	88.2287	67.3828	88.3622	67.3828	88.3999	67.3828	88.5312	67.3828	88.5688	67.3828	88.6914	67.3828	88.7262	67.3828	88.8326	67.3828	88.862	67.3828	88.9447	67.3828	88.9659	67.3828	89.0186	67.3828	89.0297	67.3828	89.0478
68.8477	87.7793	68.8477	87.7855	68.8477	87.7909	68.8477	87.8094	68.8477	87.8202	68.8477	87.8508	68.8477	87.8667	68.8477	87.9092	68.8477	87.9299	68.8477	87.9839	68.8477	88.0091	68.8477	88.0743	68.8477	88.1037	68.8477	88.1796	68.8477	88.2129	68.8477	88.2989	68.8477	88.336	68.8477	88.4312	68.8477	88.4717	68.8477	88.5747	68.8477	88.6183	68.8477	88.727	68.8477	88.7725	68.8477	88.8839	68.8477	88.9299	68.8477	89.0397	68.8477	89.0839	68.8477	89.1869	68.8477	89.2268	68.8477	89.3167	68.8477	89.3495	68.8477	89.4199	68.8477	89.4431	68.8477	89.4881	68.8477	89.5002	68.8477	89.5157
71.7773	88.4815	71.7773	88.485	71.7773	88.4969	71.7773	88.5075	71.7773	88.5308	71.7773	88.5482	71.7773	88.582	71.7773	88.6059	71.7773	88.6489	71.7773	88.679	71.7773	88.7297	71.7773	88.7658	71.7773	88.8225	71.7773	88.8643	71.7773	88.9254	71.7773	88.9729	71.7773	89.0367	71.7773	89.0897	71.7773	89.1545	71.7773	89.2129	71.7773	89.2772	71.7773	89.3404	71.7773	89.4025	71.7773	89.4692	71.7773	89.5274	71.7773	89.5953	71.7773	89.6477	71.7773	89.7134	71.7773	89.7581	71.7773	89.817	71.7773	89.8523	71.7773	89.8994	71.7773	89.9239	71.7773	89.9544	71.7773	89.9669	71.7773	89.9775
74.707	88.6936	74.707	88.696	74.707	88.7102	74.707	88.7172	74.707	88.745	74.707	88.7563	74.707	88.7964	74.707	88.8114	74.707	88.8623	74.707	88.8804	74.707	88.94	74.707	88.9606	74.707	89.0266	74.707	89.0494	74.707	89.1195	74.707	89.1443	74.707	89.216	74.707	89.2429	74.707	89.3142	74.707	89.3434	74.707	89.4122	74.707	89.444	74.707	89.5086	74.707	89.5429	74.707	89.6017	74.707	89.6378	74.707	89.6894	74.707	89.7256	74.707	89.7687	74.707	89.8024	74.707	89.8358	74.707	89.8636	74.707	89.8864	74.707	89.9048	74.707	89.9164	74.707	89.9228
77.6367	88.641	77.6367	88.6449	77.6367	88.6567	77.6367	88.668	77.6367	88.6909	77.6367	88.7092	77.6367	88.7417	77.6367	88.7662	77.6367	88.8063	77.6367	88.8361	77.6367	88.8814	77.6367	88.9155	77.6367	88.9635	77.6367	89.001	77.6367	89.049	77.6367	89.0891	77.6367	89.135	77.6367	89.1771	77.6367	89.2191	77.6367	89.2629	77.6367	89.2996	77.6367	89.3447	77.6367	89.3755	77.6367	89.4215	77.6367	89.4462	77.6367	89.4921	77.6367	89.5111	77.6367	89.555	77.6367	89.5689	77.6367	89.6083	77.6367	89.6178	77.6367	89.6494	77.6367	89.6553	77.6367	89.6759	77.6367	89.6787	77.6367	89.6859
79.1016	88.588	79.1016	88.5932	79.1016	88.6022	79.1016	88.6176	79.1016	88.6349	79.1016	88.6598	79.1016	88.684	79.1016	88.7174	79.1016	88.7464	79.1016	88.7871	79.1016	88.8186	79.1016	88.8652	79.1016	88.8967	79.1016	88.9479	79.1016	88.977	79.1016	89.0315	79.1016	89.0563	79.1016	89.1131	79.1016	89.1321	79.1016	89.1902	79.1016	89.2028	79.1016	89.2614	79.1016	89.2678	79.1016	89.3259	79.1016	89.3269	79.1016	89.383	79.1016	89.3802	79.1016	89.4323	79.1016	89.4273	79.1016	89.4727	79.1016	89.4674	79.1016	89.503	79.1016	89.4986	79.1016	89.5215	79.1016	89.519	79.1016	89.5269
82.0312	88.4059	82.0312	88.4141	82.0312	88.4178	82.0312	88.4418	82.0312	88.4488	82.0312	88.4871	82.0312	88.4967	82.0312	88.547	82.0312	88.5583	82.0312	88.6174	82.0312	88.6295	82.0312	88.6939	82.0312	88.706	82.0312	88.7721	82.0312	88.7834	82.0312	88.8478	82.0312	88.858	82.0312	88.9177	82.0312	88.9269	82.0312	88.9798	82.0312	88.9883	82.0312	89.0333	82.0312	89.0414	82.0312	89.0783	82.0312	89.0863	82.0312	89.1159	82.0312	89.1238	82.0312	89.147	82.0312	89.1545	82.0312	89.1723	82.0312	89.1788	82.0312	89.1917	82.0312	89.1965	82.0312	89.2044	82.0312	89.2069	82.0312	89.2096
84.9609	88.2293	84.9609	88.2226	84.9609	88.2581	84.9609	88.2378	84.9609	88.3072	84.9609	88.2734	84.9609	88.3735	84.9609	88.3265	84.9609	88.4527	84.9609	88.393	84.9609	88.5399	84.9609	88.468	84.9609	88.6297	84.9609	88.5468	84.9609	88.717	84.9609	88.6248	84.9609	88.7971	84.9609	88.6984	84.9609	88.8666	84.9609	88.7651	84.9609	88.9234	84.9609	88.8235	84.9609	88.9667	84.9609	88.8731	84.9609	88.9974	84.9609	88.9143	84.9609	89.0172	84.9609	88.948	84.9609	89.0283	84.9609	88.9748	84.9609	89.0331	84.9609	88.9957	84.9609	89.0332	84.9609	89.0114	84.9609	89.0296	84.9609	89.0225
87.8906	88.0687	87.8906	88.0684	87.8906	88.0944	87.8906	88.0928	87.8906	88.1441	87.8906	88.1398	87.8906	88.2148	87.8906	88.2058	87.8906	88.3018	87.8906	88.286	87.8906	88.3991	87.8906	88.375	87.8906	88.5002	87.8906	88.4672	87.8906	88.5983	87.8906	88.5573	87.8906	88.6875	87.8906	88.6405	87.8906	88.7629	87.8906	88.7128	87.8906	88.8214	87.8906	88.7718	87.8906	88.8621	87.8906	88.8163	87.8906	88.886	87.8906	88.8467	87.8906	88.896	87.8906	88.8647	87.8906	88.8962	87.8906	88.8732	87.8906	88.8909	87.8906	88.8757	87.8906	88.8842	87.8906	88.8757	87.8906	88.8788	87.8906	88.8761
90.8203	88.2737	90.8203	88.2999	90.8203	88.2659	90.8203	88.3435	90.8203	88.2755	90.8203	88.4021	90.8203	88.3005	90.8203	88.4721	90.8203	88.3373	90.8203	88.5482	90.8203	88.3814	90.8203	88.6249	90.8203	88.4277	90.8203	88.696	90.8203	88.4707	90.8203	88.7554	90.8203	88.5057	90.8203	88.7979	90.8203	88.529	90.8203	88.8193	90.8203	88.5384	90.8203	88.8176	90.8203	88.5339	90.8203	88.793	90.8203	88.5177	90.8203	88.7487	90.8203	88.494	90.8203	88.6904	90.8203	88.4684	90.8203	88.6253	90.8203	88.4476	90.8203	88.5615	90.8203	88.4374	90.8203	88.5065	90.8203	88.4427	90.8203	88.4659
95.2148	88.0002	95.2148	88.0041	95.2148	88.0167	95.2148	88.0283	95.2148	88.052	95.2148	88.0707	95.2148	88.1026	95.2148	88.1274	95.2148	88.1637	95.2148	88.1932	95.2148	88.2295	95.2148	88.2619	95.2148	88.2943	95.2148	88.3273	95.2148	88.3525	95.2148	88.3834	95.2148	88.3996	95.2148	88.4252	95.2148	88.4318	95.2148	88.4496	95.2148	88.4473	95.2148	88.4552	95.2148	88.4457	95.2148	88.4433	95.2148	88.4285	95.2148	88.4173	95.2148	88.3996	95.2148	88.3824	95.2148	88.3642	95.2148	88.3449	95.2148	88.3285	95.2148	88.3113	95.2148	88.2989	95.2148	88.287	95.2148	88.2803	95.2148	88.2762
98.1445	88.0247	98.1445	88.0384	98.1445	88.0302	98.1445	88.0703	98.1445	88.0542	98.1445	88.1179	98.1445	88.0944	98.1445	88.1772	98.1445	88.1472	98.1445	88.243	98.1445	88.2077	98.1445	88.3095	98.1445	88.2705	98.1445	88.3707	98.1445	88.3295	98.1445	88.4205	98.1445	88.379	98.1445	88.4541	98.1445	88.414	98.1445	88.4681	98.1445	88.4305	98.1445	88.461	98.1445	88.4268	98.1445	88.434	98.1445	88.4038	98.1445	88.3912	98.1445	88.3652	98.1445	88.3389	98.1445	88.3172	98.1445	88.285	98.1445	88.2681	98.1445	88.2378	98.1445	88.2262	98.1445	88.2049	98.1445	88.199	98.1445	88.1914
101.074	87.6814	101.074	87.6893	101.074	87.7017	101.074	87.7254	101.074	87.7482	101.074	87.7873	101.074	87.8164	101.074	87.8701	101.074	87.9003	101.074	87.9674	101.074	87.9926	101.074	88.0713	101.074	88.0856	101.074	88.1734	101.074	88.1718	101.074	88.2652	101.074	88.2445	101.074	88.3393	101.074	88.2983	101.074	88.3899	101.074	88.3298	101.074	88.4138	101.074	88.338	101.074	88.4108	101.074	88.3248	101.074	88.3842	101.074	88.2947	101.074	88.3402	101.074	88.2551	101.074	88.2874	101.074	88.2146	101.074	88.2355	101.074	88.1823	101.074	88.1938	101.074	88.1657	101.074	88.1693
105.469	87.8513	105.469	87.865	105.469	87.8577	105.469	87.897	105.469	87.8843	105.469	87.9439	105.469	87.9289	105.469	88.0009	105.469	87.9876	105.469	88.0619	105.469	88.0542	105.469	88.1204	105.469	88.1214	105.469	88.1691	105.469	88.1809	105.469	88.2015	105.469	88.2243	105.469	88.2118	105.469	88.2445	105.469	88.1966	105.469	88.2365	105.469	88.1547	105.469	88.1982	105.469	88.0884	105.469	88.1315	105.469	88.0032	105.469	88.0422	105.469	87.9082	105.469	87.9402	105.469	87.8149	105.469	87.8386	105.469	87.7364	105.469	87.7516	105.469	87.6846	105.469	87.6919	105.469	87.6686
108.398	87.9178	108.398	87.9215	108.398	87.9306	108.398	87.9412	108.398	87.9589	108.398	87.9746	108.398	88.0002	108.398	88.0181	108.398	88.0505	108.398	88.0667	108.398	88.1044	108.398	88.1145	108.398	88.1555	108.398	88.1549	108.398	88.197	108.398	88.1811	108.398	88.2219	108.398	88.1873	108.398	88.2243	108.398	88.1691	108.398	88.2002	108.398	88.1245	108.398	88.1482	108.398	88.0549	108.398	88.0702	108.398	87.9651	108.398	87.9724	108.398	87.864	108.398	87.8648	108.398	87.7634	108.398	87.7601	108.398	87.6771	108.398	87.6726	108.398	87.618	108.398	87.6151	108.398	87.596
112.793	87.9126	112.793	87.925	112.793	87.9151	112.793	87.9513	112.793	87.9322	112.793	87.9887	112.793	87.9622	112.793	88.0337	112.793	88.0015	112.793	88.081	112.793	88.0452	112.793	88.1247	112.793	88.0871	112.793	88.1582	112.793	88.1201	112.793	88.1749	112.793	88.1371	112.793	88.1689	112.793	88.132	112.793	88.1359	112.793	88.1002	112.793	88.0743	112.793	88.0399	112.793	87.9858	112.793	87.953	112.793	87.8763	112.793	87.8458	112.793	87.7558	112.793	87.7286	112.793	87.6377	112.793	87.6151	112.793	87.537	112.793	87.5207	112.793	87.4679	112.793	87.4593	112.793	87.4406
117.188	87.8606	117.188	87.866	117.188	87.8663	117.188	87.8821	117.188	87.882	117.188	87.9071	117.188	87.905	117.188	87.9376	117.188	87.9314	117.188	87.9689	117.188	87.956	117.188	87.9953	117.188	87.9725	117.188	88.0105	117.188	87.9747	117.188	88.0077	117.188	87.9565	117.188	87.9811	117.188	87.9127	117.188	87.9262	117.188	87.8405	117.188	87.8411	117.188	87.7398	117.188	87.7274	117.188	87.6145	117.188	87.591	117.188	87.4728	117.188	87.442	117.188	87.3275	117.188	87.2947	117.188	87.1945	117.188	87.1656	117.188	87.0907	117.188	87.0709	117.188	87.0308	117.188	87.0238
120.117	87.9705	120.117	87.9721	120.117	87.9798	120.117	87.9843	120.117	87.9983	120.117	88.0053	120.117	88.0229	120.117	88.0312	120.117	88.0488	120.117	88.0569	120.117	88.07	120.117	88.0757	120.117	88.0796	120.117	88.0803	120.117	88.0704	120.117	88.0632	120.117	88.0354	120.117	88.0179	120.117	87.9691	120.117	87.9395	120.117	87.8681	120.117	87.8264	120.117	87.7328	120.117	87.6808	120.117	87.5682	120.117	87.5097	120.117	87.3849	120.117	87.3253	120.117	87.1987	120.117	87.1443	120.117	87.0296	120.117	86.986	120.117	86.8983	120.117	86.8702	120.117	86.8225	120.117	86.8128
124.512	87.7358	124.512	87.7411	124.512	87.745	124.512	87.7604	124.512	87.7671	124.512	87.7911	124.512	87.7985	124.512	87.8288	124.512	87.834	124.512	87.8673	124.512	87.8667	124.512	87.8991	124.512	87.8886	124.512	87.9159	124.512	87.8915	124.512	87.9095	124.512	87.8673	124.512	87.8726	124.512	87.8099	124.512	87.8004	124.512	87.7156	124.512	87.691	124.512	87.585	124.512	87.5472	124.512	87.4239	124.512	87.3766	124.512	87.2434	124.512	87.1923	124.512	87.0602	124.512	87.0113	124.512	86.894	124.512	86.8536	124.512	86.7652	124.512	86.7387	124.512	86.691	124.512	86.6818
128.906	87.3956	128.906	87.4118	128.906	87.3997	128.906	87.4475	128.906	87.4227	128.906	87.4997	128.906	87.4611	128.906	87.5636	128.906	87.5097	128.906	87.632	128.906	87.5612	128.906	87.6967	128.906	87.6074	128.906	87.7483	128.906	87.6392	128.906	87.778	128.906	87.6484	128.906	87.7779	128.906	87.6283	128.906	87.7427	128.906	87.5753	128.906	87.6703	128.906	87.4896	128.906	87.5632	128.906	87.3761	128.906	87.4283	128.906	87.2445	128.906	87.2774	128.906	87.1085	128.906	87.126	128.906	86.9845	128.906	86.9915	128.906	86.8893	128.906	86.8909	128.906	86.8372	128.906	86.8373
133.301	87.3645	133.301	87.378	133.301	87.3703	133.301	87.4106	133.301	87.3939	133.301	87.4597	133.301	87.4319	133.301	87.5207	133.301	87.4789	133.301	87.587	133.301	87.528	133.301	87.65	133.301	87.571	133.301	87.7	133.301	87.5991	133.301	87.7275	133.301	87.6039	133.301	87.7238	133.301	87.5783	133.301	87.6828	133.301	87.5182	133.301	87.6018	133.301	87.4234	133.301	87.4828	133.301	87.298	133.301	87.3329	133.301	87.1515	133.301	87.1646	133.301	86.9982	133.301	86.9952	133.301	86.8559	133.301	86.8449	133.301	86.7443	133.301	86.7334	133.301	86.6805	133.301	86.6761
139.16	87.3311	139.16	87.3406	139.16	87.3366	139.16	87.3652	139.16	87.356	139.16	87.4033	139.16	87.3868	139.16	87.452	139.16	87.425	139.16	87.5062	139.16	87.4648	139.16	87.559	139.16	87.4989	139.16	87.6018	139.16	87.5193	139.16	87.6253	139.16	87.5174	139.16	87.6206	139.16	87.4861	139.16	87.5806	139.16	87.4205	139.16	87.5019	139.16	87.3198	139.16	87.3852	139.16	87.1881	139.16	87.2367	139.16	87.0352	139.16	87.0682	139.16	86.8764	139.16	86.8965	139.16	86.7311	139.16	86.7417	139.16	86.6194	139.16	86.624	139.16	86.5589	139.16	86.5601
143.555	87.3069	143.555	87.3102	143.555	87.3139	143.555	87.3236	143.555	87.3307	143.555	87.3459	143.555	87.3557	143.555	87.3748	143.555	87.386	143.555	87.4067	143.555	87.4167	143.555	87.4357	143.555	87.4412	143.555	87.4543	143.555	87.4514	143.555	87.454	143.555	87.4392	143.555	87.4264	143.555	87.3972	143.555	87.3649	143.555	87.3203	143.555	87.266	143.555	87.2075	143.555	87.1314	143.555	87.0624	143.555	86.9683	143.555	86.8942	143.555	86.79	143.555	86.7178	143.555	86.615	143.555	86.5521	143.555	86.4644	143.555	86.4178	143.555	86.3586	143.555	86.3337	143.555	86.3128
147.949	87.2334	147.949	87.2305	147.949	87.2462	147.949	87.2373	147.949	87.2685	147.949	87.2523	147.949	87.2986	147.949	87.273	147.949	87.3336	147.949	87.2954	147.949	87.3687	147.949	87.3138	147.949	87.3972	147.949	87.321	147.949	87.4112	147.949	87.309	147.949	87.4023	147.949	87.2703	147.949	87.3629	147.949	87.1988	147.949	87.2878	147.949	87.0923	147.949	87.1753	147.949	86.9532	147.949	87.0287	147.949	86.7897	147.949	86.8566	147.949	86.6163	147.949	86.6731	147.949	86.4516	147.949	86.4967	147.949	86.3164	147.949	86.348	147.949	86.2298	147.949	86.2461	147.949	86.2049
153.809	87.1685	153.809	87.1723	153.809	87.1747	153.809	87.1859	153.809	87.1895	153.809	87.2078	153.809	87.2105	153.809	87.235	153.809	87.2338	153.809	87.2627	153.809	87.2538	153.809	87.284	153.809	87.2639	153.809	87.2913	153.809	87.2563	153.809	87.2759	153.809	87.2235	153.809	87.2301	153.809	87.1592	153.809	87.1482	153.809	87.0598	153.809	87.0277	153.809	86.9253	153.809	86.8715	153.809	86.7607	153.809	86.6879	153.809	86.576	153.809	86.4912	153.809	86.387	153.809	86.3006	153.809	86.2128	153.809	86.1378	153.809	86.0742	153.809	86.023	153.809	85.9896	153.809	85.9714
159.668	87.0463	159.668	87.0526	159.668	87.0519	159.668	87.0702	159.668	87.0684	159.668	87.0975	159.668	87.0933	159.668	87.1307	159.668	87.123	159.668	87.1644	159.668	87.1521	159.668	87.1914	159.668	87.1736	159.668	87.2037	159.668	87.1796	159.668	87.1927	159.668	87.1622	159.668	87.1512	159.668	87.1145	159.668	87.0745	159.668	87.0323	159.668	86.9616	159.668	86.9154	159.668	86.8164	159.668	86.7684	159.668	86.6479	159.668	86.6011	159.668	86.4704	159.668	86.428	159.668	86.3019	159.668	86.267	159.668	86.1615	159.668	86.1368	159.668	86.0665	159.668	86.0537	159.668	86.0291
165.527	87.0263	165.527	87.0175	165.527	87.045	165.527	87.0195	165.527	87.0725	165.527	87.0328	165.527	87.107	165.527	87.0564	165.527	87.1458	165.527	87.0874	165.527	87.1842	165.527	87.1199	165.527	87.2157	165.527	87.1456	165.527	87.2323	165.527	87.1543	165.527	87.2248	165.527	87.1359	165.527	87.1854	165.527	87.0825	165.527	87.1086	165.527	86.9901	165.527	86.9932	165.527	86.8607	165.527	86.8436	165.527	86.7025	165.527	86.6703	165.527	86.5296	165.527	86.4893	165.527	86.3608	165.527	86.3206	165.527	86.217	165.527	86.1847	165.527	86.1174	165.527	86.0994	165.527	86.0761
171.387	87.054	171.387	87.0307	171.387	87.0798	171.387	87.0102	171.387	87.1088	171.387	86.9928	171.387	87.141	171.387	86.9791	171.387	87.1754	171.387	86.9689	171.387	87.2086	171.387	86.9599	171.387	87.2345	171.387	86.9476	171.387	87.2448	171.387	86.9249	171.387	87.2298	171.387	86.8839	171.387	87.1808	171.387	86.8172	171.387	87.0918	171.387	86.7204	171.387	86.9616	171.387	86.594	171.387	86.795	171.387	86.4449	171.387	86.6031	171.387	86.2857	171.387	86.4029	171.387	86.1341	171.387	86.2146	171.387	86.0096	171.387	86.059	171.387	85.9305	171.387	85.9537	171.387	85.9099
177.246	87.2407	177.246	87.2596	177.246	87.215	177.246	87.2701	177.246	87.1848	177.246	87.2706	177.246	87.1522	177.246	87.2595	177.246	87.1185	177.246	87.2342	177.246	87.0831	177.246	87.1911	177.246	87.0429	177.246	87.1252	177.246	86.9921	177.246	87.0305	177.246	86.923	177.246	86.9019	177.246	86.8281	177.246	86.7363	177.246	86.7014	177.246	86.5353	177.246	86.5412	177.246	86.3064	177.246	86.3511	177.246	86.064	177.246	86.1405	177.246	85.8282	177.246	85.924	177.246	85.6221	177.246	85.7199	177.246	85.4671	177.246	85.5473	177.246	85.379	177.246	85.4243	177.246	85.3652
183.105	86.8483	183.105	86.8792	183.105	86.8209	183.105	86.9119	183.105	86.7986	183.105	86.9445	183.105	86.782	183.105	86.9743	183.105	86.7703	183.105	86.9977	183.105	86.76	183.105	87.0094	183.105	86.7444	183.105	87.0023	183.105	86.7142	183.105	86.9677	183.105	86.6588	183.105	86.8966	183.105	86.5684	183.105	86.7817	183.105	86.437	183.105	86.6194	183.105	86.2643	183.105	86.4122	183.105	86.0578	183.105	86.1701	183.105	85.8322	183.105	85.9111	183.105	85.609	183.105	85.6592	183.105	85.4126	183.105	85.4408	183.105	85.2667	183.105	85.28	183.105	85.19	183.105	85.1938
188.965	86.831	188.965	86.8578	188.965	86.801	188.965	86.8819	188.965	86.7684	188.965	86.9033	188.965	86.7342	188.965	86.9217	188.965	86.6999	188.965	86.9347	188.965	86.6658	188.965	86.9382	188.965	86.6302	188.965	86.9256	188.965	86.5882	188.965	86.8889	188.965	86.532	188.965	86.82	188.965	86.453	188.965	86.7128	188.965	86.3438	188.965	86.5645	188.965	86.2017	188.965	86.3781	188.965	86.0307	188.965	86.1631	188.965	85.8423	188.965	85.9354	188.965	85.6545	188.965	85.7156	188.965	85.4888	188.965	85.5257	188.965	85.366	188.965	85.3853	188.965	85.3029	188.965	85.3088
196.289	86.8445	196.289	86.8462	196.289	86.8358	196.289	86.8425	196.289	86.8196	196.289	86.835	196.289	86.7955	196.289	86.8247	196.289	86.7635	196.289	86.8107	196.289	86.7227	196.289	86.7896	196.289	86.6703	196.289	86.7554	196.289	86.6016	196.289	86.7003	196.289	86.5108	196.289	86.6165	196.289	86.3923	196.289	86.4977	196.289	86.2425	196.289	86.3415	196.289	86.0623	196.289	86.1508	196.289	85.8585	196.289	85.9349	196.289	85.6444	196.289	85.7088	196.289	85.4388	196.289	85.4916	196.289	85.2632	196.289	85.3036	196.289	85.1373	196.289	85.1632	196.289	85.0754	196.289	85.0844
203.613	86.8149	203.613	86.8021	203.613	86.8135	203.613	86.7768	203.613	86.7973	203.613	86.7419	203.613	86.7672	203.613	86.701	203.613	86.7241	203.613	86.6562	203.613	86.6682	203.613	86.6075	203.613	86.5981	203.613	86.5508	203.613	86.5107	203.613	86.4788	203.613	86.4015	203.613	86.3825	203.613	86.2659	203.613	86.2544	203.613	86.1014	203.613	86.0911	203.613	85.9098	203.613	85.8963	203.613	85.6982	203.613	85.6806	203.613	85.48	203.613	85.461	203.613	85.2733	203.613	85.2568	203.613	85.0976	203.613	85.0865	203.613	84.9703	203.613	84.9648	203.613	84.9034	203.613	84.9018
210.938	86.7662	210.938	86.7409	210.938	86.7856	210.938	86.7097	210.938	86.7987	210.938	86.6727	210.938	86.8052	210.938	86.6297	210.938	86.8033	210.938	86.5794	210.938	86.7897	210.938	86.5188	210.938	86.7587	210.938	86.4432	210.938	86.7026	210.938	86.3458	210.938	86.613	210.938	86.2199	210.938	86.4827	210.938	86.0602	210.938	86.3084	210.938	85.866	210.938	86.0925	210.938	85.643	210.938	85.8443	210.938	85.405	210.938	85.58	210.938	85.1721	210.938	85.3202	210.938	84.9676	210.938	85.0864	210.938	84.8133	210.938	84.8978	210.938	84.7247	210.938	84.769	210.938	84.7097
218.262	86.5956	218.262	86.5932	218.262	86.5892	218.262	86.5819	218.262	86.5755	218.262	86.5626	218.262	86.5572	218.262	86.5364	218.262	86.5361	218.262	86.5031	218.262	86.5122	218.262	86.4599	218.262	86.4819	218.262	86.4014	218.262	86.4384	218.262	86.3202	218.262	86.3729	218.262	86.209	218.262	86.2773	218.262	86.0628	218.262	86.1463	218.262	85.8819	218.262	85.9806	218.262	85.6737	218.262	85.7869	218.262	85.454	218.262	85.5783	218.262	85.2445	218.262	85.3714	218.262	85.0677	218.262	85.184	218.262	84.9412	218.262	85.031	218.262	84.8747	218.262	84.9238	218.262	84.8699
225.586	86.637	225.586	86.652	225.586	86.601	225.586	86.6478	225.586	86.545	225.586	86.6282	225.586	86.4725	225.586	86.5972	225.586	86.3883	225.586	86.5575	225.586	86.2969	225.586	86.5088	225.586	86.1999	225.586	86.447	225.586	86.0956	225.586	86.3654	225.586	85.9796	225.586	86.2565	225.586	85.8471	225.586	86.1145	225.586	85.6965	225.586	85.9391	225.586	85.5318	225.586	85.7374	225.586	85.3632	225.586	85.5249	225.586	85.2048	225.586	85.3223	225.586	85.0708	225.586	85.1492	225.586	84.9708	225.586	85.0185	225.586	84.9081	225.586	84.9331	225.586	84.8814	225.586	84.8891
232.91	86.7542	232.91	86.7439	232.91	86.7404	232.91	86.7128	232.91	86.7017	232.91	86.6665	232.91	86.6393	232.91	86.6113	232.91	86.555	232.91	86.5519	232.91	86.4499	232.91	86.4889	232.91	86.3229	232.91	86.4176	232.91	86.1705	232.91	86.328	232.91	85.9888	232.91	86.209	232.91	85.7764	232.91	86.0524	232.91	85.5381	232.91	85.8576	232.91	85.2871	232.91	85.6337	232.91	85.044	232.91	85.3986	232.91	84.8328	232.91	85.1745	232.91	84.6744	232.91	84.9802	232.91	84.5795	232.91	84.8246	232.91	84.5466	232.91	84.7063	232.91	84.5643	232.91	84.6199
241.699	86.5651	241.699	86.5492	241.699	86.5592	241.699	86.5111	241.699	86.5335	241.699	86.4526	241.699	86.491	241.699	86.3773	241.699	86.4343	241.699	86.2886	241.699	86.364	241.699	86.1886	241.699	86.2767	241.699	86.0754	241.699	86.1647	241.699	85.943	241.699	86.0181	241.699	85.7832	241.699	85.8287	241.699	85.5896	241.699	85.5948	241.699	85.3621	241.699	85.3258	241.699	85.1103	241.699	85.042	241.699	84.8539	241.699	84.7718	241.699	84.6187	241.699	84.5423	241.699	84.4277	241.699	84.3706	241.699	84.2938	241.699	84.2596	241.699	84.2165	241.699	84.2016	241.699	84.1878
250.488	86.69	250.488	86.6859	250.488	86.6563	250.488	86.6443	250.488	86.5882	250.488	86.5691	250.488	86.4921	250.488	86.4668	250.488	86.3765	250.488	86.3441	250.488	86.2492	250.488	86.2063	250.488	86.1147	250.488	86.0553	250.488	85.9716	250.488	85.8887	250.488	85.8123	250.488	85.7017	250.488	85.6266	250.488	85.4887	250.488	85.4071	250.488	85.2467	250.488	85.1554	250.488	84.98	250.488	84.885	250.488	84.7026	250.488	84.6189	250.488	84.4391	250.488	84.3826	250.488	84.2178	250.488	84.1947	250.488	84.0603	250.488	84.0618	250.488	83.9733	250.488	83.9812	250.488	83.9503
259.277	86.7369	259.277	86.7364	259.277	86.7005	259.277	86.6998	259.277	86.6297	259.277	86.6301	259.277	86.5302	259.277	86.5324	259.277	86.4095	259.277	86.4121	259.277	86.2755	259.277	86.2728	259.277	86.1336	259.277	86.1143	259.277	85.9844	259.277	85.9333	259.277	85.8232	259.277	85.7267	259.277	85.6418	259.277	85.4963	259.277	85.4333	259.277	85.2519	259.277	85.1983	259.277	85.009	259.277	84.9491	259.277	84.7845	259.277	84.7089	259.277	84.5912	259.277	84.5035	259.277	84.4364	259.277	84.3512	259.277	84.3226	259.277	84.2566	259.277	84.2487	259.277	84.2133	259.277	84.2123
268.066	86.751	268.066	86.7293	268.066	86.7135	268.066	86.653	268.066	86.6191	268.066	86.5329	268.066	86.4769	268.066	86.383	268.066	86.2994	268.066	86.2173	268.066	86.0995	268.066	86.0461	268.066	85.8868	268.066	85.8721	268.066	85.6663	268.066	85.6892	268.066	85.4387	268.066	85.4872	268.066	85.2013	268.066	85.2596	268.066	84.9513	268.066	85.0132	268.066	84.6912	268.066	84.7684	268.066	84.4342	268.066	84.5512	268.066	84.2047	268.066	84.379	268.066	84.031	268.066	84.2515	268.066	83.9314	268.066	84.1545	268.066	83.9053	268.066	84.072	268.066	83.9349	268.066	83.9966
276.855	86.6609	276.855	86.6583	276.855	86.6608	276.855	86.644	276.855	86.6577	276.855	86.6041	276.855	86.6417	276.855	86.5251	276.855	86.5961	276.855	86.3976	276.855	86.5016	276.855	86.2184	276.855	86.3402	276.855	85.9906	276.855	86.0993	276.855	85.7223	276.855	85.7763	276.855	85.4247	276.855	85.3837	276.855	85.1092	276.855	84.9505	276.855	84.7877	276.855	84.5167	276.855	84.4739	276.855	84.1229	276.855	84.1853	276.855	83.7992	276.855	83.9386	276.855	83.5609	276.855	83.7413	276.855	83.4099	276.855	83.5885	276.855	83.3392	276.855	83.4707	276.855	83.3358	276.855	83.3843
287.109	86.3997	287.109	86.3809	287.109	86.3914	287.109	86.3368	287.109	86.3577	287.109	86.27	287.109	86.3033	287.109	86.1822	287.109	86.2338	287.109	86.0736	287.109	86.1522	287.109	85.9438	287.109	86.055	287.109	85.7913	287.109	85.9317	287.109	85.6115	287.109	85.7675	287.109	85.3961	287.109	85.5498	287.109	85.139	287.109	85.2788	287.109	84.8468	287.109	84.9756	287.109	84.5466	287.109	84.6814	287.109	84.2818	287.109	84.4416	287.109	84.0937	287.109	84.2823	287.109	83.9999	287.109	84.1959	287.109	83.9868	287.109	84.1512	287.109	84.0218	287.109	84.1157	287.109	84.0717
297.363	86.8028	297.363	86.8109	297.363	86.7428	297.363	86.7735	297.363	86.6357	297.363	86.7061	297.363	86.4928	297.363	86.6247	297.363	86.3249	297.363	86.5361	297.363	86.1357	297.363	86.4323	297.363	85.9211	297.363	86.2942	297.363	85.6723	297.363	86.1013	297.363	85.3815	297.363	85.8413	297.363	85.0467	297.363	85.516	297.363	84.6775	297.363	85.146	297.363	84.3019	297.363	84.7704	297.363	83.9679	297.363	84.44	297.363	83.7307	297.363	84.197	297.363	83.6243	297.363	84.0534	297.363	83.6376	297.363	83.9845	297.363	83.7219	297.363	83.9464	297.363	83.8212	297.363	83.8986
307.617	86.9321	307.617	86.8546	307.617	86.9482	307.617	86.7194	307.617	86.9053	307.617	86.5357	307.617	86.8124	307.617	86.3185	307.617	86.6834	307.617	86.0863	307.617	86.5322	307.617	85.8551	307.617	86.3648	307.617	85.6301	307.617	86.1754	307.617	85.4029	307.617	85.9489	307.617	85.1554	307.617	85.6701	307.617	84.8716	307.617	85.3339	307.617	84.5498	307.617	84.9553	307.617	84.2141	307.617	84.5731	307.617	83.9153	307.617	84.2436	307.617	83.7134	307.617	84.0172	307.617	83.6424	307.617	83.9081	307.617	83.6825	307.617	83.8827	307.617	83.772	307.617	83.8799	307.617	83.848
319.336	86.7616	319.336	86.7316	319.336	86.7142	319.336	86.6237	319.336	86.5979	319.336	86.4436	319.336	86.4284	319.336	86.202	319.336	86.2272	319.336	85.9106	319.336	86.0162	319.336	85.5787	319.336	85.8087	319.336	85.2093	319.336	85.6018	319.336	84.8022	319.336	85.3768	319.336	84.3625	319.336	85.1111	319.336	83.9121	319.336	84.7972	319.336	83.4931	319.336	84.4574	319.336	83.1575	319.336	84.1424	319.336	82.9482	319.336	83.9067	319.336	82.8827	319.336	83.7736	319.336	82.9485	319.336	83.718	319.336	83.1076	319.336	83.6836	319.336	83.3057	319.336	83.6162	319.336	83.4878
329.59	86.4033	329.59	86.4035	329.59	86.3815	329.59	86.3839	329.59	86.3286	329.59	86.3372	329.59	86.2336	329.59	86.2524	329.59	86.0902	329.59	86.1221	329.59	85.8979	329.59	85.9443	329.59	85.6581	329.59	85.7185	329.59	85.3691	329.59	85.4392	329.59	85.0246	329.59	85.0985	329.59	84.6184	329.59	84.6979	329.59	84.155	329.59	84.2649	329.59	83.6648	329.59	83.8581	329.59	83.2136	329.59	83.55	329.59	82.8914	329.59	83.3871	329.59	82.7665	329.59	83.3563	329.59	82.8344	329.59	83.3911	329.59	83.0178	329.59	83.4109	329.59	83.2172	329.59	83.3583
341.309	86.5729	341.309	86.5817	341.309	86.4872	341.309	86.524	341.309	86.33	341.309	86.4217	341.309	86.1187	341.309	86.297	341.309	85.8748	341.309	86.159	341.309	85.6151	341.309	85.9955	341.309	85.3473	341.309	85.7771	341.309	85.0714	341.309	85.4698	341.309	84.785	341.309	85.0511	341.309	84.489	341.309	84.5277	341.309	84.193	341.309	83.9498	341.309	83.9186	341.309	83.4149	341.309	83.696	341.309	83.0398	341.309	83.5519	341.309	82.8938	341.309	83.4935	341.309	82.9516	341.309	83.498	341.309	83.1201	341.309	83.5207	341.309	83.3045	341.309	83.5135	341.309	83.4437
353.027	86.5789	353.027	86.5921	353.027	86.5414	353.027	86.5717	353.027	86.4782	353.027	86.5016	353.027	86.3803	353.027	86.3685	353.027	86.2346	353.027	86.1729	353.027	86.0257	353.027	85.9295	353.027	85.7343	353.027	85.6529	353.027	85.3366	353.027	85.3391	353.027	84.8089	353.027	84.9627	353.027	84.1429	353.027	84.4997	353.027	83.3684	353.027	83.963	353.027	82.5824	353.027	83.4267	353.027	81.956	353.027	83.014	353.027	81.6703	353.027	82.8287	353.027	81.7781	353.027	82.8702	353.027	82.1531	353.027	83.0275	353.027	82.598	353.027	83.1563	353.027	82.9573	353.027	83.1486
366.211	86.8513	366.211	86.6686	366.211	86.9315	366.211	86.3935	366.211	86.916	366.211	86.058	366.211	86.8187	366.211	85.7092	366.211	86.6552	366.211	85.3906	366.211	86.4381	366.211	85.1221	366.211	86.1722	366.211	84.8926	366.211	85.8472	366.211	84.6695	366.211	85.4368	366.211	84.4151	366.211	84.9114	366.211	84.1012	366.211	84.264	366.211	83.7259	366.211	83.5395	366.211	83.3264	366.211	82.8489	366.211	82.9749	366.211	82.3396	366.211	82.7425	366.211	82.1101	366.211	82.6489	366.211	82.1376	366.211	82.6475	366.211	82.3062	366.211	82.6592	366.211	82.4919	366.211	82.6169
379.395	86.8975	379.395	86.92	379.395	86.8392	379.395	86.8903	379.395	86.7627	379.395	86.7918	379.395	86.6828	379.395	86.6081	379.395	86.6017	379.395	86.3277	379.395	86.5028	379.395	85.9485	379.395	86.3557	379.395	85.4757	379.395	86.1278	379.395	84.9152	379.395	85.794	379.395	84.2717	379.395	85.3437	379.395	83.5604	379.395	84.7887	379.395	82.8329	379.395	84.176	379.395	82.2022	379.395	83.5935	379.395	81.8246	379.395	83.1472	379.395	81.7965	379.395	82.9037	379.395	82.0515	379.395	82.8451	379.395	82.4098	379.395	82.8861	379.395	82.7122	379.395	82.9261	379.395	82.8843
392.578	86.3893	392.578	86.4257	392.578	86.3164	392.578	86.4415	392.578	86.1907	392.578	86.4402	392.578	86.0088	392.578	86.4091	392.578	85.7868	392.578	86.3254	392.578	85.5534	392.578	86.1661	392.578	85.3295	392.578	85.9128	392.578	85.1077	392.578	85.5506	392.578	84.8511	392.578	85.0648	392.578	84.5136	392.578	84.4466	392.578	84.0715	392.578	83.7129	392.578	83.5564	392.578	82.9391	392.578	83.0745	392.578	82.283	392.578	82.7759	392.578	81.9394	392.578	82.7451	392.578	81.9945	392.578	82.911	392.578	82.333	392.578	83.1032	392.578	82.7418	392.578	83.1733	392.578	83.0504
405.762	86.7109	405.762	86.6755	405.762	86.659	405.762	86.5608	405.762	86.5235	405.762	86.3934	405.762	86.3093	405.762	86.2123	405.762	86.0164	405.762	86.0455	405.762	85.6441	405.762	85.884	405.762	85.1994	405.762	85.6771	405.762	84.7024	405.762	85.3563	405.762	84.1845	405.762	84.8748	405.762	83.679	405.762	84.2386	405.762	83.2142	405.762	83.5186	405.762	82.8209	405.762	82.8397	405.762	82.5512	405.762	82.3456	405.762	82.4739	405.762	82.1408	405.762	82.614	405.762	82.2357	405.762	82.892	405.762	82.5379	405.762	83.1553	405.762	82.8989	405.762	83.2692	405.762	83.1751
420.41	86.7567	420.41	86.7029	420.41	86.7367	420.41	86.5881	420.41	86.6456	420.41	86.431	420.41	86.5064	420.41	86.2494	420.41	86.3501	420.41	86.0549	420.41	86.1882	420.41	85.8433	420.41	85.9899	420.41	85.5844	420.41	85.6837	420.41	85.2282	420.41	85.1824	420.41	84.7304	420.41	84.4167	420.41	84.0896	420.41	83.3724	420.41	83.3853	420.41	82.1446	420.41	82.7936	420.41	81.0075	420.41	82.5081	420.41	80.3814	420.41	82.5736	420.41	80.5004	420.41	82.8404	420.41	81.1486	420.41	83.1002	420.41	81.9403	420.41	83.1966	420.41	82.6127	420.41	83.043
435.059	86.1499	435.059	86.0849	435.059	86.1879	435.059	85.9986	435.059	86.19	435.059	85.8851	435.059	86.1512	435.059	85.7239	435.059	86.0745	435.059	85.4929	435.059	85.9695	435.059	85.1884	435.059	85.8377	435.059	84.8224	435.059	85.6502	435.059	84.3895	435.059	85.3399	435.059	83.8369	435.059	84.8245	435.059	83.0897	435.059	84.058	435.059	82.1392	435.059	83.0988	435.059	81.1719	435.059	82.1793	435.059	80.6251	435.059	81.6643	435.059	80.8585	435.059	81.7492	435.059	81.6681	435.059	82.2442	435.059	82.5472	435.059	82.8198	435.059	83.1576	435.059	83.2448	435.059	83.3847
451.172	86.97	451.172	86.8823	451.172	86.9386	451.172	86.6793	451.172	86.8015	451.172	86.3976	451.172	86.581	451.172	86.1118	451.172	86.3064	451.172	85.8983	451.172	86.0057	451.172	85.7682	451.172	85.6924	451.172	85.6398	451.172	85.3531	451.172	85.3857	451.172	84.9461	451.172	84.8998	451.172	84.4117	451.172	84.1334	451.172	83.6949	451.172	83.105	451.172	82.7871	451.172	81.9344	451.172	81.8056	451.172	80.926	451.172	81.0726	451.172	80.5137	451.172	80.9475	451.172	80.8168	451.172	81.3785	451.172	81.4606	451.172	81.946	451.172	82.0377	451.172	82.3118	451.172	82.345
465.82	86.7696	465.82	86.7824	465.82	86.69	465.82	86.7103	465.82	86.5683	465.82	86.5469	465.82	86.4256	465.82	86.2996	465.82	86.2706	465.82	85.9949	465.82	86.0968	465.82	85.677	465.82	85.8845	465.82	85.374	465.82	85.6015	465.82	85.0465	465.82	85.201	465.82	84.5811	465.82	84.6224	465.82	83.8567	465.82	83.8069	465.82	82.8328	465.82	82.7449	465.82	81.6398	465.82	81.5755	465.82	80.6471	465.82	80.6906	465.82	80.3005	465.82	80.5238	465.82	80.6427	465.82	80.9915	465.82	81.2727	465.82	81.6034	465.82	81.8118	465.82	82.0061	465.82	82.0774
483.398	86.4676	483.398	86.4243	483.398	86.4655	483.398	86.3476	483.398	86.4163	483.398	86.2482	483.398	86.3348	483.398	86.1342	483.398	86.2424	483.398	86.0154	483.398	86.1445	483.398	85.8958	483.398	86.0127	483.398	85.7471	483.398	85.7797	483.398	85.4935	483.398	85.3538	483.398	85.0299	483.398	84.6452	483.398	84.2654	483.398	83.6015	483.398	83.1764	483.398	82.274	483.398	81.8968	483.398	80.9535	483.398	80.8451	483.398	80.244	483.398	80.5656	483.398	80.5129	483.398	81.0603	483.398	81.3268	483.398	81.8004	483.398	82.0967	483.398	82.381	483.398	82.5564	483.398	82.6481
499.512	86.6579	499.512	86.5399	499.512	86.6558	499.512	86.3331	499.512	86.5305	499.512	86.0615	499.512	86.3285	499.512	85.7273	499.512	86.1303	499.512	85.3369	499.512	85.9994	499.512	84.9445	499.512	85.935	499.512	84.6418	499.512	85.8697	499.512	84.4586	499.512	85.6988	499.512	84.2793	499.512	85.3043	499.512	83.9007	499.512	84.5654	499.512	83.1662	499.512	83.3854	499.512	82.089	499.512	81.7922	499.512	80.9954	499.512	80.2091	499.512	80.5184	499.512	79.6161	499.512	80.945	499.512	80.3645	499.512	81.7899	499.512	81.5401	499.512	82.4795	499.512	82.4037	499.512	82.7207
517.09	86.4532	517.09	86.3861	517.09	86.3883	517.09	86.1924	517.09	86.2068	517.09	85.9108	517.09	85.9499	517.09	85.6102	517.09	85.7077	517.09	85.3496	517.09	85.6106	517.09	85.1248	517.09	85.73	517.09	84.8594	517.09	85.9604	517.09	84.4519	517.09	86.0617	517.09	83.8215	517.09	85.8168	517.09	82.9169	517.09	85.1238	517.09	81.7367	517.09	84.0032	517.09	80.4762	517.09	82.606	517.09	79.7836	517.09	81.3071	517.09	80.3002	517.09	80.7465	517.09	81.5602	517.09	81.2343	517.09	82.7218	517.09	82.2366	517.09	83.4052	517.09	83.104	517.09	83.5269
536.133	87.2275	536.133	87.2559	536.133	86.9512	536.133	87.0563	536.133	86.4599	536.133	86.6793	536.133	85.8308	536.133	86.1871	536.133	85.1519	536.133	85.6627	536.133	84.5132	536.133	85.2156	536.133	84.0256	536.133	84.909	536.133	83.7746	536.133	84.6457	536.133	83.6929	536.133	84.1804	536.133	83.557	536.133	83.2445	536.133	83.1402	536.133	81.6255	536.133	82.351	536.133	79.2828	536.133	81.3544	536.133	77.0655	536.133	80.6843	536.133	77.2718	536.133	80.8755	536.133	79.313	536.133	81.695	536.133	81.1591	536.133	82.5163	536.133	82.3583	536.133	82.9763	536.133	82.9436
555.176	87.4176	555.176	87.4337	555.176	87.2651	555.176	87.3246	555.176	86.974	555.176	87.0985	555.176	86.5594	555.176	86.7571	555.176	86.058	555.176	86.3144	555.176	85.5359	555.176	85.8288	555.176	85.0907	555.176	85.3959	555.176	84.7939	555.176	85.0556	555.176	84.571	555.176	84.6914	555.176	84.1809	555.176	84.0476	555.176	83.3381	555.176	82.828	555.176	81.8308	555.176	80.7682	555.176	79.6725	555.176	77.7818	555.176	77.5902	555.176	75.1139	555.176	77.2879	555.176	76.135	555.176	78.7773	555.176	78.8232	555.176	80.4237	555.176	80.7234	555.176	81.4351	555.176	81.5704
574.219	87.7436	574.219	87.635	574.219	87.6053	574.219	87.3471	574.219	87.1862	574.219	86.9369	574.219	86.546	574.219	86.4614	574.219	85.8613	574.219	86.0198	574.219	85.3478	574.219	85.7194	574.219	85.0984	574.219	85.5519	574.219	85.0364	574.219	85.3733	574.219	85.0228	574.219	85.0289	574.219	84.8882	574.219	84.395	574.219	84.3968	574.219	83.279	574.219	83.2898	574.219	81.3513	574.219	81.3978	574.219	78.3381	574.219	78.9705	574.219	75.6615	574.219	77.6495	574.219	77.0919	574.219	78.8085	574.219	79.6413	574.219	80.5392	574.219	81.2114	574.219	81.6067	574.219	81.8334
594.727	88.0324	594.727	88.0625	594.727	87.7762	594.727	87.8307	594.727	87.3056	594.727	87.3227	594.727	86.5883	594.727	86.5622	594.727	85.5965	594.727	85.6095	594.727	84.4228	594.727	84.6461	594.727	83.4249	594.727	84.0858	594.727	83.0787	594.727	84.1906	594.727	83.3451	594.727	84.5227	594.727	83.6577	594.727	84.4367	594.727	83.5119	594.727	83.6102	594.727	82.5955	594.727	81.9846	594.727	80.7435	594.727	79.5727	594.727	78.2835	594.727	76.7627	594.727	77.0829	594.727	76.2718	594.727	78.3115	594.727	78.8008	594.727	80.0151	594.727	80.8332	594.727	81.1837	594.727	81.5521
615.234	87.873	615.234	87.896	615.234	87.7289	615.234	87.7402	615.234	87.4669	615.234	87.3432	615.234	87.0278	615.234	86.7059	615.234	86.335	615.234	85.9159	615.234	85.3709	615.234	85.0703	615.234	84.2209	615.234	84.2046	615.234	83.065	615.234	83.4136	615.234	82.1202	615.234	82.9165	615.234	81.4609	615.234	82.6734	615.234	80.9026	615.234	82.1969	615.234	80.2054	615.234	80.9225	615.234	79.1683	615.234	78.376	615.234	77.5422	615.234	74.3693	615.234	75.6018	615.234	71.5753	615.234	75.4975	615.234	73.7283	615.234	77.2365	615.234	76.3073	615.234	78.2475	615.234	77.8825
637.207	87.4019	637.207	87.2507	637.207	87.3982	637.207	87.023	637.207	87.1871	637.207	86.7495	637.207	86.7726	637.207	86.3797	637.207	86.1604	637.207	85.8368	637.207	85.3317	637.207	85.1463	637.207	84.3787	637.207	84.5261	637.207	83.6532	637.207	84.1969	637.207	83.462	637.207	84.0383	637.207	83.5529	637.207	83.7065	637.207	83.3529	637.207	82.9364	637.207	82.4367	637.207	81.5632	637.207	80.6706	637.207	79.4571	637.207	78.2725	637.207	76.7521	637.207	76.0785	637.207	75.2792	637.207	75.6094	637.207	76.7606	637.207	76.8187	637.207	78.3643	637.207	78.1491	637.207	78.7864
659.18	87.6976	659.18	87.5548	659.18	87.6346	659.18	87.1933	659.18	87.3487	659.18	86.6555	659.18	86.7935	659.18	86.0217	659.18	85.9742	659.18	85.2572	659.18	84.954	659.18	84.1988	659.18	83.841	659.18	82.8464	659.18	82.8695	659.18	81.73	659.18	82.3068	659.18	81.5158	659.18	82.1149	659.18	81.8305	659.18	81.9643	659.18	81.8796	659.18	81.4479	659.18	81.352	659.18	80.1946	659.18	80.2505	659.18	78.2055	659.18	78.8157	659.18	76.6767	659.18	77.7045	659.18	77.0392	659.18	77.5475	659.18	78.0998	659.18	78.1154	659.18	78.7203	659.18	78.6799
682.617	88.3649	682.617	88.3925	682.617	88.1794	682.617	88.2534	682.617	87.8112	682.617	87.8731	682.617	87.2224	682.617	87.186	682.617	86.3477	682.617	86.2084	682.617	85.1421	682.617	84.9818	682.617	83.6147	682.617	83.5352	682.617	81.809	682.617	82.0025	682.617	79.9954	682.617	80.7387	682.617	78.841	682.617	80.1279	682.617	78.6693	682.617	80.0046	682.617	78.9162	682.617	79.7194	682.617	78.7154	682.617	78.7872	682.617	77.5801	682.617	77.3173	682.617	76.506	682.617	76.8351	682.617	77.5375	682.617	78.3481	682.617	79.3424	682.617	79.9817	682.617	80.4517	682.617	80.6905
707.52	88.6278	707.52	88.5806	707.52	88.6946	707.52	88.521	707.52	88.7072	707.52	88.3668	707.52	88.5582	707.52	88.0653	707.52	88.2034	707.52	87.6105	707.52	87.6146	707.52	86.9548	707.52	86.7052	707.52	85.933	707.52	85.3822	707.52	84.4307	707.52	83.6251	707.52	82.6272	707.52	81.515	707.52	80.8242	707.52	79.2026	707.52	78.8923	707.52	76.637	707.52	76.2948	707.52	73.4814	707.52	72.9542	707.52	70.1386	707.52	71.2021	707.52	69.735	707.52	73.6251	707.52	73.0987	707.52	76.9229	707.52	76.6096	707.52	79.0532	707.52	78.879	707.52	79.6913
732.422	87.2698	732.422	87.1657	732.422	87.4033	732.422	87.1961	732.422	87.4988	732.422	87.401	732.422	87.5216	732.422	87.5851	732.422	87.4632	732.422	87.4502	732.422	87.3066	732.422	86.912	732.422	86.9604	732.422	86.0922	732.422	86.317	732.422	85.0195	732.422	85.3637	732.422	83.4891	732.422	84.0868	732.422	81.2313	732.422	82.337	732.422	78.186	732.422	80.0159	732.422	74.9633	732.422	77.2669	732.422	72.4832	732.422	74.316	732.422	70.8552	732.422	71.9688	732.422	72.0304	732.422	72.0898	732.422	74.0802	732.422	73.8753	732.422	75.0031	732.422	75.0483	732.422	75.2405
757.324	86.8009	757.324	86.8044	757.324	86.624	757.324	86.6284	757.324	86.4159	757.324	86.4837	757.324	86.3474	757.324	86.6627	757.324	86.4474	757.324	87.0542	757.324	86.6172	757.324	87.2233	757.324	86.7251	757.324	87.0616	757.324	86.5161	757.324	86.7256	757.324	85.7736	757.324	86.0459	757.324	84.5737	757.324	84.6407	757.324	83.0947	757.324	82.393	757.324	81.273	757.324	79.2006	757.324	78.8208	757.324	74.2082	757.324	75.3205	757.324	68.9308	757.324	72.5343	757.324	73.2454	757.324	74.832	757.324	76.4838	757.324	77.056	757.324	77.8586	757.324	77.9139	757.324	78.1673
785.156	87.5778	785.156	87.2422	785.156	87.9061	785.156	87.047	785.156	88.1515	785.156	86.9465	785.156	88.3622	785.156	86.7638	785.156	88.6151	785.156	86.5737	785.156	88.9078	785.156	86.5176	785.156	89.1005	785.156	86.3099	785.156	89.0719	785.156	85.737	785.156	88.698	785.156	84.9239	785.156	87.7107	785.156	83.8245	785.156	86.002	785.156	82.1164	785.156	83.8125	785.156	79.3145	785.156	80.685	785.156	74.6555	785.156	74.7244	785.156	67.6371	785.156	63.8967	785.156	64.9508	785.156	68.3147	785.156	68.2952	785.156	73.5059	785.156	72.2819	785.156	76.0012	785.156	75.3963
811.523	85.8007	811.523	85.3495	811.523	85.7756	811.523	84.6073	811.523	85.266	811.523	83.7318	811.523	84.624	811.523	83.2984	811.523	84.3991	811.523	83.96	811.523	84.7833	811.523	85.1772	811.523	85.5521	811.523	86.502	811.523	86.4811	811.523	87.6373	811.523	87.1731	811.523	88.1917	811.523	87.2832	811.523	88.036	811.523	86.7565	811.523	87.1668	811.523	85.4054	811.523	85.6649	811.523	82.8459	811.523	83.5288	811.523	79.0265	811.523	80.2591	811.523	74.1955	811.523	75.1748	811.523	69.2237	811.523	72.1278	811.523	68.7648	811.523	72.4332	811.523	69.6457	811.523	70.9375
840.82	86.6099	840.82	86.3261	840.82	86.7531	840.82	85.8411	840.82	86.6983	840.82	84.9879	840.82	86.1282	840.82	83.4865	840.82	84.7259	840.82	81.3844	840.82	83.144	840.82	80.1658	840.82	83.1351	840.82	80.9547	840.82	84.1623	840.82	82.2184	840.82	85.2185	840.82	83.3722	840.82	86.1412	840.82	84.3225	840.82	86.3036	840.82	84.2859	840.82	85.4081	840.82	82.6036	840.82	83.5512	840.82	79.4854	840.82	80.288	840.82	75.5061	840.82	74.8621	840.82	72.7021	840.82	72.6725	840.82	74.2775	840.82	75.5016	840.82	75.1314	840.82	76.3377	840.82	75.7011
870.117	89.2169	870.117	89.0617	870.117	88.9544	870.117	88.5255	870.117	88.4103	870.117	87.7419	870.117	87.7502	870.117	86.7719	870.117	86.8569	870.117	85.5224	870.117	85.303	870.117	84.0593	870.117	83.3115	870.117	83.5741	870.117	82.6695	870.117	84.5482	870.117	83.5256	870.117	85.4753	870.117	84.3825	870.117	85.8479	870.117	84.7114	870.117	85.6571	870.117	84.2096	870.117	84.728	870.117	82.8382	870.117	83.063	870.117	80.8014	870.117	81.3161	870.117	78.9324	870.117	80.8576	870.117	79.2132	870.117	81.5677	870.117	81.0841	870.117	82.4429	870.117	82.5452	870.117	82.9463
900.879	86.5064	900.879	86.3247	900.879	86.5221	900.879	86.1775	900.879	86.2948	900.879	85.826	900.879	85.8183	900.879	84.7897	900.879	85.0044	900.879	83.295	900.879	84.1187	900.879	82.0013	900.879	83.4071	900.879	80.5498	900.879	82.6892	900.879	79.1285	900.879	82.6095	900.879	79.1738	900.879	82.8206	900.879	80.0174	900.879	82.0061	900.879	80.2135	900.879	80.5459	900.879	78.9581	900.879	78.4642	900.879	76.0212	900.879	72.9448	900.879	70.2148	900.879	53.1627	900.879	65.8744	900.879	73.8209	900.879	74.6681	900.879	78.0552	900.879	76.7373	900.879	78.4024	900.879	77.1746
933.105	86.6433	933.105	86.3835	933.105	86.8968	933.105	86.0818	933.105	86.8911	933.105	85.4983	933.105	86.4803	933.105	84.3529	933.105	85.6393	933.105	82.1233	933.105	84.4069	933.105	78.7834	933.105	83.2579	933.105	77.2864	933.105	82.6734	933.105	78.9226	933.105	83.04	933.105	80.7344	933.105	84.2995	933.105	82.0085	933.105	84.9827	933.105	82.2452	933.105	84.3915	933.105	81.1284	933.105	82.4544	933.105	78.4518	933.105	78.8322	933.105	74.0591	933.105	73.7203	933.105	74.0824	933.105	70.0742	933.105	76.9392	933.105	74.5678	933.105	78.3898	933.105	78.1398	933.105	79.0312
965.332	88.0304	965.332	87.8687	965.332	87.8359	965.332	87.614	965.332	87.5487	965.332	87.3511	965.332	87.3141	965.332	86.6408	965.332	86.6569	965.332	85.3834	965.332	85.2686	965.332	83.7317	965.332	83.5298	965.332	81.654	965.332	82.0872	965.332	79.6955	965.332	81.622	965.332	79.3977	965.332	82.0523	965.332	80.6209	965.332	82.0463	965.332	81.173	965.332	80.9677	965.332	80.3042	965.332	78.6902	965.332	77.7979	965.332	74.2822	965.332	72.1462	965.332	70.0054	965.332	69.8109	965.332	73.9983	965.332	75.7075	965.332	78.139	965.332	78.6629	965.332	80.0264	965.332	80.0047
1,000.49	86.4567	1,000.49	86.6679	1,000.49	86.1328	1,000.49	86.768	1,000.49	85.9553	1,000.49	86.793	1,000.49	85.7921	1,000.49	86.3788	1,000.49	85.145	1,000.49	85.3264	1,000.49	83.767	1,000.49	83.8925	1,000.49	81.735	1,000.49	82.1627	1,000.49	79.5422	1,000.49	79.9754	1,000.49	78.2219	1,000.49	78.2035	1,000.49	78.9263	1,000.49	78.2467	1,000.49	79.907	1,000.49	78.8489	1,000.49	79.2605	1,000.49	78.8181	1,000.49	77.3395	1,000.49	77.1292	1,000.49	73.3915	1,000.49	71.5997	1,000.49	60.1001	1,000.49	56.436	1,000.49	69.3041	1,000.49	73.9709	1,000.49	76.2419	1,000.49	77.8708	1,000.49	78.9536	1,000.49	79.1441
1,035.64	85.8542	1,035.64	85.6765	1,035.64	85.8253	1,035.64	85.3374	1,035.64	85.66	1,035.64	84.945	1,035.64	85.2026	1,035.64	84.4444	1,035.64	84.0625	1,035.64	83.9073	1,035.64	82.2279	1,035.64	83.1617	1,035.64	80.493	1,035.64	82.1061	1,035.64	78.9226	1,035.64	81.1137	1,035.64	77.0611	1,035.64	80.5781	1,035.64	77.0376	1,035.64	81.6264	1,035.64	78.2835	1,035.64	82.8364	1,035.64	78.3223	1,035.64	82.2567	1,035.64	77.0301	1,035.64	79.8214	1,035.64	73.6888	1,035.64	75.6021	1,035.64	63.0158	1,035.64	71.7029	1,035.64	70.4482	1,035.64	74.481	1,035.64	75.9373	1,035.64	77.4814	1,035.64	77.8961	1,035.64	78.4251
1,072.27	85.5013	1,072.27	84.8857	1,072.27	85.8649	1,072.27	84.7105	1,072.27	85.6782	1,072.27	84.6729	1,072.27	85.3486	1,072.27	84.0628	1,072.27	85.1673	1,072.27	83.2156	1,072.27	84.5896	1,072.27	82.1391	1,072.27	83.18	1,072.27	80.278	1,072.27	81.4483	1,072.27	78.9025	1,072.27	79.7777	1,072.27	78.6899	1,072.27	79.4458	1,072.27	78.8492	1,072.27	80.1217	1,072.27	79.0157	1,072.27	80.1833	1,072.27	78.3494	1,072.27	79.3873	1,072.27	76.4654	1,072.27	76.2049	1,072.27	73.2194	1,072.27	70.1344	1,072.27	72.3518	1,072.27	67.0546	1,072.27	75.7396	1,072.27	74.0947	1,072.27	77.739	1,072.27	78.2323	1,072.27	78.8262
1,108.89	84.1636	1,108.89	84.559	1,108.89	83.9054	1,108.89	84.5829	1,108.89	83.4169	1,108.89	83.8511	1,108.89	82.6895	1,108.89	83.0804	1,108.89	81.98	1,108.89	82.2501	1,108.89	81.5051	1,108.89	81.0978	1,108.89	81.1092	1,108.89	79.1571	1,108.89	79.5816	1,108.89	77.4798	1,108.89	77.9696	1,108.89	78.8036	1,108.89	78.5973	1,108.89	80.3125	1,108.89	80.3624	1,108.89	80.9413	1,108.89	80.9826	1,108.89	80.4301	1,108.89	79.556	1,108.89	77.3719	1,108.89	77.0534	1,108.89	70.6372	1,108.89	73.8886	1,108.89	73.4305	1,108.89	75.7743	1,108.89	76.7449	1,108.89	78.054	1,108.89	79.0802	1,108.89	79.6238	1,108.89	80.2774
1,148.44	85.0231	1,148.44	84.7299	1,148.44	85.3071	1,148.44	84.8889	1,148.44	85.1112	1,148.44	84.6444	1,148.44	84.7641	1,148.44	83.6216	1,148.44	84.236	1,148.44	83.1558	1,148.44	83.2203	1,148.44	82.1015	1,148.44	82.2587	1,148.44	80.4225	1,148.44	81.5914	1,148.44	79.7961	1,148.44	80.6912	1,148.44	79.8084	1,148.44	79.773	1,148.44	81.6924	1,148.44	79.7769	1,148.44	82.3344	1,148.44	79.6568	1,148.44	81.3194	1,148.44	78.3448	1,148.44	77.0914	1,148.44	73.8766	1,148.44	55.4938	1,148.44	70.2304	1,148.44	73.2416	1,148.44	74.8829	1,148.44	77.2617	1,148.44	78.2249	1,148.44	79.4965	1,148.44	79.784	1,148.44	80.24
1,189.45	85.0579	1,189.45	85.2919	1,189.45	84.7485	1,189.45	84.476	1,189.45	84.0359	1,189.45	83.6648	1,189.45	83.1479	1,189.45	83.7538	1,189.45	83.0589	1,189.45	82.6182	1,189.45	82.81	1,189.45	80.4848	1,189.45	82.0266	1,189.45	77.2632	1,189.45	79.8628	1,189.45	67.914	1,189.45	73.7421	1,189.45	71.4839	1,189.45	72.0725	1,189.45	79.2934	1,189.45	74.9787	1,189.45	81.0114	1,189.45	77.3901	1,189.45	80.0295	1,189.45	76.8318	1,189.45	77.7296	1,189.45	70.4806	1,189.45	70.2316	1,189.45	66.5995	1,189.45	67.7639	1,189.45	75.8433	1,189.45	76.4571	1,189.45	78.3389	1,189.45	79.652	1,189.45	80.4457	1,189.45	81.2486
1,230.47	85.5845	1,230.47	85.5774	1,230.47	85.493	1,230.47	85.3003	1,230.47	84.7535	1,230.47	84.4686	1,230.47	83.6834	1,230.47	83.5361	1,230.47	83.335	1,230.47	83.2081	1,230.47	83.3186	1,230.47	82.7858	1,230.47	82.5155	1,230.47	80.3323	1,230.47	80.6093	1,230.47	74.9464	1,230.47	77.5869	1,230.47	60.2387	1,230.47	75.1986	1,230.47	72.5772	1,230.47	74.8112	1,230.47	78.4144	1,230.47	76.9287	1,230.47	77.934	1,230.47	75.6757	1,230.47	74.4459	1,230.47	67.8591	1,230.47	73.2547	1,230.47	70.4132	1,230.47	75.1746	1,230.47	79.0264	1,230.47	79.5513	1,230.47	80.9995	1,230.47	81.3093	1,230.47	81.1199	1,230.47	81.786
1,274.41	86.2978	1,274.41	86.2709	1,274.41	85.9586	1,274.41	85.5201	1,274.41	84.9698	1,274.41	84.5904	1,274.41	83.1693	1,274.41	83.1814	1,274.41	82.8724	1,274.41	82.3036	1,274.41	83.6411	1,274.41	83.9563	1,274.41	83.6261	1,274.41	83.7728	1,274.41	83.5156	1,274.41	81.9564	1,274.41	80.7857	1,274.41	76.806	1,274.41	73.9253	1,274.41	67.5862	1,274.41	76.2881	1,274.41	79.881	1,274.41	79.7307	1,274.41	81.2774	1,274.41	78.8259	1,274.41	78.6929	1,274.41	74.211	1,274.41	74.5384	1,274.41	74.2261	1,274.41	77.7768	1,274.41	81.4225	1,274.41	82.6595	1,274.41	83.9949	1,274.41	84.261	1,274.41	84.6748	1,274.41	84.1049
1,319.82	88.0775	1,319.82	88.0878	1,319.82	87.9117	1,319.82	87.8461	1,319.82	87.2789	1,319.82	86.7832	1,319.82	85.7989	1,319.82	85.2042	1,319.82	83.7798	1,319.82	83.5098	1,319.82	82.0663	1,319.82	83.1196	1,319.82	83.9715	1,319.82	84.9975	1,319.82	85.2499	1,319.82	85.558	1,319.82	84.2463	1,319.82	83.0265	1,319.82	79.2955	1,319.82	72.9382	1,319.82	75.2058	1,319.82	76.7951	1,319.82	81.0772	1,319.82	83.0237	1,319.82	83.8123	1,319.82	83.8619	1,319.82	82.6638	1,319.82	82.5711	1,319.82	80.3238	1,319.82	81.4868	1,319.82	83.2133	1,319.82	83.915	1,319.82	84.5808	1,319.82	85.5492	1,319.82	85.774	1,319.82	86.9596
1,366.7	89.0148	1,366.7	89.178	1,366.7	88.6615	1,366.7	89.3859	1,366.7	88.2066	1,366.7	88.3771	1,366.7	88.1159	1,366.7	86.9766	1,366.7	86.2334	1,366.7	84.4001	1,366.7	82.799	1,366.7	79.9007	1,366.7	81.4071	1,366.7	81.8901	1,366.7	82.2314	1,366.7	83.3892	1,366.7	83.4075	1,366.7	83.4544	1,366.7	81.6147	1,366.7	78.7028	1,366.7	72.1971	1,366.7	70.3863	1,366.7	79.257	1,366.7	81.197	1,366.7	83.1752	1,366.7	83.6824	1,366.7	83.8284	1,366.7	83.2828	1,366.7	82.2007	1,366.7	81.3238	1,366.7	82.8968	1,366.7	82.5633	1,366.7	83.7378	1,366.7	84.0009	1,366.7	85.1009	1,366.7	84.9046
1,413.57	89.7579	1,413.57	89.3092	1,413.57	89.8634	1,413.57	89.4952	1,413.57	89.359	1,413.57	88.9449	1,413.57	88.9706	1,413.57	87.3933	1,413.57	88.1528	1,413.57	85.8615	1,413.57	85.442	1,413.57	83.6689	1,413.57	83.0128	1,413.57	83.5189	1,413.57	82.4285	1,413.57	83.8493	1,413.57	83.3647	1,413.57	84.161	1,413.57	82.8027	1,413.57	81.4735	1,413.57	78.7633	1,413.57	75.4962	1,413.57	76.6876	1,413.57	77.5931	1,413.57	80.6537	1,413.57	81.7895	1,413.57	81.4337	1,413.57	82.7073	1,413.57	81.0165	1,413.57	80.7842	1,413.57	80.0644	1,413.57	78.1509	1,413.57	79.5494	1,413.57	79.5584	1,413.57	80.8764	1,413.57	81.913
1,463.38	88.1111	1,463.38	88.407	1,463.38	87.6233	1,463.38	87.8867	1,463.38	87.676	1,463.38	87.7462	1,463.38	87.631	1,463.38	86.932	1,463.38	87.2073	1,463.38	86.3859	1,463.38	85.5629	1,463.38	84.042	1,463.38	82.1487	1,463.38	81.192	1,463.38	80.8367	1,463.38	82.438	1,463.38	82.2895	1,463.38	81.7719	1,463.38	82.1787	1,463.38	78.365	1,463.38	75.2049	1,463.38	72.2375	1,463.38	71.2491	1,463.38	75.8122	1,463.38	80.3874	1,463.38	81.0376	1,463.38	82.8445	1,463.38	82.1277	1,463.38	82.792	1,463.38	79.89	1,463.38	80.6952	1,463.38	78.8964	1,463.38	77.3129	1,463.38	79.7967	1,463.38	79.6408	1,463.38	80.904
1,516.11	86.9025	1,516.11	86.8246	1,516.11	87.0069	1,516.11	86.5769	1,516.11	86.7877	1,516.11	86.6831	1,516.11	85.8643	1,516.11	86.3474	1,516.11	85.3078	1,516.11	85.2926	1,516.11	84.7145	1,516.11	83.8552	1,516.11	83.1487	1,516.11	81.4158	1,516.11	80.3098	1,516.11	78.7479	1,516.11	78.4382	1,516.11	78.0992	1,516.11	79.3128	1,516.11	77.0091	1,516.11	75.5351	1,516.11	73.612	1,516.11	64.9515	1,516.11	72.146	1,516.11	77.5346	1,516.11	78.9736	1,516.11	80.5961	1,516.11	80.5929	1,516.11	81.5948	1,516.11	77.8885	1,516.11	78.6497	1,516.11	76.0525	1,516.11	77.8037	1,516.11	77.3757	1,516.11	78.0938	1,516.11	79.2037
1,568.85	86.4706	1,568.85	85.842	1,568.85	86.5719	1,568.85	85.1381	1,568.85	85.6151	1,568.85	84.5726	1,568.85	84.6727	1,568.85	83.9198	1,568.85	84.5322	1,568.85	83.3681	1,568.85	83.353	1,568.85	83.1901	1,568.85	82.8679	1,568.85	79.3922	1,568.85	81.3042	1,568.85	77.48	1,568.85	78.4293	1,568.85	75.4711	1,568.85	77.2391	1,568.85	76.5677	1,568.85	77.0757	1,568.85	74.5704	1,568.85	74.3556	1,568.85	69.7747	1,568.85	65.3995	1,568.85	75.4982	1,568.85	76.0931	1,568.85	75.6189	1,568.85	78.5259	1,568.85	75.3475	1,568.85	76.796	1,568.85	70.5669	1,568.85	71.2348	1,568.85	71.1777	1,568.85	67.8601	1,568.85	71.288
1,624.51	86.409	1,624.51	86.4372	1,624.51	86.5044	1,624.51	86.1837	1,624.51	85.597	1,624.51	84.7034	1,624.51	84.6651	1,624.51	83.4523	1,624.51	84.1607	1,624.51	83.0794	1,624.51	82.8421	1,624.51	81.2421	1,624.51	82.212	1,624.51	78.4836	1,624.51	80.7113	1,624.51	78.1951	1,624.51	80.1546	1,624.51	77.034	1,624.51	79.731	1,624.51	75.757	1,624.51	79.7687	1,624.51	72.4811	1,624.51	76.7658	1,624.51	70.6805	1,624.51	74.7482	1,624.51	73.1118	1,624.51	77.3313	1,624.51	76.2292	1,624.51	77.1311	1,624.51	72.0287	1,624.51	74.9725	1,624.51	66.3226	1,624.51	67.2219	1,624.51	55.2177	1,624.51	64.363	1,624.51	71.3352
1,681.64	86.7253	1,681.64	87.0867	1,681.64	86.9753	1,681.64	87.2415	1,681.64	86.3915	1,681.64	85.047	1,681.64	85.0891	1,681.64	84.2734	1,681.64	83.5312	1,681.64	83.8158	1,681.64	83.7875	1,681.64	80.6966	1,681.64	82.2672	1,681.64	80.9956	1,681.64	81.1698	1,681.64	79.8945	1,681.64	80.2121	1,681.64	79.3078	1,681.64	78.0997	1,681.64	77.1101	1,681.64	75.1139	1,681.64	74.6815	1,681.64	72.9813	1,681.64	67.3354	1,681.64	70.323	1,681.64	76.8701	1,681.64	75.4887	1,681.64	76.4319	1,681.64	73.5807	1,681.64	75.1685	1,681.64	65.5948	1,681.64	58.9094	1,681.64	62.731	1,681.64	62.256	1,681.64	71.9573	1,681.64	66.6945
1,741.7	88.0453	1,741.7	88.1913	1,741.7	87.4485	1,741.7	86.9755	1,741.7	86.6036	1,741.7	85.4905	1,741.7	85.1742	1,741.7	84.6704	1,741.7	85.2978	1,741.7	82.7612	1,741.7	83.4548	1,741.7	80.7908	1,741.7	81.7471	1,741.7	78.0173	1,741.7	78.9939	1,741.7	75.6456	1,741.7	77.7817	1,741.7	77.5352	1,741.7	74.5616	1,741.7	78.0855	1,741.7	71.5993	1,741.7	73.9	1,741.7	72.9485	1,741.7	66.2693	1,741.7	73.6916	1,741.7	68.9566	1,741.7	76.0802	1,741.7	71.4436	1,741.7	76.7239	1,741.7	73.0301	1,741.7	69.0986	1,741.7	69.527	1,741.7	60.3102	1,741.7	64.4667	1,741.7	72.6239	1,741.7	70.3598
1,803.22	86.9917	1,803.22	87.1394	1,803.22	86.7443	1,803.22	86.487	1,803.22	86.0457	1,803.22	85.5561	1,803.22	84.6257	1,803.22	84.479	1,803.22	83.2778	1,803.22	82.638	1,803.22	81.9608	1,803.22	81.9151	1,803.22	79.8298	1,803.22	79.7787	1,803.22	78.1195	1,803.22	78.4193	1,803.22	76.9558	1,803.22	76.9775	1,803.22	77.0326	1,803.22	76.1868	1,803.22	75.3809	1,803.22	73.7626	1,803.22	71.2344	1,803.22	71.6746	1,803.22	72.0525	1,803.22	74.5498	1,803.22	75.8919	1,803.22	76.2862	1,803.22	75.7553	1,803.22	74.346	1,803.22	72.097	1,803.22	67.1996	1,803.22	61.7664	1,803.22	64.5549	1,803.22	68.2204	1,803.22	68.4272
1,866.21	86.4193	1,866.21	86.3674	1,866.21	86.1825	1,866.21	85.7682	1,866.21	85.431	1,866.21	85.0327	1,866.21	84.2654	1,866.21	83.8297	1,866.21	82.8496	1,866.21	82.7052	1,866.21	81.3718	1,866.21	81.132	1,866.21	79.7723	1,866.21	79.7656	1,866.21	77.2836	1,866.21	77.5107	1,866.21	75.8266	1,866.21	76.3519	1,866.21	75.9376	1,866.21	77.0257	1,866.21	75.029	1,866.21	74.658	1,866.21	69.8195	1,866.21	69.5796	1,866.21	70.0527	1,866.21	73.9406	1,866.21	74.745	1,866.21	75.92	1,866.21	76.2135	1,866.21	74.2504	1,866.21	72.3888	1,866.21	69.0029	1,866.21	64.9891	1,866.21	63.3102	1,866.21	69.8138	1,866.21	68.5743
1,932.13	85.3706	1,932.13	85.0935	1,932.13	85.441	1,932.13	84.5042	1,932.13	84.7013	1,932.13	83.7676	1,932.13	83.7511	1,932.13	82.6767	1,932.13	82.2813	1,932.13	81.4172	1,932.13	80.8113	1,932.13	79.7615	1,932.13	79.371	1,932.13	78.2421	1,932.13	77.9108	1,932.13	76.477	1,932.13	75.3433	1,932.13	74.7812	1,932.13	74.7684	1,932.13	75.2666	1,932.13	74.4959	1,932.13	74.5999	1,932.13	71.5324	1,932.13	67.9434	1,932.13	63.8366	1,932.13	71.0356	1,932.13	73.0425	1,932.13	75.1435	1,932.13	75.757	1,932.13	74.2818	1,932.13	73.3774	1,932.13	68.1651	1,932.13	67.5137	1,932.13	64.8812	1,932.13	68.116	1,932.13	68.8687
1,999.51	85.4218	1,999.51	84.8245	1,999.51	85.2664	1,999.51	84.3893	1,999.51	84.8523	1,999.51	83.4127	1,999.51	84.003	1,999.51	82.3694	1,999.51	82.7764	1,999.51	81.3692	1,999.51	81.5168	1,999.51	79.1771	1,999.51	79.7895	1,999.51	77.2155	1,999.51	78.229	1,999.51	75.7042	1,999.51	76.0687	1,999.51	73.807	1,999.51	74.2271	1,999.51	72.9097	1,999.51	73.8779	1,999.51	73.6726	1,999.51	74.175	1,999.51	69.2721	1,999.51	67.0183	1,999.51	68.6087	1,999.51	71.6103	1,999.51	73.8107	1,999.51	75.5254	1,999.51	74.2482	1,999.51	74.5151	1,999.51	70.309	1,999.51	68.4931	1,999.51	63.7508	1,999.51	63.7655	1,999.51	64.7009
2,069.82	86.2075	2,069.82	85.8027	2,069.82	85.8597	2,069.82	85.2455	2,069.82	85.1754	2,069.82	84.0611	2,069.82	84.0376	2,069.82	82.4212	2,069.82	82.8759	2,069.82	81.0512	2,069.82	81.8484	2,069.82	79.7001	2,069.82	80.6153	2,069.82	77.8345	2,069.82	79.1748	2,069.82	75.6186	2,069.82	76.8214	2,069.82	74.1747	2,069.82	74.7402	2,069.82	73.6888	2,069.82	74.6618	2,069.82	73.0868	2,069.82	73.9615	2,069.82	70.7924	2,069.82	68.5301	2,069.82	65.139	2,069.82	72.065	2,069.82	72.248	2,069.82	74.4886	2,069.82	73.2331	2,069.82	73.6274	2,069.82	71.0594	2,069.82	67.9317	2,069.82	63.5472	2,069.82	54.8588	2,069.82	51.8226
2,143.07	86.5289	2,143.07	86.4353	2,143.07	86.3818	2,143.07	85.8712	2,143.07	85.4273	2,143.07	84.7342	2,143.07	84.3297	2,143.07	83.099	2,143.07	82.4878	2,143.07	81.3626	2,143.07	81.1106	2,143.07	79.8624	2,143.07	79.8518	2,143.07	78.5941	2,143.07	78.741	2,143.07	77.2858	2,143.07	76.2811	2,143.07	74.6554	2,143.07	73.855	2,143.07	73.4337	2,143.07	73.9021	2,143.07	73.345	2,143.07	72.1796	2,143.07	70.5559	2,143.07	69.5164	2,143.07	68.0972	2,143.07	70.9043	2,143.07	71.8741	2,143.07	73.817	2,143.07	74.5091	2,143.07	72.0614	2,143.07	71.5198	2,143.07	65.0944	2,143.07	60.3606	2,143.07	53.273	2,143.07	60.0728
2,219.24	85.9604	2,219.24	86.0211	2,219.24	85.5798	2,219.24	85.4778	2,219.24	84.8964	2,219.24	84.6784	2,219.24	83.5818	2,219.24	83.4107	2,219.24	82.0692	2,219.24	81.5697	2,219.24	80.1656	2,219.24	79.848	2,219.24	78.6089	2,219.24	78.5366	2,219.24	76.6755	2,219.24	76.8261	2,219.24	75.2939	2,219.24	75.4763	2,219.24	72.5844	2,219.24	73.0632	2,219.24	72.5025	2,219.24	72.5424	2,219.24	71.5137	2,219.24	72.3641	2,219.24	68.3609	2,219.24	67.7745	2,219.24	68.3678	2,219.24	71.3005	2,219.24	72.7496	2,219.24	74.0214	2,219.24	73.0543	2,219.24	70.0177	2,219.24	64.0657	2,219.24	60.6638	2,219.24	50.5784	2,219.24	60.0982
2,296.88	85.336	2,296.88	85.3007	2,296.88	84.9944	2,296.88	84.8423	2,296.88	84.2219	2,296.88	83.8976	2,296.88	83.0607	2,296.88	82.5849	2,296.88	81.6198	2,296.88	81.0639	2,296.88	79.8108	2,296.88	79.3682	2,296.88	77.9724	2,296.88	77.8005	2,296.88	76.2648	2,296.88	76.9078	2,296.88	74.7532	2,296.88	74.5959	2,296.88	72.6333	2,296.88	73.7523	2,296.88	72.223	2,296.88	72.7781	2,296.88	72.1612	2,296.88	71.7718	2,296.88	68.7754	2,296.88	67.7976	2,296.88	66.3975	2,296.88	70.7968	2,296.88	71.981	2,296.88	71.8761	2,296.88	72.7878	2,296.88	69.3441	2,296.88	68.6044	2,296.88	61.6783	2,296.88	59.137	2,296.88	55.584
2,378.91	85.7134	2,378.91	85.4224	2,378.91	85.5341	2,378.91	84.8175	2,378.91	85.0354	2,378.91	83.8873	2,378.91	83.9011	2,378.91	82.657	2,378.91	82.8075	2,378.91	80.5498	2,378.91	80.7307	2,378.91	78.3372	2,378.91	78.8699	2,378.91	76.7707	2,378.91	77.2912	2,378.91	73.9446	2,378.91	74.8213	2,378.91	72.8707	2,378.91	73.743	2,378.91	71.2515	2,378.91	73.4146	2,378.91	71.2014	2,378.91	72.4236	2,378.91	71.0741	2,378.91	69.8075	2,378.91	66.5737	2,378.91	68.2262	2,378.91	70.21	2,378.91	71.6328	2,378.91	72.537	2,378.91	72.3529	2,378.91	69.409	2,378.91	67.9842	2,378.91	61.4605	2,378.91	63.6588	2,378.91	65.623
2,462.4	87.4921	2,462.4	87.208	2,462.4	87.1835	2,462.4	86.2815	2,462.4	86.3204	2,462.4	85.0894	2,462.4	85.2214	2,462.4	83.945	2,462.4	83.8791	2,462.4	82.4284	2,462.4	82.2748	2,462.4	80.3473	2,462.4	80.2136	2,462.4	77.9961	2,462.4	78.6828	2,462.4	76.7271	2,462.4	76.5598	2,462.4	74.0717	2,462.4	73.7818	2,462.4	72.5686	2,462.4	73.6122	2,462.4	72.5793	2,462.4	73.2298	2,462.4	70.501	2,462.4	71.9147	2,462.4	67.8974	2,462.4	69.2261	2,462.4	68.7522	2,462.4	72.6276	2,462.4	73.3506	2,462.4	73.0403	2,462.4	71.1046	2,462.4	69.2065	2,462.4	64.0997	2,462.4	66.2981	2,462.4	67.5156
2,548.83	87.9334	2,548.83	87.6974	2,548.83	87.5324	2,548.83	87.0333	2,548.83	86.4117	2,548.83	85.5068	2,548.83	85.194	2,548.83	84.3052	2,548.83	83.5168	2,548.83	83.189	2,548.83	82.213	2,548.83	81.4659	2,548.83	80.0348	2,548.83	79.4316	2,548.83	78.1459	2,548.83	79.1583	2,548.83	76.7332	2,548.83	75.8986	2,548.83	73.9416	2,548.83	73.6847	2,548.83	72.5059	2,548.83	74.0196	2,548.83	72.4169	2,548.83	72.0159	2,548.83	71.2909	2,548.83	69.7603	2,548.83	68.4154	2,548.83	68.7639	2,548.83	71.618	2,548.83	71.2751	2,548.83	72.7956	2,548.83	69.674	2,548.83	68.3664	2,548.83	65.9413	2,548.83	68.3726	2,548.83	67.9025
2,639.65	87.1965	2,639.65	87.2213	2,639.65	86.7897	2,639.65	86.3467	2,639.65	85.8229	2,639.65	85.3175	2,639.65	84.4188	2,639.65	83.638	2,639.65	82.7481	2,639.65	82.3283	2,639.65	81.5589	2,639.65	81.5324	2,639.65	79.4366	2,639.65	79.3045	2,639.65	77.2454	2,639.65	78.2181	2,639.65	76.4	2,639.65	76.7745	2,639.65	74.5553	2,639.65	73.24	2,639.65	70.8828	2,639.65	72.8213	2,639.65	71.9528	2,639.65	72.681	2,639.65	71.9495	2,639.65	70.5159	2,639.65	68.1843	2,639.65	71.0078	2,639.65	70.8928	2,639.65	73.9391	2,639.65	72.9462	2,639.65	71.626	2,639.65	65.6661	2,639.65	66.3406	2,639.65	64.7111	2,639.65	68.8324
2,731.93	86.773	2,731.93	86.7025	2,731.93	86.0407	2,731.93	85.8682	2,731.93	85.6844	2,731.93	85.0719	2,731.93	84.165	2,731.93	83.2379	2,731.93	82.7075	2,731.93	81.5212	2,731.93	81.0143	2,731.93	80.5882	2,731.93	79.4559	2,731.93	79.5455	2,731.93	77.6285	2,731.93	76.5425	2,731.93	76.1492	2,731.93	75.0517	2,731.93	73.7536	2,731.93	72.5461	2,731.93	72.1869	2,731.93	71.1099	2,731.93	72.6106	2,731.93	72.1754	2,731.93	71.6865	2,731.93	70.5029	2,731.93	69.9319	2,731.93	69.1955	2,731.93	71.0488	2,731.93	72.5129	2,731.93	72.1663	2,731.93	71.2031	2,731.93	69.8055	2,731.93	62.2206	2,731.93	65.2697	2,731.93	63.708
2,828.61	86.9309	2,828.61	86.6364	2,828.61	86.6069	2,828.61	86.3344	2,828.61	85.9562	2,828.61	85.2049	2,828.61	84.9558	2,828.61	83.8444	2,828.61	83.491	2,828.61	81.6973	2,828.61	81.7317	2,828.61	80.4379	2,828.61	80.3395	2,828.61	78.1828	2,828.61	78.6748	2,828.61	75.2508	2,828.61	77.0878	2,828.61	74.7027	2,828.61	74.594	2,828.61	72.4987	2,828.61	73.5886	2,828.61	70.0325	2,828.61	71.9456	2,828.61	70.851	2,828.61	70.8667	2,828.61	70.3399	2,828.61	71.4064	2,828.61	68.9994	2,828.61	70.8705	2,828.61	70.8774	2,828.61	72.8661	2,828.61	71.0704	2,828.61	69.2082	2,828.61	64.839	2,828.61	64.7987	2,828.61	69.0077
2,928.22	87.3981	2,928.22	87.1973	2,928.22	87.3457	2,928.22	86.9999	2,928.22	86.7155	2,928.22	86.077	2,928.22	86.0203	2,928.22	85.0798	2,928.22	84.7925	2,928.22	83.573	2,928.22	83.3871	2,928.22	81.0802	2,928.22	81.5992	2,928.22	79.0303	2,928.22	79.3571	2,928.22	77.2711	2,928.22	78.0776	2,928.22	76.3298	2,928.22	76.6017	2,928.22	73.8711	2,928.22	73.5231	2,928.22	73.0559	2,928.22	71.3205	2,928.22	70.0724	2,928.22	70.3583	2,928.22	70.5747	2,928.22	70.5612	2,928.22	69.7486	2,928.22	70.9636	2,928.22	70.9492	2,928.22	73.5245	2,928.22	70.6651	2,928.22	70.0844	2,928.22	60.6175	2,928.22	68.7113	2,928.22	68.3559
3,030.76	87.8109	3,030.76	87.6035	3,030.76	87.8996	3,030.76	87.3726	3,030.76	86.9229	3,030.76	86.6354	3,030.76	86.3928	3,030.76	85.7106	3,030.76	85.1313	3,030.76	84.4913	3,030.76	83.7187	3,030.76	82.3534	3,030.76	81.9358	3,030.76	80.099	3,030.76	80.1095	3,030.76	79.36	3,030.76	77.8267	3,030.76	76.5794	3,030.76	75.9981	3,030.76	75.4962	3,030.76	73.3608	3,030.76	73.4752	3,030.76	72.9548	3,030.76	72.2506	3,030.76	72.3288	3,030.76	71.012	3,030.76	71.474	3,030.76	71.3737	3,030.76	71.8624	3,030.76	72.4924	3,030.76	73.3931	3,030.76	70.9941	3,030.76	70.9132	3,030.76	69.9839	3,030.76	68.6063	3,030.76	70.104
3,137.7	87.5308	3,137.7	87.6241	3,137.7	87.6402	3,137.7	87.2114	3,137.7	86.9722	3,137.7	86.4897	3,137.7	86.2935	3,137.7	85.6978	3,137.7	85.3897	3,137.7	85.2018	3,137.7	83.83	3,137.7	82.8471	3,137.7	81.4864	3,137.7	81.3275	3,137.7	79.8381	3,137.7	79.2661	3,137.7	77.4279	3,137.7	77.6653	3,137.7	76.5809	3,137.7	75.6052	3,137.7	73.0753	3,137.7	73.5566	3,137.7	73.5858	3,137.7	72.636	3,137.7	71.5905	3,137.7	70.7387	3,137.7	72.2839	3,137.7	71.7389	3,137.7	71.7143	3,137.7	73.0418	3,137.7	73.0334	3,137.7	72.325	3,137.7	71.2077	3,137.7	68.9799	3,137.7	67.5821	3,137.7	71.1115
3,249.02	87.1283	3,249.02	87.2508	3,249.02	87.1912	3,249.02	86.9871	3,249.02	86.8646	3,249.02	86.4469	3,249.02	86.0785	3,249.02	85.6288	3,249.02	85.1645	3,249.02	84.5907	3,249.02	83.8683	3,249.02	82.8511	3,249.02	81.6976	3,249.02	81.4901	3,249.02	79.7635	3,249.02	78.9919	3,249.02	77.7786	3,249.02	76.3603	3,249.02	76.7316	3,249.02	75.3961	3,249.02	73.6991	3,249.02	73.2688	3,249.02	71.9894	3,249.02	72.5878	3,249.02	70.8627	3,249.02	69.4562	3,249.02	72.6467	3,249.02	70.9431	3,249.02	71.939	3,249.02	73.2793	3,249.02	73.276	3,249.02	73.0551	3,249.02	71.6175	3,249.02	68.4088	3,249.02	67.3135	3,249.02	70.3664
3,363.28	87.6835	3,363.28	87.7061	3,363.28	87.2794	3,363.28	87.0612	3,363.28	87.7036	3,363.28	86.576	3,363.28	86.7077	3,363.28	85.4827	3,363.28	85.5962	3,363.28	83.894	3,363.28	83.3325	3,363.28	81.9841	3,363.28	81.6299	3,363.28	79.9864	3,363.28	78.9023	3,363.28	77.8022	3,363.28	77.1793	3,363.28	75.4316	3,363.28	75.8297	3,363.28	74.4313	3,363.28	73.9715	3,363.28	71.637	3,363.28	72.2135	3,363.28	72.0015	3,363.28	69.716	3,363.28	66.5702	3,363.28	71.8831	3,363.28	70.6677	3,363.28	72.6203	3,363.28	70.8667	3,363.28	73.1774	3,363.28	72.7585	3,363.28	72.7689	3,363.28	64.2636	3,363.28	68.9906	3,363.28	65.3598
3,481.93	88.1924	3,481.93	88.2299	3,481.93	87.9656	3,481.93	88.1075	3,481.93	87.6433	3,481.93	87.791	3,481.93	86.8532	3,481.93	86.6788	3,481.93	85.2284	3,481.93	83.9583	3,481.93	83.3566	3,481.93	82.5423	3,481.93	81.5904	3,481.93	79.959	3,481.93	78.4635	3,481.93	77.7965	3,481.93	76.4489	3,481.93	75.3435	3,481.93	73.9037	3,481.93	73.6245	3,481.93	73.2895	3,481.93	71.4572	3,481.93	72.0087	3,481.93	72.2643	3,481.93	69.9816	3,481.93	70.0872	3,481.93	69.6965	3,481.93	70.6325	3,481.93	69.8538	3,481.93	71.3337	3,481.93	71.3225	3,481.93	72.2178	3,481.93	70.1192	3,481.93	69.0481	3,481.93	67.5835	3,481.93	68.7412
3,604.98	88.0682	3,604.98	87.8292	3,604.98	88.0334	3,604.98	87.7571	3,604.98	87.3997	3,604.98	87.4933	3,604.98	86.9535	3,604.98	86.4085	3,604.98	85.656	3,604.98	84.2692	3,604.98	84.2702	3,604.98	82.3032	3,604.98	81.9392	3,604.98	79.7036	3,604.98	78.9614	3,604.98	77.6712	3,604.98	77.3991	3,604.98	74.5075	3,604.98	74.5759	3,604.98	73.7865	3,604.98	73.5574	3,604.98	71.7562	3,604.98	71.1681	3,604.98	70.8069	3,604.98	70.5749	3,604.98	69.4553	3,604.98	69.197	3,604.98	71.716	3,604.98	71.3661	3,604.98	69.7125	3,604.98	71.9737	3,604.98	71.9671	3,604.98	70.9982	3,604.98	67.8439	3,604.98	65.7926	3,604.98	69.3909
3,732.42	88.2342	3,732.42	87.8402	3,732.42	88.7763	3,732.42	87.8678	3,732.42	87.988	3,732.42	87.6497	3,732.42	87.4849	3,732.42	86.2118	3,732.42	85.9975	3,732.42	84.6051	3,732.42	84.1067	3,732.42	82.3686	3,732.42	81.8186	3,732.42	79.978	3,732.42	78.7043	3,732.42	77.4847	3,732.42	77.6985	3,732.42	74.9348	3,732.42	73.887	3,732.42	73.5341	3,732.42	73.0104	3,732.42	70.8927	3,732.42	71.0116	3,732.42	69.5111	3,732.42	70.7119	3,732.42	69.6647	3,732.42	70.4052	3,732.42	71.0026	3,732.42	71.7705	3,732.42	70.2082	3,732.42	71.462	3,732.42	72.0898	3,732.42	71.185	3,732.42	67.7384	3,732.42	66.852	3,732.42	69.6013
3,864.26	87.5252	3,864.26	87.4845	3,864.26	87.5935	3,864.26	87.3519	3,864.26	87.6629	3,864.26	87.0101	3,864.26	86.9245	3,864.26	85.9218	3,864.26	85.5612	3,864.26	85.2392	3,864.26	83.5803	3,864.26	82.394	3,864.26	80.5275	3,864.26	79.8082	3,864.26	78.5275	3,864.26	77.5277	3,864.26	76.098	3,864.26	76.7632	3,864.26	73.3144	3,864.26	72.2305	3,864.26	71.4191	3,864.26	71.5098	3,864.26	70.719	3,864.26	70.3509	3,864.26	70.2594	3,864.26	68.8296	3,864.26	64.6815	3,864.26	69.2489	3,864.26	71.0404	3,864.26	71.7313	3,864.26	70.5306	3,864.26	71.1241	3,864.26	70.0009	3,864.26	66.9608	3,864.26	64.201	3,864.26	69.9095
4,000.49	86.9809	4,000.49	87.4964	4,000.49	86.7123	4,000.49	87.5089	4,000.49	87.7127	4,000.49	86.7378	4,000.49	86.6	4,000.49	86.2717	4,000.49	85.5399	4,000.49	84.2197	4,000.49	83.2327	4,000.49	81.5299	4,000.49	80.7375	4,000.49	79.011	4,000.49	78.5527	4,000.49	76.3533	4,000.49	76.1248	4,000.49	74.768	4,000.49	74.3975	4,000.49	71.1209	4,000.49	72.2215	4,000.49	71.484	4,000.49	69.875	4,000.49	69.5613	4,000.49	69.974	4,000.49	68.1443	4,000.49	68.8495	4,000.49	68.7289	4,000.49	69.7756	4,000.49	70.3	4,000.49	70.9905	4,000.49	71.792	4,000.49	71.2262	4,000.49	65.8198	4,000.49	65.8711	4,000.49	67.6257
4,141.11	87.7482	4,141.11	88.2679	4,141.11	88.2648	4,141.11	88.3725	4,141.11	88.1907	4,141.11	88.1915	4,141.11	87.5791	4,141.11	87.064	4,141.11	85.8744	4,141.11	84.5372	4,141.11	83.4405	4,141.11	81.895	4,141.11	81.4895	4,141.11	79.5204	4,141.11	80.0155	4,141.11	76.5588	4,141.11	75.7539	4,141.11	75.1369	4,141.11	73.5134	4,141.11	73.2099	4,141.11	72.6993	4,141.11	71.2552	4,141.11	69.9922	4,141.11	69.5278	4,141.11	71.4693	4,141.11	69.9203	4,141.11	67.5739	4,141.11	66.8342	4,141.11	69.646	4,141.11	69.3065	4,141.11	71.2458	4,141.11	71.4267	4,141.11	72.0579	4,141.11	67.1703	4,141.11	65.7211	4,141.11	69.0445
4,287.6	88.2199	4,287.6	87.5928	4,287.6	88.6798	4,287.6	88.6167	4,287.6	88.1256	4,287.6	87.8828	4,287.6	87.3348	4,287.6	85.9351	4,287.6	85.6063	4,287.6	84.092	4,287.6	83.2341	4,287.6	81.7386	4,287.6	81.5633	4,287.6	79.5671	4,287.6	79.2153	4,287.6	78.1466	4,287.6	76.2604	4,287.6	75.6046	4,287.6	75.3261	4,287.6	72.8996	4,287.6	71.5972	4,287.6	71.3805	4,287.6	71.9549	4,287.6	71.823	4,287.6	69.1589	4,287.6	67.7603	4,287.6	68.0582	4,287.6	68.0283	4,287.6	70.9868	4,287.6	70.7715	4,287.6	70.4121	4,287.6	70.8682	4,287.6	71.6687	4,287.6	68.7716	4,287.6	64.4505	4,287.6	69.2496
4,438.48	87.6479	4,438.48	88.0235	4,438.48	87.7858	4,438.48	87.6701	4,438.48	88.2324	4,438.48	87.2731	4,438.48	86.8833	4,438.48	85.5616	4,438.48	85.9081	4,438.48	83.2908	4,438.48	83.9311	4,438.48	81.3678	4,438.48	80.7464	4,438.48	78.8849	4,438.48	78.4569	4,438.48	76.241	4,438.48	75.617	4,438.48	74.0121	4,438.48	75.2483	4,438.48	72.4003	4,438.48	71.5687	4,438.48	71.5984	4,438.48	70.2229	4,438.48	70.1807	4,438.48	69.1168	4,438.48	70.7329	4,438.48	70.1251	4,438.48	68.3227	4,438.48	69.9106	4,438.48	70.1233	4,438.48	70.7464	4,438.48	72.6224	4,438.48	70.7627	4,438.48	65.7937	4,438.48	67.4131	4,438.48	66.2296
4,595.21	87.1604	4,595.21	87.468	4,595.21	87.904	4,595.21	87.3718	4,595.21	87.7506	4,595.21	87.1138	4,595.21	87.3697	4,595.21	86.4372	4,595.21	85.0044	4,595.21	84.3211	4,595.21	82.2495	4,595.21	81.1207	4,595.21	80.0178	4,595.21	78.6015	4,595.21	77.1343	4,595.21	77.0898	4,595.21	75.7509	4,595.21	74.8549	4,595.21	74.0018	4,595.21	74.9284	4,595.21	72.2106	4,595.21	70.2963	4,595.21	70.5624	4,595.21	67.3722	4,595.21	68.3354	4,595.21	70.7425	4,595.21	68.0372	4,595.21	67.8079	4,595.21	66.4048	4,595.21	69.3214	4,595.21	69.4085	4,595.21	71.2581	4,595.21	71.1007	4,595.21	68.3295	4,595.21	63.1115	4,595.21	66.8113
4,756.35	88.3685	4,756.35	88.1376	4,756.35	88.6115	4,756.35	88.8431	4,756.35	88.0641	4,756.35	87.6888	4,756.35	87.1385	4,756.35	85.9593	4,756.35	84.9223	4,756.35	83.4748	4,756.35	82.145	4,756.35	81.475	4,756.35	80.1324	4,756.35	79.3054	4,756.35	78.2573	4,756.35	77.1211	4,756.35	76.2683	4,756.35	72.8547	4,756.35	74.366	4,756.35	73.0842	4,756.35	72.3502	4,756.35	69.8977	4,756.35	70.2927	4,756.35	69.6495	4,756.35	66.2296	4,756.35	66.5636	4,756.35	69.4417	4,756.35	67.0373	4,756.35	69.0556	4,756.35	69.4443	4,756.35	68.8512	4,756.35	71.1748	4,756.35	71.1486	4,756.35	67.771	4,756.35	61.4813	4,756.35	65.948
4,924.8	88.5204	4,924.8	88.6398	4,924.8	87.892	4,924.8	88.2314	4,924.8	88.1603	4,924.8	87.9071	4,924.8	86.5072	4,924.8	85.8482	4,924.8	84.9289	4,924.8	83.5567	4,924.8	83.2478	4,924.8	81.7436	4,924.8	80.6869	4,924.8	80.8305	4,924.8	78.3432	4,924.8	76.8578	4,924.8	77.4084	4,924.8	75.7084	4,924.8	74.7089	4,924.8	71.4801	4,924.8	71.9311	4,924.8	71.8489	4,924.8	69.8798	4,924.8	68.8306	4,924.8	69.3248	4,924.8	70.6197	4,924.8	69.1224	4,924.8	64.6455	4,924.8	66.7525	4,924.8	68.5299	4,924.8	69.4735	4,924.8	70.5584	4,924.8	70.7376	4,924.8	67.1026	4,924.8	62.6565	4,924.8	66.3823
5,097.66	87.9055	5,097.66	87.9912	5,097.66	88.3589	5,097.66	86.9191	5,097.66	87.7441	5,097.66	86.3445	5,097.66	86.5352	5,097.66	84.5908	5,097.66	84.5625	5,097.66	82.6335	5,097.66	82.3872	5,097.66	81.1985	5,097.66	80.9108	5,097.66	79.4944	5,097.66	78.3389	5,097.66	76.332	5,097.66	75.8673	5,097.66	76.0975	5,097.66	74.5063	5,097.66	74.2323	5,097.66	72.8235	5,097.66	72.1948	5,097.66	70.6807	5,097.66	69.618	5,097.66	68.3321	5,097.66	68.9526	5,097.66	68.6423	5,097.66	70.0789	5,097.66	67.4339	5,097.66	69.8855	5,097.66	67.8108	5,097.66	69.1365	5,097.66	70.1605	5,097.66	68.8128	5,097.66	60.2849	5,097.66	66.8582
5,277.83	88.5001	5,277.83	88.2649	5,277.83	88.7329	5,277.83	88.4904	5,277.83	87.5013	5,277.83	87.0182	5,277.83	86.3872	5,277.83	85.8978	5,277.83	84.1819	5,277.83	83.6813	5,277.83	82.1577	5,277.83	81.3021	5,277.83	79.858	5,277.83	77.3851	5,277.83	77.9799	5,277.83	76.8465	5,277.83	75.3821	5,277.83	73.042	5,277.83	73.8372	5,277.83	73.4669	5,277.83	71.2599	5,277.83	70.187	5,277.83	68.73	5,277.83	67.7008	5,277.83	69.4686	5,277.83	62.8884	5,277.83	67.794	5,277.83	65.1525	5,277.83	66.7357	5,277.83	66.5841	5,277.83	69.4659	5,277.83	69.0083	5,277.83	69.9478	5,277.83	66.677	5,277.83	63.8417	5,277.83	61.0989
5,463.87	88.7013	5,463.87	88.3772	5,463.87	87.9822	5,463.87	88.0945	5,463.87	87.6436	5,463.87	87.0367	5,463.87	85.6008	5,463.87	85.1128	5,463.87	84.5617	5,463.87	83.5379	5,463.87	83.2515	5,463.87	81.6765	5,463.87	80.8684	5,463.87	80.699	5,463.87	78.4859	5,463.87	78.4622	5,463.87	77.081	5,463.87	76.6004	5,463.87	73.3487	5,463.87	71.6253	5,463.87	72.5142	5,463.87	71.5592	5,463.87	69.5642	5,463.87	68.6723	5,463.87	67.6892	5,463.87	68.2846	5,463.87	67.767	5,463.87	65.3325	5,463.87	67.333	5,463.87	69.325	5,463.87	69.1443	5,463.87	69.1394	5,463.87	69.6601	5,463.87	69.2086	5,463.87	60.4814	5,463.87	64.8067
5,657.23	88.7291	5,657.23	88.6635	5,657.23	88.4106	5,657.23	87.4791	5,657.23	86.9234	5,657.23	85.8055	5,657.23	85.8644	5,657.23	84.166	5,657.23	84.2985	5,657.23	82.9661	5,657.23	82.6931	5,657.23	81.3178	5,657.23	81.1584	5,657.23	79.0801	5,657.23	79.0701	5,657.23	75.9622	5,657.23	74.6842	5,657.23	74.0229	5,657.23	73.1752	5,657.23	71.1379	5,657.23	70.8967	5,657.23	69.6623	5,657.23	69.5131	5,657.23	67.7826	5,657.23	67.0319	5,657.23	65.9333	5,657.23	63.8581	5,657.23	67.3241	5,657.23	66.0388	5,657.23	69.033	5,657.23	68.6044	5,657.23	67.4286	5,657.23	67.4234	5,657.23	68.4003	5,657.23	63.5032	5,657.23	62.3835
5,856.45	88.6357	5,856.45	88.3312	5,856.45	87.8865	5,856.45	87.2054	5,856.45	86.5304	5,856.45	85.6041	5,856.45	85.1455	5,856.45	84.8497	5,856.45	84.153	5,856.45	83.2136	5,856.45	82.6727	5,856.45	82.0043	5,856.45	81.1896	5,856.45	78.9181	5,856.45	78.0248	5,856.45	77.1757	5,856.45	75.8849	5,856.45	74.0291	5,856.45	72.9094	5,856.45	72.7536	5,856.45	71.7229	5,856.45	69.8957	5,856.45	68.4044	5,856.45	67.8658	5,856.45	68.3935	5,856.45	66.8778	5,856.45	66.861	5,856.45	64.7465	5,856.45	67.1616	5,856.45	66.5541	5,856.45	68.6205	5,856.45	67.1611	5,856.45	68.4408	5,856.45	68.2544	5,856.45	62.2819	5,856.45	61.4198
6,062.99	89.2268	6,062.99	88.7879	6,062.99	88.1464	6,062.99	87.2428	6,062.99	87.0198	6,062.99	86.2187	6,062.99	85.2914	6,062.99	85.0363	6,062.99	84.5884	6,062.99	83.9076	6,062.99	83.145	6,062.99	81.7548	6,062.99	80.8727	6,062.99	79.3177	6,062.99	78.9129	6,062.99	76.4494	6,062.99	75.7343	6,062.99	73.3548	6,062.99	73.3529	6,062.99	71.3358	6,062.99	70.7068	6,062.99	69.1581	6,062.99	69.0561	6,062.99	67.3055	6,062.99	66.6693	6,062.99	68.7652	6,062.99	66.9291	6,062.99	64.9835	6,062.99	64.8609	6,062.99	66.0325	6,062.99	68.1128	6,062.99	66.7831	6,062.99	68.8212	6,062.99	66.6037	6,062.99	61.8403	6,062.99	60.324
6,276.86	88.5479	6,276.86	88.0118	6,276.86	87.685	6,276.86	86.5046	6,276.86	85.8437	6,276.86	85.2722	6,276.86	85.3524	6,276.86	84.6906	6,276.86	84.3004	6,276.86	83.732	6,276.86	82.3858	6,276.86	81.5759	6,276.86	80.0861	6,276.86	79.6956	6,276.86	77.6156	6,276.86	76.1897	6,276.86	74.9834	6,276.86	74.2319	6,276.86	73.1818	6,276.86	71.3922	6,276.86	70.6397	6,276.86	68.602	6,276.86	67.9515	6,276.86	68.1664	6,276.86	66.7585	6,276.86	67.4102	6,276.86	66.9313	6,276.86	66.5071	6,276.86	64.541	6,276.86	67.1111	6,276.86	68.7134	6,276.86	66.7659	6,276.86	67.4996	6,276.86	67.5744	6,276.86	62.8359	6,276.86	61.4679
6,498.05	88.9026	6,498.05	88.4854	6,498.05	87.6301	6,498.05	86.8019	6,498.05	86.1327	6,498.05	85.6987	6,498.05	85.226	6,498.05	85.0992	6,498.05	84.7934	6,498.05	83.3098	6,498.05	82.8593	6,498.05	81.0271	6,498.05	80.0273	6,498.05	77.6652	6,498.05	76.9471	6,498.05	75.4181	6,498.05	75.1247	6,498.05	72.9666	6,498.05	72.8767	6,498.05	70.905	6,498.05	70.0038	6,498.05	69.2023	6,498.05	68.315	6,498.05	66.5414	6,498.05	66.6451	6,498.05	63.2679	6,498.05	65.3061	6,498.05	65.5416	6,498.05	65.4416	6,498.05	66.3154	6,498.05	67.0436	6,498.05	66.7227	6,498.05	66.2998	6,498.05	66.2218	6,498.05	61.3932	6,498.05	58.7174
6,726.56	89.0702	6,726.56	88.614	6,726.56	87.9015	6,726.56	86.7408	6,726.56	86.337	6,726.56	85.8608	6,726.56	85.6023	6,726.56	85.2979	6,726.56	84.7596	6,726.56	83.7844	6,726.56	82.7095	6,726.56	81.4642	6,726.56	80.1209	6,726.56	78.6054	6,726.56	77.2133	6,726.56	76.4775	6,726.56	75.1938	6,726.56	73.815	6,726.56	72.6882	6,726.56	71.2055	6,726.56	70.6442	6,726.56	70.0287	6,726.56	68.3168	6,726.56	67.0286	6,726.56	65.6154	6,726.56	65.3939	6,726.56	64.3783	6,726.56	65.867	6,726.56	65.329	6,726.56	64.5144	6,726.56	68.1278	6,726.56	67.3151	6,726.56	67.1737	6,726.56	66.0849	6,726.56	61.3787	6,726.56	58.3206
6,963.87	88.9312	6,963.87	88.2978	6,963.87	87.8283	6,963.87	86.5835	6,963.87	86.021	6,963.87	85.551	6,963.87	85.5548	6,963.87	84.6837	6,963.87	84.28	6,963.87	82.8893	6,963.87	82.0486	6,963.87	80.2748	6,963.87	79.8738	6,963.87	77.5294	6,963.87	77.2181	6,963.87	75.4653	6,963.87	74.9605	6,963.87	72.6809	6,963.87	72.2869	6,963.87	70.6998	6,963.87	70.0849	6,963.87	69.7548	6,963.87	68.0046	6,963.87	66.2606	6,963.87	65.3188	6,963.87	66.4198	6,963.87	64.5125	6,963.87	65.2937	6,963.87	64.4926	6,963.87	64.0961	6,963.87	66.5612	6,963.87	66.5507	6,963.87	66.8511	6,963.87	66.2191	6,963.87	63.3819	6,963.87	55.7969
7,209.96	89.3314	7,209.96	88.5506	7,209.96	87.8451	7,209.96	86.8934	7,209.96	86.5312	7,209.96	85.9677	7,209.96	85.6575	7,209.96	85.2426	7,209.96	84.3911	7,209.96	83.0584	7,209.96	82.5299	7,209.96	81.4247	7,209.96	80.0624	7,209.96	79.1528	7,209.96	77.3948	7,209.96	76.7335	7,209.96	75.0586	7,209.96	73.3633	7,209.96	72.1569	7,209.96	71.0667	7,209.96	69.9651	7,209.96	68.0768	7,209.96	67.7579	7,209.96	66.1946	7,209.96	66.5774	7,209.96	64.492	7,209.96	63.4743	7,209.96	64.8404	7,209.96	64.9069	7,209.96	64.257	7,209.96	67.776	7,209.96	67.21	7,209.96	66.9588	7,209.96	66.4241	7,209.96	63.0471	7,209.96	55.9023
7,464.84	89.191	7,464.84	88.6421	7,464.84	87.807	7,464.84	86.9714	7,464.84	86.3371	7,464.84	85.9643	7,464.84	85.3317	7,464.84	84.7762	7,464.84	83.6391	7,464.84	82.7912	7,464.84	81.7714	7,464.84	80.7501	7,464.84	79.7916	7,464.84	78.1259	7,464.84	77.6997	7,464.84	75.1322	7,464.84	73.8904	7,464.84	72.1507	7,464.84	71.3684	7,464.84	69.4934	7,464.84	69.1832	7,464.84	68.1049	7,464.84	67.9239	7,464.84	64.8376	7,464.84	64.2036	7,464.84	64.3488	7,464.84	64.5139	7,464.84	62.9606	7,464.84	64.1408	7,464.84	63.1987	7,464.84	66.7285	7,464.84	66.8657	7,464.84	66.285	7,464.84	66.5825	7,464.84	63.129	7,464.84	50.8224
7,727.05	88.7856	7,727.05	88.2272	7,727.05	87.6288	7,727.05	86.6714	7,727.05	86.6309	7,727.05	85.3852	7,727.05	85.5091	7,727.05	84.2293	7,727.05	83.8344	7,727.05	82.1433	7,727.05	81.9337	7,727.05	80.2694	7,727.05	80.095	7,727.05	77.9708	7,727.05	76.997	7,727.05	74.8804	7,727.05	74.1633	7,727.05	72.4688	7,727.05	71.6696	7,727.05	69.4431	7,727.05	68.4153	7,727.05	66.5781	7,727.05	67.1025	7,727.05	65.0128	7,727.05	65.595	7,727.05	64.1879	7,727.05	64.0167	7,727.05	63.8349	7,727.05	63.9123	7,727.05	62.8801	7,727.05	65.475	7,727.05	67.0869	7,727.05	65.4101	7,727.05	65.6646	7,727.05	63.6812	7,727.05	52.9663
7,999.51	88.6646	7,999.51	88.2181	7,999.51	87.8013	7,999.51	87.0021	7,999.51	86.2518	7,999.51	85.7867	7,999.51	84.8866	7,999.51	84.3262	7,999.51	83.6249	7,999.51	82.882	7,999.51	81.7918	7,999.51	80.929	7,999.51	79.5431	7,999.51	78.3611	7,999.51	76.9195	7,999.51	74.3926	7,999.51	72.9859	7,999.51	71.9464	7,999.51	70.395	7,999.51	68.0948	7,999.51	68.5045	7,999.51	66.3747	7,999.51	66.527	7,999.51	64.5148	7,999.51	65.344	7,999.51	63.2466	7,999.51	63.8487	7,999.51	62.4721	7,999.51	63.1618	7,999.51	61.8717	7,999.51	64.9718	7,999.51	65.9236	7,999.51	64.7184	7,999.51	66.0887	7,999.51	61.3899	7,999.51	48.986
8,282.23	88.6248	8,282.23	88.1539	8,282.23	87.8366	8,282.23	87.1331	8,282.23	86.3134	8,282.23	85.4333	8,282.23	84.5318	8,282.23	83.6633	8,282.23	83.2202	8,282.23	82.4036	8,282.23	81.5678	8,282.23	79.5528	8,282.23	78.952	8,282.23	76.3938	8,282.23	75.5378	8,282.23	73.1005	8,282.23	73.1367	8,282.23	69.7489	8,282.23	70.5394	8,282.23	68.46	8,282.23	67.7415	8,282.23	65.4839	8,282.23	65.5389	8,282.23	64.9057	8,282.23	62.6849	8,282.23	62.6791	8,282.23	58.5208	8,282.23	60.7372	8,282.23	62.8706	8,282.23	61.9947	8,282.23	62.4895	8,282.23	65.8443	8,282.23	65.1013	8,282.23	65.7694	8,282.23	61.6023	8,282.23	51.6495
8,573.73	88.6278	8,573.73	88.4512	8,573.73	88.131	8,573.73	87.0966	8,573.73	86.3808	8,573.73	85.2849	8,573.73	84.5267	8,573.73	83.733	8,573.73	83.3328	8,573.73	82.0589	8,573.73	81.5118	8,573.73	79.5106	8,573.73	78.4908	8,573.73	75.6399	8,573.73	75.557	8,573.73	73.7188	8,573.73	72.4166	8,573.73	71.409	8,573.73	70.7159	8,573.73	69.123	8,573.73	67.9174	8,573.73	67.3534	8,573.73	65.6204	8,573.73	64.2768	8,573.73	65.6651	8,573.73	61.2494	8,573.73	60.0419	8,573.73	60.5646	8,573.73	61.8783	8,573.73	60.9795	8,573.73	63.401	8,573.73	65.9439	8,573.73	63.9158	8,573.73	63.6198	8,573.73	60.4425	8,573.73	49.7846
8,876.95	88.3673	8,876.95	88.0209	8,876.95	87.8576	8,876.95	86.9153	8,876.95	86.3178	8,876.95	84.8786	8,876.95	84.4051	8,876.95	83.6638	8,876.95	83.2217	8,876.95	81.6729	8,876.95	80.991	8,876.95	78.8002	8,876.95	77.9399	8,876.95	76.1978	8,876.95	74.7868	8,876.95	73.6517	8,876.95	73.1429	8,876.95	70.6116	8,876.95	69.9996	8,876.95	68.5286	8,876.95	67.6838	8,876.95	66.2016	8,876.95	65.6224	8,876.95	65.1678	8,876.95	61.9385	8,876.95	61.4082	8,876.95	61.6272	8,876.95	61.6384	8,876.95	61.3679	8,876.95	61.1171	8,876.95	63.0247	8,876.95	66.0392	8,876.95	64.6122	8,876.95	63.9976	8,876.95	59.8233	8,876.95	52.2471
9,188.96	88.2243	9,188.96	88.2484	9,188.96	88.0324	9,188.96	87.4334	9,188.96	86.559	9,188.96	85.2132	9,188.96	84.3385	9,188.96	83.5934	9,188.96	82.853	9,188.96	81.2065	9,188.96	80.4617	9,188.96	78.7898	9,188.96	77.8132	9,188.96	76.5546	9,188.96	75.3324	9,188.96	73.6367	9,188.96	72.8843	9,188.96	71.2095	9,188.96	70.0173	9,188.96	68.6223	9,188.96	67.7143	9,188.96	66.3447	9,188.96	65.5327	9,188.96	63.7441	9,188.96	62.5076	9,188.96	59.1955	9,188.96	60.3549	9,188.96	60.3355	9,188.96	60.6355	9,188.96	59.8583	9,188.96	62.7907	9,188.96	64.6816	9,188.96	64.3117	9,188.96	62.8652	9,188.96	58.5223	9,188.96	46.1183
9,514.16	88.2664	9,514.16	88.3243	9,514.16	88.2876	9,514.16	87.3619	9,514.16	86.5565	9,514.16	85.1119	9,514.16	84.4371	9,514.16	83.2538	9,514.16	82.4937	9,514.16	80.8373	9,514.16	79.9307	9,514.16	78.6476	9,514.16	77.8464	9,514.16	76.5139	9,514.16	75.3972	9,514.16	73.7392	9,514.16	72.7107	9,514.16	70.3961	9,514.16	69.8994	9,514.16	68.5755	9,514.16	67.2145	9,514.16	66.4624	9,514.16	64.6546	9,514.16	63.3038	9,514.16	64.0324	9,514.16	59.827	9,514.16	60.0986	9,514.16	57.401	9,514.16	59.867	9,514.16	60.1125	9,514.16	60.0647	9,514.16	63.7834	9,514.16	62.2218	9,514.16	62.1608	9,514.16	58.4321	9,514.16	53.8382
9,849.61	88.3955	9,849.61	88.4421	9,849.61	88.3985	9,849.61	87.5041	9,849.61	86.6351	9,849.61	85.2929	9,849.61	84.4392	9,849.61	83.1585	9,849.61	82.122	9,849.61	80.6607	9,849.61	79.9499	9,849.61	78.9748	9,849.61	78.0758	9,849.61	76.2199	9,849.61	74.953	9,849.61	73.6345	9,849.61	72.3623	9,849.61	69.8334	9,849.61	68.8738	9,849.61	67.448	9,849.61	66.7854	9,849.61	64.8341	9,849.61	64.0168	9,849.61	62.1542	9,849.61	62.4137	9,849.61	61.228	9,849.61	61.0226	9,849.61	58.2989	9,849.61	59.7297	9,849.61	59.6496	9,849.61	59.6035	9,849.61	63.7222	9,849.61	61.1765	9,849.61	59.647	9,849.61	57.8342	9,849.61	52.0176
10,196.8	88.61	10,196.8	88.6622	10,196.8	88.7351	10,196.8	87.8136	10,196.8	86.9964	10,196.8	85.6519	10,196.8	84.6728	10,196.8	83.0433	10,196.8	82.0256	10,196.8	80.7205	10,196.8	80.1871	10,196.8	79.0489	10,196.8	78.3029	10,196.8	75.9994	10,196.8	75.1182	10,196.8	72.7141	10,196.8	71.9774	10,196.8	69.5745	10,196.8	68.6423	10,196.8	66.9849	10,196.8	66.1418	10,196.8	64.1628	10,196.8	63.5748	10,196.8	62.8217	10,196.8	62.715	10,196.8	59.9059	10,196.8	58.8598	10,196.8	57.4624	10,196.8	58.8032	10,196.8	59.646	10,196.8	58.8969	10,196.8	63.7685	10,196.8	61.4146	10,196.8	59.2416	10,196.8	57.0558	10,196.8	52.5335
10,555.7	88.8841	10,555.7	89.023	10,555.7	88.8625	10,555.7	88.1207	10,555.7	87.211	10,555.7	85.858	10,555.7	84.4578	10,555.7	82.9079	10,555.7	81.8073	10,555.7	80.7783	10,555.7	80.0776	10,555.7	79.1592	10,555.7	77.9056	10,555.7	75.5599	10,555.7	74.7222	10,555.7	71.9831	10,555.7	71.3405	10,555.7	69.1813	10,555.7	68.2682	10,555.7	66.6613	10,555.7	65.1549	10,555.7	64.3984	10,555.7	64.0699	10,555.7	62.813	10,555.7	60.8569	10,555.7	59.6745	10,555.7	57.8703	10,555.7	58.9161	10,555.7	58.0137	10,555.7	58.2274	10,555.7	58.0077	10,555.7	63.8553	10,555.7	61.2266	10,555.7	56.9547	10,555.7	55.2595	10,555.7	51.3312
10,927.7	89.4218	10,927.7	89.3701	10,927.7	89.3019	10,927.7	88.4381	10,927.7	87.6324	10,927.7	86.0125	10,927.7	84.4854	10,927.7	82.7721	10,927.7	82.0834	10,927.7	81.0305	10,927.7	80.4674	10,927.7	78.7328	10,927.7	77.7167	10,927.7	75.4454	10,927.7	74.2792	10,927.7	72.182	10,927.7	71.6983	10,927.7	70.0594	10,927.7	69.0223	10,927.7	67.1036	10,927.7	66.417	10,927.7	65.2443	10,927.7	63.9758	10,927.7	62.59	10,927.7	61.5622	10,927.7	59.5997	10,927.7	59.8526	10,927.7	59.3401	10,927.7	58.1035	10,927.7	59.3509	10,927.7	58.7347	10,927.7	63.8294	10,927.7	61.7846	10,927.7	56.7771	10,927.7	57.2596	10,927.7	53.0767
11,313	89.6881	11,313	89.5786	11,313	89.4246	11,313	88.5463	11,313	88.0376	11,313	85.9969	11,313	84.672	11,313	82.7541	11,313	82.42	11,313	81.1656	11,313	80.6642	11,313	78.5789	11,313	77.7396	11,313	75.8889	11,313	75.1548	11,313	73.2913	11,313	72.4544	11,313	70.4104	11,313	69.5288	11,313	67.9038	11,313	67.0613	11,313	65.8268	11,313	65.211	11,313	62.953	11,313	62.4234	11,313	59.1604	11,313	58.156	11,313	59.3101	11,313	57.839	11,313	58.2912	11,313	58.3653	11,313	62.9808	11,313	62.2957	11,313	56.9941	11,313	56.5602	11,313	53.2934
11,712.9	89.8169	11,712.9	89.6576	11,712.9	89.5272	11,712.9	88.8027	11,712.9	88.2026	11,712.9	86.0829	11,712.9	84.6371	11,712.9	83.0436	11,712.9	82.7621	11,712.9	81.2937	11,712.9	80.5512	11,712.9	78.8321	11,712.9	78.337	11,712.9	76.5548	11,712.9	76.15	11,712.9	74.0828	11,712.9	73.2132	11,712.9	70.8144	11,712.9	69.8392	11,712.9	68.091	11,712.9	67.445	11,712.9	65.4171	11,712.9	65.1971	11,712.9	62.9653	11,712.9	62.3444	11,712.9	61.62	11,712.9	57.9001	11,712.9	59.0215	11,712.9	58.6301	11,712.9	58.4552	11,712.9	58.0389	11,712.9	62.0713	11,712.9	62.8709	11,712.9	55.5178	11,712.9	57.3129	11,712.9	51.9452
12,126	90.0502	12,126	89.8598	12,126	89.7054	12,126	89.0592	12,126	88.2768	12,126	86.0458	12,126	84.78	12,126	83.32	12,126	82.777	12,126	81.1718	12,126	80.4585	12,126	79.1972	12,126	78.829	12,126	77.405	12,126	76.6489	12,126	73.9453	12,126	73.1733	12,126	71.1641	12,126	69.7353	12,126	67.7108	12,126	66.9503	12,126	65.562	12,126	64.562	12,126	63.0304	12,126	61.982	12,126	60.542	12,126	59.1628	12,126	59.9133	12,126	58.3605	12,126	57.557	12,126	57.441	12,126	61.4085	12,126	61.9271	12,126	56.0927	12,126	57.4903	12,126	52.3263
12,553.7	90.2864	12,553.7	89.9179	12,553.7	89.8081	12,553.7	89.1098	12,553.7	88.1997	12,553.7	86.076	12,553.7	84.9582	12,553.7	83.5266	12,553.7	82.4891	12,553.7	80.9688	12,553.7	80.5239	12,553.7	79.8382	12,553.7	79.1312	12,553.7	77.5833	12,553.7	76.2097	12,553.7	74.1575	12,553.7	72.5491	12,553.7	70.4631	12,553.7	69.3282	12,553.7	67.799	12,553.7	66.64	12,553.7	65.2858	12,553.7	64.0979	12,553.7	62.8264	12,553.7	61.7971	12,553.7	60.3228	12,553.7	59.1428	12,553.7	59.5112	12,553.7	58.9944	12,553.7	57.8413	12,553.7	57.1357	12,553.7	60.487	12,553.7	61.2693	12,553.7	57.39	12,553.7	57.3508	12,553.7	52.0945
12,996.1	90.3966	12,996.1	89.9553	12,996.1	89.9077	12,996.1	89.1436	12,996.1	88.2389	12,996.1	86.2719	12,996.1	85.2712	12,996.1	83.5775	12,996.1	82.0677	12,996.1	81.0013	12,996.1	80.9408	12,996.1	80.2847	12,996.1	79.0255	12,996.1	77.0956	12,996.1	75.2067	12,996.1	73.9269	12,996.1	72.2308	12,996.1	70.3253	12,996.1	69.1615	12,996.1	67.8716	12,996.1	67.0874	12,996.1	65.2501	12,996.1	63.7521	12,996.1	63.3641	12,996.1	61.6508	12,996.1	61.564	12,996.1	57.671	12,996.1	58.8786	12,996.1	58.6228	12,996.1	56.9243	12,996.1	56.3497	12,996.1	59.079	12,996.1	60.0253	12,996.1	56.1897	12,996.1	55.0273	12,996.1	50.6218
13,454.6	90.5128	13,454.6	90.0936	13,454.6	89.9176	13,454.6	89.0452	13,454.6	88.3249	13,454.6	86.7474	13,454.6	85.5224	13,454.6	83.585	13,454.6	82.0036	13,454.6	81.4438	13,454.6	81.4798	13,454.6	80.3058	13,454.6	78.7177	13,454.6	76.6166	13,454.6	75.4322	13,454.6	73.8176	13,454.6	72.9635	13,454.6	70.712	13,454.6	70.0151	13,454.6	67.8378	13,454.6	67.1388	13,454.6	65.3747	13,454.6	64.087	13,454.6	63.7142	13,454.6	61.9695	13,454.6	60.5291	13,454.6	59.6685	13,454.6	59.4368	13,454.6	58.2064	13,454.6	56.0888	13,454.6	57.597	13,454.6	57.9786	13,454.6	59.4851	13,454.6	57.1738	13,454.6	55.3194	13,454.6	49.743
13,929.2	90.4502	13,929.2	90.0505	13,929.2	89.7275	13,929.2	88.7725	13,929.2	88.442	13,929.2	87.1801	13,929.2	85.545	13,929.2	83.4581	13,929.2	82.3703	13,929.2	82.1784	13,929.2	81.5623	13,929.2	80.0253	13,929.2	78.6124	13,929.2	76.8212	13,929.2	76.5233	13,929.2	74.453	13,929.2	73.9356	13,929.2	71.2695	13,929.2	70.8482	13,929.2	68.0298	13,929.2	67.4908	13,929.2	65.8015	13,929.2	64.6333	13,929.2	63.5661	13,929.2	63.3351	13,929.2	59.4922	13,929.2	59.9108	13,929.2	58.8955	13,929.2	58.641	13,929.2	55.9047	13,929.2	58.0566	13,929.2	56.0027	13,929.2	60.4236	13,929.2	57.212	13,929.2	56.9348	13,929.2	48.3029
14,419.9	90.6814	14,419.9	90.1813	14,419.9	89.6032	14,419.9	88.6669	14,419.9	88.456	14,419.9	87.0587	14,419.9	85.4013	14,419.9	83.5905	14,419.9	82.911	14,419.9	82.5068	14,419.9	80.6757	14,419.9	79.9357	14,419.9	78.861	14,419.9	77.8154	14,419.9	77.0006	14,419.9	75.5732	14,419.9	73.6824	14,419.9	71.5258	14,419.9	70.7704	14,419.9	68.316	14,419.9	67.1567	14,419.9	65.5859	14,419.9	64.3978	14,419.9	63.8259	14,419.9	63.8413	14,419.9	58.9105	14,419.9	58.9845	14,419.9	58.0896	14,419.9	58.6574	14,419.9	54.0572	14,419.9	57.3243	14,419.9	54.5676	14,419.9	60.2249	14,419.9	57.3525	14,419.9	55.1749	14,419.9	49.4952
14,928.2	90.593	14,928.2	89.9819	14,928.2	89.1639	14,928.2	88.399	14,928.2	87.8516	14,928.2	86.3584	14,928.2	85.3533	14,928.2	84.457	14,928.2	83.1322	14,928.2	81.9714	14,928.2	80.245	14,928.2	80.4249	14,928.2	79.3513	14,928.2	78.476	14,928.2	76.2321	14,928.2	75.2729	14,928.2	72.6147	14,928.2	70.7582	14,928.2	69.4754	14,928.2	67.7646	14,928.2	65.6067	14,928.2	65.221	14,928.2	63.3066	14,928.2	63.2159	14,928.2	62.7179	14,928.2	56.2754	14,928.2	57.0222	14,928.2	56.5985	14,928.2	56.4108	14,928.2	53.1132	14,928.2	55.3584	14,928.2	51.48	14,928.2	59.6392	14,928.2	57.3952	14,928.2	52.5258	14,928.2	47.695
15,455.6	89.9315	15,455.6	89.1797	15,455.6	88.4313	15,455.6	87.7391	15,455.6	86.8832	15,455.6	85.425	15,455.6	85.4432	15,455.6	84.6991	15,455.6	82.9596	15,455.6	81.1945	15,455.6	80.7707	15,455.6	81.0656	15,455.6	79.1349	15,455.6	77.6883	15,455.6	75.1825	15,455.6	73.3452	15,455.6	71.4348	15,455.6	69.1674	15,455.6	68.21	15,455.6	66.635	15,455.6	64.1521	15,455.6	64.1164	15,455.6	62.3949	15,455.6	61.1507	15,455.6	61.6521	15,455.6	53.5803	15,455.6	55.4742	15,455.6	53.6475	15,455.6	54.725	15,455.6	50.5539	15,455.6	54.1642	15,455.6	49.1994	15,455.6	58.3296	15,455.6	55.2996	15,455.6	50.1117	15,455.6	43.2841
16,000.5	88.6538	16,000.5	88.0163	16,000.5	87.4979	16,000.5	86.7487	16,000.5	85.7937	16,000.5	84.7652	16,000.5	85.0114	16,000.5	83.924	16,000.5	82.3045	16,000.5	81.0669	16,000.5	80.8637	16,000.5	80.5998	16,000.5	78.123	16,000.5	76.1077	16,000.5	74.3775	16,000.5	72.1821	16,000.5	70.715	16,000.5	69.0501	16,000.5	67.3615	16,000.5	66.3071	16,000.5	63.6763	16,000.5	63.8565	16,000.5	61.9473	16,000.5	60.9435	16,000.5	60.2949	16,000.5	53.4309	16,000.5	53.9524	16,000.5	51.4066	16,000.5	53.5786	16,000.5	46.1598	16,000.5	53.7773	16,000.5	45.5832	16,000.5	55.7293	16,000.5	54.6802	16,000.5	46.1409	16,000.5	41.1227
16,564.5	87.1422	16,564.5	86.6455	16,564.5	86.3382	16,564.5	85.2029	16,564.5	84.3766	16,564.5	83.8108	16,564.5	83.7823	16,564.5	82.2687	16,564.5	81.1647	16,564.5	80.6249	16,564.5	80.0167	16,564.5	79.0319	16,564.5	76.6975	16,564.5	75.406	16,564.5	73.8736	16,564.5	72.4197	16,564.5	70.3397	16,564.5	69.1067	16,564.5	66.3454	16,564.5	65.8255	16,564.5	62.7012	16,564.5	62.8605	16,564.5	60.9917	16,564.5	59.4016	16,564.5	58.9615	16,564.5	52.9187	16,564.5	53.4484	16,564.5	51.8386	16,564.5	52.0943	16,564.5	41.7283	16,564.5	52.8456	16,564.5	33.944	16,564.5	52.6894	16,564.5	53.0207	16,564.5	39.722	16,564.5	37.4295
17,148.9	86.3442	17,148.9	86.0086	17,148.9	85.7036	17,148.9	84.4726	17,148.9	83.8758	17,148.9	83.7967	17,148.9	83.1191	17,148.9	81.866	17,148.9	81.3381	17,148.9	80.5611	17,148.9	79.4672	17,148.9	78.1176	17,148.9	76.8288	17,148.9	75.827	17,148.9	73.9235	17,148.9	72.27	17,148.9	70.4996	17,148.9	68.967	17,148.9	65.7847	17,148.9	65.0582	17,148.9	62.3588	17,148.9	62.3145	17,148.9	60.8363	17,148.9	58.8639	17,148.9	58.6656	17,148.9	52.5564	17,148.9	52.5036	17,148.9	50.6959	17,148.9	50.5512	17,148.9	41.2562	17,148.9	52.0093	17,148.9	33.4761	17,148.9	49.9495	17,148.9	51.7204	17,148.9	34.076	17,148.9	29.422
17,752.4	87.3228	17,752.4	87.1252	17,752.4	86.7206	17,752.4	85.4584	17,752.4	85.3541	17,752.4	85.0279	17,752.4	84.1131	17,752.4	83.2408	17,752.4	82.6994	17,752.4	81.4812	17,752.4	80.1772	17,752.4	79.6626	17,752.4	78.2413	17,752.4	77.1789	17,752.4	75.2503	17,752.4	72.9463	17,752.4	71.1837	17,752.4	69.0708	17,752.4	66.528	17,752.4	65.2137	17,752.4	63.6304	17,752.4	62.9387	17,752.4	61.8852	17,752.4	58.93	17,752.4	59.2317	17,752.4	52.3315	17,752.4	51.0115	17,752.4	50.9932	17,752.4	49.7447	17,752.4	40.9082	17,752.4	51.2685	17,752.4	41.1577	17,752.4	48.4038	17,752.4	49.9046	17,752.4	35.0607	17,752.4	35.8877
18,379.4	87.8589	18,379.4	87.7311	18,379.4	87.2724	18,379.4	86.5038	18,379.4	86.3653	18,379.4	85.8711	18,379.4	84.9138	18,379.4	84.4869	18,379.4	83.5051	18,379.4	81.911	18,379.4	81.1002	18,379.4	80.5094	18,379.4	79.0442	18,379.4	77.6119	18,379.4	75.7511	18,379.4	72.7633	18,379.4	71.4478	18,379.4	69.6005	18,379.4	66.6283	18,379.4	65.3191	18,379.4	64.3597	18,379.4	63.1885	18,379.4	61.998	18,379.4	58.6985	18,379.4	58.6099	18,379.4	53.6615	18,379.4	48.1589	18,379.4	50.7644	18,379.4	50.4039	18,379.4	31.181	18,379.4	51.052	18,379.4	42.6882	18,379.4	48.4531	18,379.4	48.3031	18,379.4	44.1244	18,379.4	41.2017
19,026.9	87.9793	19,026.9	87.7518	19,026.9	87.3766	19,026.9	86.7685	19,026.9	86.6147	19,026.9	85.7311	19,026.9	84.8573	19,026.9	84.4918	19,026.9	83.2188	19,026.9	81.7331	19,026.9	81.0154	19,026.9	80.3047	19,026.9	78.5212	19,026.9	77.1308	19,026.9	74.8446	19,026.9	72.1802	19,026.9	70.9346	19,026.9	68.8375	19,026.9	66.1453	19,026.9	65.0599	19,026.9	64.547	19,026.9	62.7856	19,026.9	61.4758	19,026.9	57.4863	19,026.9	56.7963	19,026.9	54.1134	19,026.9	48.8932	19,026.9	48.2627	19,026.9	50.0556	19,026.9	40.3364	19,026.9	49.6338	19,026.9	43.3595	19,026.9	48.1466	19,026.9	43.4853	19,026.9	43.2232	19,026.9	38.2767
19,697.8	88.2301	19,697.8	87.8696	19,697.8	87.4743	19,697.8	86.8802	19,697.8	86.5064	19,697.8	85.6151	19,697.8	84.8442	19,697.8	84.3761	19,697.8	82.9439	19,697.8	81.4687	19,697.8	80.728	19,697.8	79.6835	19,697.8	78.0704	19,697.8	76.4686	19,697.8	74.522	19,697.8	72.4695	19,697.8	70.8678	19,697.8	69.066	19,697.8	66.2378	19,697.8	65.0564	19,697.8	64.7846	19,697.8	62.383	19,697.8	61.0625	19,697.8	57.6495	19,697.8	56.1916	19,697.8	55.2129	19,697.8	49.3427	19,697.8	49.3654	19,697.8	49.8725	19,697.8	40.828	19,697.8	49.747	19,697.8	45.8884	19,697.8	44.3535	19,697.8	42.6279	19,697.8	47.0504	19,697.8	33.8383
19,999.5	88.33	19,999.5	87.8436	19,999.5	87.6164	19,999.5	86.4944	19,999.5	86.4688	19,999.5	85.387	19,999.5	84.8359	19,999.5	84.3126	19,999.5	82.799	19,999.5	81.5775	19,999.5	80.5916	19,999.5	79.5957	19,999.5	77.7548	19,999.5	76.2751	19,999.5	74.2618	19,999.5	72.5851	19,999.5	70.5969	19,999.5	68.5766	19,999.5	65.5517	19,999.5	63.9607	19,999.5	63.2743	19,999.5	62.657	19,999.5	61.1114	19,999.5	55.5488	19,999.5	54.7232	19,999.5	56.9534	19,999.5	51.8585	19,999.5	54.8907	19,999.5	49.6155	19,999.5	45.0056	19,999.5	55.6643	19,999.5	41.6493	19,999.5	49.0839	19,999.5	40.7611	19,999.5	49.4391	19,999.5	39.7932
