"SPL Vertical"
"On-Axis"		"10°"		"-10°"		"20°"		"-20°"		"30°"		"-30°"		"40°"		"-40°"		"50°"		"-50°"		"60°"		"-60°"		"70°"		"-70°"		"80°"		"-80°"		"90°"		"-90°"		"100°"		"-100°"		"110°"		"-110°"		"120°"		"-120°"		"130°"		"-130°"		"140°"		"-140°"		"150°"		"-150°"		"160°"		"-160°"		"170°"		"-170°"		"180°"
"Frequency [Hz]"	"Sound Pessure Level [dB]  / [2.83V 1m] "	"Frequency [Hz]"	"Sound Pessure Level [dB]  / [2.83V 1m] "	"Frequency [Hz]"	"Sound Pessure Level [dB]  / [2.83V 1m] "	"Frequency [Hz]"	"Sound Pessure Level [dB]  / [2.83V 1m] "	"Frequency [Hz]"	"Sound Pessure Level [dB]  / [2.83V 1m] "	"Frequency [Hz]"	"Sound Pessure Level [dB]  / [2.83V 1m] "	"Frequency [Hz]"	"Sound Pessure Level [dB]  / [2.83V 1m] "	"Frequency [Hz]"	"Sound Pessure Level [dB]  / [2.83V 1m] "	"Frequency [Hz]"	"Sound Pessure Level [dB]  / [2.83V 1m] "	"Frequency [Hz]"	"Sound Pessure Level [dB]  / [2.83V 1m] "	"Frequency [Hz]"	"Sound Pessure Level [dB]  / [2.83V 1m] "	"Frequency [Hz]"	"Sound Pessure Level [dB]  / [2.83V 1m] "	"Frequency [Hz]"	"Sound Pessure Level [dB]  / [2.83V 1m] "	"Frequency [Hz]"	"Sound Pessure Level [dB]  / [2.83V 1m] "	"Frequency [Hz]"	"Sound Pessure Level [dB]  / [2.83V 1m] "	"Frequency [Hz]"	"Sound Pessure Level [dB]  / [2.83V 1m] "	"Frequency [Hz]"	"Sound Pessure Level [dB]  / [2.83V 1m] "	"Frequency [Hz]"	"Sound Pessure Level [dB]  / [2.83V 1m] "	"Frequency [Hz]"	"Sound Pessure Level [dB]  / [2.83V 1m] "	"Frequency [Hz]"	"Sound Pessure Level [dB]  / [2.83V 1m] "	"Frequency [Hz]"	"Sound Pessure Level [dB]  / [2.83V 1m] "	"Frequency [Hz]"	"Sound Pessure Level [dB]  / [2.83V 1m] "	"Frequency [Hz]"	"Sound Pessure Level [dB]  / [2.83V 1m] "	"Frequency [Hz]"	"Sound Pessure Level [dB]  / [2.83V 1m] "	"Frequency [Hz]"	"Sound Pessure Level [dB]  / [2.83V 1m] "	"Frequency [Hz]"	"Sound Pessure Level [dB]  / [2.83V 1m] "	"Frequency [Hz]"	"Sound Pessure Level [dB]  / [2.83V 1m] "	"Frequency [Hz]"	"Sound Pessure Level [dB]  / [2.83V 1m] "	"Frequency [Hz]"	"Sound Pessure Level [dB]  / [2.83V 1m] "	"Frequency [Hz]"	"Sound Pessure Level [dB]  / [2.83V 1m] "	"Frequency [Hz]"	"Sound Pessure Level [dB]  / [2.83V 1m] "	"Frequency [Hz]"	"Sound Pessure Level [dB]  / [2.83V 1m] "	"Frequency [Hz]"	"Sound Pessure Level [dB]  / [2.83V 1m] "	"Frequency [Hz]"	"Sound Pessure Level [dB]  / [2.83V 1m] "	"Frequency [Hz]"	"Sound Pessure Level [dB]  / [2.83V 1m] "	"Frequency [Hz]"	"Sound Pessure Level [dB]  / [2.83V 1m] "
20.5078	54.856	20.5078	54.1098	20.5078	55.389	20.5078	53.2033	20.5078	55.6839	20.5078	52.27	20.5078	55.7215	20.5078	51.6003	20.5078	55.4824	20.5078	51.6081	20.5078	54.9543	20.5078	52.4838	20.5078	54.1664	20.5078	53.9596	20.5078	53.2932	20.5078	55.6388	20.5078	52.8388	20.5078	57.28	20.5078	53.4813	20.5078	58.7854	20.5078	55.1866	20.5078	60.1255	20.5078	57.2558	20.5078	61.2948	20.5078	59.1986	20.5078	62.2929	20.5078	60.846	20.5078	63.118	20.5078	62.168	20.5078	63.7644	20.5078	63.1758	20.5078	64.223	20.5078	63.8902	20.5078	64.4811	20.5078	64.3327	20.5078	64.5234
21.9727	60.2828	21.9727	59.9138	21.9727	60.5676	21.9727	59.4957	21.9727	60.746	21.9727	59.0832	21.9727	60.8042	21.9727	58.7561	21.9727	60.7357	21.9727	58.6132	21.9727	60.5457	21.9727	58.7439	21.9727	60.2615	21.9727	59.1848	21.9727	59.9516	21.9727	59.8976	21.9727	59.7452	21.9727	60.7921	21.9727	59.8188	21.9727	61.7696	21.9727	60.305	21.9727	62.75	21.9727	61.1789	21.9727	63.6766	21.9727	62.2726	21.9727	64.5107	21.9727	63.3955	21.9727	65.2241	21.9727	64.4129	21.9727	65.7946	21.9727	65.2508	21.9727	66.2023	21.9727	65.8759	21.9727	66.4293	21.9727	66.2779	21.9727	66.4591
23.4375	61.2944	23.4375	60.9544	23.4375	61.553	23.4375	60.569	23.4375	61.7076	23.4375	60.1939	23.4375	61.7445	23.4375	59.9094	23.4375	61.6584	23.4375	59.8124	23.4375	61.4568	23.4375	59.987	23.4375	61.1718	23.4375	60.4631	23.4375	60.8794	23.4375	61.198	23.4375	60.7162	23.4375	62.1022	23.4375	60.857	23.4375	63.0798	23.4375	61.4152	23.4375	64.0541	23.4375	62.3426	23.4375	64.9707	23.4375	63.4642	23.4375	65.7925	23.4375	64.5972	23.4375	66.4925	23.4375	65.6167	23.4375	67.0493	23.4375	66.4552	23.4375	67.4437	23.4375	67.0825	23.4375	67.6587	23.4375	67.4894	23.4375	67.6783
24.9023	63.0163	24.9023	62.7456	24.9023	63.2282	24.9023	62.4484	24.9023	63.3604	24.9023	62.1717	24.9023	63.4012	24.9023	61.9782	24.9023	63.3483	24.9023	61.9389	24.9023	63.2131	24.9023	62.1136	24.9023	63.0294	24.9023	62.5263	24.9023	62.8657	24.9023	63.1528	24.9023	62.8299	24.9023	63.9328	24.9023	63.0442	24.9023	64.7937	24.9023	63.579	24.9023	65.6701	24.9023	64.3966	24.9023	66.5106	24.9023	65.3724	24.9023	67.2766	24.9023	66.3663	24.9023	67.9386	24.9023	67.2718	24.9023	68.4723	24.9023	68.0234	24.9023	68.8572	24.9023	68.5872	24.9023	69.075	24.9023	68.9496	24.9023	69.1099
26.3672	64.0552	26.3672	63.8199	26.3672	64.2528	26.3672	63.5792	26.3672	64.3914	26.3672	63.3776	26.3672	64.4591	26.3672	63.2695	26.3672	64.4544	26.3672	63.3112	26.3672	64.389	26.3672	63.5441	26.3672	64.2951	26.3672	63.9786	26.3672	64.2321	26.3672	64.5895	26.3672	64.2864	26.3672	65.326	26.3672	64.5494	26.3672	66.1295	26.3672	65.0705	26.3672	66.9456	26.3672	65.8208	26.3672	67.7298	26.3672	66.7053	26.3672	68.4469	26.3672	67.6109	26.3672	69.0685	26.3672	68.4444	26.3672	69.5709	26.3672	69.1435	26.3672	69.9333	26.3672	69.6726	26.3672	70.1376	26.3672	70.0155	26.3672	70.1688
27.832	65.585	27.832	65.3825	27.832	65.755	27.832	65.1746	27.832	65.8745	27.832	64.9977	27.832	65.9337	27.832	64.8965	27.832	65.9322	27.832	64.918	27.832	65.8817	27.832	65.0995	27.832	65.8114	27.832	65.457	27.832	65.7732	27.832	65.9773	27.832	65.8397	27.832	66.6237	27.832	66.0858	27.832	67.3468	27.832	66.5532	27.832	68.0969	27.832	67.2217	27.832	68.8298	27.832	68.0151	27.832	69.5089	27.832	68.8363	27.832	70.1039	27.832	69.6	27.832	70.5893	27.832	70.2451	27.832	70.9434	27.832	70.7348	27.832	71.1476	27.832	71.0504	27.832	71.1867
29.2969	67.0911	29.2969	66.9331	29.2969	67.2318	29.2969	66.7802	29.2969	67.3393	29.2969	66.6613	29.2969	67.4053	29.2969	66.6101	29.2969	67.4294	29.2969	66.66	29.2969	67.4218	29.2969	66.8374	29.2969	67.4066	29.2969	67.1537	29.2969	67.4244	29.2969	67.6014	29.2969	67.5295	29.2969	68.1559	29.2969	67.7762	29.2969	68.7815	29.2969	68.1953	29.2969	69.4391	29.2969	68.7746	29.2969	70.091	29.2969	69.4596	29.2969	70.7032	29.2969	70.1749	29.2969	71.2462	29.2969	70.8478	29.2969	71.6942	29.2969	71.4221	29.2969	72.0246	29.2969	71.8605	29.2969	72.2186	29.2969	72.1426	29.2969	72.2612
30.7617	68.2297	30.7617	68.0768	30.7617	68.3679	30.7617	67.929	30.7617	68.4775	30.7617	67.8117	30.7617	68.5504	30.7617	67.7539	30.7617	68.5858	30.7617	67.7851	30.7617	68.5919	30.7617	67.9297	30.7617	68.5884	30.7617	68.2	30.7617	68.6088	30.7617	68.5926	30.7617	68.6985	30.7617	69.0885	30.7617	68.9044	30.7617	69.6575	30.7617	69.2573	30.7617	70.2641	30.7617	69.7541	30.7617	70.8723	30.7617	70.3545	30.7617	71.4487	30.7617	70.9951	30.7617	71.9634	30.7617	71.6093	30.7617	72.3899	30.7617	72.1414	30.7617	72.7054	30.7617	72.5523	30.7617	72.8908	30.7617	72.8189	30.7617	72.9315
32.2266	69.2141	32.2266	69.0959	32.2266	69.3245	32.2266	68.9864	32.2266	69.4157	32.2266	68.906	32.2266	69.4812	32.2266	68.8779	32.2266	69.5212	32.2266	68.9255	32.2266	69.5433	32.2266	69.0678	32.2266	69.5652	32.2266	69.3156	32.2266	69.6155	32.2266	69.6677	32.2266	69.7308	32.2266	70.1106	32.2266	69.948	32.2266	70.6209	32.2266	70.2901	32.2266	71.1695	32.2266	70.7531	32.2266	71.7251	32.2266	71.3037	32.2266	72.2567	32.2266	71.8886	32.2266	72.7358	32.2266	72.4498	32.2266	73.1363	32.2266	72.9372	32.2266	73.4353	32.2266	73.3139	32.2266	73.6137	32.2266	73.5572	32.2266	73.657
33.6914	70.218	33.6914	70.1127	33.6914	70.3176	33.6914	70.0161	33.6914	70.4014	33.6914	69.946	33.6914	70.4638	33.6914	69.9224	33.6914	70.5049	33.6914	69.9654	33.6914	70.5316	33.6914	70.092	33.6914	70.5592	33.6914	70.3122	33.6914	70.6125	33.6914	70.6263	33.6914	70.7228	33.6914	71.0245	33.6914	70.922	33.6914	71.4876	33.6914	71.2308	33.6914	71.9902	33.6914	71.6481	33.6914	72.5039	33.6914	72.1469	33.6914	72.9996	33.6914	72.6812	33.6914	73.4495	33.6914	73.1987	33.6914	73.8278	33.6914	73.6516	33.6914	74.1117	33.6914	74.0037	33.6914	74.2821	33.6914	74.2317	33.6914	74.3246
35.1562	71.2112	35.1562	71.1184	35.1562	71.3042	35.1562	71.0372	35.1562	71.389	35.1562	70.9822	35.1562	71.4611	35.1562	70.9695	35.1562	71.5209	35.1562	71.0154	35.1562	71.5738	35.1562	71.1338	35.1562	71.6323	35.1562	71.3334	35.1562	71.7151	35.1562	71.6157	35.1562	71.8462	35.1562	71.9735	35.1562	72.0492	35.1562	72.392	35.1562	72.3395	35.1562	72.85	35.1562	72.7161	35.1562	73.3226	35.1562	73.1584	35.1562	73.7833	35.1562	73.6295	35.1562	74.2059	35.1562	74.0857	35.1562	74.5655	35.1562	74.485	35.1562	74.8398	35.1562	74.7939	35.1562	75.0101	35.1562	74.9902	35.1562	75.0626
36.6211	71.9751	36.6211	71.8905	36.6211	72.0624	36.6211	71.8186	36.6211	72.145	36.6211	71.7718	36.6211	72.2189	36.6211	71.7637	36.6211	72.2839	36.6211	71.808	36.6211	72.3445	36.6211	71.9166	36.6211	72.4108	36.6211	72.0973	36.6211	72.4984	36.6211	72.352	36.6211	72.6274	36.6211	72.6756	36.6211	72.8176	36.6211	73.056	36.6211	73.0828	36.6211	73.4753	36.6211	73.423	36.6211	73.9113	36.6211	73.8218	36.6211	74.3396	36.6211	74.248	36.6211	74.7354	36.6211	74.6627	36.6211	75.0746	36.6211	75.0275	36.6211	75.3353	36.6211	75.3103	36.6211	75.4991	36.6211	75.4892	36.6211	75.5526
38.0859	72.9456	38.0859	72.871	38.0859	73.0258	38.0859	72.8103	38.0859	73.1057	38.0859	72.7734	38.0859	73.1818	38.0859	72.7714	38.0859	73.254	38.0859	72.8155	38.0859	73.3256	38.0859	72.9156	38.0859	73.4047	38.0859	73.0782	38.0859	73.5035	38.0859	73.3058	38.0859	73.6374	38.0859	73.5948	38.0859	73.8219	38.0859	73.9359	38.0859	74.0674	38.0859	74.3145	38.0859	74.3744	38.0859	74.7114	38.0859	74.7297	38.0859	75.105	38.0859	75.1079	38.0859	75.4721	38.0859	75.4759	38.0859	75.79	38.0859	75.7997	38.0859	76.0375	38.0859	76.0497	38.0859	76.1968	38.0859	76.2052	38.0859	76.2548
39.5508	73.8607	39.5508	73.7882	39.5508	73.9408	39.5508	73.7299	39.5508	74.0235	39.5508	73.6938	39.5508	74.1058	39.5508	73.6887	39.5508	74.1873	39.5508	73.7237	39.5508	74.2698	39.5508	73.8069	39.5508	74.3586	39.5508	73.9445	39.5508	74.4619	39.5508	74.1393	39.5508	74.5902	39.5508	74.3899	39.5508	74.7551	39.5508	74.6897	39.5508	74.9652	39.5508	75.0268	39.5508	75.2227	39.5508	75.3851	39.5508	75.52	39.5508	75.7448	39.5508	75.839	39.5508	76.0841	39.5508	76.1533	39.5508	76.3809	39.5508	76.4333	39.5508	76.6143	39.5508	76.6514	39.5508	76.7668	39.5508	76.7865	39.5508	76.826
41.0156	74.5776	41.0156	74.4993	41.0156	74.6639	41.0156	74.4352	41.0156	74.7539	41.0156	74.392	41.0156	74.8445	41.0156	74.3775	41.0156	74.9349	41.0156	74.3996	41.0156	75.026	41.0156	74.4654	41.0156	75.1217	41.0156	74.5808	41.0156	75.2278	41.0156	74.7488	41.0156	75.3527	41.0156	74.9687	41.0156	75.505	41.0156	75.2355	41.0156	75.692	41.0156	75.5394	41.0156	75.9158	41.0156	75.8664	41.0156	76.1706	41.0156	76.1986	41.0156	76.442	41.0156	76.5159	41.0156	76.708	41.0156	76.7976	41.0156	76.9432	41.0156	77.0238	41.0156	77.1231	41.0156	77.1778	41.0156	77.2285	41.0156	77.2477
42.4805	75.1995	42.4805	75.1362	42.4805	75.2732	42.4805	75.0881	42.4805	75.3537	42.4805	75.0609	42.4805	75.4386	42.4805	75.0608	42.4805	75.5268	42.4805	75.0941	42.4805	75.619	42.4805	75.1667	42.4805	75.7179	42.4805	75.2831	42.4805	75.8279	42.4805	75.4459	42.4805	75.9552	42.4805	75.6545	42.4805	76.1068	42.4805	75.9046	42.4805	76.2883	42.4805	76.1877	42.4805	76.5014	42.4805	76.4913	42.4805	76.7414	42.4805	76.7995	42.4805	76.9961	42.4805	77.0938	42.4805	77.2461	42.4805	77.3547	42.4805	77.4685	42.4805	77.5634	42.4805	77.6404	42.4805	77.7041	42.4805	77.7432	42.4805	77.7656
43.9453	75.893	43.9453	75.8291	43.9453	75.9687	43.9453	75.7808	43.9453	76.0529	43.9453	75.7529	43.9453	76.1433	43.9453	75.7502	43.9453	76.2387	43.9453	75.778	43.9453	76.339	43.9453	75.8413	43.9453	76.4454	43.9453	75.9439	43.9453	76.5607	43.9453	76.0885	43.9453	76.689	43.9453	76.2751	43.9453	76.8354	43.9453	76.5005	43.9453	77.0039	43.9453	76.758	43.9453	77.1959	43.9453	77.0371	43.9453	77.408	43.9453	77.3235	43.9453	77.6301	43.9453	77.6004	43.9453	77.846	43.9453	77.8496	43.9453	78.0359	43.9453	78.0531	43.9453	78.1792	43.9453	78.1955	43.9453	78.2594	43.9453	78.2658
45.4102	76.4369	45.4102	76.3737	45.4102	76.5121	45.4102	76.326	45.4102	76.5966	45.4102	76.2975	45.4102	76.688	45.4102	76.2925	45.4102	76.785	45.4102	76.3154	45.4102	76.8867	45.4102	76.3701	45.4102	76.9936	45.4102	76.4604	45.4102	77.1071	45.4102	76.5883	45.4102	77.23	45.4102	76.7544	45.4102	77.3658	45.4102	76.9563	45.4102	77.5177	45.4102	77.1884	45.4102	77.6872	45.4102	77.4417	45.4102	77.8715	45.4102	77.7036	45.4102	78.0629	45.4102	77.9588	45.4102	78.2481	45.4102	78.1906	45.4102	78.4098	45.4102	78.3822	45.4102	78.5302	45.4102	78.5191	45.4102	78.5939	45.4102	78.5911
46.875	77.0381	46.875	76.9782	46.875	77.1108	46.875	76.9338	46.875	77.1939	46.875	76.9081	46.875	77.2853	46.875	76.9045	46.875	77.3834	46.875	76.9265	46.875	77.487	46.875	76.9773	46.875	77.5958	46.875	77.06	46.875	77.7102	46.875	77.1766	46.875	77.8317	46.875	77.3276	46.875	77.9626	46.875	77.5113	46.875	78.105	46.875	77.7232	46.875	78.26	46.875	77.9555	46.875	78.4255	46.875	78.1972	46.875	78.5951	46.875	78.4346	46.875	78.7576	46.875	78.6521	46.875	78.8981	46.875	78.8342	46.875	79.0005	46.875	78.967	46.875	79.051	46.875	79.0406
48.3398	77.6092	48.3398	77.5515	48.3398	77.6807	48.3398	77.5098	48.3398	77.7639	48.3398	77.4865	48.3398	77.857	48.3398	77.4842	48.3398	77.9583	48.3398	77.5056	48.3398	78.0663	48.3398	77.5534	48.3398	78.1799	48.3398	77.6301	48.3398	78.2985	48.3398	77.7374	48.3398	78.4225	48.3398	77.8759	48.3398	78.5527	48.3398	78.0446	48.3398	78.6903	48.3398	78.2398	48.3398	78.8355	48.3398	78.455	48.3398	78.9865	48.3398	78.6806	48.3398	79.1377	48.3398	78.9043	48.3398	79.2798	48.3398	79.1117	48.3398	79.3998	48.3398	79.2881	48.3398	79.4837	48.3398	79.4204	48.3398	79.5194	48.3398	79.4989
51.2695	78.6824	51.2695	78.6279	51.2695	78.7513	51.2695	78.5892	51.2695	78.8333	51.2695	78.5676	51.2695	78.9266	51.2695	78.5643	51.2695	79.0292	51.2695	78.5808	51.2695	79.1389	51.2695	78.6186	51.2695	79.2533	51.2695	78.6791	51.2695	79.3701	51.2695	78.7637	51.2695	79.4877	51.2695	78.8732	51.2695	79.6048	51.2695	79.0071	51.2695	79.7211	51.2695	79.1634	51.2695	79.8361	51.2695	79.3379	51.2695	79.9488	51.2695	79.5237	51.2695	80.056	51.2695	79.7112	51.2695	80.1521	51.2695	79.889	51.2695	80.2286	51.2695	80.0449	51.2695	80.2757	51.2695	80.1676	51.2695	80.2844	51.2695	80.2487
52.7344	79.2535	52.7344	79.2009	52.7344	79.3214	52.7344	79.1644	52.7344	79.4033	52.7344	79.145	52.7344	79.4977	52.7344	79.1433	52.7344	79.6023	52.7344	79.16	52.7344	79.7147	52.7344	79.1963	52.7344	79.8319	52.7344	79.2529	52.7344	79.951	52.7344	79.331	52.7344	80.0693	52.7344	79.4311	52.7344	80.1848	52.7344	79.5532	52.7344	80.2964	52.7344	79.6957	52.7344	80.4031	52.7344	79.8555	52.7344	80.5038	52.7344	80.0267	52.7344	80.5963	52.7344	80.2011	52.7344	80.676	52.7344	80.3685	52.7344	80.7361	52.7344	80.5178	52.7344	80.7684	52.7344	80.6384	52.7344	80.7654	52.7344	80.7223
54.1992	79.7055	54.1992	79.6538	54.1992	79.7726	54.1992	79.6181	54.1992	79.8542	54.1992	79.5988	54.1992	79.9485	54.1992	79.5964	54.1992	80.0534	54.1992	79.6109	54.1992	80.1661	54.1992	79.6431	54.1992	80.2832	54.1992	79.6933	54.1992	80.4014	54.1992	79.7625	54.1992	80.5171	54.1992	79.8511	54.1992	80.6278	54.1992	79.9593	54.1992	80.7315	54.1992	80.0862	54.1992	80.8271	54.1992	80.2292	54.1992	80.9135	54.1992	80.3839	54.1992	80.989	54.1992	80.5433	54.1992	81.0504	54.1992	80.6986	54.1992	81.0924	54.1992	80.8397	54.1992	81.1089	54.1992	80.957	54.1992	81.0936	54.1992	81.043
55.6641	80.1771	55.6641	80.1283	55.6641	80.2404	55.6641	80.0942	55.6641	80.3174	55.6641	80.0749	55.6641	80.4067	55.6641	80.07	55.6641	80.5061	55.6641	80.0794	55.6641	80.6127	55.6641	80.1033	55.6641	80.7229	55.6641	80.142	55.6641	80.8327	55.6641	80.1961	55.6641	80.9383	55.6641	80.2664	55.6641	81.0365	55.6641	80.3535	55.6641	81.1249	55.6641	80.4572	55.6641	81.2024	55.6641	80.5761	55.6641	81.2684	55.6641	80.707	55.6641	81.322	55.6641	80.8445	55.6641	81.3615	55.6641	80.9812	55.6641	81.3836	55.6641	81.1084	55.6641	81.3837	55.6641	81.2177	55.6641	81.3574	55.6641	81.3019
58.5938	81.0819	58.5938	81.0302	58.5938	81.1488	58.5938	80.9937	58.5938	81.2306	58.5938	80.9718	58.5938	81.3259	58.5938	80.9637	58.5938	81.4325	58.5938	80.969	58.5938	81.5469	58.5938	80.987	58.5938	81.6649	58.5938	81.0179	58.5938	81.7817	58.5938	81.0618	58.5938	81.8922	58.5938	81.1196	58.5938	81.9919	58.5938	81.1919	58.5938	82.0772	58.5938	81.2793	58.5938	82.1459	58.5938	81.3814	58.5938	82.1968	58.5938	81.4964	58.5938	82.2295	58.5938	81.6207	58.5938	82.2433	58.5938	81.7486	58.5938	82.2372	58.5938	81.8732	58.5938	82.2094	58.5938	81.9871	58.5938	82.1583	58.5938	82.0836
60.0586	81.4559	60.0586	81.4033	60.0586	81.5234	60.0586	81.3654	60.0586	81.6052	60.0586	81.3412	60.0586	81.7	60.0586	81.33	60.0586	81.8053	60.0586	81.3306	60.0586	81.9173	60.0586	81.3422	60.0586	82.0316	60.0586	81.3646	60.0586	82.1429	60.0586	81.3977	60.0586	82.2458	60.0586	81.4423	60.0586	82.3355	60.0586	81.4992	60.0586	82.4081	60.0586	81.5693	60.0586	82.4613	60.0586	81.653	60.0586	82.4941	60.0586	81.7495	60.0586	82.5068	60.0586	81.8564	60.0586	82.5002	60.0586	81.9695	60.0586	82.4749	60.0586	82.0831	60.0586	82.4309	60.0586	82.191	60.0586	82.3681	60.0586	82.2874
62.9883	82.2997	62.9883	82.2461	62.9883	82.3681	62.9883	82.2069	62.9883	82.4508	62.9883	82.1811	62.9883	82.5463	62.9883	82.1673	62.9883	82.6517	62.9883	82.1641	62.9883	82.7631	62.9883	82.1701	62.9883	82.8755	62.9883	82.1846	62.9883	82.9831	62.9883	82.2074	62.9883	83.0802	62.9883	82.2388	62.9883	83.1613	62.9883	82.28	62.9883	83.2222	62.9883	82.3321	62.9883	83.2604	62.9883	82.3964	62.9883	83.275	62.9883	82.4733	62.9883	83.2672	62.9883	82.5618	62.9883	83.2388	62.9883	82.6595	62.9883	83.1922	62.9883	82.7624	62.9883	83.1295	62.9883	82.8654	62.9883	83.0526	62.9883	82.9636
64.4531	82.614	64.4531	82.5604	64.4531	82.6824	64.4531	82.5212	64.4531	82.7654	64.4531	82.4952	64.4531	82.8613	64.4531	82.4809	64.4531	82.9675	64.4531	82.4766	64.4531	83.08	64.4531	82.4811	64.4531	83.194	64.4531	82.4933	64.4531	83.3038	64.4531	82.5129	64.4531	83.4035	64.4531	82.5404	64.4531	83.4872	64.4531	82.5768	64.4531	83.5502	64.4531	82.6237	64.4531	83.5891	64.4531	82.6825	64.4531	83.6026	64.4531	82.7542	64.4531	83.5911	64.4531	82.8387	64.4531	83.5566	64.4531	82.9342	64.4531	83.5019	64.4531	83.0373	64.4531	83.43	64.4531	83.1432	64.4531	83.3439	64.4531	83.247
67.3828	83.2188	67.3828	83.1641	67.3828	83.2892	67.3828	83.1245	67.3828	83.375	67.3828	83.0984	67.3828	83.4748	67.3828	83.084	67.3828	83.5858	67.3828	83.0792	67.3828	83.704	67.3828	83.0821	67.3828	83.8242	67.3828	83.0913	67.3828	83.94	67.3828	83.1061	67.3828	84.0448	67.3828	83.1265	67.3828	84.1317	67.3828	83.1535	67.3828	84.1946	67.3828	83.1889	67.3828	84.2294	67.3828	83.2348	67.3828	84.2337	67.3828	83.2933	67.3828	84.2079	67.3828	83.3657	67.3828	84.1548	67.3828	83.4519	67.3828	84.0789	67.3828	83.5504	67.3828	83.9856	67.3828	83.6577	67.3828	83.8807	67.3828	83.7695
68.8477	83.4497	68.8477	83.3951	68.8477	83.5206	68.8477	83.356	68.8477	83.6075	68.8477	83.3308	68.8477	83.7092	68.8477	83.3173	68.8477	83.8228	68.8477	83.3132	68.8477	83.9442	68.8477	83.3166	68.8477	84.068	68.8477	83.3256	68.8477	84.1877	68.8477	83.3395	68.8477	84.296	68.8477	83.3582	68.8477	84.3857	68.8477	83.3825	68.8477	84.4503	68.8477	83.4144	68.8477	84.4849	68.8477	83.4563	68.8477	84.4871	68.8477	83.5105	68.8477	84.457	68.8477	83.579	68.8477	84.3977	68.8477	83.6625	68.8477	84.3143	68.8477	83.7599	68.8477	84.2132	68.8477	83.8685	68.8477	84.1009	68.8477	83.9839
71.7773	83.8898	71.7773	83.8374	71.7773	83.9572	71.7773	83.7992	71.7773	84.0397	71.7773	83.7734	71.7773	84.1358	71.7773	83.7577	71.7773	84.2429	71.7773	83.7495	71.7773	84.357	71.7773	83.7465	71.7773	84.4726	71.7773	83.7465	71.7773	84.5832	71.7773	83.7485	71.7773	84.6814	71.7773	83.7522	71.7773	84.7597	71.7773	83.7584	71.7773	84.8113	71.7773	83.7693	71.7773	84.8307	71.7773	83.7879	71.7773	84.8153	71.7773	83.8177	71.7773	84.7656	71.7773	83.8623	71.7773	84.6857	71.7773	83.9244	71.7773	84.5822	71.7773	84.0051	71.7773	84.4636	71.7773	84.1036	71.7773	84.339	71.7773	84.2166
74.707	84.3963	74.707	84.3466	74.707	84.4606	74.707	84.3104	74.707	84.5393	74.707	84.2858	74.707	84.6313	74.707	84.2703	74.707	84.7341	74.707	84.2613	74.707	84.8439	74.707	84.2561	74.707	84.9554	74.707	84.2523	74.707	85.0621	74.707	84.2484	74.707	85.1568	74.707	84.2441	74.707	85.2314	74.707	84.2402	74.707	85.2787	74.707	84.239	74.707	85.2929	74.707	84.2441	74.707	85.2707	74.707	84.2598	74.707	85.2127	74.707	84.2909	74.707	85.123	74.707	84.3414	74.707	85.009	74.707	84.4136	74.707	84.8806	74.707	84.5078	74.707	84.748	74.707	84.6211
77.6367	84.7484	77.6367	84.698	77.6367	84.8119	77.6367	84.6598	77.6367	84.8886	77.6367	84.6318	77.6367	84.9775	77.6367	84.6114	77.6367	85.0761	77.6367	84.5957	77.6367	85.1807	77.6367	84.5819	77.6367	85.2862	77.6367	84.5676	77.6367	85.3861	77.6367	84.5513	77.6367	85.4728	77.6367	84.5324	77.6367	85.5381	77.6367	84.512	77.6367	85.5742	77.6367	84.4927	77.6367	85.5752	77.6367	84.4786	77.6367	85.5376	77.6367	84.4752	77.6367	85.462	77.6367	84.4885	77.6367	85.3532	77.6367	84.5242	77.6367	85.2201	77.6367	84.5862	77.6367	85.074	77.6367	84.6761	77.6367	84.9274	77.6367	84.7917
79.1016	84.7992	79.1016	84.7485	79.1016	84.8629	79.1016	84.7099	79.1016	84.94	79.1016	84.6812	79.1016	85.0292	79.1016	84.6597	79.1016	85.1283	79.1016	84.6426	79.1016	85.2335	79.1016	84.6268	79.1016	85.3394	79.1016	84.6099	79.1016	85.4394	79.1016	84.5903	79.1016	85.5256	79.1016	84.5674	79.1016	85.5897	79.1016	84.5423	79.1016	85.6237	79.1016	84.5177	79.1016	85.6211	79.1016	84.498	79.1016	85.5787	79.1016	84.4888	79.1016	85.497	79.1016	84.4969	79.1016	85.3812	79.1016	84.5283	79.1016	85.2407	79.1016	84.5878	79.1016	85.0874	79.1016	84.6772	79.1016	84.9348	79.1016	84.7948
82.0312	84.9015	82.0312	84.8489	82.0312	84.9675	82.0312	84.8085	82.0312	85.0466	82.0312	84.7783	82.0312	85.1377	82.0312	84.7557	82.0312	85.2382	82.0312	84.7374	82.0312	85.3439	82.0312	84.7203	82.0312	85.4497	82.0312	84.7017	82.0312	85.5488	82.0312	84.6795	82.0312	85.6332	82.0312	84.6531	82.0312	85.6946	82.0312	84.6232	82.0312	85.7248	82.0312	84.5926	82.0312	85.7172	82.0312	84.5658	82.0312	85.6684	82.0312	84.549	82.0312	85.5788	82.0312	84.5495	82.0312	85.4541	82.0312	84.5745	82.0312	85.304	82.0312	84.6295	82.0312	85.1417	82.0312	84.7173	82.0312	84.9815	82.0312	84.8366
84.9609	85.097	84.9609	85.0505	84.9609	85.1568	84.9609	85.0161	84.9609	85.2306	84.9609	84.9914	84.9609	85.3174	84.9609	84.9734	84.9609	85.4154	84.9609	84.9589	84.9609	85.5211	84.9609	84.9444	84.9609	85.6295	84.9609	84.9272	84.9609	85.7338	84.9609	84.905	84.9609	85.8258	84.9609	84.8771	84.9609	85.8959	84.9609	84.8444	84.9609	85.935	84.9609	84.8098	84.9609	85.9351	84.9609	84.7781	84.9609	85.8916	84.9609	84.7561	84.9609	85.8045	84.9609	84.7519	84.9609	85.6788	84.9609	84.7734	84.9609	85.5248	84.9609	84.827	84.9609	85.3567	84.9609	84.9161	84.9609	85.1899	84.9609	85.0393
87.8906	84.9479	87.8906	84.9017	87.8906	85.0096	87.8906	84.8694	87.8906	85.0876	87.8906	84.8483	87.8906	85.1817	87.8906	84.8355	87.8906	85.2904	87.8906	84.8274	87.8906	85.4105	87.8906	84.8204	87.8906	85.537	87.8906	84.8115	87.8906	85.6627	87.8906	84.7982	87.8906	85.7783	87.8906	84.7796	87.8906	85.8729	87.8906	84.7564	87.8906	85.9355	87.8906	84.7313	87.8906	85.9565	87.8906	84.7093	87.8906	85.9294	87.8906	84.6976	87.8906	85.8527	87.8906	84.7043	87.8906	85.7308	87.8906	84.7381	87.8906	85.5738	87.8906	84.8058	87.8906	85.3967	87.8906	84.9105	87.8906	85.2166	87.8906	85.0501
90.8203	85.0465	90.8203	84.9932	90.8203	85.1103	90.8203	84.9493	90.8203	85.1846	90.8203	84.9133	90.8203	85.2686	90.8203	84.8824	90.8203	85.3608	90.8203	84.8537	90.8203	85.4583	90.8203	84.8238	90.8203	85.557	90.8203	84.7897	90.8203	85.6509	90.8203	84.749	90.8203	85.732	90.8203	84.7008	90.8203	85.791	90.8203	84.6459	90.8203	85.8179	90.8203	84.5875	90.8203	85.8037	90.8203	84.5312	90.8203	85.7423	90.8203	84.4853	90.8203	85.6328	90.8203	84.4597	90.8203	85.4804	90.8203	84.4648	90.8203	85.2968	90.8203	84.5097	90.8203	85.0985	90.8203	84.5997	90.8203	84.9048	90.8203	84.7339
95.2148	84.984	95.2148	84.9352	95.2148	85.044	95.2148	84.8968	95.2148	85.1152	95.2148	84.8671	95.2148	85.1966	95.2148	84.8433	95.2148	85.2867	95.2148	84.8222	95.2148	85.3828	95.2148	84.8	95.2148	85.4812	95.2148	84.7734	95.2148	85.5767	95.2148	84.7397	95.2148	85.6618	95.2148	84.6976	95.2148	85.7277	95.2148	84.6477	95.2148	85.764	95.2148	84.5931	95.2148	85.7613	95.2148	84.5394	95.2148	85.7124	95.2148	84.495	95.2148	85.6151	95.2148	84.4701	95.2148	85.4734	95.2148	84.4756	95.2148	85.298	95.2148	84.5207	95.2148	85.1053	95.2148	84.6108	95.2148	84.9146	95.2148	84.7449
98.1445	84.9787	98.1445	84.9189	98.1445	85.0462	98.1445	84.8668	98.1445	85.1211	98.1445	84.8211	98.1445	85.202	98.1445	84.7796	98.1445	85.2871	98.1445	84.7397	98.1445	85.3737	98.1445	84.698	98.1445	85.4582	98.1445	84.6513	98.1445	85.5355	98.1445	84.5974	98.1445	85.5987	98.1445	84.5349	98.1445	85.6395	98.1445	84.4646	98.1445	85.6485	98.1445	84.3898	98.1445	85.6171	98.1445	84.3164	98.1445	85.5394	98.1445	84.2533	98.1445	85.4141	98.1445	84.2115	98.1445	85.2467	98.1445	84.2028	98.1445	85.0487	98.1445	84.2378	98.1445	84.8378	98.1445	84.3227	98.1445	84.6342	98.1445	84.4575
101.074	84.7696	101.074	84.7079	101.074	84.8396	101.074	84.6544	101.074	84.9173	101.074	84.6079	101.074	85.0011	101.074	84.5662	101.074	85.089	101.074	84.5262	101.074	85.1781	101.074	84.4842	101.074	85.2648	101.074	84.4368	101.074	85.3438	101.074	84.3814	101.074	85.4082	101.074	84.3164	101.074	85.4493	101.074	84.2427	101.074	85.4575	101.074	84.1637	101.074	85.424	101.074	84.0858	101.074	85.3428	101.074	84.0184	101.074	85.2127	101.074	83.973	101.074	85.0391	101.074	83.9622	101.074	84.8342	101.074	83.997	101.074	84.6161	101.074	84.084	101.074	84.4056	101.074	84.223
105.469	84.7069	105.469	84.6553	105.469	84.7639	105.469	84.6092	105.469	84.8256	105.469	84.5674	105.469	84.8909	105.469	84.5277	105.469	84.9585	105.469	84.4871	105.469	85.0266	105.469	84.4417	105.469	85.0929	105.469	84.3878	105.469	85.1533	105.469	84.3224	105.469	85.2019	105.469	84.2438	105.469	85.2303	105.469	84.1527	105.469	85.2286	105.469	84.0528	105.469	85.1872	105.469	83.9509	105.469	85.099	105.469	83.8573	105.469	84.9621	105.469	83.7851	105.469	84.7817	105.469	83.7488	105.469	84.5706	105.469	83.7613	105.469	84.3481	105.469	83.8311	105.469	84.137	105.469	83.9591
108.398	84.6703	108.398	84.614	108.398	84.7307	108.398	84.5626	108.398	84.794	108.398	84.5157	108.398	84.859	108.398	84.4718	108.398	84.9243	108.398	84.4286	108.398	84.989	108.398	84.3826	108.398	85.0516	108.398	84.3302	108.398	85.1092	108.398	84.2686	108.398	85.1566	108.398	84.196	108.398	85.1863	108.398	84.1128	108.398	85.1885	108.398	84.0221	108.398	85.1535	108.398	83.9302	108.398	85.0735	108.398	83.8469	108.398	84.9458	108.398	83.7845	108.398	84.775	108.398	83.7565	108.398	84.5728	108.398	83.7752	108.398	84.3578	108.398	83.8485	108.398	84.1521	108.398	83.9769
112.793	84.6628	112.793	84.5954	112.793	84.7306	112.793	84.5296	112.793	84.7975	112.793	84.4656	112.793	84.862	112.793	84.4023	112.793	84.9229	112.793	84.3376	112.793	84.9794	112.793	84.2686	112.793	85.0301	112.793	84.1922	112.793	85.0727	112.793	84.1058	112.793	85.1025	112.793	84.0082	112.793	85.1124	112.793	83.9006	112.793	85.0931	112.793	83.7869	112.793	85.0352	112.793	83.6747	112.793	84.9315	112.793	83.5747	112.793	84.7795	112.793	83.5004	112.793	84.5841	112.793	83.4661	112.793	84.358	112.793	83.4846	112.793	84.1206	112.793	83.5637	112.793	83.895	112.793	83.7035
117.188	84.5561	117.188	84.4857	117.188	84.6234	117.188	84.4135	117.188	84.686	117.188	84.3395	117.188	84.7425	117.188	84.2628	117.188	84.7918	117.188	84.1814	117.188	84.8333	117.188	84.0922	117.188	84.8661	117.188	83.9922	117.188	84.8885	117.188	83.879	117.188	84.8962	117.188	83.7519	117.188	84.8825	117.188	83.6126	117.188	84.8385	117.188	83.466	117.188	84.7546	117.188	83.3211	117.188	84.6238	117.188	83.1902	117.188	84.4439	117.188	83.0888	117.188	84.2206	117.188	83.0333	117.188	83.9676	117.188	83.0384	117.188	83.7061	117.188	83.1129	117.188	83.4612	117.188	83.2571
120.117	84.4756	120.117	84.4061	120.117	84.5407	120.117	84.3335	120.117	84.5998	120.117	84.2581	120.117	84.6511	120.117	84.1789	120.117	84.6936	120.117	84.0937	120.117	84.7264	120.117	83.9991	120.117	84.7487	120.117	83.8918	120.117	84.7584	120.117	83.7689	120.117	84.7511	120.117	83.6291	120.117	84.7199	120.117	83.4737	120.117	84.6558	120.117	83.3077	120.117	84.5496	120.117	83.1398	120.117	84.3947	120.117	82.9832	120.117	84.1903	120.117	82.8545	120.117	83.9435	120.117	82.7721	120.117	83.6705	120.117	82.7529	120.117	83.3947	120.117	82.8085	120.117	83.1431	120.117	82.9415
124.512	84.1488	124.512	84.0754	124.512	84.2217	124.512	84.0036	124.512	84.292	124.512	83.9341	124.512	84.3578	124.512	83.8665	124.512	84.418	124.512	83.7986	124.512	84.4719	124.512	83.7268	124.512	84.5187	124.512	83.647	124.512	84.5562	124.512	83.5556	124.512	84.5794	124.512	83.45	124.512	84.5801	124.512	83.3302	124.512	84.5477	124.512	83.1995	124.512	84.4715	124.512	83.065	124.512	84.3432	124.512	82.9384	124.512	84.1612	124.512	82.8348	124.512	83.9325	124.512	82.7717	124.512	83.6732	124.512	82.7655	124.512	83.4072	124.512	82.8281	124.512	83.1619	124.512	82.9628
128.906	83.8208	128.906	83.7371	128.906	83.9039	128.906	83.6559	128.906	83.9835	128.906	83.5797	128.906	84.0574	128.906	83.5092	128.906	84.125	128.906	83.4436	128.906	84.1865	128.906	83.38	128.906	84.2427	128.906	83.3147	128.906	84.2925	128.906	83.2439	128.906	84.3323	128.906	83.1647	128.906	84.3542	128.906	83.0763	128.906	84.3473	128.906	82.9809	128.906	84.2996	128.906	82.8844	128.906	84.2018	128.906	82.7967	128.906	84.0504	128.906	82.7307	128.906	83.8507	128.906	82.7011	128.906	83.6172	128.906	82.7217	128.906	83.3716	128.906	82.8019	128.906	83.1393	128.906	82.9437
133.301	83.7245	133.301	83.6334	133.301	83.8111	133.301	83.541	133.301	83.8903	133.301	83.45	133.301	83.9603	133.301	83.3618	133.301	84.0208	133.301	83.276	133.301	84.0728	133.301	83.1907	133.301	84.1175	133.301	83.1028	133.301	84.1548	133.301	83.0096	133.301	84.1814	133.301	82.909	133.301	84.19	133.301	82.8012	133.301	84.1696	133.301	82.6895	133.301	84.1081	133.301	82.5808	133.301	83.996	133.301	82.4856	133.301	83.83	133.301	82.4171	133.301	83.6156	133.301	82.3897	133.301	83.3677	133.301	82.4161	133.301	83.1086	133.301	82.5048	133.301	82.8637	133.301	82.6567
139.16	83.4805	139.16	83.385	139.16	83.5699	139.16	83.2868	139.16	83.6502	139.16	83.1888	139.16	83.7197	139.16	83.0928	139.16	83.7787	139.16	82.9986	139.16	83.8289	139.16	82.9046	139.16	83.8728	139.16	82.8081	139.16	83.9113	139.16	82.7063	139.16	83.942	139.16	82.5975	139.16	83.9572	139.16	82.4823	139.16	83.9449	139.16	82.3646	139.16	83.8913	139.16	82.2521	139.16	83.7845	139.16	82.156	139.16	83.6196	139.16	82.0904	139.16	83.4009	139.16	82.0702	139.16	83.1433	139.16	82.1081	139.16	82.8698	139.16	82.2121	139.16	82.6074	139.16	82.3818
143.555	83.3415	143.555	83.2358	143.555	83.4394	143.555	83.1275	143.555	83.5252	143.555	83.021	143.555	83.596	143.555	82.9188	143.555	83.6517	143.555	82.8215	143.555	83.6947	143.555	82.7274	143.555	83.7288	143.555	82.6335	143.555	83.7572	143.555	82.5366	143.555	83.7795	143.555	82.4346	143.555	83.7899	143.555	82.3275	143.555	83.7772	143.555	82.219	143.555	83.7277	143.555	82.1165	143.555	83.6291	143.555	82.031	143.555	83.4753	143.555	81.9761	143.555	83.2695	143.555	81.9656	143.555	83.0251	143.555	82.0113	143.555	82.7634	143.555	82.1195	143.555	82.51	143.555	82.2892
147.949	83.3211	147.949	83.2075	147.949	83.4166	147.949	83.0808	147.949	83.4898	147.949	82.9462	147.949	83.5389	147.949	82.8075	147.949	83.565	147.949	82.6666	147.949	83.572	147.949	82.5239	147.949	83.5656	147.949	82.3784	147.949	83.5507	147.949	82.2292	147.949	83.5289	147.949	82.0764	147.949	83.4962	147.949	81.9228	147.949	83.4432	147.949	81.7742	147.949	83.3574	147.949	81.6401	147.949	83.2273	147.949	81.5329	147.949	83.0474	147.949	81.4663	147.949	82.8209	147.949	81.453	147.949	82.5608	147.949	81.5022	147.949	82.2874	147.949	81.6174	147.949	82.0246	147.949	81.7953
153.809	83.1314	153.809	83.0202	153.809	83.2229	153.809	82.8946	153.809	83.2908	153.809	82.7594	153.809	83.3333	153.809	82.6181	153.809	83.3519	153.809	82.4722	153.809	83.3508	153.809	82.3211	153.809	83.3359	153.809	82.1629	153.809	83.312	153.809	81.9958	153.809	83.2802	153.809	81.8193	153.809	83.2353	153.809	81.6358	153.809	83.1664	153.809	81.452	153.809	83.0595	153.809	81.2788	153.809	82.9025	153.809	81.1314	153.809	82.6902	153.809	81.0269	153.809	82.4279	153.809	80.9818	153.809	82.1316	153.809	81.0088	153.809	81.8256	153.809	81.1136	153.809	81.5377	153.809	81.2937
159.668	83.0439	159.668	82.9268	159.668	83.1415	159.668	82.7955	159.668	83.2158	159.668	82.6556	159.668	83.2653	159.668	82.5109	159.668	83.292	159.668	82.3636	159.668	83.3005	159.668	82.2133	159.668	83.297	159.668	82.0584	159.668	83.2859	159.668	81.8969	159.668	83.2678	159.668	81.7282	159.668	83.2368	159.668	81.5548	159.668	83.1812	159.668	81.3833	159.668	83.0867	159.668	81.2252	159.668	82.941	159.668	81.0954	159.668	82.739	159.668	81.011	159.668	82.4855	159.668	80.9874	159.668	82.1958	159.668	81.0352	159.668	81.893	159.668	81.1582	159.668	81.6033	159.668	81.3518
165.527	82.9285	165.527	82.8217	165.527	83.0152	165.527	82.7005	165.527	83.0778	165.527	82.5713	165.527	83.1156	165.527	82.4389	165.527	83.132	165.527	82.3058	165.527	83.1337	165.527	82.1721	165.527	83.1295	165.527	82.0358	165.527	83.126	165.527	81.8939	165.527	83.1243	165.527	81.7449	165.527	83.1172	165.527	81.5898	165.527	83.0901	165.527	81.4339	165.527	83.0248	165.527	81.2878	165.527	82.9062	165.527	81.1661	165.527	82.7276	165.527	81.0859	165.527	82.4939	165.527	81.0632	165.527	82.2209	165.527	81.1091	165.527	81.9325	165.527	81.2274	165.527	81.6551	165.527	81.4136
171.387	82.7333	171.387	82.611	171.387	82.8297	171.387	82.4706	171.387	82.8943	171.387	82.3204	171.387	82.9252	171.387	82.1671	171.387	82.9253	171.387	82.0154	171.387	82.9024	171.387	81.8664	171.387	82.8677	171.387	81.7194	171.387	82.8324	171.387	81.5721	171.387	82.8026	171.387	81.4231	171.387	82.7755	171.387	81.2735	171.387	82.7389	171.387	81.1283	171.387	82.6747	171.387	80.9972	171.387	82.5662	171.387	80.8936	171.387	82.4043	171.387	80.8324	171.387	82.1915	171.387	80.8266	171.387	81.9414	171.387	80.8844	171.387	81.6753	171.387	81.0069	171.387	81.417	171.387	81.1884
177.246	82.5962	177.246	82.4686	177.246	82.6939	177.246	82.3196	177.246	82.7553	177.246	82.1581	177.246	82.7782	177.246	81.9917	177.246	82.7652	177.246	81.8254	177.246	82.724	177.246	81.6614	177.246	82.6662	177.246	81.4992	177.246	82.6033	177.246	81.3373	177.246	82.5429	177.246	81.1753	177.246	82.4846	177.246	81.0151	177.246	82.4188	177.246	80.8629	177.246	82.3305	177.246	80.7288	177.246	82.2053	177.246	80.626	177.246	82.036	177.246	80.5678	177.246	81.8258	177.246	80.5642	177.246	81.588	177.246	80.6199	177.246	81.3415	177.246	80.7337	177.246	81.1062	177.246	80.8991
183.105	82.3584	183.105	82.2298	183.105	82.4535	183.105	82.075	183.105	82.5106	183.105	81.9018	183.105	82.529	183.105	81.7177	183.105	82.5131	183.105	81.5279	183.105	82.472	183.105	81.3356	183.105	82.4176	183.105	81.142	183.105	82.3608	183.105	80.9481	183.105	82.307	183.105	80.7559	183.105	82.2523	183.105	80.5706	183.105	82.1844	183.105	80.4014	183.105	82.0871	183.105	80.261	183.105	81.9474	183.105	80.1636	183.105	81.7608	183.105	80.1217	183.105	81.5339	183.105	80.1423	183.105	81.2816	183.105	80.2253	183.105	81.0226	183.105	80.3649	183.105	80.7745	183.105	80.5514
188.965	82.2759	188.965	82.1479	188.965	82.3637	188.965	81.9873	188.965	82.4063	188.965	81.8031	188.965	82.4033	188.965	81.603	188.965	82.361	188.965	81.3925	188.965	82.2917	188.965	81.1749	188.965	82.2122	188.965	80.9515	188.965	82.1383	188.965	80.7233	188.965	82.0786	188.965	80.4931	188.965	82.0296	188.965	80.2676	188.965	81.975	188.965	80.0587	188.965	81.8925	188.965	79.8832	188.965	81.7627	188.965	79.7602	188.965	81.5766	188.965	79.7066	188.965	81.3389	188.965	79.7315	188.965	81.065	188.965	79.8342	188.965	80.7756	188.965	80.0049	188.965	80.4911	188.965	80.229
196.289	82.3247	196.289	82.1948	196.289	82.4096	196.289	82.0299	196.289	82.4425	196.289	81.8405	196.289	82.4214	196.289	81.6363	196.289	82.3507	196.289	81.4241	196.289	82.2421	196.289	81.2082	196.289	82.1132	196.289	80.9902	196.289	81.9838	196.289	80.7706	196.289	81.8689	196.289	80.5511	196.289	81.7731	196.289	80.3364	196.289	81.6869	196.289	80.1359	196.289	81.5918	196.289	79.9633	196.289	81.4681	196.289	79.8349	196.289	81.3038	196.289	79.7659	196.289	81.099	196.289	79.7661	196.289	80.8644	196.289	79.8365	196.289	80.617	196.289	79.9699	196.289	80.3747	196.289	80.154
203.613	82.275	203.613	82.1188	203.613	82.3757	203.613	81.9186	203.613	82.4126	203.613	81.6871	203.613	82.3823	203.613	81.4364	203.613	82.2884	203.613	81.1761	203.613	82.1421	203.613	80.9129	203.613	81.9617	203.613	80.6511	203.613	81.7692	203.613	80.3936	203.613	81.5842	203.613	80.1441	203.613	81.4166	203.613	79.909	203.613	81.2633	203.613	79.6984	203.613	81.1115	203.613	79.5262	203.613	80.9467	203.613	79.407	203.613	80.761	203.613	79.3523	203.613	80.5564	203.613	79.3661	203.613	80.3419	203.613	79.4431	203.613	80.128	203.613	79.5709	203.613	79.9235	203.613	79.735
210.938	82.2469	210.938	82.1046	210.938	82.3361	210.938	81.918	210.938	82.3658	210.938	81.6968	210.938	82.3338	210.938	81.4494	210.938	82.244	210.938	81.1828	210.938	82.1073	210.938	80.9018	210.938	81.9403	210.938	80.6101	210.938	81.7619	210.938	80.3122	210.938	81.5874	210.938	80.015	210.938	81.4223	210.938	79.7295	210.938	81.2602	210.938	79.4721	210.938	81.0872	210.938	79.2624	210.938	80.8901	210.938	79.1198	210.938	80.665	210.938	79.057	210.938	80.4195	210.938	79.0759	210.938	80.1681	210.938	79.166	210.938	79.9247	210.938	79.3101	210.938	79.6977	210.938	79.4911
218.262	81.8734	218.262	81.7414	218.262	81.9567	218.262	81.5712	218.262	81.9836	218.262	81.3737	218.262	81.9519	218.262	81.1578	218.262	81.8668	218.262	80.9288	218.262	81.7422	218.262	80.6885	218.262	81.5985	218.262	80.4367	218.262	81.4579	218.262	80.1737	218.262	81.3358	218.262	79.9029	218.262	81.2335	218.262	79.6341	218.262	81.1367	218.262	79.3838	218.262	81.0218	218.262	79.1743	218.262	80.8685	218.262	79.0289	218.262	80.6691	218.262	78.9647	218.262	80.4312	218.262	78.9864	218.262	80.1731	218.262	79.0849	218.262	79.9138	218.262	79.2425	218.262	79.6671	218.262	79.4408
225.586	81.9559	225.586	81.8048	225.586	82.0435	225.586	81.6043	225.586	82.0572	225.586	81.37	225.586	81.9933	225.586	81.1158	225.586	81.8573	225.586	80.8522	225.586	81.6656	225.586	80.5849	225.586	81.4448	225.586	80.3163	225.586	81.2282	225.586	80.0474	225.586	81.0453	225.586	79.7817	225.586	80.9108	225.586	79.5282	225.586	80.8183	225.586	79.304	225.586	80.7452	225.586	79.1321	225.586	80.6662	225.586	79.037	225.586	80.5647	225.586	79.0345	225.586	80.4363	225.586	79.1237	225.586	80.2841	225.586	79.2858	225.586	80.1112	225.586	79.4909	225.586	79.9188	225.586	79.7088
232.91	82.0909	232.91	81.9248	232.91	82.1905	232.91	81.7063	232.91	82.2122	232.91	81.4502	232.91	82.1495	232.91	81.1691	232.91	82.0035	232.91	80.8722	232.91	81.7842	232.91	80.5646	232.91	81.5108	232.91	80.2486	232.91	81.2103	232.91	79.9258	232.91	80.9103	232.91	79.6012	232.91	80.6313	232.91	79.2856	232.91	80.3803	232.91	78.9981	232.91	80.1528	232.91	78.7649	232.91	79.9425	232.91	78.6131	232.91	79.7496	232.91	78.5608	232.91	79.5809	232.91	78.6065	232.91	79.4389	232.91	78.7268	232.91	79.3146	232.91	78.885	232.91	79.1889	232.91	79.0458
241.699	81.7528	241.699	81.5658	241.699	81.8752	241.699	81.3307	241.699	81.9201	241.699	81.0643	241.699	81.8807	241.699	80.7813	241.699	81.7583	241.699	80.4915	241.699	81.5639	241.699	80.1991	241.699	81.3175	241.699	79.9035	241.699	81.0455	241.699	79.6025	241.699	80.7729	241.699	79.2971	241.699	80.5142	241.699	78.9951	241.699	80.2682	241.699	78.7138	241.699	80.0233	241.699	78.4795	241.699	79.7702	241.699	78.3204	241.699	79.5141	241.699	78.2556	241.699	79.2749	241.699	78.284	241.699	79.0734	241.699	78.3823	241.699	78.9142	241.699	78.515	241.699	78.7813	241.699	78.6519
250.488	81.9009	250.488	81.6583	250.488	82.0684	250.488	81.3579	250.488	82.1479	250.488	81.0194	250.488	82.1332	250.488	80.6618	250.488	82.0266	250.488	80.3005	250.488	81.8399	250.488	79.9449	250.488	81.5947	250.488	79.5988	250.488	81.3178	250.488	79.262	250.488	81.0332	250.488	78.9346	250.488	80.7521	250.488	78.6219	250.488	80.4684	250.488	78.3375	250.488	80.1657	250.488	78.1038	250.488	79.8329	250.488	77.9463	250.488	79.4794	250.488	77.8831	250.488	79.1365	250.488	77.9129	250.488	78.8415	250.488	78.0124	250.488	78.6131	250.488	78.1473	250.488	78.4392	250.488	78.2909
259.277	82.067	259.277	81.8668	259.277	82.1943	259.277	81.6083	259.277	82.238	259.277	81.3078	259.277	82.193	259.277	80.9807	259.277	82.0623	259.277	80.6397	259.277	81.8577	259.277	80.2932	259.277	81.6	259.277	79.945	259.277	81.316	259.277	79.5961	259.277	81.0303	259.277	79.2481	259.277	80.7565	259.277	78.9072	259.277	80.4906	259.277	78.5878	259.277	80.2157	259.277	78.3132	259.277	79.9156	259.277	78.1118	259.277	79.5911	259.277	78.0068	259.277	79.2648	259.277	78.0033	259.277	78.9696	259.277	78.083	259.277	78.7267	259.277	78.2133	259.277	78.5322	259.277	78.3657
268.066	81.6312	268.066	81.4057	268.066	81.7765	268.066	81.1122	268.066	81.834	268.066	80.765	268.066	81.8022	268.066	80.3795	268.066	81.6879	268.066	79.9709	268.066	81.5077	268.066	79.5533	268.066	81.287	268.066	79.1401	268.066	81.0546	268.066	78.7452	268.066	80.8324	268.066	78.3848	268.066	80.6243	268.066	78.0783	268.066	80.4132	268.066	77.8476	268.066	80.1719	268.066	77.713	268.066	79.8823	268.066	77.685	268.066	79.5527	268.066	77.7568	268.066	79.2198	268.066	77.9019	268.066	78.9303	268.066	78.0806	268.066	78.7104	268.066	78.2558	268.066	78.5489	268.066	78.4087
276.855	81.5727	276.855	81.4087	276.855	81.662	276.855	81.1799	276.855	81.6705	276.855	80.8976	276.855	81.5988	276.855	80.5715	276.855	81.4557	276.855	80.2071	276.855	81.2578	276.855	79.8055	276.855	81.0284	276.855	79.3651	276.855	80.7927	276.855	78.8867	276.855	80.571	276.855	78.3801	276.855	80.3709	276.855	77.8721	276.855	80.1852	276.855	77.4131	276.855	79.9971	276.855	77.0735	276.855	79.7907	276.855	76.9213	276.855	79.5616	276.855	76.9847	276.855	79.3177	276.855	77.2292	276.855	79.0716	276.855	77.5761	276.855	78.8267	276.855	77.9438	276.855	78.5701	276.855	78.2801
287.109	81.4173	287.109	81.2773	287.109	81.4679	287.109	81.0619	287.109	81.4203	287.109	80.7867	287.109	81.2744	287.109	80.4665	287.109	81.043	287.109	80.1132	287.109	80.7552	287.109	79.7347	287.109	80.4552	287.109	79.3354	287.109	80.1917	287.109	78.9182	287.109	79.9977	287.109	78.4881	287.109	79.8709	287.109	78.0579	287.109	79.7732	287.109	77.6542	287.109	79.6535	287.109	77.3205	287.109	79.4768	287.109	77.1102	287.109	79.2421	287.109	77.0645	287.109	78.9784	287.109	77.1858	287.109	78.7215	287.109	77.4285	287.109	78.4865	287.109	77.7219	287.109	78.2576	287.109	78.0066
297.363	81.6429	297.363	81.462	297.363	81.7345	297.363	81.2121	297.363	81.7181	297.363	80.9104	297.363	81.581	297.363	80.5679	297.363	81.3237	297.363	80.1891	297.363	80.9658	297.363	79.7743	297.363	80.5512	297.363	79.3238	297.363	80.1429	297.363	78.8427	297.363	79.802	297.363	78.3435	297.363	79.5551	297.363	77.8476	297.363	79.3793	297.363	77.3878	297.363	79.2251	297.363	77.0099	297.363	79.058	297.363	76.7715	297.363	78.879	297.363	76.7247	297.363	78.7115	297.363	76.8829	297.363	78.5655	297.363	77.1986	297.363	78.4167	297.363	77.5807	297.363	78.2192	297.363	77.9388
307.617	81.5875	307.617	81.3913	307.617	81.7005	307.617	81.1355	307.617	81.7112	307.617	80.8428	307.617	81.6084	307.617	80.5288	307.617	81.3912	307.617	80.1965	307.617	81.0725	307.617	79.8357	307.617	80.6815	307.617	79.4285	307.617	80.2631	307.617	78.9598	307.617	79.8659	307.617	78.4287	307.617	79.5197	307.617	77.86	307.617	79.2166	307.617	77.3114	307.617	78.9182	307.617	76.868	307.617	78.5919	307.617	76.6128	307.617	78.2475	307.617	76.5813	307.617	77.9405	307.617	76.7355	307.617	77.7293	307.617	76.9863	307.617	77.6169	307.617	77.2388	307.617	77.5419	307.617	77.429
319.336	81.5009	319.336	81.2505	319.336	81.6559	319.336	80.9348	319.336	81.6905	319.336	80.5847	319.336	81.5883	319.336	80.2254	319.336	81.3452	319.336	79.8695	319.336	80.9739	319.336	79.5135	319.336	80.5085	319.336	79.1397	319.336	80.0043	319.336	78.7237	319.336	79.5263	319.336	78.2451	319.336	79.1221	319.336	77.7004	319.336	78.7957	319.336	77.1172	319.336	78.5095	319.336	76.5681	319.336	78.2237	319.336	76.1687	319.336	77.9363	319.336	76.0293	319.336	77.6885	319.336	76.1716	319.336	77.5221	319.336	76.4989	319.336	77.4254	319.336	76.8636	319.336	77.3287	319.336	77.153
329.59	80.8206	329.59	80.5924	329.59	80.9619	329.59	80.3064	329.59	80.9951	329.59	79.9939	329.59	80.9099	329.59	79.6799	329.59	80.7094	329.59	79.3754	329.59	80.4106	329.59	79.0748	329.59	80.0462	329.59	78.7588	329.59	79.6611	329.59	78.4023	329.59	79.3006	329.59	77.9838	329.59	78.9885	329.59	77.4963	329.59	78.7088	329.59	76.9588	329.59	78.4143	329.59	76.4306	329.59	78.0663	329.59	76.0143	329.59	77.6763	329.59	75.8208	329.59	77.3162	329.59	75.8933	329.59	77.0684	329.59	76.1589	329.59	76.9447	329.59	76.4759	329.59	76.8648	329.59	76.7247
341.309	80.8811	341.309	80.6077	341.309	81.0416	341.309	80.2569	341.309	81.0668	341.309	79.8719	341.309	80.9492	341.309	79.4944	341.309	80.6979	341.309	79.152	341.309	80.3419	341.309	78.8488	341.309	79.9298	341.309	78.5661	341.309	79.5233	341.309	78.2726	341.309	79.177	341.309	77.9385	341.309	78.9099	341.309	77.549	341.309	78.6924	341.309	77.1155	341.309	78.4664	341.309	76.6863	341.309	78.1882	341.309	76.3454	341.309	77.8644	341.309	76.1847	341.309	77.5556	341.309	76.2446	341.309	77.3326	341.309	76.4724	341.309	77.209	341.309	76.753	341.309	77.121	341.309	76.9821
353.027	81.0533	353.027	80.751	353.027	81.2164	353.027	80.3449	353.027	81.2185	353.027	79.8819	353.027	81.0528	353.027	79.4117	353.027	80.7293	353.027	78.9746	353.027	80.2799	353.027	78.5885	353.027	79.7658	353.027	78.2437	353.027	79.2775	353.027	77.9097	353.027	78.9078	353.027	77.5498	353.027	78.6942	353.027	77.1379	353.027	78.5795	353.027	76.6753	353.027	78.4464	353.027	76.2082	353.027	78.1954	353.027	75.8362	353.027	77.8083	353.027	75.6808	353.027	77.3691	353.027	75.7965	353.027	77.0203	353.027	76.1033	353.027	76.8442	353.027	76.4383	353.027	76.7756	353.027	76.6707
366.211	81.2953	366.211	80.957	366.211	81.4738	366.211	80.4921	366.211	81.4729	366.211	79.9493	366.211	81.2843	366.211	79.3873	366.211	80.9116	366.211	78.8604	366.211	80.3779	366.211	78.3976	366.211	79.7399	366.211	77.9903	366.211	79.1021	366.211	77.6008	366.211	78.6041	366.211	77.1832	366.211	78.346	366.211	76.7046	366.211	78.2933	366.211	76.1603	366.211	78.2869	366.211	75.5875	366.211	78.1586	366.211	75.0803	366.211	77.8263	366.211	74.7765	366.211	77.3254	366.211	74.7766	366.211	76.7872	366.211	75.0418	366.211	76.3497	366.211	75.4149	366.211	76.0371	366.211	75.7548
379.395	81.7124	379.395	81.3931	379.395	81.8949	379.395	80.9691	379.395	81.9171	379.395	80.4812	379.395	81.7624	379.395	79.9743	379.395	81.4214	379.395	79.4884	379.395	80.8943	379.395	79.0471	379.395	80.2024	379.395	78.6502	379.395	79.4073	379.395	78.2758	379.395	78.6318	379.395	77.8906	379.395	78.0471	379.395	77.4661	379.395	77.782	379.395	76.9951	379.395	77.8129	379.395	76.5084	379.395	77.983	379.395	76.0859	379.395	78.1244	379.395	75.84	379.395	78.1375	379.395	75.8533	379.395	77.9978	379.395	76.1114	379.395	77.7297	379.395	76.5147	379.395	77.3721	379.395	76.9563
392.578	81.2507	392.578	80.8828	392.578	81.485	392.578	80.4104	392.578	81.5692	392.578	79.8809	392.578	81.4929	392.578	79.3561	392.578	81.2485	392.578	78.8957	392.578	80.8347	392.578	78.5334	392.578	80.2658	392.578	78.261	392.578	79.5838	392.578	78.0351	392.578	78.8676	392.578	77.7984	392.578	78.2247	392.578	77.5033	392.578	77.7503	392.578	77.1296	392.578	77.4764	392.578	76.7033	392.578	77.3736	392.578	76.3142	392.578	77.4019	392.578	76.1054	392.578	77.5271	392.578	76.1941	392.578	77.6896	392.578	76.5615	392.578	77.7924	392.578	77.0511	392.578	77.739	392.578	77.4822
405.762	81.6688	405.762	81.321	405.762	81.8328	405.762	80.8123	405.762	81.8006	405.762	80.1794	405.762	81.5696	405.762	79.4751	405.762	81.1485	405.762	78.7656	405.762	80.5609	405.762	78.1176	405.762	79.848	405.762	77.5771	405.762	79.0707	405.762	77.1526	405.762	78.3105	405.762	76.817	405.762	77.6606	405.762	76.5284	405.762	77.1937	405.762	76.2589	405.762	76.9242	405.762	76.0192	405.762	76.8152	405.762	75.8696	405.762	76.8278	405.762	75.8968	405.762	76.9441	405.762	76.1446	405.762	77.1342	405.762	76.5525	405.762	77.3202	405.762	76.9791	405.762	77.3963	405.762	77.2853
420.41	82.0904	420.41	81.8032	420.41	82.2101	420.41	81.3722	420.41	82.1502	420.41	80.8308	420.41	81.9113	420.41	80.2177	420.41	81.5056	420.41	79.5709	420.41	80.9541	420.41	78.9209	420.41	80.2837	420.41	78.2831	420.41	79.525	420.41	77.6548	420.41	78.7162	420.41	77.0179	420.41	77.914	420.41	76.3511	420.41	77.2027	420.41	75.6559	420.41	76.683	420.41	75.0002	420.41	76.4266	420.41	74.5593	420.41	76.4326	420.41	74.5565	420.41	76.6292	420.41	75.0446	420.41	76.9062	420.41	75.8005	420.41	77.139	420.41	76.5212	420.41	77.2052	420.41	77.0105
435.059	81.461	435.059	81.0986	435.059	81.6545	435.059	80.6057	435.059	81.6569	435.059	80.0379	435.059	81.4607	435.059	79.4607	435.059	81.0731	435.059	78.9343	435.059	80.5192	435.059	78.494	435.059	79.8483	435.059	78.141	435.059	79.1368	435.059	77.8468	435.059	78.4763	435.059	77.5677	435.059	77.9359	435.059	77.2555	435.059	77.5236	435.059	76.8692	435.059	77.1995	435.059	76.3941	435.059	76.9421	435.059	75.8772	435.059	76.7878	435.059	75.4627	435.059	76.7854	435.059	75.3543	435.059	76.9025	435.059	75.6388	435.059	77.008	435.059	76.1603	435.059	76.9529	435.059	76.6576
451.172	81.977	451.172	81.5197	451.172	82.2364	451.172	80.8843	451.172	82.2886	451.172	80.1077	451.172	82.1269	451.172	79.2461	451.172	81.7463	451.172	78.3706	451.172	81.1503	451.172	77.5545	451.172	80.3631	451.172	76.8594	451.172	79.4403	451.172	76.3223	451.172	78.4648	451.172	75.9449	451.172	77.5145	451.172	75.6946	451.172	76.6185	451.172	75.5238	451.172	75.7874	451.172	75.4138	451.172	75.169	451.172	75.4155	451.172	75.118	451.172	75.6386	451.172	75.7838	451.172	76.1456	451.172	76.7702	451.172	76.8422	451.172	77.5866	451.172	77.5135	451.172	77.9924	451.172	77.9457
465.82	81.893	465.82	81.5134	465.82	82.0622	465.82	80.9495	465.82	82.0121	465.82	80.2469	465.82	81.7487	465.82	79.4709	465.82	81.2908	465.82	78.696	465.82	80.6666	465.82	77.9837	465.82	79.907	465.82	77.3616	465.82	79.0441	465.82	76.8182	465.82	78.1282	465.82	76.3188	465.82	77.2492	465.82	75.8276	465.82	76.5029	465.82	75.3323	465.82	75.8868	465.82	74.8757	465.82	75.293	465.82	74.5866	465.82	74.7059	465.82	74.6398	465.82	74.4008	465.82	75.0863	465.82	74.7155	465.82	75.7329	465.82	75.4765	465.82	76.2702	465.82	76.1657	465.82	76.452
483.398	81.6941	483.398	81.4053	483.398	81.7569	483.398	80.9207	483.398	81.5918	483.398	80.2971	483.398	81.225	483.398	79.6073	483.398	80.7075	483.398	78.9199	483.398	80.1083	483.398	78.2761	483.398	79.4965	483.398	77.684	483.398	78.914	483.398	77.1283	483.398	78.352	483.398	76.5832	483.398	77.7535	483.398	76.015	483.398	77.0542	483.398	75.393	483.398	76.2527	483.398	74.7397	483.398	75.4882	483.398	74.2286	483.398	75.0577	483.398	74.2	483.398	75.2139	483.398	74.8298	483.398	75.8533	483.398	75.8122	483.398	76.5923	483.398	76.675	483.398	77.0824	483.398	77.1283
499.512	81.9891	499.512	81.5558	499.512	82.1571	499.512	80.8842	499.512	82.0546	499.512	80.0316	499.512	81.6935	499.512	79.0927	499.512	81.1038	499.512	78.1887	499.512	80.338	499.512	77.4281	499.512	79.4749	499.512	76.8553	499.512	78.6171	499.512	76.4369	499.512	77.8656	499.512	76.0951	499.512	77.266	499.512	75.7458	499.512	76.7646	499.512	75.3182	499.512	76.2423	499.512	74.7826	499.512	75.6269	499.512	74.2256	499.512	75.0419	499.512	73.9407	499.512	74.8631	499.512	74.278	499.512	75.3344	499.512	75.1626	499.512	76.1106	499.512	76.098	499.512	76.6487	499.512	76.6554
517.09	81.6875	517.09	81.2026	517.09	81.8946	517.09	80.4898	517.09	81.8184	517.09	79.6505	517.09	81.4895	517.09	78.825	517.09	80.9689	517.09	78.1398	517.09	80.3387	517.09	77.636	517.09	79.6838	517.09	77.2544	517.09	79.0594	517.09	76.8898	517.09	78.4586	517.09	76.4506	517.09	77.8062	517.09	75.8826	517.09	77.0024	517.09	75.18	517.09	76.0196	517.09	74.431	517.09	75.0609	517.09	73.9238	517.09	74.6684	517.09	74.113	517.09	75.2474	517.09	75.1059	517.09	76.3995	517.09	76.4119	517.09	77.4598	517.09	77.4948	517.09	78.0614	517.09	78.0763
536.133	82.4587	536.133	82.0109	536.133	82.515	536.133	81.1779	536.133	82.1869	536.133	80.0002	536.133	81.4914	536.133	78.5973	536.133	80.466	536.133	77.2281	536.133	79.2026	536.133	76.2701	536.133	77.9161	536.133	75.954	536.133	76.9812	536.133	76.1089	536.133	76.6843	536.133	76.3615	536.133	76.8201	536.133	76.4234	536.133	76.8784	536.133	76.1376	536.133	76.4809	536.133	75.4417	536.133	75.4923	536.133	74.4196	536.133	74.1419	536.133	73.5493	536.133	73.45	536.133	73.7317	536.133	74.3942	536.133	75.0195	536.133	75.9661	536.133	76.3905	536.133	76.9944	536.133	77.1315
555.176	82.7779	555.176	82.401	555.176	82.8133	555.176	81.6808	555.176	82.5244	555.176	80.644	555.176	81.9358	555.176	79.3606	555.176	81.0685	555.176	77.9619	555.176	79.9318	555.176	76.6478	555.176	78.5405	555.176	75.6567	555.176	77.0074	555.176	75.1488	555.176	75.7151	555.176	75.0638	555.176	75.1881	555.176	75.1417	555.176	75.3234	555.176	75.0914	555.176	75.4089	555.176	74.7284	555.176	74.9348	555.176	74.099	555.176	73.8756	555.176	73.686	555.176	73.0199	555.176	74.2197	555.176	73.7251	555.176	75.5428	555.176	75.4588	555.176	76.7467	555.176	76.801	555.176	77.238
574.219	82.8933	574.219	82.3862	574.219	83.0859	574.219	81.5902	574.219	82.9632	574.219	80.558	574.219	82.5377	574.219	79.3646	574.219	81.8138	574.219	78.1002	574.219	80.7754	574.219	76.8655	574.219	79.4112	574.219	75.7628	574.219	77.7891	574.219	74.8705	574.219	76.1666	574.219	74.2152	574.219	74.9961	574.219	73.7461	574.219	74.517	574.219	73.3139	574.219	74.395	574.219	72.7001	574.219	74.1642	574.219	71.7675	574.219	73.6699	574.219	70.8532	574.219	73.2004	574.219	71.0886	574.219	73.3736	574.219	72.6967	574.219	74.2486	574.219	74.3267	574.219	75.0573	574.219	75.1591
594.727	82.8605	594.727	82.4926	594.727	82.8914	594.727	81.8069	594.727	82.5924	594.727	80.8506	594.727	81.9913	594.727	79.7005	594.727	81.1226	594.727	78.4624	594.727	80.0165	594.727	77.256	594.727	78.7129	594.727	76.177	594.727	77.298	594.727	75.2746	594.727	75.9213	594.727	74.5846	594.727	74.7126	594.727	74.1408	594.727	73.6186	594.727	73.8703	594.727	72.4362	594.727	73.5343	594.727	71.2316	594.727	72.8949	594.727	70.8864	594.727	72.0879	594.727	72.2179	594.727	72.0715	594.727	74.2634	594.727	73.5257	594.727	75.8951	594.727	75.3431	594.727	76.6819	594.727	76.4947
615.234	82.8294	615.234	82.661	615.234	82.6817	615.234	82.1625	615.234	82.2442	615.234	81.3483	615.234	81.5397	615.234	80.2715	615.234	80.5795	615.234	79.0339	615.234	79.3692	615.234	77.8062	615.234	77.9264	615.234	76.813	615.234	76.3356	615.234	76.1876	615.234	74.8955	615.234	75.8363	615.234	74.1442	615.234	75.5549	615.234	74.1704	615.234	75.1816	615.234	74.2584	615.234	74.5743	615.234	73.6156	615.234	73.556	615.234	71.486	615.234	72.0413	615.234	66.4697	615.234	70.6697	615.234	62.2644	615.234	71.0987	615.234	69.4344	615.234	72.7493	615.234	72.8094	615.234	73.63
637.207	82.5408	637.207	82.1979	637.207	82.5753	637.207	81.5603	637.207	82.3155	637.207	80.6649	637.207	81.8081	637.207	79.5733	637.207	81.1148	637.207	78.3898	637.207	80.2441	637.207	77.2853	637.207	79.0995	637.207	76.4332	637.207	77.5795	637.207	75.8473	637.207	75.8379	637.207	75.3897	637.207	74.5137	637.207	74.9637	637.207	74.2085	637.207	74.5587	637.207	74.4689	637.207	74.1173	637.207	74.4356	637.207	73.4725	637.207	73.638	637.207	72.5577	637.207	72.1134	637.207	71.9204	637.207	71.1284	637.207	72.5177	637.207	72.2649	637.207	73.7901	637.207	73.8663	637.207	74.4277
659.18	82.5946	659.18	82.4849	659.18	82.4184	659.18	82.0788	659.18	82.003	659.18	81.3852	659.18	81.4177	659.18	80.4103	659.18	80.7038	659.18	79.1619	659.18	79.8282	659.18	77.7008	659.18	78.7118	659.18	76.2105	659.18	77.3142	659.18	74.9799	659.18	75.6882	659.18	74.2289	659.18	74.0342	659.18	73.957	659.18	72.8093	659.18	73.9665	659.18	72.4472	659.18	73.934	659.18	72.6267	659.18	73.5158	659.18	72.4849	659.18	72.5631	659.18	71.345	659.18	71.5799	659.18	69.5034	659.18	71.7569	659.18	69.7619	659.18	72.7718	659.18	71.9327	659.18	73.0811
682.617	83.0126	682.617	82.9511	682.617	82.7489	682.617	82.5646	682.617	82.1819	682.617	81.8629	682.617	81.3746	682.617	80.8654	682.617	80.4246	682.617	79.6298	682.617	79.3996	682.617	78.3048	682.617	78.2847	682.617	77.1187	682.617	77.053	682.617	76.2054	682.617	75.7775	682.617	75.4873	682.617	74.6818	682.617	74.8571	682.617	74.0982	682.617	74.3704	682.617	74.0914	682.617	74.1165	682.617	74.1008	682.617	73.947	682.617	73.3021	682.617	73.6467	682.617	71.0973	682.617	73.4235	682.617	68.918	682.617	73.8375	682.617	71.168	682.617	74.6819	682.617	73.9063	682.617	74.9671
707.52	82.8822	707.52	82.8804	707.52	82.6295	707.52	82.5768	707.52	82.2202	707.52	81.9757	707.52	81.7553	707.52	81.1161	707.52	81.2486	707.52	80.0736	707.52	80.5811	707.52	78.9912	707.52	79.5948	707.52	78.0606	707.52	78.2276	707.52	77.3536	707.52	76.5618	707.52	76.7245	707.52	74.9122	707.52	76.0182	707.52	73.9142	707.52	75.268	707.52	73.8937	707.52	74.568	707.52	74.3508	707.52	73.7851	707.52	74.5614	707.52	72.6725	707.52	74.0619	707.52	71.7635	707.52	73.2899	707.52	72.7098	707.52	73.8557	707.52	74.6779	707.52	75.264	707.52	75.7075
732.422	82.4565	732.422	82.4929	732.422	82.0957	732.422	82.2017	732.422	81.4847	732.422	81.6162	732.422	80.7722	732.422	80.7693	732.422	80.1103	732.422	79.695	732.422	79.5121	732.422	78.5022	732.422	78.7948	732.422	77.424	732.422	77.717	732.422	76.6566	732.422	76.1988	732.422	76.1681	732.422	74.5726	732.422	75.8545	732.422	73.5892	732.422	75.6947	732.422	73.3989	732.422	75.5992	732.422	73.2154	732.422	75.2548	732.422	72.3435	732.422	74.219	732.422	70.4217	732.422	72.2726	732.422	68.0792	732.422	70.5898	732.422	68.9075	732.422	71.279	732.422	71.3873	732.422	72.2051
757.324	83.2244	757.324	83.4073	757.324	82.6701	757.324	83.1998	757.324	81.821	757.324	82.5916	757.324	80.814	757.324	81.5414	757.324	79.7468	757.324	79.9891	757.324	78.5742	757.324	77.9486	757.324	77.2185	757.324	75.6522	757.324	75.7692	757.324	73.6367	757.324	74.4698	757.324	72.5805	757.324	73.5793	757.324	72.8434	757.324	73.4219	757.324	74.0475	757.324	74.2008	757.324	75.3803	757.324	75.3103	757.324	76.2537	757.324	75.6914	757.324	76.5063	757.324	74.5013	757.324	76.3656	757.324	71.275	757.324	76.2515	757.324	69.5174	757.324	76.1505	757.324	72.9807	757.324	75.3522
785.156	83.3685	785.156	83.4997	785.156	82.9691	785.156	83.3734	785.156	82.3338	785.156	82.9696	785.156	81.5808	785.156	82.2138	785.156	80.8303	785.156	81.0332	785.156	80.0592	785.156	79.4682	785.156	79.1275	785.156	77.7379	785.156	77.8862	785.156	76.1015	785.156	76.09	785.156	74.6074	785.156	73.537	785.156	73.2518	785.156	71.2061	785.156	72.5863	785.156	71.4199	785.156	73.0854	785.156	73.1731	785.156	73.7253	785.156	74.4777	785.156	73.4054	785.156	74.6624	785.156	72.2458	785.156	74.2355	785.156	72.7849	785.156	75.0622	785.156	75.3068	785.156	76.5786	785.156	76.8327
811.523	83.7553	811.523	83.957	811.523	83.1128	811.523	83.7072	811.523	82.1308	811.523	83.0191	811.523	81.0387	811.523	81.8898	811.523	80.0786	811.523	80.3202	811.523	79.2798	811.523	78.422	811.523	78.4599	811.523	76.5675	811.523	77.4094	811.523	75.2786	811.523	75.9204	811.523	74.6134	811.523	73.9516	811.523	74.0652	811.523	72.0919	811.523	73.3756	811.523	71.0493	811.523	73.0112	811.523	70.501	811.523	73.4247	811.523	70.1714	811.523	74.0813	811.523	70.3185	811.523	74.4129	811.523	71.0522	811.523	74.5934	811.523	72.5191	811.523	74.9284	811.523	74.1372	811.523	74.9777
840.82	83.8542	840.82	84.0815	840.82	83.2098	840.82	83.9273	840.82	82.2227	840.82	83.4185	840.82	81.1281	840.82	82.4798	840.82	80.1947	840.82	80.9454	840.82	79.5292	840.82	78.7529	840.82	79.0488	840.82	76.3717	840.82	78.4977	840.82	74.9397	840.82	77.3763	840.82	74.7191	840.82	75.0265	840.82	74.7492	840.82	71.1533	840.82	74.5359	840.82	69.8882	840.82	74.3174	840.82	73.4844	840.82	74.3211	840.82	75.4435	840.82	74.2344	840.82	74.4406	840.82	74.0926	840.82	69.5209	840.82	74.864	840.82	69.7056	840.82	76.3093	840.82	75.0176	840.82	76.7798
870.117	84.0269	870.117	84.1157	870.117	83.359	870.117	83.7156	870.117	82.1699	870.117	82.9443	870.117	80.7085	870.117	81.8206	870.117	79.3105	870.117	80.2227	870.117	78.2333	870.117	77.9967	870.117	77.6009	870.117	75.1934	870.117	77.337	870.117	72.4841	870.117	77.1348	870.117	71.4253	870.117	76.6012	870.117	72.2255	870.117	75.2286	870.117	73.3388	870.117	72.189	870.117	74.1368	870.117	67.5349	870.117	74.5418	870.117	70.0424	870.117	74.4536	870.117	72.8437	870.117	74.1201	870.117	71.7982	870.117	74.4383	870.117	69.3497	870.117	75.2804	870.117	72.5726	870.117	75.073
900.879	84.0488	900.879	84.1128	900.879	83.4341	900.879	83.6854	900.879	82.386	900.879	82.8967	900.879	81.183	900.879	81.7999	900.879	80.0903	900.879	80.3197	900.879	79.1656	900.879	78.398	900.879	78.2467	900.879	76.2337	900.879	77.0875	900.879	74.2935	900.879	75.5545	900.879	72.8484	900.879	73.9008	900.879	71.8507	900.879	72.921	900.879	71.7795	900.879	73.09	900.879	72.8828	900.879	73.8155	900.879	73.8504	900.879	74.2419	900.879	73.6184	900.879	73.4115	900.879	72.3914	900.879	70.6211	900.879	72.6797	900.879	70.0293	900.879	74.7033	900.879	73.7433	900.879	75.4293
933.105	84.1301	933.105	84.1311	933.105	83.4641	933.105	83.6054	933.105	82.1705	933.105	82.7403	933.105	80.5629	933.105	81.6193	933.105	79.106	933.105	80.148	933.105	78.0009	933.105	78.2144	933.105	77.1665	933.105	75.9807	933.105	76.4804	933.105	73.9927	933.105	75.7602	933.105	72.8116	933.105	74.7398	933.105	72.1213	933.105	73.292	933.105	71.6497	933.105	70.9034	933.105	72.4747	933.105	68.2339	933.105	74.0297	933.105	70.8868	933.105	74.6484	933.105	73.1503	933.105	73.974	933.105	71.6942	933.105	73.5362	933.105	69.3383	933.105	74.8113	933.105	73.276	933.105	75.3713
965.332	83.7471	965.332	83.8998	965.332	83.0133	965.332	83.4925	965.332	81.8518	965.332	82.644	965.332	80.5711	965.332	81.473	965.332	79.3951	965.332	79.9884	965.332	78.2684	965.332	78.0781	965.332	77.2756	965.332	75.7435	965.332	76.7235	965.332	73.5872	965.332	76.2674	965.332	72.653	965.332	75.006	965.332	72.2248	965.332	73.0914	965.332	71.0236	965.332	72.3037	965.332	70.3191	965.332	72.4073	965.332	71.8514	965.332	72.1934	965.332	72.9358	965.332	72.047	965.332	72.1159	965.332	71.1411	965.332	71.3601	965.332	70.2859	965.332	73.5932	965.332	73.2203	965.332	74.8389
1,000.49	84.1282	1,000.49	84.1762	1,000.49	83.5179	1,000.49	83.7678	1,000.49	82.3563	1,000.49	82.9993	1,000.49	81.0079	1,000.49	81.9064	1,000.49	79.9358	1,000.49	80.4645	1,000.49	78.7814	1,000.49	78.6432	1,000.49	77.1856	1,000.49	76.5909	1,000.49	75.8168	1,000.49	74.4427	1,000.49	75.2554	1,000.49	72.1563	1,000.49	74.9176	1,000.49	70.1575	1,000.49	73.897	1,000.49	68.5224	1,000.49	71.3168	1,000.49	68.6466	1,000.49	66.2843	1,000.49	71.2774	1,000.49	68.6189	1,000.49	73.3602	1,000.49	72.4052	1,000.49	73.6985	1,000.49	71.6067	1,000.49	73.1133	1,000.49	70.69	1,000.49	74.1836	1,000.49	74.2129	1,000.49	75.4406
1,035.64	83.9498	1,035.64	84.369	1,035.64	83.0212	1,035.64	84.1545	1,035.64	81.8252	1,035.64	83.245	1,035.64	80.8792	1,035.64	81.783	1,035.64	80.3193	1,035.64	80.2118	1,035.64	79.4109	1,035.64	78.927	1,035.64	78.0016	1,035.64	77.7155	1,035.64	76.8826	1,035.64	75.8424	1,035.64	75.9114	1,035.64	73.1664	1,035.64	74.8667	1,035.64	71.1013	1,035.64	74.5609	1,035.64	69.5548	1,035.64	74.511	1,035.64	67.7033	1,035.64	73.9588	1,035.64	69.0037	1,035.64	73.4787	1,035.64	71.7318	1,035.64	73.715	1,035.64	72.4733	1,035.64	71.9815	1,035.64	72.0851	1,035.64	67.9789	1,035.64	73.385	1,035.64	71.8698	1,035.64	74.2625
1,072.27	83.8073	1,072.27	84.1127	1,072.27	82.9467	1,072.27	83.8324	1,072.27	81.9046	1,072.27	82.9908	1,072.27	80.9877	1,072.27	81.594	1,072.27	80.0175	1,072.27	79.8878	1,072.27	78.9595	1,072.27	78.3948	1,072.27	77.9101	1,072.27	77.3009	1,072.27	76.861	1,072.27	76.1699	1,072.27	75.4567	1,072.27	74.8385	1,072.27	73.655	1,072.27	73.791	1,072.27	72.9653	1,072.27	72.8657	1,072.27	72.3722	1,072.27	71.0864	1,072.27	69.5689	1,072.27	69.2062	1,072.27	69.1656	1,072.27	70.3569	1,072.27	73.2282	1,072.27	71.5821	1,072.27	72.7226	1,072.27	71.3768	1,072.27	69.4191	1,072.27	72.6994	1,072.27	72.8601	1,072.27	74.3591
1,108.89	83.0901	1,108.89	83.8234	1,108.89	82.0982	1,108.89	84.0174	1,108.89	81.1094	1,108.89	83.4082	1,108.89	80.3205	1,108.89	81.9504	1,108.89	79.6789	1,108.89	80.0044	1,108.89	78.9647	1,108.89	78.1012	1,108.89	78.2617	1,108.89	76.4773	1,108.89	77.6919	1,108.89	75.0802	1,108.89	76.4268	1,108.89	73.6181	1,108.89	73.2675	1,108.89	72.1975	1,108.89	70.2837	1,108.89	70.7643	1,108.89	72.3169	1,108.89	69.468	1,108.89	73.7566	1,108.89	70.5057	1,108.89	73.9147	1,108.89	72.6124	1,108.89	73.6582	1,108.89	72.9077	1,108.89	71.223	1,108.89	70.9299	1,108.89	69.4121	1,108.89	71.326	1,108.89	72.4657	1,108.89	73.4471
1,148.44	82.7557	1,148.44	83.3109	1,148.44	81.647	1,148.44	83.1209	1,148.44	80.5063	1,148.44	82.2758	1,148.44	79.7841	1,148.44	81.1581	1,148.44	79.4404	1,148.44	80.1236	1,148.44	79.1516	1,148.44	78.6639	1,148.44	78.2487	1,148.44	75.7548	1,148.44	76.8354	1,148.44	72.1229	1,148.44	75.4413	1,148.44	71.304	1,148.44	73.7395	1,148.44	71.9972	1,148.44	72.1455	1,148.44	72.0921	1,148.44	71.087	1,148.44	71.0522	1,148.44	68.9527	1,148.44	69.7728	1,148.44	69.4235	1,148.44	70.3817	1,148.44	72.9315	1,148.44	71.6101	1,148.44	71.7891	1,148.44	71.8402	1,148.44	67.1901	1,148.44	72.4313	1,148.44	71.3909	1,148.44	73.2581
1,189.45	83.0104	1,189.45	83.6457	1,189.45	81.7717	1,189.45	83.4184	1,189.45	80.5396	1,189.45	82.458	1,189.45	79.8312	1,189.45	81.276	1,189.45	79.399	1,189.45	80.1734	1,189.45	78.9902	1,189.45	78.5142	1,189.45	78.4858	1,189.45	75.3569	1,189.45	77.7282	1,189.45	70.3669	1,189.45	76.3683	1,189.45	65.1113	1,189.45	73.6841	1,189.45	66.774	1,189.45	70.6229	1,189.45	70.2819	1,189.45	69.6643	1,189.45	70.8283	1,189.45	69.8774	1,189.45	70.4121	1,189.45	73.1311	1,189.45	72.4497	1,189.45	74.1886	1,189.45	73.8907	1,189.45	72.2917	1,189.45	72.3311	1,189.45	70.6242	1,189.45	70.1691	1,189.45	70.8164	1,189.45	71.3124
1,230.47	83.5518	1,230.47	84.1845	1,230.47	82.198	1,230.47	83.9518	1,230.47	80.6577	1,230.47	82.9858	1,230.47	79.8909	1,230.47	81.6246	1,230.47	80.0092	1,230.47	80.1092	1,230.47	79.9462	1,230.47	78.3558	1,230.47	79.2772	1,230.47	76.0754	1,230.47	78.3018	1,230.47	73.2035	1,230.47	77.0045	1,230.47	69.5561	1,230.47	75.009	1,230.47	65.7081	1,230.47	72.8566	1,230.47	66.2827	1,230.47	71.0995	1,230.47	69.4094	1,230.47	68.7586	1,230.47	71.8995	1,230.47	67.0484	1,230.47	73.0831	1,230.47	70.4192	1,230.47	72.7746	1,230.47	71.153	1,230.47	71.8537	1,230.47	68.3604	1,230.47	72.6301	1,230.47	71.1821	1,230.47	73.3808
1,274.41	84.1386	1,274.41	84.6384	1,274.41	82.792	1,274.41	84.1026	1,274.41	81.3698	1,274.41	82.8479	1,274.41	80.6953	1,274.41	81.5304	1,274.41	80.4288	1,274.41	80.3139	1,274.41	80.0581	1,274.41	78.6271	1,274.41	79.442	1,274.41	76.0036	1,274.41	78.4492	1,274.41	72.6669	1,274.41	76.7679	1,274.41	69.6619	1,274.41	74.1319	1,274.41	69.2611	1,274.41	72.5482	1,274.41	69.5756	1,274.41	72.2356	1,274.41	67.9719	1,274.41	69.8748	1,274.41	66.7033	1,274.41	71.481	1,274.41	69.8374	1,274.41	73.6231	1,274.41	72.071	1,274.41	72.1196	1,274.41	71.995	1,274.41	68.5954	1,274.41	71.5942	1,274.41	70.1688	1,274.41	71.8597
1,319.82	84.4962	1,319.82	84.9663	1,319.82	83.1801	1,319.82	84.4868	1,319.82	81.8855	1,319.82	83.4706	1,319.82	81.1624	1,319.82	82.2115	1,319.82	80.7015	1,319.82	80.6124	1,319.82	80.1218	1,319.82	78.5814	1,319.82	78.9295	1,319.82	76.2667	1,319.82	77.6468	1,319.82	74.1152	1,319.82	76.7385	1,319.82	70.5653	1,319.82	75.3395	1,319.82	64.6806	1,319.82	72.7921	1,319.82	67.0657	1,319.82	69.8307	1,319.82	68.4238	1,319.82	71.1848	1,319.82	68.7336	1,319.82	72.4778	1,319.82	72.3002	1,319.82	70.4882	1,319.82	73.6801	1,319.82	71.0169	1,319.82	71.9452	1,319.82	69.8475	1,319.82	72.2245	1,319.82	70.3816	1,319.82	73.1027
1,366.7	84.7996	1,366.7	85.0981	1,366.7	83.5871	1,366.7	84.6682	1,366.7	82.0573	1,366.7	83.9088	1,366.7	81.4245	1,366.7	82.775	1,366.7	81.2738	1,366.7	80.3807	1,366.7	80.6822	1,366.7	76.5796	1,366.7	79.317	1,366.7	74.8934	1,366.7	77.3609	1,366.7	76.4363	1,366.7	76.0001	1,366.7	75.5658	1,366.7	75.3203	1,366.7	70.0707	1,366.7	72.7782	1,366.7	66.438	1,366.7	68.6974	1,366.7	66.3426	1,366.7	69.6862	1,366.7	59.9168	1,366.7	68.3997	1,366.7	67.7316	1,366.7	71.1701	1,366.7	73.4684	1,366.7	74.1133	1,366.7	72.9142	1,366.7	72.2179	1,366.7	69.027	1,366.7	71.4388	1,366.7	72.2199
1,413.57	84.389	1,413.57	85.0639	1,413.57	83.3471	1,413.57	84.7975	1,413.57	82.303	1,413.57	83.6785	1,413.57	81.1243	1,413.57	81.7253	1,413.57	80.4943	1,413.57	79.1948	1,413.57	80.1482	1,413.57	76.9958	1,413.57	79.2869	1,413.57	76.3988	1,413.57	78.1251	1,413.57	75.7599	1,413.57	76.9943	1,413.57	74.3947	1,413.57	76.564	1,413.57	70.3915	1,413.57	75.832	1,413.57	67.2767	1,413.57	72.3843	1,413.57	68.9222	1,413.57	66.0997	1,413.57	66.9734	1,413.57	70.105	1,413.57	65.3601	1,413.57	71.463	1,413.57	72.2164	1,413.57	68.9904	1,413.57	72.4752	1,413.57	69.8361	1,413.57	68.765	1,413.57	70.271	1,413.57	70.1792
1,463.38	83.848	1,463.38	84.2314	1,463.38	82.9942	1,463.38	84.5508	1,463.38	81.6463	1,463.38	84.1083	1,463.38	81.2558	1,463.38	81.741	1,463.38	80.8956	1,463.38	77.6419	1,463.38	79.7376	1,463.38	75.4809	1,463.38	78.3252	1,463.38	75.2514	1,463.38	77.4403	1,463.38	72.7965	1,463.38	75.8922	1,463.38	68.1179	1,463.38	73.6889	1,463.38	65.839	1,463.38	74.1383	1,463.38	68.4796	1,463.38	74.0984	1,463.38	70.4747	1,463.38	72.6755	1,463.38	70.5578	1,463.38	71.6384	1,463.38	66.9636	1,463.38	70.0889	1,463.38	71.2526	1,463.38	68.7339	1,463.38	73.2017	1,463.38	65.0907	1,463.38	69.7022	1,463.38	68.5344	1,463.38	68.3451
1,516.11	83.039	1,516.11	83.9061	1,516.11	81.6077	1,516.11	83.7378	1,516.11	81.2475	1,516.11	82.7827	1,516.11	80.9737	1,516.11	80.9435	1,516.11	80.5684	1,516.11	79.0421	1,516.11	79.561	1,516.11	77.5589	1,516.11	77.7367	1,516.11	74.6009	1,516.11	77.3795	1,516.11	68.3124	1,516.11	75.6245	1,516.11	57.7014	1,516.11	71.2654	1,516.11	60.2257	1,516.11	71.6614	1,516.11	66.2823	1,516.11	72.6869	1,516.11	70.4374	1,516.11	72.9748	1,516.11	70.2958	1,516.11	71.0572	1,516.11	63.8566	1,516.11	68.7784	1,516.11	67.1941	1,516.11	69.8835	1,516.11	71.3301	1,516.11	65.357	1,516.11	69.9901	1,516.11	67.5624	1,516.11	69.681
1,568.85	82.4434	1,568.85	82.8088	1,568.85	81.8768	1,568.85	83.1075	1,568.85	80.3228	1,568.85	82.5443	1,568.85	79.4587	1,568.85	80.8379	1,568.85	80.4862	1,568.85	79.168	1,568.85	80.0119	1,568.85	76.732	1,568.85	78.6583	1,568.85	72.1212	1,568.85	77.365	1,568.85	68.1982	1,568.85	75.9588	1,568.85	67.9106	1,568.85	73.7041	1,568.85	65.1335	1,568.85	71.4801	1,568.85	53.1404	1,568.85	69.4488	1,568.85	62.6909	1,568.85	70.3669	1,568.85	69.6384	1,568.85	68.3559	1,568.85	68.1457	1,568.85	71.0667	1,568.85	69.7562	1,568.85	71.5956	1,568.85	71.8123	1,568.85	64.3601	1,568.85	67.3765	1,568.85	68.5067	1,568.85	66.7067
1,624.51	83.2882	1,624.51	83.1448	1,624.51	82.1522	1,624.51	82.1173	1,624.51	80.3276	1,624.51	80.787	1,624.51	79.1141	1,624.51	79.6045	1,624.51	79.4477	1,624.51	78.8154	1,624.51	79.1471	1,624.51	76.6056	1,624.51	77.8831	1,624.51	71.9644	1,624.51	77.0127	1,624.51	67.2931	1,624.51	75.9012	1,624.51	60.0528	1,624.51	72.1686	1,624.51	62.0373	1,624.51	71.4739	1,624.51	62.5062	1,624.51	72.6553	1,624.51	57.8581	1,624.51	69.2906	1,624.51	65.213	1,624.51	70.2558	1,624.51	67.1694	1,624.51	70.3071	1,624.51	66.1396	1,624.51	64.5124	1,624.51	68.91	1,624.51	67.8644	1,624.51	65.8173	1,624.51	65.6203	1,624.51	60.5075
1,681.64	83.6897	1,681.64	83.1981	1,681.64	83.1657	1,681.64	82.605	1,681.64	80.0952	1,681.64	80.9431	1,681.64	79.0319	1,681.64	78.376	1,681.64	80.1238	1,681.64	77.3357	1,681.64	78.9875	1,681.64	76.5506	1,681.64	77.119	1,681.64	70.7427	1,681.64	75.6906	1,681.64	68.543	1,681.64	74.1948	1,681.64	68.0855	1,681.64	72.4236	1,681.64	64.1775	1,681.64	71.3405	1,681.64	67.4689	1,681.64	70.5551	1,681.64	64.2376	1,681.64	70.5383	1,681.64	51.5953	1,681.64	72.1366	1,681.64	64.056	1,681.64	70.1029	1,681.64	65.7291	1,681.64	64.8501	1,681.64	66.6955	1,681.64	65.1068	1,681.64	66.055	1,681.64	63.715	1,681.64	60.8564
1,741.7	84.2957	1,741.7	83.7447	1,741.7	82.8568	1,741.7	82.2064	1,741.7	80.6247	1,741.7	80.7735	1,741.7	78.7622	1,741.7	80.0587	1,741.7	79.4496	1,741.7	77.3747	1,741.7	80.2511	1,741.7	70.0048	1,741.7	78.235	1,741.7	67.596	1,741.7	76.1192	1,741.7	66.2154	1,741.7	74.5523	1,741.7	61.5865	1,741.7	71.2242	1,741.7	62.3233	1,741.7	68.9323	1,741.7	61.2846	1,741.7	67.9859	1,741.7	57.8752	1,741.7	73.3648	1,741.7	51.9772	1,741.7	72.8797	1,741.7	59.9584	1,741.7	70.7394	1,741.7	66.8447	1,741.7	68.0658	1,741.7	67.896	1,741.7	63.6175	1,741.7	66.4797	1,741.7	68.6183	1,741.7	68.2456
1,803.22	83.9018	1,803.22	83.8563	1,803.22	82.6192	1,803.22	83.055	1,803.22	80.6405	1,803.22	82.0719	1,803.22	80.1735	1,803.22	79.7954	1,803.22	81.3543	1,803.22	76.2811	1,803.22	81.1502	1,803.22	71.6491	1,803.22	79.6786	1,803.22	67.7548	1,803.22	78.5251	1,803.22	64.9968	1,803.22	76.4545	1,803.22	69.028	1,803.22	75.1024	1,803.22	66.1404	1,803.22	72.4319	1,803.22	59.0201	1,803.22	69.8587	1,803.22	68.645	1,803.22	69.867	1,803.22	64.3404	1,803.22	72.7386	1,803.22	65.2608	1,803.22	72.5709	1,803.22	67.8797	1,803.22	71.1208	1,803.22	70.2329	1,803.22	68.6966	1,803.22	68.4344	1,803.22	67.0093	1,803.22	64.993
1,866.21	83.4114	1,866.21	83.3665	1,866.21	82.4085	1,866.21	84.0039	1,866.21	80.6326	1,866.21	83.1611	1,866.21	80.2756	1,866.21	79.1162	1,866.21	82.5567	1,866.21	76.6166	1,866.21	82.8344	1,866.21	75.6804	1,866.21	81.4065	1,866.21	71.0908	1,866.21	78.5914	1,866.21	67.7075	1,866.21	76.5453	1,866.21	67.7826	1,866.21	75.8296	1,866.21	71.2463	1,866.21	74.6744	1,866.21	63.0184	1,866.21	71.7948	1,866.21	69.2709	1,866.21	70.8177	1,866.21	70.7807	1,866.21	73.1738	1,866.21	65.2285	1,866.21	73.7131	1,866.21	68.2708	1,866.21	70.6927	1,866.21	67.5829	1,866.21	68.7789	1,866.21	65.4141	1,866.21	69.58	1,866.21	66.125
1,932.13	82.7249	1,932.13	83.7095	1,932.13	81.705	1,932.13	84.768	1,932.13	78.6252	1,932.13	82.4231	1,932.13	77.2133	1,932.13	78.2541	1,932.13	80.9314	1,932.13	77.6417	1,932.13	82.5676	1,932.13	75.4463	1,932.13	81.9719	1,932.13	72.4248	1,932.13	80.4065	1,932.13	73.4662	1,932.13	75.9864	1,932.13	69.3567	1,932.13	74.8055	1,932.13	65.2884	1,932.13	73.7938	1,932.13	68.7183	1,932.13	72.9369	1,932.13	67.7414	1,932.13	68.9377	1,932.13	69.9347	1,932.13	74.0396	1,932.13	68.193	1,932.13	74.0037	1,932.13	68.8125	1,932.13	72.002	1,932.13	69.221	1,932.13	69.0745	1,932.13	65.4709	1,932.13	71.1428	1,932.13	65.421
1,999.51	83.6387	1,999.51	83.8118	1,999.51	82.8146	1,999.51	82.9788	1,999.51	78.7218	1,999.51	80.6684	1,999.51	76.3119	1,999.51	78.2949	1,999.51	80.6379	1,999.51	77.5914	1,999.51	83.4872	1,999.51	76.3079	1,999.51	82.8848	1,999.51	75.5913	1,999.51	80.1839	1,999.51	75.2537	1,999.51	76.4572	1,999.51	72.3099	1,999.51	73.1367	1,999.51	71.5052	1,999.51	74.0796	1,999.51	69.5982	1,999.51	73.4303	1,999.51	65.2771	1,999.51	71.487	1,999.51	72.1835	1,999.51	72.5278	1,999.51	70.4331	1,999.51	72.7922	1,999.51	69.7855	1,999.51	74.1211	1,999.51	71.6408	1,999.51	68.7755	1,999.51	68.1568	1,999.51	72.3845	1,999.51	64.6639
2,069.82	84.1829	2,069.82	83.909	2,069.82	82.9629	2,069.82	79.8012	2,069.82	79.277	2,069.82	77.3012	2,069.82	76.5497	2,069.82	78.2374	2,069.82	79.8251	2,069.82	76.9559	2,069.82	82.8546	2,069.82	76.5685	2,069.82	83.0538	2,069.82	76.2674	2,069.82	80.5827	2,069.82	71.6382	2,069.82	78.7769	2,069.82	66.9992	2,069.82	73.5662	2,069.82	67.125	2,069.82	72.4888	2,069.82	71.5742	2,069.82	71.7563	2,069.82	69.3844	2,069.82	72.5757	2,069.82	68.4357	2,069.82	71.5917	2,069.82	71.0733	2,069.82	70.0181	2,069.82	67.2418	2,069.82	71.7679	2,069.82	70.1359	2,069.82	67.1415	2,069.82	66.4537	2,069.82	70.9099	2,069.82	62.6561
2,143.07	84.1472	2,143.07	83.7257	2,143.07	82.8227	2,143.07	79.8914	2,143.07	79.9799	2,143.07	74.7988	2,143.07	77.3867	2,143.07	77.6465	2,143.07	80.8068	2,143.07	76.633	2,143.07	82.0365	2,143.07	76.0057	2,143.07	82.4564	2,143.07	75.8838	2,143.07	79.9591	2,143.07	75.5411	2,143.07	76.7629	2,143.07	75.0482	2,143.07	74.9102	2,143.07	71.012	2,143.07	65.8235	2,143.07	67.1358	2,143.07	71.1518	2,143.07	71.9521	2,143.07	71.5251	2,143.07	68.439	2,143.07	70.5401	2,143.07	71.1786	2,143.07	69.2361	2,143.07	67.6937	2,143.07	70.2892	2,143.07	68.8484	2,143.07	66.1081	2,143.07	62.5495	2,143.07	68.781	2,143.07	58.6806
2,219.24	83.5721	2,219.24	83.2679	2,219.24	81.5926	2,219.24	79.57	2,219.24	78.6691	2,219.24	69.8159	2,219.24	74.7994	2,219.24	77.0627	2,219.24	80.8832	2,219.24	76.7705	2,219.24	82.1058	2,219.24	77.4485	2,219.24	81.5923	2,219.24	75.8926	2,219.24	79.9509	2,219.24	73.2125	2,219.24	76.7934	2,219.24	71.7918	2,219.24	76.1043	2,219.24	71.2852	2,219.24	66.6074	2,219.24	68.6544	2,219.24	68.3331	2,219.24	70.1893	2,219.24	72.652	2,219.24	70.2712	2,219.24	67.0365	2,219.24	70.1934	2,219.24	69.864	2,219.24	67.2328	2,219.24	64.3199	2,219.24	68.97	2,219.24	68.3303	2,219.24	49.9157	2,219.24	68.9116	2,219.24	65.3224
2,296.88	82.3754	2,296.88	82.1082	2,296.88	79.7269	2,296.88	77.778	2,296.88	75.1911	2,296.88	63.8633	2,296.88	69.0376	2,296.88	75.2143	2,296.88	80.1309	2,296.88	78.5466	2,296.88	82.7247	2,296.88	78.3021	2,296.88	81.5587	2,296.88	77.2197	2,296.88	79.7594	2,296.88	77.5911	2,296.88	76.1764	2,296.88	73.2648	2,296.88	75.0275	2,296.88	72.4747	2,296.88	70.4271	2,296.88	69.6585	2,296.88	61.2055	2,296.88	69.6041	2,296.88	70.1771	2,296.88	69.8894	2,296.88	70.5963	2,296.88	70.3664	2,296.88	67.1014	2,296.88	68.3819	2,296.88	63.4333	2,296.88	65.0373	2,296.88	66.9552	2,296.88	51.5631	2,296.88	68.9881	2,296.88	67.273
2,378.91	82.7213	2,378.91	81.2475	2,378.91	79.246	2,378.91	72.4925	2,378.91	72.4003	2,378.91	67.7149	2,378.91	64.778	2,378.91	76.2759	2,378.91	79.0007	2,378.91	79.006	2,378.91	82.639	2,378.91	78.7499	2,378.91	81.3674	2,378.91	76.1691	2,378.91	78.8356	2,378.91	74.0593	2,378.91	74.6101	2,378.91	73.4919	2,378.91	70.5017	2,378.91	69.6552	2,378.91	70.9738	2,378.91	70.4238	2,378.91	63.4885	2,378.91	64.6634	2,378.91	68.2908	2,378.91	69.0199	2,378.91	72.0814	2,378.91	69.3555	2,378.91	68.1796	2,378.91	68.2346	2,378.91	62.6504	2,378.91	64.3726	2,378.91	62.3846	2,378.91	55.8751	2,378.91	67.4169	2,378.91	66.5341
2,462.4	83.7332	2,462.4	81.5622	2,462.4	81.0012	2,462.4	72.2459	2,462.4	72.5422	2,462.4	72.962	2,462.4	60.2078	2,462.4	78.0729	2,462.4	76.9524	2,462.4	79.0589	2,462.4	82.0559	2,462.4	78.0025	2,462.4	81.7581	2,462.4	76.2744	2,462.4	78.5688	2,462.4	75.6562	2,462.4	77.1781	2,462.4	72.7653	2,462.4	73.7082	2,462.4	69.6307	2,462.4	69.398	2,462.4	69.0897	2,462.4	59.2333	2,462.4	68.1285	2,462.4	70.5502	2,462.4	67.4819	2,462.4	70.3704	2,462.4	69.3855	2,462.4	69.2771	2,462.4	67.115	2,462.4	61.2564	2,462.4	66.3524	2,462.4	62.4971	2,462.4	53.1469	2,462.4	68.0728	2,462.4	66.5434
2,548.83	83.2495	2,548.83	81.7477	2,548.83	81.3533	2,548.83	73.2075	2,548.83	75.7033	2,548.83	76.2626	2,548.83	53.3363	2,548.83	78.6578	2,548.83	76.1914	2,548.83	78.4258	2,548.83	80.6932	2,548.83	78.2364	2,548.83	81.5358	2,548.83	77.1917	2,548.83	80.0374	2,548.83	74.5631	2,548.83	77.2465	2,548.83	72.6836	2,548.83	71.7776	2,548.83	70.6536	2,548.83	69.815	2,548.83	69.71	2,548.83	70.7448	2,548.83	67.8904	2,548.83	68.3346	2,548.83	66.7006	2,548.83	70.5921	2,548.83	68.9622	2,548.83	69.7022	2,548.83	67.931	2,548.83	60.6022	2,548.83	66.8131	2,548.83	64.6205	2,548.83	58.7333	2,548.83	69.9018	2,548.83	66.8353
2,639.65	81.7591	2,639.65	80.1259	2,639.65	80.0353	2,639.65	73.31	2,639.65	76.1711	2,639.65	78.1863	2,639.65	65.6416	2,639.65	79.1258	2,639.65	75.4989	2,639.65	80.0102	2,639.65	80.6828	2,639.65	78.5251	2,639.65	81.5981	2,639.65	77.9546	2,639.65	80.0166	2,639.65	74.878	2,639.65	75.6644	2,639.65	71.4081	2,639.65	69.1708	2,639.65	68.9258	2,639.65	63.8938	2,639.65	67.1409	2,639.65	72.3483	2,639.65	66.3257	2,639.65	66.7237	2,639.65	65.8575	2,639.65	70.1789	2,639.65	67.9229	2,639.65	65.9914	2,639.65	66.5565	2,639.65	63.8837	2,639.65	67.6019	2,639.65	65.3845	2,639.65	55.2711	2,639.65	68.9138	2,639.65	66.5132
2,731.93	81.3392	2,731.93	77.3887	2,731.93	78.3726	2,731.93	74.9182	2,731.93	74.0347	2,731.93	76.9731	2,731.93	70.3847	2,731.93	79.8195	2,731.93	75.2581	2,731.93	79.7255	2,731.93	80.6364	2,731.93	78.2279	2,731.93	82.4431	2,731.93	75.61	2,731.93	80.2712	2,731.93	74.0718	2,731.93	77.0483	2,731.93	73.1053	2,731.93	71.2688	2,731.93	68.9733	2,731.93	69.919	2,731.93	67.3996	2,731.93	67.8601	2,731.93	66.8153	2,731.93	69.7948	2,731.93	66.4746	2,731.93	69.6557	2,731.93	66.5774	2,731.93	65.8851	2,731.93	67.2994	2,731.93	54.7644	2,731.93	64.0522	2,731.93	66.0722	2,731.93	59.011	2,731.93	67.8378	2,731.93	65.2299
2,828.61	80.6527	2,828.61	77.7575	2,828.61	79.4659	2,828.61	76.2297	2,828.61	72.4122	2,828.61	77.2097	2,828.61	73.1226	2,828.61	79.8873	2,828.61	74.8818	2,828.61	80.4876	2,828.61	80.9308	2,828.61	78.3926	2,828.61	82.0006	2,828.61	75.588	2,828.61	79.4559	2,828.61	74.1411	2,828.61	74.6468	2,828.61	73.4897	2,828.61	72.9646	2,828.61	70.7669	2,828.61	72.6033	2,828.61	67.8102	2,828.61	71.8083	2,828.61	67.3064	2,828.61	67.8694	2,828.61	66.3073	2,828.61	70.272	2,828.61	64.9998	2,828.61	67.3462	2,828.61	67.9985	2,828.61	38.1066	2,828.61	60.5153	2,828.61	65.787	2,828.61	55.7601	2,828.61	65.721	2,828.61	65.4724
2,928.22	80.5653	2,928.22	79.7449	2,928.22	80.3395	2,928.22	78.2051	2,928.22	74.3956	2,928.22	78.6613	2,928.22	74.8324	2,928.22	80.6392	2,928.22	76.0035	2,928.22	80.6795	2,928.22	80.8608	2,928.22	78.2478	2,928.22	81.6795	2,928.22	76.9684	2,928.22	80.0175	2,928.22	74.3871	2,928.22	75.4354	2,928.22	70.9921	2,928.22	76.0526	2,928.22	68.7564	2,928.22	73.3899	2,928.22	66.0184	2,928.22	70.4971	2,928.22	66.177	2,928.22	66.017	2,928.22	65.3166	2,928.22	70.9642	2,928.22	66.8213	2,928.22	64.8439	2,928.22	67.664	2,928.22	53.9971	2,928.22	62.8871	2,928.22	66.6663	2,928.22	60.0463	2,928.22	66.7665	2,928.22	65.6205
3,030.76	80.7319	3,030.76	80.3585	3,030.76	80.5215	3,030.76	78.2187	3,030.76	76.626	3,030.76	80.052	3,030.76	75.3223	3,030.76	81.0073	3,030.76	78.0668	3,030.76	80.0556	3,030.76	79.5165	3,030.76	79.3333	3,030.76	82.366	3,030.76	76.3353	3,030.76	80.6409	3,030.76	73.6735	3,030.76	76.6755	3,030.76	73.8952	3,030.76	76.3994	3,030.76	70.4311	3,030.76	73.1979	3,030.76	68.1922	3,030.76	67.2006	3,030.76	67.3579	3,030.76	66.9913	3,030.76	64.8516	3,030.76	69.9535	3,030.76	65.7985	3,030.76	67.1456	3,030.76	67.8238	3,030.76	58.3281	3,030.76	63.6256	3,030.76	66.7679	3,030.76	59.5769	3,030.76	64.8944	3,030.76	66.0725
3,137.7	80.2638	3,137.7	79.8047	3,137.7	80.1956	3,137.7	78.2105	3,137.7	78.2345	3,137.7	80.6825	3,137.7	76.5404	3,137.7	81.3352	3,137.7	78.6993	3,137.7	80.7433	3,137.7	79.3004	3,137.7	78.6772	3,137.7	82.3104	3,137.7	76.1381	3,137.7	80.7575	3,137.7	74.7637	3,137.7	77.8437	3,137.7	71.0117	3,137.7	74.3629	3,137.7	66.5405	3,137.7	68.9746	3,137.7	63.2784	3,137.7	67.268	3,137.7	64.5625	3,137.7	66.087	3,137.7	60.5925	3,137.7	70.3185	3,137.7	64.8283	3,137.7	65.3409	3,137.7	65.0342	3,137.7	56.1417	3,137.7	63.0084	3,137.7	66.0703	3,137.7	58.7268	3,137.7	65.4465	3,137.7	66.0633
3,249.02	80.5369	3,249.02	79.6109	3,249.02	79.8592	3,249.02	78.2246	3,249.02	79.0351	3,249.02	81.0254	3,249.02	78.7199	3,249.02	81.5372	3,249.02	78.2351	3,249.02	80.4981	3,249.02	79.1796	3,249.02	78.313	3,249.02	82.1333	3,249.02	76.156	3,249.02	79.6029	3,249.02	70.0271	3,249.02	76.4946	3,249.02	69.3599	3,249.02	72.1181	3,249.02	67.8078	3,249.02	66.0073	3,249.02	65.1828	3,249.02	65.1312	3,249.02	64.571	3,249.02	68.1581	3,249.02	61.4897	3,249.02	67.5032	3,249.02	63.2831	3,249.02	62.1889	3,249.02	63.4743	3,249.02	58.2194	3,249.02	59.6719	3,249.02	66.1652	3,249.02	55.8368	3,249.02	64.2925	3,249.02	64.888
3,363.28	80.8822	3,363.28	79.9004	3,363.28	79.7695	3,363.28	78.7077	3,363.28	78.9026	3,363.28	80.2563	3,363.28	79.5894	3,363.28	81.4976	3,363.28	79.1283	3,363.28	80.1194	3,363.28	78.9212	3,363.28	76.0766	3,363.28	81.6157	3,363.28	71.6528	3,363.28	77.836	3,363.28	73.0129	3,363.28	75.9469	3,363.28	72.2118	3,363.28	67.5497	3,363.28	67.7643	3,363.28	54.7197	3,363.28	64.9324	3,363.28	64.2695	3,363.28	64.882	3,363.28	69.0938	3,363.28	62.5006	3,363.28	65.3434	3,363.28	62.3376	3,363.28	62.1016	3,363.28	62.3104	3,363.28	62.2638	3,363.28	59.6978	3,363.28	66.2037	3,363.28	49.1395	3,363.28	64.726	3,363.28	63.3715
3,481.93	81.5363	3,481.93	80.4513	3,481.93	79.9668	3,481.93	80.5099	3,481.93	79.9292	3,481.93	81.2494	3,481.93	80.1347	3,481.93	81.6791	3,481.93	79.8007	3,481.93	79.1322	3,481.93	77.2997	3,481.93	75.8264	3,481.93	79.9451	3,481.93	73.8114	3,481.93	77.6284	3,481.93	71.7477	3,481.93	75.3348	3,481.93	69.3155	3,481.93	58.5234	3,481.93	69.5014	3,481.93	63.9289	3,481.93	67.0559	3,481.93	61.5512	3,481.93	66.5336	3,481.93	64.9929	3,481.93	65.7245	3,481.93	62.5587	3,481.93	65.408	3,481.93	61.6762	3,481.93	63.7053	3,481.93	62.8029	3,481.93	61.4528	3,481.93	66.1105	3,481.93	47.9402	3,481.93	63.2097	3,481.93	63.9376
3,604.98	82.2543	3,604.98	80.7677	3,604.98	79.7119	3,604.98	80.7212	3,604.98	79.9848	3,604.98	81.9612	3,604.98	81.4182	3,604.98	81.0176	3,604.98	80.7015	3,604.98	78.0825	3,604.98	75.8254	3,604.98	76.8631	3,604.98	78.5749	3,604.98	74.5175	3,604.98	78.4814	3,604.98	72.3864	3,604.98	70.7666	3,604.98	73.1491	3,604.98	71.517	3,604.98	67.963	3,604.98	65.5831	3,604.98	66.8018	3,604.98	46.2045	3,604.98	65.5406	3,604.98	62.687	3,604.98	66.172	3,604.98	66.1981	3,604.98	66.3922	3,604.98	63.6311	3,604.98	64.617	3,604.98	64.8931	3,604.98	63.8114	3,604.98	66.2039	3,604.98	46.6339	3,604.98	64.6055	3,604.98	64.3771
3,732.42	82.7557	3,732.42	81.3525	3,732.42	81.8964	3,732.42	81.013	3,732.42	79.6763	3,732.42	82.1605	3,732.42	81.4021	3,732.42	81.1653	3,732.42	80.6943	3,732.42	78.4559	3,732.42	75.7843	3,732.42	76.4136	3,732.42	77.6765	3,732.42	76.3661	3,732.42	79.3892	3,732.42	74.6009	3,732.42	73.7063	3,732.42	70.7739	3,732.42	73.5128	3,732.42	68.7366	3,732.42	68.5231	3,732.42	67.7687	3,732.42	57.7613	3,732.42	65.1019	3,732.42	64.2062	3,732.42	65.3665	3,732.42	66.9514	3,732.42	65.1393	3,732.42	63.2136	3,732.42	65.5309	3,732.42	65.6117	3,732.42	63.1372	3,732.42	66.0883	3,732.42	49.9816	3,732.42	66.6567	3,732.42	64.0262
3,864.26	82.7548	3,864.26	81.3032	3,864.26	82.0822	3,864.26	81.6654	3,864.26	81.5803	3,864.26	82.005	3,864.26	82.3247	3,864.26	80.9813	3,864.26	81.1691	3,864.26	79.3341	3,864.26	75.5083	3,864.26	78.8588	3,864.26	76.2716	3,864.26	75.8051	3,864.26	79.3778	3,864.26	72.5318	3,864.26	75.5844	3,864.26	73.6317	3,864.26	71.1741	3,864.26	68.132	3,864.26	69.7692	3,864.26	64.5209	3,864.26	63.7798	3,864.26	62.6279	3,864.26	66.7334	3,864.26	65.6343	3,864.26	64.7171	3,864.26	64.6056	3,864.26	62.7801	3,864.26	65.8614	3,864.26	64.8736	3,864.26	63.8879	3,864.26	66.4642	3,864.26	44.2285	3,864.26	67.1027	3,864.26	61.7056
4,000.49	83.2106	4,000.49	81.8261	4,000.49	81.2643	4,000.49	81.6918	4,000.49	81.6214	4,000.49	82.1827	4,000.49	83.0629	4,000.49	80.5454	4,000.49	81.9952	4,000.49	79.7866	4,000.49	75.3179	4,000.49	78.8408	4,000.49	77.0017	4,000.49	76.1562	4,000.49	78.7636	4,000.49	74.3939	4,000.49	76.8639	4,000.49	72.3033	4,000.49	73.4381	4,000.49	69.657	4,000.49	68.1739	4,000.49	65.7411	4,000.49	66.7925	4,000.49	64.8516	4,000.49	63.4082	4,000.49	65.2532	4,000.49	63.6149	4,000.49	64.2732	4,000.49	60.273	4,000.49	66.5898	4,000.49	62.6444	4,000.49	63.6508	4,000.49	62.2986	4,000.49	51.0559	4,000.49	66.7747	4,000.49	60.8052
4,141.11	83.7149	4,141.11	82.3234	4,141.11	82.7542	4,141.11	82.5682	4,141.11	81.0009	4,141.11	82.0169	4,141.11	83.2518	4,141.11	81.2236	4,141.11	81.5671	4,141.11	80.2616	4,141.11	75.2716	4,141.11	77.1581	4,141.11	74.3661	4,141.11	76.1321	4,141.11	78.8516	4,141.11	71.4271	4,141.11	78.6437	4,141.11	71.7227	4,141.11	75.4878	4,141.11	68.5065	4,141.11	68.3078	4,141.11	66.009	4,141.11	57.7248	4,141.11	63.6513	4,141.11	64.1674	4,141.11	65.2839	4,141.11	65.413	4,141.11	64.2184	4,141.11	60.5248	4,141.11	66.5364	4,141.11	63.3875	4,141.11	65.0606	4,141.11	62.737	4,141.11	55.9731	4,141.11	64.3221	4,141.11	61.7226
4,287.6	84.0246	4,287.6	82.9304	4,287.6	82.9374	4,287.6	82.3485	4,287.6	81.25	4,287.6	81.5859	4,287.6	82.6675	4,287.6	81.4115	4,287.6	82.2941	4,287.6	80.1001	4,287.6	77.5454	4,287.6	77.5173	4,287.6	74.5098	4,287.6	74.7342	4,287.6	80.2528	4,287.6	75.1227	4,287.6	79.6031	4,287.6	69.3811	4,287.6	76.4967	4,287.6	68.061	4,287.6	55.5931	4,287.6	63.8816	4,287.6	52.7743	4,287.6	63.6505	4,287.6	58.9772	4,287.6	64.6128	4,287.6	66.8617	4,287.6	61.5493	4,287.6	60.5387	4,287.6	66.7486	4,287.6	65.6981	4,287.6	67.6158	4,287.6	63.6779	4,287.6	54.2879	4,287.6	60.6679	4,287.6	59.9371
4,438.48	84.056	4,438.48	82.5608	4,438.48	83.1926	4,438.48	82.2679	4,438.48	82.2581	4,438.48	82.2178	4,438.48	82.2328	4,438.48	81.9026	4,438.48	82.0595	4,438.48	79.2543	4,438.48	76.3696	4,438.48	77.9511	4,438.48	77.0561	4,438.48	76.48	4,438.48	81.2626	4,438.48	72.3675	4,438.48	78.462	4,438.48	74.0674	4,438.48	70.7754	4,438.48	70.0251	4,438.48	58.6471	4,438.48	63.9188	4,438.48	63.1537	4,438.48	63.3959	4,438.48	55.8956	4,438.48	64.7743	4,438.48	65.2394	4,438.48	63.8194	4,438.48	61.6131	4,438.48	65.7455	4,438.48	65.5443	4,438.48	66.6352	4,438.48	61.1905	4,438.48	60.3253	4,438.48	62.2933	4,438.48	57.1689
4,595.21	83.695	4,595.21	82.2118	4,595.21	82.5956	4,595.21	81.279	4,595.21	82.3951	4,595.21	81.5292	4,595.21	82.9621	4,595.21	81.1401	4,595.21	82.0228	4,595.21	79.4743	4,595.21	78.3392	4,595.21	77.5372	4,595.21	79.0723	4,595.21	75.5191	4,595.21	80.4395	4,595.21	74.3411	4,595.21	76.3037	4,595.21	68.0019	4,595.21	68.9019	4,595.21	69.3645	4,595.21	66.9364	4,595.21	63.7662	4,595.21	60.2517	4,595.21	64.581	4,595.21	56.8002	4,595.21	64.296	4,595.21	62.2557	4,595.21	62.8141	4,595.21	58.9817	4,595.21	65.11	4,595.21	62.7682	4,595.21	64.9775	4,595.21	60.1025	4,595.21	60.8308	4,595.21	63.0834	4,595.21	58.4635
4,756.35	84.2429	4,756.35	82.4368	4,756.35	82.728	4,756.35	82.3371	4,756.35	81.5994	4,756.35	82.8419	4,756.35	83.1965	4,756.35	80.7134	4,756.35	80.8924	4,756.35	79.7845	4,756.35	77.2203	4,756.35	77.4174	4,756.35	78.7796	4,756.35	75.0968	4,756.35	78.2326	4,756.35	73.2534	4,756.35	74.1366	4,756.35	72.0912	4,756.35	70.7605	4,756.35	67.9689	4,756.35	68.9237	4,756.35	63.4604	4,756.35	53.8159	4,756.35	62.345	4,756.35	53.3719	4,756.35	61.2628	4,756.35	56.3624	4,756.35	62.9358	4,756.35	62.0629	4,756.35	65.8029	4,756.35	64.3985	4,756.35	66.3298	4,756.35	57.8647	4,756.35	61.7912	4,756.35	62.8252	4,756.35	57.3255
4,924.8	83.9818	4,924.8	81.5933	4,924.8	83.6841	4,924.8	81.6809	4,924.8	80.8098	4,924.8	81.6103	4,924.8	81.4497	4,924.8	80.5993	4,924.8	81.3241	4,924.8	79.4959	4,924.8	78.1959	4,924.8	77.3823	4,924.8	77.4779	4,924.8	75.345	4,924.8	75.9179	4,924.8	72.5936	4,924.8	72.2725	4,924.8	68.3805	4,924.8	67.3536	4,924.8	68.1709	4,924.8	66.536	4,924.8	60.8342	4,924.8	61.593	4,924.8	61.7703	4,924.8	56.8866	4,924.8	59.4275	4,924.8	50.8706	4,924.8	62.2649	4,924.8	61.521	4,924.8	64.643	4,924.8	64.6633	4,924.8	65.5406	4,924.8	54.7593	4,924.8	62.4579	4,924.8	59.9207	4,924.8	56.0145
5,097.66	83.4299	5,097.66	80.9326	5,097.66	82.9807	5,097.66	82.6283	5,097.66	82.7355	5,097.66	81.3597	5,097.66	80.4059	5,097.66	80.6594	5,097.66	82.2025	5,097.66	79.271	5,097.66	79.3795	5,097.66	77.3022	5,097.66	73.9743	5,097.66	73.184	5,097.66	72.633	5,097.66	73.2167	5,097.66	72.4441	5,097.66	69.9548	5,097.66	63.9137	5,097.66	67.9791	5,097.66	64.4918	5,097.66	62.663	5,097.66	61.2869	5,097.66	61.875	5,097.66	57.9593	5,097.66	59.944	5,097.66	45.3841	5,097.66	60.3932	5,097.66	58.0741	5,097.66	63.3203	5,097.66	63.9442	5,097.66	65.8462	5,097.66	55.8023	5,097.66	62.9402	5,097.66	59.5533	5,097.66	59.2508
5,277.83	83.3774	5,277.83	80.8988	5,277.83	82.2865	5,277.83	81.9084	5,277.83	82.5427	5,277.83	80.5775	5,277.83	81.472	5,277.83	80.5836	5,277.83	81.6082	5,277.83	79.5307	5,277.83	80.4749	5,277.83	75.9878	5,277.83	69.665	5,277.83	74.5833	5,277.83	73.2909	5,277.83	71.6473	5,277.83	72.0453	5,277.83	69.3848	5,277.83	68.8945	5,277.83	65.8804	5,277.83	59.9325	5,277.83	61.7394	5,277.83	59.7806	5,277.83	60.7737	5,277.83	56.2423	5,277.83	60.7028	5,277.83	54.9524	5,277.83	61.4419	5,277.83	47.5129	5,277.83	62.7181	5,277.83	61.5949	5,277.83	65.9941	5,277.83	56.5103	5,277.83	61.2551	5,277.83	58.0831	5,277.83	56.391
5,463.87	82.7818	5,463.87	80.8779	5,463.87	82.0311	5,463.87	81.8607	5,463.87	81.5144	5,463.87	80.1912	5,463.87	81.7731	5,463.87	80.6863	5,463.87	80.8244	5,463.87	78.5874	5,463.87	80.7489	5,463.87	76.4289	5,463.87	67.4596	5,463.87	73.4012	5,463.87	75.462	5,463.87	70.9888	5,463.87	72.1556	5,463.87	63.8288	5,463.87	69.7083	5,463.87	64.1826	5,463.87	61.5513	5,463.87	58.7217	5,463.87	54.9712	5,463.87	59.42	5,463.87	58.2865	5,463.87	57.5503	5,463.87	61.9011	5,463.87	57.3753	5,463.87	56.3539	5,463.87	61.5367	5,463.87	60.7802	5,463.87	63.5982	5,463.87	52.3283	5,463.87	62.2831	5,463.87	55.3405	5,463.87	57.4223
5,657.23	82.5267	5,657.23	80.9384	5,657.23	82.6658	5,657.23	81.1032	5,657.23	80.9271	5,657.23	80.5436	5,657.23	80.2422	5,657.23	80.7184	5,657.23	79.1017	5,657.23	78.0017	5,657.23	79.1381	5,657.23	74.969	5,657.23	70.4614	5,657.23	70.6529	5,657.23	74.3662	5,657.23	68.8995	5,657.23	73.3667	5,657.23	64.5961	5,657.23	70.7896	5,657.23	63.4328	5,657.23	63.4741	5,657.23	59.0772	5,657.23	52.3966	5,657.23	55.1803	5,657.23	50.4257	5,657.23	55.887	5,657.23	59.4737	5,657.23	56.3708	5,657.23	53.6318	5,657.23	60.4468	5,657.23	61.0718	5,657.23	64.2507	5,657.23	53.036	5,657.23	60.9817	5,657.23	51.6203	5,657.23	55.5628
5,856.45	81.8907	5,856.45	80.7106	5,856.45	81.502	5,856.45	80.646	5,856.45	81.3559	5,856.45	80.1417	5,856.45	80.1813	5,856.45	79.8251	5,856.45	78.3602	5,856.45	77.7603	5,856.45	79.2854	5,856.45	73.3999	5,856.45	72.0263	5,856.45	71.5465	5,856.45	72.6987	5,856.45	68.772	5,856.45	70.9785	5,856.45	64.5225	5,856.45	71.166	5,856.45	63.3823	5,856.45	63.399	5,856.45	59.5637	5,856.45	58.8188	5,856.45	57.5369	5,856.45	42.8602	5,856.45	57.4756	5,856.45	53.3693	5,856.45	58.124	5,856.45	48.9645	5,856.45	61.747	5,856.45	61.3465	5,856.45	64.03	5,856.45	53.4557	5,856.45	61.0751	5,856.45	53.6547	5,856.45	55.6327
6,062.99	82.5259	6,062.99	81.2576	6,062.99	82.2099	6,062.99	80.7359	6,062.99	80.3649	6,062.99	80.529	6,062.99	80.8192	6,062.99	78.9817	6,062.99	77.3123	6,062.99	76.8548	6,062.99	78.0158	6,062.99	73.7356	6,062.99	72.4744	6,062.99	71.5599	6,062.99	71.6104	6,062.99	69.6634	6,062.99	69.863	6,062.99	63.7526	6,062.99	68.2594	6,062.99	64.067	6,062.99	59.8002	6,062.99	59.4443	6,062.99	54.9949	6,062.99	54.574	6,062.99	34.7773	6,062.99	52.1111	6,062.99	51.3587	6,062.99	57.815	6,062.99	53.2262	6,062.99	59.3824	6,062.99	59.0369	6,062.99	63.8998	6,062.99	51.2351	6,062.99	61.4292	6,062.99	42.0274	6,062.99	53.2217
6,276.86	82.0446	6,276.86	80.7082	6,276.86	82.4513	6,276.86	80.985	6,276.86	79.5456	6,276.86	79.7554	6,276.86	79.8868	6,276.86	78.703	6,276.86	77.6888	6,276.86	76.2668	6,276.86	76.0582	6,276.86	73.8069	6,276.86	71.548	6,276.86	70.9221	6,276.86	69.8262	6,276.86	68.108	6,276.86	71.2361	6,276.86	64.1876	6,276.86	64.7346	6,276.86	62.7575	6,276.86	53.8198	6,276.86	57.0804	6,276.86	47.3987	6,276.86	54.7467	6,276.86	52.0558	6,276.86	52.4971	6,276.86	45.7092	6,276.86	55.2012	6,276.86	53.2841	6,276.86	58.6989	6,276.86	53.7621	6,276.86	63.1995	6,276.86	50.9804	6,276.86	59.8214	6,276.86	50.6728	6,276.86	49.6235
6,498.05	81.4414	6,498.05	81.9953	6,498.05	82.658	6,498.05	80.7971	6,498.05	79.3461	6,498.05	79.1395	6,498.05	80.0414	6,498.05	77.9816	6,498.05	77.6928	6,498.05	76.1551	6,498.05	74.9821	6,498.05	72.6205	6,498.05	68.0454	6,498.05	70.3307	6,498.05	71.024	6,498.05	67.4286	6,498.05	70.7665	6,498.05	63.7248	6,498.05	65.4865	6,498.05	61.8855	6,498.05	61.3156	6,498.05	58.5732	6,498.05	56.3773	6,498.05	55.641	6,498.05	53.1455	6,498.05	52.1501	6,498.05	48.9992	6,498.05	53.4845	6,498.05	49.1911	6,498.05	57.5009	6,498.05	52.7684	6,498.05	62.2079	6,498.05	51.0743	6,498.05	59.9881	6,498.05	49.7044	6,498.05	51.3284
6,726.56	81.7061	6,726.56	82.3563	6,726.56	82.7853	6,726.56	80.2856	6,726.56	79.4638	6,726.56	78.8475	6,726.56	79.3169	6,726.56	77.6409	6,726.56	77.7692	6,726.56	75.655	6,726.56	76.5319	6,726.56	72.5708	6,726.56	69.5786	6,726.56	70.3055	6,726.56	71.8803	6,726.56	67.1278	6,726.56	69.1415	6,726.56	63.6927	6,726.56	64.8694	6,726.56	60.4271	6,726.56	59.996	6,726.56	58.1804	6,726.56	54.182	6,726.56	53.0969	6,726.56	49.9686	6,726.56	51.3888	6,726.56	44.9332	6,726.56	54.4143	6,726.56	47.0233	6,726.56	56.4274	6,726.56	56.4515	6,726.56	61.9521	6,726.56	52.1525	6,726.56	59.445	6,726.56	48.1661	6,726.56	47.0849
6,963.87	81.8439	6,963.87	82.262	6,963.87	82.0702	6,963.87	79.8406	6,963.87	80.8029	6,963.87	78.855	6,963.87	78.5003	6,963.87	77.0907	6,963.87	77.5705	6,963.87	74.7909	6,963.87	76.136	6,963.87	72.7349	6,963.87	71.7069	6,963.87	70.1506	6,963.87	69.4924	6,963.87	66.4578	6,963.87	63.054	6,963.87	61.8082	6,963.87	54.6857	6,963.87	58.7222	6,963.87	61.668	6,963.87	55.2085	6,963.87	54.2345	6,963.87	47.3967	6,963.87	29.7664	6,963.87	51.9357	6,963.87	51.111	6,963.87	51.3529	6,963.87	49.3827	6,963.87	52.6738	6,963.87	54.8981	6,963.87	59.9132	6,963.87	51.6066	6,963.87	56.648	6,963.87	47.0386	6,963.87	50.942
7,209.96	82.3305	7,209.96	82.5226	7,209.96	82.0198	7,209.96	80.4612	7,209.96	80.3894	7,209.96	78.4879	7,209.96	78.8429	7,209.96	76.0238	7,209.96	76.8768	7,209.96	75.4292	7,209.96	75.0709	7,209.96	71.6931	7,209.96	72.0847	7,209.96	68.3126	7,209.96	66.8331	7,209.96	63.9188	7,209.96	59.3197	7,209.96	58.9741	7,209.96	56.618	7,209.96	57.012	7,209.96	60.7185	7,209.96	54.6444	7,209.96	55.0996	7,209.96	44.9881	7,209.96	42.0133	7,209.96	48.7624	7,209.96	49.2848	7,209.96	49.9532	7,209.96	47.1951	7,209.96	50.4387	7,209.96	46.7671	7,209.96	57.9131	7,209.96	48.6543	7,209.96	56.6281	7,209.96	49.6753	7,209.96	47.7295
7,464.84	82.0565	7,464.84	82.4148	7,464.84	82.5622	7,464.84	80.2553	7,464.84	80.6648	7,464.84	78.3363	7,464.84	78.6496	7,464.84	76.5134	7,464.84	76.5861	7,464.84	74.4157	7,464.84	75.284	7,464.84	71.365	7,464.84	72.589	7,464.84	66.7008	7,464.84	59.8757	7,464.84	62.9575	7,464.84	65.6868	7,464.84	59.0983	7,464.84	51.8729	7,464.84	55.0073	7,464.84	56.019	7,464.84	53.5272	7,464.84	53.1934	7,464.84	45.8447	7,464.84	45.448	7,464.84	49.4962	7,464.84	43.4453	7,464.84	46.8758	7,464.84	47.6584	7,464.84	48.9997	7,464.84	46.7842	7,464.84	56.6588	7,464.84	49.1547	7,464.84	56.8447	7,464.84	47.2083	7,464.84	46.0705
7,727.05	82.3198	7,727.05	82.5848	7,727.05	82.0525	7,727.05	80.6618	7,727.05	80.8439	7,727.05	78.1184	7,727.05	78.5932	7,727.05	76.2056	7,727.05	74.1328	7,727.05	73.9161	7,727.05	73.9482	7,727.05	69.8867	7,727.05	69.5975	7,727.05	66.145	7,727.05	61.3904	7,727.05	60.508	7,727.05	67.4666	7,727.05	57.2165	7,727.05	60.0881	7,727.05	50.2434	7,727.05	57.6568	7,727.05	53.1158	7,727.05	53.9207	7,727.05	39.6411	7,727.05	46.6498	7,727.05	45.957	7,727.05	46.243	7,727.05	47.7783	7,727.05	41.811	7,727.05	45.4939	7,727.05	47.6244	7,727.05	53.9312	7,727.05	48.9013	7,727.05	55.4926	7,727.05	47.8005	7,727.05	45.5902
7,999.51	82.3244	7,999.51	82.376	7,999.51	81.8584	7,999.51	80.2663	7,999.51	80.7742	7,999.51	77.8718	7,999.51	78.0751	7,999.51	76.1775	7,999.51	74.5232	7,999.51	72.9449	7,999.51	74.0617	7,999.51	68.6176	7,999.51	64.8033	7,999.51	64.4028	7,999.51	65.4982	7,999.51	57.4971	7,999.51	66.3553	7,999.51	56.6976	7,999.51	56.0721	7,999.51	48.9992	7,999.51	51.9184	7,999.51	51.0067	7,999.51	51.3447	7,999.51	33.6104	7,999.51	44.7625	7,999.51	44.4464	7,999.51	44.4891	7,999.51	40.9984	7,999.51	29.6303	7,999.51	49.7158	7,999.51	39.4264	7,999.51	54.1008	7,999.51	44.6334	7,999.51	55.3886	7,999.51	46.6688	7,999.51	44.0559
8,282.23	82.258	8,282.23	82.4679	8,282.23	81.5921	8,282.23	80.5608	8,282.23	80.7115	8,282.23	78.0898	8,282.23	78.5168	8,282.23	75.6258	8,282.23	75.389	8,282.23	72.0075	8,282.23	72.8883	8,282.23	67.2193	8,282.23	66.5152	8,282.23	62.692	8,282.23	65.6898	8,282.23	56.3054	8,282.23	61.0775	8,282.23	54.3877	8,282.23	51.0816	8,282.23	49.4296	8,282.23	53.5951	8,282.23	50.3488	8,282.23	44.1887	8,282.23	41.4101	8,282.23	44.3283	8,282.23	40.1939	8,282.23	39.3572	8,282.23	37.018	8,282.23	34.6754	8,282.23	49.1559	8,282.23	47.2502	8,282.23	51.6142	8,282.23	44.7101	8,282.23	53.6954	8,282.23	47.1154	8,282.23	45.396
8,573.73	82.3966	8,573.73	82.0079	8,573.73	81.8533	8,573.73	80.3374	8,573.73	80.4093	8,573.73	77.862	8,573.73	78.0686	8,573.73	75.3614	8,573.73	74.8721	8,573.73	70.8639	8,573.73	70.825	8,573.73	65.8924	8,573.73	66.851	8,573.73	61.8877	8,573.73	61.8042	8,573.73	54.4656	8,573.73	55.9665	8,573.73	53.0546	8,573.73	45.5249	8,573.73	47.7375	8,573.73	53.4282	8,573.73	48.8588	8,573.73	47.7953	8,573.73	39.6604	8,573.73	42.622	8,573.73	41.5154	8,573.73	34.4049	8,573.73	44.4898	8,573.73	34.562	8,573.73	48.5863	8,573.73	44.8709	8,573.73	49.4045	8,573.73	43.7292	8,573.73	51.6727	8,573.73	46.4272	8,573.73	43.8949
8,876.95	82.0585	8,876.95	81.9023	8,876.95	81.4917	8,876.95	80.3127	8,876.95	80.3414	8,876.95	77.8158	8,876.95	77.615	8,876.95	74.9969	8,876.95	74.7195	8,876.95	70.136	8,876.95	70.6861	8,876.95	64.3975	8,876.95	66.429	8,876.95	60.5619	8,876.95	55.6206	8,876.95	54.1084	8,876.95	54.3252	8,876.95	51.9954	8,876.95	48.3078	8,876.95	47.2854	8,876.95	49.1697	8,876.95	48.5942	8,876.95	46.5117	8,876.95	38.8926	8,876.95	32.2659	8,876.95	41.7064	8,876.95	37.5799	8,876.95	41.2123	8,876.95	40.8126	8,876.95	48.2863	8,876.95	43.9113	8,876.95	45.9768	8,876.95	41.5747	8,876.95	49.0137	8,876.95	44.61	8,876.95	42.9714
9,188.96	82.0272	9,188.96	81.8173	9,188.96	81.7498	9,188.96	79.9686	9,188.96	80.3234	9,188.96	77.6129	9,188.96	77.8065	9,188.96	74.4546	9,188.96	74.6158	9,188.96	69.2132	9,188.96	68.9783	9,188.96	63.1221	9,188.96	63.7547	9,188.96	58.5938	9,188.96	50.5057	9,188.96	51.7535	9,188.96	48.1891	9,188.96	49.8501	9,188.96	52.0084	9,188.96	46.7032	9,188.96	42.5219	9,188.96	43.1087	9,188.96	47.4677	9,188.96	40.7866	9,188.96	36.0005	9,188.96	41.3964	9,188.96	27.7443	9,188.96	41.9202	9,188.96	37.6486	9,188.96	46.1781	9,188.96	42.41	9,188.96	43.0326	9,188.96	36.2493	9,188.96	47.557	9,188.96	43.9872	9,188.96	43.0837
9,514.16	82.3095	9,514.16	81.9098	9,514.16	81.621	9,514.16	79.9771	9,514.16	80.3564	9,514.16	77.425	9,514.16	77.4581	9,514.16	73.9638	9,514.16	74.0286	9,514.16	68.2457	9,514.16	69.2153	9,514.16	60.9309	9,514.16	60.0974	9,514.16	55.6971	9,514.16	47.9999	9,514.16	47.0137	9,514.16	54.2692	9,514.16	39.3799	9,514.16	52.099	9,514.16	39.794	9,514.16	49.4461	9,514.16	44.5566	9,514.16	42.6631	9,514.16	38.5776	9,514.16	37.0038	9,514.16	39.0086	9,514.16	29.279	9,514.16	41.3121	9,514.16	32.9838	9,514.16	44.8291	9,514.16	41.606	9,514.16	36.5515	9,514.16	36.5385	9,514.16	46.6663	9,514.16	43.1864	9,514.16	38.8592
9,849.61	82.2315	9,849.61	81.6892	9,849.61	81.5283	9,849.61	79.8377	9,849.61	80.2183	9,849.61	77.0382	9,849.61	77.3171	9,849.61	72.9822	9,849.61	73.1925	9,849.61	67.3554	9,849.61	68.1386	9,849.61	58.4788	9,849.61	57.152	9,849.61	53.0852	9,849.61	44.4199	9,849.61	49.2331	9,849.61	53.998	9,849.61	49.8865	9,849.61	47.1239	9,849.61	48.6082	9,849.61	43.6492	9,849.61	49.1122	9,849.61	40.4188	9,849.61	37.8273	9,849.61	41.7492	9,849.61	32.3215	9,849.61	31.4249	9,849.61	42.6618	9,849.61	28.2047	9,849.61	47.2708	9,849.61	32.6334	9,849.61	41.0466	9,849.61	36.9931	9,849.61	46.8944	9,849.61	46.2868	9,849.61	42.8221
10,196.8	83.0226	10,196.8	82.5625	10,196.8	82.1428	10,196.8	80.5909	10,196.8	80.7046	10,196.8	77.2996	10,196.8	77.6396	10,196.8	72.983	10,196.8	73.2024	10,196.8	67.0871	10,196.8	68.4118	10,196.8	58.8498	10,196.8	54.841	10,196.8	50.6677	10,196.8	48.2812	10,196.8	52.6312	10,196.8	50.9618	10,196.8	53.4607	10,196.8	50.6431	10,196.8	47.4439	10,196.8	51.0136	10,196.8	48.3409	10,196.8	42.5587	10,196.8	44.3831	10,196.8	42.3732	10,196.8	37.9068	10,196.8	27.121	10,196.8	44.9629	10,196.8	35.4525	10,196.8	47.8858	10,196.8	38.4978	10,196.8	42.0699	10,196.8	36.0069	10,196.8	43.9641	10,196.8	42.2913	10,196.8	45.0978
10,555.7	82.9018	10,555.7	82.4312	10,555.7	82.162	10,555.7	80.6362	10,555.7	80.613	10,555.7	76.8335	10,555.7	77.5259	10,555.7	72.1521	10,555.7	72.2776	10,555.7	65.1466	10,555.7	63.7073	10,555.7	55.9331	10,555.7	51.8516	10,555.7	53.0251	10,555.7	56.575	10,555.7	56.1099	10,555.7	52.278	10,555.7	52.4555	10,555.7	55.4763	10,555.7	47.5687	10,555.7	39.3616	10,555.7	45.7147	10,555.7	45.8042	10,555.7	46.624	10,555.7	41.0334	10,555.7	40.1377	10,555.7	35.6506	10,555.7	44.522	10,555.7	28.8018	10,555.7	49.2425	10,555.7	43.6654	10,555.7	45.539	10,555.7	39.7706	10,555.7	46.3658	10,555.7	44.6547	10,555.7	45.8488
10,927.7	83.0375	10,927.7	82.3606	10,927.7	82.2151	10,927.7	80.7258	10,927.7	80.4129	10,927.7	76.3855	10,927.7	77.291	10,927.7	71.7006	10,927.7	71.5376	10,927.7	64.6288	10,927.7	63.2341	10,927.7	55.0372	10,927.7	55.8299	10,927.7	55.9298	10,927.7	57.3822	10,927.7	57.9608	10,927.7	51.568	10,927.7	54.6016	10,927.7	51.3187	10,927.7	51.5761	10,927.7	51.8795	10,927.7	49.1943	10,927.7	47.4762	10,927.7	46.4406	10,927.7	40.3534	10,927.7	40.1706	10,927.7	30.7872	10,927.7	45.5606	10,927.7	36.0387	10,927.7	49.1648	10,927.7	45.2671	10,927.7	46.7721	10,927.7	42.1217	10,927.7	47.9985	10,927.7	44.0667	10,927.7	44.5311
11,313	83.0899	11,313	82.4718	11,313	82.4013	11,313	80.8192	11,313	80.6361	11,313	76.1951	11,313	76.8005	11,313	71.3266	11,313	70.0432	11,313	63.2032	11,313	62.4068	11,313	57.5222	11,313	60.4836	11,313	58.1633	11,313	54.9199	11,313	58.6822	11,313	55.8337	11,313	56.1306	11,313	51.549	11,313	51.3746	11,313	51.6256	11,313	51.789	11,313	42.779	11,313	48.294	11,313	40.4115	11,313	42.9446	11,313	32.37	11,313	47.768	11,313	39.5081	11,313	48.4123	11,313	41.5633	11,313	47.2918	11,313	40.4579	11,313	48.5265	11,313	44.2897	11,313	47.0504
11,712.9	83.0476	11,712.9	82.2949	11,712.9	82.666	11,712.9	80.7112	11,712.9	80.7887	11,712.9	76.022	11,712.9	76.5008	11,712.9	70.8613	11,712.9	68.8441	11,712.9	61.7092	11,712.9	60.4103	11,712.9	59.8652	11,712.9	61.1265	11,712.9	59.6703	11,712.9	61.1724	11,712.9	58.6733	11,712.9	58.6927	11,712.9	55.3983	11,712.9	55.7308	11,712.9	50.5629	11,712.9	55.3657	11,712.9	48.8196	11,712.9	45.5092	11,712.9	49.2736	11,712.9	39.9624	11,712.9	42.3205	11,712.9	37.3905	11,712.9	48.5111	11,712.9	36.5998	11,712.9	46.4788	11,712.9	38.8026	11,712.9	48.8279	11,712.9	30.6342	11,712.9	47.8578	11,712.9	43.4349	11,712.9	48.6686
12,126	83.1753	12,126	82.3867	12,126	82.8734	12,126	80.5796	12,126	80.6294	12,126	75.8441	12,126	76.1662	12,126	70.0038	12,126	68.5674	12,126	58.5346	12,126	61.1752	12,126	61.9466	12,126	63.36	12,126	61.2362	12,126	63.6227	12,126	59.4272	12,126	58.5474	12,126	57.2216	12,126	53.7435	12,126	51.6785	12,126	58.3851	12,126	49.7015	12,126	46.3636	12,126	49.4628	12,126	42.6261	12,126	44.7472	12,126	43.898	12,126	48.3034	12,126	41.2382	12,126	46.0649	12,126	38.8881	12,126	49.5413	12,126	37.6709	12,126	47.3572	12,126	44.767	12,126	50.3713
12,553.7	83.3905	12,553.7	82.3861	12,553.7	82.9271	12,553.7	80.2115	12,553.7	80.5731	12,553.7	75.7362	12,553.7	75.6451	12,553.7	68.0387	12,553.7	68.8429	12,553.7	57.5204	12,553.7	57.8325	12,553.7	62.8431	12,553.7	63.6036	12,553.7	63.6448	12,553.7	66.1477	12,553.7	60.3431	12,553.7	54.578	12,553.7	57.4508	12,553.7	53.919	12,553.7	53.4126	12,553.7	59.5266	12,553.7	49.941	12,553.7	47.2814	12,553.7	51.3274	12,553.7	40.175	12,553.7	46.7566	12,553.7	45.4028	12,553.7	48.6086	12,553.7	31.4336	12,553.7	48.1243	12,553.7	39.6789	12,553.7	50.0267	12,553.7	38.9351	12,553.7	48.5261	12,553.7	44.1554	12,553.7	52.6536
12,996.1	83.6399	12,996.1	82.5583	12,996.1	82.9311	12,996.1	79.6179	12,996.1	80.226	12,996.1	75.6703	12,996.1	75.6699	12,996.1	64.9015	12,996.1	69.7161	12,996.1	55.6214	12,996.1	60.6221	12,996.1	64.1173	12,996.1	68.5237	12,996.1	65.1008	12,996.1	65.2372	12,996.1	61.4804	12,996.1	60.297	12,996.1	58.1312	12,996.1	55.7167	12,996.1	54.6268	12,996.1	59.2639	12,996.1	47.2522	12,996.1	53.6467	12,996.1	51.6209	12,996.1	45.9664	12,996.1	46.0789	12,996.1	36.79	12,996.1	45.9109	12,996.1	39.634	12,996.1	47.6187	12,996.1	34.5346	12,996.1	50.2181	12,996.1	22.7525	12,996.1	47.6623	12,996.1	43.5427	12,996.1	53.3019
13,454.6	83.7789	13,454.6	82.6675	13,454.6	83.0779	13,454.6	79.7639	13,454.6	79.7816	13,454.6	75.6356	13,454.6	75.4252	13,454.6	63.2209	13,454.6	69.5689	13,454.6	54.0865	13,454.6	61.2258	13,454.6	65.7159	13,454.6	69.3379	13,454.6	66.1367	13,454.6	63.6069	13,454.6	61.9572	13,454.6	57.5551	13,454.6	56.331	13,454.6	55.2612	13,454.6	55.8708	13,454.6	57.755	13,454.6	44.6412	13,454.6	53.7786	13,454.6	52.1203	13,454.6	44.8391	13,454.6	46.1594	13,454.6	44.0718	13,454.6	43.7059	13,454.6	48.9579	13,454.6	46.7477	13,454.6	42.0584	13,454.6	49.2385	13,454.6	37.7197	13,454.6	46.3135	13,454.6	42.776	13,454.6	53.0653
13,929.2	83.9684	13,929.2	82.6334	13,929.2	82.8317	13,929.2	79.6117	13,929.2	79.3623	13,929.2	74.8386	13,929.2	75.7078	13,929.2	62.7587	13,929.2	66.0287	13,929.2	58.5387	13,929.2	62.1657	13,929.2	66.5353	13,929.2	65.8774	13,929.2	65.432	13,929.2	66.6815	13,929.2	62.0997	13,929.2	58.9039	13,929.2	54.0075	13,929.2	57.0905	13,929.2	54.0189	13,929.2	57.3251	13,929.2	36.2	13,929.2	55.7869	13,929.2	50.7315	13,929.2	40.5031	13,929.2	44.5678	13,929.2	40.7944	13,929.2	38.0506	13,929.2	50.3095	13,929.2	47.4836	13,929.2	47.2496	13,929.2	46.5707	13,929.2	37.3667	13,929.2	43.7444	13,929.2	41.7306	13,929.2	52.163
14,419.9	83.7793	14,419.9	82.134	14,419.9	82.4061	14,419.9	79.2083	14,419.9	78.9127	14,419.9	73.917	14,419.9	74.7849	14,419.9	60.0074	14,419.9	59.9241	14,419.9	63.3695	14,419.9	67.5822	14,419.9	67.0862	14,419.9	69.6146	14,419.9	64.3212	14,419.9	62.8296	14,419.9	63.1422	14,419.9	63.0654	14,419.9	55.5975	14,419.9	53.9448	14,419.9	53.9638	14,419.9	58.6268	14,419.9	34.7539	14,419.9	55.2493	14,419.9	50.5198	14,419.9	39.5576	14,419.9	44.344	14,419.9	41.2337	14,419.9	32.0518	14,419.9	50.3011	14,419.9	46.2015	14,419.9	46.6352	14,419.9	42.9932	14,419.9	41.3859	14,419.9	46.2878	14,419.9	36.4678	14,419.9	53.2048
14,928.2	83.1771	14,928.2	81.5272	14,928.2	81.5054	14,928.2	78.2191	14,928.2	78.9341	14,928.2	72.4163	14,928.2	73.4064	14,928.2	52.6671	14,928.2	57.0169	14,928.2	65.3809	14,928.2	66.0397	14,928.2	66.9054	14,928.2	67.1591	14,928.2	65.492	14,928.2	66.4661	14,928.2	63.8471	14,928.2	55.7858	14,928.2	57.5579	14,928.2	56.895	14,928.2	54.1377	14,928.2	59.8726	14,928.2	36.7485	14,928.2	54.8128	14,928.2	51.2366	14,928.2	43.6727	14,928.2	44.1528	14,928.2	42.3916	14,928.2	29.386	14,928.2	48.448	14,928.2	41.2415	14,928.2	50.3621	14,928.2	36.7661	14,928.2	46.2736	14,928.2	48.0797	14,928.2	37.332	14,928.2	52.8429
15,455.6	81.8274	15,455.6	80.9405	15,455.6	80.5978	15,455.6	77.1358	15,455.6	78.1612	15,455.6	71.5071	15,455.6	70.1851	15,455.6	43.1367	15,455.6	51.6145	15,455.6	63.9978	15,455.6	60.9512	15,455.6	67.583	15,455.6	69.2317	15,455.6	66.2638	15,455.6	67.1905	15,455.6	63.3353	15,455.6	61.4292	15,455.6	57.2963	15,455.6	54.9357	15,455.6	52.0276	15,455.6	59.9944	15,455.6	34.1877	15,455.6	55.6237	15,455.6	50.7926	15,455.6	45.4305	15,455.6	45.4746	15,455.6	45.4765	15,455.6	33.4696	15,455.6	46.4968	15,455.6	38.9873	15,455.6	51.3629	15,455.6	32.5755	15,455.6	47.3928	15,455.6	45.7323	15,455.6	41.2743	15,455.6	49.4569
16,000.5	80.6514	16,000.5	80.2117	16,000.5	79.87	16,000.5	76.0385	16,000.5	76.6452	16,000.5	69.1594	16,000.5	66.9412	16,000.5	52.5365	16,000.5	53.5161	16,000.5	61.8746	16,000.5	62.0515	16,000.5	67.7693	16,000.5	68.3609	16,000.5	65.2125	16,000.5	62.3463	16,000.5	60.5479	16,000.5	61.348	16,000.5	54.6818	16,000.5	53.8983	16,000.5	50.5976	16,000.5	57.1452	16,000.5	34.1839	16,000.5	53.7791	16,000.5	49.6371	16,000.5	43.3051	16,000.5	43.4945	16,000.5	44.6265	16,000.5	25.5703	16,000.5	42.9926	16,000.5	43.3886	16,000.5	49.5411	16,000.5	42.3032	16,000.5	43.8096	16,000.5	41.8375	16,000.5	40.5004	16,000.5	45.8936
16,564.5	80.1691	16,564.5	79.6323	16,564.5	79.4699	16,564.5	74.9622	16,564.5	75.2606	16,564.5	66.1886	16,564.5	63.9602	16,564.5	52.0892	16,564.5	59.8908	16,564.5	63.8008	16,564.5	65.307	16,564.5	65.962	16,564.5	67.6901	16,564.5	63.277	16,564.5	66.2653	16,564.5	59.2726	16,564.5	57.6637	16,564.5	52.2533	16,564.5	44.8788	16,564.5	48.2405	16,564.5	54.845	16,564.5	36.1429	16,564.5	53.5129	16,564.5	48.7199	16,564.5	42.2948	16,564.5	41.7856	16,564.5	38.9142	16,564.5	34.8352	16,564.5	39.9952	16,564.5	45.0027	16,564.5	47.4818	16,564.5	41.045	16,564.5	43.3003	16,564.5	35.5197	16,564.5	39.7777	16,564.5	38.7524
17,148.9	80.9224	17,148.9	79.7224	17,148.9	79.7128	17,148.9	74.776	17,148.9	74.2304	17,148.9	62.7537	17,148.9	61.2049	17,148.9	56.206	17,148.9	61.3239	17,148.9	64.3678	17,148.9	66.1923	17,148.9	63.6774	17,148.9	64.7856	17,148.9	61.9056	17,148.9	63.3508	17,148.9	58.7153	17,148.9	57.4036	17,148.9	51.1948	17,148.9	46.2313	17,148.9	45.4298	17,148.9	51.8408	17,148.9	37.1392	17,148.9	48.9356	17,148.9	45.8619	17,148.9	40.0072	17,148.9	40.2627	17,148.9	39.6474	17,148.9	35.2565	17,148.9	37.1212	17,148.9	44.9333	17,148.9	45.8578	17,148.9	37.0954	17,148.9	40.3804	17,148.9	30.0259	17,148.9	38.0808	17,148.9	30.9373
17,752.4	81.8365	17,752.4	80.1473	17,752.4	80.1605	17,752.4	74.4863	17,752.4	74.1203	17,752.4	60.7986	17,752.4	60.3949	17,752.4	60.8771	17,752.4	62.9362	17,752.4	63.0109	17,752.4	66.0868	17,752.4	61.8108	17,752.4	63.1384	17,752.4	58.9239	17,752.4	56.9268	17,752.4	54.3735	17,752.4	57.0161	17,752.4	46.7987	17,752.4	40.7428	17,752.4	37.7968	17,752.4	52.6341	17,752.4	32.1579	17,752.4	47.5281	17,752.4	39.8674	17,752.4	35.4847	17,752.4	34.949	17,752.4	32.3842	17,752.4	29.4983	17,752.4	19.3487	17,752.4	39.478	17,752.4	41.7475	17,752.4	35.9005	17,752.4	36.0056	17,752.4	31.3532	17,752.4	36.0083	17,752.4	36.5551
18,379.4	82.0759	18,379.4	80.1695	18,379.4	80.3266	18,379.4	73.5958	18,379.4	74.1332	18,379.4	52.5341	18,379.4	56.9109	18,379.4	65.1103	18,379.4	63.0387	18,379.4	65.0556	18,379.4	64.0495	18,379.4	63.6601	18,379.4	62.7705	18,379.4	58.394	18,379.4	59.6585	18,379.4	52.9866	18,379.4	52.0224	18,379.4	46.4951	18,379.4	40.3361	18,379.4	39.0116	18,379.4	52.3307	18,379.4	28.242	18,379.4	52.0203	18,379.4	37.8233	18,379.4	40.5507	18,379.4	31.6969	18,379.4	34.5205	18,379.4	24.1376	18,379.4	29.8561	18,379.4	37.3255	18,379.4	39.0532	18,379.4	29.1759	18,379.4	32.8327	18,379.4	31.467	18,379.4	30.7643	18,379.4	39.089
19,026.9	82.1357	19,026.9	80.0948	19,026.9	80.1887	19,026.9	72.9882	19,026.9	73.7977	19,026.9	32.0395	19,026.9	51.3174	19,026.9	65.4335	19,026.9	65.0959	19,026.9	65.3323	19,026.9	65.5431	19,026.9	62.645	19,026.9	63.3254	19,026.9	57.2131	19,026.9	57.8377	19,026.9	51.9229	19,026.9	51.3023	19,026.9	45.0893	19,026.9	44.9195	19,026.9	36.5459	19,026.9	54.1243	19,026.9	32.0802	19,026.9	53.4537	19,026.9	36.7163	19,026.9	37.7703	19,026.9	31.0593	19,026.9	32.1216	19,026.9	21.2477	19,026.9	30.8131	19,026.9	34.1007	19,026.9	28.325	19,026.9	24.2948	19,026.9	30.6762	19,026.9	19.7102	19,026.9	27.6285	19,026.9	33.4505
19,697.8	81.9231	19,697.8	79.7884	19,697.8	80.0132	19,697.8	72.4572	19,697.8	73.033	19,697.8	47.7481	19,697.8	34.9965	19,697.8	65.2411	19,697.8	65.4369	19,697.8	64.7452	19,697.8	64.9615	19,697.8	60.9456	19,697.8	61.5805	19,697.8	55.6469	19,697.8	56.0253	19,697.8	51.0573	19,697.8	51.7437	19,697.8	44.1355	19,697.8	45.8163	19,697.8	31.2802	19,697.8	55.1453	19,697.8	30.0429	19,697.8	52.3584	19,697.8	34.6935	19,697.8	34.8931	19,697.8	31.087	19,697.8	26.5681	19,697.8	18.6773	19,697.8	30.1489	19,697.8	33.3013	19,697.8	20.8852	19,697.8	30.4391	19,697.8	32.578	19,697.8	20.4016	19,697.8	26.3676	19,697.8	25.7476
19,999.5	81.8677	19,999.5	79.6171	19,999.5	79.6411	19,999.5	72.4546	19,999.5	72.545	19,999.5	52.8616	19,999.5	41.0072	19,999.5	64.9373	19,999.5	65.521	19,999.5	64.0063	19,999.5	63.836	19,999.5	60.3785	19,999.5	62.3747	19,999.5	53.2663	19,999.5	55.8662	19,999.5	49.0823	19,999.5	49.6289	19,999.5	43.8751	19,999.5	37.6766	19,999.5	36.3245	19,999.5	55.2351	19,999.5	26.6819	19,999.5	52.2037	19,999.5	34.074	19,999.5	43.0744	19,999.5	35.0685	19,999.5	40.744	19,999.5	30.5216	19,999.5	34.8445	19,999.5	33.5008	19,999.5	38.8622	19,999.5	34.5965	19,999.5	43.6778	19,999.5	35.2675	19,999.5	29.7052	19,999.5	37.17
