"SPL Horizontal"
"On-Axis"		"10°"		"-10°"		"20°"		"-20°"		"30°"		"-30°"		"40°"		"-40°"		"50°"		"-50°"		"60°"		"-60°"		"70°"		"-70°"		"80°"		"-80°"		"90°"		"-90°"		"100°"		"-100°"		"110°"		"-110°"		"120°"		"-120°"		"130°"		"-130°"		"140°"		"-140°"		"150°"		"-150°"		"160°"		"-160°"		"170°"		"-170°"		"180°"
"Frequency [Hz]"	"Sound Pessure Level [dB]  / [2.83V 1m] "	"Frequency [Hz]"	"Sound Pessure Level [dB]  / [2.83V 1m] "	"Frequency [Hz]"	"Sound Pessure Level [dB]  / [2.83V 1m] "	"Frequency [Hz]"	"Sound Pessure Level [dB]  / [2.83V 1m] "	"Frequency [Hz]"	"Sound Pessure Level [dB]  / [2.83V 1m] "	"Frequency [Hz]"	"Sound Pessure Level [dB]  / [2.83V 1m] "	"Frequency [Hz]"	"Sound Pessure Level [dB]  / [2.83V 1m] "	"Frequency [Hz]"	"Sound Pessure Level [dB]  / [2.83V 1m] "	"Frequency [Hz]"	"Sound Pessure Level [dB]  / [2.83V 1m] "	"Frequency [Hz]"	"Sound Pessure Level [dB]  / [2.83V 1m] "	"Frequency [Hz]"	"Sound Pessure Level [dB]  / [2.83V 1m] "	"Frequency [Hz]"	"Sound Pessure Level [dB]  / [2.83V 1m] "	"Frequency [Hz]"	"Sound Pessure Level [dB]  / [2.83V 1m] "	"Frequency [Hz]"	"Sound Pessure Level [dB]  / [2.83V 1m] "	"Frequency [Hz]"	"Sound Pessure Level [dB]  / [2.83V 1m] "	"Frequency [Hz]"	"Sound Pessure Level [dB]  / [2.83V 1m] "	"Frequency [Hz]"	"Sound Pessure Level [dB]  / [2.83V 1m] "	"Frequency [Hz]"	"Sound Pessure Level [dB]  / [2.83V 1m] "	"Frequency [Hz]"	"Sound Pessure Level [dB]  / [2.83V 1m] "	"Frequency [Hz]"	"Sound Pessure Level [dB]  / [2.83V 1m] "	"Frequency [Hz]"	"Sound Pessure Level [dB]  / [2.83V 1m] "	"Frequency [Hz]"	"Sound Pessure Level [dB]  / [2.83V 1m] "	"Frequency [Hz]"	"Sound Pessure Level [dB]  / [2.83V 1m] "	"Frequency [Hz]"	"Sound Pessure Level [dB]  / [2.83V 1m] "	"Frequency [Hz]"	"Sound Pessure Level [dB]  / [2.83V 1m] "	"Frequency [Hz]"	"Sound Pessure Level [dB]  / [2.83V 1m] "	"Frequency [Hz]"	"Sound Pessure Level [dB]  / [2.83V 1m] "	"Frequency [Hz]"	"Sound Pessure Level [dB]  / [2.83V 1m] "	"Frequency [Hz]"	"Sound Pessure Level [dB]  / [2.83V 1m] "	"Frequency [Hz]"	"Sound Pessure Level [dB]  / [2.83V 1m] "	"Frequency [Hz]"	"Sound Pessure Level [dB]  / [2.83V 1m] "	"Frequency [Hz]"	"Sound Pessure Level [dB]  / [2.83V 1m] "	"Frequency [Hz]"	"Sound Pessure Level [dB]  / [2.83V 1m] "	"Frequency [Hz]"	"Sound Pessure Level [dB]  / [2.83V 1m] "	"Frequency [Hz]"	"Sound Pessure Level [dB]  / [2.83V 1m] "	"Frequency [Hz]"	"Sound Pessure Level [dB]  / [2.83V 1m] "
20.5078	54.856	20.5078	54.6428	20.5078	54.8276	20.5078	54.1753	20.5078	54.5741	20.5078	53.4513	20.5078	54.1246	20.5078	52.5126	20.5078	53.5467	20.5078	51.5421	20.5078	52.9965	20.5078	51.0183	20.5078	52.7605	20.5078	51.5555	20.5078	53.1569	20.5078	53.139	20.5078	54.2465	20.5078	55.1517	20.5078	55.7654	20.5078	57.1317	20.5078	57.4019	20.5078	58.9053	20.5078	58.9673	20.5078	60.4317	20.5078	60.3771	20.5078	61.7094	20.5078	61.5983	20.5078	62.7447	20.5078	62.6171	20.5078	63.5421	20.5078	63.4254	20.5078	64.1038	20.5078	64.0164	20.5078	64.4306	20.5078	64.3841	20.5078	64.5234
21.9727	60.2828	21.9727	60.1911	21.9727	60.2754	21.9727	60.0075	21.9727	60.171	21.9727	59.7507	21.9727	59.9811	21.9727	59.4576	21.9727	59.7317	21.9727	59.1917	21.9727	59.4704	21.9727	59.0469	21.9727	59.2737	21.9727	59.1311	21.9727	59.2436	21.9727	59.5213	21.9727	59.4783	21.9727	60.2157	21.9727	60.0212	21.9727	61.1329	21.9727	60.8305	21.9727	62.1579	21.9727	61.8034	21.9727	63.1864	21.9727	62.8266	21.9727	64.1411	21.9727	63.8084	21.9727	64.9693	21.9727	64.6842	21.9727	65.6351	21.9727	65.4112	21.9727	66.1146	21.9727	65.9607	21.9727	66.3921	21.9727	66.3138	21.9727	66.4591
23.4375	61.2944	23.4375	61.2232	23.4375	61.2639	23.4375	61.054	23.4375	61.1375	23.4375	60.8028	23.4375	60.9323	23.4375	60.505	23.4375	60.6816	23.4375	60.2247	23.4375	60.4426	23.4375	60.0611	23.4375	60.3009	23.4375	60.1328	23.4375	60.3598	23.4375	60.5276	23.4375	60.7021	23.4375	61.2459	23.4375	61.3427	23.4375	62.1978	23.4375	62.2157	23.4375	63.2575	23.4375	63.2125	23.4375	64.3145	23.4375	64.2284	23.4375	65.2902	23.4375	65.1838	23.4375	66.1334	23.4375	66.0249	23.4375	66.8112	23.4375	66.7156	23.4375	67.3023	23.4375	67.2316	23.4375	67.5935	23.4375	67.556	23.4375	67.6783
24.9023	63.0163	24.9023	62.9735	24.9023	62.9826	24.9023	62.8601	24.9023	62.8763	24.9023	62.6933	24.9023	62.7127	24.9023	62.5064	24.9023	62.5215	24.9023	62.3525	24.9023	62.3515	24.9023	62.3046	24.9023	62.2719	24.9023	62.4423	24.9023	62.3622	24.9023	62.8212	24.9023	62.6853	24.9023	63.4427	24.9023	63.2557	24.9023	64.2509	24.9023	64.0287	24.9023	65.159	24.9023	64.922	24.9023	66.081	24.9023	65.8481	24.9023	66.9471	24.9023	66.7335	24.9023	67.7065	24.9023	67.5234	24.9023	68.3232	24.9023	68.1789	24.9023	68.7723	24.9023	68.6729	24.9023	69.0376	24.9023	68.9869	24.9023	69.1099
26.3672	64.0552	26.3672	64.0156	26.3672	64.0394	26.3672	63.9255	26.3672	63.9732	26.3672	63.8013	26.3672	63.8724	26.3672	63.6732	26.3672	63.7656	26.3672	63.5876	26.3672	63.6959	26.3672	63.6045	26.3672	63.7192	26.3672	63.7853	26.3672	63.8938	26.3672	64.1709	26.3672	64.2608	26.3672	64.7609	26.3672	64.8246	26.3672	65.5122	26.3672	65.5484	26.3672	66.3559	26.3672	66.368	26.3672	67.2195	26.3672	67.2131	26.3672	68.0403	26.3672	68.0215	26.3672	68.7687	26.3672	68.7437	26.3672	69.368	26.3672	69.3426	26.3672	69.8115	26.3672	69.7911	26.3672	70.0817	26.3672	70.0703	26.3672	70.1688
27.832	65.585	27.832	65.562	27.832	65.5592	27.832	65.4947	27.832	65.4891	27.832	65.3972	27.832	65.3891	27.832	65.2956	27.832	65.2843	27.832	65.2289	27.832	65.2127	27.832	65.2473	27.832	65.2231	27.832	65.403	27.832	65.3671	27.832	65.7335	27.832	65.6832	27.832	66.2449	27.832	66.1803	27.832	66.9068	27.832	66.8309	27.832	67.663	27.832	67.5807	27.832	68.4489	27.832	68.3655	27.832	69.2048	27.832	69.1256	27.832	69.8815	27.832	69.8112	27.832	70.4413	27.832	70.3843	27.832	70.8566	27.832	70.8163	27.832	71.1086	27.832	71.0878	27.832	71.1867
29.2969	67.0911	29.2969	67.0709	29.2969	67.0801	29.2969	67.0234	29.2969	67.0419	29.2969	66.9607	29.2969	66.9882	29.2969	66.9041	29.2969	66.9398	29.2969	66.8843	29.2969	66.9257	29.2969	66.9387	29.2969	66.9818	29.2969	67.1051	29.2969	67.1443	29.2969	67.4104	29.2969	67.4401	29.2969	67.8602	29.2969	67.8764	29.2969	68.4342	29.2969	68.4355	29.2969	69.0915	29.2969	69.0796	29.2969	69.7813	29.2969	69.7595	29.2969	70.4529	29.2969	70.4255	29.2969	71.0614	29.2969	71.0328	29.2969	71.5702	29.2969	71.5445	29.2969	71.9514	29.2969	71.9321	29.2969	72.1855	29.2969	72.1752	29.2969	72.2612
30.7617	68.2297	30.7617	68.2095	30.7617	68.2227	30.7617	68.1654	30.7617	68.1919	30.7617	68.1076	30.7617	68.1475	30.7617	68.0543	30.7617	68.1071	30.7617	68.0312	30.7617	68.0955	30.7617	68.0707	30.7617	68.1435	30.7617	68.2061	30.7617	68.2828	30.7617	68.4639	30.7617	68.5383	30.7617	68.8534	30.7617	68.9195	30.7617	69.3617	30.7617	69.4145	30.7617	69.9555	30.7617	69.9923	30.7617	70.5894	30.7617	70.61	30.7617	71.2149	30.7617	71.2217	30.7617	71.7875	30.7617	71.7843	30.7617	72.2698	30.7617	72.2615	30.7617	72.6331	30.7617	72.6244	30.7617	72.8575	30.7617	72.8521	30.7617	72.9315
32.2266	69.2141	32.2266	69.2038	32.2266	69.2068	32.2266	69.179	32.2266	69.1846	32.2266	69.1488	32.2266	69.1565	32.2266	69.1289	32.2266	69.1374	32.2266	69.1408	32.2266	69.148	32.2266	69.2104	32.2266	69.2134	32.2266	69.3636	32.2266	69.3589	32.2266	69.6197	32.2266	69.604	32.2266	69.9847	32.2266	69.956	32.2266	70.4477	32.2266	70.406	32.2266	70.9818	32.2266	70.9294	32.2266	71.5501	32.2266	71.4912	32.2266	72.1119	32.2266	72.0516	32.2266	72.6281	32.2266	72.5717	32.2266	73.0643	32.2266	73.0169	32.2266	73.3932	32.2266	73.359	32.2266	73.5947	32.2266	73.5768	32.2266	73.657
33.6914	70.218	33.6914	70.2095	33.6914	70.2133	33.6914	70.1905	33.6914	70.1982	33.6914	70.1683	33.6914	70.1805	33.6914	70.1561	33.6914	70.1728	33.6914	70.1717	33.6914	70.1928	33.6914	70.2369	33.6914	70.2611	33.6914	70.3738	33.6914	70.3989	33.6914	70.5999	33.6914	70.6228	33.6914	70.9224	33.6914	70.94	33.6914	71.3348	33.6914	71.3445	33.6914	71.8164	33.6914	71.817	33.6914	72.3355	33.6914	72.3276	33.6914	72.8554	33.6914	72.841	33.6914	73.3388	33.6914	73.3209	33.6914	73.7515	33.6914	73.7339	33.6914	74.0658	33.6914	74.0518	33.6914	74.2609	33.6914	74.2532	33.6914	74.3246
35.1562	71.2112	35.1562	71.207	35.1562	71.2088	35.1562	71.1982	35.1562	71.2018	35.1562	71.1913	35.1562	71.1965	35.1562	71.1971	35.1562	71.2034	35.1562	71.2303	35.1562	71.2368	35.1562	71.3083	35.1562	71.3134	35.1562	71.4485	35.1562	71.4504	35.1562	71.6649	35.1562	71.6613	35.1562	71.9632	35.1562	71.9527	35.1562	72.3387	35.1562	72.3206	35.1562	72.7746	35.1562	72.7494	35.1562	73.2448	35.1562	73.2144	35.1562	73.7174	35.1562	73.6844	35.1562	74.1587	35.1562	74.1264	35.1562	74.5373	35.1562	74.5091	35.1562	74.8262	35.1562	74.8053	35.1562	75.0054	35.1562	74.9943	35.1562	75.0626
36.6211	71.9751	36.6211	71.9738	36.6211	71.9734	36.6211	71.9712	36.6211	71.9705	36.6211	71.9726	36.6211	71.9719	36.6211	71.9871	36.6211	71.9864	36.6211	72.0268	36.6211	72.0259	36.6211	72.106	36.6211	72.1045	36.6211	72.2394	36.6211	72.2363	36.6211	72.4388	36.6211	72.4326	36.6211	72.71	36.6211	72.6992	36.6211	73.0499	36.6211	73.0332	36.6211	73.445	36.6211	73.4222	36.6211	73.8733	36.6211	73.8452	36.6211	74.3063	36.6211	74.2751	36.6211	74.7132	36.6211	74.6818	36.6211	75.0639	36.6211	75.0361	36.6211	75.3326	36.6211	75.3118	36.6211	75.4995	36.6211	75.4884	36.6211	75.5526
38.0859	72.9456	38.0859	72.9429	38.0859	72.9494	38.0859	72.9429	38.0859	72.9557	38.0859	72.95	38.0859	72.9687	38.0859	72.9716	38.0859	72.9954	38.0859	73.0175	38.0859	73.0452	38.0859	73.0995	38.0859	73.1289	38.0859	73.2293	38.0859	73.2577	38.0859	73.4165	38.0859	73.4408	38.0859	73.6657	38.0859	73.6829	38.0859	73.9746	38.0859	73.9825	38.0859	74.3321	38.0859	74.3299	38.0859	74.7197	38.0859	74.7081	38.0859	75.1127	38.0859	75.0941	38.0859	75.4834	38.0859	75.4615	38.0859	75.8045	38.0859	75.7832	38.0859	76.0514	38.0859	76.0347	38.0859	76.2054	38.0859	76.1962	38.0859	76.2548
39.5508	73.8607	39.5508	73.8656	39.5508	73.8603	39.5508	73.876	39.5508	73.8652	39.5508	73.8949	39.5508	73.8787	39.5508	73.9277	39.5508	73.9059	39.5508	73.9814	39.5508	73.9538	39.5508	74.0644	39.5508	74.0307	39.5508	74.1855	39.5508	74.1452	39.5508	74.3522	39.5508	74.3051	39.5508	74.5688	39.5508	74.5148	39.5508	74.8345	39.5508	74.7743	39.5508	75.142	39.5508	75.0769	39.5508	75.4771	39.5508	75.4097	39.5508	75.8198	39.5508	75.7535	39.5508	76.1461	39.5508	76.0852	39.5508	76.4307	39.5508	76.3798	39.5508	76.6503	39.5508	76.6136	39.5508	76.786	39.5508	76.7668	39.5508	76.826
41.0156	74.5776	41.0156	74.5825	41.0156	74.5782	41.0156	74.5937	41.0156	74.5854	41.0156	74.6138	41.0156	74.6018	41.0156	74.647	41.0156	74.6317	41.0156	74.6988	41.0156	74.6807	41.0156	74.7761	41.0156	74.7555	41.0156	74.8857	41.0156	74.8628	41.0156	75.0336	41.0156	75.0087	41.0156	75.2236	41.0156	75.1969	41.0156	75.4557	41.0156	75.4276	41.0156	75.7245	41.0156	75.6959	41.0156	76.0192	41.0156	75.9911	41.0156	76.3234	41.0156	76.2971	41.0156	76.6162	41.0156	76.5932	41.0156	76.8749	41.0156	76.8564	41.0156	77.0775	41.0156	77.0646	41.0156	77.2058	41.0156	77.1992	41.0156	77.2477
42.4805	75.1995	42.4805	75.2053	42.4805	75.2018	42.4805	75.2201	42.4805	75.213	42.4805	75.2458	42.4805	75.235	42.4805	75.2858	42.4805	75.271	42.4805	75.3443	42.4805	75.3252	42.4805	75.4268	42.4805	75.4031	42.4805	75.5389	42.4805	75.5103	42.4805	75.6855	42.4805	75.6518	42.4805	75.8699	42.4805	75.8312	42.4805	76.0919	42.4805	76.0489	42.4805	76.3469	42.4805	76.3006	42.4805	76.6249	42.4805	76.577	42.4805	76.9105	42.4805	76.8636	42.4805	77.1844	42.4805	77.1414	42.4805	77.4255	42.4805	77.3894	42.4805	77.613	42.4805	77.587	42.4805	77.73	42.4805	77.7164	42.4805	77.7656
43.9453	75.893	43.9453	75.9028	43.9453	75.8932	43.9453	75.923	43.9453	75.9037	43.9453	75.955	43.9453	75.9261	43.9453	76.0011	43.9453	75.9627	43.9453	76.0646	43.9453	76.0169	43.9453	76.1494	43.9453	76.0925	43.9453	76.2595	43.9453	76.1941	43.9453	76.3987	43.9453	76.3258	43.9453	76.5692	43.9453	76.4904	43.9453	76.771	43.9453	76.6884	43.9453	77.0003	43.9453	76.9168	43.9453	77.2491	43.9453	77.1677	43.9453	77.5044	43.9453	77.4286	43.9453	77.7496	43.9453	77.683	43.9453	77.9654	43.9453	77.9116	43.9453	78.1331	43.9453	78.0952	43.9453	78.2367	43.9453	78.2171	43.9453	78.2658
45.4102	76.4369	45.4102	76.4514	45.4102	76.433	45.4102	76.4768	45.4102	76.4401	45.4102	76.5138	45.4102	76.4595	45.4102	76.564	45.4102	76.4929	45.4102	76.6296	45.4102	76.543	45.4102	76.7133	45.4102	76.6129	45.4102	76.8179	45.4102	76.7061	45.4102	76.9464	45.4102	76.8259	45.4102	77.1005	45.4102	76.9749	45.4102	77.2803	45.4102	77.1536	45.4102	77.4829	45.4102	77.3592	45.4102	77.7017	45.4102	77.5855	45.4102	77.9262	45.4102	77.8214	45.4102	78.1418	45.4102	78.0524	45.4102	78.3317	45.4102	78.2611	45.4102	78.4788	45.4102	78.4299	45.4102	78.5685	45.4102	78.5435	45.4102	78.5911
46.875	77.0381	46.875	77.0503	46.875	77.0373	46.875	77.0741	46.875	77.0484	46.875	77.11	46.875	77.0722	46.875	77.159	46.875	77.1098	46.875	77.2225	46.875	77.1631	46.875	77.3025	46.875	77.2344	46.875	77.4013	46.875	77.3263	46.875	77.5209	46.875	77.4411	46.875	77.6631	46.875	77.5809	46.875	77.828	46.875	77.7457	46.875	78.0133	46.875	77.9334	46.875	78.2136	46.875	78.1385	46.875	78.4195	46.875	78.3515	46.875	78.6181	46.875	78.5597	46.875	78.794	46.875	78.7475	46.875	78.9315	46.875	78.8991	46.875	79.0168	46.875	79.0001	46.875	79.0406
48.3398	77.6092	48.3398	77.6214	48.3398	77.6097	48.3398	77.6464	48.3398	77.6233	48.3398	77.6844	48.3398	77.6503	48.3398	77.7359	48.3398	77.6916	48.3398	77.8016	48.3398	77.7481	48.3398	77.8827	48.3398	77.8213	48.3398	77.9806	48.3398	77.9128	48.3398	78.0966	48.3398	78.0244	48.3398	78.2319	48.3398	78.1572	48.3398	78.3862	48.3398	78.3113	48.3398	78.5576	48.3398	78.4848	48.3398	78.7415	48.3398	78.673	48.3398	78.9299	48.3398	78.8679	48.3398	79.1115	48.3398	79.0582	48.3398	79.2726	48.3398	79.2301	48.3398	79.3987	48.3398	79.369	48.3398	79.477	48.3398	79.4617	48.3398	79.4989
51.2695	78.6824	51.2695	78.6958	51.2695	78.6829	51.2695	78.7228	51.2695	78.6974	51.2695	78.7632	51.2695	78.7258	51.2695	78.8164	51.2695	78.7679	51.2695	78.882	51.2695	78.8237	51.2695	78.9597	51.2695	78.893	51.2695	79.0494	51.2695	78.9761	51.2695	79.1512	51.2695	79.0733	51.2695	79.2652	51.2695	79.1849	51.2695	79.3909	51.2695	79.3105	51.2695	79.527	51.2695	79.4489	51.2695	79.6705	51.2695	79.597	51.2695	79.816	51.2695	79.7493	51.2695	79.9555	51.2695	79.898	51.2695	80.0788	51.2695	80.033	51.2695	80.1749	51.2695	80.1429	51.2695	80.2339	51.2695	80.2174	51.2695	80.2487
52.7344	79.2535	52.7344	79.2674	52.7344	79.2546	52.7344	79.2961	52.7344	79.2707	52.7344	79.3387	52.7344	79.3015	52.7344	79.3945	52.7344	79.3464	52.7344	79.4623	52.7344	79.4046	52.7344	79.5412	52.7344	79.4756	52.7344	79.6303	52.7344	79.5587	52.7344	79.7291	52.7344	79.6536	52.7344	79.837	52.7344	79.7601	52.7344	79.9534	52.7344	79.8775	52.7344	80.0774	52.7344	80.0047	52.7344	80.2064	52.7344	80.1392	52.7344	80.3362	52.7344	80.2764	52.7344	80.4603	52.7344	80.4096	52.7344	80.5701	52.7344	80.5302	52.7344	80.6559	52.7344	80.6283	52.7344	80.7087	52.7344	80.6946	52.7344	80.7223
54.1992	79.7055	54.1992	79.7198	54.1992	79.7065	54.1992	79.749	54.1992	79.7227	54.1992	79.7922	54.1992	79.7537	54.1992	79.848	54.1992	79.7986	54.1992	79.915	54.1992	79.8562	54.1992	79.9918	54.1992	79.9253	54.1992	80.0769	54.1992	80.005	54.1992	80.1695	54.1992	80.0943	54.1992	80.2687	54.1992	80.1925	54.1992	80.3738	54.1992	80.299	54.1992	80.4839	54.1992	80.4126	54.1992	80.5971	54.1992	80.5314	54.1992	80.7101	54.1992	80.6519	54.1992	80.8176	54.1992	80.7684	54.1992	80.9125	54.1992	80.8739	54.1992	80.9865	54.1992	80.9599	54.1992	81.0319	54.1992	81.0182	54.1992	81.043
55.6641	80.1771	55.6641	80.192	55.6641	80.1767	55.6641	80.2208	55.6641	80.1906	55.6641	80.2625	55.6641	80.2182	55.6641	80.3155	55.6641	80.2584	55.6641	80.378	55.6641	80.3098	55.6641	80.4482	55.6641	80.3708	55.6641	80.5243	55.6641	80.44	55.6641	80.6051	55.6641	80.5164	55.6641	80.6894	55.6641	80.599	55.6641	80.7766	55.6641	80.6872	55.6641	80.8661	55.6641	80.7803	55.6641	80.9566	55.6641	80.877	55.6641	81.0459	55.6641	80.975	55.6641	81.1304	55.6641	81.0702	55.6641	81.2045	55.6641	81.1572	55.6641	81.2617	55.6641	81.229	55.6641	81.2957	55.6641	81.279	55.6641	81.3019
58.5938	81.0819	58.5938	81.0939	58.5938	81.0853	58.5938	81.1209	58.5938	81.1041	58.5938	81.1616	58.5938	81.1371	58.5938	81.2141	58.5938	81.183	58.5938	81.2761	58.5938	81.2395	58.5938	81.3452	58.5938	81.3046	58.5938	81.419	58.5938	81.376	58.5938	81.4953	58.5938	81.4517	58.5938	81.5727	58.5938	81.5302	58.5938	81.6499	58.5938	81.6101	58.5938	81.7263	58.5938	81.6904	58.5938	81.8011	58.5938	81.7701	58.5938	81.8732	58.5938	81.8475	58.5938	81.9404	58.5938	81.9201	58.5938	81.9995	58.5938	81.9843	58.5938	82.0459	58.5938	82.0359	58.5938	82.0751	58.5938	82.0701	58.5938	82.0836
60.0586	81.4559	60.0586	81.4673	60.0586	81.4594	60.0586	81.4931	60.0586	81.4776	60.0586	81.5318	60.0586	81.5092	60.0586	81.5815	60.0586	81.5527	60.0586	81.6395	60.0586	81.6055	60.0586	81.7032	60.0586	81.6653	60.0586	81.7697	60.0586	81.7293	60.0586	81.8369	60.0586	81.7954	60.0586	81.9027	60.0586	81.8617	60.0586	81.9662	60.0586	81.927	60.0586	82.0266	60.0586	81.9904	60.0586	82.0838	60.0586	82.0515	60.0586	82.1374	60.0586	82.1096	60.0586	82.1865	60.0586	82.1636	60.0586	82.229	60.0586	82.2114	60.0586	82.2621	60.0586	82.2501	60.0586	82.2824	60.0586	82.2763	60.0586	82.2874
62.9883	82.2997	62.9883	82.3094	62.9883	82.3048	62.9883	82.3334	62.9883	82.3244	62.9883	82.37	62.9883	82.3572	62.9883	82.4171	62.9883	82.4012	62.9883	82.4716	62.9883	82.4535	62.9883	82.5304	62.9883	82.5112	62.9883	82.5904	62.9883	82.5713	62.9883	82.6488	62.9883	82.6309	62.9883	82.7033	62.9883	82.6878	62.9883	82.7526	62.9883	82.7404	62.9883	82.7964	62.9883	82.7878	62.9883	82.8349	62.9883	82.8299	62.9883	82.8688	62.9883	82.867	62.9883	82.8987	62.9883	82.8991	62.9883	82.9244	62.9883	82.926	62.9883	82.9448	62.9883	82.9466	62.9883	82.9584	62.9883	82.9595	62.9883	82.9636
64.4531	82.614	64.4531	82.6197	64.4531	82.6231	64.4531	82.6397	64.4531	82.6466	64.4531	82.6728	64.4531	82.6832	64.4531	82.7167	64.4531	82.7306	64.4531	82.7686	64.4531	82.7862	64.4531	82.8255	64.4531	82.8467	64.4531	82.8841	64.4531	82.909	64.4531	82.9414	64.4531	82.97	64.4531	82.9951	64.4531	83.0269	64.4531	83.0434	64.4531	83.078	64.4531	83.0859	64.4531	83.1222	64.4531	83.1225	64.4531	83.1591	64.4531	83.154	64.4531	83.1892	64.4531	83.1812	64.4531	83.213	64.4531	83.2047	64.4531	83.231	64.4531	83.2242	64.4531	83.2429	64.4531	83.2387	64.4531	83.2485	64.4531	83.247
67.3828	83.2188	67.3828	83.2199	67.3828	83.2336	67.3828	83.2367	67.3828	83.2636	67.3828	83.2679	67.3828	83.3071	67.3828	83.311	67.3828	83.3615	67.3828	83.3631	67.3828	83.4234	67.3828	83.4205	67.3828	83.4891	67.3828	83.4796	67.3828	83.5544	67.3828	83.5366	67.3828	83.6157	67.3828	83.5884	67.3828	83.6697	67.3828	83.6328	67.3828	83.7141	67.3828	83.6687	67.3828	83.7476	67.3828	83.6961	67.3828	83.7703	67.3828	83.7163	67.3828	83.7833	67.3828	83.7311	67.3828	83.7884	67.3828	83.7425	67.3828	83.7878	67.3828	83.7522	67.3828	83.7836	67.3828	83.7611	67.3828	83.7772	67.3828	83.7695
68.8477	83.4497	68.8477	83.4519	68.8477	83.4641	68.8477	83.4704	68.8477	83.4945	68.8477	83.5037	68.8477	83.5391	68.8477	83.5492	68.8477	83.5952	68.8477	83.6037	68.8477	83.6592	68.8477	83.6634	68.8477	83.7272	68.8477	83.7241	68.8477	83.7947	68.8477	83.7819	68.8477	83.8578	68.8477	83.8334	68.8477	83.9127	68.8477	83.8762	68.8477	83.957	68.8477	83.9092	68.8477	83.9891	68.8477	83.9325	68.8477	84.0091	68.8477	83.9475	68.8477	84.0182	68.8477	83.9568	68.8477	84.0185	68.8477	83.9632	68.8477	84.0128	68.8477	83.9689	68.8477	84.0038	68.8477	83.9756	68.8477	83.9937	68.8477	83.9839
71.7773	83.8898	71.7773	83.8923	71.7773	83.9026	71.7773	83.9096	71.7773	83.9302	71.7773	83.9401	71.7773	83.971	71.7773	83.9812	71.7773	84.0223	71.7773	84.0294	71.7773	84.0805	71.7773	84.0809	71.7773	84.1413	71.7773	84.1313	71.7773	84.2004	71.7773	84.1767	71.7773	84.2532	71.7773	84.2136	71.7773	84.2959	71.7773	84.2394	71.7773	84.3254	71.7773	84.2532	71.7773	84.3404	71.7773	84.2554	71.7773	84.3408	71.7773	84.2485	71.7773	84.3286	71.7773	84.2362	71.7773	84.3071	71.7773	84.2229	71.7773	84.2807	71.7773	84.2132	71.7773	84.2542	71.7773	84.2105	71.7773	84.2317	71.7773	84.2166
74.707	84.3963	74.707	84.4025	74.707	84.4052	74.707	84.4232	74.707	84.4288	74.707	84.4564	74.707	84.4657	74.707	84.4995	74.707	84.513	74.707	84.5488	74.707	84.5674	74.707	84.6	74.707	84.6245	74.707	84.6487	74.707	84.6795	74.707	84.6904	74.707	84.7277	74.707	84.7214	74.707	84.7648	74.707	84.7389	74.707	84.7877	74.707	84.742	74.707	84.7946	74.707	84.7314	74.707	84.7857	74.707	84.7101	74.707	84.7632	74.707	84.6827	74.707	84.7312	74.707	84.6549	74.707	84.6953	74.707	84.6325	74.707	84.6616	74.707	84.6202	74.707	84.6355	74.707	84.6211
77.6367	84.7484	77.6367	84.7629	77.6367	84.7478	77.6367	84.7904	77.6367	84.761	77.6367	84.8288	77.6367	84.7869	77.6367	84.8751	77.6367	84.823	77.6367	84.9252	77.6367	84.8661	77.6367	84.9748	77.6367	84.9118	77.6367	85.0188	77.6367	84.9557	77.6367	85.0526	77.6367	84.9928	77.6367	85.072	77.6367	85.0186	77.6367	85.0744	77.6367	85.0296	77.6367	85.0586	77.6367	85.024	77.6367	85.0259	77.6367	85.002	77.6367	84.9801	77.6367	84.9659	77.6367	84.9272	77.6367	84.9208	77.6367	84.8747	77.6367	84.8735	77.6367	84.8305	77.6367	84.8317	77.6367	84.8014	77.6367	84.8027	77.6367	84.7917
79.1016	84.7992	79.1016	84.8145	79.1016	84.7979	79.1016	84.8428	79.1016	84.8106	79.1016	84.8821	79.1016	84.8359	79.1016	84.9291	79.1016	84.8714	79.1016	84.9798	79.1016	84.9137	79.1016	85.0292	79.1016	84.9585	79.1016	85.0725	79.1016	85.0011	79.1016	85.1045	79.1016	85.0364	79.1016	85.121	79.1016	85.0598	79.1016	85.1192	79.1016	85.0679	79.1016	85.098	79.1016	85.0584	79.1016	85.059	79.1016	85.0317	79.1016	85.0062	79.1016	84.9903	79.1016	84.9462	79.1016	84.9394	79.1016	84.8871	79.1016	84.8864	79.1016	84.8377	79.1016	84.8397	79.1016	84.8054	79.1016	84.8072	79.1016	84.7948
82.0312	84.9015	82.0312	84.9087	82.0312	84.9084	82.0312	84.9295	82.0312	84.9288	82.0312	84.962	82.0312	84.961	82.0312	85.0033	82.0312	85.002	82.0312	85.0492	82.0312	85.0482	82.0312	85.0948	82.0312	85.095	82.0312	85.1347	82.0312	85.1375	82.0312	85.1635	82.0312	85.1707	82.0312	85.1765	82.0312	85.19	82.0312	85.1707	82.0312	85.1919	82.0312	85.1452	82.0312	85.1744	82.0312	85.1016	82.0312	85.138	82.0312	85.0445	82.0312	85.0857	82.0312	84.9811	82.0312	85.023	82.0312	84.9202	82.0312	84.9581	82.0312	84.8711	82.0312	84.8998	82.0312	84.8416	82.0312	84.8571	82.0312	84.8366
84.9609	85.097	84.9609	85.0894	84.9609	85.1188	84.9609	85.0963	84.9609	85.1536	84.9609	85.1163	84.9609	85.1992	84.9609	85.147	84.9609	85.2523	84.9609	85.1846	84.9609	85.3087	84.9609	85.2244	84.9609	85.3635	84.9609	85.261	84.9609	85.4116	84.9609	85.2889	84.9609	85.448	84.9609	85.3033	84.9609	85.468	84.9609	85.3008	84.9609	85.4682	84.9609	85.2803	84.9609	85.4471	84.9609	85.2433	84.9609	85.4049	84.9609	85.1941	84.9609	85.3449	84.9609	85.1398	84.9609	85.273	84.9609	85.0889	84.9609	85.1972	84.9609	85.0505	84.9609	85.1271	84.9609	85.0323	84.9609	85.0721	84.9609	85.0393
87.8906	84.9479	87.8906	84.9511	87.8906	84.9617	87.8906	84.9706	87.8906	84.992	87.8906	85.0049	87.8906	85.037	87.8906	85.0511	87.8906	85.0938	87.8906	85.1054	87.8906	85.1581	87.8906	85.163	87.8906	85.2246	87.8906	85.2187	87.8906	85.2871	87.8906	85.267	87.8906	85.3392	87.8906	85.3025	87.8906	85.375	87.8906	85.3211	87.8906	85.3897	87.8906	85.3199	87.8906	85.3806	87.8906	85.2986	87.8906	85.348	87.8906	85.2593	87.8906	85.2956	87.8906	85.2073	87.8906	85.2306	87.8906	85.1506	87.8906	85.163	87.8906	85.0991	87.8906	85.1042	87.8906	85.0629	87.8906	85.0643	87.8906	85.0501
90.8203	85.0465	90.8203	85.0643	90.8203	85.0405	90.8203	85.0935	90.8203	85.0457	90.8203	85.1327	90.8203	85.0603	90.8203	85.1797	90.8203	85.082	90.8203	85.231	90.8203	85.1071	90.8203	85.2818	90.8203	85.1312	90.8203	85.3269	90.8203	85.1493	90.8203	85.36	90.8203	85.1564	90.8203	85.3753	90.8203	85.1478	90.8203	85.3678	90.8203	85.1206	90.8203	85.3339	90.8203	85.074	90.8203	85.273	90.8203	85.0102	90.8203	85.1878	90.8203	84.9347	90.8203	85.085	90.8203	84.8563	90.8203	84.9753	90.8203	84.7862	90.8203	84.8716	90.8203	84.7364	90.8203	84.7875	90.8203	84.7169	90.8203	84.7339
95.2148	84.984	95.2148	85.0082	95.2148	84.9699	95.2148	85.0414	95.2148	84.9669	95.2148	85.0816	95.2148	84.9751	95.2148	85.1262	95.2148	84.9939	95.2148	85.1719	95.2148	85.0213	95.2148	85.2147	95.2148	85.0544	95.2148	85.2498	95.2148	85.0886	95.2148	85.2719	95.2148	85.1184	95.2148	85.2763	95.2148	85.1377	95.2148	85.259	95.2148	85.1409	95.2148	85.2181	95.2148	85.124	95.2148	85.1545	95.2148	85.0852	95.2148	85.0727	95.2148	85.0266	95.2148	84.9809	95.2148	84.9542	95.2148	84.8903	95.2148	84.8778	95.2148	84.8137	95.2148	84.8097	95.2148	84.7627	95.2148	84.7621	95.2148	84.7449
98.1445	84.9787	98.1445	84.9954	98.1445	84.9696	98.1445	85.0188	98.1445	84.9684	98.1445	85.0474	98.1445	84.9747	98.1445	85.079	98.1445	84.9874	98.1445	85.1102	98.1445	85.0044	98.1445	85.137	98.1445	85.0225	98.1445	85.1546	98.1445	85.0374	98.1445	85.1578	98.1445	85.0442	98.1445	85.1418	98.1445	85.0375	98.1445	85.103	98.1445	85.0125	98.1445	85.0398	98.1445	84.9661	98.1445	84.9538	98.1445	84.898	98.1445	84.8503	98.1445	84.8114	98.1445	84.7384	98.1445	84.714	98.1445	84.6304	98.1445	84.6168	98.1445	84.5398	98.1445	84.5334	98.1445	84.4793	98.1445	84.477	98.1445	84.4575
101.074	84.7696	101.074	84.7879	101.074	84.7593	101.074	84.8136	101.074	84.7573	101.074	84.8452	101.074	84.7628	101.074	84.8806	101.074	84.7747	101.074	84.9165	101.074	84.7904	101.074	84.9485	101.074	84.8066	101.074	84.9714	101.074	84.8186	101.074	84.9796	101.074	84.8212	101.074	84.9674	101.074	84.809	101.074	84.9307	101.074	84.7776	101.074	84.8676	101.074	84.7244	101.074	84.7791	101.074	84.6499	101.074	84.6705	101.074	84.5584	101.074	84.5508	101.074	84.4582	101.074	84.4325	101.074	84.3614	101.074	84.3299	101.074	84.2817	101.074	84.2568	101.074	84.2324	101.074	84.223
105.469	84.7069	105.469	84.7091	105.469	84.7101	105.469	84.7164	105.469	84.7185	105.469	84.7279	105.469	84.7312	105.469	84.7419	105.469	84.7469	105.469	84.7557	105.469	84.7632	105.469	84.7655	105.469	84.7768	105.469	84.7667	105.469	84.7834	105.469	84.7541	105.469	84.7782	105.469	84.7227	105.469	84.7559	105.469	84.6688	105.469	84.7121	105.469	84.5909	105.469	84.6438	105.469	84.4904	105.469	84.5509	105.469	84.3729	105.469	84.4373	105.469	84.2481	105.469	84.311	105.469	84.1297	105.469	84.1846	105.469	84.0331	105.469	84.0739	105.469	83.9729	105.469	83.9947	105.469	83.9591
108.398	84.6703	108.398	84.6721	108.398	84.6744	108.398	84.6803	108.398	84.6834	108.398	84.6948	108.398	84.6962	108.398	84.7144	108.398	84.7111	108.398	84.737	108.398	84.7256	108.398	84.7587	108.398	84.7366	108.398	84.7743	108.398	84.74	108.398	84.7778	108.398	84.7311	108.398	84.7629	108.398	84.7053	108.398	84.7242	108.398	84.6588	108.398	84.6584	108.398	84.5893	108.398	84.5657	108.398	84.4974	108.398	84.4505	108.398	84.3876	108.398	84.3225	108.398	84.2686	108.398	84.1953	108.398	84.1532	108.398	84.0854	108.398	84.0567	108.398	84.0088	108.398	83.9942	108.398	83.9769
112.793	84.6628	112.793	84.6697	112.793	84.6565	112.793	84.6772	112.793	84.651	112.793	84.6853	112.793	84.6462	112.793	84.6931	112.793	84.6417	112.793	84.6993	112.793	84.6364	112.793	84.701	112.793	84.628	112.793	84.6942	112.793	84.6129	112.793	84.6736	112.793	84.5866	112.793	84.6339	112.793	84.544	112.793	84.5703	112.793	84.4807	112.793	84.4801	112.793	84.3942	112.793	84.3644	112.793	84.2853	112.793	84.2283	112.793	84.1589	112.793	84.0823	112.793	84.0247	112.793	83.9408	112.793	83.8966	112.793	83.8206	112.793	83.7907	112.793	83.7376	112.793	83.7226	112.793	83.7035
117.188	84.5561	117.188	84.5547	117.188	84.5537	117.188	84.5496	117.188	84.5472	117.188	84.541	117.188	84.5366	117.188	84.5286	117.188	84.5214	117.188	84.5114	117.188	84.5005	117.188	84.4872	117.188	84.4719	117.188	84.4527	117.188	84.4328	117.188	84.4036	117.188	84.3794	117.188	84.3351	117.188	84.3075	117.188	84.2434	117.188	84.2139	117.188	84.1267	117.188	84.0969	117.188	83.9864	117.188	83.958	117.188	83.8285	117.188	83.803	117.188	83.6638	117.188	83.6423	117.188	83.5076	117.188	83.4908	117.188	83.3773	117.188	83.3658	117.188	83.2898	117.188	83.2839	117.188	83.2571
120.117	84.4756	120.117	84.4615	120.117	84.4864	120.117	84.4441	120.117	84.4935	120.117	84.423	120.117	84.4962	120.117	84.3973	120.117	84.4932	120.117	84.3654	120.117	84.4821	120.117	84.3244	120.117	84.4595	120.117	84.2708	120.117	84.4213	120.117	84.2001	120.117	84.3624	120.117	84.1084	120.117	84.2782	120.117	83.9923	120.117	84.1651	120.117	83.8514	120.117	84.0218	120.117	83.6886	120.117	83.8506	120.117	83.5114	120.117	83.659	120.117	83.3323	120.117	83.4592	120.117	83.168	120.117	83.2685	120.117	83.0372	120.117	83.1068	120.117	82.9575	120.117	82.9931	120.117	82.9415
124.512	84.1488	124.512	84.1419	124.512	84.1576	124.512	84.1367	124.512	84.1684	124.512	84.1323	124.512	84.1806	124.512	84.1274	124.512	84.1929	124.512	84.1192	124.512	84.2028	124.512	84.1043	124.512	84.2062	124.512	84.0776	124.512	84.1978	124.512	84.0337	124.512	84.1715	124.512	83.9674	124.512	84.1211	124.512	83.8753	124.512	84.0416	124.512	83.7565	124.512	83.9306	124.512	83.6143	124.512	83.7895	124.512	83.4569	124.512	83.6246	124.512	83.2969	124.512	83.4477	124.512	83.1509	124.512	83.2749	124.512	83.0368	124.512	83.1251	124.512	82.9705	124.512	83.0164	124.512	82.9628
128.906	83.8208	128.906	83.829	128.906	83.813	128.906	83.8371	128.906	83.8067	128.906	83.8447	128.906	83.8033	128.906	83.8515	128.906	83.8036	128.906	83.8563	128.906	83.8072	128.906	83.8567	128.906	83.812	128.906	83.8489	128.906	83.8137	128.906	83.8278	128.906	83.8062	128.906	83.7879	128.906	83.7827	128.906	83.7247	128.906	83.7368	128.906	83.6358	128.906	83.6647	128.906	83.523	128.906	83.5658	128.906	83.3924	128.906	83.4446	128.906	83.2553	128.906	83.3106	128.906	83.1267	128.906	83.1777	128.906	83.0229	128.906	83.0622	128.906	82.9587	128.906	82.9801	128.906	82.9437
133.301	83.7245	133.301	83.7437	133.301	83.7013	133.301	83.7582	133.301	83.6752	133.301	83.7681	133.301	83.6477	133.301	83.7731	133.301	83.6204	133.301	83.7725	133.301	83.5941	133.301	83.7642	133.301	83.568	133.301	83.745	133.301	83.5398	133.301	83.7105	133.301	83.5049	133.301	83.656	133.301	83.4578	133.301	83.5775	133.301	83.3933	133.301	83.4733	133.301	83.3079	133.301	83.3452	133.301	83.2017	133.301	83.1995	133.301	83.0796	133.301	83.0468	133.301	82.9511	133.301	82.9014	133.301	82.83	133.301	82.779	133.301	82.7316	133.301	82.6941	133.301	82.6705	133.301	82.6567
139.16	83.4805	139.16	83.496	139.16	83.4594	139.16	83.5066	139.16	83.4327	139.16	83.5133	139.16	83.4017	139.16	83.5174	139.16	83.3677	139.16	83.5188	139.16	83.3317	139.16	83.5158	139.16	83.2938	139.16	83.5049	139.16	83.2524	139.16	83.4806	139.16	83.2043	139.16	83.4366	139.16	83.1451	139.16	83.3672	139.16	83.0705	139.16	83.2693	139.16	82.9782	139.16	83.1433	139.16	82.8688	139.16	82.9948	139.16	82.7473	139.16	82.8345	139.16	82.6235	139.16	82.6771	139.16	82.5108	139.16	82.5394	139.16	82.4246	139.16	82.4371	139.16	82.3785	139.16	82.3818
143.555	83.3415	143.555	83.3266	143.555	83.3475	143.555	83.3043	143.555	83.3442	143.555	83.2773	143.555	83.3327	143.555	83.2483	143.555	83.3144	143.555	83.2193	143.555	83.2905	143.555	83.1906	143.555	83.2611	143.555	83.1602	143.555	83.2248	143.555	83.1243	143.555	83.1787	143.555	83.0775	143.555	83.1189	143.555	83.0147	143.555	83.0419	143.555	82.9329	143.555	82.9461	143.555	82.8319	143.555	82.8329	143.555	82.716	143.555	82.7077	143.555	82.594	143.555	82.5801	143.555	82.4778	143.555	82.4624	143.555	82.3806	143.555	82.3677	143.555	82.3148	143.555	82.3075	143.555	82.2892
147.949	83.3211	147.949	83.3041	147.949	83.3191	147.949	83.269	147.949	83.299	147.949	83.2185	147.949	83.2637	147.949	83.1564	147.949	83.2165	147.949	83.0865	147.949	83.1608	147.949	83.0113	147.949	83.0981	147.949	82.9315	147.949	83.0282	147.949	82.8453	147.949	82.9484	147.949	82.7496	147.949	82.8552	147.949	82.6411	147.949	82.745	147.949	82.5181	147.949	82.6163	147.949	82.382	147.949	82.4712	147.949	82.2386	147.949	82.316	147.949	82.0975	147.949	82.1612	147.949	81.971	147.949	82.0197	147.949	81.8718	147.949	81.9047	147.949	81.8109	147.949	81.8274	147.949	81.7953
153.809	83.1314	153.809	83.1309	153.809	83.1139	153.809	83.1128	153.809	83.0792	153.809	83.0784	153.809	83.0297	153.809	83.0298	153.809	82.9682	153.809	82.9684	153.809	82.8975	153.809	82.8947	153.809	82.8194	153.809	82.8075	153.809	82.7338	153.809	82.7045	153.809	82.6384	153.809	82.5822	153.809	82.5293	153.809	82.4384	153.809	82.4022	153.809	82.2729	153.809	82.2543	153.809	82.0897	153.809	82.0868	153.809	81.8972	153.809	81.9058	153.809	81.7086	153.809	81.7232	153.809	81.5394	153.809	81.5547	153.809	81.4056	153.809	81.4177	153.809	81.3208	153.809	81.3273	153.809	81.2937
159.668	83.0439	159.668	83.0399	159.668	83.0301	159.668	83.0196	159.668	82.9986	159.668	82.9854	159.668	82.9509	159.668	82.9404	159.668	82.8894	159.668	82.8865	159.668	82.8165	159.668	82.8242	159.668	82.7339	159.668	82.7516	159.668	82.6421	159.668	82.6649	159.668	82.5399	159.668	82.5597	159.668	82.4251	159.668	82.4325	159.668	82.2959	159.668	82.283	159.668	82.1517	159.668	82.1151	159.668	81.9954	159.668	81.9374	159.668	81.8335	159.668	81.7622	159.668	81.6766	159.668	81.6037	159.668	81.5379	159.668	81.4756	159.668	81.4307	159.668	81.3891	159.668	81.3663	159.668	81.3518
165.527	82.9285	165.527	82.9118	165.527	82.9274	165.527	82.8788	165.527	82.9091	165.527	82.8326	165.527	82.876	165.527	82.7775	165.527	82.8315	165.527	82.7171	165.527	82.7785	165.527	82.6536	165.527	82.7184	165.527	82.5862	165.527	82.6504	165.527	82.5116	165.527	82.5712	165.527	82.4246	165.527	82.4764	165.527	82.3205	165.527	82.3622	165.527	82.1969	165.527	82.2274	165.527	82.056	165.527	82.0752	165.527	81.9047	165.527	81.9137	165.527	81.7543	165.527	81.7554	165.527	81.6184	165.527	81.6145	165.527	81.5099	165.527	81.5045	165.527	81.4393	165.527	81.4357	165.527	81.4136
171.387	82.7333	171.387	82.6985	171.387	82.7429	171.387	82.6399	171.387	82.7285	171.387	82.5613	171.387	82.6938	171.387	82.4684	171.387	82.6438	171.387	82.3675	171.387	82.5835	171.387	82.2636	171.387	82.5161	171.387	82.1594	171.387	82.4426	171.387	82.0547	171.387	82.3609	171.387	81.9472	171.387	82.2668	171.387	81.8342	171.387	82.1561	171.387	81.7146	171.387	82.0269	171.387	81.5911	171.387	81.8813	171.387	81.4697	171.387	81.7261	171.387	81.3593	171.387	81.5723	171.387	81.2694	171.387	81.4322	171.387	81.2078	171.387	81.317	171.387	81.1799	171.387	81.2344	171.387	81.1884
177.246	82.5962	177.246	82.5937	177.246	82.5688	177.246	82.5605	177.246	82.5148	177.246	82.4983	177.246	82.4402	177.246	82.4108	177.246	82.3528	177.246	82.3024	177.246	82.2607	177.246	82.1773	177.246	82.1701	177.246	82.0389	177.246	82.0844	177.246	81.8893	177.246	82.0024	177.246	81.7302	177.246	81.9191	177.246	81.5637	177.246	81.828	177.246	81.3945	177.246	81.7235	177.246	81.2307	177.246	81.6037	177.246	81.0834	177.246	81.4714	177.246	80.9649	177.246	81.3336	177.246	80.8849	177.246	81.1994	177.246	80.8484	177.246	81.0775	177.246	80.8548	177.246	80.9754	177.246	80.8991
183.105	82.3584	183.105	82.3743	183.105	82.3106	183.105	82.3593	183.105	82.2328	183.105	82.3164	183.105	82.1296	183.105	82.2499	183.105	82.0081	183.105	82.1639	183.105	81.8763	183.105	82.0615	183.105	81.7423	183.105	81.9438	183.105	81.612	183.105	81.8099	183.105	81.4882	183.105	81.6585	183.105	81.37	183.105	81.4894	183.105	81.2543	183.105	81.3063	183.105	81.1379	183.105	81.118	183.105	81.0202	183.105	80.9382	183.105	80.9043	183.105	80.7822	183.105	80.7966	183.105	80.6631	183.105	80.7037	183.105	80.5869	183.105	80.6304	183.105	80.5518	183.105	80.579	183.105	80.5514
188.965	82.2759	188.965	82.2855	188.965	82.2282	188.965	82.2605	188.965	82.1417	188.965	82.2073	188.965	82.0196	188.965	82.1331	188.965	81.8681	188.965	82.0446	188.965	81.696	188.965	81.9459	188.965	81.5129	188.965	81.8379	188.965	81.328	188.965	81.718	188.965	81.1479	188.965	81.582	188.965	80.976	188.965	81.4264	188.965	80.8129	188.965	81.2512	188.965	80.659	188.965	81.0616	188.965	80.5165	188.965	80.8682	188.965	80.391	188.965	80.6845	188.965	80.2907	188.965	80.5231	188.965	80.2228	188.965	80.3923	188.965	80.1909	188.965	80.2947	188.965	80.1939	188.965	80.229
196.289	82.3247	196.289	82.287	196.289	82.3188	196.289	82.2107	196.289	82.2678	196.289	82.1033	196.289	82.1731	196.289	81.9745	196.289	82.039	196.289	81.834	196.289	81.8718	196.289	81.69	196.289	81.6795	196.289	81.5472	196.289	81.4709	196.289	81.4062	196.289	81.2546	196.289	81.2646	196.289	81.0385	196.289	81.1195	196.289	80.8292	196.289	80.9699	196.289	80.6334	196.289	80.8183	196.289	80.4578	196.289	80.6703	196.289	80.3104	196.289	80.5326	196.289	80.1991	196.289	80.4101	196.289	80.1294	196.289	80.3055	196.289	80.102	196.289	80.2196	196.289	80.1126	196.289	80.154
203.613	82.275	203.613	82.2132	203.613	82.2854	203.613	82.1029	203.613	82.2447	203.613	81.9506	203.613	82.1558	203.613	81.766	203.613	82.0235	203.613	81.561	203.613	81.8532	203.613	81.3476	203.613	81.6511	203.613	81.1353	203.613	81.4232	203.613	80.9295	203.613	81.1758	203.613	80.7318	203.613	80.9157	203.613	80.5421	203.613	80.6516	203.613	80.3625	203.613	80.3951	203.613	80.199	203.613	80.1607	203.613	80.0596	203.613	79.9647	203.613	79.9506	203.613	79.8208	203.613	79.8716	203.613	79.7348	203.613	79.8154	203.613	79.7019	203.613	79.7719	203.613	79.7076	203.613	79.735
210.938	82.2469	210.938	82.1832	210.938	82.2648	210.938	82.0736	210.938	82.2391	210.938	81.9199	210.938	82.1734	210.938	81.7262	210.938	82.0722	210.938	81.499	210.938	81.9396	210.938	81.2463	210.938	81.7787	210.938	80.9774	210.938	81.5915	210.938	80.7024	210.938	81.3783	210.938	80.4311	210.938	81.1402	210.938	80.1743	210.938	80.8807	210.938	79.9432	210.938	80.6081	210.938	79.75	210.938	80.3365	210.938	79.6047	210.938	80.0849	210.938	79.5113	210.938	79.8719	210.938	79.4654	210.938	79.71	210.938	79.4548	210.938	79.6001	210.938	79.466	210.938	79.532	210.938	79.4911
218.262	81.8734	218.262	81.861	218.262	81.8456	218.262	81.8063	218.262	81.7822	218.262	81.7097	218.262	81.6897	218.262	81.5737	218.262	81.5751	218.262	81.4017	218.262	81.4448	218.262	81.1977	218.262	81.3032	218.262	80.9651	218.262	81.152	218.262	80.7078	218.262	80.9903	218.262	80.4316	218.262	80.8162	218.262	80.1473	218.262	80.6286	218.262	79.8726	218.262	80.4295	218.262	79.6316	218.262	80.2262	218.262	79.4492	218.262	80.0306	218.262	79.3409	218.262	79.856	218.262	79.3053	218.262	79.7123	218.262	79.3248	218.262	79.6007	218.262	79.3759	218.262	79.5137	218.262	79.4408
225.586	81.9559	225.586	81.9794	225.586	81.8758	225.586	81.9475	225.586	81.7421	225.586	81.8644	225.586	81.5622	225.586	81.7364	225.586	81.3477	225.586	81.5704	225.586	81.113	225.586	81.3728	225.586	80.8729	225.586	81.1488	225.586	80.64	225.586	80.9023	225.586	80.4236	225.586	80.6376	225.586	80.2297	225.586	80.3627	225.586	80.063	225.586	80.0932	225.586	79.9285	225.586	79.8532	225.586	79.8311	225.586	79.6714	225.586	79.7732	225.586	79.5686	225.586	79.7506	225.586	79.5465	225.586	79.7508	225.586	79.5845	225.586	79.7552	225.586	79.6491	225.586	79.745	225.586	79.7088
232.91	82.0909	232.91	82.0766	232.91	82.048	232.91	82.0092	232.91	81.9462	232.91	81.8948	232.91	81.7872	232.91	81.7402	232.91	81.5752	232.91	81.5512	232.91	81.3167	232.91	81.3317	232.91	81.0197	232.91	81.0827	232.91	80.6928	232.91	80.8037	232.91	80.3452	232.91	80.495	232.91	79.9887	232.91	80.1628	232.91	79.6404	232.91	79.8243	232.91	79.3253	232.91	79.5095	232.91	79.0742	232.91	79.2562	232.91	78.9138	232.91	79.0939	232.91	78.8531	232.91	79.026	232.91	78.8751	232.91	79.0248	232.91	78.9413	232.91	79.0448	232.91	79.0086	232.91	79.0458
241.699	81.7528	241.699	81.7126	241.699	81.7355	241.699	81.6174	241.699	81.6619	241.699	81.4734	241.699	81.5367	241.699	81.2893	241.699	81.3666	241.699	81.0744	241.699	81.1583	241.699	80.8364	241.699	80.9169	241.699	80.5798	241.699	80.6446	241.699	80.3055	241.699	80.3411	241.699	80.0136	241.699	80.0069	241.699	79.7066	241.699	79.6491	241.699	79.3956	241.699	79.2877	241.699	79.104	241.699	78.9578	241.699	78.8643	241.699	78.7031	241.699	78.706	241.699	78.5563	241.699	78.6367	241.699	78.5188	241.699	78.6333	241.699	78.5558	241.699	78.6521	241.699	78.6147	241.699	78.6519
250.488	81.9009	250.488	81.8767	250.488	81.8579	250.488	81.7875	250.488	81.7496	250.488	81.6393	250.488	81.5821	250.488	81.4414	250.488	81.3646	250.488	81.2044	250.488	81.109	250.488	80.9389	250.488	80.8277	250.488	80.6525	250.488	80.531	250.488	80.349	250.488	80.225	250.488	80.0282	250.488	79.9109	250.488	79.6894	250.488	79.588	250.488	79.3379	250.488	79.2604	250.488	78.9918	250.488	78.9438	250.488	78.6842	250.488	78.6663	250.488	78.4537	250.488	78.4591	250.488	78.3221	250.488	78.3389	250.488	78.2776	250.488	78.2942	250.488	78.2809	250.488	78.2903	250.488	78.2909
259.277	82.067	259.277	82.0201	259.277	82.0514	259.277	81.9137	259.277	81.9728	259.277	81.7524	259.277	81.8327	259.277	81.5426	259.277	81.6352	259.277	81.2907	259.277	81.3865	259.277	81.0027	259.277	81.0944	259.277	80.684	259.277	80.7681	259.277	80.3409	259.277	80.4163	259.277	79.9833	259.277	80.0465	259.277	79.6263	259.277	79.6668	259.277	79.2891	259.277	79.2906	259.277	78.9909	259.277	78.9424	259.277	78.7476	259.277	78.6556	259.277	78.5689	259.277	78.4592	259.277	78.4566	259.277	78.3601	259.277	78.4005	259.277	78.3358	259.277	78.3786	259.277	78.3483	259.277	78.3657
268.066	81.6312	268.066	81.5631	268.066	81.6277	268.066	81.4299	268.066	81.5497	268.066	81.2406	268.066	81.3983	268.066	81.0054	268.066	81.1778	268.066	80.7351	268.066	80.8946	268.066	80.4399	268.066	80.5562	268.066	80.1298	268.066	80.1721	268.066	79.814	268.066	79.7548	268.066	79.5029	268.066	79.3221	268.066	79.211	268.066	78.897	268.066	78.9588	268.066	78.5071	268.066	78.7684	268.066	78.1841	268.066	78.6531	268.066	77.9629	268.066	78.6054	268.066	77.8717	268.066	78.5953	268.066	77.9136	268.066	78.581	268.066	78.0556	268.066	78.5251	268.066	78.2399	268.066	78.4087
276.855	81.5727	276.855	81.5226	276.855	81.5729	276.855	81.4183	276.855	81.5283	276.855	81.2586	276.855	81.4417	276.855	81.0457	276.855	81.3117	276.855	80.7809	276.855	81.1325	276.855	80.4611	276.855	80.8962	276.855	80.0766	276.855	80.5958	276.855	79.6161	276.855	80.23	276.855	79.079	276.855	79.8102	276.855	78.4917	276.855	79.3664	276.855	77.9229	276.855	78.9484	276.855	77.4803	276.855	78.6129	276.855	77.268	276.855	78.3995	276.855	77.3156	276.855	78.3101	276.855	77.551	276.855	78.309	276.855	77.8514	276.855	78.3407	276.855	78.1125	276.855	78.3471	276.855	78.2801
287.109	81.4173	287.109	81.3962	287.109	81.3681	287.109	81.3066	287.109	81.2503	287.109	81.1522	287.109	81.0715	287.109	80.94	287.109	80.8451	287.109	80.682	287.109	80.5864	287.109	80.3969	287.109	80.3059	287.109	80.1047	287.109	80.0033	287.109	79.8179	287.109	79.6656	287.109	79.5341	287.109	79.2751	287.109	79.2408	287.109	78.8237	287.109	78.9315	287.109	78.3331	287.109	78.6235	287.109	77.867	287.109	78.3599	287.109	77.5211	287.109	78.1869	287.109	77.3745	287.109	78.1161	287.109	77.433	287.109	78.1068	287.109	77.6225	287.109	78.0895	287.109	77.8401	287.109	78.0066
297.363	81.6429	297.363	81.6868	297.363	81.5316	297.363	81.6599	297.363	81.362	297.363	81.5646	297.363	81.1441	297.363	81.4049	297.363	80.8842	297.363	81.1803	297.363	80.5828	297.363	80.8822	297.363	80.2375	297.363	80.4968	297.363	79.8489	297.363	80.0137	297.363	79.426	297.363	79.4392	297.363	78.988	297.363	78.811	297.363	78.5617	297.363	78.2055	297.363	78.179	297.363	77.7236	297.363	77.8765	297.363	77.4462	297.363	77.6929	297.363	77.3862	297.363	77.651	297.363	77.4872	297.363	77.7287	297.363	77.6633	297.363	77.8545	297.363	77.8344	297.363	77.943	297.363	77.9388
307.617	81.5875	307.617	81.5042	307.617	81.5978	307.617	81.3547	307.617	81.5345	307.617	81.1502	307.617	81.4041	307.617	80.905	307.617	81.2188	307.617	80.6328	307.617	80.9921	307.617	80.3417	307.617	80.7281	307.617	80.0301	307.617	80.4134	307.617	79.684	307.617	80.0164	307.617	79.283	307.617	79.5002	307.617	78.813	307.617	78.8489	307.617	78.288	307.617	78.0986	307.617	77.773	307.617	77.3632	307.617	77.3803	307.617	76.8156	307.617	77.2077	307.617	76.5919	307.617	77.2482	307.617	76.6832	307.617	77.3836	307.617	76.9518	307.617	77.4728	307.617	77.238	307.617	77.429
319.336	81.5009	319.336	81.4331	319.336	81.4753	319.336	81.2809	319.336	81.3522	319.336	81.0571	319.336	81.1357	319.336	80.775	319.336	80.8399	319.336	80.4451	319.336	80.4891	319.336	80.0702	319.336	80.1126	319.336	79.6423	319.336	79.7345	319.336	79.1458	319.336	79.3615	319.336	78.5673	319.336	78.9779	319.336	77.9147	319.336	78.5575	319.336	77.238	319.336	78.0882	319.336	76.6439	319.336	77.6002	319.336	76.272	319.336	77.1773	319.336	76.2117	319.336	76.9239	319.336	76.419	319.336	76.8855	319.336	76.7412	319.336	76.9974	319.336	77.0185	319.336	77.1265	319.336	77.153
329.59	80.8206	329.59	80.7725	329.59	80.8239	329.59	80.6889	329.59	80.7721	329.59	80.5768	329.59	80.656	329.59	80.4405	329.59	80.4724	329.59	80.2799	329.59	80.226	329.59	80.0869	329.59	79.9276	329.59	79.8429	329.59	79.5849	329.59	79.5203	329.59	79.1927	329.59	79.0899	329.59	78.7311	329.59	78.5356	329.59	78.1771	329.59	77.8778	329.59	77.5301	329.59	77.1993	329.59	76.8452	329.59	76.6494	329.59	76.2547	329.59	76.3756	329.59	75.9291	329.59	76.3984	329.59	75.9496	329.59	76.5792	329.59	76.2167	329.59	76.7305	329.59	76.5301	329.59	76.7247
341.309	80.8811	341.309	80.9038	341.309	80.7685	341.309	80.8256	341.309	80.5832	341.309	80.6468	341.309	80.3439	341.309	80.382	341.309	80.0677	341.309	80.0588	341.309	79.7722	341.309	79.7073	341.309	79.4791	341.309	79.3441	341.309	79.2119	341.309	78.9582	341.309	78.9829	341.309	78.5148	341.309	78.7786	341.309	77.977	341.309	78.5642	341.309	77.3399	341.309	78.3086	341.309	76.6687	341.309	78.0122	341.309	76.116	341.309	77.7173	341.309	75.8603	341.309	77.4844	341.309	75.9598	341.309	77.3441	341.309	76.2934	341.309	77.2645	341.309	76.6766	341.309	77.1683	341.309	76.9821
353.027	81.0533	353.027	80.9875	353.027	81.0198	353.027	80.8358	353.027	80.8861	353.027	80.6222	353.027	80.6619	353.027	80.3738	353.027	80.3589	353.027	80.1144	353.027	79.9823	353.027	79.857	353.027	79.5298	353.027	79.5981	353.027	78.9967	353.027	79.3147	353.027	78.384	353.027	78.9703	353.027	77.7027	353.027	78.531	353.027	76.977	353.027	77.9885	353.027	76.2596	353.027	77.3846	353.027	75.6566	353.027	76.826	353.027	75.32	353.027	76.4564	353.027	75.3515	353.027	76.3613	353.027	75.6882	353.027	76.4783	353.027	76.1351	353.027	76.636	353.027	76.4994	353.027	76.6707
366.211	81.2953	366.211	81.1571	366.211	81.3161	366.211	80.8993	366.211	81.228	366.211	80.5293	366.211	81.0433	366.211	80.068	366.211	80.7766	366.211	79.5518	366.211	80.4403	366.211	79.0289	366.211	80.0398	366.211	78.5481	366.211	79.5717	366.211	78.1377	366.211	79.0271	366.211	77.7878	366.211	78.3969	366.211	77.4528	366.211	77.6757	366.211	77.0803	366.211	76.8715	366.211	76.6514	366.211	76.033	366.211	76.2115	366.211	75.2921	366.211	75.8658	366.211	74.8555	366.211	75.7095	366.211	74.8505	366.211	75.73	366.211	75.1609	366.211	75.7962	366.211	75.5268	366.211	75.7548
379.395	81.7124	379.395	81.6947	379.395	81.632	379.395	81.5779	379.395	81.4581	379.395	81.3615	379.395	81.2026	379.395	81.0453	379.395	80.8868	379.395	80.6335	379.395	80.5388	379.395	80.1398	379.395	80.1842	379.395	79.5843	379.395	79.8305	379.395	78.9832	379.395	79.456	379.395	78.3399	379.395	79.0216	379.395	77.6584	379.395	78.4995	379.395	76.984	379.395	77.9055	379.395	76.4411	379.395	77.3121	379.395	76.1909	379.395	76.8281	379.395	76.2813	379.395	76.5444	379.395	76.5714	379.395	76.4842	379.395	76.8538	379.395	76.5987	379.395	76.9927	379.395	76.793	379.395	76.9563
392.578	81.2507	392.578	81.1821	392.578	81.2302	392.578	81.0393	392.578	81.1065	392.578	80.8339	392.578	80.8743	392.578	80.5721	392.578	80.5438	392.578	80.2552	392.578	80.1451	392.578	79.8831	392.578	79.7237	392.578	79.4573	392.578	79.3249	392.578	78.9809	392.578	78.9699	392.578	78.4545	392.578	78.6396	392.578	77.8756	392.578	78.2842	392.578	77.2569	392.578	77.8632	392.578	76.6685	392.578	77.3963	392.578	76.2647	392.578	76.9943	392.578	76.2056	392.578	76.8126	392.578	76.4903	392.578	76.9136	392.578	76.9305	392.578	77.1824	392.578	77.3064	392.578	77.4218	392.578	77.4822
405.762	81.6688	405.762	81.5888	405.762	81.6112	405.762	81.3821	405.762	81.4129	405.762	81.071	405.762	81.0736	405.762	80.6842	405.762	80.5967	405.762	80.2449	405.762	79.9964	405.762	79.7621	405.762	79.3078	405.762	79.2358	405.762	78.5924	405.762	78.6687	405.762	77.9301	405.762	78.0695	405.762	77.3905	405.762	77.4499	405.762	77.0016	405.762	76.8337	405.762	76.7531	405.762	76.2875	405.762	76.6339	405.762	75.9382	405.762	76.653	405.762	75.907	405.762	76.809	405.762	76.1842	405.762	77.0468	405.762	76.615	405.762	77.2648	405.762	77.0205	405.762	77.3637	405.762	77.2853
420.41	82.0904	420.41	82.0274	420.41	82.0457	420.41	81.8468	420.41	81.9096	420.41	81.5493	420.41	81.7	420.41	81.1511	420.41	81.4294	420.41	80.683	420.41	81.0939	420.41	80.1754	420.41	80.6658	420.41	79.6317	420.41	80.0955	420.41	79.0123	420.41	79.3245	420.41	78.2545	420.41	78.3074	420.41	77.3283	420.41	77.0393	420.41	76.3132	420.41	75.6134	420.41	75.4658	420.41	74.3301	420.41	75.1332	420.41	73.7198	420.41	75.4113	420.41	74.0707	420.41	76.0205	420.41	75.0003	420.41	76.6147	420.41	75.9643	420.41	76.9792	420.41	76.6682	420.41	77.0105
435.059	81.461	435.059	81.3764	435.059	81.4349	435.059	81.1927	435.059	81.295	435.059	80.9195	435.059	81.053	435.059	80.5567	435.059	80.7332	435.059	80.0975	435.059	80.3656	435.059	79.5446	435.059	79.9724	435.059	78.9267	435.059	79.5514	435.059	78.2943	435.059	79.0656	435.059	77.6842	435.059	78.4574	435.059	77.0863	435.059	77.69	435.059	76.4686	435.059	76.8022	435.059	75.8664	435.059	75.9475	435.059	75.4477	435.059	75.3605	435.059	75.4196	435.059	75.2125	435.059	75.78	435.059	75.4725	435.059	76.271	435.059	75.9454	435.059	76.6122	435.059	76.4015	435.059	76.6576
451.172	81.977	451.172	81.8674	451.172	81.9746	451.172	81.6414	451.172	81.8672	451.172	81.3046	451.172	81.6613	451.172	80.8791	451.172	81.3621	451.172	80.3981	451.172	80.9735	451.172	79.881	451.172	80.4951	451.172	79.2999	451.172	79.916	451.172	78.5707	451.172	79.2068	451.172	77.5924	451.172	78.3159	451.172	76.3319	451.172	77.1854	451.172	74.9757	451.172	75.8171	451.172	74.0966	451.172	74.4547	451.172	74.2885	451.172	73.7796	451.172	75.3078	451.172	74.3201	451.172	76.4684	451.172	75.5579	451.172	77.3705	451.172	76.7476	451.172	77.8759	451.172	77.5681	451.172	77.9457
465.82	81.893	465.82	81.8222	465.82	81.8342	465.82	81.6359	465.82	81.6506	465.82	81.3615	465.82	81.367	465.82	81.0272	465.82	81.0257	465.82	80.6486	465.82	80.677	465.82	80.2202	465.82	80.3575	465.82	79.7173	465.82	80.0619	465.82	79.0995	465.82	79.7243	465.82	78.3109	465.82	79.2325	465.82	77.2856	465.82	78.4677	465.82	75.9914	465.82	77.3586	465.82	74.5617	465.82	75.9701	465.82	73.5067	465.82	74.6787	465.82	73.4812	465.82	74.19	465.82	74.3415	465.82	74.7261	465.82	75.3735	465.82	75.6252	465.82	76.132	465.82	76.2753	465.82	76.452
483.398	81.6941	483.398	81.6054	483.398	81.6471	483.398	81.4002	483.398	81.4694	483.398	81.1164	483.398	81.1853	483.398	80.7999	483.398	80.8221	483.398	80.49	483.398	80.3937	483.398	80.1945	483.398	79.8945	483.398	79.8614	483.398	79.307	483.398	79.3756	483.398	78.6036	483.398	78.5895	483.398	77.7399	483.398	77.3715	483.398	76.6622	483.398	75.6866	483.398	75.3892	483.398	73.839	483.398	74.2161	483.398	72.8667	483.398	73.7989	483.398	73.5708	483.398	74.4029	483.398	75.0143	483.398	75.4349	483.398	76.222	483.398	76.3354	483.398	76.9216	483.398	76.9152	483.398	77.1283
499.512	81.9891	499.512	81.8595	499.512	81.9571	499.512	81.5795	499.512	81.7669	499.512	81.1687	499.512	81.4471	499.512	80.658	499.512	81.0523	499.512	80.0966	499.512	80.642	499.512	79.5496	499.512	80.2405	499.512	79.0666	499.512	79.8117	499.512	78.6253	499.512	79.2723	499.512	78.1047	499.512	78.5211	499.512	77.3265	499.512	77.4513	499.512	76.141	499.512	75.9567	499.512	74.5686	499.512	74.0154	499.512	73.1302	499.512	72.1023	499.512	72.933	499.512	71.7333	499.512	74.0775	499.512	73.2684	499.512	75.4468	499.512	75.0513	499.512	76.3717	499.512	76.2261	499.512	76.6554
517.09	81.6875	517.09	81.5931	517.09	81.6307	517.09	81.3585	517.09	81.432	517.09	81.0186	517.09	81.1232	517.09	80.6265	517.09	80.7683	517.09	80.2305	517.09	80.4572	517.09	79.8458	517.09	80.2523	517.09	79.4431	517.09	80.1152	517.09	78.9559	517.09	79.8954	517.09	78.2853	517.09	79.3958	517.09	77.3012	517.09	78.4443	517.09	75.8881	517.09	76.9511	517.09	74.1706	517.09	75.063	517.09	73.081	517.09	73.5947	517.09	73.8253	517.09	73.7824	517.09	75.564	517.09	75.2085	517.09	77.0425	517.09	76.6602	517.09	77.887	517.09	77.6524	517.09	78.0763
536.133	82.4587	536.133	82.3222	536.133	82.3393	536.133	81.9232	536.133	81.9839	536.133	81.2939	536.133	81.4188	536.133	80.5409	536.133	80.6879	536.133	79.8507	536.133	79.8808	536.133	79.3838	536.133	79.1466	536.133	79.106	536.133	78.6218	536.133	78.7892	536.133	78.2782	536.133	78.1805	536.133	77.8912	536.133	77.1101	536.133	77.1802	536.133	75.5042	536.133	75.9239	536.133	73.4709	536.133	74.0509	536.133	71.8223	536.133	72.1033	536.133	72.1761	536.133	71.9315	536.133	74.0373	536.133	73.7547	536.133	75.7572	536.133	75.6111	536.133	76.8013	536.133	76.7497	536.133	77.1315
555.176	82.7779	555.176	82.7465	555.176	82.6116	555.176	82.4955	555.176	82.2868	555.176	82.0174	555.176	81.8431	555.176	81.3187	555.176	81.2993	555.176	80.455	555.176	80.6655	555.176	79.5932	555.176	79.9988	555.176	78.9761	555.176	79.423	555.176	78.6699	555.176	79.004	555.176	78.4009	555.176	78.5756	555.176	77.7433	555.176	77.7717	555.176	76.2825	555.176	76.1793	555.176	73.5692	555.176	73.4025	555.176	69.2522	555.176	69.5453	555.176	67.4137	555.176	68.8797	555.176	71.6344	555.176	72.392	555.176	74.9124	555.176	75.17	555.176	76.6781	555.176	76.7357	555.176	77.238
574.219	82.8933	574.219	82.715	574.219	82.8501	574.219	82.357	574.219	82.5511	574.219	81.8581	574.219	82.0052	574.219	81.2659	574.219	81.2978	574.219	80.6436	574.219	80.5854	574.219	80.057	574.219	80.0245	574.219	79.5461	574.219	79.6695	574.219	79.0819	574.219	79.4377	574.219	78.5334	574.219	79.159	574.219	77.6886	574.219	78.6127	574.219	76.3073	574.219	77.5192	574.219	74.1754	574.219	75.5105	574.219	71.4628	574.219	72.1495	574.219	70.2864	574.219	68.16	574.219	72.146	574.219	69.2098	574.219	74.1383	574.219	72.3904	574.219	75.1248	574.219	74.3118	574.219	75.1591
594.727	82.8605	594.727	82.7389	594.727	82.7214	594.727	82.3477	594.727	82.3355	594.727	81.6838	594.727	81.7139	594.727	80.7598	594.727	80.8691	594.727	79.6675	594.727	79.8658	594.727	78.6991	594.727	78.9251	594.727	78.2731	594.727	78.4111	594.727	78.4164	594.727	78.425	594.727	78.6465	594.727	78.5467	594.727	78.4872	594.727	78.2409	594.727	77.6442	594.727	77.1385	594.727	75.8811	594.727	74.999	594.727	72.945	594.727	71.835	594.727	69.4172	594.727	69.5844	594.727	70.0495	594.727	71.5246	594.727	73.4589	594.727	74.3104	594.727	75.688	594.727	76.0177	594.727	76.4947
615.234	82.8294	615.234	82.7681	615.234	82.7132	615.234	82.5074	615.234	82.4191	615.234	82.0207	615.234	81.909	615.234	81.285	615.234	81.1187	615.234	80.2864	615.234	80.0083	615.234	79.0492	615.234	78.6504	615.234	77.7175	615.234	77.33	615.234	76.6194	615.234	76.4935	615.234	76.0166	615.234	76.3005	615.234	75.6417	615.234	76.3399	615.234	74.8698	615.234	76.0451	615.234	73.1174	615.234	74.9749	615.234	69.8259	615.234	72.709	615.234	65.3517	615.234	68.9295	615.234	66.8141	615.234	66.7729	615.234	70.8023	615.234	70.0908	615.234	73.0117	615.234	72.7224	615.234	73.63
637.207	82.5408	637.207	82.393	637.207	82.5341	637.207	82.1313	637.207	82.3067	637.207	81.7284	637.207	81.8251	637.207	81.1153	637.207	81.1046	637.207	80.2547	637.207	80.1877	637.207	79.2106	637.207	79.132	637.207	78.1919	637.207	78.055	637.207	77.4637	637.207	77.1958	637.207	77.0324	637.207	76.7513	637.207	76.5175	637.207	76.4953	637.207	75.4463	637.207	75.8532	637.207	73.5081	637.207	74.3153	637.207	70.9339	637.207	71.6497	637.207	69.8167	637.207	68.6186	637.207	71.5362	637.207	68.5632	637.207	73.5005	637.207	71.1082	637.207	74.5097	637.207	73.271	637.207	74.4277
659.18	82.5946	659.18	82.5027	659.18	82.4914	659.18	82.1983	659.18	82.2436	659.18	81.7245	659.18	81.871	659.18	81.1245	659.18	81.3518	659.18	80.3692	659.18	80.6693	659.18	79.4018	659.18	79.8548	659.18	78.2801	659.18	78.9863	659.18	77.2348	659.18	78.1382	659.18	76.4745	659.18	77.3009	659.18	75.9097	659.18	76.3389	659.18	75.1984	659.18	75.0156	659.18	73.963	659.18	72.9929	659.18	71.9252	659.18	69.7496	659.18	69.4184	659.18	65.4788	659.18	68.7529	659.18	66.8222	659.18	70.5642	659.18	70.7037	659.18	72.2953	659.18	72.6821	659.18	73.0811
682.617	83.0126	682.617	82.9065	682.617	82.9726	682.617	82.684	682.617	82.7093	682.617	82.3046	682.617	82.1788	682.617	81.7167	682.617	81.4074	682.617	80.9158	682.617	80.4567	682.617	79.9512	682.617	79.3871	682.617	78.9316	682.617	78.2924	682.617	78.0404	682.617	77.3597	682.617	77.4092	682.617	76.8008	682.617	76.8749	682.617	76.5756	682.617	76.0142	682.617	76.2436	682.617	74.3641	682.617	75.185	682.617	71.4785	682.617	72.812	682.617	67.7859	682.617	69.1273	682.617	68.729	682.617	68.598	682.617	72.301	682.617	71.9415	682.617	74.3802	682.617	74.1967	682.617	74.9671
707.52	82.8822	707.52	82.807	707.52	82.7943	707.52	82.5802	707.52	82.54	707.52	82.1921	707.52	82.1259	707.52	81.605	707.52	81.5436	707.52	80.8035	707.52	80.7584	707.52	79.8744	707.52	79.7673	707.52	79.0375	707.52	78.7273	707.52	78.4814	707.52	77.9726	707.52	78.085	707.52	77.6035	707.52	77.4489	707.52	77.1596	707.52	76.1362	707.52	76.0295	707.52	73.6861	707.52	73.7621	707.52	69.4333	707.52	69.9423	707.52	65.0388	707.52	65.0422	707.52	69.272	707.52	67.0791	707.52	73.2842	707.52	71.7479	707.52	75.3026	707.52	74.5643	707.52	75.7075
732.422	82.4565	732.422	82.4151	732.422	82.327	732.422	82.191	732.422	82.0562	732.422	81.8022	732.422	81.6744	732.422	81.2707	732.422	81.2083	732.422	80.5812	732.422	80.6647	732.422	79.708	732.422	80.0111	732.422	78.6961	732.422	79.2165	732.422	77.7029	732.422	78.3532	732.422	76.9206	732.422	77.615	732.422	76.3531	732.422	77.0534	732.422	75.6053	732.422	76.3163	732.422	73.9585	732.422	74.8008	732.422	70.6296	732.422	71.7791	732.422	66.3102	732.422	66.2992	732.422	67.8088	732.422	64.2313	732.422	70.7314	732.422	69.0719	732.422	72.0007	732.422	71.4714	732.422	72.2051
757.324	83.2244	757.324	83.02	757.324	83.1815	757.324	82.6014	757.324	82.8281	757.324	81.9685	757.324	82.1429	757.324	81.164	757.324	81.2016	757.324	80.3373	757.324	80.171	757.324	79.718	757.324	79.2881	757.324	79.4942	757.324	78.8166	757.324	79.6195	757.324	78.8355	757.324	79.7233	757.324	79.0556	757.324	79.3265	757.324	79.0068	757.324	78.0687	757.324	78.2675	757.324	75.6719	757.324	76.4851	757.324	71.8114	757.324	73.2797	757.324	67.4383	757.324	68.4763	757.324	68.9535	757.324	67.6931	757.324	72.4378	757.324	72.0564	757.324	74.5659	757.324	74.6453	757.324	75.3522
785.156	83.3685	785.156	83.1965	785.156	83.3252	785.156	82.8389	785.156	83.083	785.156	82.3054	785.156	82.6414	785.156	81.515	785.156	81.9197	785.156	80.3534	785.156	80.8314	785.156	78.7931	785.156	79.4238	785.156	77.0875	785.156	77.9778	785.156	76.0669	785.156	77.0124	785.156	76.3762	785.156	76.8575	785.156	77.1345	785.156	77.1099	785.156	77.2161	785.156	77.0611	785.156	75.9462	785.156	76.0988	785.156	72.6109	785.156	73.4057	785.156	65.9705	785.156	67.0546	785.156	67.0735	785.156	65.6032	785.156	72.9909	785.156	72.9187	785.156	75.8834	785.156	76.0161	785.156	76.8327
811.523	83.7553	811.523	83.6078	811.523	83.7327	811.523	83.2874	811.523	83.4792	811.523	82.7288	811.523	82.9529	811.523	81.8802	811.523	82.1511	811.523	80.7073	811.523	81.0422	811.523	79.1583	811.523	79.5387	811.523	77.4036	811.523	77.6893	811.523	76.3493	811.523	76.2579	811.523	76.6594	811.523	76.4818	811.523	77.2552	811.523	77.605	811.523	77.1216	811.523	78.0675	811.523	75.9047	811.523	77.1236	811.523	73.1212	811.523	74.2674	811.523	67.2297	811.523	68.8267	811.523	65.6239	811.523	65.547	811.523	72.2665	811.523	70.1673	811.523	74.867	811.523	73.3533	811.523	74.9777
840.82	83.8542	840.82	83.7909	840.82	83.791	840.82	83.4964	840.82	83.6654	840.82	82.9635	840.82	83.3866	840.82	82.2642	840.82	82.7991	840.82	81.3792	840.82	81.8443	840.82	80.0739	840.82	80.5484	840.82	78.0335	840.82	78.8801	840.82	75.3935	840.82	76.9052	840.82	74.0128	840.82	75.6092	840.82	75.0414	840.82	76.1178	840.82	75.8901	840.82	76.8727	840.82	75.2016	840.82	76.3357	840.82	72.401	840.82	74.0386	840.82	65.9721	840.82	69.6328	840.82	65.3595	840.82	66.432	840.82	72.5641	840.82	71.7572	840.82	75.8818	840.82	75.4988	840.82	76.7798
870.117	84.0269	870.117	83.789	870.117	84.0007	870.117	83.3638	870.117	83.6526	870.117	82.7966	870.117	83.0374	870.117	82.0926	870.117	82.267	870.117	81.2066	870.117	81.3317	870.117	80.0748	870.117	80.1361	870.117	78.6874	870.117	78.7164	870.117	77.2117	870.117	77.3886	870.117	76.2579	870.117	76.5312	870.117	76.4309	870.117	76.3181	870.117	76.9369	870.117	76.5986	870.117	76.4262	870.117	76.5884	870.117	73.7736	870.117	75.1273	870.117	66.5654	870.117	70.3544	870.117	59.93	870.117	62.4993	870.117	70.4458	870.117	71.3902	870.117	73.8306	870.117	74.6242	870.117	75.073
900.879	84.0488	900.879	83.9266	900.879	83.9182	900.879	83.5923	900.879	83.5679	900.879	83.0525	900.879	83.0995	900.879	82.2991	900.879	82.5527	900.879	81.3779	900.879	81.845	900.879	80.2022	900.879	80.792	900.879	78.3986	900.879	79.1575	900.879	75.7084	900.879	76.946	900.879	73.5518	900.879	75.2197	900.879	74.469	900.879	75.4943	900.879	75.8092	900.879	76.3379	900.879	75.5875	900.879	75.9291	900.879	73.4273	900.879	73.6139	900.879	68.2116	900.879	68.6915	900.879	61.4651	900.879	64.7938	900.879	70.7225	900.879	70.7046	900.879	74.5528	900.879	74.215	900.879	75.4293
933.105	84.1301	933.105	83.9189	933.105	83.9815	933.105	83.4015	933.105	83.5162	933.105	82.7402	933.105	82.829	933.105	82.0269	933.105	81.9987	933.105	81.1297	933.105	81.028	933.105	79.9477	933.105	79.8936	933.105	78.6973	933.105	78.5876	933.105	77.5388	933.105	77.1188	933.105	76.3346	933.105	75.8119	933.105	75.5708	933.105	75.4232	933.105	75.7268	933.105	75.8018	933.105	75.6405	933.105	75.773	933.105	73.7622	933.105	74.1471	933.105	68.1604	933.105	69.2132	933.105	58.9707	933.105	59.562	933.105	70.2575	933.105	69.5708	933.105	74.3523	933.105	73.9678	933.105	75.3713
965.332	83.7471	965.332	83.6876	965.332	83.6051	965.332	83.3243	965.332	83.2142	965.332	82.5774	965.332	82.5467	965.332	81.6432	965.332	81.7286	965.332	80.8034	965.332	80.83	965.332	79.8648	965.332	79.671	965.332	78.2553	965.332	78.003	965.332	75.8051	965.332	75.8386	965.332	73.8157	965.332	73.9791	965.332	74.187	965.332	74.0127	965.332	75.1924	965.332	75.0935	965.332	75.1252	965.332	75.0434	965.332	73.3287	965.332	72.9524	965.332	68.1346	965.332	67.9236	965.332	58.2816	965.332	60.049	965.332	69.9206	965.332	69.7864	965.332	73.7104	965.332	73.904	965.332	74.8389
1,000.49	84.1282	1,000.49	83.9132	1,000.49	83.8975	1,000.49	83.3175	1,000.49	83.3446	1,000.49	82.5671	1,000.49	82.5755	1,000.49	81.7422	1,000.49	81.6421	1,000.49	80.745	1,000.49	80.6689	1,000.49	79.5807	1,000.49	79.5786	1,000.49	78.2656	1,000.49	77.9742	1,000.49	76.5212	1,000.49	75.6969	1,000.49	74.4526	1,000.49	73.6604	1,000.49	74.0855	1,000.49	73.8321	1,000.49	75.6326	1,000.49	75.1642	1,000.49	76.3034	1,000.49	75.7432	1,000.49	74.8699	1,000.49	74.5315	1,000.49	70.2949	1,000.49	69.4073	1,000.49	59.9772	1,000.49	54.3099	1,000.49	69.9771	1,000.49	70.0755	1,000.49	74.4762	1,000.49	74.0927	1,000.49	75.4406
1,035.64	83.9498	1,035.64	83.9048	1,035.64	83.8211	1,035.64	83.5295	1,035.64	83.3998	1,035.64	82.7196	1,035.64	82.5749	1,035.64	81.7344	1,035.64	81.4622	1,035.64	80.8122	1,035.64	80.208	1,035.64	79.7203	1,035.64	78.9204	1,035.64	78.0978	1,035.64	77.5975	1,035.64	75.8238	1,035.64	75.7358	1,035.64	73.1178	1,035.64	72.7417	1,035.64	72.0251	1,035.64	70.8643	1,035.64	73.8683	1,035.64	72.9424	1,035.64	75.0735	1,035.64	74.6121	1,035.64	74.007	1,035.64	73.9975	1,035.64	69.6793	1,035.64	70.4528	1,035.64	54.8918	1,035.64	60.3744	1,035.64	68.5172	1,035.64	65.6498	1,035.64	73.374	1,035.64	72.226	1,035.64	74.2625
1,072.27	83.8073	1,072.27	83.6674	1,072.27	83.6217	1,072.27	83.127	1,072.27	83.1432	1,072.27	82.3506	1,072.27	82.2506	1,072.27	81.4408	1,072.27	81.1257	1,072.27	80.3118	1,072.27	80.2217	1,072.27	79.1267	1,072.27	79.426	1,072.27	77.9864	1,072.27	78.104	1,072.27	76.2493	1,072.27	75.996	1,072.27	73.4275	1,072.27	73.0955	1,072.27	71.6926	1,072.27	69.7043	1,072.27	72.7916	1,072.27	70.1618	1,072.27	73.7269	1,072.27	72.6433	1,072.27	73.091	1,072.27	72.7628	1,072.27	69.5034	1,072.27	69.6979	1,072.27	60.5552	1,072.27	55.8686	1,072.27	68.4099	1,072.27	66.8706	1,072.27	73.1929	1,072.27	72.7931	1,072.27	74.3591
1,108.89	83.0901	1,108.89	82.8183	1,108.89	82.9752	1,108.89	82.3088	1,108.89	82.3951	1,108.89	81.4751	1,108.89	81.6127	1,108.89	80.3633	1,108.89	80.6925	1,108.89	79.278	1,108.89	79.4134	1,108.89	78.3556	1,108.89	78.1076	1,108.89	77.3695	1,108.89	77.1704	1,108.89	75.8116	1,108.89	75.777	1,108.89	73.2365	1,108.89	73.0427	1,108.89	70.867	1,108.89	70.2055	1,108.89	71.7481	1,108.89	70.0517	1,108.89	73.2267	1,108.89	71.4319	1,108.89	72.3457	1,108.89	71.7736	1,108.89	67.6425	1,108.89	69.0256	1,108.89	56.2206	1,108.89	57.9604	1,108.89	67.3875	1,108.89	64.3833	1,108.89	72.3465	1,108.89	71.3167	1,108.89	73.4471
1,148.44	82.7557	1,148.44	82.4376	1,148.44	82.7783	1,148.44	81.9776	1,148.44	82.2826	1,148.44	81.1569	1,148.44	81.3652	1,148.44	79.8413	1,148.44	80.3774	1,148.44	78.5334	1,148.44	79.3861	1,148.44	77.7432	1,148.44	78.0667	1,148.44	77.0274	1,148.44	76.6497	1,148.44	75.5126	1,148.44	75.6093	1,148.44	72.5833	1,148.44	74.0239	1,148.44	69.2053	1,148.44	70.8092	1,148.44	69.5732	1,148.44	69.1	1,148.44	71.0815	1,148.44	71.1658	1,148.44	70.6642	1,148.44	71.789	1,148.44	67.2675	1,148.44	68.8197	1,148.44	58.3293	1,148.44	54.0468	1,148.44	68.41	1,148.44	65.6398	1,148.44	72.6195	1,148.44	71.4709	1,148.44	73.2581
1,189.45	83.0104	1,189.45	82.6226	1,189.45	82.9201	1,189.45	81.9149	1,189.45	82.4026	1,189.45	80.9527	1,189.45	81.6306	1,189.45	79.6247	1,189.45	80.5071	1,189.45	78.1743	1,189.45	79.0382	1,189.45	77.1129	1,189.45	78.0019	1,189.45	75.9574	1,189.45	77.4616	1,189.45	74.1517	1,189.45	76.1954	1,189.45	72.086	1,189.45	73.7818	1,189.45	69.8726	1,189.45	70.939	1,189.45	69.1003	1,189.45	69.7402	1,189.45	70.7714	1,189.45	71.4117	1,189.45	70.9436	1,189.45	72.0954	1,189.45	66.7687	1,189.45	69.4345	1,189.45	39.3488	1,189.45	59.9325	1,189.45	66.3025	1,189.45	63.4744	1,189.45	70.2542	1,189.45	69.8615	1,189.45	71.3124
1,230.47	83.5518	1,230.47	83.174	1,230.47	83.4911	1,230.47	82.5511	1,230.47	82.895	1,230.47	81.5642	1,230.47	81.989	1,230.47	80.0845	1,230.47	80.9885	1,230.47	78.4882	1,230.47	79.7677	1,230.47	77.0846	1,230.47	78.2871	1,230.47	75.744	1,230.47	77.0545	1,230.47	74.7144	1,230.47	76.1541	1,230.47	73.3052	1,230.47	74.6467	1,230.47	69.7367	1,230.47	71.94	1,230.47	67.731	1,230.47	70.462	1,230.47	71.0936	1,230.47	71.8127	1,230.47	71.6271	1,230.47	72.7209	1,230.47	67.7066	1,230.47	71.2965	1,230.47	48.5659	1,230.47	64.3169	1,230.47	66.7361	1,230.47	60.1737	1,230.47	72.4113	1,230.47	70.6318	1,230.47	73.3808
1,274.41	84.1386	1,274.41	83.9142	1,274.41	84.0565	1,274.41	83.3029	1,274.41	83.6126	1,274.41	82.3384	1,274.41	82.7744	1,274.41	81.0784	1,274.41	81.6205	1,274.41	79.3899	1,274.41	80.1717	1,274.41	77.4444	1,274.41	78.702	1,274.41	76.3256	1,274.41	77.5309	1,274.41	75.9989	1,274.41	76.2991	1,274.41	74.1221	1,274.41	74.7551	1,274.41	69.119	1,274.41	72.3344	1,274.41	66.6442	1,274.41	70.2963	1,274.41	70.4255	1,274.41	72.7554	1,274.41	71.9777	1,274.41	74.0903	1,274.41	70.3465	1,274.41	72.352	1,274.41	62.3832	1,274.41	65.1872	1,274.41	63.7927	1,274.41	60.6123	1,274.41	70.1164	1,274.41	70.2342	1,274.41	71.8597
1,319.82	84.4962	1,319.82	84.326	1,319.82	84.3003	1,319.82	83.8446	1,319.82	83.7806	1,319.82	83.0081	1,319.82	83.0561	1,319.82	81.8525	1,319.82	81.9836	1,319.82	80.2544	1,319.82	80.6745	1,319.82	78.3256	1,319.82	79.178	1,319.82	76.9152	1,319.82	77.5651	1,319.82	75.9025	1,319.82	76.6568	1,319.82	74.2186	1,319.82	75.4794	1,319.82	71.9294	1,319.82	72.849	1,319.82	69.5894	1,319.82	70.4614	1,319.82	69.5046	1,319.82	71.4259	1,319.82	71.6408	1,319.82	73.6119	1,319.82	70.983	1,319.82	72.7531	1,319.82	61.8618	1,319.82	65.6231	1,319.82	64.5327	1,319.82	58.9297	1,319.82	71.4303	1,319.82	70.3821	1,319.82	73.1027
1,366.7	84.7996	1,366.7	84.586	1,366.7	84.6666	1,366.7	84.1396	1,366.7	84.0608	1,366.7	83.2736	1,366.7	83.257	1,366.7	82.0728	1,366.7	82.2228	1,366.7	80.664	1,366.7	80.4173	1,366.7	79.0311	1,366.7	78.2175	1,366.7	77.2134	1,366.7	77.1629	1,366.7	75.6267	1,366.7	76.4821	1,366.7	74.7311	1,366.7	75.3456	1,366.7	73.2537	1,366.7	73.3439	1,366.7	69.9924	1,366.7	69.2213	1,366.7	69.6984	1,366.7	69.0243	1,366.7	71.8124	1,366.7	72.1638	1,366.7	71.9117	1,366.7	72.8046	1,366.7	67.5127	1,366.7	68.687	1,366.7	58.3196	1,366.7	51.3095	1,366.7	70.6262	1,366.7	69.5388	1,366.7	72.2199
1,413.57	84.389	1,413.57	84.2962	1,413.57	84.2194	1,413.57	83.8338	1,413.57	83.8926	1,413.57	83.0729	1,413.57	83.0472	1,413.57	82.0063	1,413.57	81.6858	1,413.57	80.5324	1,413.57	80.3838	1,413.57	79.1228	1,413.57	78.7602	1,413.57	77.7892	1,413.57	77.0153	1,413.57	76.7671	1,413.57	75.8095	1,413.57	76.1227	1,413.57	74.7407	1,413.57	74.1008	1,413.57	72.4287	1,413.57	70.2322	1,413.57	68.0653	1,413.57	68.6874	1,413.57	69.1744	1,413.57	71.0707	1,413.57	71.6594	1,413.57	70.6513	1,413.57	71.9029	1,413.57	66.7017	1,413.57	66.6048	1,413.57	48.391	1,413.57	59.2093	1,413.57	68.3699	1,413.57	67.8829	1,413.57	70.1792
1,463.38	83.848	1,463.38	83.7366	1,463.38	83.6477	1,463.38	83.2018	1,463.38	83.1363	1,463.38	82.2132	1,463.38	82.2535	1,463.38	81.1327	1,463.38	81.0207	1,463.38	79.976	1,463.38	79.7164	1,463.38	78.2144	1,463.38	78.2225	1,463.38	76.5651	1,463.38	76.2549	1,463.38	75.6617	1,463.38	74.4637	1,463.38	74.5739	1,463.38	73.0802	1,463.38	73.4959	1,463.38	71.713	1,463.38	71.4013	1,463.38	69.3481	1,463.38	70.3028	1,463.38	67.8674	1,463.38	71.0468	1,463.38	70.477	1,463.38	70.8052	1,463.38	70.7841	1,463.38	66.5206	1,463.38	67.3891	1,463.38	56.8834	1,463.38	55.5728	1,463.38	65.4588	1,463.38	64.2531	1,463.38	68.3451
1,516.11	83.039	1,516.11	82.6638	1,516.11	82.927	1,516.11	81.9919	1,516.11	82.4016	1,516.11	81.538	1,516.11	81.401	1,516.11	80.535	1,516.11	80.424	1,516.11	79.0119	1,516.11	79.18	1,516.11	77.6284	1,516.11	77.2232	1,516.11	75.8754	1,516.11	75.4608	1,516.11	74.2155	1,516.11	74.3625	1,516.11	73.3253	1,516.11	73.0802	1,516.11	71.9731	1,516.11	71.8721	1,516.11	70.0532	1,516.11	69.5476	1,516.11	68.3033	1,516.11	66.3189	1,516.11	69.8011	1,516.11	67.5321	1,516.11	69.7449	1,516.11	68.25	1,516.11	63.3505	1,516.11	65.2382	1,516.11	56.0971	1,516.11	47.9381	1,516.11	67.2494	1,516.11	67.6179	1,516.11	69.681
1,568.85	82.4434	1,568.85	82.3399	1,568.85	82.2125	1,568.85	81.3756	1,568.85	81.8947	1,568.85	80.1475	1,568.85	80.9837	1,568.85	78.9588	1,568.85	79.7074	1,568.85	77.575	1,568.85	78.3999	1,568.85	75.2103	1,568.85	76.8967	1,568.85	73.589	1,568.85	74.7754	1,568.85	72.2765	1,568.85	73.3394	1,568.85	71.0063	1,568.85	72.8348	1,568.85	70.1958	1,568.85	71.8639	1,568.85	67.3219	1,568.85	69.3747	1,568.85	67.1126	1,568.85	67.059	1,568.85	69.8638	1,568.85	67.5248	1,568.85	70.0106	1,568.85	69.9485	1,568.85	66.1849	1,568.85	68.8386	1,568.85	52.8319	1,568.85	60.5245	1,568.85	64.2712	1,568.85	58.8723	1,568.85	66.7067
1,624.51	83.2882	1,624.51	82.9072	1,624.51	83.1943	1,624.51	82.1746	1,624.51	82.7273	1,624.51	81.1086	1,624.51	81.8979	1,624.51	79.7229	1,624.51	80.9542	1,624.51	78.0734	1,624.51	79.5903	1,624.51	76.2391	1,624.51	77.5271	1,624.51	74.1417	1,624.51	75.9706	1,624.51	72.1604	1,624.51	74.0401	1,624.51	70.7176	1,624.51	72.5904	1,624.51	68.7738	1,624.51	71.3372	1,624.51	65.5184	1,624.51	68.9015	1,624.51	63.8975	1,624.51	67.642	1,624.51	67.7175	1,624.51	68.7902	1,624.51	70.2444	1,624.51	70.7539	1,624.51	67.7606	1,624.51	70.2071	1,624.51	57.3222	1,624.51	62.9568	1,624.51	58.6533	1,624.51	56.5569	1,624.51	60.5075
1,681.64	83.6897	1,681.64	83.4391	1,681.64	83.479	1,681.64	82.5209	1,681.64	82.9855	1,681.64	81.1878	1,681.64	81.9289	1,681.64	79.8642	1,681.64	80.6698	1,681.64	78.3147	1,681.64	79.2345	1,681.64	76.1181	1,681.64	77.5693	1,681.64	74.5814	1,681.64	75.3634	1,681.64	72.3787	1,681.64	73.7673	1,681.64	71.5653	1,681.64	72.8112	1,681.64	69.8066	1,681.64	71.7687	1,681.64	66.5108	1,681.64	70.1348	1,681.64	64.1374	1,681.64	66.6977	1,681.64	64.4937	1,681.64	66.3227	1,681.64	65.9085	1,681.64	69.04	1,681.64	64.9152	1,681.64	68.7138	1,681.64	56.8293	1,681.64	62.3513	1,681.64	53.2362	1,681.64	59.7954	1,681.64	60.8564
1,741.7	84.2957	1,741.7	83.92	1,741.7	84.1612	1,741.7	83.1545	1,741.7	83.2902	1,741.7	81.9522	1,741.7	81.9838	1,741.7	80.3364	1,741.7	80.476	1,741.7	78.3789	1,741.7	78.8451	1,741.7	76.9428	1,741.7	75.7538	1,741.7	73.9392	1,741.7	74.1927	1,741.7	73.2043	1,741.7	72.4931	1,741.7	71.5271	1,741.7	71.1448	1,741.7	70.2497	1,741.7	70.1471	1,741.7	69.1676	1,741.7	69.2685	1,741.7	67.1394	1,741.7	66.4901	1,741.7	66.5763	1,741.7	69.0406	1,741.7	68.9199	1,741.7	71.6884	1,741.7	68.3266	1,741.7	69.5744	1,741.7	59.2263	1,741.7	63.3484	1,741.7	61.402	1,741.7	63.5659	1,741.7	68.2456
1,803.22	83.9018	1,803.22	83.655	1,803.22	83.6096	1,803.22	82.9975	1,803.22	82.85	1,803.22	81.8101	1,803.22	81.6115	1,803.22	80.5797	1,803.22	80.4173	1,803.22	79.1946	1,803.22	78.8884	1,803.22	77.9877	1,803.22	77.1509	1,803.22	76.336	1,803.22	75.1292	1,803.22	74.4397	1,803.22	72.5355	1,803.22	73.4308	1,803.22	71.6733	1,803.22	72.7111	1,803.22	70.9926	1,803.22	71.0402	1,803.22	69.7908	1,803.22	69.3961	1,803.22	67.543	1,803.22	67.9153	1,803.22	66.1978	1,803.22	71.0987	1,803.22	70.3918	1,803.22	72.0447	1,803.22	71.1245	1,803.22	64.7206	1,803.22	64.7768	1,803.22	58.8069	1,803.22	56.665	1,803.22	64.993
1,866.21	83.4114	1,866.21	83.2333	1,866.21	83.2406	1,866.21	82.6625	1,866.21	82.6065	1,866.21	81.739	1,866.21	81.3803	1,866.21	80.6921	1,866.21	80.1729	1,866.21	79.7366	1,866.21	79.2511	1,866.21	78.8047	1,866.21	78.2305	1,866.21	77.4623	1,866.21	76.5721	1,866.21	75.6407	1,866.21	73.8876	1,866.21	74.9386	1,866.21	71.9688	1,866.21	74.3444	1,866.21	71.4808	1,866.21	73.297	1,866.21	70.1587	1,866.21	71.5229	1,866.21	69.6863	1,866.21	68.3379	1,866.21	65.7883	1,866.21	70.8062	1,866.21	69.1576	1,866.21	71.7106	1,866.21	72.7945	1,866.21	66.9174	1,866.21	67.0821	1,866.21	61.1247	1,866.21	56.6438	1,866.21	66.125
1,932.13	82.7249	1,932.13	82.4327	1,932.13	82.5504	1,932.13	81.984	1,932.13	81.9229	1,932.13	81.4774	1,932.13	81.5273	1,932.13	80.5985	1,932.13	80.8587	1,932.13	79.7052	1,932.13	79.6443	1,932.13	78.9595	1,932.13	78.7798	1,932.13	77.9936	1,932.13	78.2025	1,932.13	75.7896	1,932.13	76.3537	1,932.13	73.9848	1,932.13	74.1262	1,932.13	73.5939	1,932.13	73.0127	1,932.13	72.5754	1,932.13	71.4632	1,932.13	72.8431	1,932.13	71.3012	1,932.13	71.9427	1,932.13	69.3912	1,932.13	72.1587	1,932.13	69.0966	1,932.13	71.9674	1,932.13	70.8571	1,932.13	63.6984	1,932.13	68.9346	1,932.13	58.4808	1,932.13	53.8192	1,932.13	65.421
1,999.51	83.6387	1,999.51	83.5511	1,999.51	83.3916	1,999.51	83.1238	1,999.51	83.0025	1,999.51	82.4922	1,999.51	82.5661	1,999.51	81.7661	1,999.51	82.0506	1,999.51	80.4605	1,999.51	81.3697	1,999.51	79.2022	1,999.51	80.457	1,999.51	78.1874	1,999.51	79.4883	1,999.51	76.6046	1,999.51	78.2619	1,999.51	74.2663	1,999.51	76.2807	1,999.51	73.5041	1,999.51	75.3535	1,999.51	71.2759	1,999.51	73.861	1,999.51	71.7171	1,999.51	72.2079	1,999.51	71.3396	1,999.51	71.8846	1,999.51	72.8522	1,999.51	71.2541	1,999.51	74.1587	1,999.51	73.0318	1,999.51	67.8473	1,999.51	71.5014	1,999.51	58.5807	1,999.51	57.3724	1,999.51	64.6639
2,069.82	84.1829	2,069.82	84.0894	2,069.82	84.0944	2,069.82	83.7191	2,069.82	83.9223	2,069.82	83.4226	2,069.82	83.6279	2,069.82	82.7004	2,069.82	83.0718	2,069.82	81.5892	2,069.82	82.4256	2,069.82	80.1059	2,069.82	81.1742	2,069.82	78.5884	2,069.82	80.079	2,069.82	76.6905	2,069.82	78.7775	2,069.82	74.2374	2,069.82	76.8272	2,069.82	72.7313	2,069.82	75.4293	2,069.82	71.9335	2,069.82	74.2015	2,069.82	70.841	2,069.82	73.1954	2,069.82	69.6006	2,069.82	72.2045	2,069.82	70.4679	2,069.82	71.9785	2,069.82	73.4295	2,069.82	73.8484	2,069.82	69.726	2,069.82	72.1417	2,069.82	56.2555	2,069.82	62.8689	2,069.82	62.6561
2,143.07	84.1472	2,143.07	84.0768	2,143.07	84.1936	2,143.07	84.0969	2,143.07	84.0827	2,143.07	83.9128	2,143.07	83.8605	2,143.07	83.1835	2,143.07	83.5134	2,143.07	82.4807	2,143.07	82.4941	2,143.07	80.9794	2,143.07	81.0391	2,143.07	79.626	2,143.07	79.5332	2,143.07	77.8413	2,143.07	78.0089	2,143.07	75.5624	2,143.07	76.3773	2,143.07	74.1067	2,143.07	74.7204	2,143.07	71.3727	2,143.07	73.245	2,143.07	72.5052	2,143.07	72.9966	2,143.07	70.8327	2,143.07	71.2816	2,143.07	70.5812	2,143.07	70.9309	2,143.07	74.2823	2,143.07	73.8786	2,143.07	72.2502	2,143.07	72.0076	2,143.07	61.9272	2,143.07	61.6445	2,143.07	58.6806
2,219.24	83.5721	2,219.24	83.5382	2,219.24	83.3622	2,219.24	83.2748	2,219.24	83.2074	2,219.24	83.0645	2,219.24	82.9547	2,219.24	83.0565	2,219.24	82.5648	2,219.24	82.4221	2,219.24	81.6019	2,219.24	80.9117	2,219.24	79.8462	2,219.24	79.224	2,219.24	78.2787	2,219.24	77.5719	2,219.24	76.8442	2,219.24	75.7955	2,219.24	73.7123	2,219.24	74.7136	2,219.24	72.9437	2,219.24	72.1328	2,219.24	69.9335	2,219.24	71.2731	2,219.24	70.2123	2,219.24	71.2623	2,219.24	70.9652	2,219.24	67.7821	2,219.24	62.4224	2,219.24	73.5752	2,219.24	72.0401	2,219.24	72.5463	2,219.24	73.051	2,219.24	67.71	2,219.24	66.6558	2,219.24	65.3224
2,296.88	82.3754	2,296.88	82.5997	2,296.88	82.4765	2,296.88	82.7814	2,296.88	82.7115	2,296.88	82.5184	2,296.88	82.6262	2,296.88	82.1863	2,296.88	81.9863	2,296.88	81.5988	2,296.88	81.3009	2,296.88	80.328	2,296.88	80.008	2,296.88	78.2599	2,296.88	77.9287	2,296.88	77.088	2,296.88	76.4598	2,296.88	74.724	2,296.88	74.1404	2,296.88	73.39	2,296.88	71.9687	2,296.88	72.5281	2,296.88	71.8138	2,296.88	70.9762	2,296.88	68.9764	2,296.88	72.0971	2,296.88	71.5566	2,296.88	68.6832	2,296.88	68.0719	2,296.88	70.5006	2,296.88	69.884	2,296.88	70.6451	2,296.88	71.4392	2,296.88	68.0538	2,296.88	67.3748	2,296.88	67.273
2,378.91	82.7213	2,378.91	82.906	2,378.91	82.8889	2,378.91	83.1539	2,378.91	83.381	2,378.91	82.965	2,378.91	83.5692	2,378.91	82.1072	2,378.91	83.1553	2,378.91	80.7152	2,378.91	82.2369	2,378.91	79.3385	2,378.91	80.9519	2,378.91	76.7559	2,378.91	79.1794	2,378.91	75.4776	2,378.91	77.7207	2,378.91	73.6353	2,378.91	76.127	2,378.91	70.7905	2,378.91	73.3743	2,378.91	70.0261	2,378.91	72.8358	2,378.91	69.05	2,378.91	70.1841	2,378.91	71.4597	2,378.91	71.8129	2,378.91	68.0249	2,378.91	70.4032	2,378.91	69.2648	2,378.91	69.3338	2,378.91	68.5225	2,378.91	71.0627	2,378.91	63.4336	2,378.91	66.1501	2,378.91	66.5341
2,462.4	83.7332	2,462.4	84.0085	2,462.4	84.1182	2,462.4	84.4985	2,462.4	84.6189	2,462.4	84.6241	2,462.4	84.9159	2,462.4	83.862	2,462.4	84.4344	2,462.4	82.2115	2,462.4	83.1012	2,462.4	80.302	2,462.4	81.4705	2,462.4	78.0787	2,462.4	79.6372	2,462.4	76.014	2,462.4	77.8353	2,462.4	73.9275	2,462.4	76.3591	2,462.4	71.1592	2,462.4	73.9538	2,462.4	71.3257	2,462.4	72.9737	2,462.4	67.7002	2,462.4	70.9558	2,462.4	71.547	2,462.4	72.4735	2,462.4	69.5743	2,462.4	72.0353	2,462.4	69.8574	2,462.4	70.6656	2,462.4	69.321	2,462.4	71.1164	2,462.4	65.263	2,462.4	67.6083	2,462.4	66.5434
2,548.83	83.2495	2,548.83	83.5624	2,548.83	83.4728	2,548.83	84.1172	2,548.83	83.9034	2,548.83	84.2886	2,548.83	84.0664	2,548.83	83.8199	2,548.83	83.6707	2,548.83	82.6981	2,548.83	82.3901	2,548.83	81.0032	2,548.83	80.4216	2,548.83	79.159	2,548.83	78.8371	2,548.83	76.643	2,548.83	76.0982	2,548.83	74.973	2,548.83	75.0889	2,548.83	73.0303	2,548.83	72.3599	2,548.83	72.1575	2,548.83	71.1449	2,548.83	68.5943	2,548.83	68.233	2,548.83	71.6093	2,548.83	71.6249	2,548.83	70.9417	2,548.83	70.931	2,548.83	71.0258	2,548.83	69.3867	2,548.83	70.8454	2,548.83	71.4688	2,548.83	67.1386	2,548.83	66.8157	2,548.83	66.8353
2,639.65	81.7591	2,639.65	82.2167	2,639.65	81.6034	2,639.65	82.9056	2,639.65	82.4496	2,639.65	82.9664	2,639.65	82.6691	2,639.65	82.7622	2,639.65	82.4806	2,639.65	81.71	2,639.65	81.1267	2,639.65	80.0912	2,639.65	79.3095	2,639.65	78.4514	2,639.65	77.2107	2,639.65	75.9326	2,639.65	74.8725	2,639.65	74.0428	2,639.65	72.8738	2,639.65	72.3291	2,639.65	70.8784	2,639.65	71.6503	2,639.65	69.6602	2,639.65	69.2681	2,639.65	67.9854	2,639.65	70.1111	2,639.65	67.916	2,639.65	70.2269	2,639.65	69.8533	2,639.65	70.4016	2,639.65	67.1525	2,639.65	70.6377	2,639.65	69.7557	2,639.65	67.4815	2,639.65	65.4561	2,639.65	66.5132
2,731.93	81.3392	2,731.93	81.6707	2,731.93	81.4262	2,731.93	81.8474	2,731.93	82.0346	2,731.93	82.1174	2,731.93	82.3277	2,731.93	81.7658	2,731.93	81.8028	2,731.93	80.4891	2,731.93	80.7464	2,731.93	78.2184	2,731.93	79.0638	2,731.93	76.5705	2,731.93	77.0801	2,731.93	73.7219	2,731.93	74.8218	2,731.93	72.4218	2,731.93	72.7101	2,731.93	70.6697	2,731.93	70.9396	2,731.93	67.9525	2,731.93	68.7172	2,731.93	68.9845	2,731.93	68.6967	2,731.93	68.4887	2,731.93	67.182	2,731.93	69.2316	2,731.93	69.9247	2,731.93	68.2701	2,731.93	67.939	2,731.93	70.0061	2,731.93	69.4919	2,731.93	64.8814	2,731.93	65.5892	2,731.93	65.2299
2,828.61	80.6527	2,828.61	81.0444	2,828.61	81.5583	2,828.61	81.9156	2,828.61	82.3498	2,828.61	82.3195	2,828.61	82.8284	2,828.61	81.7497	2,828.61	82.1273	2,828.61	80.3408	2,828.61	81.2541	2,828.61	77.995	2,828.61	79.3416	2,828.61	75.9482	2,828.61	77.2313	2,828.61	73.8347	2,828.61	75.3614	2,828.61	71.8546	2,828.61	72.873	2,828.61	69.5112	2,828.61	71.275	2,828.61	68.4661	2,828.61	69.8247	2,828.61	67.8507	2,828.61	69.2215	2,828.61	66.6519	2,828.61	67.3369	2,828.61	69.0769	2,828.61	70.0024	2,828.61	67.3343	2,828.61	68.4292	2,828.61	68.6137	2,828.61	68.8904	2,828.61	64.1276	2,828.61	65.5018	2,828.61	65.4724
2,928.22	80.5653	2,928.22	81.2298	2,928.22	81.4634	2,928.22	82.6418	2,928.22	82.7336	2,928.22	82.966	2,928.22	83.0901	2,928.22	82.2315	2,928.22	82.6285	2,928.22	81.1027	2,928.22	81.6385	2,928.22	79.0618	2,928.22	79.6226	2,928.22	76.6662	2,928.22	77.5156	2,928.22	74.7254	2,928.22	75.5386	2,928.22	72.9935	2,928.22	72.9625	2,928.22	70.2305	2,928.22	71.3403	2,928.22	68.6239	2,928.22	69.1652	2,928.22	67.1397	2,928.22	68.8179	2,928.22	66.9417	2,928.22	66.4188	2,928.22	69.1219	2,928.22	69.8784	2,928.22	67.525	2,928.22	68.3626	2,928.22	69.3559	2,928.22	70.1716	2,928.22	63.9389	2,928.22	66.3177	2,928.22	65.6205
3,030.76	80.7319	3,030.76	81.3992	3,030.76	81.0076	3,030.76	82.5407	3,030.76	82.466	3,030.76	83.0714	3,030.76	83.0781	3,030.76	82.6365	3,030.76	82.5574	3,030.76	81.2632	3,030.76	81.2352	3,030.76	79.7605	3,030.76	79.8041	3,030.76	77.2498	3,030.76	77.2012	3,030.76	75.3901	3,030.76	75.2069	3,030.76	72.5899	3,030.76	73.36	3,030.76	71.6581	3,030.76	71.1719	3,030.76	68.7877	3,030.76	68.8733	3,030.76	68.0542	3,030.76	68.1406	3,030.76	66.3909	3,030.76	66.7243	3,030.76	69.5428	3,030.76	69.9822	3,030.76	68.8074	3,030.76	67.6697	3,030.76	69.9665	3,030.76	70.407	3,030.76	64.5645	3,030.76	65.6924	3,030.76	66.0725
3,137.7	80.2638	3,137.7	81.1246	3,137.7	80.9695	3,137.7	82.1843	3,137.7	82.0044	3,137.7	82.8896	3,137.7	82.8435	3,137.7	82.4693	3,137.7	82.3897	3,137.7	81.105	3,137.7	81.1703	3,137.7	79.6147	3,137.7	79.573	3,137.7	77.8168	3,137.7	77.6167	3,137.7	75.4119	3,137.7	75.5791	3,137.7	73.3534	3,137.7	73.4954	3,137.7	71.4663	3,137.7	71.2604	3,137.7	69.3885	3,137.7	69.7745	3,137.7	68.5132	3,137.7	68.6494	3,137.7	65.6783	3,137.7	66.4177	3,137.7	70.1156	3,137.7	69.9099	3,137.7	68.6259	3,137.7	68.2134	3,137.7	70.0532	3,137.7	69.8518	3,137.7	64.9261	3,137.7	65.2671	3,137.7	66.0633
3,249.02	80.5369	3,249.02	80.9357	3,249.02	81.2045	3,249.02	81.802	3,249.02	81.9408	3,249.02	82.3955	3,249.02	82.5292	3,249.02	82.0615	3,249.02	82.1291	3,249.02	80.3396	3,249.02	80.9449	3,249.02	78.85	3,249.02	79.3388	3,249.02	76.9545	3,249.02	77.5071	3,249.02	75.339	3,249.02	76.15	3,249.02	73.3182	3,249.02	74.0495	3,249.02	71.4428	3,249.02	72.0573	3,249.02	69.5085	3,249.02	69.7595	3,249.02	68.9928	3,249.02	68.5474	3,249.02	67.215	3,249.02	66.3406	3,249.02	70.1049	3,249.02	69.4176	3,249.02	68.0673	3,249.02	68.0223	3,249.02	70.8046	3,249.02	70.5178	3,249.02	62.1695	3,249.02	64.8086	3,249.02	64.888
3,363.28	80.8822	3,363.28	81.2869	3,363.28	81.2875	3,363.28	81.6692	3,363.28	81.9062	3,363.28	81.8813	3,363.28	82.1231	3,363.28	81.3396	3,363.28	81.7587	3,363.28	80.0086	3,363.28	80.9124	3,363.28	78.3289	3,363.28	79.0836	3,363.28	76.3839	3,363.28	77.75	3,363.28	74.5788	3,363.28	75.5757	3,363.28	72.467	3,363.28	73.3723	3,363.28	70.1969	3,363.28	71.0819	3,363.28	68.6352	3,363.28	69.3124	3,363.28	67.6683	3,363.28	67.7416	3,363.28	65.5825	3,363.28	65.9067	3,363.28	68.3512	3,363.28	68.1743	3,363.28	67.5514	3,363.28	68.7802	3,363.28	69.2676	3,363.28	69.6269	3,363.28	60.5536	3,363.28	63.5107	3,363.28	63.3715
3,481.93	81.5363	3,481.93	81.7385	3,481.93	81.5137	3,481.93	82.1822	3,481.93	81.7995	3,481.93	81.9372	3,481.93	81.9388	3,481.93	81.5938	3,481.93	81.6037	3,481.93	80.936	3,481.93	80.5195	3,481.93	79.4806	3,481.93	79.2064	3,481.93	77.4617	3,481.93	77.5272	3,481.93	75.9393	3,481.93	75.5947	3,481.93	73.3445	3,481.93	73.7002	3,481.93	71.4041	3,481.93	71.3068	3,481.93	69.2711	3,481.93	69.3227	3,481.93	67.8661	3,481.93	68.6781	3,481.93	66.7443	3,481.93	66.7008	3,481.93	67.3162	3,481.93	66.006	3,481.93	67.5304	3,481.93	67.8071	3,481.93	69.5779	3,481.93	69.5014	3,481.93	59.733	3,481.93	63.072	3,481.93	63.9376
3,604.98	82.2543	3,604.98	81.828	3,604.98	81.9453	3,604.98	81.7022	3,604.98	81.9137	3,604.98	81.7661	3,604.98	82.268	3,604.98	81.8122	3,604.98	82.2651	3,604.98	81.3372	3,604.98	81.5968	3,604.98	79.9657	3,604.98	80.598	3,604.98	78.0785	3,604.98	78.9933	3,604.98	75.9641	3,604.98	77.0708	3,604.98	73.3328	3,604.98	75.1681	3,604.98	72.1681	3,604.98	72.2753	3,604.98	69.3384	3,604.98	70.8459	3,604.98	68.6776	3,604.98	69.8924	3,604.98	67.1862	3,604.98	69.0182	3,604.98	68.9188	3,604.98	68.233	3,604.98	68.3489	3,604.98	69.5154	3,604.98	69.2978	3,604.98	69.9814	3,604.98	58.0287	3,604.98	64.6962	3,604.98	64.3771
3,732.42	82.7557	3,732.42	82.3234	3,732.42	82.9867	3,732.42	81.9592	3,732.42	82.4126	3,732.42	82.0501	3,732.42	82.5925	3,732.42	82.1059	3,732.42	82.6229	3,732.42	81.9763	3,732.42	82.2244	3,732.42	80.5335	3,732.42	81.0042	3,732.42	78.8001	3,732.42	79.2896	3,732.42	75.8722	3,732.42	76.6223	3,732.42	73.8633	3,732.42	74.7639	3,732.42	71.1248	3,732.42	71.7707	3,732.42	69.4992	3,732.42	70.4017	3,732.42	68.2962	3,732.42	69.5946	3,732.42	66.3383	3,732.42	67.2364	3,732.42	67.4046	3,732.42	68.3614	3,732.42	69.6515	3,732.42	69.8122	3,732.42	70.0749	3,732.42	69.8071	3,732.42	61.2877	3,732.42	64.906	3,732.42	64.0262
3,864.26	82.7548	3,864.26	82.6612	3,864.26	81.95	3,864.26	81.7379	3,864.26	81.2377	3,864.26	81.69	3,864.26	80.9887	3,864.26	81.7882	3,864.26	81.3312	3,864.26	81.5565	3,864.26	81.0951	3,864.26	80.4884	3,864.26	79.9847	3,864.26	78.8328	3,864.26	77.7723	3,864.26	76.3078	3,864.26	75.8132	3,864.26	73.9101	3,864.26	72.58	3,864.26	71.7847	3,864.26	70.7308	3,864.26	69.5537	3,864.26	68.2333	3,864.26	67.8211	3,864.26	66.643	3,864.26	65.9655	3,864.26	65.7709	3,864.26	67.2206	3,864.26	65.8256	3,864.26	69.5238	3,864.26	67.4762	3,864.26	70.1503	3,864.26	68.0255	3,864.26	62.2779	3,864.26	64.4244	3,864.26	61.7056
4,000.49	83.2106	4,000.49	81.9156	4,000.49	82.1573	4,000.49	80.8351	4,000.49	81.0727	4,000.49	80.714	4,000.49	81.0901	4,000.49	81.5651	4,000.49	81.6082	4,000.49	81.1894	4,000.49	81.594	4,000.49	79.6933	4,000.49	80.3634	4,000.49	77.3284	4,000.49	78.3834	4,000.49	74.6475	4,000.49	75.7557	4,000.49	71.7532	4,000.49	74.0359	4,000.49	69.7595	4,000.49	71.6128	4,000.49	68.0159	4,000.49	69.0652	4,000.49	68.0998	4,000.49	67.1867	4,000.49	64.6717	4,000.49	67.5555	4,000.49	66.3107	4,000.49	66.0764	4,000.49	67.6957	4,000.49	69.1212	4,000.49	67.5486	4,000.49	67.2319	4,000.49	61.8308	4,000.49	65.6208	4,000.49	60.8052
4,141.11	83.7149	4,141.11	82.8363	4,141.11	83.8017	4,141.11	81.6728	4,141.11	81.9177	4,141.11	81.7722	4,141.11	81.8099	4,141.11	81.8791	4,141.11	82.2599	4,141.11	81.7377	4,141.11	81.718	4,141.11	80.1665	4,141.11	80.4911	4,141.11	77.6428	4,141.11	77.8262	4,141.11	74.598	4,141.11	75.1304	4,141.11	71.8824	4,141.11	72.6676	4,141.11	68.3574	4,141.11	69.8016	4,141.11	65.6689	4,141.11	67.5926	4,141.11	64.8866	4,141.11	66.0106	4,141.11	66.069	4,141.11	66.0002	4,141.11	64.472	4,141.11	64.9456	4,141.11	67.7411	4,141.11	67.8092	4,141.11	66.9469	4,141.11	66.8325	4,141.11	63.1794	4,141.11	65.5702	4,141.11	61.7226
4,287.6	84.0246	4,287.6	83.4279	4,287.6	82.7375	4,287.6	81.3447	4,287.6	81.4325	4,287.6	81.0927	4,287.6	81.0705	4,287.6	81.5798	4,287.6	81.8975	4,287.6	80.7229	4,287.6	81.2902	4,287.6	79.6324	4,287.6	79.8372	4,287.6	77.2939	4,287.6	77.7205	4,287.6	74.0751	4,287.6	74.7361	4,287.6	71.9913	4,287.6	72.1231	4,287.6	69.664	4,287.6	69.3262	4,287.6	67.1749	4,287.6	67.6656	4,287.6	64.9851	4,287.6	66.1258	4,287.6	65.0521	4,287.6	66.5575	4,287.6	65.5447	4,287.6	64.1651	4,287.6	68.8779	4,287.6	65.9191	4,287.6	66.9668	4,287.6	66.1415	4,287.6	61.4768	4,287.6	65.0315	4,287.6	59.9371
4,438.48	84.056	4,438.48	82.8224	4,438.48	83.311	4,438.48	81.3074	4,438.48	81.7598	4,438.48	81.2609	4,438.48	81.0038	4,438.48	81.5385	4,438.48	81.2031	4,438.48	80.8721	4,438.48	80.8121	4,438.48	78.727	4,438.48	79.0751	4,438.48	75.8724	4,438.48	76.5771	4,438.48	73.5212	4,438.48	74.3886	4,438.48	70.7492	4,438.48	71.0664	4,438.48	67.1909	4,438.48	68.6741	4,438.48	67.7573	4,438.48	66.6511	4,438.48	65.334	4,438.48	65.1578	4,438.48	63.6867	4,438.48	64.9479	4,438.48	65.4619	4,438.48	63.5404	4,438.48	67.818	4,438.48	67.3921	4,438.48	65.7122	4,438.48	66.8484	4,438.48	63.218	4,438.48	66.0364	4,438.48	57.1689
4,595.21	83.695	4,595.21	82.5454	4,595.21	83.1832	4,595.21	81.3246	4,595.21	81.2399	4,595.21	80.437	4,595.21	80.7879	4,595.21	81.222	4,595.21	81.0153	4,595.21	80.5019	4,595.21	80.4806	4,595.21	78.483	4,595.21	78.9925	4,595.21	76.3369	4,595.21	76.5579	4,595.21	73.5904	4,595.21	73.8926	4,595.21	70.3711	4,595.21	71.5845	4,595.21	66.9684	4,595.21	68.9618	4,595.21	62.4759	4,595.21	67.2024	4,595.21	62.7894	4,595.21	63.9068	4,595.21	64.839	4,595.21	64.3205	4,595.21	61.0768	4,595.21	62.6121	4,595.21	67.2373	4,595.21	67.0027	4,595.21	65.7938	4,595.21	66.0681	4,595.21	61.7554	4,595.21	64.9724	4,595.21	58.4635
4,756.35	84.2429	4,756.35	83.4373	4,756.35	83.338	4,756.35	81.4515	4,756.35	81.9447	4,756.35	81.1449	4,756.35	81.6908	4,756.35	80.7118	4,756.35	81.6991	4,756.35	79.4864	4,756.35	80.8578	4,756.35	77.935	4,756.35	79.3145	4,756.35	75.3153	4,756.35	77.539	4,756.35	73.2598	4,756.35	75.2979	4,756.35	71.1035	4,756.35	72.4937	4,756.35	69.4388	4,756.35	69.7426	4,756.35	68.0113	4,756.35	67.8036	4,756.35	63.8774	4,756.35	65.146	4,756.35	64.099	4,756.35	64.747	4,756.35	63.6507	4,756.35	64.8382	4,756.35	67.028	4,756.35	66.055	4,756.35	65.2714	4,756.35	67.2015	4,756.35	60.8783	4,756.35	65.5247	4,756.35	57.3255
4,924.8	83.9818	4,924.8	83.304	4,924.8	83.7982	4,924.8	82.3409	4,924.8	82.2815	4,924.8	81.9916	4,924.8	81.1039	4,924.8	82.1125	4,924.8	81.5398	4,924.8	81.6	4,924.8	81.1529	4,924.8	79.9347	4,924.8	79.8991	4,924.8	77.5124	4,924.8	77.4957	4,924.8	74.3223	4,924.8	75.5276	4,924.8	71.3599	4,924.8	72.5858	4,924.8	66.3462	4,924.8	70.1938	4,924.8	65.4778	4,924.8	67.1472	4,924.8	63.9394	4,924.8	65.6422	4,924.8	62.9862	4,924.8	64.7337	4,924.8	63.1289	4,924.8	63.9386	4,924.8	66.2326	4,924.8	66.6265	4,924.8	65.2769	4,924.8	67.3195	4,924.8	63.7678	4,924.8	65.4641	4,924.8	56.0145
5,097.66	83.4299	5,097.66	83.0823	5,097.66	83.0518	5,097.66	82.0433	5,097.66	82.3817	5,097.66	80.4465	5,097.66	81.7564	5,097.66	80.4741	5,097.66	81.3138	5,097.66	79.7888	5,097.66	80.9937	5,097.66	78.7398	5,097.66	79.946	5,097.66	77.2784	5,097.66	78.0923	5,097.66	75.2774	5,097.66	75.3429	5,097.66	72.8824	5,097.66	72.9995	5,097.66	70.6363	5,097.66	70.0745	5,097.66	67.6565	5,097.66	68.0773	5,097.66	65.4552	5,097.66	66	5,097.66	64.7246	5,097.66	64.032	5,097.66	65.5925	5,097.66	63.6526	5,097.66	67.1411	5,097.66	67.2421	5,097.66	64.8425	5,097.66	65.5039	5,097.66	60.8221	5,097.66	65.2414	5,097.66	59.2508
5,277.83	83.3774	5,277.83	83.3957	5,277.83	83.2634	5,277.83	82.5697	5,277.83	82.628	5,277.83	81.6773	5,277.83	81.2231	5,277.83	80.7132	5,277.83	80.746	5,277.83	80.1556	5,277.83	80.3256	5,277.83	78.8594	5,277.83	79.089	5,277.83	76.3418	5,277.83	77.3393	5,277.83	73.656	5,277.83	75.5911	5,277.83	70.6576	5,277.83	71.5603	5,277.83	67.2745	5,277.83	68.7958	5,277.83	65.8167	5,277.83	65.4742	5,277.83	60.6358	5,277.83	64.4491	5,277.83	61.9579	5,277.83	63.3512	5,277.83	62.678	5,277.83	62.8456	5,277.83	64.4445	5,277.83	63.8055	5,277.83	64.6196	5,277.83	66.2809	5,277.83	58.8629	5,277.83	63.3792	5,277.83	56.391
5,463.87	82.7818	5,463.87	83.0163	5,463.87	83.3121	5,463.87	82.5787	5,463.87	82.6079	5,463.87	80.7484	5,463.87	80.7885	5,463.87	80.3564	5,463.87	80.3656	5,463.87	80.0504	5,463.87	79.9971	5,463.87	79.1307	5,463.87	78.9764	5,463.87	76.8623	5,463.87	76.9754	5,463.87	74.488	5,463.87	74.0813	5,463.87	69.7871	5,463.87	70.5719	5,463.87	67.5111	5,463.87	68.1861	5,463.87	64.7368	5,463.87	65.2976	5,463.87	63.9436	5,463.87	63.5894	5,463.87	62.6122	5,463.87	62.8311	5,463.87	61.4901	5,463.87	62.9706	5,463.87	64.8965	5,463.87	65.0679	5,463.87	63.3175	5,463.87	64.5417	5,463.87	60.9464	5,463.87	62.8729	5,463.87	57.4223
5,657.23	82.5267	5,657.23	83.0277	5,657.23	82.7631	5,657.23	82.551	5,657.23	82.5973	5,657.23	80.2853	5,657.23	80.3592	5,657.23	78.9467	5,657.23	79.0374	5,657.23	78.8099	5,657.23	79.1269	5,657.23	77.3431	5,657.23	78.2769	5,657.23	74.9811	5,657.23	75.9278	5,657.23	71.5699	5,657.23	73.8969	5,657.23	69.6263	5,657.23	69.4957	5,657.23	66.6523	5,657.23	66.7249	5,657.23	63.3365	5,657.23	64.6823	5,657.23	61.955	5,657.23	62.7284	5,657.23	60.8769	5,657.23	60.339	5,657.23	61.7689	5,657.23	60.6464	5,657.23	64.4923	5,657.23	62.8946	5,657.23	62.9073	5,657.23	64.1634	5,657.23	56.6439	5,657.23	61.1822	5,657.23	55.5628
5,856.45	81.8907	5,856.45	82.3294	5,856.45	82.6035	5,856.45	81.5815	5,856.45	81.9644	5,856.45	79.2398	5,856.45	79.7566	5,856.45	78.3116	5,856.45	78.9129	5,856.45	78.6396	5,856.45	78.7645	5,856.45	77.1589	5,856.45	77.5978	5,856.45	74.5114	5,856.45	75.0342	5,856.45	71.7153	5,856.45	71.739	5,856.45	68.6622	5,856.45	68.3149	5,856.45	64.6935	5,856.45	65.7835	5,856.45	62.5434	5,856.45	62.6633	5,856.45	61.1846	5,856.45	60.6034	5,856.45	57.757	5,856.45	60.4272	5,856.45	58.1941	5,856.45	59.9277	5,856.45	62.1111	5,856.45	61.6523	5,856.45	61.3347	5,856.45	62.3425	5,856.45	56.9023	5,856.45	60.2185	5,856.45	55.6327
6,062.99	82.5259	6,062.99	82.8847	6,062.99	82.646	6,062.99	82.1424	6,062.99	82.2196	6,062.99	79.5861	6,062.99	79.6086	6,062.99	78.4641	6,062.99	78.1824	6,062.99	77.6693	6,062.99	78.361	6,062.99	75.8964	6,062.99	76.9683	6,062.99	72.7261	6,062.99	74.3278	6,062.99	68.6829	6,062.99	71.7303	6,062.99	65.6315	6,062.99	68.3437	6,062.99	62.7003	6,062.99	65.9305	6,062.99	60.5629	6,062.99	62.275	6,062.99	58.8824	6,062.99	60.015	6,062.99	57.3947	6,062.99	60.2014	6,062.99	58.9794	6,062.99	58.7755	6,062.99	62.3015	6,062.99	60.4493	6,062.99	59.7693	6,062.99	63.0191	6,062.99	55.358	6,062.99	59.477	6,062.99	53.2217
6,276.86	82.0446	6,276.86	82.1646	6,276.86	82.4635	6,276.86	81.0441	6,276.86	81.5904	6,276.86	78.5711	6,276.86	79.6781	6,276.86	77.5394	6,276.86	78.3472	6,276.86	77.4097	6,276.86	77.6796	6,276.86	75.5832	6,276.86	76.3224	6,276.86	73.2667	6,276.86	73.6488	6,276.86	70.1957	6,276.86	70.6042	6,276.86	67.1974	6,276.86	67.7854	6,276.86	64.1672	6,276.86	64.9252	6,276.86	60.959	6,276.86	61.3102	6,276.86	56.1567	6,276.86	57.1015	6,276.86	54.8645	6,276.86	56.2049	6,276.86	56.3201	6,276.86	59.4453	6,276.86	60.3061	6,276.86	61.0544	6,276.86	61.4537	6,276.86	62.0116	6,276.86	56.1979	6,276.86	58.1998	6,276.86	49.6235
6,498.05	81.4414	6,498.05	81.7209	6,498.05	81.7556	6,498.05	80.9738	6,498.05	81.3163	6,498.05	79.3225	6,498.05	79.6538	6,498.05	78.0693	6,498.05	78.3058	6,498.05	76.7345	6,498.05	77.4801	6,498.05	74.5904	6,498.05	75.9504	6,498.05	71.7486	6,498.05	73.158	6,498.05	67.9144	6,498.05	70.1788	6,498.05	65.1774	6,498.05	67.8464	6,498.05	63.5417	6,498.05	64.3685	6,498.05	59.0621	6,498.05	60.8169	6,498.05	56.8549	6,498.05	57.7951	6,498.05	53.0401	6,498.05	56.7784	6,498.05	55.1512	6,498.05	55.2125	6,498.05	59.9152	6,498.05	59.3144	6,498.05	58.2218	6,498.05	60.9773	6,498.05	55.0353	6,498.05	57.7228	6,498.05	51.3284
6,726.56	81.7061	6,726.56	81.6773	6,726.56	81.6869	6,726.56	81.1139	6,726.56	81.3693	6,726.56	79.904	6,726.56	80.2618	6,726.56	78.2806	6,726.56	78.4783	6,726.56	76.7609	6,726.56	76.9885	6,726.56	74.8232	6,726.56	75.2136	6,726.56	72.7511	6,726.56	73.2113	6,726.56	69.6142	6,726.56	69.9521	6,726.56	66.9961	6,726.56	67.2711	6,726.56	63.4545	6,726.56	63.8841	6,726.56	59.3412	6,726.56	61.0026	6,726.56	56.0587	6,726.56	58.2042	6,726.56	54.8303	6,726.56	56.0336	6,726.56	55.2	6,726.56	53.3584	6,726.56	58.6397	6,726.56	59.4229	6,726.56	59.6006	6,726.56	61.1851	6,726.56	53.974	6,726.56	56.6928	6,726.56	47.0849
6,963.87	81.8439	6,963.87	81.2655	6,963.87	81.5099	6,963.87	80.4881	6,963.87	80.8871	6,963.87	79.174	6,963.87	79.5068	6,963.87	76.6185	6,963.87	77.2098	6,963.87	74.5987	6,963.87	75.6364	6,963.87	73.1793	6,963.87	74.2847	6,963.87	70.5123	6,963.87	71.7345	6,963.87	67.4994	6,963.87	69.5398	6,963.87	63.8428	6,963.87	65.5492	6,963.87	61.6096	6,963.87	62.5402	6,963.87	58.9484	6,963.87	59.6669	6,963.87	55.5149	6,963.87	56.704	6,963.87	53.1737	6,963.87	54.4156	6,963.87	52.3513	6,963.87	50.4898	6,963.87	57.3293	6,963.87	57.7003	6,963.87	58.2444	6,963.87	59.9145	6,963.87	52.4223	6,963.87	55.6038	6,963.87	50.942
7,209.96	82.3305	7,209.96	81.392	7,209.96	81.9958	7,209.96	80.7679	7,209.96	81.1573	7,209.96	79.2117	7,209.96	79.8461	7,209.96	76.6138	7,209.96	77.3803	7,209.96	75.0511	7,209.96	75.6074	7,209.96	73.9011	7,209.96	74.4703	7,209.96	71.1762	7,209.96	72.1717	7,209.96	68.0532	7,209.96	69.022	7,209.96	64.2445	7,209.96	63.4735	7,209.96	60.529	7,209.96	61.6212	7,209.96	57.2952	7,209.96	58.4119	7,209.96	53.7736	7,209.96	56.8828	7,209.96	51.3622	7,209.96	54.3463	7,209.96	52.2286	7,209.96	52.2259	7,209.96	56.3503	7,209.96	56.6028	7,209.96	57.8203	7,209.96	59.1088	7,209.96	53.4125	7,209.96	54.0687	7,209.96	47.7295
7,464.84	82.0565	7,464.84	81.0489	7,464.84	81.3287	7,464.84	80.4758	7,464.84	80.5894	7,464.84	78.9955	7,464.84	78.9864	7,464.84	75.9876	7,464.84	76.5329	7,464.84	74.4744	7,464.84	74.407	7,464.84	72.6426	7,464.84	72.8229	7,464.84	69.2366	7,464.84	69.6397	7,464.84	64.9546	7,464.84	66.4758	7,464.84	61.8766	7,464.84	62.0962	7,464.84	56.3536	7,464.84	58.6788	7,464.84	55.4532	7,464.84	55.9907	7,464.84	53.465	7,464.84	53.9384	7,464.84	50.9118	7,464.84	49.4211	7,464.84	47.7307	7,464.84	47.4461	7,464.84	56.3302	7,464.84	53.7724	7,464.84	55.3876	7,464.84	56.064	7,464.84	53.4354	7,464.84	53.1472	7,464.84	46.0705
7,727.05	82.3198	7,727.05	81.2909	7,727.05	81.7099	7,727.05	80.6086	7,727.05	80.9955	7,727.05	78.5831	7,727.05	79.5637	7,727.05	75.7333	7,727.05	76.9175	7,727.05	73.757	7,727.05	74.9583	7,727.05	71.2871	7,727.05	72.8804	7,727.05	67.5612	7,727.05	69.4401	7,727.05	64.1773	7,727.05	65.547	7,727.05	60.7742	7,727.05	61.3574	7,727.05	57.3114	7,727.05	58.9727	7,727.05	54.9624	7,727.05	55.685	7,727.05	52.4208	7,727.05	52.5937	7,727.05	44.3399	7,727.05	47.6493	7,727.05	46.5902	7,727.05	45.7087	7,727.05	54.6761	7,727.05	51.5348	7,727.05	54.7706	7,727.05	55.0774	7,727.05	51.8228	7,727.05	49.4828	7,727.05	45.5902
7,999.51	82.3244	7,999.51	81.386	7,999.51	81.619	7,999.51	80.4709	7,999.51	80.8914	7,999.51	78.6545	7,999.51	79.286	7,999.51	76.271	7,999.51	76.8932	7,999.51	74.0565	7,999.51	74.6448	7,999.51	71.7349	7,999.51	72.0911	7,999.51	68.1906	7,999.51	68.5298	7,999.51	64.6513	7,999.51	65.2153	7,999.51	59.9212	7,999.51	60.7147	7,999.51	57.6039	7,999.51	58.6656	7,999.51	54.1327	7,999.51	55.4541	7,999.51	48.1482	7,999.51	52.079	7,999.51	45.8897	7,999.51	48.9179	7,999.51	44.2211	7,999.51	44.2468	7,999.51	52.1835	7,999.51	51.3642	7,999.51	53.7775	7,999.51	54.867	7,999.51	50.9582	7,999.51	50.8732	7,999.51	44.0559
8,282.23	82.258	8,282.23	81.5145	8,282.23	81.7563	8,282.23	80.4839	8,282.23	80.7898	8,282.23	78.799	8,282.23	79.1532	8,282.23	76.2782	8,282.23	76.8855	8,282.23	73.753	8,282.23	74.4828	8,282.23	70.8262	8,282.23	71.893	8,282.23	66.7817	8,282.23	67.8462	8,282.23	62.8224	8,282.23	64.8774	8,282.23	59.1102	8,282.23	59.957	8,282.23	56.9013	8,282.23	57.487	8,282.23	53.9741	8,282.23	53.6938	8,282.23	49.0302	8,282.23	51.8919	8,282.23	43.7284	8,282.23	45.4356	8,282.23	44.1115	8,282.23	43.1029	8,282.23	52.1018	8,282.23	51.4261	8,282.23	53.2212	8,282.23	54.3006	8,282.23	49.3775	8,282.23	47.3427	8,282.23	45.396
8,573.73	82.3966	8,573.73	81.78	8,573.73	81.9134	8,573.73	80.6072	8,573.73	80.8078	8,573.73	78.8454	8,573.73	79.0619	8,573.73	76.0844	8,573.73	76.7709	8,573.73	73.1545	8,573.73	73.8565	8,573.73	69.92	8,573.73	71.0561	8,573.73	66.4754	8,573.73	67.4203	8,573.73	61.7321	8,573.73	63.3316	8,573.73	59.1544	8,573.73	59.9935	8,573.73	55.3596	8,573.73	56.2502	8,573.73	51.8915	8,573.73	53.6727	8,573.73	46.0877	8,573.73	50.1485	8,573.73	40.2188	8,573.73	46.5963	8,573.73	45.0767	8,573.73	46.0028	8,573.73	49.9138	8,573.73	50.7472	8,573.73	52.3883	8,573.73	52.7661	8,573.73	47.205	8,573.73	46.2903	8,573.73	43.8949
8,876.95	82.0585	8,876.95	81.4849	8,876.95	81.8893	8,876.95	80.1461	8,876.95	80.687	8,876.95	78.393	8,876.95	78.9848	8,876.95	75.2987	8,876.95	76.3985	8,876.95	72.2076	8,876.95	73.0167	8,876.95	69.0992	8,876.95	70.0888	8,876.95	64.8737	8,876.95	65.8758	8,876.95	60.3828	8,876.95	61.5957	8,876.95	56.6925	8,876.95	57.8632	8,876.95	54.2648	8,876.95	54.294	8,876.95	50.4745	8,876.95	50.664	8,876.95	47.8226	8,876.95	48.0884	8,876.95	43.6718	8,876.95	45.3661	8,876.95	43.2492	8,876.95	44.1058	8,876.95	49.2204	8,876.95	47.1023	8,876.95	50.3218	8,876.95	49.9314	8,876.95	44.8899	8,876.95	43.0751	8,876.95	42.9714
9,188.96	82.0272	9,188.96	81.5248	9,188.96	81.8196	9,188.96	80.2337	9,188.96	80.56	9,188.96	78.5245	9,188.96	78.7321	9,188.96	75.2192	9,188.96	75.7639	9,188.96	71.8153	9,188.96	72.0835	9,188.96	67.7559	9,188.96	68.7939	9,188.96	62.9207	9,188.96	63.7732	9,188.96	58.1176	9,188.96	59.4582	9,188.96	55.0329	9,188.96	55.7525	9,188.96	51.866	9,188.96	53.3969	9,188.96	47.902	9,188.96	48.8285	9,188.96	44.2048	9,188.96	46.9372	9,188.96	43.4906	9,188.96	43.2556	9,188.96	40.9423	9,188.96	42.5212	9,188.96	46.3692	9,188.96	45.8031	9,188.96	49.853	9,188.96	48.0613	9,188.96	40.5549	9,188.96	39.6901	9,188.96	43.0837
9,514.16	82.3095	9,514.16	81.7716	9,514.16	82.0826	9,514.16	80.2207	9,514.16	80.6482	9,514.16	78.2751	9,514.16	78.6837	9,514.16	74.3664	9,514.16	75.3927	9,514.16	70.5035	9,514.16	71.5979	9,514.16	65.3312	9,514.16	67.347	9,514.16	59.4169	9,514.16	62.1937	9,514.16	56.2678	9,514.16	58.7924	9,514.16	53.4016	9,514.16	54.1763	9,514.16	49.9327	9,514.16	52.3824	9,514.16	47.4114	9,514.16	49.756	9,514.16	45.4334	9,514.16	47.7417	9,514.16	44.5324	9,514.16	44.2931	9,514.16	38.2309	9,514.16	43.3957	9,514.16	46.4191	9,514.16	44.0827	9,514.16	49.1667	9,514.16	46.6506	9,514.16	36.7756	9,514.16	39.3661	9,514.16	38.8592
9,849.61	82.2315	9,849.61	81.7846	9,849.61	82.0042	9,849.61	80.0598	9,849.61	80.4942	9,849.61	77.8959	9,849.61	78.4766	9,849.61	73.6656	9,849.61	74.856	9,849.61	69.7044	9,849.61	70.7854	9,849.61	64.3773	9,849.61	66.3848	9,849.61	60.4034	9,849.61	61.9729	9,849.61	58.2885	9,849.61	59.5448	9,849.61	56.0466	9,849.61	56.3484	9,849.61	52.2556	9,849.61	53.5643	9,849.61	50.6664	9,849.61	51.501	9,849.61	49.6761	9,849.61	49.2913	9,849.61	46.2975	9,849.61	46.5972	9,849.61	42.9654	9,849.61	43.6098	9,849.61	46.7884	9,849.61	44.9558	9,849.61	50.2255	9,849.61	48.4649	9,849.61	40.3924	9,849.61	35.8235	9,849.61	42.8221
10,196.8	83.0226	10,196.8	82.4847	10,196.8	82.8683	10,196.8	80.9921	10,196.8	81.5318	10,196.8	78.6149	10,196.8	79.3581	10,196.8	74.2753	10,196.8	75.6259	10,196.8	69.9694	10,196.8	71.272	10,196.8	64.936	10,196.8	66.9859	10,196.8	60.5828	10,196.8	62.895	10,196.8	58.4453	10,196.8	59.6557	10,196.8	55.5555	10,196.8	57.2189	10,196.8	52.5161	10,196.8	53.1645	10,196.8	50.3698	10,196.8	50.7002	10,196.8	48.6373	10,196.8	49.7104	10,196.8	45.3786	10,196.8	46.45	10,196.8	43.0204	10,196.8	42.0295	10,196.8	46.756	10,196.8	45.5888	10,196.8	49.3315	10,196.8	47.8071	10,196.8	42.8734	10,196.8	40.1169	10,196.8	45.0978
10,555.7	82.9018	10,555.7	82.3641	10,555.7	82.7392	10,555.7	80.995	10,555.7	81.4302	10,555.7	78.2026	10,555.7	78.9828	10,555.7	73.5249	10,555.7	75.0196	10,555.7	68.4106	10,555.7	69.9406	10,555.7	63.9248	10,555.7	66.0021	10,555.7	60.733	10,555.7	62.631	10,555.7	59.4719	10,555.7	59.9751	10,555.7	56.5015	10,555.7	56.4983	10,555.7	53.1996	10,555.7	53.7987	10,555.7	51.3565	10,555.7	50.927	10,555.7	49.4047	10,555.7	49.2966	10,555.7	45.4048	10,555.7	44.6782	10,555.7	41.9652	10,555.7	43.8401	10,555.7	45.953	10,555.7	44.7438	10,555.7	50.8017	10,555.7	50.282	10,555.7	42.0907	10,555.7	36.8611	10,555.7	45.8488
10,927.7	83.0375	10,927.7	82.524	10,927.7	82.7985	10,927.7	81.1027	10,927.7	81.5361	10,927.7	77.9939	10,927.7	78.8022	10,927.7	72.9954	10,927.7	74.473	10,927.7	67.3291	10,927.7	69.2791	10,927.7	63.7225	10,927.7	65.5984	10,927.7	61.5787	10,927.7	62.179	10,927.7	60.2015	10,927.7	60.4703	10,927.7	57.6006	10,927.7	57.3823	10,927.7	53.5785	10,927.7	54.1487	10,927.7	51.5927	10,927.7	52.2047	10,927.7	50.6108	10,927.7	48.7983	10,927.7	46.8817	10,927.7	45.1069	10,927.7	43.4031	10,927.7	39.8529	10,927.7	45.3752	10,927.7	40.7311	10,927.7	50.193	10,927.7	50.1285	10,927.7	43.6767	10,927.7	37.4226	10,927.7	44.5311
11,313	83.0899	11,313	82.5421	11,313	82.7961	11,313	81.0586	11,313	81.6115	11,313	77.5521	11,313	78.4538	11,313	71.9558	11,313	73.9734	11,313	66.5498	11,313	68.6112	11,313	63.9483	11,313	65.1774	11,313	62.9001	11,313	61.6539	11,313	61.5852	11,313	60.1464	11,313	58.9208	11,313	58.6911	11,313	55.6124	11,313	55.0647	11,313	52.9822	11,313	52.8316	11,313	52.0804	11,313	49.01	11,313	46.815	11,313	44.8464	11,313	38.0494	11,313	32.4592	11,313	47.542	11,313	37.8614	11,313	50.1102	11,313	49.9346	11,313	47.189	11,313	42.4062	11,313	47.0504
11,712.9	83.0476	11,712.9	82.6127	11,712.9	82.7738	11,712.9	81.0341	11,712.9	81.5617	11,712.9	77.1628	11,712.9	77.9738	11,712.9	71.1689	11,712.9	73.2288	11,712.9	66.2601	11,712.9	67.5228	11,712.9	63.486	11,712.9	63.4616	11,712.9	64.402	11,712.9	62.684	11,712.9	63.1267	11,712.9	61.9275	11,712.9	59.9908	11,712.9	59.4235	11,712.9	56.0105	11,712.9	56.6547	11,712.9	54.0743	11,712.9	54.2053	11,712.9	53.0597	11,712.9	50.0094	11,712.9	47.9858	11,712.9	46.3462	11,712.9	41.6699	11,712.9	38.323	11,712.9	47.4468	11,712.9	38.3023	11,712.9	50.6843	11,712.9	50.313	11,712.9	48.1273	11,712.9	45.7587	11,712.9	48.6686
12,126	83.1753	12,126	82.7154	12,126	83.0124	12,126	80.9281	12,126	81.4677	12,126	76.8042	12,126	77.6957	12,126	70.5339	12,126	72.4335	12,126	64.6403	12,126	66.6256	12,126	63.1792	12,126	61.8935	12,126	65.8729	12,126	64.599	12,126	64.7156	12,126	63.8542	12,126	61.6601	12,126	61.5544	12,126	56.9021	12,126	58.2593	12,126	55.0018	12,126	55.4554	12,126	53.056	12,126	51.6972	12,126	49.742	12,126	48.4018	12,126	43.7341	12,126	42.4441	12,126	49.6013	12,126	39.3576	12,126	50.7007	12,126	49.9134	12,126	49.9382	12,126	47.3969	12,126	50.3713
12,553.7	83.3905	12,553.7	82.6459	12,553.7	83.0405	12,553.7	80.6044	12,553.7	81.1605	12,553.7	76.3492	12,553.7	77.1578	12,553.7	69.8433	12,553.7	72.2315	12,553.7	60.8763	12,553.7	63.7683	12,553.7	65.7022	12,553.7	62.1727	12,553.7	67.4282	12,553.7	66.353	12,553.7	66.2303	12,553.7	64.9372	12,553.7	62.4555	12,553.7	62.8314	12,553.7	58.3605	12,553.7	59.3071	12,553.7	56.2007	12,553.7	55.9256	12,553.7	54.261	12,553.7	53.4396	12,553.7	49.6034	12,553.7	48.4699	12,553.7	43.5952	12,553.7	38.2841	12,553.7	49.4229	12,553.7	41.6093	12,553.7	50.9897	12,553.7	51.0952	12,553.7	51.1765	12,553.7	48.9757	12,553.7	52.6536
12,996.1	83.6399	12,996.1	82.4901	12,996.1	82.888	12,996.1	80.3555	12,996.1	80.8561	12,996.1	76.1938	12,996.1	77.0569	12,996.1	69.1157	12,996.1	71.9138	12,996.1	55.1124	12,996.1	57.4178	12,996.1	66.2149	12,996.1	63.2411	12,996.1	68.4952	12,996.1	67.9795	12,996.1	66.8836	12,996.1	66.9055	12,996.1	62.5257	12,996.1	63.0302	12,996.1	58.76	12,996.1	60.1907	12,996.1	55.9709	12,996.1	55.8751	12,996.1	53.3676	12,996.1	53.7278	12,996.1	49.5585	12,996.1	47.6468	12,996.1	40.0305	12,996.1	35.0165	12,996.1	48.5304	12,996.1	42.2786	12,996.1	49.5671	12,996.1	51.7422	12,996.1	50.91	12,996.1	47.7595	12,996.1	53.3019
13,454.6	83.7789	13,454.6	82.3354	13,454.6	82.9146	13,454.6	79.9625	13,454.6	80.7128	13,454.6	76.2097	13,454.6	77.225	13,454.6	67.8459	13,454.6	70.9397	13,454.6	55.8779	13,454.6	56.5032	13,454.6	66.5765	13,454.6	64.8361	13,454.6	69.1655	13,454.6	69.2378	13,454.6	67.1776	13,454.6	67.517	13,454.6	62.5373	13,454.6	62.5677	13,454.6	58.7719	13,454.6	59.4962	13,454.6	55.2727	13,454.6	55.559	13,454.6	52.6887	13,454.6	52.6807	13,454.6	48.6434	13,454.6	48.2289	13,454.6	35.4873	13,454.6	26.5255	13,454.6	48.0155	13,454.6	43.9313	13,454.6	44.4053	13,454.6	49.1965	13,454.6	47.9518	13,454.6	45.938	13,454.6	53.0653
13,929.2	83.9684	13,929.2	82.2151	13,929.2	82.9288	13,929.2	79.7446	13,929.2	80.6617	13,929.2	76.1201	13,929.2	77.2284	13,929.2	66.3267	13,929.2	69.7074	13,929.2	60.8731	13,929.2	60.913	13,929.2	67.9427	13,929.2	66.7854	13,929.2	69.2746	13,929.2	69.8546	13,929.2	66.3191	13,929.2	67.3244	13,929.2	62.694	13,929.2	62.2443	13,929.2	58.7664	13,929.2	59.1365	13,929.2	54.7526	13,929.2	54.5265	13,929.2	51.7585	13,929.2	52.5696	13,929.2	47.7661	13,929.2	49.5321	13,929.2	29.4888	13,929.2	26.7627	13,929.2	46.6619	13,929.2	39.8807	13,929.2	45.8362	13,929.2	47.3764	13,929.2	43.5049	13,929.2	45.4281	13,929.2	52.163
14,419.9	83.7793	14,419.9	81.7807	14,419.9	82.7172	14,419.9	79.5025	14,419.9	80.5961	14,419.9	75.3651	14,419.9	76.8863	14,419.9	61.5436	14,419.9	67.7823	14,419.9	64.6346	14,419.9	63.931	14,419.9	68.3229	14,419.9	68.2256	14,419.9	68.8969	14,419.9	70.1582	14,419.9	66.1809	14,419.9	68.4824	14,419.9	62.6838	14,419.9	62.6593	14,419.9	57.1272	14,419.9	59.7956	14,419.9	54.1053	14,419.9	54.417	14,419.9	50.6468	14,419.9	52.0295	14,419.9	46.5352	14,419.9	48.2931	14,419.9	39.5199	14,419.9	31.5422	14,419.9	46.7732	14,419.9	39.6721	14,419.9	44.892	14,419.9	49.0227	14,419.9	41.5232	14,419.9	40.0776	14,419.9	53.2048
14,928.2	83.1771	14,928.2	81.1864	14,928.2	82.0223	14,928.2	78.7851	14,928.2	80.2407	14,928.2	73.9433	14,928.2	76.0547	14,928.2	59.6301	14,928.2	66.019	14,928.2	66.3152	14,928.2	66.021	14,928.2	67.7538	14,928.2	67.5655	14,928.2	69.5975	14,928.2	70.7249	14,928.2	66.4603	14,928.2	69.0654	14,928.2	62.7179	14,928.2	62.8695	14,928.2	58.0639	14,928.2	59.3945	14,928.2	55.3656	14,928.2	55.6014	14,928.2	51.49	14,928.2	51.5309	14,928.2	44.9622	14,928.2	47.1279	14,928.2	40.5864	14,928.2	32.9167	14,928.2	44.7267	14,928.2	39.4098	14,928.2	41.5363	14,928.2	50.0155	14,928.2	39.2521	14,928.2	34.6463	14,928.2	52.8429
15,455.6	81.8274	15,455.6	80.3458	15,455.6	81.1365	15,455.6	77.4959	15,455.6	79.477	15,455.6	71.683	15,455.6	74.4128	15,455.6	56.2634	15,455.6	63.9739	15,455.6	66.1487	15,455.6	64.7162	15,455.6	68.1238	15,455.6	67.4867	15,455.6	70.3688	15,455.6	70.6901	15,455.6	66.0884	15,455.6	68.1316	15,455.6	62.6429	15,455.6	63.2058	15,455.6	56.2873	15,455.6	58.4109	15,455.6	54.4518	15,455.6	54.5386	15,455.6	50.8281	15,455.6	49.7783	15,455.6	41.9754	15,455.6	46.4815	15,455.6	39.3409	15,455.6	29.8324	15,455.6	42.5467	15,455.6	39.7957	15,455.6	42.0738	15,455.6	48.7373	15,455.6	38.1042	15,455.6	33.9602	15,455.6	49.4569
16,000.5	80.6514	16,000.5	79.6437	16,000.5	80.3775	16,000.5	75.8856	16,000.5	78.257	16,000.5	68.4105	16,000.5	71.9866	16,000.5	57.7462	16,000.5	59.8392	16,000.5	66.6071	16,000.5	64.2639	16,000.5	69.1414	16,000.5	68.3839	16,000.5	69.9334	16,000.5	69.2869	16,000.5	66.1158	16,000.5	67.0821	16,000.5	62.1424	16,000.5	62.9566	16,000.5	55.3139	16,000.5	56.7619	16,000.5	53.72	16,000.5	53.8662	16,000.5	50.4419	16,000.5	48.0972	16,000.5	42.7901	16,000.5	47.4205	16,000.5	41.0783	16,000.5	24.8931	16,000.5	44.0304	16,000.5	42.9752	16,000.5	42.8731	16,000.5	47.0953	16,000.5	42.7945	16,000.5	40.2312	16,000.5	45.8936
16,564.5	80.1691	16,564.5	79.168	16,564.5	79.8735	16,564.5	74.5753	16,564.5	76.761	16,564.5	65.0849	16,564.5	69.1763	16,564.5	56.4893	16,564.5	53.6075	16,564.5	67.2492	16,564.5	65.3127	16,564.5	68.9563	16,564.5	67.7608	16,564.5	68.9793	16,564.5	68.0755	16,564.5	65.9914	16,564.5	65.5615	16,564.5	61.3473	16,564.5	61.5388	16,564.5	55.127	16,564.5	55.2557	16,564.5	52.8604	16,564.5	51.7708	16,564.5	48.9181	16,564.5	49.2023	16,564.5	42.0194	16,564.5	43.6955	16,564.5	37.9218	16,564.5	32.1213	16,564.5	42.6148	16,564.5	40.4106	16,564.5	39.0184	16,564.5	44.5671	16,564.5	45.0701	16,564.5	42.6039	16,564.5	38.7524
17,148.9	80.9224	17,148.9	79.3125	17,148.9	80.1872	17,148.9	74.1784	17,148.9	76.1445	17,148.9	62.064	17,148.9	66.9652	17,148.9	60.4968	17,148.9	46.2338	17,148.9	67.4535	17,148.9	65.9454	17,148.9	67.9472	17,148.9	66.9819	17,148.9	67.342	17,148.9	66.8836	17,148.9	63.9537	17,148.9	63.9469	17,148.9	58.8182	17,148.9	59.2563	17,148.9	53.0052	17,148.9	53.6679	17,148.9	49.8499	17,148.9	49.8619	17,148.9	45.5205	17,148.9	45.2546	17,148.9	38.6991	17,148.9	41.4247	17,148.9	36.0101	17,148.9	35.8959	17,148.9	41.472	17,148.9	39.4759	17,148.9	40.7742	17,148.9	39.7584	17,148.9	41.8893	17,148.9	42.8121	17,148.9	30.9373
17,752.4	81.8365	17,752.4	79.8619	17,752.4	80.5245	17,752.4	74.3662	17,752.4	75.9606	17,752.4	60.3107	17,752.4	65.0096	17,752.4	61.6405	17,752.4	57.0795	17,752.4	66.5218	17,752.4	66.1819	17,752.4	66.181	17,752.4	66.1032	17,752.4	65.3279	17,752.4	65.3401	17,752.4	62.2007	17,752.4	63.0326	17,752.4	56.8748	17,752.4	58.0352	17,752.4	51.283	17,752.4	53.3178	17,752.4	47.5402	17,752.4	47.8948	17,752.4	42.1535	17,752.4	42.7033	17,752.4	34.9982	17,752.4	37.1569	17,752.4	30.7135	17,752.4	36.4823	17,752.4	40.9244	17,752.4	39.1484	17,752.4	40.6495	17,752.4	37.4769	17,752.4	37.6796	17,752.4	40.6345	17,752.4	36.5551
18,379.4	82.0759	18,379.4	79.8202	18,379.4	80.4793	18,379.4	73.922	18,379.4	75.3204	18,379.4	54.2016	18,379.4	60.5609	18,379.4	64.723	18,379.4	62.8547	18,379.4	67.1129	18,379.4	66.9906	18,379.4	65.5189	18,379.4	65.5313	18,379.4	64.2362	18,379.4	64.5838	18,379.4	61.0631	18,379.4	61.7642	18,379.4	54.9973	18,379.4	55.8921	18,379.4	49.0212	18,379.4	51.5348	18,379.4	45.0208	18,379.4	45.1531	18,379.4	40.0161	18,379.4	41.574	18,379.4	28.9167	18,379.4	35.628	18,379.4	30.0768	18,379.4	38.5399	18,379.4	40.7427	18,379.4	32.4359	18,379.4	39.6563	18,379.4	35.0661	18,379.4	28.1171	18,379.4	36.8779	18,379.4	39.089
19,026.9	82.1357	19,026.9	79.8787	19,026.9	80.2893	19,026.9	73.4741	19,026.9	74.6293	19,026.9	52.4206	19,026.9	56.9538	19,026.9	65.9532	19,026.9	65.0946	19,026.9	67.0241	19,026.9	67.0129	19,026.9	65.4259	19,026.9	65.3847	19,026.9	63.4716	19,026.9	63.639	19,026.9	60.0233	19,026.9	60.2852	19,026.9	53.5272	19,026.9	53.5628	19,026.9	46.9172	19,026.9	49.4386	19,026.9	44.1455	19,026.9	43.5432	19,026.9	38.1424	19,026.9	40.0492	19,026.9	29.6147	19,026.9	33.4252	19,026.9	28.0383	19,026.9	39.0811	19,026.9	40.009	19,026.9	30.8257	19,026.9	34.9477	19,026.9	31.247	19,026.9	25.6114	19,026.9	32.9494	19,026.9	33.4505
19,697.8	81.9231	19,697.8	79.5724	19,697.8	80.1224	19,697.8	72.6579	19,697.8	74.142	19,697.8	53.588	19,697.8	58.0538	19,697.8	66.3594	19,697.8	65.4338	19,697.8	66.7803	19,697.8	66.5036	19,697.8	64.9117	19,697.8	64.6536	19,697.8	62.4934	19,697.8	62.3562	19,697.8	59.3531	19,697.8	59.5591	19,697.8	53.5925	19,697.8	52.5356	19,697.8	46.5978	19,697.8	48.3418	19,697.8	41.7908	19,697.8	43.0893	19,697.8	30.8292	19,697.8	38.5519	19,697.8	26.8209	19,697.8	31.0425	19,697.8	32.6706	19,697.8	39.6185	19,697.8	38.6007	19,697.8	31.7579	19,697.8	24.161	19,697.8	28.8814	19,697.8	27.8197	19,697.8	33.1802	19,697.8	25.7476
19,999.5	81.8677	19,999.5	79.5828	19,999.5	79.8843	19,999.5	72.1459	19,999.5	73.9045	19,999.5	52.639	19,999.5	58.4496	19,999.5	66.1827	19,999.5	64.9564	19,999.5	66.1374	19,999.5	65.6726	19,999.5	64.9947	19,999.5	64.3019	19,999.5	62.864	19,999.5	61.5816	19,999.5	59.3172	19,999.5	60.3144	19,999.5	54.5466	19,999.5	54.1239	19,999.5	45.4423	19,999.5	49.2928	19,999.5	37.5776	19,999.5	43.6707	19,999.5	35.875	19,999.5	38.1957	19,999.5	31.6802	19,999.5	44.5314	19,999.5	31.9394	19,999.5	43.0731	19,999.5	40.8784	19,999.5	38.1988	19,999.5	38.323	19,999.5	33.7232	19,999.5	34.4697	19,999.5	41.5363	19,999.5	37.17
