"SPL Horizontal"
"On-Axis"		"10°"		"-10°"		"20°"		"-20°"		"30°"		"-30°"		"40°"		"-40°"		"50°"		"-50°"		"60°"		"-60°"		"70°"		"-70°"		"80°"		"-80°"		"90°"		"-90°"		"100°"		"-100°"		"110°"		"-110°"		"120°"		"-120°"		"130°"		"-130°"		"140°"		"-140°"		"150°"		"-150°"		"160°"		"-160°"		"170°"		"-170°"		"180°"
"Frequency [Hz]"	"Sound Pessure Level [dB]  / [2.83V 1m] "	"Frequency [Hz]"	"Sound Pessure Level [dB]  / [2.83V 1m] "	"Frequency [Hz]"	"Sound Pessure Level [dB]  / [2.83V 1m] "	"Frequency [Hz]"	"Sound Pessure Level [dB]  / [2.83V 1m] "	"Frequency [Hz]"	"Sound Pessure Level [dB]  / [2.83V 1m] "	"Frequency [Hz]"	"Sound Pessure Level [dB]  / [2.83V 1m] "	"Frequency [Hz]"	"Sound Pessure Level [dB]  / [2.83V 1m] "	"Frequency [Hz]"	"Sound Pessure Level [dB]  / [2.83V 1m] "	"Frequency [Hz]"	"Sound Pessure Level [dB]  / [2.83V 1m] "	"Frequency [Hz]"	"Sound Pessure Level [dB]  / [2.83V 1m] "	"Frequency [Hz]"	"Sound Pessure Level [dB]  / [2.83V 1m] "	"Frequency [Hz]"	"Sound Pessure Level [dB]  / [2.83V 1m] "	"Frequency [Hz]"	"Sound Pessure Level [dB]  / [2.83V 1m] "	"Frequency [Hz]"	"Sound Pessure Level [dB]  / [2.83V 1m] "	"Frequency [Hz]"	"Sound Pessure Level [dB]  / [2.83V 1m] "	"Frequency [Hz]"	"Sound Pessure Level [dB]  / [2.83V 1m] "	"Frequency [Hz]"	"Sound Pessure Level [dB]  / [2.83V 1m] "	"Frequency [Hz]"	"Sound Pessure Level [dB]  / [2.83V 1m] "	"Frequency [Hz]"	"Sound Pessure Level [dB]  / [2.83V 1m] "	"Frequency [Hz]"	"Sound Pessure Level [dB]  / [2.83V 1m] "	"Frequency [Hz]"	"Sound Pessure Level [dB]  / [2.83V 1m] "	"Frequency [Hz]"	"Sound Pessure Level [dB]  / [2.83V 1m] "	"Frequency [Hz]"	"Sound Pessure Level [dB]  / [2.83V 1m] "	"Frequency [Hz]"	"Sound Pessure Level [dB]  / [2.83V 1m] "	"Frequency [Hz]"	"Sound Pessure Level [dB]  / [2.83V 1m] "	"Frequency [Hz]"	"Sound Pessure Level [dB]  / [2.83V 1m] "	"Frequency [Hz]"	"Sound Pessure Level [dB]  / [2.83V 1m] "	"Frequency [Hz]"	"Sound Pessure Level [dB]  / [2.83V 1m] "	"Frequency [Hz]"	"Sound Pessure Level [dB]  / [2.83V 1m] "	"Frequency [Hz]"	"Sound Pessure Level [dB]  / [2.83V 1m] "	"Frequency [Hz]"	"Sound Pessure Level [dB]  / [2.83V 1m] "	"Frequency [Hz]"	"Sound Pessure Level [dB]  / [2.83V 1m] "	"Frequency [Hz]"	"Sound Pessure Level [dB]  / [2.83V 1m] "	"Frequency [Hz]"	"Sound Pessure Level [dB]  / [2.83V 1m] "	"Frequency [Hz]"	"Sound Pessure Level [dB]  / [2.83V 1m] "	"Frequency [Hz]"	"Sound Pessure Level [dB]  / [2.83V 1m] "
20.5078	65.4808	20.5078	65.4861	20.5078	65.4549	20.5078	65.4705	20.5078	65.4089	20.5078	65.4338	20.5078	65.3433	20.5078	65.3756	20.5078	65.2591	20.5078	65.2962	20.5078	65.1578	20.5078	65.1959	20.5078	65.0417	20.5078	65.0762	20.5078	64.9138	20.5078	64.9395	20.5078	64.7778	20.5078	64.7898	20.5078	64.638	20.5078	64.6325	20.5078	64.499	20.5078	64.4746	20.5078	64.3656	20.5078	64.3239	20.5078	64.2422	20.5078	64.1879	20.5078	64.1328	20.5078	64.0729	20.5078	64.0404	20.5078	63.983	20.5078	63.9672	20.5078	63.9199	20.5078	63.9141	20.5078	63.8831	20.5078	63.8818	20.5078	63.871
21.9727	66.4015	21.9727	66.4301	21.9727	66.3583	21.9727	66.4425	21.9727	66.302	21.9727	66.438	21.9727	66.2345	21.9727	66.4157	21.9727	66.1581	21.9727	66.3755	21.9727	66.0752	21.9727	66.3176	21.9727	65.9884	21.9727	66.2429	21.9727	65.9003	21.9727	66.1533	21.9727	65.8132	21.9727	66.0515	21.9727	65.729	21.9727	65.9413	21.9727	65.6494	21.9727	65.8272	21.9727	65.5756	21.9727	65.7142	21.9727	65.5085	21.9727	65.6078	21.9727	65.449	21.9727	65.5128	21.9727	65.3979	21.9727	65.4336	21.9727	65.3567	21.9727	65.3731	21.9727	65.3272	21.9727	65.3329	21.9727	65.3117	21.9727	65.3129
23.4375	67.4263	23.4375	67.4351	23.4375	67.4015	23.4375	67.4275	23.4375	67.3617	23.4375	67.4034	23.4375	67.3086	23.4375	67.3635	23.4375	67.2441	23.4375	67.3087	23.4375	67.1706	23.4375	67.2409	23.4375	67.0908	23.4375	67.1621	23.4375	67.0076	23.4375	67.0752	23.4375	66.924	23.4375	66.9833	23.4375	66.8425	23.4375	66.8901	23.4375	66.7655	23.4375	66.7993	23.4375	66.6948	23.4375	66.7146	23.4375	66.6319	23.4375	66.6393	23.4375	66.5777	23.4375	66.5759	23.4375	66.533	23.4375	66.5258	23.4375	66.4982	23.4375	66.4897	23.4375	66.4738	23.4375	66.4672	23.4375	66.4601	23.4375	66.4576
24.9023	68.317	24.9023	68.3296	24.9023	68.2882	24.9023	68.3251	24.9023	68.244	24.9023	68.3034	24.9023	68.1861	24.9023	68.2644	24.9023	68.1161	24.9023	68.2088	24.9023	68.0362	24.9023	68.1377	24.9023	67.9489	24.9023	68.0531	24.9023	67.8567	24.9023	67.9574	24.9023	67.7625	24.9023	67.854	24.9023	67.6688	24.9023	67.7465	24.9023	67.5779	24.9023	67.6392	24.9023	67.492	24.9023	67.5362	24.9023	67.413	24.9023	67.4413	24.9023	67.3427	24.9023	67.358	24.9023	67.2829	24.9023	67.2891	24.9023	67.2355	24.9023	67.2364	24.9023	67.2022	24.9023	67.2012	24.9023	67.1846	24.9023	67.184
26.3672	69.3181	26.3672	69.3305	26.3672	69.2909	26.3672	69.3274	26.3672	69.2497	26.3672	69.3083	26.3672	69.1958	26.3672	69.2734	26.3672	69.1306	26.3672	69.223	26.3672	69.0557	26.3672	69.1583	26.3672	68.973	26.3672	69.0808	26.3672	68.8845	26.3672	68.9927	26.3672	68.7923	26.3672	68.8967	26.3672	68.6991	26.3672	68.7963	26.3672	68.6072	26.3672	68.6949	26.3672	68.5195	26.3672	68.5962	26.3672	68.4388	26.3672	68.5038	26.3672	68.3678	26.3672	68.4209	26.3672	68.309	26.3672	68.3502	26.3672	68.2644	26.3672	68.2939	26.3672	68.2359	26.3672	68.2535	26.3672	68.2243	26.3672	68.2302
27.832	70.2084	27.832	70.2235	27.832	70.1784	27.832	70.223	27.832	70.1346	27.832	70.2065	27.832	70.0781	27.832	70.1736	27.832	70.0104	27.832	70.1248	27.832	69.9331	27.832	70.0608	27.832	69.8483	27.832	69.983	27.832	69.7581	27.832	69.8935	27.832	69.6648	27.832	69.795	27.832	69.5708	27.832	69.6908	27.832	69.4785	27.832	69.5847	27.832	69.3902	27.832	69.4805	27.832	69.3084	27.832	69.3821	27.832	69.2356	27.832	69.293	27.832	69.1742	27.832	69.2164	27.832	69.1266	27.832	69.1553	27.832	69.0952	27.832	69.1117	27.832	69.0816	27.832	69.087
29.2969	70.966	29.2969	70.99	29.2969	70.9266	29.2969	70.998	29.2969	70.8728	29.2969	70.9896	29.2969	70.8059	29.2969	70.9646	29.2969	70.7274	29.2969	70.9231	29.2969	70.6394	29.2969	70.8656	29.2969	70.5441	29.2969	70.793	29.2969	70.4445	29.2969	70.7068	29.2969	70.3435	29.2969	70.6094	29.2969	70.2443	29.2969	70.5036	29.2969	70.1502	29.2969	70.3934	29.2969	70.0641	29.2969	70.283	29.2969	69.9885	29.2969	70.177	29.2969	69.9253	29.2969	70.0797	29.2969	69.8761	29.2969	69.9949	29.2969	69.842	29.2969	69.9255	29.2969	69.8238	29.2969	69.8731	29.2969	69.8225	29.2969	69.8388
30.7617	71.7798	30.7617	71.7844	30.7617	71.7622	30.7617	71.7755	30.7617	71.7321	30.7617	71.7531	30.7617	71.6902	30.7617	71.7174	30.7617	71.6376	30.7617	71.669	30.7617	71.5754	30.7617	71.6087	30.7617	71.5052	30.7617	71.5379	30.7617	71.4285	30.7617	71.4583	30.7617	71.3473	30.7617	71.3721	30.7617	71.2638	30.7617	71.2821	30.7617	71.1803	30.7617	71.1915	30.7617	71.0995	30.7617	71.1037	30.7617	71.0241	30.7617	71.0223	30.7617	70.9566	30.7617	70.9506	30.7617	70.8992	30.7617	70.8912	30.7617	70.8539	30.7617	70.8461	30.7617	70.8221	30.7617	70.8165	30.7617	70.8048	30.7617	70.8028
32.2266	72.534	32.2266	72.5442	32.2266	72.5098	32.2266	72.54	32.2266	72.4726	32.2266	72.5211	32.2266	72.4233	32.2266	72.4878	32.2266	72.3636	32.2266	72.441	32.2266	72.2949	32.2266	72.3817	32.2266	72.2193	32.2266	72.3117	32.2266	72.1386	32.2266	72.2327	32.2266	72.0551	32.2266	72.1472	32.2266	71.9708	32.2266	72.0576	32.2266	71.8878	32.2266	71.9665	32.2266	71.8083	32.2266	71.8769	32.2266	71.7344	32.2266	71.7917	32.2266	71.6683	32.2266	71.7139	32.2266	71.6123	32.2266	71.6466	32.2266	71.5687	32.2266	71.5925	32.2266	71.5397	32.2266	71.5536	32.2266	71.527	32.2266	71.5315
33.6914	73.169	33.6914	73.1716	33.6914	73.1523	33.6914	73.1594	33.6914	73.1223	33.6914	73.1324	33.6914	73.0802	33.6914	73.0909	33.6914	73.0278	33.6914	73.0359	33.6914	72.9667	33.6914	72.9689	33.6914	72.8989	33.6914	72.892	33.6914	72.8265	33.6914	72.8077	33.6914	72.7513	33.6914	72.7189	33.6914	72.6751	33.6914	72.6288	33.6914	72.5994	33.6914	72.5405	33.6914	72.5257	33.6914	72.4569	33.6914	72.4551	33.6914	72.3812	33.6914	72.3894	33.6914	72.316	33.6914	72.3301	33.6914	72.2638	33.6914	72.2794	33.6914	72.2265	33.6914	72.2395	33.6914	72.2054	33.6914	72.2127	33.6914	72.2009
35.1562	73.913	35.1562	73.9327	35.1562	73.8793	35.1562	73.9377	35.1562	73.8327	35.1562	73.9277	35.1562	73.7743	35.1562	73.9028	35.1562	73.706	35.1562	73.8632	35.1562	73.6297	35.1562	73.8099	35.1562	73.5476	35.1562	73.7439	35.1562	73.4622	35.1562	73.6669	35.1562	73.376	35.1562	73.5812	35.1562	73.2915	35.1562	73.4893	35.1562	73.2112	35.1562	73.3944	35.1562	73.1371	35.1562	73.3	35.1562	73.0711	35.1562	73.2097	35.1562	73.0148	35.1562	73.1272	35.1562	72.9696	35.1562	73.0554	35.1562	72.937	35.1562	72.9969	35.1562	72.918	35.1562	72.9533	35.1562	72.914	35.1562	72.9256
36.6211	74.2636	36.6211	74.2644	36.6211	74.2481	36.6211	74.2501	36.6211	74.2186	36.6211	74.2207	36.6211	74.1762	36.6211	74.1767	36.6211	74.1222	36.6211	74.1191	36.6211	74.0581	36.6211	74.0495	36.6211	73.986	36.6211	73.9697	36.6211	73.9078	36.6211	73.8824	36.6211	73.826	36.6211	73.7903	36.6211	73.7427	36.6211	73.6962	36.6211	73.66	36.6211	73.6034	36.6211	73.5798	36.6211	73.515	36.6211	73.5038	36.6211	73.4339	36.6211	73.4334	36.6211	73.3633	36.6211	73.3703	36.6211	73.3061	36.6211	73.3166	36.6211	73.2647	36.6211	73.2746	36.6211	73.2407	36.6211	73.2466	36.6211	73.2348
38.0859	74.844	38.0859	74.853	38.0859	74.8187	38.0859	74.8448	38.0859	74.778	38.0859	74.8193	38.0859	74.7232	38.0859	74.7764	38.0859	74.656	38.0859	74.7169	38.0859	74.5784	38.0859	74.642	38.0859	74.4924	38.0859	74.5532	38.0859	74.4006	38.0859	74.4529	38.0859	74.3055	38.0859	74.3439	38.0859	74.2097	38.0859	74.2297	38.0859	74.1157	38.0859	74.1144	38.0859	74.0254	38.0859	74.0028	38.0859	73.9407	38.0859	73.8997	38.0859	73.8632	38.0859	73.8102	38.0859	73.7946	38.0859	73.7382	38.0859	73.7366	38.0859	73.6868	38.0859	73.6915	38.0859	73.6573	38.0859	73.6615	38.0859	73.6494
39.5508	75.562	39.5508	75.5738	39.5508	75.5331	39.5508	75.5675	39.5508	75.4884	39.5508	75.5428	39.5508	75.4293	39.5508	75.4995	39.5508	75.3579	39.5508	75.4384	39.5508	75.2764	39.5508	75.3604	39.5508	75.1872	39.5508	75.2672	39.5508	75.093	39.5508	75.1609	39.5508	74.9964	39.5508	75.0444	39.5508	74.8995	39.5508	74.921	39.5508	74.8045	39.5508	74.7952	39.5508	74.7127	39.5508	74.6721	39.5508	74.6255	39.5508	74.5579	39.5508	74.544	39.5508	74.4586	39.5508	74.4696	39.5508	74.3799	39.5508	74.4044	39.5508	74.3255	39.5508	74.3511	39.5508	74.297	39.5508	74.3129	39.5508	74.2937
41.0156	76.1898	41.0156	76.2395	41.0156	76.1182	41.0156	76.267	41.0156	76.0258	41.0156	76.2721	41.0156	75.9141	41.0156	76.2551	41.0156	75.7853	41.0156	76.2164	41.0156	75.6428	41.0156	76.1572	41.0156	75.4913	41.0156	76.0791	41.0156	75.3373	41.0156	75.9849	41.0156	75.1889	41.0156	75.8782	41.0156	75.0551	41.0156	75.763	41.0156	74.9443	41.0156	75.6436	41.0156	74.8626	41.0156	75.5237	41.0156	74.8123	41.0156	75.4068	41.0156	74.7914	41.0156	75.2958	41.0156	74.795	41.0156	75.1934	41.0156	74.817	41.0156	75.1018	41.0156	74.8525	41.0156	75.0223	41.0156	74.8985	41.0156	74.9548
42.4805	76.9225	42.4805	76.9453	42.4805	76.886	42.4805	76.954	42.4805	76.8362	42.4805	76.9487	42.4805	76.7738	42.4805	76.9297	42.4805	76.7001	42.4805	76.8974	42.4805	76.6165	42.4805	76.8528	42.4805	76.5251	42.4805	76.7971	42.4805	76.4286	42.4805	76.7321	42.4805	76.3303	42.4805	76.6601	42.4805	76.2341	42.4805	76.5837	42.4805	76.1448	42.4805	76.5052	42.4805	76.0668	42.4805	76.4269	42.4805	76.0043	42.4805	76.3504	42.4805	75.9606	42.4805	76.2766	42.4805	75.937	42.4805	76.2061	42.4805	75.9337	42.4805	76.1397	42.4805	75.949	42.4805	76.0785	42.4805	75.9803	42.4805	76.0245
43.9453	77.4492	43.9453	77.4569	43.9453	77.4293	43.9453	77.452	43.9453	77.3975	43.9453	77.4347	43.9453	77.3547	43.9453	77.4052	43.9453	77.3019	43.9453	77.3643	43.9453	77.2404	43.9453	77.3132	43.9453	77.172	43.9453	77.2532	43.9453	77.0984	43.9453	77.1866	43.9453	77.022	43.9453	77.1156	43.9453	76.9454	43.9453	77.0431	43.9453	76.8713	43.9453	76.9714	43.9453	76.8026	43.9453	76.9032	43.9453	76.7423	43.9453	76.8401	43.9453	76.6928	43.9453	76.7835	43.9453	76.6558	43.9453	76.7342	43.9453	76.632	43.9453	76.6929	43.9453	76.6215	43.9453	76.6601	43.9453	76.6234	43.9453	76.6366
45.4102	77.9819	45.4102	77.9974	45.4102	77.9518	45.4102	77.9978	45.4102	77.9082	45.4102	77.9828	45.4102	77.8523	45.4102	77.9526	45.4102	77.7858	45.4102	77.908	45.4102	77.7104	45.4102	77.8502	45.4102	77.6282	45.4102	77.781	45.4102	77.5415	45.4102	77.7023	45.4102	77.4526	45.4102	77.6169	45.4102	77.3644	45.4102	77.5274	45.4102	77.2794	45.4102	77.4368	45.4102	77.2006	45.4102	77.3481	45.4102	77.1307	45.4102	77.2642	45.4102	77.0719	45.4102	77.1876	45.4102	77.0264	45.4102	77.1207	45.4102	76.9954	45.4102	77.0651	45.4102	76.9795	45.4102	77.0224	45.4102	76.979	45.4102	76.9934
46.875	78.4005	46.875	78.4204	46.875	78.3668	46.875	78.4258	46.875	78.321	46.875	78.4161	46.875	78.2647	46.875	78.3916	46.875	78.2001	46.875	78.353	46.875	78.1292	46.875	78.3015	46.875	78.0544	46.875	78.2393	46.875	77.9778	46.875	78.1688	46.875	77.9017	46.875	78.0928	46.875	77.8283	46.875	78.0144	46.875	77.76	46.875	77.9365	46.875	77.6987	46.875	77.8619	46.875	77.6464	46.875	77.7926	46.875	77.6044	46.875	77.7302	46.875	77.5738	46.875	77.6759	46.875	77.5549	46.875	77.6304	46.875	77.5479	46.875	77.5943	46.875	77.5525	46.875	77.5681
48.3398	79.0948	48.3398	79.1276	48.3398	79.0456	48.3398	79.1435	48.3398	78.9812	48.3398	79.1425	48.3398	78.9035	48.3398	79.1255	48.3398	78.8154	48.3398	79.0939	48.3398	78.7201	48.3398	79.0492	48.3398	78.6217	48.3398	78.9937	48.3398	78.5241	48.3398	78.9297	48.3398	78.4317	48.3398	78.8597	48.3398	78.348	48.3398	78.7859	48.3398	78.2763	48.3398	78.7106	48.3398	78.2189	48.3398	78.6354	48.3398	78.1774	48.3398	78.5617	48.3398	78.1523	48.3398	78.4905	48.3398	78.1436	48.3398	78.4225	48.3398	78.1504	48.3398	78.3587	48.3398	78.1714	48.3398	78.3002	48.3398	78.2047	48.3398	78.2483
51.2695	79.9483	51.2695	79.9514	51.2695	79.9275	51.2695	79.937	51.2695	79.8898	51.2695	79.9055	51.2695	79.8362	51.2695	79.8578	51.2695	79.7682	51.2695	79.7958	51.2695	79.6878	51.2695	79.7215	51.2695	79.5976	51.2695	79.6376	51.2695	79.5006	51.2695	79.5472	51.2695	79.4	51.2695	79.4534	51.2695	79.2994	51.2695	79.3592	51.2695	79.2024	51.2695	79.2675	51.2695	79.1126	51.2695	79.1808	51.2695	79.0328	51.2695	79.101	51.2695	78.9656	51.2695	79.0299	51.2695	78.9128	51.2695	78.9688	51.2695	78.8755	51.2695	78.9189	51.2695	78.8539	51.2695	78.8815	51.2695	78.8482	51.2695	78.8576
52.7344	80.4153	52.7344	80.4187	52.7344	80.3943	52.7344	80.4045	52.7344	80.3566	52.7344	80.373	52.7344	80.3032	52.7344	80.325	52.7344	80.2358	52.7344	80.2622	52.7344	80.1566	52.7344	80.1865	52.7344	80.0681	52.7344	80.1006	52.7344	79.9735	52.7344	80.0076	52.7344	79.8759	52.7344	79.9109	52.7344	79.779	52.7344	79.8139	52.7344	79.6862	52.7344	79.72	52.7344	79.6004	52.7344	79.6322	52.7344	79.5244	52.7344	79.5531	52.7344	79.4599	52.7344	79.4846	52.7344	79.4083	52.7344	79.4282	52.7344	79.3702	52.7344	79.3847	52.7344	79.3458	52.7344	79.3546	52.7344	79.3351	52.7344	79.338
54.1992	80.8358	54.1992	80.8512	54.1992	80.8035	54.1992	80.8492	54.1992	80.7553	54.1992	80.8299	54.1992	80.6927	54.1992	80.7939	54.1992	80.6178	54.1992	80.7426	54.1992	80.5331	54.1992	80.6777	54.1992	80.4416	54.1992	80.6015	54.1992	80.3465	54.1992	80.5167	54.1992	80.2512	54.1992	80.4266	54.1992	80.1592	54.1992	80.3344	54.1992	80.0738	54.1992	80.2433	54.1992	79.9976	54.1992	80.1564	54.1992	79.933	54.1992	80.0763	54.1992	79.8813	54.1992	80.0049	54.1992	79.8434	54.1992	79.9437	54.1992	79.8193	54.1992	79.8933	54.1992	79.809	54.1992	79.8543	54.1992	79.8117	54.1992	79.827
55.6641	81.2066	55.6641	81.2172	55.6641	81.1783	55.6641	81.21	55.6641	81.1332	55.6641	81.1854	55.6641	81.0729	55.6641	81.1445	55.6641	80.9992	55.6641	81.0892	55.6641	80.915	55.6641	81.0216	55.6641	80.8232	55.6641	80.9447	55.6641	80.7274	55.6641	80.8617	55.6641	80.6313	55.6641	80.7757	55.6641	80.5387	55.6641	80.6901	55.6641	80.4532	55.6641	80.6075	55.6641	80.3779	55.6641	80.5304	55.6641	80.3153	55.6641	80.4604	55.6641	80.2671	55.6641	80.3983	55.6641	80.2337	55.6641	80.3446	55.6641	80.2149	55.6641	80.2993	55.6641	80.2097	55.6641	80.2627	55.6641	80.2169	55.6641	80.2349
58.5938	82.0304	58.5938	82.0332	58.5938	82.0095	58.5938	82.0178	58.5938	81.9713	58.5938	81.9848	58.5938	81.9173	58.5938	81.9357	58.5938	81.8496	58.5938	81.8724	58.5938	81.771	58.5938	81.7978	58.5938	81.6844	58.5938	81.715	58.5938	81.5936	58.5938	81.6277	58.5938	81.502	58.5938	81.5395	58.5938	81.4133	58.5938	81.4538	58.5938	81.3307	58.5938	81.3735	58.5938	81.2566	58.5938	81.3008	58.5938	81.1932	58.5938	81.2371	58.5938	81.1416	58.5938	81.183	58.5938	81.1023	58.5938	81.1386	58.5938	81.0752	58.5938	81.1038	58.5938	81.06	58.5938	81.0783	58.5938	81.0559	58.5938	81.0622
60.0586	82.3401	60.0586	82.3393	60.0586	82.3216	60.0586	82.3194	60.0586	82.2844	60.0586	82.2813	60.0586	82.2301	60.0586	82.2267	60.0586	82.1605	60.0586	82.1581	60.0586	82.0786	60.0586	82.0786	60.0586	81.9875	60.0586	81.9919	60.0586	81.891	60.0586	81.902	60.0586	81.7933	60.0586	81.813	60.0586	81.6985	60.0586	81.7285	60.0586	81.6106	60.0586	81.6512	60.0586	81.5328	60.0586	81.5831	60.0586	81.4679	60.0586	81.525	60.0586	81.4173	60.0586	81.4766	60.0586	81.3814	60.0586	81.437	60.0586	81.3595	60.0586	81.4053	60.0586	81.3503	60.0586	81.3805	60.0586	81.3519	60.0586	81.3625
62.9883	83.0892	62.9883	83.0872	62.9883	83.071	62.9883	83.065	62.9883	83.0335	62.9883	83.023	62.9883	82.9782	62.9883	82.9626	62.9883	82.9072	62.9883	82.886	62.9883	82.8231	62.9883	82.7962	62.9883	82.7291	62.9883	82.6969	62.9883	82.6286	62.9883	82.5922	62.9883	82.5255	62.9883	82.4867	62.9883	82.4237	62.9883	82.385	62.9883	82.3271	62.9883	82.2909	62.9883	82.2392	62.9883	82.2077	62.9883	82.1626	62.9883	82.1375	62.9883	82.0991	62.9883	82.0809	62.9883	82.0495	62.9883	82.0378	62.9883	82.0136	62.9883	82.007	62.9883	81.9905	62.9883	81.9874	62.9883	81.979	62.9883	81.9782
64.4531	83.3659	64.4531	83.3698	64.4531	83.342	64.4531	83.3533	64.4531	83.2989	64.4531	83.317	64.4531	83.2382	64.4531	83.2622	64.4531	83.1622	64.4531	83.1909	64.4531	83.0735	64.4531	83.1061	64.4531	82.9754	64.4531	83.0113	64.4531	82.8716	64.4531	82.9105	64.4531	82.7661	64.4531	82.808	64.4531	82.6629	64.4531	82.708	64.4531	82.566	64.4531	82.6142	64.4531	82.4789	64.4531	82.5296	64.4531	82.4044	64.4531	82.456	64.4531	82.3443	64.4531	82.3943	64.4531	82.2995	64.4531	82.3444	64.4531	82.2697	64.4531	82.3056	64.4531	82.2539	64.4531	82.2772	64.4531	82.2507	64.4531	82.2588
67.3828	83.954	67.3828	83.9591	67.3828	83.9284	67.3828	83.9436	67.3828	83.8831	67.3828	83.908	67.3828	83.8199	67.3828	83.8539	67.3828	83.7413	67.3828	83.7838	67.3828	83.6502	67.3828	83.7008	67.3828	83.5503	67.3828	83.6088	67.3828	83.4457	67.3828	83.512	67.3828	83.3406	67.3828	83.4147	67.3828	83.2393	67.3828	83.321	67.3828	83.1459	67.3828	83.234	67.3828	83.0637	67.3828	83.1562	67.3828	82.9953	67.3828	83.0887	67.3828	82.9422	67.3828	83.0315	67.3828	82.9049	67.3828	82.9839	67.3828	82.8826	67.3828	82.9451	67.3828	82.8742	67.3828	82.9144	67.3828	82.8778	67.3828	82.8917
68.8477	84.2035	68.8477	84.2053	68.8477	84.1806	68.8477	84.186	68.8477	84.1377	68.8477	84.1465	68.8477	84.0763	68.8477	84.0887	68.8477	83.999	68.8477	84.0153	68.8477	83.909	68.8477	83.9299	68.8477	83.8098	68.8477	83.8366	68.8477	83.7058	68.8477	83.7402	68.8477	83.6014	68.8477	83.6452	68.8477	83.501	68.8477	83.5557	68.8477	83.4088	68.8477	83.475	68.8477	83.3284	68.8477	83.4048	68.8477	83.2625	68.8477	83.3457	68.8477	83.2127	68.8477	83.297	68.8477	83.1792	68.8477	83.2571	68.8477	83.161	68.8477	83.2245	68.8477	83.1561	68.8477	83.1977	68.8477	83.1622	68.8477	83.1767
71.7773	84.7113	71.7773	84.7063	71.7773	84.6939	71.7773	84.6789	71.7773	84.6553	71.7773	84.63	71.7773	84.5971	71.7773	84.5613	71.7773	84.5219	71.7773	84.4757	71.7773	84.4331	71.7773	84.3771	71.7773	84.3343	71.7773	84.2703	71.7773	84.2297	71.7773	84.1607	71.7773	84.1238	71.7773	84.0537	71.7773	84.0211	71.7773	83.9545	71.7773	83.9255	71.7773	83.8673	71.7773	83.8406	71.7773	83.7945	71.7773	83.7688	71.7773	83.7369	71.7773	83.7116	71.7773	83.6937	71.7773	83.6693	71.7773	83.6627	71.7773	83.641	71.7773	83.6414	71.7773	83.6247	71.7773	83.6274	71.7773	83.6183	71.7773	83.6197
74.707	85.1378	74.707	85.1384	74.707	85.1144	74.707	85.1159	74.707	85.0695	74.707	85.071	74.707	85.0053	74.707	85.0054	74.707	84.9247	74.707	84.9219	74.707	84.8315	74.707	84.8242	74.707	84.73	74.707	84.7171	74.707	84.6246	74.707	84.6057	74.707	84.5201	74.707	84.4957	74.707	84.4207	74.707	84.3924	74.707	84.33	74.707	84.3004	74.707	84.251	74.707	84.2227	74.707	84.1852	74.707	84.1608	74.707	84.1333	74.707	84.1145	74.707	84.0948	74.707	84.0821	74.707	84.0684	74.707	84.061	74.707	84.0522	74.707	84.0486	74.707	84.0443	74.707	84.0433
77.6367	85.501	77.6367	85.5039	77.6367	85.4739	77.6367	85.4826	77.6367	85.4238	77.6367	85.4379	77.6367	85.3531	77.6367	85.372	77.6367	85.2648	77.6367	85.2881	77.6367	85.1632	77.6367	85.1905	77.6367	85.0528	77.6367	85.0843	77.6367	84.9391	77.6367	84.9751	77.6367	84.8273	77.6367	84.8689	77.6367	84.7227	77.6367	84.7707	77.6367	84.6299	77.6367	84.6849	77.6367	84.5525	77.6367	84.6139	77.6367	84.4926	77.6367	84.5584	77.6367	84.4509	77.6367	84.5172	77.6367	84.4261	77.6367	84.4874	77.6367	84.4156	77.6367	84.4657	77.6367	84.4159	77.6367	84.4488	77.6367	84.4233	77.6367	84.4348
79.1016	85.7059	79.1016	85.7095	79.1016	85.6767	79.1016	85.6875	79.1016	85.6231	79.1016	85.6407	79.1016	85.5476	79.1016	85.5714	79.1016	85.4532	79.1016	85.4827	79.1016	85.3443	79.1016	85.3791	79.1016	85.2257	79.1016	85.2658	79.1016	85.1029	79.1016	85.1489	79.1016	84.9819	79.1016	85.0344	79.1016	84.8682	79.1016	84.9282	79.1016	84.767	79.1016	84.8349	79.1016	84.6824	79.1016	84.7574	79.1016	84.6169	79.1016	84.6966	79.1016	84.5715	79.1016	84.6511	79.1016	84.5448	79.1016	84.6181	79.1016	84.5342	79.1016	84.5938	79.1016	84.5355	79.1016	84.5746	79.1016	84.5447	79.1016	84.5583
82.0312	86.1934	82.0312	86.1948	82.0312	86.1635	82.0312	86.1676	82.0312	86.1061	82.0312	86.1129	82.0312	86.0235	82.0312	86.0329	82.0312	85.9186	82.0312	85.9309	82.0312	85.7954	82.0312	85.8114	82.0312	85.6587	82.0312	85.6801	82.0312	85.514	82.0312	85.543	82.0312	85.3673	82.0312	85.4069	82.0312	85.2251	82.0312	85.2779	82.0312	85.0933	82.0312	85.1613	82.0312	84.9776	82.0312	85.0606	82.0312	84.8822	82.0312	84.9772	82.0312	84.8101	82.0312	84.9105	82.0312	84.7617	82.0312	84.8579	82.0312	84.7358	82.0312	84.8162	82.0312	84.729	82.0312	84.7827	82.0312	84.7372	82.0312	84.756
84.9609	86.1088	84.9609	86.0819	84.9609	86.1086	84.9609	86.0284	84.9609	86.0817	84.9609	85.9495	84.9609	86.0295	84.9609	85.8478	84.9609	85.9541	84.9609	85.7264	84.9609	85.8587	84.9609	85.5895	84.9609	85.7468	84.9609	85.4419	84.9609	85.6228	84.9609	85.2888	84.9609	85.4912	84.9609	85.1355	84.9609	85.3566	84.9609	84.987	84.9609	85.223	84.9609	84.8483	84.9609	85.0936	84.9609	84.7237	84.9609	84.9707	84.9609	84.6174	84.9609	84.8559	84.9609	84.5333	84.9609	84.7504	84.9609	84.4745	84.9609	84.6556	84.9609	84.4429	84.9609	84.5737	84.9609	84.4392	84.9609	84.5078	84.9609	84.4618
87.8906	85.9786	87.8906	85.9954	87.8906	85.943	87.8906	85.9929	87.8906	85.8905	87.8906	85.9715	87.8906	85.824	87.8906	85.9331	87.8906	85.747	87.8906	85.8806	87.8906	85.664	87.8906	85.818	87.8906	85.5799	87.8906	85.75	87.8906	85.4995	87.8906	85.6818	87.8906	85.4278	87.8906	85.6183	87.8906	85.369	87.8906	85.5635	87.8906	85.3262	87.8906	85.5198	87.8906	85.3011	87.8906	85.4878	87.8906	85.2934	87.8906	85.4661	87.8906	85.3007	87.8906	85.4522	87.8906	85.319	87.8906	85.4428	87.8906	85.3434	87.8906	85.4346	87.8906	85.369	87.8906	85.4247	87.8906	85.3923	87.8906	85.4109
90.8203	86.3319	90.8203	86.3408	90.8203	86.2996	90.8203	86.3262	90.8203	86.2457	90.8203	86.2897	90.8203	86.1734	90.8203	86.2348	90.8203	86.0873	90.8203	86.1664	90.8203	85.9931	90.8203	86.0909	90.8203	85.897	90.8203	86.0154	90.8203	85.8056	90.8203	85.9468	90.8203	85.7254	90.8203	85.891	90.8203	85.6616	90.8203	85.8516	90.8203	85.6183	90.8203	85.8295	90.8203	85.5973	90.8203	85.8227	90.8203	85.5982	90.8203	85.8266	90.8203	85.6182	90.8203	85.8354	90.8203	85.6526	90.8203	85.8431	90.8203	85.6955	90.8203	85.8442	90.8203	85.7405	90.8203	85.8351	90.8203	85.7815	90.8203	85.814
95.2148	86.5991	95.2148	86.6096	95.2148	86.5556	95.2148	86.587	95.2148	86.4808	95.2148	86.5322	95.2148	86.3782	95.2148	86.4482	95.2148	86.2527	95.2148	86.3392	95.2148	86.1111	95.2148	86.2112	95.2148	85.9619	95.2148	86.0719	95.2148	85.8146	95.2148	85.9309	95.2148	85.6794	95.2148	85.7985	95.2148	85.5655	95.2148	85.685	95.2148	85.4802	95.2148	85.5987	95.2148	85.4277	95.2148	85.5442	95.2148	85.4078	95.2148	85.5211	95.2148	85.4165	95.2148	85.5234	95.2148	85.4461	95.2148	85.5412	95.2148	85.4867	95.2148	85.5628	95.2148	85.5278	95.2148	85.5773	95.2148	85.5602	95.2148	85.5774
98.1445	86.9126	98.1445	86.929	98.1445	86.8605	98.1445	86.9099	98.1445	86.7741	98.1445	86.8569	98.1445	86.6563	98.1445	86.7731	98.1445	86.5115	98.1445	86.6631	98.1445	86.346	98.1445	86.5328	98.1445	86.1674	98.1445	86.3892	98.1445	85.9851	98.1445	86.2401	98.1445	85.8092	98.1445	86.0935	98.1445	85.6503	98.1445	85.9568	98.1445	85.5177	98.1445	85.8362	98.1445	85.4184	98.1445	85.7356	98.1445	85.3555	98.1445	85.6562	98.1445	85.3273	98.1445	85.5964	98.1445	85.3281	98.1445	85.5519	98.1445	85.3494	98.1445	85.517	98.1445	85.3821	98.1445	85.4857	98.1445	85.4185	98.1445	85.4535
101.074	87.1151	101.074	87.112	101.074	87.0835	101.074	87.0745	101.074	87.0181	101.074	87.0044	101.074	86.9213	101.074	86.9049	101.074	86.7963	101.074	86.781	101.074	86.6476	101.074	86.6389	101.074	86.4806	101.074	86.486	101.074	86.3018	101.074	86.3299	101.074	86.1185	101.074	86.1782	101.074	85.9387	101.074	86.0367	101.074	85.7706	101.074	85.9096	101.074	85.622	101.074	85.7982	101.074	85.4994	101.074	85.7018	101.074	85.407	101.074	85.618	101.074	85.3462	101.074	85.5439	101.074	85.3159	101.074	85.4776	101.074	85.3128	101.074	85.4188	101.074	85.3323	101.074	85.3692
105.469	86.7695	105.469	86.781	105.469	86.7241	105.469	86.7584	105.469	86.6469	105.469	86.7033	105.469	86.5418	105.469	86.6193	105.469	86.4148	105.469	86.5122	105.469	86.2732	105.469	86.389	105.469	86.1258	105.469	86.2585	105.469	85.9819	105.469	86.1298	105.469	85.8507	105.469	86.0118	105.469	85.7403	105.469	85.912	105.469	85.6562	105.469	85.835	105.469	85.6011	105.469	85.7821	105.469	85.5745	105.469	85.751	105.469	85.5726	105.469	85.7364	105.469	85.5895	105.469	85.7313	105.469	85.6181	105.469	85.7283	105.469	85.651	105.469	85.7211	105.469	85.6818	105.469	85.7059
108.398	87.0291	108.398	87.0201	108.398	87.0023	108.398	86.9762	108.398	86.9402	108.398	86.8998	108.398	86.8453	108.398	86.7952	108.398	86.7215	108.398	86.6687	108.398	86.5747	108.398	86.5282	108.398	86.4127	108.398	86.383	108.398	86.2452	108.398	86.2434	108.398	86.0831	108.398	86.1186	108.398	85.9375	108.398	86.0163	108.398	85.8181	108.398	85.9403	108.398	85.7314	108.398	85.8904	108.398	85.6798	108.398	85.8622	108.398	85.6608	108.398	85.8488	108.398	85.6685	108.398	85.8419	108.398	85.6944	108.398	85.8341	108.398	85.7295	108.398	85.8201	108.398	85.7658	108.398	85.7971
112.793	87.0746	112.793	87.0709	112.793	87.0384	112.793	87.0275	112.793	86.9638	112.793	86.9465	112.793	86.8539	112.793	86.8315	112.793	86.7133	112.793	86.6883	112.793	86.5488	112.793	86.5252	112.793	86.3689	112.793	86.3524	112.793	86.1839	112.793	86.1822	112.793	86.0051	112.793	86.0269	112.793	85.8441	112.793	85.8976	112.793	85.7113	112.793	85.8015	112.793	85.6139	112.793	85.7401	112.793	85.5548	112.793	85.7091	112.793	85.5318	112.793	85.6992	112.793	85.5385	112.793	85.6994	112.793	85.5655	112.793	85.6992	112.793	85.6025	112.793	85.6909	112.793	85.6402	112.793	85.671
117.188	87.2539	117.188	87.2408	117.188	87.2278	117.188	87.1894	117.188	87.1632	117.188	87.1022	117.188	87.0627	117.188	86.9836	117.188	86.9304	117.188	86.8395	117.188	86.7724	117.188	86.678	117.188	86.5964	117.188	86.5088	117.188	86.4121	117.188	86.3427	117.188	86.2304	117.188	86.1909	117.188	86.0628	117.188	86.0632	117.188	85.92	117.188	85.9667	117.188	85.8109	117.188	85.9035	117.188	85.7403	117.188	85.8705	117.188	85.7081	117.188	85.8599	117.188	85.7092	117.188	85.8612	117.188	85.7341	117.188	85.8634	117.188	85.7713	117.188	85.858	117.188	85.8095	117.188	85.84
120.117	87.1624	120.117	87.1522	120.117	87.1327	120.117	87.1026	120.117	87.0645	120.117	87.016	120.117	86.9606	120.117	86.8967	120.117	86.826	120.117	86.7513	120.117	86.6669	120.117	86.5884	120.117	86.4915	120.117	86.4183	120.117	86.3093	120.117	86.2526	120.117	86.1312	120.117	86.1027	120.117	85.9677	120.117	85.9781	120.117	85.8288	120.117	85.8849	120.117	85.7219	120.117	85.8239	120.117	85.6508	120.117	85.791	120.117	85.6152	120.117	85.7778	120.117	85.6107	120.117	85.7737	120.117	85.6297	120.117	85.7689	120.117	85.6626	120.117	85.7563	120.117	85.6997	120.117	85.7327
124.512	86.9622	124.512	86.9488	124.512	86.9336	124.512	86.8943	124.512	86.8648	124.512	86.8014	124.512	86.7595	124.512	86.6754	124.512	86.6237	124.512	86.5243	124.512	86.4659	124.512	86.3583	124.512	86.2967	124.512	86.1903	124.512	86.1282	124.512	86.0344	124.512	85.9737	124.512	85.9047	124.512	85.8455	124.512	85.8131	124.512	85.7533	124.512	85.766	124.512	85.7026	124.512	85.7629	124.512	85.6933	124.512	85.7956	124.512	85.7198	124.512	85.8502	124.512	85.7723	124.512	85.91	124.512	85.838	124.512	85.9593	124.512	85.9033	124.512	85.9864	124.512	85.9556	124.512	85.9851
128.906	87.0801	128.906	87.0477	128.906	87.0627	128.906	86.9659	128.906	86.9971	128.906	86.838	128.906	86.8872	128.906	86.6701	128.906	86.7393	128.906	86.471	128.906	86.5618	128.906	86.2532	128.906	86.3661	128.906	86.0314	128.906	86.1657	128.906	85.8225	128.906	85.9764	128.906	85.6435	128.906	85.8137	128.906	85.5092	128.906	85.6913	128.906	85.4293	128.906	85.6172	128.906	85.4064	128.906	85.592	128.906	85.4343	128.906	85.6079	128.906	85.4994	128.906	85.6511	128.906	85.5832	128.906	85.7041	128.906	85.6663	128.906	85.7501	128.906	85.7323	128.906	85.775	128.906	85.77
133.301	87.1129	133.301	87.1101	133.301	87.0658	133.301	87.056	133.301	86.9725	133.301	86.9513	133.301	86.8382	133.301	86.7993	133.301	86.6695	133.301	86.6065	133.301	86.475	133.301	86.3832	133.301	86.2645	133.301	86.1433	133.301	86.0492	133.301	85.904	133.301	85.8415	133.301	85.684	133.301	85.6542	133.301	85.501	133.301	85.4989	133.301	85.368	133.301	85.3841	133.301	85.2904	133.301	85.3139	133.301	85.2642	133.301	85.2858	133.301	85.2774	133.301	85.2918	133.301	85.3129	133.301	85.3191	133.301	85.3526	133.301	85.3534	133.301	85.382	133.301	85.3811	133.301	85.3922
139.16	86.8229	139.16	86.8131	139.16	86.7818	139.16	86.7527	139.16	86.6923	139.16	86.6439	139.16	86.5585	139.16	86.4921	139.16	86.3866	139.16	86.306	139.16	86.185	139.16	86.0975	139.16	85.9648	139.16	85.8823	139.16	85.7392	139.16	85.678	139.16	85.5241	139.16	85.5023	139.16	85.3364	139.16	85.37	139.16	85.1919	139.16	85.2896	139.16	85.1017	139.16	85.2613	139.16	85.0697	139.16	85.2764	139.16	85.0904	139.16	85.3196	139.16	85.1506	139.16	85.3723	139.16	85.2321	139.16	85.4164	139.16	85.3158	139.16	85.4376	139.16	85.385	139.16	85.4275
143.555	86.8832	143.555	86.8635	143.555	86.8475	143.555	86.7879	143.555	86.7587	143.555	86.658	143.555	86.6213	143.555	86.4777	143.555	86.4419	143.555	86.2545	143.555	86.2294	143.555	85.9996	143.555	85.9949	143.555	85.7287	143.555	85.7524	143.555	85.4619	143.555	85.5171	143.555	85.2216	143.555	85.3055	143.555	85.0288	143.555	85.1325	143.555	84.8985	143.555	85.0095	143.555	84.8353	143.555	84.9409	143.555	84.8317	143.555	84.9229	143.555	84.8713	143.555	84.9435	143.555	84.9329	143.555	84.9853	143.555	84.9958	143.555	85.0295	143.555	85.0437	143.555	85.0601	143.555	85.0662
147.949	86.9322	147.949	86.9206	147.949	86.8854	147.949	86.8498	147.949	86.7834	147.949	86.7212	147.949	86.6315	147.949	86.5387	147.949	86.4371	147.949	86.3098	147.949	86.2101	147.949	86.0455	147.949	85.9624	147.949	85.7615	147.949	85.708	147.949	85.4773	147.949	85.4625	147.949	85.2158	147.949	85.2419	147.949	84.999	147.949	85.0618	147.949	84.8446	147.949	84.9341	147.949	84.7606	147.949	84.8646	147.949	84.7438	147.949	84.8505	147.949	84.7796	147.949	84.879	147.949	84.8468	147.949	84.9304	147.949	84.9217	147.949	84.9823	147.949	84.9833	147.949	85.0153	147.949	85.0167
153.809	86.8467	153.809	86.8633	153.809	86.7694	153.809	86.8189	153.809	86.6338	153.809	86.715	153.809	86.445	153.809	86.5552	153.809	86.2111	153.809	86.3452	153.809	85.9436	153.809	86.0937	153.809	85.6578	153.809	85.8127	153.809	85.372	153.809	85.5188	153.809	85.1057	153.809	85.2324	153.809	84.8771	153.809	84.976	153.809	84.7001	153.809	84.7701	153.809	84.5815	153.809	84.6277	153.809	84.5205	153.809	84.5511	153.809	84.5087	153.809	84.5311	153.809	84.5322	153.809	84.5502	153.809	84.5736	153.809	84.5879	153.809	84.6151	153.809	84.6245	153.809	84.6418	153.809	84.6451
159.668	86.8569	159.668	86.8572	159.668	86.802	159.668	86.8055	159.668	86.6922	159.668	86.7061	159.668	86.5292	159.668	86.5647	159.668	86.3174	159.668	86.3882	159.668	86.0638	159.668	86.1844	159.668	85.7783	159.668	85.9621	159.668	85.4739	159.668	85.7315	159.668	85.1667	159.668	85.5037	159.668	84.8755	159.668	85.2907	159.668	84.6199	159.668	85.1035	159.668	84.4177	159.668	84.9493	159.668	84.281	159.668	84.8298	159.668	84.2131	159.668	84.7405	159.668	84.2075	159.668	84.6718	159.668	84.2495	159.668	84.612	159.668	84.3202	159.668	84.5505	159.668	84.4017	159.668	84.4806
165.527	86.6825	165.527	86.6688	165.527	86.6392	165.527	86.599	165.527	86.5412	165.527	86.4777	165.527	86.3938	165.527	86.3126	165.527	86.2055	165.527	86.1149	165.527	85.987	165.527	85.8981	165.527	85.7513	165.527	85.6774	165.527	85.512	165.527	85.4677	165.527	85.2827	165.527	85.282	165.527	85.075	165.527	85.1294	165.527	84.8978	165.527	85.0141	165.527	84.7562	165.527	84.9336	165.527	84.6525	165.527	84.8805	165.527	84.5865	165.527	84.8435	165.527	84.5562	165.527	84.8114	165.527	84.5576	165.527	84.7753	165.527	84.5846	165.527	84.7313	165.527	84.6287	165.527	84.6805
171.387	86.3448	171.387	86.3263	171.387	86.3041	171.387	86.2504	171.387	86.206	171.387	86.123	171.387	86.0565	171.387	85.9534	171.387	85.8659	171.387	85.7543	171.387	85.6485	171.387	85.5399	171.387	85.4219	171.387	85.325	171.387	85.2051	171.387	85.1225	171.387	85.0152	171.387	84.9429	171.387	84.8641	171.387	84.7932	171.387	84.7561	171.387	84.6773	171.387	84.6877	171.387	84.5969	171.387	84.6508	171.387	84.5507	171.387	84.635	171.387	84.5343	171.387	84.6309	171.387	84.5406	171.387	84.6309	171.387	84.5605	171.387	84.6292	171.387	84.5851	171.387	84.6219	171.387	84.6069
177.246	86.0096	177.246	85.9643	177.246	85.9865	177.246	85.8519	177.246	85.9002	177.246	85.6803	177.246	85.7606	177.246	85.4654	177.246	85.5823	177.246	85.2299	177.246	85.3829	177.246	85.0016	177.246	85.1819	177.246	84.8079	177.246	84.997	177.246	84.6685	177.246	84.8416	177.246	84.59	177.246	84.7209	177.246	84.5636	177.246	84.6315	177.246	84.5702	177.246	84.5638	177.246	84.587	177.246	84.5068	177.246	84.5948	177.246	84.4534	177.246	84.5822	177.246	84.4037	177.246	84.5463	177.246	84.3639	177.246	84.4928	177.246	84.3433	177.246	84.4329	177.246	84.3487	177.246	84.3808
183.105	86.1861	183.105	86.185	183.105	86.0751	183.105	86.0739	183.105	85.8605	183.105	85.8658	183.105	85.5623	183.105	85.5858	183.105	85.2133	183.105	85.2717	183.105	84.8588	183.105	84.9702	183.105	84.5512	183.105	84.7261	183.105	84.3374	183.105	84.5663	183.105	84.242	183.105	84.4875	183.105	84.2561	183.105	84.4587	183.105	84.3417	183.105	84.4382	183.105	84.4478	183.105	84.3929	183.105	84.5286	183.105	84.3107	183.105	84.5543	183.105	84.203	183.105	84.5153	183.105	84.0973	183.105	84.4203	183.105	84.0256	183.105	84.2923	183.105	84.0111	183.105	84.162	183.105	84.0602
188.965	86.4871	188.965	86.4835	188.965	86.3309	188.965	86.3219	188.965	86.0135	188.965	86.0059	188.965	85.5363	188.965	85.5448	188.965	84.9091	188.965	84.9636	188.965	84.1608	188.965	84.3185	188.965	83.3556	188.965	83.7126	188.965	82.6089	188.965	83.2907	188.965	82.078	188.965	83.1786	188.965	81.8956	188.965	83.3895	188.965	82.0758	188.965	83.8084	188.965	82.5052	188.965	84.2776	188.965	83.0311	188.965	84.6775	188.965	83.5387	188.965	84.9495	188.965	83.9693	188.965	85.0841	188.965	84.3078	188.965	85.1021	188.965	84.5651	188.965	85.0369	188.965	84.7626	188.965	84.9186
196.289	87.3542	196.289	87.2848	196.289	87.3101	196.289	87.1023	196.289	87.1503	196.289	86.806	196.289	86.8712	196.289	86.3963	196.289	86.469	196.289	85.8778	196.289	85.9435	196.289	85.2663	196.289	85.3055	196.289	84.6	196.289	84.5889	196.289	83.953	196.289	83.8679	196.289	83.4415	196.289	83.266	196.289	83.1943	196.289	82.929	196.289	83.2789	196.289	82.9442	196.289	83.6451	196.289	83.2727	196.289	84.1598	196.289	83.7819	196.289	84.6869	196.289	84.3338	196.289	85.1331	196.289	84.8341	196.289	85.4495	196.289	85.2317	196.289	85.6172	196.289	85.5022	196.289	85.6333
203.613	87.2422	203.613	87.1869	203.613	87.1996	203.613	87.0316	203.613	87.059	203.613	86.7725	203.613	86.8185	203.613	86.4053	203.613	86.475	203.613	85.9282	203.613	86.0265	203.613	85.3472	203.613	85.4769	203.613	84.6864	203.613	84.8439	203.613	84.0035	203.613	84.1716	203.613	83.4036	203.613	83.5442	203.613	83.0266	203.613	83.0831	203.613	82.9809	203.613	82.904	203.613	83.2593	203.613	83.0432	203.613	83.7396	203.613	83.4271	203.613	84.2696	203.613	83.9255	203.613	84.7347	203.613	84.4206	203.613	85.0708	203.613	84.8346	203.613	85.2505	203.613	85.1243	203.613	85.2669
210.938	87.0315	210.938	86.9859	210.938	86.9888	210.938	86.8504	210.938	86.8568	210.938	86.621	210.938	86.6329	210.938	86.2926	210.938	86.3137	210.938	85.8609	210.938	85.8977	210.938	85.3277	210.938	85.3894	210.938	84.7088	210.938	84.8062	210.938	84.0464	210.938	84.1873	210.938	83.423	210.938	83.6027	210.938	82.9589	210.938	83.1509	210.938	82.7705	210.938	82.9277	210.938	82.8931	210.938	82.9731	210.938	83.2494	210.938	83.2413	210.938	83.7035	210.938	83.6301	210.938	84.1344	210.938	84.0342	210.938	84.4661	210.938	84.3764	210.938	84.6616	210.938	84.6097	210.938	84.7088
218.262	86.8996	218.262	86.8984	218.262	86.8143	218.262	86.8071	218.262	86.6431	218.262	86.6196	218.262	86.3847	218.262	86.3283	218.262	86.0367	218.262	85.9265	218.262	85.5987	218.262	85.4132	218.262	85.0771	218.262	84.8008	218.262	84.4932	218.262	84.1283	218.262	83.8933	218.262	83.4771	218.262	83.3575	218.262	82.9739	218.262	82.9899	218.262	82.7507	218.262	82.8773	218.262	82.861	218.262	83.0334	218.262	83.232	218.262	83.3859	218.262	83.719	218.262	83.8223	218.262	84.1897	218.262	84.2423	218.262	84.5603	218.262	84.5791	218.262	84.7909	218.262	84.7946	218.262	84.8685
225.586	87.1235	225.586	87.1298	225.586	87.0226	225.586	87.0401	225.586	86.8258	225.586	86.8507	225.586	86.5293	225.586	86.5559	225.586	86.1279	225.586	86.1503	225.586	85.6167	225.586	85.6321	225.586	84.9964	225.586	85.0116	225.586	84.2823	225.586	84.3238	225.586	83.5219	225.586	83.6468	225.586	82.8148	225.586	83.1098	225.586	82.3161	225.586	82.8572	225.586	82.176	225.586	82.958	225.586	82.4287	225.586	83.3442	225.586	82.9563	225.586	83.8619	225.586	83.5823	225.586	84.3654	225.586	84.1668	225.586	84.7598	225.586	84.6292	225.586	84.9962	225.586	84.9306	225.586	85.0546
232.91	87.2799	232.91	87.248	232.91	87.2211	232.91	87.1276	232.91	87.066	232.91	86.9167	232.91	86.8067	232.91	86.6091	232.91	86.4333	232.91	86.1957	232.91	85.9361	232.91	85.6672	232.91	85.3085	232.91	85.0226	232.91	84.5548	232.91	84.2836	232.91	83.7052	232.91	83.5195	232.91	82.8408	232.91	82.8694	232.91	82.1169	232.91	82.5191	232.91	81.7341	232.91	82.5837	232.91	81.8103	232.91	82.9956	232.91	82.2691	232.91	83.5592	232.91	82.9105	232.91	84.0901	232.91	83.554	232.91	84.4781	232.91	84.0924	232.91	84.6761	232.91	84.4736	232.91	84.6728
241.699	86.8606	241.699	86.8354	241.699	86.8237	241.699	86.746	241.699	86.722	241.699	86.5856	241.699	86.5474	241.699	86.3433	241.699	86.2864	241.699	86.0054	241.699	85.9205	241.699	85.5567	241.699	85.4284	241.699	84.9848	241.699	84.7916	241.699	84.2899	241.699	84.0073	241.699	83.5057	241.699	83.1141	241.699	82.7344	241.699	82.2355	241.699	82.1712	241.699	81.606	241.699	82.036	241.699	81.4763	241.699	82.383	241.699	81.883	241.699	83.0261	241.699	82.6021	241.699	83.707	241.699	83.3647	241.699	84.2467	241.699	84.0008	241.699	84.5606	241.699	84.4308	241.699	84.622
250.488	86.7139	250.488	86.6689	250.488	86.6735	250.488	86.5408	250.488	86.5433	250.488	86.3303	250.488	86.3193	250.488	86.0355	250.488	85.9983	250.488	85.6545	250.488	85.5788	250.488	85.1874	250.488	85.0601	250.488	84.6398	250.488	84.4423	250.488	84.028	250.488	83.7301	250.488	83.384	250.488	82.9471	250.488	82.7643	250.488	82.1622	250.488	82.2544	250.488	81.5173	250.488	81.9561	250.488	81.1988	250.488	81.9376	250.488	81.3065	250.488	82.175	250.488	81.7446	250.488	82.5526	250.488	82.3024	250.488	82.9271	250.488	82.799	250.488	83.1859	250.488	83.133	250.488	83.2634
259.277	86.7363	259.277	86.6831	259.277	86.7132	259.277	86.5541	259.277	86.6097	259.277	86.3458	259.277	86.4192	259.277	86.0512	259.277	86.1326	259.277	85.6612	259.277	85.7413	259.277	85.1687	259.277	85.2399	259.277	84.5766	259.277	84.6318	259.277	83.9104	259.277	83.9369	259.277	83.2338	259.277	83.2019	259.277	82.6551	259.277	82.5133	259.277	82.2997	259.277	81.9983	259.277	82.2399	259.277	81.7859	259.277	82.441	259.277	81.9217	259.277	82.7901	259.277	82.3195	259.277	83.1667	259.277	82.8168	259.277	83.4816	259.277	83.2668	259.277	83.6772	259.277	83.5792	259.277	83.7165
268.066	86.6032	268.066	86.4949	268.066	86.6301	268.066	86.304	268.066	86.5728	268.066	86.0268	268.066	86.4232	268.066	85.6563	268.066	86.1668	268.066	85.1833	268.066	85.7834	268.066	84.5982	268.066	85.2517	268.066	83.8993	268.066	84.5567	268.066	83.1111	268.066	83.7041	268.066	82.3138	268.066	82.7432	268.066	81.67	268.066	81.801	268.066	81.383	268.066	81.0965	268.066	81.544	268.066	80.8527	268.066	82.0285	268.066	81.1085	268.066	82.609	268.066	81.6768	268.066	83.1087	268.066	82.3205	268.066	83.4414	268.066	82.8836	268.066	83.5817	268.066	83.2952	268.066	83.5308
276.855	86.5716	276.855	86.6004	276.855	86.4701	276.855	86.5439	276.855	86.304	276.855	86.3859	276.855	86.0743	276.855	86.107	276.855	85.7728	276.855	85.6859	276.855	85.3812	276.855	85.1017	276.855	84.876	276.855	84.3405	276.855	84.2377	276.855	83.4077	276.855	83.4682	276.855	82.3542	276.855	82.6171	276.855	81.3214	276.855	81.8117	276.855	80.5713	276.855	81.2583	276.855	80.3772	276.855	81.1426	276.855	80.7613	276.855	81.4656	276.855	81.4602	276.855	82.0338	276.855	82.1861	276.855	82.6199	276.855	82.7773	276.855	83.0734	276.855	83.1736	276.855	83.3259	276.855	83.3586
287.109	86.5688	287.109	86.5829	287.109	86.4768	287.109	86.5077	287.109	86.3169	287.109	86.332	287.109	86.0923	287.109	86.0412	287.109	85.7914	287.109	85.6127	287.109	85.3827	287.109	85.0128	287.109	84.817	287.109	84.2009	287.109	84.0378	287.109	83.15	287.109	83.0025	287.109	81.9043	287.109	81.7251	287.109	80.7034	287.109	80.3743	287.109	80.0769	287.109	79.4056	287.109	80.4383	287.109	79.3696	287.109	81.483	287.109	80.2251	287.109	82.6281	287.109	81.4132	287.109	83.5498	287.109	82.5237	287.109	84.1484	287.109	83.4059	287.109	84.4144	287.109	84.0237	287.109	84.3655
297.363	86.6734	297.363	86.5787	297.363	86.7024	297.363	86.4514	297.363	86.6435	297.363	86.3177	297.363	86.4954	297.363	86.1802	297.363	86.2729	297.363	86.0122	297.363	85.9837	297.363	85.7586	297.363	85.602	297.363	85.3418	297.363	85.0578	297.363	84.6657	297.363	84.2498	297.363	83.6234	297.363	83.0683	297.363	82.1254	297.363	81.4223	297.363	80.2318	297.363	79.3241	297.363	78.6038	297.363	77.2437	297.363	78.6395	297.363	76.6323	297.363	80.207	297.363	78.0806	297.363	81.8841	297.363	80.1109	297.363	83.0521	297.363	81.809	297.363	83.6129	297.363	82.975	297.363	83.5804
307.617	86.4898	307.617	86.4851	307.617	86.4464	307.617	86.4166	307.617	86.3649	307.617	86.274	307.617	86.2444	307.617	86.0594	307.617	86.0798	307.617	85.7854	307.617	85.8739	307.617	85.4648	307.617	85.6385	307.617	85.0974	307.617	85.3746	307.617	84.6563	307.617	85.0456	307.617	84.0845	307.617	84.5735	307.617	83.3109	307.617	83.8705	307.617	82.3003	307.617	82.897	307.617	81.1616	307.617	81.7458	307.617	80.2852	307.617	80.74	307.617	80.1702	307.617	80.3393	307.617	80.7657	307.617	80.6539	307.617	81.5179	307.617	81.2981	307.617	82.0186	307.617	81.8622	307.617	82.1315
319.336	86.5383	319.336	86.4772	319.336	86.5444	319.336	86.3689	319.336	86.486	319.336	86.2152	319.336	86.3527	319.336	86.0039	319.336	86.1302	319.336	85.7057	319.336	85.8008	319.336	85.2785	319.336	85.3513	319.336	84.6805	319.336	84.7837	319.336	83.8901	319.336	84.1189	319.336	82.9316	319.336	83.3896	319.336	81.9033	319.336	82.6272	319.336	80.9943	319.336	81.8737	319.336	80.4469	319.336	81.233	319.336	80.4288	319.336	80.9031	319.336	80.8974	319.336	81.0536	319.336	81.6205	319.336	81.6067	319.336	82.3264	319.336	82.2718	319.336	82.8138	319.336	82.7776	319.336	82.9741
329.59	86.4087	329.59	86.3556	329.59	86.4068	329.59	86.2495	329.59	86.3583	329.59	86.1027	329.59	86.2724	329.59	85.93	329.59	86.1439	329.59	85.7338	329.59	85.9446	329.59	85.4902	329.59	85.6306	329.59	85.1463	329.59	85.1631	329.59	84.634	329.59	84.5296	329.59	83.8962	329.59	83.7542	329.59	82.923	329.59	82.8924	329.59	81.806	329.59	82.0213	329.59	80.8051	329.59	81.2477	329.59	80.3055	329.59	80.737	329.59	80.4911	329.59	80.6668	329.59	81.1143	329.59	81.0421	329.59	81.7823	329.59	81.6256	329.59	82.2337	329.59	82.1259	329.59	82.3535
341.309	86.1068	341.309	86.1504	341.309	85.9319	341.309	86.059	341.309	85.6409	341.309	85.8371	341.309	85.265	341.309	85.496	341.309	84.8494	341.309	85.0542	341.309	84.4352	341.309	84.5343	341.309	84.0324	341.309	83.9549	341.309	83.6106	341.309	83.3229	341.309	83.1265	341.309	82.641	341.309	82.5773	341.309	81.9387	341.309	82.0455	341.309	81.3167	341.309	81.6928	341.309	80.9573	341.309	81.66	341.309	81.0254	341.309	81.9436	341.309	81.5081	341.309	82.4106	341.309	82.2072	341.309	82.9114	341.309	82.8888	341.309	83.3347	341.309	83.3886	341.309	83.596	341.309	83.6274
353.027	86.642	353.027	86.5911	353.027	86.593	353.027	86.4445	353.027	86.4461	353.027	86.2121	353.027	86.2043	353.027	85.9048	353.027	85.8671	353.027	85.5267	353.027	85.4252	353.027	85.0671	353.027	84.8555	353.027	84.4961	353.027	84.1194	353.027	83.7685	353.027	83.166	353.027	82.841	353.027	81.9534	353.027	81.7245	353.027	80.5162	353.027	80.595	353.027	79.137	353.027	79.9	353.027	78.5045	353.027	80.0689	353.027	79.0955	353.027	80.9185	353.027	80.3818	353.027	81.9099	353.027	81.6498	353.027	82.7053	353.027	82.5945	353.027	83.1925	353.027	83.1555	353.027	83.3472
366.211	86.9638	366.211	86.8746	366.211	86.9308	366.211	86.6596	366.211	86.7879	366.211	86.3237	366.211	86.5508	366.211	85.8778	366.211	86.2316	366.211	85.3323	366.211	85.8343	366.211	84.6889	366.211	85.3524	366.211	83.9334	366.211	84.7681	366.211	83.0362	366.211	84.0458	366.211	81.9726	366.211	83.127	366.211	80.7733	366.211	81.9408	366.211	79.6224	366.211	80.4627	366.211	78.9434	366.211	78.8884	366.211	79.1355	366.211	77.9171	366.211	80.0276	366.211	78.2973	366.211	81.0762	366.211	79.5854	366.211	81.8969	366.211	80.8969	366.211	82.3276	366.211	81.836	366.211	82.3137
379.395	86.7634	379.395	86.7954	379.395	86.6686	379.395	86.7554	379.395	86.5143	379.395	86.6251	379.395	86.3047	379.395	86.3811	379.395	86.0454	379.395	86.0032	379.395	85.7352	379.395	85.4779	379.395	85.3571	379.395	84.7912	379.395	84.8771	379.395	83.9152	379.395	84.2535	379.395	82.7991	379.395	83.451	379.395	81.3912	379.395	82.4616	379.395	79.753	379.395	81.3513	379.395	78.3682	379.395	80.3547	379.395	78.2203	379.395	79.9049	379.395	79.4081	379.395	80.2726	379.395	80.908	379.395	81.1647	379.395	82.0789	379.395	82.0828	379.395	82.7648	379.395	82.7248	379.395	82.9689
392.578	85.4104	392.578	85.3708	392.578	85.3649	392.578	85.2583	392.578	85.2303	392.578	85.0875	392.578	85.0128	392.578	84.8705	392.578	84.7236	392.578	84.6148	392.578	84.3712	392.578	84.3163	392.578	83.9543	392.578	83.9481	392.578	83.459	392.578	83.4562	392.578	82.8563	392.578	82.7757	392.578	82.1095	392.578	81.8669	392.578	81.1987	392.578	80.7742	392.578	80.185	392.578	79.7241	392.578	79.3195	392.578	79.1919	392.578	79.0587	392.578	79.5675	392.578	79.6439	392.578	80.5954	392.578	80.7213	392.578	81.6832	392.578	81.7691	392.578	82.4412	392.578	82.4778	392.578	82.7158
405.762	87.1618	405.762	87.0044	405.762	87.1159	405.762	86.6621	405.762	86.8573	405.762	86.16	405.762	86.3881	405.762	85.5226	405.762	85.7228	405.762	84.7621	405.762	84.8869	405.762	83.8719	405.762	83.9093	405.762	82.8306	405.762	82.8111	405.762	81.6169	405.762	81.598	405.762	80.2458	405.762	80.2727	405.762	78.8722	405.762	78.9073	405.762	77.9938	405.762	77.8391	405.762	78.2879	405.762	77.7555	405.762	79.6427	405.762	78.9055	405.762	81.2782	405.762	80.6039	405.762	82.6905	405.762	82.1888	405.762	83.7136	405.762	83.3955	405.762	84.3071	405.762	84.1552	405.762	84.4574
420.41	89.3337	420.41	89.328	420.41	89.2603	420.41	89.2323	420.41	89.1266	420.41	89.0418	420.41	88.9509	420.41	88.7511	420.41	88.7367	420.41	88.3476	420.41	88.4597	420.41	87.8073	420.41	88.0668	420.41	87.089	420.41	87.4856	420.41	86.124	420.41	86.6325	420.41	84.7958	420.41	85.4107	420.41	82.9135	420.41	83.6913	420.41	80.1841	420.41	81.2761	420.41	76.3627	420.41	77.8668	420.41	73.5014	420.41	73.614	420.41	75.9317	420.41	73.0202	420.41	78.9617	420.41	76.5443	420.41	80.8097	420.41	79.2965	420.41	81.6621	420.41	80.9351	420.41	81.6912
435.059	87.8026	435.059	87.6789	435.059	87.8281	435.059	87.4878	435.059	87.7327	435.059	87.2535	435.059	87.5204	435.059	86.9887	435.059	87.2313	435.059	86.6931	435.059	86.9255	435.059	86.35	435.059	86.6377	435.059	85.9198	435.059	86.3342	435.059	85.336	435.059	85.9183	435.059	84.513	435.059	85.2757	435.059	83.3733	435.059	84.3198	435.059	81.9164	435.059	83.0323	435.059	80.3884	435.059	81.5491	435.059	79.4985	435.059	80.338	435.059	79.8958	435.059	80.1034	435.059	81.1071	435.059	80.8941	435.059	82.2882	435.059	81.9957	435.059	83.0295	435.059	82.8463	435.059	83.2159
451.172	88.6783	451.172	88.5563	451.172	88.6239	451.172	88.2628	451.172	88.4128	451.172	87.8325	451.172	88.0796	451.172	87.3257	451.172	87.661	451.172	86.8046	451.172	87.1822	451.172	86.2909	451.172	86.6455	451.172	85.7295	451.172	86.0236	451.172	84.9859	451.172	85.2513	451.172	83.8677	451.172	84.2142	451.172	82.1288	451.172	82.7435	451.172	79.4434	451.172	80.6496	451.172	75.7019	451.172	78.0077	451.172	74.3792	451.172	76.4923	451.172	78.023	451.172	78.2324	451.172	81.2351	451.172	80.8461	451.172	83.2113	451.172	82.7961	451.172	84.2191	451.172	83.9731	451.172	84.4455
465.82	88.5322	465.82	88.4628	465.82	88.4658	465.82	88.2682	465.82	88.2695	465.82	87.9713	465.82	87.9698	465.82	87.6055	465.82	87.6136	465.82	87.2071	465.82	87.2505	465.82	86.7961	465.82	86.9013	465.82	86.3515	465.82	86.5355	465.82	85.803	465.82	86.0746	465.82	85.0458	465.82	85.4088	465.82	83.9571	465.82	84.4067	465.82	82.4024	465.82	82.9134	465.82	80.2779	465.82	80.7824	465.82	77.8452	465.82	78.1692	465.82	76.7263	465.82	76.6441	465.82	78.1143	465.82	77.8743	465.82	80.0165	465.82	79.8366	465.82	81.2325	465.82	81.1387	465.82	81.6024
483.398	88.1498	483.398	88.0121	483.398	88.1297	483.398	87.745	483.398	87.9451	483.398	87.3912	483.398	87.6184	483.398	87.0013	483.398	87.2048	483.398	86.6224	483.398	86.7768	483.398	86.276	483.398	86.3796	483.398	85.9304	483.398	85.9863	483.398	85.4852	483.398	85.4998	483.398	84.7796	483.398	84.7949	483.398	83.6121	483.398	83.7472	483.398	81.7629	483.398	82.2396	483.398	79.1144	483.398	80.2278	483.398	76.5326	483.398	78.161	483.398	76.9192	483.398	77.6721	483.398	79.3027	483.398	79.211	483.398	81.2084	483.398	80.9836	483.398	82.2655	483.398	82.1344	483.398	82.5586
499.512	88.4052	499.512	88.3107	499.512	88.3425	499.512	88.0523	499.512	88.1298	499.512	87.6346	499.512	87.774	499.512	87.0864	499.512	87.2918	499.512	86.4647	499.512	86.7223	499.512	85.837	499.512	86.1255	499.512	85.2354	499.512	85.5521	499.512	84.6089	499.512	84.9915	499.512	83.8204	499.512	84.3414	499.512	82.6936	499.512	83.4286	499.512	81.0735	499.512	82.0587	499.512	78.9614	499.512	80.0965	499.512	77.064	499.512	77.7845	499.512	77.1861	499.512	76.6436	499.512	79.0889	499.512	77.9842	499.512	80.9135	499.512	80.0369	499.512	81.9777	499.512	81.5205	499.512	82.1794
517.09	88.1811	517.09	88.0891	517.09	88.0488	517.09	87.764	517.09	87.7267	517.09	87.2471	517.09	87.2656	517.09	86.6451	517.09	86.7439	517.09	86.1052	517.09	86.2739	517.09	85.7291	517.09	85.9501	517.09	85.4814	517.09	85.7518	517.09	85.1952	517.09	85.521	517.09	84.6573	517.09	85.0495	517.09	83.6612	517.09	84.155	517.09	82.002	517.09	82.6965	517.09	79.5187	517.09	80.6326	517.09	76.7573	517.09	78.4488	517.09	76.7059	517.09	77.9252	517.09	79.3329	517.09	79.5732	517.09	81.5934	517.09	81.4782	517.09	82.8681	517.09	82.7451	517.09	83.2245
536.133	88.7974	536.133	88.6102	536.133	88.7398	536.133	88.2089	536.133	88.4198	536.133	87.6236	536.133	87.8456	536.133	86.885	536.133	87.0571	536.133	86.0518	536.133	86.1355	536.133	85.2454	536.133	85.2183	536.133	84.6079	536.133	84.4682	536.133	84.1304	536.133	83.9338	536.133	83.5525	536.133	83.4271	536.133	82.5005	536.133	82.6162	536.133	80.6552	536.133	81.2055	536.133	77.9466	536.133	79.093	536.133	75.6862	536.133	76.9675	536.133	76.8187	536.133	77.0774	536.133	79.4694	536.133	79.2722	536.133	81.528	536.133	81.3503	536.133	82.7333	536.133	82.6466	536.133	83.1043
555.176	88.6611	555.176	88.5655	555.176	88.5593	555.176	88.2499	555.176	88.2791	555.176	87.7056	555.176	87.8384	555.176	86.9593	555.176	87.2744	555.176	86.0802	555.176	86.6529	555.176	85.1653	555.176	86.0402	555.176	84.3116	555.176	85.4517	555.176	83.5693	555.176	84.8328	555.176	82.8639	555.176	84.0793	555.176	81.9367	555.176	83.0382	555.176	80.3673	555.176	81.4637	555.176	77.6096	555.176	78.9652	555.176	73.3765	555.176	75.1806	555.176	72.5583	555.176	72.8284	555.176	76.6498	555.176	76.1383	555.176	79.5017	555.176	79.2259	555.176	80.9737	555.176	80.88	555.176	81.4087
574.219	88.5544	574.219	88.3382	574.219	88.5493	574.219	87.9521	574.219	88.2852	574.219	87.4361	574.219	87.7747	574.219	86.8314	574.219	87.0981	574.219	86.2225	574.219	86.3809	574.219	85.7408	574.219	85.7496	574.219	85.4393	574.219	85.2952	574.219	85.1604	574.219	85.0023	574.219	84.6233	574.219	84.6766	574.219	83.5676	574.219	83.9993	574.219	81.7049	574.219	82.6361	574.219	78.4391	574.219	80.2468	574.219	72.0142	574.219	76.4772	574.219	68.2224	574.219	72.8001	574.219	76.3178	574.219	75.3483	574.219	80.0214	574.219	78.9672	574.219	81.6555	574.219	81.101	574.219	81.9591
594.727	88.1646	594.727	88.0635	594.727	87.985	594.727	87.6289	594.727	87.5979	594.727	86.8531	594.727	87.0472	594.727	85.7836	594.727	86.3225	594.727	84.5579	594.727	85.4229	594.727	83.481	594.727	84.4918	594.727	82.9507	594.727	83.8308	594.727	82.9921	594.727	83.5758	594.727	83.1029	594.727	83.4393	594.727	82.7565	594.727	82.9706	594.727	81.6534	594.727	81.8062	594.727	79.6427	594.727	79.6782	594.727	76.7457	594.727	76.5831	594.727	74.4266	594.727	74.5253	594.727	76.1391	594.727	76.4771	594.727	79.1226	594.727	79.1371	594.727	80.9559	594.727	80.8411	594.727	81.4786
615.234	86.273	615.234	86.1599	615.234	86.1938	615.234	85.821	615.234	85.893	615.234	85.1836	615.234	85.3111	615.234	84.205	615.234	84.4349	615.234	82.9698	615.234	83.3849	615.234	81.7828	615.234	82.4594	615.234	81.0575	615.234	81.9611	615.234	80.8485	615.234	81.8244	615.234	80.7131	615.234	81.6227	615.234	80.1369	615.234	80.9215	615.234	78.6897	615.234	79.3514	615.234	75.7859	615.234	76.3901	615.234	70.283	615.234	71.3978	615.234	67.6489	615.234	70.3689	615.234	73.7975	615.234	75.2059	615.234	77.2873	615.234	78.1131	615.234	79.0506	615.234	79.4587	615.234	79.7233
637.207	89.8537	637.207	89.7249	637.207	89.8897	637.207	89.5133	637.207	89.7785	637.207	89.1638	637.207	89.4582	637.207	88.5594	637.207	88.8698	637.207	87.5544	637.207	87.9367	637.207	86.0785	637.207	86.6181	637.207	84.4499	637.207	85.2275	637.207	83.7771	637.207	84.7967	637.207	84.5812	637.207	85.6883	637.207	85.573	637.207	86.6581	637.207	85.6643	637.207	86.7249	637.207	84.2659	637.207	85.3842	637.207	80.3507	637.207	81.8634	637.207	67.8784	637.207	73.334	637.207	77.0674	637.207	76.5634	637.207	83.8021	637.207	83.5504	637.207	86.6434	637.207	86.5578	637.207	87.4678
659.18	90.979	659.18	90.9755	659.18	90.8543	659.18	90.7816	659.18	90.6771	659.18	90.3845	659.18	90.4708	659.18	89.8087	659.18	90.1577	659.18	89.0655	659.18	89.5829	659.18	88.1166	659.18	88.6018	659.18	86.9281	659.18	87.1988	659.18	85.6709	659.18	85.6666	659.18	84.8841	659.18	84.7288	659.18	84.8437	659.18	84.7806	659.18	84.8413	659.18	85.0136	659.18	83.8884	659.18	84.345	659.18	80.9651	659.18	81.8436	659.18	73.9927	659.18	75.474	659.18	74.8911	659.18	70.5028	659.18	81.4758	659.18	80.047	659.18	84.2147	659.18	83.6767	659.18	84.845
682.617	89.8008	682.617	89.5383	682.617	89.9408	682.617	89.1944	682.617	89.9011	682.617	88.7637	682.617	89.6282	682.617	88.1728	682.617	89.0921	682.617	87.3163	682.617	88.3147	682.617	86.1573	682.617	87.3791	682.617	84.8503	682.617	86.3956	682.617	83.8035	682.617	85.4686	682.617	83.394	682.617	84.7248	682.617	83.4276	682.617	84.2753	682.617	83.2609	682.617	83.9791	682.617	82.2255	682.617	83.3557	682.617	79.5216	682.617	81.7193	682.617	73.4851	682.617	77.9864	682.617	71.7465	682.617	71.37	682.617	78.6768	682.617	76.219	682.617	81.6826	682.617	80.7543	682.617	82.2961
707.52	89.9711	707.52	89.6627	707.52	89.9882	707.52	89.1123	707.52	89.716	707.52	88.3899	707.52	89.2196	707.52	87.5439	707.52	88.5581	707.52	86.5346	707.52	87.6974	707.52	85.2453	707.52	86.5904	707.52	83.6759	707.52	85.4159	707.52	82.2805	707.52	84.6031	707.52	81.8459	707.52	84.2802	707.52	82.2161	707.52	84.0394	707.52	82.3432	707.52	83.466	707.52	81.3779	707.52	82.2556	707.52	78.4756	707.52	79.9392	707.52	71.0136	707.52	75.8048	707.52	67.2735	707.52	73.3259	707.52	77.4013	707.52	78.1095	707.52	81.0257	707.52	81.2674	707.52	82.1517
732.422	88.8508	732.422	88.6606	732.422	88.8623	732.422	88.2446	732.422	88.7177	732.422	87.5978	732.422	88.4001	732.422	86.7916	732.422	87.917	732.422	85.9244	732.422	87.2931	732.422	84.9928	732.422	86.4574	732.422	83.8472	732.422	85.2969	732.422	82.4132	732.422	84.0135	732.422	81.1245	732.422	83.3874	732.422	80.7925	732.422	83.6608	732.422	81.1264	732.422	83.8093	732.422	80.9419	732.422	83.0127	732.422	79.1705	732.422	80.8891	732.422	73.7249	732.422	76.9203	732.422	63.9831	732.422	72.223	732.422	77.2326	732.422	76.0668	732.422	81.0588	732.422	80.0526	732.422	81.6888
757.324	91.2305	757.324	90.903	757.324	91.1724	757.324	90.2241	757.324	90.7499	757.324	89.2576	757.324	90.0516	757.324	88.0716	757.324	89.1632	757.324	86.7069	757.324	88.0722	757.324	85.2238	757.324	86.7284	757.324	83.8034	757.324	85.2563	757.324	82.5949	757.324	84.0328	757.324	81.4646	757.324	83.3979	757.324	80.2827	757.324	83.2867	757.324	79.1637	757.324	83.1694	757.324	77.823	757.324	82.2506	757.324	74.8756	757.324	79.5854	757.324	66.1727	757.324	73.2987	757.324	68.432	757.324	68.6482	757.324	76.5458	757.324	77.0875	757.324	79.8435	757.324	80.3225	757.324	81.0126
785.156	91.9779	785.156	91.6988	785.156	91.9447	785.156	91.0762	785.156	91.6689	785.156	90.1886	785.156	91.1613	785.156	89.1552	785.156	90.3869	785.156	88.0068	785.156	89.3477	785.156	86.6906	785.156	88.122	785.156	85.2524	785.156	86.8344	785.156	84.0376	785.156	85.6483	785.156	83.526	785.156	84.8132	785.156	83.6432	785.156	84.4574	785.156	83.7126	785.156	84.2351	785.156	83.071	785.156	83.5701	785.156	81.1855	785.156	81.858	785.156	77.15	785.156	77.94	785.156	66.8742	785.156	68.6606	785.156	70.0328	785.156	73.3438	785.156	76.8985	785.156	78.1323	785.156	78.939
811.523	91.531	811.523	91.3578	811.523	91.4747	811.523	90.9187	811.523	91.1542	811.523	90.1316	811.523	90.5616	811.523	88.9937	811.523	89.7575	811.523	87.591	811.523	88.7883	811.523	85.9733	811.523	87.6046	811.523	84.2072	811.523	86.1656	811.523	82.7909	811.523	84.7691	811.523	82.5474	811.523	84.1715	811.523	83.2102	811.523	84.5838	811.523	83.7577	811.523	85.1413	811.523	83.527	811.523	84.9638	811.523	81.9919	811.523	83.4073	811.523	78.1782	811.523	79.6036	811.523	68.4948	811.523	71.6871	811.523	71.7809	811.523	72.9863	811.523	78.0506	811.523	78.273	811.523	79.6736
840.82	91.286	840.82	90.9844	840.82	91.324	840.82	90.4321	840.82	91.1197	840.82	89.669	840.82	90.6933	840.82	88.7061	840.82	90.0284	840.82	87.4886	840.82	89.0762	840.82	85.9488	840.82	87.791	840.82	84.075	840.82	86.1539	840.82	81.9112	840.82	84.2637	840.82	79.9271	840.82	82.8441	840.82	79.8853	840.82	82.9684	840.82	81.7448	840.82	83.778	840.82	83.116	840.82	83.8836	840.82	82.8015	840.82	82.6103	840.82	80.0062	840.82	79.3664	840.82	71.9569	840.82	73.6542	840.82	69.1548	840.82	75.2076	840.82	78.5073	840.82	79.7682	840.82	80.8777
870.117	90.7199	870.117	90.4523	870.117	90.6151	870.117	89.8631	870.117	90.2679	870.117	89.1256	870.117	89.8649	870.117	88.3777	870.117	89.4112	870.117	87.573	870.117	88.7633	870.117	86.4903	870.117	87.8288	870.117	84.9145	870.117	86.5364	870.117	82.8037	870.117	84.7331	870.117	80.372	870.117	82.4051	870.117	78.4891	870.117	80.7693	870.117	79.1337	870.117	81.5034	870.117	81.2057	870.117	82.7066	870.117	81.9485	870.117	82.6359	870.117	80.3047	870.117	80.4578	870.117	75.0449	870.117	75.0239	870.117	67.2098	870.117	72.8561	870.117	75.2584	870.117	77.3619	870.117	78.1354
900.879	90.8473	900.879	90.6177	900.879	90.8094	900.879	90.1147	900.879	90.4926	900.879	89.3188	900.879	89.8856	900.879	88.2342	900.879	89.0473	900.879	87.0055	900.879	88.1416	900.879	85.9065	900.879	87.211	900.879	84.9402	900.879	86.0488	900.879	83.6623	900.879	84.5207	900.879	81.7422	900.879	82.9409	900.879	80.0189	900.879	82.0635	900.879	80.0524	900.879	82.0239	900.879	80.5175	900.879	82.0562	900.879	80.1048	900.879	81.2416	900.879	78.0301	900.879	78.4652	900.879	71.5721	900.879	72.0296	900.879	67.9033	900.879	72.0341	900.879	76.5046	900.879	77.1466	900.879	78.5087
933.105	90.926	933.105	90.5443	933.105	90.8666	933.105	89.838	933.105	90.3314	933.105	88.8906	933.105	89.5209	933.105	87.8497	933.105	88.5957	933.105	86.775	933.105	87.4681	933.105	85.3937	933.105	86.2058	933.105	83.5018	933.105	85.0949	933.105	81.6461	933.105	83.9359	933.105	80.6809	933.105	82.2397	933.105	80.3234	933.105	80.7984	933.105	80.4045	933.105	81.1117	933.105	80.9914	933.105	81.7254	933.105	80.7713	933.105	80.8997	933.105	78.5441	933.105	77.9384	933.105	73.472	933.105	73.2428	933.105	67.1266	933.105	74.1846	933.105	74.6961	933.105	77.8139	933.105	78.2577
965.332	90.4254	965.332	90.1929	965.332	90.3452	965.332	89.5929	965.332	89.9409	965.332	88.6395	965.332	89.1313	965.332	87.3819	965.332	87.9879	965.332	85.894	965.332	86.7942	965.332	84.4336	965.332	85.7231	965.332	83.1607	965.332	84.6074	965.332	81.6977	965.332	83.181	965.332	79.8916	965.332	81.4781	965.332	78.6653	965.332	80.2035	965.332	78.4175	965.332	80.0836	965.332	78.7013	965.332	80.3068	965.332	79.2205	965.332	79.6565	965.332	78.2042	965.332	77.2135	965.332	72.472	965.332	70.6415	965.332	66.9746	965.332	71.0104	965.332	74.9894	965.332	75.9949	965.332	76.7724
1,000.49	90.1913	1,000.49	89.9911	1,000.49	89.9398	1,000.49	89.2765	1,000.49	89.5543	1,000.49	88.2682	1,000.49	89.0232	1,000.49	87.1441	1,000.49	87.9668	1,000.49	85.9032	1,000.49	86.4004	1,000.49	84.3251	1,000.49	84.8609	1,000.49	82.2947	1,000.49	83.4915	1,000.49	80.3651	1,000.49	82.0196	1,000.49	79.0436	1,000.49	80.7748	1,000.49	77.7685	1,000.49	80.1518	1,000.49	77.489	1,000.49	79.8765	1,000.49	78.9742	1,000.49	79.7986	1,000.49	79.5284	1,000.49	79.2307	1,000.49	77.5585	1,000.49	76.7551	1,000.49	70.8535	1,000.49	70.5392	1,000.49	64.6951	1,000.49	70.6596	1,000.49	74.9488	1,000.49	76.1686	1,000.49	77.3847
1,035.64	90.0388	1,035.64	89.5466	1,035.64	90.1003	1,035.64	88.9153	1,035.64	89.5243	1,035.64	88.1051	1,035.64	88.6115	1,035.64	87.0189	1,035.64	87.7833	1,035.64	85.792	1,035.64	86.9045	1,035.64	84.479	1,035.64	85.5914	1,035.64	82.8773	1,035.64	83.7273	1,035.64	80.9943	1,035.64	81.2866	1,035.64	79.176	1,035.64	78.6273	1,035.64	77.4841	1,035.64	77.6352	1,035.64	76.4386	1,035.64	79.0759	1,035.64	77.3918	1,035.64	80.2617	1,035.64	78.8374	1,035.64	79.5797	1,035.64	78.48	1,035.64	76.4334	1,035.64	74.4025	1,035.64	69.0054	1,035.64	53.1459	1,035.64	71.4753	1,035.64	71.9671	1,035.64	75.8869	1,035.64	76.0132
1,072.27	90.9194	1,072.27	90.4054	1,072.27	91.0101	1,072.27	89.4814	1,072.27	90.7651	1,072.27	88.3645	1,072.27	90.0553	1,072.27	87.2108	1,072.27	88.7481	1,072.27	86.019	1,072.27	87.1593	1,072.27	84.7771	1,072.27	85.7774	1,072.27	83.5309	1,072.27	84.5241	1,072.27	82.0116	1,072.27	83.0475	1,072.27	79.6275	1,072.27	80.9823	1,072.27	76.4893	1,072.27	77.9689	1,072.27	74.6661	1,072.27	77.2294	1,072.27	75.2327	1,072.27	80.1681	1,072.27	76.812	1,072.27	81.6087	1,072.27	77.3727	1,072.27	80.6465	1,072.27	74.4953	1,072.27	75.9336	1,072.27	67.2276	1,072.27	66.2587	1,072.27	73.5991	1,072.27	74.4793	1,072.27	76.3275
1,108.89	91.0659	1,108.89	90.6906	1,108.89	91.1734	1,108.89	89.9312	1,108.89	90.8957	1,108.89	88.704	1,108.89	90.1345	1,108.89	87.2931	1,108.89	88.892	1,108.89	85.9675	1,108.89	87.2639	1,108.89	84.5755	1,108.89	85.6015	1,108.89	82.7881	1,108.89	84.1829	1,108.89	80.6461	1,108.89	82.6892	1,108.89	78.4418	1,108.89	80.6031	1,108.89	76.3944	1,108.89	78.0391	1,108.89	75.7455	1,108.89	77.0103	1,108.89	76.3015	1,108.89	78.5372	1,108.89	76.4293	1,108.89	79.5403	1,108.89	75.9212	1,108.89	78.8185	1,108.89	73.0397	1,108.89	75.6695	1,108.89	62.57	1,108.89	70.014	1,108.89	70.7812	1,108.89	72.2185	1,108.89	74.0375
1,148.44	91.0146	1,148.44	90.5489	1,148.44	90.8858	1,148.44	89.6796	1,148.44	90.3379	1,148.44	88.5631	1,148.44	89.5887	1,148.44	87.0882	1,148.44	88.4491	1,148.44	85.1706	1,148.44	86.922	1,148.44	83.3609	1,148.44	85.3654	1,148.44	82.2105	1,148.44	83.6186	1,148.44	80.8866	1,148.44	81.3699	1,148.44	78.5238	1,148.44	79.1196	1,148.44	75.9425	1,148.44	77.3829	1,148.44	74.7683	1,148.44	76.5966	1,148.44	75.1631	1,148.44	77.1314	1,148.44	75.8274	1,148.44	77.09	1,148.44	74.8074	1,148.44	76.217	1,148.44	70.9681	1,148.44	75.081	1,148.44	62.9501	1,148.44	74.2421	1,148.44	70.3301	1,148.44	75.2361	1,148.44	74.9605
1,189.45	90.6831	1,189.45	90.4645	1,189.45	90.636	1,189.45	89.8583	1,189.45	90.3703	1,189.45	89.2259	1,189.45	89.4299	1,189.45	88.3028	1,189.45	87.7393	1,189.45	86.7702	1,189.45	85.6425	1,189.45	85.1437	1,189.45	83.6278	1,189.45	84.1743	1,189.45	82.2363	1,189.45	83.5002	1,189.45	80.5779	1,189.45	81.9236	1,189.45	76.832	1,189.45	78.4551	1,189.45	70.8231	1,189.45	73.3348	1,189.45	72.869	1,189.45	74.7475	1,189.45	77.2843	1,189.45	77.2676	1,189.45	78.1216	1,189.45	77.3075	1,189.45	74.2482	1,189.45	72.8855	1,189.45	65.4799	1,189.45	62.8	1,189.45	74.3077	1,189.45	76.1512	1,189.45	78.1609	1,189.45	78.7654
1,230.47	92.4072	1,230.47	92.2548	1,230.47	92.4404	1,230.47	92.0719	1,230.47	92.2522	1,230.47	91.5772	1,230.47	91.8398	1,230.47	90.5857	1,230.47	90.8544	1,230.47	89.3264	1,230.47	89.1513	1,230.47	88.0882	1,230.47	87.1914	1,230.47	86.8398	1,230.47	85.5838	1,230.47	85.4602	1,230.47	84.4844	1,230.47	83.9053	1,230.47	83.2458	1,230.47	82.4255	1,230.47	80.7067	1,230.47	80.7484	1,230.47	76.2958	1,230.47	78.9973	1,230.47	76.9607	1,230.47	80.7313	1,230.47	80.3028	1,230.47	81.7813	1,230.47	80.0475	1,230.47	79.4241	1,230.47	74.8557	1,230.47	70.9586	1,230.47	62.6252	1,230.47	71.8854	1,230.47	77.0557	1,230.47	78.7183
1,274.41	90.8235	1,274.41	90.7184	1,274.41	90.8191	1,274.41	90.3478	1,274.41	90.5833	1,274.41	89.57	1,274.41	90.1218	1,274.41	88.6571	1,274.41	89.1936	1,274.41	87.4973	1,274.41	87.6352	1,274.41	85.8095	1,274.41	85.461	1,274.41	83.8223	1,274.41	82.9611	1,274.41	82.1498	1,274.41	80.9561	1,274.41	80.8806	1,274.41	79.7438	1,274.41	79.2299	1,274.41	78.9281	1,274.41	77.3787	1,274.41	77.1964	1,274.41	76.5213	1,274.41	75.6843	1,274.41	77.1329	1,274.41	78.0792	1,274.41	78.3371	1,274.41	79.0236	1,274.41	77.2806	1,274.41	75.6814	1,274.41	72.2577	1,274.41	67.8538	1,274.41	71.0694	1,274.41	75.0261	1,274.41	75.8031
1,319.82	91.1828	1,319.82	90.6575	1,319.82	90.7725	1,319.82	89.7297	1,319.82	89.8894	1,319.82	89.1995	1,319.82	88.9508	1,319.82	88.2544	1,319.82	88.0885	1,319.82	86.4488	1,319.82	86.8231	1,319.82	84.7447	1,319.82	84.9128	1,319.82	83.4012	1,319.82	82.7516	1,319.82	82.2372	1,319.82	80.3307	1,319.82	80.9375	1,319.82	78.5357	1,319.82	78.7522	1,319.82	76.9905	1,319.82	75.5693	1,319.82	74.0096	1,319.82	73.82	1,319.82	73.4088	1,319.82	75.892	1,319.82	75.3401	1,319.82	76.0344	1,319.82	75.9003	1,319.82	73.5935	1,319.82	74.1484	1,319.82	61.193	1,319.82	64.1809	1,319.82	72.6487	1,319.82	72.2256	1,319.82	76.0107
1,366.7	90.797	1,366.7	90.5763	1,366.7	90.6885	1,366.7	90.0133	1,366.7	90.0524	1,366.7	88.8997	1,366.7	89.1127	1,366.7	87.4899	1,366.7	87.9924	1,366.7	85.6961	1,366.7	86.4833	1,366.7	83.4564	1,366.7	84.7743	1,366.7	81.7532	1,366.7	82.7409	1,366.7	80.7294	1,366.7	80.1963	1,366.7	79.8629	1,366.7	77.4787	1,366.7	78.7105	1,366.7	75.2901	1,366.7	76.3382	1,366.7	75.431	1,366.7	74.1858	1,366.7	75.0977	1,366.7	76.2417	1,366.7	73.9576	1,366.7	78.3707	1,366.7	74.138	1,366.7	77.4433	1,366.7	74.4447	1,366.7	70.7613	1,366.7	70.2097	1,366.7	69.3422	1,366.7	70.3267	1,366.7	73.789
1,413.57	91.423	1,413.57	90.7241	1,413.57	91.0918	1,413.57	89.2215	1,413.57	90.6326	1,413.57	87.1323	1,413.57	89.8996	1,413.57	85.8043	1,413.57	88.1924	1,413.57	84.6545	1,413.57	86.7402	1,413.57	82.5196	1,413.57	84.7494	1,413.57	81.4651	1,413.57	81.7125	1,413.57	80.9011	1,413.57	79.5391	1,413.57	79.0826	1,413.57	77.4014	1,413.57	77.2044	1,413.57	74.3319	1,413.57	76.1101	1,413.57	70.9576	1,413.57	72.1915	1,413.57	73.7806	1,413.57	66.9675	1,413.57	77.1122	1,413.57	73.1879	1,413.57	76.8443	1,413.57	73.3383	1,413.57	71.8929	1,413.57	66.8299	1,413.57	73.53	1,413.57	72.5374	1,413.57	75.728	1,413.57	77.4353
1,463.38	91.7248	1,463.38	91.53	1,463.38	91.6608	1,463.38	90.8672	1,463.38	91.2174	1,463.38	89.9091	1,463.38	90.2721	1,463.38	88.5413	1,463.38	88.7555	1,463.38	86.2777	1,463.38	85.8934	1,463.38	83.7224	1,463.38	84.2294	1,463.38	81.1311	1,463.38	83.1631	1,463.38	79.4147	1,463.38	80.6777	1,463.38	78.6056	1,463.38	78.5982	1,463.38	76.4196	1,463.38	73.9428	1,463.38	74.1219	1,463.38	75.3977	1,463.38	75.3107	1,463.38	77.8663	1,463.38	74.6524	1,463.38	78.7412	1,463.38	75.0998	1,463.38	79.2371	1,463.38	75.2468	1,463.38	75.3626	1,463.38	66.598	1,463.38	68.868	1,463.38	72.6156	1,463.38	74.2251	1,463.38	74.1015
1,516.11	91.9146	1,516.11	91.5407	1,516.11	92.1299	1,516.11	90.8773	1,516.11	91.7184	1,516.11	89.8249	1,516.11	91.0129	1,516.11	88.7828	1,516.11	89.6285	1,516.11	87.3324	1,516.11	87.9962	1,516.11	85.1964	1,516.11	85.3407	1,516.11	81.3214	1,516.11	81.7829	1,516.11	78.1949	1,516.11	80.4023	1,516.11	80.2087	1,516.11	78.9902	1,516.11	80.4751	1,516.11	74.9342	1,516.11	73.7068	1,516.11	67.5163	1,516.11	73.917	1,516.11	73.5486	1,516.11	75.1132	1,516.11	73.1963	1,516.11	69.8587	1,516.11	68.6403	1,516.11	73.8786	1,516.11	69.8898	1,516.11	69.1752	1,516.11	64.2992	1,516.11	40.0241	1,516.11	71.8355	1,516.11	64.4282
1,568.85	92.0091	1,568.85	91.8162	1,568.85	91.8497	1,568.85	90.8521	1,568.85	91.1984	1,568.85	89.3455	1,568.85	89.933	1,568.85	87.2634	1,568.85	88.4191	1,568.85	85.2226	1,568.85	87.1642	1,568.85	84.465	1,568.85	85.2597	1,568.85	82.4675	1,568.85	82.4066	1,568.85	78.9386	1,568.85	78.8188	1,568.85	75.9425	1,568.85	79.1113	1,568.85	77.8443	1,568.85	79.2226	1,568.85	78.9603	1,568.85	74.193	1,568.85	74.0405	1,568.85	72.5167	1,568.85	73.1967	1,568.85	76.8992	1,568.85	76.0003	1,568.85	79.2847	1,568.85	74.9437	1,568.85	75.6218	1,568.85	70.4544	1,568.85	53.5992	1,568.85	63.3932	1,568.85	69.1252	1,568.85	65.5253
1,624.51	91.4281	1,624.51	90.8766	1,624.51	91.4716	1,624.51	89.7793	1,624.51	90.4691	1,624.51	88.5693	1,624.51	89.1404	1,624.51	85.9901	1,624.51	87.6957	1,624.51	82.5162	1,624.51	85.8749	1,624.51	81.9185	1,624.51	83.1288	1,624.51	81.1519	1,624.51	80.2308	1,624.51	78.2105	1,624.51	78.1109	1,624.51	76.2554	1,624.51	74.3865	1,624.51	75.9783	1,624.51	69.8179	1,624.51	76.8596	1,624.51	63.3398	1,624.51	72.0674	1,624.51	61.9023	1,624.51	69.3219	1,624.51	72.5519	1,624.51	71.4466	1,624.51	75.0062	1,624.51	76.9012	1,624.51	73.9329	1,624.51	71.6677	1,624.51	70.4903	1,624.51	69.9713	1,624.51	66.2753	1,624.51	72.8446
1,681.64	90.1897	1,681.64	90.064	1,681.64	90.3483	1,681.64	89.3505	1,681.64	90.264	1,681.64	87.4052	1,681.64	89.156	1,681.64	84.7089	1,681.64	87.1077	1,681.64	83.0518	1,681.64	86.6644	1,681.64	80.1455	1,681.64	85.2778	1,681.64	76.2964	1,681.64	82.624	1,681.64	77.6997	1,681.64	79.7487	1,681.64	74.7169	1,681.64	73.8831	1,681.64	74.2103	1,681.64	75.9021	1,681.64	74.1461	1,681.64	67.4286	1,681.64	70.2341	1,681.64	59.7212	1,681.64	62.9772	1,681.64	71.9147	1,681.64	71.2772	1,681.64	77.1519	1,681.64	76.0131	1,681.64	72.628	1,681.64	75.8728	1,681.64	71.8152	1,681.64	61.2177	1,681.64	55.8666	1,681.64	69.9845
1,741.7	89.5616	1,741.7	89.3026	1,741.7	89.4909	1,741.7	88.551	1,741.7	88.9153	1,741.7	86.782	1,741.7	88.5873	1,741.7	85.7574	1,741.7	87.4924	1,741.7	83.3611	1,741.7	85.8968	1,741.7	81.3504	1,741.7	83.9664	1,741.7	79.9226	1,741.7	82.702	1,741.7	77.5363	1,741.7	79.7858	1,741.7	78.517	1,741.7	77.1206	1,741.7	75.6953	1,741.7	74.1274	1,741.7	75.2961	1,741.7	70.557	1,741.7	74.0994	1,741.7	68.3412	1,741.7	69.8556	1,741.7	59.5306	1,741.7	56.2568	1,741.7	68.113	1,741.7	70.5406	1,741.7	71.6492	1,741.7	70.9553	1,741.7	65.7141	1,741.7	64.9884	1,741.7	70.9543	1,741.7	67.7216
1,803.22	89.2635	1,803.22	88.9538	1,803.22	88.7161	1,803.22	87.9003	1,803.22	89.151	1,803.22	86.3175	1,803.22	88.1174	1,803.22	84.4728	1,803.22	86.2691	1,803.22	82.5047	1,803.22	84.7217	1,803.22	82.0711	1,803.22	83.365	1,803.22	79.3088	1,803.22	81.1248	1,803.22	76.405	1,803.22	78.922	1,803.22	73.5674	1,803.22	75.9022	1,803.22	70.4461	1,803.22	74.6236	1,803.22	71.8014	1,803.22	75.9355	1,803.22	74.0833	1,803.22	74.3457	1,803.22	73.3183	1,803.22	73.3317	1,803.22	71.1785	1,803.22	74.8062	1,803.22	59.3917	1,803.22	73.2975	1,803.22	71.6961	1,803.22	68.0975	1,803.22	71.954	1,803.22	59.181	1,803.22	70.1368
1,866.21	88.8316	1,866.21	88.4074	1,866.21	88.9776	1,866.21	88.3578	1,866.21	88.5888	1,866.21	87.3024	1,866.21	87.0499	1,866.21	85.6966	1,866.21	86.3464	1,866.21	84.5565	1,866.21	85.1668	1,866.21	81.1715	1,866.21	81.9494	1,866.21	78.7684	1,866.21	78.6677	1,866.21	76.2988	1,866.21	76.4163	1,866.21	73.8292	1,866.21	76.1932	1,866.21	76.6147	1,866.21	74.6838	1,866.21	73.5037	1,866.21	73.0366	1,866.21	74.3889	1,866.21	65.9905	1,866.21	76.6366	1,866.21	66.4141	1,866.21	72.966	1,866.21	70.8044	1,866.21	73.4993	1,866.21	73.975	1,866.21	74.4095	1,866.21	66.5635	1,866.21	65.2737	1,866.21	75.178	1,866.21	69.6352
1,932.13	88.0207	1,932.13	87.4839	1,932.13	88.5209	1,932.13	87.0633	1,932.13	87.3502	1,932.13	86.9717	1,932.13	86.1418	1,932.13	85.1335	1,932.13	84.5945	1,932.13	83.1912	1,932.13	83.4453	1,932.13	81.2058	1,932.13	81.8396	1,932.13	80.4986	1,932.13	78.2016	1,932.13	80.2163	1,932.13	76.0073	1,932.13	78.3562	1,932.13	73.7038	1,932.13	76.0718	1,932.13	74.1181	1,932.13	75.9196	1,932.13	58.3268	1,932.13	75.9655	1,932.13	71.333	1,932.13	73.453	1,932.13	71.2132	1,932.13	72.7406	1,932.13	73.2925	1,932.13	75.1787	1,932.13	72.2114	1,932.13	72.9126	1,932.13	65.9527	1,932.13	66.4216	1,932.13	74.0992	1,932.13	68.9924
1,999.51	88.3706	1,999.51	87.642	1,999.51	87.7367	1,999.51	86.1088	1,999.51	86.1887	1,999.51	84.7574	1,999.51	85.2813	1,999.51	84.355	1,999.51	83.2224	1,999.51	82.1331	1,999.51	81.306	1,999.51	80.5615	1,999.51	79.6826	1,999.51	80.1787	1,999.51	80.7725	1,999.51	79.1749	1,999.51	76.6149	1,999.51	77.305	1,999.51	70.606	1,999.51	76.0817	1,999.51	71.5113	1,999.51	76.8126	1,999.51	70.6188	1,999.51	77.24	1,999.51	72.5101	1,999.51	75.625	1,999.51	61.742	1,999.51	74.359	1,999.51	70.8122	1,999.51	61.845	1,999.51	58.5049	1,999.51	69.91	1,999.51	62.3388	1,999.51	67.7088	1,999.51	67.5045	1,999.51	62.2965
2,069.82	89.4742	2,069.82	89.3253	2,069.82	89.4517	2,069.82	88.009	2,069.82	87.7219	2,069.82	86.0128	2,069.82	87.0974	2,069.82	83.6135	2,069.82	86.6078	2,069.82	79.8621	2,069.82	84.2135	2,069.82	80.1415	2,069.82	82.4672	2,069.82	79.6139	2,069.82	79.6366	2,069.82	77.0662	2,069.82	75.9908	2,069.82	76.5217	2,069.82	74.9359	2,069.82	75.5545	2,069.82	73.7568	2,069.82	70.0675	2,069.82	69.4897	2,069.82	66.4882	2,069.82	68.1033	2,069.82	68.9614	2,069.82	70.3438	2,069.82	71.4829	2,069.82	65.9043	2,069.82	65.6062	2,069.82	72.6567	2,069.82	67.8479	2,069.82	70.1822	2,069.82	68.5555	2,069.82	49.3828	2,069.82	69.1472
2,143.07	90.6363	2,143.07	90.4128	2,143.07	89.9594	2,143.07	89.5198	2,143.07	88.3828	2,143.07	87.6029	2,143.07	87.4588	2,143.07	84.431	2,143.07	85.9336	2,143.07	81.8934	2,143.07	83.2806	2,143.07	80.1268	2,143.07	80.7173	2,143.07	77.2419	2,143.07	77.5909	2,143.07	76.5611	2,143.07	76.941	2,143.07	77.9525	2,143.07	73.1177	2,143.07	71.9613	2,143.07	65.682	2,143.07	67.1886	2,143.07	70.5206	2,143.07	72.5231	2,143.07	70.0571	2,143.07	65.7716	2,143.07	67.3407	2,143.07	70.2591	2,143.07	70.8152	2,143.07	67.9926	2,143.07	71.398	2,143.07	71.6592	2,143.07	71.2288	2,143.07	69.9956	2,143.07	68.4009	2,143.07	67.583
2,219.24	90.7965	2,219.24	90.6547	2,219.24	90.219	2,219.24	89.5387	2,219.24	88.6711	2,219.24	87.8777	2,219.24	86.5229	2,219.24	85.3696	2,219.24	84.1497	2,219.24	82.0026	2,219.24	83.3042	2,219.24	81.0497	2,219.24	81.2286	2,219.24	78.3672	2,219.24	77.6982	2,219.24	74.0348	2,219.24	75.645	2,219.24	73.1853	2,219.24	73.8897	2,219.24	71.8979	2,219.24	70.5967	2,219.24	65.1816	2,219.24	67.5881	2,219.24	70.493	2,219.24	67.167	2,219.24	69.1468	2,219.24	67.5778	2,219.24	72.2441	2,219.24	65.548	2,219.24	72.3917	2,219.24	69.042	2,219.24	65.7431	2,219.24	63.3067	2,219.24	68.263	2,219.24	63.6105	2,219.24	69.1761
2,296.88	89.8012	2,296.88	89.8702	2,296.88	87.9482	2,296.88	87.9529	2,296.88	86.0661	2,296.88	85.9349	2,296.88	84.2959	2,296.88	83.6469	2,296.88	81.9671	2,296.88	79.4802	2,296.88	79.6808	2,296.88	77.6043	2,296.88	79.3267	2,296.88	75.6635	2,296.88	77.5577	2,296.88	73.6109	2,296.88	72.4678	2,296.88	74.6887	2,296.88	69.5885	2,296.88	73.4161	2,296.88	67.5029	2,296.88	65.2118	2,296.88	67.6649	2,296.88	56.3753	2,296.88	67.3111	2,296.88	64.3838	2,296.88	69.9577	2,296.88	65.6366	2,296.88	69.9411	2,296.88	67.7987	2,296.88	63.1359	2,296.88	64.971	2,296.88	59.457	2,296.88	62.0467	2,296.88	59.7894	2,296.88	68.1705
2,378.91	89.5139	2,378.91	89.0367	2,378.91	88.8781	2,378.91	87.0235	2,378.91	86.1833	2,378.91	83.6663	2,378.91	83.4612	2,378.91	81.3975	2,378.91	81.0717	2,378.91	78.3429	2,378.91	78.4033	2,378.91	75.0558	2,378.91	77.7368	2,378.91	76.4243	2,378.91	74.2213	2,378.91	75.7024	2,378.91	69.0942	2,378.91	72.2371	2,378.91	70.1987	2,378.91	72.0708	2,378.91	71.4346	2,378.91	71.0065	2,378.91	65.5088	2,378.91	71.3786	2,378.91	72.0067	2,378.91	56.0958	2,378.91	56.302	2,378.91	65.0191	2,378.91	69.9754	2,378.91	70.158	2,378.91	65.7808	2,378.91	55.5326	2,378.91	65.2075	2,378.91	65.5879	2,378.91	65.3557	2,378.91	67.7135
2,462.4	90.685	2,462.4	90.4511	2,462.4	89.7862	2,462.4	88.9442	2,462.4	87.0547	2,462.4	86.5731	2,462.4	83.5958	2,462.4	83.3688	2,462.4	81.4494	2,462.4	81.3955	2,462.4	79.8795	2,462.4	79.0558	2,462.4	78.1957	2,462.4	75.0276	2,462.4	76.2453	2,462.4	72.9705	2,462.4	74.048	2,462.4	70.6327	2,462.4	71.6551	2,462.4	68.2015	2,462.4	70.1643	2,462.4	68.3437	2,462.4	68.7755	2,462.4	65.2161	2,462.4	68.9974	2,462.4	64.741	2,462.4	67.4245	2,462.4	66.3206	2,462.4	69.0067	2,462.4	66.8718	2,462.4	68.8373	2,462.4	59.5824	2,462.4	64.4661	2,462.4	65.0926	2,462.4	64.0789	2,462.4	64.0416
2,548.83	90.9864	2,548.83	90.89	2,548.83	89.5373	2,548.83	89.6716	2,548.83	87.0244	2,548.83	87.7983	2,548.83	83.7733	2,548.83	84.9362	2,548.83	81.6071	2,548.83	82.3162	2,548.83	80.6317	2,548.83	79.7645	2,548.83	78.9459	2,548.83	77.2209	2,548.83	76.8377	2,548.83	74.2929	2,548.83	74.8379	2,548.83	72.4821	2,548.83	72.5658	2,548.83	70.8366	2,548.83	69.2921	2,548.83	68.7635	2,548.83	67.3487	2,548.83	68.9441	2,548.83	68.3374	2,548.83	66.0182	2,548.83	67.0135	2,548.83	65.5618	2,548.83	68.3904	2,548.83	67.3754	2,548.83	67.8042	2,548.83	66.2251	2,548.83	67.0965	2,548.83	67.2703	2,548.83	66.5572	2,548.83	64.6218
2,639.65	88.5161	2,639.65	88.1547	2,639.65	87.3145	2,639.65	86.8644	2,639.65	84.5169	2,639.65	85.3565	2,639.65	80.9626	2,639.65	82.875	2,639.65	79.4994	2,639.65	79.3261	2,639.65	79.7807	2,639.65	75.6844	2,639.65	79.0897	2,639.65	73.7988	2,639.65	77.6264	2,639.65	71.6784	2,639.65	75.2192	2,639.65	70.5027	2,639.65	73.2224	2,639.65	69.6361	2,639.65	71.2396	2,639.65	68.6936	2,639.65	68.5172	2,639.65	66.2123	2,639.65	68.4794	2,639.65	65.3528	2,639.65	68.1028	2,639.65	67.5167	2,639.65	65.9605	2,639.65	64.664	2,639.65	67.6423	2,639.65	61.6199	2,639.65	66.6512	2,639.65	66.3014	2,639.65	64.011	2,639.65	65.3773
2,731.93	88.2625	2,731.93	88.0863	2,731.93	86.9741	2,731.93	86.7392	2,731.93	83.3968	2,731.93	84.0604	2,731.93	78.1789	2,731.93	81.2762	2,731.93	76.7507	2,731.93	77.157	2,731.93	79.5036	2,731.93	73.5123	2,731.93	79.7683	2,731.93	73.5381	2,731.93	79.4607	2,731.93	73.4165	2,731.93	77.8581	2,731.93	72.711	2,731.93	76.168	2,731.93	71.4983	2,731.93	74.6454	2,731.93	70.8258	2,731.93	73.0077	2,731.93	70.9032	2,731.93	71.6411	2,731.93	65.022	2,731.93	70.1617	2,731.93	70.4953	2,731.93	67.7828	2,731.93	70.0426	2,731.93	69.2194	2,731.93	66.2052	2,731.93	67.8705	2,731.93	67.7438	2,731.93	64.527	2,731.93	68.9893
2,828.61	90.2382	2,828.61	90.593	2,828.61	88.6218	2,828.61	89.5036	2,828.61	84.5222	2,828.61	86.6767	2,828.61	77.5376	2,828.61	82.4593	2,828.61	77.6946	2,828.61	78.0685	2,828.61	81.7137	2,828.61	79.3797	2,828.61	82.8623	2,828.61	80.1829	2,828.61	81.9503	2,828.61	79.2101	2,828.61	81.5735	2,828.61	77.6725	2,828.61	80.3774	2,828.61	76.3393	2,828.61	78.2379	2,828.61	74.5252	2,828.61	76.9007	2,828.61	74.4698	2,828.61	75.322	2,828.61	71.3023	2,828.61	74.4187	2,828.61	74.1287	2,828.61	69.6759	2,828.61	71.9496	2,828.61	72.7751	2,828.61	72.0579	2,828.61	69.1344	2,828.61	66.1529	2,828.61	67.0364	2,828.61	73.7181
2,928.22	94.4657	2,928.22	94.5058	2,928.22	93.1522	2,928.22	93.0386	2,928.22	90.0875	2,928.22	89.4191	2,928.22	82.9972	2,928.22	83.9672	2,928.22	76.8399	2,928.22	83.2933	2,928.22	82.6725	2,928.22	85.2271	2,928.22	84.5001	2,928.22	84.903	2,928.22	83.2726	2,928.22	83.7958	2,928.22	81.9929	2,928.22	82.1836	2,928.22	81.5015	2,928.22	80.7058	2,928.22	79.477	2,928.22	78.682	2,928.22	77.7273	2,928.22	78.2368	2,928.22	75.3057	2,928.22	74.5228	2,928.22	75.9156	2,928.22	74.0248	2,928.22	71.716	2,928.22	76.1302	2,928.22	70.0545	2,928.22	75.1401	2,928.22	67.4732	2,928.22	72.4854	2,928.22	66.0979	2,928.22	75.3569
3,030.76	95.2747	3,030.76	94.818	3,030.76	93.8217	3,030.76	92.6711	3,030.76	90.7239	3,030.76	88.4494	3,030.76	84.4089	3,030.76	82.9468	3,030.76	78.0247	3,030.76	83.7723	3,030.76	81.5425	3,030.76	84.7213	3,030.76	82.5036	3,030.76	84.1685	3,030.76	81.1891	3,030.76	82.9635	3,030.76	78.64	3,030.76	81.0514	3,030.76	76.9772	3,030.76	78.5543	3,030.76	76.1189	3,030.76	76.4264	3,030.76	74.3071	3,030.76	75.1985	3,030.76	71.2877	3,030.76	73.5735	3,030.76	71.1673	3,030.76	72.0734	3,030.76	70.6962	3,030.76	74.0045	3,030.76	61.6412	3,030.76	72.9907	3,030.76	62.6869	3,030.76	69.3604	3,030.76	60.9359	3,030.76	72.6818
3,137.7	93.8327	3,137.7	92.8018	3,137.7	92.7577	3,137.7	89.6564	3,137.7	89.1728	3,137.7	84.017	3,137.7	82.609	3,137.7	79.7908	3,137.7	77.9653	3,137.7	81.5155	3,137.7	79.8411	3,137.7	82.0673	3,137.7	78.9844	3,137.7	80.6667	3,137.7	77.9573	3,137.7	78.5909	3,137.7	75.8499	3,137.7	76.7114	3,137.7	72.0689	3,137.7	73.0953	3,137.7	70.2618	3,137.7	71.7133	3,137.7	70.3817	3,137.7	69.3348	3,137.7	70.4765	3,137.7	70.5399	3,137.7	68.4106	3,137.7	68.1954	3,137.7	69.2825	3,137.7	65.238	3,137.7	66.8953	3,137.7	65.778	3,137.7	50.4799	3,137.7	56.7456	3,137.7	60.1524	3,137.7	66.5125
3,249.02	92.6866	3,249.02	91.0391	3,249.02	91.9276	3,249.02	87.5598	3,249.02	88.3751	3,249.02	81.0196	3,249.02	81.1632	3,249.02	77.2452	3,249.02	79.8109	3,249.02	79.7089	3,249.02	82.3835	3,249.02	79.2003	3,249.02	82.0782	3,249.02	76.5239	3,249.02	80.5061	3,249.02	73.1609	3,249.02	78.6982	3,249.02	69.797	3,249.02	76.572	3,249.02	64.6615	3,249.02	74.1758	3,249.02	61.6875	3,249.02	72.2373	3,249.02	59.4219	3,249.02	72.776	3,249.02	61.5031	3,249.02	70.3594	3,249.02	64.9741	3,249.02	71.5056	3,249.02	65.1273	3,249.02	71.1062	3,249.02	64.5446	3,249.02	61.4003	3,249.02	61.1351	3,249.02	55.1873	3,249.02	67.4659
3,363.28	91.7336	3,363.28	90.3038	3,363.28	91.0576	3,363.28	86.2027	3,363.28	87.2573	3,363.28	78.7676	3,363.28	80.0985	3,363.28	80.0168	3,363.28	79.6317	3,363.28	81.9696	3,363.28	83.0569	3,363.28	80.2536	3,363.28	83.0431	3,363.28	77.0722	3,363.28	81.4803	3,363.28	72.4572	3,363.28	79.1917	3,363.28	65.4768	3,363.28	76.5351	3,363.28	66.1553	3,363.28	74.2314	3,363.28	63.0439	3,363.28	71.5308	3,363.28	65.2314	3,363.28	71.7773	3,363.28	63.7841	3,363.28	69.522	3,363.28	67.9282	3,363.28	71.3902	3,363.28	69.4151	3,363.28	71.3827	3,363.28	65.5381	3,363.28	62.2559	3,363.28	61.0603	3,363.28	56.4041	3,363.28	71.872
3,481.93	91.7789	3,481.93	90.6175	3,481.93	90.62	3,481.93	86.6995	3,481.93	86.4797	3,481.93	81.3727	3,481.93	78.2698	3,481.93	83.3758	3,481.93	79.7369	3,481.93	84.2652	3,481.93	82.2655	3,481.93	82.5995	3,481.93	81.6905	3,481.93	78.8982	3,481.93	79.4083	3,481.93	75.9662	3,481.93	77.0756	3,481.93	72.7575	3,481.93	74.3709	3,481.93	70.5564	3,481.93	71.9806	3,481.93	68.6904	3,481.93	68.613	3,481.93	69.0809	3,481.93	69.3147	3,481.93	61.659	3,481.93	68.2162	3,481.93	69.6389	3,481.93	66.4586	3,481.93	70.9805	3,481.93	68.145	3,481.93	68.0803	3,481.93	63.4612	3,481.93	63.6355	3,481.93	53.8441	3,481.93	71.1097
3,604.98	94.1677	3,604.98	93.2833	3,604.98	92.4356	3,604.98	89.1156	3,604.98	87.913	3,604.98	83.1239	3,604.98	77.6381	3,604.98	85.2974	3,604.98	80.0605	3,604.98	86.2484	3,604.98	82.1317	3,604.98	84.9727	3,604.98	81.6611	3,604.98	81.4259	3,604.98	79.9407	3,604.98	76.6044	3,604.98	78.3707	3,604.98	72.5215	3,604.98	76.7527	3,604.98	71.5839	3,604.98	74.6446	3,604.98	68.5947	3,604.98	72.6201	3,604.98	69.0615	3,604.98	71.276	3,604.98	64.6413	3,604.98	71.7796	3,604.98	67.9571	3,604.98	69.5496	3,604.98	68.7873	3,604.98	70.3351	3,604.98	69.6548	3,604.98	66.2411	3,604.98	60.5773	3,604.98	62.1535	3,604.98	71.154
3,732.42	94.9274	3,732.42	93.5214	3,732.42	93.3995	3,732.42	88.103	3,732.42	88.4871	3,732.42	75.9603	3,732.42	77.7989	3,732.42	86.1921	3,732.42	82.862	3,732.42	87.6547	3,732.42	84.9561	3,732.42	86.0426	3,732.42	84.2919	3,732.42	81.9876	3,732.42	82.3615	3,732.42	77.2731	3,732.42	80.6692	3,732.42	70.0056	3,732.42	78.5793	3,732.42	69.2301	3,732.42	76.0565	3,732.42	63.3567	3,732.42	74.1888	3,732.42	64.9327	3,732.42	71.5378	3,732.42	58.1476	3,732.42	72.1811	3,732.42	69.2334	3,732.42	70.6136	3,732.42	67.7485	3,732.42	69.71	3,732.42	67.719	3,732.42	67.6951	3,732.42	55.4241	3,732.42	65.2663	3,732.42	64.7268
3,864.26	93.1366	3,864.26	90.4694	3,864.26	92.7204	3,864.26	81.1411	3,864.26	87.7847	3,864.26	82.0208	3,864.26	77.6845	3,864.26	86.5115	3,864.26	83.4936	3,864.26	86.1024	3,864.26	85.5032	3,864.26	82.1779	3,864.26	84.6537	3,864.26	76.6833	3,864.26	83.2971	3,864.26	71.4803	3,864.26	81.474	3,864.26	52.4339	3,864.26	79.4152	3,864.26	62.5297	3,864.26	77.118	3,864.26	48.9633	3,864.26	74.5608	3,864.26	52.5588	3,864.26	72.2944	3,864.26	52.3112	3,864.26	71.864	3,864.26	65.6496	3,864.26	70.3686	3,864.26	63.4743	3,864.26	70.9143	3,864.26	65.8539	3,864.26	67.8917	3,864.26	60.9002	3,864.26	61.7547	3,864.26	65.3497
4,000.49	92.5443	4,000.49	90.271	4,000.49	91.3134	4,000.49	78.9622	4,000.49	86.6249	4,000.49	84.9517	4,000.49	75.8441	4,000.49	86.8149	4,000.49	82.6303	4,000.49	84.3063	4,000.49	85.127	4,000.49	78.4256	4,000.49	84.4352	4,000.49	68.9444	4,000.49	83.0431	4,000.49	69.6469	4,000.49	80.2711	4,000.49	68.4004	4,000.49	77.8054	4,000.49	65.8177	4,000.49	75.9783	4,000.49	66.8175	4,000.49	74.2739	4,000.49	66.0294	4,000.49	71.5473	4,000.49	62.1075	4,000.49	71.8845	4,000.49	49.4721	4,000.49	70.4703	4,000.49	62.9707	4,000.49	70.6533	4,000.49	67.4855	4,000.49	66.484	4,000.49	64.9026	4,000.49	49.5843	4,000.49	67.3316
4,141.11	92.2512	4,141.11	87.8126	4,141.11	91.7897	4,141.11	81.4568	4,141.11	87.0914	4,141.11	86.673	4,141.11	77.6248	4,141.11	86.6375	4,141.11	83.1655	4,141.11	81.1003	4,141.11	85.0781	4,141.11	72.0457	4,141.11	84.4447	4,141.11	73.1993	4,141.11	82.5669	4,141.11	74.6766	4,141.11	80.3994	4,141.11	74.933	4,141.11	77.7916	4,141.11	72.5303	4,141.11	74.744	4,141.11	72.9388	4,141.11	73.414	4,141.11	69.232	4,141.11	70.4164	4,141.11	68.0082	4,141.11	71.3802	4,141.11	60.3982	4,141.11	71.0406	4,141.11	64.4519	4,141.11	70.8441	4,141.11	67.8326	4,141.11	66.5209	4,141.11	68.3786	4,141.11	56.4527	4,141.11	67.9899
4,287.6	93.4603	4,287.6	90.3804	4,287.6	92.4567	4,287.6	83.1543	4,287.6	87.2443	4,287.6	87.7654	4,287.6	81.128	4,287.6	86.8391	4,287.6	84.7087	4,287.6	79.2059	4,287.6	85.6542	4,287.6	68.473	4,287.6	84.5933	4,287.6	77.9752	4,287.6	82.6134	4,287.6	77.6462	4,287.6	79.4783	4,287.6	76.821	4,287.6	76.8818	4,287.6	73.6669	4,287.6	73.9768	4,287.6	73.6434	4,287.6	71.8977	4,287.6	69.6583	4,287.6	69.8245	4,287.6	67.5247	4,287.6	69.0491	4,287.6	64.9734	4,287.6	69.2251	4,287.6	65.3592	4,287.6	70.6174	4,287.6	66.7322	4,287.6	64.2476	4,287.6	67.624	4,287.6	59.1745	4,287.6	66.9075
4,438.48	95.0197	4,438.48	90.8262	4,438.48	94.1549	4,438.48	86.9857	4,438.48	88.9063	4,438.48	88.7766	4,438.48	84.2937	4,438.48	85.9505	4,438.48	86.719	4,438.48	75.1734	4,438.48	86.7746	4,438.48	76.5531	4,438.48	84.6859	4,438.48	79.1027	4,438.48	82.7081	4,438.48	79.0375	4,438.48	79.4196	4,438.48	77.1321	4,438.48	76.579	4,438.48	73.7804	4,438.48	72.0854	4,438.48	74.6186	4,438.48	69.0176	4,438.48	72.5415	4,438.48	68.2481	4,438.48	70.694	4,438.48	69.479	4,438.48	65.7116	4,438.48	66.9212	4,438.48	68.8784	4,438.48	69.3546	4,438.48	70.3342	4,438.48	64.1722	4,438.48	67.4307	4,438.48	60.9104	4,438.48	68.3294
4,595.21	96.7125	4,595.21	93.0997	4,595.21	95.6844	4,595.21	88.0755	4,595.21	89.0506	4,595.21	89.8113	4,595.21	86.8634	4,595.21	88.47	4,595.21	88.9344	4,595.21	81.8243	4,595.21	87.8527	4,595.21	76.7064	4,595.21	85.1115	4,595.21	77.1739	4,595.21	82.2064	4,595.21	73.9929	4,595.21	78.8858	4,595.21	73.1168	4,595.21	74.9272	4,595.21	70.6018	4,595.21	71.1677	4,595.21	68.4067	4,595.21	69.0057	4,595.21	69.1633	4,595.21	63.5663	4,595.21	64.5955	4,595.21	66.3927	4,595.21	63.4461	4,595.21	68.5718	4,595.21	69.2997	4,595.21	65.9055	4,595.21	69.5273	4,595.21	55.7677	4,595.21	63.5147	4,595.21	63.3498	4,595.21	68.7528
4,756.35	95.7828	4,756.35	92.1846	4,756.35	94.1372	4,756.35	86.7449	4,756.35	88.1441	4,756.35	89.4699	4,756.35	87.9216	4,756.35	86.749	4,756.35	87.4703	4,756.35	77.4057	4,756.35	83.6152	4,756.35	65.7635	4,756.35	78.8871	4,756.35	73.8669	4,756.35	76.2693	4,756.35	73.8423	4,756.35	73.1167	4,756.35	72.9793	4,756.35	69.7775	4,756.35	71.9119	4,756.35	65.4359	4,756.35	70.4268	4,756.35	62.3986	4,756.35	65.9491	4,756.35	57.0713	4,756.35	68.3114	4,756.35	52.7194	4,756.35	63.2097	4,756.35	60.2132	4,756.35	66.1415	4,756.35	59.6748	4,756.35	68.0585	4,756.35	58.2434	4,756.35	67.1185	4,756.35	55.7629	4,756.35	63.7856
4,924.8	94.8218	4,924.8	91.1278	4,924.8	92.2192	4,924.8	85.9941	4,924.8	84.6979	4,924.8	87.6587	4,924.8	85.578	4,924.8	83.8258	4,924.8	82.698	4,924.8	64.7374	4,924.8	78.4985	4,924.8	76.4578	4,924.8	77.7306	4,924.8	78.8763	4,924.8	77.2424	4,924.8	77.7319	4,924.8	75.1621	4,924.8	76.3268	4,924.8	70.6664	4,924.8	71.7514	4,924.8	66.8934	4,924.8	67.2648	4,924.8	61.4465	4,924.8	67.2954	4,924.8	62.0672	4,924.8	69.4878	4,924.8	61.0545	4,924.8	64.2153	4,924.8	64.5895	4,924.8	66.5934	4,924.8	63.8195	4,924.8	71.0575	4,924.8	59.5622	4,924.8	64.8347	4,924.8	64.5243	4,924.8	66.5309
5,097.66	94.9802	5,097.66	90.6342	5,097.66	92.0326	5,097.66	85.7861	5,097.66	82.5024	5,097.66	86.847	5,097.66	82.7699	5,097.66	82.4594	5,097.66	79.8168	5,097.66	70.9166	5,097.66	78.7232	5,097.66	81.7797	5,097.66	79.7436	5,097.66	81.543	5,097.66	77.8537	5,097.66	78.8367	5,097.66	74.1108	5,097.66	77.1929	5,097.66	69.9768	5,097.66	75.169	5,097.66	63.622	5,097.66	72.4011	5,097.66	64.2624	5,097.66	69.0462	5,097.66	61.8863	5,097.66	70.6472	5,097.66	64.9214	5,097.66	67.321	5,097.66	66.194	5,097.66	66.5737	5,097.66	60.4758	5,097.66	68.8526	5,097.66	54.95	5,097.66	65.5465	5,097.66	65.4873	5,097.66	64.5212
5,277.83	95.8697	5,277.83	92.5198	5,277.83	91.6544	5,277.83	85.616	5,277.83	83.0469	5,277.83	86.3594	5,277.83	83.386	5,277.83	77.8422	5,277.83	82.4437	5,277.83	79.8736	5,277.83	82.6498	5,277.83	84.1523	5,277.83	79.7731	5,277.83	83.1349	5,277.83	76.4976	5,277.83	80.1855	5,277.83	74.1611	5,277.83	76.7207	5,277.83	71.0317	5,277.83	73.9415	5,277.83	66.0049	5,277.83	73.9559	5,277.83	67.0047	5,277.83	70.4072	5,277.83	66.2347	5,277.83	72.2524	5,277.83	70.4804	5,277.83	70.973	5,277.83	69.4871	5,277.83	67.8126	5,277.83	67.0259	5,277.83	70.4552	5,277.83	57.0198	5,277.83	64.8689	5,277.83	64.3874	5,277.83	67.5445
5,463.87	94.9426	5,463.87	90.6808	5,463.87	91.0355	5,463.87	83.4073	5,463.87	83.1386	5,463.87	85.9596	5,463.87	84.7624	5,463.87	74.5941	5,463.87	85.4473	5,463.87	82.6318	5,463.87	82.0052	5,463.87	86.3468	5,463.87	77.7095	5,463.87	85.1626	5,463.87	78.8417	5,463.87	82.0414	5,463.87	76.9456	5,463.87	78.7747	5,463.87	74.1716	5,463.87	76.2832	5,463.87	70.7096	5,463.87	71.229	5,463.87	69.3421	5,463.87	70.3431	5,463.87	70.2952	5,463.87	70.1529	5,463.87	69.2724	5,463.87	69.6078	5,463.87	72.1581	5,463.87	65.1659	5,463.87	68.7465	5,463.87	71.153	5,463.87	62.6705	5,463.87	61.864	5,463.87	64.8571	5,463.87	64.0119
5,657.23	94.7063	5,657.23	90.9561	5,657.23	89.0955	5,657.23	83.5726	5,657.23	83.813	5,657.23	87.5871	5,657.23	86.2295	5,657.23	78.8534	5,657.23	87.0433	5,657.23	85.8974	5,657.23	82.4487	5,657.23	87.6806	5,657.23	77.6184	5,657.23	84.6919	5,657.23	80.0673	5,657.23	81.7741	5,657.23	79.4322	5,657.23	77.9366	5,657.23	76.9924	5,657.23	75.2522	5,657.23	74.2857	5,657.23	72.9611	5,657.23	73.1319	5,657.23	69.2315	5,657.23	70.3137	5,657.23	70.0789	5,657.23	71.9578	5,657.23	66.5909	5,657.23	71.8604	5,657.23	67.2803	5,657.23	70.4975	5,657.23	69.73	5,657.23	63.681	5,657.23	63.4443	5,657.23	65.1894	5,657.23	62.2502
5,856.45	93.5412	5,856.45	88.8298	5,856.45	86.515	5,856.45	86.2705	5,856.45	83.5904	5,856.45	88.26	5,856.45	88.1765	5,856.45	79.9724	5,856.45	87.4315	5,856.45	85.6622	5,856.45	78.4709	5,856.45	86.4776	5,856.45	78.6269	5,856.45	84.6971	5,856.45	81.6683	5,856.45	81.8501	5,856.45	80.3778	5,856.45	77.4779	5,856.45	77.8408	5,856.45	74.3854	5,856.45	74.6192	5,856.45	71.4028	5,856.45	72.7864	5,856.45	68.8554	5,856.45	71.6812	5,856.45	68.8937	5,856.45	71.7894	5,856.45	67.2347	5,856.45	70.5588	5,856.45	60.0776	5,856.45	70.3305	5,856.45	67.1894	5,856.45	68.1864	5,856.45	58.2975	5,856.45	66.4356	5,856.45	60.1548
6,062.99	94.0472	6,062.99	89.2599	6,062.99	86.5915	6,062.99	87.6674	6,062.99	85.1263	6,062.99	89.1085	6,062.99	88.7344	6,062.99	79.9124	6,062.99	86.213	6,062.99	84.2126	6,062.99	71.4024	6,062.99	85.2423	6,062.99	80.8618	6,062.99	82.5551	6,062.99	82.6542	6,062.99	77.9462	6,062.99	80.8852	6,062.99	73.2658	6,062.99	78.8908	6,062.99	67.9655	6,062.99	75.6637	6,062.99	63.4881	6,062.99	73.1852	6,062.99	58.2487	6,062.99	71.394	6,062.99	58.324	6,062.99	71.2784	6,062.99	64.4615	6,062.99	70.7839	6,062.99	60.2037	6,062.99	70.4679	6,062.99	63.528	6,062.99	67.8053	6,062.99	55.6143	6,062.99	63.6646	6,062.99	65.4179
6,276.86	93.82	6,276.86	88.4852	6,276.86	85.0314	6,276.86	88.3643	6,276.86	86.4491	6,276.86	88.8798	6,276.86	89.7933	6,276.86	80.0883	6,276.86	85.7393	6,276.86	84.641	6,276.86	72.4324	6,276.86	84.6554	6,276.86	82.8387	6,276.86	80.8006	6,276.86	83.6668	6,276.86	75.6154	6,276.86	81.7162	6,276.86	69.9906	6,276.86	79.1974	6,276.86	64.6588	6,276.86	76.7393	6,276.86	57.4172	6,276.86	74.335	6,276.86	62.5151	6,276.86	71.1528	6,276.86	61.7683	6,276.86	70.9368	6,276.86	58.3355	6,276.86	70.6549	6,276.86	56.449	6,276.86	71.9912	6,276.86	60.9958	6,276.86	68.1935	6,276.86	52.7446	6,276.86	64.8422	6,276.86	66.9719
6,498.05	92.2121	6,498.05	87.8482	6,498.05	82.3892	6,498.05	87.6978	6,498.05	89.1249	6,498.05	89.3781	6,498.05	88.8987	6,498.05	79.729	6,498.05	78.3306	6,498.05	82.9353	6,498.05	80.96	6,498.05	84.0543	6,498.05	84.1182	6,498.05	79.782	6,498.05	82.5663	6,498.05	75.0138	6,498.05	79.9413	6,498.05	68.3927	6,498.05	77.279	6,498.05	58.3676	6,498.05	73.4653	6,498.05	44.3731	6,498.05	69.576	6,498.05	46.161	6,498.05	68.1288	6,498.05	59.9668	6,498.05	66.7548	6,498.05	56.3335	6,498.05	65.7414	6,498.05	49.1448	6,498.05	69.8364	6,498.05	50.5324	6,498.05	65.9175	6,498.05	50.0711	6,498.05	55.3113	6,498.05	63.8693
6,726.56	90.0558	6,726.56	84.8553	6,726.56	70.1822	6,726.56	83.9699	6,726.56	87.1159	6,726.56	85.172	6,726.56	83.8722	6,726.56	74.2169	6,726.56	73.3112	6,726.56	78.8535	6,726.56	80.3577	6,726.56	78.7525	6,726.56	80.5655	6,726.56	75.4001	6,726.56	78.3291	6,726.56	73.189	6,726.56	74.9298	6,726.56	69.1046	6,726.56	73.1194	6,726.56	64.9268	6,726.56	68.8954	6,726.56	63.747	6,726.56	67.9243	6,726.56	62.5267	6,726.56	66.4465	6,726.56	61.6354	6,726.56	65.542	6,726.56	59.1343	6,726.56	62.9444	6,726.56	56.0909	6,726.56	62.798	6,726.56	58.316	6,726.56	62.6067	6,726.56	56.0857	6,726.56	55.5151	6,726.56	53.007
6,963.87	89.474	6,963.87	81.949	6,963.87	65.4324	6,963.87	83.8189	6,963.87	84.1215	6,963.87	80.8	6,963.87	83.8	6,963.87	79.229	6,963.87	76.8722	6,963.87	82.4236	6,963.87	77.9193	6,963.87	76.862	6,963.87	80.3396	6,963.87	73.923	6,963.87	80.2157	6,963.87	71.6544	6,963.87	78.0565	6,963.87	71.5834	6,963.87	75.2824	6,963.87	68.148	6,963.87	71.5397	6,963.87	66.4906	6,963.87	70.8691	6,963.87	67.0835	6,963.87	68.0009	6,963.87	63.0947	6,963.87	66.9595	6,963.87	60.5657	6,963.87	69.1863	6,963.87	54.8757	6,963.87	65.0482	6,963.87	63.874	6,963.87	67.3147	6,963.87	55.9806	6,963.87	58.7881	6,963.87	55.3466
7,209.96	89.2678	7,209.96	80.3968	7,209.96	66.6253	7,209.96	84.8043	7,209.96	85.1188	7,209.96	78.7798	7,209.96	85.496	7,209.96	82.4224	7,209.96	73.5149	7,209.96	82.6731	7,209.96	78.796	7,209.96	74.3263	7,209.96	82.4759	7,209.96	75.7968	7,209.96	81.0527	7,209.96	75.1606	7,209.96	78.0872	7,209.96	73.0095	7,209.96	74.6734	7,209.96	70.337	7,209.96	70.2564	7,209.96	69.2831	7,209.96	68.03	7,209.96	64.8073	7,209.96	66.0402	7,209.96	63.7567	7,209.96	62.8034	7,209.96	57.1731	7,209.96	64.9244	7,209.96	59.8463	7,209.96	62.7551	7,209.96	66.1229	7,209.96	62.7825	7,209.96	49.51	7,209.96	58.4714	7,209.96	58.3884
7,464.84	87.3813	7,464.84	72.2412	7,464.84	69.7232	7,464.84	86.6586	7,464.84	85.8748	7,464.84	76.6999	7,464.84	85.5934	7,464.84	84.6715	7,464.84	66.0186	7,464.84	81.9721	7,464.84	81.7731	7,464.84	69.7197	7,464.84	82.6303	7,464.84	77.9481	7,464.84	79.2287	7,464.84	77.0319	7,464.84	74.8482	7,464.84	73.9359	7,464.84	70.2493	7,464.84	70.6706	7,464.84	62.6972	7,464.84	68.8382	7,464.84	65.7303	7,464.84	66.3818	7,464.84	55.7363	7,464.84	64.8382	7,464.84	60.3012	7,464.84	63.092	7,464.84	62.43	7,464.84	58.6859	7,464.84	60.7951	7,464.84	68.1051	7,464.84	59.3582	7,464.84	59.2227	7,464.84	51.2476	7,464.84	51.7562
7,727.05	87.487	7,727.05	68.2759	7,727.05	65.8309	7,727.05	87.6333	7,727.05	87.6131	7,727.05	76.6963	7,727.05	84.476	7,727.05	85.7167	7,727.05	78.5743	7,727.05	81.3974	7,727.05	83.3354	7,727.05	72.4161	7,727.05	81.0237	7,727.05	79.3561	7,727.05	77.0456	7,727.05	79.3085	7,727.05	68.3202	7,727.05	75.6597	7,727.05	67.765	7,727.05	70.6365	7,727.05	66.8573	7,727.05	69.0175	7,727.05	66.4414	7,727.05	67.4694	7,727.05	61.7128	7,727.05	66.8057	7,727.05	58.615	7,727.05	62.8932	7,727.05	61.7892	7,727.05	62.4611	7,727.05	62.9249	7,727.05	66.4856	7,727.05	54.9958	7,727.05	58.3093	7,727.05	59.2295	7,727.05	52.1343
7,999.51	88.4494	7,999.51	67.6544	7,999.51	51.1981	7,999.51	87.5807	7,999.51	88.5346	7,999.51	73.2895	7,999.51	79.8846	7,999.51	85.7615	7,999.51	81.967	7,999.51	79.6251	7,999.51	82.7223	7,999.51	73.8777	7,999.51	78.4117	7,999.51	78.3384	7,999.51	73.5238	7,999.51	77.9055	7,999.51	67.1238	7,999.51	73.4382	7,999.51	65.8849	7,999.51	68.9444	7,999.51	65.3627	7,999.51	64.7686	7,999.51	63.3829	7,999.51	66.8081	7,999.51	62.6039	7,999.51	65.4279	7,999.51	64.2299	7,999.51	58.9333	7,999.51	58.2438	7,999.51	61.6435	7,999.51	60.11	7,999.51	65.2643	7,999.51	56.8843	7,999.51	57.1763	7,999.51	60.6128	7,999.51	53.0185
8,282.23	90.0794	8,282.23	75.8537	8,282.23	74.1751	8,282.23	87.7099	8,282.23	88.7042	8,282.23	73.6629	8,282.23	72.1821	8,282.23	85.4112	8,282.23	83.1131	8,282.23	79.9567	8,282.23	80.5066	8,282.23	72.5787	8,282.23	77.2451	8,282.23	76.9117	8,282.23	73.446	8,282.23	75.2767	8,282.23	69.3822	8,282.23	69.9648	8,282.23	67.1872	8,282.23	66.3373	8,282.23	67.0478	8,282.23	61.698	8,282.23	63.1628	8,282.23	63.8046	8,282.23	64.1642	8,282.23	64.8852	8,282.23	61.346	8,282.23	55.4816	8,282.23	60.7444	8,282.23	58.1817	8,282.23	60.1711	8,282.23	59.2204	8,282.23	58.4381	8,282.23	56.6339	8,282.23	60.5544	8,282.23	49.1897
8,573.73	88.4699	8,573.73	79.5527	8,573.73	81.288	8,573.73	85.748	8,573.73	86.6857	8,573.73	76.3888	8,573.73	81.6051	8,573.73	83.3323	8,573.73	81.6117	8,573.73	78.7038	8,573.73	81.5033	8,573.73	75.8973	8,573.73	77.9363	8,573.73	75.4108	8,573.73	71.6338	8,573.73	72.0851	8,573.73	69.7889	8,573.73	63.742	8,573.73	70.7663	8,573.73	61.8563	8,573.73	68.3663	8,573.73	59.4398	8,573.73	66.4434	8,573.73	58.8972	8,573.73	63.662	8,573.73	61.2522	8,573.73	60.2817	8,573.73	55.7353	8,573.73	62.8272	8,573.73	51.2985	8,573.73	60.4554	8,573.73	57.1145	8,573.73	54.4197	8,573.73	58.5522	8,573.73	61.2816	8,573.73	49.8717
8,876.95	86.9124	8,876.95	79.6868	8,876.95	80.9308	8,876.95	85.4183	8,876.95	87.0765	8,876.95	79.8171	8,876.95	81.1555	8,876.95	81.6285	8,876.95	82.8742	8,876.95	78.3644	8,876.95	82.2859	8,876.95	79.0686	8,876.95	77.1689	8,876.95	71.4976	8,876.95	72.3865	8,876.95	66.0689	8,876.95	73.0468	8,876.95	56.1411	8,876.95	72.1676	8,876.95	54.768	8,876.95	69.679	8,876.95	59.5938	8,876.95	67.0442	8,876.95	58.4808	8,876.95	64.8824	8,876.95	56.284	8,876.95	61.1332	8,876.95	58.1214	8,876.95	64.2555	8,876.95	53.8975	8,876.95	60.805	8,876.95	55.2463	8,876.95	58.4235	8,876.95	57.4352	8,876.95	56.2947	8,876.95	49.4062
9,188.96	88.3277	9,188.96	78.7322	9,188.96	79.9862	9,188.96	86.6854	9,188.96	88.0666	9,188.96	81.7414	9,188.96	80.7828	9,188.96	80.3994	9,188.96	84.9089	9,188.96	77.9976	9,188.96	82.2665	9,188.96	79.2274	9,188.96	75.7998	9,188.96	70.4258	9,188.96	76.5551	9,188.96	64.1072	9,188.96	77.0938	9,188.96	62.6946	9,188.96	74.5731	9,188.96	58.4145	9,188.96	72.3521	9,188.96	59.3603	9,188.96	70.4339	9,188.96	63.9258	9,188.96	66.5434	9,188.96	57.4357	9,188.96	65.2031	9,188.96	54.3962	9,188.96	67.0129	9,188.96	32.7023	9,188.96	60.7291	9,188.96	53.7702	9,188.96	60.197	9,188.96	56.0751	9,188.96	60.1724	9,188.96	50.8499
9,514.16	88.2498	9,514.16	80.7837	9,514.16	78.7127	9,514.16	86.705	9,514.16	87.9115	9,514.16	83.6063	9,514.16	81.5091	9,514.16	77.1688	9,514.16	85.3436	9,514.16	79.1717	9,514.16	80.1421	9,514.16	80.1228	9,514.16	73.9463	9,514.16	70.7521	9,514.16	79.6324	9,514.16	66.9263	9,514.16	77.8376	9,514.16	67.5265	9,514.16	73.8964	9,514.16	62.6282	9,514.16	71.8938	9,514.16	65.5127	9,514.16	69.0094	9,514.16	64.7418	9,514.16	60.8232	9,514.16	55.4422	9,514.16	65.3505	9,514.16	53.0347	9,514.16	66.1986	9,514.16	44.7087	9,514.16	62.0631	9,514.16	59.0241	9,514.16	61.8925	9,514.16	56.817	9,514.16	57.0877	9,514.16	53.3799
9,849.61	89.0424	9,849.61	82.8813	9,849.61	75.0807	9,849.61	86.8003	9,849.61	88.7155	9,849.61	85.2758	9,849.61	80.6625	9,849.61	76.13	9,849.61	85.3322	9,849.61	80.9751	9,849.61	77.7851	9,849.61	79.4094	9,849.61	76.8542	9,849.61	71.3292	9,849.61	79.2151	9,849.61	70.3208	9,849.61	73.516	9,849.61	70.1108	9,849.61	68.1902	9,849.61	65.6936	9,849.61	69.2217	9,849.61	64.7178	9,849.61	65.4366	9,849.61	68.6935	9,849.61	62.2402	9,849.61	60.0067	9,849.61	64.655	9,849.61	56.1891	9,849.61	65.1492	9,849.61	49.6684	9,849.61	58.4722	9,849.61	63.7443	9,849.61	55.8351	9,849.61	55.5323	9,849.61	53.1768	9,849.61	53.3594
10,196.8	89.685	10,196.8	84.385	10,196.8	78.4101	10,196.8	86.8931	10,196.8	89.4643	10,196.8	86.8324	10,196.8	80.4154	10,196.8	76.4228	10,196.8	85.8584	10,196.8	81.8432	10,196.8	75.7053	10,196.8	77.7942	10,196.8	78.1575	10,196.8	71.5278	10,196.8	78.0363	10,196.8	70.7357	10,196.8	75.9431	10,196.8	71.2705	10,196.8	72.8554	10,196.8	64.4229	10,196.8	73.2796	10,196.8	62.5068	10,196.8	68.0183	10,196.8	67.7754	10,196.8	66.805	10,196.8	65.1117	10,196.8	67.1317	10,196.8	57.3332	10,196.8	65.1885	10,196.8	50.9196	10,196.8	60.125	10,196.8	60.7588	10,196.8	60.0845	10,196.8	49.3368	10,196.8	59.2817	10,196.8	58.8946
10,555.7	90.5631	10,555.7	84.8074	10,555.7	83.368	10,555.7	86.8736	10,555.7	89.1428	10,555.7	86.8721	10,555.7	84.3169	10,555.7	75.4607	10,555.7	85.0373	10,555.7	82.1724	10,555.7	78.7636	10,555.7	73.1872	10,555.7	77.6466	10,555.7	73.5734	10,555.7	79.8622	10,555.7	68.2439	10,555.7	78.6703	10,555.7	70.7985	10,555.7	72.8353	10,555.7	56.4842	10,555.7	73.3642	10,555.7	64.5814	10,555.7	67.8672	10,555.7	66.9881	10,555.7	65.1898	10,555.7	66.3466	10,555.7	67.9155	10,555.7	57.6068	10,555.7	63.4548	10,555.7	61.157	10,555.7	62.084	10,555.7	64.8186	10,555.7	58.5706	10,555.7	40.0765	10,555.7	59.3701	10,555.7	56.4521
10,927.7	90.1282	10,927.7	84.0885	10,927.7	85.9571	10,927.7	85.3271	10,927.7	87.0052	10,927.7	85.468	10,927.7	85.7158	10,927.7	72.7336	10,927.7	84.8306	10,927.7	80.7148	10,927.7	78.2626	10,927.7	67.4443	10,927.7	79.5441	10,927.7	74.7108	10,927.7	80.716	10,927.7	62.3879	10,927.7	75.6645	10,927.7	69.2404	10,927.7	66.5299	10,927.7	56.8759	10,927.7	69.8045	10,927.7	66.6899	10,927.7	61.1483	10,927.7	68.4063	10,927.7	63.1912	10,927.7	67.4067	10,927.7	64.7023	10,927.7	60.6333	10,927.7	61.8168	10,927.7	65.5638	10,927.7	59.5787	10,927.7	67.1544	10,927.7	50.0745	10,927.7	42.6239	10,927.7	59.6638	10,927.7	55.96
11,313	89.858	11,313	84.918	11,313	86.1042	11,313	81.5344	11,313	86.1271	11,313	84.3564	11,313	86.8287	11,313	73.1078	11,313	84.3253	11,313	81.51	11,313	81.7543	11,313	66.419	11,313	80.6685	11,313	73.9807	11,313	77.0419	11,313	64.1827	11,313	74.8946	11,313	71.4434	11,313	66.126	11,313	53.4852	11,313	70.3961	11,313	68.2764	11,313	59.1615	11,313	70.4845	11,313	68.7376	11,313	68.9458	11,313	66.6535	11,313	61.6444	11,313	59.4089	11,313	66.9956	11,313	61.3833	11,313	66.7113	11,313	55.4462	11,313	52.3485	11,313	57.8722	11,313	46.0722
11,712.9	91.4197	11,712.9	86.4551	11,712.9	87.2579	11,712.9	80.3373	11,712.9	86.5263	11,712.9	86.6246	11,712.9	88.5702	11,712.9	75.5572	11,712.9	82.3874	11,712.9	81.9156	11,712.9	85.1392	11,712.9	67.1188	11,712.9	76.5533	11,712.9	72.83	11,712.9	76.8695	11,712.9	70.7041	11,712.9	77.8295	11,712.9	73.2016	11,712.9	66.7037	11,712.9	67.4687	11,712.9	71.6634	11,712.9	70.1257	11,712.9	57.8352	11,712.9	72.4096	11,712.9	69.2897	11,712.9	71.3756	11,712.9	68.0823	11,712.9	63.1801	11,712.9	64.3677	11,712.9	68.7406	11,712.9	64.8824	11,712.9	70.1729	11,712.9	59.3179	11,712.9	57.924	11,712.9	63.3271	11,712.9	57.2358
12,126	93.553	12,126	86.9321	12,126	90.7076	12,126	82.6172	12,126	83.5006	12,126	88.412	12,126	90.7739	12,126	79.9221	12,126	81.5831	12,126	83.766	12,126	86.6009	12,126	70.7356	12,126	75.7478	12,126	73.0602	12,126	78.498	12,126	76.6695	12,126	77.2934	12,126	76.0175	12,126	73.1184	12,126	72.2831	12,126	69.5383	12,126	72.2026	12,126	63.1726	12,126	75.226	12,126	74.4817	12,126	75.0135	12,126	69.5743	12,126	66.2929	12,126	67.9238	12,126	72.9406	12,126	68.3993	12,126	74.1653	12,126	64.7723	12,126	61.8219	12,126	67.6933	12,126	64.5443
12,553.7	93.8557	12,553.7	84.1026	12,553.7	93.1015	12,553.7	87.5371	12,553.7	72.0049	12,553.7	88.6819	12,553.7	89.8535	12,553.7	78.2598	12,553.7	86.2742	12,553.7	86.4856	12,553.7	85.1598	12,553.7	71.0036	12,553.7	82.2997	12,553.7	73.9526	12,553.7	72.9329	12,553.7	75.9894	12,553.7	76.5111	12,553.7	77.8099	12,553.7	78.8388	12,553.7	70.9494	12,553.7	66.5854	12,553.7	72.0967	12,553.7	71.0698	12,553.7	75.4416	12,553.7	75.8395	12,553.7	75.0759	12,553.7	68.8759	12,553.7	66.6577	12,553.7	68.7482	12,553.7	73.1184	12,553.7	70.9775	12,553.7	74.4549	12,553.7	66.5687	12,553.7	64.0123	12,553.7	68.1062	12,553.7	66.3656
12,996.1	92.8153	12,996.1	82.0165	12,996.1	92.1934	12,996.1	88.1602	12,996.1	81.0015	12,996.1	89.4584	12,996.1	83.9259	12,996.1	80.9934	12,996.1	86.937	12,996.1	87.4627	12,996.1	84.4371	12,996.1	77.0131	12,996.1	80.4183	12,996.1	77.6964	12,996.1	76.6801	12,996.1	75.4618	12,996.1	74.0255	12,996.1	77.0004	12,996.1	77.6581	12,996.1	68.2305	12,996.1	26.8542	12,996.1	67.6095	12,996.1	70.8233	12,996.1	72.1229	12,996.1	72.6023	12,996.1	72.8876	12,996.1	62.3434	12,996.1	63.7251	12,996.1	66.493	12,996.1	71.1116	12,996.1	68.4363	12,996.1	71.574	12,996.1	65.1183	12,996.1	61.4284	12,996.1	65.8414	12,996.1	64.8187
13,454.6	92.7447	13,454.6	83.163	13,454.6	92.3868	13,454.6	88.702	13,454.6	85.2459	13,454.6	89.9216	13,454.6	83.1822	13,454.6	85.1747	13,454.6	86.3733	13,454.6	86.9051	13,454.6	86.1685	13,454.6	80.5722	13,454.6	79.4722	13,454.6	79.1319	13,454.6	80.9459	13,454.6	75.1085	13,454.6	74.5833	13,454.6	73.9667	13,454.6	78.3859	13,454.6	67.2666	13,454.6	58.3927	13,454.6	67.0285	13,454.6	72.2501	13,454.6	68.8616	13,454.6	71.0739	13,454.6	69.7977	13,454.6	60.7118	13,454.6	63.204	13,454.6	65.8564	13,454.6	70.3609	13,454.6	67.5592	13,454.6	69.6672	13,454.6	64.6628	13,454.6	60.191	13,454.6	67.4046	13,454.6	66.3756
13,929.2	92.0099	13,929.2	86.5691	13,929.2	91.8827	13,929.2	89.0445	13,929.2	86.9377	13,929.2	88.5118	13,929.2	83.2918	13,929.2	85.7529	13,929.2	85.4672	13,929.2	84.1778	13,929.2	85.2673	13,929.2	81.4192	13,929.2	78.271	13,929.2	76.481	13,929.2	81.3474	13,929.2	70.2897	13,929.2	73.3096	13,929.2	67.2528	13,929.2	76.3415	13,929.2	68.6293	13,929.2	61.1717	13,929.2	64.2292	13,929.2	69.4861	13,929.2	64.8352	13,929.2	66.8726	13,929.2	64.8582	13,929.2	55.6155	13,929.2	62.3451	13,929.2	65.1236	13,929.2	68.1052	13,929.2	63.7114	13,929.2	67.0513	13,929.2	61.2761	13,929.2	59.1019	13,929.2	67.2592	13,929.2	66.262
14,419.9	89.9293	14,419.9	85.0835	14,419.9	89.1771	14,419.9	86.672	14,419.9	83.6544	14,419.9	84.8807	14,419.9	78.0516	14,419.9	83.0289	14,419.9	79.2828	14,419.9	79.1696	14,419.9	80.9039	14,419.9	79.4804	14,419.9	72.6259	14,419.9	74.4614	14,419.9	73.1543	14,419.9	70.0677	14,419.9	72.4316	14,419.9	64.2642	14,419.9	70.3693	14,419.9	70.4749	14,419.9	64.4958	14,419.9	63.5633	14,419.9	62.5838	14,419.9	60.8648	14,419.9	62.6244	14,419.9	64.5072	14,419.9	55.4311	14,419.9	62.1791	14,419.9	60.7556	14,419.9	65.898	14,419.9	63.3464	14,419.9	67.8092	14,419.9	60.637	14,419.9	61.2019	14,419.9	63.587	14,419.9	63.0175
14,928.2	87.7049	14,928.2	85.5876	14,928.2	87.5106	14,928.2	86.2258	14,928.2	84.8802	14,928.2	84.5706	14,928.2	77.2921	14,928.2	82.3833	14,928.2	77.29	14,928.2	76.9046	14,928.2	68.5155	14,928.2	81.3267	14,928.2	76.6539	14,928.2	69.0721	14,928.2	68.6872	14,928.2	72.6657	14,928.2	68.7587	14,928.2	66.6712	14,928.2	67.7478	14,928.2	70.9179	14,928.2	66.5649	14,928.2	64.2859	14,928.2	55.4022	14,928.2	59.7156	14,928.2	57.4247	14,928.2	61.7834	14,928.2	58.1874	14,928.2	61.5378	14,928.2	60.3592	14,928.2	66.6044	14,928.2	65.9568	14,928.2	67.2912	14,928.2	62.6215	14,928.2	61.2468	14,928.2	64.1504	14,928.2	60.382
15,455.6	86.6596	15,455.6	85.2284	15,455.6	87.2191	15,455.6	86.5161	15,455.6	85.7178	15,455.6	83.0341	15,455.6	76.6871	15,455.6	79.7044	15,455.6	79.4901	15,455.6	72.4403	15,455.6	73.2803	15,455.6	78.8278	15,455.6	71.8622	15,455.6	62.969	15,455.6	72.3568	15,455.6	73.3095	15,455.6	67.712	15,455.6	65.8005	15,455.6	59.2594	15,455.6	68.2512	15,455.6	66.1394	15,455.6	65.4361	15,455.6	52.7773	15,455.6	61.38	15,455.6	65.7926	15,455.6	62.4543	15,455.6	64.3821	15,455.6	60.4505	15,455.6	62.7818	15,455.6	66.6446	15,455.6	66.2261	15,455.6	65.2945	15,455.6	62.0856	15,455.6	60.8921	15,455.6	65.0293	15,455.6	59.9475
16,000.5	86.611	16,000.5	86.1668	16,000.5	86.3247	16,000.5	87.107	16,000.5	85.5681	16,000.5	81.1217	16,000.5	78.0882	16,000.5	75.3565	16,000.5	75.2862	16,000.5	71.3937	16,000.5	74.6225	16,000.5	73.1223	16,000.5	68.9706	16,000.5	61.8654	16,000.5	65.2809	16,000.5	71.201	16,000.5	66.3325	16,000.5	67.9532	16,000.5	61.6522	16,000.5	65.9612	16,000.5	53.9915	16,000.5	65.6707	16,000.5	59.7487	16,000.5	62.9	16,000.5	71.2303	16,000.5	67.137	16,000.5	68.1789	16,000.5	61.7498	16,000.5	65.2368	16,000.5	67.8769	16,000.5	66.1589	16,000.5	65.8021	16,000.5	61.2657	16,000.5	59.5122	16,000.5	64.6897	16,000.5	60.1766
16,564.5	86.5891	16,564.5	86.8591	16,564.5	84.6768	16,564.5	87.1201	16,564.5	85.1145	16,564.5	82.2806	16,564.5	79.9989	16,564.5	75.4988	16,564.5	71.9827	16,564.5	76.0376	16,564.5	76.0767	16,564.5	75.0372	16,564.5	71.9036	16,564.5	61.0101	16,564.5	68.5756	16,564.5	69.5328	16,564.5	61.3144	16,564.5	66.6867	16,564.5	67.6214	16,564.5	65.8423	16,564.5	62.4147	16,564.5	64.8239	16,564.5	60.2738	16,564.5	64.0673	16,564.5	71.3243	16,564.5	66.777	16,564.5	68.6487	16,564.5	62.1546	16,564.5	66.6508	16,564.5	69.5351	16,564.5	68.1583	16,564.5	65.7298	16,564.5	64.1911	16,564.5	57.8805	16,564.5	66.5557	16,564.5	63.2159
17,148.9	85.1306	17,148.9	86.3392	17,148.9	83.5861	17,148.9	86.6837	17,148.9	83.163	17,148.9	83.0845	17,148.9	79.5046	17,148.9	75.635	17,148.9	72.6073	17,148.9	76.7315	17,148.9	75.9763	17,148.9	77.9396	17,148.9	69.694	17,148.9	63.1228	17,148.9	68.9208	17,148.9	67.5325	17,148.9	70.0185	17,148.9	61.779	17,148.9	71.3158	17,148.9	64.1575	17,148.9	61.5042	17,148.9	64.8045	17,148.9	63.5862	17,148.9	63.4505	17,148.9	73.465	17,148.9	65.8487	17,148.9	70.5246	17,148.9	61.3274	17,148.9	65.8042	17,148.9	67.9849	17,148.9	66.6985	17,148.9	65.7831	17,148.9	63.4186	17,148.9	57.1864	17,148.9	64.7899	17,148.9	62.0165
17,752.4	83.3551	17,752.4	85.4928	17,752.4	82.1155	17,752.4	85.6035	17,752.4	81.1594	17,752.4	82.2814	17,752.4	77.6777	17,752.4	74.5382	17,752.4	73.5531	17,752.4	73.6336	17,752.4	75.6684	17,752.4	75.9214	17,752.4	67.1466	17,752.4	50.7036	17,752.4	70.2245	17,752.4	67.7352	17,752.4	69.4826	17,752.4	59.417	17,752.4	71.0828	17,752.4	62.7512	17,752.4	62.8683	17,752.4	62.5994	17,752.4	65.2016	17,752.4	59.2263	17,752.4	72.6805	17,752.4	63.6774	17,752.4	69.9682	17,752.4	59.1264	17,752.4	65.0278	17,752.4	66.3684	17,752.4	64.8099	17,752.4	65.6564	17,752.4	62.7265	17,752.4	55.1268	17,752.4	62.7995	17,752.4	60.0693
18,379.4	81.1478	18,379.4	83.3176	18,379.4	79.6003	18,379.4	83.7968	18,379.4	78.6594	18,379.4	80.9775	18,379.4	72.1146	18,379.4	73.376	18,379.4	70.016	18,379.4	71.1215	18,379.4	75.103	18,379.4	72.9149	18,379.4	69.766	18,379.4	63.2947	18,379.4	63.443	18,379.4	66.691	18,379.4	68.9374	18,379.4	56.3469	18,379.4	70.245	18,379.4	63.0009	18,379.4	61.1386	18,379.4	59.4958	18,379.4	63.8749	18,379.4	52.9505	18,379.4	70.9462	18,379.4	61.2278	18,379.4	67.492	18,379.4	57.1173	18,379.4	62.5821	18,379.4	63.9942	18,379.4	61.2015	18,379.4	64.1886	18,379.4	60.1643	18,379.4	51.9251	18,379.4	58.3519	18,379.4	55.9093
19,026.9	78.2651	19,026.9	81.364	19,026.9	77.5772	19,026.9	81.9497	19,026.9	75.5904	19,026.9	79.2885	19,026.9	64.2406	19,026.9	70.8826	19,026.9	70.1184	19,026.9	70.9623	19,026.9	72.2232	19,026.9	71.9444	19,026.9	71.0285	19,026.9	64.5326	19,026.9	67.6361	19,026.9	66.8114	19,026.9	62.0981	19,026.9	60.2056	19,026.9	68.7194	19,026.9	63.69	19,026.9	65.9572	19,026.9	59.0098	19,026.9	62.7344	19,026.9	53.1251	19,026.9	67.5129	19,026.9	59.1136	19,026.9	64.3705	19,026.9	55.2632	19,026.9	60.3121	19,026.9	62.6224	19,026.9	59.4361	19,026.9	63.3103	19,026.9	58.921	19,026.9	50.3906	19,026.9	55.6622	19,026.9	57.1501
19,697.8	77.6041	19,697.8	80.2059	19,697.8	76.3203	19,697.8	80.5486	19,697.8	74.0434	19,697.8	78.5151	19,697.8	65.6552	19,697.8	70.6618	19,697.8	73.2063	19,697.8	69.3086	19,697.8	73.6823	19,697.8	71.3961	19,697.8	73.9689	19,697.8	62.2305	19,697.8	70.5847	19,697.8	69.1984	19,697.8	66.3153	19,697.8	62.2884	19,697.8	66.1247	19,697.8	62.1987	19,697.8	67.7877	19,697.8	60.8277	19,697.8	59.1238	19,697.8	57.4384	19,697.8	59.3061	19,697.8	59.2168	19,697.8	58.7485	19,697.8	52.7597	19,697.8	58.8796	19,697.8	60.3246	19,697.8	59.3557	19,697.8	62.5037	19,697.8	57.5684	19,697.8	50.7909	19,697.8	56.6938	19,697.8	56.0162
19,999.5	77.1242	19,999.5	79.8214	19,999.5	76.241	19,999.5	80.2069	19,999.5	73.0465	19,999.5	78.1281	19,999.5	67.0406	19,999.5	71.1225	19,999.5	74.4938	19,999.5	66.9933	19,999.5	75.0244	19,999.5	71.1649	19,999.5	74.6383	19,999.5	61.2342	19,999.5	71.8697	19,999.5	68.1929	19,999.5	69.6562	19,999.5	64.1124	19,999.5	65.8063	19,999.5	59.7261	19,999.5	67.7313	19,999.5	60.6828	19,999.5	60.6253	19,999.5	59.0131	19,999.5	46.7031	19,999.5	59.1037	19,999.5	57.4211	19,999.5	50.9575	19,999.5	60.2792	19,999.5	58.6624	19,999.5	61.2472	19,999.5	60.4823	19,999.5	56.4011	19,999.5	52.447	19,999.5	57.0852	19,999.5	56.2713
