"SPL Vertical"
"On-Axis"		"10°"		"-10°"		"20°"		"-20°"		"30°"		"-30°"		"40°"		"-40°"		"50°"		"-50°"		"60°"		"-60°"		"70°"		"-70°"		"80°"		"-80°"		"90°"		"-90°"		"100°"		"-100°"		"110°"		"-110°"		"120°"		"-120°"		"130°"		"-130°"		"140°"		"-140°"		"150°"		"-150°"		"160°"		"-160°"		"170°"		"-170°"		"180°"
"Frequency [Hz]"	"Sound Pessure Level [dB]  / [2.83V 1m] "	"Frequency [Hz]"	"Sound Pessure Level [dB]  / [2.83V 1m] "	"Frequency [Hz]"	"Sound Pessure Level [dB]  / [2.83V 1m] "	"Frequency [Hz]"	"Sound Pessure Level [dB]  / [2.83V 1m] "	"Frequency [Hz]"	"Sound Pessure Level [dB]  / [2.83V 1m] "	"Frequency [Hz]"	"Sound Pessure Level [dB]  / [2.83V 1m] "	"Frequency [Hz]"	"Sound Pessure Level [dB]  / [2.83V 1m] "	"Frequency [Hz]"	"Sound Pessure Level [dB]  / [2.83V 1m] "	"Frequency [Hz]"	"Sound Pessure Level [dB]  / [2.83V 1m] "	"Frequency [Hz]"	"Sound Pessure Level [dB]  / [2.83V 1m] "	"Frequency [Hz]"	"Sound Pessure Level [dB]  / [2.83V 1m] "	"Frequency [Hz]"	"Sound Pessure Level [dB]  / [2.83V 1m] "	"Frequency [Hz]"	"Sound Pessure Level [dB]  / [2.83V 1m] "	"Frequency [Hz]"	"Sound Pessure Level [dB]  / [2.83V 1m] "	"Frequency [Hz]"	"Sound Pessure Level [dB]  / [2.83V 1m] "	"Frequency [Hz]"	"Sound Pessure Level [dB]  / [2.83V 1m] "	"Frequency [Hz]"	"Sound Pessure Level [dB]  / [2.83V 1m] "	"Frequency [Hz]"	"Sound Pessure Level [dB]  / [2.83V 1m] "	"Frequency [Hz]"	"Sound Pessure Level [dB]  / [2.83V 1m] "	"Frequency [Hz]"	"Sound Pessure Level [dB]  / [2.83V 1m] "	"Frequency [Hz]"	"Sound Pessure Level [dB]  / [2.83V 1m] "	"Frequency [Hz]"	"Sound Pessure Level [dB]  / [2.83V 1m] "	"Frequency [Hz]"	"Sound Pessure Level [dB]  / [2.83V 1m] "	"Frequency [Hz]"	"Sound Pessure Level [dB]  / [2.83V 1m] "	"Frequency [Hz]"	"Sound Pessure Level [dB]  / [2.83V 1m] "	"Frequency [Hz]"	"Sound Pessure Level [dB]  / [2.83V 1m] "	"Frequency [Hz]"	"Sound Pessure Level [dB]  / [2.83V 1m] "	"Frequency [Hz]"	"Sound Pessure Level [dB]  / [2.83V 1m] "	"Frequency [Hz]"	"Sound Pessure Level [dB]  / [2.83V 1m] "	"Frequency [Hz]"	"Sound Pessure Level [dB]  / [2.83V 1m] "	"Frequency [Hz]"	"Sound Pessure Level [dB]  / [2.83V 1m] "	"Frequency [Hz]"	"Sound Pessure Level [dB]  / [2.83V 1m] "	"Frequency [Hz]"	"Sound Pessure Level [dB]  / [2.83V 1m] "	"Frequency [Hz]"	"Sound Pessure Level [dB]  / [2.83V 1m] "	"Frequency [Hz]"	"Sound Pessure Level [dB]  / [2.83V 1m] "	"Frequency [Hz]"	"Sound Pessure Level [dB]  / [2.83V 1m] "
20.5078	65.4808	20.5078	65.3201	20.5078	65.6272	20.5078	65.1505	20.5078	65.7533	20.5078	64.9769	20.5078	65.8528	20.5078	64.8036	20.5078	65.9198	20.5078	64.634	20.5078	65.9489	20.5078	64.4714	20.5078	65.936	20.5078	64.3182	20.5078	65.8787	20.5078	64.1768	20.5078	65.7771	20.5078	64.0495	20.5078	65.6334	20.5078	63.9381	20.5078	65.4532	20.5078	63.8448	20.5078	65.2443	20.5078	63.7714	20.5078	65.0171	20.5078	63.7202	20.5078	64.7833	20.5078	63.6931	20.5078	64.5548	20.5078	63.6925	20.5078	64.3422	20.5078	63.7206	20.5078	64.1541	20.5078	63.7795	20.5078	63.9961	20.5078	63.871
21.9727	66.4015	21.9727	66.2228	21.9727	66.5714	21.9727	66.0409	21.9727	66.7263	21.9727	65.861	21.9727	66.8602	21.9727	65.6877	21.9727	66.967	21.9727	65.525	21.9727	67.0413	21.9727	65.3759	21.9727	67.0787	21.9727	65.2433	21.9727	67.0759	21.9727	65.1291	21.9727	67.0317	21.9727	65.0351	21.9727	66.9467	21.9727	64.9628	21.9727	66.8242	21.9727	64.9135	21.9727	66.6689	21.9727	64.8885	21.9727	66.4877	21.9727	64.8892	21.9727	66.2885	21.9727	64.9168	21.9727	66.0797	21.9727	64.9726	21.9727	65.8699	21.9727	65.0573	21.9727	65.6675	21.9727	65.1712	21.9727	65.4798	21.9727	65.3129
23.4375	67.4263	23.4375	67.2533	23.4375	67.591	23.4375	67.0776	23.4375	67.7417	23.4375	66.9043	23.4375	67.8721	23.4375	66.7376	23.4375	67.9762	23.4375	66.5814	23.4375	68.0483	23.4375	66.4391	23.4375	68.084	23.4375	66.3135	23.4375	68.0803	23.4375	66.207	23.4375	68.0362	23.4375	66.1217	23.4375	67.9532	23.4375	66.0593	23.4375	67.8351	23.4375	66.0211	23.4375	67.6877	23.4375	66.0081	23.4375	67.5184	23.4375	66.0209	23.4375	67.3353	23.4375	66.0595	23.4375	67.1463	23.4375	66.1236	23.4375	66.9586	23.4375	66.2123	23.4375	66.7782	23.4375	66.3243	23.4375	66.6099	23.4375	66.4576
24.9023	68.317	24.9023	68.1467	24.9023	68.4778	24.9023	67.9723	24.9023	68.6233	24.9023	67.7984	24.9023	68.7476	24.9023	67.6294	24.9023	68.8445	24.9023	67.4691	24.9023	68.9085	24.9023	67.3207	24.9023	68.935	24.9023	67.1871	24.9023	68.9209	24.9023	67.0709	24.9023	68.8649	24.9023	66.9741	24.9023	68.7686	24.9023	66.8987	24.9023	68.6358	24.9023	66.846	24.9023	68.4728	24.9023	66.8174	24.9023	68.2876	24.9023	66.8137	24.9023	68.0893	24.9023	66.8358	24.9023	67.887	24.9023	66.884	24.9023	67.6891	24.9023	66.9584	24.9023	67.5025	24.9023	67.0587	24.9023	67.3329	24.9023	67.184
26.3672	69.3181	26.3672	69.1489	26.3672	69.4781	26.3672	68.9757	26.3672	69.6229	26.3672	68.8035	26.3672	69.7467	26.3672	68.6366	26.3672	69.8433	26.3672	68.4788	26.3672	69.9073	26.3672	68.3334	26.3672	69.9342	26.3672	68.2033	26.3672	69.9208	26.3672	68.091	26.3672	69.8663	26.3672	67.9985	26.3672	69.772	26.3672	67.9274	26.3672	69.6422	26.3672	67.8792	26.3672	69.483	26.3672	67.8549	26.3672	69.3026	26.3672	67.8552	26.3672	69.1098	26.3672	67.8805	26.3672	68.9136	26.3672	67.9311	26.3672	68.7217	26.3672	68.0066	26.3672	68.5407	26.3672	68.1066	26.3672	68.3757	26.3672	68.2302
27.832	70.2084	27.832	70.0399	27.832	70.3672	27.832	69.8668	27.832	70.5106	27.832	69.694	27.832	70.6329	27.832	69.5258	27.832	70.7283	27.832	69.3659	27.832	70.7915	27.832	69.2179	27.832	70.818	27.832	69.0847	27.832	70.8046	27.832	68.9688	27.832	70.7502	27.832	68.8724	27.832	70.656	27.832	68.7975	27.832	70.5257	27.832	68.7454	27.832	70.3653	27.832	68.7175	27.832	70.1827	27.832	68.7146	27.832	69.9867	27.832	68.7374	27.832	69.7864	27.832	68.7862	27.832	69.59	27.832	68.861	27.832	69.4045	27.832	68.9616	27.832	69.2355	27.832	69.087
29.2969	70.966	29.2969	70.7997	29.2969	71.1222	29.2969	70.6285	29.2969	71.2627	29.2969	70.4573	29.2969	71.3818	29.2969	70.2904	29.2969	71.4739	29.2969	70.1317	29.2969	71.5336	29.2969	69.9845	29.2969	71.5567	29.2969	69.8519	29.2969	71.54	29.2969	69.7364	29.2969	71.4828	29.2969	69.6403	29.2969	71.3864	29.2969	69.5652	29.2969	71.2547	29.2969	69.5128	29.2969	71.0941	29.2969	69.4842	29.2969	70.9124	29.2969	69.4801	29.2969	70.7185	29.2969	69.5012	29.2969	70.5213	29.2969	69.5478	29.2969	70.3288	29.2969	69.62	29.2969	70.1477	29.2969	69.7173	29.2969	69.9831	29.2969	69.8388
30.7617	71.7798	30.7617	71.6118	30.7617	71.9395	30.7617	71.4406	30.7617	72.0851	30.7617	71.2712	30.7617	72.2107	30.7617	71.108	30.7617	72.3106	30.7617	70.9547	30.7617	72.3796	30.7617	70.8147	30.7617	72.4132	30.7617	70.6907	30.7617	72.4084	30.7617	70.5852	30.7617	72.3642	30.7617	70.5002	30.7617	72.2817	30.7617	70.4371	30.7617	72.1646	30.7617	70.3972	30.7617	72.0184	30.7617	70.3815	30.7617	71.8505	30.7617	70.3905	30.7617	71.6688	30.7617	70.4245	30.7617	71.4812	30.7617	70.4835	30.7617	71.2952	30.7617	70.5669	30.7617	71.1169	30.7617	70.6738	30.7617	70.9515	30.7617	70.8028
32.2266	72.534	32.2266	72.3683	32.2266	72.6905	32.2266	72.1986	32.2266	72.8324	32.2266	72.0297	32.2266	72.954	32.2266	71.866	32.2266	73.0499	32.2266	71.7114	32.2266	73.115	32.2266	71.5694	32.2266	73.1453	32.2266	71.443	32.2266	73.138	32.2266	71.3349	32.2266	73.0922	32.2266	71.2471	32.2266	73.0092	32.2266	71.1814	32.2266	72.8923	32.2266	71.139	32.2266	72.7469	32.2266	71.121	32.2266	72.5797	32.2266	71.1277	32.2266	72.3984	32.2266	71.1596	32.2266	72.2108	32.2266	71.2165	32.2266	72.0244	32.2266	71.2981	32.2266	71.8456	32.2266	71.4035	32.2266	71.6799	32.2266	71.5315
33.6914	73.169	33.6914	73.002	33.6914	73.3269	33.6914	72.8312	33.6914	73.4701	33.6914	72.6615	33.6914	73.5927	33.6914	72.4976	33.6914	73.6892	33.6914	72.3433	33.6914	73.7547	33.6914	72.2023	33.6914	73.7851	33.6914	72.0774	33.6914	73.7778	33.6914	71.9714	33.6914	73.7323	33.6914	71.8862	33.6914	73.65	33.6914	71.8236	33.6914	73.5348	33.6914	71.7848	33.6914	73.3921	33.6914	71.7705	33.6914	73.2288	33.6914	71.7813	33.6914	73.0524	33.6914	71.8173	33.6914	72.8699	33.6914	71.8782	33.6914	72.6881	33.6914	71.9633	33.6914	72.5129	33.6914	72.0715	33.6914	72.3491	33.6914	72.2009
35.1562	73.913	35.1562	73.7484	35.1562	74.0677	35.1562	73.5792	35.1562	74.207	35.1562	73.4105	35.1562	74.3251	35.1562	73.2467	35.1562	74.4168	35.1562	73.092	35.1562	74.477	35.1562	72.9499	35.1562	74.5019	35.1562	72.8238	35.1562	74.4892	35.1562	72.7162	35.1562	74.4386	35.1562	72.6295	35.1562	74.3518	35.1562	72.5654	35.1562	74.2329	35.1562	72.5253	35.1562	74.088	35.1562	72.51	35.1562	73.9242	35.1562	72.5199	35.1562	73.7493	35.1562	72.5548	35.1562	73.5705	35.1562	72.614	35.1562	73.394	35.1562	72.6967	35.1562	73.225	35.1562	72.8011	35.1562	73.0678	35.1562	72.9256
36.6211	74.2636	36.6211	74.0901	36.6211	74.4267	36.6211	73.9117	36.6211	74.5738	36.6211	73.7337	36.6211	74.6991	36.6211	73.5608	36.6211	74.7971	36.6211	73.3975	36.6211	74.8627	36.6211	73.2477	36.6211	74.892	36.6211	73.1148	36.6211	74.8823	36.6211	73.0018	36.6211	74.8333	36.6211	72.9109	36.6211	74.7467	36.6211	72.8441	36.6211	74.6263	36.6211	72.8026	36.6211	74.4777	36.6211	72.7872	36.6211	74.3079	36.6211	72.7982	36.6211	74.1241	36.6211	72.8357	36.6211	73.9337	36.6211	72.899	36.6211	73.7438	36.6211	72.9875	36.6211	73.5606	36.6211	73.1001	36.6211	73.3895	36.6211	73.2348
38.0859	74.844	38.0859	74.6726	38.0859	75.0039	38.0859	74.4952	38.0859	75.1465	38.0859	74.3169	38.0859	75.2658	38.0859	74.1423	38.0859	75.3561	38.0859	73.9759	38.0859	75.4121	38.0859	73.8211	38.0859	75.4297	38.0859	73.6815	38.0859	75.4063	38.0859	73.5597	38.0859	75.3416	38.0859	73.4581	38.0859	75.2376	38.0859	73.3786	38.0859	75.0991	38.0859	73.3226	38.0859	74.9325	38.0859	73.2913	38.0859	74.746	38.0859	73.2855	38.0859	74.548	38.0859	73.3057	38.0859	74.3471	38.0859	73.3524	38.0859	74.1508	38.0859	73.4256	38.0859	73.9658	38.0859	73.5249	38.0859	73.7973	38.0859	73.6494
39.5508	75.562	39.5508	75.3916	39.5508	75.7205	39.5508	75.2149	39.5508	75.8612	39.5508	75.0368	39.5508	75.978	39.5508	74.8624	39.5508	76.0651	39.5508	74.6956	39.5508	76.1173	39.5508	74.5403	39.5508	76.1301	39.5508	74.3996	39.5508	76.101	39.5508	74.2762	39.5508	76.0295	39.5508	74.1721	39.5508	75.9177	39.5508	74.089	39.5508	75.7703	39.5508	74.0283	39.5508	75.5944	39.5508	73.9909	39.5508	75.3986	39.5508	73.9775	39.5508	75.1924	39.5508	73.9889	39.5508	74.9851	39.5508	74.0257	39.5508	74.7854	39.5508	74.0886	39.5508	74.6003	39.5508	74.1779	39.5508	74.4352	39.5508	74.2937
41.0156	76.1898	41.0156	76.0101	41.0156	76.3597	41.0156	75.8258	41.0156	76.5144	41.0156	75.6417	41.0156	76.6474	41.0156	75.4621	41.0156	76.7523	41.0156	75.2912	41.0156	76.8221	41.0156	75.133	41.0156	76.8511	41.0156	74.991	41.0156	76.8349	41.0156	74.8682	41.0156	76.7717	41.0156	74.7672	41.0156	76.6625	41.0156	74.6895	41.0156	76.5119	41.0156	74.6363	41.0156	76.3275	41.0156	74.6081	41.0156	76.1194	41.0156	74.6046	41.0156	75.899	41.0156	74.6257	41.0156	75.6777	41.0156	74.6711	41.0156	75.4661	41.0156	74.7406	41.0156	75.272	41.0156	74.835	41.0156	75.1007	41.0156	74.9548
42.4805	76.9225	42.4805	76.7517	42.4805	77.0844	42.4805	76.5774	42.4805	77.2315	42.4805	76.4048	42.4805	77.3581	42.4805	76.2387	42.4805	77.4584	42.4805	76.0835	42.4805	77.5273	42.4805	75.943	42.4805	77.5607	42.4805	75.8206	42.4805	77.5558	42.4805	75.7191	42.4805	77.5121	42.4805	75.6407	42.4805	77.4313	42.4805	75.5869	42.4805	77.3176	42.4805	75.5586	42.4805	77.177	42.4805	75.5559	42.4805	77.0169	42.4805	75.5783	42.4805	76.8451	42.4805	75.625	42.4805	76.6688	42.4805	75.6947	42.4805	76.4942	42.4805	75.7856	42.4805	76.3262	42.4805	75.8962	42.4805	76.1686	42.4805	76.0245
43.9453	77.4492	43.9453	77.2798	43.9453	77.6106	43.9453	77.1078	43.9453	77.7582	43.9453	76.9384	43.9453	77.8863	43.9453	76.7761	43.9453	77.9892	43.9453	76.6255	43.9453	78.0618	43.9453	76.4901	43.9453	78.1001	43.9453	76.3734	43.9453	78.1015	43.9453	76.2779	43.9453	78.0654	43.9453	76.2058	43.9453	77.9935	43.9453	76.1584	43.9453	77.8894	43.9453	76.1364	43.9453	77.7588	43.9453	76.1399	43.9453	77.6083	43.9453	76.1683	43.9453	77.4449	43.9453	76.2206	43.9453	77.2753	43.9453	76.2954	43.9453	77.1052	43.9453	76.3909	43.9453	76.9396	43.9453	76.5054	43.9453	76.7823	43.9453	76.6366
45.4102	77.9819	45.4102	77.8111	45.4102	78.1427	45.4102	77.6355	45.4102	78.2878	45.4102	77.4602	45.4102	78.4116	45.4102	77.2899	45.4102	78.5086	45.4102	77.1289	45.4102	78.5738	45.4102	76.9811	45.4102	78.6035	45.4102	76.85	45.4102	78.5951	45.4102	76.7387	45.4102	78.5483	45.4102	76.6496	45.4102	78.4648	45.4102	76.5849	45.4102	78.3483	45.4102	76.5458	45.4102	78.2045	45.4102	76.5331	45.4102	78.0399	45.4102	76.5472	45.4102	77.8618	45.4102	76.5877	45.4102	77.6773	45.4102	76.654	45.4102	77.4929	45.4102	76.7448	45.4102	77.3143	45.4102	76.8587	45.4102	77.1464	45.4102	76.9934
46.875	78.4005	46.875	78.2269	46.875	78.5657	46.875	78.0504	46.875	78.7167	46.875	77.8762	46.875	78.8476	46.875	77.7091	46.875	78.9528	46.875	77.5534	46.875	79.0273	46.875	77.413	46.875	79.0671	46.875	77.2911	46.875	79.0698	46.875	77.1906	46.875	79.035	46.875	77.1137	46.875	78.9643	46.875	77.0622	46.875	78.8615	46.875	77.0369	46.875	78.7318	46.875	77.0385	46.875	78.5813	46.875	77.0668	46.875	78.4163	46.875	77.1211	46.875	78.2428	46.875	77.2004	46.875	78.0664	46.875	77.3029	46.875	77.8921	46.875	77.4264	46.875	77.7246	46.875	77.5681
48.3398	79.0948	48.3398	78.9354	48.3398	79.2435	48.3398	78.7705	48.3398	79.3761	48.3398	78.6053	48.3398	79.4876	48.3398	78.4447	48.3398	79.5732	48.3398	78.2934	48.3398	79.6289	48.3398	78.1557	48.3398	79.6517	48.3398	78.0354	48.3398	79.6402	48.3398	77.9355	48.3398	79.5947	48.3398	77.8587	48.3398	79.5177	48.3398	77.8065	48.3398	79.4136	48.3398	77.7799	48.3398	79.2879	48.3398	77.7791	48.3398	79.1467	48.3398	77.8036	48.3398	78.9958	48.3398	77.8521	48.3398	78.8402	48.3398	77.9231	48.3398	78.6843	48.3398	78.0145	48.3398	78.5315	48.3398	78.1238	48.3398	78.3852	48.3398	78.2483
51.2695	79.9483	51.2695	79.772	51.2695	80.1117	51.2695	79.5888	51.2695	80.2564	51.2695	79.4043	51.2695	80.3764	51.2695	79.2239	51.2695	80.4664	51.2695	79.0527	51.2695	80.5217	51.2695	78.8952	51.2695	80.5392	51.2695	78.7554	51.2695	80.5172	51.2695	78.6367	51.2695	80.4563	51.2695	78.5417	51.2695	80.3592	51.2695	78.4724	51.2695	80.2304	51.2695	78.43	51.2695	80.0764	51.2695	78.4149	51.2695	79.904	51.2695	78.4269	51.2695	79.7208	51.2695	78.4653	51.2695	79.5336	51.2695	78.5291	51.2695	79.3487	51.2695	78.6168	51.2695	79.1717	51.2695	78.7269	51.2695	79.0068	51.2695	78.8576
52.7344	80.4153	52.7344	80.2451	52.7344	80.5729	52.7344	80.0681	52.7344	80.7122	52.7344	79.8897	52.7344	80.8276	52.7344	79.715	52.7344	80.9136	52.7344	79.549	52.7344	80.9659	52.7344	79.3959	52.7344	80.9812	52.7344	79.2596	52.7344	80.958	52.7344	79.1432	52.7344	80.8969	52.7344	79.0495	52.7344	80.8007	52.7344	78.9802	52.7344	80.6742	52.7344	78.9367	52.7344	80.5234	52.7344	78.9193	52.7344	80.3554	52.7344	78.9282	52.7344	80.1771	52.7344	78.9628	52.7344	79.9951	52.7344	79.0224	52.7344	79.8154	52.7344	79.1058	52.7344	79.6432	52.7344	79.2116	52.7344	79.4829	52.7344	79.338
54.1992	80.8358	54.1992	80.6693	54.1992	80.9905	54.1992	80.4965	54.1992	81.1275	54.1992	80.3228	54.1992	81.2414	54.1992	80.1535	54.1992	81.3271	54.1992	79.9932	54.1992	81.3801	54.1992	79.8462	54.1992	81.3974	54.1992	79.716	54.1992	81.3777	54.1992	79.6059	54.1992	81.3214	54.1992	79.5182	54.1992	81.2314	54.1992	79.4545	54.1992	81.1119	54.1992	79.4159	54.1992	80.969	54.1992	79.4027	54.1992	80.8092	54.1992	79.4149	54.1992	80.6391	54.1992	79.452	54.1992	80.4647	54.1992	79.513	54.1992	80.2918	54.1992	79.5969	54.1992	80.1251	54.1992	79.7022	54.1992	79.969	54.1992	79.827
55.6641	81.2066	55.6641	81.0395	55.6641	81.3612	55.6641	80.8656	55.6641	81.4975	55.6641	80.6906	55.6641	81.61	55.6641	80.5199	55.6641	81.6936	55.6641	80.3586	55.6641	81.7441	55.6641	80.2113	55.6641	81.7587	55.6641	80.082	55.6641	81.7362	55.6641	79.974	55.6641	81.6775	55.6641	79.8897	55.6641	81.586	55.6641	79.8308	55.6641	81.4665	55.6641	79.798	55.6641	81.3256	55.6641	79.7915	55.6641	81.1701	55.6641	79.8106	55.6641	81.0066	55.6641	79.8539	55.6641	80.8408	55.6641	79.92	55.6641	80.6772	55.6641	80.007	55.6641	80.5198	55.6641	80.1126	55.6641	80.3714	55.6641	80.2349
58.5938	82.0304	58.5938	81.8585	58.5938	82.1896	58.5938	81.6801	58.5938	82.3302	58.5938	81.5009	58.5938	82.4465	58.5938	81.3266	58.5938	82.5333	58.5938	81.1626	58.5938	82.5865	58.5938	81.0136	58.5938	82.6031	58.5938	80.8838	58.5938	82.5819	58.5938	80.7763	58.5938	82.524	58.5938	80.6936	58.5938	82.4325	58.5938	80.637	58.5938	82.3126	58.5938	80.6073	58.5938	82.1706	58.5938	80.604	58.5938	82.0134	58.5938	80.6262	58.5938	81.8476	58.5938	80.6724	58.5938	81.6789	58.5938	80.7411	58.5938	81.5124	58.5938	80.8302	58.5938	81.3521	58.5938	80.9379	58.5938	81.2011	58.5938	81.0622
60.0586	82.3401	60.0586	82.1663	60.0586	82.5	60.0586	81.9848	60.0586	82.6399	60.0586	81.802	60.0586	82.7542	60.0586	81.6238	60.0586	82.8376	60.0586	81.4559	60.0586	82.8863	60.0586	81.3034	60.0586	82.8975	60.0586	81.1708	60.0586	82.8708	60.0586	81.0617	60.0586	82.8075	60.0586	80.9785	60.0586	82.7114	60.0586	80.9229	60.0586	82.5881	60.0586	80.8953	60.0586	82.4446	60.0586	80.8951	60.0586	82.2878	60.0586	80.9208	60.0586	82.1244	60.0586	80.9706	60.0586	81.9599	60.0586	81.042	60.0586	81.7986	60.0586	81.1326	60.0586	81.6437	60.0586	81.2402	60.0586	81.4976	60.0586	81.3625
62.9883	83.0892	62.9883	82.9146	62.9883	83.2484	62.9883	82.7311	62.9883	83.3861	62.9883	82.5447	62.9883	83.4966	62.9883	82.3618	62.9883	83.5747	62.9883	82.1878	62.9883	83.6164	62.9883	82.0281	62.9883	83.6192	62.9883	81.8872	62.9883	83.5824	62.9883	81.7687	62.9883	83.5077	62.9883	81.6753	62.9883	83.3992	62.9883	81.6088	62.9883	83.2627	62.9883	81.5699	62.9883	83.1058	62.9883	81.5583	62.9883	82.9363	62.9883	81.5731	62.9883	82.7614	62.9883	81.6125	62.9883	82.5874	62.9883	81.6748	62.9883	82.419	62.9883	81.7578	62.9883	82.2597	62.9883	81.8595	62.9883	82.1121	62.9883	81.9782
64.4531	83.3659	64.4531	83.1894	64.4531	83.5273	64.4531	83.0039	64.4531	83.6671	64.4531	82.8159	64.4531	83.7797	64.4531	82.6316	64.4531	83.8598	64.4531	82.4567	64.4531	83.9036	64.4531	82.2966	64.4531	83.9083	64.4531	82.1556	64.4531	83.8734	64.4531	82.0375	64.4531	83.8003	64.4531	81.9449	64.4531	83.6931	64.4531	81.8794	64.4531	83.5575	64.4531	81.8416	64.4531	83.4008	64.4531	81.8311	64.4531	83.2307	64.4531	81.8469	64.4531	83.0544	64.4531	81.8874	64.4531	82.8783	64.4531	81.9508	64.4531	82.7073	64.4531	82.035	64.4531	82.5453	64.4531	82.1382	64.4531	82.3951	64.4531	82.2588
67.3828	83.954	67.3828	83.7761	67.3828	84.1168	67.3828	83.5896	67.3828	84.2581	67.3828	83.4011	67.3828	84.372	67.3828	83.217	67.3828	84.4534	67.3828	83.0432	67.3828	84.4981	67.3828	82.8851	67.3828	84.5038	67.3828	82.7473	67.3828	84.4698	67.3828	82.6334	67.3828	84.398	67.3828	82.5459	67.3828	84.2923	67.3828	82.4862	67.3828	84.1589	67.3828	82.4545	67.3828	84.005	67.3828	82.45	67.3828	83.8384	67.3828	82.4714	67.3828	83.6663	67.3828	82.5165	67.3828	83.4949	67.3828	82.5831	67.3828	83.3288	67.3828	82.6691	67.3828	83.1715	67.3828	82.7725	67.3828	83.0252	67.3828	82.8917
68.8477	84.2035	68.8477	84.0237	68.8477	84.3676	68.8477	83.835	68.8477	84.5097	68.8477	83.6442	68.8477	84.6238	68.8477	83.4578	68.8477	84.7049	68.8477	83.2822	68.8477	84.749	68.8477	83.1229	68.8477	84.7539	68.8477	82.9849	68.8477	84.7196	68.8477	82.8718	68.8477	84.6482	68.8477	82.7863	68.8477	84.544	68.8477	82.73	68.8477	84.4134	68.8477	82.7028	68.8477	84.2636	68.8477	82.7039	68.8477	84.1022	68.8477	82.7315	68.8477	83.9358	68.8477	82.7831	68.8477	83.7701	68.8477	82.856	68.8477	83.6089	68.8477	82.9475	68.8477	83.4551	68.8477	83.0551	68.8477	83.3105	68.8477	83.1767
71.7773	84.7113	71.7773	84.5312	71.7773	84.8744	71.7773	84.341	71.7773	85.0141	71.7773	84.1476	71.7773	85.1244	71.7773	83.9577	71.7773	85.2003	71.7773	83.7777	71.7773	85.2379	71.7773	83.6136	71.7773	85.2354	71.7773	83.4704	71.7773	85.1927	71.7773	83.3522	71.7773	85.1125	71.7773	83.262	71.7773	84.9997	71.7773	83.2012	71.7773	84.861	71.7773	83.1701	71.7773	84.7045	71.7773	83.1677	71.7773	84.538	71.7773	83.1921	71.7773	84.3687	71.7773	83.2407	71.7773	84.202	71.7773	83.3104	71.7773	84.0418	71.7773	83.3985	71.7773	83.8904	71.7773	83.5022	71.7773	83.7494	71.7773	83.6197
74.707	85.1378	74.707	84.9586	74.707	85.2999	74.707	84.769	74.707	85.4385	74.707	84.576	74.707	85.5477	74.707	84.3864	74.707	85.6228	74.707	84.2065	74.707	85.66	74.707	84.0425	74.707	85.6577	74.707	83.8995	74.707	85.6158	74.707	83.7816	74.707	85.5371	74.707	83.6916	74.707	85.4262	74.707	83.631	74.707	85.2895	74.707	83.5999	74.707	85.1344	74.707	83.5973	74.707	84.9686	74.707	83.6212	74.707	84.7987	74.707	83.6688	74.707	84.6306	74.707	83.7373	74.707	84.4684	74.707	83.8239	74.707	84.3154	74.707	83.9264	74.707	84.1732	74.707	84.0433
77.6367	85.501	77.6367	85.3194	77.6367	85.6642	77.6367	85.1264	77.6367	85.8023	77.6367	84.9293	77.6367	85.9097	77.6367	84.7353	77.6367	85.9814	77.6367	84.5512	77.6367	86.0142	77.6367	84.3837	77.6367	86.0069	77.6367	84.2382	77.6367	85.9602	77.6367	84.1193	77.6367	85.8776	77.6367	84.0301	77.6367	85.7648	77.6367	83.9723	77.6367	85.6289	77.6367	83.946	77.6367	85.4778	77.6367	83.9498	77.6367	85.3188	77.6367	83.9812	77.6367	85.1582	77.6367	84.0371	77.6367	85.0002	77.6367	84.1137	77.6367	84.8476	77.6367	84.2075	77.6367	84.7019	77.6367	84.3154	77.6367	84.564	77.6367	84.4348
79.1016	85.7059	79.1016	85.5219	79.1016	85.8701	79.1016	85.3252	79.1016	86.008	79.1016	85.1232	79.1016	86.1136	79.1016	84.9231	79.1016	86.1822	79.1016	84.7322	79.1016	86.2106	79.1016	84.5569	79.1016	86.1975	79.1016	84.4032	79.1016	86.144	79.1016	84.276	79.1016	86.0538	79.1016	84.1787	79.1016	85.9328	79.1016	84.1133	79.1016	85.7887	79.1016	84.0804	79.1016	85.6298	79.1016	84.0789	79.1016	85.464	79.1016	84.1064	79.1016	85.2974	79.1016	84.1597	79.1016	85.1347	79.1016	84.2351	79.1016	84.9783	79.1016	84.3288	79.1016	84.8297	79.1016	84.4375	79.1016	84.6894	79.1016	84.5583
82.0312	86.1934	82.0312	86.0046	82.0312	86.3591	82.0312	85.8002	82.0312	86.495	82.0312	85.5877	82.0312	86.595	82.0312	85.3745	82.0312	86.654	82.0312	85.1678	82.0312	86.6688	82.0312	84.9741	82.0312	86.6382	82.0312	84.7994	82.0312	86.5635	82.0312	84.6488	82.0312	86.4488	82.0312	84.5263	82.0312	86.3009	82.0312	84.4347	82.0312	86.1285	82.0312	84.3755	82.0312	85.9414	82.0312	84.3487	82.0312	85.7487	82.0312	84.3534	82.0312	85.5579	82.0312	84.3875	82.0312	85.3745	82.0312	84.4481	82.0312	85.2014	82.0312	84.5318	82.0312	85.0401	82.0312	84.6354	82.0312	84.8914	82.0312	84.756
84.9609	86.1088	84.9609	85.922	84.9609	86.2746	84.9609	85.7215	84.9609	86.4121	84.9609	85.5149	84.9609	86.5149	84.9609	85.3094	84.9609	86.5772	84.9609	85.1116	84.9609	86.5948	84.9609	84.9273	84.9609	86.5653	84.9609	84.761	84.9609	86.4888	84.9609	84.6162	84.9609	86.3677	84.9609	84.4947	84.9609	86.2072	84.9609	84.3975	84.9609	86.0147	84.9609	84.3244	84.9609	85.7995	84.9609	84.2749	84.9609	85.5717	84.9609	84.2481	84.9609	85.342	84.9609	84.2436	84.9609	85.1205	84.9609	84.2614	84.9609	84.9162	84.9609	84.3025	84.9609	84.736	84.9609	84.3685	84.9609	84.584	84.9609	84.4618
87.8906	85.9786	87.8906	85.8031	87.8906	86.1419	87.8906	85.6224	87.8906	86.2869	87.8906	85.4435	87.8906	86.4077	87.8906	85.2733	87.8906	86.4995	87.8906	85.1188	87.8906	86.5589	87.8906	84.9859	87.8906	86.5841	87.8906	84.8798	87.8906	86.5754	87.8906	84.8041	87.8906	86.5352	87.8906	84.7604	87.8906	86.4677	87.8906	84.7489	87.8906	86.3783	87.8906	84.7676	87.8906	86.2727	87.8906	84.8133	87.8906	86.1565	87.8906	84.8818	87.8906	86.0341	87.8906	84.9682	87.8906	85.9087	87.8906	85.0679	87.8906	85.7826	87.8906	85.1768	87.8906	85.657	87.8906	85.2918	87.8906	85.5329	87.8906	85.4109
90.8203	86.3319	90.8203	86.1453	90.8203	86.5034	90.8203	85.9517	90.8203	86.652	90.8203	85.7596	90.8203	86.7715	90.8203	85.5775	90.8203	86.857	90.8203	85.4134	90.8203	86.9059	90.8203	85.2742	90.8203	86.9182	90.8203	85.1658	90.8203	86.8965	90.8203	85.0919	90.8203	86.8461	90.8203	85.0543	90.8203	86.7736	90.8203	85.0525	90.8203	86.6861	90.8203	85.0838	90.8203	86.5897	90.8203	85.144	90.8203	86.4885	90.8203	85.2279	90.8203	86.3845	90.8203	85.3297	90.8203	86.2778	90.8203	85.4439	90.8203	86.1679	90.8203	85.5652	90.8203	86.054	90.8203	85.6897	90.8203	85.9359	90.8203	85.814
95.2148	86.5991	95.2148	86.3995	95.2148	86.7665	95.2148	86.1766	95.2148	86.8945	95.2148	85.9405	95.2148	86.9781	95.2148	85.7022	95.2148	87.0145	95.2148	85.4729	95.2148	87.0041	95.2148	85.2637	95.2148	86.9501	95.2148	85.0848	95.2148	86.8594	95.2148	84.9445	95.2148	86.7413	95.2148	84.849	95.2148	86.6077	95.2148	84.8012	95.2148	86.4705	95.2148	84.8009	95.2148	86.3395	95.2148	84.8444	95.2148	86.2202	95.2148	84.9254	95.2148	86.1131	95.2148	85.0353	95.2148	86.0139	95.2148	85.1645	95.2148	85.9163	95.2148	85.3034	95.2148	85.8136	95.2148	85.4433	95.2148	85.7013	95.2148	85.5774
98.1445	86.9126	98.1445	86.7267	98.1445	87.0674	98.1445	86.5171	98.1445	87.1843	98.1445	86.2923	98.1445	87.2585	98.1445	86.0615	98.1445	87.2864	98.1445	85.8341	98.1445	87.2663	98.1445	85.6193	98.1445	87.1991	98.1445	85.4257	98.1445	87.0885	98.1445	85.2608	98.1445	86.9415	98.1445	85.1305	98.1445	86.7686	98.1445	85.0387	98.1445	86.5828	98.1445	84.9871	98.1445	86.3972	98.1445	84.9749	98.1445	86.2227	98.1445	84.9989	98.1445	86.0654	98.1445	85.0541	98.1445	85.9259	98.1445	85.1342	98.1445	85.8003	98.1445	85.2319	98.1445	85.6826	98.1445	85.3403	98.1445	85.5678	98.1445	85.4535
101.074	87.1151	101.074	86.9162	101.074	87.2879	101.074	86.6996	101.074	87.4267	101.074	86.4737	101.074	87.5241	101.074	86.2469	101.074	87.5739	101.074	86.027	101.074	87.5715	101.074	85.8213	101.074	87.5148	101.074	85.6356	101.074	87.405	101.074	85.4746	101.074	87.2468	101.074	85.3417	101.074	87.0493	101.074	85.2385	101.074	86.8247	101.074	85.1654	101.074	86.5877	101.074	85.1218	101.074	86.3525	101.074	85.1061	101.074	86.1311	101.074	85.1164	101.074	85.9314	101.074	85.1501	101.074	85.7566	101.074	85.2047	101.074	85.6063	101.074	85.2781	101.074	85.478	101.074	85.3692
105.469	86.7695	105.469	86.5581	105.469	86.9557	105.469	86.3312	105.469	87.1083	105.469	86.0991	105.469	87.2203	105.469	85.8729	105.469	87.2868	105.469	85.6633	105.469	87.3051	105.469	85.4803	105.469	87.2753	105.469	85.332	105.469	87.2006	105.469	85.224	105.469	87.0873	105.469	85.1583	105.469	86.9442	105.469	85.1339	105.469	86.7822	105.469	85.1464	105.469	86.6125	105.469	85.1893	105.469	86.4453	105.469	85.2551	105.469	86.2881	105.469	85.3359	105.469	86.1456	105.469	85.4252	105.469	86.0187	105.469	85.518	105.469	85.9055	105.469	85.6116	105.469	85.8027	105.469	85.7059
108.398	87.0291	108.398	86.8104	108.398	87.2179	108.398	86.5718	108.398	87.3683	108.398	86.3241	108.398	87.4732	108.398	86.079	108.398	87.5281	108.398	85.8479	108.398	87.5309	108.398	85.6417	108.398	87.4827	108.398	85.4696	108.398	87.3882	108.398	85.3382	108.398	87.2553	108.398	85.2511	108.398	87.0948	108.398	85.2083	108.398	86.9191	108.398	85.2066	108.398	86.7404	108.398	85.2403	108.398	86.5687	108.398	85.3021	108.398	86.4101	108.398	85.3843	108.398	86.2669	108.398	85.4799	108.398	86.1375	108.398	85.5829	108.398	86.0187	108.398	85.6894	108.398	85.9063	108.398	85.7971
112.793	87.0746	112.793	86.846	112.793	87.2686	112.793	86.5926	112.793	87.4199	112.793	86.3254	112.793	87.522	112.793	86.0564	112.793	87.5707	112.793	85.7985	112.793	87.564	112.793	85.5643	112.793	87.5029	112.793	85.3655	112.793	87.3919	112.793	85.2113	112.793	87.2391	112.793	85.1072	112.793	87.0562	112.793	85.0543	112.793	86.857	112.793	85.0494	112.793	86.6559	112.793	85.0855	112.793	86.465	112.793	85.1534	112.793	86.2924	112.793	85.2431	112.793	86.1408	112.793	85.3457	112.793	86.0081	112.793	85.4539	112.793	85.8894	112.793	85.563	112.793	85.7788	112.793	85.671
117.188	87.2539	117.188	87.0364	117.188	87.4345	117.188	86.7906	117.188	87.5715	117.188	86.526	117.188	87.6601	117.188	86.2539	117.188	87.6975	117.188	85.986	117.188	87.684	117.188	85.7349	117.188	87.6223	117.188	85.5129	117.188	87.5184	117.188	85.331	117.188	87.3809	117.188	85.1978	117.188	87.2203	117.188	85.1183	117.188	87.0478	117.188	85.093	117.188	86.8735	117.188	85.1184	117.188	86.7049	117.188	85.1869	117.188	86.5461	117.188	85.2891	117.188	86.3973	117.188	85.4143	117.188	86.2561	117.188	85.5528	117.188	86.1185	117.188	85.6965	117.188	85.9807	117.188	85.84
120.117	87.1624	120.117	86.942	120.117	87.345	120.117	86.6936	120.117	87.4817	120.117	86.4286	120.117	87.5668	120.117	86.1588	120.117	87.5972	120.117	85.8966	120.117	87.5731	120.117	85.6542	120.117	87.4981	120.117	85.4423	120.117	87.3794	120.117	85.27	120.117	87.2275	120.117	85.1437	120.117	87.0552	120.117	85.0667	120.117	86.8759	120.117	85.0391	120.117	86.7009	120.117	85.0577	120.117	86.5378	120.117	85.1169	120.117	86.3892	120.117	85.2089	120.117	86.2531	120.117	85.325	120.117	86.1243	120.117	85.4562	120.117	85.9973	120.117	85.5943	120.117	85.8674	120.117	85.7327
124.512	86.9622	124.512	86.7403	124.512	87.1463	124.512	86.4915	124.512	87.2842	124.512	86.2281	124.512	87.3697	124.512	85.9642	124.512	87.3997	124.512	85.7147	124.512	87.3743	124.512	85.4943	124.512	87.2979	124.512	85.316	124.512	87.179	124.512	85.1896	124.512	87.0307	124.512	85.1204	124.512	86.8691	124.512	85.1082	124.512	86.7107	124.512	85.1479	124.512	86.5696	124.512	85.2302	124.512	86.4532	124.512	85.3435	124.512	86.3616	124.512	85.4753	124.512	86.2883	124.512	85.6141	124.512	86.2232	124.512	85.7498	124.512	86.1559	124.512	85.8751	124.512	86.0782	124.512	85.9851
128.906	87.0801	128.906	86.8433	128.906	87.273	128.906	86.5728	128.906	87.4132	128.906	86.281	128.906	87.4941	128.906	85.9817	128.906	87.5114	128.906	85.6901	128.906	87.464	128.906	85.4224	128.906	87.3547	128.906	85.1944	128.906	87.1914	128.906	85.0201	128.906	86.9877	128.906	84.9094	128.906	86.7629	128.906	84.8662	128.906	86.5402	128.906	84.888	128.906	86.3421	128.906	84.9656	128.906	86.1849	128.906	85.0852	128.906	86.0737	128.906	85.2304	128.906	86.0012	128.906	85.3845	128.906	85.9518	128.906	85.5328	128.906	85.9066	128.906	85.6637	128.906	85.8495	128.906	85.77
133.301	87.1129	133.301	86.8857	133.301	87.2964	133.301	86.6247	133.301	87.4284	133.301	86.3417	133.301	87.5031	133.301	86.0497	133.301	87.517	133.301	85.7629	133.301	87.469	133.301	85.4957	133.301	87.3614	133.301	85.2614	133.301	87.1997	133.301	85.0714	133.301	86.9937	133.301	84.9336	133.301	86.7573	133.301	84.8515	133.301	86.5083	133.301	84.8239	133.301	86.2662	133.301	84.8451	133.301	86.049	133.301	84.9057	133.301	85.8692	133.301	84.9937	133.301	85.7304	133.301	85.0967	133.301	85.6264	133.301	85.2029	133.301	85.5446	133.301	85.3031	133.301	85.4705	133.301	85.3922
139.16	86.8229	139.16	86.5739	139.16	87.0271	139.16	86.2913	139.16	87.1776	139.16	85.9882	139.16	87.2672	139.16	85.6795	139.16	87.2918	139.16	85.3817	139.16	87.2502	139.16	85.112	139.16	87.1454	139.16	84.8866	139.16	86.9849	139.16	84.7189	139.16	86.7813	139.16	84.6175	139.16	86.5521	139.16	84.5841	139.16	86.3177	139.16	84.6137	139.16	86.0994	139.16	84.6951	139.16	85.9142	139.16	84.8131	139.16	85.7715	139.16	84.9511	139.16	85.6707	139.16	85.0929	139.16	85.6016	139.16	85.2251	139.16	85.5486	139.16	85.3381	139.16	85.4951	139.16	85.4275
143.555	86.8832	143.555	86.6231	143.555	87.0942	143.555	86.3246	143.555	87.2474	143.555	85.9999	143.555	87.3361	143.555	85.663	143.555	87.3561	143.555	85.3297	143.555	87.3059	143.555	85.0166	143.555	87.1881	143.555	84.7408	143.555	87.0092	143.555	84.5179	143.555	86.7811	143.555	84.3601	143.555	86.5206	143.555	84.274	143.555	86.2487	143.555	84.2592	143.555	85.9877	143.555	84.3079	143.555	85.7575	143.555	84.4063	143.555	85.5705	143.555	84.5372	143.555	85.4285	143.555	84.6826	143.555	85.3229	143.555	84.8261	143.555	85.2384	143.555	84.956	143.555	85.1575	143.555	85.0662
147.949	86.9322	147.949	86.6653	147.949	87.1485	147.949	86.3593	147.949	87.3055	147.949	86.0276	147.949	87.3964	147.949	85.6858	147.949	87.4177	147.949	85.3505	147.949	87.3685	147.949	85.0392	147.949	87.2517	147.949	84.7684	147.949	87.0742	147.949	84.5519	147.949	86.8473	147.949	84.3991	147.949	86.587	147.949	84.3138	147.949	86.3126	147.949	84.2935	147.949	86.0448	147.949	84.3304	147.949	85.8025	147.949	84.4123	147.949	85.5984	147.949	84.5249	147.949	85.4364	147.949	84.6531	147.949	85.3107	147.949	84.7838	147.949	85.2085	147.949	84.9067	147.949	85.1148	147.949	85.0167
153.809	86.8467	153.809	86.5642	153.809	87.0707	153.809	86.2342	153.809	87.2275	153.809	85.8703	153.809	87.3111	153.809	85.4888	153.809	87.3183	153.809	85.1083	153.809	87.249	153.809	84.749	153.809	87.1065	153.809	84.4313	153.809	86.898	153.809	84.1737	153.809	86.6353	153.809	83.9897	153.809	86.335	153.809	83.886	153.809	86.0185	153.809	83.8604	153.809	85.71	153.809	83.9032	153.809	85.4335	153.809	83.9983	153.809	85.2063	153.809	84.127	153.809	85.0344	153.809	84.27	153.809	84.9106	153.809	84.411	153.809	84.8175	153.809	84.5378	153.809	84.7348	153.809	84.6451
159.668	86.8569	159.668	86.5812	159.668	87.076	159.668	86.2588	159.668	87.2314	159.668	85.9023	159.668	87.3194	159.668	85.5267	159.668	87.3389	159.668	85.1491	159.668	87.292	159.668	84.7878	159.668	87.1836	159.668	84.4611	159.668	87.0201	159.668	84.1854	159.668	86.8092	159.668	83.974	159.668	86.5596	159.668	83.8347	159.668	86.2812	159.668	83.7692	159.668	85.9859	159.668	83.7722	159.668	85.6888	159.668	83.8327	159.668	85.4068	159.668	83.9358	159.668	85.1552	159.668	84.0648	159.668	84.9424	159.668	84.2046	159.668	84.7668	159.668	84.3445	159.668	84.6176	159.668	84.4806
165.527	86.6825	165.527	86.4234	165.527	86.8877	165.527	86.1227	165.527	87.0304	165.527	85.7959	165.527	87.1055	165.527	85.4603	165.527	87.1125	165.527	85.1339	165.527	87.055	165.527	84.8334	165.527	86.9408	165.527	84.5728	165.527	86.7813	165.527	84.3619	165.527	86.59	165.527	84.2057	165.527	86.3801	165.527	84.1053	165.527	86.1622	165.527	84.0585	165.527	85.9435	165.527	84.0607	165.527	85.7283	165.527	84.1055	165.527	85.5203	165.527	84.1851	165.527	85.3234	165.527	84.2905	165.527	85.1412	165.527	84.4125	165.527	84.9751	165.527	84.5438	165.527	84.823	165.527	84.6805
171.387	86.3448	171.387	86.0215	171.387	86.6165	171.387	85.663	171.387	86.823	171.387	85.2892	171.387	86.955	171.387	84.922	171.387	87.0076	171.387	84.5839	171.387	86.9812	171.387	84.2961	171.387	86.8814	171.387	84.0746	171.387	86.7183	171.387	83.9281	171.387	86.5056	171.387	83.8564	171.387	86.2587	171.387	83.8517	171.387	85.9935	171.387	83.9008	171.387	85.7255	171.387	83.9882	171.387	85.4692	171.387	84.0983	171.387	85.2381	171.387	84.2169	171.387	85.043	171.387	84.3326	171.387	84.8888	171.387	84.4373	171.387	84.7727	171.387	84.5278	171.387	84.6838	171.387	84.6069
177.246	86.0096	177.246	85.5856	177.246	86.3605	177.246	85.115	177.246	86.6226	177.246	84.6351	177.246	86.79	177.246	84.1909	177.246	86.8642	177.246	83.8277	177.246	86.8532	177.246	83.5792	177.246	86.7695	177.246	83.4571	177.246	86.6288	177.246	83.448	177.246	86.4481	177.246	83.5206	177.246	86.243	177.246	83.6381	177.246	86.0254	177.246	83.7685	177.246	85.8013	177.246	83.8903	177.246	85.572	177.246	83.9928	177.246	85.3383	177.246	84.0752	177.246	85.1045	177.246	84.1436	177.246	84.8805	177.246	84.2087	177.246	84.6792	177.246	84.2834	177.246	84.5113	177.246	84.3808
183.105	86.1861	183.105	85.7967	183.105	86.4683	183.105	85.3046	183.105	86.6483	183.105	84.729	183.105	86.7377	183.105	84.11	183.105	86.7531	183.105	83.5146	183.105	86.7136	183.105	83.0323	183.105	86.639	183.105	82.7495	183.105	86.5459	183.105	82.7063	183.105	86.4429	183.105	82.8698	183.105	86.328	183.105	83.1546	183.105	86.1883	183.105	83.4673	183.105	86.0057	183.105	83.7381	183.105	85.7641	183.105	83.9293	183.105	85.4599	183.105	84.0316	183.105	85.1083	183.105	84.0583	183.105	84.7463	183.105	84.0409	183.105	84.4244	183.105	84.0247	183.105	84.1887	183.105	84.0602
188.965	86.4871	188.965	86.2019	188.965	86.6234	188.965	85.7608	188.965	86.6204	188.965	85.1614	188.965	86.4921	188.965	84.4097	188.965	86.2604	188.965	83.5304	188.965	85.9602	188.965	82.5828	188.965	85.644	188.965	81.6805	188.965	85.3796	188.965	80.9903	188.965	85.2339	188.965	80.6699	188.965	85.2442	188.965	80.7601	188.965	85.3953	188.965	81.157	188.965	85.6253	188.965	81.7058	188.965	85.8538	188.965	82.2916	188.965	86.0102	188.965	82.8609	188.965	86.0478	188.965	83.4032	188.965	85.9462	188.965	83.9259	188.965	85.7081	188.965	84.434	188.965	85.3547	188.965	84.9186
196.289	87.3542	196.289	87.1294	196.289	87.4705	196.289	86.7985	196.289	87.4769	196.289	86.3658	196.289	87.373	196.289	85.8396	196.289	87.1603	196.289	85.2353	196.289	86.8444	196.289	84.5804	196.289	86.4396	196.289	83.9198	196.289	85.9769	196.289	83.3191	196.289	85.5137	196.289	82.8589	196.289	85.1353	196.289	82.613	196.289	84.9333	196.289	82.6172	196.289	84.9561	196.289	82.8522	196.289	85.1699	196.289	83.2566	196.289	85.4757	196.289	83.757	196.289	85.7628	196.289	84.2895	196.289	85.9496	196.289	84.8045	196.289	85.9937	196.289	85.2635	196.289	85.8845	196.289	85.6333
203.613	87.2422	203.613	86.9998	203.613	87.3784	203.613	86.6525	203.613	87.4069	203.613	86.2033	203.613	87.3258	203.613	85.659	203.613	87.1341	203.613	85.0349	203.613	86.8337	203.613	84.3616	203.613	86.4339	203.613	83.6914	203.613	85.958	203.613	83.102	203.613	85.4507	203.613	82.6847	203.613	84.9836	203.613	82.5118	203.613	84.645	203.613	82.599	203.613	84.5054	203.613	82.8977	203.613	84.5743	203.613	83.3252	203.613	84.7889	203.613	83.802	203.613	85.0508	203.613	84.2686	203.613	85.2715	203.613	84.6854	203.613	85.394	203.613	85.0252	203.613	85.3934	203.613	85.2669
210.938	87.0315	210.938	86.8102	210.938	87.1593	210.938	86.4969	210.938	87.1907	210.938	86.0932	210.938	87.1222	210.938	85.6025	210.938	86.9503	210.938	85.0333	210.938	86.6733	210.938	84.4048	210.938	86.295	210.938	83.7531	210.938	85.83	210.938	83.1373	210.938	85.3111	210.938	82.6374	210.938	84.7977	210.938	82.336	210.938	84.3742	210.938	82.2826	210.938	84.1259	210.938	82.4661	210.938	84.092	210.938	82.8218	210.938	84.235	210.938	83.2654	210.938	84.4626	210.938	83.7222	210.938	84.677	210.938	84.1377	210.938	84.8086	210.938	84.475	210.938	84.8223	210.938	84.7088
218.262	86.8996	218.262	86.6589	218.262	87.0481	218.262	86.3288	218.262	87.101	218.262	85.9124	218.262	87.0543	218.262	85.4149	218.262	86.9048	218.262	84.8474	218.262	86.6516	218.262	84.2325	218.262	86.2988	218.262	83.6109	218.262	85.8601	218.262	83.0459	218.262	85.3663	218.262	82.6179	218.262	84.8726	218.262	82.4006	218.262	84.4592	218.262	82.4266	218.262	84.2107	218.262	82.6681	218.262	84.172	218.262	83.0538	218.262	84.3138	218.262	83.5027	218.262	84.548	218.262	83.9484	218.262	84.776	218.262	84.344	218.262	84.9257	218.262	84.6581	218.262	84.9598	218.262	84.8685
225.586	87.1235	225.586	86.8871	225.586	87.2585	225.586	86.5519	225.586	87.2887	225.586	86.12	225.586	87.2096	225.586	85.5952	225.586	87.0171	225.586	84.9867	225.586	86.709	225.586	84.3152	225.586	86.2881	225.586	83.6224	225.586	85.768	225.586	82.9785	225.586	85.1825	225.586	82.4808	225.586	84.5981	225.586	82.2267	225.586	84.1181	225.586	82.2643	225.586	83.8562	225.586	82.5614	225.586	83.8706	225.586	83.0258	225.586	84.1143	225.586	83.555	225.586	84.4651	225.586	84.0678	225.586	84.7979	225.586	84.5099	225.586	85.0289	225.586	84.8466	225.586	85.1177	225.586	85.0546
232.91	87.2799	232.91	87.0288	232.91	87.4314	232.91	86.6802	232.91	87.4793	232.91	86.235	232.91	87.4183	232.91	85.6942	232.91	87.2419	232.91	85.0627	232.91	86.9438	232.91	84.3554	232.91	86.5202	232.91	83.6063	232.91	85.974	232.91	82.8804	232.91	85.3247	232.91	82.2778	232.91	84.6255	232.91	81.9145	232.91	83.9804	232.91	81.8678	232.91	83.5354	232.91	82.1239	232.91	83.4067	232.91	82.5867	232.91	83.5858	232.91	83.1358	232.91	83.9402	232.91	83.6729	232.91	84.3107	232.91	84.1325	232.91	84.586	232.91	84.4743	232.91	84.7118	232.91	84.6728
241.699	86.8606	241.699	86.6129	241.699	87.0302	241.699	86.2886	241.699	87.1172	241.699	85.8857	241.699	87.1143	241.699	85.3999	241.699	87.0125	241.699	84.8274	241.699	86.8016	241.699	84.171	241.699	86.4711	241.699	83.4502	241.699	86.0131	241.699	82.7155	241.699	85.4297	241.699	82.0624	241.699	84.7492	241.699	81.6248	241.699	84.0507	241.699	81.5218	241.699	83.4799	241.699	81.7755	241.699	83.2067	241.699	82.2898	241.699	83.3013	241.699	82.9178	241.699	83.6599	241.699	83.5329	241.699	84.092	241.699	84.0515	241.699	84.4424	241.699	84.4242	241.699	84.6285	241.699	84.622
250.488	86.7139	250.488	86.4075	250.488	86.9166	250.488	86.0007	250.488	87.0119	250.488	85.4965	250.488	86.9964	250.488	84.8986	250.488	86.8669	250.488	84.2132	250.488	86.6217	250.488	83.4537	250.488	86.2597	250.488	82.6473	250.488	85.783	250.488	81.8439	250.488	85.2006	250.488	81.1246	250.488	84.5387	250.488	80.5973	250.488	83.8571	250.488	80.3644	250.488	83.2598	250.488	80.4665	250.488	82.8722	250.488	80.8519	250.488	82.7661	250.488	81.4052	250.488	82.8943	250.488	82.0039	250.488	83.1213	250.488	82.5518	250.488	83.3095	250.488	82.9846	250.488	83.37	250.488	83.2634
259.277	86.7363	259.277	86.504	259.277	86.8744	259.277	86.1746	259.277	86.92	259.277	85.7447	259.277	86.8731	259.277	85.2127	259.277	86.7317	259.277	84.5816	259.277	86.4919	259.277	83.8653	259.277	86.1488	259.277	83.0958	259.277	85.6992	259.277	82.3318	259.277	85.1491	259.277	81.6629	259.277	84.5274	259.277	81.1953	259.277	83.904	259.277	81.0126	259.277	83.3967	259.277	81.13	259.277	83.1306	259.277	81.4864	259.277	83.1486	259.277	81.9815	259.277	83.3645	259.277	82.5178	259.277	83.627	259.277	83.0195	259.277	83.8099	259.277	83.4321	259.277	83.846	259.277	83.7165
268.066	86.6032	268.066	86.3393	268.066	86.7577	268.066	85.9598	268.066	86.805	268.066	85.4556	268.066	86.7449	268.066	84.8164	268.066	86.5763	268.066	84.0351	268.066	86.2984	268.066	83.1173	268.066	85.9115	268.066	82.0973	268.066	85.4179	268.066	81.0646	268.066	84.8255	268.066	80.1874	268.066	84.1608	268.066	79.6814	268.066	83.492	268.066	79.6779	268.066	82.9473	268.066	80.1081	268.066	82.6783	268.066	80.7764	268.066	82.7443	268.066	81.5051	268.066	83.0389	268.066	82.1879	268.066	83.3752	268.066	82.7714	268.066	83.606	268.066	83.2266	268.066	83.662	268.066	83.5308
276.855	86.5716	276.855	86.4245	276.855	86.6228	276.855	86.1735	276.855	86.5779	276.855	85.801	276.855	86.4307	276.855	85.2823	276.855	86.1727	276.855	84.5888	276.855	85.7969	276.855	83.6951	276.855	85.3018	276.855	82.5908	276.855	84.6973	276.855	81.3081	276.855	84.0162	276.855	79.9774	276.855	83.3294	276.855	78.8976	276.855	82.7566	276.855	78.4658	276.855	82.4394	276.855	78.8158	276.855	82.4561	276.855	79.6599	276.855	82.7446	276.855	80.6376	276.855	83.1385	276.855	81.548	276.855	83.4718	276.855	82.3175	276.855	83.64	276.855	82.9249	276.855	83.6024	276.855	83.3586
287.109	86.5688	287.109	86.5465	287.109	86.5375	287.109	86.4536	287.109	86.4525	287.109	86.2587	287.109	86.2986	287.109	85.9195	287.109	86.0481	287.109	85.3881	287.109	85.6637	287.109	84.6131	287.109	85.0998	287.109	83.5429	287.109	84.3065	287.109	82.1339	287.109	83.2453	287.109	80.3886	287.109	81.9449	287.109	78.4923	287.109	80.6556	287.109	77.1139	287.109	80.0266	287.109	77.189	287.109	80.5928	287.109	78.5177	287.109	81.8977	287.109	80.1559	287.109	83.1897	287.109	81.6275	287.109	84.1166	287.109	82.8255	287.109	84.6017	287.109	83.7412	287.109	84.6681	287.109	84.3655
297.363	86.6734	297.363	86.4899	297.363	86.9321	297.363	86.4168	297.363	87.2097	297.363	86.4445	297.363	87.4518	297.363	86.5167	297.363	87.6134	297.363	86.5527	297.363	87.6516	297.363	86.472	297.363	87.5128	297.363	86.2066	297.363	87.1215	297.363	85.701	297.363	86.3714	297.363	84.9052	297.363	85.1128	297.363	83.7705	297.363	83.1245	297.363	82.2614	297.363	80.0727	297.363	80.4439	297.363	75.8798	297.363	78.8005	297.363	74.7197	297.363	78.481	297.363	78.3842	297.363	79.7781	297.363	81.2812	297.363	81.4977	297.363	82.9336	297.363	82.8416	297.363	83.6406	297.363	83.5804
307.617	86.4898	307.617	86.0153	307.617	86.9061	307.617	85.5523	307.617	87.2147	307.617	85.1712	307.617	87.3941	307.617	84.9132	307.617	87.4518	307.617	84.7713	307.617	87.4178	307.617	84.6967	307.617	87.3285	307.617	84.6249	307.617	87.1973	307.617	84.4989	307.617	86.9873	307.617	84.2806	307.617	86.6031	307.617	83.9538	307.617	85.91	307.617	83.5292	307.617	84.7633	307.617	83.0537	307.617	83.0561	307.617	82.6165	307.617	80.8844	307.617	82.3287	307.617	79.0678	307.617	82.2521	307.617	79.0278	307.617	82.3225	307.617	80.2822	307.617	82.3565	307.617	81.459	307.617	82.1315
319.336	86.5383	319.336	86.0425	319.336	86.9424	319.336	85.5135	319.336	87.2167	319.336	85.0247	319.336	87.3419	319.336	84.6423	319.336	87.3141	319.336	84.3926	319.336	87.1414	319.336	84.2449	319.336	86.8421	319.336	84.128	319.336	86.4387	319.336	83.9658	319.336	85.9491	319.336	83.7076	319.336	85.3725	319.336	83.3441	319.336	84.6799	319.336	82.9178	319.336	83.8252	319.336	82.527	319.336	82.7998	319.336	82.3026	319.336	81.7487	319.336	82.3342	319.336	81.0721	319.336	82.5847	319.336	81.1533	319.336	82.8957	319.336	81.8107	319.336	83.0754	319.336	82.5263	319.336	82.9741
329.59	86.4087	329.59	86.0036	329.59	86.6975	329.59	85.5126	329.59	86.8602	329.59	84.9871	329.59	86.9036	329.59	84.4906	329.59	86.8452	329.59	84.0785	329.59	86.7056	329.59	83.7713	329.59	86.4996	329.59	83.5432	329.59	86.2288	329.59	83.3375	329.59	85.8771	329.59	83.0966	329.59	85.4118	329.59	82.7891	329.59	84.7923	329.59	82.4267	329.59	83.9901	329.59	82.073	329.59	83.0312	329.59	81.8319	329.59	82.0653	329.59	81.7937	329.59	81.3967	329.59	81.9573	329.59	81.2851	329.59	82.2081	329.59	81.6278	329.59	82.3834	329.59	82.0727	329.59	82.3535
341.309	86.1068	341.309	85.6637	341.309	86.3872	341.309	85.0913	341.309	86.4947	341.309	84.4464	341.309	86.4406	341.309	83.8041	341.309	86.2539	341.309	83.2419	341.309	85.9745	341.309	82.8155	341.309	85.6413	341.309	82.5383	341.309	85.2763	341.309	82.3841	341.309	84.8713	341.309	82.3112	341.309	84.3911	341.309	82.2893	341.309	83.7992	341.309	82.3138	341.309	83.1039	341.309	82.4033	341.309	82.4137	341.309	82.5817	341.309	81.9524	341.309	82.8514	341.309	81.931	341.309	83.1734	341.309	82.3256	341.309	83.4701	341.309	82.887	341.309	83.6483	341.309	83.365	341.309	83.6274
353.027	86.642	353.027	86.238	353.027	86.8839	353.027	85.6921	353.027	86.9604	353.027	85.0395	353.027	86.884	353.027	84.3257	353.027	86.6799	353.027	83.5985	353.027	86.3818	353.027	82.8984	353.027	86.0225	353.027	82.2549	353.027	85.6176	353.027	81.69	353.027	85.1454	353.027	81.2291	353.027	84.5397	353.027	80.9111	353.027	83.712	353.027	80.7894	353.027	82.6177	353.027	80.912	353.027	81.3923	353.027	81.283	353.027	80.5231	353.027	81.8354	353.027	80.5813	353.027	82.4454	353.027	81.4067	353.027	82.9755	353.027	82.3542	353.027	83.3064	353.027	83.0356	353.027	83.3472
366.211	86.9638	366.211	86.5377	366.211	87.2103	366.211	85.943	366.211	87.2767	366.211	85.2035	366.211	87.171	366.211	84.3572	366.211	86.9086	366.211	83.4576	366.211	86.5138	366.211	82.5711	366.211	86.0201	366.211	81.7671	366.211	85.4661	366.211	81.1005	366.211	84.8821	366.211	80.599	366.211	84.2677	366.211	80.2681	366.211	83.5795	366.211	80.115	366.211	82.7543	366.211	80.1646	366.211	81.787	366.211	80.4404	366.211	80.8565	366.211	80.9154	366.211	80.374	366.211	81.4859	366.211	80.6154	366.211	82.0005	366.211	81.3017	366.211	82.3126	366.211	81.9563	366.211	82.3137
379.395	86.7634	379.395	86.3802	379.395	87.0157	379.395	85.8907	379.395	87.1239	379.395	85.3267	379.395	87.0876	379.395	84.7185	379.395	86.919	379.395	84.0862	379.395	86.6423	379.395	83.4355	379.395	86.2854	379.395	82.7649	379.395	85.8629	379.395	82.0809	379.395	85.3549	379.395	81.4137	379.395	84.6986	379.395	80.8298	379.395	83.809	379.395	80.4307	379.395	82.6444	379.395	80.3243	379.395	81.3485	379.395	80.561	379.395	80.4357	379.395	81.081	379.395	80.494	379.395	81.7351	379.395	81.3105	379.395	82.3553	379.395	82.1996	379.395	82.8016	379.395	82.7802	379.395	82.9689
392.578	85.4104	392.578	84.9344	392.578	85.7566	392.578	84.3665	392.578	85.9469	392.578	83.7435	392.578	85.9777	392.578	83.0918	392.578	85.8749	392.578	82.428	392.578	85.69	392.578	81.7705	392.578	85.4809	392.578	81.1547	392.578	85.2769	392.578	80.6325	392.578	85.0436	392.578	80.2504	392.578	84.6718	392.578	80.0216	392.578	84.0007	392.578	79.9311	392.578	82.8649	392.578	79.9753	392.578	81.2085	392.578	80.1898	392.578	79.4676	392.578	80.617	392.578	78.9995	392.578	81.2338	392.578	80.1821	392.578	81.9155	392.578	81.5945	392.578	82.4746	392.578	82.4638	392.578	82.7158
405.762	87.1618	405.762	86.5905	405.762	87.4266	405.762	85.74	405.762	87.3816	405.762	84.6633	405.762	87.0504	405.762	83.439	405.762	86.4954	405.762	82.1633	405.762	85.8391	405.762	80.9417	405.762	85.2725	405.762	79.9088	405.762	84.9849	405.762	79.2713	405.762	85.0007	405.762	79.2465	405.762	85.1059	405.762	79.8333	405.762	84.9715	405.762	80.7652	405.762	84.2852	405.762	81.7552	405.762	82.7975	405.762	82.6487	405.762	80.4946	405.762	83.4025	405.762	78.6616	405.762	84.0154	405.762	79.7496	405.762	84.4644	405.762	82.0227	405.762	84.6636	405.762	83.642	405.762	84.4574
420.41	89.3337	420.41	89.2755	420.41	89.171	420.41	89.0107	420.41	88.7784	420.41	88.5513	420.41	88.156	420.41	87.8954	420.41	87.3169	420.41	87.0148	420.41	86.296	420.41	85.8461	420.41	85.1789	420.41	84.2904	420.41	84.1612	420.41	82.2333	420.41	83.5527	420.41	79.6754	420.41	83.5223	420.41	77.3743	420.41	83.8034	420.41	77.3789	420.41	83.8992	420.41	79.3329	420.41	83.4034	420.41	81.2503	420.41	82.0387	420.41	82.5605	420.41	79.6656	420.41	83.2556	420.41	77.013	420.41	83.3733	420.41	77.1639	420.41	82.8885	420.41	79.6427	420.41	81.6912
435.059	87.8026	435.059	87.5071	435.059	87.9578	435.059	87.1613	435.059	87.9126	435.059	86.8558	435.059	87.6355	435.059	86.6215	435.059	87.1113	435.059	86.3845	435.059	86.3328	435.059	85.988	435.059	85.3168	435.059	85.2505	435.059	84.1798	435.059	84.0044	435.059	83.2792	435.059	82.1168	435.059	83.1148	435.059	79.6349	435.059	83.6752	435.059	77.5689	435.059	84.3486	435.059	78.0999	435.059	84.6087	435.059	80.2668	435.059	84.2424	435.059	82.1439	435.059	83.3119	435.059	83.3219	435.059	82.2575	435.059	83.8382	435.059	81.8674	435.059	83.7716	435.059	82.3951	435.059	83.2159
451.172	88.6783	451.172	88.0219	451.172	89.0313	451.172	87.0528	451.172	89.1155	451.172	85.8388	451.172	88.9633	451.172	84.6019	451.172	88.5864	451.172	83.7149	451.172	87.9638	451.172	83.3851	451.172	87.0342	451.172	83.3459	451.172	85.6998	451.172	83.1196	451.172	83.8631	451.172	82.3129	451.172	81.6365	451.172	80.5697	451.172	80.0195	451.172	77.4197	451.172	80.4109	451.172	73.3398	451.172	81.7193	451.172	75.4576	451.172	82.5069	451.172	79.9112	451.172	82.555	451.172	82.7267	451.172	82.3448	451.172	84.2363	451.172	82.6481	451.172	84.7479	451.172	83.5697	451.172	84.4455
465.82	88.5322	465.82	88.2678	465.82	88.5305	465.82	87.7179	465.82	88.2981	465.82	86.8794	465.82	87.8939	465.82	85.7839	465.82	87.4004	465.82	84.5381	465.82	86.8964	465.82	83.3604	465.82	86.4062	465.82	82.5068	465.82	85.8615	465.82	82.027	465.82	85.1151	465.82	81.6539	465.82	84.0049	465.82	81.007	465.82	82.4844	465.82	79.7712	465.82	80.9228	465.82	77.7873	465.82	80.276	465.82	75.6348	465.82	80.7728	465.82	75.7338	465.82	81.4223	465.82	78.0471	465.82	81.6623	465.82	80.0846	465.82	81.6226	465.82	81.2172	465.82	81.6118	465.82	81.6024
483.398	88.1498	483.398	87.8537	483.398	88.1853	483.398	87.3099	483.398	87.9742	483.398	86.5592	483.398	87.5575	483.398	85.6716	483.398	86.9988	483.398	84.7398	483.398	86.3754	483.398	83.8555	483.398	85.7628	483.398	83.0682	483.398	85.2093	483.398	82.3526	483.398	84.6951	483.398	81.61	483.398	84.114	483.398	80.7019	483.398	83.3187	483.398	79.5117	483.398	82.2298	483.398	78.1092	483.398	81.0033	483.398	77.1552	483.398	80.1603	483.398	77.7204	483.398	80.2077	483.398	79.4266	483.398	80.9402	483.398	81.0722	483.398	81.7942	483.398	82.1398	483.398	82.4001	483.398	82.5586
499.512	88.4052	499.512	88.0025	499.512	88.5226	499.512	87.3357	499.512	88.3654	499.512	86.4591	499.512	87.9741	499.512	85.4582	499.512	87.4104	499.512	84.4411	499.512	86.7435	499.512	83.5099	499.512	86.0339	499.512	82.7157	499.512	85.3166	499.512	82.0232	499.512	84.5827	499.512	81.3163	499.512	83.7805	499.512	80.4432	499.512	82.8615	499.512	79.2876	499.512	81.8561	499.512	77.9228	499.512	80.9229	499.512	76.9706	499.512	80.3003	499.512	77.4507	499.512	80.1774	499.512	79.0829	499.512	80.5843	499.512	80.7147	499.512	81.3077	499.512	81.7853	499.512	81.9554	499.512	82.1794
517.09	88.1811	517.09	87.7802	517.09	88.2313	517.09	87.0712	517.09	87.9405	517.09	86.1571	517.09	87.3685	517.09	85.2053	517.09	86.628	517.09	84.4086	517.09	85.885	517.09	83.8762	517.09	85.3314	517.09	83.5476	517.09	85.0768	517.09	83.2396	517.09	85.0247	517.09	82.753	517.09	84.9136	517.09	81.9222	517.09	84.4761	517.09	80.6275	517.09	83.5488	517.09	78.9095	517.09	82.1523	517.09	77.4795	517.09	80.677	517.09	77.8862	517.09	80.0236	517.09	79.822	517.09	80.6805	517.09	81.6799	517.09	81.8993	517.09	82.8428	517.09	82.8667	517.09	83.2245
536.133	88.7974	536.133	88.3072	536.133	88.8756	536.133	87.3961	536.133	88.5569	536.133	86.0758	536.133	87.8536	536.133	84.4194	536.133	86.767	536.133	82.6615	536.133	85.2958	536.133	81.3063	536.133	83.5213	536.133	80.8476	536.133	81.8447	536.133	81.1043	536.133	81.0986	536.133	81.4532	536.133	81.5353	536.133	81.4621	536.133	82.2897	536.133	80.9619	536.133	82.6244	536.133	79.9848	536.133	82.3042	536.133	78.9473	536.133	81.426	536.133	78.8673	536.133	80.5105	536.133	80.1472	536.133	80.4835	536.133	81.7469	536.133	81.4857	536.133	82.8215	536.133	82.5863	536.133	83.1043
555.176	88.6611	555.176	88.2722	555.176	88.72	555.176	87.5379	555.176	88.4874	555.176	86.468	555.176	88.0128	555.176	85.1068	555.176	87.3291	555.176	83.5648	555.176	86.4253	555.176	82.0744	555.176	85.2519	555.176	80.9879	555.176	83.7675	555.176	80.5255	555.176	82.0495	555.176	80.4893	555.176	80.5366	555.176	80.4504	555.176	79.9801	555.176	80.0694	555.176	80.3456	555.176	79.201	555.176	80.75	555.176	78.0549	555.176	80.6158	555.176	77.5621	555.176	79.9217	555.176	78.5544	555.176	79.3018	555.176	80.134	555.176	79.6905	555.176	81.2123	555.176	80.743	555.176	81.4087
574.219	88.5544	574.219	88.1601	574.219	88.6474	574.219	87.442	574.219	88.4697	574.219	86.3821	574.219	88.0494	574.219	84.9646	574.219	87.3997	574.219	83.1989	574.219	86.5234	574.219	81.2143	574.219	85.4392	574.219	79.4237	574.219	84.1989	574.219	78.4145	574.219	82.8602	574.219	78.2326	574.219	81.4488	574.219	78.3364	574.219	80.0456	574.219	78.3426	574.219	79.04	574.219	78.2474	574.219	78.9106	574.219	78.3506	574.219	79.3045	574.219	79.0117	574.219	79.5323	574.219	80.1633	574.219	79.6447	574.219	81.3076	574.219	80.2355	574.219	81.985	574.219	81.2416	574.219	81.9591
594.727	88.1646	594.727	87.8449	594.727	88.2023	594.727	87.2397	594.727	87.9704	594.727	86.3657	594.727	87.4782	594.727	85.2633	594.727	86.7304	594.727	83.9836	594.727	85.7416	594.727	82.5629	594.727	84.5712	594.727	81.0053	594.727	83.3747	594.727	79.3132	594.727	82.3871	594.727	77.592	594.727	81.685	594.727	76.1506	594.727	80.9623	594.727	75.3365	594.727	79.7955	594.727	75.1763	594.727	78.2609	594.727	75.5838	594.727	77.6287	594.727	76.6705	594.727	78.7053	594.727	78.2877	594.727	80.0996	594.727	79.8723	594.727	81.0095	594.727	80.9786	594.727	81.454	594.727	81.4786
615.234	86.273	615.234	86.0213	615.234	86.2949	615.234	85.5014	615.234	86.1091	615.234	84.6768	615.234	85.7123	615.234	83.5327	615.234	85.0883	615.234	82.1101	615.234	84.218	615.234	80.588	615.234	83.0748	615.234	79.3313	615.234	81.6504	615.234	78.5897	615.234	80.0857	615.234	78.0899	615.234	78.8232	615.234	77.3462	615.234	78.2571	615.234	76.146	615.234	78.0247	615.234	74.8422	615.234	77.5356	615.234	74.5584	615.234	76.9682	615.234	75.7435	615.234	77.2322	615.234	77.3183	615.234	78.3035	615.234	78.5567	615.234	79.2595	615.234	79.3421	615.234	79.7187	615.234	79.7233
637.207	89.8537	637.207	89.4027	637.207	89.9409	637.207	88.6127	637.207	89.6555	637.207	87.4844	637.207	89.0504	637.207	85.987	637.207	88.2214	637.207	84.0968	637.207	87.2145	637.207	81.9372	637.207	86.0156	637.207	80.0492	637.207	84.6598	637.207	79.2306	637.207	83.2259	637.207	79.399	637.207	81.7625	637.207	79.673	637.207	80.575	637.207	79.2887	637.207	80.3012	637.207	77.7553	637.207	80.4011	637.207	75.9934	637.207	79.3052	637.207	78.3604	637.207	76.5021	637.207	82.4853	637.207	78.5786	637.207	85.4421	637.207	83.5676	637.207	87.0911	637.207	86.422	637.207	87.4678
659.18	90.979	659.18	90.7624	659.18	90.8935	659.18	90.2416	659.18	90.554	659.18	89.4346	659.18	90.0249	659.18	88.3471	659.18	89.3002	659.18	86.9661	659.18	88.2967	659.18	85.2991	659.18	86.9997	659.18	83.4874	659.18	85.5744	659.18	81.9627	659.18	84.2438	659.18	81.2643	659.18	83.0476	659.18	81.2058	659.18	81.8542	659.18	80.8681	659.18	80.8077	659.18	79.4482	659.18	80.4656	659.18	76.9878	659.18	80.4362	659.18	77.285	659.18	79.2756	659.18	81.05	659.18	76.7412	659.18	83.9026	659.18	78.5491	659.18	85.1775	659.18	82.6727	659.18	84.845
682.617	89.8008	682.617	89.5489	682.617	89.8274	682.617	89.0344	682.617	89.6701	682.617	88.2125	682.617	89.3446	682.617	87.0225	682.617	88.7909	682.617	85.4108	682.617	87.9106	682.617	83.4072	682.617	86.6949	682.617	81.3151	682.617	85.3153	682.617	79.958	682.617	84.1023	682.617	79.9835	682.617	83.2971	682.617	80.6277	682.617	82.7015	682.617	80.7742	682.617	82.141	682.617	79.7499	682.617	82.0339	682.617	77.0549	682.617	82.2467	682.617	73.797	682.617	81.471	682.617	76.6924	682.617	78.5709	682.617	80.5971	682.617	76.225	682.617	82.4609	682.617	79.853	682.617	82.2961
707.52	89.9711	707.52	89.3049	707.52	90.361	707.52	88.4709	707.52	90.3952	707.52	87.5348	707.52	90.048	707.52	86.4672	707.52	89.3356	707.52	85.1763	707.52	88.3111	707.52	83.6103	707.52	87.0652	707.52	81.8741	707.52	85.6849	707.52	80.2682	707.52	84.1873	707.52	79.1448	707.52	82.4739	707.52	78.6397	707.52	80.3811	707.52	78.5029	707.52	78.3943	707.52	78.2322	707.52	78.5671	707.52	77.4625	707.52	80.1425	707.52	76.6445	707.52	80.6427	707.52	77.553	707.52	79.8041	707.52	79.9396	707.52	79.5776	707.52	81.7423	707.52	81.0988	707.52	82.1517
732.422	88.8508	732.422	87.9118	732.422	89.3735	732.422	86.8306	732.422	89.3793	732.422	85.9042	732.422	88.9036	732.422	85.1465	732.422	88.0227	732.422	84.235	732.422	86.8145	732.422	82.7827	732.422	85.4188	732.422	80.6373	732.422	84.0731	732.422	78.2914	732.422	82.9666	732.422	77.0298	732.422	82.0172	732.422	77.019	732.422	80.8905	732.422	76.9594	732.422	79.3703	732.422	75.9881	732.422	78.0312	732.422	73.9495	732.422	77.8485	732.422	73.1672	732.422	77.8452	732.422	76.4394	732.422	77.1069	732.422	79.7665	732.422	77.7087	732.422	81.5593	732.422	80.1477	732.422	81.6888
757.324	91.2305	757.324	90.2514	757.324	91.6365	757.324	88.7772	757.324	91.5022	757.324	87.0777	757.324	90.9042	757.324	85.5886	757.324	89.8701	757.324	84.4189	757.324	88.3089	757.324	82.9998	757.324	86.0793	757.324	80.6521	757.324	83.2397	757.324	77.15	757.324	80.8278	757.324	74.3135	757.324	80.9293	757.324	76.0229	757.324	81.9556	757.324	78.463	757.324	81.5748	757.324	79.0527	757.324	80.214	757.324	77.1195	757.324	80.9314	757.324	72.5227	757.324	82.3668	757.324	75.604	757.324	81.4848	757.324	80.4622	757.324	77.2254	757.324	82.1946	757.324	76.6054	757.324	81.0126
785.156	91.9779	785.156	91.5363	785.156	91.8595	785.156	90.4853	785.156	91.3386	785.156	88.8982	785.156	90.5903	785.156	87.0178	785.156	89.662	785.156	85.2972	785.156	88.4993	785.156	84.0785	785.156	87.1088	785.156	83.0918	785.156	85.4888	785.156	81.7372	785.156	83.45	785.156	79.6756	785.156	81.1757	785.156	77.6857	785.156	79.9186	785.156	77.7815	785.156	79.3512	785.156	78.7128	785.156	77.8883	785.156	78.381	785.156	77.5582	785.156	76.0153	785.156	79.8384	785.156	73.0594	785.156	80.723	785.156	76.2143	785.156	79.2103	785.156	78.99	785.156	77.7228	785.156	78.939
811.523	91.531	811.523	91.0856	811.523	91.4255	811.523	89.9813	811.523	90.9297	811.523	88.2281	811.523	90.1642	811.523	86.0403	811.523	89.1836	811.523	83.9915	811.523	88.0219	811.523	82.6659	811.523	86.6508	811.523	81.7143	811.523	84.9128	811.523	80.398	811.523	82.6596	811.523	78.5556	811.523	80.2288	811.523	76.7574	811.523	78.9594	811.523	75.9933	811.523	78.8037	811.523	76.1318	811.523	77.8079	811.523	75.9284	811.523	75.7435	811.523	74.9273	811.523	76.6695	811.523	74.5901	811.523	79.5411	811.523	76.3834	811.523	80.7829	811.523	78.3821	811.523	80.5518	811.523	79.6736
840.82	91.286	840.82	90.7524	840.82	91.2393	840.82	89.6471	840.82	90.7184	840.82	88.0031	840.82	89.8866	840.82	85.7773	840.82	88.7835	840.82	82.9189	840.82	87.327	840.82	79.9473	840.82	85.5633	840.82	78.5452	840.82	83.7222	840.82	78.7548	840.82	81.8418	840.82	79.1394	840.82	79.7731	840.82	79.294	840.82	77.693	840.82	79.1603	840.82	75.5693	840.82	78.6729	840.82	74.2414	840.82	77.5892	840.82	76.449	840.82	75.9736	840.82	78.746	840.82	75.9245	840.82	79.1166	840.82	78.4433	840.82	78.7339	840.82	80.4951	840.82	79.749	840.82	80.8777
870.117	90.7199	870.117	90.657	870.117	90.4271	870.117	90.0283	870.117	89.9523	870.117	88.6429	870.117	89.3433	870.117	86.3476	870.117	88.5299	870.117	82.9976	870.117	87.4578	870.117	78.1784	870.117	86.1658	870.117	69.5387	870.117	84.6752	870.117	62.7439	870.117	82.743	870.117	74.1594	870.117	80.1613	870.117	78.0133	870.117	78.2868	870.117	79.495	870.117	78.2163	870.117	79.4125	870.117	77.4543	870.117	78.1094	870.117	73.8663	870.117	76.3412	870.117	71.6115	870.117	76.3828	870.117	76.5167	870.117	78.0695	870.117	77.9273	870.117	78.8387	870.117	77.4922	870.117	78.1354
900.879	90.8473	900.879	90.6111	900.879	90.7073	900.879	89.9098	900.879	90.2937	900.879	88.7174	900.879	89.5715	900.879	86.984	900.879	88.4637	900.879	84.5962	900.879	87.1104	900.879	81.463	900.879	85.8141	900.879	77.7168	900.879	84.5825	900.879	73.8524	900.879	83.0188	900.879	69.2467	900.879	80.7976	900.879	54.5824	900.879	78.1479	900.879	69.2901	900.879	76.5285	900.879	74.301	900.879	77.2973	900.879	74.7613	900.879	78.6991	900.879	71.7776	900.879	79.2883	900.879	69.6263	900.879	79.4903	900.879	74.5097	900.879	79.7054	900.879	77.3578	900.879	79.3191	900.879	78.5087
933.105	90.926	933.105	90.8526	933.105	90.5338	933.105	90.184	933.105	89.767	933.105	88.757	933.105	88.6264	933.105	86.4363	933.105	87.077	933.105	83.2985	933.105	85.3126	933.105	79.8932	933.105	83.7228	933.105	77.1926	933.105	82.3049	933.105	75.4335	933.105	80.5947	933.105	73.1181	933.105	78.4874	933.105	67.7372	933.105	77.1381	933.105	65.9412	933.105	76.699	933.105	71.7801	933.105	74.9217	933.105	73.7029	933.105	73.0661	933.105	73.1736	933.105	76.1282	933.105	72.7735	933.105	77.9812	933.105	75.2336	933.105	77.8872	933.105	77.5222	933.105	77.9316	933.105	78.2577
965.332	90.4254	965.332	90.2359	965.332	90.1349	965.332	89.4535	965.332	89.4086	965.332	88.0079	965.332	88.1276	965.332	85.8726	965.332	86.2872	965.332	83.0563	965.332	84.3952	965.332	79.6839	965.332	83.1003	965.332	76.3963	965.332	82.2873	965.332	74.6082	965.332	81.3311	965.332	74.1976	965.332	79.3962	965.332	72.7024	965.332	75.6129	965.332	69.5663	965.332	71.8256	965.332	69.6074	965.332	73.6559	965.332	70.7385	965.332	75.1349	965.332	69.5032	965.332	75.5047	965.332	67.0743	965.332	77.4387	965.332	70.9236	965.332	78.8386	965.332	74.7675	965.332	78.3034	965.332	76.7724
1,000.49	90.1913	1,000.49	89.9186	1,000.49	89.9325	1,000.49	88.9985	1,000.49	89.1361	1,000.49	87.3091	1,000.49	87.6743	1,000.49	84.8375	1,000.49	85.6746	1,000.49	81.7904	1,000.49	83.7941	1,000.49	78.5041	1,000.49	82.2748	1,000.49	74.7567	1,000.49	80.8223	1,000.49	69.8077	1,000.49	79.8374	1,000.49	69.6569	1,000.49	79.0442	1,000.49	71.5605	1,000.49	77.868	1,000.49	71.178	1,000.49	76.9783	1,000.49	70.4691	1,000.49	74.794	1,000.49	70.8073	1,000.49	66.4693	1,000.49	71.3111	1,000.49	66.9205	1,000.49	71.9868	1,000.49	73.5776	1,000.49	73.9503	1,000.49	75.5625	1,000.49	76.2086	1,000.49	77.0082	1,000.49	77.3847
1,035.64	90.0388	1,035.64	89.6464	1,035.64	89.8387	1,035.64	88.5094	1,035.64	88.9025	1,035.64	86.4784	1,035.64	87.0025	1,035.64	83.7796	1,035.64	84.4061	1,035.64	81.2533	1,035.64	81.7258	1,035.64	79.45	1,035.64	79.2343	1,035.64	77.1201	1,035.64	78.2988	1,035.64	72.1605	1,035.64	79.4623	1,035.64	60.3384	1,035.64	79.8146	1,035.64	66.0686	1,035.64	77.4578	1,035.64	71.6911	1,035.64	71.7943	1,035.64	73.2927	1,035.64	67.6633	1,035.64	72.3648	1,035.64	74.3652	1,035.64	69.94	1,035.64	76.5187	1,035.64	69.2718	1,035.64	76.4964	1,035.64	72.3119	1,035.64	76.6729	1,035.64	74.9886	1,035.64	76.4395	1,035.64	76.0132
1,072.27	90.9194	1,072.27	90.2828	1,072.27	90.9389	1,072.27	89.0055	1,072.27	90.3681	1,072.27	87.1469	1,072.27	89.031	1,072.27	84.6147	1,072.27	87.1036	1,072.27	81.3257	1,072.27	85.498	1,072.27	78.3095	1,072.27	83.566	1,072.27	76.9407	1,072.27	80.2412	1,072.27	75.8405	1,072.27	77.3575	1,072.27	72.9047	1,072.27	76.3997	1,072.27	66.3531	1,072.27	78.7794	1,072.27	65.7734	1,072.27	79.1788	1,072.27	67.7923	1,072.27	77.2167	1,072.27	67.3789	1,072.27	72.4207	1,072.27	66.0916	1,072.27	67.4474	1,072.27	65.5288	1,072.27	74.7341	1,072.27	69.5678	1,072.27	77.5654	1,072.27	73.8266	1,072.27	77.5681	1,072.27	76.3275
1,108.89	91.0659	1,108.89	90.1794	1,108.89	91.1716	1,108.89	88.8042	1,108.89	90.2016	1,108.89	87.1405	1,108.89	87.8914	1,108.89	84.8479	1,108.89	84.6387	1,108.89	81.1288	1,108.89	81.9747	1,108.89	76.4023	1,108.89	80.4723	1,108.89	76.0825	1,108.89	79.8427	1,108.89	77.868	1,108.89	79.2905	1,108.89	76.1988	1,108.89	76.2362	1,108.89	67.9938	1,108.89	73.0618	1,108.89	67.2755	1,108.89	73.2402	1,108.89	72.3619	1,108.89	72.2004	1,108.89	72.2039	1,108.89	72.7401	1,108.89	68.7137	1,108.89	73.4901	1,108.89	64.8182	1,108.89	73.5864	1,108.89	67.2316	1,108.89	76.7705	1,108.89	70.5571	1,108.89	76.8535	1,108.89	74.0375
1,148.44	91.0146	1,148.44	90.0999	1,148.44	90.7337	1,148.44	88.0092	1,148.44	89.3293	1,148.44	85.2116	1,148.44	86.7046	1,148.44	82.6375	1,148.44	82.8524	1,148.44	80.1557	1,148.44	78.9729	1,148.44	76.5848	1,148.44	77.0054	1,148.44	73.7946	1,148.44	76.9848	1,148.44	75.6974	1,148.44	77.269	1,148.44	75.413	1,148.44	75.3746	1,148.44	70.8507	1,148.44	71.87	1,148.44	66.3091	1,148.44	72.3022	1,148.44	70.3269	1,148.44	73.5582	1,148.44	71.721	1,148.44	71.8795	1,148.44	69.3817	1,148.44	67.0439	1,148.44	66.7889	1,148.44	72.459	1,148.44	69.2837	1,148.44	75.5372	1,148.44	72.8322	1,148.44	75.7791	1,148.44	74.9605
1,189.45	90.6831	1,189.45	90.0904	1,189.45	90.2441	1,189.45	88.7053	1,189.45	88.1983	1,189.45	86.3636	1,189.45	84.0705	1,189.45	83.1129	1,189.45	80.0454	1,189.45	79.5997	1,189.45	79.5186	1,189.45	75.3774	1,189.45	78.512	1,189.45	66.1826	1,189.45	77.5143	1,189.45	71.6804	1,189.45	77.7783	1,189.45	75.7356	1,189.45	76.7346	1,189.45	73.1559	1,189.45	72.4856	1,189.45	65.2165	1,189.45	70.2627	1,189.45	60.3305	1,189.45	72.6256	1,189.45	62.7219	1,189.45	68.317	1,189.45	62.6936	1,189.45	60.6959	1,189.45	58.2195	1,189.45	72.1451	1,189.45	68.6711	1,189.45	76.8511	1,189.45	75.4466	1,189.45	79.2161	1,189.45	78.7654
1,230.47	92.4072	1,230.47	92.1966	1,230.47	92.0998	1,230.47	91.0325	1,230.47	91.3836	1,230.47	88.6398	1,230.47	89.7559	1,230.47	85.5191	1,230.47	87.2177	1,230.47	83.5817	1,230.47	85.2899	1,230.47	83.1824	1,230.47	84.3509	1,230.47	80.9836	1,230.47	83.5915	1,230.47	74.2791	1,230.47	83.2258	1,230.47	74.703	1,230.47	82.8884	1,230.47	77.6966	1,230.47	81.1804	1,230.47	78.7855	1,230.47	76.763	1,230.47	78.9642	1,230.47	74.3182	1,230.47	78.8721	1,230.47	77.6019	1,230.47	76.9954	1,230.47	75.364	1,230.47	73.088	1,230.47	69.4555	1,230.47	74.551	1,230.47	77.9745	1,230.47	77.7249	1,230.47	79.6062	1,230.47	78.7183
1,274.41	90.8235	1,274.41	90.1246	1,274.41	91.0249	1,274.41	88.8702	1,274.41	90.2194	1,274.41	86.4398	1,274.41	88.068	1,274.41	83.004	1,274.41	84.9659	1,274.41	80.9274	1,274.41	82.8535	1,274.41	81.0045	1,274.41	82.4553	1,274.41	79.7457	1,274.41	81.9195	1,274.41	76.9533	1,274.41	80.1497	1,274.41	75.5473	1,274.41	77.9927	1,274.41	75.4259	1,274.41	78.1729	1,274.41	76.157	1,274.41	78.7482	1,274.41	78.8072	1,274.41	78.2263	1,274.41	79.7292	1,274.41	73.8864	1,274.41	77.5421	1,274.41	67.4032	1,274.41	70.6068	1,274.41	70.8946	1,274.41	69.4436	1,274.41	73.9181	1,274.41	70.6798	1,274.41	77.7149	1,274.41	75.8031
1,319.82	91.1828	1,319.82	89.9165	1,319.82	91.1236	1,319.82	87.6854	1,319.82	89.5181	1,319.82	85.445	1,319.82	86.1036	1,319.82	83.4884	1,319.82	82.8896	1,319.82	80.1573	1,319.82	82.5735	1,319.82	77.2966	1,319.82	81.6676	1,319.82	77.462	1,319.82	81.4658	1,319.82	75.3837	1,319.82	81.3657	1,319.82	74.1689	1,319.82	78.1195	1,319.82	76.0172	1,319.82	71.2523	1,319.82	75.0478	1,319.82	68.0935	1,319.82	76.6972	1,319.82	75.379	1,319.82	79.0909	1,319.82	75.208	1,319.82	76.0666	1,319.82	67.2573	1,319.82	65.6266	1,319.82	71.1076	1,319.82	64.2103	1,319.82	74.8165	1,319.82	73.7275	1,319.82	75.5978	1,319.82	76.0107
1,366.7	90.797	1,366.7	89.7806	1,366.7	90.3252	1,366.7	87.6662	1,366.7	88.549	1,366.7	85.4677	1,366.7	85.9041	1,366.7	83.463	1,366.7	83.4497	1,366.7	80.3122	1,366.7	81.023	1,366.7	78.939	1,366.7	80.2419	1,366.7	79.7557	1,366.7	81.6413	1,366.7	76.8508	1,366.7	82.7456	1,366.7	77.1344	1,366.7	82.4026	1,366.7	80.9031	1,366.7	80.347	1,366.7	80.6792	1,366.7	74.9078	1,366.7	76.7231	1,366.7	61.8238	1,366.7	75.3681	1,366.7	69.9339	1,366.7	74.0479	1,366.7	74.6613	1,366.7	72.8603	1,366.7	64.6637	1,366.7	69.4737	1,366.7	76.8009	1,366.7	66.1185	1,366.7	79.9059	1,366.7	73.789
1,413.57	91.423	1,413.57	89.8172	1,413.57	90.5893	1,413.57	86.18	1,413.57	87.8286	1,413.57	83.4841	1,413.57	83.8587	1,413.57	82.4781	1,413.57	79.0791	1,413.57	79.4412	1,413.57	80.421	1,413.57	75.6646	1,413.57	81.751	1,413.57	76.6831	1,413.57	78.9687	1,413.57	74.7952	1,413.57	76.565	1,413.57	76.1821	1,413.57	79.9757	1,413.57	74.5342	1,413.57	80.1023	1,413.57	59.2502	1,413.57	74.7437	1,413.57	71.933	1,413.57	75.5042	1,413.57	76.3636	1,413.57	76.0181	1,413.57	78.3236	1,413.57	67.1078	1,413.57	71.6844	1,413.57	70.5875	1,413.57	62.8573	1,413.57	74.6129	1,413.57	72.3559	1,413.57	75.9845	1,413.57	77.4353
1,463.38	91.7248	1,463.38	89.6069	1,463.38	91.4159	1,463.38	86.7266	1,463.38	87.8084	1,463.38	83.5832	1,463.38	83.523	1,463.38	80.8456	1,463.38	80.8065	1,463.38	83.2589	1,463.38	80.5529	1,463.38	82.674	1,463.38	82.3977	1,463.38	75.4911	1,463.38	83.6432	1,463.38	74.5501	1,463.38	80.228	1,463.38	79.851	1,463.38	72.1451	1,463.38	78.1657	1,463.38	76.8702	1,463.38	68.8497	1,463.38	78.7701	1,463.38	70.6586	1,463.38	75.7801	1,463.38	76.2025	1,463.38	64.6142	1,463.38	77.0554	1,463.38	72.1861	1,463.38	74.8676	1,463.38	69.2048	1,463.38	75.4635	1,463.38	64.3501	1,463.38	77.1218	1,463.38	70.3792	1,463.38	74.1015
1,516.11	91.9146	1,516.11	90.1323	1,516.11	91.418	1,516.11	85.5356	1,516.11	89.0836	1,516.11	79.5678	1,516.11	85.0101	1,516.11	81.7354	1,516.11	82.968	1,516.11	80.3772	1,516.11	84.2897	1,516.11	77.0154	1,516.11	84.9542	1,516.11	79.1488	1,516.11	84.386	1,516.11	81.3979	1,516.11	83.3433	1,516.11	80.0792	1,516.11	82.3408	1,516.11	78.4467	1,516.11	80.6099	1,516.11	77.4519	1,516.11	76.8376	1,516.11	74.0439	1,516.11	73.9633	1,516.11	67.0973	1,516.11	76.0922	1,516.11	77.3441	1,516.11	64.6923	1,516.11	75.3668	1,516.11	72.7053	1,516.11	64.7206	1,516.11	74.1209	1,516.11	69.8179	1,516.11	74.7913	1,516.11	64.4282
1,568.85	92.0091	1,568.85	90.8637	1,568.85	91.6707	1,568.85	87.1589	1,568.85	89.9315	1,568.85	80.6216	1,568.85	85.8008	1,568.85	79.0601	1,568.85	80.1835	1,568.85	78.4165	1,568.85	83.0801	1,568.85	76.4158	1,568.85	83.8396	1,568.85	78.6523	1,568.85	83.1831	1,568.85	83.2885	1,568.85	81.8556	1,568.85	82.9867	1,568.85	79.1457	1,568.85	77.6736	1,568.85	77.4513	1,568.85	78.8657	1,568.85	81.1529	1,568.85	80.8515	1,568.85	78.1342	1,568.85	75.0836	1,568.85	68.4249	1,568.85	71.0151	1,568.85	72.8557	1,568.85	73.127	1,568.85	63.667	1,568.85	63.1545	1,568.85	72.6464	1,568.85	57.3245	1,568.85	74.4878	1,568.85	65.5253
1,624.51	91.4281	1,624.51	89.6604	1,624.51	91.9228	1,624.51	86.6244	1,624.51	89.2207	1,624.51	75.0678	1,624.51	82.8351	1,624.51	80.517	1,624.51	79.6163	1,624.51	83.1241	1,624.51	80.5305	1,624.51	83.2117	1,624.51	83.7642	1,624.51	80.0741	1,624.51	85.5764	1,624.51	73.906	1,624.51	84.4979	1,624.51	77.1724	1,624.51	82.4477	1,624.51	76.458	1,624.51	82.5907	1,624.51	46.5213	1,624.51	80.5054	1,624.51	75.3777	1,624.51	72.7268	1,624.51	79.2465	1,624.51	67.5784	1,624.51	77.0186	1,624.51	72.9302	1,624.51	73.8628	1,624.51	65.5417	1,624.51	67.9848	1,624.51	71.3574	1,624.51	69.0303	1,624.51	74.3291	1,624.51	72.8446
1,681.64	90.1897	1,681.64	87.5239	1,681.64	89.7152	1,681.64	83.6262	1,681.64	87.4776	1,681.64	78.518	1,681.64	83.3863	1,681.64	58.4512	1,681.64	80.8984	1,681.64	76.9506	1,681.64	85.3802	1,681.64	81.9219	1,681.64	85.4499	1,681.64	81.9588	1,681.64	82.3983	1,681.64	81.3088	1,681.64	77.7436	1,681.64	81.0706	1,681.64	74.5667	1,681.64	80.2743	1,681.64	75.3357	1,681.64	75.8353	1,681.64	81.0379	1,681.64	69.162	1,681.64	82.3021	1,681.64	75.4865	1,681.64	79.5498	1,681.64	77.2077	1,681.64	67.0082	1,681.64	74.8295	1,681.64	69.4289	1,681.64	72.8902	1,681.64	68.8297	1,681.64	72.4688	1,681.64	75.6742	1,681.64	69.9845
1,741.7	89.5616	1,741.7	86.0913	1,741.7	89.7557	1,741.7	77.6082	1,741.7	87.0623	1,741.7	74.6672	1,741.7	79.1675	1,741.7	79.3971	1,741.7	79.6888	1,741.7	81.222	1,741.7	84.3898	1,741.7	83.7866	1,741.7	83.9119	1,741.7	83.1991	1,741.7	82.2012	1,741.7	79.4062	1,741.7	80.7276	1,741.7	78.2652	1,741.7	77.8005	1,741.7	79.4235	1,741.7	76.9363	1,741.7	76.7528	1,741.7	78.8681	1,741.7	72.0199	1,741.7	79.9744	1,741.7	74.8702	1,741.7	76.4123	1,741.7	77.4391	1,741.7	75.8005	1,741.7	75.6089	1,741.7	76.2719	1,741.7	73.2737	1,741.7	64.0509	1,741.7	75.4258	1,741.7	78.33	1,741.7	67.7216
1,803.22	89.2635	1,803.22	86.838	1,803.22	89.263	1,803.22	78.3766	1,803.22	86.1087	1,803.22	74.3949	1,803.22	77.2754	1,803.22	79.6278	1,803.22	80.7662	1,803.22	82.3641	1,803.22	81.7998	1,803.22	81.9408	1,803.22	83.5011	1,803.22	77.167	1,803.22	82.5657	1,803.22	80.852	1,803.22	81.4987	1,803.22	82.4789	1,803.22	80.4693	1,803.22	81.7166	1,803.22	77.8156	1,803.22	80.6537	1,803.22	62.4568	1,803.22	78.4839	1,803.22	76.1535	1,803.22	77.8654	1,803.22	77.0416	1,803.22	74.75	1,803.22	66.9388	1,803.22	76.3159	1,803.22	74.3779	1,803.22	72.4343	1,803.22	64.3581	1,803.22	68.1203	1,803.22	73.6715	1,803.22	70.1368
1,866.21	88.8316	1,866.21	86.2549	1,866.21	88.1212	1,866.21	73.9282	1,866.21	84.767	1,866.21	75.9637	1,866.21	71.5239	1,866.21	83.0552	1,866.21	82.5289	1,866.21	85.3644	1,866.21	84.7671	1,866.21	82.1626	1,866.21	84.5319	1,866.21	81.512	1,866.21	82.9638	1,866.21	82.755	1,866.21	78.8013	1,866.21	75.3966	1,866.21	77.6214	1,866.21	76.6268	1,866.21	75.7261	1,866.21	76.1701	1,866.21	75.7237	1,866.21	73.6808	1,866.21	76.2626	1,866.21	75.2926	1,866.21	66.3983	1,866.21	75.5948	1,866.21	71.2246	1,866.21	78.006	1,866.21	70.0703	1,866.21	76.78	1,866.21	67.0237	1,866.21	69.2801	1,866.21	69.1324	1,866.21	69.6352
1,932.13	88.0207	1,932.13	84.7875	1,932.13	88.1964	1,932.13	75.4662	1,932.13	84.8555	1,932.13	75.066	1,932.13	72.53	1,932.13	83.9303	1,932.13	82.3328	1,932.13	83.4576	1,932.13	85.0106	1,932.13	79.3179	1,932.13	86.1293	1,932.13	83.2119	1,932.13	84.7748	1,932.13	83.4149	1,932.13	80.0621	1,932.13	78.977	1,932.13	77.7633	1,932.13	71.4757	1,932.13	75.3472	1,932.13	54.0637	1,932.13	73.1116	1,932.13	72.3088	1,932.13	79.8557	1,932.13	76.6614	1,932.13	75.06	1,932.13	74.9607	1,932.13	74.0541	1,932.13	75.0427	1,932.13	74.5199	1,932.13	73.4571	1,932.13	68.8379	1,932.13	69.6213	1,932.13	73.7923	1,932.13	68.9924
1,999.51	88.3706	1,999.51	85.4936	1,999.51	86.9747	1,999.51	77.0316	1,999.51	81.5918	1,999.51	78.6339	1,999.51	69.1291	1,999.51	84.0296	1,999.51	81.8375	1,999.51	82.6975	1,999.51	86.9653	1,999.51	82.337	1,999.51	86.5785	1,999.51	83.9315	1,999.51	84.5967	1,999.51	79.9825	1,999.51	80.9735	1,999.51	72.3759	1,999.51	79.632	1,999.51	78.8029	1,999.51	83.5223	1,999.51	79.0658	1,999.51	71.023	1,999.51	78.8301	1,999.51	79.5296	1,999.51	79.91	1,999.51	76.6736	1,999.51	71.96	1,999.51	76.3994	1,999.51	71.0326	1,999.51	74.6781	1,999.51	60.8008	1,999.51	70.7858	1,999.51	75.3963	1,999.51	75.5684	1,999.51	62.2965
2,069.82	89.4742	2,069.82	86.4333	2,069.82	87.3127	2,069.82	78.3267	2,069.82	77.4983	2,069.82	77.873	2,069.82	73.9481	2,069.82	83.8091	2,069.82	82.644	2,069.82	85.7716	2,069.82	85.7506	2,069.82	84.9444	2,069.82	84.2278	2,069.82	81.0533	2,069.82	84.2909	2,069.82	75.0875	2,069.82	83.1629	2,069.82	78.4762	2,069.82	76.1383	2,069.82	81.7888	2,069.82	79.919	2,069.82	80.8337	2,069.82	76.1802	2,069.82	74.2299	2,069.82	70.6493	2,069.82	74.3851	2,069.82	74.1526	2,069.82	75.1833	2,069.82	75.3409	2,069.82	78.3962	2,069.82	70.1144	2,069.82	75.879	2,069.82	71.1347	2,069.82	67.1282	2,069.82	70.2214	2,069.82	69.1472
2,143.07	90.6363	2,143.07	87.9929	2,143.07	89.1618	2,143.07	80.6319	2,143.07	79.3326	2,143.07	81.2394	2,143.07	76.1045	2,143.07	85.5598	2,143.07	83.4365	2,143.07	85.5232	2,143.07	85.6658	2,143.07	82.8691	2,143.07	83.0473	2,143.07	78.4665	2,143.07	81.6136	2,143.07	79.905	2,143.07	80.6736	2,143.07	81.6505	2,143.07	72.9526	2,143.07	79.0834	2,143.07	67.6628	2,143.07	78.132	2,143.07	74.3838	2,143.07	75.6961	2,143.07	71.107	2,143.07	71.0424	2,143.07	68.633	2,143.07	71.3169	2,143.07	69.6071	2,143.07	71.7489	2,143.07	56.6038	2,143.07	75.4453	2,143.07	61.9654	2,143.07	54.5625	2,143.07	58.0485	2,143.07	67.583
2,219.24	90.7965	2,219.24	89.5788	2,219.24	88.3822	2,219.24	83.2574	2,219.24	79.5872	2,219.24	83.6031	2,219.24	77.2575	2,219.24	85.7218	2,219.24	84.0517	2,219.24	85.2879	2,219.24	85.6056	2,219.24	85.0857	2,219.24	84.1964	2,219.24	83.6523	2,219.24	81.4326	2,219.24	82.2834	2,219.24	79.294	2,219.24	78.562	2,219.24	75.5029	2,219.24	76.1819	2,219.24	69.5338	2,219.24	74.1893	2,219.24	71.0685	2,219.24	66.7325	2,219.24	75.4184	2,219.24	71.0117	2,219.24	66.2092	2,219.24	76.356	2,219.24	66.6503	2,219.24	75.0997	2,219.24	64.5647	2,219.24	73.3094	2,219.24	63.0612	2,219.24	68.6507	2,219.24	70.2506	2,219.24	69.1761
2,296.88	89.8012	2,296.88	88.7594	2,296.88	86.9578	2,296.88	82.7555	2,296.88	79.1146	2,296.88	81.862	2,296.88	79.8585	2,296.88	84.8658	2,296.88	83.9216	2,296.88	86.5839	2,296.88	86.3529	2,296.88	85.0763	2,296.88	84.0464	2,296.88	82.2468	2,296.88	81.3457	2,296.88	79.4111	2,296.88	77.423	2,296.88	74.6714	2,296.88	75.6046	2,296.88	74.1577	2,296.88	73.0977	2,296.88	73.2951	2,296.88	66.8846	2,296.88	72.6632	2,296.88	73.9883	2,296.88	74.2416	2,296.88	66.652	2,296.88	75.6408	2,296.88	67.215	2,296.88	73.1563	2,296.88	70.5019	2,296.88	56.0336	2,296.88	67.6821	2,296.88	72.9637	2,296.88	67.9037	2,296.88	68.1705
2,378.91	89.5139	2,378.91	87.0569	2,378.91	86.6895	2,378.91	81.0568	2,378.91	73.7087	2,378.91	82.4302	2,378.91	84.7987	2,378.91	86.3569	2,378.91	86.6212	2,378.91	84.8164	2,378.91	84.5712	2,378.91	81.4505	2,378.91	81.767	2,378.91	80.4674	2,378.91	80.1708	2,378.91	77.5757	2,378.91	78.3562	2,378.91	73.4787	2,378.91	78.8059	2,378.91	72.4083	2,378.91	72.4352	2,378.91	72.5184	2,378.91	59.3188	2,378.91	71.0949	2,378.91	62.8955	2,378.91	61.8737	2,378.91	65.9149	2,378.91	61.7113	2,378.91	61.3917	2,378.91	67.8568	2,378.91	62.4722	2,378.91	69.3806	2,378.91	60.4773	2,378.91	53.9021	2,378.91	46.7889	2,378.91	67.7135
2,462.4	90.685	2,462.4	88.6331	2,462.4	87.1429	2,462.4	81.5073	2,462.4	68.8644	2,462.4	82.4308	2,462.4	85.9391	2,462.4	85.581	2,462.4	87.1411	2,462.4	85.2665	2,462.4	83.1412	2,462.4	82.988	2,462.4	80.4204	2,462.4	80.4401	2,462.4	77.5719	2,462.4	77.0541	2,462.4	71.9669	2,462.4	74.6864	2,462.4	72.072	2,462.4	73.2922	2,462.4	63.6227	2,462.4	70.0578	2,462.4	68.2364	2,462.4	70.2676	2,462.4	64.6446	2,462.4	67.2313	2,462.4	57.5881	2,462.4	66.8477	2,462.4	62.3218	2,462.4	69.9261	2,462.4	61.6864	2,462.4	69.947	2,462.4	56.9096	2,462.4	68.0187	2,462.4	57.6075	2,462.4	64.0416
2,548.83	90.9864	2,548.83	89.1314	2,548.83	87.9015	2,548.83	82.0733	2,548.83	75.3176	2,548.83	83.4681	2,548.83	84.9287	2,548.83	85.9424	2,548.83	87.0297	2,548.83	85.0007	2,548.83	84.3899	2,548.83	82.0713	2,548.83	79.1343	2,548.83	79.0683	2,548.83	74.5843	2,548.83	75.4121	2,548.83	70.6197	2,548.83	73.5051	2,548.83	71.0721	2,548.83	72.6674	2,548.83	55.7654	2,548.83	69.5363	2,548.83	63.5513	2,548.83	68.0706	2,548.83	57.3004	2,548.83	66.6678	2,548.83	52.1094	2,548.83	63.4363	2,548.83	59.1995	2,548.83	65.7944	2,548.83	35.4626	2,548.83	66.3049	2,548.83	55.1579	2,548.83	67.4587	2,548.83	56.8391	2,548.83	64.6218
2,639.65	88.5161	2,639.65	88.0685	2,639.65	85.0941	2,639.65	83.1846	2,639.65	81.5191	2,639.65	84.4783	2,639.65	84.7282	2,639.65	85.6701	2,639.65	86.3801	2,639.65	83.812	2,639.65	84.7263	2,639.65	80.6232	2,639.65	80.5998	2,639.65	76.0443	2,639.65	77.3129	2,639.65	72.2955	2,639.65	73.8231	2,639.65	69.7153	2,639.65	71.474	2,639.65	69.4452	2,639.65	64.5396	2,639.65	70.0436	2,639.65	57.5528	2,639.65	69.2405	2,639.65	60.7102	2,639.65	67.4792	2,639.65	61.3143	2,639.65	66.1914	2,639.65	60.6527	2,639.65	63.2501	2,639.65	62.8497	2,639.65	65.409	2,639.65	62.8024	2,639.65	67.6912	2,639.65	59.6476	2,639.65	65.3773
2,731.93	88.2625	2,731.93	88.6407	2,731.93	78.4163	2,731.93	83.5363	2,731.93	84.5378	2,731.93	83.9179	2,731.93	87.5252	2,731.93	85.771	2,731.93	85.985	2,731.93	83.3122	2,731.93	83.787	2,731.93	77.1407	2,731.93	80.9012	2,731.93	74.6315	2,731.93	78.3469	2,731.93	75.1197	2,731.93	76.7873	2,731.93	74.572	2,731.93	70.9931	2,731.93	74.5932	2,731.93	56.5699	2,731.93	72.0975	2,731.93	62.147	2,731.93	71.6049	2,731.93	69.6729	2,731.93	70.6059	2,731.93	61.0101	2,731.93	69.1852	2,731.93	59.6011	2,731.93	65.6583	2,731.93	64.8861	2,731.93	64.379	2,731.93	65.6117	2,731.93	68.596	2,731.93	56.4223	2,731.93	68.9893
2,828.61	90.2382	2,828.61	90.6487	2,828.61	77.0613	2,828.61	83.7038	2,828.61	87.4147	2,828.61	83.2959	2,828.61	90.2093	2,828.61	85.7819	2,828.61	85.764	2,828.61	81.2528	2,828.61	82.4845	2,828.61	78.5433	2,828.61	83.117	2,828.61	80.4345	2,828.61	80.9432	2,828.61	80.5137	2,828.61	80.8456	2,828.61	79.1055	2,828.61	72.748	2,828.61	76.4499	2,828.61	62.0876	2,828.61	74.0974	2,828.61	68.8075	2,828.61	74.7495	2,828.61	74.4931	2,828.61	70.8352	2,828.61	60.2845	2,828.61	74.161	2,828.61	66.5478	2,828.61	74.0457	2,828.61	70.5225	2,828.61	60.4691	2,828.61	65.0885	2,828.61	69.6316	2,828.61	54.9015	2,828.61	73.7181
2,928.22	94.4657	2,928.22	93.5145	2,928.22	89.3719	2,928.22	81.5623	2,928.22	89.1824	2,928.22	85.6037	2,928.22	92.263	2,928.22	86.1213	2,928.22	87.7456	2,928.22	83.8595	2,928.22	81.1153	2,928.22	85.3786	2,928.22	85.4155	2,928.22	85.3473	2,928.22	84.5412	2,928.22	82.3261	2,928.22	82.0446	2,928.22	79.2283	2,928.22	76.8924	2,928.22	78.3565	2,928.22	66.6855	2,928.22	75.2558	2,928.22	78.4959	2,928.22	75.9766	2,928.22	76.0422	2,928.22	74.2092	2,928.22	64.8324	2,928.22	74.4978	2,928.22	68.8912	2,928.22	77.3338	2,928.22	72.7646	2,928.22	73.0997	2,928.22	66.1866	2,928.22	64.0958	2,928.22	63.6998	2,928.22	75.3569
3,030.76	95.2747	3,030.76	91.2032	3,030.76	92.6211	3,030.76	67.7931	3,030.76	84.6536	3,030.76	87.4758	3,030.76	90.7347	3,030.76	86.4226	3,030.76	88.1937	3,030.76	85.5197	3,030.76	79.3053	3,030.76	84.9354	3,030.76	84.75	3,030.76	82.5305	3,030.76	84.6164	3,030.76	79.4349	3,030.76	80.6508	3,030.76	78.356	3,030.76	78.9518	3,030.76	74.5605	3,030.76	69.3424	3,030.76	68.2411	3,030.76	78.7255	3,030.76	68.3846	3,030.76	76.1982	3,030.76	66.636	3,030.76	68.0554	3,030.76	71.3473	3,030.76	66.6732	3,030.76	74.0718	3,030.76	65.4167	3,030.76	72.2036	3,030.76	62.7218	3,030.76	49.4579	3,030.76	63.2098	3,030.76	72.6818
3,137.7	93.8327	3,137.7	87.6286	3,137.7	91.4111	3,137.7	81.998	3,137.7	67.3004	3,137.7	87.905	3,137.7	89.109	3,137.7	85.8587	3,137.7	87.4359	3,137.7	84.1021	3,137.7	78.7359	3,137.7	81.6463	3,137.7	83.2515	3,137.7	79.1127	3,137.7	83.6808	3,137.7	74.6749	3,137.7	80.0338	3,137.7	67.3313	3,137.7	79.9208	3,137.7	65.1215	3,137.7	73.6545	3,137.7	66.8814	3,137.7	73.9439	3,137.7	65.05	3,137.7	74.7163	3,137.7	63.7051	3,137.7	61.1242	3,137.7	62.439	3,137.7	65.5418	3,137.7	66.655	3,137.7	61.9091	3,137.7	69.2194	3,137.7	58.8822	3,137.7	65.2605	3,137.7	62.0757	3,137.7	66.5125
3,249.02	92.6866	3,249.02	86.5262	3,249.02	89.743	3,249.02	84.7961	3,249.02	77.4843	3,249.02	88.4563	3,249.02	88.7388	3,249.02	87.2026	3,249.02	86.2436	3,249.02	84.2273	3,249.02	80.1098	3,249.02	81.4943	3,249.02	81.4986	3,249.02	76.7734	3,249.02	83.342	3,249.02	74.675	3,249.02	79.5003	3,249.02	75.7399	3,249.02	79.4624	3,249.02	73.6049	3,249.02	72.4761	3,249.02	73.0102	3,249.02	73.1959	3,249.02	71.4521	3,249.02	64.8202	3,249.02	70.7473	3,249.02	64.2963	3,249.02	67.1686	3,249.02	63.642	3,249.02	71.7823	3,249.02	66.7966	3,249.02	71.317	3,249.02	63.0479	3,249.02	69.4757	3,249.02	65.0228	3,249.02	67.4659
3,363.28	91.7336	3,363.28	87.804	3,363.28	87.5345	3,363.28	85.586	3,363.28	84.2573	3,363.28	89.1695	3,363.28	89.5652	3,363.28	88.2986	3,363.28	84.9524	3,363.28	85.2683	3,363.28	80.4129	3,363.28	82.988	3,363.28	81.6551	3,363.28	81.1099	3,363.28	82.2391	3,363.28	79.867	3,363.28	77.5484	3,363.28	76.7479	3,363.28	78.626	3,363.28	75.2001	3,363.28	72.539	3,363.28	74.2688	3,363.28	67.2981	3,363.28	72.8197	3,363.28	56.145	3,363.28	71.6463	3,363.28	63.159	3,363.28	71.5275	3,363.28	61.4531	3,363.28	75.617	3,363.28	69.7873	3,363.28	73.8384	3,363.28	62.7369	3,363.28	71.3534	3,363.28	65.9565	3,363.28	71.872
3,481.93	91.7789	3,481.93	88.8077	3,481.93	82.7768	3,481.93	83.8166	3,481.93	86.7778	3,481.93	90.4428	3,481.93	89.4074	3,481.93	88.9967	3,481.93	82.0129	3,481.93	86.38	3,481.93	77.9448	3,481.93	84.7261	3,481.93	79.3958	3,481.93	83.6156	3,481.93	74.451	3,481.93	80.8502	3,481.93	70.1303	3,481.93	78.5865	3,481.93	71.8956	3,481.93	77.3802	3,481.93	66.902	3,481.93	74.9346	3,481.93	63.844	3,481.93	73.408	3,481.93	62.8184	3,481.93	71.9973	3,481.93	62.4048	3,481.93	72.1734	3,481.93	62.2417	3,481.93	75.3742	3,481.93	68.8627	3,481.93	75.4058	3,481.93	59.0673	3,481.93	72.0227	3,481.93	58.8872	3,481.93	71.1097
3,604.98	94.1677	3,604.98	88.966	3,604.98	88.2616	3,604.98	85.2568	3,604.98	86.9976	3,604.98	90.7938	3,604.98	90.2802	3,604.98	86.8317	3,604.98	82.7874	3,604.98	85.4074	3,604.98	72.9475	3,604.98	85.4964	3,604.98	78.2988	3,604.98	83.3595	3,604.98	74.7831	3,604.98	79.9172	3,604.98	71.6124	3,604.98	78.5531	3,604.98	67.4176	3,604.98	75.4337	3,604.98	71.4956	3,604.98	73.7921	3,604.98	58.3214	3,604.98	72.2106	3,604.98	59.4851	3,604.98	68.7614	3,604.98	63.7465	3,604.98	72.0693	3,604.98	49.6862	3,604.98	73.8206	3,604.98	65.3703	3,604.98	74.8501	3,604.98	59.6428	3,604.98	71.6838	3,604.98	53.4462	3,604.98	71.154
3,732.42	94.9274	3,732.42	85.0791	3,732.42	92.4558	3,732.42	88.36	3,732.42	84.1292	3,732.42	88.7189	3,732.42	91.5176	3,732.42	84.5106	3,732.42	86.501	3,732.42	86.6996	3,732.42	82.0848	3,732.42	85.2024	3,732.42	81.6579	3,732.42	81.1484	3,732.42	77.1289	3,732.42	75.792	3,732.42	69.681	3,732.42	73.0907	3,732.42	68.8365	3,732.42	68.7314	3,732.42	75.0716	3,732.42	69.7762	3,732.42	66.4691	3,732.42	66.7437	3,732.42	59.3197	3,732.42	64.1855	3,732.42	67.2203	3,732.42	64.5684	3,732.42	55.8423	3,732.42	66.6324	3,732.42	62.325	3,732.42	71.2017	3,732.42	55.7034	3,732.42	62.9878	3,732.42	59.6279	3,732.42	64.7268
3,864.26	93.1366	3,864.26	76.7924	3,864.26	92.9517	3,864.26	88.8831	3,864.26	58.8274	3,864.26	86.6462	3,864.26	89.8717	3,864.26	86.3578	3,864.26	88.0855	3,864.26	85.1502	3,864.26	86.5233	3,864.26	80.1431	3,864.26	84.652	3,864.26	69.4865	3,864.26	79.9212	3,864.26	71.077	3,864.26	75.5661	3,864.26	70.6435	3,864.26	74.5006	3,864.26	68.6958	3,864.26	73.7152	3,864.26	67.631	3,864.26	64.484	3,864.26	67.8875	3,864.26	62.9944	3,864.26	68.6265	3,864.26	64.0819	3,864.26	63.1288	3,864.26	60.0502	3,864.26	68.6231	3,864.26	68.9144	3,864.26	69.7169	3,864.26	63.5275	3,864.26	64.9365	3,864.26	66.8987	3,864.26	65.3497
4,000.49	92.5443	4,000.49	81.3732	4,000.49	92.8131	4,000.49	88.8921	4,000.49	81.2015	4,000.49	85.8007	4,000.49	89.3081	4,000.49	85.3782	4,000.49	88.3074	4,000.49	81.1343	4,000.49	88.4482	4,000.49	75.395	4,000.49	84.5746	4,000.49	69.4081	4,000.49	78.2072	4,000.49	75.9711	4,000.49	73.5882	4,000.49	69.0962	4,000.49	75.4791	4,000.49	67.778	4,000.49	74.5688	4,000.49	63.9521	4,000.49	59.6162	4,000.49	66.485	4,000.49	66.5898	4,000.49	67.1902	4,000.49	67.4735	4,000.49	64.1129	4,000.49	47.5888	4,000.49	68.4959	4,000.49	68.2714	4,000.49	69.8152	4,000.49	62.6649	4,000.49	69.7031	4,000.49	66.0812	4,000.49	67.3316
4,141.11	92.2512	4,141.11	85.5696	4,141.11	92.262	4,141.11	89.5674	4,141.11	86.3325	4,141.11	86.9066	4,141.11	89.1242	4,141.11	85.3126	4,141.11	87.5495	4,141.11	79.2526	4,141.11	88.7864	4,141.11	78.852	4,141.11	82.7375	4,141.11	71.8354	4,141.11	74.8203	4,141.11	75.1851	4,141.11	74.4233	4,141.11	71.6403	4,141.11	72.6868	4,141.11	70.3568	4,141.11	72.7214	4,141.11	67.202	4,141.11	33.3783	4,141.11	66.2532	4,141.11	64.5465	4,141.11	65.9467	4,141.11	66.7166	4,141.11	63.1597	4,141.11	57.6103	4,141.11	68.5859	4,141.11	62.6781	4,141.11	68.7229	4,141.11	65.4891	4,141.11	69.1885	4,141.11	63.7692	4,141.11	67.9899
4,287.6	93.4603	4,287.6	87.6324	4,287.6	92.2826	4,287.6	88.8668	4,287.6	89.1408	4,287.6	86.7092	4,287.6	89.4683	4,287.6	83.7418	4,287.6	87.3676	4,287.6	79.4078	4,287.6	88.5887	4,287.6	77.3712	4,287.6	80.5314	4,287.6	74.2352	4,287.6	77.9636	4,287.6	75.4224	4,287.6	71.8897	4,287.6	62.3435	4,287.6	66.8696	4,287.6	68.3999	4,287.6	76.2973	4,287.6	62.923	4,287.6	64.813	4,287.6	63.9283	4,287.6	59.6753	4,287.6	62.2465	4,287.6	62.6353	4,287.6	60.3054	4,287.6	61.1995	4,287.6	66.2057	4,287.6	63.8692	4,287.6	68.1787	4,287.6	66.9746	4,287.6	67.0603	4,287.6	62.164	4,287.6	66.9075
4,438.48	95.0197	4,438.48	89.1846	4,438.48	92.1442	4,438.48	91.2208	4,438.48	90.2677	4,438.48	87.2599	4,438.48	90.878	4,438.48	84.6768	4,438.48	87.0991	4,438.48	80.0912	4,438.48	87.7146	4,438.48	78.6781	4,438.48	80.1753	4,438.48	68.1987	4,438.48	76.8768	4,438.48	72.1698	4,438.48	73.4702	4,438.48	67.2492	4,438.48	76.0013	4,438.48	66.2531	4,438.48	76.1604	4,438.48	64.341	4,438.48	69.2368	4,438.48	67.0581	4,438.48	66.2173	4,438.48	57.1363	4,438.48	66.5345	4,438.48	61.5779	4,438.48	68.8906	4,438.48	61.2701	4,438.48	59.9777	4,438.48	66.6773	4,438.48	66.3661	4,438.48	66.7518	4,438.48	52.167	4,438.48	68.3294
4,595.21	96.7125	4,595.21	89.124	4,595.21	95.2643	4,595.21	92.5049	4,595.21	90.5268	4,595.21	88.9981	4,595.21	92.0675	4,595.21	86.8301	4,595.21	86.9169	4,595.21	79.9449	4,595.21	86.5886	4,595.21	77.1112	4,595.21	81.1612	4,595.21	71.5948	4,595.21	79.5747	4,595.21	76.1275	4,595.21	80.0739	4,595.21	68.6777	4,595.21	70.6604	4,595.21	73.3232	4,595.21	77.1756	4,595.21	63.4218	4,595.21	69.8267	4,595.21	70.1488	4,595.21	72.6782	4,595.21	55.9794	4,595.21	68.1115	4,595.21	62.9402	4,595.21	70.4312	4,595.21	61.0658	4,595.21	69.4418	4,595.21	68.8856	4,595.21	66.7808	4,595.21	66.1001	4,595.21	62.5886	4,595.21	68.7528
4,756.35	95.7828	4,756.35	90.434	4,756.35	95.3711	4,756.35	93.1098	4,756.35	92.6328	4,756.35	88.8925	4,756.35	91.9391	4,756.35	84.5156	4,756.35	87.5144	4,756.35	73.2403	4,756.35	84.9098	4,756.35	76.4669	4,756.35	79.5324	4,756.35	62.6111	4,756.35	79.7823	4,756.35	74.975	4,756.35	75.903	4,756.35	61.6578	4,756.35	74.1496	4,756.35	65.7199	4,756.35	79.2237	4,756.35	59.7486	4,756.35	65.3522	4,756.35	61.4472	4,756.35	67.4662	4,756.35	43.5923	4,756.35	68.6429	4,756.35	61.3994	4,756.35	66.5451	4,756.35	57.333	4,756.35	64.1689	4,756.35	62.5084	4,756.35	64.1834	4,756.35	67.3499	4,756.35	58.1789	4,756.35	63.7856
4,924.8	94.8218	4,924.8	89.7302	4,924.8	94.0355	4,924.8	90.8738	4,924.8	91.3895	4,924.8	84.0171	4,924.8	90.1071	4,924.8	78.8604	4,924.8	85.176	4,924.8	69.9208	4,924.8	83.2959	4,924.8	77.031	4,924.8	75.789	4,924.8	72.1421	4,924.8	75.8443	4,924.8	72.7304	4,924.8	77.9372	4,924.8	69.8309	4,924.8	74.643	4,924.8	69.8804	4,924.8	79.6242	4,924.8	66.8641	4,924.8	67.5477	4,924.8	69.4195	4,924.8	69.508	4,924.8	59.5164	4,924.8	72.2652	4,924.8	53.9289	4,924.8	70.043	4,924.8	60.4034	4,924.8	66.9285	4,924.8	65.022	4,924.8	67.9752	4,924.8	67.0047	4,924.8	48.7324	4,924.8	66.5309
5,097.66	94.9802	5,097.66	91.3274	5,097.66	93.8867	5,097.66	90.9242	5,097.66	90.7324	5,097.66	83.1465	5,097.66	87.4603	5,097.66	76.5924	5,097.66	81.7194	5,097.66	76.4335	5,097.66	79.913	5,097.66	78.5638	5,097.66	74.1244	5,097.66	75.0506	5,097.66	78.4444	5,097.66	74.6109	5,097.66	79.7918	5,097.66	68.0258	5,097.66	74.2092	5,097.66	71.7126	5,097.66	75.3975	5,097.66	67.2789	5,097.66	68.832	5,097.66	68.8397	5,097.66	64.357	5,097.66	63.6144	5,097.66	71.7349	5,097.66	61.1809	5,097.66	61.7895	5,097.66	60.8536	5,097.66	67.9167	5,097.66	64.8504	5,097.66	65.5976	5,097.66	66.6865	5,097.66	48.819	5,097.66	64.5212
5,277.83	95.8697	5,277.83	91.5733	5,277.83	94.0371	5,277.83	91.0596	5,277.83	90.6098	5,277.83	82.7155	5,277.83	87.5734	5,277.83	81.2229	5,277.83	81.412	5,277.83	81.6932	5,277.83	84.495	5,277.83	82.3027	5,277.83	84.2216	5,277.83	77.8236	5,277.83	83.8846	5,277.83	78.7928	5,277.83	83.0767	5,277.83	75.7042	5,277.83	75.5794	5,277.83	73.9594	5,277.83	74.7846	5,277.83	72.5194	5,277.83	70.2277	5,277.83	73.9835	5,277.83	57.031	5,277.83	69.3534	5,277.83	67.7591	5,277.83	70.384	5,277.83	70.1259	5,277.83	54.6587	5,277.83	71.3714	5,277.83	66.1549	5,277.83	69.1568	5,277.83	67.8529	5,277.83	58.1914	5,277.83	67.5445
5,463.87	94.9426	5,463.87	90.5144	5,463.87	93.0741	5,463.87	90.6266	5,463.87	88.4587	5,463.87	82.4638	5,463.87	89.7661	5,463.87	84.3387	5,463.87	83.3281	5,463.87	84.5928	5,463.87	83.8553	5,463.87	83.6795	5,463.87	86.3425	5,463.87	81.3948	5,463.87	83.3495	5,463.87	78.7612	5,463.87	82.4242	5,463.87	77.6567	5,463.87	74.1928	5,463.87	74.8156	5,463.87	74.5648	5,463.87	72.8295	5,463.87	72.8004	5,463.87	72.2224	5,463.87	67.7828	5,463.87	69.6055	5,463.87	57.6119	5,463.87	71.7115	5,463.87	66.3849	5,463.87	65.8953	5,463.87	60.6221	5,463.87	65.9198	5,463.87	68.1782	5,463.87	69.0181	5,463.87	61.2353	5,463.87	64.0119
5,657.23	94.7063	5,657.23	91.4525	5,657.23	93.4203	5,657.23	90.8702	5,657.23	86.7369	5,657.23	83.6927	5,657.23	88.4351	5,657.23	86.8537	5,657.23	83.5871	5,657.23	87.0994	5,657.23	83.0724	5,657.23	84.9717	5,657.23	85.4814	5,657.23	82.5663	5,657.23	81.0186	5,657.23	80.9295	5,657.23	80.2754	5,657.23	77.8343	5,657.23	77.4847	5,657.23	74.996	5,657.23	74.8143	5,657.23	74.4984	5,657.23	68.9678	5,657.23	74.0751	5,657.23	67.0645	5,657.23	70.5304	5,657.23	58.7938	5,657.23	69.5885	5,657.23	62.1059	5,657.23	68.1853	5,657.23	61.6035	5,657.23	71.6578	5,657.23	63.2166	5,657.23	70.0397	5,657.23	58.6694	5,657.23	62.2502
5,856.45	93.5412	5,856.45	91.3444	5,856.45	92.403	5,856.45	90.333	5,856.45	87.7466	5,856.45	86.3974	5,856.45	88.0641	5,856.45	88.1037	5,856.45	85.1565	5,856.45	86.8224	5,856.45	85.0175	5,856.45	84.45	5,856.45	84.4138	5,856.45	81.3754	5,856.45	82.0596	5,856.45	79.9056	5,856.45	82.0439	5,856.45	77.0925	5,856.45	78.508	5,856.45	73.9885	5,856.45	70.7642	5,856.45	72.3232	5,856.45	61.6353	5,856.45	70.9103	5,856.45	57.2931	5,856.45	68.713	5,856.45	55.9743	5,856.45	69.7277	5,856.45	52.9835	5,856.45	65.7901	5,856.45	60.9297	5,856.45	70.7767	5,856.45	59.1011	5,856.45	69.0246	5,856.45	57.937	5,856.45	60.1548
6,062.99	94.0472	6,062.99	92.031	6,062.99	92.1084	6,062.99	91.3207	6,062.99	87.5107	6,062.99	86.994	6,062.99	88.5734	6,062.99	87.8686	6,062.99	86.2681	6,062.99	84.7101	6,062.99	84.3554	6,062.99	83.032	6,062.99	82.4904	6,062.99	79.4273	6,062.99	80.1282	6,062.99	77.7197	6,062.99	79.816	6,062.99	73.5006	6,062.99	75.9263	6,062.99	72.2631	6,062.99	65.3489	6,062.99	69.8852	6,062.99	62.2047	6,062.99	68.6787	6,062.99	61.6379	6,062.99	64.9281	6,062.99	60.9541	6,062.99	65.6148	6,062.99	56.2831	6,062.99	65.2757	6,062.99	58.9004	6,062.99	69.8954	6,062.99	61.3117	6,062.99	66.6435	6,062.99	60.8376	6,062.99	65.4179
6,276.86	93.82	6,276.86	91.831	6,276.86	92.5237	6,276.86	91.5471	6,276.86	88.4712	6,276.86	89.2027	6,276.86	89.9448	6,276.86	88.38	6,276.86	87.8857	6,276.86	86.3586	6,276.86	84.7391	6,276.86	84.7285	6,276.86	81.0924	6,276.86	80.7186	6,276.86	81.8547	6,276.86	78.8228	6,276.86	80.6086	6,276.86	75.448	6,276.86	75.9548	6,276.86	74.0752	6,276.86	67.6863	6,276.86	70.968	6,276.86	63.8644	6,276.86	71.1366	6,276.86	46.569	6,276.86	66.1941	6,276.86	57.2655	6,276.86	66.3942	6,276.86	58.0013	6,276.86	65.7507	6,276.86	67.06	6,276.86	71.5602	6,276.86	51.0364	6,276.86	68.9605	6,276.86	64.0645	6,276.86	66.9719
6,498.05	92.2121	6,498.05	91.505	6,498.05	91.5921	6,498.05	91.4108	6,498.05	89.0842	6,498.05	87.8333	6,498.05	89.5383	6,498.05	87.3959	6,498.05	85.9168	6,498.05	85.9765	6,498.05	83.1928	6,498.05	83.3042	6,498.05	78.599	6,498.05	81.8854	6,498.05	80.4407	6,498.05	79.3811	6,498.05	78.6333	6,498.05	76.3446	6,498.05	73.5482	6,498.05	73.9092	6,498.05	65.1659	6,498.05	72.3336	6,498.05	56.4563	6,498.05	70.6756	6,498.05	49.4007	6,498.05	67.1944	6,498.05	54.9543	6,498.05	63.8124	6,498.05	58.4028	6,498.05	67.9912	6,498.05	68.6223	6,498.05	70.0818	6,498.05	63.117	6,498.05	65.895	6,498.05	58.987	6,498.05	63.8693
6,726.56	90.0558	6,726.56	87.6227	6,726.56	91.434	6,726.56	86.4662	6,726.56	89.4945	6,726.56	82.1054	6,726.56	86.5665	6,726.56	84.2428	6,726.56	79.2232	6,726.56	83.0594	6,726.56	71.2643	6,726.56	81.6024	6,726.56	74.7964	6,726.56	80.4406	6,726.56	73.5945	6,726.56	77.0024	6,726.56	65.7953	6,726.56	73.0699	6,726.56	74.2999	6,726.56	70.0657	6,726.56	59.2465	6,726.56	68.4535	6,726.56	63.635	6,726.56	66.944	6,726.56	60.563	6,726.56	61.6616	6,726.56	62.5626	6,726.56	55.1666	6,726.56	58.6568	6,726.56	65.933	6,726.56	64.9934	6,726.56	65.9252	6,726.56	62.5684	6,726.56	63.3121	6,726.56	57.2583	6,726.56	53.007
6,963.87	89.474	6,963.87	86.1774	6,963.87	91.46	6,963.87	85.2736	6,963.87	88.7004	6,963.87	83.3495	6,963.87	86.4034	6,963.87	80.9322	6,963.87	82.6423	6,963.87	75.8855	6,963.87	83.2574	6,963.87	74.8485	6,963.87	83.4653	6,963.87	69.9224	6,963.87	77.0155	6,963.87	66.5283	6,963.87	72.3839	6,963.87	56.5088	6,963.87	70.4232	6,963.87	50.1302	6,963.87	65.5409	6,963.87	47.3185	6,963.87	67.6058	6,963.87	44.2614	6,963.87	60.046	6,963.87	42.2627	6,963.87	61.0036	6,963.87	52.2485	6,963.87	49.8841	6,963.87	52.653	6,963.87	61.1827	6,963.87	45.2343	6,963.87	48.5133	6,963.87	55.063	6,963.87	56.8713	6,963.87	55.3466
7,209.96	89.2678	7,209.96	88.2424	7,209.96	89.5771	7,209.96	88.0272	7,209.96	86.1602	7,209.96	84.3923	7,209.96	86.7468	7,209.96	81.076	7,209.96	84.8965	7,209.96	76.5407	7,209.96	86.6904	7,209.96	71.1774	7,209.96	84.5381	7,209.96	68.0215	7,209.96	74.2621	7,209.96	67.3837	7,209.96	70.5724	7,209.96	65.1708	7,209.96	69.7237	7,209.96	62.4087	7,209.96	68.2871	7,209.96	59.9778	7,209.96	67.8271	7,209.96	62.0629	7,209.96	48.2754	7,209.96	56.0805	7,209.96	52.5825	7,209.96	60.2412	7,209.96	53.2225	7,209.96	55.2381	7,209.96	65.0895	7,209.96	61.3849	7,209.96	58.9539	7,209.96	61.5033	7,209.96	61.0945	7,209.96	58.3884
7,464.84	87.3813	7,464.84	89.3612	7,464.84	89.054	7,464.84	88.5155	7,464.84	86.8175	7,464.84	86.1777	7,464.84	86.9006	7,464.84	82.0116	7,464.84	86.7032	7,464.84	78.3792	7,464.84	87.3427	7,464.84	74.5824	7,464.84	83.6205	7,464.84	74.0462	7,464.84	74.4605	7,464.84	69.15	7,464.84	76.5949	7,464.84	67.0696	7,464.84	71.431	7,464.84	62.7234	7,464.84	67.1997	7,464.84	63.7316	7,464.84	69.0184	7,464.84	61.3302	7,464.84	59.2793	7,464.84	56.9185	7,464.84	52.2136	7,464.84	59.3124	7,464.84	44.7936	7,464.84	53.8622	7,464.84	59.6631	7,464.84	61.7484	7,464.84	48.1195	7,464.84	58.2173	7,464.84	63.6674	7,464.84	51.7562
7,727.05	87.487	7,727.05	89.9755	7,727.05	89.1392	7,727.05	88.287	7,727.05	89.0032	7,727.05	87.0488	7,727.05	88.1545	7,727.05	81.2001	7,727.05	87.1132	7,727.05	80.2623	7,727.05	87.2078	7,727.05	74.3479	7,727.05	81.8568	7,727.05	71.7998	7,727.05	76.6448	7,727.05	66.7065	7,727.05	77.9325	7,727.05	66.0554	7,727.05	72.5783	7,727.05	62.8618	7,727.05	52.1426	7,727.05	63.204	7,727.05	66.9866	7,727.05	59.3933	7,727.05	63.9027	7,727.05	58.651	7,727.05	45.3986	7,727.05	55.4428	7,727.05	43.2423	7,727.05	53.4684	7,727.05	61.2293	7,727.05	60.7217	7,727.05	55.0567	7,727.05	55.7612	7,727.05	62.4755	7,727.05	52.1343
7,999.51	88.4494	7,999.51	89.7245	7,999.51	89.2553	7,999.51	88.4106	7,999.51	89.4939	7,999.51	86.5008	7,999.51	88.1097	7,999.51	81.8439	7,999.51	85.6863	7,999.51	80.4842	7,999.51	85.0485	7,999.51	73.8228	7,999.51	77.352	7,999.51	70.7146	7,999.51	79.147	7,999.51	68.4044	7,999.51	77.4022	7,999.51	65.4856	7,999.51	72.5467	7,999.51	64.5872	7,999.51	57.8616	7,999.51	62.1918	7,999.51	62.1146	7,999.51	60.4557	7,999.51	64.0712	7,999.51	57.1559	7,999.51	49.1533	7,999.51	51.3103	7,999.51	53.6792	7,999.51	49.0971	7,999.51	57.714	7,999.51	59.3525	7,999.51	55.5133	7,999.51	56.2685	7,999.51	60.5048	7,999.51	53.0185
8,282.23	90.0794	8,282.23	90.008	8,282.23	90.0254	8,282.23	88.3508	8,282.23	89.2328	8,282.23	85.2087	8,282.23	87.9568	8,282.23	79.9065	8,282.23	85.9477	8,282.23	77.585	8,282.23	81.8174	8,282.23	70.3398	8,282.23	74.9282	8,282.23	65.5486	8,282.23	80.1141	8,282.23	62.905	8,282.23	76.2046	8,282.23	56.0182	8,282.23	70.2071	8,282.23	57.7356	8,282.23	64.0842	8,282.23	54.5468	8,282.23	53.8007	8,282.23	55.4375	8,282.23	62.1184	8,282.23	55.3824	8,282.23	56.886	8,282.23	49.1343	8,282.23	57.4607	8,282.23	48.4003	8,282.23	62.4522	8,282.23	57.4016	8,282.23	55.3598	8,282.23	51.1872	8,282.23	45.5789	8,282.23	49.1897
8,573.73	88.4699	8,573.73	89.3908	8,573.73	87.4954	8,573.73	87.3302	8,573.73	87.4165	8,573.73	83.4726	8,573.73	86.9633	8,573.73	78.3774	8,573.73	84.6408	8,573.73	74.5815	8,573.73	80.0965	8,573.73	69.121	8,573.73	74.6251	8,573.73	68.8549	8,573.73	77.5999	8,573.73	64.4823	8,573.73	73.3128	8,573.73	64.02	8,573.73	67.7911	8,573.73	57.8418	8,573.73	64.1385	8,573.73	59.79	8,573.73	63.1622	8,573.73	59.4544	8,573.73	58.401	8,573.73	59.7984	8,573.73	53.3587	8,573.73	58.8587	8,573.73	33.5309	8,573.73	56.4362	8,573.73	51.7353	8,573.73	59.4552	8,573.73	53.3853	8,573.73	54.2135	8,573.73	53.5953	8,573.73	49.8717
8,876.95	86.9124	8,876.95	88.3341	8,876.95	86.4571	8,876.95	88.2954	8,876.95	86.0951	8,876.95	86.0372	8,876.95	84.7308	8,876.95	82.1445	8,876.95	81.1418	8,876.95	78.1084	8,876.95	72.3905	8,876.95	75.6156	8,876.95	71.9166	8,876.95	74.321	8,876.95	76.3077	8,876.95	71.291	8,876.95	68.6185	8,876.95	68.7841	8,876.95	66.4946	8,876.95	65.5651	8,876.95	62.109	8,876.95	64.7714	8,876.95	63.646	8,876.95	63.2325	8,876.95	52.0199	8,876.95	62.3597	8,876.95	48.7958	8,876.95	56.8366	8,876.95	55.2158	8,876.95	59.9725	8,876.95	60.6831	8,876.95	61.4399	8,876.95	56.3623	8,876.95	57.2063	8,876.95	52.4739	8,876.95	49.4062
9,188.96	88.3277	9,188.96	89.1062	9,188.96	87.4002	9,188.96	89.1888	9,188.96	86.6737	9,188.96	86.5357	9,188.96	84.7566	9,188.96	82.8449	9,188.96	77.6092	9,188.96	78.3646	9,188.96	66.2759	9,188.96	77.4013	9,188.96	74.1137	9,188.96	75.0109	9,188.96	75.9924	9,188.96	72.8014	9,188.96	66.871	9,188.96	69.7363	9,188.96	68.1986	9,188.96	62.895	9,188.96	61.2472	9,188.96	63.3829	9,188.96	65.6152	9,188.96	64.0874	9,188.96	58.8695	9,188.96	62.9608	9,188.96	56.4843	9,188.96	56.9589	9,188.96	52.0031	9,188.96	58.5792	9,188.96	60.3549	9,188.96	62.5658	9,188.96	58.2019	9,188.96	51.4993	9,188.96	50.267	9,188.96	50.8499
9,514.16	88.2498	9,514.16	88.6641	9,514.16	87.6675	9,514.16	89.1811	9,514.16	86.7843	9,514.16	86.9539	9,514.16	85.4234	9,514.16	83.2835	9,514.16	79.864	9,514.16	80.2884	9,514.16	75.2829	9,514.16	79.1706	9,514.16	72.7923	9,514.16	77.1072	9,514.16	74.6508	9,514.16	73.6779	9,514.16	71.9141	9,514.16	70.3856	9,514.16	69.6499	9,514.16	65.8258	9,514.16	58.698	9,514.16	65.2729	9,514.16	59.9084	9,514.16	63.2371	9,514.16	55.0355	9,514.16	62.3323	9,514.16	58.0918	9,514.16	60.52	9,514.16	54.4288	9,514.16	60.0023	9,514.16	57.1522	9,514.16	60.7379	9,514.16	60.1908	9,514.16	45.8094	9,514.16	54.9625	9,514.16	53.3799
9,849.61	89.0424	9,849.61	88.5912	9,849.61	89.3073	9,849.61	89.7433	9,849.61	87.6621	9,849.61	87.949	9,849.61	84.9487	9,849.61	84.9356	9,849.61	80.6071	9,849.61	81.0623	9,849.61	77.6144	9,849.61	78.1803	9,849.61	73.5563	9,849.61	75.111	9,849.61	74.4529	9,849.61	70.8766	9,849.61	72.5436	9,849.61	68.2128	9,849.61	70.7703	9,849.61	63.0585	9,849.61	62.9755	9,849.61	62.5314	9,849.61	64.0426	9,849.61	62.6245	9,849.61	50.9887	9,849.61	56.279	9,849.61	59.3434	9,849.61	60.1543	9,849.61	47.0319	9,849.61	58.682	9,849.61	58.35	9,849.61	59.24	9,849.61	60.4888	9,849.61	48.8276	9,849.61	50.1371	9,849.61	53.3594
10,196.8	89.685	10,196.8	90.0553	10,196.8	90.354	10,196.8	90.7463	10,196.8	88.8587	10,196.8	88.9065	10,196.8	84.9431	10,196.8	85.0094	10,196.8	80.4735	10,196.8	80.4839	10,196.8	76.6174	10,196.8	77.4934	10,196.8	73.8998	10,196.8	76.0489	10,196.8	72.4465	10,196.8	73.4875	10,196.8	67.3426	10,196.8	70.1655	10,196.8	62.3097	10,196.8	67.6794	10,196.8	57.8287	10,196.8	63.8901	10,196.8	58.3085	10,196.8	64.9366	10,196.8	44.1762	10,196.8	57.1574	10,196.8	53.8055	10,196.8	61.1471	10,196.8	59.7062	10,196.8	59.7897	10,196.8	63.7995	10,196.8	61.1367	10,196.8	59.2599	10,196.8	56.9743	10,196.8	52.0904	10,196.8	58.8946
10,555.7	90.5631	10,555.7	91.4756	10,555.7	90.8437	10,555.7	91.1201	10,555.7	89.6234	10,555.7	88.4293	10,555.7	86.6516	10,555.7	83.4756	10,555.7	81.8173	10,555.7	80.4772	10,555.7	74.9787	10,555.7	77.7429	10,555.7	71.333	10,555.7	76.5992	10,555.7	68.544	10,555.7	72.9575	10,555.7	66.9269	10,555.7	69.4659	10,555.7	59.6571	10,555.7	66.3451	10,555.7	52.3523	10,555.7	63.0777	10,555.7	57.4275	10,555.7	64.1106	10,555.7	54.7249	10,555.7	55.073	10,555.7	52.3408	10,555.7	60.7856	10,555.7	60.585	10,555.7	58.0547	10,555.7	65.1494	10,555.7	61.5285	10,555.7	57.5337	10,555.7	53.6632	10,555.7	61.4178	10,555.7	56.4521
10,927.7	90.1282	10,927.7	91.3531	10,927.7	90.2675	10,927.7	90.7064	10,927.7	88.4468	10,927.7	88.005	10,927.7	84.2537	10,927.7	83.1381	10,927.7	79.8899	10,927.7	80.6338	10,927.7	74.8879	10,927.7	76.9142	10,927.7	73.5442	10,927.7	76.3123	10,927.7	73.751	10,927.7	72.9111	10,927.7	72.3436	10,927.7	68.4676	10,927.7	63.1342	10,927.7	64.3661	10,927.7	57.7475	10,927.7	60.5168	10,927.7	53.8725	10,927.7	62.9341	10,927.7	59.1567	10,927.7	47.1046	10,927.7	48.9839	10,927.7	59.5852	10,927.7	61.1343	10,927.7	56.0847	10,927.7	60.0243	10,927.7	62.1457	10,927.7	59.1866	10,927.7	54.2772	10,927.7	62.4679	10,927.7	55.96
11,313	89.858	11,313	91.0349	11,313	89.1961	11,313	89.8146	11,313	87.6037	11,313	86.6353	11,313	84.3357	11,313	83.1542	11,313	82.0966	11,313	80.9341	11,313	78.813	11,313	78.4443	11,313	73.7836	11,313	76.6379	11,313	74.6081	11,313	72.8251	11,313	71.4408	11,313	67.6112	11,313	61.1747	11,313	64.2662	11,313	59.1831	11,313	55.9337	11,313	56.2593	11,313	62.2335	11,313	48.1836	11,313	45.2498	11,313	41.7442	11,313	58.816	11,313	64.4017	11,313	55.3867	11,313	61.5046	11,313	62.7514	11,313	61.6167	11,313	52.5257	11,313	61.4357	11,313	46.0722
11,712.9	91.4197	11,712.9	91.9146	11,712.9	90.2832	11,712.9	89.879	11,712.9	89.0359	11,712.9	86.5388	11,712.9	86.5708	11,712.9	83.6302	11,712.9	85.3287	11,712.9	81.854	11,712.9	80.9016	11,712.9	79.7643	11,712.9	76.6494	11,712.9	76.8379	11,712.9	76.8919	11,712.9	72.4574	11,712.9	72.1432	11,712.9	66.1075	11,712.9	60.169	11,712.9	63.0534	11,712.9	65.6339	11,712.9	54.7947	11,712.9	52.4472	11,712.9	59.64	11,712.9	41.774	11,712.9	30.2487	11,712.9	51.4157	11,712.9	56.1656	11,712.9	67.2718	11,712.9	52.8503	11,712.9	64.7294	11,712.9	61.7597	11,712.9	63.6148	11,712.9	60.1866	11,712.9	64.1261	11,712.9	57.2358
12,126	93.553	12,126	93.5155	12,126	92.2087	12,126	91.3674	12,126	90.8219	12,126	88.0574	12,126	87.7827	12,126	84.8231	12,126	86.0001	12,126	83.0949	12,126	80.3471	12,126	79.2098	12,126	75.8762	12,126	74.4006	12,126	75.4326	12,126	67.2224	12,126	68.5392	12,126	58.1228	12,126	52.9417	12,126	53.8271	12,126	67.1425	12,126	51.8793	12,126	51.4389	12,126	53.2178	12,126	45.4227	12,126	47.9152	12,126	48.9896	12,126	52.0941	12,126	64.554	12,126	51.347	12,126	64.3045	12,126	61.786	12,126	65.2338	12,126	65.0112	12,126	66.6833	12,126	64.5443
12,553.7	93.8557	12,553.7	93.6888	12,553.7	92.6389	12,553.7	91.3583	12,553.7	90.8418	12,553.7	87.5246	12,553.7	86.8709	12,553.7	85.5123	12,553.7	84.8077	12,553.7	82.5082	12,553.7	79.6956	12,553.7	75.6161	12,553.7	73.9571	12,553.7	66.3251	12,553.7	71.9905	12,553.7	60.3105	12,553.7	60.6342	12,553.7	55.7306	12,553.7	61.4517	12,553.7	54.9671	12,553.7	66.5174	12,553.7	50.7119	12,553.7	61.3724	12,553.7	55.058	12,553.7	48.4088	12,553.7	51.839	12,553.7	52.8028	12,553.7	45.7719	12,553.7	65.8219	12,553.7	52.8734	12,553.7	62.052	12,553.7	64.0851	12,553.7	63.331	12,553.7	66.3239	12,553.7	66.8435	12,553.7	66.3656
12,996.1	92.8153	12,996.1	92.8097	12,996.1	90.8211	12,996.1	90.5984	12,996.1	88.1287	12,996.1	87.0701	12,996.1	83.37	12,996.1	85.556	12,996.1	79.8831	12,996.1	81.802	12,996.1	73.33	12,996.1	75.8851	12,996.1	64.9118	12,996.1	71.2902	12,996.1	63.5727	12,996.1	68.203	12,996.1	58.7632	12,996.1	62.4784	12,996.1	58.8274	12,996.1	59.0661	12,996.1	66.1352	12,996.1	51.7043	12,996.1	65.267	12,996.1	57.275	12,996.1	52.6724	12,996.1	53.3026	12,996.1	56.2838	12,996.1	40.6258	12,996.1	64.4941	12,996.1	50.5407	12,996.1	61.7073	12,996.1	62.5411	12,996.1	59.5643	12,996.1	65.9173	12,996.1	63.3802	12,996.1	64.8187
13,454.6	92.7447	13,454.6	92.7093	13,454.6	90.4778	13,454.6	89.8225	13,454.6	87.7098	13,454.6	85.5444	13,454.6	85.5565	13,454.6	83.3965	13,454.6	81.6752	13,454.6	80.0569	13,454.6	76.5142	13,454.6	74.8024	13,454.6	72.4133	13,454.6	71.9403	13,454.6	75.2594	13,454.6	68.829	13,454.6	74.6182	13,454.6	63.6915	13,454.6	69.0303	13,454.6	59.0937	13,454.6	62.7296	13,454.6	57.626	13,454.6	65.4012	13,454.6	56.7215	13,454.6	60.5809	13,454.6	56.8305	13,454.6	60.2737	13,454.6	44.7337	13,454.6	60.2992	13,454.6	53.7895	13,454.6	61.0767	13,454.6	62.4892	13,454.6	51.4069	13,454.6	67.3778	13,454.6	62.0549	13,454.6	66.3756
13,929.2	92.0099	13,929.2	90.3685	13,929.2	91.9039	13,929.2	86.6271	13,929.2	90.1168	13,929.2	80.0841	13,929.2	89.3568	13,929.2	78.9167	13,929.2	86.6426	13,929.2	78.3522	13,929.2	82.1059	13,929.2	74.7697	13,929.2	70.8509	13,929.2	74.349	13,929.2	79.5495	13,929.2	73.4121	13,929.2	75.565	13,929.2	67.4286	13,929.2	70.2134	13,929.2	63.4476	13,929.2	60.5353	13,929.2	61.7352	13,929.2	63.9775	13,929.2	60.8619	13,929.2	59.5735	13,929.2	59.6047	13,929.2	57.9378	13,929.2	52.8303	13,929.2	52.4794	13,929.2	54.8339	13,929.2	43.109	13,929.2	58.0014	13,929.2	47.5019	13,929.2	65.8885	13,929.2	59.4547	13,929.2	66.262
14,419.9	89.9293	14,419.9	87.3612	14,419.9	90.5189	14,419.9	80.4219	14,419.9	88.8264	14,419.9	71.323	14,419.9	87.6674	14,419.9	74.6922	14,419.9	84.7412	14,419.9	76.9811	14,419.9	78.9481	14,419.9	75.0883	14,419.9	74.5254	14,419.9	74.5313	14,419.9	72.9728	14,419.9	74.5534	14,419.9	71.4501	14,419.9	69.1753	14,419.9	66.1652	14,419.9	64.4029	14,419.9	56.6199	14,419.9	61.2456	14,419.9	60.0022	14,419.9	59.1901	14,419.9	53.5103	14,419.9	57.7012	14,419.9	62.0874	14,419.9	55.0177	14,419.9	59.0823	14,419.9	56.1351	14,419.9	58.0618	14,419.9	60.3319	14,419.9	53.3747	14,419.9	61.4653	14,419.9	61.9059	14,419.9	63.0175
14,928.2	87.7049	14,928.2	86.6712	14,928.2	86.8215	14,928.2	83.2875	14,928.2	84.3739	14,928.2	77.2521	14,928.2	82.1647	14,928.2	77.448	14,928.2	76.8034	14,928.2	77.0952	14,928.2	69.4951	14,928.2	74.9912	14,928.2	64.2456	14,928.2	73.6962	14,928.2	65.7276	14,928.2	72.4285	14,928.2	62.7767	14,928.2	68.2619	14,928.2	60.5779	14,928.2	63.5346	14,928.2	47.6227	14,928.2	59.4435	14,928.2	58.3679	14,928.2	57.0143	14,928.2	45.9511	14,928.2	55.7088	14,928.2	61.8229	14,928.2	49.276	14,928.2	57.2578	14,928.2	55.8422	14,928.2	61.1265	14,928.2	59.8729	14,928.2	56.9008	14,928.2	63.2818	14,928.2	62.6665	14,928.2	60.382
15,455.6	86.6596	15,455.6	85.0366	15,455.6	85.2299	15,455.6	84.4277	15,455.6	82.1388	15,455.6	79.6381	15,455.6	80.4984	15,455.6	79.5668	15,455.6	73.9508	15,455.6	77.5238	15,455.6	73.2939	15,455.6	74.7305	15,455.6	67.6114	15,455.6	72.4813	15,455.6	71.4743	15,455.6	70.9893	15,455.6	61.4324	15,455.6	66.7485	15,455.6	58.8265	15,455.6	63.0345	15,455.6	57.8691	15,455.6	57.3763	15,455.6	58.9594	15,455.6	57.8226	15,455.6	50.8904	15,455.6	57.167	15,455.6	61.2548	15,455.6	51.4811	15,455.6	57.6427	15,455.6	55.5162	15,455.6	61.7796	15,455.6	50.9268	15,455.6	58.011	15,455.6	62.6401	15,455.6	61.4379	15,455.6	59.9475
16,000.5	86.611	16,000.5	85.3311	16,000.5	86.0851	16,000.5	85.0813	16,000.5	84.5028	16,000.5	78.6293	16,000.5	80.6576	16,000.5	79.5672	16,000.5	74.7941	16,000.5	75.1191	16,000.5	72.865	16,000.5	72.1134	16,000.5	71.9261	16,000.5	70.1026	16,000.5	70.3866	16,000.5	67.2092	16,000.5	67.3292	16,000.5	64.6169	16,000.5	63.0928	16,000.5	60.8711	16,000.5	60.7954	16,000.5	51.4705	16,000.5	58.2158	16,000.5	56.9905	16,000.5	53.7367	16,000.5	56.1284	16,000.5	61.0282	16,000.5	53.609	16,000.5	62.0754	16,000.5	52.3174	16,000.5	60.6271	16,000.5	58.2693	16,000.5	59.1783	16,000.5	62.3673	16,000.5	61.3502	16,000.5	60.1766
16,564.5	86.5891	16,564.5	85.2136	16,564.5	85.8676	16,564.5	84.6226	16,564.5	83.8251	16,564.5	76.8075	16,564.5	80.0717	16,564.5	79.0782	16,564.5	74.0779	16,564.5	73.6164	16,564.5	72.8882	16,564.5	70.7494	16,564.5	68.4127	16,564.5	68.2827	16,564.5	65.6964	16,564.5	65.8803	16,564.5	65.7421	16,564.5	62.3349	16,564.5	64.9862	16,564.5	60.6534	16,564.5	55.1643	16,564.5	53.4834	16,564.5	54.6165	16,564.5	52.1486	16,564.5	48.8291	16,564.5	53.4506	16,564.5	61.3948	16,564.5	52.9436	16,564.5	63.4934	16,564.5	57.7754	16,564.5	64.0793	16,564.5	58.3381	16,564.5	58.4449	16,564.5	64.7413	16,564.5	61.6461	16,564.5	63.2159
17,148.9	85.1306	17,148.9	82.9374	17,148.9	84.6039	17,148.9	83.5508	17,148.9	82.913	17,148.9	74.8338	17,148.9	80.2222	17,148.9	78.0397	17,148.9	75.7675	17,148.9	71.6774	17,148.9	71.9234	17,148.9	68.9906	17,148.9	67.0569	17,148.9	65.8195	17,148.9	65.4511	17,148.9	64.6184	17,148.9	68.0057	17,148.9	62.3388	17,148.9	61.8396	17,148.9	60.4068	17,148.9	52.5757	17,148.9	51.8613	17,148.9	54.2584	17,148.9	52.6549	17,148.9	53.3667	17,148.9	54.7847	17,148.9	61.9104	17,148.9	53.9094	17,148.9	64.278	17,148.9	58.9457	17,148.9	66.3569	17,148.9	59.5925	17,148.9	57.9689	17,148.9	64.5521	17,148.9	59.7134	17,148.9	62.0165
17,752.4	83.3551	17,752.4	81.6797	17,752.4	83.7199	17,752.4	82.0053	17,752.4	81.7797	17,752.4	73.9113	17,752.4	80.312	17,752.4	75.5346	17,752.4	76.9514	17,752.4	69.1286	17,752.4	73.2395	17,752.4	64.225	17,752.4	69.2314	17,752.4	65.9235	17,752.4	69.0794	17,752.4	64.0539	17,752.4	67.8319	17,752.4	62.2242	17,752.4	58.8987	17,752.4	59.2491	17,752.4	46.5918	17,752.4	51.6319	17,752.4	36.1446	17,752.4	54.731	17,752.4	52.6255	17,752.4	54.566	17,752.4	60.8422	17,752.4	51.4024	17,752.4	62.5257	17,752.4	59.4989	17,752.4	64.5917	17,752.4	60.8824	17,752.4	55.0741	17,752.4	63.326	17,752.4	59.1616	17,752.4	60.0693
18,379.4	81.1478	18,379.4	79.4632	18,379.4	81.7869	18,379.4	79.7777	18,379.4	79.2339	18,379.4	73.695	18,379.4	78.0834	18,379.4	74.0801	18,379.4	72.8364	18,379.4	65.6871	18,379.4	71.3845	18,379.4	66.3018	18,379.4	68.8494	18,379.4	64.8744	18,379.4	66.1414	18,379.4	61.7174	18,379.4	61.6434	18,379.4	58.0633	18,379.4	59.3338	18,379.4	57.8348	18,379.4	50.6137	18,379.4	48.7001	18,379.4	49.4065	18,379.4	52.3035	18,379.4	55.7195	18,379.4	53.3318	18,379.4	61.9194	18,379.4	46.9485	18,379.4	60.8878	18,379.4	57.0872	18,379.4	63.9174	18,379.4	57.9013	18,379.4	54.701	18,379.4	59.1752	18,379.4	57.1136	18,379.4	55.9093
19,026.9	78.2651	19,026.9	76.8956	19,026.9	79.2656	19,026.9	77.9902	19,026.9	77.6089	19,026.9	71.4583	19,026.9	76.418	19,026.9	72.0622	19,026.9	68.4291	19,026.9	60.3107	19,026.9	70.368	19,026.9	64.9845	19,026.9	65.0182	19,026.9	58.9838	19,026.9	62.0032	19,026.9	54.246	19,026.9	58.3175	19,026.9	53.7116	19,026.9	57.9421	19,026.9	54.334	19,026.9	42.7444	19,026.9	44.9293	19,026.9	49.9058	19,026.9	51.4651	19,026.9	53.0894	19,026.9	54.1367	19,026.9	60.6714	19,026.9	47.0794	19,026.9	60.0917	19,026.9	57.6676	19,026.9	62.3526	19,026.9	57.5179	19,026.9	51.0348	19,026.9	58.4063	19,026.9	52.3785	19,026.9	57.1501
19,697.8	77.6041	19,697.8	76.0112	19,697.8	78.0449	19,697.8	76.6531	19,697.8	75.9355	19,697.8	72.6624	19,697.8	74.82	19,697.8	70.8851	19,697.8	64.4129	19,697.8	65.4868	19,697.8	67.7419	19,697.8	62.0807	19,697.8	62.3593	19,697.8	59.1517	19,697.8	58.2679	19,697.8	54.0151	19,697.8	55.6789	19,697.8	53.192	19,697.8	52.1958	19,697.8	50.4733	19,697.8	45.1718	19,697.8	37.4273	19,697.8	43.3182	19,697.8	50.9756	19,697.8	54.3959	19,697.8	53.5284	19,697.8	57.7081	19,697.8	45.0763	19,697.8	55.8022	19,697.8	55.9628	19,697.8	59.1263	19,697.8	56.0651	19,697.8	47.0386	19,697.8	56.8177	19,697.8	47.7827	19,697.8	56.0162
19,999.5	77.1242	19,999.5	76.0627	19,999.5	77.3222	19,999.5	75.108	19,999.5	75.1068	19,999.5	73.226	19,999.5	74.2101	19,999.5	69.3717	19,999.5	65.1429	19,999.5	66.1669	19,999.5	67.0389	19,999.5	60.2184	19,999.5	65.4073	19,999.5	56.787	19,999.5	60.0773	19,999.5	54.7118	19,999.5	58.3137	19,999.5	53.7976	19,999.5	52.9495	19,999.5	45.7304	19,999.5	51.5151	19,999.5	40.8038	19,999.5	45.5713	19,999.5	49.7214	19,999.5	48.3011	19,999.5	51.4522	19,999.5	55.8321	19,999.5	49.5686	19,999.5	54.3727	19,999.5	50.9429	19,999.5	57.3039	19,999.5	50.3506	19,999.5	49.6468	19,999.5	53.4934	19,999.5	42.5964	19,999.5	56.2713
