"SPL Horizontal"
"On-Axis"		"10°"		"-10°"		"20°"		"-20°"		"30°"		"-30°"		"40°"		"-40°"		"50°"		"-50°"		"60°"		"-60°"		"70°"		"-70°"		"80°"		"-80°"		"90°"		"-90°"		"100°"		"-100°"		"110°"		"-110°"		"120°"		"-120°"		"130°"		"-130°"		"140°"		"-140°"		"150°"		"-150°"		"160°"		"-160°"		"170°"		"-170°"		"180°"
"Frequency / Hz"	"Sound Pressure Level / dB (re 20 µPa/V)  [2.83V at 1m]"	"Frequency / Hz"	"Sound Pressure Level / dB (re 20 µPa/V)  [2.83V at 1m]"	"Frequency / Hz"	"Sound Pressure Level / dB (re 20 µPa/V)  [2.83V at 1m]"	"Frequency / Hz"	"Sound Pressure Level / dB (re 20 µPa/V)  [2.83V at 1m]"	"Frequency / Hz"	"Sound Pressure Level / dB (re 20 µPa/V)  [2.83V at 1m]"	"Frequency / Hz"	"Sound Pressure Level / dB (re 20 µPa/V)  [2.83V at 1m]"	"Frequency / Hz"	"Sound Pressure Level / dB (re 20 µPa/V)  [2.83V at 1m]"	"Frequency / Hz"	"Sound Pressure Level / dB (re 20 µPa/V)  [2.83V at 1m]"	"Frequency / Hz"	"Sound Pressure Level / dB (re 20 µPa/V)  [2.83V at 1m]"	"Frequency / Hz"	"Sound Pressure Level / dB (re 20 µPa/V)  [2.83V at 1m]"	"Frequency / Hz"	"Sound Pressure Level / dB (re 20 µPa/V)  [2.83V at 1m]"	"Frequency / Hz"	"Sound Pressure Level / dB (re 20 µPa/V)  [2.83V at 1m]"	"Frequency / Hz"	"Sound Pressure Level / dB (re 20 µPa/V)  [2.83V at 1m]"	"Frequency / Hz"	"Sound Pressure Level / dB (re 20 µPa/V)  [2.83V at 1m]"	"Frequency / Hz"	"Sound Pressure Level / dB (re 20 µPa/V)  [2.83V at 1m]"	"Frequency / Hz"	"Sound Pressure Level / dB (re 20 µPa/V)  [2.83V at 1m]"	"Frequency / Hz"	"Sound Pressure Level / dB (re 20 µPa/V)  [2.83V at 1m]"	"Frequency / Hz"	"Sound Pressure Level / dB (re 20 µPa/V)  [2.83V at 1m]"	"Frequency / Hz"	"Sound Pressure Level / dB (re 20 µPa/V)  [2.83V at 1m]"	"Frequency / Hz"	"Sound Pressure Level / dB (re 20 µPa/V)  [2.83V at 1m]"	"Frequency / Hz"	"Sound Pressure Level / dB (re 20 µPa/V)  [2.83V at 1m]"	"Frequency / Hz"	"Sound Pressure Level / dB (re 20 µPa/V)  [2.83V at 1m]"	"Frequency / Hz"	"Sound Pressure Level / dB (re 20 µPa/V)  [2.83V at 1m]"	"Frequency / Hz"	"Sound Pressure Level / dB (re 20 µPa/V)  [2.83V at 1m]"	"Frequency / Hz"	"Sound Pressure Level / dB (re 20 µPa/V)  [2.83V at 1m]"	"Frequency / Hz"	"Sound Pressure Level / dB (re 20 µPa/V)  [2.83V at 1m]"	"Frequency / Hz"	"Sound Pressure Level / dB (re 20 µPa/V)  [2.83V at 1m]"	"Frequency / Hz"	"Sound Pressure Level / dB (re 20 µPa/V)  [2.83V at 1m]"	"Frequency / Hz"	"Sound Pressure Level / dB (re 20 µPa/V)  [2.83V at 1m]"	"Frequency / Hz"	"Sound Pressure Level / dB (re 20 µPa/V)  [2.83V at 1m]"	"Frequency / Hz"	"Sound Pressure Level / dB (re 20 µPa/V)  [2.83V at 1m]"	"Frequency / Hz"	"Sound Pressure Level / dB (re 20 µPa/V)  [2.83V at 1m]"	"Frequency / Hz"	"Sound Pressure Level / dB (re 20 µPa/V)  [2.83V at 1m]"	"Frequency / Hz"	"Sound Pressure Level / dB (re 20 µPa/V)  [2.83V at 1m]"	"Frequency / Hz"	"Sound Pressure Level / dB (re 20 µPa/V)  [2.83V at 1m]"	"Frequency / Hz"	"Sound Pressure Level / dB (re 20 µPa/V)  [2.83V at 1m]"
20.5078	62.6119	20.5078	62.5492	20.5078	62.5898	20.5078	62.4019	20.5078	62.4819	20.5078	62.1695	20.5078	62.2863	20.5078	61.8514	20.5078	62.0005	20.5078	61.4475	20.5078	61.6226	20.5078	60.9607	20.5078	61.1524	20.5078	60.3997	20.5078	60.5945	20.5078	59.7838	20.5078	59.9629	20.5078	59.15	20.5078	59.288	20.5078	58.5574	20.5078	58.6244	20.5078	58.0839	20.5078	58.0536	20.5078	57.8024	20.5078	57.6673	20.5078	57.7423	20.5078	57.5253	20.5078	57.8663	20.5078	57.615	20.5078	58.0867	20.5078	57.8531	20.5078	58.306	20.5078	58.1305	20.5078	58.4479	20.5078	58.3548	20.5078	58.4679
21.9727	59.0178	21.9727	58.9227	21.9727	58.9268	21.9727	58.6381	21.9727	58.6444	21.9727	58.1513	21.9727	58.1552	21.9727	57.44	21.9727	57.4323	21.9727	56.4734	21.9727	56.4342	21.9727	55.2188	21.9727	55.1048	21.9727	53.6771	21.9727	53.3883	21.9727	52.0164	21.9727	51.3326	21.9727	50.8877	21.9727	49.5298	21.9727	51.2623	21.9727	49.5406	21.9727	52.9502	21.9727	51.5418	21.9727	54.934	21.9727	53.9359	21.9727	56.6875	21.9727	55.9848	21.9727	58.088	21.9727	57.5905	21.9727	59.1349	21.9727	58.7912	21.9727	59.8497	21.9727	59.6321	21.9727	60.2509	21.9727	60.1451	21.9727	60.3488
23.4375	59.7466	23.4375	59.6979	23.4375	59.6832	23.4375	59.548	23.4375	59.5081	23.4375	59.323	23.4375	59.2353	23.4375	59.0706	23.4375	58.8994	23.4375	58.8692	23.4375	58.5681	23.4375	58.8257	23.4375	58.3522	23.4375	59.0466	23.4375	58.3922	23.4375	59.5835	23.4375	58.796	23.4375	60.397	23.4375	59.5633	23.4375	61.3804	23.4375	60.5825	23.4375	62.4166	23.4375	61.7048	23.4375	63.4132	23.4375	62.8086	23.4375	64.3091	23.4375	63.8154	23.4375	65.0664	23.4375	64.6804	23.4375	65.6626	23.4375	65.3788	23.4375	66.0837	23.4375	65.8973	23.4375	66.3212	23.4375	66.2289	23.4375	66.3704
24.9023	63.8214	24.9023	63.8159	24.9023	63.7921	24.9023	63.7812	24.9023	63.7333	24.9023	63.7338	24.9023	63.6613	24.9023	63.7016	24.9023	63.6046	24.9023	63.7235	24.9023	63.6034	24.9023	63.8443	24.9023	63.7043	24.9023	64.1038	24.9023	63.9496	24.9023	64.5226	24.9023	64.3616	24.9023	65.0919	24.9023	64.9313	24.9023	65.7742	24.9023	65.6203	24.9023	66.5161	24.9023	66.3732	24.9023	67.2615	24.9023	67.1329	24.9023	67.9613	24.9023	67.8496	24.9023	68.5766	24.9023	68.4839	24.9023	69.0784	24.9023	69.0068	24.9023	69.4465	24.9023	69.3977	24.9023	69.6673	24.9023	69.6425	24.9023	69.7334
26.3672	67.4906	26.3672	67.503	26.3672	67.48	26.3672	67.5224	26.3672	67.4727	26.3672	67.561	26.3672	67.4779	26.3672	67.6365	26.3672	67.5115	26.3672	67.7702	26.3672	67.5953	26.3672	67.983	26.3672	67.7536	26.3672	68.2899	26.3672	68.008	26.3672	68.6952	26.3672	68.3705	26.3672	69.1896	26.3672	68.8384	26.3672	69.7505	26.3672	69.3925	26.3672	70.3469	26.3672	70.0012	26.3672	70.9438	26.3672	70.6264	26.3672	71.5068	26.3672	71.2296	26.3672	72.0051	26.3672	71.7764	26.3672	72.4129	26.3672	72.2378	26.3672	72.71	26.3672	72.5918	26.3672	72.882	26.3672	72.8224	26.3672	72.9203
27.832	70.007	27.832	70.0311	27.832	70.0039	27.832	70.0782	27.832	70.0235	27.832	70.1538	27.832	70.0713	27.832	70.2656	27.832	70.156	27.832	70.423	27.832	70.2881	27.832	70.6346	27.832	70.4784	27.832	70.9066	27.832	70.7351	27.832	71.2405	27.832	71.0612	27.832	71.6316	27.832	71.4525	27.832	72.0686	27.832	71.8972	27.832	72.5341	27.832	72.3763	27.832	73.0061	27.832	72.8663	27.832	73.4599	27.832	73.341	27.832	73.8706	27.832	73.7743	27.832	74.2149	27.832	74.1421	27.832	74.4729	27.832	74.4241	27.832	74.6291	27.832	74.6047	27.832	74.6741
29.2969	72.2012	29.2969	72.2163	29.2969	72.2038	29.2969	72.2501	29.2969	72.225	29.2969	72.3059	29.2969	72.2682	29.2969	72.3886	29.2969	72.3384	29.2969	72.5042	29.2969	72.4421	29.2969	72.6591	29.2969	72.586	29.2969	72.8584	29.2969	72.7762	29.2969	73.1051	29.2969	73.0162	29.2969	73.398	29.2969	73.3056	29.2969	73.7313	29.2969	73.6387	29.2969	74.0935	29.2969	74.0043	29.2969	74.4685	29.2969	74.386	29.2969	74.8364	29.2969	74.7636	29.2969	75.1756	29.2969	75.1146	29.2969	75.4644	29.2969	75.4171	29.2969	75.6836	29.2969	75.6514	29.2969	75.8183	29.2969	75.802	29.2969	75.8588
30.7617	73.4082	30.7617	73.4271	30.7617	73.4039	30.7617	73.461	30.7617	73.4154	30.7617	73.512	30.7617	73.4452	30.7617	73.5831	30.7617	73.4973	30.7617	73.6785	30.7617	73.5766	30.7617	73.8028	30.7617	73.6884	30.7617	73.9604	30.7617	73.8374	30.7617	74.154	30.7617	74.0271	30.7617	74.3843	30.7617	74.258	30.7617	74.6479	30.7617	74.5267	30.7617	74.9376	30.7617	74.8252	30.7617	75.2414	30.7617	75.141	30.7617	75.5433	30.7617	75.4572	30.7617	75.8249	30.7617	75.7547	30.7617	76.0671	30.7617	76.0138	30.7617	76.2521	30.7617	76.2163	30.7617	76.3657	30.7617	76.3478	30.7617	76.3987
32.2266	74.0008	32.2266	74.0106	32.2266	74.0024	32.2266	74.0322	32.2266	74.0161	32.2266	74.0675	32.2266	74.0438	32.2266	74.1193	32.2266	74.0887	32.2266	74.1915	32.2266	74.1548	32.2266	74.2883	32.2266	74.2466	32.2266	74.4138	32.2266	74.3686	32.2266	74.5713	32.2266	74.524	32.2266	74.7619	32.2266	74.7142	32.2266	74.9839	32.2266	74.9374	32.2266	75.2314	32.2266	75.1877	32.2266	75.4945	32.2266	75.4548	32.2266	75.7594	32.2266	75.7248	32.2266	76.0093	32.2266	75.9806	32.2266	76.2266	32.2266	76.2044	32.2266	76.3945	32.2266	76.3795	32.2266	76.4997	32.2266	76.4921	32.2266	76.5332
33.6914	74.4146	33.6914	74.418	33.6914	74.4222	33.6914	74.4328	33.6914	74.4413	33.6914	74.4602	33.6914	74.4733	33.6914	74.5023	33.6914	74.5205	33.6914	74.5622	33.6914	74.5858	33.6914	74.643	33.6914	74.6723	33.6914	74.7481	33.6914	74.7831	33.6914	74.8801	33.6914	74.9203	33.6914	75.0402	33.6914	75.0846	33.6914	75.2274	33.6914	75.2743	33.6914	75.4372	33.6914	75.4848	33.6914	75.6619	33.6914	75.7077	33.6914	75.89	33.6914	75.9317	33.6914	76.1074	33.6914	76.1431	33.6914	76.2988	33.6914	76.3268	33.6914	76.4495	33.6914	76.4687	33.6914	76.5472	33.6914	76.557	33.6914	76.584
35.1562	74.2794	35.1562	74.2781	35.1562	74.2964	35.1562	74.2932	35.1562	74.3291	35.1562	74.3259	35.1562	74.378	35.1562	74.3781	35.1562	74.4442	35.1562	74.4518	35.1562	74.529	35.1562	74.5493	35.1562	74.6342	35.1562	74.6725	35.1562	74.761	35.1562	74.8222	35.1562	74.9102	35.1562	74.9978	35.1562	75.0814	35.1562	75.1968	35.1562	75.2724	35.1562	75.4135	35.1562	75.4786	35.1562	75.6397	35.1562	75.6929	35.1562	75.8644	35.1562	75.9055	35.1562	76.0746	35.1562	76.1044	35.1562	76.2567	35.1562	76.2767	35.1562	76.398	35.1562	76.4101	35.1562	76.4882	35.1562	76.4938	35.1562	76.5208
36.6211	75.216	36.6211	75.2237	36.6211	75.2196	36.6211	75.243	36.6211	75.2347	36.6211	75.2743	36.6211	75.2616	36.6211	75.3186	36.6211	75.3012	36.6211	75.377	36.6211	75.3545	36.6211	75.4504	36.6211	75.4227	36.6211	75.5401	36.6211	75.507	36.6211	75.6466	36.6211	75.6083	36.6211	75.7698	36.6211	75.7268	36.6211	75.9082	36.6211	75.8615	36.6211	76.0588	36.6211	76.0098	36.6211	76.2161	36.6211	76.167	36.6211	76.3729	36.6211	76.326	36.6211	76.5199	36.6211	76.4779	36.6211	76.6471	36.6211	76.6126	36.6211	76.7444	36.6211	76.72	36.6211	76.8038	36.6211	76.7911	36.6211	76.8199
38.0859	75.8354	38.0859	75.8431	38.0859	75.8385	38.0859	75.8615	38.0859	75.8524	38.0859	75.891	38.0859	75.8773	38.0859	75.9321	38.0859	75.9137	38.0859	75.9855	38.0859	75.9622	38.0859	76.0516	38.0859	76.0235	38.0859	76.1312	38.0859	76.0983	38.0859	76.2245	38.0859	76.187	38.0859	76.3313	38.0859	76.2897	38.0859	76.4502	38.0859	76.4055	38.0859	76.5789	38.0859	76.5323	38.0859	76.713	38.0859	76.6663	38.0859	76.8465	38.0859	76.8019	38.0859	76.9717	38.0859	76.9317	38.0859	77.08	38.0859	77.0471	38.0859	77.163	38.0859	77.1395	38.0859	77.2134	38.0859	77.2012	38.0859	77.2265
39.5508	76.4962	39.5508	76.5028	39.5508	76.5003	39.5508	76.5203	39.5508	76.5152	39.5508	76.5488	39.5508	76.541	39.5508	76.5883	39.5508	76.5777	39.5508	76.639	39.5508	76.6255	39.5508	76.701	39.5508	76.6845	39.5508	76.7746	39.5508	76.7549	39.5508	76.8597	39.5508	76.8368	39.5508	76.9558	39.5508	76.9298	39.5508	77.0617	39.5508	77.0332	39.5508	77.1755	39.5508	77.145	39.5508	77.2935	39.5508	77.2623	39.5508	77.4108	39.5508	77.3803	39.5508	77.521	39.5508	77.4931	39.5508	77.6166	39.5508	77.5933	39.5508	77.6902	39.5508	77.6734	39.5508	77.7354	39.5508	77.7266	39.5508	77.7479
41.0156	77.1731	41.0156	77.1799	41.0156	77.1773	41.0156	77.1974	41.0156	77.1922	41.0156	77.2257	41.0156	77.2179	41.0156	77.2645	41.0156	77.254	41.0156	77.3138	41.0156	77.3003	41.0156	77.3732	41.0156	77.3567	41.0156	77.4425	41.0156	77.4229	41.0156	77.5213	41.0156	77.4986	41.0156	77.6091	41.0156	77.5834	41.0156	77.7047	41.0156	77.6764	41.0156	77.8063	41.0156	77.7761	41.0156	77.911	41.0156	77.88	41.0156	78.0146	41.0156	77.9844	41.0156	78.1117	41.0156	78.0841	41.0156	78.196	41.0156	78.1729	41.0156	78.2607	41.0156	78.2441	41.0156	78.3003	41.0156	78.2916	41.0156	78.311
42.4805	77.7669	42.4805	77.7741	42.4805	77.7709	42.4805	77.7924	42.4805	77.7861	42.4805	77.8216	42.4805	77.8121	42.4805	77.8613	42.4805	77.8486	42.4805	77.9109	42.4805	77.895	42.4805	77.9698	42.4805	77.9507	42.4805	78.0375	42.4805	78.0152	42.4805	78.1131	42.4805	78.0879	42.4805	78.196	42.4805	78.1681	42.4805	78.285	42.4805	78.2549	42.4805	78.3784	42.4805	78.3469	42.4805	78.4737	42.4805	78.442	42.4805	78.5676	42.4805	78.5371	42.4805	78.6552	42.4805	78.6277	42.4805	78.7311	42.4805	78.7084	42.4805	78.7893	42.4805	78.7731	42.4805	78.8249	42.4805	78.8164	42.4805	78.8343
43.9453	78.2709	43.9453	78.2783	43.9453	78.2749	43.9453	78.2967	43.9453	78.29	43.9453	78.3259	43.9453	78.316	43.9453	78.3653	43.9453	78.3522	43.9453	78.4141	43.9453	78.398	43.9453	78.4715	43.9453	78.4526	43.9453	78.5367	43.9453	78.5152	43.9453	78.6088	43.9453	78.5849	43.9453	78.6868	43.9453	78.6611	43.9453	78.7696	43.9453	78.7427	43.9453	78.8559	43.9453	78.8285	43.9453	78.9436	43.9453	78.9166	43.9453	79.0296	43.9453	79.0043	43.9453	79.1099	43.9453	79.0875	43.9453	79.1796	43.9453	79.1614	43.9453	79.2334	43.9453	79.2206	43.9453	79.2666	43.9453	79.2599	43.9453	79.2757
45.4102	78.6718	45.4102	78.6793	45.4102	78.6762	45.4102	78.6988	45.4102	78.6926	45.4102	78.7295	45.4102	78.7205	45.4102	78.7708	45.4102	78.7592	45.4102	78.8216	45.4102	78.8078	45.4102	78.881	45.4102	78.8652	45.4102	78.9477	45.4102	78.9304	45.4102	79.0206	45.4102	79.0022	45.4102	79.0987	45.4102	79.0795	45.4102	79.1807	45.4102	79.1612	45.4102	79.2652	45.4102	79.2459	45.4102	79.3503	45.4102	79.3318	45.4102	79.4333	45.4102	79.4161	45.4102	79.5105	45.4102	79.4955	45.4102	79.5774	45.4102	79.5653	45.4102	79.6292	45.4102	79.6207	45.4102	79.6615	45.4102	79.6571	45.4102	79.6711
46.875	78.98	46.875	78.9872	46.875	78.9855	46.875	79.0069	46.875	79.0036	46.875	79.0384	46.875	79.0337	46.875	79.081	46.875	79.0749	46.875	79.1333	46.875	79.1262	46.875	79.194	46.875	79.1861	46.875	79.2618	46.875	79.2533	46.875	79.3354	46.875	79.3263	46.875	79.4133	46.875	79.404	46.875	79.4942	46.875	79.4849	46.875	79.5767	46.875	79.5676	46.875	79.6591	46.875	79.6503	46.875	79.7388	46.875	79.7307	46.875	79.8126	46.875	79.8055	46.875	79.8765	46.875	79.8708	46.875	79.9262	46.875	79.9221	46.875	79.9575	46.875	79.9554	46.875	79.9675
48.3398	79.2332	48.3398	79.2393	48.3398	79.2405	48.3398	79.2587	48.3398	79.2611	48.3398	79.2907	48.3398	79.2944	48.3398	79.3342	48.3398	79.3393	48.3398	79.388	48.3398	79.3944	48.3398	79.4505	48.3398	79.4582	48.3398	79.5201	48.3398	79.529	48.3398	79.5951	48.3398	79.6052	48.3398	79.674	48.3398	79.6851	48.3398	79.7554	48.3398	79.7671	48.3398	79.8377	48.3398	79.8497	48.3398	79.9192	48.3398	79.9309	48.3398	79.9975	48.3398	80.0085	48.3398	80.0699	48.3398	80.0795	48.3398	80.1326	48.3398	80.1404	48.3398	80.1818	48.3398	80.1872	48.3398	80.2137	48.3398	80.2165	48.3398	80.2256
51.2695	79.7979	51.2695	79.8	51.2695	79.8083	51.2695	79.8145	51.2695	79.8309	51.2695	79.8408	51.2695	79.8649	51.2695	79.878	51.2695	79.9094	51.2695	79.9247	51.2695	79.9628	51.2695	79.9794	51.2695	80.0233	51.2695	80.0406	51.2695	80.0893	51.2695	80.1064	51.2695	80.1587	51.2695	80.1753	51.2695	80.2298	51.2695	80.2457	51.2695	80.3008	51.2695	80.3162	51.2695	80.3701	51.2695	80.3853	51.2695	80.4362	51.2695	80.4513	51.2695	80.4973	51.2695	80.5123	51.2695	80.5515	51.2695	80.5655	51.2695	80.5965	51.2695	80.6082	51.2695	80.6296	51.2695	80.6375	51.2695	80.6484	51.2695	80.6512
52.7344	79.9887	52.7344	79.9928	52.7344	79.9969	52.7344	80.0091	52.7344	80.0174	52.7344	80.037	52.7344	80.0494	52.7344	80.0753	52.7344	80.0918	52.7344	80.1228	52.7344	80.1431	52.7344	80.1778	52.7344	80.2017	52.7344	80.2386	52.7344	80.2656	52.7344	80.3033	52.7344	80.3329	52.7344	80.3704	52.7344	80.4016	52.7344	80.4381	52.7344	80.47	52.7344	80.5051	52.7344	80.5366	52.7344	80.5699	52.7344	80.5998	52.7344	80.6311	52.7344	80.6581	52.7344	80.6869	52.7344	80.7099	52.7344	80.7349	52.7344	80.753	52.7344	80.7727	52.7344	80.7852	52.7344	80.7979	52.7344	80.8042	52.7344	80.8086
54.1992	80.184	54.1992	80.1918	54.1992	80.1885	54.1992	80.2116	54.1992	80.2052	54.1992	80.2428	54.1992	80.2336	54.1992	80.2841	54.1992	80.2725	54.1992	80.3341	54.1992	80.3205	54.1992	80.391	54.1992	80.376	54.1992	80.4529	54.1992	80.4371	54.1992	80.5178	54.1992	80.5019	54.1992	80.584	54.1992	80.5683	54.1992	80.6497	54.1992	80.6348	54.1992	80.7135	54.1992	80.6998	54.1992	80.7739	54.1992	80.7618	54.1992	80.8297	54.1992	80.8194	54.1992	80.8792	54.1992	80.8709	54.1992	80.9208	54.1992	80.9145	54.1992	80.9523	54.1992	80.9481	54.1992	80.9718	54.1992	80.9697	54.1992	80.9778
55.6641	80.3533	55.6641	80.3598	55.6641	80.3588	55.6641	80.3781	55.6641	80.3763	55.6641	80.4075	55.6641	80.405	55.6641	80.447	55.6641	80.4439	55.6641	80.495	55.6641	80.4917	55.6641	80.5498	55.6641	80.5465	55.6641	80.6094	55.6641	80.6064	55.6641	80.6719	55.6641	80.6696	55.6641	80.7353	55.6641	80.734	55.6641	80.7979	55.6641	80.7978	55.6641	80.8582	55.6641	80.8594	55.6641	80.915	55.6641	80.9173	55.6641	80.967	55.6641	80.9702	55.6641	81.013	55.6641	81.0166	55.6641	81.0516	55.6641	81.0551	55.6641	81.0812	55.6641	81.0839	55.6641	81.1001	55.6641	81.1016	55.6641	81.1071
58.5938	80.7172	58.5938	80.7217	58.5938	80.7233	58.5938	80.7366	58.5938	80.7398	58.5938	80.7613	58.5938	80.7661	58.5938	80.7948	58.5938	80.8012	58.5938	80.8358	58.5938	80.8438	58.5938	80.8825	58.5938	80.8921	58.5938	80.9331	58.5938	80.9444	58.5938	80.9858	58.5938	80.9985	58.5938	81.0385	58.5938	81.0526	58.5938	81.0897	58.5938	81.1049	58.5938	81.138	58.5938	81.1538	58.5938	81.1824	58.5938	81.1981	58.5938	81.222	58.5938	81.237	58.5938	81.2564	58.5938	81.2698	58.5938	81.2848	58.5938	81.2958	58.5938	81.3066	58.5938	81.3144	58.5938	81.3209	58.5938	81.325	58.5938	81.3271
60.0586	80.9424	60.0586	80.9456	60.0586	80.9485	60.0586	80.958	60.0586	80.9638	60.0586	80.9791	60.0586	80.9877	60.0586	81.008	60.0586	81.0193	60.0586	81.0433	60.0586	81.0573	60.0586	81.0837	60.0586	81.1	60.0586	81.1273	60.0586	81.1459	60.0586	81.1723	60.0586	81.1928	60.0586	81.217	60.0586	81.239	60.0586	81.2598	60.0586	81.2827	60.0586	81.2994	60.0586	81.3227	60.0586	81.3351	60.0586	81.3578	60.0586	81.3664	60.0586	81.3876	60.0586	81.393	60.0586	81.4117	60.0586	81.4148	60.0586	81.43	60.0586	81.4316	60.0586	81.4423	60.0586	81.4431	60.0586	81.4486	60.0586	81.4488
62.9883	81.469	62.9883	81.47	62.9883	81.4746	62.9883	81.4776	62.9883	81.4866	62.9883	81.4911	62.9883	81.5047	62.9883	81.5099	62.9883	81.5279	62.9883	81.5329	62.9883	81.5553	62.9883	81.5587	62.9883	81.5853	62.9883	81.5858	62.9883	81.6164	62.9883	81.6127	62.9883	81.6469	62.9883	81.6379	62.9883	81.675	62.9883	81.6601	62.9883	81.6994	62.9883	81.6786	62.9883	81.719	62.9883	81.6932	62.9883	81.7332	62.9883	81.7042	62.9883	81.7421	62.9883	81.7124	62.9883	81.7462	62.9883	81.7187	62.9883	81.7464	62.9883	81.7242	62.9883	81.7439	62.9883	81.7294	62.9883	81.7397	62.9883	81.7347
64.4531	81.7133	64.4531	81.7139	64.4531	81.718	64.4531	81.7195	64.4531	81.7279	64.4531	81.7297	64.4531	81.7423	64.4531	81.7438	64.4531	81.7607	64.4531	81.7607	64.4531	81.7819	64.4531	81.7792	64.4531	81.8046	64.4531	81.7977	64.4531	81.8272	64.4531	81.8148	64.4531	81.8483	64.4531	81.8292	64.4531	81.8663	64.4531	81.8398	64.4531	81.8798	64.4531	81.8463	64.4531	81.888	64.4531	81.8487	64.4531	81.8907	64.4531	81.848	64.4531	81.8883	64.4531	81.8454	64.4531	81.8818	64.4531	81.8427	64.4531	81.8727	64.4531	81.8413	64.4531	81.8628	64.4531	81.8423	64.4531	81.8536	64.4531	81.8465
67.3828	82.1663	67.3828	82.1682	67.3828	82.1693	67.3828	82.1747	67.3828	82.1768	67.3828	82.1853	67.3828	82.1885	67.3828	82.1992	67.3828	82.2034	67.3828	82.2153	67.3828	82.2204	67.3828	82.2321	67.3828	82.2381	67.3828	82.2479	67.3828	82.2548	67.3828	82.261	67.3828	82.2688	67.3828	82.2699	67.3828	82.2785	67.3828	82.2735	67.3828	82.2826	67.3828	82.2711	67.3828	82.2805	67.3828	82.263	67.3828	82.2724	67.3828	82.2504	67.3828	82.2594	67.3828	82.2353	67.3828	82.2432	67.3828	82.22	67.3828	82.2265	67.3828	82.2071	67.3828	82.2117	67.3828	82.1988	67.3828	82.2012	67.3828	82.1967
68.8477	82.3699	68.8477	82.3715	68.8477	82.3729	68.8477	82.3775	68.8477	82.3802	68.8477	82.3875	68.8477	82.3913	68.8477	82.4005	68.8477	82.4055	68.8477	82.4155	68.8477	82.4216	68.8477	82.431	68.8477	82.438	68.8477	82.4454	68.8477	82.4532	68.8477	82.457	68.8477	82.4654	68.8477	82.4641	68.8477	82.4729	68.8477	82.4655	68.8477	82.4745	68.8477	82.4607	68.8477	82.4696	68.8477	82.4499	68.8477	82.4585	68.8477	82.4344	68.8477	82.4422	68.8477	82.4161	68.8477	82.4229	68.8477	82.3979	68.8477	82.4033	68.8477	82.3826	68.8477	82.3864	68.8477	82.3726	68.8477	82.3746	68.8477	82.3698
71.7773	82.807	71.7773	82.808	71.7773	82.8095	71.7773	82.8124	71.7773	82.8154	71.7773	82.8198	71.7773	82.8242	71.7773	82.8294	71.7773	82.8352	71.7773	82.8403	71.7773	82.8472	71.7773	82.8509	71.7773	82.8589	71.7773	82.8597	71.7773	82.8686	71.7773	82.8651	71.7773	82.8747	71.7773	82.8652	71.7773	82.8755	71.7773	82.8591	71.7773	82.8697	71.7773	82.8461	71.7773	82.8568	71.7773	82.8268	71.7773	82.8372	71.7773	82.8026	71.7773	82.8124	71.7773	82.7761	71.7773	82.7847	71.7773	82.7505	71.7773	82.7576	71.7773	82.7294	71.7773	82.7344	71.7773	82.7158	71.7773	82.7184	71.7773	82.7119
74.707	83.2235	74.707	83.2241	74.707	83.2255	74.707	83.2271	74.707	83.2299	74.707	83.2323	74.707	83.2363	74.707	83.2388	74.707	83.2441	74.707	83.2459	74.707	83.2523	74.707	83.2521	74.707	83.2597	74.707	83.2561	74.707	83.2646	74.707	83.256	74.707	83.2654	74.707	83.2503	74.707	83.2606	74.707	83.2379	74.707	83.2488	74.707	83.2184	74.707	83.2297	74.707	83.1922	74.707	83.2035	74.707	83.1612	74.707	83.172	74.707	83.1281	74.707	83.1379	74.707	83.0968	74.707	83.1049	74.707	83.0712	74.707	83.077	74.707	83.0548	74.707	83.0578	74.707	83.0501
77.6367	83.5799	77.6367	83.5796	77.6367	83.5819	77.6367	83.5809	77.6367	83.5855	77.6367	83.5835	77.6367	83.5902	77.6367	83.5869	77.6367	83.5955	77.6367	83.5903	77.6367	83.6006	77.6367	83.5925	77.6367	83.6042	77.6367	83.592	77.6367	83.6048	77.6367	83.5872	77.6367	83.6009	77.6367	83.5765	77.6367	83.5908	77.6367	83.5589	77.6367	83.5735	77.6367	83.5338	77.6367	83.5483	77.6367	83.5019	77.6367	83.5159	77.6367	83.465	77.6367	83.4781	77.6367	83.4264	77.6367	83.4379	77.6367	83.3901	77.6367	83.3994	77.6367	83.3605	77.6367	83.3671	77.6367	83.3416	77.6367	83.345	77.6367	83.3361
79.1016	83.7371	79.1016	83.7355	79.1016	83.7398	79.1016	83.7352	79.1016	83.7435	79.1016	83.7357	79.1016	83.7479	79.1016	83.7367	79.1016	83.7525	79.1016	83.7374	79.1016	83.7563	79.1016	83.7366	79.1016	83.7581	79.1016	83.7329	79.1016	83.7566	79.1016	83.7248	79.1016	83.75	79.1016	83.7106	79.1016	83.7368	79.1016	83.6894	79.1016	83.7159	79.1016	83.6607	79.1016	83.6866	79.1016	83.6252	79.1016	83.6498	79.1016	83.5849	79.1016	83.6073	79.1016	83.5431	79.1016	83.5625	79.1016	83.5042	79.1016	83.5196	79.1016	83.4728	79.1016	83.4836	79.1016	83.4531	79.1016	83.4587	79.1016	83.4481
82.0312	84.0379	82.0312	84.0344	82.0312	84.0414	82.0312	84.031	82.0312	84.0449	82.0312	84.0273	82.0312	84.0481	82.0312	84.023	82.0312	84.0505	82.0312	84.0174	82.0312	84.0513	82.0312	84.0095	82.0312	84.0495	82.0312	83.9981	82.0312	84.0436	82.0312	83.9817	82.0312	84.0319	82.0312	83.9591	82.0312	84.0128	82.0312	83.9293	82.0312	83.9852	82.0312	83.8922	82.0312	83.9485	82.0312	83.8487	82.0312	83.9035	82.0312	83.8012	82.0312	83.8522	82.0312	83.7534	82.0312	83.7983	82.0312	83.7102	82.0312	83.7464	82.0312	83.6766	82.0312	83.7021	82.0312	83.6571	82.0312	83.6702	82.0312	83.6547
84.9609	84.3752	84.9609	84.3743	84.9609	84.3754	84.9609	84.3726	84.9609	84.3751	84.9609	84.3701	84.9609	84.3742	84.9609	84.3663	84.9609	84.3723	84.9609	84.3606	84.9609	84.3691	84.9609	84.3522	84.9609	84.3636	84.9609	84.3397	84.9609	84.3545	84.9609	84.3219	84.9609	84.3405	84.9609	84.2973	84.9609	84.3198	84.9609	84.2649	84.9609	84.2911	84.9609	84.2247	84.9609	84.2539	84.9609	84.1776	84.9609	84.2086	84.9609	84.126	84.9609	84.1572	84.9609	84.074	84.9609	84.1032	84.9609	84.0265	84.9609	84.0514	84.9609	83.9891	84.9609	84.0073	84.9609	83.9665	84.9609	83.9761	84.9609	83.9619
87.8906	84.658	87.8906	84.6593	87.8906	84.6558	87.8906	84.6599	87.8906	84.6529	87.8906	84.6596	87.8906	84.6494	87.8906	84.6583	87.8906	84.6453	87.8906	84.6557	87.8906	84.6405	87.8906	84.6511	87.8906	84.6344	87.8906	84.6433	87.8906	84.6262	87.8906	84.6311	87.8906	84.6148	87.8906	84.6128	87.8906	84.5986	87.8906	84.5875	87.8906	84.5765	87.8906	84.5546	87.8906	84.5475	87.8906	84.5146	87.8906	84.5118	87.8906	84.4698	87.8906	84.4709	87.8906	84.4236	87.8906	84.4275	87.8906	84.3805	87.8906	84.3857	87.8906	84.3456	87.8906	84.3504	87.8906	84.3233	87.8906	84.3261	87.8906	84.3166
90.8203	84.9282	90.8203	84.9268	90.8203	84.9265	90.8203	84.9223	90.8203	84.9215	90.8203	84.915	90.8203	84.9135	90.8203	84.9053	90.8203	84.9025	90.8203	84.8932	90.8203	84.8886	90.8203	84.8783	90.8203	84.8718	90.8203	84.8602	90.8203	84.8514	90.8203	84.8376	90.8203	84.8267	90.8203	84.8096	90.8203	84.7968	90.8203	84.775	90.8203	84.7609	90.8203	84.7334	90.8203	84.7188	90.8203	84.6854	90.8203	84.6711	90.8203	84.6329	90.8203	84.6197	90.8203	84.5794	90.8203	84.5681	90.8203	84.5294	90.8203	84.5205	90.8203	84.4882	90.8203	84.4821	90.8203	84.4606	90.8203	84.4575	90.8203	84.4499
95.2148	85.2624	95.2148	85.2587	95.2148	85.261	95.2148	85.25	95.2148	85.2544	95.2148	85.2368	95.2148	85.243	95.2148	85.2194	95.2148	85.2271	95.2148	85.1982	95.2148	85.2068	95.2148	85.1732	95.2148	85.1823	95.2148	85.1441	95.2148	85.1532	95.2148	85.1103	95.2148	85.1189	95.2148	85.0707	95.2148	85.0785	95.2148	85.0247	95.2148	85.0315	95.2148	84.9722	95.2148	84.9777	95.2148	84.9138	95.2148	84.918	95.2148	84.8519	95.2148	84.8549	95.2148	84.7902	95.2148	84.7922	95.2148	84.7336	95.2148	84.7348	95.2148	84.6878	95.2148	84.6884	95.2148	84.6578	95.2148	84.6581	95.2148	84.6475
98.1445	85.4133	98.1445	85.4087	98.1445	85.4114	98.1445	85.3979	98.1445	85.4031	98.1445	85.3815	98.1445	85.3889	98.1445	85.3601	98.1445	85.3691	98.1445	85.3342	98.1445	85.3444	98.1445	85.3043	98.1445	85.315	98.1445	85.2702	98.1445	85.2808	98.1445	85.2314	98.1445	85.2415	98.1445	85.1872	98.1445	85.1963	98.1445	85.137	98.1445	85.1448	98.1445	85.0807	98.1445	85.0868	98.1445	85.0189	98.1445	85.0235	98.1445	84.954	98.1445	84.9571	98.1445	84.8897	98.1445	84.8915	98.1445	84.831	98.1445	84.8319	98.1445	84.7835	98.1445	84.7838	98.1445	84.7525	98.1445	84.7525	98.1445	84.7417
101.074	85.58	101.074	85.5734	101.074	85.5782	101.074	85.5587	101.074	85.5681	101.074	85.5366	101.074	85.5501	101.074	85.5076	101.074	85.525	101.074	85.4727	101.074	85.4932	101.074	85.4323	101.074	85.4554	101.074	85.3866	101.074	85.4116	101.074	85.3354	101.074	85.3616	101.074	85.2783	101.074	85.305	101.074	85.215	101.074	85.2416	101.074	85.1459	101.074	85.1716	101.074	85.0722	101.074	85.0962	101.074	84.9967	101.074	85.0182	101.074	84.9236	101.074	84.9418	101.074	84.8582	101.074	84.8724	101.074	84.8065	101.074	84.8163	101.074	84.774	101.074	84.7789	101.074	84.7643
105.469	85.7901	105.469	85.7843	105.469	85.7863	105.469	85.769	105.469	85.7728	105.469	85.7447	105.469	85.7504	105.469	85.7124	105.469	85.7197	105.469	85.6729	105.469	85.6816	105.469	85.6266	105.469	85.6368	105.469	85.5739	105.469	85.5855	105.469	85.5145	105.469	85.5276	105.469	85.4484	105.469	85.4628	105.469	85.3752	105.469	85.391	105.469	85.2957	105.469	85.3125	105.469	85.2115	105.469	85.2289	105.469	85.1259	105.469	85.143	105.469	85.0435	105.469	85.0593	105.469	84.9704	105.469	84.9837	105.469	84.9129	105.469	84.9226	105.469	84.8769	105.469	84.882	105.469	84.8662
108.398	85.8682	108.398	85.8625	108.398	85.8645	108.398	85.8479	108.398	85.8516	108.398	85.8251	108.398	85.83	108.398	85.7952	108.398	85.8004	108.398	85.7592	108.398	85.7637	108.398	85.7176	108.398	85.7206	108.398	85.6709	108.398	85.6714	108.398	85.6186	108.398	85.6161	108.398	85.5602	108.398	85.5543	108.398	85.4951	108.398	85.4859	108.398	85.4235	108.398	85.4114	108.398	85.3464	108.398	85.3323	108.398	85.2666	108.398	85.2516	108.398	85.1883	108.398	85.1739	108.398	85.1171	108.398	85.1047	108.398	85.0594	108.398	85.0502	108.398	85.0209	108.398	85.0161	108.398	85.0059
112.793	85.8356	112.793	85.8272	112.793	85.8336	112.793	85.8086	112.793	85.8213	112.793	85.7809	112.793	85.7997	112.793	85.7455	112.793	85.7702	112.793	85.7041	112.793	85.7341	112.793	85.6579	112.793	85.6927	112.793	85.608	112.793	85.6468	112.793	85.5546	112.793	85.5965	112.793	85.4976	112.793	85.5415	112.793	85.4369	112.793	85.4812	112.793	85.3725	112.793	85.4158	112.793	85.3053	112.793	85.3459	112.793	85.2374	112.793	85.2737	112.793	85.1723	112.793	85.2031	112.793	85.1148	112.793	85.1388	112.793	85.0699	112.793	85.0863	112.793	85.0424	112.793	85.0508	112.793	85.0357
117.188	85.8505	117.188	85.8432	117.188	85.8436	117.188	85.8217	117.188	85.8229	117.188	85.7872	117.188	85.7899	117.188	85.7412	117.188	85.7464	117.188	85.6858	117.188	85.6947	117.188	85.6228	117.188	85.6368	117.188	85.5537	117.188	85.5743	117.188	85.4799	117.188	85.508	117.188	85.4021	117.188	85.4382	117.188	85.3213	117.188	85.3649	117.188	85.2385	117.188	85.2881	117.188	85.1559	117.188	85.2088	117.188	85.0761	117.188	85.129	117.188	85.0032	117.188	85.052	117.188	84.9417	117.188	84.9824	117.188	84.8961	117.188	84.9253	117.188	84.8703	117.188	84.8855	117.188	84.8666
120.117	86.0931	120.117	86.091	120.117	86.08	120.117	86.0744	120.117	86.0521	120.117	86.0445	120.117	86.0107	120.117	86.0032	120.117	85.9577	120.117	85.9524	120.117	85.8954	120.117	85.894	120.117	85.8264	120.117	85.8292	120.117	85.7528	120.117	85.7589	120.117	85.6765	120.117	85.6833	120.117	85.5986	120.117	85.6029	120.117	85.52	120.117	85.5184	120.117	85.4414	120.117	85.4314	120.117	85.3641	120.117	85.3451	120.117	85.2898	120.117	85.2636	120.117	85.2214	120.117	85.1921	120.117	85.1625	120.117	85.1356	120.117	85.1172	120.117	85.0983	120.117	85.0896	120.117	85.0828
124.512	86.1738	124.512	86.1597	124.512	86.1717	124.512	86.1305	124.512	86.1535	124.512	86.0882	124.512	86.12	124.512	86.0353	124.512	86.073	124.512	85.9749	124.512	86.0144	124.512	85.9097	124.512	85.9467	124.512	85.8422	124.512	85.8719	124.512	85.7739	124.512	85.7922	124.512	85.7056	124.512	85.7093	124.512	85.6373	124.512	85.6248	124.512	85.569	124.512	85.5409	124.512	85.501	124.512	85.4599	124.512	85.4341	124.512	85.3849	124.512	85.3704	124.512	85.3194	124.512	85.3129	124.512	85.2669	124.512	85.2651	124.512	85.2303	124.512	85.2305	124.512	85.2118	124.512	85.2121
128.906	86.1339	128.906	86.1136	128.906	86.1349	128.906	86.0749	128.906	86.1171	128.906	86.0194	128.906	86.0819	128.906	85.95	128.906	86.0312	128.906	85.87	128.906	85.9677	128.906	85.783	128.906	85.8941	128.906	85.6926	128.906	85.813	128.906	85.6019	128.906	85.7266	128.906	85.5134	128.906	85.6368	128.906	85.429	128.906	85.5455	128.906	85.3499	128.906	85.4546	128.906	85.2773	128.906	85.3664	128.906	85.2123	128.906	85.2839	128.906	85.1563	128.906	85.2103	128.906	85.1111	128.906	85.1486	128.906	85.0783	128.906	85.1015	128.906	85.0598	128.906	85.0707	128.906	85.0569
133.301	86.0954	133.301	86.0809	133.301	86.0904	133.301	86.047	133.301	86.0664	133.301	85.995	133.301	86.0248	133.301	85.9266	133.301	85.9676	133.301	85.8444	133.301	85.8968	133.301	85.7508	133.301	85.8148	133.301	85.6486	133.301	85.7235	133.301	85.5406	133.301	85.6246	133.301	85.4291	133.301	85.5197	133.301	85.317	133.301	85.4105	133.301	85.2072	133.301	85.2993	133.301	85.1028	133.301	85.1892	133.301	85.0076	133.301	85.0842	133.301	84.9251	133.301	84.9888	133.301	84.8589	133.301	84.9076	133.301	84.8118	133.301	84.8445	133.301	84.786	133.301	84.8023	133.301	84.7827
139.16	85.9023	139.16	85.8881	139.16	85.8959	139.16	85.8539	139.16	85.8696	139.16	85.8011	139.16	85.8253	139.16	85.7323	139.16	85.7657	139.16	85.6507	139.16	85.6939	139.16	85.5594	139.16	85.6128	139.16	85.4617	139.16	85.5251	139.16	85.3602	139.16	85.4325	139.16	85.2574	139.16	85.3365	139.16	85.1555	139.16	85.2381	139.16	85.0569	139.16	85.1387	139.16	84.9641	139.16	85.0406	139.16	84.8798	139.16	84.9471	139.16	84.807	139.16	84.8621	139.16	84.7486	139.16	84.7899	139.16	84.7069	139.16	84.734	139.16	84.6836	139.16	84.697	139.16	84.6801
143.555	85.8627	143.555	85.854	143.555	85.8472	143.555	85.8214	143.555	85.8083	143.555	85.7667	143.555	85.7488	143.555	85.6927	143.555	85.6723	143.555	85.6029	143.555	85.5831	143.555	85.5012	143.555	85.4858	143.555	85.391	143.555	85.3846	143.555	85.2758	143.555	85.2826	143.555	85.1587	143.555	85.1819	143.555	85.0425	143.555	85.0838	143.555	84.9306	143.555	84.9889	143.555	84.8266	143.555	84.8981	143.555	84.7343	143.555	84.8127	143.555	84.6577	143.555	84.7348	143.555	84.5996	143.555	84.6669	143.555	84.562	143.555	84.6117	143.555	84.5454	143.555	84.5717	143.555	84.549
147.949	85.9583	147.949	85.9528	147.949	85.9373	147.949	85.9218	147.949	85.8901	147.949	85.868	147.949	85.8187	147.949	85.795	147.949	85.7268	147.949	85.707	147.949	85.6189	147.949	85.6087	147.949	85.5007	147.949	85.5043	147.949	85.3783	147.949	85.3974	147.949	85.2574	147.949	85.2911	147.949	85.1431	147.949	85.1877	147.949	85.0396	147.949	85.0893	147.949	84.9494	147.949	84.9982	147.949	84.8739	147.949	84.9165	147.949	84.8134	147.949	84.8467	147.949	84.7672	147.949	84.7905	147.949	84.7343	147.949	84.7486	147.949	84.7136	147.949	84.721	147.949	84.7043	147.949	84.7066
153.809	85.7668	153.809	85.7465	153.809	85.7602	153.809	85.6999	153.809	85.7271	153.809	85.6293	153.809	85.6693	153.809	85.5378	153.809	85.5892	153.809	85.4297	153.809	85.4904	153.809	85.3098	153.809	85.3764	153.809	85.1832	153.809	85.2513	153.809	85.0553	153.809	85.1194	153.809	84.9311	153.809	84.9856	153.809	84.8152	153.809	84.855	153.809	84.7116	153.809	84.7334	153.809	84.6232	153.809	84.6265	153.809	84.5517	153.809	84.5391	153.809	84.497	153.809	84.4738	153.809	84.4573	153.809	84.4308	153.809	84.4299	153.809	84.4073	153.809	84.4118	153.809	84.3989	153.809	84.4013
159.668	85.5584	159.668	85.5433	159.668	85.5451	159.668	85.5012	159.668	85.504	159.668	85.4353	159.668	85.4372	159.668	85.3497	159.668	85.3487	159.668	85.2493	159.668	85.2429	159.668	85.139	159.668	85.1249	159.668	85.0229	159.668	84.9994	159.668	84.9044	159.668	84.8702	159.668	84.7859	159.668	84.7408	159.668	84.6693	159.668	84.614	159.668	84.5565	159.668	84.493	159.668	84.45	159.668	84.3812	159.668	84.3525	159.668	84.2828	159.668	84.2669	159.668	84.2016	159.668	84.1958	159.668	84.1404	159.668	84.1409	159.668	84.1006	159.668	84.1031	159.668	84.0819	159.668	84.0832
165.527	85.3492	165.527	85.3186	165.527	85.3409	165.527	85.2497	165.527	85.2957	165.527	85.1455	165.527	85.2178	165.527	85.0114	165.527	85.1136	165.527	84.8548	165.527	84.9906	165.527	84.6846	165.527	84.8567	165.527	84.5105	165.527	84.7193	165.527	84.3422	165.527	84.5839	165.527	84.1878	165.527	84.4541	165.527	84.0536	165.527	84.3309	165.527	83.9429	165.527	84.2144	165.527	83.8561	165.527	84.1045	165.527	83.7912	165.527	84.0022	165.527	83.745	165.527	83.9101	165.527	83.7143	165.527	83.8315	165.527	83.6967	165.527	83.7697	165.527	83.6918	165.527	83.7263	165.527	83.701
171.387	85.3227	171.387	85.3297	171.387	85.2806	171.387	85.3034	171.387	85.2029	171.387	85.2467	171.387	85.0907	171.387	85.1632	171.387	84.9469	171.387	85.0569	171.387	84.7762	171.387	84.9318	171.387	84.5857	171.387	84.7921	171.387	84.3841	171.387	84.6424	171.387	84.1822	171.387	84.4876	171.387	83.9918	171.387	84.3331	171.387	83.8243	171.387	84.1851	171.387	83.6893	171.387	84.0497	171.387	83.5922	171.387	83.9318	171.387	83.5338	171.387	83.8339	171.387	83.5097	171.387	83.7557	171.387	83.5123	171.387	83.694	171.387	83.533	171.387	83.6441	171.387	83.5643	171.387	83.6016
177.246	85.1019	177.246	85.0481	177.246	85.1175	177.246	84.9585	177.246	85.0947	177.246	84.8377	177.246	85.0357	177.246	84.6923	177.246	84.9446	177.246	84.5302	177.246	84.8269	177.246	84.3599	177.246	84.6894	177.246	84.1895	177.246	84.5388	177.246	84.0264	177.246	84.3818	177.246	83.8763	177.246	84.2246	177.246	83.7436	177.246	84.0723	177.246	83.6315	177.246	83.9296	177.246	83.542	177.246	83.8007	177.246	83.4756	177.246	83.6891	177.246	83.4315	177.246	83.5975	177.246	83.407	177.246	83.5265	177.246	83.3984	177.246	83.4746	177.246	83.4019	177.246	83.4387	177.246	83.4153
183.105	85.1709	183.105	85.137	183.105	85.1647	183.105	85.0648	183.105	85.119	183.105	84.9579	183.105	85.0364	183.105	84.8221	183.105	84.9212	183.105	84.6647	183.105	84.7797	183.105	84.4944	183.105	84.6195	183.105	84.3204	183.105	84.4494	183.105	84.1518	183.105	84.2788	183.105	83.9966	183.105	84.1171	183.105	83.8614	183.105	83.9726	183.105	83.7507	183.105	83.8515	183.105	83.667	183.105	83.7572	183.105	83.6103	183.105	83.6895	183.105	83.578	183.105	83.6453	183.105	83.5653	183.105	83.6189	183.105	83.5661	183.105	83.6036	183.105	83.5739	183.105	83.5932	183.105	83.5836
188.965	85.0316	188.965	85.0006	188.965	85.0207	188.965	84.9289	188.965	84.969	188.965	84.8202	188.965	84.8798	188.965	84.68	188.965	84.7583	188.965	84.516	188.965	84.6109	188.965	84.337	188.965	84.4455	188.965	84.1523	188.965	84.27	188.965	83.9714	188.965	84.0929	188.965	83.8028	188.965	83.9223	188.965	83.654	188.965	83.766	188.965	83.5305	188.965	83.6305	188.965	83.4357	188.965	83.5209	188.965	83.3704	188.965	83.4392	188.965	83.3318	188.965	83.3844	188.965	83.3147	188.965	83.3521	188.965	83.3117	188.965	83.3354	188.965	83.3155	188.965	83.327	188.965	83.3212
196.289	84.6637	196.289	84.6279	196.289	84.6495	196.289	84.5434	196.289	84.5871	196.289	84.4149	196.289	84.4815	196.289	84.2505	196.289	84.3403	196.289	84.0612	196.289	84.1733	196.289	83.8605	196.289	83.992	196.289	83.6632	196.289	83.8084	196.289	83.4837	196.289	83.6347	196.289	83.3344	196.289	83.4816	196.289	83.2239	196.289	83.3579	196.289	83.1557	196.289	83.2695	196.289	83.1282	196.289	83.2183	196.289	83.1353	196.289	83.2019	196.289	83.167	196.289	83.2132	196.289	83.2111	196.289	83.2412	196.289	83.2551	196.289	83.2729	196.289	83.288	196.289	83.2963	196.289	83.3025
203.613	84.9526	203.613	84.9061	203.613	84.9401	203.613	84.801	203.613	84.8707	203.613	84.6401	203.613	84.7485	203.613	84.4292	203.613	84.5797	203.613	84.177	203.613	84.3728	203.613	83.8958	203.613	84.1379	203.613	83.6014	203.613	83.8874	203.613	83.3126	203.613	83.635	203.613	83.0505	203.613	83.3957	203.613	82.8354	203.613	83.1842	203.613	82.6839	203.613	83.0141	203.613	82.6037	203.613	82.8949	203.613	82.5917	203.613	82.8294	203.613	82.6331	203.613	82.812	203.613	82.7052	203.613	82.8281	203.613	82.7831	203.613	82.8579	203.613	82.8453	203.613	82.8802	203.613	82.8786
210.938	84.8202	210.938	84.825	210.938	84.7633	210.938	84.7765	210.938	84.6562	210.938	84.6746	210.938	84.502	210.938	84.5201	210.938	84.305	210.938	84.3155	210.938	84.0714	210.938	84.0654	210.938	83.8093	210.938	83.7776	210.938	83.5295	210.938	83.4642	210.938	83.2446	210.938	83.1415	210.938	82.9695	210.938	82.8302	210.938	82.7196	210.938	82.553	210.938	82.5093	210.938	82.3312	210.938	82.3492	210.938	82.1785	210.938	82.2436	210.938	82.0973	210.938	82.1877	210.938	82.0763	210.938	82.1687	210.938	82.0943	210.938	82.1682	210.938	82.127	210.938	82.1677	210.938	82.1548
218.262	84.6064	218.262	84.5853	218.262	84.5838	218.262	84.523	218.262	84.517	218.262	84.4236	218.262	84.4074	218.262	84.2918	218.262	84.2586	218.262	84.1322	218.262	84.0756	218.262	83.9487	218.262	83.8647	218.262	83.7447	218.262	83.6336	218.262	83.5242	218.262	83.3912	218.262	83.293	218.262	83.148	218.262	83.0606	218.262	82.9165	218.262	82.8403	218.262	82.7098	218.262	82.6478	218.262	82.5401	218.262	82.4969	218.262	82.4156	218.262	82.3947	218.262	82.3383	218.262	82.3381	218.262	82.3018	218.262	82.3147	218.262	82.2934	218.262	82.3081	218.262	82.2983	218.262	82.3046
225.586	84.3205	225.586	84.2902	225.586	84.2969	225.586	84.2103	225.586	84.2181	225.586	84.0883	225.586	84.0865	225.586	83.9342	225.586	83.9069	225.586	83.7587	225.586	83.6867	225.586	83.5722	225.586	83.4351	225.586	83.3829	225.586	83.1631	225.586	83.1961	225.586	82.8839	225.586	83.015	225.586	82.6128	225.586	82.8417	225.586	82.3667	225.586	82.6793	225.586	82.1626	225.586	82.5326	225.586	82.0142	225.586	82.4071	225.586	81.9279	225.586	82.3065	225.586	81.9003	225.586	82.2304	225.586	81.9185	225.586	82.1729	225.586	81.9645	225.586	82.1242	225.586	82.0206	225.586	82.0749
232.91	84.3642	232.91	84.3053	232.91	84.3568	232.91	84.1815	232.91	84.285	232.91	83.9982	232.91	84.154	232.91	83.7639	232.91	83.972	232.91	83.491	232.91	83.7497	232.91	83.1945	232.91	83.4992	232.91	82.8916	232.91	83.2331	232.91	82.6005	232.91	82.9642	232.91	82.3392	232.91	82.7052	232.91	82.1241	232.91	82.469	232.91	81.9677	232.91	82.2686	232.91	81.8764	232.91	82.1159	232.91	81.848	232.91	82.0182	232.91	81.8701	232.91	81.9752	232.91	81.9222	232.91	81.976	232.91	81.9804	232.91	82.0017	232.91	82.024	232.91	82.0297	232.91	82.0407
241.699	84.1089	241.699	84.0791	241.699	84.0709	241.699	83.9842	241.699	83.9647	241.699	83.8291	241.699	83.7929	241.699	83.6203	241.699	83.5602	241.699	83.3658	241.699	83.2736	241.699	83.0752	241.699	82.9413	241.699	82.76	241.699	82.5731	241.699	82.4346	241.699	82.1806	241.699	82.1166	241.699	81.7797	241.699	81.8258	241.699	81.3939	241.699	81.5812	241.699	81.0548	241.699	81.3964	241.699	80.7981	241.699	81.2747	241.699	80.6517	241.699	81.2071	241.699	80.6213	241.699	81.1737	241.699	80.6851	241.699	81.1491	241.699	80.8026	241.699	81.1092	241.699	80.9305	241.699	81.0374
250.488	84.0388	250.488	83.9375	250.488	84.0669	250.488	83.7672	250.488	84.0211	250.488	83.5356	250.488	83.9044	250.488	83.2543	250.488	83.7223	250.488	82.937	250.488	83.4826	250.488	82.5986	250.488	83.1954	250.488	82.2534	250.488	82.8715	250.488	81.9147	250.488	82.5226	250.488	81.5952	250.488	82.1605	250.488	81.3085	250.488	81.7981	250.488	81.0685	250.488	81.4513	250.488	80.8872	250.488	81.1399	250.488	80.7693	250.488	80.8866	250.488	80.7082	250.488	80.7101	250.488	80.6859	250.488	80.6159	250.488	80.6793	250.488	80.5918	250.488	80.6683	250.488	80.6109	250.488	80.6434
259.277	84.5145	259.277	84.4753	259.277	84.4864	259.277	84.3688	259.277	84.3941	259.277	84.1986	259.277	84.2428	259.277	83.9712	259.277	84.0396	259.277	83.6953	259.277	83.7914	259.277	83.3798	259.277	83.5046	259.277	83.0317	259.277	83.1841	259.277	82.6557	259.277	82.8336	259.277	82.2561	259.277	82.4571	259.277	81.8406	259.277	82.0607	259.277	81.4249	259.277	81.6561	259.277	81.0346	259.277	81.2621	259.277	80.7006	259.277	80.9036	259.277	80.4469	259.277	80.6059	259.277	80.28	259.277	80.3859	259.277	80.1873	259.277	80.2451	259.277	80.1467	259.277	80.1701	259.277	80.1416
268.066	84.0713	268.066	84.0254	268.066	84.0465	268.066	83.9083	268.066	83.9567	268.066	83.7256	268.066	83.8127	268.066	83.4901	268.066	83.6287	268.066	83.2214	268.066	83.4218	268.066	82.9446	268.066	83.2099	268.066	82.6853	268.066	83.0083	268.066	82.4636	268.066	82.8273	268.066	82.2883	268.066	82.6703	268.066	82.1564	268.066	82.5349	268.066	82.058	268.066	82.4152	268.066	81.9827	268.066	82.3065	268.066	81.9252	268.066	82.207	268.066	81.885	268.066	82.1185	268.066	81.8639	268.066	82.0438	268.066	81.8617	268.066	81.9838	268.066	81.8756	268.066	81.9373	268.066	81.9015
276.855	83.2676	276.855	83.1964	276.855	83.2704	276.855	83.0592	276.855	83.204	276.855	82.8604	276.855	83.0702	276.855	82.6062	276.855	82.874	276.855	82.3053	276.855	82.6251	276.855	81.9702	276.855	82.3381	276.855	81.6184	276.855	82.0339	276.855	81.2731	276.855	81.7374	276.855	80.963	276.855	81.4748	276.855	80.7188	276.855	81.267	276.855	80.5664	276.855	81.1247	276.855	80.5171	276.855	81.0461	276.855	80.5615	276.855	81.0196	276.855	80.6708	276.855	81.0287	276.855	80.8071	276.855	81.0562	276.855	80.935	276.855	81.0852	276.855	81.031	276.855	81.0997	276.855	81.0851
287.109	83.3961	287.109	83.3598	287.109	83.328	287.109	83.2164	287.109	83.1676	287.109	82.9737	287.109	82.9367	287.109	82.6519	287.109	82.6658	287.109	82.2853	287.109	82.3908	287.109	81.9204	287.109	82.1454	287.109	81.6066	287.109	81.9505	287.109	81.3777	287.109	81.8062	287.109	81.2364	287.109	81.6939	287.109	81.1539	287.109	81.5869	287.109	81.0882	287.109	81.4648	287.109	81.0083	287.109	81.322	287.109	80.907	287.109	81.1686	287.109	80.7998	287.109	81.022	287.109	80.7119	287.109	80.8974	287.109	80.6619	287.109	80.8005	287.109	80.6535	287.109	80.7287	287.109	80.6788
297.363	85.1214	297.363	85.0868	297.363	85.0398	297.363	84.9368	297.363	84.8411	297.363	84.672	297.363	84.5256	297.363	84.2933	297.363	84.0969	297.363	83.8048	297.363	83.566	297.363	83.2192	297.363	82.9587	297.363	82.5682	297.363	82.3241	297.363	81.9147	297.363	81.7402	297.363	81.3574	297.363	81.3028	297.363	81.0075	297.363	81.087	297.363	80.928	297.363	81.1022	297.363	81.087	297.363	81.2869	297.363	81.3801	297.363	81.5494	297.363	81.6978	297.363	81.8128	297.363	81.9677	297.363	82.0321	297.363	82.1598	297.363	82.1891	297.363	82.2709	297.363	82.281	297.363	82.3089
307.617	84.6449	307.617	84.6219	307.617	84.572	307.617	84.5085	307.617	84.3995	307.617	84.3113	307.617	84.1267	307.617	84.0388	307.617	83.7578	307.617	83.7017	307.617	83.3054	307.617	83.3139	307.617	82.795	307.617	82.8943	307.617	82.2699	307.617	82.4705	307.617	81.7926	307.617	82.0824	307.617	81.4374	307.617	81.7841	307.617	81.2683	307.617	81.6328	307.617	81.3098	307.617	81.6641	307.617	81.5327	307.617	81.8656	307.617	81.8689	307.617	82.1765	307.617	82.241	307.617	82.5138	307.617	82.5846	307.617	82.8041	307.617	82.8548	307.617	82.9986	307.617	83.0232	307.617	83.0734
319.336	84.3776	319.336	84.3274	319.336	84.3334	319.336	84.184	319.336	84.1932	319.336	83.9487	319.336	83.9549	319.336	83.6233	319.336	83.6159	319.336	83.2111	319.336	83.1737	319.336	82.7196	319.336	82.6288	319.336	82.1658	319.336	81.9903	319.336	81.5832	319.336	81.2862	319.336	81.0296	319.336	80.5782	319.336	80.5852	319.336	79.9724	319.336	80.3313	319.336	79.6016	319.336	80.3094	319.336	79.5588	319.336	80.4925	319.336	79.8241	319.336	80.7986	319.336	80.2747	319.336	81.1311	319.336	80.7648	319.336	81.4097	319.336	81.185	319.336	81.5791	319.336	81.4739	319.336	81.6058
329.59	84.4939	329.59	84.379	329.59	84.5068	329.59	84.1648	329.59	84.4158	329.59	83.8559	329.59	84.2197	329.59	83.4591	329.59	83.9168	329.59	82.9845	329.59	83.5059	329.59	82.4474	329.59	82.9875	329.59	81.8713	329.59	82.3692	329.59	81.2933	329.59	81.674	329.59	80.7692	329.59	80.9536	329.59	80.3715	329.59	80.3004	329.59	80.1699	329.59	79.8394	329.59	80.1959	329.59	79.6767	329.59	80.4167	329.59	79.8274	329.59	80.7478	329.59	80.1984	329.59	81.0914	329.59	80.6509	329.59	81.3672	329.59	81.0667	329.59	81.5218	329.59	81.3708	329.59	81.5261
341.309	84.4878	341.309	84.3801	341.309	84.4938	341.309	84.1686	341.309	84.3999	341.309	83.852	341.309	84.2085	341.309	83.4307	341.309	83.9222	341.309	82.9088	341.309	83.5448	341.309	82.2977	341.309	83.0821	341.309	81.6211	341.309	82.5436	341.309	80.9209	341.309	81.9453	341.309	80.2625	341.309	81.3157	341.309	79.7315	341.309	80.7019	341.309	79.4121	341.309	80.174	341.309	79.3484	341.309	79.8143	341.309	79.514	341.309	79.6823	341.309	79.822	341.309	79.7741	341.309	80.1656	341.309	80.016	341.309	80.4541	341.309	80.3018	341.309	80.6267	341.309	80.5357	341.309	80.6541
353.027	84.8769	353.027	84.8051	353.027	84.8475	353.027	84.6269	353.027	84.7202	353.027	84.3351	353.027	84.4967	353.027	83.92	353.027	84.1776	353.027	83.3698	353.027	83.7635	353.027	82.6715	353.027	83.2555	353.027	81.816	353.027	82.6586	353.027	80.809	353.027	81.9854	353.027	79.697	353.027	81.2632	353.027	78.6112	353.027	80.5439	353.027	77.7997	353.027	79.9106	353.027	77.5302	353.027	79.4671	353.027	77.8414	353.027	79.2924	353.027	78.4894	353.027	79.3837	353.027	79.1851	353.027	79.6474	353.027	79.7499	353.027	79.9508	353.027	80.1085	353.027	80.1767	353.027	80.2448
366.211	84.8529	366.211	84.9113	366.211	84.7065	366.211	84.8769	366.211	84.4759	366.211	84.7439	366.211	84.1645	366.211	84.5048	366.211	83.7756	366.211	84.1516	366.211	83.3139	366.211	83.6768	366.211	82.7878	366.211	83.0762	366.211	82.2149	366.211	82.3532	366.211	81.6282	366.211	81.5271	366.211	81.0814	366.211	80.6475	366.211	80.6426	366.211	79.8132	366.211	80.3712	366.211	79.1762	366.211	80.2859	366.211	78.8872	366.211	80.3513	366.211	78.9853	366.211	80.4958	366.211	79.3568	366.211	80.6427	366.211	79.824	366.211	80.7282	366.211	80.2463	366.211	80.7063	366.211	80.5483
379.395	84.6875	379.395	84.6497	379.395	84.6335	379.395	84.526	379.395	84.4814	379.395	84.3208	379.395	84.2243	379.395	84.0355	379.395	83.8542	379.395	83.6672	379.395	83.3608	379.395	83.2103	379.395	82.732	379.395	82.6605	379.395	81.9585	379.395	82.0236	379.395	81.045	379.395	81.3279	379.395	80.0357	379.395	80.639	379.395	79.0553	379.395	80.064	379.395	78.3351	379.395	79.7247	379.395	78.1191	379.395	79.6888	379.395	78.4436	379.395	79.9142	379.395	79.0888	379.395	80.2728	379.395	79.7873	379.395	80.6231	379.395	80.3672	379.395	80.8578	379.395	80.7498	379.395	80.911
392.578	84.7775	392.578	84.674	392.578	84.7925	392.578	84.4879	392.578	84.714	392.578	84.2259	392.578	84.5374	392.578	83.8953	392.578	84.2578	392.578	83.5027	392.578	83.8702	392.578	83.053	392.578	83.3712	392.578	82.5495	392.578	82.7605	392.578	81.9973	392.578	82.0452	392.578	81.411	392.578	81.2469	392.578	80.8253	392.578	80.4142	392.578	80.3025	392.578	79.6401	392.578	79.923	392.578	79.0637	392.578	79.7484	392.578	78.8173	392.578	79.777	392.578	78.926	392.578	79.9357	392.578	79.2727	392.578	80.1184	392.578	79.6822	392.578	80.2293	392.578	80.0168	392.578	80.2044
405.762	84.956	405.762	84.8294	405.762	84.9888	405.762	84.6062	405.762	84.9302	405.762	84.2832	405.762	84.7806	405.762	83.8558	405.762	84.5355	405.762	83.3184	405.762	84.1829	405.762	82.6679	405.762	83.7025	405.762	81.9126	405.762	83.0698	405.762	81.0882	405.762	82.2683	405.762	80.2802	405.762	81.3146	405.762	79.6357	405.762	80.3012	405.762	79.3225	405.762	79.4422	405.762	79.4196	405.762	79.0266	405.762	79.8437	405.762	79.1897	405.762	80.4159	405.762	79.7619	405.762	80.9708	405.762	80.453	405.762	81.4003	405.762	81.0571	405.762	81.6446	405.762	81.4759	405.762	81.6736
420.41	85.4684	420.41	85.4401	420.41	85.3951	420.41	85.3026	420.41	85.2284	420.41	85.0507	420.41	84.975	420.41	84.68	420.41	84.6369	420.41	84.1858	420.41	84.2099	420.41	83.5598	420.41	83.6841	420.41	82.7892	420.41	83.05	420.41	81.8617	420.41	82.3087	420.41	80.7839	420.41	81.4882	420.41	79.6264	420.41	80.6593	420.41	78.594	420.41	79.9396	420.41	78.0249	420.41	79.4627	420.41	78.1327	420.41	79.3079	420.41	78.7342	420.41	79.4457	420.41	79.4584	420.41	79.7602	420.41	80.049	420.41	80.1142	420.41	80.4032	420.41	80.3917	420.41	80.5073
435.059	85.1818	435.059	85.1529	435.059	85.1333	435.059	85.043	435.059	85.0071	435.059	84.8437	435.059	84.7993	435.059	84.5408	435.059	84.5025	435.059	84.1138	435.059	84.1059	435.059	83.5364	435.059	83.5962	435.059	82.78	435.059	82.9602	435.059	81.8212	435.059	82.1912	435.059	80.6627	435.059	81.303	435.059	79.3803	435.059	80.3574	435.059	78.2072	435.059	79.5018	435.059	77.5543	435.059	78.9662	435.059	77.7044	435.059	78.929	435.059	78.4493	435.059	79.3312	435.059	79.3525	435.059	79.9214	435.059	80.1225	435.059	80.4568	435.059	80.6375	435.059	80.7924	435.059	80.861
451.172	84.7571	451.172	84.7872	451.172	84.6434	451.172	84.7353	451.172	84.4479	451.172	84.6015	451.172	84.1767	451.172	84.3761	451.172	83.8356	451.172	84.0337	451.172	83.4209	451.172	83.5329	451.172	82.9117	451.172	82.8205	451.172	82.2672	451.172	81.8406	451.172	81.4348	451.172	80.553	451.172	80.374	451.172	78.9817	451.172	79.1147	451.172	77.3518	451.172	77.8756	451.172	76.2905	451.172	77.1605	451.172	76.4563	451.172	77.3927	451.172	77.5513	451.172	78.3112	451.172	78.8081	451.172	79.344	451.172	79.818	451.172	80.1543	451.172	80.4649	451.172	80.6266	451.172	80.7328
465.82	84.8476	465.82	84.78	465.82	84.8406	465.82	84.6507	465.82	84.7505	465.82	84.4745	465.82	84.5721	465.82	84.2615	465.82	84.2995	465.82	84.0088	465.82	83.92	465.82	83.6938	465.82	83.4105	465.82	83.2732	465.82	82.7359	465.82	82.6904	465.82	81.8546	465.82	81.8895	465.82	80.7316	465.82	80.843	465.82	79.3756	465.82	79.6057	465.82	77.9278	465.82	78.4133	465.82	76.8013	465.82	77.7152	465.82	76.5608	465.82	77.8218	465.82	77.2385	465.82	78.4854	465.82	78.2655	465.82	79.2285	465.82	79.1656	465.82	79.7521	465.82	79.7404	465.82	79.9357
483.398	84.9729	483.398	84.8468	483.398	84.9966	483.398	84.6177	483.398	84.9306	483.398	84.2994	483.398	84.7932	483.398	83.9172	483.398	84.5984	483.398	83.4958	483.398	84.3463	483.398	83.0411	483.398	84.0137	483.398	82.5258	483.398	83.5524	483.398	81.8907	483.398	82.8939	483.398	81.0646	483.398	81.9634	483.398	80.0029	483.398	80.7052	483.398	78.7619	483.398	79.148	483.398	77.6259	483.398	77.5714	483.398	77.1271	483.398	76.676	483.398	77.5322	483.398	76.9928	483.398	78.4326	483.398	78.027	483.398	79.2954	483.398	79.0497	483.398	79.8495	483.398	79.7358	483.398	80.0043
499.512	84.5858	499.512	84.5875	499.512	84.5122	499.512	84.5103	499.512	84.3787	499.512	84.348	499.512	84.2001	499.512	84.0894	499.512	83.986	499.512	83.7146	499.512	83.7285	499.512	83.1943	499.512	83.3958	499.512	82.4929	499.512	82.937	499.512	81.5728	499.512	82.2959	499.512	80.4063	499.512	81.4314	499.512	79.0067	499.512	80.3462	499.512	77.5172	499.512	79.1416	499.512	76.3686	499.512	78.0977	499.512	76.1733	499.512	77.6338	499.512	76.9671	499.512	77.9255	499.512	78.1232	499.512	78.6613	499.512	79.1331	499.512	79.4095	499.512	79.7936	499.512	79.9102	499.512	80.0517
517.09	84.5451	517.09	84.4893	517.09	84.4795	517.09	84.3288	517.09	84.2928	517.09	84.092	517.09	84.0015	517.09	83.8082	517.09	83.6335	517.09	83.4904	517.09	83.217	517.09	83.1187	517.09	82.7625	517.09	82.6352	517.09	82.2466	517.09	81.9547	517.09	81.6087	517.09	80.9845	517.09	80.7631	517.09	79.6544	517.09	79.6264	517.09	77.9894	517.09	78.1742	517.09	76.3117	517.09	76.5847	517.09	75.4574	517.09	75.4809	517.09	75.9741	517.09	75.6079	517.09	77.1679	517.09	76.6841	517.09	78.2408	517.09	77.8614	517.09	78.8879	517.09	78.6897	517.09	79.0399
536.133	83.9331	536.133	83.8282	536.133	83.902	536.133	83.5972	536.133	83.7422	536.133	83.2681	536.133	83.4746	536.133	82.8816	536.133	83.1265	536.133	82.4759	536.133	82.7218	536.133	82.0628	536.133	82.2697	536.133	81.6087	536.133	81.7536	536.133	81.0341	536.133	81.1256	536.133	80.2314	536.133	80.3103	536.133	79.0923	536.133	79.2257	536.133	77.557	536.133	77.8413	536.133	75.7611	536.133	76.33	536.133	74.3809	536.133	75.294	536.133	74.4228	536.133	75.4032	536.133	75.6091	536.133	76.346	536.133	76.8811	536.133	77.3321	536.133	77.745	536.133	77.9551	536.133	78.102
555.176	83.6217	555.176	83.5868	555.176	83.533	555.176	83.4382	555.176	83.3314	555.176	83.1998	555.176	83.0485	555.176	82.8963	555.176	82.7263	555.176	82.5375	555.176	82.3944	555.176	82.1084	555.176	82.0375	555.176	81.5726	555.176	81.578	555.176	80.8805	555.176	80.8906	555.176	79.9741	555.176	79.8402	555.176	78.7916	555.176	78.3339	555.176	77.31	555.176	76.4435	555.176	75.7111	555.176	74.7443	555.176	74.6926	555.176	74.3995	555.176	75.0509	555.176	75.5049	555.176	76.3353	555.176	76.9325	555.176	77.6107	555.176	78.0417	555.176	78.468	555.176	78.6794	555.176	78.824
574.219	84.3428	574.219	84.1868	574.219	84.3548	574.219	83.8961	574.219	84.2314	574.219	83.5034	574.219	83.9933	574.219	83.0633	574.219	83.6678	574.219	82.6331	574.219	83.2832	574.219	82.2319	574.219	82.8596	574.219	81.8046	574.219	82.392	574.219	81.224	574.219	81.8296	574.219	80.3298	574.219	81.0615	574.219	78.9684	574.219	79.9224	574.219	77.0449	574.219	78.2178	574.219	74.7372	574.219	75.8139	574.219	73.1654	574.219	73.1689	574.219	73.7862	574.219	72.5401	574.219	75.5312	574.219	74.4373	574.219	77.0144	574.219	76.3998	574.219	77.8797	574.219	77.6179	574.219	78.0893
594.727	83.9575	594.727	83.8937	594.727	83.8906	594.727	83.712	594.727	83.7169	594.727	83.4567	594.727	83.4968	594.727	83.1877	594.727	83.311	594.727	82.9509	594.727	83.2135	594.727	82.7432	594.727	83.1764	594.727	82.4994	594.727	83.0798	594.727	82.1092	594.727	82.76	594.727	81.4406	594.727	82.062	594.727	80.3508	594.727	80.8658	594.727	78.6985	594.727	79.1116	594.727	76.4465	594.727	76.9342	594.727	74.21	594.727	75.1104	594.727	73.9298	594.727	75.0032	594.727	75.6424	594.727	76.31	594.727	77.3751	594.727	77.6814	594.727	78.4464	594.727	78.5572	594.727	78.8244
615.234	85.146	615.234	85.0088	615.234	85.0454	615.234	84.6527	615.234	84.7102	615.234	84.1222	615.234	84.1703	615.234	83.496	615.234	83.4962	615.234	82.8833	615.234	82.8102	615.234	82.3791	615.234	82.2591	615.234	81.9886	615.234	81.9121	615.234	81.5925	615.234	81.6612	615.234	80.9981	615.234	81.258	615.234	80.0066	615.234	80.438	615.234	78.4526	615.234	79.0154	615.234	76.3216	615.234	77.0464	615.234	74.3795	615.234	75.4182	615.234	74.6629	615.234	75.7832	615.234	76.7637	615.234	77.5375	615.234	78.6988	615.234	79.1292	615.234	79.8969	615.234	80.0826	615.234	80.3439
637.207	85.2745	637.207	85.1791	637.207	85.2119	637.207	84.9288	637.207	85.007	637.207	84.5491	637.207	84.692	637.207	84.09	637.207	84.3098	637.207	83.6189	637.207	83.8971	637.207	83.1906	637.207	83.4633	637.207	82.8025	637.207	82.9812	637.207	82.3699	637.207	82.397	637.207	81.7471	637.207	81.634	637.207	80.7655	637.207	80.5695	637.207	79.257	637.207	79.0069	637.207	77.0939	637.207	76.706	637.207	74.474	637.207	73.7445	637.207	72.9506	637.207	72.2011	637.207	74.1084	637.207	74.0251	637.207	76.0332	637.207	76.2239	637.207	77.3502	637.207	77.5002	637.207	77.8486
659.18	84.969	659.18	84.8359	659.18	84.8757	659.18	84.4914	659.18	84.5765	659.18	83.9933	659.18	84.1364	659.18	83.4558	659.18	83.6798	659.18	83.0341	659.18	83.3668	659.18	82.8363	659.18	83.2863	659.18	82.812	659.18	83.3443	659.18	82.7596	659.18	83.3053	659.18	82.4355	659.18	82.9247	659.18	81.6267	659.18	82.0126	659.18	80.1569	659.18	80.4251	659.18	77.9175	659.18	78.078	659.18	75.2394	659.18	75.2871	659.18	74.0932	659.18	73.9837	659.18	75.6786	659.18	75.5228	659.18	77.6472	659.18	77.5385	659.18	78.8799	659.18	78.8279	659.18	79.2697
682.617	85.9057	682.617	85.7593	682.617	85.7273	682.617	85.2938	682.617	85.2307	682.617	84.5404	682.617	84.4437	682.617	83.5909	682.617	83.4522	682.617	82.6511	682.617	82.4717	682.617	82.0187	682.617	81.8596	682.617	81.8421	682.617	81.8341	682.617	81.9004	682.617	82.1412	682.617	81.7926	682.617	82.2834	682.617	81.1886	682.617	81.8678	682.617	79.8504	682.617	80.6352	682.617	77.6144	682.617	78.4092	682.617	74.8764	682.617	75.4562	682.617	74.347	682.617	74.3447	682.617	76.7661	682.617	76.5985	682.617	79.0457	682.617	78.9424	682.617	80.3721	682.617	80.3285	682.617	80.7862
707.52	85.9973	707.52	85.8913	707.52	85.8936	707.52	85.5724	707.52	85.5756	707.52	85.0378	707.52	85.0381	707.52	84.3098	707.52	84.2955	707.52	83.4705	707.52	83.4122	707.52	82.6774	707.52	82.5246	707.52	82.0895	707.52	81.8051	707.52	81.6974	707.52	81.3242	707.52	81.2577	707.52	80.9266	707.52	80.4199	707.52	80.284	707.52	78.8277	707.52	79.0139	707.52	76.0864	707.52	76.7061	707.52	71.9949	707.52	73.086	707.52	70.4385	707.52	70.7833	707.52	74.1852	707.52	73.868	707.52	77.1706	707.52	76.9313	707.52	78.7563	707.52	78.6396	707.52	79.2145
732.422	85.5614	732.422	85.3946	732.422	85.4211	732.422	84.9272	732.422	84.9764	732.422	84.1841	732.422	84.2526	732.422	83.2479	732.422	83.3377	732.422	82.3232	732.422	82.4483	732.422	81.732	732.422	81.9208	732.422	81.6615	732.422	81.9272	732.422	81.8968	732.422	82.1982	732.422	82.0021	732.422	82.2667	732.422	81.5953	732.422	81.7683	732.422	80.3618	732.422	80.4362	732.422	77.9421	732.422	77.962	732.422	73.9646	732.422	73.9174	732.422	70.9268	732.422	70.0071	732.422	74.0731	732.422	72.9858	732.422	77.1036	732.422	76.4477	732.422	78.631	732.422	78.3223	732.422	78.9957
757.324	86.8135	757.324	86.6271	757.324	86.6837	757.324	86.11	757.324	86.2252	757.324	85.2275	757.324	85.4012	757.324	83.9463	757.324	84.1707	757.324	82.3184	757.324	82.5612	757.324	80.7238	757.324	80.8803	757.324	80.019	757.324	79.967	757.324	80.4727	757.324	80.3636	757.324	81.1598	757.324	81.2473	757.324	81.2779	757.324	81.6486	757.324	80.4494	757.324	81.0664	757.324	78.3373	757.324	79.1087	757.324	74.3256	757.324	75.1354	757.324	69.6525	757.324	69.9914	757.324	73.7823	757.324	73.789	757.324	77.8875	757.324	77.9152	757.324	79.9603	757.324	79.9712	757.324	80.5923
785.156	86.0125	785.156	85.9499	785.156	85.9143	785.156	85.6991	785.156	85.6633	785.156	85.2194	785.156	85.2395	785.156	84.4665	785.156	84.5886	785.156	83.4191	785.156	83.6376	785.156	82.1502	785.156	82.3596	785.156	80.943	785.156	80.9296	785.156	80.2392	785.156	79.8906	785.156	80.1018	785.156	79.6897	785.156	79.9747	785.156	79.8277	785.156	79.1951	785.156	79.4147	785.156	77.1487	785.156	77.7593	785.156	72.6773	785.156	73.9089	785.156	58.7355	785.156	63.6101	785.156	68.8573	785.156	66.7652	785.156	75.1615	785.156	74.4004	785.156	77.6641	785.156	77.3488	785.156	78.2896
811.523	85.9368	811.523	85.8058	811.523	85.8561	811.523	85.453	811.523	85.5549	811.523	84.8534	811.523	84.9998	811.523	83.9693	811.523	84.1413	811.523	82.7742	811.523	82.9593	811.523	81.3484	811.523	81.5801	811.523	80.0822	811.523	80.4454	811.523	79.6263	811.523	80.1197	811.523	79.9911	811.523	80.481	811.523	80.3683	811.523	80.8001	811.523	80.0545	811.523	80.4836	811.523	78.5937	811.523	79.1123	811.523	75.4028	811.523	76.1118	811.523	69.0604	811.523	70.092	811.523	65.7073	811.523	65.6806	811.523	72.5547	811.523	72.6658	811.523	75.6966	811.523	75.8211	811.523	76.6552
840.82	86.3141	840.82	86.1601	840.82	86.28	840.82	85.8147	840.82	86.0278	840.82	85.2253	840.82	85.5004	840.82	84.2827	840.82	84.6076	840.82	82.8461	840.82	83.2245	840.82	80.858	840.82	81.2699	840.82	78.8149	840.82	79.1382	840.82	78.3709	840.82	78.464	840.82	79.7352	840.82	79.7531	840.82	81.0168	840.82	81.0842	840.82	81.2968	840.82	81.4521	840.82	80.2744	840.82	80.5507	840.82	77.5211	840.82	77.9585	840.82	71.6005	840.82	72.3378	840.82	63.0994	840.82	63.8378	840.82	72.793	840.82	72.8567	840.82	76.6103	840.82	76.6637	840.82	77.6786
870.117	85.7156	870.117	85.6356	870.117	85.6193	870.117	85.3733	870.117	85.3561	870.117	84.9186	870.117	84.9268	870.117	84.2343	870.117	84.2957	870.117	83.2337	870.117	83.3772	870.117	81.7822	870.117	82.0612	870.117	79.8195	870.117	80.3198	870.117	77.8927	870.117	78.5663	870.117	77.6298	870.117	78.0429	870.117	78.9197	870.117	79.0339	870.117	79.8913	870.117	80.0251	870.117	79.6885	870.117	80.0035	870.117	77.9029	870.117	78.4903	870.117	73.6634	870.117	74.7398	870.117	62.2221	870.117	65.4994	870.117	66.1569	870.117	64.3833	870.117	72.5269	870.117	72.1092	870.117	73.8968
900.879	85.8814	900.879	85.7542	900.879	85.7875	900.879	85.433	900.879	85.4774	900.879	84.9609	900.879	84.9785	900.879	84.3574	900.879	84.3099	900.879	83.5768	900.879	83.4502	900.879	82.4999	900.879	82.3257	900.879	81.0081	900.879	80.855	900.879	79.2484	900.879	79.1552	900.879	78.1245	900.879	77.9918	900.879	78.4929	900.879	78.2631	900.879	79.3565	900.879	79.1872	900.879	79.5126	900.879	79.5002	900.879	78.4091	900.879	78.5557	900.879	75.5455	900.879	75.8567	900.879	69.9066	900.879	70.5802	900.879	64.7847	900.879	65.441	900.879	69.5331	900.879	69.4502	900.879	71.1701
933.105	85.8207	933.105	85.7467	933.105	85.6767	933.105	85.4338	933.105	85.3314	933.105	84.8755	933.105	84.7918	933.105	84.0848	933.105	84.0545	933.105	83.0636	933.105	83.0935	933.105	81.7604	933.105	81.8377	933.105	80.0833	933.105	80.1761	933.105	78.0554	933.105	78.0914	933.105	76.3138	933.105	76.2307	933.105	76.2025	933.105	76.1475	933.105	77.2813	933.105	77.3133	933.105	77.8613	933.105	77.8572	933.105	77.1175	933.105	76.9888	933.105	74.6972	933.105	74.362	933.105	71.1265	933.105	70.2916	933.105	71.068	933.105	70.0753	933.105	73.4827	933.105	73.0342	933.105	74.2821
965.332	85.5315	965.332	85.4043	965.332	85.4063	965.332	85.0543	965.332	85.0484	965.332	84.5372	965.332	84.5134	965.332	83.8933	965.332	83.8482	965.332	83.1166	965.332	83.0447	965.332	82.1559	965.332	82.0305	965.332	80.9384	965.332	80.7138	965.332	79.4455	965.332	79.1014	965.332	77.9249	965.332	77.535	965.332	77.0202	965.332	76.7395	965.332	76.9196	965.332	76.831	965.332	76.7529	965.332	76.8695	965.332	75.6262	965.332	75.935	965.332	73.0565	965.332	73.4143	965.332	69.6605	965.332	69.4236	965.332	69.7343	965.332	68.9491	965.332	71.9976	965.332	71.7053	965.332	72.8211
1000.49	85.5762	1000.49	85.451	1000.49	85.4615	1000.49	85.0775	1000.49	85.1199	1000.49	84.456	1000.49	84.5573	1000.49	83.5831	1000.49	83.7693	1000.49	82.4373	1000.49	82.7389	1000.49	80.9739	1000.49	81.4164	1000.49	79.1977	1000.49	79.735	1000.49	77.4814	1000.49	77.8366	1000.49	76.8394	1000.49	76.6065	1000.49	77.5042	1000.49	76.9119	1000.49	78.2512	1000.49	77.704	1000.49	78.149	1000.49	77.7498	1000.49	76.7204	1000.49	76.501	1000.49	73.512	1000.49	73.4637	1000.49	69.0728	1000.49	68.6416	1000.49	70.2897	1000.49	69.5277	1000.49	73.4537	1000.49	73.1982	1000.49	74.4571
1035.64	85.9937	1035.64	85.7766	1035.64	85.8922	1035.64	85.2893	1035.64	85.4833	1035.64	84.6265	1035.64	84.8505	1035.64	83.8912	1035.64	84.1239	1035.64	83.1038	1035.64	83.3675	1035.64	82.1375	1035.64	82.4546	1035.64	80.7823	1035.64	81.1082	1035.64	78.8952	1035.64	79.1196	1035.64	76.7096	1035.64	76.7949	1035.64	75.3589	1035.64	75.5116	1035.64	75.5194	1035.64	75.831	1035.64	75.7089	1035.64	76.1651	1035.64	74.5861	1035.64	75.3863	1035.64	71.3261	1035.64	72.8385	1035.64	66.3222	1035.64	68.1718	1035.64	69.0469	1035.64	68.4518	1035.64	72.77	1035.64	72.4482	1035.64	73.8463
1072.27	86.2081	1072.27	86.0521	1072.27	86.055	1072.27	85.589	1072.27	85.6331	1072.27	84.8708	1072.27	84.9903	1072.27	83.9576	1072.27	84.1432	1072.27	82.8451	1072.27	83.0615	1072.27	81.444	1072.27	81.7154	1072.27	79.6708	1072.27	80.1485	1072.27	77.7529	1072.27	78.4909	1072.27	76.6711	1072.27	77.068	1072.27	77.0299	1072.27	76.7046	1072.27	77.695	1072.27	77.4931	1072.27	77.6166	1072.27	77.9527	1072.27	76.2228	1072.27	76.9234	1072.27	72.6993	1072.27	73.7265	1072.27	66.6492	1072.27	68.2559	1072.27	69.6597	1072.27	68.8104	1072.27	73.4265	1072.27	72.6769	1072.27	74.205
1108.89	86.2491	1108.89	86.0549	1108.89	86.075	1108.89	85.5313	1108.89	85.544	1108.89	84.7639	1108.89	84.737	1108.89	83.8788	1108.89	83.8171	1108.89	82.9796	1108.89	82.9443	1108.89	82.0232	1108.89	82.0673	1108.89	80.7788	1108.89	80.8896	1108.89	78.9276	1108.89	79.1566	1108.89	76.3323	1108.89	77.0251	1108.89	74.1459	1108.89	75.4197	1108.89	74.5394	1108.89	75.39	1108.89	75.5464	1108.89	76.1368	1108.89	75.1618	1108.89	76.008	1108.89	72.7562	1108.89	73.917	1108.89	67.8021	1108.89	69.0405	1108.89	66.8423	1108.89	66.6282	1108.89	71.0453	1108.89	70.8538	1108.89	72.401
1148.44	86.2563	1148.44	86.0714	1148.44	86.0698	1148.44	85.5322	1148.44	85.5234	1148.44	84.6816	1148.44	84.6813	1148.44	83.6178	1148.44	83.6689	1148.44	82.4937	1148.44	82.6135	1148.44	81.3802	1148.44	81.5369	1148.44	80.1284	1148.44	80.3396	1148.44	78.561	1148.44	78.922	1148.44	76.9988	1148.44	77.3901	1148.44	76.3902	1148.44	76.307	1148.44	76.7219	1148.44	76.2196	1148.44	76.8248	1148.44	76.4673	1148.44	75.7821	1148.44	75.88	1148.44	72.6737	1148.44	73.5098	1148.44	65.6045	1148.44	68.3683	1148.44	66.5228	1148.44	67.6941	1148.44	72.2651	1148.44	72.4473	1148.44	73.8963
1189.45	86.5874	1189.45	86.3682	1189.45	86.4265	1189.45	85.7861	1189.45	85.9133	1189.45	84.9374	1189.45	85.1089	1189.45	83.9943	1189.45	84.1027	1189.45	83.0737	1189.45	83.0036	1189.45	82.0905	1189.45	81.9026	1189.45	80.8364	1189.45	80.7185	1189.45	79.1447	1189.45	79.0942	1189.45	76.9348	1189.45	76.7489	1189.45	74.658	1189.45	74.6028	1189.45	74.2565	1189.45	74.8687	1189.45	75.3214	1189.45	76.1421	1189.45	75.2145	1189.45	76.2831	1189.45	72.8258	1189.45	74.5091	1189.45	67.5283	1189.45	69.932	1189.45	66.4807	1189.45	65.9924	1189.45	71.006	1189.45	70.6931	1189.45	72.4679
1230.47	86.1302	1230.47	85.9267	1230.47	85.9616	1230.47	85.3678	1230.47	85.4257	1230.47	84.4686	1230.47	84.5448	1230.47	83.2641	1230.47	83.3397	1230.47	81.9026	1230.47	81.8705	1230.47	80.6231	1230.47	80.3661	1230.47	79.453	1230.47	79.1561	1230.47	78.1453	1230.47	78.1105	1230.47	76.625	1230.47	76.7189	1230.47	75.3123	1230.47	75.2098	1230.47	74.8627	1230.47	74.7362	1230.47	75.1525	1230.47	74.9475	1230.47	74.991	1230.47	74.4339	1230.47	72.9976	1230.47	72.4123	1230.47	67.6886	1230.47	68.4063	1230.47	65.7533	1230.47	66.989	1230.47	70.6743	1230.47	70.6073	1230.47	72.0705
1274.41	85.9568	1274.41	85.7922	1274.41	85.7838	1274.41	85.2948	1274.41	85.2633	1274.41	84.4718	1274.41	84.3839	1274.41	83.3605	1274.41	83.1875	1274.41	82.1194	1274.41	81.8344	1274.41	80.9889	1274.41	80.5282	1274.41	79.9069	1274.41	79.2751	1274.41	78.466	1274.41	77.8308	1274.41	76.4747	1274.41	75.9549	1274.41	74.4057	1274.41	73.875	1274.41	73.8661	1274.41	73.3184	1274.41	75.0891	1274.41	74.6744	1274.41	75.5481	1274.41	75.0858	1274.41	73.7007	1274.41	73.0439	1274.41	68.2487	1274.41	67.4397	1274.41	65.4354	1274.41	64.2561	1274.41	70.7441	1274.41	69.9799	1274.41	72.0224
1319.82	85.8798	1319.82	85.6418	1319.82	85.6988	1319.82	85.0391	1319.82	85.0859	1319.82	84.1039	1319.82	84.095	1319.82	82.8071	1319.82	82.8607	1319.82	81.1837	1319.82	81.5639	1319.82	79.5367	1319.82	80.2748	1319.82	78.1947	1319.82	78.948	1319.82	76.9152	1319.82	77.6647	1319.82	75.3674	1319.82	76.3644	1319.82	74.21	1319.82	74.8211	1319.82	74.3125	1319.82	74.0214	1319.82	74.939	1319.82	74.5358	1319.82	75.0316	1319.82	74.5947	1319.82	73.6361	1319.82	73.1766	1319.82	69.7286	1319.82	69.7975	1319.82	64.7118	1319.82	65.8969	1319.82	68.1232	1319.82	68.4792	1319.82	70.1297
1366.7	85.8612	1366.7	85.6763	1366.7	85.6653	1366.7	85.0827	1366.7	85.1159	1366.7	84.0602	1366.7	84.2556	1366.7	82.6309	1366.7	83.1505	1366.7	80.9923	1366.7	81.8372	1366.7	79.6008	1366.7	80.329	1366.7	78.6214	1366.7	78.8004	1366.7	77.5878	1366.7	77.457	1366.7	76.1114	1366.7	76.0112	1366.7	73.9779	1366.7	74.2427	1366.7	71.9416	1366.7	73.0457	1366.7	72.8069	1366.7	73.4352	1366.7	73.9915	1366.7	74.1677	1366.7	72.8885	1366.7	73.6466	1366.7	69.0175	1366.7	71.2223	1366.7	66.6831	1366.7	68.3605	1366.7	70.4268	1366.7	70.2808	1366.7	71.8734
1413.57	86.9104	1413.57	86.7608	1413.57	86.7565	1413.57	86.2607	1413.57	86.3322	1413.57	85.4544	1413.57	85.6115	1413.57	84.4588	1413.57	84.5529	1413.57	83.1702	1413.57	83.2228	1413.57	81.336	1413.57	81.7589	1413.57	79.3884	1413.57	80.0352	1413.57	78.0539	1413.57	78.0525	1413.57	76.1992	1413.57	76.8746	1413.57	73.4436	1413.57	76.3016	1413.57	72.9266	1413.57	74.8236	1413.57	73.3376	1413.57	74.2943	1413.57	73.2481	1413.57	74.5866	1413.57	72.4724	1413.57	72.1748	1413.57	67.5337	1413.57	65.2429	1413.57	62.0824	1413.57	63.152	1413.57	70.9568	1413.57	69.6789	1413.57	72.1764
1463.38	86.6108	1463.38	86.4383	1463.38	86.3715	1463.38	85.8377	1463.38	85.7937	1463.38	84.9228	1463.38	84.9566	1463.38	83.9318	1463.38	83.8645	1463.38	82.84	1463.38	82.5253	1463.38	81.2621	1463.38	81.1141	1463.38	79.4233	1463.38	79.6779	1463.38	78.256	1463.38	78.007	1463.38	77.0003	1463.38	76.4999	1463.38	74.9078	1463.38	75.5888	1463.38	73.4973	1463.38	74.6147	1463.38	72.6578	1463.38	74.3528	1463.38	72.8437	1463.38	74.7412	1463.38	73.3433	1463.38	73.4246	1463.38	70.8338	1463.38	69.0561	1463.38	65.0205	1463.38	64.495	1463.38	67.8481	1463.38	68.1533	1463.38	69.8771
1516.11	85.5814	1516.11	85.335	1516.11	85.4369	1516.11	84.6432	1516.11	84.9051	1516.11	83.4337	1516.11	83.9928	1516.11	81.792	1516.11	82.7923	1516.11	80.2853	1516.11	81.3563	1516.11	79.1881	1516.11	79.7718	1516.11	77.8276	1516.11	78.5024	1516.11	76.6364	1516.11	77.4117	1516.11	76.13	1516.11	75.3049	1516.11	74.4521	1516.11	72.5213	1516.11	72.7157	1516.11	72.1737	1516.11	73.6823	1516.11	73.1293	1516.11	74.4373	1516.11	74.4188	1516.11	74.2113	1516.11	74.7054	1516.11	72.2495	1516.11	72.2114	1516.11	68.344	1516.11	68.2555	1516.11	69.2186	1516.11	70.0829	1516.11	71.2575
1568.85	85.5692	1568.85	85.1968	1568.85	85.5122	1568.85	84.4291	1568.85	85.0211	1568.85	83.2896	1568.85	84.1251	1568.85	81.7907	1568.85	82.8223	1568.85	80.0747	1568.85	81.1127	1568.85	78.5143	1568.85	79.3927	1568.85	77.0937	1568.85	78.297	1568.85	75.6079	1568.85	77.4404	1568.85	74.6993	1568.85	76.4398	1568.85	73.8121	1568.85	75.4097	1568.85	72.3028	1568.85	74.1603	1568.85	71.3661	1568.85	73.4066	1568.85	71.3434	1568.85	73.6141	1568.85	70.8014	1568.85	72.8128	1568.85	67.7281	1568.85	69.2977	1568.85	67.4158	1568.85	67.0195	1568.85	71.1853	1568.85	70.0311	1568.85	71.8173
1624.51	85.7543	1624.51	85.3256	1624.51	85.6294	1624.51	84.4338	1624.51	84.9439	1624.51	83.2295	1624.51	83.789	1624.51	81.7295	1624.51	82.2586	1624.51	79.7938	1624.51	80.4098	1624.51	77.7518	1624.51	78.3027	1624.51	75.9423	1624.51	76.0294	1624.51	73.9898	1624.51	74.2712	1624.51	73.2136	1624.51	73.3931	1624.51	73.3077	1624.51	72.2289	1624.51	72.4539	1624.51	70.6206	1624.51	71.431	1624.51	69.3817	1624.51	70.4547	1624.51	70.6416	1624.51	68.6759	1624.51	71.5534	1624.51	65.0158	1624.51	68.4684	1624.51	66.4546	1624.51	67.2428	1624.51	71.5946	1624.51	71.694	1624.51	73.0791
1681.64	85.4013	1681.64	85.095	1681.64	85.1033	1681.64	84.2057	1681.64	84.3384	1681.64	82.9506	1681.64	83.3331	1681.64	81.58	1681.64	82.1436	1681.64	79.8557	1681.64	80.7064	1681.64	77.7328	1681.64	79.1483	1681.64	76.3495	1681.64	77.3633	1681.64	75.1374	1681.64	74.9968	1681.64	73.5997	1681.64	73.2641	1681.64	73.0846	1681.64	72.5608	1681.64	72.3589	1681.64	71.7765	1681.64	72.4301	1681.64	71.2364	1681.64	71.565	1681.64	71.1569	1681.64	69.6648	1681.64	73.0564	1681.64	67.2271	1681.64	71.7433	1681.64	66.3603	1681.64	68.9021	1681.64	71.1206	1681.64	73.1585	1681.64	73.9168
1741.7	85.624	1741.7	85.3356	1741.7	85.3544	1741.7	84.6671	1741.7	84.6195	1741.7	83.6465	1741.7	83.7461	1741.7	82.4232	1741.7	82.8165	1741.7	81.2462	1741.7	81.5186	1741.7	79.534	1741.7	79.5338	1741.7	77.2876	1741.7	77.3024	1741.7	75.3111	1741.7	75.1177	1741.7	71.5902	1741.7	72.6043	1741.7	66.1293	1741.7	71.4385	1741.7	68.3728	1741.7	70.5869	1741.7	70.5304	1741.7	70.2671	1741.7	71.7219	1741.7	70.021	1741.7	70.8405	1741.7	70.6992	1741.7	67.3056	1741.7	68.9763	1741.7	63.7674	1741.7	65.4391	1741.7	70.4463	1741.7	71.2994	1741.7	72.8597
1803.22	85.3587	1803.22	84.8982	1803.22	85.142	1803.22	83.8646	1803.22	84.4701	1803.22	82.4184	1803.22	83.5688	1803.22	80.7873	1803.22	82.3044	1803.22	79.239	1803.22	80.6729	1803.22	77.254	1803.22	79.1015	1803.22	74.292	1803.22	78.0351	1803.22	72.3795	1803.22	77.2464	1803.22	71.0973	1803.22	76.0015	1803.22	69.0293	1803.22	72.6739	1803.22	67.7858	1803.22	66.7158	1803.22	67.7778	1803.22	69.0741	1803.22	69.1707	1803.22	71.2935	1803.22	67.8189	1803.22	73.1978	1803.22	70.6245	1803.22	71.7849	1803.22	71.4364	1803.22	67.3178	1803.22	73.5837	1803.22	72.8319	1803.22	75.1344
1866.21	85.0762	1866.21	84.6549	1866.21	84.8963	1866.21	83.729	1866.21	84.1552	1866.21	82.5824	1866.21	83.0047	1866.21	81.418	1866.21	81.8757	1866.21	80.3851	1866.21	80.9103	1866.21	79.3219	1866.21	79.5906	1866.21	77.2924	1866.21	77.9184	1866.21	75.2457	1866.21	76.3851	1866.21	74.8345	1866.21	74.9733	1866.21	73.9373	1866.21	72.2206	1866.21	71.2572	1866.21	66.8566	1866.21	66.2444	1866.21	69.0861	1866.21	65.7067	1866.21	70.8676	1866.21	63.987	1866.21	70.5927	1866.21	28.7766	1866.21	68.2259	1866.21	67.943	1866.21	65.5181	1866.21	73.9316	1866.21	73.3883	1866.21	75.538
1932.13	85.6774	1932.13	85.3934	1932.13	85.3731	1932.13	84.6023	1932.13	84.5389	1932.13	83.5568	1932.13	83.1869	1932.13	82.3963	1932.13	81.6326	1932.13	81.2162	1932.13	80.4355	1932.13	80.0687	1932.13	79.3177	1932.13	78.2294	1932.13	77.6559	1932.13	75.6298	1932.13	75.7311	1932.13	75.3483	1932.13	73.7401	1932.13	74.4969	1932.13	70.5106	1932.13	71.0653	1932.13	64.8271	1932.13	67.9098	1932.13	65.1891	1932.13	67.2143	1932.13	67.7763	1932.13	68.5578	1932.13	69.9153	1932.13	65.2624	1932.13	68.5243	1932.13	58.3239	1932.13	61.8902	1932.13	71.281	1932.13	71.9909	1932.13	74.324
1999.51	84.981	1999.51	85.1877	1999.51	84.5933	1999.51	84.9788	1999.51	83.9223	1999.51	84.2979	1999.51	82.8233	1999.51	83.5948	1999.51	81.4974	1999.51	82.9056	1999.51	80.4552	1999.51	81.9576	1999.51	79.699	1999.51	80.9139	1999.51	78.1119	1999.51	78.8772	1999.51	74.8848	1999.51	77.1291	1999.51	72.1742	1999.51	75.6489	1999.51	72.4834	1999.51	72.9188	1999.51	70.8592	1999.51	70.7726	1999.51	66.4384	1999.51	67.9525	1999.51	59.1094	1999.51	70.1816	1999.51	62.6661	1999.51	67.0012	1999.51	64.1673	1999.51	65.4822	1999.51	58.256	1999.51	72.1248	1999.51	71.9303	1999.51	74.366
2069.82	84.8023	2069.82	84.7839	2069.82	84.811	2069.82	84.54	2069.82	84.7542	2069.82	83.6699	2069.82	84.3932	2069.82	82.3821	2069.82	83.3819	2069.82	81.345	2069.82	81.8928	2069.82	80.2886	2069.82	80.8423	2069.82	79.274	2069.82	79.6212	2069.82	77.6636	2069.82	77.2051	2069.82	75.0263	2069.82	74.7245	2069.82	73.543	2069.82	74.0906	2069.82	72.5011	2069.82	72.7145	2069.82	70.4993	2069.82	69.2481	2069.82	67.7453	2069.82	65.4324	2069.82	70.1645	2069.82	65.2328	2069.82	70.349	2069.82	68.5172	2069.82	61.7087	2069.82	61.3593	2069.82	65.8658	2069.82	62.7524	2069.82	68.8174
2143.07	84.9152	2143.07	84.7313	2143.07	84.7174	2143.07	84.2646	2143.07	84.1654	2143.07	83.6386	2143.07	83.3252	2143.07	82.4653	2143.07	82.2996	2143.07	80.7057	2143.07	80.7608	2143.07	79.161	2143.07	78.7671	2143.07	77.6477	2143.07	77.6243	2143.07	75.8465	2143.07	75.8992	2143.07	73.7456	2143.07	74.4144	2143.07	73.5083	2143.07	74.4585	2143.07	73.3485	2143.07	72.8533	2143.07	72.292	2143.07	71.1133	2143.07	69.7689	2143.07	70.2274	2143.07	70.9023	2143.07	64.2205	2143.07	69.9409	2143.07	65.9066	2143.07	63.3489	2143.07	62.1784	2143.07	60.8973	2143.07	58.3605	2143.07	65.5726
2219.24	83.86	2219.24	83.7167	2219.24	83.4919	2219.24	83.2717	2219.24	82.9092	2219.24	82.6466	2219.24	82.4684	2219.24	81.8997	2219.24	81.6537	2219.24	80.7626	2219.24	80.4431	2219.24	79.3572	2219.24	78.9298	2219.24	77.9632	2219.24	77.4534	2219.24	76.7029	2219.24	75.8786	2219.24	74.9738	2219.24	73.0353	2219.24	73.0283	2219.24	72.4754	2219.24	71.8055	2219.24	71.5975	2219.24	70.6036	2219.24	68.2408	2219.24	68.4324	2219.24	69.7208	2219.24	67.8064	2219.24	69.4443	2219.24	70.1575	2219.24	67.7519	2219.24	65.7942	2219.24	58.1109	2219.24	61.4036	2219.24	63.9455	2219.24	68.4039
2296.88	82.592	2296.88	82.5175	2296.88	82.4798	2296.88	82.3852	2296.88	82.3403	2296.88	82.1328	2296.88	82.2122	2296.88	81.422	2296.88	81.9008	2296.88	80.3155	2296.88	80.6368	2296.88	79.1653	2296.88	78.9601	2296.88	78.1073	2296.88	78.1835	2296.88	76.3987	2296.88	76.8493	2296.88	74.017	2296.88	74.2792	2296.88	72.9705	2296.88	72.6029	2296.88	71.0669	2296.88	71.4272	2296.88	69.3428	2296.88	68.2428	2296.88	66.3735	2296.88	67.7205	2296.88	64.6879	2296.88	67.1083	2296.88	71.4569	2296.88	69.9371	2296.88	68.0809	2296.88	66.2449	2296.88	57.0591	2296.88	57.9775	2296.88	67.1929
2378.91	83.6517	2378.91	83.4055	2378.91	83.852	2378.91	83.2859	2378.91	83.8458	2378.91	83.3178	2378.91	83.866	2378.91	83.2483	2378.91	83.7334	2378.91	82.3187	2378.91	82.7781	2378.91	80.1277	2378.91	80.8148	2378.91	78.1541	2378.91	79.0951	2378.91	76.8329	2378.91	78.4133	2378.91	74.028	2378.91	75.5447	2378.91	72.9883	2378.91	73.1801	2378.91	72.6653	2378.91	73.4751	2378.91	68.5041	2378.91	69.7378	2378.91	67.9022	2378.91	67.7572	2378.91	57.1215	2378.91	67.1166	2378.91	66.3038	2378.91	68.6784	2378.91	65.7078	2378.91	65.3253	2378.91	63.2647	2378.91	60.9194	2378.91	68.788
2462.4	84.5779	2462.4	84.4881	2462.4	84.477	2462.4	84.2991	2462.4	84.0889	2462.4	83.9341	2462.4	83.6498	2462.4	83.5338	2462.4	83.2926	2462.4	82.8354	2462.4	82.6943	2462.4	81.0028	2462.4	80.9899	2462.4	78.5004	2462.4	78.3451	2462.4	77.4918	2462.4	77.1382	2462.4	75.1776	2462.4	75.6073	2462.4	71.8525	2462.4	72.662	2462.4	72.63	2462.4	73.2839	2462.4	70.5304	2462.4	70.5135	2462.4	66.484	2462.4	66.5996	2462.4	63.0537	2462.4	64.2886	2462.4	61.5909	2462.4	65.4671	2462.4	60.8717	2462.4	64.3295	2462.4	64.3859	2462.4	62.2545	2462.4	68.6731
2548.83	84.535	2548.83	84.4685	2548.83	84.5112	2548.83	84.1709	2548.83	84.2846	2548.83	83.5431	2548.83	83.5982	2548.83	82.7764	2548.83	82.941	2548.83	82.1861	2548.83	82.4252	2548.83	80.8322	2548.83	81.1713	2548.83	78.1733	2548.83	78.634	2548.83	76.6382	2548.83	76.4686	2548.83	75.7519	2548.83	75.3369	2548.83	71.9178	2548.83	71.9192	2548.83	71.5337	2548.83	72.0506	2548.83	71.4656	2548.83	71.312	2548.83	69.8709	2548.83	65.9793	2548.83	64.9285	2548.83	63.4004	2548.83	58.6138	2548.83	64.3491	2548.83	52.1064	2548.83	58.6917	2548.83	64.0409	2548.83	62.272	2548.83	68.3156
2639.65	84.6621	2639.65	84.8388	2639.65	84.6426	2639.65	84.8542	2639.65	84.6771	2639.65	84.3258	2639.65	84.3267	2639.65	83.1782	2639.65	83.3022	2639.65	81.8533	2639.65	82.3143	2639.65	80.7535	2639.65	81.1917	2639.65	78.6337	2639.65	78.5143	2639.65	76.2928	2639.65	76.1479	2639.65	75.5214	2639.65	75.426	2639.65	72.383	2639.65	72.7992	2639.65	71.6045	2639.65	71.5025	2639.65	70.6988	2639.65	71.2599	2639.65	69.6637	2639.65	67.3917	2639.65	68.6238	2639.65	65.9771	2639.65	64.2138	2639.65	61.6667	2639.65	57.7858	2639.65	58.6795	2639.65	63.8726	2639.65	63.9894	2639.65	69.1755
2731.93	84.8828	2731.93	85.1045	2731.93	84.8981	2731.93	85.2971	2731.93	84.9722	2731.93	85.0358	2731.93	84.8231	2731.93	83.9334	2731.93	83.8079	2731.93	82.212	2731.93	82.0355	2731.93	80.5357	2731.93	80.5642	2731.93	78.4561	2731.93	78.8795	2731.93	75.6496	2731.93	75.8805	2731.93	74.9172	2731.93	74.7602	2731.93	72.9148	2731.93	72.5736	2731.93	69.8949	2731.93	69.4778	2731.93	70.8817	2731.93	70.9491	2731.93	69.1728	2731.93	67.5353	2731.93	68.3118	2731.93	65.7583	2731.93	68.1074	2731.93	68.1163	2731.93	64.2434	2731.93	63.5538	2731.93	60.1547	2731.93	60.3419	2731.93	67.7326
2828.61	85.1194	2828.61	85.2913	2828.61	85.285	2828.61	85.562	2828.61	85.3082	2828.61	85.426	2828.61	85.1834	2828.61	84.4702	2828.61	84.2145	2828.61	82.7692	2828.61	82.2523	2828.61	81.0104	2828.61	80.369	2828.61	78.8779	2828.61	78.5348	2828.61	75.8216	2828.61	76.3423	2828.61	73.9828	2828.61	74.6238	2828.61	72.6198	2828.61	72.9583	2828.61	70.645	2828.61	70.0365	2828.61	68.7618	2828.61	69.6422	2828.61	67.5349	2828.61	68.4833	2828.61	66.6824	2828.61	65.3099	2828.61	68.8717	2828.61	67.2204	2828.61	65.2774	2828.61	65.6295	2828.61	58.6639	2828.61	58.2164	2828.61	68.2966
2928.22	85.3058	2928.22	85.3316	2928.22	85.335	2928.22	85.4086	2928.22	85.5318	2928.22	85.1003	2928.22	85.1234	2928.22	83.786	2928.22	83.9845	2928.22	81.796	2928.22	82.2176	2928.22	79.8777	2928.22	80.0789	2928.22	78.1044	2928.22	78.247	2928.22	75.4951	2928.22	75.6476	2928.22	73.5013	2928.22	73.334	2928.22	72.3807	2928.22	72.1726	2928.22	70.0528	2928.22	69.1286	2928.22	69.8679	2928.22	69.1034	2928.22	66.2108	2928.22	65.3244	2928.22	66.1527	2928.22	65.2856	2928.22	66.5854	2928.22	66.2786	2928.22	65.343	2928.22	65.8522	2928.22	58.5599	2928.22	56.4953	2928.22	67.122
3030.76	86.3249	3030.76	86.5081	3030.76	86.3632	3030.76	86.5452	3030.76	86.4774	3030.76	86.1531	3030.76	86.1134	3030.76	85.1245	3030.76	85.0621	3030.76	82.8586	3030.76	83.0879	3030.76	80.3793	3030.76	80.7568	3030.76	77.9204	3030.76	78.5149	3030.76	75.2724	3030.76	75.9576	3030.76	72.8286	3030.76	74.1695	3030.76	70.4549	3030.76	72.6472	3030.76	67.4608	3030.76	70.1318	3030.76	68.3782	3030.76	70.5072	3030.76	64.2173	3030.76	67.4212	3030.76	64.1856	3030.76	64.4415	3030.76	66.4824	3030.76	65.3521	3030.76	66.0009	3030.76	65.9971	3030.76	59.1933	3030.76	56.7879	3030.76	68.5652
3137.7	86.2988	3137.7	86.3389	3137.7	86.2561	3137.7	86.2466	3137.7	86.0843	3137.7	85.8392	3137.7	85.6797	3137.7	84.8882	3137.7	84.8963	3137.7	83.242	3137.7	83.0522	3137.7	80.9695	3137.7	80.4108	3137.7	79.249	3137.7	78.6467	3137.7	76.6915	3137.7	76.1366	3137.7	74.5158	3137.7	73.6019	3137.7	73.1469	3137.7	72.5075	3137.7	70.8207	3137.7	69.1756	3137.7	68.8327	3137.7	68.8563	3137.7	66.6863	3137.7	67.4879	3137.7	64.9608	3137.7	66.3122	3137.7	63.0154	3137.7	61.7694	3137.7	66.0327	3137.7	66.8326	3137.7	58.5443	3137.7	55.5123	3137.7	67.9922
3249.02	86.3515	3249.02	86.5533	3249.02	86.5675	3249.02	86.5805	3249.02	86.6972	3249.02	86.0337	3249.02	86.2943	3249.02	84.7581	3249.02	85.3117	3249.02	82.8356	3249.02	83.4549	3249.02	80.0474	3249.02	81.0929	3249.02	77.6089	3249.02	78.7922	3249.02	75.4948	3249.02	76.4464	3249.02	73.4322	3249.02	74.5475	3249.02	72.0306	3249.02	72.9795	3249.02	69.7264	3249.02	71.0104	3249.02	69.109	3249.02	69.4091	3249.02	65.1354	3249.02	65.4606	3249.02	66.308	3249.02	66.989	3249.02	65.0374	3249.02	63.9599	3249.02	65.4777	3249.02	66.4142	3249.02	59.5607	3249.02	43.4203	3249.02	69.3289
3363.28	86.3915	3363.28	86.5578	3363.28	86.4913	3363.28	86.7307	3363.28	86.633	3363.28	86.1943	3363.28	86.2119	3363.28	85.0691	3363.28	84.8964	3363.28	83.4853	3363.28	83.1191	3363.28	81.2563	3363.28	80.7893	3363.28	78.8991	3363.28	78.6409	3363.28	76.8705	3363.28	77.0303	3363.28	74.4428	3363.28	74.3863	3363.28	73.0529	3363.28	72.3683	3363.28	70.4957	3363.28	70.281	3363.28	69.558	3363.28	68.7374	3363.28	63.2947	3363.28	65.2297	3363.28	67.0292	3363.28	66.3768	3363.28	63.4715	3363.28	62.9758	3363.28	65.4298	3363.28	64.8284	3363.28	53.3976	3363.28	56.8244	3363.28	68.0348
3481.93	86.4675	3481.93	86.5326	3481.93	86.6904	3481.93	86.6035	3481.93	86.8842	3481.93	85.8085	3481.93	86.4679	3481.93	84.1755	3481.93	85.1518	3481.93	82.1721	3481.93	83.4543	3481.93	79.9396	3481.93	81.3221	3481.93	77.7222	3481.93	78.9867	3481.93	75.9531	3481.93	77.2713	3481.93	73.9931	3481.93	75.7795	3481.93	72.6447	3481.93	73.4982	3481.93	70.5491	3481.93	71.1918	3481.93	68.9715	3481.93	69.7283	3481.93	67.1775	3481.93	68.213	3481.93	65.4922	3481.93	66.0742	3481.93	63.4311	3481.93	65.8152	3481.93	67.2383	3481.93	66.3744	3481.93	56.0756	3481.93	54.9289	3481.93	68.5238
3604.98	86.3962	3604.98	86.7251	3604.98	86.4376	3604.98	86.7747	3604.98	86.5084	3604.98	85.9471	3604.98	85.8352	3604.98	84.3271	3604.98	84.1349	3604.98	82.6341	3604.98	82.5164	3604.98	80.669	3604.98	80.5046	3604.98	78.5195	3604.98	78.3762	3604.98	76.2779	3604.98	76.0978	3604.98	73.5874	3604.98	74.1527	3604.98	71.6654	3604.98	72.6577	3604.98	70.1513	3604.98	70.9521	3604.98	66.739	3604.98	68.4504	3604.98	66.8209	3604.98	67.7599	3604.98	62.6514	3604.98	63.6841	3604.98	65.1181	3604.98	66.8866	3604.98	64.9849	3604.98	66.3911	3604.98	55.5947	3604.98	53.4689	3604.98	69.3287
3732.42	86.9867	3732.42	86.899	3732.42	86.9578	3732.42	86.5355	3732.42	86.6701	3732.42	85.4802	3732.42	86.0622	3732.42	83.6618	3732.42	84.5474	3732.42	81.458	3732.42	82.4014	3732.42	79.6072	3732.42	80.6168	3732.42	77.1853	3732.42	78.2415	3732.42	76.2371	3732.42	76.7131	3732.42	73.3268	3732.42	73.8236	3732.42	72.1631	3732.42	72.6666	3732.42	70.4454	3732.42	70.2987	3732.42	68.6549	3732.42	67.6257	3732.42	67.707	3732.42	68.1493	3732.42	62.2745	3732.42	62.4442	3732.42	66.9491	3732.42	66.2423	3732.42	65.032	3732.42	65.9971	3732.42	57.1073	3732.42	46.6726	3732.42	68.747
3864.26	86.9436	3864.26	86.8785	3864.26	86.8039	3864.26	86.63	3864.26	86.3633	3864.26	85.4639	3864.26	85.281	3864.26	83.9777	3864.26	83.7182	3864.26	81.7779	3864.26	81.6348	3864.26	80.1768	3864.26	79.9487	3864.26	77.5343	3864.26	77.2915	3864.26	75.9683	3864.26	75.6165	3864.26	72.5475	3864.26	72.6136	3864.26	71.4109	3864.26	72.7115	3864.26	67.6188	3864.26	69.2766	3864.26	67.4131	3864.26	67.0406	3864.26	67.0692	3864.26	67.4132	3864.26	59.0103	3864.26	59.2749	3864.26	64.3956	3864.26	64.4534	3864.26	63.564	3864.26	63.7448	3864.26	58.262	3864.26	44.2409	3864.26	65.5611
4000.49	87.1294	4000.49	87.1294	4000.49	87.0337	4000.49	86.4127	4000.49	86.5597	4000.49	84.8043	4000.49	85.2306	4000.49	83.0567	4000.49	83.6496	4000.49	81.3143	4000.49	81.7466	4000.49	79.2579	4000.49	79.6838	4000.49	76.9562	4000.49	77.9701	4000.49	74.7362	4000.49	75.2728	4000.49	72.6833	4000.49	72.4299	4000.49	72.4255	4000.49	71.4013	4000.49	68.1579	4000.49	67.4213	4000.49	68.6103	4000.49	68.1878	4000.49	65.585	4000.49	65.2968	4000.49	56.0849	4000.49	55.4468	4000.49	65.0941	4000.49	66.3306	4000.49	66.1978	4000.49	64.8251	4000.49	44.7828	4000.49	45.7467	4000.49	67.3249
4141.11	87.5323	4141.11	87.3894	4141.11	87.2595	4141.11	86.7932	4141.11	86.644	4141.11	85.3397	4141.11	85.3006	4141.11	83.5183	4141.11	83.1743	4141.11	81.8466	4141.11	81.5818	4141.11	79.9707	4141.11	79.5871	4141.11	78.1561	4141.11	77.8473	4141.11	74.7763	4141.11	74.8436	4141.11	72.4837	4141.11	73.0135	4141.11	70.9868	4141.11	71.4651	4141.11	65.6419	4141.11	67.9799	4141.11	67.6009	4141.11	68.2563	4141.11	63.3593	4141.11	66.0588	4141.11	60.6379	4141.11	50.1326	4141.11	64.747	4141.11	68.5657	4141.11	65.8406	4141.11	64.256	4141.11	53.3194	4141.11	50.5948	4141.11	68.5393
4287.6	87.5202	4287.6	87.1419	4287.6	87.311	4287.6	86.1539	4287.6	86.469	4287.6	84.7432	4287.6	85.3477	4287.6	83.2251	4287.6	84.0206	4287.6	81.6358	4287.6	82.1395	4287.6	79.6881	4287.6	80.2876	4287.6	77.9437	4287.6	78.2831	4287.6	74.8661	4287.6	75.3251	4287.6	73.528	4287.6	73.5891	4287.6	69.4964	4287.6	69.8164	4287.6	68.9241	4287.6	69.3177	4287.6	69.14	4287.6	70.335	4287.6	61.3106	4287.6	57.2944	4287.6	61.759	4287.6	64.306	4287.6	63.8477	4287.6	62.9537	4287.6	62.1919	4287.6	63.5337	4287.6	57.3283	4287.6	55.236	4287.6	68.3486
4438.48	87.3052	4438.48	87.0688	4438.48	87.0676	4438.48	86.0542	4438.48	86.1959	4438.48	84.9148	4438.48	84.939	4438.48	83.9525	4438.48	83.7397	4438.48	82.3897	4438.48	82.4272	4438.48	80.4955	4438.48	80.8163	4438.48	77.5266	4438.48	77.9677	4438.48	74.9308	4438.48	75.8728	4438.48	72.5619	4438.48	72.7613	4438.48	68.4546	4438.48	68.4724	4438.48	69.1187	4438.48	69.2855	4438.48	66.1066	4438.48	66.766	4438.48	61.9457	4438.48	65.1272	4438.48	63.0971	4438.48	65.8144	4438.48	65.3491	4438.48	66.1995	4438.48	64.8946	4438.48	63.1883	4438.48	57.8431	4438.48	58.0589	4438.48	64.309
4595.21	86.9857	4595.21	86.5041	4595.21	86.5297	4595.21	85.2927	4595.21	85.5257	4595.21	84.0016	4595.21	84.6194	4595.21	83.3964	4595.21	83.7114	4595.21	81.7385	4595.21	82.0867	4595.21	79.4233	4595.21	79.7236	4595.21	76.4015	4595.21	77.231	4595.21	73.6615	4595.21	73.6293	4595.21	71.8924	4595.21	72.6359	4595.21	68.1289	4595.21	68.9848	4595.21	68.8268	4595.21	69.1663	4595.21	65.504	4595.21	65.4163	4595.21	61.2448	4595.21	63.1576	4595.21	64.4518	4595.21	61.4718	4595.21	66.4254	4595.21	64.4272	4595.21	62.6743	4595.21	59.0611	4595.21	51.7363	4595.21	51.594	4595.21	64.2867
4756.35	86.6473	4756.35	86.332	4756.35	86.3087	4756.35	85.3358	4756.35	85.4343	4756.35	84.4488	4756.35	84.6445	4756.35	83.7146	4756.35	84.0255	4756.35	82.4472	4756.35	82.5045	4756.35	79.5502	4756.35	80.0229	4756.35	76.7932	4756.35	76.777	4756.35	74.3785	4756.35	74.7472	4756.35	70.8867	4756.35	69.9446	4756.35	67.9833	4756.35	69.6148	4756.35	67.8991	4756.35	67.0136	4756.35	59.6991	4756.35	60.7972	4756.35	64.0974	4756.35	66.4688	4756.35	60.7713	4756.35	64.3877	4756.35	62.2461	4756.35	61.6419	4756.35	62.6046	4756.35	61.933	4756.35	56.8662	4756.35	58.6518	4756.35	63.088
4924.8	86.6804	4924.8	86.375	4924.8	86.322	4924.8	85.5929	4924.8	85.6254	4924.8	84.8025	4924.8	84.7772	4924.8	83.6561	4924.8	83.7706	4924.8	81.9778	4924.8	82.3811	4924.8	78.8426	4924.8	79.3422	4924.8	74.8898	4924.8	76.4846	4924.8	71.374	4924.8	73.3563	4924.8	69.7548	4924.8	71.9377	4924.8	69.2106	4924.8	69.4651	4924.8	67.3039	4924.8	66.5725	4924.8	59.5799	4924.8	60.4478	4924.8	65.9835	4924.8	65.9038	4924.8	62.6559	4924.8	61.8707	4924.8	59.9501	4924.8	62.2819	4924.8	60.9634	4924.8	58.9638	4924.8	52.4676	4924.8	60.3155	4924.8	62.6931
5097.66	87.1169	5097.66	86.5677	5097.66	86.7585	5097.66	85.6913	5097.66	85.9045	5097.66	85.0208	5097.66	85.2212	5097.66	83.505	5097.66	83.9581	5097.66	81.3044	5097.66	82.1059	5097.66	78.8436	5097.66	79.5628	5097.66	76.1079	5097.66	76.0601	5097.66	72.6228	5097.66	73.166	5097.66	70.6233	5097.66	69.8089	5097.66	68.8693	5097.66	69.1392	5097.66	65.0104	5097.66	65.9117	5097.66	63.3876	5097.66	64.5524	5097.66	62.4268	5097.66	65.6199	5097.66	65.4049	5097.66	64.0509	5097.66	63.1894	5097.66	61.7424	5097.66	58.1943	5097.66	61.4779	5097.66	60.4514	5097.66	60.1807	5097.66	60.3091
5277.83	86.7187	5277.83	86.3278	5277.83	86.4125	5277.83	85.2546	5277.83	85.3368	5277.83	84.658	5277.83	84.6413	5277.83	83.5238	5277.83	83.5731	5277.83	80.6848	5277.83	80.977	5277.83	78.1441	5277.83	78.2344	5277.83	74.4973	5277.83	75.031	5277.83	71.7771	5277.83	72.122	5277.83	70.1114	5277.83	70.5165	5277.83	66.8978	5277.83	67.2367	5277.83	63.7287	5277.83	63.8771	5277.83	64.4194	5277.83	65.3696	5277.83	62.95	5277.83	64.2137	5277.83	63.2256	5277.83	62.5883	5277.83	65.025	5277.83	65.1969	5277.83	62.0583	5277.83	63.4543	5277.83	57.8551	5277.83	62.1932	5277.83	59.0642
5463.87	87.1674	5463.87	86.6623	5463.87	86.7574	5463.87	85.6884	5463.87	85.7713	5463.87	85.0467	5463.87	85.0589	5463.87	83.9524	5463.87	83.9367	5463.87	81.0536	5463.87	81.2026	5463.87	77.8002	5463.87	77.9504	5463.87	74.7722	5463.87	75.6202	5463.87	72.2616	5463.87	72.4321	5463.87	69.8561	5463.87	70.0988	5463.87	66.8733	5463.87	66.9226	5463.87	66.3498	5463.87	67.3184	5463.87	66.4835	5463.87	66.284	5463.87	61.4915	5463.87	60.5669	5463.87	54.2419	5463.87	51.6488	5463.87	66.0502	5463.87	66.4268	5463.87	61.6752	5463.87	61.3497	5463.87	63.172	5463.87	64.9084	5463.87	60.5075
5657.23	86.8283	5657.23	86.0817	5657.23	86.2599	5657.23	85.2387	5657.23	85.2682	5657.23	84.7208	5657.23	84.7343	5657.23	83.2981	5657.23	83.4502	5657.23	80.844	5657.23	81.1786	5657.23	77.6953	5657.23	78.2669	5657.23	75.171	5657.23	75.4888	5657.23	73.046	5657.23	73.3456	5657.23	70.9504	5657.23	70.2656	5657.23	67.8846	5657.23	67.1648	5657.23	65.8898	5657.23	65.9983	5657.23	65.7477	5657.23	65.5282	5657.23	62.0715	5657.23	59.0896	5657.23	52.3417	5657.23	55.9148	5657.23	65.4248	5657.23	65.7101	5657.23	60.5556	5657.23	61.6835	5657.23	61.7785	5657.23	61.2238	5657.23	53.6916
5856.45	86.3155	5856.45	85.5536	5856.45	85.7283	5856.45	84.6305	5856.45	84.7836	5856.45	84.6585	5856.45	84.5307	5856.45	83.2674	5856.45	83.4436	5856.45	81.3154	5856.45	81.1793	5856.45	78.9893	5856.45	78.7901	5856.45	76.5429	5856.45	76.2999	5856.45	73.9984	5856.45	73.4687	5856.45	71.2416	5856.45	70.7408	5856.45	69.0343	5856.45	68.6236	5856.45	65.7497	5856.45	66.186	5856.45	65.0149	5856.45	65.109	5856.45	62.6491	5856.45	59.9318	5856.45	60.8893	5856.45	61.9472	5856.45	63.6018	5856.45	64.8197	5856.45	62.5859	5856.45	62.1913	5856.45	59.3148	5856.45	60.2956	5856.45	58.2694
6062.99	86.0413	6062.99	85.2499	6062.99	85.3179	6062.99	84.5145	6062.99	84.4757	6062.99	84.4646	6062.99	84.3624	6062.99	83.1545	6062.99	83.0702	6062.99	81.3356	6062.99	81.2348	6062.99	78.9626	6062.99	78.9654	6062.99	76.0782	6062.99	76.1382	6062.99	73.2387	6062.99	73.4892	6062.99	69.6278	6062.99	70.006	6062.99	66.876	6062.99	67.4952	6062.99	65.2719	6062.99	65.8268	6062.99	63.927	6062.99	64.0506	6062.99	62.134	6062.99	58.7789	6062.99	60.2907	6062.99	63.8451	6062.99	62.6486	6062.99	62.5816	6062.99	62.7996	6062.99	62.0472	6062.99	58.9434	6062.99	59.573	6062.99	58.9067
6276.86	85.3431	6276.86	84.6207	6276.86	84.6372	6276.86	84.1355	6276.86	84.0878	6276.86	83.9429	6276.86	83.8886	6276.86	82.5242	6276.86	82.5883	6276.86	80.7779	6276.86	80.6917	6276.86	78.1644	6276.86	78.5064	6276.86	75.2566	6276.86	75.7099	6276.86	71.752	6276.86	72.4368	6276.86	68.9192	6276.86	69.8073	6276.86	67.137	6276.86	67.3419	6276.86	65.7709	6276.86	65.3313	6276.86	62.8697	6276.86	64.1212	6276.86	61.312	6276.86	59.5814	6276.86	59.7772	6276.86	63.1626	6276.86	62.0442	6276.86	62.417	6276.86	61.9007	6276.86	62.9551	6276.86	59.64	6276.86	59.5963	6276.86	57.5507
6498.05	85.1062	6498.05	84.4641	6498.05	84.3636	6498.05	84.034	6498.05	84.0013	6498.05	83.7869	6498.05	83.5297	6498.05	82.3343	6498.05	82.4151	6498.05	80.6512	6498.05	80.7655	6498.05	78.3636	6498.05	78.6382	6498.05	74.7609	6498.05	75.3353	6498.05	71.8932	6498.05	72.4312	6498.05	68.9321	6498.05	68.685	6498.05	66.3392	6498.05	66.9724	6498.05	65.3497	6498.05	64.8816	6498.05	63.4075	6498.05	61.8409	6498.05	61.8823	6498.05	58.4102	6498.05	59.8686	6498.05	60.7083	6498.05	60.2677	6498.05	61.0817	6498.05	62.5524	6498.05	62.5259	6498.05	58.9339	6498.05	60.6731	6498.05	55.291
6726.56	85.0145	6726.56	84.3134	6726.56	84.3913	6726.56	83.8885	6726.56	84.1167	6726.56	83.4322	6726.56	83.6556	6726.56	82.026	6726.56	82.4336	6726.56	80.2044	6726.56	80.7763	6726.56	77.7509	6726.56	78.2705	6726.56	74.5365	6726.56	74.7912	6726.56	71.4395	6726.56	71.5939	6726.56	68.0826	6726.56	68.6506	6726.56	66.0995	6726.56	65.7931	6726.56	64.1062	6726.56	64.2583	6726.56	62.2193	6726.56	62.7608	6726.56	57.2615	6726.56	57.3641	6726.56	60.5857	6726.56	59.62	6726.56	59.7228	6726.56	60.7775	6726.56	65.5596	6726.56	66.043	6726.56	54.9066	6726.56	55.5409	6726.56	62.1515
6963.87	84.7011	6963.87	84.1746	6963.87	84.2618	6963.87	83.9798	6963.87	84.208	6963.87	82.8458	6963.87	83.2144	6963.87	81.3537	6963.87	82.02	6963.87	80.195	6963.87	80.591	6963.87	77.3659	6963.87	78.2027	6963.87	74.3623	6963.87	75.2739	6963.87	71.3566	6963.87	71.6178	6963.87	68.3279	6963.87	68.7519	6963.87	66.5239	6963.87	66.2064	6963.87	64.621	6963.87	65.1129	6963.87	62.1971	6963.87	62.1836	6963.87	56.9657	6963.87	56.377	6963.87	60.4201	6963.87	63.2411	6963.87	61.7052	6963.87	63.6619	6963.87	64.9941	6963.87	64.7748	6963.87	51.0363	6963.87	54.8713	6963.87	60.7788
7209.96	84.0271	7209.96	84.3719	7209.96	84.3736	7209.96	84.25	7209.96	84.4722	7209.96	82.3999	7209.96	82.8414	7209.96	81.2197	7209.96	81.6999	7209.96	80.3658	7209.96	80.904	7209.96	77.5715	7209.96	78.3257	7209.96	74.0764	7209.96	75.0788	7209.96	71.1302	7209.96	71.8612	7209.96	68.6829	7209.96	69.3078	7209.96	65.7977	7209.96	66.7904	7209.96	63.4997	7209.96	63.5569	7209.96	60.493	7209.96	61.8034	7209.96	57.1478	7209.96	59.1365	7209.96	60.6039	7209.96	61.7687	7209.96	61.5778	7209.96	63.1429	7209.96	64.0251	7209.96	64.5106	7209.96	54.6332	7209.96	55.4993	7209.96	59.7305
7464.84	83.6767	7464.84	84.7151	7464.84	84.6889	7464.84	84.2609	7464.84	84.7282	7464.84	82.109	7464.84	82.7178	7464.84	81.6416	7464.84	82.1	7464.84	80.1557	7464.84	80.8574	7464.84	76.9113	7464.84	77.7313	7464.84	73.1737	7464.84	74.1416	7464.84	70.591	7464.84	71.5428	7464.84	68.14	7464.84	68.9066	7464.84	65.589	7464.84	67.3322	7464.84	62.0021	7464.84	63.3098	7464.84	60.2046	7464.84	61.9203	7464.84	60.0817	7464.84	60.3881	7464.84	60.121	7464.84	61.9835	7464.84	60.55	7464.84	61.3741	7464.84	63.5251	7464.84	62.8631	7464.84	54.4856	7464.84	54.3069	7464.84	57.9009
7727.05	83.3477	7727.05	84.5407	7727.05	84.4624	7727.05	83.6923	7727.05	84.4237	7727.05	82.1892	7727.05	82.7291	7727.05	81.8448	7727.05	82.5295	7727.05	79.4647	7727.05	80.5287	7727.05	76.3518	7727.05	77.7054	7727.05	73.8583	7727.05	74.9858	7727.05	71.2362	7727.05	71.9999	7727.05	68.3355	7727.05	69.1962	7727.05	65.7917	7727.05	66.7525	7727.05	62.476	7727.05	63.9065	7727.05	60.8208	7727.05	61.1854	7727.05	60.3519	7727.05	61.6912	7727.05	61.575	7727.05	61.4605	7727.05	58.431	7727.05	61.4493	7727.05	63.6033	7727.05	61.5242	7727.05	55.0887	7727.05	52.7789	7727.05	57.3631
7999.51	83.1305	7999.51	84.1253	7999.51	84.2668	7999.51	83.0767	7999.51	83.7717	7999.51	82.1098	7999.51	82.8189	7999.51	81.5389	7999.51	82.3318	7999.51	79.2424	7999.51	80.2092	7999.51	76.9461	7999.51	78.1448	7999.51	74.5924	7999.51	75.3838	7999.51	71.675	7999.51	72.5051	7999.51	68.2813	7999.51	69.101	7999.51	65.9742	7999.51	65.9046	7999.51	62.8632	7999.51	64.3395	7999.51	61.1438	7999.51	62.5313	7999.51	60.6405	7999.51	62.1294	7999.51	60.6614	7999.51	61.5375	7999.51	58.4463	7999.51	59.0849	7999.51	61.8261	7999.51	60.2988	7999.51	56.3935	7999.51	56.4747	7999.51	56.5813
8282.23	82.8455	8282.23	83.3748	8282.23	83.5157	8282.23	82.0952	8282.23	82.9517	8282.23	81.9969	8282.23	82.5508	8282.23	80.9748	8282.23	81.9447	8282.23	79.1079	8282.23	80.2319	8282.23	77.5662	8282.23	78.3369	8282.23	74.3174	8282.23	75.5215	8282.23	71.2964	8282.23	72.5013	8282.23	67.627	8282.23	68.7838	8282.23	64.932	8282.23	66.2393	8282.23	62.6121	8282.23	64.2651	8282.23	60.8642	8282.23	61.9878	8282.23	61.2456	8282.23	61.3681	8282.23	60.0913	8282.23	58.8239	8282.23	58.2055	8282.23	56.1444	8282.23	60.5459	8282.23	60.3458	8282.23	56.4947	8282.23	57.0177	8282.23	56.0098
8573.73	81.2989	8573.73	81.9509	8573.73	81.9935	8573.73	81.111	8573.73	81.6102	8573.73	81.8686	8573.73	82.1912	8573.73	80.8028	8573.73	81.5499	8573.73	80.0353	8573.73	80.5005	8573.73	78.3973	8573.73	78.9359	8573.73	74.8683	8573.73	75.8163	8573.73	71.6215	8573.73	72.3296	8573.73	68.4626	8573.73	69.2989	8573.73	65.9018	8573.73	67.0023	8573.73	63.2532	8573.73	63.8836	8573.73	60.8438	8573.73	62.2612	8573.73	61.2424	8573.73	61.4792	8573.73	58.297	8573.73	58.3901	8573.73	55.8426	8573.73	54.325	8573.73	58.8121	8573.73	58.9129	8573.73	57.2647	8573.73	58.5665	8573.73	56.1993
8876.95	77.8147	8876.95	78.43	8876.95	78.6221	8876.95	80.1182	8876.95	79.7776	8876.95	81.9663	8876.95	81.8158	8876.95	81.6966	8876.95	81.4847	8876.95	81.4836	8876.95	81.3811	8876.95	79.194	8876.95	79.5286	8876.95	75.7606	8876.95	75.8448	8876.95	72.5273	8876.95	72.6979	8876.95	69.1124	8876.95	69.684	8876.95	66.8411	8876.95	66.8352	8876.95	63.6082	8876.95	64.8096	8876.95	62.0891	8876.95	62.4482	8876.95	62.2086	8876.95	62.8567	8876.95	57.2976	8876.95	56.2264	8876.95	56.543	8876.95	53.9721	8876.95	59.5083	8876.95	59.3439	8876.95	59.8324	8876.95	59.2481	8876.95	53.9638
9188.96	76.2835	9188.96	75.3601	9188.96	74.5974	9188.96	80.5803	9188.96	79.8019	9188.96	82.2413	9188.96	81.9737	9188.96	82.7909	9188.96	82.3053	9188.96	82.2796	9188.96	82.4532	9188.96	79.4737	9188.96	79.8782	9188.96	75.8778	9188.96	76.5964	9188.96	72.5628	9188.96	73.3828	9188.96	69.3436	9188.96	69.979	9188.96	67.1698	9188.96	67.5033	9188.96	64.0992	9188.96	64.9968	9188.96	62.0436	9188.96	62.0133	9188.96	61.0648	9188.96	60.5215	9188.96	56.5577	9188.96	55.7344	9188.96	57.5631	9188.96	55.9312	9188.96	59.3554	9188.96	59.677	9188.96	59.366	9188.96	58.6412	9188.96	55.2837
9514.16	82.458	9514.16	81.4923	9514.16	81.5053	9514.16	83.1025	9514.16	82.7359	9514.16	83.1292	9514.16	83.0995	9514.16	83.3608	9514.16	83.2805	9514.16	82.0802	9514.16	82.4864	9514.16	79.2251	9514.16	79.8504	9514.16	76.021	9514.16	76.9562	9514.16	72.5417	9514.16	73.1775	9514.16	68.8732	9514.16	69.5611	9514.16	65.6997	9514.16	66.4972	9514.16	63.5175	9514.16	63.3824	9514.16	61.033	9514.16	61.737	9514.16	59.3174	9514.16	57.7919	9514.16	53.7532	9514.16	55.5248	9514.16	55.3846	9514.16	56.4995	9514.16	56.5214	9514.16	58.7618	9514.16	57.5033	9514.16	58.6417	9514.16	52.5412
9849.61	85.5979	9849.61	85.0062	9849.61	85.0833	9849.61	84.7772	9849.61	84.9483	9849.61	83.8523	9849.61	84.0809	9849.61	83.135	9849.61	83.2192	9849.61	81.1284	9849.61	81.4225	9849.61	78.3742	9849.61	78.5421	9849.61	74.8235	9849.61	74.757	9849.61	70.617	9849.61	70.356	9849.61	66.2557	9849.61	67.0786	9849.61	63.2661	9849.61	63.5302	9849.61	61.2189	9849.61	60.6654	9849.61	58.289	9849.61	58.8796	9849.61	56.9213	9849.61	55.7645	9849.61	53.2244	9849.61	53.7395	9849.61	53.4306	9849.61	55.4914	9849.61	55.9932	9849.61	56.7381	9849.61	55.5692	9849.61	55.6437	9849.61	45.0362
10196.8	86.7341	10196.8	86.2023	10196.8	86.1279	10196.8	85.5672	10196.8	85.7771	10196.8	84.1496	10196.8	84.436	10196.8	82.8413	10196.8	82.9224	10196.8	80.1964	10196.8	80.568	10196.8	77.3579	10196.8	77.5936	10196.8	72.9625	10196.8	73.0323	10196.8	67.6891	10196.8	68.1999	10196.8	63.7108	10196.8	64.4006	10196.8	61.7555	10196.8	61.6642	10196.8	58.7808	10196.8	58.9263	10196.8	55.4987	10196.8	56.6635	10196.8	53.8927	10196.8	54.316	10196.8	51.0836	10196.8	51.9996	10196.8	52.8749	10196.8	53.5662	10196.8	54.7547	10196.8	54.4174	10196.8	53.8452	10196.8	53.0952	10196.8	43.5282
10555.7	87.2021	10555.7	86.7532	10555.7	86.9597	10555.7	85.697	10555.7	86.1383	10555.7	84.2322	10555.7	84.7824	10555.7	82.3462	10555.7	82.8198	10555.7	79.6423	10555.7	80.3596	10555.7	76.4294	10555.7	77.0943	10555.7	71.1632	10555.7	72.348	10555.7	67.2541	10555.7	67.527	10555.7	63.705	10555.7	64.0829	10555.7	60.4675	10555.7	60.7416	10555.7	57.7613	10555.7	57.3232	10555.7	51.9805	10555.7	55.8836	10555.7	48.5714	10555.7	55.2327	10555.7	48.8204	10555.7	52.0523	10555.7	51.7226	10555.7	52.9757	10555.7	53.7319	10555.7	53.8813	10555.7	52.6008	10555.7	52.6011	10555.7	47.1681
10927.7	87.3127	10927.7	86.8236	10927.7	87.1965	10927.7	85.5167	10927.7	86.27	10927.7	83.882	10927.7	84.9792	10927.7	81.5325	10927.7	82.5573	10927.7	79.1808	10927.7	80.1371	10927.7	75.4268	10927.7	76.2768	10927.7	70.7572	10927.7	71.4015	10927.7	66.3074	10927.7	67.1955	10927.7	63.1605	10927.7	64.2615	10927.7	60.279	10927.7	61.2191	10927.7	58.4782	10927.7	58.7587	10927.7	53.0753	10927.7	55.4891	10927.7	49.9573	10927.7	54.6834	10927.7	50.0998	10927.7	51.7675	10927.7	50.9616	10927.7	53.5838	10927.7	51.9867	10927.7	52.9078	10927.7	50.0322	10927.7	49.3332	10927.7	41.459
11313	87.1494	11313	86.8857	11313	86.9815	11313	85.2548	11313	86.0133	11313	83.539	11313	84.5459	11313	80.6801	11313	81.9565	11313	77.7352	11313	79.2229	11313	73.5196	11313	75.1308	11313	68.793	11313	70.7808	11313	64.2345	11313	66.3561	11313	60.5893	11313	62.8917	11313	57.5643	11313	60.2017	11313	54.873	11313	57.0166	11313	50.9877	11313	54.9686	11313	49.2124	11313	53.0569	11313	48.3462	11313	50.6019	11313	47.9685	11313	51.5018	11313	49.4252	11313	50.147	11313	47.4189	11313	44.8426	11313	35.7497
11712.9	87.1103	11712.9	86.6382	11712.9	87.0023	11712.9	84.818	11712.9	85.745	11712.9	82.5669	11712.9	83.8347	11712.9	79.3023	11712.9	80.7095	11712.9	75.5948	11712.9	77.257	11712.9	70.6442	11712.9	72.8532	11712.9	66.576	11712.9	69.1089	11712.9	62.9463	11712.9	64.4612	11712.9	57.8725	11712.9	59.5445	11712.9	54.3199	11712.9	56.2717	11712.9	53.2802	11712.9	55.0071	11712.9	49.2871	11712.9	52.7739	11712.9	47.3069	11712.9	53.0931	11712.9	42.3176	11712.9	49.497	11712.9	42.8431	11712.9	49.3906	11712.9	42.6917	11712.9	43.4298	11712.9	28.596	11712.9	50.4501	11712.9	39.4632
12126	86.8926	12126	86.5261	12126	86.675	12126	84.7548	12126	85.1771	12126	82.4999	12126	83.218	12126	79.1015	12126	79.9997	12126	75.1566	12126	76.1981	12126	70.7607	12126	72.1399	12126	66.9531	12126	67.8115	12126	61.9976	12126	63.8623	12126	59.1111	12126	59.3858	12126	55.896	12126	55.7678	12126	51.6821	12126	54.3106	12126	50.7621	12126	51.1718	12126	51.0439	12126	50.8983	12126	43.1937	12126	46.3604	12126	39.3208	12126	48.1193	12126	38.6183	12126	46.5644	12126	46.8161	12126	52.7711	12126	48.8709
12553.7	86.6308	12553.7	86.3166	12553.7	86.3642	12553.7	84.5044	12553.7	85.0378	12553.7	82.3403	12553.7	82.8362	12553.7	79.2305	12553.7	79.9185	12553.7	76.0796	12553.7	76.2152	12553.7	72.4834	12553.7	73.4201	12553.7	68.2416	12553.7	68.8256	12553.7	64.2199	12553.7	65.1512	12553.7	59.9497	12553.7	60.2416	12553.7	56.2906	12553.7	57.419	12553.7	54.3738	12553.7	55.406	12553.7	53.5434	12553.7	50.5159	12553.7	51.9805	12553.7	52.6391	12553.7	45.9175	12553.7	51.8369	12553.7	41.0261	12553.7	48.3202	12553.7	36.9771	12553.7	42.3364	12553.7	49.3413	12553.7	50.3967	12553.7	50.5217
12996.1	86.4148	12996.1	86.1095	12996.1	86.2507	12996.1	84.4353	12996.1	84.8131	12996.1	82.5216	12996.1	82.897	12996.1	79.3656	12996.1	79.8681	12996.1	77.075	12996.1	76.921	12996.1	72.8069	12996.1	72.9303	12996.1	68.5831	12996.1	67.9125	12996.1	63.7737	12996.1	64.1072	12996.1	60.27	12996.1	61.0529	12996.1	56.9737	12996.1	58.7099	12996.1	54.6511	12996.1	55.2881	12996.1	54.3162	12996.1	53.2242	12996.1	50.8032	12996.1	53.5606	12996.1	46.3243	12996.1	49.5914	12996.1	41.5057	12996.1	43.0515	12996.1	43.2136	12996.1	44.2893	12996.1	51.3435	12996.1	48.9807	12996.1	43.6309
13454.6	85.9932	13454.6	85.7477	13454.6	85.7895	13454.6	84.5298	13454.6	84.8566	13454.6	83.2097	13454.6	83.383	13454.6	80.4923	13454.6	80.9018	13454.6	78.3185	13454.6	78.559	13454.6	73.5831	13454.6	74.7153	13454.6	69.0243	13454.6	70.7247	13454.6	64.3469	13454.6	66.3737	13454.6	60.2292	13454.6	62.8001	13454.6	57.7439	13454.6	59.54	13454.6	55.7958	13454.6	57.1463	13454.6	56.2378	13454.6	55.7345	13454.6	54.3836	13454.6	55.6327	13454.6	50.5306	13454.6	53.2654	13454.6	41.544	13454.6	43.4168	13454.6	45.0324	13454.6	44.8234	13454.6	49.2893	13454.6	39.0759	13454.6	42.9486
13929.2	86.2215	13929.2	86.0723	13929.2	85.8011	13929.2	85.2989	13929.2	85.2883	13929.2	84.0296	13929.2	84.1089	13929.2	81.1264	13929.2	81.5414	13929.2	78.3854	13929.2	79.0381	13929.2	73.4668	13929.2	74.9626	13929.2	68.6418	13929.2	70.8479	13929.2	64.6775	13929.2	65.3867	13929.2	62.2295	13929.2	63.2052	13929.2	58.1807	13929.2	59.6697	13929.2	57.494	13929.2	57.3542	13929.2	56.5033	13929.2	56.4046	13929.2	55.3159	13929.2	55.6127	13929.2	50.8556	13929.2	52.778	13929.2	38.0959	13929.2	42.4209	13929.2	45.036	13929.2	40.0316	13929.2	49.7092	13929.2	33.9255	13929.2	44.6564
14419.9	87.2607	14419.9	87.1179	14419.9	86.9325	14419.9	86.1339	14419.9	86.2221	14419.9	84.6637	14419.9	84.8732	14419.9	81.6387	14419.9	82.3131	14419.9	77.9253	14419.9	78.7783	14419.9	73.136	14419.9	74.7846	14419.9	68.7479	14419.9	70.5815	14419.9	64.8379	14419.9	65.973	14419.9	62.3774	14419.9	63.7089	14419.9	58.6842	14419.9	59.4995	14419.9	56.9364	14419.9	56.469	14419.9	55.3812	14419.9	54.313	14419.9	54.8332	14419.9	54.6884	14419.9	49.9378	14419.9	52.1423	14419.9	39.2322	14419.9	42.2104	14419.9	46.8602	14419.9	41.6423	14419.9	52.1279	14419.9	37.8419	14419.9	47.1379
14928.2	88.228	14928.2	88.0996	14928.2	87.9139	14928.2	86.7301	14928.2	86.8996	14928.2	85.0005	14928.2	85.1723	14928.2	81.4594	14928.2	82.4305	14928.2	77.3238	14928.2	78.3433	14928.2	72.5195	14928.2	74.6963	14928.2	68.6581	14928.2	70.7804	14928.2	65.1695	14928.2	66.6302	14928.2	62.1602	14928.2	63.3611	14928.2	58.2876	14928.2	59.6977	14928.2	55.8452	14928.2	55.4685	14928.2	54.0301	14928.2	52.3479	14928.2	53.9087	14928.2	54.3942	14928.2	49.2849	14928.2	51.9502	14928.2	38.9203	14928.2	42.2942	14928.2	47.8902	14928.2	39.9559	14928.2	49.0225	14928.2	37.3849	14928.2	38.4246
15455.6	88.4652	15455.6	88.3005	15455.6	87.9846	15455.6	86.799	15455.6	86.8126	15455.6	84.9763	15455.6	84.9095	15455.6	81.0491	15455.6	82.2574	15455.6	77.3764	15455.6	78.4361	15455.6	73.208	15455.6	75.0786	15455.6	69.5583	15455.6	71.1439	15455.6	65.0657	15455.6	66.8504	15455.6	61.6505	15455.6	63.3894	15455.6	57.5042	15455.6	59.2733	15455.6	55.3947	15455.6	54.6678	15455.6	52.285	15455.6	51.561	15455.6	53.1319	15455.6	52.9251	15455.6	47.9829	15455.6	49.6266	15455.6	38.3408	15455.6	40.2924	15455.6	46.773	15455.6	42.7638	15455.6	49.3237	15455.6	43.6941	15455.6	37.9012
16000.5	87.527	16000.5	87.3499	16000.5	87.0489	16000.5	85.9383	16000.5	85.9398	16000.5	84.3593	16000.5	84.1974	16000.5	80.3732	16000.5	81.6443	16000.5	76.6132	16000.5	77.813	16000.5	72.8912	16000.5	74.4492	16000.5	67.9026	16000.5	69.872	16000.5	62.2659	16000.5	65.225	16000.5	59.3848	16000.5	61.516	16000.5	55.1225	16000.5	57.488	16000.5	53.5441	16000.5	53.0239	16000.5	49.4057	16000.5	50.1385	16000.5	50.6091	16000.5	50.4311	16000.5	43.4978	16000.5	46.1091	16000.5	39.7676	16000.5	28.1156	16000.5	45.6803	16000.5	46.4135	16000.5	52.5057	16000.5	48.7778	16000.5	48.1098
16564.5	85.2705	16564.5	84.9787	16564.5	84.7743	16564.5	83.5597	16564.5	83.7621	16564.5	81.952	16564.5	82.146	16564.5	77.6024	16564.5	79.3864	16564.5	72.9634	16564.5	74.7508	16564.5	67.8903	16564.5	70.8493	16564.5	60.392	16564.5	64.6603	16564.5	50.3554	16564.5	59.0557	16564.5	50.5559	16564.5	56.3206	16564.5	46.5904	16564.5	52.5704	16564.5	46.0473	16564.5	48.2582	16564.5	41.395	16564.5	46.3044	16564.5	44.6996	16564.5	45.8124	16564.5	39.111	16564.5	43.2996	16564.5	37.0506	16564.5	13.0789	16564.5	36.3647	16564.5	38.3648	16564.5	50.5646	16564.5	46.6036	16564.5	48.274
17148.9	88.0208	17148.9	87.3363	17148.9	87.2032	17148.9	84.9712	17148.9	85.354	17148.9	82.2332	17148.9	82.57	17148.9	76.4603	17148.9	78.5735	17148.9	70.5983	17148.9	72.8217	17148.9	58.6577	17148.9	67.1776	17148.9	50.1423	17148.9	60.4917	17148.9	53.3797	17148.9	54.648	17148.9	48.5554	17148.9	51.3275	17148.9	40.9396	17148.9	46.3508	17148.9	35.776	17148.9	38.763	17148.9	31.0132	17148.9	39.7247	17148.9	39.4361	17148.9	42.8144	17148.9	21.5364	17148.9	34.6624	17148.9	26.7915	17148.9	32.5041	17148.9	37.0311	17148.9	35.0051	17148.9	48.3457	17148.9	38.6993	17148.9	47.3264
17752.4	89.1774	17752.4	88.509	17752.4	88.3796	17752.4	86.0495	17752.4	86.46	17752.4	82.5161	17752.4	82.8147	17752.4	74.6129	17752.4	76.8445	17752.4	63.6353	17752.4	68.195	17752.4	59.9485	17752.4	60.2195	17752.4	57.1579	17752.4	55.4055	17752.4	54.1173	17752.4	51.997	17752.4	49.8869	17752.4	46.3146	17752.4	48.5865	17752.4	45.204	17752.4	44.2108	17752.4	42.6942	17752.4	42.4762	17752.4	40.4981	17752.4	34.2106	17752.4	36.5592	17752.4	35.8834	17752.4	31.7703	17752.4	42.9975	17752.4	35.1868	17752.4	35.41	17752.4	44.4008	17752.4	40.6416	17752.4	40.2836	17752.4	42.9253
18379.4	87.9238	18379.4	87.1382	18379.4	87.0681	18379.4	84.5578	18379.4	85.036	18379.4	80.5942	18379.4	80.9587	18379.4	70.2426	18379.4	73.2549	18379.4	53.962	18379.4	54.3314	18379.4	66.1163	18379.4	62.7344	18379.4	64.3518	18379.4	62.1477	18379.4	60.496	18379.4	58.0941	18379.4	55.264	18379.4	52.5189	18379.4	52.2787	18379.4	49.9903	18379.4	49.0018	18379.4	47.8496	18379.4	42.5131	18379.4	43.6363	18379.4	40.7896	18379.4	39.4145	18379.4	39.2294	18379.4	35.4356	18379.4	43.9664	18379.4	39.552	18379.4	27.2884	18379.4	39.4914	18379.4	36.8487	18379.4	36.3321	18379.4	42.0067
19026.9	86.972	19026.9	86.1617	19026.9	86.0214	19026.9	83.1639	19026.9	83.6598	19026.9	78.2054	19026.9	78.6426	19026.9	62.488	19026.9	68.8967	19026.9	64.5282	19026.9	59.5655	19026.9	69.2493	19026.9	66.2712	19026.9	65.9042	19026.9	64.8646	19026.9	60.4713	19026.9	59.6941	19026.9	55.8722	19026.9	54.7923	19026.9	51.9895	19026.9	51.3553	19026.9	48.9888	19026.9	49.4793	19026.9	43.6325	19026.9	46.5111	19026.9	42.2664	19026.9	32.2697	19026.9	37.7213	19026.9	39.7047	19026.9	43.1118	19026.9	45.3377	19026.9	34.2937	19026.9	45.8914	19026.9	40.0164	19026.9	40.531	19026.9	41.4775
19697.8	86.7871	19697.8	85.6286	19697.8	85.6949	19697.8	82.0994	19697.8	82.8042	19697.8	76.3526	19697.8	76.3725	19697.8	61.3227	19697.8	56.3021	19697.8	69.1296	19697.8	67.689	19697.8	70.2465	19697.8	69.4526	19697.8	66.7162	19697.8	66.4841	19697.8	62.3166	19697.8	62.1621	19697.8	57.0855	19697.8	56.795	19697.8	53.1717	19697.8	52.2207	19697.8	49.4927	19697.8	51.2398	19697.8	45.5077	19697.8	48.4772	19697.8	41.6131	19697.8	25.3476	19697.8	34.7913	19697.8	37.9477	19697.8	43.656	19697.8	45.9824	19697.8	43.3538	19697.8	37.6949	19697.8	30.2142	19697.8	42.5358	19697.8	39.1046
19999.5	86.6199	19999.5	85.2282	19999.5	85.6297	19999.5	81.7139	19999.5	82.4461	19999.5	76.2418	19999.5	75.0752	19999.5	63.1412	19999.5	55.807	19999.5	70.046	19999.5	70.1481	19999.5	69.9468	19999.5	70.284	19999.5	67.1693	19999.5	68.0277	19999.5	62.2297	19999.5	63.4485	19999.5	55.9774	19999.5	56.438	19999.5	55.1625	19999.5	52.8381	19999.5	50.251	19999.5	51.5433	19999.5	47.7128	19999.5	48.4288	19999.5	48.0795	19999.5	45.5412	19999.5	41.6146	19999.5	44.0256	19999.5	45.6398	19999.5	52.7578	19999.5	27.1515	19999.5	45.3419	19999.5	44.4611	19999.5	43.823	19999.5	49.2845
