"SPL Vertical"
"On-Axis"		"10°"		"-10°"		"20°"		"-20°"		"30°"		"-30°"		"40°"		"-40°"		"50°"		"-50°"		"60°"		"-60°"		"70°"		"-70°"		"80°"		"-80°"		"90°"		"-90°"		"100°"		"-100°"		"110°"		"-110°"		"120°"		"-120°"		"130°"		"-130°"		"140°"		"-140°"		"150°"		"-150°"		"160°"		"-160°"		"170°"		"-170°"		"180°"
"Frequency / Hz"	"Sound Pressure Level / dB (re 20 µPa/V)  [2.83V at 1m]"	"Frequency / Hz"	"Sound Pressure Level / dB (re 20 µPa/V)  [2.83V at 1m]"	"Frequency / Hz"	"Sound Pressure Level / dB (re 20 µPa/V)  [2.83V at 1m]"	"Frequency / Hz"	"Sound Pressure Level / dB (re 20 µPa/V)  [2.83V at 1m]"	"Frequency / Hz"	"Sound Pressure Level / dB (re 20 µPa/V)  [2.83V at 1m]"	"Frequency / Hz"	"Sound Pressure Level / dB (re 20 µPa/V)  [2.83V at 1m]"	"Frequency / Hz"	"Sound Pressure Level / dB (re 20 µPa/V)  [2.83V at 1m]"	"Frequency / Hz"	"Sound Pressure Level / dB (re 20 µPa/V)  [2.83V at 1m]"	"Frequency / Hz"	"Sound Pressure Level / dB (re 20 µPa/V)  [2.83V at 1m]"	"Frequency / Hz"	"Sound Pressure Level / dB (re 20 µPa/V)  [2.83V at 1m]"	"Frequency / Hz"	"Sound Pressure Level / dB (re 20 µPa/V)  [2.83V at 1m]"	"Frequency / Hz"	"Sound Pressure Level / dB (re 20 µPa/V)  [2.83V at 1m]"	"Frequency / Hz"	"Sound Pressure Level / dB (re 20 µPa/V)  [2.83V at 1m]"	"Frequency / Hz"	"Sound Pressure Level / dB (re 20 µPa/V)  [2.83V at 1m]"	"Frequency / Hz"	"Sound Pressure Level / dB (re 20 µPa/V)  [2.83V at 1m]"	"Frequency / Hz"	"Sound Pressure Level / dB (re 20 µPa/V)  [2.83V at 1m]"	"Frequency / Hz"	"Sound Pressure Level / dB (re 20 µPa/V)  [2.83V at 1m]"	"Frequency / Hz"	"Sound Pressure Level / dB (re 20 µPa/V)  [2.83V at 1m]"	"Frequency / Hz"	"Sound Pressure Level / dB (re 20 µPa/V)  [2.83V at 1m]"	"Frequency / Hz"	"Sound Pressure Level / dB (re 20 µPa/V)  [2.83V at 1m]"	"Frequency / Hz"	"Sound Pressure Level / dB (re 20 µPa/V)  [2.83V at 1m]"	"Frequency / Hz"	"Sound Pressure Level / dB (re 20 µPa/V)  [2.83V at 1m]"	"Frequency / Hz"	"Sound Pressure Level / dB (re 20 µPa/V)  [2.83V at 1m]"	"Frequency / Hz"	"Sound Pressure Level / dB (re 20 µPa/V)  [2.83V at 1m]"	"Frequency / Hz"	"Sound Pressure Level / dB (re 20 µPa/V)  [2.83V at 1m]"	"Frequency / Hz"	"Sound Pressure Level / dB (re 20 µPa/V)  [2.83V at 1m]"	"Frequency / Hz"	"Sound Pressure Level / dB (re 20 µPa/V)  [2.83V at 1m]"	"Frequency / Hz"	"Sound Pressure Level / dB (re 20 µPa/V)  [2.83V at 1m]"	"Frequency / Hz"	"Sound Pressure Level / dB (re 20 µPa/V)  [2.83V at 1m]"	"Frequency / Hz"	"Sound Pressure Level / dB (re 20 µPa/V)  [2.83V at 1m]"	"Frequency / Hz"	"Sound Pressure Level / dB (re 20 µPa/V)  [2.83V at 1m]"	"Frequency / Hz"	"Sound Pressure Level / dB (re 20 µPa/V)  [2.83V at 1m]"	"Frequency / Hz"	"Sound Pressure Level / dB (re 20 µPa/V)  [2.83V at 1m]"	"Frequency / Hz"	"Sound Pressure Level / dB (re 20 µPa/V)  [2.83V at 1m]"	"Frequency / Hz"	"Sound Pressure Level / dB (re 20 µPa/V)  [2.83V at 1m]"	"Frequency / Hz"	"Sound Pressure Level / dB (re 20 µPa/V)  [2.83V at 1m]"
20.5078	62.6119	20.5078	62.2946	20.5078	62.8393	20.5078	61.889	20.5078	62.9749	20.5078	61.3976	20.5078	63.0157	20.5078	60.8247	20.5078	62.9581	20.5078	60.1805	20.5078	62.7978	20.5078	59.4855	20.5078	62.53	20.5078	58.7782	20.5078	62.1511	20.5078	58.1218	20.5078	61.6598	20.5078	57.6027	20.5078	61.0617	20.5078	57.3072	20.5078	60.3749	20.5078	57.2763	20.5078	59.6394	20.5078	57.4744	20.5078	58.9264	20.5078	57.8045	20.5078	58.3374	20.5078	58.155	20.5078	57.9737	20.5078	58.4362	20.5078	57.8798	20.5078	58.592	20.5078	58.0069	20.5078	58.5995	20.5078	58.2421	20.5078	58.4679
21.9727	59.0178	21.9727	58.4531	21.9727	59.3817	21.9727	57.6692	21.9727	59.5539	21.9727	56.6384	21.9727	59.5342	21.9727	55.331	21.9727	59.3131	21.9727	53.7469	21.9727	58.8703	21.9727	52.0399	21.9727	58.1721	21.9727	50.8248	21.9727	57.1675	21.9727	51.0864	21.9727	55.784	21.9727	52.7309	21.9727	53.9382	21.9727	54.7453	21.9727	51.6496	21.9727	56.5682	21.9727	49.6454	21.9727	58.0604	21.9727	49.9604	21.9727	59.2152	21.9727	52.3899	21.9727	60.0499	21.9727	54.9352	21.9727	60.579	21.9727	56.9817	21.9727	60.8086	21.9727	58.5206	21.9727	60.7359	21.9727	59.6234	21.9727	60.3488
23.4375	59.7466	23.4375	59.4107	23.4375	59.989	23.4375	59.0279	23.4375	60.1126	23.4375	58.6769	23.4375	60.1052	23.4375	58.4732	23.4375	59.9654	23.4375	58.5462	23.4375	59.7052	23.4375	58.9768	23.4375	59.3603	23.4375	59.7425	23.4375	59.0073	23.4375	60.7323	23.4375	58.7804	23.4375	61.8143	23.4375	58.8521	23.4375	62.8837	23.4375	59.3441	23.4375	63.8717	23.4375	60.2279	23.4375	64.7368	23.4375	61.3452	23.4375	65.4536	23.4375	62.5193	23.4375	66.0056	23.4375	63.6243	23.4375	66.381	23.4375	64.5886	23.4375	66.571	23.4375	65.3768	23.4375	66.569	23.4375	65.9727	23.4375	66.3704
24.9023	63.8214	24.9023	63.7113	24.9023	63.9153	24.9023	63.6179	24.9023	63.9715	24.9023	63.5839	24.9023	63.979	24.9023	63.6563	24.9023	63.9384	24.9023	63.8759	24.9023	63.8633	24.9023	64.2631	24.9023	63.7837	24.9023	64.8091	24.9023	63.748	24.9023	65.4784	24.9023	63.8201	24.9023	66.2202	24.9023	64.0629	24.9023	66.9815	24.9023	64.5121	24.9023	67.7154	24.9023	65.1546	24.9023	68.3834	24.9023	65.9317	24.9023	68.9553	24.9023	66.7643	24.9023	69.4078	24.9023	67.5777	24.9023	69.7227	24.9023	68.3142	24.9023	69.8871	24.9023	68.9339	24.9023	69.8921	24.9023	69.4118	24.9023	69.7334
26.3672	67.4906	26.3672	67.4437	26.3672	67.5504	26.3672	67.4299	26.3672	67.6091	26.3672	67.4735	26.3672	67.6603	26.3672	67.5999	26.3672	67.7057	26.3672	67.8293	26.3672	67.7555	26.3672	68.1716	26.3672	67.829	26.3672	68.6222	26.3672	67.9528	26.3672	69.1621	26.3672	68.1571	26.3672	69.762	26.3672	68.4669	26.3672	70.3873	26.3672	68.8926	26.3672	71.0035	26.3672	69.4235	26.3672	71.5786	26.3672	70.0285	26.3672	72.0844	26.3672	70.6643	26.3672	72.4976	26.3672	71.2849	26.3672	72.7995	26.3672	71.8492	26.3672	72.9757	26.3672	72.3243	26.3672	73.0173	26.3672	72.6866	26.3672	72.9203
27.832	70.007	27.832	70.0186	27.832	70.024	27.832	70.0698	27.832	70.0613	27.832	70.1731	27.832	70.1143	27.832	70.3402	27.832	70.1829	27.832	70.5793	27.832	70.2714	27.832	70.8932	27.832	70.3884	27.832	71.2772	27.832	70.5459	27.832	71.7197	27.832	70.7571	27.832	72.2024	27.832	71.0335	27.832	72.703	27.832	71.381	27.832	73.1971	27.832	71.796	27.832	73.6598	27.832	72.2643	27.832	74.0675	27.832	72.7623	27.832	74.3989	27.832	73.2603	27.832	74.6361	27.832	73.7271	27.832	74.7656	27.832	74.1336	27.832	74.779	27.832	74.4552	27.832	74.6741
29.2969	72.2012	29.2969	72.2063	29.2969	72.2185	29.2969	72.2411	29.2969	72.2529	29.2969	72.3135	29.2969	72.3011	29.2969	72.4317	29.2969	72.3626	29.2969	72.602	29.2969	72.4398	29.2969	72.828	29.2969	72.5376	29.2969	73.1092	29.2969	72.6636	29.2969	73.4397	29.2969	72.8263	29.2969	73.8087	29.2969	73.0341	29.2969	74.2007	29.2969	73.2925	29.2969	74.5969	29.2969	73.6017	29.2969	74.9762	29.2969	73.9545	29.2969	75.3173	29.2969	74.3357	29.2969	75.5997	29.2969	74.724	29.2969	75.8058	29.2969	75.0942	29.2969	75.9221	29.2969	75.421	29.2969	75.9405	29.2969	75.6818	29.2969	75.8588
30.7617	73.4082	30.7617	73.4159	30.7617	73.4185	30.7617	73.4465	30.7617	73.4433	30.7617	73.5058	30.7617	73.4804	30.7617	73.5995	30.7617	73.5295	30.7617	73.7326	30.7617	73.5922	30.7617	73.9085	30.7617	73.672	30.7617	74.1282	30.7617	73.7742	30.7617	74.3888	30.7617	73.9052	30.7617	74.6835	30.7617	74.0714	30.7617	75.0013	30.7617	74.2775	30.7617	75.3274	30.7617	74.5246	30.7617	75.6443	30.7617	74.8086	30.7617	75.9329	30.7617	75.1188	30.7617	76.1744	30.7617	75.4388	30.7617	76.3521	30.7617	75.7478	30.7617	76.453	30.7617	76.024	30.7617	76.4691	30.7617	76.2465	30.7617	76.3987
32.2266	74.0008	32.2266	73.9993	32.2266	74.0163	32.2266	74.0157	32.2266	74.0427	32.2266	74.0548	32.2266	74.0783	32.2266	74.1219	32.2266	74.123	32.2266	74.2218	32.2266	74.1781	32.2266	74.3584	32.2266	74.2464	32.2266	74.5338	32.2266	74.3322	32.2266	74.7471	32.2266	74.4409	32.2266	74.9936	32.2266	74.5778	32.2266	75.2648	32.2266	74.7475	32.2266	75.5481	32.2266	74.9516	32.2266	75.8278	32.2266	75.1875	32.2266	76.0864	32.2266	75.4472	32.2266	76.3061	32.2266	75.7171	32.2266	76.4707	32.2266	75.9797	32.2266	76.5675	32.2266	76.2153	32.2266	76.5889	32.2266	76.4051	32.2266	76.5332
33.6914	74.4146	33.6914	74.4098	33.6914	74.4322	33.6914	74.4207	33.6914	74.4599	33.6914	74.4512	33.6914	74.4966	33.6914	74.5055	33.6914	74.5418	33.6914	74.5875	33.6914	74.5962	33.6914	74.7007	33.6914	74.6619	33.6914	74.8468	33.6914	74.7416	33.6914	75.0257	33.6914	74.8392	33.6914	75.2339	33.6914	74.9586	33.6914	75.4647	33.6914	75.103	33.6914	75.7078	33.6914	75.274	33.6914	75.9499	33.6914	75.4697	33.6914	76.1756	33.6914	75.6843	33.6914	76.3691	33.6914	75.9075	33.6914	76.5158	33.6914	76.1251	33.6914	76.6042	33.6914	76.3209	33.6914	76.6274	33.6914	76.4786	33.6914	76.584
35.1562	74.2794	35.1562	74.2807	35.1562	74.2954	35.1562	74.3017	35.1562	74.3268	35.1562	74.3455	35.1562	74.372	35.1562	74.4149	35.1562	74.4304	35.1562	74.5126	35.1562	74.502	35.1562	74.6404	35.1562	74.5877	35.1562	74.7988	35.1562	74.6887	35.1562	74.9863	35.1562	74.8071	35.1562	75.1989	35.1562	74.9445	35.1562	75.4296	35.1562	75.1025	35.1562	75.6688	35.1562	75.2808	35.1562	75.9042	35.1562	75.4771	35.1562	76.1218	35.1562	75.6856	35.1562	76.3074	35.1562	75.8975	35.1562	76.4481	35.1562	76.1008	35.1562	76.5337	35.1562	76.2815	35.1562	76.5583	35.1562	76.4256	35.1562	76.5208
36.6211	75.216	36.6211	75.2151	36.6211	75.2292	36.6211	75.2283	36.6211	75.2533	36.6211	75.2575	36.6211	75.2871	36.6211	75.3047	36.6211	75.3298	36.6211	75.3718	36.6211	75.3811	36.6211	75.4603	36.6211	75.4413	36.6211	75.5708	36.6211	75.511	36.6211	75.703	36.6211	75.5915	36.6211	75.8545	36.6211	75.6842	36.6211	76.0209	36.6211	75.7907	36.6211	76.1956	36.6211	75.9118	36.6211	76.3693	36.6211	76.047	36.6211	76.5314	36.6211	76.1935	36.6211	76.6702	36.6211	76.3458	36.6211	76.7751	36.6211	76.4956	36.6211	76.8375	36.6211	76.632	36.6211	76.8525	36.6211	76.7437	36.6211	76.8199
38.0859	75.8354	38.0859	75.8323	38.0859	75.85	38.0859	75.8417	38.0859	75.8746	38.0859	75.8653	38.0859	75.9085	38.0859	75.9044	38.0859	75.9507	38.0859	75.9606	38.0859	76.0008	38.0859	76.0351	38.0859	76.0584	38.0859	76.1285	38.0859	76.1237	38.0859	76.2406	38.0859	76.197	38.0859	76.3699	38.0859	76.2794	38.0859	76.5128	38.0859	76.3716	38.0859	76.6638	38.0859	76.4743	38.0859	76.8152	38.0859	76.5875	38.0859	76.9578	38.0859	76.7093	38.0859	77.0812	38.0859	76.8355	38.0859	77.1757	38.0859	76.9595	38.0859	77.2338	38.0859	77.0725	38.0859	77.2508	38.0859	77.1647	38.0859	77.2265
39.5508	76.4962	39.5508	76.4913	39.5508	76.5122	39.5508	76.4987	39.5508	76.5384	39.5508	76.5192	39.5508	76.574	39.5508	76.554	39.5508	76.6181	39.5508	76.604	39.5508	76.6697	39.5508	76.67	39.5508	76.7281	39.5508	76.7526	39.5508	76.7928	39.5508	76.8516	39.5508	76.8635	39.5508	76.9657	39.5508	76.9405	39.5508	77.0922	39.5508	77.0241	39.5508	77.2263	39.5508	77.1148	39.5508	77.3617	39.5508	77.2126	39.5508	77.49	39.5508	77.3163	39.5508	77.6023	39.5508	77.4228	39.5508	77.6898	39.5508	77.527	39.5508	77.7453	39.5508	77.6216	39.5508	77.7648	39.5508	77.698	39.5508	77.7479
41.0156	77.1731	41.0156	77.1674	41.0156	77.1899	41.0156	77.1735	41.0156	77.2171	41.0156	77.1919	41.0156	77.2537	41.0156	77.2234	41.0156	77.2988	41.0156	77.2685	41.0156	77.3513	41.0156	77.3278	41.0156	77.4102	41.0156	77.4015	41.0156	77.4744	41.0156	77.4894	41.0156	77.5432	41.0156	77.5907	41.0156	77.6162	41.0156	77.703	41.0156	77.6935	41.0156	77.8226	41.0156	77.7751	41.0156	77.944	41.0156	77.8612	41.0156	78.0602	41.0156	77.9508	41.0156	78.163	41.0156	78.0418	41.0156	78.2447	41.0156	78.1299	41.0156	78.2986	41.0156	78.209	41.0156	78.3209	41.0156	78.2718	41.0156	78.311
42.4805	77.7669	42.4805	77.7614	42.4805	77.7837	42.4805	77.7678	42.4805	77.8112	42.4805	77.7861	42.4805	77.8488	42.4805	77.8167	42.4805	77.8954	42.4805	77.8598	42.4805	77.9497	42.4805	77.9156	42.4805	78.0103	42.4805	77.9841	42.4805	78.0759	42.4805	78.0651	42.4805	78.1453	42.4805	78.1578	42.4805	78.2175	42.4805	78.2603	42.4805	78.292	42.4805	78.3694	42.4805	78.3688	42.4805	78.4806	42.4805	78.4476	42.4805	78.5877	42.4805	78.5279	42.4805	78.6835	42.4805	78.6078	42.4805	78.7609	42.4805	78.684	42.4805	78.8138	42.4805	78.7514	42.4805	78.8385	42.4805	78.8036	42.4805	78.8343
43.9453	78.2709	43.9453	78.2663	43.9453	78.2869	43.9453	78.2733	43.9453	78.3139	43.9453	78.2917	43.9453	78.3511	43.9453	78.3217	43.9453	78.3975	43.9453	78.3631	43.9453	78.4518	43.9453	78.4159	43.9453	78.5125	43.9453	78.48	43.9453	78.5778	43.9453	78.555	43.9453	78.6464	43.9453	78.6403	43.9453	78.717	43.9453	78.7343	43.9453	78.7889	43.9453	78.8345	43.9453	78.8616	43.9453	78.9368	43.9453	78.9349	43.9453	79.0359	43.9453	79.0082	43.9453	79.1254	43.9453	79.0802	43.9453	79.1987	43.9453	79.1478	43.9453	79.2501	43.9453	79.2066	43.9453	79.2761	43.9453	79.2511	43.9453	79.2757
45.4102	78.6718	45.4102	78.6687	45.4102	78.687	45.4102	78.6777	45.4102	78.7142	45.4102	78.6986	45.4102	78.7526	45.4102	78.7308	45.4102	78.8013	45.4102	78.7741	45.4102	78.8587	45.4102	78.828	45.4102	78.923	45.4102	78.8921	45.4102	78.9925	45.4102	78.9659	45.4102	79.0651	45.4102	79.0487	45.4102	79.1392	45.4102	79.1392	45.4102	79.2136	45.4102	79.2351	45.4102	79.2875	45.4102	79.333	45.4102	79.3603	45.4102	79.4281	45.4102	79.4314	45.4102	79.5146	45.4102	79.4993	45.4102	79.5865	45.4102	79.5615	45.4102	79.6385	45.4102	79.614	45.4102	79.6671	45.4102	79.6522	45.4102	79.6711
46.875	78.98	46.875	78.9789	46.875	78.9938	46.875	78.9902	46.875	79.0203	46.875	79.0135	46.875	79.0588	46.875	79.0479	46.875	79.1083	46.875	79.0928	46.875	79.1674	46.875	79.1474	46.875	79.234	46.875	79.2113	46.875	79.3061	46.875	79.2836	46.875	79.3816	46.875	79.3637	46.875	79.4583	46.875	79.4504	46.875	79.5348	46.875	79.5417	46.875	79.6097	46.875	79.6346	46.875	79.6823	46.875	79.7251	46.875	79.7515	46.875	79.8081	46.875	79.816	46.875	79.8779	46.875	79.8736	46.875	79.9297	46.875	79.9207	46.875	79.96	46.875	79.9534	46.875	79.9675
48.3398	79.2332	48.3398	79.2338	48.3398	79.246	48.3398	79.2474	48.3398	79.2722	48.3398	79.2731	48.3398	79.3115	48.3398	79.3101	48.3398	79.3627	48.3398	79.3573	48.3398	79.4244	48.3398	79.4137	48.3398	79.4944	48.3398	79.4785	48.3398	79.5705	48.3398	79.5508	48.3398	79.6502	48.3398	79.6298	48.3398	79.7312	48.3398	79.7144	48.3398	79.8113	48.3398	79.8028	48.3398	79.8889	48.3398	79.8926	48.3398	79.9626	48.3398	79.98	48.3398	80.0313	48.3398	80.0605	48.3398	80.0935	48.3398	80.1293	48.3398	80.147	48.3398	80.1816	48.3398	80.1892	48.3398	80.2142	48.3398	80.2165	48.3398	80.2256
51.2695	79.7979	51.2695	79.8008	51.2695	79.8073	51.2695	79.8155	51.2695	79.8292	51.2695	79.8408	51.2695	79.8635	51.2695	79.8757	51.2695	79.9093	51.2695	79.9189	51.2695	79.9652	51.2695	79.9691	51.2695	80.0296	51.2695	80.0253	51.2695	80.1001	51.2695	80.0867	51.2695	80.1742	51.2695	80.1524	51.2695	80.2494	51.2695	80.2216	51.2695	80.3229	51.2695	80.2934	51.2695	80.3928	51.2695	80.366	51.2695	80.4571	51.2695	80.437	51.2695	80.5145	51.2695	80.5032	51.2695	80.5638	51.2695	80.5608	51.2695	80.6038	51.2695	80.6063	51.2695	80.633	51.2695	80.6368	51.2695	80.6494	51.2695	80.6512
52.7344	79.9887	52.7344	79.9921	52.7344	79.9975	52.7344	80.007	52.7344	80.0189	52.7344	80.0324	52.7344	80.0525	52.7344	80.067	52.7344	80.0975	52.7344	80.1095	52.7344	80.1528	52.7344	80.1585	52.7344	80.2163	52.7344	80.2128	52.7344	80.286	52.7344	80.2715	52.7344	80.3591	52.7344	80.3337	52.7344	80.4332	52.7344	80.3988	52.7344	80.5054	52.7344	80.4659	52.7344	80.5736	52.7344	80.5336	52.7344	80.6357	52.7344	80.6	52.7344	80.6903	52.7344	80.6622	52.7344	80.7363	52.7344	80.7171	52.7344	80.7724	52.7344	80.7613	52.7344	80.7975	52.7344	80.7923	52.7344	80.8101	52.7344	80.8086
54.1992	80.184	54.1992	80.1863	54.1992	80.1939	54.1992	80.2002	54.1992	80.2164	54.1992	80.2246	54.1992	80.2512	54.1992	80.2582	54.1992	80.2973	54.1992	80.2994	54.1992	80.3535	54.1992	80.3469	54.1992	80.4178	54.1992	80.3992	54.1992	80.488	54.1992	80.4554	54.1992	80.5615	54.1992	80.5145	54.1992	80.6354	54.1992	80.576	54.1992	80.707	54.1992	80.639	54.1992	80.7739	54.1992	80.7028	54.1992	80.8339	54.1992	80.7656	54.1992	80.8854	54.1992	80.8253	54.1992	80.9272	54.1992	80.8791	54.1992	80.9582	54.1992	80.9239	54.1992	80.9776	54.1992	80.9574	54.1992	80.9844	54.1992	80.9778
55.6641	80.3533	55.6641	80.3537	55.6641	80.3649	55.6641	80.3655	55.6641	80.3888	55.6641	80.3876	55.6641	80.4246	55.6641	80.4186	55.6641	80.4715	55.6641	80.4571	55.6641	80.5283	55.6641	80.5014	55.6641	80.5929	55.6641	80.5501	55.6641	80.6631	55.6641	80.6022	55.6641	80.7363	55.6641	80.6569	55.6641	80.8095	55.6641	80.7135	55.6641	80.8798	55.6641	80.7716	55.6641	80.9445	55.6641	80.8306	55.6641	81.0013	55.6641	80.8894	55.6641	81.0484	55.6641	80.9463	55.6641	81.0845	55.6641	80.999	55.6641	81.1089	55.6641	81.0449	55.6641	81.121	55.6641	81.0816	55.6641	81.1204	55.6641	81.1071
58.5938	80.7172	58.5938	80.7129	58.5938	80.7322	58.5938	80.7188	58.5938	80.758	58.5938	80.7339	58.5938	80.7942	58.5938	80.7568	58.5938	80.8399	58.5938	80.7862	58.5938	80.8938	58.5938	80.8203	58.5938	80.9541	58.5938	80.8579	58.5938	81.0187	58.5938	80.8976	58.5938	81.0848	58.5938	80.9388	58.5938	81.1498	58.5938	80.9812	58.5938	81.2106	58.5938	81.0247	58.5938	81.2644	58.5938	81.0696	58.5938	81.3089	58.5938	81.1158	58.5938	81.3421	58.5938	81.1627	58.5938	81.363	58.5938	81.2092	58.5938	81.3714	58.5938	81.2535	58.5938	81.3675	58.5938	81.2935	58.5938	81.3524	58.5938	81.3271
60.0586	80.9424	60.0586	80.934	60.0586	80.9602	60.0586	80.9349	60.0586	80.9876	60.0586	80.944	60.0586	81.0241	60.0586	80.9602	60.0586	81.0688	60.0586	80.9821	60.0586	81.1204	60.0586	81.0081	60.0586	81.1772	60.0586	81.037	60.0586	81.237	60.0586	81.0677	60.0586	81.2973	60.0586	81.0995	60.0586	81.3555	60.0586	81.1323	60.0586	81.4085	60.0586	81.1664	60.0586	81.4537	60.0586	81.2024	60.0586	81.4887	60.0586	81.2409	60.0586	81.5118	60.0586	81.2819	60.0586	81.5221	60.0586	81.3247	60.0586	81.5198	60.0586	81.3682	60.0586	81.5057	60.0586	81.4103	60.0586	81.4814	60.0586	81.4488
62.9883	81.469	62.9883	81.4531	62.9883	81.4915	62.9883	81.4436	62.9883	81.5206	62.9883	81.4399	62.9883	81.5559	62.9883	81.4409	62.9883	81.5964	62.9883	81.4455	62.9883	81.6412	62.9883	81.4526	62.9883	81.6886	62.9883	81.461	62.9883	81.7367	62.9883	81.4699	62.9883	81.7833	62.9883	81.4792	62.9883	81.8256	62.9883	81.4894	62.9883	81.861	62.9883	81.5016	62.9883	81.8868	62.9883	81.5171	62.9883	81.9007	62.9883	81.5378	62.9883	81.9014	62.9883	81.565	62.9883	81.8884	62.9883	81.5992	62.9883	81.8628	62.9883	81.64	62.9883	81.8266	62.9883	81.686	62.9883	81.7827	62.9883	81.7347
64.4531	81.7133	64.4531	81.6974	64.4531	81.7344	64.4531	81.6864	64.4531	81.7607	64.4531	81.6795	64.4531	81.7919	64.4531	81.6759	64.4531	81.8271	64.4531	81.6744	64.4531	81.8654	64.4531	81.6738	64.4531	81.9054	64.4531	81.6731	64.4531	81.9453	64.4531	81.6717	64.4531	81.9828	64.4531	81.6697	64.4531	82.0155	64.4531	81.6677	64.4531	82.0407	64.4531	81.6671	64.4531	82.056	64.4531	81.67	64.4531	82.0592	64.4531	81.6786	64.4531	82.0492	64.4531	81.695	64.4531	82.0261	64.4531	81.7204	64.4531	81.9912	64.4531	81.755	64.4531	81.9471	64.4531	81.7979	64.4531	81.8976	64.4531	81.8465
67.3828	82.1663	67.3828	82.1518	67.3828	82.1859	67.3828	82.1419	67.3828	82.2105	67.3828	82.136	67.3828	82.2395	67.3828	82.1327	67.3828	82.2722	67.3828	82.1307	67.3828	82.3073	67.3828	82.1284	67.3828	82.3432	67.3828	82.1243	67.3828	82.3783	67.3828	82.1174	67.3828	82.4101	67.3828	82.1077	67.3828	82.4362	67.3828	82.0956	67.3828	82.4539	67.3828	82.083	67.3828	82.4608	67.3828	82.0724	67.3828	82.4549	67.3828	82.0671	67.3828	82.4353	67.3828	82.0702	67.3828	82.4025	67.3828	82.0843	67.3828	82.3583	67.3828	82.1106	67.3828	82.3063	67.3828	82.1488	67.3828	82.2508	67.3828	82.1967
68.8477	82.3699	68.8477	82.3523	68.8477	82.3924	68.8477	82.3393	68.8477	82.4196	68.8477	82.3302	68.8477	82.4509	68.8477	82.3239	68.8477	82.4854	68.8477	82.3189	68.8477	82.5219	68.8477	82.3135	68.8477	82.5587	68.8477	82.3064	68.8477	82.5939	68.8477	82.2966	68.8477	82.6254	68.8477	82.2837	68.8477	82.6505	68.8477	82.2685	68.8477	82.6664	68.8477	82.2528	68.8477	82.6707	68.8477	82.2395	68.8477	82.6613	68.8477	82.2321	68.8477	82.6373	68.8477	82.234	68.8477	82.5992	68.8477	82.2481	68.8477	82.5492	68.8477	82.276	68.8477	82.4909	68.8477	82.3173	68.8477	82.4293	68.8477	82.3698
71.7773	82.807	71.7773	82.7851	71.7773	82.8327	71.7773	82.7669	71.7773	82.8621	71.7773	82.7519	71.7773	82.8944	71.7773	82.7389	71.7773	82.9288	71.7773	82.7266	71.7773	82.9641	71.7773	82.7134	71.7773	82.9989	71.7773	82.6979	71.7773	83.0312	71.7773	82.6792	71.7773	83.0589	71.7773	82.6571	71.7773	83.0792	71.7773	82.6324	71.7773	83.0894	71.7773	82.6074	71.7773	83.0867	71.7773	82.5854	71.7773	83.069	71.7773	82.5705	71.7773	83.0353	71.7773	82.567	71.7773	82.9863	71.7773	82.5785	71.7773	82.9245	71.7773	82.607	71.7773	82.8542	71.7773	82.6523	71.7773	82.7812	71.7773	82.7119
74.707	83.2235	74.707	83.1981	74.707	83.2518	74.707	83.1757	74.707	83.2828	74.707	83.1557	74.707	83.3157	74.707	83.1373	74.707	83.3496	74.707	83.1192	74.707	83.3836	74.707	83.0997	74.707	83.4161	74.707	83.0777	74.707	83.4454	74.707	83.0519	74.707	83.4694	74.707	83.0225	74.707	83.4855	74.707	82.9903	74.707	83.4907	74.707	82.9578	74.707	83.4822	74.707	82.9287	74.707	83.4579	74.707	82.9076	74.707	83.4166	74.707	82.8995	74.707	83.359	74.707	82.9084	74.707	83.2881	74.707	82.9369	74.707	83.2085	74.707	82.9851	74.707	83.1268	74.707	83.0501
77.6367	83.5799	77.6367	83.5521	77.6367	83.6099	77.6367	83.5266	77.6367	83.6415	77.6367	83.5029	77.6367	83.6743	77.6367	83.4803	77.6367	83.7073	77.6367	83.4575	77.6367	83.7395	77.6367	83.4329	77.6367	83.7697	77.6367	83.4051	77.6367	83.7962	77.6367	83.3733	77.6367	83.817	77.6367	83.3372	77.6367	83.8294	77.6367	83.2979	77.6367	83.8305	77.6367	83.2583	77.6367	83.8174	77.6367	83.2222	77.6367	83.7875	77.6367	83.1949	77.6367	83.7399	77.6367	83.182	77.6367	83.6751	77.6367	83.1881	77.6367	83.5963	77.6367	83.2162	77.6367	83.5086	77.6367	83.2665	77.6367	83.4193	77.6367	83.3361
79.1016	83.7371	79.1016	83.7074	79.1016	83.7684	79.1016	83.6796	79.1016	83.801	79.1016	83.6532	79.1016	83.8341	79.1016	83.6277	79.1016	83.8668	79.1016	83.6016	79.1016	83.8983	79.1016	83.5735	79.1016	83.9272	79.1016	83.542	79.1016	83.9521	79.1016	83.506	79.1016	83.9708	79.1016	83.4656	79.1016	83.9808	79.1016	83.422	79.1016	83.9789	79.1016	83.3779	79.1016	83.9624	79.1016	83.3376	79.1016	83.9286	79.1016	83.3067	79.1016	83.8765	79.1016	83.291	79.1016	83.8068	79.1016	83.2956	79.1016	83.7227	79.1016	83.3237	79.1016	83.6298	79.1016	83.3756	79.1016	83.5355	79.1016	83.4481
82.0312	84.0379	82.0312	84.0026	82.0312	84.0735	82.0312	83.968	82.0312	84.1089	82.0312	83.934	82.0312	84.1432	82.0312	83.8999	82.0312	84.1758	82.0312	83.8648	82.0312	84.2055	82.0312	83.8273	82.0312	84.2315	82.0312	83.7862	82.0312	84.2523	82.0312	83.7405	82.0312	84.266	82.0312	83.6905	82.0312	84.2701	82.0312	83.6376	82.0312	84.2618	82.0312	83.5849	82.0312	84.238	82.0312	83.5372	82.0312	84.1962	82.0312	83.5006	82.0312	84.1352	82.0312	83.4816	82.0312	84.0558	82.0312	83.4857	82.0312	83.9611	82.0312	83.5165	82.0312	83.8572	82.0312	83.574	82.0312	83.752	82.0312	83.6547
84.9609	84.3752	84.9609	84.3397	84.9609	84.4105	84.9609	84.3044	84.9609	84.4451	84.9609	84.2692	84.9609	84.4784	84.9609	84.2337	84.9609	84.5097	84.9609	84.1967	84.9609	84.5382	84.9609	84.157	84.9609	84.563	84.9609	84.1135	84.9609	84.5829	84.9609	84.0652	84.9609	84.5958	84.9609	84.0124	84.9609	84.5992	84.9609	83.9565	84.9609	84.5901	84.9609	83.9007	84.9609	84.5651	84.9609	83.85	84.9609	84.5217	84.9609	83.8105	84.9609	84.4584	84.9609	83.7891	84.9609	84.376	84.9609	83.7915	84.9609	84.2779	84.9609	83.8216	84.9609	84.1704	84.9609	83.8795	84.9609	84.0619	84.9609	83.9619
87.8906	84.658	87.8906	84.625	87.8906	84.6909	87.8906	84.5923	87.8906	84.7231	87.8906	84.5602	87.8906	84.7541	87.8906	84.5282	87.8906	84.7833	87.8906	84.4954	87.8906	84.8105	87.8906	84.4606	87.8906	84.8352	87.8906	84.4225	87.8906	84.8566	87.8906	84.3802	87.8906	84.873	87.8906	84.3336	87.8906	84.882	87.8906	84.284	87.8906	84.8805	87.8906	84.2345	87.8906	84.8648	87.8906	84.1896	87.8906	84.8316	87.8906	84.1555	87.8906	84.7787	87.8906	84.1386	87.8906	84.7063	87.8906	84.1445	87.8906	84.617	87.8906	84.1768	87.8906	84.5167	87.8906	84.2354	87.8906	84.4134	87.8906	84.3166
90.8203	84.9282	90.8203	84.8932	90.8203	84.9614	90.8203	84.8569	90.8203	84.9918	90.8203	84.8197	90.8203	85.0188	90.8203	84.7816	90.8203	85.0419	90.8203	84.7417	90.8203	85.0611	90.8203	84.6989	90.8203	85.0762	90.8203	84.6519	90.8203	85.0867	90.8203	84.5998	90.8203	85.0918	90.8203	84.5424	90.8203	85.0894	90.8203	84.4812	90.8203	85.0768	90.8203	84.4194	90.8203	85.0504	90.8203	84.3622	90.8203	85.0071	90.8203	84.3162	90.8203	84.9448	90.8203	84.2886	90.8203	84.8634	90.8203	84.286	90.8203	84.7661	90.8203	84.3124	90.8203	84.6587	90.8203	84.3683	90.8203	84.5499	90.8203	84.4499
95.2148	85.2624	95.2148	85.2202	95.2148	85.3008	95.2148	85.1754	95.2148	85.3345	95.2148	85.1287	95.2148	85.3625	95.2148	85.0802	95.2148	85.3845	95.2148	85.0295	95.2148	85.4003	95.2148	84.9756	95.2148	85.4101	95.2148	84.9172	95.2148	85.4137	95.2148	84.8536	95.2148	85.4104	95.2148	84.7845	95.2148	85.3985	95.2148	84.7117	95.2148	85.3752	95.2148	84.6386	95.2148	85.3373	95.2148	84.5709	95.2148	85.2816	95.2148	84.5157	95.2148	85.2059	95.2148	84.4811	95.2148	85.1107	95.2148	84.4743	95.2148	84.9993	95.2148	84.5001	95.2148	84.8783	95.2148	84.5591	95.2148	84.7574	95.2148	84.6475
98.1445	85.4133	98.1445	85.3675	98.1445	85.454	98.1445	85.3181	98.1445	85.4886	98.1445	85.2659	98.1445	85.5162	98.1445	85.2115	98.1445	85.5364	98.1445	85.1546	98.1445	85.5495	98.1445	85.0945	98.1445	85.5558	98.1445	85.03	98.1445	85.5556	98.1445	84.9605	98.1445	85.5484	98.1445	84.8859	98.1445	85.5327	98.1445	84.8081	98.1445	85.5059	98.1445	84.7305	98.1445	85.4645	98.1445	84.6591	98.1445	85.4051	98.1445	84.6014	98.1445	85.3255	98.1445	84.5656	98.1445	85.2258	98.1445	84.5591	98.1445	85.1094	98.1445	84.5867	98.1445	84.9831	98.1445	84.6489	98.1445	84.8567	98.1445	84.7417
101.074	85.58	101.074	85.5313	101.074	85.6217	101.074	85.477	101.074	85.6553	101.074	85.4184	101.074	85.6798	101.074	85.356	101.074	85.6951	101.074	85.2899	101.074	85.7013	101.074	85.2194	101.074	85.6993	101.074	85.1436	101.074	85.6894	101.074	85.062	101.074	85.6716	101.074	84.9749	101.074	85.6445	101.074	84.8843	101.074	85.606	101.074	84.7941	101.074	85.5527	101.074	84.7108	101.074	85.4815	101.074	84.6423	101.074	85.3904	101.074	84.5975	101.074	85.2796	101.074	84.5844	101.074	85.153	101.074	84.608	101.074	85.0178	101.074	84.6694	101.074	84.8842	101.074	84.7643
105.469	85.7901	105.469	85.7428	105.469	85.8296	105.469	85.6889	105.469	85.8598	105.469	85.6296	105.469	85.8799	105.469	85.5657	105.469	85.8896	105.469	85.4968	105.469	85.8894	105.469	85.4224	105.469	85.88	105.469	85.3414	105.469	85.8621	105.469	85.2531	105.469	85.8358	105.469	85.1579	105.469	85.8001	105.469	85.0577	105.469	85.7528	105.469	84.957	105.469	85.6909	105.469	84.8622	105.469	85.6113	105.469	84.7822	105.469	85.5121	105.469	84.7263	105.469	85.3941	105.469	84.7031	105.469	85.2614	105.469	84.7187	105.469	85.1217	105.469	84.7743	105.469	84.9858	105.469	84.8662
108.398	85.8682	108.398	85.818	108.398	85.9118	108.398	85.763	108.398	85.9469	108.398	85.7049	108.398	85.9722	108.398	85.6442	108.398	85.9871	108.398	85.5809	108.398	85.9917	108.398	85.5137	108.398	85.9866	108.398	85.4413	108.398	85.9725	108.398	85.3622	108.398	85.9495	108.398	85.2761	108.398	85.9168	108.398	85.1845	108.398	85.8721	108.398	85.091	108.398	85.8126	108.398	85.0021	108.398	85.7352	108.398	84.9259	108.398	85.6384	108.398	84.872	108.398	85.5227	108.398	84.8492	108.398	85.3924	108.398	84.8635	108.398	85.2554	108.398	84.9169	108.398	85.1225	108.398	85.0059
112.793	85.8356	112.793	85.7717	112.793	85.8923	112.793	85.7034	112.793	85.9393	112.793	85.6332	112.793	85.9748	112.793	85.5629	112.793	85.9981	112.793	85.4932	112.793	86.0094	112.793	85.4233	112.793	86.0097	112.793	85.352	112.793	85.9999	112.793	85.2778	112.793	85.9805	112.793	85.1998	112.793	85.9509	112.793	85.119	112.793	85.909	112.793	85.0382	112.793	85.8519	112.793	84.9632	112.793	85.7763	112.793	84.9014	112.793	85.6804	112.793	84.8614	112.793	85.5648	112.793	84.8514	112.793	85.4335	112.793	84.8769	112.793	85.2942	112.793	84.9395	112.793	85.1576	112.793	85.0357
117.188	85.8505	117.188	85.7675	117.188	85.9207	117.188	85.6747	117.188	85.9757	117.188	85.5755	117.188	86.0145	117.188	85.4729	117.188	86.0373	117.188	85.3691	117.188	86.0454	117.188	85.2654	117.188	86.0408	117.188	85.162	117.188	86.0253	117.188	85.0591	117.188	85.9996	117.188	84.957	117.188	85.9629	117.188	84.8577	117.188	85.9129	117.188	84.765	117.188	85.8457	117.188	84.6849	117.188	85.7573	117.188	84.6255	117.188	85.6451	117.188	84.5953	117.188	85.5091	117.188	84.6021	117.188	85.3535	117.188	84.6503	117.188	85.1864	117.188	84.7402	117.188	85.0196	117.188	84.8666
120.117	86.0931	120.117	86.0268	120.117	86.1441	120.117	85.9477	120.117	86.1784	120.117	85.8583	120.117	86.1959	120.117	85.7615	120.117	86.1976	120.117	85.6595	120.117	86.1858	120.117	85.554	120.117	86.1633	120.117	85.4463	120.117	86.1326	120.117	85.3373	120.117	86.0956	120.117	85.2289	120.117	86.0522	120.117	85.1239	120.117	86.0005	120.117	85.0268	120.117	85.9369	120.117	84.9438	120.117	85.8576	120.117	84.8823	120.117	85.7592	120.117	84.8497	120.117	85.6413	120.117	84.8524	120.117	85.5065	120.117	84.8935	120.117	85.3616	120.117	84.9721	120.117	85.2165	120.117	85.0828
124.512	86.1738	124.512	86.1058	124.512	86.2282	124.512	86.0274	124.512	86.2668	124.512	85.9418	124.512	86.2882	124.512	85.8518	124.512	86.2928	124.512	85.7592	124.512	86.2823	124.512	85.6648	124.512	86.2595	124.512	85.5689	124.512	86.2271	124.512	85.4714	124.512	86.1876	124.512	85.373	124.512	86.1415	124.512	85.276	124.512	86.0876	124.512	85.1846	124.512	86.0231	124.512	85.1047	124.512	85.9443	124.512	85.0438	124.512	85.8485	124.512	85.0094	124.512	85.7351	124.512	85.0076	124.512	85.607	124.512	85.0418	124.512	85.4706	124.512	85.1115	124.512	85.3353	124.512	85.2121
128.906	86.1339	128.906	86.0605	128.906	86.1903	128.906	85.9736	128.906	86.227	128.906	85.8772	128.906	86.2431	128.906	85.7749	128.906	86.239	128.906	85.6693	128.906	86.217	128.906	85.5621	128.906	86.1808	128.906	85.4541	128.906	86.1341	128.906	85.3458	128.906	86.0803	128.906	85.2382	128.906	86.0211	128.906	85.1339	128.906	85.956	128.906	85.037	128.906	85.8827	128.906	84.9534	128.906	85.7974	128.906	84.8904	128.906	85.6972	128.906	84.855	128.906	85.5812	128.906	84.8529	128.906	85.4518	128.906	84.8871	128.906	85.3149	128.906	84.9566	128.906	85.1798	128.906	85.0569
133.301	86.0954	133.301	86.0196	133.301	86.1536	133.301	85.9297	133.301	86.1913	133.301	85.8293	133.301	86.2072	133.301	85.7215	133.301	86.2013	133.301	85.6087	133.301	86.1754	133.301	85.4921	133.301	86.1321	133.301	85.372	133.301	86.0747	133.301	85.2489	133.301	86.0061	133.301	85.1239	133.301	85.9276	133.301	84.9998	133.301	85.8392	133.301	84.8813	133.301	85.7394	133.301	84.7752	133.301	85.6259	133.301	84.6896	133.301	85.4976	133.301	84.6327	133.301	85.3555	133.301	84.6112	133.301	85.2042	133.301	84.6294	133.301	85.0514	133.301	84.6877	133.301	84.9072	133.301	84.7827
139.16	85.9023	139.16	85.8068	139.16	85.9797	139.16	85.6981	139.16	86.0353	139.16	85.5814	139.16	86.0673	139.16	85.4614	139.16	86.0758	139.16	85.3417	139.16	86.0629	139.16	85.224	139.16	86.0319	139.16	85.1086	139.16	85.9862	139.16	84.9952	139.16	85.9287	139.16	84.8838	139.16	85.8606	139.16	84.7759	139.16	85.781	139.16	84.6749	139.16	85.6872	139.16	84.5866	139.16	85.5762	139.16	84.5181	139.16	85.4463	139.16	84.4771	139.16	85.2987	139.16	84.4701	139.16	85.1383	139.16	84.5015	139.16	84.9741	139.16	84.5725	139.16	84.8174	139.16	84.6801
143.555	85.8627	143.555	85.7536	143.555	85.9486	143.555	85.6264	143.555	86.0078	143.555	85.4871	143.555	86.0389	143.555	85.3417	143.555	86.0432	143.555	85.1954	143.555	86.0238	143.555	85.0517	143.555	85.9851	143.555	84.9128	143.555	85.932	143.555	84.7796	143.555	85.8684	143.555	84.6535	143.555	85.7961	143.555	84.5365	143.555	85.7142	143.555	84.4326	143.555	85.6197	143.555	84.3475	143.555	85.5083	143.555	84.288	143.555	85.3767	143.555	84.2613	143.555	85.2248	143.555	84.2728	143.555	85.0564	143.555	84.3256	143.555	84.8797	143.555	84.4193	143.555	84.7064	143.555	84.549
147.949	85.9583	147.949	85.8546	147.949	86.036	147.949	85.7299	147.949	86.0846	147.949	85.5904	147.949	86.1032	147.949	85.4424	147.949	86.0936	147.949	85.292	147.949	86.0596	147.949	85.1436	147.949	86.0069	147.949	85.0008	147.949	85.9416	147.949	84.866	147.949	85.8692	147.949	84.7414	147.949	85.793	147.949	84.6298	147.949	85.7134	147.949	84.5351	147.949	85.6278	147.949	84.4626	147.949	85.5321	147.949	84.4176	147.949	85.4218	147.949	84.4053	147.949	85.2951	147.949	84.4289	147.949	85.1532	147.949	84.4892	147.949	85.0017	147.949	84.5837	147.949	84.8494	147.949	84.7066
153.809	85.7668	153.809	85.6509	153.809	85.8548	153.809	85.5122	153.809	85.9113	153.809	85.3572	153.809	85.9353	153.809	85.1926	153.809	85.9279	153.809	85.0247	153.809	85.8925	153.809	84.8589	153.809	85.8341	153.809	84.6994	153.809	85.7586	153.809	84.5494	153.809	85.6716	153.809	84.4124	153.809	85.5771	153.809	84.2923	153.809	85.4771	153.809	84.1939	153.809	85.371	153.809	84.1225	153.809	85.2565	153.809	84.0832	153.809	85.1311	153.809	84.0792	153.809	84.994	153.809	84.1117	153.809	84.8468	153.809	84.1792	153.809	84.6941	153.809	84.2777	153.809	84.5428	153.809	84.4013
159.668	85.5584	159.668	85.455	159.668	85.6344	159.668	85.3287	159.668	85.6803	159.668	85.1854	159.668	85.6957	159.668	85.0311	159.668	85.6823	159.668	84.8714	159.668	85.6441	159.668	84.711	159.668	85.5862	159.668	84.5533	159.668	85.5138	159.668	84.4012	159.668	85.4312	159.668	84.2577	159.668	85.3405	159.668	84.1265	159.668	85.2411	159.668	84.0127	159.668	85.1308	159.668	83.9219	159.668	85.0064	159.668	83.8601	159.668	84.8663	159.668	83.8321	159.668	84.7117	159.668	83.8409	159.668	84.5473	159.668	83.887	159.668	84.3813	159.668	83.9691	159.668	84.2233	159.668	84.0832
165.527	85.3492	165.527	85.2346	165.527	85.4283	165.527	85.0893	165.527	85.47	165.527	84.9198	165.527	85.4747	165.527	84.7341	165.527	85.4462	165.527	84.54	165.527	85.3902	165.527	84.345	165.527	85.3143	165.527	84.1552	165.527	85.2264	165.527	83.9758	165.527	85.1328	165.527	83.8112	165.527	85.0368	165.527	83.6658	165.527	84.9379	165.527	83.5442	165.527	84.8317	165.527	83.4517	165.527	84.7118	165.527	83.3932	165.527	84.573	165.527	83.3733	165.527	84.4134	165.527	83.3946	165.527	84.2364	165.527	83.4579	165.527	84.0505	165.527	83.5617	165.527	83.8677	165.527	83.701
171.387	85.3227	171.387	85.2424	171.387	85.3719	171.387	85.1344	171.387	85.3877	171.387	85.0029	171.387	85.3699	171.387	84.8517	171.387	85.3203	171.387	84.6845	171.387	85.243	171.387	84.505	171.387	85.1442	171.387	84.3169	171.387	85.0312	171.387	84.1253	171.387	84.9109	171.387	83.9369	171.387	84.7886	171.387	83.7606	171.387	84.6665	171.387	83.6066	171.387	84.5443	171.387	83.4847	171.387	84.4193	171.387	83.4029	171.387	84.2888	171.387	83.3651	171.387	84.1516	171.387	83.3709	171.387	84.0091	171.387	83.4164	171.387	83.8656	171.387	83.4956	171.387	83.7274	171.387	83.6016
177.246	85.1019	177.246	84.9914	177.246	85.18	177.246	84.8551	177.246	85.2214	177.246	84.7004	177.246	85.2248	177.246	84.5344	177.246	85.192	177.246	84.3632	177.246	85.128	177.246	84.1908	177.246	85.0401	177.246	84.0196	177.246	84.9368	177.246	83.8515	177.246	84.8256	177.246	83.6892	177.246	84.7115	177.246	83.537	177.246	84.5958	177.246	83.4015	177.246	84.4759	177.246	83.2905	177.246	84.3473	177.246	83.212	177.246	84.206	177.246	83.1721	177.246	84.0511	177.246	83.1739	177.246	83.886	177.246	83.2172	177.246	83.7183	177.246	83.2994	177.246	83.5579	177.246	83.4153
183.105	85.1709	183.105	85.0641	183.105	85.2427	183.105	84.9291	183.105	85.2752	183.105	84.7741	183.105	85.267	183.105	84.6069	183.105	85.2207	183.105	84.4343	183.105	85.1422	183.105	84.2612	183.105	85.04	183.105	84.0909	183.105	84.9244	183.105	83.9263	183.105	84.8045	183.105	83.7708	183.105	84.6871	183.105	83.6295	183.105	84.5747	183.105	83.509	183.105	84.4653	183.105	83.4164	183.105	84.3544	183.105	83.3577	183.105	84.2369	183.105	83.336	183.105	84.1104	183.105	83.3514	183.105	83.9761	183.105	83.401	183.105	83.8387	183.105	83.4802	183.105	83.7054	183.105	83.5836
188.965	85.0316	188.965	84.9136	188.965	85.1122	188.965	84.7662	188.965	85.1503	188.965	84.5986	188.965	85.1442	188.965	84.4199	188.965	85.0964	188.965	84.2375	188.965	85.0128	188.965	84.0566	188.965	84.9023	188.965	83.8803	188.965	84.7752	188.965	83.7108	188.965	84.6413	188.965	83.5509	188.965	84.5076	188.965	83.4053	188.965	84.3773	188.965	83.2806	188.965	84.2493	188.965	83.1841	188.965	84.1202	188.965	83.1217	188.965	83.9869	188.965	83.0965	188.965	83.8482	188.965	83.1078	188.965	83.7067	188.965	83.1521	188.965	83.5675	188.965	83.2247	188.965	83.4371	188.965	83.3212
196.289	84.6637	196.289	84.5203	196.289	84.764	196.289	84.3446	196.289	84.8148	196.289	84.15	196.289	84.8143	196.289	83.9504	196.289	84.7662	196.289	83.7577	196.289	84.6793	196.289	83.5805	196.289	84.5659	196.289	83.423	196.289	84.4407	196.289	83.2868	196.289	84.3171	196.289	83.1723	196.289	84.2043	196.289	83.0807	196.289	84.1055	196.289	83.0147	196.289	84.017	196.289	82.9778	196.289	83.9314	196.289	82.9718	196.289	83.8411	196.289	82.9961	196.289	83.7417	196.289	83.0468	196.289	83.6336	196.289	83.118	196.289	83.5209	196.289	83.2046	196.289	83.409	196.289	83.3025
203.613	84.9526	203.613	84.8016	203.613	85.047	203.613	84.6029	203.613	85.0799	203.613	84.3687	203.613	85.0509	203.613	84.1125	203.613	84.9645	203.613	83.8477	203.613	84.8295	203.613	83.586	203.613	84.6591	203.613	83.3366	203.613	84.4687	203.613	83.1071	203.613	84.2742	203.613	82.9044	203.613	84.0886	203.613	82.7359	203.613	83.9193	203.613	82.6094	203.613	83.7673	203.613	82.5318	203.613	83.6282	203.613	82.5053	203.613	83.4962	203.613	82.5262	203.613	83.3667	203.613	82.5851	203.613	83.2387	203.613	82.6699	203.613	83.1137	203.613	82.77	203.613	82.9934	203.613	82.8786
210.938	84.8202	210.938	84.6838	210.938	84.9011	210.938	84.499	210.938	84.9223	210.938	84.2751	210.938	84.8831	210.938	84.0226	210.938	84.7864	210.938	83.7521	210.938	84.6381	210.938	83.4727	210.938	84.4476	210.938	83.1928	210.938	84.2262	210.938	82.9198	210.938	83.9868	210.938	82.6622	210.938	83.7416	210.938	82.43	210.938	83.5007	210.938	82.2348	210.938	83.2709	210.938	82.0873	210.938	83.0555	210.938	81.9942	210.938	82.8563	210.938	81.9552	210.938	82.6748	210.938	81.9628	210.938	82.5133	210.938	82.0052	210.938	82.3733	210.938	82.0713	210.938	82.2546	210.938	82.1548
218.262	84.6064	218.262	84.4735	218.262	84.6954	218.262	84.3057	218.262	84.735	218.262	84.1137	218.262	84.7234	218.262	83.9082	218.262	84.6632	218.262	83.6974	218.262	84.5602	218.262	83.4865	218.262	84.423	218.262	83.278	218.262	84.2604	218.262	83.0733	218.262	84.0806	218.262	82.8751	218.262	83.889	218.262	82.6895	218.262	83.6883	218.262	82.5254	218.262	83.4796	218.262	82.3924	218.262	83.2644	218.262	82.2974	218.262	83.048	218.262	82.2416	218.262	82.8401	218.262	82.2203	218.262	82.6535	218.262	82.226	218.262	82.4997	218.262	82.2539	218.262	82.3842	218.262	82.3046
225.586	84.3205	225.586	84.1728	225.586	84.4172	225.586	83.9844	225.586	84.4576	225.586	83.7692	225.586	84.4425	225.586	83.5421	225.586	84.3782	225.586	83.3159	225.586	84.2752	225.586	83.0994	225.586	84.1461	225.586	82.8967	225.586	84.0025	225.586	82.7088	225.586	83.8518	225.586	82.536	225.586	83.6951	225.586	82.3811	225.586	83.5279	225.586	82.249	225.586	83.3429	225.586	82.1451	225.586	83.136	225.586	82.0728	225.586	82.9105	225.586	82.0303	225.586	82.6797	225.586	82.0123	225.586	82.4644	225.586	82.0128	225.586	82.2858	225.586	82.0313	225.586	82.1562	225.586	82.0749
232.91	84.3642	232.91	84.1789	232.91	84.4799	232.91	83.935	232.91	84.5209	232.91	83.649	232.91	84.4898	232.91	83.3402	232.91	84.3957	232.91	83.0276	232.91	84.2545	232.91	82.7271	232.91	84.0867	232.91	82.45	232.91	83.9138	232.91	82.2034	232.91	83.7532	232.91	81.9926	232.91	83.6122	232.91	81.8236	232.91	83.4861	232.91	81.7031	232.91	83.3601	232.91	81.6359	232.91	83.2165	232.91	81.6216	232.91	83.043	232.91	81.6524	232.91	82.8392	232.91	81.7163	232.91	82.6177	232.91	81.8031	232.91	82.3992	232.91	81.9097	232.91	82.2034	232.91	82.0407
241.699	84.1089	241.699	83.9555	241.699	84.1918	241.699	83.7389	241.699	84.2016	241.699	83.4705	241.699	84.1411	241.699	83.164	241.699	84.0182	241.699	82.8331	241.699	83.8455	241.699	82.4907	241.699	83.6383	241.699	82.1484	241.699	83.412	241.699	81.8176	241.699	83.1792	241.699	81.5117	241.699	82.9458	241.699	81.2472	241.699	82.7109	241.699	81.0413	241.699	82.4685	241.699	80.9063	241.699	82.2139	241.699	80.8432	241.699	81.9496	241.699	80.8393	241.699	81.6889	241.699	80.8724	241.699	81.4532	241.699	80.921	241.699	81.2632	241.699	80.9744	241.699	81.1273	241.699	81.0374
250.488	84.0388	250.488	83.8633	250.488	84.1326	250.488	83.6215	250.488	84.1362	250.488	83.3338	250.488	84.0495	250.488	83.0228	250.488	83.8807	250.488	82.7086	250.488	83.6476	250.488	82.4041	250.488	83.3764	250.488	82.113	250.488	83.0991	250.488	81.8312	250.488	82.8457	250.488	81.5524	250.488	82.6353	250.488	81.2749	250.488	82.4666	250.488	81.0062	250.488	82.319	250.488	80.7638	250.488	82.1609	250.488	80.5691	250.488	81.9649	250.488	80.44	250.488	81.7196	250.488	80.3841	250.488	81.4348	250.488	80.4009	250.488	81.1383	250.488	80.4876	250.488	80.865	250.488	80.6434
259.277	84.5145	259.277	84.3734	259.277	84.5794	259.277	84.1622	259.277	84.5657	259.277	83.8898	259.277	84.4761	259.277	83.5664	259.277	84.3177	259.277	83.201	259.277	84.1023	259.277	82.8015	259.277	83.845	259.277	82.3744	259.277	83.5631	259.277	81.9277	259.277	83.2731	259.277	81.4733	259.277	82.9867	259.277	81.0293	259.277	82.7075	259.277	80.6198	259.277	82.4297	259.277	80.2717	259.277	82.1407	259.277	80.0082	259.277	81.8278	259.277	79.8432	259.277	81.4857	259.277	79.7793	259.277	81.1222	259.277	79.8119	259.277	80.7582	259.277	79.9348	259.277	80.4223	259.277	80.1416
268.066	84.0713	268.066	83.9217	268.066	84.1633	268.066	83.7334	268.066	84.1843	268.066	83.5278	268.066	84.1291	268.066	83.3245	268.066	84.0011	268.066	83.1361	268.066	83.8132	268.066	82.9665	268.066	83.5872	268.066	82.8112	268.066	83.351	268.066	82.6623	268.066	83.133	268.066	82.5133	268.066	82.9533	268.066	82.3633	268.066	82.8164	268.066	82.2178	268.066	82.7102	268.066	82.0865	268.066	82.6134	268.066	81.979	268.066	82.5062	268.066	81.9013	268.066	82.3801	268.066	81.8547	268.066	82.2404	268.066	81.8385	268.066	82.103	268.066	81.8531	268.066	81.986	268.066	81.9015
276.855	83.2676	276.855	82.9739	276.855	83.4925	276.855	82.6353	276.855	83.6337	276.855	82.2829	276.855	83.6857	276.855	81.9481	276.855	83.6513	276.855	81.6556	276.855	83.5396	276.855	81.4161	276.855	83.3649	276.855	81.2276	276.855	83.1454	276.855	81.0807	276.855	82.9013	276.855	80.9675	276.855	82.6521	276.855	80.8867	276.855	82.413	276.855	80.8419	276.855	82.1906	276.855	80.836	276.855	81.9835	276.855	80.8641	276.855	81.7861	276.855	80.9124	276.855	81.5957	276.855	80.9636	276.855	81.4184	276.855	81.0062	276.855	81.2677	276.855	81.0418	276.855	81.1561	276.855	81.0851
287.109	83.3961	287.109	83.075	287.109	83.5779	287.109	82.6431	287.109	83.6138	287.109	82.1525	287.109	83.5171	287.109	81.6741	287.109	83.319	287.109	81.2794	287.109	83.0671	287.109	81.0109	287.109	82.8187	287.109	80.8605	287.109	82.6277	287.109	80.7777	287.109	82.525	287.109	80.701	287.109	82.5056	287.109	80.5877	287.109	82.5312	287.109	80.4281	287.109	82.5483	287.109	80.2452	287.109	82.5082	287.109	80.0835	287.109	82.3791	287.109	79.9911	287.109	82.1506	287.109	80.0018	287.109	81.8336	287.109	80.127	287.109	81.456	287.109	80.3591	287.109	81.057	287.109	80.6788
297.363	85.1214	297.363	84.8664	297.363	85.2271	297.363	84.4669	297.363	85.1854	297.363	83.936	297.363	85.0032	297.363	83.2991	297.363	84.6935	297.363	82.5994	297.363	84.2777	297.363	81.9039	297.363	83.7891	297.363	81.3021	297.363	83.2786	297.363	80.8857	297.363	82.8135	297.363	80.7091	297.363	82.4646	297.363	80.7582	297.363	82.2772	297.363	80.9611	297.363	82.2451	297.363	81.2313	297.363	82.3138	297.363	81.5023	297.363	82.4122	297.363	81.7379	297.363	82.4847	297.363	81.9281	297.363	82.5049	297.363	82.0786	297.363	82.4725	297.363	82.202	297.363	82.4018	297.363	82.3089
307.617	84.6449	307.617	84.4503	307.617	84.7195	307.617	84.1466	307.617	84.6707	307.617	83.7521	307.617	84.5025	307.617	83.2914	307.617	84.2271	307.617	82.7947	307.617	83.8667	307.617	82.2955	307.617	83.4548	307.617	81.8304	307.617	83.0371	307.617	81.4409	307.617	82.6679	307.617	81.1728	307.617	82.398	307.617	81.0683	307.617	82.2601	307.617	81.1478	307.617	82.2559	307.617	81.3921	307.617	82.3583	307.617	81.7445	307.617	82.525	307.617	82.1324	307.617	82.7126	307.617	82.4916	307.617	82.8849	307.617	82.7791	307.617	83.0151	307.617	82.9743	307.617	83.0831	307.617	83.0734
319.336	84.3776	319.336	84.1927	319.336	84.4421	319.336	83.8953	319.336	84.3849	319.336	83.4996	319.336	84.2115	319.336	83.0253	319.336	83.9339	319.336	82.4953	319.336	83.5716	319.336	81.9342	319.336	83.1527	319.336	81.3695	319.336	82.7139	319.336	80.8352	319.336	82.2973	319.336	80.3783	319.336	81.9421	319.336	80.0585	319.336	81.6727	319.336	79.9327	319.336	81.4927	319.336	80.0231	319.336	81.3903	319.336	80.2944	319.336	81.3507	319.336	80.6638	319.336	81.3644	319.336	81.0371	319.336	81.4231	319.336	81.3401	319.336	81.508	319.336	81.5319	319.336	81.5841	319.336	81.6058
329.59	84.4939	329.59	84.2635	329.59	84.5944	329.59	83.9201	329.59	84.5555	329.59	83.4879	329.59	84.375	329.59	82.9959	329.59	84.0581	329.59	82.4744	329.59	83.6195	329.59	81.9499	329.59	83.0865	329.59	81.4431	329.59	82.5048	329.59	80.9726	329.59	81.9405	329.59	80.5631	329.59	81.4715	329.59	80.2533	329.59	81.1607	329.59	80.0912	329.59	81.0256	329.59	80.1107	329.59	81.0314	329.59	80.3032	329.59	81.1189	329.59	80.6097	329.59	81.2376	329.59	80.9459	329.59	81.3575	329.59	81.2361	329.59	81.4604	329.59	81.434	329.59	81.5258	329.59	81.5261
341.309	84.4878	341.309	84.2344	341.309	84.6138	341.309	83.8692	341.309	84.6064	341.309	83.4178	341.309	84.4679	341.309	82.9137	341.309	84.2084	341.309	82.3935	341.309	83.8457	341.309	81.8879	341.309	83.4065	341.309	81.416	341.309	82.927	341.309	80.9843	341.309	82.4504	341.309	80.5957	341.309	82.0192	341.309	80.2628	341.309	81.6617	341.309	80.0147	341.309	81.3814	341.309	79.8893	341.309	81.1609	341.309	79.908	341.309	80.9795	341.309	80.0508	341.309	80.8314	341.309	80.2576	341.309	80.7275	341.309	80.4554	341.309	80.6774	341.309	80.5921	341.309	80.6667	341.309	80.6541
353.027	84.8769	353.027	84.6149	353.027	84.9808	353.027	84.2044	353.027	84.9266	353.027	83.6665	353.027	84.7229	353.027	83.0336	353.027	84.3852	353.027	82.347	353.027	83.9363	353.027	81.6492	353.027	83.4077	353.027	80.9768	353.027	82.8424	353.027	80.3559	353.027	82.2938	353.027	79.8098	353.027	81.8154	353.027	79.3724	353.027	81.4409	353.027	79.0941	353.027	81.1654	353.027	79.022	353.027	80.9502	353.027	79.1589	353.027	80.7528	353.027	79.4408	353.027	80.559	353.027	79.7627	353.027	80.3924	353.027	80.0285	353.027	80.2892	353.027	80.1873	353.027	80.255	353.027	80.2448
366.211	84.8529	366.211	84.6653	366.211	84.8936	366.211	84.3403	366.211	84.7863	366.211	83.8979	366.211	84.5361	366.211	83.3692	366.211	84.1528	366.211	82.7933	366.211	83.6525	366.211	82.2092	366.211	83.0619	366.211	81.6469	366.211	82.4269	366.211	81.1218	366.211	81.8199	366.211	80.6407	366.211	81.3318	366.211	80.217	366.211	81.0365	366.211	79.8836	366.211	80.9406	366.211	79.687	366.211	80.9725	366.211	79.6576	366.211	81.0296	366.211	79.7773	366.211	81.0356	366.211	79.9822	366.211	80.9661	366.211	80.2004	366.211	80.841	366.211	80.3898	366.211	80.6955	366.211	80.5483
379.395	84.6875	379.395	84.4751	379.395	84.7567	379.395	84.1255	379.395	84.6843	379.395	83.6544	379.395	84.4776	379.395	83.0879	379.395	84.1475	379.395	82.4628	379.395	83.7084	379.395	81.8234	379.395	83.1791	379.395	81.2147	379.395	82.5863	379.395	80.6751	379.395	81.9699	379.395	80.2327	379.395	81.3862	379.395	79.9099	379.395	80.9002	379.395	79.7308	379.395	80.5652	379.395	79.7158	379.395	80.3985	379.395	79.8623	379.395	80.3763	379.395	80.1264	379.395	80.4535	379.395	80.4309	379.395	80.5857	379.395	80.695	379.395	80.7335	379.395	80.8618	379.395	80.8563	379.395	80.911
392.578	84.7775	392.578	84.622	392.578	84.7792	392.578	84.3164	392.578	84.6305	392.578	83.8755	392.578	84.3387	392.578	83.3287	392.578	83.9134	392.578	82.7202	392.578	83.3679	392.578	82.1038	392.578	82.7254	392.578	81.5293	392.578	82.0318	392.578	81.026	392.578	81.3695	392.578	80.5964	392.578	80.8556	392.578	80.2303	392.578	80.5922	392.578	79.9269	392.578	80.5847	392.578	79.7089	392.578	80.7221	392.578	79.6089	392.578	80.8539	392.578	79.6361	392.578	80.8774	392.578	79.7556	392.578	80.7709	392.578	79.9093	392.578	80.5802	392.578	80.0578	392.578	80.3767	392.578	80.2044
405.762	84.956	405.762	84.6819	405.762	85.0912	405.762	84.279	405.762	85.0859	405.762	83.7661	405.762	84.9444	405.762	83.1708	405.762	84.673	405.762	82.527	405.762	84.2771	405.762	81.8727	405.762	83.7587	405.762	81.2473	405.762	83.1195	405.762	80.6885	405.762	82.3716	405.762	80.2308	405.762	81.5589	405.762	79.9082	405.762	80.7863	405.762	79.7568	405.762	80.2244	405.762	79.8057	405.762	80.0301	405.762	80.052	405.762	80.2124	405.762	80.4413	405.762	80.6176	405.762	80.8807	405.762	81.0599	405.762	81.2743	405.762	81.4158	405.762	81.5514	405.762	81.6274	405.762	81.6736
420.41	85.4684	420.41	85.2785	420.41	85.4931	420.41	84.9242	420.41	85.359	420.41	84.4149	420.41	85.0775	420.41	83.771	420.41	84.6627	420.41	83.0251	420.41	84.1301	420.41	82.2238	420.41	83.4972	420.41	81.4274	420.41	82.7885	420.41	80.703	420.41	82.0433	420.41	80.1109	420.41	81.3253	420.41	79.6934	420.41	80.7189	420.41	79.4712	420.41	80.3003	420.41	79.4463	420.41	80.0914	420.41	79.5956	420.41	80.0465	420.41	79.8606	420.41	80.0934	420.41	80.1541	420.41	80.1831	420.41	80.389	420.41	80.2973	420.41	80.5093	420.41	80.4187	420.41	80.5073
435.059	85.1818	435.059	85.014	435.059	85.1851	435.059	84.6812	435.059	85.0348	435.059	84.196	435.059	84.7482	435.059	83.5864	435.059	84.3442	435.059	82.8953	435.059	83.8389	435.059	82.1779	435.059	83.2442	435.059	81.4918	435.059	82.5721	435.059	80.8852	435.059	81.8465	435.059	80.3883	435.059	81.121	435.059	80.0204	435.059	80.4867	435.059	79.806	435.059	80.0452	435.059	79.7757	435.059	79.8462	435.059	79.9368	435.059	79.8529	435.059	80.237	435.059	79.9857	435.059	80.5701	435.059	80.1865	435.059	80.8237	435.059	80.4266	435.059	80.9252	435.059	80.6718	435.059	80.861
451.172	84.7571	451.172	84.6262	451.172	84.7277	451.172	84.3307	451.172	84.5533	451.172	83.8775	451.172	84.2575	451.172	83.2827	451.172	83.8669	451.172	82.5695	451.172	83.4041	451.172	81.7679	451.172	82.8816	451.172	80.918	451.172	82.3002	451.172	80.0756	451.172	81.6545	451.172	79.3195	451.172	80.9495	451.172	78.7544	451.172	80.2254	451.172	78.4932	451.172	79.5776	451.172	78.6002	451.172	79.1419	451.172	79.0255	451.172	79.0205	451.172	79.6139	451.172	79.2065	451.172	80.1845	451.172	79.5954	451.172	80.6003	451.172	80.0547	451.172	80.7882	451.172	80.4657	451.172	80.7328
465.82	84.8476	465.82	84.7005	465.82	84.8362	465.82	84.4087	465.82	84.6652	465.82	83.9932	465.82	84.3462	465.82	83.4747	465.82	83.9019	465.82	82.865	465.82	83.3626	465.82	82.1666	465.82	82.7626	465.82	81.3804	465.82	82.1369	465.82	80.5214	465.82	81.5183	465.82	79.6373	465.82	80.9355	465.82	78.8285	465.82	80.4133	465.82	78.2536	465.82	79.9721	465.82	78.0734	465.82	79.6264	465.82	78.3224	465.82	79.3862	465.82	78.847	465.82	79.2663	465.82	79.4103	465.82	79.2892	465.82	79.8247	465.82	79.4577	465.82	79.9992	465.82	79.7131	465.82	79.9357
483.398	84.9729	483.398	84.8032	483.398	84.937	483.398	84.4373	483.398	84.7082	483.398	83.9107	483.398	84.3136	483.398	83.2827	483.398	83.7876	483.398	82.6216	483.398	83.1641	483.398	81.9762	483.398	82.4713	483.398	81.3537	483.398	81.7337	483.398	80.7242	483.398	80.9829	483.398	80.0566	483.398	80.2736	483.398	79.3655	483.398	79.6865	483.398	78.7521	483.398	79.2907	483.398	78.4014	483.398	79.089	483.398	78.4652	483.398	79.021	483.398	78.8927	483.398	79.0385	483.398	79.4477	483.398	79.1562	483.398	79.8896	483.398	79.4031	483.398	80.0825	483.398	79.7308	483.398	80.0043
499.512	84.5858	499.512	84.4853	499.512	84.5017	499.512	84.208	499.512	84.2479	499.512	83.7821	499.512	83.8579	499.512	83.2475	499.512	83.3731	499.512	82.6433	499.512	82.8277	499.512	81.9981	499.512	82.2335	499.512	81.3286	499.512	81.5715	499.512	80.6445	499.512	80.8007	499.512	79.9578	499.512	79.8868	499.512	79.3016	499.512	78.8619	499.512	78.7598	499.512	77.9055	499.512	78.477	499.512	77.3493	499.512	78.5732	499.512	77.4128	499.512	78.9992	499.512	77.9374	499.512	79.538	499.512	78.6068	499.512	79.9623	499.512	79.2286	499.512	80.1427	499.512	79.7274	499.512	80.0517
517.09	84.5451	517.09	84.4945	517.09	84.3422	517.09	84.1882	517.09	83.9171	517.09	83.6575	517.09	83.3245	517.09	82.9678	517.09	82.636	517.09	82.2101	517.09	81.9319	517.09	81.4786	517.09	81.2884	517.09	80.8404	517.09	80.7591	517.09	80.314	517.09	80.3599	517.09	79.8734	517.09	80.0665	517.09	79.4756	517.09	79.8261	517.09	79.1046	517.09	79.5663	517.09	78.8119	517.09	79.2063	517.09	78.7117	517.09	78.6939	517.09	78.8745	517.09	78.0932	517.09	79.2014	517.09	77.6768	517.09	79.4597	517.09	77.7833	517.09	79.4353	517.09	78.3755	517.09	79.0399
536.133	83.9331	536.133	83.8499	536.133	83.7706	536.133	83.5193	536.133	83.3923	536.133	82.9778	536.133	82.845	536.133	82.3053	536.133	82.1795	536.133	81.611	536.133	81.4365	536.133	80.987	536.133	80.638	536.133	80.4508	536.133	79.7928	536.133	79.9381	536.133	78.9227	536.133	79.3644	536.133	78.1085	536.133	78.7066	536.133	77.5102	536.133	78.0685	536.133	77.2673	536.133	77.6823	536.133	77.3142	536.133	77.7387	536.133	77.4011	536.133	78.1449	536.133	77.3345	536.133	78.5861	536.133	77.1554	536.133	78.7826	536.133	77.1351	536.133	78.6073	536.133	77.4972	536.133	78.102
555.176	83.6217	555.176	83.5963	555.176	83.3932	555.176	83.295	555.176	82.9639	555.176	82.7325	555.176	82.4087	555.176	81.9646	555.176	81.8071	555.176	81.0884	555.176	81.2203	555.176	80.2258	555.176	80.6703	555.176	79.4792	555.176	80.1315	555.176	78.8845	555.176	79.5452	555.176	78.4091	555.176	78.8613	555.176	78.0081	555.176	78.1049	555.176	77.6933	555.176	77.4448	555.176	77.559	555.176	77.1435	555.176	77.7103	555.176	77.2924	555.176	78.1189	555.176	77.6769	555.176	78.5923	555.176	78.0433	555.176	78.9147	555.176	78.3212	555.176	78.9799	555.176	78.5731	555.176	78.824
574.219	84.3428	574.219	84.2776	574.219	84.119	574.219	83.9064	574.219	83.647	574.219	83.2435	574.219	82.979	574.219	82.3365	574.219	82.1674	574.219	81.2605	574.219	81.2625	574.219	80.1048	574.219	80.3293	574.219	78.9599	574.219	79.4703	574.219	77.9162	574.219	78.8135	574.219	77.0632	574.219	78.4344	574.219	76.469	574.219	78.2818	574.219	76.1656	574.219	78.2165	574.219	76.1753	574.219	78.1121	574.219	76.5149	574.219	77.9083	574.219	77.1136	574.219	77.6249	574.219	77.7646	574.219	77.382	574.219	78.2227	574.219	77.3724	574.219	78.3316	574.219	77.6717	574.219	78.0893
594.727	83.9575	594.727	83.8949	594.727	83.8003	594.727	83.6026	594.727	83.4546	594.727	83.0978	594.727	82.9642	594.727	82.4205	594.727	82.3715	594.727	81.624	594.727	81.7042	594.727	80.7626	594.727	80.9661	594.727	79.8832	594.727	80.1404	594.727	79.0181	594.727	79.2139	594.727	78.1778	594.727	78.2236	594.727	77.3655	594.727	77.3149	594.727	76.6388	594.727	76.7495	594.727	76.1885	594.727	76.7412	594.727	76.2654	594.727	77.2112	594.727	76.8676	594.727	77.8448	594.727	77.6609	594.727	78.368	594.727	78.3109	594.727	78.6796	594.727	78.6863	594.727	78.8137	594.727	78.8244
615.234	85.146	615.234	84.901	615.234	85.0604	615.234	84.3312	615.234	84.6721	615.234	83.4882	615.234	84.0301	615.234	82.4769	615.234	83.1935	615.234	81.4374	615.234	82.2219	615.234	80.4912	615.234	81.1719	615.234	79.6854	615.234	80.0982	615.234	78.9948	615.234	79.0531	615.234	78.3661	615.234	78.0779	615.234	77.7558	615.234	77.2143	615.234	77.1824	615.234	76.5616	615.234	76.8262	615.234	76.3151	615.234	77.0201	615.234	76.6187	615.234	77.8649	615.234	77.3613	615.234	78.9763	615.234	78.2832	615.234	79.888	615.234	79.1798	615.234	80.3587	615.234	79.9107	615.234	80.3439
637.207	85.2745	637.207	85.2408	637.207	84.9937	637.207	84.8402	637.207	84.4794	637.207	84.0603	637.207	83.8264	637.207	82.9437	637.207	83.1191	637.207	81.6146	637.207	82.4052	637.207	80.3014	637.207	81.6815	637.207	79.286	637.207	80.9009	637.207	78.7164	637.207	79.9987	637.207	78.469	637.207	78.9378	637.207	78.2806	637.207	77.7865	637.207	77.9584	637.207	76.7999	637.207	77.4953	637.207	76.2979	637.207	77.1274	637.207	76.2524	637.207	77.1975	637.207	76.304	637.207	77.6981	637.207	76.2988	637.207	78.1922	637.207	76.4897	637.207	78.2803	637.207	77.1001	637.207	77.8486
659.18	84.969	659.18	84.8852	659.18	84.7221	659.18	84.4595	659.18	84.194	659.18	83.7257	659.18	83.4625	659.18	82.7615	659.18	82.6169	659.18	81.6717	659.18	81.7383	659.18	80.5523	659.18	80.8909	659.18	79.4711	659.18	80.1221	659.18	78.502	659.18	79.4474	659.18	77.7567	659.18	78.81	659.18	77.3116	659.18	78.0778	659.18	77.1164	659.18	77.1621	659.18	77.0904	659.18	76.2786	659.18	77.2794	659.18	76.0613	659.18	77.7716	659.18	76.7586	659.18	78.4505	659.18	77.7464	659.18	79.0297	659.18	78.5134	659.18	79.3079	659.18	78.9974	659.18	79.2697
682.617	85.9057	682.617	85.766	682.617	85.6622	682.617	85.2105	682.617	85.0878	682.617	84.2434	682.617	84.2454	682.617	82.9257	682.617	83.2075	682.617	81.3888	682.617	82.0649	682.617	79.8068	682.617	80.9373	682.617	78.3281	682.617	79.9516	682.617	77.0667	682.617	79.1544	682.617	76.1928	682.617	78.4266	682.617	75.8686	682.617	77.5436	682.617	76.0087	682.617	76.3955	682.617	76.3859	682.617	75.3317	682.617	76.9693	682.617	75.2892	682.617	77.8851	682.617	76.5262	682.617	79.0385	682.617	78.1317	682.617	80.0732	682.617	79.4674	682.617	80.692	682.617	80.3654	682.617	80.7862
707.52	85.9973	707.52	85.9898	707.52	85.6719	707.52	85.6252	707.52	85.073	707.52	84.9211	707.52	84.2735	707.52	83.9281	707.52	83.3244	707.52	82.7013	707.52	82.229	707.52	81.2665	707.52	80.9738	707.52	79.6312	707.52	79.6501	707.52	77.8815	707.52	78.5925	707.52	76.315	707.52	78.1531	707.52	75.3425	707.52	78.0721	707.52	75.0414	707.52	77.62	707.52	75.1739	707.52	76.2024	707.52	75.6866	707.52	73.6975	707.52	76.6556	707.52	72.0285	707.52	77.8627	707.52	73.9959	707.52	78.8735	707.52	76.6025	707.52	79.3714	707.52	78.3295	707.52	79.2145
732.422	85.5614	732.422	85.5457	732.422	85.2067	732.422	85.1214	732.422	84.5571	732.422	84.3153	732.422	83.6956	732.422	83.2392	732.422	82.678	732.422	82.0559	732.422	81.5019	732.422	80.8503	732.422	80.109	732.422	79.5275	732.422	78.4729	732.422	77.9278	732.422	76.867	732.422	76.1056	732.422	76.103	732.422	74.5872	732.422	76.5145	732.422	74.0433	732.422	77.1174	732.422	74.3771	732.422	77.0026	732.422	75.175	732.422	75.8648	732.422	76.3311	732.422	74.1899	732.422	77.6432	732.422	74.0759	732.422	78.7097	732.422	76.0413	732.422	79.2166	732.422	77.9381	732.422	78.9957
757.324	86.8135	757.324	86.8192	757.324	86.3223	757.324	86.2676	757.324	85.4548	757.324	85.1518	757.324	84.3436	757.324	83.6048	757.324	83.1179	757.324	81.9981	757.324	81.8506	757.324	80.7756	757.324	80.4988	757.324	79.8937	757.324	78.8864	757.324	78.8649	757.324	76.8001	757.324	77.3803	757.324	74.4295	757.324	75.6171	757.324	73.4119	757.324	74.3405	757.324	74.5692	757.324	74.344	757.324	75.5803	757.324	75.4782	757.324	75.1171	757.324	77.1632	757.324	73.1955	757.324	78.8907	757.324	73.0247	757.324	80.2249	757.324	76.3992	757.324	80.8631	757.324	79.1845	757.324	80.5923
785.156	86.0125	785.156	86.3276	785.156	85.2982	785.156	86.1075	785.156	84.3668	785.156	85.2729	785.156	83.4114	785.156	83.8294	785.156	82.5651	785.156	81.9737	785.156	81.8332	785.156	80.2414	785.156	81.0876	785.156	79.192	785.156	80.123	785.156	78.6196	785.156	78.716	785.156	77.9136	785.156	76.6985	785.156	76.7954	785.156	74.3119	785.156	75.2928	785.156	73.1057	785.156	73.5632	785.156	73.8267	785.156	72.4147	785.156	74.1712	785.156	73.6938	785.156	72.4135	785.156	76.3927	785.156	67.6366	785.156	78.3986	785.156	69.9226	785.156	79.0997	785.156	75.5422	785.156	78.2896
811.523	85.9368	811.523	86.2442	811.523	85.1485	811.523	85.9719	811.523	84.0282	811.523	85.0602	811.523	82.7811	811.523	83.5163	811.523	81.63	811.523	81.5284	811.523	80.7127	811.523	79.6192	811.523	79.977	811.523	78.3196	811.523	79.1774	811.523	77.3856	811.523	77.9901	811.523	76.2234	811.523	76.2026	811.523	74.7685	811.523	74.1882	811.523	73.6697	811.523	73.5217	811.523	73.5727	811.523	74.5222	811.523	74.2404	811.523	75.3456	811.523	75.3708	811.523	75.0108	811.523	76.7547	811.523	73.3851	811.523	77.7921	811.523	72.119	811.523	77.8784	811.523	74.1233	811.523	76.6552
840.82	86.3141	840.82	86.6462	840.82	85.4711	840.82	86.3531	840.82	84.2702	840.82	85.3313	840.82	82.9261	840.82	83.4926	840.82	81.686	840.82	80.8911	840.82	80.7168	840.82	78.221	840.82	79.985	840.82	76.9802	840.82	79.2627	840.82	76.9332	840.82	78.2311	840.82	76.5862	840.82	76.5613	840.82	75.5196	840.82	74.0844	840.82	74.2109	840.82	71.8934	840.82	73.5377	840.82	72.4633	840.82	73.7477	840.82	73.6184	840.82	74.6694	840.82	72.8824	840.82	76.2508	840.82	69.9226	840.82	77.7877	840.82	70.5644	840.82	78.4324	840.82	75.0844	840.82	77.6786
870.117	85.7156	870.117	86.0808	870.117	84.8367	870.117	85.8898	870.117	83.5157	870.117	85.077	870.117	81.9042	870.117	83.5229	870.117	80.2591	870.117	81.0739	870.117	78.8957	870.117	77.7317	870.117	78.0163	870.117	74.4898	870.117	77.514	870.117	73.4335	870.117	76.979	870.117	73.5149	870.117	75.8519	870.117	72.9671	870.117	73.492	870.117	71.7219	870.117	69.8462	870.117	70.5722	870.117	70.3258	870.117	70.4753	870.117	73.8011	870.117	71.7333	870.117	74.9718	870.117	73.7935	870.117	73.1589	870.117	75.4652	870.117	67.2294	870.117	75.7706	870.117	68.4013	870.117	73.8968
900.879	85.8814	900.879	86.025	900.879	85.1494	900.879	85.5999	900.879	83.8498	900.879	84.6147	900.879	82.0786	900.879	82.9961	900.879	80.052	900.879	80.5494	900.879	78.1615	900.879	77.0695	900.879	76.9257	900.879	73.2761	900.879	76.6383	900.879	72.3927	900.879	76.9587	900.879	73.4753	900.879	77.0838	900.879	73.7359	900.879	76.0941	900.879	72.7978	900.879	72.6695	900.879	70.6232	900.879	63.1853	900.879	67.2176	900.879	69.2036	900.879	65.975	900.879	74.2272	900.879	69.7374	900.879	74.8714	900.879	72.4977	900.879	72.5692	900.879	72.9921	900.879	69.4566	900.879	71.1701
933.105	85.8207	933.105	85.8059	933.105	85.1772	933.105	85.205	933.105	83.8344	933.105	84.1084	933.105	81.7946	933.105	82.5537	933.105	79.1456	933.105	80.4116	933.105	76.1217	933.105	77.3502	933.105	73.0823	933.105	72.9455	933.105	70.3273	933.105	67.62	933.105	68.611	933.105	66.3359	933.105	69.575	933.105	68.2701	933.105	71.4756	933.105	69.5958	933.105	71.7518	933.105	70.1463	933.105	69.1519	933.105	69.8408	933.105	64.9794	933.105	69.1838	933.105	69.434	933.105	70.5177	933.105	72.4664	933.105	73.1198	933.105	73.0644	933.105	74.5006	933.105	73.3539	933.105	74.2821
965.332	85.5315	965.332	85.5971	965.332	84.7044	965.332	84.898	965.332	83.149	965.332	83.4696	965.332	80.9425	965.332	81.3956	965.332	78.2663	965.332	78.7727	965.332	75.5359	965.332	75.5941	965.332	73.403	965.332	71.7274	965.332	72.0586	965.332	67.7116	965.332	70.9128	965.332	66.342	965.332	69.8176	965.332	67.4157	965.332	69.2603	965.332	68.3449	965.332	68.3042	965.332	68.7319	965.332	64.4734	965.332	68.7065	965.332	59.4361	965.332	68.5815	965.332	67.1566	965.332	69.5403	965.332	70.5895	965.332	71.5292	965.332	71.602	965.332	72.8166	965.332	72.128	965.332	72.8211
1000.49	85.5762	1000.49	85.8714	1000.49	84.4461	1000.49	85.3321	1000.49	82.4687	1000.49	83.9731	1000.49	79.6014	1000.49	81.8366	1000.49	75.8074	1000.49	78.9792	1000.49	71.3171	1000.49	75.4307	1000.49	67.8572	1000.49	71.1592	1000.49	67.626	1000.49	66.2704	1000.49	67.9837	1000.49	62.4442	1000.49	67.2494	1000.49	62.8753	1000.49	66.4802	1000.49	65.2514	1000.49	66.7624	1000.49	67.4573	1000.49	66.0997	1000.49	69.091	1000.49	61.9482	1000.49	70.1828	1000.49	50.851	1000.49	71.4312	1000.49	64.0776	1000.49	73.213	1000.49	69.7043	1000.49	74.5066	1000.49	72.8681	1000.49	74.4571
1035.64	85.9937	1035.64	86.2876	1035.64	84.6378	1035.64	85.5929	1035.64	82.1882	1035.64	84.0379	1035.64	78.6149	1035.64	81.7801	1035.64	73.7663	1035.64	78.9505	1035.64	67.2299	1035.64	75.6342	1035.64	64.8399	1035.64	71.9542	1035.64	68.9478	1035.64	68.2019	1035.64	70.9734	1035.64	64.2438	1035.64	71.5754	1035.64	57.7202	1035.64	71.5653	1035.64	60.555	1035.64	70.6735	1035.64	67.1325	1035.64	67.7789	1035.64	69.5346	1035.64	59.9529	1035.64	69.8452	1035.64	57.6873	1035.64	71.1667	1035.64	65.3941	1035.64	73.668	1035.64	68.1799	1035.64	74.7693	1035.64	71.1769	1035.64	73.8463
1072.27	86.2081	1072.27	86.6714	1072.27	84.5845	1072.27	86.0926	1072.27	81.6549	1072.27	84.6151	1072.27	77.0887	1072.27	82.3854	1072.27	69.8971	1072.27	79.4927	1072.27	59.4578	1072.27	75.9629	1072.27	65.5437	1072.27	71.8934	1072.27	69.0396	1072.27	67.7414	1072.27	70.0502	1072.27	64.6529	1072.27	69.7512	1072.27	63.4986	1072.27	69.6833	1072.27	63.2909	1072.27	70.015	1072.27	64.9916	1072.27	68.9414	1072.27	68.0687	1072.27	65.3726	1072.27	70.3319	1072.27	59.3344	1072.27	72.524	1072.27	43.5222	1072.27	74.5924	1072.27	63.4093	1072.27	75.343	1072.27	70.7329	1072.27	74.205
1108.89	86.2491	1108.89	86.9145	1108.89	84.1825	1108.89	86.3161	1108.89	80.5305	1108.89	84.6395	1108.89	74.9393	1108.89	82.2002	1108.89	67.6649	1108.89	79.439	1108.89	66.9371	1108.89	76.6598	1108.89	69.8873	1108.89	73.8563	1108.89	71.5665	1108.89	71.2042	1108.89	71.9082	1108.89	69.5801	1108.89	71.1911	1108.89	69.029	1108.89	70.841	1108.89	67.5746	1108.89	71.4596	1108.89	65.4067	1108.89	71.1448	1108.89	67.1821	1108.89	68.3557	1108.89	69.5818	1108.89	61.5486	1108.89	71.677	1108.89	49.1217	1108.89	73.7766	1108.89	53.9376	1108.89	74.3557	1108.89	66.8488	1108.89	72.401
1148.44	86.2563	1148.44	86.9944	1148.44	84.1787	1148.44	86.6174	1148.44	80.485	1148.44	85.3286	1148.44	75.1244	1148.44	83.3206	1148.44	71.5572	1148.44	80.7568	1148.44	73.3271	1148.44	77.806	1148.44	75.1612	1148.44	74.7608	1148.44	75.9138	1148.44	72.013	1148.44	75.623	1148.44	69.723	1148.44	74.6741	1148.44	67.8465	1148.44	73.7907	1148.44	67.2799	1148.44	73.376	1148.44	68.3182	1148.44	72.7489	1148.44	68.4782	1148.44	70.4392	1148.44	67.7549	1148.44	65.5052	1148.44	70.5489	1148.44	61.6257	1148.44	74.0589	1148.44	52.0732	1148.44	75.3971	1148.44	67.9614	1148.44	73.8963
1189.45	86.5874	1189.45	87.5494	1189.45	83.9085	1189.45	87.0736	1189.45	79.0289	1189.45	85.3952	1189.45	72.9728	1189.45	82.8907	1189.45	73.3427	1189.45	80.1309	1189.45	74.7555	1189.45	77.6376	1189.45	75.2553	1189.45	75.5564	1189.45	75.5059	1189.45	73.8717	1189.45	74.9746	1189.45	72.9132	1189.45	73.7431	1189.45	72.7825	1189.45	73.4191	1189.45	72.4776	1189.45	74.2773	1189.45	72.0622	1189.45	74.7609	1189.45	72.0074	1189.45	73.7694	1189.45	70.8265	1189.45	70.1723	1189.45	71.2889	1189.45	62.4861	1189.45	73.9095	1189.45	47.562	1189.45	74.5732	1189.45	66.235	1189.45	72.4679
1230.47	86.1302	1230.47	87.3878	1230.47	82.9556	1230.47	87.0837	1230.47	77.8972	1230.47	85.5924	1230.47	75.4478	1230.47	83.3531	1230.47	76.7103	1230.47	80.7259	1230.47	76.885	1230.47	77.8106	1230.47	76.9834	1230.47	74.6362	1230.47	77.5063	1230.47	71.4648	1230.47	77.0757	1230.47	68.8268	1230.47	75.002	1230.47	68.1498	1230.47	72.636	1230.47	69.9871	1230.47	73.1417	1230.47	72.6421	1230.47	74.1626	1230.47	74.0255	1230.47	73.0606	1230.47	72.5004	1230.47	68.9586	1230.47	71.2508	1230.47	64.4641	1230.47	74.3016	1230.47	57.9169	1230.47	74.9122	1230.47	63.2622	1230.47	72.0705
1274.41	85.9568	1274.41	87.8263	1274.41	81.9662	1274.41	87.7568	1274.41	76.1249	1274.41	85.9826	1274.41	74.8431	1274.41	82.9946	1274.41	77.2816	1274.41	79.6858	1274.41	77.8993	1274.41	76.8516	1274.41	77.4422	1274.41	74.476	1274.41	77.4202	1274.41	72.48	1274.41	77.5118	1274.41	71.5003	1274.41	76.5581	1274.41	71.2858	1274.41	74.4069	1274.41	68.6923	1274.41	72.2882	1274.41	67.4923	1274.41	72.9531	1274.41	72.6429	1274.41	73.8409	1274.41	72.8057	1274.41	71.958	1274.41	71.1604	1274.41	67.0404	1274.41	74.1306	1274.41	60.2599	1274.41	74.9005	1274.41	64.8761	1274.41	72.0224
1319.82	85.8798	1319.82	87.7998	1319.82	81.3486	1319.82	87.7257	1319.82	74.2385	1319.82	86.0623	1319.82	76.6979	1319.82	83.2433	1319.82	79.9065	1319.82	79.8421	1319.82	80.3546	1319.82	76.6128	1319.82	79.1822	1319.82	74.1171	1319.82	78.133	1319.82	71.8304	1319.82	77.5909	1319.82	68.2287	1319.82	76.0213	1319.82	68.0395	1319.82	74.2219	1319.82	71.4291	1319.82	74.3067	1319.82	70.4856	1319.82	75.2423	1319.82	71.2817	1319.82	75.9817	1319.82	73.4822	1319.82	74.623	1319.82	70.9376	1319.82	69.5174	1319.82	72.9953	1319.82	62.2545	1319.82	74.4711	1319.82	58.2278	1319.82	70.1297
1366.7	85.8612	1366.7	87.7654	1366.7	81.3923	1366.7	87.7682	1366.7	73.8674	1366.7	86.2117	1366.7	77.0254	1366.7	83.4061	1366.7	80.584	1366.7	79.7906	1366.7	81.2189	1366.7	76.1974	1366.7	80.4113	1366.7	73.9789	1366.7	79.7984	1366.7	73.4354	1366.7	79.7286	1366.7	72.5102	1366.7	78.7837	1366.7	69.2144	1366.7	75.9626	1366.7	64.2602	1366.7	72.1267	1366.7	63.352	1366.7	72.4106	1366.7	70.6118	1366.7	73.6262	1366.7	73.3121	1366.7	73.1206	1366.7	70.6597	1366.7	70.9714	1366.7	70.3213	1366.7	63.7263	1366.7	73.1894	1366.7	62.924	1366.7	71.8734
1413.57	86.9104	1413.57	88.2176	1413.57	83.2965	1413.57	87.6261	1413.57	77.6542	1413.57	85.5935	1413.57	77.5969	1413.57	82.8172	1413.57	79.7768	1413.57	80.2484	1413.57	79.6677	1413.57	78.7759	1413.57	78.2254	1413.57	78.5458	1413.57	76.752	1413.57	78.602	1413.57	76.6761	1413.57	78.1693	1413.57	76.7294	1413.57	77.2484	1413.57	73.9625	1413.57	76.654	1413.57	67.7105	1413.57	73.9677	1413.57	73.1906	1413.57	67.2175	1413.57	76.4723	1413.57	74.8691	1413.57	75.4551	1413.57	74.4054	1413.57	67.637	1413.57	73.6841	1413.57	57.7903	1413.57	75.5153	1413.57	63.3382	1413.57	72.1764
1463.38	86.6108	1463.38	88.4607	1463.38	81.8264	1463.38	87.7454	1463.38	77.2882	1463.38	85.1153	1463.38	78.354	1463.38	81.353	1463.38	79.9747	1463.38	77.4706	1463.38	80.885	1463.38	74.9033	1463.38	80.4226	1463.38	74.5163	1463.38	78.528	1463.38	75.0689	1463.38	76.8407	1463.38	74.7071	1463.38	76.9815	1463.38	72.86	1463.38	77.0519	1463.38	74.4727	1463.38	75.655	1463.38	75.0664	1463.38	73.2849	1463.38	65.1646	1463.38	72.8811	1463.38	69.9186	1463.38	73.7296	1463.38	71.3815	1463.38	71.362	1463.38	68.1995	1463.38	62.8144	1463.38	71.0249	1463.38	61.9164	1463.38	69.8771
1516.11	85.5814	1516.11	87.8584	1516.11	80.4861	1516.11	87.5295	1516.11	77.1466	1516.11	85.083	1516.11	79.8763	1516.11	80.809	1516.11	82.1107	1516.11	75.3343	1516.11	82.9215	1516.11	71.7978	1516.11	82.2846	1516.11	72.2481	1516.11	81.0177	1516.11	73.15	1516.11	79.8644	1516.11	74.3882	1516.11	79.1533	1516.11	74.6031	1516.11	78.5091	1516.11	73.9188	1516.11	76.0422	1516.11	76.7407	1516.11	72.3918	1516.11	73.0657	1516.11	71.6915	1516.11	65.592	1516.11	72.8898	1516.11	71.6238	1516.11	73.2026	1516.11	67.3499	1516.11	67.6876	1516.11	70.0602	1516.11	64.4154	1516.11	71.2575
1568.85	85.5692	1568.85	87.2908	1568.85	80.7055	1568.85	86.7983	1568.85	77.3567	1568.85	84.5214	1568.85	80.942	1568.85	80.7444	1568.85	82.823	1568.85	77.3257	1568.85	83.3992	1568.85	76.2471	1568.85	82.6199	1568.85	76.9703	1568.85	81.0553	1568.85	77.4344	1568.85	79.9339	1568.85	76.4761	1568.85	78.7823	1568.85	75.3938	1568.85	78.8741	1568.85	70.058	1568.85	77.9501	1568.85	71.8928	1568.85	73.2039	1568.85	74.3226	1568.85	73.6014	1568.85	66.3565	1568.85	73.4312	1568.85	70.383	1568.85	71.1289	1568.85	70.313	1568.85	67.4791	1568.85	72.2278	1568.85	63.4843	1568.85	71.8173
1624.51	85.7543	1624.51	87.4541	1624.51	81.0814	1624.51	86.8329	1624.51	76.7269	1624.51	83.9553	1624.51	81.4536	1624.51	80.1205	1624.51	83.7965	1624.51	77.9785	1624.51	84.1744	1624.51	76.5284	1624.51	83.2176	1624.51	76.3212	1624.51	81.0453	1624.51	76.4499	1624.51	79.4568	1624.51	73.5008	1624.51	77.9648	1624.51	73.1833	1624.51	76.6794	1624.51	73.6791	1624.51	76.76	1624.51	65.1299	1624.51	75.2576	1624.51	69.5388	1624.51	74.2039	1624.51	67.7431	1624.51	71.7088	1624.51	68.3925	1624.51	69.2	1624.51	69.7177	1624.51	69.0263	1624.51	72.8337	1624.51	54.7038	1624.51	73.0791
1681.64	85.4013	1681.64	87.0031	1681.64	82.048	1681.64	86.8973	1681.64	79.1092	1681.64	85.1657	1681.64	83.1526	1681.64	82.8577	1681.64	84.8311	1681.64	79.5897	1681.64	83.7877	1681.64	73.0916	1681.64	81.0933	1681.64	64.2141	1681.64	77.8804	1681.64	70.8383	1681.64	76.4874	1681.64	71.6121	1681.64	75.6837	1681.64	66.8729	1681.64	78.1092	1681.64	71.5755	1681.64	79.6703	1681.64	67.9816	1681.64	77.4888	1681.64	69.2866	1681.64	75.737	1681.64	66.366	1681.64	70.3646	1681.64	65.7053	1681.64	68.2082	1681.64	67.718	1681.64	68.8857	1681.64	69.9517	1681.64	66.3906	1681.64	73.9168
1741.7	85.624	1741.7	86.4392	1741.7	83.0582	1741.7	85.9109	1741.7	80.6802	1741.7	84.5901	1741.7	82.8997	1741.7	83.4986	1741.7	83.6011	1741.7	81.6095	1741.7	82.4938	1741.7	77.9306	1741.7	80.6413	1741.7	73.4135	1741.7	77.3818	1741.7	70.1018	1741.7	74.7926	1741.7	74.2239	1741.7	72.7142	1741.7	73.6178	1741.7	71.9319	1741.7	73.3731	1741.7	77.1971	1741.7	72.0584	1741.7	76.7212	1741.7	65.2334	1741.7	75.3537	1741.7	66.1869	1741.7	73.6749	1741.7	70.0428	1741.7	69.1242	1741.7	70.8629	1741.7	67.6964	1741.7	71.0474	1741.7	62.9889	1741.7	72.8597
1803.22	85.3587	1803.22	87.4265	1803.22	80.4346	1803.22	86.3112	1803.22	78.4911	1803.22	83.9625	1803.22	82.7728	1803.22	80.4192	1803.22	85.5611	1803.22	76.056	1803.22	85.6132	1803.22	77.0732	1803.22	83.3701	1803.22	79.9151	1803.22	79.5509	1803.22	79.5196	1803.22	77.6316	1803.22	78.3529	1803.22	76.3594	1803.22	77.4554	1803.22	75.4383	1803.22	75.8804	1803.22	75.8552	1803.22	78.4106	1803.22	78.1572	1803.22	72.9973	1803.22	77.5104	1803.22	63.4169	1803.22	67.6806	1803.22	67.8357	1803.22	71.4118	1803.22	67.4102	1803.22	71.6917	1803.22	66.8847	1803.22	70.3882	1803.22	75.1344
1866.21	85.0762	1866.21	85.6695	1866.21	83.1539	1866.21	86.0307	1866.21	81.7648	1866.21	85.9559	1866.21	84.5143	1866.21	83.749	1866.21	84.444	1866.21	80.2814	1866.21	81.8674	1866.21	75.0874	1866.21	79.5061	1866.21	59.5416	1866.21	77.8111	1866.21	58.1886	1866.21	76.4496	1866.21	64.7446	1866.21	75.5898	1866.21	71.5117	1866.21	69.2224	1866.21	75.506	1866.21	54.7608	1866.21	72.6936	1866.21	74.0229	1866.21	63.3037	1866.21	78.8686	1866.21	69.3575	1866.21	77.4075	1866.21	66.2323	1866.21	63.1844	1866.21	74.2547	1866.21	68.1782	1866.21	74.1023	1866.21	66.7016	1866.21	75.538
1932.13	85.6774	1932.13	86.0778	1932.13	83.5646	1932.13	85.9185	1932.13	81.2202	1932.13	85.1107	1932.13	83.303	1932.13	82.7292	1932.13	84.2367	1932.13	79.7337	1932.13	82.6965	1932.13	75.7258	1932.13	80.4876	1932.13	68.031	1932.13	77.7954	1932.13	72.986	1932.13	73.9307	1932.13	75.1601	1932.13	72.2771	1932.13	74.4191	1932.13	69.878	1932.13	71.3567	1932.13	64.9723	1932.13	59.498	1932.13	73.8433	1932.13	69.0736	1932.13	77.2093	1932.13	67.344	1932.13	74.3495	1932.13	60.7917	1932.13	60.6904	1932.13	69.1	1932.13	66.0994	1932.13	71.342	1932.13	70.2491	1932.13	74.324
1999.51	84.981	1999.51	84.2368	1999.51	85.0851	1999.51	85.4463	1999.51	83.2498	1999.51	85.9785	1999.51	82.2382	1999.51	84.5328	1999.51	80.7903	1999.51	83.4496	1999.51	82.2032	1999.51	80.8228	1999.51	84.4719	1999.51	77.7804	1999.51	84.9383	1999.51	75.3691	1999.51	82.8792	1999.51	71.6575	1999.51	81.307	1999.51	71.8599	1999.51	78.8876	1999.51	71.7375	1999.51	75.4751	1999.51	74.7643	1999.51	67.4586	1999.51	71.9905	1999.51	76.1488	1999.51	74.8608	1999.51	79.4873	1999.51	73.8578	1999.51	73.0613	1999.51	74.2023	1999.51	69.5513	1999.51	75.2458	1999.51	66.4377	1999.51	74.366
2069.82	84.8023	2069.82	85.5495	2069.82	83.5678	2069.82	85.2951	2069.82	80.9964	2069.82	83.6978	2069.82	80.9496	2069.82	83.5427	2069.82	83.7774	2069.82	82.5124	2069.82	85.4134	2069.82	80.9072	2069.82	84.2021	2069.82	80.9505	2069.82	81.5544	2069.82	79.0079	2069.82	76.7225	2069.82	76.3934	2069.82	74.1553	2069.82	77.4745	2069.82	76.2034	2069.82	75.7174	2069.82	76.2095	2069.82	77.5976	2069.82	76.1071	2069.82	77.2268	2069.82	70.5531	2069.82	75.1405	2069.82	69.4903	2069.82	72.5181	2069.82	69.5497	2069.82	71.3898	2069.82	64.0595	2069.82	68.1217	2069.82	66.5752	2069.82	68.8174
2143.07	84.9152	2143.07	85.7558	2143.07	83.359	2143.07	84.9304	2143.07	81.3447	2143.07	83.9141	2143.07	81.8981	2143.07	83.1512	2143.07	84.8515	2143.07	82.9009	2143.07	85.1021	2143.07	83.5869	2143.07	82.9529	2143.07	82.3645	2143.07	80.0084	2143.07	79.8264	2143.07	76.6688	2143.07	76.0442	2143.07	73.6107	2143.07	74.8057	2143.07	72.997	2143.07	73.7349	2143.07	74.5378	2143.07	66.2822	2143.07	74.7309	2143.07	75.2613	2143.07	69.5447	2143.07	74.9217	2143.07	70.26	2143.07	67.9967	2143.07	67.6748	2143.07	72.8014	2143.07	61.1133	2143.07	68.8663	2143.07	63.261	2143.07	65.5726
2219.24	83.86	2219.24	84.7933	2219.24	83.7159	2219.24	85.5	2219.24	83.4529	2219.24	84.435	2219.24	82.2606	2219.24	82.4376	2219.24	83.0935	2219.24	82.0882	2219.24	83.7733	2219.24	79.9169	2219.24	82.3731	2219.24	78.3748	2219.24	79.4283	2219.24	77.0952	2219.24	77.3773	2219.24	76.1516	2219.24	74.8216	2219.24	76.3335	2219.24	73.6372	2219.24	73.576	2219.24	70.2054	2219.24	68.0901	2219.24	71.5907	2219.24	73.3108	2219.24	71.2103	2219.24	72.3476	2219.24	70.1202	2219.24	69.0126	2219.24	63.4392	2219.24	69.6665	2219.24	53.2378	2219.24	72.4338	2219.24	67.5018	2219.24	68.4039
2296.88	82.592	2296.88	84.4886	2296.88	82.1908	2296.88	85.2913	2296.88	83.6464	2296.88	83.686	2296.88	83.3378	2296.88	82.6245	2296.88	82.5814	2296.88	80.6892	2296.88	83.3364	2296.88	79.6149	2296.88	82.689	2296.88	78.7589	2296.88	79.333	2296.88	76.0128	2296.88	76.6447	2296.88	75.08	2296.88	74.3378	2296.88	71.2691	2296.88	70.6326	2296.88	72.3928	2296.88	69.494	2296.88	64.7146	2296.88	72.7055	2296.88	72.2229	2296.88	71.2238	2296.88	74.083	2296.88	68.8131	2296.88	69.9765	2296.88	65.5962	2296.88	67.0564	2296.88	60.2388	2296.88	72.5753	2296.88	65.4453	2296.88	67.1929
2378.91	83.6517	2378.91	85.8004	2378.91	83.1076	2378.91	86.5326	2378.91	83.3233	2378.91	86.0887	2378.91	84.0688	2378.91	84.155	2378.91	83.7699	2378.91	81.9204	2378.91	82.8925	2378.91	81.1	2378.91	82.3619	2378.91	80.2947	2378.91	80.2222	2378.91	78.5337	2378.91	76.2972	2378.91	75.1464	2378.91	73.8075	2378.91	76.5365	2378.91	74.7189	2378.91	72.8059	2378.91	72.2681	2378.91	72.8785	2378.91	70.151	2378.91	67.6098	2378.91	72.1492	2378.91	74.7885	2378.91	68.2583	2378.91	73.321	2378.91	68.456	2378.91	66.8065	2378.91	65.2838	2378.91	71.8066	2378.91	63.0302	2378.91	68.788
2462.4	84.5779	2462.4	86.445	2462.4	84.7105	2462.4	86.9057	2462.4	85.4051	2462.4	86.1913	2462.4	84.1308	2462.4	84.5628	2462.4	83.9453	2462.4	82.7098	2462.4	83.5195	2462.4	80.3194	2462.4	82.2761	2462.4	78.7891	2462.4	80.002	2462.4	78.3811	2462.4	75.7035	2462.4	77.3375	2462.4	74.0665	2462.4	72.9791	2462.4	69.3309	2462.4	73.0086	2462.4	70.9614	2462.4	68.1646	2462.4	71.4422	2462.4	65.3224	2462.4	74.3883	2462.4	70.8828	2462.4	67.806	2462.4	71.0839	2462.4	64.2613	2462.4	68.7804	2462.4	61.9711	2462.4	70.6254	2462.4	64.842	2462.4	68.6731
2548.83	84.535	2548.83	86.1892	2548.83	84.3512	2548.83	87.1652	2548.83	86.2953	2548.83	86.3648	2548.83	85.3454	2548.83	84.7331	2548.83	83.3319	2548.83	83.3433	2548.83	83.222	2548.83	81.2865	2548.83	82.0987	2548.83	79.9678	2548.83	80.3835	2548.83	77.9578	2548.83	76.5987	2548.83	72.4476	2548.83	73.4516	2548.83	71.9797	2548.83	72.5703	2548.83	70.1119	2548.83	69.7851	2548.83	69.5799	2548.83	70.6305	2548.83	69.3719	2548.83	73.788	2548.83	69.4679	2548.83	69.4118	2548.83	71.5543	2548.83	64.9568	2548.83	67.4716	2548.83	63.703	2548.83	70.57	2548.83	64.1539	2548.83	68.3156
2639.65	84.6621	2639.65	86.3744	2639.65	84.4991	2639.65	86.9522	2639.65	85.7124	2639.65	85.7619	2639.65	85.9842	2639.65	84.6118	2639.65	84.0098	2639.65	82.8466	2639.65	83.1435	2639.65	81.4606	2639.65	82.0586	2639.65	79.7074	2639.65	79.8695	2639.65	78.4193	2639.65	75.2243	2639.65	77.9487	2639.65	72.0895	2639.65	76.341	2639.65	74.0522	2639.65	73.6602	2639.65	74.0145	2639.65	71.6734	2639.65	66.8128	2639.65	67.5632	2639.65	73.288	2639.65	71.5528	2639.65	70.3658	2639.65	70.3916	2639.65	66.8637	2639.65	70.1584	2639.65	66.0372	2639.65	70.2478	2639.65	64.9095	2639.65	69.1755
2731.93	84.8828	2731.93	86.791	2731.93	85.6286	2731.93	86.7625	2731.93	86.5821	2731.93	85.7478	2731.93	85.3904	2731.93	83.9854	2731.93	84.2239	2731.93	82.6963	2731.93	83.1893	2731.93	81.9732	2731.93	82.1893	2731.93	79.5035	2731.93	80.2623	2731.93	77.127	2731.93	75.8473	2731.93	72.829	2731.93	70.7546	2731.93	69.2052	2731.93	67.935	2731.93	71.4968	2731.93	70.1963	2731.93	67.1665	2731.93	71.1255	2731.93	67.9117	2731.93	72.4387	2731.93	68.3193	2731.93	69.2011	2731.93	69.1436	2731.93	65.6873	2731.93	68.1914	2731.93	66.3919	2731.93	71.2538	2731.93	65.9275	2731.93	67.7326
2828.61	85.1194	2828.61	86.7636	2828.61	84.9003	2828.61	87.0791	2828.61	87.2777	2828.61	86.1528	2828.61	85.7638	2828.61	83.6758	2828.61	83.5166	2828.61	83.4461	2828.61	83.8026	2828.61	82.4355	2828.61	82.2764	2828.61	80.1481	2828.61	80.1836	2828.61	78.1306	2828.61	75.8109	2828.61	75.0674	2828.61	70.9946	2828.61	72.9739	2828.61	73.2501	2828.61	69.4376	2828.61	74.6635	2828.61	71.8724	2828.61	72.9599	2828.61	65.8817	2828.61	72.8118	2828.61	71.7593	2828.61	69.5227	2828.61	68.5704	2828.61	63.3693	2828.61	67.316	2828.61	67.4057	2828.61	71.6305	2828.61	67.5431	2828.61	68.2966
2928.22	85.3058	2928.22	86.4048	2928.22	85.0019	2928.22	86.973	2928.22	86.9627	2928.22	85.8841	2928.22	86.1073	2928.22	84.698	2928.22	83.0501	2928.22	84.1422	2928.22	83.5044	2928.22	82.0805	2928.22	82.2183	2928.22	79.6215	2928.22	80.1923	2928.22	76.5445	2928.22	75.2681	2928.22	75.784	2928.22	66.3969	2928.22	72.8792	2928.22	71.8969	2928.22	73.0321	2928.22	76.6005	2928.22	68.4897	2928.22	74.7536	2928.22	69.4913	2928.22	72.8732	2928.22	71.4047	2928.22	69.0821	2928.22	68.7965	2928.22	65.8246	2928.22	68.9442	2928.22	66.1404	2928.22	70.763	2928.22	65.9382	2928.22	67.122
3030.76	86.3249	3030.76	87.0412	3030.76	85.8272	3030.76	87.0979	3030.76	87.2434	3030.76	85.6225	3030.76	86.0559	3030.76	85.0388	3030.76	82.2524	3030.76	83.7526	3030.76	83.1831	3030.76	81.6123	3030.76	82.6253	3030.76	79.0625	3030.76	79.9409	3030.76	76.9056	3030.76	76.3972	3030.76	72.6958	3030.76	70.167	3030.76	69.1308	3030.76	75.1656	3030.76	69.0337	3030.76	74.3529	3030.76	66.9813	3030.76	73.7562	3030.76	67.563	3030.76	71.4287	3030.76	70.3906	3030.76	68.2639	3030.76	70.7564	3030.76	62.5222	3030.76	68.3249	3030.76	67.8162	3030.76	70.2094	3030.76	65.0624	3030.76	68.5652
3137.7	86.2988	3137.7	86.8894	3137.7	86.2154	3137.7	87.41	3137.7	87.3991	3137.7	85.7396	3137.7	86.0968	3137.7	85.3787	3137.7	82.0351	3137.7	83.6953	3137.7	82.1819	3137.7	81.0095	3137.7	82.1842	3137.7	79.0826	3137.7	80.4615	3137.7	76.0619	3137.7	78.5487	3137.7	74.3549	3137.7	73.7375	3137.7	73.6447	3137.7	75.2652	3137.7	70.0678	3137.7	73.3052	3137.7	70.113	3137.7	72.8888	3137.7	65.643	3137.7	71.4103	3137.7	70.5583	3137.7	66.812	3137.7	70.2751	3137.7	64.125	3137.7	68.731	3137.7	69.7674	3137.7	69.2349	3137.7	57.1642	3137.7	67.9922
3249.02	86.3515	3249.02	86.9916	3249.02	86.6657	3249.02	86.8535	3249.02	87.3687	3249.02	85.771	3249.02	85.9741	3249.02	85.6026	3249.02	81.6688	3249.02	83.4816	3249.02	82.1805	3249.02	81.0054	3249.02	82.2926	3249.02	80.0857	3249.02	80.72	3249.02	78.1059	3249.02	78.7173	3249.02	76.8964	3249.02	73.8649	3249.02	73.6332	3249.02	76.0677	3249.02	72.2753	3249.02	71.4457	3249.02	69.0329	3249.02	74.0155	3249.02	67.4217	3249.02	71.0258	3249.02	70.4173	3249.02	68.3136	3249.02	69.6295	3249.02	63.9162	3249.02	69.1577	3249.02	68.6289	3249.02	69.3635	3249.02	62.6107	3249.02	69.3289
3363.28	86.3915	3363.28	87.5071	3363.28	87.0948	3363.28	87.0348	3363.28	87.2427	3363.28	86.0735	3363.28	86.068	3363.28	85.0194	3363.28	80.7434	3363.28	82.9886	3363.28	81.9293	3363.28	81.6446	3363.28	82.0072	3363.28	79.2304	3363.28	79.6187	3363.28	76.3215	3363.28	77.5232	3363.28	72.0262	3363.28	71.4148	3363.28	68.3267	3363.28	74.3374	3363.28	71.5118	3363.28	70.4019	3363.28	67.8355	3363.28	72.5973	3363.28	64.6409	3363.28	71.4217	3363.28	70.2533	3363.28	68.1108	3363.28	70.5998	3363.28	60.1698	3363.28	69.5066	3363.28	69.3604	3363.28	69.2483	3363.28	49.4658	3363.28	68.0348
3481.93	86.4675	3481.93	87.1084	3481.93	87.366	3481.93	86.4927	3481.93	86.7943	3481.93	86.3831	3481.93	85.5046	3481.93	84.671	3481.93	81.1038	3481.93	82.982	3481.93	81.1994	3481.93	81.0398	3481.93	82.3156	3481.93	78.595	3481.93	80.2123	3481.93	75.9111	3481.93	75.734	3481.93	72.6109	3481.93	69.2925	3481.93	72.7149	3481.93	67.132	3481.93	69.866	3481.93	68.9137	3481.93	69.3188	3481.93	72.0081	3481.93	63.1225	3481.93	70.9567	3481.93	68.8278	3481.93	67.6431	3481.93	69.003	3481.93	59.6267	3481.93	68.2841	3481.93	68.0213	3481.93	69.1408	3481.93	54.2122	3481.93	68.5238
3604.98	86.3962	3604.98	87.4311	3604.98	87.1856	3604.98	86.653	3604.98	87.0151	3604.98	85.704	3604.98	84.9261	3604.98	84.2001	3604.98	80.8909	3604.98	83.4385	3604.98	81.0509	3604.98	81.1293	3604.98	81.7105	3604.98	79.4927	3604.98	79.6161	3604.98	76.8294	3604.98	75.0103	3604.98	72.5749	3604.98	67.2022	3604.98	71.6422	3604.98	56.6837	3604.98	69.1585	3604.98	61.5394	3604.98	67.9571	3604.98	69.7799	3604.98	64.3421	3604.98	67.9952	3604.98	67.7967	3604.98	66.6849	3604.98	67.8009	3604.98	52.4382	3604.98	67.4711	3604.98	67.3141	3604.98	70.3497	3604.98	62.7156	3604.98	69.3287
3732.42	86.9867	3732.42	87.3651	3732.42	87.0687	3732.42	86.4539	3732.42	86.4329	3732.42	85.3232	3732.42	84.7018	3732.42	84.2481	3732.42	81.2595	3732.42	83.2514	3732.42	80.7575	3732.42	81.3365	3732.42	82.5056	3732.42	78.5964	3732.42	80.5349	3732.42	75.8876	3732.42	77.7976	3732.42	73.6093	3732.42	68.7805	3732.42	72.5275	3732.42	69.9296	3732.42	68.0699	3732.42	62.0452	3732.42	67.5007	3732.42	67.4795	3732.42	64.9923	3732.42	70.814	3732.42	67.5096	3732.42	66.4855	3732.42	67.8214	3732.42	57.5162	3732.42	66.7412	3732.42	66.6319	3732.42	70.2631	3732.42	63.1396	3732.42	68.747
3864.26	86.9436	3864.26	87.3353	3864.26	86.8257	3864.26	86.5081	3864.26	86.573	3864.26	84.2198	3864.26	84.262	3864.26	84.3723	3864.26	81.4391	3864.26	83.0723	3864.26	81.2692	3864.26	80.4296	3864.26	82.6475	3864.26	78.6197	3864.26	81.3486	3864.26	75.4803	3864.26	79.9458	3864.26	73.302	3864.26	72.9168	3864.26	70.3183	3864.26	72.8233	3864.26	68.7172	3864.26	67.0965	3864.26	62.2617	3864.26	70.7875	3864.26	63.6117	3864.26	71.2968	3864.26	67.5173	3864.26	64.872	3864.26	65.593	3864.26	61.4102	3864.26	65.8138	3864.26	65.7255	3864.26	69.3086	3864.26	61.3592	3864.26	65.5611
4000.49	87.1294	4000.49	86.9047	4000.49	86.4052	4000.49	85.5874	4000.49	85.8624	4000.49	84.5418	4000.49	84.4145	4000.49	84.1131	4000.49	81.0313	4000.49	82.2366	4000.49	80.4044	4000.49	80.243	4000.49	83.188	4000.49	77.5009	4000.49	80.8279	4000.49	74.6696	4000.49	78.3486	4000.49	71.0191	4000.49	69.4225	4000.49	68.768	4000.49	72.3439	4000.49	67.408	4000.49	67.8512	4000.49	64.5843	4000.49	70.1975	4000.49	61.8014	4000.49	71.1915	4000.49	65.2763	4000.49	62.5232	4000.49	64.0242	4000.49	60.5149	4000.49	66.6825	4000.49	65.3165	4000.49	69.5358	4000.49	62.2917	4000.49	67.3249
4141.11	87.5323	4141.11	87.5635	4141.11	87.0304	4141.11	85.933	4141.11	85.1651	4141.11	84.1043	4141.11	83.9927	4141.11	84.1653	4141.11	81.8989	4141.11	81.2903	4141.11	78.4047	4141.11	79.9794	4141.11	82.8165	4141.11	77.8655	4141.11	81.4736	4141.11	74.5981	4141.11	77.199	4141.11	72.5602	4141.11	71.2162	4141.11	70.8265	4141.11	71.2694	4141.11	65.8587	4141.11	66.7789	4141.11	62.9189	4141.11	69.1827	4141.11	62.7839	4141.11	67.6959	4141.11	66.4956	4141.11	65.2066	4141.11	64.3167	4141.11	60.9897	4141.11	64.4505	4141.11	65.8127	4141.11	69.5696	4141.11	61.2534	4141.11	68.5393
4287.6	87.5202	4287.6	87.4515	4287.6	87.1772	4287.6	85.5942	4287.6	85.2557	4287.6	85.1177	4287.6	83.8583	4287.6	83.7486	4287.6	82.6112	4287.6	81.9858	4287.6	76.759	4287.6	79.9596	4287.6	80.8443	4287.6	78.0887	4287.6	81.0923	4287.6	73.5046	4287.6	76.8095	4287.6	70.6683	4287.6	73.8064	4287.6	67.7163	4287.6	71.5596	4287.6	65.5279	4287.6	66.4179	4287.6	65.2241	4287.6	61.9526	4287.6	63.59	4287.6	68.8916	4287.6	62.416	4287.6	65.8189	4287.6	65.964	4287.6	64.8043	4287.6	62.2645	4287.6	63.3417	4287.6	68.809	4287.6	56.3994	4287.6	68.3486
4438.48	87.3052	4438.48	87.8096	4438.48	87.3619	4438.48	85.9727	4438.48	84.9425	4438.48	84.3478	4438.48	83.8541	4438.48	83.1227	4438.48	82.8026	4438.48	82.1331	4438.48	78.5684	4438.48	80.0097	4438.48	78.5244	4438.48	77.189	4438.48	79.9146	4438.48	75.142	4438.48	76.1629	4438.48	71.8195	4438.48	71.4653	4438.48	68.7355	4438.48	67.6304	4438.48	64.6289	4438.48	46.169	4438.48	62.3239	4438.48	55.9477	4438.48	58.345	4438.48	68.5617	4438.48	61.9725	4438.48	60.3625	4438.48	65.2118	4438.48	63.9322	4438.48	65.4545	4438.48	64.1708	4438.48	65.385	4438.48	56.1766	4438.48	64.309
4595.21	86.9857	4595.21	87.7568	4595.21	87.1325	4595.21	85.2397	4595.21	84.5195	4595.21	84.6345	4595.21	83.1127	4595.21	82.971	4595.21	82.3393	4595.21	81.2958	4595.21	77.4898	4595.21	79.3232	4595.21	78.0959	4595.21	77.3672	4595.21	77.735	4595.21	72.9505	4595.21	73.8579	4595.21	71.7065	4595.21	68.454	4595.21	68.418	4595.21	59.4237	4595.21	66.3256	4595.21	65.6546	4595.21	66.1202	4595.21	64.4294	4595.21	58.7946	4595.21	66.0664	4595.21	54.5354	4595.21	52.6024	4595.21	62.3591	4595.21	63.779	4595.21	63.6253	4595.21	64.1902	4595.21	66.2991	4595.21	58.8264	4595.21	64.2867
4756.35	86.6473	4756.35	87.8855	4756.35	87.0552	4756.35	85.4795	4756.35	84.5456	4756.35	84.3903	4756.35	83.0031	4756.35	82.8648	4756.35	82.4377	4756.35	80.989	4756.35	76.4344	4756.35	79.856	4756.35	77.9284	4756.35	76.9313	4756.35	77.0075	4756.35	73.3301	4756.35	73.6672	4756.35	70.2069	4756.35	69.1364	4756.35	64.8161	4756.35	59.9299	4756.35	65.6184	4756.35	68.272	4756.35	64.1695	4756.35	66.1078	4756.35	58.0883	4756.35	63.8832	4756.35	54.9851	4756.35	52.4856	4756.35	63.4709	4756.35	66.9451	4756.35	62.7989	4756.35	58.7039	4756.35	66.1395	4756.35	57.5812	4756.35	63.088
4924.8	86.6804	4924.8	87.8764	4924.8	86.8541	4924.8	85.636	4924.8	85.6177	4924.8	84.0144	4924.8	82.7863	4924.8	82.9538	4924.8	82.5992	4924.8	81.1635	4924.8	77.9069	4924.8	79.2402	4924.8	77.5938	4924.8	76.3819	4924.8	77.9223	4924.8	72.7808	4924.8	75.3096	4924.8	71.8068	4924.8	70.9999	4924.8	68.0845	4924.8	68.5426	4924.8	64.6642	4924.8	66.5294	4924.8	64.3913	4924.8	63.1791	4924.8	60.55	4924.8	57.3773	4924.8	49.1239	4924.8	50.372	4924.8	60.8904	4924.8	65.6759	4924.8	62.3952	4924.8	61.5302	4924.8	63.9559	4924.8	62.9059	4924.8	62.6931
5097.66	87.1169	5097.66	87.3368	5097.66	86.3756	5097.66	85.6794	5097.66	85.8404	5097.66	84.5646	5097.66	83.2728	5097.66	82.6842	5097.66	82.2419	5097.66	81.032	5097.66	77.2642	5097.66	79.0049	5097.66	77.2203	5097.66	76.481	5097.66	77.8467	5097.66	73.6451	5097.66	76.3762	5097.66	70.4369	5097.66	73.5578	5097.66	67.0801	5097.66	69.9601	5097.66	67.1393	5097.66	65.8316	5097.66	62.661	5097.66	62.9862	5097.66	64.4407	5097.66	61.4873	5097.66	49.3148	5097.66	54.8165	5097.66	60.5395	5097.66	63.3949	5097.66	62.8009	5097.66	62.5681	5097.66	62.8611	5097.66	59.6607	5097.66	60.3091
5277.83	86.7187	5277.83	87.0907	5277.83	86.1649	5277.83	86.0111	5277.83	85.909	5277.83	84.5284	5277.83	83.2979	5277.83	82.8029	5277.83	82.3857	5277.83	80.6125	5277.83	77.309	5277.83	78.9397	5277.83	77.9457	5277.83	76.0631	5277.83	77.7585	5277.83	71.6379	5277.83	75.4031	5277.83	69.2992	5277.83	71.0052	5277.83	65.4761	5277.83	62.9462	5277.83	63.4485	5277.83	56.9225	5277.83	61.0618	5277.83	64.3624	5277.83	62.2003	5277.83	59.5084	5277.83	45.7035	5277.83	53.2898	5277.83	59.4892	5277.83	63.3359	5277.83	64.035	5277.83	58.925	5277.83	61.667	5277.83	52.7326	5277.83	59.0642
5463.87	87.1674	5463.87	87.3944	5463.87	86.3491	5463.87	86.1056	5463.87	86.1617	5463.87	84.7826	5463.87	82.9635	5463.87	83.0998	5463.87	82.6267	5463.87	80.1999	5463.87	76.5595	5463.87	78.48	5463.87	76.1851	5463.87	75.8078	5463.87	76.5361	5463.87	71.253	5463.87	74.6227	5463.87	69.0355	5463.87	69.1587	5463.87	64.9917	5463.87	58.8871	5463.87	62.7641	5463.87	60.4602	5463.87	57.1536	5463.87	63.5791	5463.87	62.9387	5463.87	57.7736	5463.87	50.8106	5463.87	59.0075	5463.87	50.8932	5463.87	63.6475	5463.87	65.8331	5463.87	59.2645	5463.87	55.6525	5463.87	59.4498	5463.87	60.5075
5657.23	86.8283	5657.23	87.0313	5657.23	86.1751	5657.23	86.0738	5657.23	86.2091	5657.23	85.1586	5657.23	83.2815	5657.23	82.4652	5657.23	82.5899	5657.23	80.4728	5657.23	77.642	5657.23	78.7031	5657.23	76.6103	5657.23	75.8045	5657.23	78.5464	5657.23	72.1741	5657.23	74.0838	5657.23	69.6129	5657.23	70.3584	5657.23	64.9611	5657.23	67.694	5657.23	63.7334	5657.23	51.738	5657.23	57.8023	5657.23	62.2834	5657.23	62.3575	5657.23	63.7812	5657.23	48.4985	5657.23	59.617	5657.23	51.1028	5657.23	62.392	5657.23	63.5509	5657.23	61.7581	5657.23	60.809	5657.23	58.9628	5657.23	53.6916
5856.45	86.3155	5856.45	86.6972	5856.45	86.529	5856.45	85.9084	5856.45	85.6341	5856.45	84.8282	5856.45	83.3184	5856.45	82.0767	5856.45	82.1532	5856.45	80.4554	5856.45	78.6469	5856.45	78.637	5856.45	75.1747	5856.45	74.8953	5856.45	77.3548	5856.45	70.26	5856.45	73.9419	5856.45	66.631	5856.45	68.8219	5856.45	64.1838	5856.45	62.3589	5856.45	61.3638	5856.45	53.6756	5856.45	58.1081	5856.45	47.434	5856.45	61.3916	5856.45	62.357	5856.45	42.2762	5856.45	57.6629	5856.45	52.9179	5856.45	58.3885	5856.45	62.0746	5856.45	59.5793	5856.45	60.2392	5856.45	57.3776	5856.45	58.2694
6062.99	86.0413	6062.99	86.3347	6062.99	86.0006	6062.99	85.828	6062.99	85.3158	6062.99	84.3818	6062.99	83.4492	6062.99	82.3237	6062.99	82.1134	6062.99	80.3232	6062.99	78.9831	6062.99	78.2069	6062.99	73.6352	6062.99	73.9211	6062.99	76.4489	6062.99	71.2041	6062.99	72.1167	6062.99	66.762	6062.99	67.0734	6062.99	65.0154	6062.99	62.6023	6062.99	61.1331	6062.99	59.231	6062.99	61.1029	6062.99	51.6549	6062.99	62.1125	6062.99	54.8029	6062.99	50.9626	6062.99	50.7182	6062.99	47.7594	6062.99	60.1588	6062.99	59.3005	6062.99	57.3072	6062.99	60.6553	6062.99	59.9932	6062.99	58.9067
6276.86	85.3431	6276.86	85.8251	6276.86	85.8408	6276.86	85.6986	6276.86	84.9393	6276.86	83.8925	6276.86	83.5214	6276.86	82.5456	6276.86	81.9408	6276.86	80.1843	6276.86	79.6431	6276.86	77.9348	6276.86	71.3286	6276.86	73.4061	6276.86	75.3193	6276.86	71.992	6276.86	71.5422	6276.86	66.9474	6276.86	64.7825	6276.86	66.2251	6276.86	65.7994	6276.86	61.4875	6276.86	56.991	6276.86	62.2176	6276.86	52.303	6276.86	62.0938	6276.86	53.0542	6276.86	52.4171	6276.86	57.1237	6276.86	52.057	6276.86	61.6888	6276.86	57.1212	6276.86	57.8302	6276.86	62.7549	6276.86	60.8605	6276.86	57.5507
6498.05	85.1062	6498.05	85.4321	6498.05	85.6522	6498.05	85.1649	6498.05	84.3941	6498.05	83.6354	6498.05	83.6442	6498.05	82.2418	6498.05	81.5313	6498.05	80.1286	6498.05	79.6164	6498.05	77.7187	6498.05	70.8058	6498.05	73.4696	6498.05	73.9245	6498.05	71.1382	6498.05	70.3332	6498.05	65.4015	6498.05	69.2006	6498.05	65.3061	6498.05	60.6916	6498.05	59.6616	6498.05	59.4882	6498.05	62.0382	6498.05	50.3577	6498.05	63.1818	6498.05	52.4028	6498.05	54.186	6498.05	57.0727	6498.05	53.5545	6498.05	63.7323	6498.05	57.9507	6498.05	55.5923	6498.05	62.4572	6498.05	63.1718	6498.05	55.291
6726.56	85.0145	6726.56	85.2572	6726.56	85.1644	6726.56	84.6501	6726.56	84.1647	6726.56	83.6331	6726.56	83.657	6726.56	81.5572	6726.56	81.2371	6726.56	80.1281	6726.56	79.4099	6726.56	77.3156	6726.56	69.1297	6726.56	72.8728	6726.56	72.9821	6726.56	69.8279	6726.56	72.0966	6726.56	66.8232	6726.56	70.6975	6726.56	63.7447	6726.56	51.314	6726.56	60.6642	6726.56	49.975	6726.56	62.3184	6726.56	55.708	6726.56	63.8529	6726.56	51.4343	6726.56	54.5643	6726.56	59.6492	6726.56	51.7658	6726.56	61.992	6726.56	55.5565	6726.56	49.3354	6726.56	65.5922	6726.56	63.8127	6726.56	62.1515
6963.87	84.7011	6963.87	85.2282	6963.87	84.9329	6963.87	84.715	6963.87	84.1373	6963.87	83.2297	6963.87	83.7767	6963.87	81.7156	6963.87	80.4335	6963.87	79.8905	6963.87	79.4103	6963.87	78.0246	6963.87	69.3307	6963.87	73.8295	6963.87	73.9341	6963.87	71.0519	6963.87	74.1159	6963.87	66.2956	6963.87	70.3312	6963.87	64.7229	6963.87	60.5534	6963.87	61.2663	6963.87	48.3996	6963.87	63.7083	6963.87	51.4779	6963.87	62.6943	6963.87	58.9029	6963.87	52.1067	6963.87	59.2716	6963.87	46.6813	6963.87	59.4372	6963.87	44.4076	6963.87	41.3381	6963.87	63.9327	6963.87	61.8692	6963.87	60.7788
7209.96	84.0271	7209.96	84.9661	7209.96	84.8488	7209.96	84.762	7209.96	83.9125	7209.96	82.3667	7209.96	83.1688	7209.96	81.198	7209.96	79.704	7209.96	79.2917	7209.96	79.8394	7209.96	77.7855	7209.96	72.6367	7209.96	74.0496	7209.96	75.3755	7209.96	71.1159	7209.96	74.262	7209.96	66.978	7209.96	68.8189	7209.96	63.0824	7209.96	60.9939	7209.96	60.3564	7209.96	53.0793	7209.96	62.9427	7209.96	50.9236	7209.96	61.5399	7209.96	54.3663	7209.96	53.7728	7209.96	58.6678	7209.96	40.5556	7209.96	56.7676	7209.96	42.8164	7209.96	44.9594	7209.96	63.8574	7209.96	58.0997	7209.96	59.7305
7464.84	83.6767	7464.84	84.5882	7464.84	84.6317	7464.84	84.4735	7464.84	83.906	7464.84	82.6199	7464.84	82.3815	7464.84	80.0694	7464.84	79.6456	7464.84	78.6717	7464.84	79.8991	7464.84	77.315	7464.84	71.8811	7464.84	72.5598	7464.84	74.4161	7464.84	69.241	7464.84	69.2569	7464.84	66.7962	7464.84	68.6766	7464.84	61.7611	7464.84	62.9332	7464.84	59.4492	7464.84	50.2359	7464.84	62.4021	7464.84	45.7699	7464.84	60.1317	7464.84	50.862	7464.84	56.8441	7464.84	56.41	7464.84	29.7269	7464.84	56.0967	7464.84	44.3289	7464.84	47.9572	7464.84	63.0522	7464.84	58.5054	7464.84	57.9009
7727.05	83.3477	7727.05	83.9421	7727.05	84.3921	7727.05	83.9522	7727.05	83.5779	7727.05	82.6788	7727.05	82.0733	7727.05	79.7062	7727.05	80.2564	7727.05	78.4533	7727.05	79.4508	7727.05	76.5497	7727.05	71.0643	7727.05	72.0624	7727.05	73.1198	7727.05	69.8035	7727.05	64.102	7727.05	65.9608	7727.05	68.333	7727.05	62.4208	7727.05	65.0067	7727.05	59.3923	7727.05	54.4014	7727.05	61.7288	7727.05	55.424	7727.05	59.7565	7727.05	51.3428	7727.05	57.7923	7727.05	55.1951	7727.05	45.2408	7727.05	54.5696	7727.05	44.2686	7727.05	42.4504	7727.05	62.4364	7727.05	55.3577	7727.05	57.3631
7999.51	83.1305	7999.51	82.7841	7999.51	83.7265	7999.51	83.4847	7999.51	82.99	7999.51	81.7858	7999.51	81.9926	7999.51	79.7662	7999.51	80.4011	7999.51	78.3053	7999.51	79.4474	7999.51	75.9885	7999.51	72.4006	7999.51	72.4817	7999.51	72.9283	7999.51	69.8466	7999.51	69.4658	7999.51	64.3814	7999.51	67.8427	7999.51	61.3779	7999.51	64.0691	7999.51	59.8166	7999.51	56.3561	7999.51	59.3658	7999.51	60.1575	7999.51	58.1805	7999.51	50.0892	7999.51	58.3381	7999.51	50.0862	7999.51	46.719	7999.51	49.1131	7999.51	46.118	7999.51	51.8664	7999.51	60.9281	7999.51	56.2542	7999.51	56.5813
8282.23	82.8455	8282.23	81.0619	8282.23	82.5126	8282.23	82.6179	8282.23	81.9481	8282.23	81.2382	8282.23	82.0079	8282.23	79.3921	8282.23	80.4135	8282.23	78.2637	8282.23	79.5873	8282.23	76.2536	8282.23	74.0369	8282.23	72.4368	8282.23	71.3748	8282.23	69.2746	8282.23	70.8634	8282.23	65.5272	8282.23	67.0542	8282.23	61.6401	8282.23	61.138	8282.23	59.6777	8282.23	56.3296	8282.23	59.9576	8282.23	56.736	8282.23	57.4016	8282.23	55.7085	8282.23	59.4582	8282.23	52.7585	8282.23	49.745	8282.23	56.8299	8282.23	47.4671	8282.23	55.3473	8282.23	60.7145	8282.23	52.0566	8282.23	56.0098
8573.73	81.2989	8573.73	78.9288	8573.73	80.572	8573.73	80.6605	8573.73	80.6478	8573.73	80.4714	8573.73	81.4493	8573.73	79.5757	8573.73	80.2832	8573.73	78.1781	8573.73	79.4054	8573.73	76.9584	8573.73	75.9797	8573.73	73.132	8573.73	70.4582	8573.73	70.1111	8573.73	71.3362	8573.73	65.745	8573.73	68.0071	8573.73	60.608	8573.73	51.7995	8573.73	59.8164	8573.73	45.1074	8573.73	60.0376	8573.73	58.0682	8573.73	56.1094	8573.73	52.1305	8573.73	59.5791	8573.73	47.1102	8573.73	51.7141	8573.73	44.0002	8573.73	50.6884	8573.73	54.7101	8573.73	60.2013	8573.73	54.3122	8573.73	56.1993
8876.95	77.8147	8876.95	74.4331	8876.95	76.7915	8876.95	78.2831	8876.95	78.5141	8876.95	79.6816	8876.95	80.8466	8876.95	80.1733	8876.95	79.92	8876.95	79.3549	8876.95	79.8665	8876.95	77.3477	8876.95	77.7206	8876.95	73.9274	8876.95	71.3723	8876.95	68.8363	8876.95	71.0518	8876.95	63.8115	8876.95	66.7451	8876.95	59.9735	8876.95	57.0898	8876.95	59.0787	8876.95	49.3474	8876.95	59.3247	8876.95	57.791	8876.95	57.3759	8876.95	50.1695	8876.95	59.6287	8876.95	46.0172	8876.95	52.0853	8876.95	57.4137	8876.95	46.53	8876.95	58.8103	8876.95	60.1526	8876.95	54.5051	8876.95	53.9638
9188.96	76.2835	9188.96	77.7576	9188.96	76.1555	9188.96	78.1696	9188.96	78.7504	9188.96	81.85	9188.96	80.5044	9188.96	80.993	9188.96	80.2446	9188.96	80.6419	9188.96	80.1034	9188.96	78.4679	9188.96	77.7708	9188.96	73.4054	9188.96	71.2028	9188.96	70.1675	9188.96	70.3162	9188.96	64.6343	9188.96	65.1831	9188.96	61.8277	9188.96	46.5931	9188.96	58.0581	9188.96	50.3572	9188.96	59.5687	9188.96	55.1591	9188.96	57.0559	9188.96	52.7044	9188.96	59.7259	9188.96	51.0244	9188.96	54.5779	9188.96	57.4547	9188.96	45.8917	9188.96	56.2938	9188.96	60.5272	9188.96	52.2935	9188.96	55.2837
9514.16	82.458	9514.16	83.9486	9514.16	82.8236	9514.16	82.6543	9514.16	82.0783	9514.16	83.419	9514.16	81.5125	9514.16	82.096	9514.16	80.8654	9514.16	80.0601	9514.16	79.0622	9514.16	77.6877	9514.16	76.1208	9514.16	72.635	9514.16	70.3269	9514.16	67.5262	9514.16	69.792	9514.16	63.2093	9514.16	65.7378	9514.16	59.0541	9514.16	47.1674	9514.16	57.7411	9514.16	42.885	9514.16	56.0956	9514.16	49.6821	9514.16	56.1692	9514.16	49.3205	9514.16	58.5403	9514.16	52.3555	9514.16	53.6141	9514.16	54.6894	9514.16	42.9972	9514.16	54.6966	9514.16	59.8726	9514.16	53.5555	9514.16	52.5412
9849.61	85.5979	9849.61	86.1203	9849.61	85.4665	9849.61	84.8184	9849.61	83.8289	9849.61	84.19	9849.61	82.3224	9849.61	81.2929	9849.61	80.299	9849.61	79.1923	9849.61	77.8708	9849.61	75.7139	9849.61	74.3723	9849.61	70.3948	9849.61	69.7689	9849.61	66.7995	9849.61	67.7018	9849.61	62.4984	9849.61	63.5978	9849.61	58.2919	9849.61	52.5862	9849.61	55.676	9849.61	51.157	9849.61	54.552	9849.61	47.6983	9849.61	54.628	9849.61	51.4828	9849.61	55.9097	9849.61	52.587	9849.61	51.8004	9849.61	51.6086	9849.61	36.3076	9849.61	50.1074	9849.61	57.6111	9849.61	46.6843	9849.61	45.0362
10196.8	86.7341	10196.8	87.0199	10196.8	86.4731	10196.8	85.6056	10196.8	84.8817	10196.8	84.1894	10196.8	82.6163	10196.8	80.651	10196.8	79.7589	10196.8	77.142	10196.8	76.282	10196.8	73.4285	10196.8	72.9218	10196.8	68.6872	10196.8	65.924	10196.8	63.4511	10196.8	65.6368	10196.8	60.1926	10196.8	63.1848	10196.8	54.3595	10196.8	55.0035	10196.8	52.7193	10196.8	53.559	10196.8	51.3384	10196.8	46.0111	10196.8	51.9097	10196.8	48.8749	10196.8	53.3983	10196.8	51.4179	10196.8	47.944	10196.8	50.5921	10196.8	34.7565	10196.8	48.8863	10196.8	55.4144	10196.8	49.1211	10196.8	43.5282
10555.7	87.2021	10555.7	87.2128	10555.7	87.001	10555.7	85.8698	10555.7	85.2651	10555.7	83.825	10555.7	82.9293	10555.7	79.9137	10555.7	79.6115	10555.7	75.6898	10555.7	74.8601	10555.7	70.8683	10555.7	72.0505	10555.7	66.322	10555.7	61.911	10555.7	59.6526	10555.7	62.3692	10555.7	55.398	10555.7	57.0133	10555.7	49.3878	10555.7	52.2303	10555.7	50.827	10555.7	49.9452	10555.7	50.0309	10555.7	47.4382	10555.7	49.7366	10555.7	52.8019	10555.7	51.1873	10555.7	51.0023	10555.7	45.1125	10555.7	51.2105	10555.7	43.3672	10555.7	49.6141	10555.7	53.1245	10555.7	50.6079	10555.7	47.1681
10927.7	87.3127	10927.7	87.2928	10927.7	87.1469	10927.7	86.1502	10927.7	85.4579	10927.7	83.876	10927.7	83.1764	10927.7	79.5151	10927.7	79.5865	10927.7	75.2653	10927.7	74.3638	10927.7	70.7575	10927.7	70.9075	10927.7	64.4431	10927.7	61.0052	10927.7	57.5511	10927.7	64.4772	10927.7	55.3152	10927.7	51.3836	10927.7	50.6039	10927.7	41.9846	10927.7	47.7636	10927.7	52.1539	10927.7	47.7346	10927.7	44.468	10927.7	44.8636	10927.7	52.5798	10927.7	50.6581	10927.7	52.4088	10927.7	43.4373	10927.7	52.1521	10927.7	42.543	10927.7	46.4762	10927.7	52.6503	10927.7	50.4048	10927.7	41.459
11313	87.1494	11313	87.1857	11313	86.8965	11313	86.1785	11313	85.3816	11313	84.1542	11313	83.0406	11313	80.5153	11313	79.6561	11313	77.3029	11313	75.0782	11313	73.1926	11313	70.5229	11313	67.8385	11313	62.4543	11313	63.5822	11313	64.4708	11313	59.4294	11313	57.8633	11313	55.7348	11313	39.6197	11313	52.8172	11313	47.6048	11313	50.5794	11313	43.0542	11313	51.6959	11313	48.9113	11313	54.5284	11313	50.9188	11313	45.9468	11313	46.4815	11313	46.2451	11313	51.5671	11313	51.9984	11313	53.537	11313	35.7497
11712.9	87.1103	11712.9	87.0495	11712.9	86.5542	11712.9	86.4267	11712.9	85.0232	11712.9	84.7199	11712.9	82.6681	11712.9	81.0023	11712.9	79.3043	11712.9	78.6504	11712.9	75.9329	11712.9	74.1474	11712.9	70.2734	11712.9	70.3825	11712.9	59.6022	11712.9	65.1453	11712.9	60.268	11712.9	61.563	11712.9	53.291	11712.9	54.6188	11712.9	52.4034	11712.9	52.4012	11712.9	49.6974	11712.9	52.5096	11712.9	45.877	11712.9	52.5519	11712.9	52.6563	11712.9	56.0007	11712.9	50.5211	11712.9	45.791	11712.9	50.4363	11712.9	46.5344	11712.9	51.7374	11712.9	52.8736	11712.9	53.6412	11712.9	39.4632
12126	86.8926	12126	86.7474	12126	86.1406	12126	86.1148	12126	84.6196	12126	84.5965	12126	82.0809	12126	80.9107	12126	78.9245	12126	78.7423	12126	75.2731	12126	74.0585	12126	70.4304	12126	71.3828	12126	59.3716	12126	65.102	12126	62.001	12126	60.8099	12126	52.6518	12126	55.1766	12126	55.8126	12126	51.5107	12126	55.2309	12126	50.8295	12126	36.7038	12126	52.0714	12126	52.0489	12126	55.8716	12126	47.4921	12126	44.3841	12126	52.272	12126	42.6379	12126	51.2198	12126	53.4613	12126	51.6989	12126	48.8709
12553.7	86.6308	12553.7	86.5302	12553.7	85.9637	12553.7	85.8251	12553.7	84.5311	12553.7	84.6025	12553.7	81.8989	12553.7	80.9309	12553.7	79.1873	12553.7	78.2088	12553.7	74.7333	12553.7	73.6626	12553.7	71.4758	12553.7	70.1825	12553.7	61.2929	12553.7	63.0448	12553.7	60.2552	12553.7	60.5564	12553.7	52.2821	12553.7	53.1108	12553.7	56.1027	12553.7	50.1341	12553.7	56.058	12553.7	51.9867	12553.7	6.03614	12553.7	51.2744	12553.7	47.2193	12553.7	54.4132	12553.7	52.3334	12553.7	45.0854	12553.7	51.6539	12553.7	45.1225	12553.7	52.9233	12553.7	54.3585	12553.7	51.8787	12553.7	50.5217
12996.1	86.4148	12996.1	86.4763	12996.1	85.6688	12996.1	85.7147	12996.1	84.522	12996.1	84.5737	12996.1	81.8347	12996.1	81.3255	12996.1	79.7591	12996.1	78.1246	12996.1	75.1943	12996.1	74.1106	12996.1	72.1643	12996.1	70.0428	12996.1	62.0533	12996.1	64.8933	12996.1	57.9213	12996.1	59.4856	12996.1	53.8369	12996.1	55.508	12996.1	54.8071	12996.1	49.6206	12996.1	55.0178	12996.1	50.6755	12996.1	43.1461	12996.1	51.6661	12996.1	46.1676	12996.1	54.7028	12996.1	49.7012	12996.1	47.3334	12996.1	52.3157	12996.1	48.0609	12996.1	50.2421	12996.1	52.3174	12996.1	41.8521	12996.1	43.6309
13454.6	85.9932	13454.6	86.3774	13454.6	85.2469	13454.6	85.5442	13454.6	83.7498	13454.6	84.2674	13454.6	81.4456	13454.6	80.9676	13454.6	78.6523	13454.6	77.8745	13454.6	74.2097	13454.6	73.2193	13454.6	70.4422	13454.6	68.3879	13454.6	59.9131	13454.6	64.5198	13454.6	54.5033	13454.6	57.7775	13454.6	55.1576	13454.6	52.9023	13454.6	54.245	13454.6	49.5031	13454.6	47.6769	13454.6	50.0361	13454.6	45.2541	13454.6	51.8363	13454.6	42.4546	13454.6	54.5758	13454.6	47.2718	13454.6	49.3126	13454.6	50.0866	13454.6	49.5962	13454.6	48.8124	13454.6	52.1463	13454.6	43.7963	13454.6	42.9486
13929.2	86.2215	13929.2	86.5569	13929.2	85.38	13929.2	85.8319	13929.2	83.4761	13929.2	84.5717	13929.2	81.2695	13929.2	80.9713	13929.2	78.0235	13929.2	78.1976	13929.2	73.7776	13929.2	72.7971	13929.2	68.9885	13929.2	68.1521	13929.2	59.444	13929.2	63.963	13929.2	54.502	13929.2	56.8989	13929.2	52.0168	13929.2	51.9523	13929.2	51.5853	13929.2	47.6471	13929.2	52.9575	13929.2	49.1125	13929.2	41.0621	13929.2	52.0761	13929.2	36.2955	13929.2	53.419	13929.2	42.5194	13929.2	51.2956	13929.2	46.8356	13929.2	48.4618	13929.2	51.334	13929.2	51.7952	13929.2	47.8709	13929.2	44.6564
14419.9	87.2607	14419.9	87.5047	14419.9	86.3771	14419.9	86.6007	14419.9	84.1971	14419.9	85.1802	14419.9	81.6398	14419.9	81.3888	14419.9	77.9746	14419.9	78.5234	14419.9	73.3264	14419.9	73.1334	14419.9	67.1274	14419.9	68.1792	14419.9	60.7752	14419.9	62.9969	14419.9	52.4408	14419.9	57.2884	14419.9	41.3922	14419.9	51.1924	14419.9	50.2813	14419.9	48.5957	14419.9	54.5957	14419.9	48.9645	14419.9	46.5288	14419.9	52.3008	14419.9	44.6888	14419.9	51.3958	14419.9	31.9781	14419.9	49.6298	14419.9	39.1792	14419.9	46.9241	14419.9	50.2787	14419.9	49.9106	14419.9	41.2779	14419.9	47.1379
14928.2	88.228	14928.2	88.3608	14928.2	87.3643	14928.2	87.2248	14928.2	84.9908	14928.2	85.4821	14928.2	81.9331	14928.2	81.5017	14928.2	77.713	14928.2	78.3848	14928.2	72.4009	14928.2	73.1376	14928.2	65.9897	14928.2	68.0636	14928.2	60.2205	14928.2	62.5044	14928.2	38.8267	14928.2	57.5778	14928.2	44.9782	14928.2	52.9564	14928.2	49.0927	14928.2	50.33	14928.2	55.7649	14928.2	47.628	14928.2	46.3693	14928.2	50.8803	14928.2	42.6871	14928.2	50.2293	14928.2	41.5497	14928.2	49.6539	14928.2	38.2317	14928.2	40.6568	14928.2	49.0746	14928.2	45.9237	14928.2	44.9109	14928.2	38.4246
15455.6	88.4652	15455.6	88.5268	15455.6	87.7119	15455.6	87.3913	15455.6	85.526	15455.6	85.4772	15455.6	82.2925	15455.6	81.7168	15455.6	78.3623	15455.6	78.7572	15455.6	72.9458	15455.6	73.3783	15455.6	67.8658	15455.6	68.9545	15455.6	60.4421	15455.6	63.5507	15455.6	52.9446	15455.6	57.2793	15455.6	48.0661	15455.6	53.5336	15455.6	48.5485	15455.6	50.9704	15455.6	54.5619	15455.6	46.9755	15455.6	40.8052	15455.6	50.1942	15455.6	32.2145	15455.6	51.918	15455.6	41.4083	15455.6	49.1975	15455.6	30.3457	15455.6	47.7452	15455.6	45.206	15455.6	44.6299	15455.6	44.8209	15455.6	37.9012
16000.5	87.527	16000.5	87.6635	16000.5	86.8651	16000.5	86.5653	16000.5	85.0489	16000.5	84.8431	16000.5	81.812	16000.5	80.5892	16000.5	77.9752	16000.5	77.5023	16000.5	73.0761	16000.5	71.6008	16000.5	68.9035	16000.5	66.8561	16000.5	61.3897	16000.5	61.4847	16000.5	54.2753	16000.5	54.0475	16000.5	47.6338	16000.5	50.0459	16000.5	40.7987	16000.5	48.813	16000.5	50.8056	16000.5	44.4496	16000.5	33.6329	16000.5	46.0519	16000.5	36.4209	16000.5	51.1141	16000.5	39.9293	16000.5	49.9847	16000.5	40.1674	16000.5	52.1758	16000.5	32.2527	16000.5	52.2514	16000.5	40.2664	16000.5	48.1098
16564.5	85.2705	16564.5	85.2482	16564.5	84.7482	16564.5	84.0695	16564.5	83.2703	16564.5	82.5229	16564.5	80.5083	16564.5	77.7475	16564.5	76.5389	16564.5	73.7829	16564.5	71.4716	16564.5	67.1842	16564.5	65.3061	16564.5	60.7112	16564.5	62.5753	16564.5	57.399	16564.5	49.9911	16564.5	46.4828	16564.5	37.1676	16564.5	45.6841	16564.5	46.7734	16564.5	42.194	16564.5	44.3606	16564.5	39.1366	16564.5	36.632	16564.5	39.0983	16564.5	41.7651	16564.5	47.5827	16564.5	27.5219	16564.5	47.3036	16564.5	42.6246	16564.5	53.6313	16564.5	38.4067	16564.5	53.7044	16564.5	42.1117	16564.5	48.274
17148.9	88.0208	17148.9	87.5076	17148.9	86.8409	17148.9	85.2198	17148.9	84.2583	17148.9	82.4384	17148.9	80.5989	17148.9	76.9327	17148.9	76.4042	17148.9	72.8967	17148.9	72.2417	17148.9	64.4885	17148.9	65.6875	17148.9	60.0566	17148.9	62.4011	17148.9	55.1534	17148.9	48.0804	17148.9	37.3337	17148.9	43.6917	17148.9	45.4498	17148.9	44.421	17148.9	44.1148	17148.9	42.1889	17148.9	39.0335	17148.9	33.3644	17148.9	33.3566	17148.9	30.8578	17148.9	42.8112	17148.9	42.0681	17148.9	37.4896	17148.9	31.4844	17148.9	47.5535	17148.9	36.6884	17148.9	47.5598	17148.9	42.0832	17148.9	47.3264
17752.4	89.1774	17752.4	88.6804	17752.4	87.9229	17752.4	85.9215	17752.4	84.9531	17752.4	81.7002	17752.4	79.7593	17752.4	73.6482	17752.4	74.005	17752.4	67.4911	17752.4	67.6374	17752.4	51.3173	17752.4	60.471	17752.4	47.9192	17752.4	51.741	17752.4	42.0802	17752.4	37.39	17752.4	39.3267	17752.4	34.0644	17752.4	31.0362	17752.4	53.3541	17752.4	35.0101	17752.4	52.0971	17752.4	36.6023	17752.4	38.4752	17752.4	26.7015	17752.4	30.2547	17752.4	27.6967	17752.4	33.593	17752.4	31.0202	17752.4	35.8118	17752.4	30.3543	17752.4	40.361	17752.4	44.1854	17752.4	39.7462	17752.4	42.9253
18379.4	87.9238	18379.4	87.3888	18379.4	86.6842	18379.4	84.7047	18379.4	83.722	18379.4	79.9816	18379.4	77.8636	18379.4	69.1295	18379.4	69.0397	18379.4	57.049	18379.4	57.1278	18379.4	56.8572	18379.4	45.2472	18379.4	50.2736	18379.4	51.7054	18379.4	46.6661	18379.4	45.8212	18379.4	43.8567	18379.4	40.625	18379.4	37.0291	18379.4	54.7261	18379.4	24.5835	18379.4	55.6103	18379.4	32.0285	18379.4	36.9894	18379.4	25.6717	18379.4	35.931	18379.4	38.2348	18379.4	38.8604	18379.4	26.114	18379.4	41.5559	18379.4	41.587	18379.4	37.982	18379.4	40.9291	18379.4	44.4245	18379.4	42.0067
19026.9	86.972	19026.9	86.4276	19026.9	85.3718	19026.9	83.3511	19026.9	81.8878	19026.9	78.4273	19026.9	75.2035	19026.9	66.0897	19026.9	62.9246	19026.9	56.2428	19026.9	52.2611	19026.9	58.1016	19026.9	58.9245	19026.9	57.6618	19026.9	58.6368	19026.9	51.615	19026.9	48.8808	19026.9	45.8353	19026.9	39.5959	19026.9	39.1439	19026.9	54.2278	19026.9	31.8883	19026.9	54.4817	19026.9	29.2223	19026.9	38.1621	19026.9	23.8223	19026.9	35.9121	19026.9	40.9883	19026.9	37.3647	19026.9	14.4408	19026.9	36.7175	19026.9	44.1615	19026.9	31.4957	19026.9	42.0421	19026.9	46.2168	19026.9	41.4775
19697.8	86.7871	19697.8	86.1953	19697.8	84.8893	19697.8	82.5525	19697.8	80.8508	19697.8	76.7554	19697.8	73.5104	19697.8	62.4095	19697.8	61.6762	19697.8	63.2133	19697.8	62.3393	19697.8	63.7912	19697.8	63.2614	19697.8	60.229	19697.8	59.5445	19697.8	52.7133	19697.8	50.8722	19697.8	46.6012	19697.8	38.0943	19697.8	40.5373	19697.8	53.4019	19697.8	34.5489	19697.8	55.6237	19697.8	29.5096	19697.8	38.4725	19697.8	26.3372	19697.8	35.7327	19697.8	44.0873	19697.8	35.4587	19697.8	14.0422	19697.8	41.196	19697.8	47.8041	19697.8	40.665	19697.8	46.3	19697.8	34.3004	19697.8	39.1046
19999.5	86.6199	19999.5	86.2368	19999.5	84.548	19999.5	82.383	19999.5	80.5025	19999.5	76.0844	19999.5	73.5915	19999.5	63.3257	19999.5	63.0158	19999.5	65.9805	19999.5	64.2959	19999.5	64.4277	19999.5	65.9426	19999.5	61.5378	19999.5	60.1051	19999.5	53.665	19999.5	56.5085	19999.5	46.0501	19999.5	47.9404	19999.5	43.7559	19999.5	52.3793	19999.5	35.0871	19999.5	57.1347	19999.5	40.6435	19999.5	50.1991	19999.5	41.9362	19999.5	44.8798	19999.5	53.6207	19999.5	50.8081	19999.5	38.6058	19999.5	50.185	19999.5	49.8482	19999.5	46.8599	19999.5	48.0302	19999.5	44.8163	19999.5	49.2845
