"SPL Vertical"
"On-Axis"		"10°"		"-10°"		"20°"		"-20°"		"30°"		"-30°"		"40°"		"-40°"		"50°"		"-50°"		"60°"		"-60°"		"70°"		"-70°"		"80°"		"-80°"		"90°"		"-90°"		"100°"		"-100°"		"110°"		"-110°"		"120°"		"-120°"		"130°"		"-130°"		"140°"		"-140°"		"150°"		"-150°"		"160°"		"-160°"		"170°"		"-170°"		"180°"
"Frequency / Hz"	"Sound Pressure Level / dB (re 20 µPa/V)  [2.83  V @ 1. m]"	"Frequency / Hz"	"Sound Pressure Level / dB (re 20 µPa/V)  [2.83  V @ 1. m]"	"Frequency / Hz"	"Sound Pressure Level / dB (re 20 µPa/V)  [2.83  V @ 1. m]"	"Frequency / Hz"	"Sound Pressure Level / dB (re 20 µPa/V)  [2.83  V @ 1. m]"	"Frequency / Hz"	"Sound Pressure Level / dB (re 20 µPa/V)  [2.83  V @ 1. m]"	"Frequency / Hz"	"Sound Pressure Level / dB (re 20 µPa/V)  [2.83  V @ 1. m]"	"Frequency / Hz"	"Sound Pressure Level / dB (re 20 µPa/V)  [2.83  V @ 1. m]"	"Frequency / Hz"	"Sound Pressure Level / dB (re 20 µPa/V)  [2.83  V @ 1. m]"	"Frequency / Hz"	"Sound Pressure Level / dB (re 20 µPa/V)  [2.83  V @ 1. m]"	"Frequency / Hz"	"Sound Pressure Level / dB (re 20 µPa/V)  [2.83  V @ 1. m]"	"Frequency / Hz"	"Sound Pressure Level / dB (re 20 µPa/V)  [2.83  V @ 1. m]"	"Frequency / Hz"	"Sound Pressure Level / dB (re 20 µPa/V)  [2.83  V @ 1. m]"	"Frequency / Hz"	"Sound Pressure Level / dB (re 20 µPa/V)  [2.83  V @ 1. m]"	"Frequency / Hz"	"Sound Pressure Level / dB (re 20 µPa/V)  [2.83  V @ 1. m]"	"Frequency / Hz"	"Sound Pressure Level / dB (re 20 µPa/V)  [2.83  V @ 1. m]"	"Frequency / Hz"	"Sound Pressure Level / dB (re 20 µPa/V)  [2.83  V @ 1. m]"	"Frequency / Hz"	"Sound Pressure Level / dB (re 20 µPa/V)  [2.83  V @ 1. m]"	"Frequency / Hz"	"Sound Pressure Level / dB (re 20 µPa/V)  [2.83  V @ 1. m]"	"Frequency / Hz"	"Sound Pressure Level / dB (re 20 µPa/V)  [2.83  V @ 1. m]"	"Frequency / Hz"	"Sound Pressure Level / dB (re 20 µPa/V)  [2.83  V @ 1. m]"	"Frequency / Hz"	"Sound Pressure Level / dB (re 20 µPa/V)  [2.83  V @ 1. m]"	"Frequency / Hz"	"Sound Pressure Level / dB (re 20 µPa/V)  [2.83  V @ 1. m]"	"Frequency / Hz"	"Sound Pressure Level / dB (re 20 µPa/V)  [2.83  V @ 1. m]"	"Frequency / Hz"	"Sound Pressure Level / dB (re 20 µPa/V)  [2.83  V @ 1. m]"	"Frequency / Hz"	"Sound Pressure Level / dB (re 20 µPa/V)  [2.83  V @ 1. m]"	"Frequency / Hz"	"Sound Pressure Level / dB (re 20 µPa/V)  [2.83  V @ 1. m]"	"Frequency / Hz"	"Sound Pressure Level / dB (re 20 µPa/V)  [2.83  V @ 1. m]"	"Frequency / Hz"	"Sound Pressure Level / dB (re 20 µPa/V)  [2.83  V @ 1. m]"	"Frequency / Hz"	"Sound Pressure Level / dB (re 20 µPa/V)  [2.83  V @ 1. m]"	"Frequency / Hz"	"Sound Pressure Level / dB (re 20 µPa/V)  [2.83  V @ 1. m]"	"Frequency / Hz"	"Sound Pressure Level / dB (re 20 µPa/V)  [2.83  V @ 1. m]"	"Frequency / Hz"	"Sound Pressure Level / dB (re 20 µPa/V)  [2.83  V @ 1. m]"	"Frequency / Hz"	"Sound Pressure Level / dB (re 20 µPa/V)  [2.83  V @ 1. m]"	"Frequency / Hz"	"Sound Pressure Level / dB (re 20 µPa/V)  [2.83  V @ 1. m]"	"Frequency / Hz"	"Sound Pressure Level / dB (re 20 µPa/V)  [2.83  V @ 1. m]"	"Frequency / Hz"	"Sound Pressure Level / dB (re 20 µPa/V)  [2.83  V @ 1. m]"
20.5078	68.3042	20.5078	68.1447	20.5078	68.4748	20.5078	68.0028	20.5078	68.6515	20.5078	67.886	20.5078	68.831	20.5078	67.8021	20.5078	69.0114	20.5078	67.7587	20.5078	69.193	20.5078	67.763	20.5078	69.3777	20.5078	67.8207	20.5078	69.5688	20.5078	67.9365	20.5078	69.7706	20.5078	68.1137	20.5078	69.9865	20.5078	68.3531	20.5078	70.218	20.5078	68.6527	20.5078	70.4623	20.5078	69.0059	20.5078	70.7104	20.5078	69.4003	20.5078	70.9464	20.5078	69.817	20.5078	71.1485	20.5078	70.2311	20.5078	71.2921	20.5078	70.6142	20.5078	71.3541	20.5078	70.9377	20.5078	71.3181	20.5078	71.1777
21.9727	62.567	21.9727	62.5561	21.9727	62.683	21.9727	62.6552	21.9727	62.8958	21.9727	62.8638	21.9727	63.1964	21.9727	63.1752	21.9727	63.5756	21.9727	63.5768	21.9727	64.0254	21.9727	64.052	21.9727	64.5379	21.9727	64.5832	21.9727	65.1044	21.9727	65.1533	21.9727	65.7143	21.9727	65.7472	21.9727	66.3536	21.9727	66.3521	21.9727	67.0053	21.9727	66.956	21.9727	67.6488	21.9727	67.5477	21.9727	68.2607	21.9727	68.1144	21.9727	68.8156	21.9727	68.6411	21.9727	69.2878	21.9727	69.1097	21.9727	69.6536	21.9727	69.4996	21.9727	69.8939	21.9727	69.7895	21.9727	69.9969	21.9727	69.96
23.4375	61.7584	23.4375	61.9578	23.4375	61.6194	23.4375	62.2239	23.4375	61.5392	23.4375	62.5635	23.4375	61.5244	23.4375	62.9803	23.4375	61.5925	23.4375	63.4729	23.4375	61.7709	23.4375	64.0336	23.4375	62.0907	23.4375	64.6491	23.4375	62.5747	23.4375	65.3023	23.4375	63.2246	23.4375	65.9739	23.4375	64.0146	23.4375	66.6443	23.4375	64.897	23.4375	67.2943	23.4375	65.8144	23.4375	67.9055	23.4375	66.7118	23.4375	68.4598	23.4375	67.5424	23.4375	68.9395	23.4375	68.2704	23.4375	69.3265	23.4375	68.8695	23.4375	69.6034	23.4375	69.3227	23.4375	69.7536	23.4375	69.621	23.4375	69.763
24.9023	66.9017	24.9023	66.8301	24.9023	66.9774	24.9023	66.7736	24.9023	67.0498	24.9023	66.7455	24.9023	67.1153	24.9023	66.7606	24.9023	67.1752	24.9023	66.8332	24.9023	67.2368	24.9023	66.9753	24.9023	67.313	24.9023	67.1936	24.9023	67.4224	24.9023	67.4883	24.9023	67.5863	24.9023	67.852	24.9023	67.8236	24.9023	68.2704	24.9023	68.1439	24.9023	68.7238	24.9023	68.5415	24.9023	69.189	24.9023	68.9941	24.9023	69.6412	24.9023	69.467	24.9023	70.0555	24.9023	69.9201	24.9023	70.4076	24.9023	70.3151	24.9023	70.6757	24.9023	70.621	24.9023	70.8411	24.9023	70.8165	24.9023	70.8903
26.3672	67.5379	26.3672	67.3886	26.3672	67.6803	26.3672	67.2435	26.3672	67.8078	26.3672	67.1163	26.3672	67.9156	26.3672	67.0225	26.3672	68.0029	26.3672	66.9785	26.3672	68.0732	26.3672	66.9994	26.3672	68.1347	26.3672	67.0966	26.3672	68.2007	26.3672	67.2757	26.3672	68.2878	26.3672	67.5343	26.3672	68.4138	26.3672	67.8623	26.3672	68.5925	26.3672	68.2423	26.3672	68.8287	26.3672	68.6519	26.3672	69.1141	26.3672	69.0659	26.3672	69.4274	26.3672	69.4582	26.3672	69.738	26.3672	69.8037	26.3672	70.0126	26.3672	70.0801	26.3672	70.2208	26.3672	70.2688	26.3672	70.3402	26.3672	70.3573
27.832	65.6335	27.832	65.4539	27.832	65.8047	27.832	65.2791	27.832	65.9567	27.832	65.1243	27.832	66.0813	27.832	65.0055	27.832	66.1736	27.832	64.9386	27.832	66.233	27.832	64.9372	27.832	66.2636	27.832	65.01	27.832	66.2748	27.832	65.1589	27.832	66.2815	27.832	65.378	27.832	66.3014	27.832	65.6536	27.832	66.3523	27.832	65.9666	27.832	66.447	27.832	66.2945	27.832	66.5885	27.832	66.6142	27.832	66.7678	27.832	66.9043	27.832	66.9658	27.832	67.1466	27.832	67.1576	27.832	67.3268	27.832	67.3181	27.832	67.4354	27.832	67.4265	27.832	67.4682
29.2969	67.0127	29.2969	66.975	29.2969	67.0438	29.2969	66.9434	29.2969	67.0583	29.2969	66.9319	29.2969	67.0498	29.2969	66.9546	29.2969	67.0161	29.2969	67.0237	29.2969	66.9605	29.2969	67.1476	29.2969	66.8925	29.2969	67.329	29.2969	66.8288	29.2969	67.564	29.2969	66.7922	29.2969	67.8421	29.2969	66.809	29.2969	68.1475	29.2969	66.9023	29.2969	68.4605	29.2969	67.0852	29.2969	68.76	29.2969	67.3545	29.2969	69.0248	29.2969	67.6905	29.2969	69.2355	29.2969	68.0624	29.2969	69.3757	29.2969	68.4358	29.2969	69.433	29.2969	68.7786	29.2969	69.4003	29.2969	69.065	29.2969	69.2761
30.7617	71.0061	30.7617	71.0235	30.7617	71.0078	30.7617	71.0654	30.7617	71.0245	30.7617	71.1376	30.7617	71.054	30.7617	71.2455	30.7617	71.0965	30.7617	71.3936	30.7617	71.1556	30.7617	71.5842	30.7617	71.238	30.7617	71.8171	30.7617	71.3534	30.7617	72.089	30.7617	71.5124	30.7617	72.3932	30.7617	71.7243	30.7617	72.7198	30.7617	71.9931	30.7617	73.0564	30.7617	72.315	30.7617	73.3879	30.7617	72.6768	30.7617	73.6982	30.7617	73.0574	30.7617	73.9702	30.7617	73.4309	30.7617	74.1875	30.7617	73.7706	30.7617	74.3348	30.7617	74.0524	30.7617	74.4	30.7617	74.2578	30.7617	74.3752
32.2266	73.771	32.2266	73.7553	32.2266	73.8079	32.2266	73.7653	32.2266	73.8626	32.2266	73.8062	32.2266	73.9331	32.2266	73.883	32.2266	74.0191	32.2266	74	32.2266	74.1228	32.2266	74.1601	32.2266	74.2482	32.2266	74.3644	32.2266	74.4012	32.2266	74.6115	32.2266	74.5884	32.2266	74.8967	32.2266	74.8152	32.2266	75.2126	32.2266	75.0837	32.2266	75.5484	32.2266	75.3906	32.2266	75.8907	32.2266	75.7249	32.2266	76.2234	32.2266	76.0689	32.2266	76.529	32.2266	76.3997	32.2266	76.7892	32.2266	76.6923	32.2266	76.9867	32.2266	76.9236	32.2266	77.1064	32.2266	77.0757	32.2266	77.1376
33.6914	75.1754	33.6914	75.1475	33.6914	75.2268	33.6914	75.1466	33.6914	75.2987	33.6914	75.177	33.6914	75.3893	33.6914	75.2429	33.6914	75.4982	33.6914	75.3481	33.6914	75.6264	33.6914	75.4957	33.6914	75.7762	33.6914	75.687	33.6914	75.9512	33.6914	75.9215	33.6914	76.1558	33.6914	76.1959	33.6914	76.3934	33.6914	76.504	33.6914	76.6647	33.6914	76.8364	33.6914	76.966	33.6914	77.1806	33.6914	77.2875	33.6914	77.5212	33.6914	77.6127	33.6914	77.8405	33.6914	77.9205	33.6914	78.1198	33.6914	78.1871	33.6914	78.3407	33.6914	78.3907	33.6914	78.487	33.6914	78.5139	33.6914	78.5466
35.1562	74.997	35.1562	74.953	35.1562	75.0647	35.1562	74.9359	35.1562	75.1532	35.1562	74.9494	35.1562	75.2605	35.1562	74.9972	35.1562	75.3855	35.1562	75.0827	35.1562	75.5278	35.1562	75.2088	35.1562	75.6884	35.1562	75.3771	35.1562	75.8691	35.1562	75.5877	35.1562	76.0724	35.1562	75.8381	35.1562	76.3003	35.1562	76.1232	35.1562	76.5527	35.1562	76.4348	35.1562	76.8263	35.1562	76.7614	35.1562	77.1124	35.1562	77.0888	35.1562	77.3971	35.1562	77.4004	35.1562	77.6619	35.1562	77.6784	35.1562	77.8861	35.1562	77.9048	35.1562	78.0503	35.1562	78.064	35.1562	78.1392	35.1562	78.1442
36.6211	73.8632	36.6211	73.8252	36.6211	73.9167	36.6211	73.8052	36.6211	73.9836	36.6211	73.8063	36.6211	74.062	36.6211	73.8314	36.6211	74.151	36.6211	73.8838	36.6211	74.2499	36.6211	73.9658	36.6211	74.3592	36.6211	74.0791	36.6211	74.48	36.6211	74.2238	36.6211	74.6139	36.6211	74.3981	36.6211	74.7626	36.6211	74.5977	36.6211	74.9268	36.6211	74.8161	36.6211	75.1046	36.6211	75.0444	36.6211	75.2911	36.6211	75.2717	36.6211	75.4775	36.6211	75.4859	36.6211	75.652	36.6211	75.6746	36.6211	75.8012	36.6211	75.8261	36.6211	75.912	36.6211	75.9304	36.6211	75.974	36.6211	75.9807
38.0859	74.6573	38.0859	74.6273	38.0859	74.6924	38.0859	74.6051	38.0859	74.7299	38.0859	74.5938	38.0859	74.7674	38.0859	74.5959	38.0859	74.8032	38.0859	74.6136	38.0859	74.836	38.0859	74.6485	38.0859	74.8653	38.0859	74.7007	38.0859	74.8917	38.0859	74.7694	38.0859	74.9161	38.0859	74.852	38.0859	74.9403	38.0859	74.9442	38.0859	74.9661	38.0859	75.0403	38.0859	74.9954	38.0859	75.1333	38.0859	75.0295	38.0859	75.2158	38.0859	75.0691	38.0859	75.2809	38.0859	75.1142	38.0859	75.3233	38.0859	75.1637	38.0859	75.3406	38.0859	75.2153	38.0859	75.3336	38.0859	75.2647	38.0859	75.3064
39.5508	76.7764	39.5508	76.7472	39.5508	76.8152	39.5508	76.7303	39.5508	76.861	39.5508	76.7278	39.5508	76.9112	39.5508	76.7417	39.5508	76.9636	39.5508	76.7734	39.5508	77.0165	39.5508	76.8236	39.5508	77.0689	39.5508	76.8921	39.5508	77.1206	39.5508	76.9778	39.5508	77.1723	39.5508	77.0785	39.5508	77.2251	39.5508	77.1907	39.5508	77.2809	39.5508	77.3098	39.5508	77.3416	39.5508	77.4298	39.5508	77.4084	39.5508	77.5437	39.5508	77.4814	39.5508	77.6443	39.5508	77.5587	39.5508	77.7244	39.5508	77.6359	39.5508	77.7784	39.5508	77.7064	39.5508	77.8026	39.5508	77.7624	39.5508	77.7963
41.0156	78.41	41.0156	78.3773	41.0156	78.4567	41.0156	78.3608	41.0156	78.5152	41.0156	78.3624	41.0156	78.5831	41.0156	78.3838	41.0156	78.6587	41.0156	78.4261	41.0156	78.7403	41.0156	78.49	41.0156	78.827	41.0156	78.5758	41.0156	78.9183	41.0156	78.6827	41.0156	79.0144	41.0156	78.8093	41.0156	79.1158	41.0156	78.9531	41.0156	79.2234	41.0156	79.1101	41.0156	79.3374	41.0156	79.2748	41.0156	79.457	41.0156	79.4398	41.0156	79.5791	41.0156	79.5964	41.0156	79.6978	41.0156	79.7348	41.0156	79.8044	41.0156	79.8453	41.0156	79.8886	41.0156	79.9194	41.0156	79.9401	41.0156	79.9515
42.4805	79.2906	42.4805	79.2551	42.4805	79.3458	42.4805	79.2408	42.4805	79.4187	42.4805	79.2492	42.4805	79.5075	42.4805	79.2816	42.4805	79.6103	42.4805	79.339	42.4805	79.7254	42.4805	79.4217	42.4805	79.8515	42.4805	79.5302	42.4805	79.9873	42.4805	79.6639	42.4805	80.1319	42.4805	79.8217	42.4805	80.2847	42.4805	80.0011	42.4805	80.4448	42.4805	80.1983	42.4805	80.6104	42.4805	80.4075	42.4805	80.7782	42.4805	80.6204	42.4805	80.9424	42.4805	80.827	42.4805	81.0942	42.4805	81.0152	42.4805	81.2221	42.4805	81.1725	42.4805	81.3141	42.4805	81.2873	42.4805	81.3594	42.4805	81.351
43.9453	78.9955	43.9453	78.9549	43.9453	79.0613	43.9453	78.9408	43.9453	79.1509	43.9453	78.9545	43.9453	79.2623	43.9453	78.9965	43.9453	79.3935	43.9453	79.0676	43.9453	79.5425	43.9453	79.1679	43.9453	79.7068	43.9453	79.2972	43.9453	79.8843	43.9453	79.455	43.9453	80.0726	43.9453	79.6398	43.9453	80.2693	43.9453	79.8489	43.9453	80.4714	43.9453	80.078	43.9453	80.6753	43.9453	80.3207	43.9453	80.8752	43.9453	80.5683	43.9453	81.0637	43.9453	80.8099	43.9453	81.2304	43.9453	81.0324	43.9453	81.3637	43.9453	81.2223	43.9453	81.4514	43.9453	81.3668	43.9453	81.484	43.9453	81.4558
45.4102	78.1561	45.4102	78.1143	45.4102	78.2216	45.4102	78.0973	45.4102	78.3096	45.4102	78.1059	45.4102	78.4187	45.4102	78.1408	45.4102	78.5471	45.4102	78.2023	45.4102	78.6925	45.4102	78.2909	45.4102	78.8525	45.4102	78.4064	45.4102	79.0246	45.4102	78.5485	45.4102	79.2058	45.4102	78.7157	45.4102	79.3932	45.4102	78.906	45.4102	79.5833	45.4102	79.1153	45.4102	79.7719	45.4102	79.3382	45.4102	79.9534	45.4102	79.5669	45.4102	80.1204	45.4102	79.7916	45.4102	80.2641	45.4102	80.0008	45.4102	80.3742	45.4102	80.1822	45.4102	80.4409	45.4102	80.3242	45.4102	80.4567	45.4102	80.4175
46.875	77.6295	46.875	77.5891	46.875	77.6875	46.875	77.567	46.875	77.7622	46.875	77.5636	46.875	77.8523	46.875	77.5795	46.875	77.9563	46.875	77.615	46.875	78.072	46.875	77.6704	46.875	78.1971	46.875	77.7459	46.875	78.3291	46.875	77.8416	46.875	78.4655	46.875	77.9568	46.875	78.6034	46.875	78.0904	46.875	78.7402	46.875	78.2401	46.875	78.8726	46.875	78.4021	46.875	78.9966	46.875	78.5711	46.875	79.1071	46.875	78.7401	46.875	79.1981	46.875	78.9008	46.875	79.2628	46.875	79.044	46.875	79.2948	46.875	79.1609	46.875	79.2893	46.875	79.2442
48.3398	77.4481	48.3398	77.3961	48.3398	77.5062	48.3398	77.3513	48.3398	77.5689	48.3398	77.3145	48.3398	77.6345	48.3398	77.2861	48.3398	77.7009	48.3398	77.2664	48.3398	77.7661	48.3398	77.2556	48.3398	77.8275	48.3398	77.2542	48.3398	77.8831	48.3398	77.2624	48.3398	77.9305	48.3398	77.2807	48.3398	77.9682	48.3398	77.3094	48.3398	77.9948	48.3398	77.3484	48.3398	78.0097	48.3398	77.3973	48.3398	78.0128	48.3398	77.455	48.3398	78.0042	48.3398	77.5197	48.3398	77.9842	48.3398	77.5892	48.3398	77.953	48.3398	77.6608	48.3398	77.9109	48.3398	77.7315	48.3398	77.8589	48.3398	77.7984
51.2695	79.3895	51.2695	79.337	51.2695	79.4437	51.2695	79.2867	51.2695	79.498	51.2695	79.2386	51.2695	79.5503	51.2695	79.1924	51.2695	79.5973	51.2695	79.1474	51.2695	79.6347	51.2695	79.1027	51.2695	79.6578	51.2695	79.0571	51.2695	79.6617	51.2695	79.0096	51.2695	79.642	51.2695	78.959	51.2695	79.595	51.2695	78.9043	51.2695	79.5187	51.2695	78.8447	51.2695	79.4131	51.2695	78.7805	51.2695	79.2813	51.2695	78.7131	51.2695	79.1303	51.2695	78.646	51.2695	78.9712	51.2695	78.5852	51.2695	78.8183	51.2695	78.5394	51.2695	78.6868	51.2695	78.519	51.2695	78.5896	51.2695	78.5337
52.7344	80.0649	52.7344	80.015	52.7344	80.1256	52.7344	79.9763	52.7344	80.196	52.7344	79.9484	52.7344	80.2736	52.7344	79.9304	52.7344	80.355	52.7344	79.9213	52.7344	80.4358	52.7344	79.9197	52.7344	80.511	52.7344	79.9241	52.7344	80.5753	52.7344	79.933	52.7344	80.6241	52.7344	79.945	52.7344	80.6532	52.7344	79.9589	52.7344	80.6597	52.7344	79.9738	52.7344	80.6422	52.7344	79.9893	52.7344	80.6014	52.7344	80.0058	52.7344	80.5405	52.7344	80.0242	52.7344	80.4653	52.7344	80.0465	52.7344	80.3831	52.7344	80.0756	52.7344	80.3017	52.7344	80.1141	52.7344	80.2275	52.7344	80.1645
54.1992	80.192	54.1992	80.1464	54.1992	80.2565	54.1992	80.1198	54.1992	80.3388	54.1992	80.1114	54.1992	80.4364	54.1992	80.1199	54.1992	80.5459	54.1992	80.1437	54.1992	80.6628	54.1992	80.1806	54.1992	80.782	54.1992	80.2286	54.1992	80.8979	54.1992	80.2855	54.1992	81.0052	54.1992	80.3494	54.1992	81.0985	54.1992	80.4185	54.1992	81.1736	54.1992	80.4915	54.1992	81.227	54.1992	80.5671	54.1992	81.2567	54.1992	80.6448	54.1992	81.2628	54.1992	80.7237	54.1992	81.247	54.1992	80.8032	54.1992	81.2126	54.1992	80.8823	54.1992	81.1632	54.1992	80.9598	54.1992	81.1026	54.1992	81.0339
55.6641	80.2808	55.6641	80.2396	55.6641	80.3437	55.6641	80.2201	55.6641	80.4273	55.6641	80.2212	55.6641	80.5293	55.6641	80.2411	55.6641	80.6462	55.6641	80.2774	55.6641	80.7737	55.6641	80.3276	55.6641	80.9066	55.6641	80.389	55.6641	81.0394	55.6641	80.4593	55.6641	81.1663	55.6641	80.5366	55.6641	81.2818	55.6641	80.6192	55.6641	81.3808	55.6641	80.7064	55.6641	81.459	55.6641	80.7973	55.6641	81.5137	55.6641	80.8916	55.6641	81.5434	55.6641	80.9884	55.6641	81.5485	55.6641	81.0863	55.6641	81.5302	55.6641	81.183	55.6641	81.4908	55.6641	81.2756	55.6641	81.4331	55.6641	81.3602
58.5938	79.9108	58.5938	79.8705	58.5938	79.9651	58.5938	79.8438	58.5938	80.0338	58.5938	79.8305	58.5938	80.1169	58.5938	79.8306	58.5938	80.214	58.5938	79.8441	58.5938	80.3238	58.5938	79.8716	58.5938	80.4443	58.5938	79.9134	58.5938	80.5721	58.5938	79.9704	58.5938	80.7032	58.5938	80.0432	58.5938	80.8329	58.5938	80.1323	58.5938	80.9562	58.5938	80.2379	58.5938	81.0682	58.5938	80.3592	58.5938	81.164	58.5938	80.494	58.5938	81.2389	58.5938	80.6385	58.5938	81.2885	58.5938	80.7867	58.5938	81.3086	58.5938	80.9305	58.5938	81.2961	58.5938	81.061	58.5938	81.2494	58.5938	81.1697
60.0586	79.387	60.0586	79.3231	60.0586	79.4624	60.0586	79.2723	60.0586	79.5475	60.0586	79.2363	60.0586	79.6403	60.0586	79.2162	60.0586	79.7392	60.0586	79.213	60.0586	79.8427	60.0586	79.2276	60.0586	79.9493	60.0586	79.2606	60.0586	80.0574	60.0586	79.3127	60.0586	80.1654	60.0586	79.3844	60.0586	80.2711	60.0586	79.4759	60.0586	80.3723	60.0586	79.5865	60.0586	80.4658	60.0586	79.7147	60.0586	80.5484	60.0586	79.8575	60.0586	80.6157	60.0586	80.0099	60.0586	80.6627	60.0586	80.1648	60.0586	80.6842	60.0586	80.3135	60.0586	80.675	60.0586	80.4463	60.0586	80.632	60.0586	80.5547
62.9883	79.6259	62.9883	79.5484	62.9883	79.6971	62.9883	79.4664	62.9883	79.7597	62.9883	79.3818	62.9883	79.8114	62.9883	79.2959	62.9883	79.8505	62.9883	79.2099	62.9883	79.8754	62.9883	79.1253	62.9883	79.8851	62.9883	79.0442	62.9883	79.8792	62.9883	78.969	62.9883	79.8581	62.9883	78.9031	62.9883	79.8228	62.9883	78.8506	62.9883	79.7749	62.9883	78.8155	62.9883	79.7171	62.9883	78.8018	62.9883	79.6522	62.9883	78.8124	62.9883	79.5823	62.9883	78.848	62.9883	79.5088	62.9883	78.9068	62.9883	79.4315	62.9883	78.9843	62.9883	79.3493	62.9883	79.0738	62.9883	79.2611	62.9883	79.1681
64.4531	80.2248	64.4531	80.1479	64.4531	80.2879	64.4531	80.0584	64.4531	80.336	64.4531	79.9569	64.4531	80.3675	64.4531	79.8441	64.4531	80.3806	64.4531	79.7206	64.4531	80.3729	64.4531	79.5871	64.4531	80.342	64.4531	79.4448	64.4531	80.2851	64.4531	79.2955	64.4531	80.2	64.4531	79.142	64.4531	80.0855	64.4531	78.9883	64.4531	79.9417	64.4531	78.8395	64.4531	79.7713	64.4531	78.7024	64.4531	79.5796	64.4531	78.5842	64.4531	79.3744	64.4531	78.4931	64.4531	79.1662	64.4531	78.4365	64.4531	78.9663	64.4531	78.4204	64.4531	78.7859	64.4531	78.4482	64.4531	78.6348	64.4531	78.5205
67.3828	81.3403	67.3828	81.2663	67.3828	81.4119	67.3828	81.1898	67.3828	81.4801	67.3828	81.1104	67.3828	81.5434	67.3828	81.0273	67.3828	81.5986	67.3828	80.9392	67.3828	81.6417	67.3828	80.8451	67.3828	81.6674	67.3828	80.7436	67.3828	81.6696	67.3828	80.6339	67.3828	81.6422	67.3828	80.5159	67.3828	81.5794	67.3828	80.3904	67.3828	81.4766	67.3828	80.2597	67.3828	81.3317	67.3828	80.1283	67.3828	81.1461	67.3828	80.0031	67.3828	80.9261	67.3828	79.894	67.3828	80.6835	67.3828	79.8132	67.3828	80.4358	67.3828	79.7743	67.3828	80.2039	67.3828	79.79	67.3828	80.009	67.3828	79.8681
68.8477	81.52	68.8477	81.4518	68.8477	81.5931	68.8477	81.3887	68.8477	81.6703	68.8477	81.3299	68.8477	81.7497	68.8477	81.2741	68.8477	81.8278	68.8477	81.2197	68.8477	81.9001	68.8477	81.1648	68.8477	81.9612	68.8477	81.1076	68.8477	82.0047	68.8477	81.0467	68.8477	82.024	68.8477	80.9812	68.8477	82.013	68.8477	80.9113	68.8477	81.9667	68.8477	80.8385	68.8477	81.8821	68.8477	80.7662	68.8477	81.7594	68.8477	80.6998	68.8477	81.6027	68.8477	80.6465	68.8477	81.4211	68.8477	80.6155	68.8477	81.2281	68.8477	80.6166	68.8477	81.0403	68.8477	80.658	68.8477	80.8745	68.8477	80.7443
71.7773	81.6674	71.7773	81.6107	71.7773	81.7355	71.7773	81.5655	71.7773	81.8143	71.7773	81.5312	71.7773	81.9017	71.7773	81.5064	71.7773	81.9949	71.7773	81.4893	71.7773	82.0898	71.7773	81.4779	71.7773	82.1818	71.7773	81.4702	71.7773	82.2653	71.7773	81.4644	71.7773	82.3342	71.7773	81.4595	71.7773	82.3828	71.7773	81.4551	71.7773	82.4055	71.7773	81.4519	71.7773	82.3984	71.7773	81.452	71.7773	82.3595	71.7773	81.4583	71.7773	82.2898	71.7773	81.475	71.7773	82.1938	71.7773	81.5066	71.7773	82.0791	71.7773	81.5571	71.7773	81.9553	71.7773	81.629	71.7773	81.8332	71.7773	81.7221
74.707	81.5849	74.707	81.5313	74.707	81.6535	74.707	81.4933	74.707	81.7358	74.707	81.4709	74.707	81.83	74.707	81.4634	74.707	81.9339	74.707	81.4699	74.707	82.0445	74.707	81.4886	74.707	82.1584	74.707	81.5182	74.707	82.2716	74.707	81.557	74.707	82.3795	74.707	81.6038	74.707	82.4769	74.707	81.6579	74.707	82.5586	74.707	81.719	74.707	82.6195	74.707	81.7874	74.707	82.6556	74.707	81.8637	74.707	82.6644	74.707	81.9483	74.707	82.6454	74.707	82.0411	74.707	82.6001	74.707	82.1408	74.707	82.532	74.707	82.2447	74.707	82.4461	74.707	82.3483
77.6367	81.6772	77.6367	81.613	77.6367	81.751	77.6367	81.5598	77.6367	81.8331	77.6367	81.5184	77.6367	81.9216	77.6367	81.4893	77.6367	82.0147	77.6367	81.4727	77.6367	82.1102	77.6367	81.4682	77.6367	82.2059	77.6367	81.4756	77.6367	82.2994	77.6367	81.4947	77.6367	82.3875	77.6367	81.5253	77.6367	82.4671	77.6367	81.5676	77.6367	82.5342	77.6367	81.6222	77.6367	82.585	77.6367	81.6896	77.6367	82.6159	77.6367	81.7701	77.6367	82.6238	77.6367	81.8635	77.6367	82.607	77.6367	81.9682	77.6367	82.5649	77.6367	82.0808	77.6367	82.4989	77.6367	82.1966	77.6367	82.412	77.6367	82.3092
79.1016	81.7566	79.1016	81.6896	79.1016	81.8316	79.1016	81.632	79.1016	81.9131	79.1016	81.5847	79.1016	81.9994	79.1016	81.5484	79.1016	82.0886	79.1016	81.5232	79.1016	82.179	79.1016	81.5094	79.1016	82.2684	79.1016	81.5069	79.1016	82.3546	79.1016	81.5159	79.1016	82.435	79.1016	81.5368	79.1016	82.5067	79.1016	81.5701	79.1016	82.5662	79.1016	81.617	79.1016	82.61	79.1016	81.6783	79.1016	82.6346	79.1016	81.7547	79.1016	82.6369	79.1016	81.8459	79.1016	82.6149	79.1016	81.9503	79.1016	82.5681	79.1016	82.0645	79.1016	82.4976	79.1016	82.1831	79.1016	82.4063	79.1016	82.2993
82.0312	82.2816	82.0312	82.2104	82.0312	82.3563	82.0312	82.1441	82.0312	82.4328	82.0312	82.0838	82.0312	82.5092	82.0312	82.0303	82.0312	82.5835	82.0312	81.9839	82.0312	82.6538	82.0312	81.9449	82.0312	82.7184	82.0312	81.9135	82.0312	82.7752	82.0312	81.8902	82.0312	82.8223	82.0312	81.8761	82.0312	82.8578	82.0312	81.8726	82.0312	82.8794	82.0312	81.8818	82.0312	82.8848	82.0312	81.9063	82.0312	82.872	82.0312	81.9481	82.0312	82.8394	82.0312	82.0087	82.0312	82.7862	82.0312	82.088	82.0312	82.7131	82.0312	82.1837	82.0312	82.6222	82.0312	82.2915	82.0312	82.5177	82.0312	82.4052
84.9609	82.652	84.9609	82.5821	84.9609	82.7286	84.9609	82.5202	84.9609	82.8104	84.9609	82.4673	84.9609	82.8955	84.9609	82.4238	84.9609	82.9816	84.9609	82.3898	84.9609	83.0665	84.9609	82.3649	84.9609	83.1473	84.9609	82.349	84.9609	83.2213	84.9609	82.3418	84.9609	83.2855	84.9609	82.3436	84.9609	83.3368	84.9609	82.3552	84.9609	83.3719	84.9609	82.3777	84.9609	83.3879	84.9609	82.4129	84.9609	83.3824	84.9609	82.4624	84.9609	83.354	84.9609	82.5275	84.9609	83.3025	84.9609	82.6086	84.9609	83.2297	84.9609	82.704	84.9609	83.1386	84.9609	82.8104	84.9609	83.0343	84.9609	82.9226
87.8906	82.6125	87.8906	82.536	87.8906	82.6943	87.8906	82.4668	87.8906	82.7791	87.8906	82.4069	87.8906	82.865	87.8906	82.358	87.8906	82.9503	87.8906	82.3217	87.8906	83.0342	87.8906	82.2994	87.8906	83.1161	87.8906	82.2926	87.8906	83.1962	87.8906	82.3024	87.8906	83.2744	87.8906	82.33	87.8906	83.3499	87.8906	82.3764	87.8906	83.4206	87.8906	82.4424	87.8906	83.483	87.8906	82.528	87.8906	83.5319	87.8906	82.6325	87.8906	83.5618	87.8906	82.7537	87.8906	83.5672	87.8906	82.8875	87.8906	83.5438	87.8906	83.028	87.8906	83.4896	87.8906	83.167	87.8906	83.4056	87.8906	83.2958
90.8203	82.9429	90.8203	82.852	90.8203	83.031	90.8203	82.7607	90.8203	83.1137	90.8203	82.672	90.8203	83.1889	90.8203	82.5886	90.8203	83.2551	90.8203	82.5137	90.8203	83.3119	90.8203	82.4506	90.8203	83.3594	90.8203	82.4026	90.8203	83.3993	90.8203	82.3735	90.8203	83.4337	90.8203	82.3669	90.8203	83.4648	90.8203	82.3859	90.8203	83.4941	90.8203	82.4326	90.8203	83.5216	90.8203	82.5079	90.8203	83.5448	90.8203	82.6101	90.8203	83.5594	90.8203	82.7354	90.8203	83.559	90.8203	82.877	90.8203	83.537	90.8203	83.0258	90.8203	83.488	90.8203	83.1708	90.8203	83.4091	90.8203	83.3016
95.2148	83.6976	95.2148	83.5965	95.2148	83.7881	95.2148	83.4872	95.2148	83.8651	95.2148	83.3714	95.2148	83.9257	95.2148	83.2509	95.2148	83.9669	95.2148	83.127	95.2148	83.9863	95.2148	83.0015	95.2148	83.9824	95.2148	82.8772	95.2148	83.9546	95.2148	82.7578	95.2148	83.9042	95.2148	82.6489	95.2148	83.8337	95.2148	82.5572	95.2148	83.7474	95.2148	82.4902	95.2148	83.6505	95.2148	82.4547	95.2148	83.5487	95.2148	82.4556	95.2148	83.4459	95.2148	82.4941	95.2148	83.3441	95.2148	82.5671	95.2148	83.2418	95.2148	82.6668	95.2148	83.136	95.2148	82.7829	95.2148	83.0237	95.2148	82.9046
98.1445	84.2354	98.1445	84.1403	98.1445	84.3226	98.1445	84.0394	98.1445	84.3992	98.1445	83.9337	98.1445	84.4623	98.1445	83.8236	98.1445	84.5086	98.1445	83.709	98.1445	84.5349	98.1445	83.5897	98.1445	84.5382	98.1445	83.466	98.1445	84.5159	98.1445	83.3395	98.1445	84.466	98.1445	83.2134	98.1445	84.3878	98.1445	83.0928	98.1445	84.282	98.1445	82.9846	98.1445	84.1514	98.1445	82.8969	98.1445	84.0012	98.1445	82.8375	98.1445	83.8381	98.1445	82.8125	98.1445	83.6698	98.1445	82.825	98.1445	83.5033	98.1445	82.8744	98.1445	83.3443	98.1445	82.9567	98.1445	83.1972	98.1445	83.0663
101.074	84.7495	101.074	84.6682	101.074	84.8212	101.074	84.5777	101.074	84.8823	101.074	84.4778	101.074	84.9312	101.074	84.3675	101.074	84.9659	101.074	84.246	101.074	84.9839	101.074	84.1123	101.074	84.9823	101.074	83.9665	101.074	84.9575	101.074	83.8099	101.074	84.906	101.074	83.646	101.074	84.8245	101.074	83.4807	101.074	84.7105	101.074	83.3221	101.074	84.5636	101.074	83.1805	101.074	84.3861	101.074	83.067	101.074	84.1841	101.074	82.992	101.074	83.9667	101.074	82.9636	101.074	83.7455	101.074	82.9861	101.074	83.5329	101.074	83.0596	101.074	83.3409	101.074	83.1801
105.469	84.8633	105.469	84.7909	105.469	84.9343	105.469	84.7184	105.469	85.0026	105.469	84.6465	105.469	85.067	105.469	84.5754	105.469	85.1263	105.469	84.5045	105.469	85.1792	105.469	84.4322	105.469	85.2236	105.469	84.3566	105.469	85.2566	105.469	84.2758	105.469	85.2734	105.469	84.1885	105.469	85.2681	105.469	84.0953	105.469	85.2337	105.469	83.9988	105.469	85.1638	105.469	83.9044	105.469	85.0541	105.469	83.8207	105.469	84.9045	105.469	83.7585	105.469	84.7206	105.469	83.7301	105.469	84.514	105.469	83.7463	105.469	84.3014	105.469	83.8145	105.469	84.1024	105.469	83.9355
108.398	85.002	108.398	84.9252	108.398	85.0779	108.398	84.8494	108.398	85.1507	108.398	84.7766	108.398	85.2192	108.398	84.708	108.398	85.2823	108.398	84.6443	108.398	85.3396	108.398	84.5853	108.398	85.3907	108.398	84.53	108.398	85.4342	108.398	84.4772	108.398	85.4677	108.398	84.426	108.398	85.4867	108.398	84.3762	108.398	85.4851	108.398	84.3291	108.398	85.4564	108.398	84.2879	108.398	85.3947	108.398	84.2581	108.398	85.2975	108.398	84.2467	108.398	85.1667	108.398	84.2616	108.398	85.0097	108.398	84.3101	108.398	84.839	108.398	84.3959	108.398	84.6701	108.398	84.5182
112.793	85.193	112.793	85.13	112.793	85.2511	112.793	85.0637	112.793	85.3036	112.793	84.9961	112.793	85.3507	112.793	84.9295	112.793	85.3938	112.793	84.866	112.793	85.4347	112.793	84.8072	112.793	85.4755	112.793	84.7545	112.793	85.5172	112.793	84.7088	112.793	85.5589	112.793	84.6707	112.793	85.5972	112.793	84.6412	112.793	85.6265	112.793	84.6219	112.793	85.6391	112.793	84.615	112.793	85.6274	112.793	84.6237	112.793	85.5856	112.793	84.6519	112.793	85.5114	112.793	84.7035	112.793	85.4074	112.793	84.7808	112.793	85.2812	112.793	84.8834	112.793	85.1435	112.793	85.0071
117.188	85.2566	117.188	85.1657	117.188	85.336	117.188	85.0662	117.188	85.4018	117.188	84.962	117.188	85.4534	117.188	84.8574	117.188	85.4911	117.188	84.7571	117.188	85.5169	117.188	84.6657	117.188	85.5335	117.188	84.5878	117.188	85.5447	117.188	84.5275	117.188	85.5543	117.188	84.4886	117.188	85.5649	117.188	84.4738	117.188	85.577	117.188	84.4854	117.188	85.5881	117.188	84.5242	117.188	85.5929	117.188	84.5897	117.188	85.5842	117.188	84.68	117.188	85.555	117.188	84.7915	117.188	85.5004	117.188	84.9185	117.188	85.4188	117.188	85.0537	117.188	85.3128	117.188	85.1882
120.117	85.7859	120.117	85.7041	120.117	85.8571	120.117	85.614	120.117	85.9147	120.117	85.5179	120.117	85.9563	120.117	85.4176	120.117	85.9792	120.117	85.3151	120.117	85.9818	120.117	85.212	120.117	85.9635	120.117	85.1107	120.117	85.9255	120.117	85.0143	120.117	85.8706	120.117	84.9266	120.117	85.8029	120.117	84.8525	120.117	85.7275	120.117	84.7971	120.117	85.6491	120.117	84.765	120.117	85.5711	120.117	84.7597	120.117	85.4946	120.117	84.782	120.117	85.4186	120.117	84.8303	120.117	85.3405	120.117	84.9	120.117	85.2576	120.117	84.9845	120.117	85.169	120.117	85.0764
124.512	86.2371	124.512	86.1294	124.512	86.3322	124.512	86.0118	124.512	86.4112	124.512	85.8867	124.512	86.4706	124.512	85.7555	124.512	86.507	124.512	85.6194	124.512	86.5181	124.512	85.4797	124.512	86.5022	124.512	85.3382	124.512	86.459	124.512	85.1985	124.512	86.3896	124.512	85.0655	124.512	86.2962	124.512	84.9461	124.512	86.1821	124.512	84.848	124.512	86.0519	124.512	84.7791	124.512	85.9114	124.512	84.7455	124.512	85.7662	124.512	84.7502	124.512	85.6212	124.512	84.792	124.512	85.4792	124.512	84.8662	124.512	85.3414	124.512	84.9654	124.512	85.2083	124.512	85.0816
128.906	86.7627	128.906	86.6627	128.906	86.8476	128.906	86.5497	128.906	86.9141	128.906	86.4247	128.906	86.959	128.906	86.2876	128.906	86.979	128.906	86.1373	128.906	86.9715	128.906	85.9727	128.906	86.9343	128.906	85.7935	128.906	86.8655	128.906	85.6017	128.906	86.7636	128.906	85.402	128.906	86.6281	128.906	85.2029	128.906	86.4601	128.906	85.016	128.906	86.2635	128.906	84.855	128.906	86.0461	128.906	84.7332	128.906	85.8186	128.906	84.6607	128.906	85.593	128.906	84.642	128.906	85.3797	128.906	84.6753	128.906	85.1858	128.906	84.7538	128.906	85.0147	128.906	84.8693
133.301	87.0071	133.301	86.9106	133.301	87.0963	133.301	86.809	133.301	87.1751	133.301	86.7029	133.301	87.24	133.301	86.591	133.301	87.2875	133.301	86.4702	133.301	87.3142	133.301	86.3367	133.301	87.3161	133.301	86.1866	133.301	87.2886	133.301	86.018	133.301	87.2257	133.301	85.8313	133.301	87.1212	133.301	85.6313	133.301	86.9699	133.301	85.427	133.301	86.7699	133.301	85.2313	133.301	86.5248	133.301	85.06	133.301	86.2456	133.301	84.929	133.301	85.9498	133.301	84.8514	133.301	85.6585	133.301	84.8355	133.301	85.3924	133.301	84.8842	133.301	85.168	133.301	84.9963
139.16	86.8988	139.16	86.8266	139.16	86.9603	139.16	86.7453	139.16	87.0115	139.16	86.6573	139.16	87.0544	139.16	86.5648	139.16	87.0923	139.16	86.4688	139.16	87.1283	139.16	86.3689	139.16	87.1636	139.16	86.2635	139.16	87.1964	139.16	86.1504	139.16	87.2202	139.16	86.0285	139.16	87.2248	139.16	85.8985	139.16	87.1975	139.16	85.7644	139.16	87.126	139.16	85.634	139.16	87.0019	139.16	85.5187	139.16	86.8237	139.16	85.4329	139.16	86.599	139.16	85.3916	139.16	86.3443	139.16	85.4075	139.16	86.0824	139.16	85.4885	139.16	85.8383	139.16	85.6348
143.555	86.5247	143.555	86.4164	143.555	86.634	143.555	86.3129	143.555	86.7408	143.555	86.2187	143.555	86.8431	143.555	86.1378	143.555	86.9396	143.555	86.0732	143.555	87.03	143.555	86.0255	143.555	87.1144	143.555	85.9935	143.555	87.1923	143.555	85.9738	143.555	87.2615	143.555	85.9624	143.555	87.3171	143.555	85.9555	143.555	87.351	143.555	85.9514	143.555	87.3533	143.555	85.9511	143.555	87.3148	143.555	85.9589	143.555	87.2304	143.555	85.982	143.555	87.1009	143.555	86.0291	143.555	86.9347	143.555	86.1082	143.555	86.7463	143.555	86.2237	143.555	86.5537	143.555	86.3749
147.949	87.1859	147.949	87.0645	147.949	87.2961	147.949	86.9361	147.949	87.3902	147.949	86.8039	147.949	87.4636	147.949	86.6701	147.949	87.5126	147.949	86.5369	147.949	87.536	147.949	86.4062	147.949	87.535	147.949	86.2811	147.949	87.5138	147.949	86.1656	147.949	87.4777	147.949	86.0649	147.949	87.432	147.949	85.9851	147.949	87.3799	147.949	85.9323	147.949	87.3216	147.949	85.9118	147.949	87.254	147.949	85.9271	147.949	87.1724	147.949	85.9796	147.949	87.072	147.949	86.0676	147.949	86.9502	147.949	86.1868	147.949	86.8083	147.949	86.3303	147.949	86.6516	147.949	86.4888
153.809	87.5621	153.809	87.4579	153.809	87.6447	153.809	87.3358	153.809	87.7024	153.809	87.1992	153.809	87.7328	153.809	87.0504	153.809	87.7358	153.809	86.8911	153.809	87.7128	153.809	86.7222	153.809	87.6668	153.809	86.5452	153.809	87.6009	153.809	86.3625	153.809	87.517	153.809	86.1789	153.809	87.4157	153.809	86.0019	153.809	87.2963	153.809	85.8414	153.809	87.1582	153.809	85.7095	153.809	87.0016	153.809	85.618	153.809	86.8292	153.809	85.5762	153.809	86.6452	153.809	85.5886	153.809	86.455	153.809	85.6536	153.809	86.2644	153.809	85.7642	153.809	86.0801	153.809	85.9101
159.668	87.5831	159.668	87.4921	159.668	87.652	159.668	87.3817	159.668	87.6972	159.668	87.2554	159.668	87.7189	159.668	87.1164	159.668	87.7189	159.668	86.9678	159.668	87.7005	159.668	86.8121	159.668	87.6675	159.668	86.6519	159.668	87.6234	159.668	86.4905	159.668	87.5702	159.668	86.3321	159.668	87.5077	159.668	86.1829	159.668	87.4337	159.668	86.051	159.668	87.3446	159.668	85.9459	159.668	87.2367	159.668	85.8777	159.668	87.1075	159.668	85.8548	159.668	86.9567	159.668	85.8823	159.668	86.7872	159.668	85.9603	159.668	86.6047	159.668	86.0829	159.668	86.4183	159.668	86.2399
165.527	87.4884	165.527	87.3803	165.527	87.5778	165.527	87.2597	165.527	87.6429	165.527	87.1332	165.527	87.6804	165.527	87.0062	165.527	87.6897	165.527	86.8827	165.527	87.673	165.527	86.7652	165.527	87.635	165.527	86.6548	165.527	87.5813	165.527	86.552	165.527	87.5172	165.527	86.4575	165.527	87.4459	165.527	86.3726	165.527	87.3683	165.527	86.3002	165.527	87.2831	165.527	86.2442	165.527	87.1885	165.527	86.2094	165.527	87.0829	165.527	86.2009	165.527	86.9665	165.527	86.2222	165.527	86.8412	165.527	86.2745	165.527	86.7109	165.527	86.3556	165.527	86.5815	165.527	86.4604
171.387	87.4702	171.387	87.3404	171.387	87.5774	171.387	87.1954	171.387	87.6567	171.387	87.0434	171.387	87.7057	171.387	86.8923	171.387	87.725	171.387	86.748	171.387	87.7176	171.387	86.6148	171.387	87.6874	171.387	86.4945	171.387	87.6383	171.387	86.3882	171.387	87.573	171.387	86.2967	171.387	87.4927	171.387	86.2214	171.387	87.3979	171.387	86.1645	171.387	87.2892	171.387	86.1291	171.387	87.1693	171.387	86.1182	171.387	87.0422	171.387	86.1338	171.387	86.9126	171.387	86.1758	171.387	86.7846	171.387	86.2422	171.387	86.6604	171.387	86.3286	171.387	86.5417	171.387	86.43
177.246	87.4749	177.246	87.3381	177.246	87.5832	177.246	87.1781	177.246	87.66	177.246	87.0019	177.246	87.7049	177.246	86.8178	177.246	87.7204	177.246	86.6352	177.246	87.7111	177.246	86.4635	177.246	87.6831	177.246	86.3114	177.246	87.6423	177.246	86.1865	177.246	87.5926	177.246	86.0938	177.246	87.5349	177.246	86.036	177.246	87.4674	177.246	86.0127	177.246	87.3869	177.246	86.0215	177.246	87.2909	177.246	86.0582	177.246	87.1792	177.246	86.1185	177.246	87.0543	177.246	86.1982	177.246	86.921	177.246	86.2938	177.246	86.7847	177.246	86.4026	177.246	86.6505	177.246	86.5222
183.105	87.5646	183.105	87.4441	183.105	87.6551	183.105	87.2986	183.105	87.7125	183.105	87.1335	183.105	87.7359	183.105	86.9544	183.105	87.7278	183.105	86.7665	183.105	87.6934	183.105	86.5751	183.105	87.6395	183.105	86.3863	183.105	87.5729	183.105	86.2077	183.105	87.4986	183.105	86.0484	183.105	87.418	183.105	85.9181	183.105	87.3297	183.105	85.8259	183.105	87.2303	183.105	85.778	183.105	87.117	183.105	85.776	183.105	86.9893	183.105	85.817	183.105	86.8496	183.105	85.8941	183.105	86.7022	183.105	85.9987	183.105	86.552	183.105	86.1224	183.105	86.403	183.105	86.2587
188.965	87.4266	188.965	87.3014	188.965	87.5145	188.965	87.1458	188.965	87.5603	188.965	86.9685	188.965	87.5629	188.965	86.7777	188.965	87.5263	188.965	86.5815	188.965	87.4594	188.965	86.3867	188.965	87.3753	188.965	86.1992	188.965	87.2884	188.965	86.0243	188.965	87.2102	188.965	85.8671	188.965	87.1457	188.965	85.7332	188.965	87.091	188.965	85.629	188.965	87.0354	188.965	85.5612	188.965	86.9654	188.965	85.5358	188.965	86.8699	188.965	85.5565	188.965	86.744	188.965	85.6234	188.965	86.5895	188.965	85.7326	188.965	86.4141	188.965	85.8766	188.965	86.2288	188.965	86.0457
196.289	87.441	196.289	87.2852	196.289	87.5559	196.289	87.0974	196.289	87.6238	196.289	86.8887	196.289	87.6424	196.289	86.6714	196.289	87.6136	196.289	86.4581	196.289	87.5435	196.289	86.2606	196.289	87.4426	196.289	86.0884	196.289	87.3251	196.289	85.9482	196.289	87.2064	196.289	85.8428	196.289	87.0999	196.289	85.7713	196.289	87.0124	196.289	85.7304	196.289	86.9419	196.289	85.716	196.289	86.8777	196.289	85.7251	196.289	86.8053	196.289	85.7572	196.289	86.7121	196.289	85.814	196.289	86.5927	196.289	85.8978	196.289	86.4505	196.289	86.0093	196.289	86.2965	196.289	86.1451
203.613	87.6026	203.613	87.4961	203.613	87.6651	203.613	87.3512	203.613	87.6802	203.613	87.1737	203.613	87.6484	203.613	86.9688	203.613	87.5754	203.613	86.7413	203.613	87.4715	203.613	86.4961	203.613	87.349	203.613	86.2405	203.613	87.2194	203.613	85.9847	203.613	87.0893	203.613	85.7425	203.613	86.9592	203.613	85.5299	203.613	86.8248	203.613	85.362	203.613	86.6803	203.613	85.2503	203.613	86.5232	203.613	85.1991	203.613	86.3558	203.613	85.205	203.613	86.1851	203.613	85.2585	203.613	86.019	203.613	85.3468	203.613	85.8628	203.613	85.4577	203.613	85.7177	203.613	85.5827
210.938	87.4253	210.938	87.3354	210.938	87.4713	210.938	87.2051	210.938	87.4728	210.938	87.0393	210.938	87.4327	210.938	86.8441	210.938	87.3572	210.938	86.6255	210.938	87.2558	210.938	86.3898	210.938	87.14	210.938	86.1443	210.938	87.0219	210.938	85.8974	210.938	86.9111	210.938	85.66	210.938	86.8123	210.938	85.445	210.938	86.7232	210.938	85.2667	210.938	86.6357	210.938	85.1387	210.938	86.5391	210.938	85.0712	210.938	86.4241	210.938	85.0685	210.938	86.2857	210.938	85.1274	210.938	86.1242	210.938	85.2389	210.938	85.9446	210.938	85.3899	210.938	85.7553	210.938	85.5664
218.262	87.0117	218.262	86.9027	218.262	87.085	218.262	86.7678	218.262	87.1158	218.262	86.6185	218.262	87.1021	218.262	86.4657	218.262	87.0478	218.262	86.3177	218.262	86.9633	218.262	86.1801	218.262	86.864	218.262	86.0544	218.262	86.7671	218.262	85.9402	218.262	86.6866	218.262	85.8358	218.262	86.6274	218.262	85.7405	218.262	86.5836	218.262	85.6555	218.262	86.5408	218.262	85.5848	218.262	86.4828	218.262	85.5345	218.262	86.3987	218.262	85.5111	218.262	86.2865	218.262	85.5199	218.262	86.1529	218.262	85.563	218.262	86.0096	218.262	85.6388	218.262	85.8694	218.262	85.743
225.586	87.1919	225.586	87.0346	225.586	87.2912	225.586	86.8308	225.586	87.3241	225.586	86.5941	225.586	87.2877	225.586	86.338	225.586	87.1852	225.586	86.0754	225.586	87.0276	225.586	85.8174	225.586	86.8332	225.586	85.5738	225.586	86.6262	225.586	85.3534	225.586	86.4326	225.586	85.1641	225.586	86.2736	225.586	85.0138	225.586	86.1586	225.586	84.9091	225.586	86.0822	225.586	84.8542	225.586	86.0271	225.586	84.8503	225.586	85.9719	225.586	84.8945	225.586	85.8995	225.586	84.9801	225.586	85.8016	225.586	85.0977	225.586	85.6786	225.586	85.2367	225.586	85.5371	225.586	85.3865
232.91	86.8999	232.91	86.7701	232.91	86.9712	232.91	86.5916	232.91	86.9779	232.91	86.3763	232.91	86.919	232.91	86.1373	232.91	86.7982	232.91	85.8873	232.91	86.6253	232.91	85.6374	232.91	86.4155	232.91	85.3968	232.91	86.189	232.91	85.1725	232.91	85.9692	232.91	84.9701	232.91	85.778	232.91	84.7948	232.91	85.6293	232.91	84.6522	232.91	85.5247	232.91	84.5484	232.91	85.4524	232.91	84.4894	232.91	85.3925	232.91	84.479	232.91	85.3249	232.91	84.5168	232.91	85.236	232.91	84.5979	232.91	85.1222	232.91	84.7124	232.91	84.9888	232.91	84.8475
241.699	86.5987	241.699	86.455	241.699	86.6906	241.699	86.2674	241.699	86.7261	241.699	86.0454	241.699	86.7037	241.699	85.7994	241.699	86.6258	241.699	85.5395	241.699	86.4982	241.699	85.2745	241.699	86.3298	241.699	85.012	241.699	86.1309	241.699	84.7591	241.699	85.9117	241.699	84.5229	241.699	85.6799	241.699	84.3118	241.699	85.441	241.699	84.1348	241.699	85.2003	241.699	84.0013	241.699	84.9661	241.699	83.9178	241.699	84.7503	241.699	83.8863	241.699	84.5648	241.699	83.9017	241.699	84.415	241.699	83.953	241.699	84.2966	241.699	84.0262	241.699	84.1985	241.699	84.1097
250.488	86.798	250.488	86.5862	250.488	86.9556	250.488	86.3312	250.488	87.0488	250.488	86.0437	250.488	87.0701	250.488	85.734	250.488	87.0165	250.488	85.4118	250.488	86.8907	250.488	85.0865	250.488	86.7024	250.488	84.7679	250.488	86.4676	250.488	84.4656	250.488	86.2065	250.488	84.1899	250.488	85.9405	250.488	83.9512	250.488	85.6884	250.488	83.7601	250.488	85.4617	250.488	83.6267	250.488	85.262	250.488	83.5586	250.488	85.0807	250.488	83.5589	250.488	84.904	250.488	83.6246	250.488	84.7192	250.488	83.7467	250.488	84.5211	250.488	83.912	250.488	84.3133	250.488	84.1058
259.277	86.5522	259.277	86.3954	259.277	86.6532	259.277	86.1906	259.277	86.6929	259.277	85.9469	259.277	86.6708	259.277	85.6728	259.277	86.5917	259.277	85.3773	259.277	86.4644	259.277	85.0711	259.277	86.2993	259.277	84.7684	259.277	86.1051	259.277	84.486	259.277	85.8869	259.277	84.241	259.277	85.6476	259.277	84.0468	259.277	85.3931	259.277	83.9104	259.277	85.1377	259.277	83.8323	259.277	84.9051	259.277	83.8092	259.277	84.7194	259.277	83.8357	259.277	84.5897	259.277	83.9051	259.277	84.5029	259.277	84.0071	259.277	84.4312	259.277	84.1267	259.277	84.3491	259.277	84.2458
268.066	86.3005	268.066	86.1208	268.066	86.4172	268.066	85.8866	268.066	86.4646	268.066	85.6057	268.066	86.4419	268.066	85.2835	268.066	86.3562	268.066	84.9232	268.066	86.2229	268.066	84.5289	268.066	86.0633	268.066	84.11	268.066	85.8976	268.066	83.6856	268.066	85.7363	268.066	83.2862	268.066	85.5751	268.066	82.9506	268.066	85.3975	268.066	82.7151	268.066	85.1858	268.066	82.6017	268.066	84.934	268.066	82.6088	268.066	84.654	268.066	82.7138	268.066	84.3709	268.066	82.8829	268.066	84.1094	268.066	83.0825	268.066	83.8806	268.066	83.2871	268.066	83.6779	268.066	83.4847
276.855	86.3164	276.855	86.1601	276.855	86.3972	276.855	85.941	276.855	86.3943	276.855	85.6748	276.855	86.3072	276.855	85.3771	276.855	86.1444	276.855	85.062	276.855	85.925	276.855	84.7397	276.855	85.6781	276.855	84.4171	276.855	85.4392	276.855	84.0997	276.855	85.2415	276.855	83.7938	276.855	85.1032	276.855	83.5093	276.855	85.018	276.855	83.2604	276.855	84.9576	276.855	83.0641	276.855	84.885	276.855	82.9381	276.855	84.7704	276.855	82.8963	276.855	84.5998	276.855	82.9449	276.855	84.3752	276.855	83.0795	276.855	84.1103	276.855	83.2857	276.855	83.8249	276.855	83.5421
287.109	85.8117	287.109	85.7008	287.109	85.858	287.109	85.5346	287.109	85.8346	287.109	85.3229	287.109	85.7429	287.109	85.0736	287.109	85.5911	287.109	84.7922	287.109	85.3929	287.109	84.4839	287.109	85.1646	287.109	84.1581	287.109	84.9244	287.109	83.8315	287.109	84.6906	287.109	83.5298	287.109	84.4796	287.109	83.2841	287.109	84.3051	287.109	83.1221	287.109	84.1771	287.109	83.0585	287.109	84.1004	287.109	83.0895	287.109	84.07	287.109	83.196	287.109	84.0681	287.109	83.3512	287.109	84.0675	287.109	83.5283	287.109	84.0412	287.109	83.7036	287.109	83.9721	287.109	83.8568
297.363	86.1445	297.363	85.981	297.363	86.2257	297.363	85.7586	297.363	86.2056	297.363	85.4979	297.363	86.0735	297.363	85.2108	297.363	85.829	297.363	84.8971	297.363	85.4827	297.363	84.5488	297.363	85.0588	297.363	84.159	297.363	84.5985	297.363	83.7326	297.363	84.16	297.363	83.2943	297.363	83.8057	297.363	82.889	297.363	83.5772	297.363	82.5728	297.363	83.4737	297.363	82.393	297.363	83.4567	297.363	82.3672	297.363	83.4762	297.363	82.4746	297.363	83.4949	297.363	82.6673	297.363	83.4936	297.363	82.8914	297.363	83.4623	297.363	83.1024	297.363	83.3918	297.363	83.2728
307.617	85.5979	307.617	85.3442	307.617	85.7915	307.617	85.0502	307.617	85.9092	307.617	84.7385	307.617	85.9385	307.617	84.4308	307.617	85.87	307.617	84.1432	307.617	85.698	307.617	83.8815	307.617	85.4219	307.617	83.6412	307.617	85.0471	307.617	83.4114	307.617	84.5868	307.617	83.1818	307.617	84.0653	307.617	82.9497	307.617	83.5257	307.617	82.7247	307.617	83.0349	307.617	82.5278	307.617	82.6737	307.617	82.3866	307.617	82.4968	307.617	82.324	307.617	82.4911	307.617	82.3462	307.617	82.5793	307.617	82.4358	307.617	82.6698	307.617	82.555	307.617	82.7015	307.617	82.6571
319.336	85.4715	319.336	85.2706	319.336	85.5935	319.336	85.0063	319.336	85.6266	319.336	84.6956	319.336	85.5701	319.336	84.3534	319.336	85.4319	319.336	83.9908	319.336	85.2261	319.336	83.6164	319.336	84.9663	319.336	83.2381	319.336	84.6597	319.336	82.8654	319.336	84.3042	319.336	82.5105	319.336	83.8933	319.336	82.1888	319.336	83.4288	319.336	81.9187	319.336	82.9362	319.336	81.7197	319.336	82.4733	319.336	81.6075	319.336	82.1157	319.336	81.5862	319.336	81.915	319.336	81.642	319.336	81.8613	319.336	81.7429	319.336	81.8895	319.336	81.8462	319.336	81.9235	319.336	81.9131
329.59	85.0006	329.59	84.7898	329.59	85.1347	329.59	84.5226	329.59	85.1799	329.59	84.2222	329.59	85.1349	329.59	83.9099	329.59	85.0107	329.59	83.5999	329.59	84.8294	329.59	83.2985	329.59	84.6179	329.59	83.0053	329.59	84.397	329.59	82.7168	329.59	84.1674	329.59	82.4311	329.59	83.9039	329.59	82.1509	329.59	83.5664	329.59	81.8868	329.59	83.1256	329.59	81.6579	329.59	82.5941	329.59	81.4882	329.59	82.0473	329.59	81.3958	329.59	81.6067	329.59	81.3792	329.59	81.3672	329.59	81.4103	329.59	81.3224	329.59	81.4425	329.59	81.3781	329.59	81.4343
341.309	84.9533	341.309	84.6649	341.309	85.1363	341.309	84.2895	341.309	85.2091	341.309	83.8555	341.309	85.1804	341.309	83.398	341.309	85.0706	341.309	82.9525	341.309	84.9066	341.309	82.5506	341.309	84.7143	341.309	82.2153	341.309	84.5102	341.309	81.9566	341.309	84.2937	341.309	81.7698	341.309	84.0466	341.309	81.6372	341.309	83.7426	341.309	81.5352	341.309	83.3635	341.309	81.445	341.309	82.9149	341.309	81.3604	341.309	82.4355	341.309	81.2889	341.309	81.9914	341.309	81.2436	341.309	81.6476	341.309	81.2304	341.309	81.4321	341.309	81.2426	341.309	81.3222	341.309	81.2707
353.027	84.6093	353.027	84.4395	353.027	84.6729	353.027	84.1834	353.027	84.6198	353.027	83.8626	353.027	84.4554	353.027	83.494	353.027	84.207	353.027	83.0859	353.027	83.9258	353.027	82.641	353.027	83.6794	353.027	82.1659	353.027	83.5262	353.027	81.6806	353.027	83.4786	353.027	81.2217	353.027	83.4835	353.027	80.8339	353.027	83.4449	353.027	80.552	353.027	83.271	353.027	80.3849	353.027	82.9148	353.027	80.3168	353.027	82.3966	353.027	80.3205	353.027	81.8066	353.027	80.3684	353.027	81.2735	353.027	80.4362	353.027	80.896	353.027	80.5058	353.027	80.6844	353.027	80.5771
366.211	84.8694	366.211	84.6693	366.211	84.9428	366.211	84.3657	366.211	84.8762	366.211	83.9863	366.211	84.6695	366.211	83.5552	366.211	84.3388	366.211	83.0857	366.211	83.9224	366.211	82.5794	366.211	83.4879	366.211	82.0354	366.211	83.127	366.211	81.4662	366.211	82.9169	366.211	80.912	366.211	82.8634	366.211	80.4376	366.211	82.8859	366.211	80.1026	366.211	82.8675	366.211	79.9227	366.211	82.7162	366.211	79.8607	366.211	82.3945	366.211	79.8592	366.211	81.9242	366.211	79.8794	366.211	81.3779	366.211	79.9171	366.211	80.8542	366.211	79.9962	366.211	80.4361	366.211	80.1558
379.395	84.4281	379.395	84.157	379.395	84.5857	379.395	83.8073	379.395	84.5998	379.395	83.415	379.395	84.4488	379.395	83.0106	379.395	84.125	379.395	82.6105	379.395	83.6448	379.395	82.2137	379.395	83.0618	379.395	81.8092	379.395	82.4746	379.395	81.3931	379.395	82.0103	379.395	80.9838	379.395	81.7673	379.395	80.6268	379.395	81.7511	379.395	80.3819	379.395	81.8743	379.395	80.2914	379.395	82.0229	379.395	80.3537	379.395	82.114	379.395	80.526	379.395	82.1127	379.395	80.7539	379.395	82.0224	379.395	80.9966	379.395	81.8671	379.395	81.234	379.395	81.6737	379.395	81.4603
392.578	84.6924	392.578	84.3781	392.578	84.8668	392.578	83.9572	392.578	84.8767	392.578	83.4699	392.578	84.7089	392.578	82.9588	392.578	84.3642	392.578	82.4603	392.578	83.8628	392.578	81.9955	392.578	83.2491	392.578	81.5672	392.578	82.5961	392.578	81.1684	392.578	82.0008	392.578	80.7965	392.578	81.5585	392.578	80.4672	392.578	81.3164	392.578	80.2151	392.578	81.2482	392.578	80.0813	392.578	81.2806	392.578	80.0897	392.578	81.3428	392.578	80.2302	392.578	81.3914	392.578	80.4602	392.578	81.4067	392.578	80.7228	392.578	81.379	392.578	80.968	392.578	81.3007	392.578	81.1645
405.762	84.9968	405.762	84.6983	405.762	85.1188	405.762	84.2551	405.762	85.0482	405.762	83.7082	405.762	84.7907	405.762	83.1014	405.762	84.3765	405.762	82.4738	405.762	83.8565	405.762	81.8539	405.762	83.2939	405.762	81.2604	405.762	82.7552	405.762	80.7103	405.762	82.3001	405.762	80.2309	405.762	81.9642	405.762	79.8635	405.762	81.7417	405.762	79.6531	405.762	81.5931	405.762	79.6252	405.762	81.4784	405.762	79.7683	405.762	81.3837	405.762	80.0359	405.762	81.3181	405.762	80.3642	405.762	81.2888	405.762	80.69	405.762	81.2782	405.762	80.9619	405.762	81.2458	405.762	81.1485
420.41	85.2479	420.41	85.0057	420.41	85.3202	420.41	84.6292	420.41	85.2094	420.41	84.1665	420.41	84.9303	420.41	83.6624	420.41	84.523	420.41	83.1431	420.41	84.0417	420.41	82.608	420.41	83.5388	420.41	82.0378	420.41	83.054	420.41	81.4162	420.41	82.6076	420.41	80.7575	420.41	82.1949	420.41	80.1266	420.41	81.7886	420.41	79.6305	420.41	81.3645	420.41	79.3675	420.41	80.9393	420.41	79.3613	420.41	80.5852	420.41	79.5488	420.41	80.3839	420.41	79.8281	420.41	80.3494	420.41	80.1082	420.41	80.4098	420.41	80.3262	420.41	80.4659	420.41	80.4475
435.059	84.0059	435.059	83.7836	435.059	84.0714	435.059	83.4333	435.059	83.9824	435.059	83.0092	435.059	83.7657	435.059	82.5716	435.059	83.4603	435.059	82.1596	435.059	83.1119	435.059	81.7719	435.059	82.7885	435.059	81.3725	435.059	82.5849	435.059	80.9189	435.059	82.5672	435.059	80.3931	435.059	82.6891	435.059	79.8232	435.059	82.8056	435.059	79.2863	435.059	82.7722	435.059	78.8869	435.059	82.5179	435.059	78.7057	435.059	82.0606	435.059	78.75	435.059	81.4909	435.059	78.9551	435.059	80.9287	435.059	79.2331	435.059	80.4599	435.059	79.5211	435.059	80.0975	435.059	79.801
451.172	85.3869	451.172	84.8689	451.172	85.6883	451.172	84.1529	451.172	85.7686	451.172	83.2952	451.172	85.6175	451.172	82.4081	451.172	85.2045	451.172	81.6467	451.172	84.4765	451.172	81.1322	451.172	83.3781	451.172	80.863	451.172	81.9146	451.172	80.7286	451.172	80.3061	451.172	80.6107	451.172	79.2115	451.172	80.4549	451.172	79.3482	451.172	80.2796	451.172	80.4051	451.172	80.1507	451.172	81.5603	451.172	80.1383	451.172	82.3869	451.172	80.2761	451.172	82.7908	451.172	80.5488	451.172	82.821	451.172	80.9135	451.172	82.5854	451.172	81.3291	451.172	82.2035	451.172	81.7677
465.82	85.5202	465.82	85.2117	465.82	85.6619	465.82	84.7228	465.82	85.6543	465.82	84.0559	465.82	85.506	465.82	83.2393	465.82	85.2073	465.82	82.3351	465.82	84.7361	465.82	81.4381	465.82	84.0799	465.82	80.6547	465.82	83.2569	465.82	80.0622	465.82	82.3167	465.82	79.6805	465.82	81.3214	465.82	79.4896	465.82	80.3525	465.82	79.4751	465.82	79.5903	465.82	79.6485	465.82	79.3626	465.82	80.0169	465.82	79.8492	465.82	80.5421	465.82	80.7539	465.82	81.1374	465.82	81.6239	465.82	81.7031	465.82	82.212	465.82	82.1552	465.82	82.4678	465.82	82.4294
483.398	84.6469	483.398	84.411	483.398	84.6865	483.398	83.9921	483.398	84.5339	483.398	83.4189	483.398	84.2109	483.398	82.736	483.398	83.7527	483.398	82.0022	483.398	83.1954	483.398	81.281	483.398	82.5636	483.398	80.6232	483.398	81.8743	483.398	80.0514	483.398	81.1709	483.398	79.5642	483.398	80.5688	483.398	79.1614	483.398	80.2305	483.398	78.8683	483.398	80.2258	483.398	78.7391	483.398	80.4465	483.398	78.8283	483.398	80.7265	483.398	79.1465	483.398	80.9728	483.398	79.635	483.398	81.1592	483.398	80.1854	483.398	81.2624	483.398	80.6843	483.398	81.2387	483.398	81.0483
499.512	84.7034	499.512	84.4503	499.512	84.7854	499.512	84.0452	499.512	84.7038	499.512	83.529	499.512	84.4829	499.512	82.946	499.512	84.1438	499.512	82.3221	499.512	83.6912	499.512	81.6547	499.512	83.116	499.512	80.9226	499.512	82.4102	499.512	80.1137	499.512	81.5835	499.512	79.2591	499.512	80.6783	499.512	78.4597	499.512	79.7924	499.512	77.8814	499.512	79.098	499.512	77.6823	499.512	78.7948	499.512	77.9006	499.512	78.9497	499.512	78.4243	499.512	79.4076	499.512	79.077	499.512	79.9258	499.512	79.7025	499.512	80.3264	499.512	80.1909	499.512	80.5202	499.512	80.4744
517.09	83.8076	517.09	83.4958	517.09	83.9749	517.09	83.0596	517.09	83.9971	517.09	82.5437	517.09	83.8906	517.09	82.0146	517.09	83.684	517.09	81.5394	517.09	83.4083	517.09	81.1514	517.09	83.0787	517.09	80.8277	517.09	82.6841	517.09	80.5045	517.09	82.1921	517.09	80.113	517.09	81.5623	517.09	79.6067	517.09	80.7636	517.09	78.986	517.09	79.817	517.09	78.3462	517.09	78.8976	517.09	77.9142	517.09	78.4067	517.09	77.939	517.09	78.6469	517.09	78.436	517.09	79.3477	517.09	79.1566	517.09	79.9994	517.09	79.821	517.09	80.3184	517.09	80.2437
536.133	84.0054	536.133	83.6823	536.133	84.0896	536.133	83.1395	536.133	83.9435	536.133	82.4241	536.133	83.5942	536.133	81.6102	536.133	83.0727	536.133	80.7964	536.133	82.4159	536.133	80.0941	536.133	81.7083	536.133	79.5968	536.133	81.119	536.133	79.3282	536.133	80.8255	536.133	79.2117	536.133	80.8382	536.133	79.1044	536.133	80.9521	536.133	78.8829	536.133	80.8887	536.133	78.5276	536.133	80.4456	536.133	78.1644	536.133	79.6118	536.133	78.0189	536.133	78.7167	536.133	78.2354	536.133	78.3639	536.133	78.7107	536.133	78.6971	536.133	79.173	536.133	79.1808	536.133	79.3711
555.176	84.1673	555.176	83.9143	555.176	84.1641	555.176	83.3921	555.176	83.9322	555.176	82.6026	555.176	83.51	555.176	81.5782	555.176	82.9258	555.176	80.4184	555.176	82.1748	555.176	79.3251	555.176	81.2306	555.176	78.5622	555.176	80.1003	555.176	78.2605	555.176	78.9008	555.176	78.2543	555.176	77.9435	555.176	78.2481	555.176	77.6803	555.176	78.0755	555.176	78.2152	555.176	77.7738	555.176	79.0431	555.176	77.5266	555.176	79.6201	555.176	77.5273	555.176	79.7461	555.176	77.8144	555.176	79.5301	555.176	78.2452	555.176	79.2361	555.176	78.6342	555.176	79.0389	555.176	78.8846
574.219	83.4195	574.219	83.0581	574.219	83.6335	574.219	82.5696	574.219	83.6988	574.219	81.9925	574.219	83.5991	574.219	81.3498	574.219	83.2787	574.219	80.627	574.219	82.675	574.219	79.8013	574.219	81.7866	574.219	78.9128	574.219	80.7077	574.219	78.1147	574.219	79.5849	574.219	77.6017	574.219	78.5481	574.219	77.4065	574.219	77.7276	574.219	77.3363	574.219	77.2814	574.219	77.195	574.219	77.2605	574.219	76.9836	574.219	77.5203	574.219	76.8963	574.219	77.8809	574.219	77.12	574.219	78.2382	574.219	77.6106	574.219	78.5181	574.219	78.1424	574.219	78.6343	574.219	78.5131
594.727	83.6025	594.727	83.259	594.727	83.7025	594.727	82.6967	594.727	83.56	594.727	81.9867	594.727	83.1914	594.727	81.2542	594.727	82.6353	594.727	80.6273	594.727	81.9661	594.727	80.1278	594.727	81.2843	594.727	79.6294	594.727	80.672	594.727	78.9706	594.727	80.1621	594.727	78.1134	594.727	79.7408	594.727	77.2408	594.727	79.3056	594.727	76.6701	594.727	78.6465	594.727	76.5068	594.727	77.6085	594.727	76.5526	594.727	76.4556	594.727	76.6771	594.727	76.0953	594.727	76.9706	594.727	76.8879	594.727	77.5065	594.727	77.9254	594.727	78.1286	594.727	78.5214	594.727	78.5485
615.234	83.4133	615.234	83.0975	615.234	83.4337	615.234	82.5157	615.234	83.1783	615.234	81.7475	615.234	82.6924	615.234	80.9048	615.234	82.0176	615.234	80.1096	615.234	81.1945	615.234	79.4761	615.234	80.3174	615.234	79.0731	615.234	79.5594	615.234	78.8485	615.234	79.0345	615.234	78.6185	615.234	78.6413	615.234	78.1937	615.234	78.264	615.234	77.5509	615.234	78.1256	615.234	76.9298	615.234	78.4726	615.234	76.69	615.234	78.8883	615.234	76.9436	615.234	78.8147	615.234	77.4812	615.234	78.2971	615.234	78.0345	615.234	77.956	615.234	78.3928	615.234	78.1339	615.234	78.4125
637.207	83.2365	637.207	82.7906	637.207	83.3637	637.207	82.0613	637.207	83.2237	637.207	81.1533	637.207	82.9162	637.207	80.1855	637.207	82.4958	637.207	79.2235	637.207	81.9069	637.207	78.269	637.207	81.0321	637.207	77.3742	637.207	79.8196	637.207	76.8002	637.207	78.4496	637.207	76.8362	637.207	77.4635	637.207	77.2616	637.207	77.2792	637.207	77.5096	637.207	77.4508	637.207	77.2657	637.207	77.3854	637.207	76.6337	637.207	77.0911	637.207	76.0983	637.207	76.9957	637.207	76.2117	637.207	77.3008	637.207	76.9166	637.207	77.7531	637.207	77.6609	637.207	78.0655	637.207	78.0667
659.18	83.321	659.18	82.901	659.18	83.4524	659.18	82.2429	659.18	83.3217	659.18	81.4841	659.18	82.9582	659.18	80.7615	659.18	82.3328	659.18	80.0967	659.18	81.3913	659.18	79.4068	659.18	80.1591	659.18	78.6556	659.18	78.8045	659.18	77.9301	659.18	77.5659	659.18	77.3115	659.18	76.6159	659.18	76.7611	659.18	76.1603	659.18	76.2506	659.18	76.2643	659.18	75.8925	659.18	76.2768	659.18	75.8071	659.18	75.6485	659.18	75.9573	659.18	75.1357	659.18	76.2733	659.18	75.945	659.18	76.7402	659.18	77.1679	659.18	77.2809	659.18	77.7699	659.18	77.7127
682.617	83.4039	682.617	83.0775	682.617	83.3541	682.617	82.3971	682.617	82.9416	682.617	81.4472	682.617	82.1905	682.617	80.3805	682.617	81.1546	682.617	79.3827	682.617	79.9962	682.617	78.5487	682.617	79.0212	682.617	77.7781	682.617	78.564	682.617	76.9552	682.617	78.6844	682.617	76.2519	682.617	78.8124	682.617	76.0087	682.617	78.3077	682.617	76.1418	682.617	77.5329	682.617	76.185	682.617	77.7163	682.617	75.9248	682.617	78.3156	682.617	75.5815	682.617	77.9755	682.617	75.6104	682.617	76.7554	682.617	76.214	682.617	76.204	682.617	76.9891	682.617	76.8623	682.617	77.3109
707.52	83.0631	707.52	82.8621	707.52	82.9625	707.52	82.2927	707.52	82.7543	707.52	81.4308	707.52	82.5238	707.52	80.3494	707.52	82.1118	707.52	79.0254	707.52	81.3278	707.52	77.5608	707.52	80.1334	707.52	76.5287	707.52	78.6248	707.52	76.3455	707.52	77.1098	707.52	76.409	707.52	76.2995	707.52	76.0561	707.52	76.3382	707.52	75.3736	707.52	76.1055	707.52	75.0048	707.52	75.1362	707.52	75.2082	707.52	74.8235	707.52	75.6803	707.52	75.8153	707.52	76.2474	707.52	76.4879	707.52	76.8915	707.52	76.6715	707.52	77.4221	707.52	77.0883	707.52	77.5084
732.422	83.3287	732.422	83.1674	732.422	83.1859	732.422	82.7273	732.422	82.7544	732.422	82.0188	732.422	82.0575	732.422	80.9974	732.422	81.1122	732.422	79.6741	732.422	80.0251	732.422	78.3054	732.422	78.9386	732.422	77.2962	732.422	77.7561	732.422	76.724	732.422	76.1144	732.422	76.3182	732.422	73.9207	732.422	75.9227	732.422	72.9319	732.422	75.5262	732.422	74.8195	732.422	75.0851	732.422	76.4628	732.422	74.6514	732.422	76.2784	732.422	74.4879	732.422	74.8193	732.422	74.9528	732.422	74.437	732.422	75.972	732.422	75.719	732.422	76.9303	732.422	76.8793	732.422	77.2994
757.324	83.1648	757.324	82.9757	757.324	83.0715	757.324	82.4928	757.324	82.7791	757.324	81.7754	757.324	82.3468	757.324	80.8879	757.324	81.6861	757.324	79.8175	757.324	80.6114	757.324	78.4719	757.324	79.1233	757.324	76.8454	757.324	77.6163	757.324	75.2237	757.324	76.4943	757.324	74.0756	757.324	75.4877	757.324	73.7221	757.324	74.0776	757.324	74.1579	757.324	73.4636	757.324	74.7922	757.324	75.4614	757.324	74.9459	757.324	77.5398	757.324	74.5461	757.324	78.1314	757.324	74.3555	757.324	77.2771	757.324	75.1276	757.324	76.0659	757.324	76.1488	757.324	76.0354	757.324	76.4636
785.156	81.1003	785.156	81.4111	785.156	80.889	785.156	81.3516	785.156	81.0676	785.156	80.7434	785.156	81.1792	785.156	79.4899	785.156	80.7286	785.156	77.3201	785.156	79.7992	785.156	74.4768	785.156	78.7934	785.156	74.2948	785.156	77.8297	785.156	76.4214	785.156	76.6907	785.156	77.3787	785.156	75.7095	785.156	76.9232	785.156	75.8865	785.156	75.6817	785.156	76.5928	785.156	74.0143	785.156	76.4172	785.156	71.4182	785.156	74.9732	785.156	68.9611	785.156	72.9292	785.156	71.2079	785.156	71.6978	785.156	73.9658	785.156	73.0722	785.156	75.538	785.156	75.3511	785.156	76.1586
811.523	82.8529	811.523	82.8595	811.523	81.9647	811.523	81.9509	811.523	80.8104	811.523	80.5001	811.523	80.4523	811.523	79.441	811.523	80.8013	811.523	79.445	811.523	80.6254	811.523	79.6782	811.523	79.1748	811.523	79.3408	811.523	77.0562	811.523	78.5331	811.523	76.6884	811.523	78.1589	811.523	77.9487	811.523	78.8171	811.523	79.0032	811.523	79.3271	811.523	78.8478	811.523	78.7772	811.523	76.1476	811.523	77.5419	811.523	66.6405	811.523	76.8316	811.523	69.0349	811.523	77.5759	811.523	76.5266	811.523	79.3153	811.523	79.4206	811.523	80.8401	811.523	80.8931	811.523	81.4071
840.82	86.837	840.82	86.9562	840.82	87.0745	840.82	86.8649	840.82	87.5914	840.82	86.0186	840.82	87.7491	840.82	84.1845	840.82	86.9541	840.82	81.6433	840.82	84.8429	840.82	79.1951	840.82	81.4977	840.82	77.0871	840.82	77.8547	840.82	75.3789	840.82	74.6435	840.82	74.8065	840.82	71.2414	840.82	75.5258	840.82	72.094	840.82	77.3074	840.82	76.6059	840.82	78.7989	840.82	78.3892	840.82	79.602	840.82	77.0063	840.82	80.3179	840.82	72.5508	840.82	81.0971	840.82	74.5768	840.82	82.2235	840.82	80.3108	840.82	83.5658	840.82	83.3232	840.82	84.2054
870.117	86.7545	870.117	85.6077	870.117	86.4356	870.117	83.442	870.117	84.7666	870.117	81.9491	870.117	82.6149	870.117	82.5861	870.117	81.8775	870.117	83.5503	870.117	82.7789	870.117	83.6919	870.117	83.289	870.117	83.1118	870.117	82.2591	870.117	81.8818	870.117	80.0656	870.117	79.6032	870.117	79.3201	870.117	75.7233	870.117	80.1915	870.117	70.3661	870.117	80.6412	870.117	72.6558	870.117	80.0871	870.117	77.0392	870.117	77.2228	870.117	78.7444	870.117	66.3714	870.117	79.2596	870.117	73.1129	870.117	80.1795	870.117	79.4065	870.117	81.4579	870.117	81.6705	870.117	82.1589
900.879	85.8837	900.879	86.8708	900.879	84.5744	900.879	86.6644	900.879	84.122	900.879	84.8981	900.879	84.1146	900.879	81.0119	900.879	83.7676	900.879	74.9637	900.879	83.0938	900.879	77.429	900.879	81.9024	900.879	81.4661	900.879	79.3677	900.879	83.4991	900.879	75.4507	900.879	84.0906	900.879	72.9105	900.879	82.6808	900.879	76.7123	900.879	77.8232	900.879	81.6523	900.879	73.0935	900.879	84.2046	900.879	78.7719	900.879	84.6502	900.879	80.656	900.879	82.5413	900.879	80.7272	900.879	77.8383	900.879	81.2435	900.879	80.5733	900.879	82.8122	900.879	83.8147	900.879	84.1447
933.105	84.923	933.105	84.785	933.105	84.9068	933.105	84.8199	933.105	84.3406	933.105	84.8449	933.105	82.8306	933.105	83.9427	933.105	80.4033	933.105	80.9553	933.105	78.1054	933.105	75.0596	933.105	77.3855	933.105	73.1592	933.105	78.2654	933.105	77.7617	933.105	79.2712	933.105	80.3467	933.105	79.0723	933.105	81.0952	933.105	76.5079	933.105	79.7892	933.105	65.9382	933.105	75.5125	933.105	73.5562	933.105	66.1563	933.105	79.8354	933.105	55.3308	933.105	81.0933	933.105	63.8751	933.105	79.5992	933.105	72.4304	933.105	72.7416	933.105	76.2388	933.105	67.0844	933.105	75.9028
965.332	84.9509	965.332	84.8338	965.332	84.255	965.332	84.4524	965.332	82.6367	965.332	83.9913	965.332	81.2625	965.332	83.1829	965.332	80.8723	965.332	81.7553	965.332	80.3129	965.332	79.8376	965.332	79.2692	965.332	78.2169	965.332	78.1885	965.332	78.0419	965.332	76.9061	965.332	78.9051	965.332	75.3848	965.332	79.1007	965.332	74.1533	965.332	77.5465	965.332	71.1934	965.332	74.2475	965.332	73.4242	965.332	71.3545	965.332	79.176	965.332	71.7495	965.332	80.1987	965.332	72.9644	965.332	77.2278	965.332	74.1935	965.332	68.5221	965.332	75.2709	965.332	67.4341	965.332	74.1247
1,000.49	83.7733	1,000.49	84.7055	1,000.49	82.6816	1,000.49	84.5723	1,000.49	82.709	1,000.49	83.4415	1,000.49	82.4295	1,000.49	81.5515	1,000.49	80.8093	1,000.49	79.2588	1,000.49	78.2752	1,000.49	77.3775	1,000.49	75.1073	1,000.49	77.5359	1,000.49	73.3266	1,000.49	79.1334	1,000.49	75.9804	1,000.49	80.2599	1,000.49	77.9161	1,000.49	80.5259	1,000.49	76.1133	1,000.49	79.6738	1,000.49	67.9505	1,000.49	76.9657	1,000.49	68.9904	1,000.49	72.2155	1,000.49	75.6251	1,000.49	66.8932	1,000.49	77.8658	1,000.49	65.4116	1,000.49	76.9519	1,000.49	71.3375	1,000.49	68.9646	1,000.49	75.392	1,000.49	68.7571	1,000.49	75.598
1,035.64	83.7599	1,035.64	83.6108	1,035.64	83.8353	1,035.64	83.905	1,035.64	82.5883	1,035.64	84.0611	1,035.64	80.1891	1,035.64	83.4826	1,035.64	79.6468	1,035.64	81.818	1,035.64	80.4178	1,035.64	79.022	1,035.64	80.2026	1,035.64	74.3447	1,035.64	79.4648	1,035.64	65.7877	1,035.64	79.6421	1,035.64	64.7707	1,035.64	80.504	1,035.64	69.1417	1,035.64	80.6472	1,035.64	66.9256	1,035.64	78.6042	1,035.64	61.6204	1,035.64	70.4419	1,035.64	70.772	1,035.64	69.6476	1,035.64	73.934	1,035.64	75.8192	1,035.64	75.1394	1,035.64	77.162	1,035.64	75.1317	1,035.64	76.0611	1,035.64	74.2921	1,035.64	69.3739	1,035.64	68.4456
1,072.27	83.4732	1,072.27	83.7045	1,072.27	82.4873	1,072.27	83.1014	1,072.27	81.586	1,072.27	82.0063	1,072.27	81.3447	1,072.27	81.207	1,072.27	80.521	1,072.27	80.8559	1,072.27	78.2208	1,072.27	80.5904	1,072.27	75.2984	1,072.27	79.797	1,072.27	74.2597	1,072.27	78.2015	1,072.27	73.8689	1,072.27	76.2695	1,072.27	72.7154	1,072.27	75.0267	1,072.27	73.1312	1,072.27	73.7755	1,072.27	74.0595	1,072.27	71.6089	1,072.27	74.2893	1,072.27	70.4904	1,072.27	72.6503	1,072.27	70.9397	1,072.27	66.5294	1,072.27	71.0211	1,072.27	73.4404	1,072.27	71.6991	1,072.27	74.431	1,072.27	72.0737	1,072.27	70.938	1,072.27	70.625
1,108.89	82.9488	1,108.89	83.463	1,108.89	82.2398	1,108.89	83.6046	1,108.89	81.5437	1,108.89	82.9413	1,108.89	80.8581	1,108.89	81.4876	1,108.89	79.6221	1,108.89	80.1029	1,108.89	77.8214	1,108.89	79.1168	1,108.89	76.1079	1,108.89	77.828	1,108.89	75.334	1,108.89	76.3667	1,108.89	75.4889	1,108.89	75.0796	1,108.89	75.5464	1,108.89	73.0828	1,108.89	73.0377	1,108.89	71.4646	1,108.89	67.7042	1,108.89	72.623	1,108.89	70.1228	1,108.89	73.8664	1,108.89	74.6567	1,108.89	73.3716	1,108.89	75.4734	1,108.89	73.495	1,108.89	71.0287	1,108.89	74.1086	1,108.89	70.0851	1,108.89	73.6883	1,108.89	73.3858	1,108.89	73.4598
1,148.44	82.0488	1,148.44	82.6531	1,148.44	81.8933	1,148.44	82.8836	1,148.44	81.5545	1,148.44	82.0376	1,148.44	79.8066	1,148.44	80.2817	1,148.44	77.4389	1,148.44	78.5049	1,148.44	76.6852	1,148.44	76.8555	1,148.44	77.016	1,148.44	75.1058	1,148.44	76.9222	1,148.44	74.1634	1,148.44	76.398	1,148.44	73.7713	1,148.44	75.4341	1,148.44	74.3002	1,148.44	74.595	1,148.44	74.0807	1,148.44	73.1562	1,148.44	71.3743	1,148.44	70.9686	1,148.44	70.4509	1,148.44	74.415	1,148.44	71.9132	1,148.44	72.8064	1,148.44	71.0594	1,148.44	68.8268	1,148.44	73.1049	1,148.44	69.3814	1,148.44	75.8984	1,148.44	70.7538	1,148.44	74.9754
1,189.45	82.7261	1,189.45	82.1355	1,189.45	82.6566	1,189.45	81.9977	1,189.45	81.1865	1,189.45	81.9616	1,189.45	79.7793	1,189.45	81.2239	1,189.45	78.9663	1,189.45	79.952	1,189.45	77.2529	1,189.45	78.4251	1,189.45	76.0513	1,189.45	75.9218	1,189.45	76.6302	1,189.45	72.4425	1,189.45	76.2871	1,189.45	71.4453	1,189.45	76.6694	1,189.45	73.806	1,189.45	77.9137	1,189.45	75.9703	1,189.45	76.6169	1,189.45	75.4198	1,189.45	70.4742	1,189.45	73.1363	1,189.45	70.6252	1,189.45	71.1541	1,189.45	78.3062	1,189.45	65.3221	1,189.45	78.4574	1,189.45	68.2628	1,189.45	70.7774	1,189.45	72.2142	1,189.45	64.3801	1,189.45	71.1922
1,230.47	85.6371	1,230.47	85.8444	1,230.47	84.8174	1,230.47	85.2057	1,230.47	83.1868	1,230.47	83.6501	1,230.47	81.7277	1,230.47	81.9177	1,230.47	81.5778	1,230.47	80.6673	1,230.47	80.7777	1,230.47	78.9645	1,230.47	80.2081	1,230.47	75.4221	1,230.47	79.8326	1,230.47	72.3307	1,230.47	76.8403	1,230.47	70.9625	1,230.47	72.1689	1,230.47	68.5025	1,230.47	72.5373	1,230.47	72.9691	1,230.47	75.6625	1,230.47	73.8984	1,230.47	73.7065	1,230.47	72.8886	1,230.47	68.9287	1,230.47	74.4102	1,230.47	75.7029	1,230.47	74.5054	1,230.47	77.9012	1,230.47	67.9748	1,230.47	77.7804	1,230.47	65.25	1,230.47	75.0386	1,230.47	69.6259
1,274.41	84.5422	1,274.41	85.012	1,274.41	83.0746	1,274.41	84.4427	1,274.41	81.5797	1,274.41	83.2105	1,274.41	80.9502	1,274.41	81.7307	1,274.41	79.3972	1,274.41	79.9994	1,274.41	78.0171	1,274.41	78.2359	1,274.41	78.1599	1,274.41	76.7735	1,274.41	78.0172	1,274.41	73.9233	1,274.41	77.1349	1,274.41	73.2792	1,274.41	74.678	1,274.41	74.266	1,274.41	72.0915	1,274.41	71.3528	1,274.41	73.3744	1,274.41	72.0847	1,274.41	75.0628	1,274.41	73.5419	1,274.41	71.1297	1,274.41	73.391	1,274.41	68.5484	1,274.41	71.5394	1,274.41	75.6506	1,274.41	66.208	1,274.41	72.4089	1,274.41	66.5949	1,274.41	73.3539	1,274.41	73.0657
1,319.82	84.3661	1,319.82	84.6576	1,319.82	83.1267	1,319.82	84.2322	1,319.82	81.1046	1,319.82	82.8544	1,319.82	80.0504	1,319.82	81.3719	1,319.82	78.4031	1,319.82	80.4743	1,319.82	76.7543	1,319.82	78.8717	1,319.82	77.8898	1,319.82	75.8419	1,319.82	78.5885	1,319.82	70.3123	1,319.82	76.6651	1,319.82	68.1591	1,319.82	72.9873	1,319.82	71.758	1,319.82	71.4337	1,319.82	71.5946	1,319.82	71.5352	1,319.82	69.0383	1,319.82	70.515	1,319.82	68.0984	1,319.82	64.4864	1,319.82	71.5687	1,319.82	73.4072	1,319.82	71.8039	1,319.82	74.8035	1,319.82	67.7738	1,319.82	73.6245	1,319.82	69.1608	1,319.82	72.8007	1,319.82	72.1967
1,366.7	83.708	1,366.7	84.2273	1,366.7	82.2838	1,366.7	83.382	1,366.7	81.1885	1,366.7	82.0718	1,366.7	79.6953	1,366.7	81.6501	1,366.7	77.8965	1,366.7	81.1517	1,366.7	78.7737	1,366.7	79.1538	1,366.7	79.6345	1,366.7	77.0351	1,366.7	78.9842	1,366.7	74.9021	1,366.7	78.3237	1,366.7	69.5244	1,366.7	77.3658	1,366.7	58.2797	1,366.7	75.5898	1,366.7	62.0716	1,366.7	73.5194	1,366.7	66.9785	1,366.7	68.166	1,366.7	66.9633	1,366.7	68.7321	1,366.7	70.1848	1,366.7	67.5665	1,366.7	71.1578	1,366.7	71.1131	1,366.7	67.212	1,366.7	70.5398	1,366.7	66.2339	1,366.7	70.4437	1,366.7	72.1951
1,413.57	82.6736	1,413.57	82.8898	1,413.57	81.2893	1,413.57	82.9805	1,413.57	78.2845	1,413.57	82.774	1,413.57	74.8098	1,413.57	81.4297	1,413.57	75.1054	1,413.57	79.1952	1,413.57	77.497	1,413.57	78.2673	1,413.57	77.3574	1,413.57	78.4583	1,413.57	76.0222	1,413.57	77.8497	1,413.57	75.9407	1,413.57	75.1084	1,413.57	74.7657	1,413.57	70.7591	1,413.57	71.3895	1,413.57	65.2593	1,413.57	71.0463	1,413.57	70.4328	1,413.57	74.5038	1,413.57	72.1207	1,413.57	72.3789	1,413.57	65.875	1,413.57	59.8015	1,413.57	68.3338	1,413.57	72.8389	1,413.57	68.8054	1,413.57	71.1516	1,413.57	61.7331	1,413.57	67.3535	1,413.57	65.8816
1,463.38	84.7606	1,463.38	84.9198	1,463.38	83.7244	1,463.38	85.1155	1,463.38	80.9344	1,463.38	84.7445	1,463.38	78.6012	1,463.38	82.4521	1,463.38	78.5638	1,463.38	79.4568	1,463.38	78.8341	1,463.38	78.0676	1,463.38	78.6011	1,463.38	77.3217	1,463.38	77.6525	1,463.38	74.435	1,463.38	77.5238	1,463.38	67.8366	1,463.38	77.3687	1,463.38	58.6863	1,463.38	75.0664	1,463.38	60.6842	1,463.38	74.364	1,463.38	67.2498	1,463.38	75.6996	1,463.38	71.5121	1,463.38	69.4151	1,463.38	68.6239	1,463.38	68.4361	1,463.38	72.4115	1,463.38	69.6855	1,463.38	73.2546	1,463.38	71.2515	1,463.38	70.7226	1,463.38	71.9394	1,463.38	70.0606
1,516.11	85.6762	1,516.11	85.584	1,516.11	83.6602	1,516.11	84.9468	1,516.11	80.299	1,516.11	84.6178	1,516.11	78.7654	1,516.11	82.9407	1,516.11	77.5113	1,516.11	79.2832	1,516.11	77.0319	1,516.11	78.4961	1,516.11	77.029	1,516.11	78.2253	1,516.11	78.5244	1,516.11	73.9616	1,516.11	79.6747	1,516.11	68.2076	1,516.11	77.9317	1,516.11	66.9844	1,516.11	76.5268	1,516.11	71.8988	1,516.11	74.2317	1,516.11	72.0879	1,516.11	72.4353	1,516.11	73.983	1,516.11	71.2577	1,516.11	71.3294	1,516.11	73.9328	1,516.11	69.7495	1,516.11	65.5163	1,516.11	74.4427	1,516.11	73.7286	1,516.11	74.5079	1,516.11	72.1106	1,516.11	73.7149
1,568.85	84.8096	1,568.85	86.1623	1,568.85	82.6195	1,568.85	85.6357	1,568.85	80.9331	1,568.85	84.6348	1,568.85	75.4414	1,568.85	83.7649	1,568.85	77.5749	1,568.85	80.4409	1,568.85	80.1029	1,568.85	78.3265	1,568.85	78.3269	1,568.85	78.0889	1,568.85	78.1774	1,568.85	73.7521	1,568.85	79.9616	1,568.85	74.3034	1,568.85	78.9433	1,568.85	71.2948	1,568.85	78.4864	1,568.85	52.4226	1,568.85	76.2731	1,568.85	70.2924	1,568.85	72.7404	1,568.85	73.8531	1,568.85	76.5081	1,568.85	67.3591	1,568.85	74.5943	1,568.85	59.5131	1,568.85	56.7108	1,568.85	72.3576	1,568.85	70.9474	1,568.85	73.8025	1,568.85	68.8344	1,568.85	70.3833
1,624.51	84.1692	1,624.51	86.1928	1,624.51	81.6545	1,624.51	85.7706	1,624.51	79.6063	1,624.51	83.4516	1,624.51	73.17	1,624.51	82.0135	1,624.51	80.4322	1,624.51	81.6194	1,624.51	81.6869	1,624.51	79.2507	1,624.51	78.2157	1,624.51	71.7042	1,624.51	78.7594	1,624.51	64.6823	1,624.51	80.4396	1,624.51	51.7915	1,624.51	78.865	1,624.51	65.1052	1,624.51	78.5081	1,624.51	61.2544	1,624.51	78.9011	1,624.51	63.2721	1,624.51	74.8486	1,624.51	72.315	1,624.51	73.9877	1,624.51	69.7836	1,624.51	67.9185	1,624.51	65.9479	1,624.51	61.4635	1,624.51	72.2827	1,624.51	65.011	1,624.51	72.3588	1,624.51	67.3588	1,624.51	68.6683
1,681.64	84.2193	1,681.64	85.3157	1,681.64	82.3441	1,681.64	86.2185	1,681.64	77.8377	1,681.64	85.2786	1,681.64	75.7808	1,681.64	81.9188	1,681.64	78.7094	1,681.64	78.1153	1,681.64	81.6555	1,681.64	77.7393	1,681.64	81.83	1,681.64	76.3947	1,681.64	81.3835	1,681.64	67.3167	1,681.64	80.5472	1,681.64	65.3331	1,681.64	78.667	1,681.64	67.2954	1,681.64	75.6866	1,681.64	68.2319	1,681.64	77.3452	1,681.64	64.8441	1,681.64	77.2739	1,681.64	67.7771	1,681.64	76.6798	1,681.64	74.2748	1,681.64	67.3073	1,681.64	71.4646	1,681.64	70.9203	1,681.64	71.756	1,681.64	68.3816	1,681.64	74.0106	1,681.64	70.5721	1,681.64	73.0221
1,741.7	86.1526	1,741.7	86.4594	1,741.7	82.3603	1,741.7	84.8567	1,741.7	77.0944	1,741.7	83.8478	1,741.7	72.1737	1,741.7	82.7872	1,741.7	81.4363	1,741.7	80.1608	1,741.7	83.0681	1,741.7	66.5805	1,741.7	81.0836	1,741.7	70.9679	1,741.7	79.7013	1,741.7	57.5094	1,741.7	78.1394	1,741.7	64.1981	1,741.7	78.7804	1,741.7	61.414	1,741.7	77.9468	1,741.7	64.6524	1,741.7	76.5626	1,741.7	63.4261	1,741.7	72.4664	1,741.7	64.5823	1,741.7	78.111	1,741.7	69.2365	1,741.7	71.9563	1,741.7	70.1325	1,741.7	70.3526	1,741.7	72.2881	1,741.7	68.6558	1,741.7	71.5129	1,741.7	70.4177	1,741.7	69.6792
1,803.22	85.6857	1,803.22	86.4557	1,803.22	81.9285	1,803.22	85.5884	1,803.22	76.2074	1,803.22	84.9412	1,803.22	76.9878	1,803.22	81.8783	1,803.22	81.4977	1,803.22	76.8151	1,803.22	84.7652	1,803.22	75.8075	1,803.22	84.926	1,803.22	77.1656	1,803.22	81.2553	1,803.22	77.0301	1,803.22	77.3697	1,803.22	67.1774	1,803.22	78.4096	1,803.22	68.4847	1,803.22	76.8588	1,803.22	75.4545	1,803.22	75.8632	1,803.22	73.726	1,803.22	76.3592	1,803.22	71.9847	1,803.22	76.7787	1,803.22	66.5811	1,803.22	65.8084	1,803.22	65.3632	1,803.22	75.3724	1,803.22	72.0435	1,803.22	71.9537	1,803.22	69.4623	1,803.22	72.1295	1,803.22	69.319
1,866.21	84.4639	1,866.21	86.7451	1,866.21	81.5983	1,866.21	85.9871	1,866.21	75.5998	1,866.21	84.2442	1,866.21	78.0415	1,866.21	82.7777	1,866.21	83.3197	1,866.21	74.5869	1,866.21	84.3868	1,866.21	66.7349	1,866.21	84.1898	1,866.21	73.9146	1,866.21	79.9989	1,866.21	74.5582	1,866.21	76.4832	1,866.21	66.6505	1,866.21	77.9732	1,866.21	65.4452	1,866.21	75.1862	1,866.21	77.1869	1,866.21	73.7754	1,866.21	76.3241	1,866.21	75.5796	1,866.21	64.8044	1,866.21	76.2445	1,866.21	62.4489	1,866.21	75.425	1,866.21	60.5542	1,866.21	64.4165	1,866.21	64.1005	1,866.21	70.7935	1,866.21	68.3964	1,866.21	70.8618	1,866.21	67.5998
1,932.13	83.9227	1,932.13	84.7387	1,932.13	80.5919	1,932.13	86.4486	1,932.13	68.8014	1,932.13	85.1725	1,932.13	77.0011	1,932.13	78.9255	1,932.13	82.6152	1,932.13	73.6955	1,932.13	84.3421	1,932.13	69.6469	1,932.13	84.2661	1,932.13	64.9569	1,932.13	82.6017	1,932.13	69.7048	1,932.13	79.081	1,932.13	70.8126	1,932.13	78.7282	1,932.13	66.2954	1,932.13	76.759	1,932.13	69.1056	1,932.13	76.8044	1,932.13	70.9129	1,932.13	76.3579	1,932.13	64.7041	1,932.13	76.1174	1,932.13	54.6932	1,932.13	69.2979	1,932.13	55.4028	1,932.13	68.9018	1,932.13	66.8333	1,932.13	67.0541	1,932.13	66.3283	1,932.13	67.9462	1,932.13	65.0415
1,999.51	84.1675	1,999.51	85.4129	1,999.51	81.4784	1,999.51	86.0012	1,999.51	70.9896	1,999.51	83.2529	1,999.51	76.7563	1,999.51	77.3025	1,999.51	82.1451	1,999.51	68.2407	1,999.51	84.3228	1,999.51	64.6938	1,999.51	84.6046	1,999.51	68.6132	1,999.51	83.0524	1,999.51	71.4365	1,999.51	79.6825	1,999.51	70.4067	1,999.51	76.4839	1,999.51	73.4994	1,999.51	75.7605	1,999.51	66.5013	1,999.51	76.1314	1,999.51	70.7765	1,999.51	73.4873	1,999.51	70.1327	1,999.51	73.3046	1,999.51	33.7688	1,999.51	67.5779	1,999.51	59.4664	1,999.51	67.0401	1,999.51	62.2779	1,999.51	67.3212	1,999.51	66.2499	1,999.51	66.4184	1,999.51	62.0912
2,069.82	84.6593	2,069.82	86.664	2,069.82	82.0163	2,069.82	85.6481	2,069.82	71.1376	2,069.82	80.8449	2,069.82	76.4249	2,069.82	75.4585	2,069.82	82.2887	2,069.82	64.9896	2,069.82	84.654	2,069.82	71.4377	2,069.82	84.4079	2,069.82	74.5738	2,069.82	82.4122	2,069.82	75.7752	2,069.82	79.6724	2,069.82	71.8818	2,069.82	76.2275	2,069.82	72.029	2,069.82	75.2218	2,069.82	74.2256	2,069.82	76.8327	2,069.82	68.0953	2,069.82	72.0907	2,069.82	69.97	2,069.82	69.8666	2,069.82	58.8161	2,069.82	70.4412	2,069.82	64.6631	2,069.82	60.8354	2,069.82	57.1597	2,069.82	69.9801	2,069.82	71.371	2,069.82	67.6622	2,069.82	68.2461
2,143.07	84.5602	2,143.07	87.2105	2,143.07	81.0973	2,143.07	85.4857	2,143.07	70.6466	2,143.07	81.2228	2,143.07	77.6243	2,143.07	74.5431	2,143.07	82.5489	2,143.07	67.4846	2,143.07	84.1706	2,143.07	74.1991	2,143.07	83.6638	2,143.07	74.4933	2,143.07	82.3354	2,143.07	74.5389	2,143.07	79.6615	2,143.07	76.0988	2,143.07	76.4711	2,143.07	70.5937	2,143.07	75.0143	2,143.07	71.136	2,143.07	75.9347	2,143.07	71.6881	2,143.07	75.5022	2,143.07	72.139	2,143.07	70.7008	2,143.07	68.8925	2,143.07	69.0714	2,143.07	59.7667	2,143.07	58.3573	2,143.07	63.181	2,143.07	74.0847	2,143.07	74.7718	2,143.07	73.4291	2,143.07	72.9039
2,219.24	83.9032	2,219.24	85.9924	2,219.24	79.8343	2,219.24	85.3446	2,219.24	69.143	2,219.24	80.9205	2,219.24	77.6768	2,219.24	57.2822	2,219.24	82.8895	2,219.24	73.3002	2,219.24	83.9056	2,219.24	74.7136	2,219.24	83.1644	2,219.24	77.2723	2,219.24	81.1355	2,219.24	75.4554	2,219.24	77.2619	2,219.24	72.8659	2,219.24	75.7516	2,219.24	73.8096	2,219.24	77.1866	2,219.24	71.8879	2,219.24	75.8641	2,219.24	71.5552	2,219.24	74.4357	2,219.24	70.7096	2,219.24	75.714	2,219.24	71.8462	2,219.24	66.314	2,219.24	56.0509	2,219.24	63.7454	2,219.24	48.6611	2,219.24	71.0333	2,219.24	72.1996	2,219.24	70.2935	2,219.24	72.8732
2,296.88	84.3897	2,296.88	86.2787	2,296.88	79.0929	2,296.88	84.367	2,296.88	72.115	2,296.88	77.7128	2,296.88	77.2606	2,296.88	68.1275	2,296.88	83.4228	2,296.88	73.3099	2,296.88	83.9688	2,296.88	75.4044	2,296.88	83.4392	2,296.88	73.3578	2,296.88	80.7391	2,296.88	75.6238	2,296.88	76.7932	2,296.88	76.4345	2,296.88	72.3472	2,296.88	75.4383	2,296.88	72.9666	2,296.88	70.205	2,296.88	76.1323	2,296.88	72.8965	2,296.88	74.8769	2,296.88	68.8664	2,296.88	75.4186	2,296.88	71.3018	2,296.88	65.7646	2,296.88	61.9026	2,296.88	64.0148	2,296.88	57.3288	2,296.88	64.6779	2,296.88	70.2302	2,296.88	70.8607	2,296.88	72.5585
2,378.91	84.5752	2,378.91	86.7165	2,378.91	79.0126	2,378.91	83.0878	2,378.91	73.2893	2,378.91	75.1449	2,378.91	77.6552	2,378.91	70.7791	2,378.91	83.1834	2,378.91	75.9714	2,378.91	83.496	2,378.91	77.6523	2,378.91	82.5458	2,378.91	79.1852	2,378.91	80.6643	2,378.91	76.4233	2,378.91	78.8515	2,378.91	74.7625	2,378.91	77.0442	2,378.91	75.267	2,378.91	73.185	2,378.91	72.2849	2,378.91	71.8454	2,378.91	71.7276	2,378.91	73.6947	2,378.91	71.3697	2,378.91	74.3016	2,378.91	70.9253	2,378.91	68.3346	2,378.91	67.1415	2,378.91	61.1504	2,378.91	64.0187	2,378.91	66.4582	2,378.91	67.9212	2,378.91	71.1417	2,378.91	70.832
2,462.4	84.7942	2,462.4	85.5377	2,462.4	78.2063	2,462.4	82.8628	2,462.4	76.3789	2,462.4	77.2688	2,462.4	79.1114	2,462.4	74.8724	2,462.4	82.5481	2,462.4	77.3796	2,462.4	83.1984	2,462.4	79.3312	2,462.4	82.7738	2,462.4	77.3103	2,462.4	80.5288	2,462.4	77.2898	2,462.4	75.3951	2,462.4	76.0409	2,462.4	75.4691	2,462.4	72.4439	2,462.4	73.3625	2,462.4	72.8289	2,462.4	72.8394	2,462.4	70.3708	2,462.4	73.2126	2,462.4	72.2129	2,462.4	73.2906	2,462.4	70.0582	2,462.4	66.4635	2,462.4	67.1973	2,462.4	63.6361	2,462.4	62.2449	2,462.4	68.9064	2,462.4	67.9888	2,462.4	71.04	2,462.4	71.1773
2,548.83	84.4423	2,548.83	85.2201	2,548.83	79.2703	2,548.83	83.0985	2,548.83	76.9297	2,548.83	77.9845	2,548.83	80.9288	2,548.83	77.1161	2,548.83	82.4319	2,548.83	80.0979	2,548.83	82.4961	2,548.83	78.7948	2,548.83	81.4761	2,548.83	77.8846	2,548.83	78.1059	2,548.83	75.5232	2,548.83	78.1079	2,548.83	72.0415	2,548.83	76.105	2,548.83	74.9619	2,548.83	69.0067	2,548.83	73.4406	2,548.83	70.2141	2,548.83	69.4257	2,548.83	72.0986	2,548.83	71.9702	2,548.83	71.3684	2,548.83	70.3829	2,548.83	65.0458	2,548.83	64.7213	2,548.83	59.5204	2,548.83	65.7069	2,548.83	68.2447	2,548.83	68.8914	2,548.83	72.3885	2,548.83	72.0373
2,639.65	83.8647	2,639.65	84.9231	2,639.65	78.0436	2,639.65	82.7636	2,639.65	78.7958	2,639.65	77.5096	2,639.65	81.4675	2,639.65	78.7105	2,639.65	82.8255	2,639.65	79.304	2,639.65	82.6759	2,639.65	79.064	2,639.65	81.5214	2,639.65	77.3912	2,639.65	78.8138	2,639.65	78.4708	2,639.65	78.3192	2,639.65	75.8218	2,639.65	74.2919	2,639.65	73.8141	2,639.65	64.205	2,639.65	71.0135	2,639.65	66.3517	2,639.65	70.1128	2,639.65	65.1476	2,639.65	67.1528	2,639.65	69.6709	2,639.65	71.5099	2,639.65	64.5591	2,639.65	67.4668	2,639.65	47.0497	2,639.65	62.9056	2,639.65	69.454	2,639.65	66.585	2,639.65	72.0884	2,639.65	70.8467
2,731.93	83.2099	2,731.93	84.1136	2,731.93	75.882	2,731.93	81.7466	2,731.93	78.5138	2,731.93	78.8559	2,731.93	81.5428	2,731.93	77.9043	2,731.93	82.8652	2,731.93	79.3531	2,731.93	83.1549	2,731.93	79.0999	2,731.93	80.5941	2,731.93	77.6748	2,731.93	77.0121	2,731.93	74.9966	2,731.93	76.749	2,731.93	75.5817	2,731.93	69.7374	2,731.93	71.7521	2,731.93	59.0063	2,731.93	71.0798	2,731.93	62.6508	2,731.93	70.6198	2,731.93	70.1178	2,731.93	68.7127	2,731.93	68.8907	2,731.93	68.2743	2,731.93	66.3712	2,731.93	68.6213	2,731.93	65.1378	2,731.93	64.9512	2,731.93	69.5759	2,731.93	65.7304	2,731.93	68.6289	2,731.93	70.4692
2,828.61	83.4461	2,828.61	84.2314	2,828.61	77.6978	2,828.61	82.7896	2,828.61	77.2128	2,828.61	79.3248	2,828.61	81.9422	2,828.61	77.7987	2,828.61	81.4725	2,828.61	79.3046	2,828.61	82.6097	2,828.61	78.4737	2,828.61	79.6517	2,828.61	77.2405	2,828.61	78.8416	2,828.61	73.4624	2,828.61	77.8176	2,828.61	74.631	2,828.61	67.0311	2,828.61	73.2414	2,828.61	67.2319	2,828.61	73.2746	2,828.61	65.4561	2,828.61	69.5072	2,828.61	70.9427	2,828.61	69.0728	2,828.61	61.3074	2,828.61	66.599	2,828.61	66.691	2,828.61	66.8481	2,828.61	64.7656	2,828.61	62.9863	2,828.61	70.772	2,828.61	65.9867	2,828.61	70.1916	2,828.61	69.167
2,928.22	82.5952	2,928.22	84.0524	2,928.22	77.4939	2,928.22	82.8106	2,928.22	77.6499	2,928.22	78.794	2,928.22	83.2241	2,928.22	79.0636	2,928.22	82.2372	2,928.22	79.0628	2,928.22	81.6628	2,928.22	78.436	2,928.22	79.6658	2,928.22	75.9528	2,928.22	77.8803	2,928.22	77.8365	2,928.22	75.7843	2,928.22	74.3857	2,928.22	69.1354	2,928.22	73.1342	2,928.22	70.6328	2,928.22	71.583	2,928.22	72.0686	2,928.22	70.3922	2,928.22	69.8334	2,928.22	69.0369	2,928.22	66.831	2,928.22	68.9455	2,928.22	67.1024	2,928.22	62.8945	2,928.22	62.0159	2,928.22	64.7385	2,928.22	71.1537	2,928.22	68.532	2,928.22	68.691	2,928.22	68.8566
3,030.76	82.9888	3,030.76	84.6558	3,030.76	76.575	3,030.76	82.2888	3,030.76	77.1901	3,030.76	78.0679	3,030.76	83.9803	3,030.76	78.2021	3,030.76	83.6058	3,030.76	79.7871	3,030.76	80.965	3,030.76	79.5569	3,030.76	79.0744	3,030.76	79.109	3,030.76	77.6727	3,030.76	76.2803	3,030.76	75.4728	3,030.76	75.3219	3,030.76	74.5374	3,030.76	74.4293	3,030.76	71.0575	3,030.76	74.2458	3,030.76	72.0113	3,030.76	72.3802	3,030.76	64.3011	3,030.76	71.2168	3,030.76	66.1694	3,030.76	70.6389	3,030.76	67.3622	3,030.76	68.8519	3,030.76	64.9149	3,030.76	58.3311	3,030.76	71.0166	3,030.76	69.0235	3,030.76	68.6368	3,030.76	68.4313
3,137.7	83.6858	3,137.7	84.5113	3,137.7	78.6022	3,137.7	82.5399	3,137.7	74.9002	3,137.7	78.6325	3,137.7	83.2441	3,137.7	80.5745	3,137.7	83.9271	3,137.7	81.9029	3,137.7	81.7691	3,137.7	81.4677	3,137.7	79.7165	3,137.7	79.9186	3,137.7	78.4277	3,137.7	79.4601	3,137.7	77.1908	3,137.7	78.4427	3,137.7	77.6494	3,137.7	75.4201	3,137.7	70.2374	3,137.7	75.1877	3,137.7	69.1612	3,137.7	72.6698	3,137.7	66.9815	3,137.7	72.4622	3,137.7	63.614	3,137.7	72.1214	3,137.7	66.0838	3,137.7	70.8903	3,137.7	65.0985	3,137.7	58.0703	3,137.7	69.9589	3,137.7	69.2352	3,137.7	69.4378	3,137.7	71.4465
3,249.02	82.7806	3,249.02	83.7433	3,249.02	79.497	3,249.02	82.0943	3,249.02	73.5101	3,249.02	80.7685	3,249.02	81.5285	3,249.02	82.4492	3,249.02	83.8037	3,249.02	83.0992	3,249.02	81.7998	3,249.02	82.3818	3,249.02	81.1431	3,249.02	81.7914	3,249.02	80.7433	3,249.02	80.7567	3,249.02	80.0989	3,249.02	76.9958	3,249.02	79.5861	3,249.02	75.1573	3,249.02	69.9235	3,249.02	74.5596	3,249.02	70.6755	3,249.02	72.8071	3,249.02	70.366	3,249.02	71.8737	3,249.02	66.6434	3,249.02	72.2213	3,249.02	67.3181	3,249.02	71.2146	3,249.02	66.1521	3,249.02	66.2079	3,249.02	70.1227	3,249.02	68.8024	3,249.02	69.6399	3,249.02	72.4775
3,363.28	83.0508	3,363.28	85.0164	3,363.28	80.3286	3,363.28	82.0818	3,363.28	76.6516	3,363.28	82.0454	3,363.28	82.1877	3,363.28	83.7619	3,363.28	84.15	3,363.28	84.5857	3,363.28	81.4198	3,363.28	83.7639	3,363.28	83.4651	3,363.28	82.5945	3,363.28	81.8856	3,363.28	78.7378	3,363.28	81.4503	3,363.28	78.292	3,363.28	80.0731	3,363.28	76.3443	3,363.28	70.7798	3,363.28	74.4558	3,363.28	70.7197	3,363.28	73.098	3,363.28	71.3174	3,363.28	70.9492	3,363.28	61.5832	3,363.28	72.8298	3,363.28	68.3884	3,363.28	71.7002	3,363.28	67.99	3,363.28	66.5151	3,363.28	70.8662	3,363.28	68.8542	3,363.28	69.838	3,363.28	71.0041
3,481.93	83.8296	3,481.93	85.3466	3,481.93	81.3606	3,481.93	82.3571	3,481.93	79.6422	3,481.93	84.0238	3,481.93	83.4629	3,481.93	84.2873	3,481.93	84.2723	3,481.93	85.1886	3,481.93	81.6282	3,481.93	84.001	3,481.93	85.6601	3,481.93	80.5862	3,481.93	83.0491	3,481.93	79.9889	3,481.93	82.2843	3,481.93	76.9334	3,481.93	74.0614	3,481.93	73.0142	3,481.93	67.4144	3,481.93	73.2819	3,481.93	73.1441	3,481.93	70.4654	3,481.93	72.8025	3,481.93	69.1396	3,481.93	57.8624	3,481.93	70.5779	3,481.93	68.9857	3,481.93	70.5046	3,481.93	71.0808	3,481.93	65.1039	3,481.93	70.6301	3,481.93	69.5109	3,481.93	71.748	3,481.93	72.3675
3,604.98	83.9069	3,604.98	84.9949	3,604.98	81.1956	3,604.98	83.3086	3,604.98	81.5412	3,604.98	83.7498	3,604.98	83.9506	3,604.98	85.6447	3,604.98	84.6826	3,604.98	85.8827	3,604.98	83.0094	3,604.98	82.4277	3,604.98	86.2047	3,604.98	80.1413	3,604.98	84.4132	3,604.98	77.7737	3,604.98	81.1849	3,604.98	76.1024	3,604.98	66.7226	3,604.98	75.6201	3,604.98	62.2621	3,604.98	71.8487	3,604.98	71.8513	3,604.98	71.2349	3,604.98	71.4582	3,604.98	67.6105	3,604.98	63.437	3,604.98	69.5317	3,604.98	69.6708	3,604.98	69.4834	3,604.98	69.7637	3,604.98	68.2159	3,604.98	69.9686	3,604.98	69.3711	3,604.98	71.7598	3,604.98	71.7253
3,732.42	85.1532	3,732.42	84.3923	3,732.42	79.8465	3,732.42	84.7044	3,732.42	82.8597	3,732.42	84.8183	3,732.42	84.3384	3,732.42	86.5443	3,732.42	84.0963	3,732.42	84.1954	3,732.42	83.0266	3,732.42	81.7716	3,732.42	86.2766	3,732.42	79.7072	3,732.42	83.9451	3,732.42	79.4867	3,732.42	82.4399	3,732.42	77.1906	3,732.42	78.3342	3,732.42	75.4276	3,732.42	62.1312	3,732.42	74.3521	3,732.42	67.3669	3,732.42	71.0354	3,732.42	68.1315	3,732.42	69.5816	3,732.42	67.4904	3,732.42	68.0091	3,732.42	70.4515	3,732.42	68.1882	3,732.42	68.6642	3,732.42	65.996	3,732.42	68.2573	3,732.42	66.0699	3,732.42	71.9358	3,732.42	71.1302
3,864.26	85.1045	3,864.26	85.4535	3,864.26	80.3962	3,864.26	85.4283	3,864.26	82.9147	3,864.26	85.069	3,864.26	84.271	3,864.26	85.697	3,864.26	84.8714	3,864.26	83.4106	3,864.26	83.9121	3,864.26	81.9416	3,864.26	86.6267	3,864.26	81.8759	3,864.26	83.4705	3,864.26	80.2561	3,864.26	81.1454	3,864.26	75.4368	3,864.26	78.0233	3,864.26	74.658	3,864.26	69.0376	3,864.26	73.9595	3,864.26	71.3212	3,864.26	71.7402	3,864.26	71.9311	3,864.26	69.5599	3,864.26	67.9644	3,864.26	68.2249	3,864.26	70.3788	3,864.26	68.3661	3,864.26	68.7772	3,864.26	65.2503	3,864.26	67.1107	3,864.26	66.0124	3,864.26	72.1279	3,864.26	71.1938
4,000.49	85.0646	4,000.49	84.8449	4,000.49	82.2878	4,000.49	83.2857	4,000.49	84.4125	4,000.49	86.5296	4,000.49	85.0309	4,000.49	84.7143	4,000.49	86.4117	4,000.49	84.2355	4,000.49	83.6525	4,000.49	81.68	4,000.49	86.0506	4,000.49	80.88	4,000.49	82.3574	4,000.49	76.3482	4,000.49	79.3309	4,000.49	78.2477	4,000.49	77.929	4,000.49	75.2212	4,000.49	74.5291	4,000.49	74.0345	4,000.49	76.0566	4,000.49	71.717	4,000.49	69.8637	4,000.49	70.1598	4,000.49	65.4237	4,000.49	68.7007	4,000.49	71.7	4,000.49	66.8564	4,000.49	69.3997	4,000.49	63.7802	4,000.49	65.673	4,000.49	67.2941	4,000.49	70.8634	4,000.49	69.0769
4,141.11	86.0261	4,141.11	84.2486	4,141.11	81.8619	4,141.11	84.9031	4,141.11	84.6327	4,141.11	87.1083	4,141.11	85.6799	4,141.11	83.956	4,141.11	86.38	4,141.11	84.1437	4,141.11	84.9369	4,141.11	82.4906	4,141.11	85.738	4,141.11	80.6939	4,141.11	80.9765	4,141.11	80.4543	4,141.11	80.8942	4,141.11	74.87	4,141.11	81.8104	4,141.11	74.4465	4,141.11	75.8743	4,141.11	72.7136	4,141.11	75.3428	4,141.11	71.6481	4,141.11	69.6009	4,141.11	70.2748	4,141.11	68.6777	4,141.11	68.1612	4,141.11	72.0793	4,141.11	68.3896	4,141.11	69.8719	4,141.11	63.0986	4,141.11	64.2366	4,141.11	65.7247	4,141.11	71.7721	4,141.11	70.4273
4,287.6	86.2497	4,287.6	85.5167	4,287.6	82.3195	4,287.6	86.0289	4,287.6	84.2077	4,287.6	84.9077	4,287.6	86.9411	4,287.6	84.2768	4,287.6	86.1397	4,287.6	84.94	4,287.6	83.5581	4,287.6	81.5758	4,287.6	82.7145	4,287.6	81.4135	4,287.6	81.5977	4,287.6	77.3791	4,287.6	83.3483	4,287.6	78.9009	4,287.6	81.9073	4,287.6	76.6075	4,287.6	73.4536	4,287.6	72.3119	4,287.6	64.092	4,287.6	71.6682	4,287.6	70.2605	4,287.6	69.5301	4,287.6	70.38	4,287.6	69.7379	4,287.6	68.2051	4,287.6	67.4879	4,287.6	71.2259	4,287.6	61.3651	4,287.6	63.429	4,287.6	63.7488	4,287.6	72.0035	4,287.6	69.6694
4,438.48	85.9688	4,438.48	84.118	4,438.48	84.1952	4,438.48	85.614	4,438.48	83.8933	4,438.48	85.9034	4,438.48	87.0117	4,438.48	85.138	4,438.48	86.258	4,438.48	83.4565	4,438.48	81.5835	4,438.48	82.4444	4,438.48	78.0917	4,438.48	80.0661	4,438.48	85.0024	4,438.48	79.2315	4,438.48	84.7005	4,438.48	72.9837	4,438.48	76.7183	4,438.48	73.6012	4,438.48	65.2854	4,438.48	72.7375	4,438.48	69.6923	4,438.48	71.7361	4,438.48	65.6409	4,438.48	68.068	4,438.48	68.6612	4,438.48	68.6118	4,438.48	67.4293	4,438.48	67.7792	4,438.48	68.8951	4,438.48	61.4899	4,438.48	62.1614	4,438.48	60.1163	4,438.48	72.4933	4,438.48	67.6646
4,595.21	87.1239	4,595.21	85.8997	4,595.21	86.1356	4,595.21	86.7146	4,595.21	84.7566	4,595.21	85.0028	4,595.21	86.5757	4,595.21	84.0925	4,595.21	85.2594	4,595.21	84.3323	4,595.21	81.3742	4,595.21	81.6734	4,595.21	81.4867	4,595.21	81.0039	4,595.21	87.6044	4,595.21	77.3778	4,595.21	83.0787	4,595.21	78.1827	4,595.21	76.2921	4,595.21	75.2375	4,595.21	65.1462	4,595.21	73.3277	4,595.21	73.3648	4,595.21	71.3304	4,595.21	63.0098	4,595.21	71.3882	4,595.21	62.7939	4,595.21	69.4133	4,595.21	64.0604	4,595.21	66.9752	4,595.21	69.3111	4,595.21	63.1358	4,595.21	66.7469	4,595.21	66.66	4,595.21	72.1263	4,595.21	69.5375
4,756.35	86.307	4,756.35	86.7334	4,756.35	85.4673	4,756.35	86.2502	4,756.35	85.5176	4,756.35	85.953	4,756.35	86.8321	4,756.35	85.3878	4,756.35	84.5884	4,756.35	83.9433	4,756.35	81.676	4,756.35	81.3015	4,756.35	84.956	4,756.35	80.3208	4,756.35	88.1026	4,756.35	79.2197	4,756.35	79.6301	4,756.35	75.9675	4,756.35	78.5	4,756.35	75.4669	4,756.35	62.4417	4,756.35	71.9635	4,756.35	71.4256	4,756.35	71.5667	4,756.35	65.2124	4,756.35	71.0416	4,756.35	69.2132	4,756.35	68.2002	4,756.35	69.0799	4,756.35	69.4052	4,756.35	71.0659	4,756.35	60.7467	4,756.35	59.5043	4,756.35	61.7509	4,756.35	71.437	4,756.35	68.215
4,924.8	86.66	4,924.8	86.7806	4,924.8	87.3078	4,924.8	86.2156	4,924.8	85.4223	4,924.8	86.06	4,924.8	85.3079	4,924.8	84.0098	4,924.8	83.9016	4,924.8	84.0618	4,924.8	81.9222	4,924.8	81.935	4,924.8	85.3973	4,924.8	81.5869	4,924.8	86.2744	4,924.8	78.4331	4,924.8	78.5249	4,924.8	78.0047	4,924.8	78.5701	4,924.8	74.3895	4,924.8	63.2994	4,924.8	74.3831	4,924.8	63.0828	4,924.8	71.1106	4,924.8	68.9693	4,924.8	71.5063	4,924.8	68.6882	4,924.8	68.1026	4,924.8	70.2274	4,924.8	68.9791	4,924.8	69.6529	4,924.8	63.1672	4,924.8	58.4835	4,924.8	61.1841	4,924.8	72.3612	4,924.8	68.438
5,097.66	87.6211	5,097.66	88.0086	5,097.66	87.2761	5,097.66	86.4208	5,097.66	85.5057	5,097.66	86.1753	5,097.66	85.8531	5,097.66	84.9234	5,097.66	83.5199	5,097.66	83.2986	5,097.66	81.9923	5,097.66	83.0334	5,097.66	84.1663	5,097.66	81.6718	5,097.66	83.0324	5,097.66	79.268	5,097.66	79.307	5,097.66	76.2371	5,097.66	75.9769	5,097.66	74.7804	5,097.66	58.1418	5,097.66	73.5778	5,097.66	69.8656	5,097.66	70.5058	5,097.66	67.6099	5,097.66	69.3575	5,097.66	66.3773	5,097.66	69.5524	5,097.66	72.2782	5,097.66	69.4285	5,097.66	69.2314	5,097.66	65.0181	5,097.66	61.664	5,097.66	59.8061	5,097.66	70.0971	5,097.66	67.8186
5,277.83	87.2303	5,277.83	87.8867	5,277.83	87.7124	5,277.83	86.5067	5,277.83	86.8898	5,277.83	86.2543	5,277.83	87.4441	5,277.83	83.9646	5,277.83	84.7989	5,277.83	84.0781	5,277.83	82.7761	5,277.83	83.5554	5,277.83	82.2094	5,277.83	80.605	5,277.83	81.2797	5,277.83	78.4584	5,277.83	80.6425	5,277.83	76.4625	5,277.83	79.1801	5,277.83	74.5506	5,277.83	68.2966	5,277.83	71.8173	5,277.83	67.6662	5,277.83	70.2434	5,277.83	57.5637	5,277.83	69.5245	5,277.83	68.8173	5,277.83	68.4279	5,277.83	67.0467	5,277.83	66.2083	5,277.83	67.5491	5,277.83	65.154	5,277.83	61.1509	5,277.83	49.5677	5,277.83	69.3527	5,277.83	69.1567
5,463.87	88.5126	5,463.87	88.8766	5,463.87	87.452	5,463.87	86.6276	5,463.87	87.6709	5,463.87	86.0745	5,463.87	88.0497	5,463.87	84.646	5,463.87	85.4253	5,463.87	84.2109	5,463.87	83.7262	5,463.87	82.7743	5,463.87	78.9263	5,463.87	80.3399	5,463.87	80.653	5,463.87	76.3274	5,463.87	80.7485	5,463.87	76.0092	5,463.87	80.1405	5,463.87	73.5924	5,463.87	68.4524	5,463.87	72.1257	5,463.87	67.8152	5,463.87	69.7079	5,463.87	65.237	5,463.87	69.6031	5,463.87	70.2894	5,463.87	68.0272	5,463.87	65.609	5,463.87	69.5749	5,463.87	67.4722	5,463.87	66.6112	5,463.87	68.3032	5,463.87	56.8872	5,463.87	69.1745	5,463.87	67.6837
5,657.23	89.0353	5,657.23	87.9056	5,657.23	87.3947	5,657.23	86.9689	5,657.23	87.2416	5,657.23	85.5304	5,657.23	86.3945	5,657.23	84.8784	5,657.23	86.3308	5,657.23	84.8566	5,657.23	83.8212	5,657.23	81.7153	5,657.23	79.8579	5,657.23	80.919	5,657.23	81.2942	5,657.23	77.9982	5,657.23	80.7889	5,657.23	76.0045	5,657.23	78.2122	5,657.23	74.2575	5,657.23	65.4273	5,657.23	71.8313	5,657.23	55.0135	5,657.23	70.6129	5,657.23	64.9007	5,657.23	71.6753	5,657.23	65.1894	5,657.23	67.5693	5,657.23	66.049	5,657.23	67.8227	5,657.23	64.5427	5,657.23	69.4894	5,657.23	69.3598	5,657.23	54.5939	5,657.23	66.8542	5,657.23	67.3017
5,856.45	89.2585	5,856.45	88.0762	5,856.45	86.9437	5,856.45	87.3822	5,856.45	87.6566	5,856.45	84.5892	5,856.45	84.3387	5,856.45	85.8946	5,856.45	87.05	5,856.45	83.8571	5,856.45	82.9099	5,856.45	81.9752	5,856.45	79.2771	5,856.45	80.1506	5,856.45	82.0186	5,856.45	77.934	5,856.45	81.7992	5,856.45	76.5941	5,856.45	77.5308	5,856.45	74.41	5,856.45	64.9569	5,856.45	71.9205	5,856.45	68.6982	5,856.45	70.6722	5,856.45	60.9737	5,856.45	71.7606	5,856.45	69.9204	5,856.45	68.1895	5,856.45	63.8968	5,856.45	69.3172	5,856.45	66.7594	5,856.45	68.4199	5,856.45	61.2654	5,856.45	61.7529	5,856.45	65.8169	5,856.45	65.4158
6,062.99	89.7611	6,062.99	86.9599	6,062.99	87.5856	6,062.99	86.987	6,062.99	89.4078	6,062.99	85.0685	6,062.99	84.8857	6,062.99	85.6984	6,062.99	86.7729	6,062.99	84.1107	6,062.99	82.3397	6,062.99	81.711	6,062.99	80.0559	6,062.99	81.5302	6,062.99	81.9442	6,062.99	77.6856	6,062.99	83.1823	6,062.99	76.1266	6,062.99	78.1656	6,062.99	74.2217	6,062.99	73.9383	6,062.99	72.4036	6,062.99	67.6458	6,062.99	70.2618	6,062.99	63.1389	6,062.99	70.7505	6,062.99	66.9119	6,062.99	69.7624	6,062.99	54.424	6,062.99	69.7308	6,062.99	67.6779	6,062.99	67.0221	6,062.99	54.184	6,062.99	62.8401	6,062.99	65.8126	6,062.99	62.0259
6,276.86	89.8728	6,276.86	87.4403	6,276.86	88.0185	6,276.86	87.5731	6,276.86	89.1828	6,276.86	86.2191	6,276.86	86.6088	6,276.86	85.8783	6,276.86	86.3104	6,276.86	84.7031	6,276.86	82.5671	6,276.86	82.4483	6,276.86	78.7211	6,276.86	81.7053	6,276.86	82.4161	6,276.86	78.2731	6,276.86	83.2925	6,276.86	74.9321	6,276.86	78.414	6,276.86	74.0201	6,276.86	73.7531	6,276.86	70.7925	6,276.86	69.2678	6,276.86	70.4441	6,276.86	67.5417	6,276.86	69.2054	6,276.86	67.6706	6,276.86	69.651	6,276.86	65.0261	6,276.86	70.142	6,276.86	66.6106	6,276.86	66.5432	6,276.86	65.2873	6,276.86	64.4522	6,276.86	67.0294	6,276.86	62.0947
6,498.05	90.1478	6,498.05	88.4013	6,498.05	88.2806	6,498.05	87.438	6,498.05	87.0209	6,498.05	87.353	6,498.05	87.956	6,498.05	85.7596	6,498.05	84.4922	6,498.05	84.9009	6,498.05	83.7868	6,498.05	83.1653	6,498.05	80.5016	6,498.05	80.7225	6,498.05	82.3824	6,498.05	78.3504	6,498.05	81.047	6,498.05	75.733	6,498.05	80.3757	6,498.05	74.0483	6,498.05	76.0173	6,498.05	70.1712	6,498.05	71.3518	6,498.05	69.9864	6,498.05	65.4873	6,498.05	68.1181	6,498.05	66.1224	6,498.05	70.0126	6,498.05	65.5748	6,498.05	68.5732	6,498.05	58.5294	6,498.05	69.0667	6,498.05	64.7197	6,498.05	61.0303	6,498.05	64.2527	6,498.05	62.7861
6,726.56	89.2104	6,726.56	87.8173	6,726.56	89.2314	6,726.56	87.5344	6,726.56	88.199	6,726.56	87.2431	6,726.56	86.595	6,726.56	84.9169	6,726.56	86.3246	6,726.56	84.7969	6,726.56	84.2475	6,726.56	82.448	6,726.56	81.641	6,726.56	80.7853	6,726.56	80.6351	6,726.56	77.3665	6,726.56	77.9926	6,726.56	74.6751	6,726.56	77.7791	6,726.56	73.3012	6,726.56	72.9899	6,726.56	68.7495	6,726.56	66.648	6,726.56	69.2358	6,726.56	58.9832	6,726.56	65.8713	6,726.56	62.8561	6,726.56	68.2024	6,726.56	66.1495	6,726.56	68.4592	6,726.56	62.0913	6,726.56	66.389	6,726.56	63.115	6,726.56	63.4524	6,726.56	61.9475	6,726.56	61.3792
6,963.87	88.6102	6,963.87	87.5654	6,963.87	88.4614	6,963.87	88.2083	6,963.87	87.8022	6,963.87	86.4529	6,963.87	85.8226	6,963.87	85.2226	6,963.87	87.8748	6,963.87	84.0225	6,963.87	84.7283	6,963.87	82.059	6,963.87	81.3817	6,963.87	79.3429	6,963.87	77.441	6,963.87	75.3547	6,963.87	79.9654	6,963.87	72.9022	6,963.87	77.1982	6,963.87	71.8512	6,963.87	69.2922	6,963.87	66.4953	6,963.87	65.4804	6,963.87	67.7378	6,963.87	55.1755	6,963.87	64.7468	6,963.87	61.6018	6,963.87	66.3943	6,963.87	67.8285	6,963.87	67.1645	6,963.87	60.6491	6,963.87	65.7926	6,963.87	66.235	6,963.87	65.5794	6,963.87	61.1304	6,963.87	59.0475
7,209.96	88.8044	7,209.96	87.1634	7,209.96	87.7288	7,209.96	88.5118	7,209.96	86.9256	7,209.96	85.8101	7,209.96	87.0078	7,209.96	85.624	7,209.96	86.8622	7,209.96	83.533	7,209.96	85.1077	7,209.96	81.3567	7,209.96	79.6951	7,209.96	77.8767	7,209.96	79.2047	7,209.96	74.9987	7,209.96	81.1019	7,209.96	72.2511	7,209.96	72.9701	7,209.96	70.5773	7,209.96	68.5827	7,209.96	67.4275	7,209.96	61.3859	7,209.96	67.218	7,209.96	56.0325	7,209.96	66.2647	7,209.96	61.9303	7,209.96	66.2665	7,209.96	66.2312	7,209.96	66.1195	7,209.96	56.9484	7,209.96	67.993	7,209.96	65.4867	7,209.96	65.1223	7,209.96	54.7906	7,209.96	59.8628
7,464.84	88.1826	7,464.84	87.3873	7,464.84	87.7732	7,464.84	88.2431	7,464.84	87.5406	7,464.84	85.8619	7,464.84	87.1514	7,464.84	85.5333	7,464.84	85.1318	7,464.84	83.295	7,464.84	85.6706	7,464.84	80.83	7,464.84	75.1067	7,464.84	78.0115	7,464.84	81.9006	7,464.84	74.1862	7,464.84	79.1383	7,464.84	72.8777	7,464.84	75.4139	7,464.84	69.2582	7,464.84	68.7024	7,464.84	66.7801	7,464.84	54.3234	7,464.84	65.7503	7,464.84	60.6247	7,464.84	66.926	7,464.84	62.9866	7,464.84	67.2525	7,464.84	65.3204	7,464.84	63.8858	7,464.84	55.9853	7,464.84	68.2415	7,464.84	64.6912	7,464.84	63.9937	7,464.84	58.1662	7,464.84	55.6491
7,727.05	88.1332	7,727.05	87.2981	7,727.05	87.1593	7,727.05	87.9066	7,727.05	87.113	7,727.05	86.301	7,727.05	86.1605	7,727.05	85.0821	7,727.05	84.0584	7,727.05	83.3373	7,727.05	85.5387	7,727.05	80.438	7,727.05	77.047	7,727.05	77.4937	7,727.05	82.0385	7,727.05	73.1126	7,727.05	74.4174	7,727.05	71.1058	7,727.05	74.5235	7,727.05	69.3793	7,727.05	64.4158	7,727.05	65.0788	7,727.05	59.6229	7,727.05	65.8375	7,727.05	63.2021	7,727.05	66.0138	7,727.05	61.6644	7,727.05	66.0822	7,727.05	61.525	7,727.05	60.9401	7,727.05	56.2589	7,727.05	71.1838	7,727.05	67.9443	7,727.05	59.0095	7,727.05	58.0093	7,727.05	53.1955
7,999.51	88.0612	7,999.51	87.758	7,999.51	88.3283	7,999.51	87.9799	7,999.51	87.4384	7,999.51	86.2439	7,999.51	85.293	7,999.51	84.6631	7,999.51	85.4652	7,999.51	83.2292	7,999.51	83.76	7,999.51	80.0813	7,999.51	79.7598	7,999.51	76.3799	7,999.51	79.5414	7,999.51	73.7259	7,999.51	75.2461	7,999.51	69.3946	7,999.51	72.0134	7,999.51	69.8929	7,999.51	71.5709	7,999.51	63.9897	7,999.51	64.8568	7,999.51	66.4992	7,999.51	60.3838	7,999.51	63.3301	7,999.51	59.4848	7,999.51	63.6945	7,999.51	55.8772	7,999.51	65.6766	7,999.51	59.1574	7,999.51	69.9004	7,999.51	65.6444	7,999.51	58.4682	7,999.51	60.829	7,999.51	48.1696
8,282.23	87.8731	8,282.23	88.2235	8,282.23	88.5009	8,282.23	87.9356	8,282.23	88.1618	8,282.23	85.6946	8,282.23	86.7082	8,282.23	85.0075	8,282.23	86.8772	8,282.23	82.6693	8,282.23	82.6973	8,282.23	80.1303	8,282.23	81.1159	8,282.23	76.6811	8,282.23	73.1856	8,282.23	74.8236	8,282.23	76.5077	8,282.23	71.2927	8,282.23	70.6027	8,282.23	69.5793	8,282.23	71.7404	8,282.23	65.7866	8,282.23	63.3226	8,282.23	65.3816	8,282.23	48.5328	8,282.23	63.3764	8,282.23	59.9772	8,282.23	65.7251	8,282.23	61.5304	8,282.23	66.3683	8,282.23	61.0266	8,282.23	66.7836	8,282.23	55.291	8,282.23	64.0763	8,282.23	60.6181	8,282.23	49.1004
8,573.73	88.4588	8,573.73	88.3314	8,573.73	89.0051	8,573.73	87.6402	8,573.73	87.8985	8,573.73	85.3669	8,573.73	86.4452	8,573.73	84.6357	8,573.73	84.8108	8,573.73	81.7914	8,573.73	83.1317	8,573.73	80.1501	8,573.73	79.2994	8,573.73	77.4466	8,573.73	76.7949	8,573.73	74.3517	8,573.73	76.94	8,573.73	71.321	8,573.73	71.7424	8,573.73	67.8199	8,573.73	70.8206	8,573.73	66.4128	8,573.73	63.3974	8,573.73	62.8624	8,573.73	53.8407	8,573.73	62.0765	8,573.73	54.849	8,573.73	65.2437	8,573.73	58.9581	8,573.73	65.2423	8,573.73	52.599	8,573.73	66.2908	8,573.73	61.0102	8,573.73	64.5661	8,573.73	58.8535	8,573.73	43.4839
8,876.95	88.8379	8,876.95	88.5854	8,876.95	88.8513	8,876.95	87.8211	8,876.95	88.1639	8,876.95	85.2008	8,876.95	84.6043	8,876.95	83.8549	8,876.95	82.5114	8,876.95	81.413	8,876.95	83.6762	8,876.95	80.017	8,876.95	78.2176	8,876.95	76.8125	8,876.95	78.4773	8,876.95	73.3213	8,876.95	73.6843	8,876.95	70.0521	8,876.95	69.9678	8,876.95	67.5001	8,876.95	66.2146	8,876.95	65.8514	8,876.95	51.1399	8,876.95	64.0618	8,876.95	60.1284	8,876.95	61.9575	8,876.95	55.2436	8,876.95	63.187	8,876.95	60.1275	8,876.95	63.3113	8,876.95	56.6342	8,876.95	65.0184	8,876.95	59.5788	8,876.95	62.5419	8,876.95	58.043	8,876.95	46.1372
9,188.96	89.0744	9,188.96	88.6975	9,188.96	88.6674	9,188.96	88.1898	9,188.96	88.4431	9,188.96	84.6504	9,188.96	85.4543	9,188.96	83.5384	9,188.96	82.7384	9,188.96	81.0157	9,188.96	83.1512	9,188.96	79.8862	9,188.96	78.7494	9,188.96	76.2487	9,188.96	76.0926	9,188.96	73.0923	9,188.96	72.7848	9,188.96	68.262	9,188.96	68.7905	9,188.96	66.3139	9,188.96	67.8969	9,188.96	62.0518	9,188.96	56.3198	9,188.96	63.0419	9,188.96	54.5744	9,188.96	61.0551	9,188.96	57.7142	9,188.96	61.2988	9,188.96	59.7498	9,188.96	59.9747	9,188.96	52.7318	9,188.96	64.3811	9,188.96	57.1258	9,188.96	63.5659	9,188.96	51.8434	9,188.96	50.6248
9,514.16	89.0454	9,514.16	88.8305	9,514.16	88.4909	9,514.16	88.031	9,514.16	87.6077	9,514.16	84.572	9,514.16	86.7524	9,514.16	83.0552	9,514.16	84.057	9,514.16	80.4661	9,514.16	82.0553	9,514.16	79.3647	9,514.16	79.5876	9,514.16	74.8393	9,514.16	72.6369	9,514.16	70.8566	9,514.16	72.234	9,514.16	65.3328	9,514.16	65.933	9,514.16	64.5735	9,514.16	69.3197	9,514.16	60.6342	9,514.16	59.605	9,514.16	61.3208	9,514.16	51.0971	9,514.16	57.3765	9,514.16	54.4263	9,514.16	58.5018	9,514.16	58.5589	9,514.16	60.1791	9,514.16	52.5289	9,514.16	62.8898	9,514.16	55.678	9,514.16	62.351	9,514.16	53.3297	9,514.16	50.7388
9,849.61	88.9156	9,849.61	88.8188	9,849.61	88.7839	9,849.61	87.6494	9,849.61	87.6442	9,849.61	84.7303	9,849.61	85.0079	9,849.61	82.5126	9,849.61	83.9237	9,849.61	80.5325	9,849.61	78.7172	9,849.61	78.3416	9,849.61	79.2844	9,849.61	72.9307	9,849.61	68.9972	9,849.61	68.0391	9,849.61	72.7823	9,849.61	64.4857	9,849.61	56.9782	9,849.61	62.7568	9,849.61	67.4606	9,849.61	61.2713	9,849.61	57.7434	9,849.61	60.6938	9,849.61	44.8713	9,849.61	56.8621	9,849.61	50.1542	9,849.61	59.4623	9,849.61	57.0495	9,849.61	58.1044	9,849.61	50.1293	9,849.61	61.4437	9,849.61	56.6769	9,849.61	60.4915	9,849.61	54.7273	9,849.61	46.6974
10,196.8	89.1488	10,196.8	88.8208	10,196.8	88.7973	10,196.8	87.625	10,196.8	87.8792	10,196.8	84.3309	10,196.8	85.0181	10,196.8	82.5824	10,196.8	81.8113	10,196.8	79.9063	10,196.8	79.3586	10,196.8	77.3124	10,196.8	77.6277	10,196.8	70.5476	10,196.8	69.0611	10,196.8	68.6052	10,196.8	72.2799	10,196.8	66.0396	10,196.8	66.2871	10,196.8	61.8696	10,196.8	59.9289	10,196.8	61.7741	10,196.8	47.3571	10,196.8	59.287	10,196.8	53.0364	10,196.8	57.9619	10,196.8	38.7908	10,196.8	59.4684	10,196.8	56.0307	10,196.8	58.1865	10,196.8	51.346	10,196.8	60.5353	10,196.8	54.9084	10,196.8	60.0939	10,196.8	52.3206	10,196.8	45.9526
10,555.7	89.1477	10,555.7	88.9269	10,555.7	88.911	10,555.7	87.6389	10,555.7	87.727	10,555.7	83.7709	10,555.7	85.6719	10,555.7	82.3323	10,555.7	80.9003	10,555.7	79.2287	10,555.7	79.9538	10,555.7	75.7799	10,555.7	74.5624	10,555.7	70.7507	10,555.7	66.2981	10,555.7	68.4774	10,555.7	71.3125	10,555.7	64.862	10,555.7	63.3119	10,555.7	62.2784	10,555.7	64.5739	10,555.7	61.4818	10,555.7	56.5316	10,555.7	59.7345	10,555.7	55.4093	10,555.7	56.7807	10,555.7	52.1935	10,555.7	57.7971	10,555.7	54.1903	10,555.7	58.1951	10,555.7	47.8322	10,555.7	59.5751	10,555.7	53.8202	10,555.7	60.3047	10,555.7	53.2021	10,555.7	45.4914
10,927.7	88.978	10,927.7	88.7276	10,927.7	88.908	10,927.7	87.4217	10,927.7	87.4616	10,927.7	83.4716	10,927.7	84.5478	10,927.7	82.0425	10,927.7	82.0694	10,927.7	78.1209	10,927.7	79.6414	10,927.7	75.1431	10,927.7	74.5911	10,927.7	70.2612	10,927.7	68.0058	10,927.7	69.142	10,927.7	66.7218	10,927.7	65.3899	10,927.7	61.3115	10,927.7	61.5518	10,927.7	64.3019	10,927.7	61.2743	10,927.7	58.5515	10,927.7	59.8474	10,927.7	51.1592	10,927.7	56.3142	10,927.7	48.344	10,927.7	58.1159	10,927.7	50.6994	10,927.7	58.5147	10,927.7	49.7215	10,927.7	59.7794	10,927.7	49.359	10,927.7	59.9239	10,927.7	52.2088	10,927.7	38.6495
11,313	88.7598	11,313	88.3959	11,313	88.3767	11,313	87.2941	11,313	87.2702	11,313	82.9567	11,313	84.1332	11,313	81.7566	11,313	81.0533	11,313	76.4663	11,313	78.1631	11,313	74.8177	11,313	73.8536	11,313	70.5565	11,313	59.4414	11,313	68.6816	11,313	69.1305	11,313	65.0897	11,313	65.0872	11,313	61.8435	11,313	65.9662	11,313	60.6036	11,313	59.7221	11,313	59.5709	11,313	55.2202	11,313	57.7136	11,313	46.3813	11,313	58.1213	11,313	46.0061	11,313	56.6628	11,313	49.5049	11,313	55.9131	11,313	51.0694	11,313	59.5283	11,313	52.0546	11,313	46.4196
11,712.9	88.5501	11,712.9	88.1133	11,712.9	87.8911	11,712.9	86.9106	11,712.9	86.8341	11,712.9	82.7362	11,712.9	84.1925	11,712.9	80.7736	11,712.9	77.9716	11,712.9	75.6691	11,712.9	77.6683	11,712.9	74.6141	11,712.9	74.0497	11,712.9	70.316	11,712.9	63.0929	11,712.9	67.8764	11,712.9	70.4288	11,712.9	63.9421	11,712.9	62.4231	11,712.9	60.9543	11,712.9	66.7612	11,712.9	60.6159	11,712.9	61.2796	11,712.9	59.325	11,712.9	58.5788	11,712.9	56.9921	11,712.9	50.2032	11,712.9	57.8201	11,712.9	49.5143	11,712.9	57.4508	11,712.9	32.3053	11,712.9	55.5952	11,712.9	50.1588	11,712.9	59.9449	11,712.9	55.3313	11,712.9	46.7893
12,126	88.1194	12,126	87.8424	12,126	87.5469	12,126	86.2695	12,126	86.2707	12,126	82.5419	12,126	83.1284	12,126	79.9898	12,126	79.8594	12,126	74.7825	12,126	76.2059	12,126	74.8952	12,126	73.9132	12,126	70.2106	12,126	67.7573	12,126	67.8284	12,126	67.8876	12,126	64.8992	12,126	63.305	12,126	59.5094	12,126	66.7799	12,126	60.4982	12,126	64.8027	12,126	57.5652	12,126	56.7523	12,126	57.4286	12,126	51.2281	12,126	58.3756	12,126	35.4791	12,126	57.8513	12,126	40.2929	12,126	55.5494	12,126	49.7074	12,126	59.7393	12,126	54.3546	12,126	43.0655
12,553.7	87.7281	12,553.7	87.2333	12,553.7	87.2124	12,553.7	85.7696	12,553.7	85.8802	12,553.7	82.074	12,553.7	83.5042	12,553.7	79.1512	12,553.7	79.1503	12,553.7	74.6474	12,553.7	76.6504	12,553.7	74.5854	12,553.7	71.5161	12,553.7	69.6491	12,553.7	68.9085	12,553.7	67.9828	12,553.7	67.1894	12,553.7	64.9281	12,553.7	61.9644	12,553.7	59.9707	12,553.7	67.6749	12,553.7	59.9129	12,553.7	64.577	12,553.7	58.1782	12,553.7	52.504	12,553.7	58.3807	12,553.7	53.519	12,553.7	59.2498	12,553.7	52.0137	12,553.7	58.1282	12,553.7	41.8896	12,553.7	54.8398	12,553.7	53.0307	12,553.7	59.3353	12,553.7	55.8448	12,553.7	42.7342
12,996.1	87.2324	12,996.1	86.525	12,996.1	86.6642	12,996.1	85.3276	12,996.1	85.1226	12,996.1	81.394	12,996.1	82.4449	12,996.1	78.0792	12,996.1	76.5634	12,996.1	74.8585	12,996.1	75.6842	12,996.1	74.1919	12,996.1	73.4532	12,996.1	70.8279	12,996.1	69.9161	12,996.1	68.0151	12,996.1	66.3587	12,996.1	65.2008	12,996.1	63.6297	12,996.1	59.2878	12,996.1	64.867	12,996.1	60.9281	12,996.1	60.1367	12,996.1	56.7215	12,996.1	57.8094	12,996.1	55.9826	12,996.1	54.9545	12,996.1	58.9518	12,996.1	44.9937	12,996.1	57.1874	12,996.1	44.1196	12,996.1	51.8947	12,996.1	53.5518	12,996.1	59.1292	12,996.1	53.5909	12,996.1	46.1428
13,454.6	86.8535	13,454.6	85.8665	13,454.6	85.8946	13,454.6	84.9033	13,454.6	84.8369	13,454.6	80.2107	13,454.6	82.3001	13,454.6	78.0862	13,454.6	76.284	13,454.6	74.7323	13,454.6	74.8859	13,454.6	74.0628	13,454.6	72.3678	13,454.6	70.839	13,454.6	68.8044	13,454.6	67.1587	13,454.6	68.1899	13,454.6	63.7827	13,454.6	63.2112	13,454.6	57.6968	13,454.6	63.4544	13,454.6	60.4419	13,454.6	62.6896	13,454.6	55.6356	13,454.6	55.4999	13,454.6	56.1092	13,454.6	48.5896	13,454.6	58.1344	13,454.6	49.9593	13,454.6	56.6711	13,454.6	46.9335	13,454.6	50.1529	13,454.6	52.7305	13,454.6	58.8073	13,454.6	53.4531	13,454.6	45.9812
13,929.2	86.2275	13,929.2	84.9604	13,929.2	85.3284	13,929.2	84.3613	13,929.2	83.8187	13,929.2	78.9103	13,929.2	81.8487	13,929.2	78.6372	13,929.2	76.3773	13,929.2	74.3804	13,929.2	74.526	13,929.2	74.111	13,929.2	72.1144	13,929.2	69.5519	13,929.2	70.2074	13,929.2	66.122	13,929.2	61.9515	13,929.2	63.8389	13,929.2	62.7774	13,929.2	57.872	13,929.2	64.0138	13,929.2	59.5059	13,929.2	63.1173	13,929.2	54.2179	13,929.2	48.0391	13,929.2	57.0341	13,929.2	45.0178	13,929.2	56.1539	13,929.2	48.2204	13,929.2	56.8426	13,929.2	40.683	13,929.2	52.6093	13,929.2	47.8781	13,929.2	58.5862	13,929.2	54.0914	13,929.2	49.9652
14,419.9	85.5793	14,419.9	84.5495	14,419.9	84.7528	14,419.9	84.2926	14,419.9	83.2148	14,419.9	78.5689	14,419.9	81.4338	14,419.9	78.7369	14,419.9	75.4183	14,419.9	74.5666	14,419.9	74.9587	14,419.9	73.4995	14,419.9	71.9155	14,419.9	68.5796	14,419.9	68.94	14,419.9	66.1149	14,419.9	63.6679	14,419.9	62.7894	14,419.9	59.7598	14,419.9	56.6725	14,419.9	63.9558	14,419.9	58.4162	14,419.9	62.0602	14,419.9	54.7141	14,419.9	50.4709	14,419.9	56.9199	14,419.9	39.4037	14,419.9	55.7525	14,419.9	47.403	14,419.9	56.2918	14,419.9	48.8537	14,419.9	54.9819	14,419.9	48.6867	14,419.9	58.7616	14,419.9	54.1231	14,419.9	48.9042
14,928.2	85.1079	14,928.2	84.4154	14,928.2	84.7632	14,928.2	83.5149	14,928.2	82.7553	14,928.2	79.4566	14,928.2	80.7375	14,928.2	78.2718	14,928.2	77.8588	14,928.2	73.8862	14,928.2	74.1808	14,928.2	72.2107	14,928.2	72.3286	14,928.2	66.9603	14,928.2	67.5105	14,928.2	64.9893	14,928.2	61.3948	14,928.2	61.3989	14,928.2	58.0273	14,928.2	53.9193	14,928.2	64.2322	14,928.2	57.7615	14,928.2	63.0797	14,928.2	51.143	14,928.2	46.0042	14,928.2	54.6092	14,928.2	46.6972	14,928.2	54.488	14,928.2	38.7153	14,928.2	54.995	14,928.2	50.1527	14,928.2	53.4769	14,928.2	48.915	14,928.2	56.4316	14,928.2	52.2868	14,928.2	45.3299
15,455.6	85.227	15,455.6	84.8365	15,455.6	84.8034	15,455.6	83.3263	15,455.6	82.5773	15,455.6	79.2105	15,455.6	80.5229	15,455.6	77.0832	15,455.6	75.5513	15,455.6	71.6714	15,455.6	72.1325	15,455.6	68.8832	15,455.6	66.9801	15,455.6	63.0289	15,455.6	65.6157	15,455.6	61.0368	15,455.6	52.0753	15,455.6	56.5434	15,455.6	54.5418	15,455.6	50.3899	15,455.6	60.4223	15,455.6	53.8722	15,455.6	61.695	15,455.6	47.2276	15,455.6	40.8438	15,455.6	51.1406	15,455.6	42.0639	15,455.6	51.2042	15,455.6	35.8618	15,455.6	51.4521	15,455.6	45.947	15,455.6	46.3112	15,455.6	46.3798	15,455.6	52.6464	15,455.6	46.9367	15,455.6	45.2423
16,000.5	85.2023	16,000.5	84.7996	16,000.5	84.7501	16,000.5	82.9432	16,000.5	82.4002	16,000.5	78.3484	16,000.5	79.5935	16,000.5	75.0278	16,000.5	73.6519	16,000.5	67.4681	16,000.5	68.2804	16,000.5	64.1314	16,000.5	62.9519	16,000.5	57.3905	16,000.5	57.2247	16,000.5	55.4728	16,000.5	48.119	16,000.5	52.2456	16,000.5	49.6002	16,000.5	50.3119	16,000.5	58.3725	16,000.5	49.1748	16,000.5	60.6869	16,000.5	44.9544	16,000.5	41.1609	16,000.5	49.9702	16,000.5	44.633	16,000.5	49.2321	16,000.5	37.3961	16,000.5	49.7489	16,000.5	39.5933	16,000.5	44.9959	16,000.5	41.9563	16,000.5	51.7572	16,000.5	46.7219	16,000.5	40.6787
16,564.5	84.9264	16,564.5	84.2781	16,564.5	84.3429	16,564.5	82.0828	16,564.5	81.5786	16,564.5	76.7507	16,564.5	78.33	16,564.5	72.1016	16,564.5	71.2029	16,564.5	60.3702	16,564.5	63.3279	16,564.5	55.5912	16,564.5	57.7788	16,564.5	57.8427	16,564.5	58.6025	16,564.5	56.954	16,564.5	49.6126	16,564.5	53.4282	16,564.5	48.7101	16,564.5	51.3388	16,564.5	56.9311	16,564.5	44.4133	16,564.5	59.1357	16,564.5	46.8275	16,564.5	30.5938	16,564.5	49.4739	16,564.5	40.2732	16,564.5	49.3205	16,564.5	37.5515	16,564.5	49.4965	16,564.5	40.1596	16,564.5	44.6699	16,564.5	43.8525	16,564.5	48.5126	16,564.5	45.7799	16,564.5	39.4036
17,148.9	84.4817	17,148.9	83.6942	17,148.9	83.7533	17,148.9	80.877	17,148.9	80.4446	17,148.9	74.6061	17,148.9	76.566	17,148.9	68.8137	17,148.9	66.3707	17,148.9	39.2148	17,148.9	55.1381	17,148.9	53.2833	17,148.9	59.5038	17,148.9	60.8712	17,148.9	59.7062	17,148.9	57.8232	17,148.9	50.0517	17,148.9	54.1353	17,148.9	45.828	17,148.9	48.776	17,148.9	55.6879	17,148.9	46.0965	17,148.9	56.3689	17,148.9	43.6046	17,148.9	41.688	17,148.9	47.6561	17,148.9	42.8135	17,148.9	49.1825	17,148.9	33.2135	17,148.9	48.8685	17,148.9	42.1474	17,148.9	47.1159	17,148.9	44.9016	17,148.9	45.9408	17,148.9	43.857	17,148.9	43.0472
17,752.4	84.0768	17,752.4	83.1635	17,752.4	83.0611	17,752.4	80.1066	17,752.4	79.3759	17,752.4	72.3054	17,752.4	74.3785	17,752.4	64.7921	17,752.4	61.6282	17,752.4	54.5122	17,752.4	42.2326	17,752.4	59.0944	17,752.4	62.1659	17,752.4	58.917	17,752.4	58.9072	17,752.4	56.385	17,752.4	51.6218	17,752.4	51.6425	17,752.4	49.2035	17,752.4	42.962	17,752.4	54.9452	17,752.4	44.4709	17,752.4	54.2819	17,752.4	35.4266	17,752.4	37.7798	17,752.4	46.2994	17,752.4	40.8354	17,752.4	45.9603	17,752.4	39.5383	17,752.4	45.873	17,752.4	41.5232	17,752.4	47.7935	17,752.4	44.7959	17,752.4	48.086	17,752.4	42.9198	17,752.4	43.2942
18,379.4	83.6573	18,379.4	82.5229	18,379.4	82.4673	18,379.4	78.9654	18,379.4	78.1628	18,379.4	69.2126	18,379.4	71.309	18,379.4	58.6338	18,379.4	51.0267	18,379.4	57.0879	18,379.4	59.8377	18,379.4	60.8707	18,379.4	61.4908	18,379.4	56.5199	18,379.4	59.5717	18,379.4	54.0874	18,379.4	49.3496	18,379.4	49.0626	18,379.4	46.3977	18,379.4	41.2384	18,379.4	55.313	18,379.4	36.5555	18,379.4	53.4325	18,379.4	36.0847	18,379.4	41.1255	18,379.4	47.6383	18,379.4	33.5077	18,379.4	45.5913	18,379.4	46.1744	18,379.4	45.6944	18,379.4	26.7523	18,379.4	43.6999	18,379.4	49.3284	18,379.4	43.6438	18,379.4	42.2237	18,379.4	42.9346
19,026.9	83.0803	19,026.9	81.6652	19,026.9	81.5361	19,026.9	77.8516	19,026.9	76.8881	19,026.9	66.3205	19,026.9	67.5899	19,026.9	53.4871	19,026.9	56.3564	19,026.9	60.0615	19,026.9	62.399	19,026.9	61.9664	19,026.9	61.7484	19,026.9	58.521	19,026.9	59.1978	19,026.9	54.217	19,026.9	48.2614	19,026.9	49.7948	19,026.9	40.4717	19,026.9	42.5069	19,026.9	56.2962	19,026.9	34.7455	19,026.9	55.3549	19,026.9	35.0445	19,026.9	37.1216	19,026.9	45.9922	19,026.9	42.4481	19,026.9	46.5732	19,026.9	38.3107	19,026.9	43.8639	19,026.9	42.3517	19,026.9	41.3452	19,026.9	35.0171	19,026.9	44.4213	19,026.9	33.6326	19,026.9	36.0941
19,697.8	82.3379	19,697.8	80.963	19,697.8	80.5444	19,697.8	76.7307	19,697.8	75.8527	19,697.8	63.4926	19,697.8	65.3882	19,697.8	55.8609	19,697.8	57.8366	19,697.8	60.8196	19,697.8	62.8034	19,697.8	60.9462	19,697.8	59.4105	19,697.8	57.2411	19,697.8	56.5201	19,697.8	51.4966	19,697.8	49.304	19,697.8	47.7355	19,697.8	34.5529	19,697.8	40.8605	19,697.8	56.3668	19,697.8	30.2416	19,697.8	55.6524	19,697.8	34.3931	19,697.8	39.3239	19,697.8	44.4756	19,697.8	39.7897	19,697.8	43.4248	19,697.8	37.1352	19,697.8	41.6067	19,697.8	35.1292	19,697.8	37.9259	19,697.8	35.9824	19,697.8	41.3106	19,697.8	34.3079	19,697.8	33.4232
19,999.5	82.1424	19,999.5	80.6472	19,999.5	80.3589	19,999.5	76.5165	19,999.5	75.5564	19,999.5	61.4711	19,999.5	63.8693	19,999.5	57.3319	19,999.5	62.6899	19,999.5	60.3244	19,999.5	63.9819	19,999.5	61.6539	19,999.5	58.795	19,999.5	55.3429	19,999.5	59.114	19,999.5	52.6263	19,999.5	47.5681	19,999.5	47.304	19,999.5	34.2252	19,999.5	39.3163	19,999.5	56.6612	19,999.5	39.7007	19,999.5	56.3959	19,999.5	38.2736	19,999.5	43.078	19,999.5	43.9205	19,999.5	47.4669	19,999.5	44.1586	19,999.5	36.2657	19,999.5	28.5445	19,999.5	40.7679	19,999.5	36.7261	19,999.5	39.6911	19,999.5	39.103	19,999.5	41.5649	19,999.5	34.6682
