"SPL Horizontal"
"On-Axis"		"10°"		"-10°"		"20°"		"-20°"		"30°"		"-30°"		"40°"		"-40°"		"50°"		"-50°"		"60°"		"-60°"		"70°"		"-70°"		"80°"		"-80°"		"90°"		"-90°"		"100°"		"-100°"		"110°"		"-110°"		"120°"		"-120°"		"130°"		"-130°"		"140°"		"-140°"		"150°"		"-150°"		"160°"		"-160°"		"170°"		"-170°"		"180°"
"Frequency / Hz"	"Sound Pressure Level / dB (re 20 µPa/V)  [2.83  V @ 1. m]"	"Frequency / Hz"	"Sound Pressure Level / dB (re 20 µPa/V)  [2.83  V @ 1. m]"	"Frequency / Hz"	"Sound Pressure Level / dB (re 20 µPa/V)  [2.83  V @ 1. m]"	"Frequency / Hz"	"Sound Pressure Level / dB (re 20 µPa/V)  [2.83  V @ 1. m]"	"Frequency / Hz"	"Sound Pressure Level / dB (re 20 µPa/V)  [2.83  V @ 1. m]"	"Frequency / Hz"	"Sound Pressure Level / dB (re 20 µPa/V)  [2.83  V @ 1. m]"	"Frequency / Hz"	"Sound Pressure Level / dB (re 20 µPa/V)  [2.83  V @ 1. m]"	"Frequency / Hz"	"Sound Pressure Level / dB (re 20 µPa/V)  [2.83  V @ 1. m]"	"Frequency / Hz"	"Sound Pressure Level / dB (re 20 µPa/V)  [2.83  V @ 1. m]"	"Frequency / Hz"	"Sound Pressure Level / dB (re 20 µPa/V)  [2.83  V @ 1. m]"	"Frequency / Hz"	"Sound Pressure Level / dB (re 20 µPa/V)  [2.83  V @ 1. m]"	"Frequency / Hz"	"Sound Pressure Level / dB (re 20 µPa/V)  [2.83  V @ 1. m]"	"Frequency / Hz"	"Sound Pressure Level / dB (re 20 µPa/V)  [2.83  V @ 1. m]"	"Frequency / Hz"	"Sound Pressure Level / dB (re 20 µPa/V)  [2.83  V @ 1. m]"	"Frequency / Hz"	"Sound Pressure Level / dB (re 20 µPa/V)  [2.83  V @ 1. m]"	"Frequency / Hz"	"Sound Pressure Level / dB (re 20 µPa/V)  [2.83  V @ 1. m]"	"Frequency / Hz"	"Sound Pressure Level / dB (re 20 µPa/V)  [2.83  V @ 1. m]"	"Frequency / Hz"	"Sound Pressure Level / dB (re 20 µPa/V)  [2.83  V @ 1. m]"	"Frequency / Hz"	"Sound Pressure Level / dB (re 20 µPa/V)  [2.83  V @ 1. m]"	"Frequency / Hz"	"Sound Pressure Level / dB (re 20 µPa/V)  [2.83  V @ 1. m]"	"Frequency / Hz"	"Sound Pressure Level / dB (re 20 µPa/V)  [2.83  V @ 1. m]"	"Frequency / Hz"	"Sound Pressure Level / dB (re 20 µPa/V)  [2.83  V @ 1. m]"	"Frequency / Hz"	"Sound Pressure Level / dB (re 20 µPa/V)  [2.83  V @ 1. m]"	"Frequency / Hz"	"Sound Pressure Level / dB (re 20 µPa/V)  [2.83  V @ 1. m]"	"Frequency / Hz"	"Sound Pressure Level / dB (re 20 µPa/V)  [2.83  V @ 1. m]"	"Frequency / Hz"	"Sound Pressure Level / dB (re 20 µPa/V)  [2.83  V @ 1. m]"	"Frequency / Hz"	"Sound Pressure Level / dB (re 20 µPa/V)  [2.83  V @ 1. m]"	"Frequency / Hz"	"Sound Pressure Level / dB (re 20 µPa/V)  [2.83  V @ 1. m]"	"Frequency / Hz"	"Sound Pressure Level / dB (re 20 µPa/V)  [2.83  V @ 1. m]"	"Frequency / Hz"	"Sound Pressure Level / dB (re 20 µPa/V)  [2.83  V @ 1. m]"	"Frequency / Hz"	"Sound Pressure Level / dB (re 20 µPa/V)  [2.83  V @ 1. m]"	"Frequency / Hz"	"Sound Pressure Level / dB (re 20 µPa/V)  [2.83  V @ 1. m]"	"Frequency / Hz"	"Sound Pressure Level / dB (re 20 µPa/V)  [2.83  V @ 1. m]"	"Frequency / Hz"	"Sound Pressure Level / dB (re 20 µPa/V)  [2.83  V @ 1. m]"	"Frequency / Hz"	"Sound Pressure Level / dB (re 20 µPa/V)  [2.83  V @ 1. m]"	"Frequency / Hz"	"Sound Pressure Level / dB (re 20 µPa/V)  [2.83  V @ 1. m]"
20.5078	68.3042	20.5078	68.3181	20.5078	68.2964	20.5078	68.338	20.5078	68.2966	20.5078	68.3651	20.5078	68.3077	20.5078	68.4016	20.5078	68.3339	20.5078	68.4513	20.5078	68.3802	20.5078	68.5194	20.5078	68.4528	20.5078	68.6129	20.5078	68.5583	20.5078	68.7397	20.5078	68.7034	20.5078	68.9081	20.5078	68.8932	20.5078	69.1243	20.5078	69.1296	20.5078	69.3902	20.5078	69.4101	20.5078	69.7001	20.5078	69.7264	20.5078	70.039	20.5078	70.0636	20.5078	70.3821	20.5078	70.4	20.5078	70.6981	20.5078	70.7081	20.5078	70.9536	20.5078	70.9578	20.5078	71.1199	20.5078	71.121	20.5078	71.1777
21.9727	62.567	21.9727	62.6462	21.9727	62.5777	21.9727	62.8126	21.9727	62.6802	21.9727	63.0624	21.9727	62.8758	21.9727	63.3902	21.9727	63.1637	21.9727	63.7887	21.9727	63.5402	21.9727	64.2491	21.9727	63.9987	21.9727	64.762	21.9727	64.529	21.9727	65.3178	21.9727	65.1177	21.9727	65.9063	21.9727	65.7486	21.9727	66.517	21.9727	66.4035	21.9727	67.137	21.9727	67.0623	21.9727	67.7503	21.9727	67.7042	21.9727	68.3365	21.9727	68.3079	21.9727	68.8705	21.9727	68.8507	21.9727	69.3247	21.9727	69.3093	21.9727	69.6716	21.9727	69.66	21.9727	69.8884	21.9727	69.8819	21.9727	69.96
23.4375	61.7584	23.4375	61.7598	23.4375	61.8218	23.4375	61.8348	23.4375	61.9482	23.4375	61.9974	23.4375	62.1421	23.4375	62.263	23.4375	62.4129	23.4375	62.6427	23.4375	62.7711	23.4375	63.1378	23.4375	63.2242	23.4375	63.7375	23.4375	63.7718	23.4375	64.4201	23.4375	64.404	23.4375	65.1574	23.4375	65.1015	23.4375	65.9189	23.4375	65.8383	23.4375	66.675	23.4375	66.5844	23.4375	67.3983	23.4375	67.3092	23.4375	68.0633	23.4375	67.9831	23.4375	68.6461	23.4375	68.5789	23.4375	69.1249	23.4375	69.0728	23.4375	69.48	23.4375	69.4443	23.4375	69.696	23.4375	69.6778	23.4375	69.763
24.9023	66.9017	24.9023	66.8653	24.9023	66.9361	24.9023	66.8299	24.9023	66.9692	24.9023	66.8027	24.9023	67.0059	24.9023	66.7952	24.9023	67.0544	24.9023	66.8221	24.9023	67.1264	24.9023	66.9006	24.9023	67.2356	24.9023	67.0474	24.9023	67.3964	24.9023	67.2752	24.9023	67.6207	24.9023	67.5886	24.9023	67.9151	24.9023	67.9815	24.9023	68.2775	24.9023	68.4363	24.9023	68.6955	24.9023	68.9266	24.9023	69.1469	24.9023	69.4205	24.9023	69.6024	24.9023	69.8848	24.9023	70.0296	24.9023	70.288	24.9023	70.3967	24.9023	70.6029	24.9023	70.6755	24.9023	70.8082	24.9023	70.8446	24.9023	70.8903
26.3672	67.5379	26.3672	67.5037	26.3672	67.5571	26.3672	67.4565	26.3672	67.5626	26.3672	67.4023	26.3672	67.5592	26.3672	67.3505	26.3672	67.5552	26.3672	67.3141	26.3672	67.5615	26.3672	67.3091	26.3672	67.5917	26.3672	67.3533	26.3672	67.6606	26.3672	67.4631	26.3672	67.7825	26.3672	67.65	26.3672	67.9679	26.3672	67.9166	26.3672	68.22	26.3672	68.2536	26.3672	68.5323	26.3672	68.6408	26.3672	68.8876	26.3672	69.05	26.3672	69.2604	26.3672	69.4487	26.3672	69.6201	26.3672	69.8045	26.3672	69.9351	26.3672	70.0884	26.3672	70.1766	26.3672	70.2776	26.3672	70.3221	26.3672	70.3573
27.832	65.6335	27.832	65.5816	27.832	65.662	27.832	65.5091	27.832	65.6684	27.832	65.4222	27.832	65.6572	27.832	65.3314	27.832	65.6358	27.832	65.2507	27.832	65.6143	27.832	65.1969	27.832	65.6053	27.832	65.1882	27.832	65.6227	27.832	65.241	27.832	65.6805	27.832	65.3659	27.832	65.7892	27.832	65.5637	27.832	65.9531	27.832	65.8241	27.832	66.1675	27.832	66.1274	27.832	66.4192	27.832	66.4479	27.832	66.6874	27.832	66.7586	27.832	66.9476	27.832	67.0344	27.832	67.175	27.832	67.2542	27.832	67.3477	27.832	67.4021	27.832	67.4489	27.832	67.4682
29.2969	67.0127	29.2969	66.988	29.2969	67.0224	29.2969	66.9507	29.2969	67.0188	29.2969	66.9071	29.2969	67.0072	29.2969	66.8673	29.2969	66.9964	29.2969	66.8451	29.2969	66.9982	29.2969	66.856	29.2969	67.0264	29.2969	66.9154	29.2969	67.0942	29.2969	67.0351	29.2969	67.2123	29.2969	67.2197	29.2969	67.3855	29.2969	67.4644	29.2969	67.6107	29.2969	67.7549	29.2969	67.877	29.2969	68.07	29.2969	68.1667	29.2969	68.3854	29.2969	68.4583	29.2969	68.6771	29.2969	68.7296	29.2969	68.925	29.2969	68.9607	29.2969	69.1136	29.2969	69.1355	29.2969	69.2325	29.2969	69.2429	29.2969	69.2761
30.7617	71.0061	30.7617	70.9993	30.7617	71.0277	30.7617	71.0093	30.7617	71.065	30.7617	71.04	30.7617	71.1207	30.7617	71.0974	30.7617	71.1993	30.7617	71.1885	30.7617	71.3065	30.7617	71.3203	30.7617	71.448	30.7617	71.4984	30.7617	71.6287	30.7617	71.7257	30.7617	71.8512	30.7617	72.0006	30.7617	72.115	30.7617	72.3165	30.7617	72.4154	30.7617	72.6614	30.7617	72.7432	30.7617	73.0194	30.7617	73.0842	30.7617	73.3711	30.7617	73.4209	30.7617	73.6963	30.7617	73.7333	30.7617	73.975	30.7617	74.0013	30.7617	74.1895	30.7617	74.2065	30.7617	74.3259	30.7617	74.3343	30.7617	74.3752
32.2266	73.771	32.2266	73.7722	32.2266	73.7883	32.2266	73.7929	32.2266	73.8246	32.2266	73.8356	32.2266	73.8819	32.2266	73.904	32.2266	73.9634	32.2266	74.003	32.2266	74.073	32.2266	74.1374	32.2266	74.215	32.2266	74.3119	32.2266	74.3934	32.2266	74.529	32.2266	74.6108	32.2266	74.7886	32.2266	74.8675	32.2266	75.0865	32.2266	75.1607	32.2266	75.4145	32.2266	75.4829	32.2266	75.7594	32.2266	75.822	32.2266	76.1045	32.2266	76.1609	32.2266	76.4298	32.2266	76.4791	32.2266	76.7142	32.2266	76.7546	32.2266	76.9376	32.2266	76.9665	32.2266	77.0826	32.2266	77.0978	32.2266	77.1376
33.6914	75.1754	33.6914	75.1813	33.6914	75.1901	33.6914	75.2082	33.6914	75.226	33.6914	75.2579	33.6914	75.2844	33.6914	75.3331	33.6914	75.368	33.6914	75.4374	33.6914	75.4798	33.6914	75.5747	33.6914	75.6235	33.6914	75.7489	33.6914	75.8022	33.6914	75.9626	33.6914	76.0185	33.6914	76.2161	33.6914	76.2728	33.6914	76.5069	33.6914	76.5629	33.6914	76.828	33.6914	76.882	33.6914	77.1678	33.6914	77.2187	33.6914	77.5103	33.6914	77.5569	33.6914	77.8354	33.6914	77.8761	33.6914	78.1212	33.6914	78.1543	33.6914	78.3463	33.6914	78.3698	33.6914	78.4923	33.6914	78.5045	33.6914	78.5466
35.1562	74.997	35.1562	75.0049	35.1562	75.0092	35.1562	75.0333	35.1562	75.042	35.1562	75.0834	35.1562	75.0963	35.1562	75.1569	35.1562	75.174	35.1562	75.2569	35.1562	75.2778	35.1562	75.3865	35.1562	75.4104	35.1562	75.5492	35.1562	75.5751	35.1562	75.7475	35.1562	75.7742	35.1562	75.9822	35.1562	76.0086	35.1562	76.2513	35.1562	76.2764	35.1562	76.5489	35.1562	76.5721	35.1562	76.8645	35.1562	76.8853	35.1562	77.1834	35.1562	77.2013	35.1562	77.4866	35.1562	77.5014	35.1562	77.7532	35.1562	77.7645	35.1562	77.9625	35.1562	77.9701	35.1562	78.0967	35.1562	78.1006	35.1562	78.1442
36.6211	73.8632	36.6211	73.8694	36.6211	73.8691	36.6211	73.8881	36.6211	73.8876	36.6211	73.9201	36.6211	73.9195	36.6211	73.9673	36.6211	73.9667	36.6211	74.032	36.6211	74.0315	36.6211	74.1172	36.6211	74.1163	36.6211	74.2258	36.6211	74.2237	36.6211	74.3601	36.6211	74.3556	36.6211	74.5209	36.6211	74.5125	36.6211	74.7066	36.6211	74.693	36.6211	74.9126	36.6211	74.8929	36.6211	75.1309	36.6211	75.1052	36.6211	75.35	36.6211	75.3199	36.6211	75.5562	36.6211	75.5247	36.6211	75.7348	36.6211	75.7057	36.6211	75.8719	36.6211	75.8494	36.6211	75.9562	36.6211	75.9439	36.6211	75.9807
38.0859	74.6573	38.0859	74.6623	38.0859	74.6561	38.0859	74.6712	38.0859	74.6591	38.0859	74.6848	38.0859	74.6669	38.0859	74.7039	38.0859	74.6805	38.0859	74.7299	38.0859	74.701	38.0859	74.7641	38.0859	74.7296	38.0859	74.8076	38.0859	74.7668	38.0859	74.8608	38.0859	74.813	38.0859	74.9231	38.0859	74.8675	38.0859	74.9923	38.0859	74.9286	38.0859	75.0648	38.0859	74.9936	38.0859	75.1354	38.0859	75.0592	38.0859	75.1989	38.0859	75.1214	38.0859	75.2505	38.0859	75.177	38.0859	75.2871	38.0859	75.2239	38.0859	75.3076	38.0859	75.2611	38.0859	75.3134	38.0859	75.2886	38.0859	75.3064
39.5508	76.7764	39.5508	76.7771	39.5508	76.7848	39.5508	76.7872	39.5508	76.8025	39.5508	76.807	39.5508	76.8295	39.5508	76.8371	39.5508	76.8664	39.5508	76.8781	39.5508	76.9132	39.5508	76.9301	39.5508	76.9699	39.5508	76.9932	39.5508	77.0364	39.5508	77.0669	39.5508	77.1118	39.5508	77.15	39.5508	77.1951	39.5508	77.2405	39.5508	77.2844	39.5508	77.3354	39.5508	77.3774	39.5508	77.4313	39.5508	77.4707	39.5508	77.524	39.5508	77.5603	39.5508	77.6092	39.5508	77.6416	39.5508	77.6828	39.5508	77.7098	39.5508	77.7407	39.5508	77.7604	39.5508	77.7794	39.5508	77.7899	39.5508	77.7963
41.0156	78.41	41.0156	78.4192	41.0156	78.4148	41.0156	78.4425	41.0156	78.4338	41.0156	78.4799	41.0156	78.467	41.0156	78.5314	41.0156	78.5147	41.0156	78.5971	41.0156	78.577	41.0156	78.6766	41.0156	78.6538	41.0156	78.7696	41.0156	78.7449	41.0156	78.8753	41.0156	78.8498	41.0156	78.9926	41.0156	78.9679	41.0156	79.1201	41.0156	79.0974	41.0156	79.2552	41.0156	79.236	41.0156	79.3944	41.0156	79.3798	41.0156	79.5329	41.0156	79.5233	41.0156	79.6639	41.0156	79.659	41.0156	79.7795	41.0156	79.7783	41.0156	79.8711	41.0156	79.8718	41.0156	79.9305	41.0156	79.9314	41.0156	79.9515
42.4805	79.2906	42.4805	79.3066	42.4805	79.2943	42.4805	79.342	42.4805	79.3178	42.4805	79.3965	42.4805	79.3612	42.4805	79.4697	42.4805	79.4246	42.4805	79.5611	42.4805	79.5077	42.4805	79.6702	42.4805	79.6104	42.4805	79.796	42.4805	79.7321	42.4805	79.9375	42.4805	79.8722	42.4805	80.0934	42.4805	80.0294	42.4805	80.2618	42.4805	80.2019	42.4805	80.4399	42.4805	80.3863	42.4805	80.6233	42.4805	80.5777	42.4805	80.8057	42.4805	80.7689	42.4805	80.9784	42.4805	80.9505	42.4805	81.1306	42.4805	81.1109	42.4805	81.2503	42.4805	81.238	42.4805	81.3265	42.4805	81.3206	42.4805	81.351
43.9453	78.9955	43.9453	79.0177	43.9453	78.9984	43.9453	79.0646	43.9453	79.0266	43.9453	79.1355	43.9453	79.0801	43.9453	79.2294	43.9453	79.1587	43.9453	79.3452	43.9453	79.2618	43.9453	79.4816	43.9453	79.3887	43.9453	79.6373	43.9453	79.5385	43.9453	79.8106	43.9453	79.7098	43.9453	79.9996	43.9453	79.9006	43.9453	80.2019	43.9453	80.108	43.9453	80.4138	43.9453	80.3279	43.9453	80.6298	43.9453	80.554	43.9453	80.8423	43.9453	80.778	43.9453	81.0411	43.9453	80.9892	43.9453	81.2139	43.9453	81.175	43.9453	81.3479	43.9453	81.322	43.9453	81.4313	43.9453	81.4184	43.9453	81.4558
45.4102	78.1561	45.4102	78.1805	45.4102	78.155	45.4102	78.2278	45.4102	78.1775	45.4102	78.2968	45.4102	78.2235	45.4102	78.3867	45.4102	78.2929	45.4102	78.4963	45.4102	78.3852	45.4102	78.6244	45.4102	78.4998	45.4102	78.7697	45.4102	78.6358	45.4102	78.9307	45.4102	78.7923	45.4102	79.1057	45.4102	78.9675	45.4102	79.2922	45.4102	79.1586	45.4102	79.4868	45.4102	79.3617	45.4102	79.6842	45.4102	79.571	45.4102	79.8773	45.4102	79.7787	45.4102	80.0566	45.4102	79.9749	45.4102	80.211	45.4102	80.1481	45.4102	80.3289	45.4102	80.2863	45.4102	80.4002	45.4102	80.3786	45.4102	80.4175
46.875	77.6295	46.875	77.6458	46.875	77.63	46.875	77.6786	46.875	77.6475	46.875	77.7271	46.875	77.6818	46.875	77.7906	46.875	77.7326	46.875	77.8683	46.875	77.7994	46.875	77.9592	46.875	77.8817	46.875	78.0624	46.875	77.9789	46.875	78.1771	46.875	78.0902	46.875	78.3019	46.875	78.2146	46.875	78.4353	46.875	78.3503	46.875	78.5747	46.875	78.4944	46.875	78.7164	46.875	78.6431	46.875	78.855	46.875	78.7908	46.875	78.9838	46.875	78.9304	46.875	79.0948	46.875	79.0535	46.875	79.1798	46.875	79.1516	46.875	79.2313	46.875	79.217	46.875	79.2442
48.3398	77.4481	48.3398	77.454	48.3398	77.4473	48.3398	77.4649	48.3398	77.4517	48.3398	77.4803	48.3398	77.4609	48.3398	77.4997	48.3398	77.4746	48.3398	77.5222	48.3398	77.4921	48.3398	77.5471	48.3398	77.5129	48.3398	77.5737	48.3398	77.5365	48.3398	77.6014	48.3398	77.5623	48.3398	77.6296	48.3398	77.5901	48.3398	77.6579	48.3398	77.6193	48.3398	77.6855	48.3398	77.6494	48.3398	77.712	48.3398	77.6797	48.3398	77.7365	48.3398	77.7092	48.3398	77.7583	48.3398	77.7367	48.3398	77.7764	48.3398	77.7606	48.3398	77.7897	48.3398	77.7796	48.3398	77.7974	48.3398	77.7925	48.3398	77.7984
51.2695	79.3895	51.2695	79.3984	51.2695	79.3828	51.2695	79.4088	51.2695	79.3781	51.2695	79.4195	51.2695	79.3745	51.2695	79.4287	51.2695	79.3705	51.2695	79.4339	51.2695	79.3644	51.2695	79.4323	51.2695	79.354	51.2695	79.4209	51.2695	79.3367	51.2695	79.3966	51.2695	79.3098	51.2695	79.3565	51.2695	79.2701	51.2695	79.2979	51.2695	79.2146	51.2695	79.219	51.2695	79.1411	51.2695	79.12	51.2695	79.0492	51.2695	79.0037	51.2695	78.9416	51.2695	78.8771	51.2695	78.8249	51.2695	78.7516	51.2695	78.7109	51.2695	78.6424	51.2695	78.6145	51.2695	78.5657	51.2695	78.5514	51.2695	78.5337
52.7344	80.0649	52.7344	80.0774	52.7344	80.0635	52.7344	80.1004	52.7344	80.0728	52.7344	80.1327	52.7344	80.0918	52.7344	80.1721	52.7344	80.1187	52.7344	80.2162	52.7344	80.1512	52.7344	80.2619	52.7344	80.1867	52.7344	80.3062	52.7344	80.222	52.7344	80.3455	52.7344	80.2539	52.7344	80.3766	52.7344	80.2788	52.7344	80.3961	52.7344	80.2934	52.7344	80.4014	52.7344	80.2953	52.7344	80.3907	52.7344	80.2837	52.7344	80.3642	52.7344	80.2601	52.7344	80.3245	52.7344	80.2287	52.7344	80.277	52.7344	80.1962	52.7344	80.2292	52.7344	80.1703	52.7344	80.1894	52.7344	80.1583	52.7344	80.1645
54.1992	80.192	54.1992	80.2074	54.1992	80.1963	54.1992	80.2417	54.1992	80.2197	54.1992	80.2935	54.1992	80.2607	54.1992	80.3604	54.1992	80.3171	54.1992	80.4392	54.1992	80.386	54.1992	80.5263	54.1992	80.4639	54.1992	80.6178	54.1992	80.5472	54.1992	80.7094	54.1992	80.6316	54.1992	80.7971	54.1992	80.7131	54.1992	80.8768	54.1992	80.7877	54.1992	80.9448	54.1992	80.8521	54.1992	80.9981	54.1992	80.9043	54.1992	81.0351	54.1992	80.9438	54.1992	81.0558	54.1992	80.9719	54.1992	81.0622	54.1992	80.9917	54.1992	81.058	54.1992	81.0068	54.1992	81.0473	54.1992	81.0203	54.1992	81.0339
55.6641	80.2808	55.6641	80.3006	55.6641	80.2833	55.6641	80.3419	55.6641	80.3074	55.6641	80.4033	55.6641	80.3518	55.6641	80.4821	55.6641	80.414	55.6641	80.5751	55.6641	80.4908	55.6641	80.6785	55.6641	80.5786	55.6641	80.7879	55.6641	80.6731	55.6641	80.8988	55.6641	80.7699	55.6641	81.0069	55.6641	80.8648	55.6641	81.1076	55.6641	80.9539	55.6641	81.1968	55.6641	81.0344	55.6641	81.2709	55.6641	81.1048	55.6641	81.3274	55.6641	81.165	55.6641	81.3654	55.6641	81.2164	55.6641	81.3854	55.6641	81.2606	55.6641	81.3893	55.6641	81.2992	55.6641	81.38	55.6641	81.3326	55.6641	81.3602
58.5938	79.9108	58.5938	79.913	58.5938	79.9226	58.5938	79.929	58.5938	79.9486	58.5938	79.9584	58.5938	79.9884	58.5938	80.0006	58.5938	80.0417	58.5938	80.0547	58.5938	80.1077	58.5938	80.1199	58.5938	80.1852	58.5938	80.1952	58.5938	80.2725	58.5938	80.2795	58.5938	80.3679	58.5938	80.372	58.5938	80.4694	58.5938	80.4714	58.5938	80.5751	58.5938	80.5764	58.5938	80.6829	58.5938	80.685	58.5938	80.7904	58.5938	80.7945	58.5938	80.8945	58.5938	80.9008	58.5938	80.9906	58.5938	80.9984	58.5938	81.0726	58.5938	81.0804	58.5938	81.1338	58.5938	81.1395	58.5938	81.1675	58.5938	81.1697
60.0586	79.387	60.0586	79.3763	60.0586	79.4075	60.0586	79.3757	60.0586	79.4373	60.0586	79.3856	60.0586	79.4761	60.0586	79.4063	60.0586	79.5236	60.0586	79.4381	60.0586	79.5794	60.0586	79.4809	60.0586	79.6433	60.0586	79.5348	60.0586	79.7152	60.0586	79.5999	60.0586	79.7952	60.0586	79.6761	60.0586	79.8832	60.0586	79.7636	60.0586	79.979	60.0586	79.8621	60.0586	80.0815	60.0586	79.9707	60.0586	80.1882	60.0586	80.0872	60.0586	80.2949	60.0586	80.207	60.0586	80.3947	60.0586	80.3233	60.0586	80.4791	60.0586	80.4266	60.0586	80.5387	60.0586	80.5066	60.0586	80.5655	60.0586	80.5547
62.9883	79.6259	62.9883	79.6259	62.9883	79.6183	62.9883	79.6186	62.9883	79.6026	62.9883	79.6042	62.9883	79.5788	62.9883	79.583	62.9883	79.5467	62.9883	79.5552	62.9883	79.5064	62.9883	79.5211	62.9883	79.4587	62.9883	79.4813	62.9883	79.4049	62.9883	79.4365	62.9883	79.3473	62.9883	79.3885	62.9883	79.289	62.9883	79.3395	62.9883	79.2341	62.9883	79.2924	62.9883	79.187	62.9883	79.2508	62.9883	79.1517	62.9883	79.2178	62.9883	79.1308	62.9883	79.1952	62.9883	79.1247	62.9883	79.1827	62.9883	79.1306	62.9883	79.1772	62.9883	79.1436	62.9883	79.1739	62.9883	79.1576	62.9883	79.1681
64.4531	80.2248	64.4531	80.2244	64.4531	80.2123	64.4531	80.2112	64.4531	80.1866	64.4531	80.1847	64.4531	80.1466	64.4531	80.1439	64.4531	80.0913	64.4531	80.0879	64.4531	80.0194	64.4531	80.0151	64.4531	79.9297	64.4531	79.9247	64.4531	79.8214	64.4531	79.8161	64.4531	79.6945	64.4531	79.6896	64.4531	79.5506	64.4531	79.5469	64.4531	79.3925	64.4531	79.3912	64.4531	79.2253	64.4531	79.2277	64.4531	79.0562	64.4531	79.0631	64.4531	78.8945	64.4531	78.906	64.4531	78.7506	64.4531	78.7652	64.4531	78.6346	64.4531	78.6495	64.4531	78.5548	64.4531	78.566	64.4531	78.5163	64.4531	78.5205
67.3828	81.3403	67.3828	81.3355	67.3828	81.3443	67.3828	81.3294	67.3828	81.3469	67.3828	81.3206	67.3828	81.3467	67.3828	81.3069	67.3828	81.3413	67.3828	81.2854	67.3828	81.3274	67.3828	81.2529	67.3828	81.3015	67.3828	81.2056	67.3828	81.2595	67.3828	81.1403	67.3828	81.1974	67.3828	81.0539	67.3828	81.1116	67.3828	80.9446	67.3828	80.9996	67.3828	80.8117	67.3828	80.8608	67.3828	80.6572	67.3828	80.6974	67.3828	80.4865	67.3828	80.5159	67.3828	80.3093	67.3828	80.3277	67.3828	80.1403	67.3828	80.1494	67.3828	79.9981	67.3828	80.0011	67.3828	79.9022	67.3828	79.9026	67.3828	79.8681
68.8477	81.52	68.8477	81.5157	68.8477	81.5302	68.8477	81.517	68.8477	81.5459	68.8477	81.5224	68.8477	81.5655	68.8477	81.5295	68.8477	81.5865	68.8477	81.5351	68.8477	81.6056	68.8477	81.5358	68.8477	81.619	68.8477	81.5274	68.8477	81.6224	68.8477	81.5063	68.8477	81.6113	68.8477	81.4689	68.8477	81.5816	68.8477	81.4127	68.8477	81.5298	68.8477	81.3366	68.8477	81.4541	68.8477	81.2417	68.8477	81.3549	68.8477	81.132	68.8477	81.2362	68.8477	81.0156	68.8477	81.106	68.8477	80.9043	68.8477	80.9766	68.8477	80.8128	68.8477	80.8633	68.8477	80.7559	68.8477	80.7818	68.8477	80.7443
71.7773	81.6674	71.7773	81.6667	71.7773	81.6796	71.7773	81.6772	71.7773	81.7032	71.7773	81.6976	71.7773	81.7368	71.7773	81.7259	71.7773	81.7785	71.7773	81.7595	71.7773	81.8256	71.7773	81.7952	71.7773	81.8747	71.7773	81.8292	71.7773	81.9219	71.7773	81.8579	71.7773	81.9629	71.7773	81.8775	71.7773	81.9936	71.7773	81.8852	71.7773	82.0101	71.7773	81.8792	71.7773	82.0099	71.7773	81.8594	71.7773	81.9919	71.7773	81.8281	71.7773	81.9571	71.7773	81.7903	71.7773	81.9089	71.7773	81.7531	71.7773	81.8533	71.7773	81.725	71.7773	81.7981	71.7773	81.7132	71.7773	81.7519	71.7773	81.7221
74.707	81.5849	74.707	81.5894	74.707	81.5934	74.707	81.6067	74.707	81.6148	74.707	81.6363	74.707	81.6487	74.707	81.6772	74.707	81.6943	74.707	81.728	74.707	81.7503	74.707	81.7869	74.707	81.8148	74.707	81.8517	74.707	81.8855	74.707	81.9196	74.707	81.9597	74.707	81.9878	74.707	82.0343	74.707	82.0535	74.707	82.1062	74.707	82.1142	74.707	82.1726	74.707	82.1684	74.707	82.2307	74.707	82.2152	74.707	82.2786	74.707	82.2545	74.707	82.315	74.707	82.287	74.707	82.3396	74.707	82.3135	74.707	82.3525	74.707	82.3341	74.707	82.3549	74.707	82.3483
77.6367	81.6772	77.6367	81.678	77.6367	81.6842	77.6367	81.6868	77.6367	81.6991	77.6367	81.7033	77.6367	81.7215	77.6367	81.7275	77.6367	81.7512	77.6367	81.7589	77.6367	81.7873	77.6367	81.7969	77.6367	81.8291	77.6367	81.8408	77.6367	81.8755	77.6367	81.8895	77.6367	81.9251	77.6367	81.9417	77.6367	81.9766	77.6367	81.9963	77.6367	82.0285	77.6367	82.0517	77.6367	82.0796	77.6367	82.1067	77.6367	82.1287	77.6367	82.1596	77.6367	82.1749	77.6367	82.2083	77.6367	82.217	77.6367	82.2502	77.6367	82.2536	77.6367	82.2826	77.6367	82.2827	77.6367	82.3027	77.6367	82.302	77.6367	82.3092
79.1016	81.7566	79.1016	81.7561	79.1016	81.7633	79.1016	81.7619	79.1016	81.7761	79.1016	81.7741	79.1016	81.7947	79.1016	81.7925	79.1016	81.819	79.1016	81.8171	79.1016	81.8483	79.1016	81.8474	79.1016	81.8821	79.1016	81.883	79.1016	81.9195	79.1016	81.9232	79.1016	81.9597	79.1016	81.9672	79.1016	82.0017	79.1016	82.0142	79.1016	82.0444	79.1016	82.0632	79.1016	82.0871	79.1016	82.1129	79.1016	82.1289	79.1016	82.1618	79.1016	82.1693	79.1016	82.2075	79.1016	82.2072	79.1016	82.247	79.1016	82.2415	79.1016	82.2772	79.1016	82.2701	79.1016	82.2951	79.1016	82.2903	79.1016	82.2993
82.0312	82.2816	82.0312	82.2775	82.0312	82.287	82.0312	82.2746	82.0312	82.2934	82.0312	82.2731	82.0312	82.3007	82.0312	82.273	82.0312	82.3088	82.0312	82.2744	82.0312	82.3173	82.0312	82.2772	82.0312	82.326	82.0312	82.2813	82.0312	82.3346	82.0312	82.287	82.0312	82.3428	82.0312	82.2944	82.0312	82.3504	82.0312	82.3036	82.0312	82.3574	82.0312	82.3151	82.0312	82.3639	82.0312	82.3289	82.0312	82.3702	82.0312	82.3448	82.0312	82.3768	82.0312	82.3619	82.0312	82.3838	82.0312	82.3784	82.0312	82.3913	82.0312	82.3922	82.0312	82.3984	82.0312	82.4015	82.0312	82.4036	82.0312	82.4052
84.9609	82.652	84.9609	82.6495	84.9609	82.6582	84.9609	82.6506	84.9609	82.6683	84.9609	82.655	84.9609	82.6824	84.9609	82.6624	84.9609	82.7001	84.9609	82.6724	84.9609	82.7213	84.9609	82.6845	84.9609	82.7453	84.9609	82.6985	84.9609	82.7713	84.9609	82.7138	84.9609	82.7985	84.9609	82.7304	84.9609	82.8255	84.9609	82.7482	84.9609	82.8514	84.9609	82.7673	84.9609	82.8752	84.9609	82.7882	84.9609	82.8959	84.9609	82.8109	84.9609	82.913	84.9609	82.8353	84.9609	82.9259	84.9609	82.8604	84.9609	82.934	84.9609	82.8847	84.9609	82.9366	84.9609	82.9061	84.9609	82.9329	84.9609	82.9226
87.8906	82.6125	87.8906	82.6099	87.8906	82.6162	87.8906	82.6084	87.8906	82.6215	87.8906	82.6086	87.8906	82.6295	87.8906	82.6116	87.8906	82.6417	87.8906	82.6189	87.8906	82.6598	87.8906	82.632	87.8906	82.6856	87.8906	82.6527	87.8906	82.7206	87.8906	82.6825	87.8906	82.7656	87.8906	82.7227	87.8906	82.8208	87.8906	82.7738	87.8906	82.8853	87.8906	82.8355	87.8906	82.9572	87.8906	82.9066	87.8906	83.0333	87.8906	82.9845	87.8906	83.1095	87.8906	83.0651	87.8906	83.1805	87.8906	83.1431	87.8906	83.2401	87.8906	83.2119	87.8906	83.2822	87.8906	83.2647	87.8906	83.3017	87.8906	83.2958
90.8203	82.9429	90.8203	82.945	90.8203	82.9355	90.8203	82.9416	90.8203	82.923	90.8203	82.9335	90.8203	82.9064	90.8203	82.9213	90.8203	82.8873	90.8203	82.9064	90.8203	82.868	90.8203	82.8907	90.8203	82.8512	90.8203	82.8766	90.8203	82.8404	90.8203	82.867	90.8203	82.839	90.8203	82.8655	90.8203	82.8506	90.8203	82.876	90.8203	82.8779	90.8203	82.9016	90.8203	82.9221	90.8203	82.9442	90.8203	82.9824	90.8203	83.0032	90.8203	83.0548	90.8203	83.0746	90.8203	83.1324	90.8203	83.1506	90.8203	83.2056	90.8203	83.2209	90.8203	83.2639	90.8203	83.2743	90.8203	83.2979	90.8203	83.3016
95.2148	83.6976	95.2148	83.7092	95.2148	83.674	95.2148	83.7085	95.2148	83.6383	95.2148	83.6952	95.2148	83.5902	95.2148	83.6687	95.2148	83.5292	95.2148	83.6284	95.2148	83.4554	95.2148	83.5743	95.2148	83.3691	95.2148	83.5071	95.2148	83.272	95.2148	83.4287	95.2148	83.167	95.2148	83.3428	95.2148	83.0593	95.2148	83.2544	95.2148	82.9562	95.2148	83.17	95.2148	82.8665	95.2148	83.0964	95.2148	82.7994	95.2148	83.0388	95.2148	82.7618	95.2148	82.9988	95.2148	82.7561	95.2148	82.9734	95.2148	82.7781	95.2148	82.9551	95.2148	82.8182	95.2148	82.9345	95.2148	82.864	95.2148	82.9046
98.1445	84.2354	98.1445	84.2326	98.1445	84.2276	98.1445	84.2191	98.1445	84.209	98.1445	84.1946	98.1445	84.1789	98.1445	84.1585	98.1445	84.1364	98.1445	84.1102	98.1445	84.0804	98.1445	84.049	98.1445	84.0098	98.1445	83.9748	98.1445	83.9239	98.1445	83.888	98.1445	83.8225	98.1445	83.7901	98.1445	83.7071	98.1445	83.6841	98.1445	83.5814	98.1445	83.5745	98.1445	83.4516	98.1445	83.4669	98.1445	83.3264	98.1445	83.3671	98.1445	83.2159	98.1445	83.2796	98.1445	83.1293	98.1445	83.2066	98.1445	83.0724	98.1445	83.1476	98.1445	83.046	98.1445	83.101	98.1445	83.0461	98.1445	83.0663
101.074	84.7495	101.074	84.7497	101.074	84.739	101.074	84.7399	101.074	84.7172	101.074	84.7201	101.074	84.6831	101.074	84.6895	101.074	84.6354	101.074	84.6465	101.074	84.5728	101.074	84.5889	101.074	84.4943	101.074	84.5143	101.074	84.3988	101.074	84.4205	101.074	84.2859	101.074	84.3064	101.074	84.1558	101.074	84.1728	101.074	84.0105	101.074	84.0228	101.074	83.8538	101.074	83.8629	101.074	83.6926	101.074	83.7016	101.074	83.5366	101.074	83.5487	101.074	83.397	101.074	83.4136	101.074	83.2851	101.074	83.3037	101.074	83.2094	101.074	83.2244	101.074	83.1743	101.074	83.1801
105.469	84.8633	105.469	84.8273	105.469	84.9002	105.469	84.7924	105.469	84.9378	105.469	84.7585	105.469	84.9753	105.469	84.7252	105.469	85.0111	105.469	84.6914	105.469	85.0429	105.469	84.6555	105.469	85.0676	105.469	84.615	105.469	85.0808	105.469	84.5664	105.469	85.078	105.469	84.5063	105.469	85.054	105.469	84.4318	105.469	85.0041	105.469	84.3419	105.469	84.9247	105.469	84.239	105.469	84.8142	105.469	84.1296	105.469	84.6747	105.469	84.0251	105.469	84.5132	105.469	83.94	105.469	84.3416	105.469	83.8895	105.469	84.1764	105.469	83.886	105.469	84.0357	105.469	83.9355
108.398	85.002	108.398	84.9932	108.398	85.0091	108.398	84.9825	108.398	85.0148	108.398	84.9705	108.398	85.0197	108.398	84.9578	108.398	85.0243	108.398	84.9451	108.398	85.029	108.398	84.9328	108.398	85.033	108.398	84.9205	108.398	85.0349	108.398	84.9068	108.398	85.0323	108.398	84.8891	108.398	85.022	108.398	84.8644	108.398	85.0005	108.398	84.8295	108.398	84.9648	108.398	84.7826	108.398	84.9133	108.398	84.7245	108.398	84.8464	108.398	84.6598	108.398	84.7681	108.398	84.5965	108.398	84.6857	108.398	84.5455	108.398	84.6095	108.398	84.5171	108.398	84.5506	108.398	84.5182
112.793	85.193	112.793	85.1594	112.793	85.2231	112.793	85.1227	112.793	85.2496	112.793	85.084	112.793	85.2727	112.793	85.0447	112.793	85.2928	112.793	85.0065	112.793	85.3103	112.793	84.9713	112.793	85.3254	112.793	84.941	112.793	85.3377	112.793	84.9171	112.793	85.3465	112.793	84.9004	112.793	85.35	112.793	84.8909	112.793	85.3464	112.793	84.8879	112.793	85.3334	112.793	84.8898	112.793	85.3094	112.793	84.8955	112.793	85.2736	112.793	84.9045	112.793	85.2268	112.793	84.9179	112.793	85.172	112.793	84.938	112.793	85.1135	112.793	84.9672	112.793	85.057	112.793	85.0071
117.188	85.2566	117.188	85.2649	117.188	85.2388	117.188	85.2629	117.188	85.2132	117.188	85.2504	117.188	85.182	117.188	85.2284	117.188	85.1483	117.188	85.1984	117.188	85.1151	117.188	85.1631	117.188	85.0857	117.188	85.1261	117.188	85.063	117.188	85.0913	117.188	85.0494	117.188	85.063	117.188	85.046	117.188	85.0448	117.188	85.0528	117.188	85.039	117.188	85.0689	117.188	85.0461	117.188	85.0918	117.188	85.0645	117.188	85.1186	117.188	85.0911	117.188	85.1456	117.188	85.1212	117.188	85.169	117.188	85.1502	117.188	85.1854	117.188	85.1736	117.188	85.1922	117.188	85.1882
120.117	85.7859	120.117	85.7818	120.117	85.7759	120.117	85.7635	120.117	85.7519	120.117	85.7313	120.117	85.7142	120.117	85.6857	120.117	85.6636	120.117	85.6276	120.117	85.6016	120.117	85.5584	120.117	85.5303	120.117	85.4804	120.117	85.4528	120.117	85.3971	120.117	85.3731	120.117	85.3129	120.117	85.2959	120.117	85.233	120.117	85.2266	120.117	85.1627	120.117	85.1695	120.117	85.107	120.117	85.1277	120.117	85.0688	120.117	85.1019	120.117	85.0487	120.117	85.0897	120.117	85.0447	120.117	85.0865	120.117	85.0519	120.117	85.0863	120.117	85.0645	120.117	85.0839	120.117	85.0764
124.512	86.2371	124.512	86.251	124.512	86.2071	124.512	86.2478	124.512	86.1627	124.512	86.2264	124.512	86.1055	124.512	86.1862	124.512	86.0375	124.512	86.1267	124.512	85.9605	124.512	86.0475	124.512	85.8756	124.512	85.949	124.512	85.7841	124.512	85.8328	124.512	85.6871	124.512	85.7025	124.512	85.5864	124.512	85.5642	124.512	85.4854	124.512	85.4267	124.512	85.389	124.512	85.3008	124.512	85.3029	124.512	85.1967	124.512	85.2323	124.512	85.1222	124.512	85.1796	124.512	85.0792	124.512	85.1433	124.512	85.0639	124.512	85.1184	124.512	85.0678	124.512	85.099	124.512	85.0816
128.906	86.7627	128.906	86.7876	128.906	86.7185	128.906	86.7928	128.906	86.655	128.906	86.7779	128.906	86.5722	128.906	86.7421	128.906	86.4704	128.906	86.6842	128.906	86.3499	128.906	86.6028	128.906	86.2116	128.906	86.4964	128.906	86.0566	128.906	86.3643	128.906	85.8874	128.906	86.2071	128.906	85.7075	128.906	86.0278	128.906	85.5231	128.906	85.8327	128.906	85.3428	128.906	85.6317	128.906	85.1775	128.906	85.4372	128.906	85.0384	128.906	85.2619	128.906	84.9343	128.906	85.1157	128.906	84.8688	128.906	85.0028	128.906	84.8397	128.906	84.9221	128.906	84.8415	128.906	84.8693
133.301	87.0071	133.301	87.0075	133.301	86.9948	133.301	86.9972	133.301	86.9692	133.301	86.9764	133.301	86.9285	133.301	86.9447	133.301	86.8707	133.301	86.9003	133.301	86.7939	133.301	86.8405	133.301	86.6958	133.301	86.7612	133.301	86.5742	133.301	86.6581	133.301	86.4275	133.301	86.5276	133.301	86.2553	133.301	86.3676	133.301	86.0599	133.301	86.1799	133.301	85.8476	133.301	85.9707	133.301	85.6296	133.301	85.7514	133.301	85.4212	133.301	85.5369	133.301	85.2396	133.301	85.343	133.301	85.0999	133.301	85.1831	133.301	85.0114	133.301	85.0659	133.301	84.9773	133.301	84.9963
139.16	86.8988	139.16	86.8815	139.16	86.9091	139.16	86.8576	139.16	86.9128	139.16	86.8278	139.16	86.9103	139.16	86.7937	139.16	86.9014	139.16	86.7561	139.16	86.8847	139.16	86.715	139.16	86.8572	139.16	86.6691	139.16	86.8145	139.16	86.6152	139.16	86.7518	139.16	86.5494	139.16	86.6647	139.16	86.4678	139.16	86.5512	139.16	86.368	139.16	86.4127	139.16	86.2507	139.16	86.2555	139.16	86.1204	139.16	86.0907	139.16	85.9857	139.16	85.9328	139.16	85.8581	139.16	85.7974	139.16	85.7499	139.16	85.6979	139.16	85.6725	139.16	85.6427	139.16	85.6348
143.555	86.5247	143.555	86.5009	143.555	86.5501	143.555	86.4809	143.555	86.5757	143.555	86.467	143.555	86.6012	143.555	86.4612	143.555	86.6269	143.555	86.4642	143.555	86.6529	143.555	86.4748	143.555	86.6783	143.555	86.49	143.555	86.7005	143.555	86.5055	143.555	86.7156	143.555	86.5167	143.555	86.7187	143.555	86.5197	143.555	86.706	143.555	86.5123	143.555	86.6757	143.555	86.4946	143.555	86.6295	143.555	86.4691	143.555	86.5727	143.555	86.44	143.555	86.5131	143.555	86.412	143.555	86.4585	143.555	86.3896	143.555	86.4156	143.555	86.3763	143.555	86.3875	143.555	86.3749
147.949	87.1859	147.949	87.1683	147.949	87.1825	147.949	87.1306	147.949	87.1593	147.949	87.0755	147.949	87.1191	147.949	87.007	147.949	87.0661	147.949	86.9299	147.949	87.0053	147.949	86.849	147.949	86.9416	147.949	86.7684	147.949	86.8792	147.949	86.6915	147.949	86.8209	147.949	86.6208	147.949	86.7679	147.949	86.5584	147.949	86.7204	147.949	86.5064	147.949	86.6777	147.949	86.4668	147.949	86.6395	147.949	86.4413	147.949	86.6059	147.949	86.4305	147.949	86.577	147.949	86.4334	147.949	86.5525	147.949	86.447	147.949	86.5309	147.949	86.4669	147.949	86.5102	147.949	86.4888
153.809	87.5621	153.809	87.574	153.809	87.5265	153.809	87.5622	153.809	87.4682	153.809	87.5278	153.809	87.3891	153.809	87.4725	153.809	87.2915	153.809	87.3985	153.809	87.1788	153.809	87.3081	153.809	87.054	153.809	87.2029	153.809	86.9207	153.809	87.0841	153.809	86.7818	153.809	86.9527	153.809	86.6404	153.809	86.8109	153.809	86.4995	153.809	86.6622	153.809	86.3626	153.809	86.5119	153.809	86.2338	153.809	86.3668	153.809	86.1184	153.809	86.2335	153.809	86.0221	153.809	86.1178	153.809	85.9504	153.809	86.0237	153.809	85.9072	153.809	85.9539	153.809	85.894	153.809	85.9101
159.668	87.5831	159.668	87.5793	159.668	87.5666	159.668	87.5557	159.668	87.5305	159.668	87.5129	159.668	87.4759	159.668	87.4525	159.668	87.4048	159.668	87.3761	159.668	87.3193	159.668	87.2858	159.668	87.2221	159.668	87.1838	159.668	87.1157	159.668	87.0728	159.668	87.0029	159.668	86.9553	159.668	86.8866	159.668	86.8349	159.668	86.7702	159.668	86.7156	159.668	86.6576	159.668	86.6021	159.668	86.5526	159.668	86.4991	159.668	86.4588	159.668	86.4107	159.668	86.3791	159.668	86.3396	159.668	86.316	159.668	86.2871	159.668	86.2711	159.668	86.2538	159.668	86.2457	159.668	86.2399
165.527	87.4884	165.527	87.4742	165.527	87.4821	165.527	87.4416	165.527	87.4542	165.527	87.3934	165.527	87.4049	165.527	87.3322	165.527	87.3363	165.527	87.2604	165.527	87.2518	165.527	87.1797	165.527	87.1557	165.527	87.0916	165.527	87.0531	165.527	86.9979	165.527	86.9492	165.527	86.901	165.527	86.8492	165.527	86.8042	165.527	86.7577	165.527	86.7118	165.527	86.6786	165.527	86.6286	165.527	86.6141	165.527	86.5592	165.527	86.5648	165.527	86.5071	165.527	86.5293	165.527	86.4736	165.527	86.5043	165.527	86.4571	165.527	86.486	165.527	86.4542	165.527	86.4716	165.527	86.4604
171.387	87.4702	171.387	87.4223	171.387	87.4905	171.387	87.3498	171.387	87.482	171.387	87.2579	171.387	87.4459	171.387	87.1526	171.387	87.3852	171.387	87.04	171.387	87.304	171.387	86.9248	171.387	87.2072	171.387	86.8108	171.387	87.1	171.387	86.7005	171.387	86.9883	171.387	86.5969	171.387	86.8777	171.387	86.5039	171.387	86.7744	171.387	86.4265	171.387	86.6836	171.387	86.3699	171.387	86.6099	171.387	86.3373	171.387	86.5549	171.387	86.3291	171.387	86.5175	171.387	86.3416	171.387	86.4929	171.387	86.3678	171.387	86.4742	171.387	86.3997	171.387	86.4547	171.387	86.43
177.246	87.4749	177.246	87.4642	177.246	87.4534	177.246	87.4212	177.246	87.402	177.246	87.3479	177.246	87.3251	177.246	87.2486	177.246	87.2286	177.246	87.1292	177.246	87.1196	177.246	86.9969	177.246	87.0057	177.246	86.86	177.246	86.8939	177.246	86.7268	177.246	86.791	177.246	86.6056	177.246	86.7024	177.246	86.5041	177.246	86.6321	177.246	86.4291	177.246	86.5821	177.246	86.3847	177.246	86.5517	177.246	86.3713	177.246	86.5379	177.246	86.3849	177.246	86.5359	177.246	86.4169	177.246	86.5394	177.246	86.4567	177.246	86.542	177.246	86.4943	177.246	86.5377	177.246	86.5222
183.105	87.5646	183.105	87.5657	183.105	87.5292	183.105	87.5337	183.105	87.4594	183.105	87.4711	183.105	87.3569	183.105	87.3814	183.105	87.2252	183.105	87.2689	183.105	87.0705	183.105	87.1385	183.105	86.902	183.105	86.9952	183.105	86.7312	183.105	86.8443	183.105	86.571	183.105	86.6921	183.105	86.4335	183.105	86.5465	183.105	86.3278	183.105	86.4168	183.105	86.258	183.105	86.3128	183.105	86.2227	183.105	86.2419	183.105	86.2155	183.105	86.2061	183.105	86.2266	183.105	86.2011	183.105	86.2451	183.105	86.2165	183.105	86.2608	183.105	86.2396	183.105	86.2665	183.105	86.2587
188.965	87.4266	188.965	87.4155	188.965	87.404	188.965	87.3712	188.965	87.3486	188.965	87.2963	188.965	87.262	188.965	87.1959	188.965	87.147	188.965	87.0771	188.965	87.0071	188.965	86.9483	188.965	86.8474	188.965	86.8173	188.965	86.6751	188.965	86.6906	188.965	86.4996	188.965	86.5725	188.965	86.3319	188.965	86.4663	188.965	86.1831	188.965	86.3746	188.965	86.0627	188.965	86.2995	188.965	85.9766	188.965	86.2415	188.965	85.9266	188.965	86.1976	188.965	85.9104	188.965	86.1619	188.965	85.9225	188.965	86.1277	188.965	85.955	188.965	86.0895	188.965	85.9988	188.965	86.0457
196.289	87.441	196.289	87.4045	196.289	87.4363	196.289	87.3288	196.289	87.3909	196.289	87.2188	196.289	87.3077	196.289	87.0821	196.289	87.1916	196.289	86.9288	196.289	87.049	196.289	86.7705	196.289	86.8882	196.289	86.6184	196.289	86.7188	196.289	86.4824	196.289	86.5514	196.289	86.3695	196.289	86.3965	196.289	86.2838	196.289	86.2633	196.289	86.2265	196.289	86.1576	196.289	86.1959	196.289	86.0825	196.289	86.1871	196.289	86.0377	196.289	86.1913	196.289	86.0218	196.289	86.1977	196.289	86.0314	196.289	86.1955	196.289	86.0613	196.289	86.1781	196.289	86.1027	196.289	86.1451
203.613	87.6026	203.613	87.5622	203.613	87.5938	203.613	87.4718	203.613	87.5387	203.613	87.3341	203.613	87.4421	203.613	87.156	203.613	87.3096	203.613	86.9485	203.613	87.1474	203.613	86.7269	203.613	86.9621	203.613	86.5076	203.613	86.7608	203.613	86.3052	203.613	86.5517	203.613	86.1293	203.613	86.3446	203.613	85.983	203.613	86.1507	203.613	85.8648	203.613	85.9816	203.613	85.7711	203.613	85.8455	203.613	85.699	203.613	85.745	203.613	85.6465	203.613	85.6764	203.613	85.6116	203.613	85.6323	203.613	85.5916	203.613	85.6053	203.613	85.5829	203.613	85.5898	203.613	85.5827
210.938	87.4253	210.938	87.403	210.938	87.4082	210.938	87.3409	210.938	87.3534	210.938	87.239	210.938	87.2633	210.938	87.099	210.938	87.1425	210.938	86.925	210.938	86.997	210.938	86.725	210.938	86.8345	210.938	86.5096	210.938	86.6632	210.938	86.2915	210.938	86.4906	210.938	86.0831	210.938	86.3237	210.938	85.8954	210.938	86.1685	210.938	85.738	210.938	86.0299	210.938	85.6183	210.938	85.9116	210.938	85.5399	210.938	85.8156	210.938	85.5009	210.938	85.7409	210.938	85.4938	210.938	85.6838	210.938	85.5083	210.938	85.6389	210.938	85.5346	210.938	85.601	210.938	85.5664
218.262	87.0117	218.262	86.9949	218.262	86.9868	218.262	86.9383	218.262	86.9202	218.262	86.8451	218.262	86.8148	218.262	86.7195	218.262	86.677	218.262	86.5676	218.262	86.5169	218.262	86.398	218.262	86.3476	218.262	86.222	218.262	86.1835	218.262	86.0531	218.262	86.037	218.262	85.9035	218.262	85.9168	218.262	85.7814	218.262	85.8265	218.262	85.69	218.262	85.7665	218.262	85.6292	218.262	85.7344	218.262	85.5983	218.262	85.7261	218.262	85.5959	218.262	85.7352	218.262	85.6187	218.262	85.7519	218.262	85.6591	218.262	85.7649	218.262	85.705	218.262	85.7638	218.262	85.743
225.586	87.1919	225.586	87.1889	225.586	87.1425	225.586	87.1333	225.586	87.0427	225.586	87.0276	225.586	86.8957	225.586	86.8772	225.586	86.7065	225.586	86.6909	225.586	86.4831	225.586	86.4806	225.586	86.2371	225.586	86.259	225.586	85.9838	225.586	86.0394	225.586	85.7406	225.586	85.834	225.586	85.5232	225.586	85.6547	225.586	85.3432	225.586	85.5132	225.586	85.2077	225.586	85.4186	225.586	85.1215	225.586	85.3733	225.586	85.0877	225.586	85.3695	225.586	85.1049	225.586	85.3897	225.586	85.1638	225.586	85.4115	225.586	85.2455	225.586	85.4145	225.586	85.3265	225.586	85.3865
232.91	86.8999	232.91	86.8952	232.91	86.8516	232.91	86.8374	232.91	86.7518	232.91	86.7286	232.91	86.603	232.91	86.5738	232.91	86.409	232.91	86.3821	232.91	86.177	232.91	86.1664	232.91	85.9183	232.91	85.9423	232.91	85.6501	232.91	85.7249	232.91	85.3941	232.91	85.5257	232.91	85.1714	232.91	85.3502	232.91	84.9957	232.91	85.1998	232.91	84.8698	232.91	85.0759	232.91	84.7878	232.91	84.9822	232.91	84.7417	232.91	84.9216	232.91	84.7262	232.91	84.891	232.91	84.7382	232.91	84.8788	232.91	84.771	232.91	84.8687	232.91	84.8122	232.91	84.8475
241.699	86.5987	241.699	86.5623	241.699	86.5872	241.699	86.4775	241.699	86.5297	241.699	86.3458	241.699	86.4296	241.699	86.1704	241.699	86.2908	241.699	85.9572	241.699	86.118	241.699	85.7147	241.699	85.9158	241.699	85.4533	241.699	85.6894	241.699	85.1849	241.699	85.4456	241.699	84.9219	241.699	85.1933	241.699	84.6758	241.699	84.9439	241.699	84.4583	241.699	84.7099	241.699	84.2815	241.699	84.5034	241.699	84.1569	241.699	84.3356	241.699	84.0892	241.699	84.2145	241.699	84.0713	241.699	84.1426	241.699	84.0831	241.699	84.1129	241.699	84.1011	241.699	84.1088	241.699	84.1097
250.488	86.798	250.488	86.7542	250.488	86.775	250.488	86.646	250.488	86.6853	250.488	86.4784	250.488	86.5319	250.488	86.2586	250.488	86.3214	250.488	85.9967	250.488	86.0639	250.488	85.7059	250.488	85.7737	250.488	85.4026	250.488	85.4695	250.488	85.1042	250.488	85.1743	250.488	84.8262	250.488	84.9126	250.488	84.579	250.488	84.7042	250.488	84.3683	250.488	84.5567	250.488	84.1983	250.488	84.4614	250.488	84.0745	250.488	84.3979	250.488	84.0022	250.488	84.3453	250.488	83.9808	250.488	84.2907	250.488	84.0007	250.488	84.2312	250.488	84.047	250.488	84.1685	250.488	84.1058
259.277	86.5522	259.277	86.5431	259.277	86.5089	259.277	86.4832	259.277	86.4122	259.277	86.3736	259.277	86.2625	259.277	86.2144	259.277	86.0613	259.277	86.0043	259.277	85.8118	259.277	85.7436	259.277	85.5194	259.277	85.4387	259.277	85.1938	259.277	85.108	259.277	84.8511	259.277	84.7832	259.277	84.5165	259.277	84.5014	259.277	84.2236	259.277	84.2915	259.277	84.0076	259.277	84.1639	259.277	83.8924	259.277	84.1105	259.277	83.8779	259.277	84.1139	259.277	83.9388	259.277	84.1524	259.277	84.037	259.277	84.2024	259.277	84.1363	259.277	84.2399	259.277	84.2106	259.277	84.2458
268.066	86.3005	268.066	86.2568	268.066	86.2791	268.066	86.1534	268.066	86.1908	268.066	85.9981	268.066	86.0375	268.066	85.8005	268.066	85.8249	268.066	85.5688	268.066	85.5612	268.066	85.3064	268.066	85.2571	268.066	85.0098	268.066	84.9252	268.066	84.6743	268.066	84.5812	268.066	84.307	268.066	84.2442	268.066	83.9389	268.066	83.9384	268.066	83.6217	268.066	83.69	268.066	83.4044	268.066	83.5195	268.066	83.306	268.066	83.4302	268.066	83.3067	268.066	83.405	268.066	83.3622	268.066	83.4175	268.066	83.4275	268.066	83.4448	268.066	83.4719	268.066	83.4715	268.066	83.4847
276.855	86.3164	276.855	86.2766	276.855	86.3033	276.855	86.1783	276.855	86.2393	276.855	86.0153	276.855	86.1226	276.855	85.7848	276.855	85.947	276.855	85.4939	276.855	85.7051	276.855	85.1635	276.855	85.3917	276.855	84.826	276.855	85.0104	276.855	84.5154	276.855	84.5791	276.855	84.2554	276.855	84.1338	276.855	84.0571	276.855	83.7259	276.855	83.9229	276.855	83.4102	276.855	83.849	276.855	83.2249	276.855	83.8205	276.855	83.1715	276.855	83.8087	276.855	83.2127	276.855	83.7813	276.855	83.2952	276.855	83.7206	276.855	83.3802	276.855	83.6338	276.855	83.4591	276.855	83.5421
287.109	85.8117	287.109	85.8295	287.109	85.7394	287.109	85.7994	287.109	85.6038	287.109	85.7223	287.109	85.3988	287.109	85.5919	287.109	85.1271	287.109	85.3976	287.109	84.805	287.109	85.1316	287.109	84.4618	287.109	84.7988	287.109	84.1313	287.109	84.4249	287.109	83.8374	287.109	84.057	287.109	83.5851	287.109	83.7514	287.109	83.3671	287.109	83.5517	287.109	83.1843	287.109	83.4714	287.109	83.0613	287.109	83.4934	287.109	83.0377	287.109	83.5827	287.109	83.1354	287.109	83.7004	287.109	83.33	287.109	83.8087	287.109	83.5576	287.109	83.8714	287.109	83.7484	287.109	83.8568
297.363	86.1445	297.363	86.0783	297.363	86.1309	297.363	85.9473	297.363	86.0288	297.363	85.7731	297.363	85.8294	297.363	85.5768	297.363	85.5206	297.363	85.3666	297.363	85.0907	297.363	85.1309	297.363	84.5397	297.363	84.8445	297.363	83.8938	297.363	84.4847	297.363	83.2139	297.363	84.0511	297.363	82.5919	297.363	83.5818	297.363	82.1237	297.363	83.1571	297.363	81.8701	297.363	82.8725	297.363	81.8347	297.363	82.7822	297.363	81.9775	297.363	82.8606	297.363	82.242	297.363	83.0253	297.363	82.5667	297.363	83.1887	297.363	82.8854	297.363	83.285	297.363	83.1352	297.363	83.2728
307.617	85.5979	307.617	85.4348	307.617	85.6802	307.617	85.1944	307.617	85.6879	307.617	84.8904	307.617	85.633	307.617	84.5464	307.617	85.5245	307.617	84.1938	307.617	85.3603	307.617	83.8667	307.617	85.1246	307.617	83.5908	307.617	84.7948	307.617	83.3708	307.617	84.3574	307.617	83.1896	307.617	83.8231	307.617	83.0239	307.617	83.2373	307.617	82.8634	307.617	82.6809	307.617	82.7203	307.617	82.2543	307.617	82.6192	307.617	82.0374	307.617	82.5774	307.617	82.0416	307.617	82.5908	307.617	82.1985	307.617	82.6337	307.617	82.4031	307.617	82.6689	307.617	82.5693	307.617	82.6571
319.336	85.4715	319.336	85.3256	319.336	85.5376	319.336	85.1031	319.336	85.5237	319.336	84.808	319.336	85.4341	319.336	84.4429	319.336	85.276	319.336	84.0089	319.336	85.0558	319.336	83.5092	319.336	84.7756	319.336	82.9574	319.336	84.4333	319.336	82.3869	319.336	84.0288	319.336	81.8532	319.336	83.5722	319.336	81.4236	319.336	83.0885	319.336	81.1563	319.336	82.6134	319.336	81.0819	319.336	82.186	319.336	81.1879	319.336	81.8452	319.336	81.4136	319.336	81.6308	319.336	81.6678	319.336	81.5689	319.336	81.8644	319.336	81.6435	319.336	81.9497	319.336	81.7875	319.336	81.9131
329.59	85.0006	329.59	84.9254	329.59	85.019	329.59	84.7873	329.59	84.9859	329.59	84.5833	329.59	84.9053	329.59	84.3185	329.59	84.7802	329.59	84.0034	329.59	84.6135	329.59	83.6409	329.59	84.4067	329.59	83.216	329.59	84.1584	329.59	82.7067	329.59	83.8607	329.59	82.1198	329.59	83.5003	329.59	81.525	329.59	83.0662	329.59	81.0467	329.59	82.5668	329.59	80.7937	329.59	82.0432	329.59	80.7829	329.59	81.5695	329.59	80.9438	329.59	81.2321	329.59	81.1744	329.59	81.0906	329.59	81.3766	329.59	81.1375	329.59	81.4739	329.59	81.2909	329.59	81.4343
341.309	84.9533	341.309	84.9686	341.309	84.8402	341.309	84.8821	341.309	84.6378	341.309	84.6936	341.309	84.3628	341.309	84.4107	341.309	84.0406	341.309	84.0525	341.309	83.6998	341.309	83.646	341.309	83.362	341.309	83.2103	341.309	83.0377	341.309	82.738	341.309	82.7346	341.309	82.1986	341.309	82.4692	341.309	81.5744	341.309	82.2645	341.309	80.909	341.309	82.1309	341.309	80.3358	341.309	82.0493	341.309	80.0309	341.309	81.9771	341.309	80.0777	341.309	81.8761	341.309	80.3791	341.309	81.7372	341.309	80.7496	341.309	81.5811	341.309	81.057	341.309	81.4296	341.309	81.2707
353.027	84.6093	353.027	84.6546	353.027	84.5419	353.027	84.6671	353.027	84.4408	353.027	84.6116	353.027	84.2848	353.027	84.4436	353.027	84.0566	353.027	84.1391	353.027	83.7521	353.027	83.7162	353.027	83.38	353.027	83.2299	353.027	82.9555	353.027	82.7359	353.027	82.4905	353.027	82.2551	353.027	81.9922	353.027	81.7772	353.027	81.4726	353.027	81.301	353.027	80.9698	353.027	80.8636	353.027	80.5586	353.027	80.5331	353.027	80.3191	353.027	80.3669	353.027	80.2697	353.027	80.364	353.027	80.3453	353.027	80.4546	353.027	80.4559	353.027	80.5449	353.027	80.5425	353.027	80.5771
366.211	84.8694	366.211	84.7828	366.211	84.8405	366.211	84.5956	366.211	84.6974	366.211	84.3371	366.211	84.4515	366.211	84.0335	366.211	84.1219	366.211	83.6891	366.211	83.7409	366.211	83.291	366.211	83.3532	366.211	82.8368	366.211	82.9972	366.211	82.3526	366.211	82.6794	366.211	81.8686	366.211	82.371	366.211	81.3813	366.211	82.0312	366.211	80.8683	366.211	81.6346	366.211	80.3584	366.211	81.1857	366.211	79.9584	366.211	80.7316	366.211	79.7683	366.211	80.3638	366.211	79.7815	366.211	80.1688	366.211	79.9093	366.211	80.1404	366.211	80.0574	366.211	80.1719	366.211	80.1558
379.395	84.4281	379.395	84.4389	379.395	84.3508	379.395	84.3831	379.395	84.2025	379.395	84.2509	379.395	83.9809	379.395	84.0286	379.395	83.6865	379.395	83.709	379.395	83.3229	379.395	83.2977	379.395	82.9042	379.395	82.8114	379.395	82.4679	379.395	82.2811	379.395	82.0753	379.395	81.7585	379.395	81.7889	379.395	81.3073	379.395	81.6414	379.395	80.9687	379.395	81.6217	379.395	80.7426	379.395	81.6824	379.395	80.6199	379.395	81.7572	379.395	80.6225	379.395	81.7873	379.395	80.7731	379.395	81.7516	379.395	81.0263	379.395	81.6721	379.395	81.2789	379.395	81.5779	379.395	81.4603
392.578	84.6924	392.578	84.625	392.578	84.6483	392.578	84.465	392.578	84.4779	392.578	84.2298	392.578	84.1726	392.578	83.9302	392.578	83.7312	392.578	83.569	392.578	83.162	392.578	83.1461	392.578	82.4919	392.578	82.671	392.578	81.7788	392.578	82.174	392.578	81.1125	392.578	81.7101	392.578	80.5878	392.578	81.3424	392.578	80.2608	392.578	81.1103	392.578	80.1397	392.578	81.0035	392.578	80.2124	392.578	80.9715	392.578	80.4501	392.578	80.963	392.578	80.7744	392.578	80.9615	392.578	81.0664	392.578	80.9856	392.578	81.2317	392.578	81.0574	392.578	81.2485	392.578	81.1645
405.762	84.9968	405.762	84.8909	405.762	84.9834	405.762	84.6674	405.762	84.8465	405.762	84.3286	405.762	84.5821	405.762	83.8867	405.762	84.1864	405.762	83.3714	405.762	83.653	405.762	82.8263	405.762	82.9682	405.762	82.2908	405.762	82.118	405.762	81.7845	405.762	81.1161	405.762	81.3177	405.762	80.056	405.762	80.9178	405.762	79.1507	405.762	80.6344	405.762	78.6576	405.762	80.5038	405.762	78.6613	405.762	80.5158	405.762	79.0163	405.762	80.6291	405.762	79.5348	405.762	80.8026	405.762	80.0932	405.762	80.9936	405.762	80.6002	405.762	81.1362	405.762	80.9706	405.762	81.1485
420.41	85.2479	420.41	85.1258	420.41	85.2686	420.41	84.9154	420.41	85.1933	420.41	84.6347	420.41	85.0408	420.41	84.2815	420.41	84.8297	420.41	83.8242	420.41	84.5663	420.41	83.2225	420.41	84.2396	420.41	82.4686	420.41	83.817	420.41	81.6174	420.41	83.2454	420.41	80.7727	420.41	82.4683	420.41	80.0309	420.41	81.4727	420.41	79.4519	420.41	80.365	420.41	79.1119	420.41	79.4195	420.41	79.1179	420.41	78.9398	420.41	79.4688	420.41	78.9687	420.41	79.9701	420.41	79.2984	420.41	80.3772	420.41	79.7293	420.41	80.5443	420.41	80.1445	420.41	80.4475
435.059	84.0059	435.059	83.9934	435.059	83.9384	435.059	83.901	435.059	83.79	435.059	83.7211	435.059	83.5722	435.059	83.441	435.059	83.3106	435.059	83.0528	435.059	83.0295	435.059	82.5598	435.059	82.734	435.059	81.9732	435.059	82.4173	435.059	81.3	435.059	82.0843	435.059	80.5381	435.059	81.7445	435.059	79.707	435.059	81.3722	435.059	78.9214	435.059	80.9085	435.059	78.4246	435.059	80.3459	435.059	78.4115	435.059	79.821	435.059	78.7698	435.059	79.5569	435.059	79.2	435.059	79.6043	435.059	79.5128	435.059	79.7614	435.059	79.6952	435.059	79.837	435.059	79.801
451.172	85.3869	451.172	85.3052	451.172	85.3263	451.172	85.0824	451.172	85.1173	451.172	84.7223	451.172	84.746	451.172	84.2351	451.172	84.1947	451.172	83.63	451.172	83.4573	451.172	82.909	451.172	82.5698	451.172	82.0908	451.172	81.6417	451.172	81.2775	451.172	80.8575	451.172	80.6899	451.172	80.4126	451.172	80.5146	451.172	80.3979	451.172	80.6639	451.172	80.7259	451.172	80.8704	451.172	81.1808	451.172	80.9818	451.172	81.5536	451.172	81.0471	451.172	81.7482	451.172	81.184	451.172	81.7988	451.172	81.4114	451.172	81.8002	451.172	81.6359	451.172	81.8021	451.172	81.7677
465.82	85.5202	465.82	85.5554	465.82	85.4539	465.82	85.5057	465.82	85.3667	465.82	85.3004	465.82	85.2247	465.82	84.8939	465.82	84.9652	465.82	84.2967	465.82	84.5237	465.82	83.5606	465.82	83.8612	465.82	82.7149	465.82	82.9849	465.82	81.7219	465.82	81.9542	465.82	80.5626	465.82	80.8731	465.82	79.4702	465.82	79.8931	465.82	78.9857	465.82	79.2517	465.82	79.3184	465.82	79.2086	465.82	80.0373	465.82	79.7389	465.82	80.7723	465.82	80.4986	465.82	81.441	465.82	81.2073	465.82	82.0073	465.82	81.7829	465.82	82.366	465.82	82.2092	465.82	82.4294
483.398	84.6469	483.398	84.5472	483.398	84.6314	483.398	84.4055	483.398	84.4667	483.398	84.2714	483.398	84.18	483.398	84.1166	483.398	83.8323	483.398	83.8469	483.398	83.458	483.398	83.3629	483.398	83.0137	483.398	82.6094	483.398	82.3885	483.398	81.58	483.398	81.4814	483.398	80.2802	483.398	80.3053	483.398	78.7142	483.398	79.0684	483.398	77.0547	483.398	78.1422	483.398	76.0604	483.398	77.8396	483.398	76.5571	483.398	78.2094	483.398	77.8942	483.398	79.0461	483.398	79.1381	483.398	79.9998	483.398	80.0488	483.398	80.743	483.398	80.6768	483.398	81.0974	483.398	81.0483
499.512	84.7034	499.512	84.7063	499.512	84.584	499.512	84.5773	499.512	84.3965	499.512	84.3434	499.512	84.1812	499.512	84.0433	499.512	83.9349	499.512	83.6829	499.512	83.6104	499.512	83.2197	499.512	83.1461	499.512	82.5871	499.512	82.4961	499.512	81.7385	499.512	81.6348	499.512	80.6975	499.512	80.5449	499.512	79.5865	499.512	79.2444	499.512	78.5772	499.512	77.9309	499.512	77.822	499.512	77.1406	499.512	77.53	499.512	77.3097	499.512	77.9278	499.512	78.106	499.512	78.845	499.512	78.9854	499.512	79.7678	499.512	79.7162	499.512	80.3393	499.512	80.2349	499.512	80.4744
517.09	83.8076	517.09	83.7173	517.09	83.8633	517.09	83.6172	517.09	83.8475	517.09	83.5143	517.09	83.7243	517.09	83.3858	517.09	83.4728	517.09	83.1709	517.09	83.0893	517.09	82.7963	517.09	82.5763	517.09	82.2106	517.09	81.9333	517.09	81.3843	517.09	81.1554	517.09	80.288	517.09	80.2412	517.09	78.9334	517.09	79.2198	517.09	77.5422	517.09	78.2089	517.09	76.6911	517.09	77.4928	517.09	76.8019	517.09	77.4072	517.09	77.5414	517.09	77.9476	517.09	78.4449	517.09	78.7703	517.09	79.2987	517.09	79.5568	517.09	79.9505	517.09	80.0966	517.09	80.2437
536.133	84.0054	536.133	83.9249	536.133	83.9846	536.133	83.7454	536.133	83.8509	536.133	83.4719	536.133	83.6004	536.133	83.1352	536.133	83.2502	536.133	82.7745	536.133	82.8236	536.133	82.3792	536.133	82.323	536.133	81.8655	536.133	81.7101	536.133	81.1355	536.133	80.8986	536.133	80.149	536.133	79.7735	536.133	78.9262	536.133	78.2493	536.133	77.5186	536.133	76.4179	536.133	76.1752	536.133	74.9325	536.133	75.7209	536.133	74.9625	536.133	76.6994	536.133	76.2868	536.133	78.1361	536.133	77.6557	536.133	79.1074	536.133	78.5637	536.133	79.4517	536.133	79.0762	536.133	79.3711
555.176	84.1673	555.176	84.237	555.176	84.0044	555.176	84.2034	555.176	83.794	555.176	84.0529	555.176	83.5987	555.176	83.759	555.176	83.4283	555.176	83.3241	555.176	83.223	555.176	82.7784	555.176	82.9115	555.176	82.1057	555.176	82.4537	555.176	81.195	555.176	81.8066	555.176	79.8947	555.176	80.8623	555.176	78.1348	555.176	79.4547	555.176	76.1305	555.176	77.5038	555.176	74.6289	555.176	75.4329	555.176	74.4422	555.176	74.5852	555.176	75.4093	555.176	75.4188	555.176	76.8149	555.176	76.6996	555.176	78.0483	555.176	77.7617	555.176	78.7629	555.176	78.5092	555.176	78.8846
574.219	83.4195	574.219	83.4443	574.219	83.3521	574.219	83.42	574.219	83.2633	574.219	83.3785	574.219	83.1448	574.219	83.33	574.219	82.9786	574.219	83.2336	574.219	82.756	574.219	83.0521	574.219	82.438	574.219	82.7557	574.219	81.933	574.219	82.2417	574.219	81.1643	574.219	81.3226	574.219	80.158	574.219	79.8281	574.219	79.0281	574.219	77.7046	574.219	77.8231	574.219	75.1447	574.219	76.5035	574.219	73.076	574.219	75.3731	574.219	73.1842	574.219	75.3283	574.219	74.9693	574.219	76.4493	574.219	76.7491	574.219	77.6942	574.219	77.9517	574.219	78.4286	574.219	78.5131
594.727	83.6025	594.727	83.3643	594.727	83.6584	594.727	83.0523	594.727	83.5128	594.727	82.7717	594.727	83.2478	594.727	82.5566	594.727	82.9634	594.727	82.3799	594.727	82.6924	594.727	82.1676	594.727	82.3996	594.727	81.8117	594.727	82.0384	594.727	81.2327	594.727	81.5603	594.727	80.4292	594.727	80.8464	594.727	79.4306	594.727	79.6835	594.727	78.2255	594.727	77.8788	594.727	76.8468	594.727	75.5059	594.727	75.7016	594.727	73.4653	594.727	75.6123	594.727	73.4785	594.727	76.5745	594.727	75.1926	594.727	77.6714	594.727	76.9601	594.727	78.3741	594.727	78.1072	594.727	78.5485
615.234	83.4133	615.234	83.4273	615.234	83.2572	615.234	83.2651	615.234	83.0244	615.234	82.9724	615.234	82.7727	615.234	82.6468	615.234	82.5448	615.234	82.3424	615.234	82.3608	615.234	82.0479	615.234	82.1961	615.234	81.7177	615.234	81.9593	615.234	81.2475	615.234	81.5084	615.234	80.4923	615.234	80.709	615.234	79.351	615.234	79.4886	615.234	77.7885	615.234	77.8792	615.234	75.9134	615.234	76.1801	615.234	74.4756	615.234	75.1864	615.234	74.6697	615.234	75.4477	615.234	75.9605	615.234	76.4083	615.234	77.2234	615.234	77.4205	615.234	78.0844	615.234	78.1588	615.234	78.4125
637.207	83.2365	637.207	83.2252	637.207	83.1233	637.207	83.0831	637.207	82.9163	637.207	82.823	637.207	82.6358	637.207	82.4858	637.207	82.2775	637.207	82.1591	637.207	81.8756	637.207	81.8991	637.207	81.5273	637.207	81.6373	637.207	81.2468	637.207	81.248	637.207	80.8381	637.207	80.6089	637.207	80.0713	637.207	79.5122	637.207	78.9329	637.207	77.6989	637.207	77.551	637.207	75.2963	637.207	75.92	637.207	73.4496	637.207	74.3887	637.207	73.3832	637.207	74.5894	637.207	74.6262	637.207	76.3349	637.207	76.2031	637.207	77.7059	637.207	77.4113	637.207	78.2131	637.207	78.0667
659.18	83.321	659.18	83.2435	659.18	83.246	659.18	83.0084	659.18	83.0667	659.18	82.6833	659.18	82.837	659.18	82.3518	659.18	82.5998	659.18	82.0558	659.18	82.349	659.18	81.8172	659.18	82.0311	659.18	81.5895	659.18	81.6545	659.18	81.1906	659.18	81.3071	659.18	80.4638	659.18	80.9094	659.18	79.4145	659.18	80.0834	659.18	77.9975	659.18	78.4401	659.18	75.9494	659.18	75.9443	659.18	73.5054	659.18	73.414	659.18	72.8219	659.18	72.6295	659.18	74.5202	659.18	73.7385	659.18	76.4202	659.18	75.3993	659.18	77.5808	659.18	76.8724	659.18	77.7127
682.617	83.4039	682.617	83.2468	682.617	83.3309	682.617	82.9356	682.617	83.0563	682.617	82.5686	682.617	82.6801	682.617	82.2055	682.617	82.2698	682.617	81.8697	682.617	81.8736	682.617	81.5835	682.617	81.5582	682.617	81.3782	682.617	81.2969	682.617	81.1583	682.617	80.9413	682.617	80.6409	682.617	80.3882	682.617	79.5796	682.617	79.5444	682.617	77.8759	682.617	78.1391	682.617	75.4611	682.617	75.8762	682.617	72.879	682.617	73.3539	682.617	72.696	682.617	73.3427	682.617	74.5544	682.617	75.401	682.617	75.9931	682.617	76.9015	682.617	76.809	682.617	77.4465	682.617	77.3109
707.52	83.0631	707.52	83.0929	707.52	82.8325	707.52	82.8786	707.52	82.4299	707.52	82.406	707.52	81.9116	707.52	81.7927	707.52	81.3875	707.52	81.2317	707.52	80.9543	707.52	80.7688	707.52	80.6194	707.52	80.3311	707.52	80.3851	707.52	79.9007	707.52	80.252	707.52	79.4034	707.52	79.9438	707.52	78.6371	707.52	79.0454	707.52	77.4307	707.52	77.4706	707.52	75.7638	707.52	75.4288	707.52	73.9538	707.52	73.3395	707.52	73.0252	707.52	72.7437	707.52	73.8122	707.52	74.4498	707.52	75.4029	707.52	76.4301	707.52	76.7452	707.52	77.4878	707.52	77.5084
732.422	83.3287	732.422	83.2698	732.422	83.1126	732.422	82.8786	732.422	82.7209	732.422	82.243	732.422	82.1482	732.422	81.5087	732.422	81.3433	732.422	80.7795	732.422	80.4297	732.422	80.1957	732.422	79.7695	732.422	79.9322	732.422	79.5529	732.422	79.9559	732.422	79.5313	732.422	79.9134	732.422	79.3722	732.422	79.2741	732.422	78.8223	732.422	77.6839	732.422	77.6433	732.422	75.3184	732.422	75.7563	732.422	72.8744	732.422	73.5237	732.422	71.6964	732.422	72.0476	732.422	73.1347	732.422	72.6359	732.422	75.4895	732.422	74.5792	732.422	77.0228	732.422	76.3787	732.422	77.2994
757.324	83.1648	757.324	83.0425	757.324	83.0495	757.324	82.8067	757.324	82.7152	757.324	82.4905	757.324	82.2664	757.324	81.9174	757.324	81.7444	757.324	81.0525	757.324	81.1672	757.324	80.2217	757.324	80.5756	757.324	79.5956	757.324	79.9456	757.324	78.9712	757.324	79.3554	757.324	78.3322	757.324	78.9587	757.324	77.6466	757.324	78.3932	757.324	76.5207	757.324	77.0726	757.324	74.5678	757.324	74.8696	757.324	71.5183	757.324	72.3771	757.324	69.4791	757.324	71.6413	757.324	72.0988	757.324	73.1338	757.324	74.6611	757.324	74.8187	757.324	76.0279	757.324	76.0114	757.324	76.4636
785.156	81.1003	785.156	81.0692	785.156	80.8014	785.156	80.6077	785.156	80.3735	785.156	79.9701	785.156	79.9739	785.156	79.4462	785.156	79.6642	785.156	78.8635	785.156	79.2743	785.156	78.0858	785.156	78.713	785.156	77.5152	785.156	78.2275	785.156	77.3375	785.156	77.761	785.156	77.0268	785.156	76.9423	785.156	76.2526	785.156	76.0308	785.156	74.79	785.156	75.3721	785.156	72.3775	785.156	74.459	785.156	71.4296	785.156	73.5006	785.156	72.8388	785.156	73.4976	785.156	73.7665	785.156	74.0921	785.156	74.64	785.156	74.7453	785.156	75.721	785.156	75.6072	785.156	76.1586
811.523	82.8529	811.523	82.4986	811.523	82.6788	811.523	81.7647	811.523	82.0697	811.523	80.7409	811.523	81.2857	811.523	79.5666	811.523	80.5788	811.523	78.9722	811.523	80.2062	811.523	79.4824	811.523	80.2083	811.523	80.5106	811.523	80.4682	811.523	81.3585	811.523	80.6912	811.523	81.4227	811.523	80.34	811.523	80.1382	811.523	79.028	811.523	77.0822	811.523	76.4288	811.523	71.6927	811.523	71.17	811.523	69.3476	811.523	65.4156	811.523	75.7593	811.523	73.5643	811.523	79.146	811.523	77.5661	811.523	80.5037	811.523	79.6772	811.523	81.1355	811.523	80.9528	811.523	81.4071
840.82	86.837	840.82	87.147	840.82	86.4538	840.82	86.9893	840.82	86.06	840.82	86.1511	840.82	85.309	840.82	84.7425	840.82	83.9532	840.82	83.1891	840.82	82.132	840.82	82.1009	840.82	80.4585	840.82	81.6557	840.82	80.3601	840.82	82.0209	840.82	81.8491	840.82	82.7626	840.82	82.7457	840.82	82.7005	840.82	82.2788	840.82	81.3613	840.82	80.6283	840.82	78.3215	840.82	77.2084	840.82	70.8759	840.82	69.0688	840.82	69.7923	840.82	73.4932	840.82	78.9586	840.82	79.9949	840.82	82.5666	840.82	82.9633	840.82	83.9008	840.82	84.0539	840.82	84.2054
870.117	86.7545	870.117	86.3949	870.117	86.7363	870.117	85.8744	870.117	86.1346	870.117	85.0566	870.117	85.0873	870.117	83.8638	870.117	83.7712	870.117	82.4691	870.117	82.1888	870.117	81.19	870.117	80.7447	870.117	81.2615	870.117	80.6497	870.117	82.5977	870.117	81.8777	870.117	83.411	870.117	83.0104	870.117	83.0892	870.117	83.157	870.117	81.5439	870.117	81.8753	870.117	78.3733	870.117	78.5778	870.117	71.3727	870.117	70.3857	870.117	59.7881	870.117	66.604	870.117	72.9989	870.117	75.8958	870.117	77.7079	870.117	79.3348	870.117	80.852	870.117	81.4801	870.117	82.1589
900.879	85.8837	900.879	86.046	900.879	85.6594	900.879	85.8553	900.879	85.5731	900.879	85.3076	900.879	85.4882	900.879	84.3818	900.879	84.9988	900.879	82.5968	900.879	83.5817	900.879	79.1364	900.879	80.5735	900.879	74.0802	900.879	75.8749	900.879	75.3367	900.879	76.8009	900.879	79.8159	900.879	80.7704	900.879	82.4506	900.879	82.7699	900.879	83.0149	900.879	82.8499	900.879	81.5485	900.879	81.0117	900.879	78.2023	900.879	76.9807	900.879	73.7829	900.879	73.3494	900.879	77.036	900.879	78.4804	900.879	81.7581	900.879	82.1024	900.879	83.7604	900.879	83.6664	900.879	84.1447
933.105	84.923	933.105	84.9543	933.105	84.837	933.105	84.9219	933.105	84.6682	933.105	84.7792	933.105	84.4153	933.105	84.3912	933.105	83.9862	933.105	83.6254	933.105	83.145	933.105	82.5605	933.105	81.74	933.105	80.7483	933.105	79.7336	933.105	77.5145	933.105	77.5498	933.105	76.3861	933.105	77.3925	933.105	79.0016	933.105	79.4629	933.105	80.69	933.105	81.3267	933.105	80.6916	933.105	81.734	933.105	78.839	933.105	79.991	933.105	74.2062	933.105	75.8049	933.105	67.8068	933.105	68.2772	933.105	71.2363	933.105	67.6207	933.105	74.907	933.105	73.8853	933.105	75.9028
965.332	84.9509	965.332	84.9622	965.332	84.8385	965.332	84.9864	965.332	84.5691	965.332	84.802	965.332	84.0945	965.332	84.0855	965.332	83.5344	965.332	83.003	965.332	82.9746	965.332	81.6922	965.332	81.7829	965.332	79.8815	965.332	79.358	965.332	77.3016	965.332	76.9767	965.332	75.7249	965.332	76.9459	965.332	78.0118	965.332	78.2758	965.332	80.3128	965.332	79.0763	965.332	80.3973	965.332	78.5237	965.332	77.5462	965.332	76.6827	965.332	72.7196	965.332	72.3836	965.332	66.1633	965.332	59.6215	965.332	60.5398	965.332	66.5574	965.332	72.1882	965.332	72.4277	965.332	74.1247
1,000.49	83.7733	1,000.49	84.0426	1,000.49	83.2643	1,000.49	83.556	1,000.49	82.9593	1,000.49	82.8256	1,000.49	82.8058	1,000.49	82.6665	1,000.49	82.4898	1,000.49	82.4379	1,000.49	81.6575	1,000.49	81.2256	1,000.49	80.329	1,000.49	79.0849	1,000.49	78.3901	1,000.49	77.3996	1,000.49	75.3732	1,000.49	76.7388	1,000.49	74.2162	1,000.49	77.9133	1,000.49	77.2796	1,000.49	79.3716	1,000.49	79.4862	1,000.49	79.6521	1,000.49	79.8723	1,000.49	78.6126	1,000.49	78.1038	1,000.49	74.578	1,000.49	73.6875	1,000.49	63.4935	1,000.49	62.5268	1,000.49	68.7154	1,000.49	68.0058	1,000.49	73.4322	1,000.49	74.8519	1,000.49	75.598
1,035.64	83.7599	1,035.64	83.5493	1,035.64	83.6022	1,035.64	83.2044	1,035.64	83.0525	1,035.64	82.7687	1,035.64	82.3394	1,035.64	82.4172	1,035.64	81.4217	1,035.64	82.0721	1,035.64	80.6511	1,035.64	81.2983	1,035.64	80.3597	1,035.64	79.7791	1,035.64	79.651	1,035.64	77.6112	1,035.64	78.0574	1,035.64	75.2653	1,035.64	76.5444	1,035.64	72.4941	1,035.64	75.9402	1,035.64	73.7651	1,035.64	75.6421	1,035.64	76.6531	1,035.64	75.365	1,035.64	76.3068	1,035.64	74.9124	1,035.64	71.9246	1,035.64	71.6544	1,035.64	65.0536	1,035.64	61.8689	1,035.64	55.287	1,035.64	62.817	1,035.64	63.5884	1,035.64	67.5663	1,035.64	68.4456
1,072.27	83.4732	1,072.27	83.3231	1,072.27	83.2152	1,072.27	83.026	1,072.27	82.7854	1,072.27	82.6927	1,072.27	82.5209	1,072.27	82.1633	1,072.27	82.1206	1,072.27	81.4326	1,072.27	81.3661	1,072.27	80.4889	1,072.27	80.208	1,072.27	79.5349	1,072.27	78.4202	1,072.27	78.069	1,072.27	76.5366	1,072.27	75.2038	1,072.27	75.5676	1,072.27	73.9617	1,072.27	75.4071	1,072.27	74.7102	1,072.27	75.5095	1,072.27	74.7669	1,072.27	75.7113	1,072.27	73.4552	1,072.27	74.7483	1,072.27	69.6234	1,072.27	71.4813	1,072.27	64.1105	1,072.27	61.5481	1,072.27	68.4384	1,072.27	64.9895	1,072.27	70.9217	1,072.27	70.0011	1,072.27	70.625
1,108.89	82.9488	1,108.89	83.1067	1,108.89	82.9455	1,108.89	82.991	1,108.89	82.7805	1,108.89	82.3902	1,108.89	82.291	1,108.89	81.6549	1,108.89	81.559	1,108.89	80.8342	1,108.89	80.4647	1,108.89	79.5509	1,108.89	79.2425	1,108.89	77.3228	1,108.89	77.5918	1,108.89	75.2743	1,108.89	75.1026	1,108.89	74.6005	1,108.89	73.5568	1,108.89	74.9007	1,108.89	74.8349	1,108.89	76.166	1,108.89	76.2192	1,108.89	75.9944	1,108.89	75.6842	1,108.89	73.6486	1,108.89	74.8629	1,108.89	69.1425	1,108.89	71.6117	1,108.89	65.1921	1,108.89	65.2581	1,108.89	69.1768	1,108.89	69.6822	1,108.89	72.7591	1,108.89	72.5717	1,108.89	73.4598
1,148.44	82.0488	1,148.44	81.9929	1,148.44	82.0653	1,148.44	81.9143	1,148.44	81.5676	1,148.44	81.194	1,148.44	81.0032	1,148.44	80.6642	1,148.44	80.5779	1,148.44	80.877	1,148.44	80.2141	1,148.44	80.5959	1,148.44	79.4996	1,148.44	79.0926	1,148.44	77.6401	1,148.44	76.7794	1,148.44	74.8359	1,148.44	74.7264	1,148.44	72.9778	1,148.44	74.729	1,148.44	73.3363	1,148.44	75.8135	1,148.44	73.2181	1,148.44	75.5432	1,148.44	71.9315	1,148.44	74.4122	1,148.44	69.1499	1,148.44	68.0786	1,148.44	64.166	1,148.44	62.0251	1,148.44	58.1796	1,148.44	71.0689	1,148.44	70.5023	1,148.44	73.2689	1,148.44	74.7445	1,148.44	74.9754
1,189.45	82.7261	1,189.45	82.5932	1,189.45	83.1267	1,189.45	82.3553	1,189.45	82.6882	1,189.45	81.1005	1,189.45	81.6558	1,189.45	79.9234	1,189.45	80.7762	1,189.45	79.9564	1,189.45	79.642	1,189.45	80.5493	1,189.45	78.9815	1,189.45	80.3218	1,189.45	78.1986	1,189.45	79.1553	1,189.45	75.9356	1,189.45	76.0096	1,189.45	72.5597	1,189.45	69.7594	1,189.45	71.3455	1,189.45	73.8301	1,189.45	75.2629	1,189.45	77.2523	1,189.45	76.5453	1,189.45	77.7453	1,189.45	76.1311	1,189.45	76.1296	1,189.45	74.4995	1,189.45	69.916	1,189.45	71.5669	1,189.45	65.2883	1,189.45	68.4898	1,189.45	70.7797	1,189.45	70.061	1,189.45	71.1922
1,230.47	85.6371	1,230.47	85.4429	1,230.47	85.2961	1,230.47	85.4723	1,230.47	84.6063	1,230.47	85.1382	1,230.47	84.0934	1,230.47	84.4206	1,230.47	83.2675	1,230.47	84.1204	1,230.47	82.4275	1,230.47	83.5745	1,230.47	82.2968	1,230.47	82.0993	1,230.47	81.5716	1,230.47	79.8743	1,230.47	80.5127	1,230.47	78.4306	1,230.47	77.8616	1,230.47	74.9991	1,230.47	74.8307	1,230.47	74.9001	1,230.47	74.616	1,230.47	76.0436	1,230.47	76.4593	1,230.47	77.5679	1,230.47	77.0396	1,230.47	76.4018	1,230.47	75.9042	1,230.47	71.9583	1,230.47	72.6033	1,230.47	64.0451	1,230.47	68.0242	1,230.47	69.0591	1,230.47	63.3996	1,230.47	69.6259
1,274.41	84.5422	1,274.41	84.7058	1,274.41	83.8597	1,274.41	84.3166	1,274.41	83.457	1,274.41	83.6796	1,274.41	83.0038	1,274.41	82.6109	1,274.41	82.1904	1,274.41	81.3929	1,274.41	80.9985	1,274.41	80.3252	1,274.41	80.2659	1,274.41	79.4054	1,274.41	79.6727	1,274.41	78.8142	1,274.41	78.1892	1,274.41	78.4969	1,274.41	75.6732	1,274.41	76.7004	1,274.41	71.2846	1,274.41	74.3774	1,274.41	72.2605	1,274.41	75.1483	1,274.41	76.5849	1,274.41	75.674	1,274.41	76.9244	1,274.41	74.3728	1,274.41	74.305	1,274.41	69.5645	1,274.41	71.096	1,274.41	60.0328	1,274.41	64.6189	1,274.41	70.4701	1,274.41	70.7289	1,274.41	73.0657
1,319.82	84.3661	1,319.82	84.0276	1,319.82	84.2776	1,319.82	83.638	1,319.82	83.7533	1,319.82	82.8052	1,319.82	82.6308	1,319.82	81.6839	1,319.82	81.2258	1,319.82	80.7366	1,319.82	79.5435	1,319.82	79.4683	1,319.82	78.5247	1,319.82	79.4711	1,319.82	78.3145	1,319.82	78.9088	1,319.82	77.1076	1,319.82	77.4058	1,319.82	74.9089	1,319.82	74.0025	1,319.82	69.2167	1,319.82	73.4302	1,319.82	71.156	1,319.82	74.9396	1,319.82	74.9726	1,319.82	75.4961	1,319.82	75.5608	1,319.82	73.7166	1,319.82	74.1722	1,319.82	66.1338	1,319.82	69.1628	1,319.82	62.6175	1,319.82	65.306	1,319.82	72.5779	1,319.82	70.0325	1,319.82	72.1967
1,366.7	83.708	1,366.7	83.6789	1,366.7	83.1856	1,366.7	83.012	1,366.7	82.849	1,366.7	82.2626	1,366.7	82.2437	1,366.7	81.3549	1,366.7	80.5624	1,366.7	79.4307	1,366.7	78.9563	1,366.7	77.4789	1,366.7	77.5046	1,366.7	76.7057	1,366.7	76.8036	1,366.7	75.825	1,366.7	76.8749	1,366.7	74.2263	1,366.7	75.5456	1,366.7	71.5028	1,366.7	72.4597	1,366.7	69.0227	1,366.7	73.3174	1,366.7	70.4643	1,366.7	72.9033	1,366.7	73.4146	1,366.7	74.5508	1,366.7	72.4634	1,366.7	73.766	1,366.7	66.2135	1,366.7	65.9953	1,366.7	63.0238	1,366.7	56.8114	1,366.7	70.8719	1,366.7	67.2198	1,366.7	72.1951
1,413.57	82.6736	1,413.57	82.3061	1,413.57	83.0454	1,413.57	82.0574	1,413.57	82.9039	1,413.57	82.1554	1,413.57	82.4519	1,413.57	81.5191	1,413.57	81.4288	1,413.57	80.003	1,413.57	79.9648	1,413.57	78.8205	1,413.57	78.8527	1,413.57	76.6577	1,413.57	77.0299	1,413.57	75.1584	1,413.57	75.0639	1,413.57	74.109	1,413.57	74.5098	1,413.57	72.8304	1,413.57	74.6928	1,413.57	71.2483	1,413.57	72.8146	1,413.57	68.2657	1,413.57	69.1856	1,413.57	66.8473	1,413.57	68.208	1,413.57	67.6083	1,413.57	68.5368	1,413.57	62.2381	1,413.57	66.2955	1,413.57	51.3892	1,413.57	58.8649	1,413.57	63.7784	1,413.57	65.337	1,413.57	65.8816
1,463.38	84.7606	1,463.38	84.7699	1,463.38	84.9449	1,463.38	84.0932	1,463.38	84.4168	1,463.38	83.4356	1,463.38	83.7917	1,463.38	82.9187	1,463.38	83.3297	1,463.38	80.9842	1,463.38	82.706	1,463.38	80.5947	1,463.38	81.7008	1,463.38	79.8303	1,463.38	79.8177	1,463.38	78.1026	1,463.38	77.703	1,463.38	75.8835	1,463.38	75.4481	1,463.38	75.5208	1,463.38	75.9399	1,463.38	74.3477	1,463.38	75.5408	1,463.38	75.4038	1,463.38	74.215	1,463.38	75.5936	1,463.38	73.3202	1,463.38	73.7847	1,463.38	74.2148	1,463.38	67.8909	1,463.38	69.2439	1,463.38	63.5491	1,463.38	67.5867	1,463.38	68.1226	1,463.38	68.9523	1,463.38	70.0606
1,516.11	85.6762	1,516.11	85.2879	1,516.11	85.8844	1,516.11	85.1111	1,516.11	85.5049	1,516.11	84.5083	1,516.11	84.3092	1,516.11	83.0999	1,516.11	83.2573	1,516.11	81.336	1,516.11	82.1031	1,516.11	80.2412	1,516.11	81.6517	1,516.11	79.7499	1,516.11	80.0194	1,516.11	78.9011	1,516.11	78.6678	1,516.11	76.3089	1,516.11	76.2887	1,516.11	73.9317	1,516.11	74.0284	1,516.11	74.2762	1,516.11	73.8297	1,516.11	75.8721	1,516.11	75.2396	1,516.11	76.7337	1,516.11	75.8752	1,516.11	74.8091	1,516.11	74.3068	1,516.11	69.9991	1,516.11	67.3146	1,516.11	60.2267	1,516.11	62.572	1,516.11	71.1532	1,516.11	73.6866	1,516.11	73.7149
1,568.85	84.8096	1,568.85	84.6638	1,568.85	84.4733	1,568.85	84.6308	1,568.85	83.8932	1,568.85	83.7697	1,568.85	83.336	1,568.85	82.3814	1,568.85	82.4882	1,568.85	81.6762	1,568.85	81.0961	1,568.85	80.8004	1,568.85	80.381	1,568.85	79.5819	1,568.85	79.8415	1,568.85	78.9321	1,568.85	78.8808	1,568.85	78.0439	1,568.85	77.5758	1,568.85	74.8666	1,568.85	74.0992	1,568.85	72.3473	1,568.85	70.5333	1,568.85	74.7277	1,568.85	72.7428	1,568.85	76.772	1,568.85	76.8242	1,568.85	76.1224	1,568.85	75.5459	1,568.85	73.6389	1,568.85	70.1807	1,568.85	61.6433	1,568.85	63.647	1,568.85	68.2579	1,568.85	67.8346	1,568.85	70.3833
1,624.51	84.1692	1,624.51	84.0632	1,624.51	84.093	1,624.51	83.8395	1,624.51	83.3057	1,624.51	83.0504	1,624.51	82.4963	1,624.51	81.6338	1,624.51	82.5569	1,624.51	80.5666	1,624.51	81.7545	1,624.51	79.4764	1,624.51	79.9256	1,624.51	80.1711	1,624.51	79.8522	1,624.51	78.7025	1,624.51	78.2957	1,624.51	77.541	1,624.51	76.9846	1,624.51	74.2307	1,624.51	74.0862	1,624.51	67.7052	1,624.51	70.9407	1,624.51	70.7495	1,624.51	73.9582	1,624.51	73.3555	1,624.51	75.0408	1,624.51	74.1086	1,624.51	72.7706	1,624.51	72.3163	1,624.51	69.7723	1,624.51	63.3527	1,624.51	63.6467	1,624.51	67.9401	1,624.51	68.7887	1,624.51	68.6683
1,681.64	84.2193	1,681.64	84.2081	1,681.64	84.423	1,681.64	83.6242	1,681.64	84.1892	1,681.64	82.9284	1,681.64	82.5006	1,681.64	82.1437	1,681.64	82.0721	1,681.64	82.0039	1,681.64	82.6144	1,681.64	80.4286	1,681.64	81.2273	1,681.64	79.4557	1,681.64	78.8123	1,681.64	78.5208	1,681.64	78.7404	1,681.64	76.2236	1,681.64	77.8514	1,681.64	73.4363	1,681.64	74.7704	1,681.64	70.4174	1,681.64	71.0154	1,681.64	69.8795	1,681.64	71.7361	1,681.64	72.2158	1,681.64	75.7971	1,681.64	75.773	1,681.64	75.4815	1,681.64	71.1548	1,681.64	72.1074	1,681.64	61.285	1,681.64	54.5876	1,681.64	71.0178	1,681.64	61.4068	1,681.64	73.0221
1,741.7	86.1526	1,741.7	85.0851	1,741.7	86.2054	1,741.7	84.3872	1,741.7	84.6316	1,741.7	83.8606	1,741.7	83.4306	1,741.7	83.2841	1,741.7	83.6176	1,741.7	81.9357	1,741.7	81.832	1,741.7	81.1844	1,741.7	80.1451	1,741.7	79.8347	1,741.7	78.0648	1,741.7	79.2737	1,741.7	79.3108	1,741.7	78.3228	1,741.7	79.0328	1,741.7	78.1782	1,741.7	77.933	1,741.7	72.9621	1,741.7	72.8641	1,741.7	70.202	1,741.7	71.2288	1,741.7	75.5331	1,741.7	76.7973	1,741.7	76.709	1,741.7	78.2541	1,741.7	72.7788	1,741.7	73.3354	1,741.7	62.6962	1,741.7	63.3079	1,741.7	68.5808	1,741.7	69.2267	1,741.7	69.6792
1,803.22	85.6857	1,803.22	85.6997	1,803.22	86.2461	1,803.22	85.2977	1,803.22	85.2554	1,803.22	84.5703	1,803.22	84.2921	1,803.22	82.9743	1,803.22	83.7597	1,803.22	83.208	1,803.22	80.9415	1,803.22	81.5685	1,803.22	80.2584	1,803.22	80.5877	1,803.22	78.6683	1,803.22	79.7078	1,803.22	77.0746	1,803.22	78.8167	1,803.22	76.4927	1,803.22	77.2336	1,803.22	76.8144	1,803.22	74.3278	1,803.22	75.6134	1,803.22	74.7279	1,803.22	75.8439	1,803.22	75.8227	1,803.22	77.0964	1,803.22	77.0023	1,803.22	77.6591	1,803.22	73.3257	1,803.22	75.2837	1,803.22	64.6225	1,803.22	67.7155	1,803.22	66.5533	1,803.22	68.8987	1,803.22	69.319
1,866.21	84.4639	1,866.21	84.3418	1,866.21	84.999	1,866.21	85.4484	1,866.21	84.7954	1,866.21	84.8007	1,866.21	82.9731	1,866.21	83.0796	1,866.21	81.6465	1,866.21	83.1338	1,866.21	82.3944	1,866.21	80.6849	1,866.21	80.8909	1,866.21	80.1497	1,866.21	78.8277	1,866.21	77.9941	1,866.21	78.6364	1,866.21	76.2298	1,866.21	76.7068	1,866.21	76.2842	1,866.21	77.2138	1,866.21	74.9696	1,866.21	76.4351	1,866.21	68.8508	1,866.21	70.4295	1,866.21	72.7919	1,866.21	74.4709	1,866.21	76.7245	1,866.21	76.6395	1,866.21	76.5422	1,866.21	73.7568	1,866.21	57.5606	1,866.21	65.1459	1,866.21	66.0918	1,866.21	63.2207	1,866.21	67.5998
1,932.13	83.9227	1,932.13	83.6208	1,932.13	84.0113	1,932.13	83.3616	1,932.13	83.8975	1,932.13	83.241	1,932.13	83.3005	1,932.13	82.7787	1,932.13	82.9209	1,932.13	81.8347	1,932.13	81.5406	1,932.13	80.0229	1,932.13	80.044	1,932.13	78.4664	1,932.13	78.7664	1,932.13	77.2819	1,932.13	77.2087	1,932.13	76.6537	1,932.13	76.2134	1,932.13	75.3958	1,932.13	75.1769	1,932.13	75.7095	1,932.13	74.5071	1,932.13	71.82	1,932.13	69.8524	1,932.13	71.9286	1,932.13	70.0674	1,932.13	74.3609	1,932.13	74.3688	1,932.13	71.6669	1,932.13	71.7795	1,932.13	64.7907	1,932.13	65.825	1,932.13	63.5542	1,932.13	57.0623	1,932.13	65.0415
1,999.51	84.1675	1,999.51	84.2747	1,999.51	84.1197	1,999.51	84.1747	1,999.51	84.1378	1,999.51	83.6778	1,999.51	83.8591	1,999.51	83.1728	1,999.51	83.2247	1,999.51	82.1779	1,999.51	82.5641	1,999.51	81.2107	1,999.51	81.3531	1,999.51	79.0352	1,999.51	80.2573	1,999.51	77.4069	1,999.51	78.2155	1,999.51	75.7358	1,999.51	75.2328	1,999.51	74.9756	1,999.51	75.7161	1,999.51	74.1559	1,999.51	75.7178	1,999.51	70.2762	1,999.51	70.722	1,999.51	71.5467	1,999.51	71.7449	1,999.51	75.2023	1,999.51	75.1712	1,999.51	74.9829	1,999.51	75.9061	1,999.51	70.8511	1,999.51	69.9061	1,999.51	59.6132	1,999.51	60.7469	1,999.51	62.0912
2,069.82	84.6593	2,069.82	84.7959	2,069.82	84.6468	2,069.82	84.3298	2,069.82	84.0572	2,069.82	84.2255	2,069.82	83.704	2,069.82	83.8348	2,069.82	83.1933	2,069.82	83.3656	2,069.82	82.5983	2,069.82	81.5256	2,069.82	81.4924	2,069.82	79.7877	2,069.82	80.277	2,069.82	79.2272	2,069.82	79.1478	2,069.82	77.445	2,069.82	76.6551	2,069.82	74.6889	2,069.82	74.5829	2,069.82	75.8444	2,069.82	74.9025	2,069.82	74.5727	2,069.82	73.6293	2,069.82	68.8835	2,069.82	67.3158	2,069.82	74.6734	2,069.82	74.4585	2,069.82	76.8714	2,069.82	76.0386	2,069.82	74.3915	2,069.82	73.5333	2,069.82	71.7544	2,069.82	69.5096	2,069.82	68.2461
2,143.07	84.5602	2,143.07	84.2749	2,143.07	84.3897	2,143.07	83.8071	2,143.07	83.8486	2,143.07	83.3234	2,143.07	82.8275	2,143.07	82.9846	2,143.07	82.0631	2,143.07	82.585	2,143.07	81.6008	2,143.07	81.1982	2,143.07	80.9204	2,143.07	79.621	2,143.07	78.457	2,143.07	78.0061	2,143.07	77.3118	2,143.07	78.0734	2,143.07	77.169	2,143.07	74.3114	2,143.07	74.4283	2,143.07	72.3344	2,143.07	72.7477	2,143.07	75.185	2,143.07	74.3443	2,143.07	73.7178	2,143.07	70.5935	2,143.07	70.894	2,143.07	68.2859	2,143.07	73.1122	2,143.07	72.2237	2,143.07	73.7818	2,143.07	72.3112	2,143.07	73.0397	2,143.07	73.1913	2,143.07	72.9039
2,219.24	83.9032	2,219.24	83.8817	2,219.24	84.0158	2,219.24	83.804	2,219.24	83.883	2,219.24	83.0394	2,219.24	83.2106	2,219.24	82.2393	2,219.24	82.21	2,219.24	81.4526	2,219.24	81.54	2,219.24	80.9771	2,219.24	80.6237	2,219.24	79.0872	2,219.24	79.3153	2,219.24	78.0202	2,219.24	77.5283	2,219.24	76.9912	2,219.24	76.1232	2,219.24	75.3678	2,219.24	74.9503	2,219.24	72.5246	2,219.24	73.299	2,219.24	72.5726	2,219.24	72.1305	2,219.24	72.3445	2,219.24	72.144	2,219.24	72.2997	2,219.24	72.3185	2,219.24	71.0389	2,219.24	72.4404	2,219.24	68.2527	2,219.24	69.7896	2,219.24	71.0354	2,219.24	68.8868	2,219.24	72.8732
2,296.88	84.3897	2,296.88	84.6157	2,296.88	84.6176	2,296.88	84.451	2,296.88	84.6368	2,296.88	83.9151	2,296.88	84.1491	2,296.88	82.905	2,296.88	83.3021	2,296.88	81.5143	2,296.88	82.4328	2,296.88	80.9567	2,296.88	81.3295	2,296.88	79.5997	2,296.88	80.0196	2,296.88	76.7309	2,296.88	77.6019	2,296.88	75.9055	2,296.88	75.1181	2,296.88	75.1918	2,296.88	75.195	2,296.88	71.9713	2,296.88	73.1041	2,296.88	72.0711	2,296.88	73.5774	2,296.88	70.9202	2,296.88	72.1125	2,296.88	71.0732	2,296.88	71.1893	2,296.88	72.2176	2,296.88	72.0308	2,296.88	69.7601	2,296.88	69.6523	2,296.88	70.619	2,296.88	71.6355	2,296.88	72.5585
2,378.91	84.5752	2,378.91	85.0382	2,378.91	84.7528	2,378.91	84.7913	2,378.91	84.5233	2,378.91	84.3732	2,378.91	84.1543	2,378.91	83.4502	2,378.91	83.351	2,378.91	82.5554	2,378.91	82.0766	2,378.91	82.2181	2,378.91	81.0316	2,378.91	80.6354	2,378.91	79.7894	2,378.91	78.5542	2,378.91	77.473	2,378.91	76.9166	2,378.91	77.0401	2,378.91	75.4178	2,378.91	74.517	2,378.91	73.3274	2,378.91	72.6475	2,378.91	72.9703	2,378.91	73.4599	2,378.91	72.4465	2,378.91	72.0537	2,378.91	71.7599	2,378.91	70.7079	2,378.91	72.8152	2,378.91	72.0672	2,378.91	70.5521	2,378.91	69.8324	2,378.91	69.0585	2,378.91	70.2487	2,378.91	70.832
2,462.4	84.7942	2,462.4	84.8972	2,462.4	84.3882	2,462.4	84.5168	2,462.4	84.3853	2,462.4	84.4216	2,462.4	84.0503	2,462.4	83.2397	2,462.4	83.6182	2,462.4	82.2113	2,462.4	82.4036	2,462.4	81.1728	2,462.4	80.9966	2,462.4	80.5053	2,462.4	79.8042	2,462.4	77.9109	2,462.4	77.8003	2,462.4	75.9492	2,462.4	76.1165	2,462.4	75.0208	2,462.4	74.5439	2,462.4	73.2451	2,462.4	73.2132	2,462.4	72.4792	2,462.4	71.9293	2,462.4	72.0825	2,462.4	72.1411	2,462.4	71.9325	2,462.4	72.0485	2,462.4	71.5881	2,462.4	71.6791	2,462.4	66.5441	2,462.4	66.6974	2,462.4	69.6021	2,462.4	68.3133	2,462.4	71.1773
2,548.83	84.4423	2,548.83	84.1038	2,548.83	84.4529	2,548.83	84.5633	2,548.83	84.3224	2,548.83	84.2702	2,548.83	84.3055	2,548.83	83.8481	2,548.83	83.795	2,548.83	82.0973	2,548.83	82.7417	2,548.83	79.4449	2,548.83	81.169	2,548.83	78.7201	2,548.83	79.8599	2,548.83	77.3008	2,548.83	78.0428	2,548.83	75.1184	2,548.83	75.6449	2,548.83	73.7181	2,548.83	75.8924	2,548.83	70.7528	2,548.83	72.1982	2,548.83	71.1851	2,548.83	72.3361	2,548.83	73.0013	2,548.83	73.2057	2,548.83	70.9076	2,548.83	72.0386	2,548.83	70.274	2,548.83	70.2599	2,548.83	67.576	2,548.83	69.6057	2,548.83	68.3595	2,548.83	71.0358	2,548.83	72.0373
2,639.65	83.8647	2,639.65	83.5085	2,639.65	84.1962	2,639.65	84.1256	2,639.65	83.8487	2,639.65	83.7707	2,639.65	83.8048	2,639.65	83.624	2,639.65	83.2114	2,639.65	82.8786	2,639.65	82.1067	2,639.65	80.7132	2,639.65	80.4044	2,639.65	79.0858	2,639.65	78.5749	2,639.65	77.9522	2,639.65	77.1158	2,639.65	74.7766	2,639.65	75.8128	2,639.65	73.7362	2,639.65	74.2029	2,639.65	73.6092	2,639.65	71.3719	2,639.65	70.8765	2,639.65	68.6504	2,639.65	70.7898	2,639.65	70.6031	2,639.65	73.1441	2,639.65	71.4846	2,639.65	71.8984	2,639.65	70.9471	2,639.65	66.405	2,639.65	64.6627	2,639.65	66.8517	2,639.65	66.4643	2,639.65	70.8467
2,731.93	83.2099	2,731.93	83.4822	2,731.93	83.6051	2,731.93	82.876	2,731.93	83.4258	2,731.93	82.6134	2,731.93	83.3166	2,731.93	82.5412	2,731.93	82.7199	2,731.93	82.1287	2,731.93	81.7933	2,731.93	79.997	2,731.93	79.8758	2,731.93	78.9357	2,731.93	78.7461	2,731.93	77.459	2,731.93	77.0372	2,731.93	73.3117	2,731.93	74.7921	2,731.93	74.102	2,731.93	73.0424	2,731.93	72.0299	2,731.93	70.7235	2,731.93	70.1693	2,731.93	71.2108	2,731.93	71.3221	2,731.93	71.2409	2,731.93	70.4585	2,731.93	70.438	2,731.93	71.8345	2,731.93	71.4763	2,731.93	68.6649	2,731.93	68.7352	2,731.93	68.5584	2,731.93	67.4129	2,731.93	70.4692
2,828.61	83.4461	2,828.61	83.5683	2,828.61	83.1872	2,828.61	83.1436	2,828.61	83.6332	2,828.61	83.445	2,828.61	83.6132	2,828.61	82.77	2,828.61	83.4485	2,828.61	81.4486	2,828.61	82.2289	2,828.61	80.1434	2,828.61	80.4124	2,828.61	78.1598	2,828.61	78.6278	2,828.61	75.7651	2,828.61	76.8884	2,828.61	73.7549	2,828.61	73.2009	2,828.61	72.5047	2,828.61	72.6813	2,828.61	71.0399	2,828.61	72.6279	2,828.61	66.4896	2,828.61	68.7122	2,828.61	69.3485	2,828.61	70.1933	2,828.61	70.1363	2,828.61	72.592	2,828.61	72.3164	2,828.61	72.7218	2,828.61	67.8973	2,828.61	68.6623	2,828.61	68.0221	2,828.61	67.0487	2,828.61	69.167
2,928.22	82.5952	2,928.22	82.6175	2,928.22	82.553	2,928.22	82.1928	2,928.22	82.8698	2,928.22	82.1365	2,928.22	82.4013	2,928.22	81.3763	2,928.22	82.2129	2,928.22	80.7922	2,928.22	81.6139	2,928.22	79.6744	2,928.22	79.7183	2,928.22	77.7842	2,928.22	76.7349	2,928.22	75.3002	2,928.22	75.9793	2,928.22	74.0062	2,928.22	73.6054	2,928.22	71.6765	2,928.22	70.4214	2,928.22	69.8817	2,928.22	70.6869	2,928.22	65.9846	2,928.22	64.198	2,928.22	69.1659	2,928.22	69.0709	2,928.22	67.6161	2,928.22	67.0449	2,928.22	70.2241	2,928.22	70.2924	2,928.22	69.939	2,928.22	68.328	2,928.22	65.5486	2,928.22	66.7758	2,928.22	68.8566
3,030.76	82.9888	3,030.76	82.8461	3,030.76	83.0666	3,030.76	83.3834	3,030.76	83.0354	3,030.76	83.1173	3,030.76	82.9292	3,030.76	82.338	3,030.76	82.0133	3,030.76	80.3879	3,030.76	81.4597	3,030.76	79.2251	3,030.76	79.8847	3,030.76	76.5177	3,030.76	77.4695	3,030.76	75.2394	3,030.76	75.7386	3,030.76	73.0332	3,030.76	73.4329	3,030.76	71.2485	3,030.76	70.8222	3,030.76	69.7239	3,030.76	70.0064	3,030.76	65.876	3,030.76	67.3582	3,030.76	67.8201	3,030.76	68.7019	3,030.76	67.0027	3,030.76	67.9884	3,030.76	69.7274	3,030.76	71.1374	3,030.76	67.7063	3,030.76	69.0859	3,030.76	64.9086	3,030.76	66.5583	3,030.76	68.4313
3,137.7	83.6858	3,137.7	83.6971	3,137.7	83.9994	3,137.7	84.2746	3,137.7	84.0558	3,137.7	84.2768	3,137.7	84.3236	3,137.7	83.6553	3,137.7	83.4512	3,137.7	82.5625	3,137.7	82.3718	3,137.7	81.2035	3,137.7	81.0064	3,137.7	78.5219	3,137.7	79.2399	3,137.7	76.7356	3,137.7	77.1297	3,137.7	75.3664	3,137.7	75.4894	3,137.7	73.1754	3,137.7	73.0779	3,137.7	72.3924	3,137.7	72.1748	3,137.7	68.3852	3,137.7	68.7387	3,137.7	69.4358	3,137.7	68.8915	3,137.7	69.8379	3,137.7	69.1809	3,137.7	69.9175	3,137.7	71.636	3,137.7	69.8833	3,137.7	69.3766	3,137.7	67.4472	3,137.7	68.4307	3,137.7	71.4465
3,249.02	82.7806	3,249.02	83.1109	3,249.02	83.8692	3,249.02	84.0747	3,249.02	84.199	3,249.02	84.4023	3,249.02	84.6721	3,249.02	83.7262	3,249.02	84.205	3,249.02	83.3873	3,249.02	83.1771	3,249.02	81.796	3,249.02	81.3329	3,249.02	79.8195	3,249.02	79.8062	3,249.02	78.1014	3,249.02	78.1043	3,249.02	76.0501	3,249.02	76.1706	3,249.02	73.2255	3,249.02	73.7641	3,249.02	73.3247	3,249.02	72.6358	3,249.02	71.0339	3,249.02	70.6769	3,249.02	69.7932	3,249.02	68.7701	3,249.02	69.6252	3,249.02	69.7364	3,249.02	70.8768	3,249.02	70.6995	3,249.02	71.56	3,249.02	70.7818	3,249.02	69.2033	3,249.02	67.5506	3,249.02	72.4775
3,363.28	83.0508	3,363.28	84.3013	3,363.28	82.5809	3,363.28	84.579	3,363.28	84.963	3,363.28	84.904	3,363.28	85.2626	3,363.28	85.404	3,363.28	85.2168	3,363.28	84.2288	3,363.28	83.995	3,363.28	82.4834	3,363.28	82.5228	3,363.28	80.9716	3,363.28	80.7805	3,363.28	78.795	3,363.28	78.7982	3,363.28	76.8504	3,363.28	76.5922	3,363.28	74.2225	3,363.28	74.5065	3,363.28	73.3304	3,363.28	73.5094	3,363.28	72.0648	3,363.28	71.9637	3,363.28	68.9306	3,363.28	69.358	3,363.28	72.6422	3,363.28	72.0166	3,363.28	71.0137	3,363.28	71.7633	3,363.28	70.9003	3,363.28	70.7066	3,363.28	64.9776	3,363.28	69.9306	3,363.28	71.0041
3,481.93	83.8296	3,481.93	84.0581	3,481.93	84.3958	3,481.93	85.3393	3,481.93	85.2983	3,481.93	85.8028	3,481.93	85.9768	3,481.93	85.7488	3,481.93	85.7145	3,481.93	84.2279	3,481.93	84.8669	3,481.93	83.2906	3,481.93	83.8955	3,481.93	81.6107	3,481.93	81.7588	3,481.93	80.0553	3,481.93	79.7239	3,481.93	77.3321	3,481.93	77.7259	3,481.93	75.8685	3,481.93	75.7174	3,481.93	73.9754	3,481.93	74.4084	3,481.93	73.3034	3,481.93	74.3075	3,481.93	70.6346	3,481.93	70.0229	3,481.93	72.9062	3,481.93	72.9435	3,481.93	72.8884	3,481.93	72.3436	3,481.93	72.6185	3,481.93	72.3098	3,481.93	67.3717	3,481.93	68.0574	3,481.93	72.3675
3,604.98	83.9069	3,604.98	84.5954	3,604.98	84.3981	3,604.98	85.386	3,604.98	85.4978	3,604.98	85.9343	3,604.98	86.1789	3,604.98	85.9426	3,604.98	85.7147	3,604.98	84.5569	3,604.98	85.096	3,604.98	82.7804	3,604.98	83.5727	3,604.98	81.1554	3,604.98	81.4729	3,604.98	79.7746	3,604.98	79.9248	3,604.98	77.7881	3,604.98	77.5637	3,604.98	75.9184	3,604.98	75.6263	3,604.98	74.0218	3,604.98	73.8321	3,604.98	73.4118	3,604.98	73.518	3,604.98	70.5958	3,604.98	70.0666	3,604.98	72.9402	3,604.98	73.2369	3,604.98	73.1453	3,604.98	71.9322	3,604.98	73.0698	3,604.98	72.7234	3,604.98	68.9714	3,604.98	67.6737	3,604.98	71.7253
3,732.42	85.1532	3,732.42	84.5925	3,732.42	85.9301	3,732.42	85.5877	3,732.42	85.9115	3,732.42	86.3801	3,732.42	86.5454	3,732.42	85.6471	3,732.42	86.3689	3,732.42	85.1037	3,732.42	85.5517	3,732.42	83.457	3,732.42	84.1289	3,732.42	82.3748	3,732.42	81.6503	3,732.42	80.6025	3,732.42	80.3025	3,732.42	77.3968	3,732.42	78.4007	3,732.42	76.441	3,732.42	76.1576	3,732.42	72.4212	3,732.42	73.9509	3,732.42	73.8381	3,732.42	74.4984	3,732.42	70.8284	3,732.42	70.3585	3,732.42	72.6993	3,732.42	72.7532	3,732.42	71.7037	3,732.42	73.0619	3,732.42	74.1188	3,732.42	73.046	3,732.42	69.1954	3,732.42	67.6203	3,732.42	71.1302
3,864.26	85.1045	3,864.26	85.19	3,864.26	85.536	3,864.26	86.2021	3,864.26	86.4625	3,864.26	86.3781	3,864.26	86.6689	3,864.26	86.018	3,864.26	86.6219	3,864.26	85.6482	3,864.26	86.003	3,864.26	84.1684	3,864.26	83.7344	3,864.26	82.4757	3,864.26	81.7556	3,864.26	79.8094	3,864.26	80.4204	3,864.26	78.9809	3,864.26	78.4433	3,864.26	75.4438	3,864.26	76.0213	3,864.26	73.2208	3,864.26	73.7019	3,864.26	73.8056	3,864.26	71.9348	3,864.26	70.9208	3,864.26	69.3038	3,864.26	73.2818	3,864.26	73.2372	3,864.26	72.6598	3,864.26	72.6613	3,864.26	73.3803	3,864.26	72.1941	3,864.26	67.4767	3,864.26	67.9838	3,864.26	71.1938
4,000.49	85.0646	4,000.49	86.4404	4,000.49	84.674	4,000.49	86.351	4,000.49	86.3135	4,000.49	86.5989	4,000.49	86.8622	4,000.49	87.603	4,000.49	86.6189	4,000.49	85.5787	4,000.49	85.2212	4,000.49	84.2315	4,000.49	83.739	4,000.49	82.0469	4,000.49	81.7971	4,000.49	78.9335	4,000.49	79.7048	4,000.49	78.0004	4,000.49	77.4521	4,000.49	75.8305	4,000.49	75.3039	4,000.49	74.2655	4,000.49	71.7749	4,000.49	71.4656	4,000.49	72.8361	4,000.49	70.015	4,000.49	71.5338	4,000.49	73.1277	4,000.49	72.6858	4,000.49	69.1147	4,000.49	70.2931	4,000.49	72.8698	4,000.49	74.735	4,000.49	68.1355	4,000.49	65.8767	4,000.49	69.0769
4,141.11	86.0261	4,141.11	85.6858	4,141.11	86.7853	4,141.11	86.6309	4,141.11	85.993	4,141.11	86.8724	4,141.11	86.6081	4,141.11	85.9158	4,141.11	85.6102	4,141.11	85.2	4,141.11	84.8443	4,141.11	84.0081	4,141.11	83.7475	4,141.11	81.6614	4,141.11	82.6186	4,141.11	79.7121	4,141.11	79.9398	4,141.11	78.1622	4,141.11	77.3915	4,141.11	76.9046	4,141.11	75.6545	4,141.11	73.393	4,141.11	73.6901	4,141.11	71.4593	4,141.11	72.817	4,141.11	70.714	4,141.11	70.2665	4,141.11	70.8079	4,141.11	71.577	4,141.11	71.915	4,141.11	70.7158	4,141.11	74.3468	4,141.11	73.9141	4,141.11	69.593	4,141.11	68.0954	4,141.11	70.4273
4,287.6	86.2497	4,287.6	86.1419	4,287.6	85.7682	4,287.6	86.5951	4,287.6	86.2481	4,287.6	86.1179	4,287.6	85.7208	4,287.6	85.3036	4,287.6	86.142	4,287.6	84.813	4,287.6	85.231	4,287.6	83.8647	4,287.6	83.7668	4,287.6	81.8207	4,287.6	81.5621	4,287.6	80.3133	4,287.6	78.6521	4,287.6	76.3839	4,287.6	77.3588	4,287.6	72.7178	4,287.6	75.173	4,287.6	72.9468	4,287.6	73.8443	4,287.6	71.3518	4,287.6	69.7207	4,287.6	69.4142	4,287.6	69.9037	4,287.6	70.3078	4,287.6	71.3314	4,287.6	71.2916	4,287.6	70.8704	4,287.6	73.5665	4,287.6	73.0319	4,287.6	67.7621	4,287.6	69.493	4,287.6	69.6694
4,438.48	85.9688	4,438.48	86.2949	4,438.48	86.3256	4,438.48	84.7256	4,438.48	86.5883	4,438.48	85.4469	4,438.48	86.3266	4,438.48	85.6378	4,438.48	86.0756	4,438.48	84.5009	4,438.48	85.3818	4,438.48	83.5073	4,438.48	83.277	4,438.48	81.1198	4,438.48	81.069	4,438.48	79.0322	4,438.48	80.2134	4,438.48	77.3301	4,438.48	77.465	4,438.48	77.0199	4,438.48	76.0671	4,438.48	72.4533	4,438.48	74.3341	4,438.48	70.7665	4,438.48	71.7966	4,438.48	71.633	4,438.48	68.9082	4,438.48	70.4535	4,438.48	69.3491	4,438.48	69.3497	4,438.48	70.5974	4,438.48	71.8099	4,438.48	73.9873	4,438.48	68.4538	4,438.48	67.6943	4,438.48	67.6646
4,595.21	87.1239	4,595.21	86.0969	4,595.21	86.6698	4,595.21	87.6674	4,595.21	85.0217	4,595.21	86.591	4,595.21	86.3294	4,595.21	86.3942	4,595.21	84.5595	4,595.21	86.1007	4,595.21	83.2229	4,595.21	84.2677	4,595.21	83.2929	4,595.21	82.5049	4,595.21	82.2921	4,595.21	81.0671	4,595.21	79.3966	4,595.21	77.1978	4,595.21	77.7488	4,595.21	77.3039	4,595.21	75.3233	4,595.21	71.9232	4,595.21	73.0322	4,595.21	71.0283	4,595.21	71.3964	4,595.21	69.3619	4,595.21	71.0582	4,595.21	71.4736	4,595.21	70.3624	4,595.21	71.1063	4,595.21	71.6596	4,595.21	73.3175	4,595.21	73.0964	4,595.21	67.8279	4,595.21	63.7475	4,595.21	69.5375
4,756.35	86.307	4,756.35	86.4739	4,756.35	85.0031	4,756.35	84.3545	4,756.35	85.9793	4,756.35	85.2659	4,756.35	84.7566	4,756.35	84.7466	4,756.35	85.5908	4,756.35	84.0955	4,756.35	85.4329	4,756.35	83.4884	4,756.35	83.5396	4,756.35	82.5626	4,756.35	81.2383	4,756.35	78.9881	4,756.35	81.2303	4,756.35	76.9233	4,756.35	77.6678	4,756.35	72.7068	4,756.35	74.7782	4,756.35	74.5225	4,756.35	71.953	4,756.35	72.209	4,756.35	70.8165	4,756.35	72.447	4,756.35	70.8123	4,756.35	66.2075	4,756.35	70.4292	4,756.35	70.8796	4,756.35	70.3846	4,756.35	72.4246	4,756.35	71.2145	4,756.35	67.0029	4,756.35	69.7992	4,756.35	68.215
4,924.8	86.66	4,924.8	86.1522	4,924.8	86.6297	4,924.8	85.1419	4,924.8	84.6898	4,924.8	84.887	4,924.8	85.1202	4,924.8	85.681	4,924.8	84.8762	4,924.8	85.4795	4,924.8	84.4159	4,924.8	84.6593	4,924.8	84.0369	4,924.8	83.309	4,924.8	81.8582	4,924.8	80.7578	4,924.8	79.0433	4,924.8	80.4933	4,924.8	77.7212	4,924.8	77.3325	4,924.8	76.1653	4,924.8	74.933	4,924.8	73.0697	4,924.8	70.5969	4,924.8	68.5376	4,924.8	72.2988	4,924.8	69.3603	4,924.8	72.0111	4,924.8	64.4394	4,924.8	71.7978	4,924.8	70.1375	4,924.8	71.0536	4,924.8	72.066	4,924.8	71.6651	4,924.8	68.2282	4,924.8	68.438
5,097.66	87.6211	5,097.66	86.7973	5,097.66	86.5805	5,097.66	86.5695	5,097.66	85.8417	5,097.66	85.8863	5,097.66	85.4079	5,097.66	86.676	5,097.66	86.0991	5,097.66	86.0818	5,097.66	86.0094	5,097.66	84.8598	5,097.66	84.1739	5,097.66	82.0054	5,097.66	82.5293	5,097.66	81.4094	5,097.66	80.9759	5,097.66	76.6598	5,097.66	77.4934	5,097.66	75.9558	5,097.66	75.3285	5,097.66	72.5501	5,097.66	72.1151	5,097.66	70.3559	5,097.66	72.3711	5,097.66	66.646	5,097.66	68.1842	5,097.66	70.0101	5,097.66	68.6381	5,097.66	71.9126	5,097.66	73.542	5,097.66	72.3973	5,097.66	70.2589	5,097.66	68.9565	5,097.66	70.1314	5,097.66	67.8186
5,277.83	87.2303	5,277.83	86.3057	5,277.83	86.2572	5,277.83	84.8943	5,277.83	84.6421	5,277.83	85.2193	5,277.83	84.4768	5,277.83	85.2626	5,277.83	85.7858	5,277.83	85.7636	5,277.83	86.5499	5,277.83	84.5575	5,277.83	84.869	5,277.83	84.0636	5,277.83	83.4908	5,277.83	81.2388	5,277.83	81.226	5,277.83	79.2261	5,277.83	76.1615	5,277.83	72.9836	5,277.83	75.4794	5,277.83	73.7371	5,277.83	73.9613	5,277.83	72.1027	5,277.83	69.2115	5,277.83	69.3598	5,277.83	68.3702	5,277.83	64.5424	5,277.83	67.9156	5,277.83	73.4413	5,277.83	71.3855	5,277.83	71.6688	5,277.83	69.9827	5,277.83	69.3663	5,277.83	67.5943	5,277.83	69.1567
5,463.87	88.5126	5,463.87	88.0988	5,463.87	87.9162	5,463.87	87.069	5,463.87	85.8656	5,463.87	86.079	5,463.87	86.0419	5,463.87	86.8708	5,463.87	85.9439	5,463.87	86.611	5,463.87	85.527	5,463.87	85.368	5,463.87	85.364	5,463.87	83.0631	5,463.87	83.9538	5,463.87	80.3849	5,463.87	78.9033	5,463.87	77.608	5,463.87	78.2034	5,463.87	75.4417	5,463.87	73.956	5,463.87	71.0274	5,463.87	73.1995	5,463.87	68.6711	5,463.87	70.1383	5,463.87	68.7404	5,463.87	69.4899	5,463.87	66.2092	5,463.87	68.8449	5,463.87	71.8141	5,463.87	71.2447	5,463.87	70.4342	5,463.87	70.2623	5,463.87	71.86	5,463.87	70.4166	5,463.87	67.6837
5,657.23	89.0353	5,657.23	87.9282	5,657.23	87.959	5,657.23	86.7312	5,657.23	87.0353	5,657.23	86.1146	5,657.23	85.53	5,657.23	86.4152	5,657.23	86.3657	5,657.23	85.4667	5,657.23	86.2257	5,657.23	84.0599	5,657.23	84.738	5,657.23	80.4063	5,657.23	82.143	5,657.23	79.2096	5,657.23	80.9392	5,657.23	74.5589	5,657.23	77.6292	5,657.23	74.6215	5,657.23	74.3902	5,657.23	71.4373	5,657.23	72.0744	5,657.23	71.9242	5,657.23	70.6989	5,657.23	68.2961	5,657.23	70.1045	5,657.23	62.7445	5,657.23	68.2883	5,657.23	67.7648	5,657.23	68.8478	5,657.23	69.3482	5,657.23	70.3686	5,657.23	68.2069	5,657.23	69.2465	5,657.23	67.3017
5,856.45	89.2585	5,856.45	88.4762	5,856.45	88.9145	5,856.45	87.2896	5,856.45	87.0079	5,856.45	86.2175	5,856.45	86.7645	5,856.45	86.0719	5,856.45	86.182	5,856.45	85.6873	5,856.45	85.5672	5,856.45	84.221	5,856.45	84.383	5,856.45	83.4715	5,856.45	82.9896	5,856.45	79.2057	5,856.45	80.3681	5,856.45	77.2068	5,856.45	77.8721	5,856.45	73.5467	5,856.45	74.3791	5,856.45	73.1714	5,856.45	71.6844	5,856.45	68.4956	5,856.45	69.9448	5,856.45	70.7258	5,856.45	65.3371	5,856.45	69.5428	5,856.45	61.9637	5,856.45	69.636	5,856.45	70.1714	5,856.45	67.3361	5,856.45	69.8869	5,856.45	69.3396	5,856.45	70.5613	5,856.45	65.4158
6,062.99	89.7611	6,062.99	88.9334	6,062.99	88.6824	6,062.99	87.7925	6,062.99	87.4348	6,062.99	86.5392	6,062.99	86.3929	6,062.99	86.3566	6,062.99	86.5483	6,062.99	85.3996	6,062.99	85.3468	6,062.99	83.847	6,062.99	83.4135	6,062.99	81.3966	6,062.99	79.9864	6,062.99	79.2687	6,062.99	79.6036	6,062.99	76.456	6,062.99	76.647	6,062.99	74.1247	6,062.99	74.5556	6,062.99	71.9189	6,062.99	71.0614	6,062.99	69.2468	6,062.99	68.4891	6,062.99	66.7193	6,062.99	69.4278	6,062.99	65.238	6,062.99	65.8245	6,062.99	69.5524	6,062.99	68.9005	6,062.99	67.42	6,062.99	69.6537	6,062.99	69.306	6,062.99	68.602	6,062.99	62.0259
6,276.86	89.8728	6,276.86	89.3073	6,276.86	89.3927	6,276.86	88.009	6,276.86	87.7783	6,276.86	86.633	6,276.86	86.707	6,276.86	85.9559	6,276.86	86.6535	6,276.86	85.3204	6,276.86	86.2054	6,276.86	83.9282	6,276.86	84.0636	6,276.86	81.1899	6,276.86	82.1974	6,276.86	79.7178	6,276.86	80.3503	6,276.86	77.548	6,276.86	76.0654	6,276.86	73.9838	6,276.86	74.1277	6,276.86	73.6838	6,276.86	71.6526	6,276.86	67.7542	6,276.86	67.1273	6,276.86	65.4528	6,276.86	65.4889	6,276.86	64.241	6,276.86	64.3901	6,276.86	67.4503	6,276.86	70.3576	6,276.86	68.7098	6,276.86	68.6031	6,276.86	69.9345	6,276.86	69.1098	6,276.86	62.0947
6,498.05	90.1478	6,498.05	89.5417	6,498.05	89.6758	6,498.05	88.8663	6,498.05	88.9275	6,498.05	86.9599	6,498.05	87.8646	6,498.05	86.7517	6,498.05	87.0474	6,498.05	86.3613	6,498.05	86.1167	6,498.05	84.7236	6,498.05	85.2434	6,498.05	83.0088	6,498.05	83.3901	6,498.05	81.3223	6,498.05	80.4449	6,498.05	78.0978	6,498.05	76.6489	6,498.05	74.3443	6,498.05	74.7644	6,498.05	71.3084	6,498.05	72.9484	6,498.05	68.6331	6,498.05	67.7646	6,498.05	65.9214	6,498.05	69.0943	6,498.05	63.1336	6,498.05	66.0938	6,498.05	68.8562	6,498.05	68.9339	6,498.05	67.9073	6,498.05	67.8085	6,498.05	69.7786	6,498.05	70.3995	6,498.05	62.7861
6,726.56	89.2104	6,726.56	88.9854	6,726.56	89.1245	6,726.56	88.2245	6,726.56	88.6124	6,726.56	86.9137	6,726.56	87.0354	6,726.56	86.1712	6,726.56	86.3901	6,726.56	84.6327	6,726.56	86.0294	6,726.56	84.7631	6,726.56	84.064	6,726.56	83.2242	6,726.56	82.0151	6,726.56	80.2575	6,726.56	79.9305	6,726.56	76.6624	6,726.56	76.9577	6,726.56	74.7319	6,726.56	73.9644	6,726.56	71.6552	6,726.56	71.8095	6,726.56	67.8659	6,726.56	70.7817	6,726.56	64.1349	6,726.56	63.3712	6,726.56	66.2651	6,726.56	65.3319	6,726.56	68.9916	6,726.56	69.4196	6,726.56	67.4056	6,726.56	68.392	6,726.56	69.7923	6,726.56	69.1285	6,726.56	61.3792
6,963.87	88.6102	6,963.87	88.6627	6,963.87	89.2239	6,963.87	88.1557	6,963.87	88.4299	6,963.87	86.7416	6,963.87	87.3016	6,963.87	86.0279	6,963.87	85.5446	6,963.87	86.2495	6,963.87	84.7318	6,963.87	84.0039	6,963.87	84.2427	6,963.87	82.2943	6,963.87	82.2933	6,963.87	79.7686	6,963.87	79.1161	6,963.87	77.4754	6,963.87	76.6395	6,963.87	73.2321	6,963.87	73.9271	6,963.87	72.8712	6,963.87	71.9345	6,963.87	68.7457	6,963.87	68.6239	6,963.87	67.4347	6,963.87	67.1482	6,963.87	59.9333	6,963.87	63.0193	6,963.87	66.961	6,963.87	65.3748	6,963.87	68.373	6,963.87	67.1175	6,963.87	68.4172	6,963.87	68.5188	6,963.87	59.0475
7,209.96	88.8044	7,209.96	88.4561	7,209.96	89.2144	7,209.96	88.2969	7,209.96	88.7831	7,209.96	87.3767	7,209.96	87.0327	7,209.96	86.4026	7,209.96	86.0713	7,209.96	85.4311	7,209.96	85.1132	7,209.96	84.8082	7,209.96	83.8593	7,209.96	82.9056	7,209.96	80.9478	7,209.96	79.6555	7,209.96	79.5136	7,209.96	76.5993	7,209.96	76.4106	7,209.96	73.3526	7,209.96	73.0273	7,209.96	70.9524	7,209.96	69.8218	7,209.96	67.6075	7,209.96	70.997	7,209.96	66.8844	7,209.96	61.69	7,209.96	65.6209	7,209.96	60.8099	7,209.96	69.1299	7,209.96	67.11	7,209.96	66.3489	7,209.96	66.994	7,209.96	69.9639	7,209.96	69.341	7,209.96	59.8628
7,464.84	88.1826	7,464.84	88.1924	7,464.84	89.1813	7,464.84	88.4049	7,464.84	89.0746	7,464.84	87.061	7,464.84	87.3988	7,464.84	86.392	7,464.84	85.7995	7,464.84	86.0168	7,464.84	85.2667	7,464.84	84.2441	7,464.84	83.3802	7,464.84	81.5913	7,464.84	82.1438	7,464.84	79.4992	7,464.84	79.3654	7,464.84	75.1766	7,464.84	75.981	7,464.84	73.0874	7,464.84	73.302	7,464.84	71.3416	7,464.84	71.4926	7,464.84	67.644	7,464.84	66.74	7,464.84	64.9612	7,464.84	64.345	7,464.84	60.1494	7,464.84	63.1269	7,464.84	66.2895	7,464.84	66.2742	7,464.84	65.416	7,464.84	66.8886	7,464.84	69.5216	7,464.84	68.9482	7,464.84	55.6491
7,727.05	88.1332	7,727.05	88.159	7,727.05	88.6151	7,727.05	88.2515	7,727.05	88.548	7,727.05	87.0081	7,727.05	86.8117	7,727.05	86.3403	7,727.05	85.9383	7,727.05	85.0068	7,727.05	85.0682	7,727.05	83.4645	7,727.05	83.5074	7,727.05	80.5665	7,727.05	80.9957	7,727.05	78.424	7,727.05	79.0956	7,727.05	74.6864	7,727.05	75.3448	7,727.05	72.2181	7,727.05	73.3754	7,727.05	69.7988	7,727.05	70.7507	7,727.05	68.9579	7,727.05	66.849	7,727.05	62.7279	7,727.05	70.3665	7,727.05	62.342	7,727.05	63.2402	7,727.05	65.7237	7,727.05	64.9993	7,727.05	60.6625	7,727.05	54.0101	7,727.05	73.1629	7,727.05	72.0401	7,727.05	53.1955
7,999.51	88.0612	7,999.51	88.1467	7,999.51	88.4222	7,999.51	88.3829	7,999.51	88.289	7,999.51	86.7695	7,999.51	86.8707	7,999.51	85.8233	7,999.51	85.0618	7,999.51	84.4827	7,999.51	84.1349	7,999.51	82.919	7,999.51	82.7421	7,999.51	80.234	7,999.51	80.8631	7,999.51	77.2855	7,999.51	77.8081	7,999.51	74.3026	7,999.51	74.3534	7,999.51	70.9483	7,999.51	72.4511	7,999.51	68.294	7,999.51	69.3936	7,999.51	65.0105	7,999.51	66.0595	7,999.51	66.2725	7,999.51	64.402	7,999.51	60.5704	7,999.51	59.8088	7,999.51	61.954	7,999.51	60.9389	7,999.51	64.7687	7,999.51	64.2461	7,999.51	68.9795	7,999.51	69.2313	7,999.51	48.1696
8,282.23	87.8731	8,282.23	88.3281	8,282.23	88.3756	8,282.23	88.2162	8,282.23	88.0151	8,282.23	86.6791	8,282.23	86.6534	8,282.23	85.279	8,282.23	85.1915	8,282.23	83.9584	8,282.23	84.1225	8,282.23	81.8629	8,282.23	82.1001	8,282.23	79.7481	8,282.23	79.6811	8,282.23	76.6918	8,282.23	77.1931	8,282.23	74.1371	8,282.23	72.9322	8,282.23	70.3144	8,282.23	71.0956	8,282.23	67.5872	8,282.23	67.5857	8,282.23	64.4872	8,282.23	67.3703	8,282.23	64.617	8,282.23	62.8988	8,282.23	61.3604	8,282.23	57.1998	8,282.23	58.5087	8,282.23	60.014	8,282.23	64.901	8,282.23	61.2784	8,282.23	66.7701	8,282.23	67.1247	8,282.23	49.1004
8,573.73	88.4588	8,573.73	88.4035	8,573.73	88.5157	8,573.73	88.378	8,573.73	87.9905	8,573.73	86.6718	8,573.73	86.7545	8,573.73	84.9	8,573.73	85.2111	8,573.73	83.5908	8,573.73	83.61	8,573.73	81.5368	8,573.73	81.7591	8,573.73	79.9614	8,573.73	79.1385	8,573.73	76.7624	8,573.73	76.7666	8,573.73	72.9865	8,573.73	72.9395	8,573.73	70.8257	8,573.73	69.3609	8,573.73	67.5288	8,573.73	67.4397	8,573.73	66.6237	8,573.73	64.6569	8,573.73	63.4847	8,573.73	59.9162	8,573.73	59.2183	8,573.73	58.9728	8,573.73	60.2369	8,573.73	58.288	8,573.73	64.0577	8,573.73	62.2158	8,573.73	65.1944	8,573.73	65.3983	8,573.73	43.4839
8,876.95	88.8379	8,876.95	88.6798	8,876.95	88.6584	8,876.95	88.638	8,876.95	88.1593	8,876.95	86.8916	8,876.95	86.6411	8,876.95	84.8841	8,876.95	84.8865	8,876.95	83.1767	8,876.95	83.3736	8,876.95	81.8377	8,876.95	81.4747	8,876.95	79.7203	8,876.95	79.4257	8,876.95	76.6945	8,876.95	76.029	8,876.95	74.2032	8,876.95	73.1426	8,876.95	70.5292	8,876.95	70.0084	8,876.95	69.0241	8,876.95	67.5645	8,876.95	66.4217	8,876.95	65.6274	8,876.95	59.7563	8,876.95	59.0678	8,876.95	56.0123	8,876.95	57.2156	8,876.95	57.8552	8,876.95	49.8378	8,876.95	65.0462	8,876.95	64.1111	8,876.95	63.8559	8,876.95	63.3936	8,876.95	46.1372
9,188.96	89.0744	9,188.96	88.8456	9,188.96	88.7048	9,188.96	88.2875	9,188.96	87.8901	9,188.96	86.6463	9,188.96	86.5732	9,188.96	84.6981	9,188.96	84.7887	9,188.96	83.3361	9,188.96	82.9749	9,188.96	81.5046	9,188.96	81.2371	9,188.96	79.9035	9,188.96	79.2028	9,188.96	76.1949	9,188.96	76.1808	9,188.96	72.5531	9,188.96	72.2372	9,188.96	69.0645	9,188.96	68.4529	9,188.96	67.4759	9,188.96	67.0922	9,188.96	65.6424	9,188.96	64.4472	9,188.96	60.7258	9,188.96	55.4369	9,188.96	56.7781	9,188.96	49.8843	9,188.96	57.115	9,188.96	54.9826	9,188.96	64.7182	9,188.96	63.3855	9,188.96	64.1233	9,188.96	62.9366	9,188.96	50.6248
9,514.16	89.0454	9,514.16	88.6473	9,514.16	88.2545	9,514.16	88.0929	9,514.16	87.7672	9,514.16	86.3439	9,514.16	86.3567	9,514.16	84.7206	9,514.16	84.5033	9,514.16	82.7792	9,514.16	82.4798	9,514.16	80.961	9,514.16	80.5299	9,514.16	78.4957	9,514.16	77.9252	9,514.16	75.0081	9,514.16	74.8001	9,514.16	70.5754	9,514.16	70.4478	9,514.16	68.0191	9,514.16	67.6942	9,514.16	63.6014	9,514.16	66.3552	9,514.16	62.0194	9,514.16	63.6512	9,514.16	60.4562	9,514.16	59.7282	9,514.16	57.0569	9,514.16	55.227	9,514.16	50.511	9,514.16	52.2986	9,514.16	62.9414	9,514.16	62.9395	9,514.16	62.1466	9,514.16	61.1315	9,514.16	50.7388
9,849.61	88.9156	9,849.61	88.3155	9,849.61	88.2088	9,849.61	87.8328	9,849.61	87.4264	9,849.61	86.1531	9,849.61	86.101	9,849.61	83.9458	9,849.61	84.1654	9,849.61	82.3226	9,849.61	82.3336	9,849.61	80.0777	9,849.61	79.8817	9,849.61	77.3577	9,849.61	76.6781	9,849.61	73.3574	9,849.61	73.7774	9,849.61	69.5762	9,849.61	70.1722	9,849.61	68.2217	9,849.61	67.2898	9,849.61	65.4971	9,849.61	64.6618	9,849.61	62.7599	9,849.61	63.0177	9,849.61	57.9172	9,849.61	58.543	9,849.61	53.9245	9,849.61	57.9225	9,849.61	51.6511	9,849.61	50.0957	9,849.61	60.3573	9,849.61	61.789	9,849.61	60.5345	9,849.61	59.2652	9,849.61	46.6974
10,196.8	89.1488	10,196.8	88.5053	10,196.8	88.4818	10,196.8	87.8362	10,196.8	87.5292	10,196.8	86.0449	10,196.8	86.2376	10,196.8	83.7816	10,196.8	83.9473	10,196.8	81.9475	10,196.8	81.9742	10,196.8	79.2813	10,196.8	79.2005	10,196.8	75.8864	10,196.8	75.9516	10,196.8	72.3758	10,196.8	73.3688	10,196.8	68.4728	10,196.8	69.8714	10,196.8	67.017	10,196.8	66.1449	10,196.8	64.4	10,196.8	64.1487	10,196.8	61.198	10,196.8	62.3279	10,196.8	59.5481	10,196.8	57.8731	10,196.8	56.1354	10,196.8	55.2747	10,196.8	46.1411	10,196.8	46.8351	10,196.8	60.2786	10,196.8	61.1922	10,196.8	57.8211	10,196.8	60.0197	10,196.8	45.9526
10,555.7	89.1477	10,555.7	88.5388	10,555.7	88.4764	10,555.7	87.7622	10,555.7	87.5352	10,555.7	85.9319	10,555.7	85.9072	10,555.7	83.7503	10,555.7	83.4504	10,555.7	81.2807	10,555.7	81.2305	10,555.7	78.6911	10,555.7	78.5218	10,555.7	75.3825	10,555.7	75.6288	10,555.7	71.62	10,555.7	72.8207	10,555.7	68.6299	10,555.7	69.6074	10,555.7	66.1408	10,555.7	65.837	10,555.7	63.1213	10,555.7	65.5759	10,555.7	60.5609	10,555.7	61.9972	10,555.7	59.1341	10,555.7	58.8761	10,555.7	57.2468	10,555.7	56.214	10,555.7	46.8704	10,555.7	49.7247	10,555.7	58.6477	10,555.7	61.5854	10,555.7	55.0637	10,555.7	58.2254	10,555.7	45.4914
10,927.7	88.978	10,927.7	88.3876	10,927.7	88.2789	10,927.7	87.5989	10,927.7	87.2127	10,927.7	85.6519	10,927.7	85.6012	10,927.7	83.3389	10,927.7	83.1376	10,927.7	80.7743	10,927.7	80.5609	10,927.7	77.4463	10,927.7	77.7086	10,927.7	75.0527	10,927.7	74.93	10,927.7	71.6348	10,927.7	72.067	10,927.7	68.8522	10,927.7	69.3811	10,927.7	66.4066	10,927.7	66.5335	10,927.7	63.3547	10,927.7	64.8281	10,927.7	60.8519	10,927.7	60.5273	10,927.7	60.0452	10,927.7	62.1518	10,927.7	55.5898	10,927.7	56.0874	10,927.7	48.9671	10,927.7	47.7461	10,927.7	58.9296	10,927.7	59.6616	10,927.7	56.4511	10,927.7	57.2734	10,927.7	38.6495
11,313	88.7598	11,313	88.211	11,313	88.1483	11,313	87.1935	11,313	86.9822	11,313	85.4243	11,313	85.3302	11,313	82.8683	11,313	82.7365	11,313	80.0937	11,313	80.2011	11,313	77.1354	11,313	76.9122	11,313	74.6156	11,313	74.6182	11,313	72.2197	11,313	72.5087	11,313	69.0678	11,313	69.7758	11,313	66.8465	11,313	66.9376	11,313	62.4357	11,313	64.1633	11,313	61.2629	11,313	61.3364	11,313	59.6777	11,313	61.6616	11,313	57.1535	11,313	57.3021	11,313	47.7707	11,313	44.8924	11,313	58.6773	11,313	59.2973	11,313	57.1308	11,313	56.7856	11,313	46.4196
11,712.9	88.5501	11,712.9	88.0785	11,712.9	88.0132	11,712.9	86.8904	11,712.9	86.5282	11,712.9	85.1459	11,712.9	84.8421	11,712.9	82.3212	11,712.9	82.0183	11,712.9	79.0491	11,712.9	79.5275	11,712.9	76.4816	11,712.9	77.0405	11,712.9	74.1391	11,712.9	75.2554	11,712.9	72.0264	11,712.9	73.1583	11,712.9	68.654	11,712.9	70.1224	11,712.9	67.0002	11,712.9	67.0794	11,712.9	63.2575	11,712.9	64.4043	11,712.9	60.1069	11,712.9	61.9178	11,712.9	60.5565	11,712.9	62.2437	11,712.9	58.2718	11,712.9	58.4564	11,712.9	43.3797	11,712.9	45.6967	11,712.9	59.0592	11,712.9	60.1538	11,712.9	56.5109	11,712.9	56.2986	11,712.9	46.7893
12,126	88.1194	12,126	87.5789	12,126	87.7116	12,126	86.3532	12,126	86.0878	12,126	84.5842	12,126	84.2794	12,126	81.3594	12,126	80.9846	12,126	78.5643	12,126	78.3496	12,126	76.283	12,126	77.1218	12,126	74.5211	12,126	75.511	12,126	71.7412	12,126	73.203	12,126	69.576	12,126	70.08	12,126	66.1114	12,126	66.7466	12,126	62.4027	12,126	64.6102	12,126	59.66	12,126	62.5133	12,126	63.3523	12,126	61.4124	12,126	57.7602	12,126	59.1726	12,126	44.828	12,126	47.6343	12,126	60.6184	12,126	60.916	12,126	56.4578	12,126	54.0024	12,126	43.0655
12,553.7	87.7281	12,553.7	87.2131	12,553.7	87.4262	12,553.7	85.7198	12,553.7	85.5174	12,553.7	84.1734	12,553.7	83.921	12,553.7	80.6075	12,553.7	80.2919	12,553.7	77.7464	12,553.7	77.893	12,553.7	76.5974	12,553.7	76.6837	12,553.7	74.6283	12,553.7	75.3172	12,553.7	72.2198	12,553.7	72.4958	12,553.7	69.142	12,553.7	69.6988	12,553.7	66.3639	12,553.7	67.2809	12,553.7	60.5072	12,553.7	63.8778	12,553.7	61.4677	12,553.7	61.191	12,553.7	63.0079	12,553.7	62.3578	12,553.7	59.0746	12,553.7	59.3768	12,553.7	42.2306	12,553.7	51.212	12,553.7	61.2124	12,553.7	58.5601	12,553.7	56.8236	12,553.7	54.4957	12,553.7	42.7342
12,996.1	87.2324	12,996.1	86.7853	12,996.1	86.9045	12,996.1	85.3797	12,996.1	85.0592	12,996.1	83.5103	12,996.1	83.0569	12,996.1	79.8577	12,996.1	79.6746	12,996.1	77.5956	12,996.1	78.0099	12,996.1	76.4785	12,996.1	76.9515	12,996.1	74.7147	12,996.1	75.5237	12,996.1	72.4395	12,996.1	73.5045	12,996.1	69.1392	12,996.1	69.4851	12,996.1	66.1189	12,996.1	66.36	12,996.1	62.0224	12,996.1	62.8369	12,996.1	62.3593	12,996.1	62.0195	12,996.1	62.9333	12,996.1	60.4738	12,996.1	59.2946	12,996.1	58.9552	12,996.1	46.6269	12,996.1	48.2653	12,996.1	60.3602	12,996.1	58.3511	12,996.1	55.9499	12,996.1	54.1234	12,996.1	46.1428
13,454.6	86.8535	13,454.6	86.599	13,454.6	86.781	13,454.6	85.0935	13,454.6	84.8215	13,454.6	82.9981	13,454.6	82.6817	13,454.6	79.7645	13,454.6	79.556	13,454.6	77.8027	13,454.6	77.951	13,454.6	77.0377	13,454.6	77.7278	13,454.6	75.5727	13,454.6	76.7989	13,454.6	72.6095	13,454.6	73.9511	13,454.6	69.2996	13,454.6	70.0023	13,454.6	65.5185	13,454.6	66.1808	13,454.6	62.2735	13,454.6	63.034	13,454.6	61.9633	13,454.6	63.2427	13,454.6	62.5933	13,454.6	61.4837	13,454.6	57.9788	13,454.6	60.1459	13,454.6	43.4021	13,454.6	49.737	13,454.6	60.0048	13,454.6	59.7541	13,454.6	57.8176	13,454.6	53.1717	13,454.6	45.9812
13,929.2	86.2275	13,929.2	85.9648	13,929.2	85.8982	13,929.2	84.5147	13,929.2	84.3474	13,929.2	82.5202	13,929.2	82.0048	13,929.2	79.8513	13,929.2	79.7852	13,929.2	77.613	13,929.2	77.4974	13,929.2	77.2121	13,929.2	77.6921	13,929.2	75.8947	13,929.2	76.4795	13,929.2	72.2367	13,929.2	73.2442	13,929.2	69.2712	13,929.2	69.4219	13,929.2	65.8932	13,929.2	65.5343	13,929.2	61.5683	13,929.2	63.0899	13,929.2	61.7212	13,929.2	61.8366	13,929.2	62.4234	13,929.2	60.8312	13,929.2	59.6059	13,929.2	59.2777	13,929.2	47.2016	13,929.2	52.4167	13,929.2	59.2931	13,929.2	59.5687	13,929.2	56.7837	13,929.2	53.2206	13,929.2	49.9652
14,419.9	85.5793	14,419.9	85.2112	14,419.9	85.3893	14,419.9	84.3141	14,419.9	83.8646	14,419.9	82.1145	14,419.9	81.7947	14,419.9	80.1414	14,419.9	80.1033	14,419.9	77.7729	14,419.9	77.6086	14,419.9	76.5794	14,419.9	76.7734	14,419.9	75.4689	14,419.9	75.4639	14,419.9	71.5459	14,419.9	72.5704	14,419.9	68.0057	14,419.9	68.7957	14,419.9	65.362	14,419.9	64.2654	14,419.9	60.5501	14,419.9	62.2412	14,419.9	61.7165	14,419.9	61.4199	14,419.9	61.1465	14,419.9	58.5233	14,419.9	58.3561	14,419.9	57.036	14,419.9	46.8655	14,419.9	50.4964	14,419.9	58.361	14,419.9	56.6657	14,419.9	56.8536	14,419.9	50.7233	14,419.9	48.9042
14,928.2	85.1079	14,928.2	84.7809	14,928.2	84.7994	14,928.2	84.047	14,928.2	83.6605	14,928.2	81.9554	14,928.2	81.583	14,928.2	80.0949	14,928.2	79.9932	14,928.2	77.4462	14,928.2	76.9884	14,928.2	75.1629	14,928.2	75.4219	14,928.2	73.6999	14,928.2	73.7781	14,928.2	69.761	14,928.2	70.9104	14,928.2	66.1091	14,928.2	67.4763	14,928.2	63.035	14,928.2	62.6588	14,928.2	58.6662	14,928.2	60.8052	14,928.2	60.1683	14,928.2	60.3344	14,928.2	59.8996	14,928.2	56.4515	14,928.2	55.6622	14,928.2	55.0157	14,928.2	47.6249	14,928.2	52.4894	14,928.2	57.4325	14,928.2	56.4915	14,928.2	55.2068	14,928.2	48.4414	14,928.2	45.3299
15,455.6	85.227	15,455.6	84.773	15,455.6	84.8932	15,455.6	83.8965	15,455.6	83.4758	15,455.6	81.7796	15,455.6	81.4492	15,455.6	79.3179	15,455.6	79.1248	15,455.6	75.7774	15,455.6	75.1205	15,455.6	72.5841	15,455.6	72.2766	15,455.6	70.1552	15,455.6	70.3385	15,455.6	66.9139	15,455.6	67.1288	15,455.6	64.0004	15,455.6	64.8705	15,455.6	61.1145	15,455.6	60.8505	15,455.6	56.3749	15,455.6	58.0656	15,455.6	57.608	15,455.6	56.924	15,455.6	56.5723	15,455.6	54.4273	15,455.6	52.6695	15,455.6	51.5218	15,455.6	42.7889	15,455.6	50.6251	15,455.6	54.7676	15,455.6	53.6846	15,455.6	52.0482	15,455.6	43.9186	15,455.6	45.2423
16,000.5	85.2023	16,000.5	84.6629	16,000.5	84.6801	16,000.5	83.3782	16,000.5	83.0578	16,000.5	80.7985	16,000.5	80.4821	16,000.5	77.5142	16,000.5	77.1381	16,000.5	72.8994	16,000.5	71.8795	16,000.5	67.541	16,000.5	66.7621	16,000.5	65.6326	16,000.5	65.1048	16,000.5	63.3971	16,000.5	64.5896	16,000.5	60.8622	16,000.5	62.3778	16,000.5	58.4463	16,000.5	57.2264	16,000.5	53.6279	16,000.5	55.0948	16,000.5	53.5108	16,000.5	55.3522	16,000.5	54.783	16,000.5	50.4223	16,000.5	50.3894	16,000.5	45.0779	16,000.5	37.4887	16,000.5	48.7912	16,000.5	52.8593	16,000.5	53.8557	16,000.5	47.4238	16,000.5	29.2961	16,000.5	40.6787
16,564.5	84.9264	16,564.5	84.2658	16,564.5	84.2311	16,564.5	82.4476	16,564.5	82.1866	16,564.5	79.1029	16,564.5	78.8497	16,564.5	74.6689	16,564.5	74.0648	16,564.5	68.3563	16,564.5	66.1306	16,564.5	57.5857	16,564.5	57.8685	16,564.5	60.6545	16,564.5	64.4048	16,564.5	63.136	16,564.5	63.3942	16,564.5	60.0526	16,564.5	61.3043	16,564.5	56.3415	16,564.5	57.3914	16,564.5	50.8201	16,564.5	53.7852	16,564.5	51.6866	16,564.5	53.2096	16,564.5	52.5165	16,564.5	48.7134	16,564.5	50.3475	16,564.5	45.4212	16,564.5	35.7443	16,564.5	47.4209	16,564.5	49.0204	16,564.5	51.5824	16,564.5	47.2668	16,564.5	38.3259	16,564.5	39.4036
17,148.9	84.4817	17,148.9	83.6253	17,148.9	83.6612	17,148.9	81.2263	17,148.9	81.1602	17,148.9	77.3484	17,148.9	77.2761	17,148.9	71.3356	17,148.9	69.997	17,148.9	60.9175	17,148.9	55.0164	17,148.9	52.8189	17,148.9	61.0973	17,148.9	62.3926	17,148.9	65.2895	17,148.9	63.5413	17,148.9	63.42	17,148.9	60.7013	17,148.9	60.8606	17,148.9	56.2145	17,148.9	55.8668	17,148.9	51.5195	17,148.9	52.7988	17,148.9	50.5999	17,148.9	51.5627	17,148.9	52.4194	17,148.9	48.468	17,148.9	49.9068	17,148.9	44.5795	17,148.9	41.5547	17,148.9	45.5634	17,148.9	47.4036	17,148.9	50.8863	17,148.9	47.6182	17,148.9	40.1183	17,148.9	43.0472
17,752.4	84.0768	17,752.4	83.1485	17,752.4	83.2383	17,752.4	80.1646	17,752.4	80.2994	17,752.4	75.8367	17,752.4	75.2599	17,752.4	67.2158	17,752.4	64.823	17,752.4	53.3033	17,752.4	55.794	17,752.4	60.2419	17,752.4	63.6848	17,752.4	63.3734	17,752.4	66.3444	17,752.4	63.395	17,752.4	63.5971	17,752.4	59.2812	17,752.4	60.2391	17,752.4	54.2434	17,752.4	55.2791	17,752.4	50.7376	17,752.4	51.1692	17,752.4	47.3115	17,752.4	48.9247	17,752.4	52.1087	17,752.4	46.164	17,752.4	46.3466	17,752.4	43.6395	17,752.4	39.0749	17,752.4	46.037	17,752.4	46.4264	17,752.4	48.9139	17,752.4	46.471	17,752.4	36.2538	17,752.4	43.2942
18,379.4	83.6573	18,379.4	82.3526	18,379.4	82.7541	18,379.4	78.8344	18,379.4	79.185	18,379.4	73.735	18,379.4	73.1002	18,379.4	59.9778	18,379.4	61.0814	18,379.4	61.4898	18,379.4	58.5744	18,379.4	64.0519	18,379.4	64.8289	18,379.4	63.9264	18,379.4	66.6171	18,379.4	61.6139	18,379.4	63.6957	18,379.4	58.6216	18,379.4	58.9976	18,379.4	51.0854	18,379.4	54.2478	18,379.4	43.2247	18,379.4	49.4144	18,379.4	42.2291	18,379.4	41.8616	18,379.4	52.5674	18,379.4	47.5982	18,379.4	44.244	18,379.4	44.5946	18,379.4	37.9349	18,379.4	39.5475	18,379.4	32.3368	18,379.4	49.0239	18,379.4	38.8625	18,379.4	40.384	18,379.4	42.9346
19,026.9	83.0803	19,026.9	81.7984	19,026.9	81.7989	19,026.9	77.6497	19,026.9	77.7567	19,026.9	69.9658	19,026.9	69.7063	19,026.9	49.0502	19,026.9	50.6643	19,026.9	60.5545	19,026.9	65.5737	19,026.9	64.3467	19,026.9	66.8295	19,026.9	65.0815	19,026.9	66.0697	19,026.9	61.5389	19,026.9	62.6235	19,026.9	57.9794	19,026.9	58.0833	19,026.9	51.7467	19,026.9	50.2052	19,026.9	49.7499	19,026.9	51.4031	19,026.9	46.2003	19,026.9	47.9869	19,026.9	35.5728	19,026.9	45.3282	19,026.9	46.3087	19,026.9	25.0092	19,026.9	32.4619	19,026.9	40.3053	19,026.9	39.6786	19,026.9	41.4495	19,026.9	35.6879	19,026.9	42.5215	19,026.9	36.0941
19,697.8	82.3379	19,697.8	80.8373	19,697.8	81.0168	19,697.8	76.7736	19,697.8	76.839	19,697.8	67.7926	19,697.8	66.548	19,697.8	55.2134	19,697.8	61.0423	19,697.8	63.605	19,697.8	66.261	19,697.8	64.4331	19,697.8	66.1029	19,697.8	63.9521	19,697.8	65.2791	19,697.8	60.203	19,697.8	61.3794	19,697.8	55.8309	19,697.8	57.0278	19,697.8	51.0891	19,697.8	50.1804	19,697.8	46.4465	19,697.8	50.7983	19,697.8	43.5395	19,697.8	45.4244	19,697.8	42.0268	19,697.8	42.5528	19,697.8	36.5171	19,697.8	35.6538	19,697.8	26.9982	19,697.8	40.7068	19,697.8	31.456	19,697.8	34.0272	19,697.8	34.7465	19,697.8	39.2142	19,697.8	33.4232
19,999.5	82.1424	19,999.5	80.2481	19,999.5	80.7665	19,999.5	76.6394	19,999.5	76.1827	19,999.5	66.7782	19,999.5	64.1325	19,999.5	58.5089	19,999.5	62.6073	19,999.5	65.1211	19,999.5	66.8608	19,999.5	65.1251	19,999.5	65.4973	19,999.5	64.158	19,999.5	65.1394	19,999.5	59.1966	19,999.5	60.7714	19,999.5	54.6871	19,999.5	57.0553	19,999.5	49.5036	19,999.5	52.6804	19,999.5	50.2243	19,999.5	49.91	19,999.5	42.9362	19,999.5	31.4706	19,999.5	36.6187	19,999.5	41.0163	19,999.5	39.3583	19,999.5	40.4814	19,999.5	48.0866	19,999.5	45.6241	19,999.5	31.5446	19,999.5	37.5049	19,999.5	27.866	19,999.5	40.3669	19,999.5	34.6682
