"SPL Horizontal"
"On-Axis"		"10°"		"-10°"		"20°"		"-20°"		"30°"		"-30°"		"40°"		"-40°"		"50°"		"-50°"		"60°"		"-60°"		"70°"		"-70°"		"80°"		"-80°"		"90°"		"-90°"		"100°"		"-100°"		"110°"		"-110°"		"120°"		"-120°"		"130°"		"-130°"		"140°"		"-140°"		"150°"		"-150°"		"160°"		"-160°"		"170°"		"-170°"		"180°"
"Frequency [Hz]"	"Sound Pessure Level [dB]  / [2.83V 1m] "	"Frequency [Hz]"	"Sound Pessure Level [dB]  / [2.83V 1m] "	"Frequency [Hz]"	"Sound Pessure Level [dB]  / [2.83V 1m] "	"Frequency [Hz]"	"Sound Pessure Level [dB]  / [2.83V 1m] "	"Frequency [Hz]"	"Sound Pessure Level [dB]  / [2.83V 1m] "	"Frequency [Hz]"	"Sound Pessure Level [dB]  / [2.83V 1m] "	"Frequency [Hz]"	"Sound Pessure Level [dB]  / [2.83V 1m] "	"Frequency [Hz]"	"Sound Pessure Level [dB]  / [2.83V 1m] "	"Frequency [Hz]"	"Sound Pessure Level [dB]  / [2.83V 1m] "	"Frequency [Hz]"	"Sound Pessure Level [dB]  / [2.83V 1m] "	"Frequency [Hz]"	"Sound Pessure Level [dB]  / [2.83V 1m] "	"Frequency [Hz]"	"Sound Pessure Level [dB]  / [2.83V 1m] "	"Frequency [Hz]"	"Sound Pessure Level [dB]  / [2.83V 1m] "	"Frequency [Hz]"	"Sound Pessure Level [dB]  / [2.83V 1m] "	"Frequency [Hz]"	"Sound Pessure Level [dB]  / [2.83V 1m] "	"Frequency [Hz]"	"Sound Pessure Level [dB]  / [2.83V 1m] "	"Frequency [Hz]"	"Sound Pessure Level [dB]  / [2.83V 1m] "	"Frequency [Hz]"	"Sound Pessure Level [dB]  / [2.83V 1m] "	"Frequency [Hz]"	"Sound Pessure Level [dB]  / [2.83V 1m] "	"Frequency [Hz]"	"Sound Pessure Level [dB]  / [2.83V 1m] "	"Frequency [Hz]"	"Sound Pessure Level [dB]  / [2.83V 1m] "	"Frequency [Hz]"	"Sound Pessure Level [dB]  / [2.83V 1m] "	"Frequency [Hz]"	"Sound Pessure Level [dB]  / [2.83V 1m] "	"Frequency [Hz]"	"Sound Pessure Level [dB]  / [2.83V 1m] "	"Frequency [Hz]"	"Sound Pessure Level [dB]  / [2.83V 1m] "	"Frequency [Hz]"	"Sound Pessure Level [dB]  / [2.83V 1m] "	"Frequency [Hz]"	"Sound Pessure Level [dB]  / [2.83V 1m] "	"Frequency [Hz]"	"Sound Pessure Level [dB]  / [2.83V 1m] "	"Frequency [Hz]"	"Sound Pessure Level [dB]  / [2.83V 1m] "	"Frequency [Hz]"	"Sound Pessure Level [dB]  / [2.83V 1m] "	"Frequency [Hz]"	"Sound Pessure Level [dB]  / [2.83V 1m] "	"Frequency [Hz]"	"Sound Pessure Level [dB]  / [2.83V 1m] "	"Frequency [Hz]"	"Sound Pessure Level [dB]  / [2.83V 1m] "	"Frequency [Hz]"	"Sound Pessure Level [dB]  / [2.83V 1m] "	"Frequency [Hz]"	"Sound Pessure Level [dB]  / [2.83V 1m] "	"Frequency [Hz]"	"Sound Pessure Level [dB]  / [2.83V 1m] "
20.5078	63.8128	20.5078	63.8347	20.5078	63.8088	20.5078	63.8733	20.5078	63.8212	20.5078	63.9257	20.5078	63.8465	20.5078	63.988	20.5078	63.8798	20.5078	64.0563	20.5078	63.9169	20.5078	64.1277	20.5078	63.9547	20.5078	64.2	20.5078	63.9921	20.5078	64.2717	20.5078	64.029	20.5078	64.3414	20.5078	64.0657	20.5078	64.4079	20.5078	64.1021	20.5078	64.4699	20.5078	64.1382	20.5078	64.5256	20.5078	64.1734	20.5078	64.5712	20.5078	64.2081	20.5078	64.6002	20.5078	64.2438	20.5078	64.6049	20.5078	64.2844	20.5078	64.5809	20.5078	64.3342	20.5078	64.5307	20.5078	64.3955	20.5078	64.4645
21.9727	67.944	21.9727	67.9388	21.9727	67.9499	21.9727	67.9344	21.9727	67.9567	21.9727	67.9315	21.9727	67.9652	21.9727	67.9307	21.9727	67.9753	21.9727	67.9325	21.9727	67.9868	21.9727	67.9372	21.9727	67.9978	21.9727	67.9437	21.9727	68.006	21.9727	67.9504	21.9727	68.008	21.9727	67.9548	21.9727	68.0012	21.9727	67.9544	21.9727	67.9832	21.9727	67.9468	21.9727	67.9535	21.9727	67.9309	21.9727	67.913	21.9727	67.9068	21.9727	67.8657	21.9727	67.876	21.9727	67.8177	21.9727	67.841	21.9727	67.7768	21.9727	67.8052	21.9727	67.75	21.9727	67.7732	21.9727	67.7411	21.9727	67.75
23.4375	69.7468	23.4375	69.7248	23.4375	69.7703	23.4375	69.7047	23.4375	69.7944	23.4375	69.6858	23.4375	69.8168	23.4375	69.6672	23.4375	69.8346	23.4375	69.6473	23.4375	69.8449	23.4375	69.6247	23.4375	69.8446	23.4375	69.5981	23.4375	69.8318	23.4375	69.5668	23.4375	69.8051	23.4375	69.5309	23.4375	69.7644	23.4375	69.4916	23.4375	69.7108	23.4375	69.4509	23.4375	69.6466	23.4375	69.4108	23.4375	69.5755	23.4375	69.3734	23.4375	69.502	23.4375	69.3398	23.4375	69.4314	23.4375	69.3107	23.4375	69.369	23.4375	69.2878	23.4375	69.3197	23.4375	69.2737	23.4375	69.2871	23.4375	69.2723
24.9023	72.0654	24.9023	72.0682	24.9023	72.0625	24.9023	72.0698	24.9023	72.0594	24.9023	72.0684	24.9023	72.0551	24.9023	72.0616	24.9023	72.0475	24.9023	72.047	24.9023	72.0344	24.9023	72.0224	24.9023	72.0132	24.9023	71.9863	24.9023	71.9817	24.9023	71.9385	24.9023	71.9385	24.9023	71.8801	24.9023	71.883	24.9023	71.8131	24.9023	71.8161	24.9023	71.7408	24.9023	71.7399	24.9023	71.6665	24.9023	71.6581	24.9023	71.5931	24.9023	71.5756	24.9023	71.5237	24.9023	71.4983	24.9023	71.4609	24.9023	71.4322	24.9023	71.4083	24.9023	71.3832	24.9023	71.3705	24.9023	71.3558	24.9023	71.3518
26.3672	74.5769	26.3672	74.5692	26.3672	74.5789	26.3672	74.556	26.3672	74.5748	26.3672	74.537	26.3672	74.5637	26.3672	74.5119	26.3672	74.5451	26.3672	74.48	26.3672	74.5179	26.3672	74.4406	26.3672	74.4816	26.3672	74.3935	26.3672	74.4355	26.3672	74.3392	26.3672	74.3793	26.3672	74.2791	26.3672	74.3136	26.3672	74.215	26.3672	74.2397	26.3672	74.149	26.3672	74.1601	26.3672	74.0832	26.3672	74.0783	26.3672	74.0192	26.3672	73.9989	26.3672	73.9584	26.3672	73.9268	26.3672	73.9027	26.3672	73.8671	26.3672	73.8551	26.3672	73.8243	26.3672	73.8196	26.3672	73.8018	26.3672	73.8007
27.832	75.3863	27.832	75.3644	27.832	75.4024	27.832	75.3355	27.832	75.4127	27.832	75.2976	27.832	75.4157	27.832	75.2481	27.832	75.4088	27.832	75.1849	27.832	75.3889	27.832	75.1065	27.832	75.3528	27.832	75.0123	27.832	75.2984	27.832	74.9034	27.832	75.2245	27.832	74.7822	27.832	75.1318	27.832	74.6528	27.832	75.0221	27.832	74.521	27.832	74.899	27.832	74.394	27.832	74.7671	27.832	74.28	27.832	74.632	27.832	74.1868	27.832	74.5	27.832	74.1212	27.832	74.3769	27.832	74.0874	27.832	74.2688	27.832	74.087	27.832	74.1812	27.832	74.1192
29.2969	77.8098	29.2969	77.8108	29.2969	77.8001	29.2969	77.803	29.2969	77.7816	29.2969	77.7864	29.2969	77.7545	29.2969	77.7607	29.2969	77.719	29.2969	77.726	29.2969	77.6752	29.2969	77.6826	29.2969	77.6238	29.2969	77.6317	29.2969	77.5653	29.2969	77.575	29.2969	77.5009	29.2969	77.5153	29.2969	77.432	29.2969	77.4556	29.2969	77.3606	29.2969	77.3989	29.2969	77.2895	29.2969	77.3468	29.2969	77.2223	29.2969	77.2991	29.2969	77.1629	29.2969	77.2543	29.2969	77.1154	29.2969	77.2103	29.2969	77.0831	29.2969	77.1669	29.2969	77.0685	29.2969	77.1263	29.2969	77.0724	29.2969	77.093
30.7617	79.3851	30.7617	79.3675	30.7617	79.3902	30.7617	79.3376	30.7617	79.3826	30.7617	79.2951	30.7617	79.3617	30.7617	79.2397	30.7617	79.3269	30.7617	79.1712	30.7617	79.2778	30.7617	79.0893	30.7617	79.2142	30.7617	78.9946	30.7617	79.1368	30.7617	78.888	30.7617	79.0467	30.7617	78.7717	30.7617	78.946	30.7617	78.649	30.7617	78.8373	30.7617	78.5243	30.7617	78.7242	30.7617	78.4036	30.7617	78.6104	30.7617	78.2937	30.7617	78.4998	30.7617	78.2021	30.7617	78.3958	30.7617	78.1352	30.7617	78.3016	30.7617	78.0972	30.7617	78.2203	30.7617	78.0895	30.7617	78.1551	30.7617	78.11
32.2266	80.4519	32.2266	80.4535	32.2266	80.44	32.2266	80.4446	32.2266	80.4179	32.2266	80.4248	32.2266	80.3854	32.2266	80.3936	32.2266	80.3423	32.2266	80.3508	32.2266	80.2884	32.2266	80.2967	32.2266	80.2239	32.2266	80.2324	32.2266	80.1498	32.2266	80.1597	32.2266	80.0675	32.2266	80.0813	32.2266	79.9798	32.2266	80.0003	32.2266	79.8899	32.2266	79.9199	32.2266	79.8017	32.2266	79.8428	32.2266	79.7193	32.2266	79.771	32.2266	79.6469	32.2266	79.7054	32.2266	79.5882	32.2266	79.6468	32.2266	79.5458	32.2266	79.5963	32.2266	79.5216	32.2266	79.5558	32.2266	79.516	32.2266	79.5282
33.6914	81.6708	33.6914	81.6635	33.6914	81.6646	33.6914	81.6425	33.6914	81.6448	33.6914	81.6076	33.6914	81.6115	33.6914	81.5587	33.6914	81.5646	33.6914	81.4959	33.6914	81.5041	33.6914	81.4197	33.6914	81.4306	33.6914	81.3314	33.6914	81.3451	33.6914	81.2329	33.6914	81.2493	33.6914	81.1273	33.6914	81.1458	33.6914	81.0184	33.6914	81.0378	33.6914	80.9106	33.6914	80.9295	33.6914	80.8086	33.6914	80.8251	33.6914	80.7164	33.6914	80.7291	33.6914	80.6374	33.6914	80.6456	33.6914	80.5738	33.6914	80.578	33.6914	80.5273	33.6914	80.5287	33.6914	80.4988	33.6914	80.499	33.6914	80.4892
35.1562	82.4626	35.1562	82.4514	35.1562	82.46	35.1562	82.4264	35.1562	82.4437	35.1562	82.3873	35.1562	82.4137	35.1562	82.3344	35.1562	82.3703	35.1562	82.2681	35.1562	82.3136	35.1562	82.1891	35.1562	82.2442	35.1562	82.0991	35.1562	82.1634	35.1562	82.0003	35.1562	82.0728	35.1562	81.8959	35.1562	81.9751	35.1562	81.7897	35.1562	81.8733	35.1562	81.6859	35.1562	81.771	35.1562	81.5887	35.1562	81.672	35.1562	81.5021	35.1562	81.5799	35.1562	81.4296	35.1562	81.4981	35.1562	81.3737	35.1562	81.4292	35.1562	81.3362	35.1562	81.3753	35.1562	81.3178	35.1562	81.3381	35.1562	81.3186
36.6211	83.1329	36.6211	83.1215	36.6211	83.1297	36.6211	83.0958	36.6211	83.1121	36.6211	83.056	36.6211	83.08	36.6211	83.0028	36.6211	83.0338	36.6211	82.9371	36.6211	82.9741	36.6211	82.8605	36.6211	82.902	36.6211	82.775	36.6211	82.819	36.6211	82.6834	36.6211	82.7275	36.6211	82.5889	36.6211	82.6303	36.6211	82.4949	36.6211	82.5309	36.6211	82.4049	36.6211	82.4334	36.6211	82.3218	36.6211	82.3415	36.6211	82.2478	36.6211	82.2589	36.6211	82.1848	36.6211	82.1886	36.6211	82.1337	36.6211	82.1327	36.6211	82.0956	36.6211	82.0928	36.6211	82.0716	36.6211	82.0694	36.6211	82.0625
38.0859	83.5435	38.0859	83.5281	38.0859	83.5417	38.0859	83.4955	38.0859	83.5232	38.0859	83.4458	38.0859	83.4882	38.0859	83.3793	38.0859	83.4375	38.0859	83.2969	38.0859	83.3717	38.0859	83.2001	38.0859	83.292	38.0859	83.0911	38.0859	83.2002	38.0859	82.9731	38.0859	83.0982	38.0859	82.8497	38.0859	82.9889	38.0859	82.7257	38.0859	82.8755	38.0859	82.6057	38.0859	82.7613	38.0859	82.4947	38.0859	82.6503	38.0859	82.3975	38.0859	82.5459	38.0859	82.3181	38.0859	82.4516	38.0859	82.2598	38.0859	82.3699	38.0859	82.2244	38.0859	82.3033	38.0859	82.2124	38.0859	82.2536	38.0859	82.2226
39.5508	84.0597	39.5508	84.0493	39.5508	84.0527	39.5508	84.0217	39.5508	84.0287	39.5508	83.9773	39.5508	83.9883	39.5508	83.9167	39.5508	83.9323	39.5508	83.8414	39.5508	83.862	39.5508	83.7531	39.5508	83.7792	39.5508	83.6546	39.5508	83.686	39.5508	83.549	39.5508	83.5852	39.5508	83.4402	39.5508	83.48	39.5508	83.3324	39.5508	83.3738	39.5508	83.2297	39.5508	83.2704	39.5508	83.1358	39.5508	83.1734	39.5508	83.0536	39.5508	83.086	39.5508	82.9851	39.5508	83.011	39.5508	82.9315	39.5508	82.9506	39.5508	82.8936	39.5508	82.9059	39.5508	82.8718	39.5508	82.8778	39.5508	82.8665
41.0156	84.2584	41.0156	84.2494	41.0156	84.2485	41.0156	84.2213	41.0156	84.2199	41.0156	84.1744	41.0156	84.1735	41.0156	84.1095	41.0156	84.1103	41.0156	84.0276	41.0156	84.0318	41.0156	83.9307	41.0156	83.9398	41.0156	83.8215	41.0156	83.8371	41.0156	83.7035	41.0156	83.7266	41.0156	83.5809	41.0156	83.6119	41.0156	83.4587	41.0156	83.4969	41.0156	83.3418	41.0156	83.3855	41.0156	83.2351	41.0156	83.2814	41.0156	83.1425	41.0156	83.1879	41.0156	83.0666	41.0156	83.1077	41.0156	83.009	41.0156	83.0425	41.0156	82.9701	41.0156	82.9935	41.0156	82.9494	41.0156	82.9614	41.0156	82.9466
42.4805	84.6369	42.4805	84.6357	42.4805	84.618	42.4805	84.6145	42.4805	84.5797	42.4805	84.5736	42.4805	84.523	42.4805	84.5136	42.4805	84.4493	42.4805	84.4361	42.4805	84.3606	42.4805	84.3427	42.4805	84.2595	42.4805	84.2362	42.4805	84.149	42.4805	84.1197	42.4805	84.0327	42.4805	83.9974	42.4805	83.9146	42.4805	83.8738	42.4805	83.7987	42.4805	83.7537	42.4805	83.6891	42.4805	83.6418	42.4805	83.5894	42.4805	83.5422	42.4805	83.5025	42.4805	83.4583	42.4805	83.4305	42.4805	83.3922	42.4805	83.3745	42.4805	83.3448	42.4805	83.3348	42.4805	83.316	42.4805	83.3117	42.4805	83.3053
43.9453	84.8285	43.9453	84.8355	43.9453	84.8011	43.9453	84.8217	43.9453	84.7536	43.9453	84.7876	43.9453	84.6874	43.9453	84.734	43.9453	84.6041	43.9453	84.6623	43.9453	84.5061	43.9453	84.5744	43.9453	84.3963	43.9453	84.4731	43.9453	84.2783	43.9453	84.3617	43.9453	84.1565	43.9453	84.2444	43.9453	84.0352	43.9453	84.1257	43.9453	83.9192	43.9453	84.01	43.9453	83.8128	43.9453	83.9018	43.9453	83.7198	43.9453	83.8043	43.9453	83.643	43.9453	83.7197	43.9453	83.5841	43.9453	83.6494	43.9453	83.5436	43.9453	83.5938	43.9453	83.5211	43.9453	83.5527	43.9453	83.5158	43.9453	83.5266
45.4102	85.0768	45.4102	85.0847	45.4102	85.0468	45.4102	85.0706	45.4102	84.9952	45.4102	85.0351	45.4102	84.923	45.4102	84.9794	45.4102	84.8319	45.4102	84.905	45.4102	84.7242	45.4102	84.8142	45.4102	84.6031	45.4102	84.7097	45.4102	84.4727	45.4102	84.5948	45.4102	84.3375	45.4102	84.4732	45.4102	84.2029	45.4102	84.349	45.4102	84.0743	45.4102	84.2263	45.4102	83.9569	45.4102	84.1092	45.4102	83.8553	45.4102	84.0012	45.4102	83.7726	45.4102	83.9052	45.4102	83.7109	45.4102	83.8231	45.4102	83.6706	45.4102	83.7561	45.4102	83.6512	45.4102	83.7047	45.4102	83.6513	45.4102	83.6695
46.875	85.3161	46.875	85.3167	46.875	85.2943	46.875	85.2961	46.875	85.2514	46.875	85.2551	46.875	85.1883	46.875	85.1949	46.875	85.1066	46.875	85.1175	46.875	85.0082	46.875	85.0253	46.875	84.8961	46.875	84.9213	46.875	84.774	46.875	84.809	46.875	84.6464	46.875	84.6923	46.875	84.5184	46.875	84.5755	46.875	84.3954	46.875	84.4624	46.875	84.2826	46.875	84.3567	46.875	84.1844	46.875	84.2616	46.875	84.1041	46.875	84.179	46.875	84.0435	46.875	84.1102	46.875	84.0029	46.875	84.0555	46.875	83.9813	46.875	84.0151	46.875	83.9771	46.875	83.9887
48.3398	85.5619	48.3398	85.5531	48.3398	85.5473	48.3398	85.5215	48.3398	85.5094	48.3398	85.4684	48.3398	85.4491	48.3398	85.3958	48.3398	85.3678	48.3398	85.3061	48.3398	85.268	48.3398	85.2027	48.3398	85.1529	48.3398	85.0896	48.3398	85.0266	48.3398	84.971	48.3398	84.8939	48.3398	84.8516	48.3398	84.7603	48.3398	84.736	48.3398	84.6318	48.3398	84.6283	48.3398	84.5139	48.3398	84.5315	48.3398	84.4117	48.3398	84.4475	48.3398	84.3286	48.3398	84.3767	48.3398	84.2665	48.3398	84.3186	48.3398	84.2257	48.3398	84.2721	48.3398	84.2046	48.3398	84.2366	48.3398	84.2011	48.3398	84.2125
51.2695	86.0097	51.2695	86.0014	51.2695	85.9929	51.2695	85.9687	51.2695	85.9511	51.2695	85.9127	51.2695	85.8853	51.2695	85.8352	51.2695	85.7972	51.2695	85.7389	51.2695	85.6892	51.2695	85.627	51.2695	85.5647	51.2695	85.5036	51.2695	85.4283	51.2695	85.3732	51.2695	85.285	51.2695	85.2408	51.2695	85.1409	51.2695	85.1114	51.2695	85.0021	51.2695	84.9896	51.2695	84.8747	51.2695	84.8793	51.2695	84.7639	51.2695	84.7831	51.2695	84.6732	51.2695	84.7024	51.2695	84.6043	51.2695	84.6373	51.2695	84.5573	51.2695	84.5873	51.2695	84.5306	51.2695	84.5515	51.2695	84.5221	51.2695	84.5296
52.7344	86.0388	52.7344	86.0305	52.7344	86.0207	52.7344	85.9965	52.7344	85.9767	52.7344	85.9378	52.7344	85.9076	52.7344	85.8564	52.7344	85.8152	52.7344	85.755	52.7344	85.7021	52.7344	85.6372	52.7344	85.5718	52.7344	85.5076	52.7344	85.4288	52.7344	85.3711	52.7344	85.2784	52.7344	85.2335	52.7344	85.127	52.7344	85.1001	52.7344	84.9811	52.7344	84.976	52.7344	84.8473	52.7344	84.865	52.7344	84.7314	52.7344	84.7694	52.7344	84.6375	52.7344	84.6897	52.7344	84.5677	52.7344	84.6249	52.7344	84.5222	52.7344	84.5736	52.7344	84.4991	52.7344	84.5347	52.7344	84.4955	52.7344	84.5082
54.1992	86.2656	54.1992	86.2603	54.1992	86.2442	54.1992	86.2287	54.1992	86.1963	54.1992	86.172	54.1992	86.1229	54.1992	86.0924	54.1992	86.0261	54.1992	85.9926	54.1992	85.9088	54.1992	85.8762	54.1992	85.7748	54.1992	85.7475	54.1992	85.629	54.1992	85.6113	54.1992	85.4768	54.1992	85.4727	54.1992	85.3248	54.1992	85.337	54.1992	85.1794	54.1992	85.2089	54.1992	85.0471	54.1992	85.0922	54.1992	84.9333	54.1992	84.99	54.1992	84.8416	54.1992	84.9037	54.1992	84.7738	54.1992	84.8336	54.1992	84.7295	54.1992	84.7793	54.1992	84.7065	54.1992	84.7395	54.1992	84.7021	54.1992	84.7136
55.6641	86.4752	55.6641	86.4659	55.6641	86.457	55.6641	86.4298	55.6641	86.4114	55.6641	86.3688	55.6641	86.3391	55.6641	86.2852	55.6641	86.2423	55.6641	86.1826	55.6641	86.1237	55.6641	86.065	55.6641	85.9872	55.6641	85.9373	55.6641	85.8378	55.6641	85.8046	55.6641	85.6816	55.6641	85.6723	55.6641	85.5252	55.6641	85.5452	55.6641	85.3759	55.6641	85.4275	55.6641	85.2406	55.6641	85.3218	55.6641	85.1254	55.6641	85.2295	55.6641	85.0346	55.6641	85.1505	55.6641	84.9702	55.6641	85.0835	55.6641	84.9321	55.6641	85.0273	55.6641	84.9178	55.6641	84.9813	55.6641	84.9238	55.6641	84.946
58.5938	86.9469	58.5938	86.9235	58.5938	86.9426	58.5938	86.8735	58.5938	86.9106	58.5938	86.7989	58.5938	86.8518	58.5938	86.7025	58.5938	86.7679	58.5938	86.5885	58.5938	86.6618	58.5938	86.4617	58.5938	86.5375	58.5938	86.3279	58.5938	86.4	58.5938	86.1931	58.5938	86.2554	58.5938	86.0636	58.5938	86.1104	58.5938	85.945	58.5938	85.972	58.5938	85.8413	58.5938	85.8469	58.5938	85.7551	58.5938	85.7404	58.5938	85.6866	58.5938	85.6559	58.5938	85.6343	58.5938	85.5945	58.5938	85.5954	58.5938	85.5549	58.5938	85.5669	58.5938	85.5341	58.5938	85.5464	58.5938	85.5281	58.5938	85.5331
60.0586	87.1251	60.0586	87.0974	60.0586	87.1237	60.0586	87.0419	60.0586	87.0932	60.0586	86.9607	60.0586	87.0346	60.0586	86.8571	60.0586	86.9499	60.0586	86.7356	60.0586	86.8422	60.0586	86.6018	60.0586	86.716	60.0586	86.4621	60.0586	86.5765	60.0586	86.3233	60.0586	86.4305	60.0586	86.1925	60.0586	86.2849	60.0586	86.0756	60.0586	86.1473	60.0586	85.9769	60.0586	86.0242	60.0586	85.8984	60.0586	85.9212	60.0586	85.8399	60.0586	85.8411	60.0586	85.7986	60.0586	85.7845	60.0586	85.7706	60.0586	85.7493	60.0586	85.7516	60.0586	85.7315	60.0586	85.7384	60.0586	85.7264	60.0586	85.7297
62.9883	87.5315	62.9883	87.5025	62.9883	87.5288	62.9883	87.4429	62.9883	87.4944	62.9883	87.3549	62.9883	87.4296	62.9883	87.2421	62.9883	87.3367	62.9883	87.1092	62.9883	87.2191	62.9883	86.9624	62.9883	87.0818	62.9883	86.8089	62.9883	86.9306	62.9883	86.6566	62.9883	86.7728	62.9883	86.5133	62.9883	86.616	62.9883	86.3861	62.9883	86.4685	62.9883	86.2799	62.9883	86.3374	62.9883	86.197	62.9883	86.2285	62.9883	86.1369	62.9883	86.1448	62.9883	86.0961	62.9883	86.0866	62.9883	86.0698	62.9883	86.0513	62.9883	86.0529	62.9883	86.0343	62.9883	86.0414	62.9883	86.03	62.9883	86.0335
64.4531	87.689	64.4531	87.6543	64.4531	87.6909	64.4531	87.588	64.4531	87.6602	64.4531	87.4928	64.4531	87.5978	64.4531	87.3724	64.4531	87.5063	64.4531	87.2322	64.4531	87.3894	64.4531	87.0789	64.4531	87.2519	64.4531	86.9203	64.4531	87.1002	64.4531	86.7648	64.4531	86.9416	64.4531	86.6209	64.4531	86.7841	64.4531	86.4955	64.4531	86.6359	64.4531	86.3937	64.4531	86.5045	64.4531	86.3172	64.4531	86.3955	64.4531	86.2648	64.4531	86.3119	64.4531	86.2322	64.4531	86.2539	64.4531	86.2139	64.4531	86.2183	64.4531	86.204	64.4531	86.2004	64.4531	86.1983	64.4531	86.1943	64.4531	86.1947
67.3828	88.0383	67.3828	87.9893	67.3828	88.0513	67.3828	87.9052	67.3828	88.0282	67.3828	87.7887	67.3828	87.9707	67.3828	87.6439	67.3828	87.8812	67.3828	87.4766	67.3828	87.7639	67.3828	87.2947	67.3828	87.6239	67.3828	87.1073	67.3828	87.4678	67.3828	86.9248	67.3828	87.3034	67.3828	86.758	67.3828	87.1391	67.3828	86.6163	67.3828	86.9834	67.3828	86.5063	67.3828	86.8439	67.3828	86.4308	67.3828	86.7264	67.3828	86.3882	67.3828	86.6334	67.3828	86.3728	67.3828	86.5645	67.3828	86.3771	67.3828	86.5159	67.3828	86.3927	67.3828	86.482	67.3828	86.4132	67.3828	86.4567	67.3828	86.4346
68.8477	88.2679	68.8477	88.2183	68.8477	88.2805	68.8477	88.1326	68.8477	88.2562	68.8477	88.0133	68.8477	88.1968	68.8477	87.8644	68.8477	88.1051	68.8477	87.6921	68.8477	87.9853	68.8477	87.5041	68.8477	87.843	68.8477	87.3102	68.8477	87.685	68.8477	87.1217	68.8477	87.5194	68.8477	86.9499	68.8477	87.3549	68.8477	86.805	68.8477	87.2002	68.8477	86.6946	68.8477	87.0631	68.8477	86.6216	68.8477	86.9489	68.8477	86.5842	68.8477	86.86	68.8477	86.576	68.8477	86.7951	68.8477	86.5883	68.8477	86.7497	68.8477	86.6121	68.8477	86.7174	68.8477	86.6396	68.8477	86.6914	68.8477	86.6664
71.7773	88.7645	71.7773	88.7172	71.7773	88.7725	71.7773	88.631	71.7773	88.742	71.7773	88.5081	71.7773	88.6751	71.7773	88.3523	71.7773	88.5754	71.7773	88.1694	71.7773	88.4474	71.7773	87.9675	71.7773	88.2975	71.7773	87.7568	71.7773	88.133	71.7773	87.5496	71.7773	87.9623	71.7773	87.3588	71.7773	87.7943	71.7773	87.1967	71.7773	87.6377	71.7773	87.0729	71.7773	87.4998	71.7773	86.992	71.7773	87.3856	71.7773	86.9529	71.7773	87.2966	71.7773	86.949	71.7773	87.2309	71.7773	86.9701	71.7773	87.1834	71.7773	87.0049	71.7773	87.147	71.7773	87.044	71.7773	87.1148	71.7773	87.0812
74.707	89.1811	74.707	89.1358	74.707	89.1861	74.707	89.0506	74.707	89.1517	74.707	88.9274	74.707	89.0803	74.707	88.77	74.707	88.9755	74.707	88.5841	74.707	88.8427	74.707	88.3776	74.707	88.6886	74.707	88.1607	74.707	88.5211	74.707	87.9461	74.707	88.3494	74.707	87.7471	74.707	88.1832	74.707	87.5772	74.707	88.0314	74.707	87.4471	74.707	87.9009	74.707	87.3629	74.707	87.7958	74.707	87.3244	74.707	87.716	74.707	87.3252	74.707	87.6579	74.707	87.3548	74.707	87.6147	74.707	87.4006	74.707	87.5785	74.707	87.4516	74.707	87.5418	74.707	87.4999
77.6367	89.4797	77.6367	89.4487	77.6367	89.4695	77.6367	89.3771	77.6367	89.4191	77.6367	89.2673	77.6367	89.3309	77.6367	89.1233	77.6367	89.2092	77.6367	88.9513	77.6367	89.0599	77.6367	88.7593	77.6367	88.891	77.6367	88.558	77.6367	88.7122	77.6367	88.3595	77.6367	88.5345	77.6367	88.1772	77.6367	88.3693	77.6367	88.0233	77.6367	88.2268	77.6367	87.9077	77.6367	88.1147	77.6367	87.835	77.6367	88.0361	77.6367	87.804	77.6367	87.9893	77.6367	87.8076	77.6367	87.9678	77.6367	87.8346	77.6367	87.9617	77.6367	87.8725	77.6367	87.9604	77.6367	87.9097	77.6367	87.9547	77.6367	87.9383
79.1016	89.6282	79.1016	89.5996	79.1016	89.6135	79.1016	89.5286	79.1016	89.5564	79.1016	89.4175	79.1016	89.4593	79.1016	89.2708	79.1016	89.3264	79.1016	89.0947	79.1016	89.1641	79.1016	88.898	79.1016	88.9806	79.1016	88.6915	79.1016	88.7865	79.1016	88.4883	79.1016	88.594	79.1016	88.302	79.1016	88.4157	79.1016	88.1456	79.1016	88.2638	79.1016	88.0289	79.1016	88.1469	79.1016	87.9566	79.1016	88.0693	79.1016	87.9265	79.1016	88.0287	79.1016	87.9306	79.1016	88.0179	79.1016	87.9568	79.1016	88.0253	79.1016	87.9915	79.1016	88.0385	79.1016	88.0226	79.1016	88.0466	79.1016	88.0421
82.0312	89.9248	82.0312	89.8966	82.0312	89.9066	82.0312	89.8229	82.0312	89.8423	82.0312	89.7065	82.0312	89.7344	82.0312	89.552	82.0312	89.5868	82.0312	89.3664	82.0312	89.4057	82.0312	89.1588	82.0312	89.1999	82.0312	88.941	82.0312	88.9806	82.0312	88.7266	82.0312	88.7614	82.0312	88.5303	82.0312	88.5571	82.0312	88.3655	82.0312	88.3823	82.0312	88.2424	82.0312	88.2484	82.0312	88.1651	82.0312	88.1615	82.0312	88.1311	82.0312	88.1205	82.0312	88.1311	82.0312	88.1171	82.0312	88.1519	82.0312	88.138	82.0312	88.1789	82.0312	88.1681	82.0312	88.1995	82.0312	88.1936	82.0312	88.2053
84.9609	90.1448	84.9609	90.1158	84.9609	90.1249	84.9609	90.0388	84.9609	90.0566	84.9609	89.9166	84.9609	89.9419	84.9609	89.7539	84.9609	89.7849	84.9609	89.5577	84.9609	89.5914	84.9609	89.3375	84.9609	89.3699	84.9609	89.1056	84.9609	89.1315	84.9609	88.8764	84.9609	88.8897	84.9609	88.6655	84.9609	88.6601	84.9609	88.487	84.9609	88.4584	84.9609	88.3515	84.9609	88.2981	84.9609	88.2633	84.9609	88.1878	84.9609	88.219	84.9609	88.1286	84.9609	88.2083	84.9609	88.1142	84.9609	88.217	84.9609	88.1318	84.9609	88.2302	84.9609	88.1658	84.9609	88.2356	84.9609	88.201	84.9609	88.2262
87.8906	90.1854	87.8906	90.1497	87.8906	90.172	87.8906	90.0661	87.8906	90.1103	87.8906	89.9373	87.8906	90.0031	87.8906	89.7685	87.8906	89.8547	87.8906	89.5673	87.8906	89.6718	87.8906	89.3439	87.8906	89.4634	87.8906	89.1114	87.8906	89.2409	87.8906	88.885	87.8906	89.0176	87.8906	88.6807	87.8906	88.8084	87.8906	88.5131	87.8906	88.6274	87.8906	88.3924	87.8906	88.486	87.8906	88.3221	87.8906	88.3906	87.8906	88.2975	87.8906	88.3407	87.8906	88.3076	87.8906	88.329	87.8906	88.3369	87.8906	88.3432	87.8906	88.3699	87.8906	88.3687	87.8906	88.3941	87.8906	88.3916	87.8906	88.4017
90.8203	90.2534	90.8203	90.221	90.8203	90.2318	90.8203	90.1358	90.8203	90.1569	90.8203	90.0012	90.8203	90.0319	90.8203	89.8232	90.8203	89.8622	90.8203	89.6104	90.8203	89.6556	90.8203	89.3749	90.8203	89.4236	90.8203	89.1319	90.8203	89.1805	90.8203	88.8991	90.8203	88.9436	90.8203	88.6952	90.8203	88.7319	90.8203	88.537	90.8203	88.563	90.8203	88.4357	90.8203	88.4496	90.8203	88.3936	90.8203	88.3963	90.8203	88.4036	90.8203	88.3975	90.8203	88.4502	90.8203	88.4389	90.8203	88.5139	90.8203	88.5013	90.8203	88.5748	90.8203	88.5642	90.8203	88.6169	90.8203	88.6109	90.8203	88.6299
95.2148	90.4792	95.2148	90.4352	95.2148	90.467	95.2148	90.3363	95.2148	90.3989	95.2148	90.1864	95.2148	90.2772	95.2148	89.9913	95.2148	90.1063	95.2148	89.7601	95.2148	89.8931	95.2148	89.505	95.2148	89.6474	95.2148	89.2419	95.2148	89.3824	95.2148	88.9895	95.2148	89.1147	95.2148	88.768	95.2148	88.8632	95.2148	88.5953	95.2148	88.6477	95.2148	88.4831	95.2148	88.485	95.2148	88.4333	95.2148	88.3853	95.2148	88.437	95.2148	88.349	95.2148	88.4762	95.2148	88.3663	95.2148	88.529	95.2148	88.4192	95.2148	88.5743	95.2148	88.4866	95.2148	88.5966	95.2148	88.548	95.2148	88.5876
98.1445	90.3796	98.1445	90.3393	98.1445	90.3589	98.1445	90.2396	98.1445	90.2779	98.1445	90.0842	98.1445	90.1396	98.1445	89.8797	98.1445	89.9495	98.1445	89.6357	98.1445	89.7158	98.1445	89.3653	98.1445	89.4501	98.1445	89.0853	98.1445	89.1674	98.1445	88.8159	98.1445	88.8865	98.1445	88.5784	98.1445	88.6281	98.1445	88.3925	98.1445	88.4132	98.1445	88.2716	98.1445	88.2587	98.1445	88.2187	98.1445	88.173	98.1445	88.2248	98.1445	88.1537	98.1445	88.2713	98.1445	88.1873	98.1445	88.3347	98.1445	88.2531	98.1445	88.3921	98.1445	88.3277	98.1445	88.4257	98.1445	88.3902	98.1445	88.4254
101.074	90.4018	101.074	90.3601	101.074	90.3774	101.074	90.2542	101.074	90.2873	101.074	90.0886	101.074	90.1345	101.074	89.8707	101.074	89.9248	101.074	89.6115	101.074	89.6673	101.074	89.3257	101.074	89.3751	101.074	89.0324	101.074	89.0661	101.074	88.754	101.074	88.7621	101.074	88.5142	101.074	88.4884	101.074	88.3338	101.074	88.2694	101.074	88.2256	101.074	88.1241	101.074	88.1908	101.074	88.0605	101.074	88.2176	101.074	88.0725	101.074	88.2844	101.074	88.1415	101.074	88.3651	101.074	88.2412	101.074	88.435	101.074	88.3441	101.074	88.4745	101.074	88.4265	101.074	88.4724
105.469	90.5753	105.469	90.5232	105.469	90.5535	105.469	90.3973	105.469	90.459	105.469	90.1997	105.469	90.2944	105.469	89.9354	105.469	90.0645	105.469	89.6133	105.469	89.7769	105.469	89.2478	105.469	89.4428	105.469	88.8603	105.469	89.0786	105.469	88.4797	105.469	88.7063	105.469	88.1398	105.469	88.3535	105.469	87.8738	105.469	88.0501	105.469	87.7055	105.469	87.8234	105.469	87.6406	105.469	87.6902	105.469	87.6647	105.469	87.6513	105.469	87.7475	105.469	87.6899	105.469	87.8524	105.469	87.7767	105.469	87.9456	105.469	87.8779	105.469	88.0018	105.469	87.9625	105.469	88.0077
108.398	90.8958	108.398	90.863	108.398	90.85	108.398	90.7512	108.398	90.7275	108.398	90.5619	108.398	90.5317	108.398	90.299	108.398	90.2684	108.398	89.9698	108.398	89.9461	108.398	89.5867	108.398	89.5775	108.398	89.1686	108.398	89.1803	108.398	88.742	108.398	88.7783	108.398	88.3408	108.398	88.4004	108.398	88.0017	108.398	88.0775	108.398	87.7561	108.398	87.8365	108.398	87.6198	108.398	87.6922	108.398	87.587	108.398	87.6422	108.398	87.6314	108.398	87.6666	108.398	87.7165	108.398	87.7344	108.398	87.8055	108.398	87.8123	108.398	87.8702	108.398	87.8718	108.398	87.8937
112.793	91.1327	112.793	91.0712	112.793	91.1166	112.793	90.9343	112.793	91.0229	112.793	90.7261	112.793	90.8531	112.793	90.4529	112.793	90.6113	112.793	90.1242	112.793	90.3045	112.793	89.7529	112.793	89.943	112.793	89.3575	112.793	89.5427	112.793	88.9624	112.793	89.1252	112.793	88.5977	112.793	88.7197	112.793	88.2955	112.793	88.3602	112.793	88.0829	112.793	88.0808	112.793	87.9728	112.793	87.906	112.793	87.9577	112.793	87.8417	112.793	88.0113	112.793	87.8714	112.793	88.0968	112.793	87.9617	112.793	88.1776	112.793	88.0725	112.793	88.2251	112.793	88.168	112.793	88.2227
117.188	90.9845	117.188	90.9116	117.188	90.9797	117.188	90.7629	117.188	90.8967	117.188	90.5423	117.188	90.7365	117.188	90.2554	117.188	90.5021	117.188	89.9109	117.188	90.1992	117.188	89.5215	117.188	89.8369	117.188	89.1049	117.188	89.4296	117.188	88.6857	117.188	88.998	117.188	88.2943	117.188	88.5703	117.188	87.9638	117.188	88.1805	117.188	87.7227	117.188	87.8634	117.188	87.5856	117.188	87.6456	117.188	87.5467	117.188	87.536	117.188	87.5808	117.188	87.5219	117.188	87.6518	117.188	87.5734	117.188	87.7235	117.188	87.6533	117.188	87.7678	117.188	87.7271	117.188	87.7694
120.117	90.92	120.117	90.8392	120.117	90.9212	120.117	90.6801	120.117	90.8432	120.117	90.4453	120.117	90.6876	120.117	90.1398	120.117	90.4578	120.117	89.7717	120.117	90.1596	120.117	89.3534	120.117	89.8021	120.117	88.9035	120.117	89.3989	120.117	88.448	120.117	88.9699	120.117	88.0207	120.117	88.5421	120.117	87.6595	120.117	88.1485	120.117	87.3983	120.117	87.8235	120.117	87.2559	120.117	87.594	120.117	87.2271	120.117	87.4701	120.117	87.2841	120.117	87.44	120.117	87.386	120.117	87.474	120.117	87.4916	120.117	87.5343	120.117	87.5692	120.117	87.5853	120.117	87.6012
124.512	90.7869	124.512	90.7186	124.512	90.7786	124.512	90.5741	124.512	90.695	124.512	90.3556	124.512	90.5387	124.512	90.0677	124.512	90.3143	124.512	89.7183	124.512	90.0285	124.512	89.32	124.512	89.6915	124.512	88.8912	124.512	89.3176	124.512	88.4577	124.512	88.9269	124.512	88.0523	124.512	88.5455	124.512	87.7113	124.512	88.2037	124.512	87.467	124.512	87.9313	124.512	87.3374	124.512	87.7492	124.512	87.3186	124.512	87.6618	124.512	87.3857	124.512	87.6538	124.512	87.5005	124.512	87.6949	124.512	87.6237	124.512	87.7491	124.512	87.723	124.512	87.7843	124.512	87.7784
128.906	90.3973	128.906	90.3468	128.906	90.3674	128.906	90.2157	128.906	90.2588	128.906	90.0061	128.906	90.0752	128.906	89.7224	128.906	89.8224	128.906	89.3726	128.906	89.5094	128.906	88.9698	128.906	89.1492	128.906	88.5341	128.906	88.7601	128.906	88.0943	128.906	88.3673	128.906	87.6879	128.906	88.0023	128.906	87.3571	128.906	87.6998	128.906	87.1392	128.906	87.4899	128.906	87.0532	128.906	87.3888	128.906	87.0911	128.906	87.3907	128.906	87.2196	128.906	87.4681	128.906	87.3918	128.906	87.581	128.906	87.561	128.906	87.6876	128.906	87.6903	128.906	87.7536	128.906	87.757
133.301	90.2261	133.301	90.199	133.301	90.1668	133.301	90.0856	133.301	90.0223	133.301	89.8879	133.301	89.796	133.301	89.6101	133.301	89.4935	133.301	89.2598	133.301	89.1237	133.301	88.8496	133.301	88.701	133.301	88.3993	133.301	88.2467	133.301	87.9382	133.301	87.7921	133.301	87.5062	133.301	87.3779	133.301	87.1501	133.301	87.0506	133.301	86.9136	133.301	86.8506	133.301	86.8212	133.301	86.797	133.301	86.8664	133.301	86.8761	133.301	87.0125	133.301	87.0453	133.301	87.2058	133.301	87.2478	133.301	87.3921	133.301	87.4294	133.301	87.5275	133.301	87.5492	133.301	87.5838
139.16	89.969	139.16	89.9295	139.16	89.917	139.16	89.8012	139.16	89.7723	139.16	89.5883	139.16	89.5351	139.16	89.2971	139.16	89.208	139.16	88.9365	139.16	88.7962	139.16	88.5192	139.16	88.3098	139.16	88.0642	139.16	87.7657	139.16	87.5982	139.16	87.1924	139.16	87.1574	139.16	86.6329	139.16	86.7847	139.16	86.146	139.16	86.521	139.16	85.7971	139.16	86.3908	139.16	85.636	139.16	86.3894	139.16	85.6706	139.16	86.4816	139.16	85.8591	139.16	86.614	139.16	86.1283	139.16	86.7311	139.16	86.4023	139.16	86.7876	139.16	86.6226	139.16	86.7547
143.555	89.5053	143.555	89.4324	143.555	89.4884	143.555	89.2734	143.555	89.3799	143.555	89.0335	143.555	89.1795	143.555	88.7204	143.555	88.8883	143.555	88.345	143.555	88.5101	143.555	87.9222	143.555	88.052	143.555	87.4732	143.555	87.5268	143.555	87.0266	143.555	86.957	143.555	86.6187	143.555	86.3789	143.555	86.2892	143.555	85.8454	143.555	86.0714	143.555	85.4224	143.555	85.9793	143.555	85.1709	143.555	85.9986	143.555	85.1201	143.555	86.0895	143.555	85.2484	143.555	86.1993	143.555	85.492	143.555	86.2775	143.555	85.7729	143.555	86.2855	143.555	86.0242	143.555	86.2017
147.949	89.1308	147.949	89.0129	147.949	89.1551	147.949	88.8033	147.949	89.086	147.949	88.5062	147.949	88.9251	147.949	88.1291	147.949	88.6759	147.949	87.6838	147.949	88.3437	147.949	87.189	147.949	87.9372	147.949	86.6728	147.949	87.4703	147.949	86.1748	147.949	86.9644	147.949	85.7452	147.949	86.4522	147.949	85.4365	147.949	85.9791	147.949	85.2862	147.949	85.599	147.949	85.2984	147.949	85.361	147.949	85.4384	147.949	85.289	147.949	85.6458	147.949	85.3676	147.949	85.8558	147.949	85.5464	147.949	86.0153	147.949	85.7599	147.949	86.0902	147.949	85.9478	147.949	86.0661
153.809	89.0978	153.809	89.027	153.809	89.0598	153.809	88.8467	153.809	88.9147	153.809	88.557	153.809	88.6653	153.809	88.1599	153.809	88.3163	153.809	87.6599	153.809	87.875	153.809	87.0671	153.809	87.3531	153.809	86.402	153.809	86.7694	153.809	85.702	153.809	86.1536	153.809	85.0289	153.809	85.5501	153.809	84.468	153.809	85.0176	153.809	84.1078	153.809	84.6204	153.809	83.998	153.809	84.4068	153.809	84.1163	153.809	84.3851	153.809	84.3792	153.809	84.5156	153.809	84.685	153.809	84.7279	153.809	84.9501	153.809	84.9466	153.809	85.1216	153.809	85.1095	153.809	85.1748
159.668	89.2293	159.668	89.1657	159.668	89.1891	159.668	88.9995	159.668	89.0447	159.668	88.7334	159.668	88.7966	159.668	88.371	159.668	88.4465	159.668	87.9188	159.668	87.9978	159.668	87.3868	159.668	87.4575	159.668	86.792	159.668	86.8384	159.668	86.162	159.668	86.1647	159.668	85.5394	159.668	85.4775	159.668	84.9833	159.668	84.84	159.668	84.5608	159.668	84.3319	159.668	84.3237	159.668	84.0262	159.668	84.281	159.668	83.952	159.668	84.3897	159.668	84.0734	159.668	84.5731	159.668	84.3074	159.668	84.7514	159.668	84.5622	159.668	84.8626	159.668	84.7647	159.668	84.8703
165.527	89.0977	165.527	89.009	165.527	89.0868	165.527	88.8219	165.527	88.9758	165.527	88.5384	165.527	88.7647	165.527	88.1619	165.527	88.4545	165.527	87.6985	165.527	88.048	165.527	87.1588	165.527	87.5508	165.527	86.562	165.527	86.9739	165.527	85.9409	165.527	86.3377	165.527	85.3457	165.527	85.6776	165.527	84.8433	165.527	85.0489	165.527	84.5018	165.527	84.5257	165.527	84.3615	165.527	84.1839	165.527	84.41	165.527	84.0677	165.527	84.5846	165.527	84.1609	165.527	84.8008	165.527	84.3913	165.527	84.9814	165.527	84.6658	165.527	85.0726	165.527	84.9025	165.527	85.0467
171.387	88.7558	171.387	88.6437	171.387	88.7645	171.387	88.429	171.387	88.6694	171.387	88.1132	171.387	88.4702	171.387	87.6985	171.387	88.1674	171.387	87.1893	171.387	87.7627	171.387	86.5952	171.387	87.2607	171.387	85.9353	171.387	86.6719	171.387	85.2454	171.387	86.0175	171.387	84.5865	171.387	85.3371	171.387	84.0443	171.387	84.6944	171.387	83.7093	171.387	84.174	171.387	83.6321	171.387	83.8573	171.387	83.7859	171.387	83.7815	171.387	84.0786	171.387	83.9143	171.387	84.3994	171.387	84.1708	171.387	84.6593	171.387	84.4542	171.387	84.8041	171.387	84.6854	171.387	84.8114
177.246	88.0316	177.246	87.973	177.246	87.9943	177.246	87.8167	177.246	87.8634	177.246	87.5615	177.246	87.6421	177.246	87.2071	177.246	87.3341	177.246	86.7545	177.246	86.9441	177.246	86.2081	177.246	86.4786	177.246	85.5791	177.246	85.9472	177.246	84.891	177.246	85.367	177.246	84.1885	177.246	84.7678	177.246	83.5438	177.246	84.1974	177.246	83.0515	177.246	83.7224	177.246	82.797	177.246	83.412	177.246	82.8069	177.246	83.3064	177.246	83.0256	177.246	83.3877	177.246	83.3458	177.246	83.583	177.246	83.6592	177.246	83.798	177.246	83.8875	177.246	83.9507	177.246	83.9878
183.105	86.9418	183.105	86.8985	183.105	86.8818	183.105	86.7545	183.105	86.7186	183.105	86.5154	183.105	86.4551	183.105	86.1891	183.105	86.0974	183.105	85.787	183.105	85.6555	183.105	85.3238	183.105	85.144	183.105	84.8194	183.105	84.5843	183.105	84.3015	183.105	84.008	183.105	83.8072	183.105	83.4592	183.105	83.3826	183.105	82.9946	183.105	83.0764	183.105	82.674	183.105	82.9239	183.105	82.5401	183.105	82.9298	183.105	82.595	183.105	83.0609	183.105	82.7939	183.105	83.2561	183.105	83.0624	183.105	83.4471	183.105	83.3234	183.105	83.5756	183.105	83.5158	183.105	83.6033
188.965	87.2278	188.965	87.1276	188.965	87.1892	188.965	86.8925	188.965	87.0109	188.965	86.5306	188.965	86.695	188.965	86.0551	188.965	86.2468	188.965	85.4871	188.965	85.6765	188.965	84.8584	188.965	85.002	188.965	84.2149	188.965	84.2553	188.965	83.6179	188.965	83.4915	188.965	83.1379	188.965	82.7965	188.965	82.8374	188.965	82.2806	188.965	82.7468	188.965	82.0418	188.965	82.8493	188.965	82.1094	188.965	83.0882	188.965	82.4211	188.965	83.391	188.965	82.8604	188.965	83.6894	188.965	83.3132	188.965	83.9293	188.965	83.6964	188.965	84.0705	188.965	83.961	188.965	84.086
196.289	88.9206	196.289	88.7796	196.289	88.8986	196.289	88.4764	196.289	88.7114	196.289	88.0112	196.289	88.3564	196.289	87.3852	196.289	87.8305	196.289	86.6036	196.289	87.1313	196.289	85.6841	196.289	86.2601	196.289	84.673	196.289	85.2289	196.289	83.6717	196.289	84.0769	196.289	82.8575	196.289	82.9039	196.289	82.4425	196.289	81.9112	196.289	82.5291	196.289	81.3782	196.289	83.0091	196.289	81.4728	196.289	83.6603	196.289	82.0724	196.289	84.294	196.289	82.892	196.289	84.7995	196.289	83.7012	196.289	85.1245	196.289	84.3782	196.289	85.2481	196.289	84.8718	196.289	85.1637
203.613	88.9845	203.613	88.8178	203.613	89.0042	203.613	88.4995	203.613	88.8801	203.613	88.0234	203.613	88.6134	203.613	87.3813	203.613	88.203	203.613	86.5626	203.613	87.645	203.613	85.5562	203.613	86.9329	203.613	84.3586	203.613	86.0597	203.613	82.9978	203.613	85.0228	203.613	81.5939	203.613	83.8396	203.613	80.4544	203.613	82.5806	203.613	80.0329	203.613	81.4281	203.613	80.4913	203.613	80.7008	203.613	81.462	203.613	80.6741	203.613	82.4908	203.613	81.2745	203.613	83.3272	203.613	82.1533	203.613	83.8764	203.613	83.0015	203.613	84.1118	203.613	83.6526	203.613	84.0329
210.938	89.3415	210.938	89.2253	210.938	89.3266	210.938	88.9751	210.938	89.1813	210.938	88.5857	210.938	88.905	210.938	88.0486	210.938	88.4949	210.938	87.3518	210.938	87.9467	210.938	86.4795	210.938	87.254	210.938	85.4162	210.938	86.4114	210.938	84.1579	210.938	85.421	210.938	82.7458	210.938	84.3084	210.938	81.3432	210.938	83.156	210.938	80.3279	210.938	82.1461	210.938	80.143	210.938	81.5487	210.938	80.783	210.938	81.545	210.938	81.7829	210.938	82.0302	210.938	82.7342	210.938	82.7144	210.938	83.4476	210.938	83.3482	210.938	83.8628	210.938	83.7901	210.938	83.9724
218.262	89.114	218.262	89.0279	218.262	89.0851	218.262	88.8244	218.262	88.942	218.262	88.4989	218.262	88.6837	218.262	88.0449	218.262	88.3073	218.262	87.4538	218.262	87.8079	218.262	86.7157	218.262	87.1796	218.262	85.8221	218.262	86.4174	218.262	84.7727	218.262	85.5226	218.262	83.5936	218.262	84.5147	218.262	82.3741	218.262	83.4549	218.262	81.3179	218.262	82.4771	218.262	80.7269	218.262	81.7922	218.262	80.7853	218.262	81.5854	218.262	81.3443	218.262	81.8434	218.262	82.076	218.262	82.3504	218.262	82.724	218.262	82.8619	218.262	83.1567	218.262	83.2136	218.262	83.3221
225.586	90.4774	225.586	90.426	225.586	90.3918	225.586	90.2339	225.586	90.1706	225.586	89.8953	225.586	89.8134	225.586	89.4016	225.586	89.3163	225.586	88.7415	225.586	88.6711	225.586	87.9017	225.586	87.8649	225.586	86.8718	225.586	86.8827	225.586	85.6568	225.586	85.7191	225.586	84.3119	225.586	84.4115	225.586	83.0165	225.586	83.1142	225.586	82.1425	225.586	82.187	225.586	82.0771	225.586	82.0561	225.586	82.773	225.586	82.7294	225.586	83.7963	225.586	83.7664	225.586	84.7756	225.586	84.7654	225.586	85.532	225.586	85.5332	225.586	86	225.586	86.0033	225.586	86.1592
232.91	90.9118	232.91	90.8346	232.91	90.8738	232.91	90.6404	232.91	90.7198	232.91	90.3236	232.91	90.4459	232.91	89.8732	232.91	90.0447	232.91	89.2721	232.91	89.5031	232.91	88.4953	232.91	88.8005	232.91	87.5105	232.91	87.9055	232.91	86.2818	232.91	86.7757	232.91	84.7868	232.91	85.3612	232.91	83.0782	232.91	83.6327	232.91	81.4582	232.91	81.6959	232.91	80.6621	232.91	80.1161	232.91	81.2146	232.91	79.9594	232.91	82.5439	232.91	81.2462	232.91	83.8716	232.91	82.8735	232.91	84.8527	232.91	84.2029	232.91	85.3913	232.91	85.0732	232.91	85.4671
241.699	90.1388	241.699	90.0173	241.699	90.1566	241.699	89.7947	241.699	90.0682	241.699	89.4728	241.699	89.8718	241.699	89.0498	241.699	89.5637	241.699	88.5173	241.699	89.1359	241.699	87.8579	241.699	88.5729	241.699	87.0437	241.699	87.8485	241.699	86.0386	241.699	86.9251	241.699	84.808	241.699	85.7551	241.699	83.3514	241.699	84.293	241.699	81.7931	241.699	82.5392	241.699	80.5531	241.699	80.6905	241.699	80.2692	241.699	79.4309	241.699	81.0029	241.699	79.5894	241.699	82.0978	241.699	80.8029	241.699	83.0097	241.699	82.1194	241.699	83.5149	241.699	83.0729	241.699	83.5427
250.488	90.1348	250.488	90.0348	250.488	90.1131	250.488	89.8139	250.488	89.9716	250.488	89.4743	250.488	89.7146	250.488	89.0185	250.488	89.3475	250.488	88.4468	250.488	88.8748	250.488	87.7554	250.488	88.298	250.488	86.9367	250.488	87.6125	250.488	85.9826	250.488	86.8074	250.488	84.8947	250.488	85.8679	250.488	83.7098	250.488	84.7865	250.488	82.5488	250.488	83.5926	250.488	81.6662	250.488	82.4119	250.488	81.3654	250.488	81.5308	250.488	81.6989	250.488	81.2895	250.488	82.3675	250.488	81.7126	250.488	83.0081	250.488	82.436	250.488	83.392	250.488	83.0754	250.488	83.419
259.277	90.8578	259.277	90.7429	259.277	90.845	259.277	90.4981	259.277	90.7065	259.277	90.1202	259.277	90.4438	259.277	89.603	259.277	90.0563	259.277	88.9352	259.277	89.5386	259.277	88.0983	259.277	88.878	259.277	87.0666	259.277	88.0529	259.277	85.8113	259.277	87.0337	259.277	84.3203	259.277	85.7894	259.277	82.6619	259.277	84.3101	259.277	81.1394	259.277	82.6753	259.277	80.3955	259.277	81.2101	259.277	80.8299	259.277	80.5579	259.277	81.9543	259.277	81.0528	259.277	83.104	259.277	82.1702	259.277	83.9581	259.277	83.2728	259.277	84.4154	259.277	84.0634	259.277	84.4511
268.066	89.3384	268.066	89.2656	268.066	89.3003	268.066	89.0819	268.066	89.1551	268.066	88.7888	268.066	88.9088	268.066	88.3865	268.066	88.5672	268.066	87.87	268.066	88.1312	268.066	87.2251	268.066	87.5928	268.066	86.4264	268.066	86.934	268.066	85.4379	268.066	86.1291	268.066	84.2231	268.066	85.1531	268.066	82.7767	268.066	83.9989	268.066	81.2186	268.066	82.7165	268.066	79.975	268.066	81.4918	268.066	79.7123	268.066	80.7061	268.066	80.5005	268.066	80.7134	268.066	81.6552	268.066	81.3909	268.066	82.6206	268.066	82.2645	268.066	83.1815	268.066	82.9581	268.066	83.2883
276.855	88.5924	276.855	88.4589	276.855	88.609	276.855	88.2152	276.855	88.5074	276.855	87.8708	276.855	88.2905	276.855	87.4328	276.855	87.9624	276.855	86.8998	276.855	87.5223	276.855	86.2565	276.855	86.9591	276.855	85.4715	276.855	86.2484	276.855	84.4998	276.855	85.354	276.855	83.2919	276.855	84.2405	276.855	81.8253	276.855	82.9052	276.855	80.2039	276.855	81.4615	276.855	78.8868	276.855	80.2787	276.855	78.6777	276.855	79.9226	276.855	79.6753	276.855	80.5143	276.855	81.0575	276.855	81.5235	276.855	82.2145	276.855	82.4409	276.855	82.9437	276.855	83.0318	276.855	83.2113
287.109	88.4433	287.109	88.3432	287.109	88.4085	287.109	88.1092	287.109	88.2402	287.109	87.7433	287.109	87.9432	287.109	87.2466	287.109	87.5239	287.109	86.6183	287.109	86.9883	287.109	85.8547	287.109	86.3371	287.109	84.9496	287.109	85.5609	287.109	83.8959	287.109	84.6354	287.109	82.6969	287.109	83.5205	287.109	81.4018	287.109	82.1763	287.109	80.1903	287.109	80.638	287.109	79.4619	287.109	79.2296	287.109	79.6194	287.109	78.7469	287.109	80.5379	287.109	79.5999	287.109	81.6879	287.109	81.0369	287.109	82.6614	287.109	82.2999	287.109	83.2687	287.109	83.1144	287.109	83.4322
297.363	88.8793	297.363	88.8505	297.363	88.7825	297.363	88.6962	297.363	88.5643	297.363	88.4182	297.363	88.233	297.363	88.014	297.363	87.7965	297.363	87.4677	297.363	87.2546	297.363	86.7408	297.363	86.5894	297.363	85.7657	297.363	85.7601	297.363	84.4432	297.363	84.703	297.363	82.6495	297.363	83.3355	297.363	80.3002	297.363	81.5708	297.363	77.7597	297.363	79.4007	297.363	76.914	297.363	77.3151	297.363	78.7314	297.363	76.9568	297.363	81.0311	297.363	78.7791	297.363	82.783	297.363	81.0022	297.363	83.9038	297.363	82.7461	297.363	84.4466	297.363	83.8844	297.363	84.4416
307.617	88.5635	307.617	88.4583	307.617	88.5438	307.617	88.2338	307.617	88.3998	307.617	87.8988	307.617	88.1379	307.617	87.4607	307.617	87.7664	307.617	86.9201	307.617	87.2885	307.617	86.2636	307.617	86.6941	307.617	85.4577	307.617	85.95	307.617	84.4404	307.617	84.9934	307.617	83.1115	307.617	83.7259	307.617	81.3197	307.617	82.005	307.617	78.8561	307.617	79.6248	307.617	75.6107	307.617	76.3216	307.617	73.0183	307.617	72.5061	307.617	74.525	307.617	72.5468	307.617	77.3877	307.617	75.9387	307.617	79.3985	307.617	78.5562	307.617	80.4623	307.617	80.0768	307.617	80.6823
319.336	89.1105	319.336	88.9731	319.336	89.0935	319.336	88.691	319.336	88.9212	319.336	88.2779	319.336	88.6026	319.336	87.7465	319.336	88.1542	319.336	87.1009	319.336	87.5927	319.336	86.3312	319.336	86.9259	319.336	85.4077	319.336	86.1429	319.336	84.2747	319.336	85.208	319.336	82.8441	319.336	84.0554	319.336	80.9914	319.336	82.5846	319.336	78.6014	319.336	80.6668	319.336	75.9802	319.336	78.2465	319.336	75.1852	319.336	75.9798	319.336	77.323	319.336	76.1011	319.336	79.8176	319.336	78.3985	319.336	81.5642	319.336	80.5864	319.336	82.4863	319.336	82.0053	319.336	82.6292
329.59	88.6907	329.59	88.592	329.59	88.6832	329.59	88.4035	329.59	88.5594	329.59	88.1419	329.59	88.3193	329.59	87.8143	329.59	87.9718	329.59	87.4102	329.59	87.529	329.59	86.8968	329.59	86.9958	329.59	86.2194	329.59	86.3563	329.59	85.3015	329.59	85.5611	329.59	84.0364	329.59	84.5169	329.59	82.2663	329.59	83.077	329.59	79.7494	329.59	81.0192	329.59	76.2391	329.59	78.0184	329.59	73.0982	329.59	74.001	329.59	74.9824	329.59	72.7338	329.59	78.2892	329.59	76.2887	329.59	80.4709	329.59	79.2772	329.59	81.5743	329.59	81.0209	329.59	81.7495
341.309	88.4611	341.309	88.3552	341.309	88.4217	341.309	88.1079	341.309	88.253	341.309	87.7432	341.309	87.9846	341.309	87.2978	341.309	87.6488	341.309	86.8057	341.309	87.2674	341.309	86.2791	341.309	86.843	341.309	85.6929	341.309	86.3572	341.309	84.9796	341.309	85.7752	341.309	84.0339	341.309	85.0473	341.309	82.7203	341.309	84.1049	341.309	80.8989	341.309	82.8554	341.309	78.5819	341.309	81.1965	341.309	76.6427	341.309	79.1336	341.309	77.0354	341.309	77.2795	341.309	79.0034	341.309	77.2271	341.309	80.6604	341.309	78.8822	341.309	81.4873	341.309	80.5256	341.309	81.4366
353.027	88.7356	353.027	88.6417	353.027	88.672	353.027	88.4003	353.027	88.4579	353.027	88.0336	353.027	88.1171	353.027	87.5673	353.027	87.6829	353.027	87.0175	353.027	87.1822	353.027	86.3766	353.027	86.6149	353.027	85.6031	353.027	85.9403	353.027	84.6173	353.027	85.0763	353.027	83.2986	353.027	83.9052	353.027	81.4717	353.027	82.2716	353.027	78.8804	353.027	79.9781	353.027	75.3023	353.027	76.9246	353.027	72.5943	353.027	74.4061	353.027	75.2159	353.027	75.8078	353.027	78.6925	353.027	78.7688	353.027	80.9983	353.027	80.961	353.027	82.2622	353.027	82.2239	353.027	82.6493
366.211	88.173	366.211	88.0335	366.211	88.099	366.211	87.6985	366.211	87.8288	366.211	87.2243	366.211	87.4103	366.211	86.6955	366.211	86.9163	366.211	86.192	366.211	86.4307	366.211	85.7377	366.211	86.0184	366.211	85.2728	366.211	85.6842	366.211	84.6763	366.211	85.3531	366.211	83.8092	366.211	84.8861	366.211	82.5352	366.211	84.1062	366.211	80.7172	366.211	82.796	366.211	78.2923	366.211	80.6527	366.211	75.9392	366.211	77.2458	366.211	76.1443	366.211	73.1635	366.211	78.5774	366.211	74.7515	366.211	80.7075	366.211	78.6322	366.211	81.8652	366.211	80.9836	366.211	81.9842
379.395	89.5476	379.395	89.3052	379.395	89.586	379.395	88.8834	379.395	89.4114	379.395	88.318	379.395	89.0326	379.395	87.6468	379.395	88.4733	379.395	86.9011	379.395	87.7692	379.395	86.097	379.395	86.9589	379.395	85.2266	379.395	86.0687	379.395	84.245	379.395	85.0896	379.395	83.0481	379.395	83.9593	379.395	81.4387	379.395	82.5513	379.395	79.0601	379.395	80.6689	379.395	75.2901	379.395	78.0621	379.395	70.6198	379.395	74.8485	379.395	73.64	379.395	73.9024	379.395	78.1771	379.395	76.8585	379.395	80.8245	379.395	79.738	379.395	82.1034	379.395	81.5345	379.395	82.3094
392.578	88.4944	392.578	88.3625	392.578	88.4435	392.578	88.0731	392.578	88.214	392.578	87.6754	392.578	87.841	392.578	87.229	392.578	87.3816	392.578	86.7799	392.578	86.895	392.578	86.3329	392.578	86.4128	392.578	85.8362	392.578	85.9198	392.578	85.1837	392.578	85.3546	392.578	84.223	392.578	84.6196	392.578	82.7539	392.578	83.5808	392.578	80.4973	392.578	82.0444	392.578	76.9977	392.578	79.6852	392.578	71.7703	392.578	75.8193	392.578	70.4897	392.578	68.6502	392.578	75.1111	392.578	68.0583	392.578	78.057	392.578	74.8666	392.578	79.3959	392.578	78.0892	392.578	79.4245
405.762	88.9081	405.762	88.6598	405.762	88.8496	405.762	88.1246	405.762	88.4985	405.762	87.3726	405.762	87.9014	405.762	86.5423	405.762	87.149	405.762	85.8222	405.762	86.3832	405.762	85.3538	405.762	85.7635	405.762	85.1127	405.762	85.3726	405.762	84.9094	405.762	85.1386	405.762	84.4955	405.762	84.8671	405.762	83.6267	405.762	84.3281	405.762	82.0297	405.762	83.2904	405.762	79.2726	405.762	81.4818	405.762	74.5537	405.762	78.513	405.762	70.4989	405.762	74.3096	405.762	75.6803	405.762	73.8726	405.762	79.4681	405.762	77.8317	405.762	81.2498	405.762	80.4756	405.762	81.5528
420.41	89.159	420.41	88.9085	420.41	89.1183	420.41	88.3876	420.41	88.7868	420.41	87.6397	420.41	88.1863	420.41	86.7311	420.41	87.3611	420.41	85.7488	420.41	86.3794	420.41	84.7843	420.41	85.3278	420.41	83.89	420.41	84.2905	420.41	83.0249	420.41	83.3114	420.41	82.0363	420.41	82.3567	420.41	80.6667	420.41	81.2859	420.41	78.493	420.41	79.8133	420.41	74.6252	420.41	77.3976	420.41	67.0431	420.41	72.7722	420.41	71	420.41	63.4043	420.41	77.3257	420.41	72.4277	420.41	80.4981	420.41	78.0545	420.41	81.9272	420.41	80.8445	420.41	82.0303
435.059	87.9712	435.059	87.7578	435.059	87.896	435.059	87.2777	435.059	87.5239	435.059	86.5587	435.059	86.8688	435.059	85.6382	435.059	85.9783	435.059	84.5867	435.059	84.9519	435.059	83.5353	435.059	83.9542	435.059	82.6493	435.059	83.1673	435.059	82.0016	435.059	82.6562	435.059	81.4621	435.059	82.2918	435.059	80.747	435.059	81.8441	435.059	79.5166	435.059	81.0897	435.059	77.3374	435.059	79.7958	435.059	73.3195	435.059	77.6014	435.059	63.6881	435.059	73.7555	435.059	65.6212	435.059	67.1521	435.059	73.3215	435.059	69.2651	435.059	76.0272	435.059	74.3133	435.059	76.2946
451.172	88.3666	451.172	88.1546	451.172	88.3506	451.172	87.7122	451.172	88.1228	451.172	87.0683	451.172	87.7012	451.172	86.2935	451.172	87.1042	451.172	85.4871	451.172	86.3568	451.172	84.7313	451.172	85.4964	451.172	84.0323	451.172	84.5723	451.172	83.2944	451.172	83.6327	451.172	82.3426	451.172	82.6947	451.172	80.9513	451.172	81.6945	451.172	78.8077	451.172	80.4316	451.172	75.3587	451.172	78.5101	451.172	70.1135	451.172	75.206	451.172	71.0111	451.172	69.5794	451.172	76.1995	451.172	70.6898	451.172	79.2381	451.172	76.3211	451.172	80.632	451.172	79.3772	451.172	80.6863
465.82	88.5073	465.82	88.2062	465.82	88.4445	465.82	87.561	465.82	88.0117	465.82	86.611	465.82	87.2281	465.82	85.4397	465.82	86.1677	465.82	84.2196	465.82	85.0032	465.82	83.2328	465.82	84.0196	465.82	82.7297	465.82	83.4767	465.82	82.6577	465.82	83.3572	465.82	82.6788	465.82	83.3633	465.82	82.4242	465.82	83.1537	465.82	81.5607	465.82	82.4472	465.82	79.6487	465.82	80.9427	465.82	75.7327	465.82	78.0951	465.82	65.5943	465.82	72.3008	465.82	69.1997	465.82	62.2371	465.82	76.558	465.82	73.8159	465.82	79.2686	465.82	78.1953	465.82	79.7268
483.398	88.5247	483.398	88.2729	483.398	88.4653	483.398	87.7245	483.398	88.0956	483.398	86.9066	483.398	87.4382	483.398	85.8634	483.398	86.5411	483.398	84.6702	483.398	85.4711	483.398	83.4466	483.398	84.2948	483.398	82.3306	483.398	83.069	483.398	81.3898	483.398	81.872	483.398	80.5511	483.398	80.8522	483.398	79.6323	483.398	80.1501	483.398	78.3693	483.398	79.6312	483.398	76.2885	483.398	78.78	483.398	72.2586	483.398	76.8268	483.398	61.5436	483.398	72.4028	483.398	67.8754	483.398	59.9165	483.398	74.523	483.398	69.8979	483.398	77.0376	483.398	75.4197	483.398	77.3121
499.512	87.9215	499.512	87.6689	499.512	87.8265	499.512	87.0857	499.512	87.3789	499.512	86.1961	499.512	86.5912	499.512	85.0371	499.512	85.498	499.512	83.6814	499.512	84.1753	499.512	82.2773	499.512	82.7946	499.512	81.0789	499.512	81.6707	499.512	80.3749	499.512	81.1103	499.512	80.2282	499.512	81.05	499.512	80.322	499.512	81.0624	499.512	80.1831	499.512	80.711	499.512	79.3766	499.512	79.6614	499.512	77.4171	499.512	77.5341	499.512	73.3876	499.512	73.5698	499.512	65.4522	499.512	66.5682	499.512	69.2278	499.512	69.1218	499.512	74.1034	499.512	73.9195	499.512	75.3661
517.09	89.2423	517.09	88.9386	517.09	89.1856	517.09	88.2858	517.09	88.7694	517.09	87.3141	517.09	88.0111	517.09	86.0866	517.09	86.9556	517.09	84.7152	517.09	85.6854	517.09	83.3746	517.09	84.3227	517.09	82.283	517.09	83.0137	517.09	81.5645	517.09	81.8966	517.09	81.0749	517.09	81.0311	517.09	80.4547	517.09	80.3021	517.09	79.2707	517.09	79.405	517.09	76.9058	517.09	77.9006	517.09	72.0008	517.09	75.1463	517.09	66.9471	517.09	70.334	517.09	74.7637	517.09	70.2355	517.09	78.9954	517.09	75.9549	517.09	80.7669	517.09	79.339	517.09	80.8382
536.133	88.3633	536.133	88.1321	536.133	88.2225	536.133	87.5221	536.133	87.7267	536.133	86.544	536.133	86.9052	536.133	85.2389	536.133	85.8043	536.133	83.709	536.133	84.4911	536.133	82.1748	536.133	83.0635	536.133	80.9756	536.133	81.6736	536.133	80.3392	536.133	80.5239	536.133	80.1367	536.133	79.7796	536.133	80.0276	536.133	79.4183	536.133	79.644	536.133	79.143	536.133	78.532	536.133	78.4431	536.133	75.9121	536.133	76.6315	536.133	69.4476	536.133	72.37	536.133	59.7543	536.133	57.5813	536.133	73.4713	536.133	69.9135	536.133	77.191	536.133	75.8816	536.133	77.8174
555.176	87.5784	555.176	87.3537	555.176	87.4908	555.176	86.8235	555.176	87.1098	555.176	86.0118	555.176	86.4563	555.176	84.9244	555.176	85.5248	555.176	83.5246	555.176	84.2963	555.176	81.7651	555.176	82.8092	555.176	79.7258	555.176	81.2463	555.176	77.8944	555.176	79.9395	555.176	77.1369	555.176	79.1928	555.176	77.4596	555.176	79.014	555.176	77.8184	555.176	79.0338	555.176	77.328	555.176	78.6577	555.176	75.2275	555.176	77.1339	555.176	69.8367	555.176	73.0792	555.176	63.1791	555.176	59.1318	555.176	72.7595	555.176	70.1359	555.176	76.544	555.176	75.8117	555.176	77.4176
574.219	87.6069	574.219	87.3654	574.219	87.6137	574.219	86.8868	574.219	87.3523	574.219	86.1457	574.219	86.7707	574.219	85.1376	574.219	85.8209	574.219	83.9196	574.219	84.4749	574.219	82.6137	574.219	82.753	574.219	81.364	574.219	80.7999	574.219	80.2693	574.219	79.0062	574.219	79.336	574.219	77.8913	574.219	78.4841	574.219	77.4864	574.219	77.5334	574.219	77.2524	574.219	76.1139	574.219	76.6299	574.219	73.4988	574.219	75.0801	574.219	67.768	574.219	71.6279	574.219	62.0971	574.219	62.089	574.219	71.8905	574.219	65.4515	574.219	75.5353	574.219	73.353	574.219	75.9415
594.727	87.353	594.727	87.0555	594.727	87.3165	594.727	86.457	594.727	86.9226	594.727	85.5687	594.727	86.1761	594.727	84.3531	594.727	85.1149	594.727	82.7406	594.727	83.8068	594.727	80.7517	594.727	82.3607	594.727	78.7721	594.727	80.9543	594.727	77.6533	594.727	79.8151	594.727	77.7936	594.727	79.0922	594.727	78.6159	594.727	78.7851	594.727	79.4409	594.727	78.8092	594.727	79.6956	594.727	78.833	594.727	78.732	594.727	78.0947	594.727	75.5765	594.727	75.4887	594.727	67.1935	594.727	68.8582	594.727	64.3136	594.727	65.4286	594.727	72.4007	594.727	72.3466	594.727	74.0773
615.234	88.44	615.234	88.0905	615.234	88.4868	615.234	87.4559	615.234	88.2172	615.234	86.5712	615.234	87.5889	615.234	85.4651	615.234	86.5281	615.234	84.1187	615.234	84.9856	615.234	82.4474	615.234	83.0066	615.234	80.3454	615.234	80.7316	615.234	77.8421	615.234	78.4031	615.234	75.607	615.234	76.7255	615.234	75.0003	615.234	76.6858	615.234	75.5662	615.234	77.6459	615.234	75.7667	615.234	78.2897	615.234	74.8036	615.234	77.9318	615.234	72.1498	615.234	75.8888	615.234	70.3401	615.234	70.1424	615.234	74.0195	615.234	56.3232	615.234	76.5823	615.234	72.7428	615.234	76.4149
637.207	89.32	637.207	89.1933	637.207	89.1511	637.207	88.7612	637.207	88.6456	637.207	87.9652	637.207	87.7834	637.207	86.7661	637.207	86.6408	637.207	85.2011	637.207	85.3755	637.207	83.3872	637.207	84.0697	637.207	81.4937	637.207	82.5963	637.207	79.7478	637.207	80.7152	637.207	78.4669	637.207	78.3367	637.207	77.903	637.207	75.9597	637.207	77.7657	637.207	74.8984	637.207	77.1614	637.207	75.2187	637.207	75.0764	637.207	75.5094	637.207	70.8574	637.207	74.969	637.207	69.4694	637.207	72.6918	637.207	73.0464	637.207	66.8425	637.207	74.568	637.207	68.1663	637.207	73.3242
659.18	88.1251	659.18	87.9307	659.18	87.9722	659.18	87.3728	659.18	87.5342	659.18	86.4728	659.18	86.8824	659.18	85.2535	659.18	86.0336	659.18	83.7268	659.18	84.9302	659.18	81.9343	659.18	83.5294	659.18	80.0068	659.18	81.9311	659.18	78.0952	659.18	80.3869	659.18	76.1965	659.18	79.0762	659.18	74.7767	659.18	77.9506	659.18	75.3968	659.18	77.1491	659.18	77.1015	659.18	77.0736	659.18	77.7288	659.18	77.2539	659.18	76.4423	659.18	76.2605	659.18	72.5396	659.18	72.252	659.18	66.7235	659.18	58.929	659.18	70.0383	659.18	68.3994	659.18	71.8731
682.617	88.0356	682.617	87.7245	682.617	87.929	682.617	87.0583	682.617	87.4519	682.617	86.1799	682.617	86.7151	682.617	85.2076	682.617	85.8192	682.617	84.1532	682.617	84.793	682.617	82.9511	682.617	83.5503	682.617	81.5321	682.617	81.908	682.617	79.8207	682.617	79.7511	682.617	77.7757	682.617	77.4018	682.617	75.7851	682.617	76.0081	682.617	75.0305	682.617	76.1296	682.617	75.4643	682.617	76.6496	682.617	75.3635	682.617	76.6406	682.617	73.3085	682.617	75.3837	682.617	68.0725	682.617	71.5549	682.617	70.0217	682.617	59.7621	682.617	74.1531	682.617	68.8939	682.617	73.9703
707.52	88.7258	707.52	88.4465	707.52	88.6266	707.52	87.7515	707.52	88.185	707.52	86.6572	707.52	87.432	707.52	85.2824	707.52	86.3942	707.52	83.7955	707.52	85.0775	707.52	82.2364	707.52	83.5147	707.52	80.4779	707.52	81.8788	707.52	78.7437	707.52	80.3668	707.52	77.8889	707.52	78.7861	707.52	77.6289	707.52	76.651	707.52	76.7985	707.52	74.3077	707.52	75.2654	707.52	73.5751	707.52	73.5006	707.52	73.2049	707.52	70.445	707.52	70.3418	707.52	63.0016	707.52	59.7988	707.52	66.6253	707.52	65.8571	707.52	71.8577	707.52	72.1409	707.52	73.4479
732.422	87.5055	732.422	87.374	732.422	87.4932	732.422	87.0409	732.422	87.3462	732.422	86.3869	732.422	86.9765	732.422	85.2593	732.422	86.2103	732.422	83.669	732.422	84.8819	732.422	81.9574	732.422	82.9429	732.422	80.505	732.422	80.5572	732.422	79.0175	732.422	78.2829	732.422	76.5156	732.422	77.2416	732.422	72.6865	732.422	77.2636	732.422	72.4743	732.422	77.0686	732.422	75.2877	732.422	76.65	732.422	76.3046	732.422	76.5313	732.422	75.2079	732.422	76.1731	732.422	71.6338	732.422	74.1998	732.422	66.8523	732.422	68.5774	732.422	68.4873	732.422	59.0311	732.422	67.7955
757.324	88.7934	757.324	88.4039	757.324	88.7684	757.324	87.697	757.324	88.2435	757.324	86.7645	757.324	87.2142	757.324	85.6813	757.324	85.7966	757.324	84.3412	757.324	84.2266	757.324	82.4574	757.324	82.7411	757.324	80.1344	757.324	81.2958	757.324	78.5753	757.324	79.5009	757.324	78.5017	757.324	76.9968	757.324	78.3207	757.324	73.8244	757.324	76.8784	757.324	71.0621	757.324	75.059	757.324	71.5637	757.324	74.4493	757.324	73.4624	757.324	72.8593	757.324	73.4065	757.324	65.7294	757.324	70.4896	757.324	67.1394	757.324	65.6182	757.324	74.4409	757.324	71.1052	757.324	75.1047
785.156	88.7916	785.156	88.643	785.156	88.5812	785.156	87.9641	785.156	88.2031	785.156	86.7888	785.156	87.6061	785.156	85.2698	785.156	86.5383	785.156	83.5239	785.156	84.838	785.156	81.6103	785.156	82.6652	785.156	79.5335	785.156	80.5586	785.156	77.2851	785.156	79.0473	785.156	74.9782	785.156	77.867	785.156	72.7729	785.156	76.5552	785.156	71.4925	785.156	75.273	785.156	72.9504	785.156	74.7231	785.156	75.3616	785.156	74.9025	785.156	76.0411	785.156	74.787	785.156	72.9904	785.156	73.4105	785.156	64.2354	785.156	69.0815	785.156	69.4204	785.156	49.9418	785.156	68.1199
811.523	89.1121	811.523	88.5406	811.523	89.2036	811.523	87.778	811.523	88.6276	811.523	86.9143	811.523	87.4998	811.523	85.7268	811.523	86.2486	811.523	84.0695	811.523	85.1152	811.523	82.2436	811.523	83.6678	811.523	80.7604	811.523	81.3759	811.523	79.3193	811.523	78.5462	811.523	76.9228	811.523	76.5371	811.523	73.8691	811.523	75.1204	811.523	73.0629	811.523	72.4342	811.523	74.7436	811.523	70.4861	811.523	75.7581	811.523	72.7439	811.523	74.6007	811.523	74.7644	811.523	71.5888	811.523	73.694	811.523	69.8586	811.523	67.4063	811.523	69.497	811.523	57.0272	811.523	64.5437
840.82	88.7623	840.82	88.312	840.82	88.5589	840.82	87.2224	840.82	87.9437	840.82	85.8143	840.82	87.0532	840.82	84.4833	840.82	85.7457	840.82	83.222	840.82	84.0389	840.82	81.4468	840.82	82.532	840.82	78.7402	840.82	81.5929	840.82	75.8396	840.82	80.1929	840.82	74.807	840.82	77.5084	840.82	74.2839	840.82	74.7663	840.82	71.1222	840.82	74.4679	840.82	67.9204	840.82	74.2746	840.82	70.6986	840.82	72.3048	840.82	71.5584	840.82	72.1759	840.82	68.9888	840.82	70.5251	840.82	63.3715	840.82	61.5273	840.82	70.5085	840.82	64.7438	840.82	71.4004
870.117	88.3472	870.117	88.2761	870.117	88.1355	870.117	87.8931	870.117	87.5921	870.117	86.9795	870.117	86.8735	870.117	85.4821	870.117	86.0547	870.117	83.7121	870.117	84.7409	870.117	82.0569	870.117	82.534	870.117	80.638	870.117	79.7388	870.117	79.1328	870.117	77.4177	870.117	77.0392	870.117	76.694	870.117	74.5739	870.117	75.968	870.117	72.3217	870.117	72.8579	870.117	70.347	870.117	70.1959	870.117	70.1768	870.117	71.0455	870.117	71.1542	870.117	70.7607	870.117	67.4713	870.117	69.8213	870.117	57.5982	870.117	67.0035	870.117	70.2188	870.117	56.8541	870.117	69.4352
900.879	88.331	900.879	88.0396	900.879	88.0867	900.879	87.1571	900.879	87.5559	900.879	86.0475	900.879	86.6463	900.879	84.9628	900.879	85.1377	900.879	83.7398	900.879	83.4081	900.879	82.2505	900.879	82.1761	900.879	80.3456	900.879	81.2267	900.879	77.5464	900.879	79.6437	900.879	74.1858	900.879	77.1263	900.879	72.8297	900.879	74.9868	900.879	73.477	900.879	74.0816	900.879	73.3994	900.879	72.795	900.879	74.1099	900.879	71.4351	900.879	74.7875	900.879	73.959	900.879	72.2494	900.879	74.6816	900.879	61.8658	900.879	69.8902	900.879	65.0319	900.879	46.6073	900.879	66.9051
933.105	88.8201	933.105	88.2222	933.105	89.0009	933.105	87.4674	933.105	88.4326	933.105	86.4241	933.105	87.2637	933.105	85.0674	933.105	85.9756	933.105	83.6077	933.105	84.6142	933.105	81.8984	933.105	82.9688	933.105	79.8205	933.105	81.476	933.105	78.4095	933.105	80.6418	933.105	78.1959	933.105	79.5122	933.105	77.2579	933.105	77.325	933.105	74.7356	933.105	76.2788	933.105	72.4268	933.105	76.708	933.105	72.3798	933.105	74.7501	933.105	74.3781	933.105	74.7728	933.105	73.9636	933.105	74.4499	933.105	66.6984	933.105	68.6179	933.105	68.9944	933.105	60.4588	933.105	71.1876
965.332	89.7473	965.332	89.2335	965.332	89.5005	965.332	88.0737	965.332	88.7373	965.332	86.6518	965.332	87.7752	965.332	85.1989	965.332	86.6819	965.332	83.7378	965.332	85.4856	965.332	82.3603	965.332	84.4087	965.332	80.9376	965.332	83.0745	965.332	78.785	965.332	80.6799	965.332	76.1532	965.332	77.774	965.332	75.4626	965.332	77.6049	965.332	75.3948	965.332	77.789	965.332	72.4297	965.332	74.5989	965.332	70.9523	965.332	72.6181	965.332	73.7424	965.332	75.2593	965.332	73.9558	965.332	75.9269	965.332	72.5852	965.332	73.1527	965.332	65.6542	965.332	64.49	965.332	53.146
1,000.49	89.2263	1,000.49	89.0436	1,000.49	88.9844	1,000.49	88.2868	1,000.49	88.7442	1,000.49	87.2317	1,000.49	88.3958	1,000.49	86.231	1,000.49	87.4123	1,000.49	85.5184	1,000.49	85.8028	1,000.49	84.5502	1,000.49	84.787	1,000.49	82.6478	1,000.49	84.261	1,000.49	80.507	1,000.49	82.4075	1,000.49	78.9601	1,000.49	79.0625	1,000.49	78.0859	1,000.49	77.1314	1,000.49	77.6701	1,000.49	76.3434	1,000.49	75.3123	1,000.49	75.2477	1,000.49	72.6555	1,000.49	75.1386	1,000.49	75.8105	1,000.49	75.1349	1,000.49	72.8508	1,000.49	75.8551	1,000.49	65.0046	1,000.49	74.5081	1,000.49	72.7059	1,000.49	72.8295	1,000.49	75.1032
1,035.64	88.8248	1,035.64	88.2297	1,035.64	88.895	1,035.64	87.8644	1,035.64	88.2111	1,035.64	87.6317	1,035.64	87.2265	1,035.64	86.743	1,035.64	86.496	1,035.64	85.4263	1,035.64	86.1423	1,035.64	84.6797	1,035.64	85.1506	1,035.64	83.6004	1,035.64	83.0967	1,035.64	80.813	1,035.64	81.3461	1,035.64	77.445	1,035.64	79.6307	1,035.64	77.1868	1,035.64	76.1321	1,035.64	76.3996	1,035.64	74.213	1,035.64	74.0657	1,035.64	75.5584	1,035.64	70.8803	1,035.64	74.052	1,035.64	71.9223	1,035.64	73.8593	1,035.64	75.7541	1,035.64	72.6284	1,035.64	72.5856	1,035.64	64.8346	1,035.64	67.7824	1,035.64	58.5352	1,035.64	67.7287
1,072.27	87.5495	1,072.27	87.5461	1,072.27	87.7537	1,072.27	87.8093	1,072.27	87.5982	1,072.27	87.1809	1,072.27	87.4649	1,072.27	85.5094	1,072.27	87.1229	1,072.27	83.8192	1,072.27	85.6236	1,072.27	82.6869	1,072.27	83.3618	1,072.27	81.3782	1,072.27	81.963	1,072.27	79.7375	1,072.27	80.8871	1,072.27	77.6866	1,072.27	78.2783	1,072.27	75.8688	1,072.27	74.9358	1,072.27	75.6264	1,072.27	74.6238	1,072.27	74.9847	1,072.27	75.3374	1,072.27	73.7439	1,072.27	71.0271	1,072.27	75.3671	1,072.27	68.5999	1,072.27	75.7069	1,072.27	73.7444	1,072.27	71.6398	1,072.27	73.2252	1,072.27	73.1671	1,072.27	67.6143	1,072.27	74.9366
1,108.89	87.2109	1,108.89	87.079	1,108.89	86.8869	1,108.89	86.0956	1,108.89	86.9868	1,108.89	85.2986	1,108.89	86.5289	1,108.89	84.3174	1,108.89	84.6745	1,108.89	81.6359	1,108.89	82.5559	1,108.89	78.1839	1,108.89	81.3084	1,108.89	76.7679	1,108.89	79.7789	1,108.89	74.5339	1,108.89	77.1707	1,108.89	67.9035	1,108.89	74.5669	1,108.89	63.9131	1,108.89	72.7242	1,108.89	68.4872	1,108.89	70.7118	1,108.89	71.7017	1,108.89	68.9024	1,108.89	68.8832	1,108.89	70.2316	1,108.89	66.5069	1,108.89	69.8273	1,108.89	63.4608	1,108.89	66.5177	1,108.89	64.3988	1,108.89	61.5314	1,108.89	62.7262	1,108.89	64.4378	1,108.89	66.9212
1,148.44	87.4088	1,148.44	87.0394	1,148.44	87.5868	1,148.44	85.9586	1,148.44	87.6013	1,148.44	84.408	1,148.44	86.338	1,148.44	82.6234	1,148.44	84.0798	1,148.44	80.2181	1,148.44	82.6935	1,148.44	76.8797	1,148.44	80.6678	1,148.44	73.7625	1,148.44	76.3903	1,148.44	71.952	1,148.44	74.357	1,148.44	70.2886	1,148.44	74.0665	1,148.44	68.989	1,148.44	69.0473	1,148.44	64.4688	1,148.44	62.8132	1,148.44	61.3494	1,148.44	64.0479	1,148.44	67.9616	1,148.44	63.3783	1,148.44	62.5004	1,148.44	61.2728	1,148.44	67.7138	1,148.44	48.7267	1,148.44	66.8127	1,148.44	48.7584	1,148.44	69.0233	1,148.44	57.0201	1,148.44	65.0867
1,189.45	86.981	1,189.45	86.5371	1,189.45	86.9163	1,189.45	85.4958	1,189.45	85.9041	1,189.45	83.4265	1,189.45	85.1832	1,189.45	81.3769	1,189.45	84.7936	1,189.45	79.2035	1,189.45	82.6435	1,189.45	75.697	1,189.45	78.6934	1,189.45	72.7455	1,189.45	75.1512	1,189.45	71.0359	1,189.45	72.3945	1,189.45	67.4007	1,189.45	69.2905	1,189.45	58.8986	1,189.45	62.0476	1,189.45	48.3451	1,189.45	63.7722	1,189.45	69.3386	1,189.45	68.1202	1,189.45	68.1662	1,189.45	67.7169	1,189.45	65.1728	1,189.45	63.145	1,189.45	63.6823	1,189.45	54.8379	1,189.45	65.0134	1,189.45	56.8006	1,189.45	66.1552	1,189.45	70.5358	1,189.45	73.0907
1,230.47	87.01	1,230.47	86.4577	1,230.47	86.898	1,230.47	85.5892	1,230.47	86.0653	1,230.47	84.0138	1,230.47	85.1725	1,230.47	81.3507	1,230.47	83.4508	1,230.47	77.8941	1,230.47	80.4809	1,230.47	74.8678	1,230.47	78.1637	1,230.47	72.5066	1,230.47	75.4959	1,230.47	69.9889	1,230.47	70.9793	1,230.47	67.8269	1,230.47	69.8237	1,230.47	66.9282	1,230.47	69.7038	1,230.47	67.5083	1,230.47	67.216	1,230.47	65.124	1,230.47	59.9821	1,230.47	62.3415	1,230.47	48.439	1,230.47	67.2033	1,230.47	56.7841	1,230.47	65.5777	1,230.47	66.8919	1,230.47	65.0678	1,230.47	65.5444	1,230.47	65.6942	1,230.47	62.7615	1,230.47	61.3937
1,274.41	85.89	1,274.41	85.434	1,274.41	86.1056	1,274.41	84.3926	1,274.41	85.9056	1,274.41	83.1489	1,274.41	84.3417	1,274.41	81.0395	1,274.41	81.6743	1,274.41	77.7664	1,274.41	78.4667	1,274.41	74.4005	1,274.41	74.8026	1,274.41	71.2318	1,274.41	72.249	1,274.41	70.2164	1,274.41	71.208	1,274.41	69.5207	1,274.41	69.4277	1,274.41	66.6462	1,274.41	67.2465	1,274.41	63.6398	1,274.41	65.6513	1,274.41	61.9338	1,274.41	63.4764	1,274.41	56.825	1,274.41	61.08	1,274.41	56.3231	1,274.41	58.4918	1,274.41	62.7826	1,274.41	54.9756	1,274.41	64.5071	1,274.41	59.6325	1,274.41	52.3752	1,274.41	62.2254	1,274.41	61.7679
1,319.82	86.6202	1,319.82	85.7363	1,319.82	86.3088	1,319.82	84.1931	1,319.82	84.8628	1,319.82	82.3882	1,319.82	81.8076	1,319.82	78.9217	1,319.82	78.4212	1,319.82	75.046	1,319.82	75.5918	1,319.82	72.6048	1,319.82	71.3279	1,319.82	69.4898	1,319.82	64.7526	1,319.82	66.3989	1,319.82	54.7343	1,319.82	66.6576	1,319.82	60.5332	1,319.82	63.0689	1,319.82	55.0208	1,319.82	65.8706	1,319.82	63.1484	1,319.82	65.7287	1,319.82	62.4393	1,319.82	66.4132	1,319.82	64.1562	1,319.82	66.4193	1,319.82	61.6873	1,319.82	66.0123	1,319.82	67.1918	1,319.82	63.5097	1,319.82	69.3257	1,319.82	65.1662	1,319.82	59.2197	1,319.82	57.8581
1,366.7	86.7841	1,366.7	86.3916	1,366.7	86.3953	1,366.7	84.5535	1,366.7	84.5769	1,366.7	81.9516	1,366.7	81.8649	1,366.7	79.3144	1,366.7	78.7008	1,366.7	73.9912	1,366.7	74.2902	1,366.7	69.6237	1,366.7	70.2157	1,366.7	69.3194	1,366.7	67.2319	1,366.7	67.6303	1,366.7	68.1779	1,366.7	65.4847	1,366.7	68.2956	1,366.7	67.415	1,366.7	66.2911	1,366.7	67.0376	1,366.7	64.9723	1,366.7	65.3161	1,366.7	68.0243	1,366.7	61.0389	1,366.7	67.5295	1,366.7	65.2724	1,366.7	66.206	1,366.7	67.3883	1,366.7	63.0782	1,366.7	66.2186	1,366.7	65.6806	1,366.7	62.4421	1,366.7	67.4845	1,366.7	65.4325
1,413.57	86.9568	1,413.57	86.0678	1,413.57	86.7179	1,413.57	84.4109	1,413.57	85.1057	1,413.57	82.5004	1,413.57	82.9106	1,413.57	80.026	1,413.57	80.4768	1,413.57	76.6753	1,413.57	77.8001	1,413.57	75.6519	1,413.57	76.7517	1,413.57	73.198	1,413.57	74.8699	1,413.57	69.2117	1,413.57	73.0417	1,413.57	71.7103	1,413.57	71.6419	1,413.57	70.8968	1,413.57	68.2253	1,413.57	67.2172	1,413.57	68.374	1,413.57	70.0892	1,413.57	65.4083	1,413.57	71.3652	1,413.57	70.2583	1,413.57	66.3358	1,413.57	68.2878	1,413.57	64.8397	1,413.57	67.2724	1,413.57	57.318	1,413.57	67.9665	1,413.57	61.3288	1,413.57	55.5548	1,413.57	65.8604
1,463.38	85.5296	1,463.38	84.5773	1,463.38	85.658	1,463.38	83.1256	1,463.38	84.2263	1,463.38	80.9021	1,463.38	82.0125	1,463.38	79.2092	1,463.38	79.9902	1,463.38	77.2451	1,463.38	79.585	1,463.38	74.9696	1,463.38	76.9022	1,463.38	74.2102	1,463.38	74.1457	1,463.38	73.0102	1,463.38	73.8392	1,463.38	69.6975	1,463.38	72.8806	1,463.38	68.7661	1,463.38	72.1223	1,463.38	66.1671	1,463.38	68.4117	1,463.38	64.0555	1,463.38	65.1697	1,463.38	67.6007	1,463.38	61.8162	1,463.38	67.2283	1,463.38	70.6976	1,463.38	70.9917	1,463.38	67.2594	1,463.38	70.9329	1,463.38	69.1289	1,463.38	68.3965	1,463.38	66.5728	1,463.38	67.427
1,516.11	86.115	1,516.11	84.9849	1,516.11	86.0041	1,516.11	82.9962	1,516.11	84.8844	1,516.11	81.2671	1,516.11	83.0818	1,516.11	79.431	1,516.11	80.9452	1,516.11	76.654	1,516.11	78.2354	1,516.11	74.4046	1,516.11	77.0801	1,516.11	73.5181	1,516.11	75.675	1,516.11	70.8909	1,516.11	72.8668	1,516.11	68.4571	1,516.11	71.0049	1,516.11	70.3939	1,516.11	67.0957	1,516.11	68.2695	1,516.11	66.9516	1,516.11	65.3373	1,516.11	65.9013	1,516.11	68.9956	1,516.11	65.1158	1,516.11	67.2651	1,516.11	67.8933	1,516.11	65.594	1,516.11	61.6216	1,516.11	67.0154	1,516.11	64.1915	1,516.11	53.4008	1,516.11	61.1983	1,516.11	66.1816
1,568.85	86.3426	1,568.85	85.7107	1,568.85	86.228	1,568.85	83.8876	1,568.85	84.8993	1,568.85	81.2149	1,568.85	83.9675	1,568.85	78.9022	1,568.85	82.0849	1,568.85	75.6271	1,568.85	79.9962	1,568.85	74.1772	1,568.85	77.7195	1,568.85	73.4626	1,568.85	74.8242	1,568.85	71.7373	1,568.85	73.2524	1,568.85	69.6238	1,568.85	72.0542	1,568.85	69.5433	1,568.85	67.0931	1,568.85	67.7463	1,568.85	69.7084	1,568.85	64.7052	1,568.85	67.5862	1,568.85	67.602	1,568.85	64.6642	1,568.85	64.7634	1,568.85	67.7053	1,568.85	69.2126	1,568.85	66.5781	1,568.85	68.2388	1,568.85	71.9184	1,568.85	69.651	1,568.85	68.0101	1,568.85	66.5259
1,624.51	87.3444	1,624.51	87.0238	1,624.51	87.2138	1,624.51	85.7287	1,624.51	86.8095	1,624.51	83.738	1,624.51	85.6126	1,624.51	81.3935	1,624.51	83.0343	1,624.51	78.2134	1,624.51	80.7639	1,624.51	76.1584	1,624.51	79.1598	1,624.51	74.1943	1,624.51	76.2197	1,624.51	71.6297	1,624.51	73.2284	1,624.51	71.5236	1,624.51	71.9362	1,624.51	66.7009	1,624.51	69.5073	1,624.51	67.2689	1,624.51	67.3538	1,624.51	64.3052	1,624.51	66.7287	1,624.51	67.8062	1,624.51	70.2246	1,624.51	66.4496	1,624.51	66.8379	1,624.51	63.9328	1,624.51	68.786	1,624.51	69.144	1,624.51	62.8735	1,624.51	61.9091	1,624.51	62.024	1,624.51	52.8291
1,681.64	89.1013	1,681.64	88.8768	1,681.64	89.4045	1,681.64	87.9968	1,681.64	88.4177	1,681.64	85.4549	1,681.64	86.6006	1,681.64	83.2197	1,681.64	84.9816	1,681.64	81.2396	1,681.64	81.244	1,681.64	79.1772	1,681.64	79.1525	1,681.64	75.8184	1,681.64	78.5541	1,681.64	74.0711	1,681.64	75.5384	1,681.64	72.1761	1,681.64	73.8152	1,681.64	61.987	1,681.64	74.3578	1,681.64	67.3641	1,681.64	72.6895	1,681.64	64.5301	1,681.64	63.0303	1,681.64	66.4717	1,681.64	64.5406	1,681.64	64.9929	1,681.64	68.7947	1,681.64	68.7661	1,681.64	60.4973	1,681.64	69.1212	1,681.64	71.6977	1,681.64	66.4905	1,681.64	70.2769	1,681.64	70.0587
1,741.7	90.5233	1,741.7	89.9785	1,741.7	90.4419	1,741.7	88.6882	1,741.7	89.8013	1,741.7	86.9066	1,741.7	88.3198	1,741.7	84.4124	1,741.7	86.0222	1,741.7	82.7361	1,741.7	83.2784	1,741.7	80.3828	1,741.7	79.2886	1,741.7	78.5287	1,741.7	78.9712	1,741.7	75.0264	1,741.7	77.6793	1,741.7	71.6511	1,741.7	77.4881	1,741.7	75.1487	1,741.7	74.5519	1,741.7	71.1321	1,741.7	67.9804	1,741.7	69.9609	1,741.7	71.8903	1,741.7	72.5695	1,741.7	69.6511	1,741.7	64.423	1,741.7	63.4478	1,741.7	68.733	1,741.7	71.0164	1,741.7	70.331	1,741.7	70.6329	1,741.7	71.5136	1,741.7	68.6169	1,741.7	71.0082
1,803.22	91.2196	1,803.22	90.4719	1,803.22	90.8939	1,803.22	89.8176	1,803.22	90.3727	1,803.22	88.0155	1,803.22	89.1025	1,803.22	86.238	1,803.22	86.5987	1,803.22	83.3278	1,803.22	84.2814	1,803.22	82.0386	1,803.22	82.8778	1,803.22	81.1774	1,803.22	79.5376	1,803.22	79.7337	1,803.22	78.3014	1,803.22	77.824	1,803.22	75.932	1,803.22	76.0418	1,803.22	75.252	1,803.22	72.113	1,803.22	72.5648	1,803.22	69.3907	1,803.22	68.9852	1,803.22	67.5718	1,803.22	69.8912	1,803.22	69.9728	1,803.22	70.6175	1,803.22	60.4829	1,803.22	63.0043	1,803.22	70.1013	1,803.22	63.0306	1,803.22	60.0078	1,803.22	67.8986	1,803.22	71.799
1,866.21	90.023	1,866.21	90.0345	1,866.21	90.2004	1,866.21	88.4654	1,866.21	89.6732	1,866.21	87.5012	1,866.21	88.4041	1,866.21	85.6349	1,866.21	87.2772	1,866.21	84.1202	1,866.21	85.2347	1,866.21	82.7742	1,866.21	83.301	1,866.21	81.264	1,866.21	80.7279	1,866.21	79.3836	1,866.21	79.2207	1,866.21	78.3294	1,866.21	75.9768	1,866.21	76.1324	1,866.21	72.6538	1,866.21	70.1899	1,866.21	71.7149	1,866.21	69.784	1,866.21	73.2513	1,866.21	67.554	1,866.21	67.5501	1,866.21	75.4367	1,866.21	73.3761	1,866.21	68.7787	1,866.21	70.5843	1,866.21	74.1561	1,866.21	72.5876	1,866.21	59.4718	1,866.21	68.0498	1,866.21	65.6911
1,932.13	89.8832	1,932.13	89.3607	1,932.13	89.8225	1,932.13	88.3268	1,932.13	89.3357	1,932.13	86.8847	1,932.13	88.3228	1,932.13	85.5302	1,932.13	86.5331	1,932.13	83.5888	1,932.13	85.0727	1,932.13	81.5616	1,932.13	83.0016	1,932.13	80.723	1,932.13	81.6291	1,932.13	79.2323	1,932.13	79.3707	1,932.13	76.1327	1,932.13	77.6781	1,932.13	75.2957	1,932.13	75.5005	1,932.13	73.2674	1,932.13	74.1281	1,932.13	72.8979	1,932.13	68.3798	1,932.13	69.0448	1,932.13	69.0571	1,932.13	68.0658	1,932.13	66.4463	1,932.13	70.7549	1,932.13	69.3761	1,932.13	72.167	1,932.13	68.3922	1,932.13	69.1643	1,932.13	71.8807	1,932.13	64.9195
1,999.51	90.3778	1,999.51	90.2068	1,999.51	90.3598	1,999.51	89.3268	1,999.51	90.0012	1,999.51	87.9909	1,999.51	88.7854	1,999.51	86.3326	1,999.51	87.4442	1,999.51	84.8302	1,999.51	85.9233	1,999.51	82.6575	1,999.51	84.267	1,999.51	79.9876	1,999.51	81.81	1,999.51	77.8459	1,999.51	79.9717	1,999.51	75.0838	1,999.51	77.0318	1,999.51	74.3839	1,999.51	74.6363	1,999.51	72.309	1,999.51	74.5218	1,999.51	69.6571	1,999.51	71.0824	1,999.51	70.9436	1,999.51	71.432	1,999.51	72.4522	1,999.51	67.6381	1,999.51	68.0522	1,999.51	71.1033	1,999.51	71.8331	1,999.51	67.8843	1,999.51	61.7885	1,999.51	68.4643	1,999.51	65.0862
2,069.82	90.9893	2,069.82	90.7316	2,069.82	91.0357	2,069.82	90.3854	2,069.82	90.6091	2,069.82	89.1757	2,069.82	89.6398	2,069.82	87.6244	2,069.82	88.1597	2,069.82	85.8519	2,069.82	86.6139	2,069.82	83.8506	2,069.82	84.8584	2,069.82	81.5356	2,069.82	83.1945	2,069.82	79.4574	2,069.82	80.9175	2,069.82	76.8921	2,069.82	78.8036	2,069.82	73.9717	2,069.82	76.0231	2,069.82	72.9314	2,069.82	74.1716	2,069.82	69.1415	2,069.82	71.3278	2,069.82	70.1933	2,069.82	70.449	2,069.82	68.5513	2,069.82	70.8	2,069.82	66.1248	2,069.82	70.8009	2,069.82	70.2969	2,069.82	70.9898	2,069.82	55.6756	2,069.82	72.0264	2,069.82	63.5074
2,143.07	91.2227	2,143.07	91.27	2,143.07	90.9239	2,143.07	90.6529	2,143.07	90.574	2,143.07	89.6589	2,143.07	89.868	2,143.07	88.138	2,143.07	88.442	2,143.07	86.5192	2,143.07	86.8825	2,143.07	84.3217	2,143.07	84.899	2,143.07	81.5719	2,143.07	82.5586	2,143.07	78.9872	2,143.07	80.2824	2,143.07	76.5548	2,143.07	78.2638	2,143.07	74.0602	2,143.07	75.5106	2,143.07	72.3446	2,143.07	73.6681	2,143.07	66.3883	2,143.07	71.5781	2,143.07	70.6633	2,143.07	70.3002	2,143.07	70.9911	2,143.07	68.3303	2,143.07	68.966	2,143.07	70.5968	2,143.07	71.1476	2,143.07	66.6824	2,143.07	59.7669	2,143.07	69.0643	2,143.07	64.3244
2,219.24	90.3877	2,219.24	90.1133	2,219.24	90.4754	2,219.24	89.7273	2,219.24	90.1782	2,219.24	88.5905	2,219.24	89.262	2,219.24	86.9433	2,219.24	87.7087	2,219.24	84.9795	2,219.24	86.1144	2,219.24	83.2125	2,219.24	83.8493	2,219.24	81.3857	2,219.24	81.6773	2,219.24	79.1214	2,219.24	79.1961	2,219.24	76.8176	2,219.24	76.765	2,219.24	74.1812	2,219.24	74.5811	2,219.24	72.5529	2,219.24	71.7561	2,219.24	68.877	2,219.24	69.7995	2,219.24	69.1394	2,219.24	67.2157	2,219.24	68.9879	2,219.24	68.7151	2,219.24	66.3515	2,219.24	67.3888	2,219.24	70.0973	2,219.24	64.2054	2,219.24	63.7047	2,219.24	69.4911	2,219.24	56.3562
2,296.88	89.4132	2,296.88	89.5327	2,296.88	89.5169	2,296.88	88.7262	2,296.88	89.2512	2,296.88	87.2828	2,296.88	88.6573	2,296.88	85.4032	2,296.88	87.1929	2,296.88	83.6824	2,296.88	85.2615	2,296.88	81.7264	2,296.88	83.4459	2,296.88	79.2066	2,296.88	81.2097	2,296.88	77.3585	2,296.88	78.3315	2,296.88	75.3811	2,296.88	75.5931	2,296.88	73.4713	2,296.88	73.3471	2,296.88	71.2232	2,296.88	70.4206	2,296.88	68.3557	2,296.88	69.2191	2,296.88	68.7784	2,296.88	65.2655	2,296.88	69.0562	2,296.88	65.4912	2,296.88	70.4589	2,296.88	70.3761	2,296.88	70.5221	2,296.88	65.32	2,296.88	62.9536	2,296.88	67.3576	2,296.88	58.5868
2,378.91	89.3392	2,378.91	88.9209	2,378.91	89.1776	2,378.91	88.7998	2,378.91	89.2399	2,378.91	87.5316	2,378.91	88.3502	2,378.91	85.7555	2,378.91	87.0402	2,378.91	83.5952	2,378.91	85.4649	2,378.91	81.1113	2,378.91	83.237	2,378.91	78.4858	2,378.91	81.1277	2,378.91	76.0527	2,378.91	79.4889	2,378.91	73.7552	2,378.91	77.1968	2,378.91	71.3884	2,378.91	74.6886	2,378.91	69.5249	2,378.91	72.5804	2,378.91	64.9796	2,378.91	70.7262	2,378.91	66.3466	2,378.91	65.7448	2,378.91	66.3112	2,378.91	69.5991	2,378.91	69.0458	2,378.91	68.6526	2,378.91	67.7771	2,378.91	69.2969	2,378.91	60.3054	2,378.91	71.1927	2,378.91	60.7621
2,462.4	90.3228	2,462.4	90.5666	2,462.4	90.2787	2,462.4	89.8035	2,462.4	90.1141	2,462.4	88.7053	2,462.4	89.3793	2,462.4	87.1926	2,462.4	87.9325	2,462.4	85.18	2,462.4	86.2713	2,462.4	83.5091	2,462.4	84.618	2,462.4	80.9904	2,462.4	82.6887	2,462.4	78.1802	2,462.4	79.6587	2,462.4	75.6537	2,462.4	77.5881	2,462.4	72.0923	2,462.4	74.7815	2,462.4	71.486	2,462.4	73.1146	2,462.4	70.9395	2,462.4	69.9859	2,462.4	66.6904	2,462.4	67.9482	2,462.4	66.2973	2,462.4	67.4448	2,462.4	66.9669	2,462.4	68.5068	2,462.4	69.6778	2,462.4	68.2452	2,462.4	65.6784	2,462.4	69.7467	2,462.4	55.1511
2,548.83	89.9075	2,548.83	89.9215	2,548.83	89.9808	2,548.83	89.7278	2,548.83	89.8503	2,548.83	88.503	2,548.83	89.0801	2,548.83	87.3129	2,548.83	87.9107	2,548.83	86.109	2,548.83	86.54	2,548.83	83.6662	2,548.83	84.1662	2,548.83	81.4326	2,548.83	82.0557	2,548.83	79.205	2,548.83	80.044	2,548.83	76.7791	2,548.83	77.7772	2,548.83	74.1321	2,548.83	74.1293	2,548.83	70.3769	2,548.83	72.5907	2,548.83	66.7174	2,548.83	70.7969	2,548.83	65.8967	2,548.83	69.3418	2,548.83	69.6333	2,548.83	66.9095	2,548.83	69.1834	2,548.83	66.0057	2,548.83	67.8852	2,548.83	66.9205	2,548.83	63.1182	2,548.83	69.4178	2,548.83	62.7994
2,639.65	89.0875	2,639.65	88.9419	2,639.65	89.0358	2,639.65	88.3736	2,639.65	88.7731	2,639.65	87.3944	2,639.65	88.1953	2,639.65	85.956	2,639.65	86.625	2,639.65	84.7286	2,639.65	85.6011	2,639.65	83.0244	2,639.65	83.3745	2,639.65	80.8017	2,639.65	81.4161	2,639.65	78.348	2,639.65	78.9168	2,639.65	76.0903	2,639.65	76.1063	2,639.65	73.421	2,639.65	73.7059	2,639.65	71.846	2,639.65	72.0771	2,639.65	69.2588	2,639.65	67.62	2,639.65	67.6704	2,639.65	67.1155	2,639.65	67.6336	2,639.65	65.8768	2,639.65	69.2065	2,639.65	62.8895	2,639.65	65.9677	2,639.65	64.9759	2,639.65	62.3526	2,639.65	66.8818	2,639.65	57.6378
2,731.93	88.4176	2,731.93	88.4246	2,731.93	88.4234	2,731.93	87.9447	2,731.93	88.3104	2,731.93	86.9079	2,731.93	87.4489	2,731.93	85.9129	2,731.93	86.6008	2,731.93	83.6939	2,731.93	85.0667	2,731.93	81.8581	2,731.93	83.5039	2,731.93	79.5536	2,731.93	80.8629	2,731.93	77.1289	2,731.93	78.2581	2,731.93	75.0792	2,731.93	76.0767	2,731.93	72.8898	2,731.93	73.466	2,731.93	70.4101	2,731.93	70.8654	2,731.93	68.7432	2,731.93	70.307	2,731.93	67.4319	2,731.93	68.332	2,731.93	65.5986	2,731.93	65.1268	2,731.93	67.771	2,731.93	64.4782	2,731.93	69.4247	2,731.93	67.6093	2,731.93	60.9976	2,731.93	68.2203	2,731.93	56.0412
2,828.61	88.7781	2,828.61	88.6767	2,828.61	88.8414	2,828.61	88.4195	2,828.61	88.3795	2,828.61	87.6869	2,828.61	87.826	2,828.61	86.3697	2,828.61	86.9568	2,828.61	84.6089	2,828.61	85.5768	2,828.61	81.6945	2,828.61	83.2989	2,828.61	79.4788	2,828.61	81.24	2,828.61	76.9779	2,828.61	78.8421	2,828.61	74.3347	2,828.61	76.4139	2,828.61	71.3415	2,828.61	74.46	2,828.61	69.4625	2,828.61	71.2087	2,828.61	68.1615	2,828.61	69.5594	2,828.61	66.0011	2,828.61	67.2745	2,828.61	66.2741	2,828.61	65.4684	2,828.61	67.542	2,828.61	63.5744	2,828.61	67.2311	2,828.61	69.318	2,828.61	64.9443	2,828.61	69.171	2,828.61	55.9388
2,928.22	89.3817	2,928.22	89.289	2,928.22	89.1284	2,928.22	88.8756	2,928.22	88.9324	2,928.22	88.0546	2,928.22	88.468	2,928.22	86.7458	2,928.22	87.6458	2,928.22	85.0473	2,928.22	85.8558	2,928.22	83.0803	2,928.22	83.4501	2,928.22	80.6145	2,928.22	81.071	2,928.22	77.7105	2,928.22	79.1737	2,928.22	75.2591	2,928.22	76.7278	2,928.22	72.5026	2,928.22	73.7145	2,928.22	70.5485	2,928.22	71.0063	2,928.22	68.2761	2,928.22	69.4588	2,928.22	66.0657	2,928.22	65.7169	2,928.22	64.8154	2,928.22	65.0762	2,928.22	63.3493	2,928.22	63.9057	2,928.22	68.2037	2,928.22	66.6512	2,928.22	62.4107	2,928.22	70.597	2,928.22	55.8241
3,030.76	89.7774	3,030.76	89.495	3,030.76	89.6334	3,030.76	88.8691	3,030.76	89.3295	3,030.76	87.9698	3,030.76	88.5884	3,030.76	86.5834	3,030.76	87.4685	3,030.76	84.7474	3,030.76	86.0601	3,030.76	82.9292	3,030.76	83.7756	3,030.76	80.7612	3,030.76	81.6149	3,030.76	77.5178	3,030.76	78.8889	3,030.76	74.6555	3,030.76	76.3382	3,030.76	73.8891	3,030.76	73.4285	3,030.76	69.946	3,030.76	71.5154	3,030.76	68.6977	3,030.76	69.1509	3,030.76	62.6827	3,030.76	67.8366	3,030.76	65.0094	3,030.76	64.3199	3,030.76	63.8606	3,030.76	63.3405	3,030.76	66.8737	3,030.76	67.9711	3,030.76	63.9558	3,030.76	68.6759	3,030.76	59.415
3,137.7	89.8219	3,137.7	89.4488	3,137.7	89.7588	3,137.7	88.8329	3,137.7	89.0362	3,137.7	87.6334	3,137.7	88.202	3,137.7	86.077	3,137.7	87.0726	3,137.7	84.0077	3,137.7	85.3148	3,137.7	81.9367	3,137.7	83.4075	3,137.7	79.9331	3,137.7	81.0332	3,137.7	77.6075	3,137.7	78.5909	3,137.7	74.9835	3,137.7	76.3504	3,137.7	73.0715	3,137.7	73.7677	3,137.7	68.2443	3,137.7	71.0363	3,137.7	67.6491	3,137.7	68.7287	3,137.7	65.5634	3,137.7	67.267	3,137.7	66.8193	3,137.7	63.6595	3,137.7	64.0952	3,137.7	63.3074	3,137.7	64.7623	3,137.7	66.2783	3,137.7	63.6875	3,137.7	67.8874	3,137.7	59.0382
3,249.02	89.6301	3,249.02	88.9897	3,249.02	89.3848	3,249.02	88.1731	3,249.02	88.4377	3,249.02	86.8695	3,249.02	87.6748	3,249.02	85.1909	3,249.02	86.3256	3,249.02	83.4769	3,249.02	84.73	3,249.02	81.1433	3,249.02	83.0355	3,249.02	78.9536	3,249.02	80.8131	3,249.02	76.3088	3,249.02	78.8482	3,249.02	74.3213	3,249.02	75.9127	3,249.02	71.4837	3,249.02	73.0409	3,249.02	69.5748	3,249.02	69.5073	3,249.02	68.1986	3,249.02	68.7205	3,249.02	65.0425	3,249.02	63.752	3,249.02	65.625	3,249.02	64.9644	3,249.02	63.3909	3,249.02	65.0556	3,249.02	62.2611	3,249.02	65.4178	3,249.02	60.2968	3,249.02	67.595	3,249.02	38.3674
3,363.28	89.5848	3,363.28	89.0744	3,363.28	89.2918	3,363.28	88.1392	3,363.28	88.4017	3,363.28	87.0482	3,363.28	87.37	3,363.28	85.346	3,363.28	86.2089	3,363.28	83.903	3,363.28	84.4572	3,363.28	81.5384	3,363.28	82.841	3,363.28	78.6671	3,363.28	80.2569	3,363.28	75.7546	3,363.28	78.2108	3,363.28	73.5072	3,363.28	75.1469	3,363.28	71.9278	3,363.28	72.5214	3,363.28	69.5286	3,363.28	69.5666	3,363.28	67.5735	3,363.28	68.0196	3,363.28	63.5005	3,363.28	64.1745	3,363.28	64.5932	3,363.28	60.5638	3,363.28	61.958	3,363.28	63.7341	3,363.28	62.9619	3,363.28	66.2198	3,363.28	56.5888	3,363.28	64.2094	3,363.28	52.3202
3,481.93	89.9792	3,481.93	89.2514	3,481.93	89.8348	3,481.93	88.3964	3,481.93	88.9889	3,481.93	87.1279	3,481.93	87.7028	3,481.93	85.6888	3,481.93	86.5382	3,481.93	83.8131	3,481.93	84.7462	3,481.93	81.8946	3,481.93	82.9894	3,481.93	79.5584	3,481.93	80.2595	3,481.93	76.953	3,481.93	77.6189	3,481.93	74.4977	3,481.93	75.3614	3,481.93	71.5485	3,481.93	72.3995	3,481.93	69.0465	3,481.93	70.2195	3,481.93	66.8697	3,481.93	67.7073	3,481.93	65.0856	3,481.93	65.6484	3,481.93	63.4961	3,481.93	62.8604	3,481.93	60.7923	3,481.93	62.3376	3,481.93	64.1239	3,481.93	64.0008	3,481.93	58.7218	3,481.93	61.4767	3,481.93	51.628
3,604.98	90.3983	3,604.98	89.6079	3,604.98	90.317	3,604.98	88.8952	3,604.98	89.5595	3,604.98	87.5265	3,604.98	88.3624	3,604.98	86.1027	3,604.98	87.1927	3,604.98	84.2108	3,604.98	85.7091	3,604.98	81.7366	3,604.98	83.6744	3,604.98	79.4045	3,604.98	81.1966	3,604.98	76.3527	3,604.98	78.4492	3,604.98	73.8847	3,604.98	76.6171	3,604.98	71.4442	3,604.98	73.5739	3,604.98	69.4196	3,604.98	72.0131	3,604.98	67.4694	3,604.98	68.9901	3,604.98	65.5936	3,604.98	67.7349	3,604.98	63.2085	3,604.98	64.8603	3,604.98	62.141	3,604.98	63.7479	3,604.98	63.2839	3,604.98	63.7828	3,604.98	61.5308	3,604.98	63.1921	3,604.98	54.2329
3,732.42	91.3476	3,732.42	90.7046	3,732.42	91.0994	3,732.42	89.7892	3,732.42	90.2582	3,732.42	88.6818	3,732.42	89.1455	3,732.42	87.3297	3,732.42	87.9648	3,732.42	85.0938	3,732.42	86.1316	3,732.42	82.7121	3,732.42	83.88	3,732.42	80.152	3,732.42	81.457	3,732.42	77.3099	3,732.42	79.0792	3,732.42	74.8673	3,732.42	76.407	3,732.42	71.8208	3,732.42	73.8812	3,732.42	68.8017	3,732.42	71.4731	3,732.42	68.1509	3,732.42	68.7809	3,732.42	66.4851	3,732.42	66.8505	3,732.42	63.4679	3,732.42	63.5678	3,732.42	60.2053	3,732.42	66.1956	3,732.42	62.2699	3,732.42	64.0477	3,732.42	61.4959	3,732.42	63.9166	3,732.42	32.4059
3,864.26	90.5316	3,864.26	89.9901	3,864.26	90.1428	3,864.26	89.1412	3,864.26	89.3916	3,864.26	88.0845	3,864.26	88.5667	3,864.26	86.2348	3,864.26	87.5299	3,864.26	84.1693	3,864.26	85.211	3,864.26	81.6707	3,864.26	82.8433	3,864.26	79.9048	3,864.26	80.486	3,864.26	76.9165	3,864.26	78.2098	3,864.26	74.1741	3,864.26	75.7449	3,864.26	72.0054	3,864.26	72.4981	3,864.26	69.0974	3,864.26	70.8263	3,864.26	67.2291	3,864.26	66.8546	3,864.26	66.2445	3,864.26	66.0119	3,864.26	63.875	3,864.26	64.4667	3,864.26	59.1664	3,864.26	61.0773	3,864.26	63.7063	3,864.26	63.9146	3,864.26	61.0968	3,864.26	63.6504	3,864.26	51.3423
4,000.49	89.9618	4,000.49	89.5501	4,000.49	89.9536	4,000.49	88.7187	4,000.49	89.3203	4,000.49	87.2796	4,000.49	88.0832	4,000.49	85.5131	4,000.49	86.8521	4,000.49	83.0205	4,000.49	84.6646	4,000.49	80.9977	4,000.49	82.4035	4,000.49	78.7833	4,000.49	80.5365	4,000.49	76.4301	4,000.49	78.0877	4,000.49	74.1406	4,000.49	75.6652	4,000.49	70.8297	4,000.49	72.8673	4,000.49	68.9351	4,000.49	70.2886	4,000.49	67.9198	4,000.49	68.4265	4,000.49	66.1948	4,000.49	65.3907	4,000.49	63.8436	4,000.49	65.5453	4,000.49	58.0524	4,000.49	62.8677	4,000.49	62.341	4,000.49	63.2627	4,000.49	61.3867	4,000.49	62.6993	4,000.49	51.89
4,141.11	90.7161	4,141.11	90.1419	4,141.11	90.5166	4,141.11	89.1541	4,141.11	89.6838	4,141.11	88.1088	4,141.11	88.4424	4,141.11	86.1181	4,141.11	87.2802	4,141.11	84.1466	4,141.11	85.0292	4,141.11	81.6754	4,141.11	82.923	4,141.11	79.8072	4,141.11	80.6736	4,141.11	76.748	4,141.11	78.1872	4,141.11	73.3821	4,141.11	75.3653	4,141.11	70.4023	4,141.11	72.3279	4,141.11	66.7689	4,141.11	70.5156	4,141.11	65.3097	4,141.11	67.1018	4,141.11	63.3855	4,141.11	64.5898	4,141.11	61.4119	4,141.11	63.488	4,141.11	59.1218	4,141.11	60.8108	4,141.11	61.2086	4,141.11	61.186	4,141.11	61.547	4,141.11	61.8036	4,141.11	53.5586
4,287.6	90.5438	4,287.6	90.0012	4,287.6	90.4226	4,287.6	88.8008	4,287.6	89.5434	4,287.6	87.5836	4,287.6	88.214	4,287.6	85.8919	4,287.6	87.0996	4,287.6	84.0373	4,287.6	84.8058	4,287.6	82.0104	4,287.6	83.0874	4,287.6	79.0038	4,287.6	80.5673	4,287.6	75.1077	4,287.6	78.0371	4,287.6	73.4811	4,287.6	75.3552	4,287.6	69.5937	4,287.6	71.9732	4,287.6	68.3607	4,287.6	69.723	4,287.6	66.6647	4,287.6	66.8812	4,287.6	63.3643	4,287.6	65.7513	4,287.6	60.502	4,287.6	64.6379	4,287.6	58.2467	4,287.6	61.381	4,287.6	60.9164	4,287.6	61.6105	4,287.6	61.016	4,287.6	60.3346	4,287.6	51.5823
4,438.48	90.7211	4,438.48	90.1889	4,438.48	90.5747	4,438.48	89.108	4,438.48	89.6279	4,438.48	87.991	4,438.48	88.5162	4,438.48	86.1696	4,438.48	87.2533	4,438.48	84.2978	4,438.48	85.3625	4,438.48	81.6104	4,438.48	83.0752	4,438.48	78.7767	4,438.48	80.6623	4,438.48	76.3161	4,438.48	77.5977	4,438.48	73.6046	4,438.48	74.5935	4,438.48	70.4223	4,438.48	72.3212	4,438.48	68.3747	4,438.48	69.4087	4,438.48	65.7788	4,438.48	67.0127	4,438.48	65.3668	4,438.48	65.543	4,438.48	60.4644	4,438.48	64.277	4,438.48	57.414	4,438.48	61.0264	4,438.48	61.1417	4,438.48	60.4899	4,438.48	61.8506	4,438.48	61.8694	4,438.48	51.5499
4,595.21	89.8984	4,595.21	89.4546	4,595.21	89.7817	4,595.21	88.4844	4,595.21	89.0331	4,595.21	87.3306	4,595.21	88.0623	4,595.21	85.7048	4,595.21	86.8231	4,595.21	83.8061	4,595.21	84.9552	4,595.21	81.0923	4,595.21	82.6581	4,595.21	78.6517	4,595.21	79.6822	4,595.21	75.9124	4,595.21	77.2767	4,595.21	72.8226	4,595.21	74.0569	4,595.21	70.0591	4,595.21	71.0891	4,595.21	66.8588	4,595.21	68.6553	4,595.21	64.8082	4,595.21	65.0466	4,595.21	62.1477	4,595.21	64.48	4,595.21	58.7415	4,595.21	62.5832	4,595.21	56.6194	4,595.21	59.6592	4,595.21	58.5285	4,595.21	57.7137	4,595.21	59.3653	4,595.21	59.5357	4,595.21	54.8532
4,756.35	90.4218	4,756.35	90.0691	4,756.35	90.2907	4,756.35	89.2685	4,756.35	89.5804	4,756.35	88.1986	4,756.35	88.6668	4,756.35	86.6427	4,756.35	87.3753	4,756.35	84.3321	4,756.35	85.5679	4,756.35	81.4276	4,756.35	82.9785	4,756.35	78.5402	4,756.35	80.024	4,756.35	75.0223	4,756.35	77.6678	4,756.35	72.544	4,756.35	74.6912	4,756.35	68.8225	4,756.35	72.2257	4,756.35	68.0405	4,756.35	69.2563	4,756.35	65.9279	4,756.35	66.7335	4,756.35	62.946	4,756.35	64.5501	4,756.35	56.8879	4,756.35	64.8399	4,756.35	55.131	4,756.35	57.5449	4,756.35	57.3045	4,756.35	60.0356	4,756.35	57.3988	4,756.35	58.0182	4,756.35	52.0685
4,924.8	90.2649	4,924.8	89.9257	4,924.8	90.222	4,924.8	89.2925	4,924.8	89.7766	4,924.8	88.0894	4,924.8	88.7607	4,924.8	86.7056	4,924.8	87.608	4,924.8	84.3141	4,924.8	85.6497	4,924.8	81.607	4,924.8	82.8162	4,924.8	78.9656	4,924.8	80.009	4,924.8	76.5006	4,924.8	77.8339	4,924.8	73.1335	4,924.8	74.114	4,924.8	70.2165	4,924.8	72.292	4,924.8	66.5339	4,924.8	68.5785	4,924.8	63.1175	4,924.8	66.4876	4,924.8	61.9427	4,924.8	64.5647	4,924.8	57.4496	4,924.8	64.8399	4,924.8	57.5509	4,924.8	58.4941	4,924.8	58.2037	4,924.8	58.0303	4,924.8	54.0991	4,924.8	57.8949	4,924.8	55.0502
5,097.66	89.7448	5,097.66	89.3181	5,097.66	89.6268	5,097.66	88.515	5,097.66	89.0055	5,097.66	87.3173	5,097.66	87.8782	5,097.66	85.9222	5,097.66	86.8906	5,097.66	83.4159	5,097.66	85.089	5,097.66	80.8888	5,097.66	82.7273	5,097.66	78.1673	5,097.66	80.1858	5,097.66	75.1742	5,097.66	77.8501	5,097.66	72.6793	5,097.66	74.022	5,097.66	70.5436	5,097.66	71.7381	5,097.66	69.2309	5,097.66	68.763	5,097.66	66.059	5,097.66	65.8155	5,097.66	62.4889	5,097.66	64.8825	5,097.66	52.2468	5,097.66	62.5865	5,097.66	57.4733	5,097.66	56.0695	5,097.66	56.8038	5,097.66	59.8096	5,097.66	57.9834	5,097.66	56.6401	5,097.66	52.5464
5,277.83	90.0869	5,277.83	89.5089	5,277.83	89.8638	5,277.83	88.5779	5,277.83	89.04	5,277.83	87.3589	5,277.83	87.7935	5,277.83	85.8087	5,277.83	86.9899	5,277.83	83.91	5,277.83	84.8887	5,277.83	81.599	5,277.83	82.6653	5,277.83	78.7081	5,277.83	79.9508	5,277.83	75.5178	5,277.83	77.324	5,277.83	72.0098	5,277.83	73.7461	5,277.83	69.4175	5,277.83	71.262	5,277.83	66.079	5,277.83	67.5172	5,277.83	63.9252	5,277.83	66.5956	5,277.83	63.6651	5,277.83	64.2553	5,277.83	52.8177	5,277.83	61.879	5,277.83	57.3263	5,277.83	54.9558	5,277.83	56.0791	5,277.83	59.0652	5,277.83	55.0516	5,277.83	57.8368	5,277.83	48.5501
5,463.87	90.0865	5,463.87	89.4919	5,463.87	89.8893	5,463.87	88.4611	5,463.87	89.0896	5,463.87	87.4357	5,463.87	87.8786	5,463.87	85.7163	5,463.87	87.0106	5,463.87	83.8073	5,463.87	84.9917	5,463.87	81.3762	5,463.87	82.9585	5,463.87	78.1847	5,463.87	80.2333	5,463.87	75.4145	5,463.87	77.3844	5,463.87	72.0283	5,463.87	73.7112	5,463.87	69.745	5,463.87	71.2434	5,463.87	67.0025	5,463.87	67.716	5,463.87	63.3643	5,463.87	66.8748	5,463.87	59.2982	5,463.87	64.4626	5,463.87	49.7744	5,463.87	61.3525	5,463.87	56.1189	5,463.87	55.7456	5,463.87	54.8266	5,463.87	58.5523	5,463.87	56.6775	5,463.87	57.3942	5,463.87	47.524
5,657.23	90.1842	5,657.23	89.7851	5,657.23	89.9954	5,657.23	88.8973	5,657.23	89.4272	5,657.23	87.91	5,657.23	88.1847	5,657.23	86.1577	5,657.23	87.0284	5,657.23	84.2539	5,657.23	85.102	5,657.23	81.5764	5,657.23	82.7898	5,657.23	77.5706	5,657.23	79.0766	5,657.23	74.2977	5,657.23	76.6846	5,657.23	71.472	5,657.23	73.6218	5,657.23	69.2815	5,657.23	71.115	5,657.23	66.6045	5,657.23	66.9966	5,657.23	64.4022	5,657.23	66.5841	5,657.23	61.2156	5,657.23	63.9173	5,657.23	52.3725	5,657.23	60.7302	5,657.23	58.2307	5,657.23	52.2345	5,657.23	51.1743	5,657.23	57.8398	5,657.23	56.0498	5,657.23	55.1997	5,657.23	49.9307
5,856.45	89.4941	5,856.45	89.1274	5,856.45	89.4712	5,856.45	88.3298	5,856.45	88.9019	5,856.45	87.2724	5,856.45	87.7559	5,856.45	85.3474	5,856.45	86.7587	5,856.45	83.5032	5,856.45	84.7949	5,856.45	80.1443	5,856.45	82.3729	5,856.45	77.3666	5,856.45	78.9711	5,856.45	75.0717	5,856.45	76.7488	5,856.45	72.6341	5,856.45	73.7314	5,856.45	69.7545	5,856.45	71.2727	5,856.45	66.285	5,856.45	67.3288	5,856.45	61.9709	5,856.45	66.709	5,856.45	59.3683	5,856.45	62.4596	5,856.45	48.7626	5,856.45	60.1826	5,856.45	58.1507	5,856.45	50.6613	5,856.45	55.0154	5,856.45	58.2622	5,856.45	53.2569	5,856.45	53.7501	5,856.45	49.2905
6,062.99	90.4544	6,062.99	90.1587	6,062.99	90.4118	6,062.99	89.2433	6,062.99	89.7827	6,062.99	88.3655	6,062.99	88.6896	6,062.99	86.4584	6,062.99	87.4912	6,062.99	84.5658	6,062.99	85.6141	6,062.99	81.8687	6,062.99	82.9836	6,062.99	78.5364	6,062.99	79.8343	6,062.99	75.1287	6,062.99	77.462	6,062.99	71.7178	6,062.99	74.0475	6,062.99	68.8758	6,062.99	71.1874	6,062.99	66.2347	6,062.99	67.918	6,062.99	63.347	6,062.99	67.1029	6,062.99	59.0576	6,062.99	64.4088	6,062.99	47.9055	6,062.99	57.9405	6,062.99	55.7969	6,062.99	46.826	6,062.99	50.9341	6,062.99	57.2352	6,062.99	57.0045	6,062.99	55.9181	6,062.99	36.7167
6,276.86	89.8422	6,276.86	89.5119	6,276.86	89.7485	6,276.86	88.5278	6,276.86	89.0498	6,276.86	87.6102	6,276.86	87.9905	6,276.86	85.8781	6,276.86	87.0082	6,276.86	83.6597	6,276.86	85.2199	6,276.86	81.1347	6,276.86	82.7898	6,276.86	77.6026	6,276.86	79.9051	6,276.86	74.2891	6,276.86	76.8482	6,276.86	71.9543	6,276.86	73.1024	6,276.86	69.3036	6,276.86	69.8253	6,276.86	66.1715	6,276.86	66.5878	6,276.86	63.1825	6,276.86	66.257	6,276.86	56.8471	6,276.86	62.8457	6,276.86	51.8257	6,276.86	57.1677	6,276.86	56.8889	6,276.86	47.3924	6,276.86	52.0925	6,276.86	55.6295	6,276.86	57.2677	6,276.86	52.7695	6,276.86	47.0047
6,498.05	90.2862	6,498.05	89.7634	6,498.05	90.1808	6,498.05	88.7228	6,498.05	89.2603	6,498.05	87.8594	6,498.05	88.3367	6,498.05	86.0556	6,498.05	87.0693	6,498.05	83.7872	6,498.05	85.2739	6,498.05	81.5619	6,498.05	82.8015	6,498.05	77.6595	6,498.05	79.4645	6,498.05	74.3837	6,498.05	76.356	6,498.05	71.3294	6,498.05	73.2206	6,498.05	68.7418	6,498.05	69.9491	6,498.05	65.4571	6,498.05	66.9368	6,498.05	62.3799	6,498.05	65.7933	6,498.05	56.5073	6,498.05	61.0913	6,498.05	52.3323	6,498.05	54.7146	6,498.05	56.7529	6,498.05	52.2216	6,498.05	55.9221	6,498.05	57.3369	6,498.05	53.4645	6,498.05	50.4674	6,498.05	42.2816
6,726.56	90.7861	6,726.56	90.3599	6,726.56	90.7575	6,726.56	89.4395	6,726.56	89.9447	6,726.56	88.4054	6,726.56	88.9147	6,726.56	86.6268	6,726.56	87.6607	6,726.56	84.2119	6,726.56	85.5788	6,726.56	81.8526	6,726.56	83.3949	6,726.56	77.9492	6,726.56	79.4238	6,726.56	74.604	6,726.56	76.65	6,726.56	72.0345	6,726.56	73.7552	6,726.56	69.0368	6,726.56	69.9086	6,726.56	65.4463	6,726.56	66.5202	6,726.56	60.907	6,726.56	66.2283	6,726.56	55.0226	6,726.56	60.5197	6,726.56	56.28	6,726.56	52.702	6,726.56	53.9474	6,726.56	53.2646	6,726.56	51.775	6,726.56	51.9659	6,726.56	56.0783	6,726.56	53.2267	6,726.56	48.8376
6,963.87	90.3741	6,963.87	90.1102	6,963.87	90.3516	6,963.87	89.19	6,963.87	89.6562	6,963.87	87.9651	6,963.87	88.4968	6,963.87	86.1095	6,963.87	87.2658	6,963.87	83.9187	6,963.87	84.9923	6,963.87	80.5886	6,963.87	82.8441	6,963.87	77.5492	6,963.87	78.8193	6,963.87	73.6891	6,963.87	76.6127	6,963.87	71.3333	6,963.87	73.3506	6,963.87	68.8614	6,963.87	69.8395	6,963.87	66.2082	6,963.87	66.9533	6,963.87	60.6877	6,963.87	64.0905	6,963.87	53.9039	6,963.87	59.2683	6,963.87	57.8512	6,963.87	52.6676	6,963.87	55.779	6,963.87	55.563	6,963.87	55.8845	6,963.87	55.8951	6,963.87	50.8666	6,963.87	51.2749	6,963.87	45.288
7,209.96	91.1257	7,209.96	90.6418	7,209.96	90.9996	7,209.96	89.7327	7,209.96	90.2104	7,209.96	88.55	7,209.96	89.0636	7,209.96	86.5789	7,209.96	87.9344	7,209.96	84.2697	7,209.96	85.7307	7,209.96	81.477	7,209.96	83.0247	7,209.96	78.0522	7,209.96	79.8822	7,209.96	74.3567	7,209.96	76.3881	7,209.96	72.0188	7,209.96	73.5675	7,209.96	68.6571	7,209.96	70.511	7,209.96	65.0231	7,209.96	67.4169	7,209.96	60.0731	7,209.96	65.5373	7,209.96	51.8632	7,209.96	58.9472	7,209.96	58.2282	7,209.96	51.1459	7,209.96	53.1948	7,209.96	56.0866	7,209.96	52.2393	7,209.96	53.2902	7,209.96	49.2783	7,209.96	54.248	7,209.96	35.7838
7,464.84	91.0553	7,464.84	90.6674	7,464.84	90.9064	7,464.84	89.787	7,464.84	90.2102	7,464.84	88.7255	7,464.84	89.0782	7,464.84	86.7473	7,464.84	87.8884	7,464.84	84.0828	7,464.84	85.8505	7,464.84	82.1672	7,464.84	82.8517	7,464.84	77.8455	7,464.84	79.9176	7,464.84	73.448	7,464.84	75.7316	7,464.84	71.7562	7,464.84	73.1775	7,464.84	67.8257	7,464.84	69.8171	7,464.84	64.7016	7,464.84	66.6299	7,464.84	60.9557	7,464.84	65.124	7,464.84	55.6377	7,464.84	58.3899	7,464.84	58.5766	7,464.84	50.6081	7,464.84	57.4533	7,464.84	58.4846	7,464.84	54.2581	7,464.84	49.5861	7,464.84	53.5696	7,464.84	49.0942	7,464.84	29.2878
7,727.05	91.5866	7,727.05	90.9695	7,727.05	91.3801	7,727.05	90.1923	7,727.05	90.5416	7,727.05	89.046	7,727.05	89.3472	7,727.05	86.7741	7,727.05	88.0155	7,727.05	83.994	7,727.05	85.9786	7,727.05	82.15	7,727.05	83.4686	7,727.05	77.2765	7,727.05	79.9853	7,727.05	73.1572	7,727.05	76.7038	7,727.05	72.0834	7,727.05	73.5933	7,727.05	68.1075	7,727.05	70.1173	7,727.05	65.0073	7,727.05	67.6363	7,727.05	59.8181	7,727.05	63.7185	7,727.05	55.5187	7,727.05	55.4429	7,727.05	58.6389	7,727.05	50.5635	7,727.05	56.8293	7,727.05	58.684	7,727.05	50.7432	7,727.05	50.4469	7,727.05	52.3584	7,727.05	45.1112	7,727.05	45.7732
7,999.51	91.8144	7,999.51	91.4151	7,999.51	91.6617	7,999.51	90.5149	7,999.51	90.8786	7,999.51	89.3402	7,999.51	89.718	7,999.51	87.1428	7,999.51	88.2391	7,999.51	84.643	7,999.51	85.9834	7,999.51	82.1148	7,999.51	83.6937	7,999.51	78.4362	7,999.51	79.8621	7,999.51	74.5933	7,999.51	76.7501	7,999.51	72.6801	7,999.51	73.5369	7,999.51	68.0439	7,999.51	69.4926	7,999.51	65.1721	7,999.51	67.5297	7,999.51	60.6817	7,999.51	62.6581	7,999.51	53.3539	7,999.51	52.3362	7,999.51	59.1089	7,999.51	51.3546	7,999.51	55.9118	7,999.51	58.5468	7,999.51	45.7905	7,999.51	32.5547	7,999.51	50.5791	7,999.51	45.4248	7,999.51	49.6594
8,282.23	91.7248	8,282.23	91.4598	8,282.23	91.6229	8,282.23	90.611	8,282.23	90.8881	8,282.23	89.5728	8,282.23	89.8505	8,282.23	87.2687	8,282.23	88.2395	8,282.23	84.8053	8,282.23	85.929	8,282.23	82.0872	8,282.23	83.2816	8,282.23	78.6725	8,282.23	80.1273	8,282.23	74.625	8,282.23	75.8538	8,282.23	71.8876	8,282.23	73.0752	8,282.23	68.0594	8,282.23	69.8735	8,282.23	64.7269	8,282.23	66.8942	8,282.23	60.1379	8,282.23	61.3418	8,282.23	52.6572	8,282.23	42.5364	8,282.23	56.4976	8,282.23	49.6009	8,282.23	54.2307	8,282.23	57.0847	8,282.23	42.3903	8,282.23	51.2552	8,282.23	48.8333	8,282.23	39.903	8,282.23	49.2442
8,573.73	91.5841	8,573.73	91.3841	8,573.73	91.4456	8,573.73	90.6598	8,573.73	90.7178	8,573.73	89.6246	8,573.73	89.7226	8,573.73	87.2551	8,573.73	87.9521	8,573.73	84.564	8,573.73	85.6851	8,573.73	82.1221	8,573.73	82.9511	8,573.73	78.4609	8,573.73	79.803	8,573.73	73.637	8,573.73	75.3548	8,573.73	72.0603	8,573.73	72.4404	8,573.73	67.477	8,573.73	69.7649	8,573.73	64.4841	8,573.73	67.0756	8,573.73	59.0307	8,573.73	60.219	8,573.73	51.2801	8,573.73	34.0013	8,573.73	56.2438	8,573.73	51.4104	8,573.73	50.0985	8,573.73	55.9344	8,573.73	49.1068	8,573.73	56.1341	8,573.73	47.1976	8,573.73	49.4085	8,573.73	47.7117
8,876.95	90.8214	8,876.95	90.7807	8,876.95	90.6401	8,876.95	90.0614	8,876.95	89.9544	8,876.95	88.9503	8,876.95	88.7493	8,876.95	86.6176	8,876.95	87.0854	8,876.95	83.537	8,876.95	84.6384	8,876.95	81.1355	8,876.95	82.1343	8,876.95	77.2783	8,876.95	78.6519	8,876.95	72.3954	8,876.95	74.7218	8,876.95	71.2591	8,876.95	70.7009	8,876.95	65.5514	8,876.95	68.4774	8,876.95	63.2613	8,876.95	65.8846	8,876.95	57.883	8,876.95	56.6574	8,876.95	50.4995	8,876.95	37.9802	8,876.95	56.3309	8,876.95	52.3266	8,876.95	47.9236	8,876.95	50.7386	8,876.95	47.5443	8,876.95	57.4062	8,876.95	49.8342	8,876.95	54.5183	8,876.95	48.3149
9,188.96	90.9177	9,188.96	91.0229	9,188.96	90.7366	9,188.96	90.3804	9,188.96	90.1285	9,188.96	89.1125	9,188.96	88.7958	9,188.96	86.8131	9,188.96	87.0111	9,188.96	83.7766	9,188.96	84.2974	9,188.96	81.0793	9,188.96	81.754	9,188.96	77.3332	9,188.96	78.457	9,188.96	73.4342	9,188.96	74.5841	9,188.96	71.1432	9,188.96	70.3019	9,188.96	64.6146	9,188.96	68.2149	9,188.96	63.4901	9,188.96	65.663	9,188.96	59.2772	9,188.96	54.6977	9,188.96	50.7817	9,188.96	48.9774	9,188.96	55.4821	9,188.96	53.3525	9,188.96	48.8091	9,188.96	51.6873	9,188.96	51.5127	9,188.96	58.5635	9,188.96	51.6646	9,188.96	54.501	9,188.96	52.8834
9,514.16	90.8141	9,514.16	90.8913	9,514.16	90.6353	9,514.16	90.2289	9,514.16	90.2123	9,514.16	88.6666	9,514.16	88.9584	9,514.16	86.2713	9,514.16	87.0068	9,514.16	83.1063	9,514.16	84.2559	9,514.16	80.5123	9,514.16	81.7394	9,514.16	76.9489	9,514.16	78.599	9,514.16	73.2503	9,514.16	74.7461	9,514.16	70.333	9,514.16	70.085	9,514.16	63.2444	9,514.16	68.3337	9,514.16	62.3538	9,514.16	65.3859	9,514.16	57.6194	9,514.16	52.2668	9,514.16	50.6412	9,514.16	49.3181	9,514.16	54.1679	9,514.16	53.0132	9,514.16	51.3869	9,514.16	52.2705	9,514.16	53.2187	9,514.16	59.0413	9,514.16	54.2671	9,514.16	54.7635	9,514.16	57.8624
9,849.61	90.3756	9,849.61	90.3132	9,849.61	90.3023	9,849.61	89.5636	9,849.61	90.1036	9,849.61	87.7759	9,849.61	89.0149	9,849.61	85.2423	9,849.61	86.8174	9,849.61	81.9043	9,849.61	84.0061	9,849.61	79.5263	9,849.61	81.4499	9,849.61	76.32	9,849.61	78.6101	9,849.61	72.5083	9,849.61	74.1678	9,849.61	69.3068	9,849.61	68.9342	9,849.61	61.6369	9,849.61	68.0373	9,849.61	61.3078	9,849.61	64.9693	9,849.61	53.8355	9,849.61	41.578	9,849.61	45.9187	9,849.61	52.5308	9,849.61	53.5813	9,849.61	52.8259	9,849.61	53.9853	9,849.61	54.9637	9,849.61	53.0537	9,849.61	59.645	9,849.61	54.3134	9,849.61	53.3297	9,849.61	58.4417
10,196.8	90.2721	10,196.8	90.3424	10,196.8	90.2072	10,196.8	89.5143	10,196.8	90.0675	10,196.8	87.4912	10,196.8	88.9627	10,196.8	84.8658	10,196.8	86.3676	10,196.8	81.2506	10,196.8	83.5266	10,196.8	78.8634	10,196.8	80.9188	10,196.8	76.0298	10,196.8	78.4781	10,196.8	73.116	10,196.8	74.4241	10,196.8	68.1156	10,196.8	68.731	10,196.8	60.1702	10,196.8	68.3347	10,196.8	60.9422	10,196.8	64.8581	10,196.8	54.0314	10,196.8	50.5065	10,196.8	43.0877	10,196.8	54.2799	10,196.8	52.2454	10,196.8	52.4838	10,196.8	54.5066	10,196.8	58.1649	10,196.8	55.4307	10,196.8	61.2457	10,196.8	52.9394	10,196.8	54.7672	10,196.8	58.9247
10,555.7	90.066	10,555.7	90.1218	10,555.7	90.055	10,555.7	89.1678	10,555.7	89.9729	10,555.7	87.0357	10,555.7	88.8263	10,555.7	84.3254	10,555.7	85.9766	10,555.7	80.4763	10,555.7	82.9615	10,555.7	78.2315	10,555.7	80.337	10,555.7	75.4874	10,555.7	77.907	10,555.7	73.4945	10,555.7	74.6193	10,555.7	66.9309	10,555.7	67.5203	10,555.7	59.603	10,555.7	67.1779	10,555.7	60.8144	10,555.7	63.7421	10,555.7	55.1073	10,555.7	52.7749	10,555.7	40.6003	10,555.7	56.2567	10,555.7	49.9695	10,555.7	53.5962	10,555.7	56.0972	10,555.7	59.2708	10,555.7	54.3431	10,555.7	62.0304	10,555.7	52.3896	10,555.7	57.0848	10,555.7	58.9794
10,927.7	90.2875	10,927.7	90.2484	10,927.7	90.3708	10,927.7	89.0813	10,927.7	90.3317	10,927.7	86.7055	10,927.7	89.2557	10,927.7	83.8909	10,927.7	86.1066	10,927.7	79.657	10,927.7	82.9509	10,927.7	77.5011	10,927.7	80.3785	10,927.7	75.2336	10,927.7	78.0129	10,927.7	73.9586	10,927.7	74.7017	10,927.7	64.6004	10,927.7	67.2186	10,927.7	59.9871	10,927.7	66.8982	10,927.7	60.4016	10,927.7	63.5027	10,927.7	55.1898	10,927.7	56.194	10,927.7	25.7778	10,927.7	57.1363	10,927.7	50.4512	10,927.7	54.5477	10,927.7	52.9215	10,927.7	60.495	10,927.7	54.5418	10,927.7	62.2975	10,927.7	53.9839	10,927.7	57.6133	10,927.7	57.9687
11,313	90.3681	11,313	90.3004	11,313	90.4038	11,313	88.8062	11,313	90.3065	11,313	86.2323	11,313	89.3012	11,313	83.4023	11,313	85.6528	11,313	78.8059	11,313	82.4799	11,313	76.7847	11,313	79.7968	11,313	74.6534	11,313	77.7315	11,313	74.4626	11,313	74.3643	11,313	62.3031	11,313	66.7954	11,313	61.347	11,313	66.2863	11,313	59.7414	11,313	62.8333	11,313	56.0048	11,313	57.8446	11,313	36.2891	11,313	57.847	11,313	49.7288	11,313	55.6682	11,313	45.7541	11,313	61.4381	11,313	51.1117	11,313	62.42	11,313	53.682	11,313	57.9944	11,313	58.8999
11,712.9	90.1595	11,712.9	90.2849	11,712.9	90.1547	11,712.9	88.6247	11,712.9	89.7347	11,712.9	85.8094	11,712.9	88.6291	11,712.9	83.1935	11,712.9	84.5357	11,712.9	77.8652	11,712.9	81.0385	11,712.9	76.2878	11,712.9	78.3618	11,712.9	74.7668	11,712.9	76.4883	11,712.9	75.0365	11,712.9	73.5612	11,712.9	58.3526	11,712.9	65.4822	11,712.9	63.8686	11,712.9	64.1271	11,712.9	59.4368	11,712.9	61.0349	11,712.9	56.6075	11,712.9	59.9806	11,712.9	43.8836	11,712.9	58.7684	11,712.9	47.5235	11,712.9	56.2455	11,712.9	35.2678	11,712.9	62.4974	11,712.9	40.8667	11,712.9	63.331	11,712.9	49.539	11,712.9	57.3142	11,712.9	61.061
12,126	89.9822	12,126	90.2049	12,126	90.132	12,126	88.1904	12,126	89.3723	12,126	84.8819	12,126	87.8939	12,126	82.4583	12,126	83.279	12,126	76.3733	12,126	79.7048	12,126	74.9784	12,126	77.2171	12,126	73.7659	12,126	75.4838	12,126	75.29	12,126	72.7534	12,126	46.1608	12,126	65.7599	12,126	65.1645	12,126	61.9972	12,126	59.3626	12,126	59.2183	12,126	57.1734	12,126	61.0691	12,126	45.2335	12,126	58.4899	12,126	45.9771	12,126	55.8598	12,126	36.795	12,126	62.5943	12,126	50.3289	12,126	63.2194	12,126	47.9106	12,126	55.0934	12,126	61.5711
12,553.7	89.5097	12,553.7	89.5217	12,553.7	89.7632	12,553.7	87.0205	12,553.7	88.8419	12,553.7	83.1125	12,553.7	87.1369	12,553.7	81.0072	12,553.7	81.7925	12,553.7	73.9331	12,553.7	78.0841	12,553.7	72.5238	12,553.7	75.885	12,553.7	72.1311	12,553.7	74.4695	12,553.7	74.8626	12,553.7	72.2307	12,553.7	54.4276	12,553.7	65.8678	12,553.7	65.9103	12,553.7	59.0055	12,553.7	57.7128	12,553.7	54.3304	12,553.7	56.499	12,553.7	62.1764	12,553.7	42.5388	12,553.7	59.6071	12,553.7	49.1607	12,553.7	56.968	12,553.7	46.7619	12,553.7	61.477	12,553.7	51.5037	12,553.7	63.5012	12,553.7	52.8272	12,553.7	54.1143	12,553.7	61.5682
12,996.1	88.6773	12,996.1	88.7857	12,996.1	88.865	12,996.1	85.7002	12,996.1	87.7729	12,996.1	81.2069	12,996.1	85.643	12,996.1	79.3295	12,996.1	79.4742	12,996.1	71.059	12,996.1	75.3143	12,996.1	69.6605	12,996.1	73.5135	12,996.1	70.1063	12,996.1	72.4066	12,996.1	73.6289	12,996.1	70.7128	12,996.1	59.2721	12,996.1	65.9047	12,996.1	65.853	12,996.1	53.0166	12,996.1	55.7016	12,996.1	51.2538	12,996.1	56.5409	12,996.1	61.5301	12,996.1	44.6135	12,996.1	58.8034	12,996.1	50.2612	12,996.1	57.1304	12,996.1	50.6403	12,996.1	60.6975	12,996.1	47.0736	12,996.1	63.7665	12,996.1	51.8703	12,996.1	55.2403	12,996.1	61.2932
13,454.6	88.8719	13,454.6	88.8877	13,454.6	89.0829	13,454.6	85.2268	13,454.6	87.7953	13,454.6	79.9946	13,454.6	85.234	13,454.6	78.6955	13,454.6	78.6503	13,454.6	69.6926	13,454.6	73.9129	13,454.6	67.6622	13,454.6	72.796	13,454.6	68.6801	13,454.6	71.7732	13,454.6	73.4117	13,454.6	70.1702	13,454.6	63.5981	13,454.6	67.1423	13,454.6	66.7872	13,454.6	40.2264	13,454.6	54.0096	13,454.6	45.8641	13,454.6	56.3463	13,454.6	62.6212	13,454.6	46.4181	13,454.6	60.2069	13,454.6	50.2638	13,454.6	57.3748	13,454.6	54.2667	13,454.6	60.5719	13,454.6	44.5191	13,454.6	63.6632	13,454.6	50.7726	13,454.6	55.1102	13,454.6	61.1372
13,929.2	90.5358	13,929.2	90.5342	13,929.2	90.5185	13,929.2	86.4096	13,929.2	89.159	13,929.2	80.6055	13,929.2	86.0792	13,929.2	80.2286	13,929.2	79.0485	13,929.2	71.0123	13,929.2	73.9781	13,929.2	68.8423	13,929.2	73.5078	13,929.2	69.5596	13,929.2	72.175	13,929.2	74.6481	13,929.2	71.3094	13,929.2	67.6366	13,929.2	69.5382	13,929.2	69.3637	13,929.2	53.5882	13,929.2	53.7202	13,929.2	48.763	13,929.2	59.0232	13,929.2	65.2699	13,929.2	50.8364	13,929.2	62.9287	13,929.2	51.6037	13,929.2	60.2153	13,929.2	58.0596	13,929.2	62.9675	13,929.2	55.7168	13,929.2	65.4846	13,929.2	50.6561	13,929.2	57.2566	13,929.2	63.2654
14,419.9	90.2801	14,419.9	90.4324	14,419.9	89.7738	14,419.9	85.9136	14,419.9	87.9151	14,419.9	79.9205	14,419.9	84.1498	14,419.9	80.2204	14,419.9	76.8127	14,419.9	71.091	14,419.9	70.5401	14,419.9	69.3266	14,419.9	71.2608	14,419.9	68.2172	14,419.9	68.8903	14,419.9	73.8633	14,419.9	68.1996	14,419.9	69.2798	14,419.9	68.8379	14,419.9	70.1572	14,419.9	59.731	14,419.9	52.6863	14,419.9	52.9715	14,419.9	58.9743	14,419.9	65.4114	14,419.9	51.6053	14,419.9	63.162	14,419.9	48.6269	14,419.9	60.7892	14,419.9	58.1571	14,419.9	63.1956	14,419.9	59.7459	14,419.9	65.9933	14,419.9	50.1759	14,419.9	58.9754	14,419.9	63.6012
14,928.2	87.8976	14,928.2	88.3773	14,928.2	86.824	14,928.2	83.4497	14,928.2	83.8795	14,928.2	77.633	14,928.2	78.9169	14,928.2	78.1721	14,928.2	70.8849	14,928.2	69.3564	14,928.2	63.24	14,928.2	68.3904	14,928.2	65.608	14,928.2	65.1403	14,928.2	61.2742	14,928.2	70.16	14,928.2	60.6533	14,928.2	67.9609	14,928.2	64.2894	14,928.2	67.5115	14,928.2	60.4593	14,928.2	50.1065	14,928.2	52.7294	14,928.2	56.0351	14,928.2	61.5127	14,928.2	48.1161	14,928.2	59.3963	14,928.2	48.5894	14,928.2	58.2773	14,928.2	53.7374	14,928.2	60.5004	14,928.2	58.113	14,928.2	64.3857	14,928.2	47.7945	14,928.2	58.9368	14,928.2	62.0734
15,455.6	86.9978	15,455.6	87.2661	15,455.6	87.226	15,455.6	81.5753	15,455.6	84.1733	15,455.6	76.4346	15,455.6	79.5073	15,455.6	75.8952	15,455.6	71.7887	15,455.6	67.4213	15,455.6	59.6986	15,455.6	66.2949	15,455.6	67.3024	15,455.6	61.7338	15,455.6	62.7798	15,455.6	65.805	15,455.6	61.5113	15,455.6	65.9595	15,455.6	65.5551	15,455.6	62.8701	15,455.6	62.0243	15,455.6	48.4071	15,455.6	55.9504	15,455.6	49.7483	15,455.6	59.19	15,455.6	31.3472	15,455.6	56.7967	15,455.6	55.4503	15,455.6	50.0399	15,455.6	46.3002	15,455.6	54.2449	15,455.6	46.609	15,455.6	60.3109	15,455.6	52.1828	15,455.6	56.5484	15,455.6	57.0809
16,000.5	87.9193	16,000.5	87.6395	16,000.5	88.1898	16,000.5	81.2616	16,000.5	85.7583	16,000.5	76.7273	16,000.5	81.0832	16,000.5	76.4742	16,000.5	73.5861	16,000.5	69.59	16,000.5	64.2759	16,000.5	69.994	16,000.5	68.801	16,000.5	64.5415	16,000.5	58.0707	16,000.5	59.5841	16,000.5	56.592	16,000.5	65.9895	16,000.5	65.9118	16,000.5	63.7042	16,000.5	64.5252	16,000.5	49.1067	16,000.5	58.9676	16,000.5	52.2613	16,000.5	61.8681	16,000.5	49.2774	16,000.5	60.6689	16,000.5	53.0883	16,000.5	53.55	16,000.5	56.0946	16,000.5	56.6767	16,000.5	60.3896	16,000.5	57.8965	16,000.5	59.3004	16,000.5	52.4835	16,000.5	53.6486
16,564.5	89.34	16,564.5	89.6622	16,564.5	88.5294	16,564.5	83.3553	16,564.5	84.871	16,564.5	79.1574	16,564.5	79.0168	16,564.5	79.1437	16,564.5	73.0607	16,564.5	72.5952	16,564.5	66.2916	16,564.5	73.3179	16,564.5	67.0003	16,564.5	67.7586	16,564.5	50.7564	16,564.5	48.6269	16,564.5	52.6059	16,564.5	67.7748	16,564.5	60.3968	16,564.5	63.5522	16,564.5	64.9932	16,564.5	48.3112	16,564.5	57.0509	16,564.5	52.3992	16,564.5	61.544	16,564.5	48.7044	16,564.5	60.0735	16,564.5	49.1333	16,564.5	56.5167	16,564.5	56.5115	16,564.5	58.4735	16,564.5	60.2347	16,564.5	61.6954	16,564.5	58.7251	16,564.5	58.2232	16,564.5	58.285
17,148.9	89.3717	17,148.9	89.5701	17,148.9	88.7912	17,148.9	82.9759	17,148.9	84.4665	17,148.9	78.6086	17,148.9	77.4989	17,148.9	78.4204	17,148.9	73.7114	17,148.9	71.441	17,148.9	67.9155	17,148.9	72.7406	17,148.9	67.1949	17,148.9	67.0815	17,148.9	56.6139	17,148.9	58.4926	17,148.9	58.7275	17,148.9	64.1008	17,148.9	56.6455	17,148.9	58.7311	17,148.9	64.6393	17,148.9	53.0877	17,148.9	58.287	17,148.9	47.2224	17,148.9	59.474	17,148.9	40.8922	17,148.9	57.1781	17,148.9	53.9027	17,148.9	54.2727	17,148.9	51.5752	17,148.9	54.4194	17,148.9	54.3385	17,148.9	60.4067	17,148.9	54.468	17,148.9	58.4785	17,148.9	57.1867
17,752.4	88.268	17,752.4	87.8744	17,752.4	87.8094	17,752.4	80.9411	17,752.4	83.6705	17,752.4	76.0599	17,752.4	75.7693	17,752.4	75.5702	17,752.4	73.5456	17,752.4	67.2307	17,752.4	68.819	17,752.4	70.9456	17,752.4	66.3925	17,752.4	65.0842	17,752.4	56.7706	17,752.4	63.8966	17,752.4	60.2218	17,752.4	57.5493	17,752.4	48.1678	17,752.4	55.6582	17,752.4	62.8416	17,752.4	52.9111	17,752.4	57.1396	17,752.4	40.8728	17,752.4	58.3283	17,752.4	30.9259	17,752.4	56.0023	17,752.4	54.1729	17,752.4	52.6179	17,752.4	46.2678	17,752.4	49.6271	17,752.4	47.6437	17,752.4	56.7761	17,752.4	48.7952	17,752.4	54.6042	17,752.4	53.7171
18,379.4	88.1722	18,379.4	87.2108	18,379.4	87.2112	18,379.4	79.5073	18,379.4	83.0798	18,379.4	74.5335	18,379.4	74.5983	18,379.4	73.6263	18,379.4	72.4789	18,379.4	62.6622	18,379.4	69.4733	18,379.4	69.7529	18,379.4	63.3444	18,379.4	62.5348	18,379.4	57.1769	18,379.4	64.7204	18,379.4	61.0404	18,379.4	58.4105	18,379.4	51.6391	18,379.4	57.9474	18,379.4	58.7845	18,379.4	50.1563	18,379.4	53.1912	18,379.4	44.019	18,379.4	57.4543	18,379.4	38.1894	18,379.4	54.7076	18,379.4	52.4906	18,379.4	54.458	18,379.4	50.4911	18,379.4	50.5319	18,379.4	48.965	18,379.4	56.0958	18,379.4	51.0839	18,379.4	52.7399	18,379.4	55.6715
19,026.9	88.0392	19,026.9	86.2756	19,026.9	86.8964	19,026.9	77.2884	19,026.9	82.0067	19,026.9	72.0095	19,026.9	73.1773	19,026.9	68.9414	19,026.9	70.2743	19,026.9	55.2795	19,026.9	68.4678	19,026.9	65.954	19,026.9	54.5925	19,026.9	55.4078	19,026.9	55.9838	19,026.9	62.8884	19,026.9	58.3153	19,026.9	57.4021	19,026.9	54.9748	19,026.9	58.7126	19,026.9	47.9338	19,026.9	47.5426	19,026.9	45.6594	19,026.9	44.6102	19,026.9	54.3313	19,026.9	39.8716	19,026.9	51.9171	19,026.9	49.603	19,026.9	53.4657	19,026.9	49.0785	19,026.9	49.0459	19,026.9	48.0989	19,026.9	56.0334	19,026.9	49.2265	19,026.9	52.3124	19,026.9	55.9371
19,697.8	87.4238	19,697.8	84.5636	19,697.8	86.0072	19,697.8	74.0105	19,697.8	80.2029	19,697.8	68.5781	19,697.8	70.9645	19,697.8	65.5375	19,697.8	67.5971	19,697.8	64.6961	19,697.8	66.5076	19,697.8	63.2259	19,697.8	50.3976	19,697.8	48.2373	19,697.8	54.7017	19,697.8	61.7821	19,697.8	54.3411	19,697.8	59.4676	19,697.8	55.3718	19,697.8	57.2937	19,697.8	47.7334	19,697.8	48.0634	19,697.8	42.4626	19,697.8	43.726	19,697.8	50.6181	19,697.8	41.5496	19,697.8	46.751	19,697.8	44.4343	19,697.8	51.3946	19,697.8	50.749	19,697.8	46.9116	19,697.8	51.1552	19,697.8	54.717	19,697.8	52.5107	19,697.8	49.0099	19,697.8	54.0184
19,999.5	87.5243	19,999.5	84.1146	19,999.5	85.5181	19,999.5	74.1196	19,999.5	79.4563	19,999.5	69.0627	19,999.5	70.5939	19,999.5	69.2032	19,999.5	67.2857	19,999.5	68.1338	19,999.5	66.8983	19,999.5	64.3149	19,999.5	53.6668	19,999.5	47.5982	19,999.5	56.6825	19,999.5	61.9802	19,999.5	53.6161	19,999.5	61.1546	19,999.5	56.2642	19,999.5	58.034	19,999.5	49.0513	19,999.5	48.7313	19,999.5	29.6233	19,999.5	47.7937	19,999.5	51.4864	19,999.5	45.9313	19,999.5	45.8012	19,999.5	48.4011	19,999.5	51.9326	19,999.5	53.0767	19,999.5	48.4353	19,999.5	52.117	19,999.5	55.2836	19,999.5	54.9421	19,999.5	47.4211	19,999.5	55.0101
