"SPL Vertical"
"On-Axis"		"10°"		"-10°"		"20°"		"-20°"		"30°"		"-30°"		"40°"		"-40°"		"50°"		"-50°"		"60°"		"-60°"		"70°"		"-70°"		"80°"		"-80°"		"90°"		"-90°"		"100°"		"-100°"		"110°"		"-110°"		"120°"		"-120°"		"130°"		"-130°"		"140°"		"-140°"		"150°"		"-150°"		"160°"		"-160°"		"170°"		"-170°"		"180°"
"Frequency [Hz]"	"Sound Pessure Level [dB]  / [2.83V 1m] "	"Frequency [Hz]"	"Sound Pessure Level [dB]  / [2.83V 1m] "	"Frequency [Hz]"	"Sound Pessure Level [dB]  / [2.83V 1m] "	"Frequency [Hz]"	"Sound Pessure Level [dB]  / [2.83V 1m] "	"Frequency [Hz]"	"Sound Pessure Level [dB]  / [2.83V 1m] "	"Frequency [Hz]"	"Sound Pessure Level [dB]  / [2.83V 1m] "	"Frequency [Hz]"	"Sound Pessure Level [dB]  / [2.83V 1m] "	"Frequency [Hz]"	"Sound Pessure Level [dB]  / [2.83V 1m] "	"Frequency [Hz]"	"Sound Pessure Level [dB]  / [2.83V 1m] "	"Frequency [Hz]"	"Sound Pessure Level [dB]  / [2.83V 1m] "	"Frequency [Hz]"	"Sound Pessure Level [dB]  / [2.83V 1m] "	"Frequency [Hz]"	"Sound Pessure Level [dB]  / [2.83V 1m] "	"Frequency [Hz]"	"Sound Pessure Level [dB]  / [2.83V 1m] "	"Frequency [Hz]"	"Sound Pessure Level [dB]  / [2.83V 1m] "	"Frequency [Hz]"	"Sound Pessure Level [dB]  / [2.83V 1m] "	"Frequency [Hz]"	"Sound Pessure Level [dB]  / [2.83V 1m] "	"Frequency [Hz]"	"Sound Pessure Level [dB]  / [2.83V 1m] "	"Frequency [Hz]"	"Sound Pessure Level [dB]  / [2.83V 1m] "	"Frequency [Hz]"	"Sound Pessure Level [dB]  / [2.83V 1m] "	"Frequency [Hz]"	"Sound Pessure Level [dB]  / [2.83V 1m] "	"Frequency [Hz]"	"Sound Pessure Level [dB]  / [2.83V 1m] "	"Frequency [Hz]"	"Sound Pessure Level [dB]  / [2.83V 1m] "	"Frequency [Hz]"	"Sound Pessure Level [dB]  / [2.83V 1m] "	"Frequency [Hz]"	"Sound Pessure Level [dB]  / [2.83V 1m] "	"Frequency [Hz]"	"Sound Pessure Level [dB]  / [2.83V 1m] "	"Frequency [Hz]"	"Sound Pessure Level [dB]  / [2.83V 1m] "	"Frequency [Hz]"	"Sound Pessure Level [dB]  / [2.83V 1m] "	"Frequency [Hz]"	"Sound Pessure Level [dB]  / [2.83V 1m] "	"Frequency [Hz]"	"Sound Pessure Level [dB]  / [2.83V 1m] "	"Frequency [Hz]"	"Sound Pessure Level [dB]  / [2.83V 1m] "	"Frequency [Hz]"	"Sound Pessure Level [dB]  / [2.83V 1m] "	"Frequency [Hz]"	"Sound Pessure Level [dB]  / [2.83V 1m] "	"Frequency [Hz]"	"Sound Pessure Level [dB]  / [2.83V 1m] "	"Frequency [Hz]"	"Sound Pessure Level [dB]  / [2.83V 1m] "	"Frequency [Hz]"	"Sound Pessure Level [dB]  / [2.83V 1m] "	"Frequency [Hz]"	"Sound Pessure Level [dB]  / [2.83V 1m] "
20.5078	63.8128	20.5078	63.2402	20.5078	64.4782	20.5078	62.7597	20.5078	65.2246	20.5078	62.3637	20.5078	66.0255	20.5078	62.0428	20.5078	66.8389	20.5078	61.7898	20.5078	67.6113	20.5078	61.6016	20.5078	68.2835	20.5078	61.4792	20.5078	68.7973	20.5078	61.4265	20.5078	69.104	20.5078	61.4485	20.5078	69.1729	20.5078	61.5493	20.5078	68.9997	20.5078	61.7297	20.5078	68.6101	20.5078	61.9861	20.5078	68.0565	20.5078	62.3095	20.5078	67.4075	20.5078	62.6869	20.5078	66.7322	20.5078	63.1027	20.5078	66.0844	20.5078	63.5424	20.5078	65.492	20.5078	63.9965	20.5078	64.957	20.5078	64.4645
21.9727	67.944	21.9727	67.4563	21.9727	68.4993	21.9727	67.0352	21.9727	69.1162	21.9727	66.6756	21.9727	69.7783	21.9727	66.3714	21.9727	70.457	21.9727	66.117	21.9727	71.1125	21.9727	65.909	21.9727	71.6967	21.9727	65.7461	21.9727	72.1586	21.9727	65.6287	21.9727	72.453	21.9727	65.5591	21.9727	72.5493	21.9727	65.5403	21.9727	72.439	21.9727	65.5761	21.9727	72.1371	21.9727	65.6709	21.9727	71.676	21.9727	65.8292	21.9727	71.0965	21.9727	66.0563	21.9727	70.4396	21.9727	66.3579	21.9727	69.7432	21.9727	66.7392	21.9727	69.0423	21.9727	67.2037	21.9727	68.369	21.9727	67.75
23.4375	69.7468	23.4375	69.215	23.4375	70.3418	23.4375	68.7524	23.4375	70.9865	23.4375	68.3587	23.4375	71.6577	23.4375	68.03	23.4375	72.3232	23.4375	67.7615	23.4375	72.9427	23.4375	67.5486	23.4375	73.4703	23.4375	67.3883	23.4375	73.8594	23.4375	67.2798	23.4375	74.0701	23.4375	67.2234	23.4375	74.0772	23.4375	67.2208	23.4375	73.878	23.4375	67.2738	23.4375	73.4946	23.4375	67.384	23.4375	72.9684	23.4375	67.5521	23.4375	72.3497	23.4375	67.7784	23.4375	71.6872	23.4375	68.0627	23.4375	71.0223	23.4375	68.4055	23.4375	70.3862	23.4375	68.808	23.4375	69.7993	23.4375	69.2723
24.9023	72.0654	24.9023	71.6067	24.9023	72.5745	24.9023	71.2007	24.9023	73.126	24.9023	70.8468	24.9023	73.7043	24.9023	70.5426	24.9023	74.2846	24.9023	70.2854	24.9023	74.8319	24.9023	70.0731	24.9023	75.3029	24.9023	69.9043	24.9023	75.6506	24.9023	69.779	24.9023	75.833	24.9023	69.6979	24.9023	75.823	24.9023	69.6628	24.9023	75.6171	24.9023	69.6762	24.9023	75.2383	24.9023	69.7411	24.9023	74.7303	24.9023	69.8606	24.9023	74.1456	24.9023	70.0376	24.9023	73.5327	24.9023	70.2747	24.9023	72.9282	24.9023	70.573	24.9023	72.3556	24.9023	70.9326	24.9023	71.8276	24.9023	71.3518
26.3672	74.5769	26.3672	74.1473	26.3672	75.0496	26.3672	73.7653	26.3672	75.5561	26.3672	73.4318	26.3672	76.0815	26.3672	73.1458	26.3672	76.6032	26.3672	72.9052	26.3672	77.0914	26.3672	72.7076	26.3672	77.5092	26.3672	72.5509	26.3672	77.8168	26.3672	72.4337	26.3672	77.9772	26.3672	72.3558	26.3672	77.9662	26.3672	72.3179	26.3672	77.7795	26.3672	72.3217	26.3672	77.436	26.3672	72.3703	26.3672	76.9723	26.3672	72.4672	26.3672	76.4329	26.3672	72.6165	26.3672	75.8605	26.3672	72.8221	26.3672	75.2901	26.3672	73.0871	26.3672	74.7467	26.3672	73.4133	26.3672	74.247	26.3672	73.8007
27.832	75.3863	27.832	74.9196	27.832	75.8949	27.832	74.4987	27.832	76.4365	27.832	74.1244	27.832	76.9951	27.832	73.7958	27.832	77.5463	27.832	73.5113	27.832	78.0569	27.832	73.2695	27.832	78.4859	27.832	73.0694	27.832	78.7899	27.832	72.9104	27.832	78.9302	27.832	72.7928	27.832	78.8828	27.832	72.7176	27.832	78.6453	27.832	72.6872	27.832	78.2395	27.832	72.7046	27.832	77.7055	27.832	72.7746	27.832	77.0907	27.832	72.9029	27.832	76.4404	27.832	73.0959	27.832	75.7925	27.832	73.3601	27.832	75.1765	27.832	73.7004	27.832	74.6139	27.832	74.1192
29.2969	77.8098	29.2969	77.4105	29.2969	78.2432	29.2969	77.0507	29.2969	78.7018	29.2969	76.733	29.2969	79.1722	29.2969	76.4587	29.2969	79.6348	29.2969	76.2278	29.2969	80.0632	29.2969	76.0398	29.2969	80.4242	29.2969	75.894	29.2969	80.6815	29.2969	75.7899	29.2969	80.8012	29.2969	75.7271	29.2969	80.7618	29.2969	75.7059	29.2969	80.5618	29.2969	75.7268	29.2969	80.2232	29.2969	75.7906	29.2969	79.7855	29.2969	75.8983	29.2969	79.2952	29.2969	76.0504	29.2969	78.7939	29.2969	76.2469	29.2969	78.3115	29.2969	76.4869	29.2969	77.8642	29.2969	76.7693	29.2969	77.4578	29.2969	77.093
30.7617	79.3851	30.7617	78.9637	30.7617	79.8337	30.7617	78.5751	30.7617	80.3006	30.7617	78.2224	30.7617	80.7718	30.7617	77.9074	30.7617	81.2276	30.7617	77.6308	30.7617	81.6418	30.7617	77.3933	30.7617	81.9829	30.7617	77.1956	30.7617	82.217	30.7617	77.0384	30.7617	82.3137	30.7617	76.9226	30.7617	82.254	30.7617	76.8495	30.7617	82.0368	30.7617	76.8209	30.7617	81.6806	30.7617	76.8387	30.7617	81.2181	30.7617	76.9059	30.7617	80.6877	30.7617	77.0258	30.7617	80.1264	30.7617	77.2026	30.7617	79.5658	30.7617	77.4402	30.7617	79.0313	30.7617	77.7422	30.7617	78.5419	30.7617	78.11
32.2266	80.4519	32.2266	80.0525	32.2266	80.8787	32.2266	79.6867	32.2266	81.3237	32.2266	79.3581	32.2266	81.7734	32.2266	79.0693	32.2266	82.2084	32.2266	78.8215	32.2266	82.6036	32.2266	78.6158	32.2266	82.9279	32.2266	78.4526	32.2266	83.1486	32.2266	78.3325	32.2266	83.2365	32.2266	78.2556	32.2266	83.1743	32.2266	78.2222	32.2266	82.9635	32.2266	78.2326	32.2266	82.6253	32.2266	78.2867	32.2266	82.1956	32.2266	78.3846	32.2266	81.7152	32.2266	78.5261	32.2266	81.2212	32.2266	78.7112	32.2266	80.7418	32.2266	78.9397	32.2266	80.2948	32.2266	79.2119	32.2266	79.8892	32.2266	79.5282
33.6914	81.6708	33.6914	81.2844	33.6914	82.0796	33.6914	80.9268	33.6914	82.5015	33.6914	80.6021	33.6914	82.9232	33.6914	80.3131	33.6914	83.3267	33.6914	80.0612	33.6914	83.6886	33.6914	79.8473	33.6914	83.9807	33.6914	79.6721	33.6914	84.1731	33.6914	79.5355	33.6914	84.239	33.6914	79.438	33.6914	84.1626	33.6914	79.3796	33.6914	83.9452	33.6914	79.361	33.6914	83.6067	33.6914	79.383	33.6914	83.1803	33.6914	79.4474	33.6914	82.7032	33.6914	79.5561	33.6914	82.2092	33.6914	79.712	33.6914	81.7248	33.6914	79.918	33.6914	81.2691	33.6914	80.1767	33.6914	80.8546	33.6914	80.4892
35.1562	82.4626	35.1562	82.0801	35.1562	82.8655	35.1562	81.7247	35.1562	83.2794	35.1562	81.4011	35.1562	83.691	35.1562	81.1126	35.1562	84.0823	35.1562	80.8613	35.1562	84.4304	35.1562	80.6487	35.1562	84.7077	35.1562	80.4758	35.1562	84.8851	35.1562	80.343	35.1562	84.9372	35.1562	80.2509	35.1562	84.8501	35.1562	80.1995	35.1562	84.6265	35.1562	80.1892	35.1562	84.2879	35.1562	80.2204	35.1562	83.8682	35.1562	80.2935	35.1562	83.4051	35.1562	80.4093	35.1562	82.932	35.1562	80.5688	35.1562	82.4741	35.1562	80.773	35.1562	82.0473	35.1562	81.0227	35.1562	81.6607	35.1562	81.3186
36.6211	83.1329	36.6211	82.7619	36.6211	83.5229	36.6211	82.4172	36.6211	83.9221	36.6211	82.104	36.6211	84.3169	36.6211	81.826	36.6211	84.6896	36.6211	81.5856	36.6211	85.0181	36.6211	81.3844	36.6211	85.2763	36.6211	81.2231	36.6211	85.4373	36.6211	81.1022	36.6211	85.4779	36.6211	81.0214	36.6211	85.386	36.6211	80.9804	36.6211	85.1657	36.6211	80.9788	36.6211	84.8383	36.6211	81.0162	36.6211	84.4373	36.6211	81.0923	36.6211	83.9991	36.6211	81.2072	36.6211	83.5553	36.6211	81.3611	36.6211	83.1291	36.6211	81.5546	36.6211	82.7344	36.6211	81.7882	36.6211	82.3781	36.6211	82.0625
38.0859	83.5435	38.0859	83.1668	38.0859	83.935	38.0859	82.8124	38.0859	84.3316	38.0859	82.4856	38.0859	84.7202	38.0859	82.1907	38.0859	85.0839	38.0859	81.9305	38.0859	85.4011	38.0859	81.7074	38.0859	85.6467	38.0859	81.5229	38.0859	85.7944	38.0859	81.3779	38.0859	85.8219	38.0859	81.2732	38.0859	85.7175	38.0859	81.2091	38.0859	85.4853	38.0859	81.1857	38.0859	85.146	38.0859	81.2034	38.0859	84.7313	38.0859	81.2625	38.0859	84.276	38.0859	81.364	38.0859	83.8107	38.0859	81.509	38.0859	83.3592	38.0859	81.6993	38.0859	82.9379	38.0859	81.9367	38.0859	82.5571	38.0859	82.2226
39.5508	84.0597	39.5508	83.7	39.5508	84.4336	39.5508	83.3625	39.5508	84.8116	39.5508	83.0528	39.5508	85.1801	39.5508	82.7752	39.5508	85.5223	39.5508	82.5327	39.5508	85.8175	39.5508	82.327	39.5508	86.0419	39.5508	82.1595	39.5508	86.1713	39.5508	82.0305	39.5508	86.1856	39.5508	81.9403	39.5508	86.0749	39.5508	81.8888	39.5508	85.8451	39.5508	81.876	39.5508	85.5179	39.5508	81.9016	39.5508	85.1257	39.5508	81.9655	39.5508	84.7032	39.5508	82.0679	39.5508	84.2795	39.5508	82.2088	39.5508	83.875	39.5508	82.3887	39.5508	83.5015	39.5508	82.6079	39.5508	83.1646	39.5508	82.8665
41.0156	84.2584	41.0156	83.8941	41.0156	84.6343	41.0156	83.5495	41.0156	85.0116	41.0156	83.2307	41.0156	85.3771	41.0156	82.9424	41.0156	85.7143	41.0156	82.6881	41.0156	86.0029	41.0156	82.4703	41.0156	86.2196	41.0156	82.2908	41.0156	86.3407	41.0156	82.1504	41.0156	86.3468	41.0156	82.0499	41.0156	86.2286	41.0156	81.9892	41.0156	85.9923	41.0156	81.9684	41.0156	85.6591	41.0156	81.9875	41.0156	85.2606	41.0156	82.0463	41.0156	84.8302	41.0156	82.145	41.0156	84.3969	41.0156	82.2839	41.0156	83.9815	41.0156	82.4634	41.0156	83.5973	41.0156	82.6841	41.0156	83.2513	41.0156	82.9466
42.4805	84.6369	42.4805	84.2737	42.4805	85.0097	42.4805	83.9287	42.4805	85.3814	42.4805	83.6089	42.4805	85.7385	42.4805	83.3195	42.4805	86.0645	42.4805	83.0641	42.4805	86.3398	42.4805	82.8457	42.4805	86.5425	42.4805	82.6657	42.4805	86.6505	42.4805	82.5251	42.4805	86.6462	42.4805	82.4244	42.4805	86.5218	42.4805	82.3634	42.4805	86.2841	42.4805	82.3422	42.4805	85.9546	42.4805	82.3604	42.4805	85.564	42.4805	82.4181	42.4805	85.1443	42.4805	82.5153	42.4805	84.7228	42.4805	82.6522	42.4805	84.3185	42.4805	82.8292	42.4805	83.9435	42.4805	83.0467	42.4805	83.6047	42.4805	83.3053
43.9453	84.8285	43.9453	84.4661	43.9453	85.1984	43.9453	84.1201	43.9453	85.5647	43.9453	83.7983	43.9453	85.9142	43.9453	83.5066	43.9453	86.2307	43.9453	83.2501	43.9453	86.4952	43.9453	83.0322	43.9453	86.6865	43.9453	82.8552	43.9453	86.7834	43.9453	82.7204	43.9453	86.7693	43.9453	82.6278	43.9453	86.6374	43.9453	82.5769	43.9453	86.3954	43.9453	82.5665	43.9453	86.0654	43.9453	82.5953	43.9453	85.6785	43.9453	82.6618	43.9453	85.2678	43.9453	82.7646	43.9453	84.8605	43.9453	82.9027	43.9453	84.4754	43.9453	83.0756	43.9453	84.1226	43.9453	83.2834	43.9453	83.8061	43.9453	83.5266
45.4102	85.0768	45.4102	84.7117	45.4102	85.4458	45.4102	84.3602	45.4102	85.8076	45.4102	84.0303	45.4102	86.1489	45.4102	83.7292	45.4102	86.4542	45.4102	83.4625	45.4102	86.705	45.4102	83.2349	45.4102	86.8815	45.4102	83.0494	45.4102	86.9638	45.4102	82.9078	45.4102	86.9365	45.4102	82.8105	45.4102	86.7938	45.4102	82.7565	45.4102	86.5437	45.4102	82.7441	45.4102	86.2081	45.4102	82.771	45.4102	85.8176	45.4102	82.835	45.4102	85.4044	45.4102	82.9339	45.4102	84.9954	45.4102	83.0666	45.4102	84.6095	45.4102	83.2327	45.4102	84.2574	45.4102	83.4331	45.4102	83.9439	45.4102	83.6695
46.875	85.3161	46.875	84.9619	46.875	85.6737	46.875	84.62	46.875	86.0241	46.875	84.2982	46.875	86.3548	46.875	84.0034	46.875	86.6506	46.875	83.7415	46.875	86.8938	46.875	83.5172	46.875	87.065	46.875	83.3341	46.875	87.1452	46.875	83.1945	46.875	87.12	46.875	83.0991	46.875	86.9845	46.875	83.0476	46.875	86.7472	46.875	83.0381	46.875	86.4295	46.875	83.0686	46.875	86.0604	46.875	83.1366	46.875	85.6695	46.875	83.2398	46.875	85.2809	46.875	83.3768	46.875	84.9111	46.875	83.547	46.875	84.5698	46.875	83.7507	46.875	84.2618	46.875	83.9887
48.3398	85.5619	48.3398	85.2089	48.3398	85.9164	48.3398	84.8667	48.3398	86.2615	48.3398	84.5438	48.3398	86.5844	48.3398	84.2472	48.3398	86.8701	48.3398	83.9832	48.3398	87.1015	48.3398	83.7571	48.3398	87.2601	48.3398	83.5728	48.3398	87.328	48.3398	83.4327	48.3398	87.2921	48.3398	83.3378	48.3398	87.1484	48.3398	83.2876	48.3398	86.9062	48.3398	83.2803	48.3398	86.5868	48.3398	83.3131	48.3398	86.2194	48.3398	83.3831	48.3398	85.8333	48.3398	83.4872	48.3398	85.4527	48.3398	83.623	48.3398	85.094	48.3398	83.7891	48.3398	84.7661	48.3398	83.9853	48.3398	84.4723	48.3398	84.2125
51.2695	86.0097	51.2695	85.6711	51.2695	86.3466	51.2695	85.34	51.2695	86.6716	51.2695	85.0243	51.2695	86.9722	51.2695	84.7308	51.2695	87.2342	51.2695	84.4656	51.2695	87.4416	51.2695	84.2338	51.2695	87.5771	51.2695	84.0395	51.2695	87.6248	51.2695	83.8857	51.2695	87.5734	51.2695	83.7741	51.2695	87.4204	51.2695	83.7052	51.2695	87.1756	51.2695	83.6783	51.2695	86.86	51.2695	83.692	51.2695	86.5007	51.2695	83.7443	51.2695	86.1248	51.2695	83.8331	51.2695	85.7538	51.2695	83.9568	51.2695	85.4024	51.2695	84.1143	51.2695	85.079	51.2695	84.3052	51.2695	84.7876	51.2695	84.5296
52.7344	86.0388	52.7344	85.7008	52.7344	86.3743	52.7344	85.3695	52.7344	86.6968	52.7344	85.0528	52.7344	86.994	52.7344	84.7576	52.7344	87.2515	52.7344	84.49	52.7344	87.4531	52.7344	84.2553	52.7344	87.5815	52.7344	84.0577	52.7344	87.6208	52.7344	83.9005	52.7344	87.56	52.7344	83.7855	52.7344	87.3974	52.7344	83.7135	52.7344	87.1439	52.7344	83.6839	52.7344	86.8213	52.7344	83.6952	52.7344	86.4573	52.7344	83.7454	52.7344	86.0792	52.7344	83.8319	52.7344	85.7088	52.7344	83.9526	52.7344	85.3605	52.7344	84.1059	52.7344	85.0426	52.7344	84.291	52.7344	84.7584	52.7344	84.5082
54.1992	86.2656	54.1992	85.9244	54.1992	86.6031	54.1992	85.5892	54.1992	86.9256	54.1992	85.2684	54.1992	87.2205	54.1992	84.9696	54.1992	87.4733	54.1992	84.699	54.1992	87.6681	54.1992	84.462	54.1992	87.7885	54.1992	84.2626	54.1992	87.8199	54.1992	84.1037	54.1992	87.7527	54.1992	83.9872	54.1992	87.5865	54.1992	83.9135	54.1992	87.3326	54.1992	83.8823	54.1992	87.0127	54.1992	83.8921	54.1992	86.6538	54.1992	83.9413	54.1992	86.2816	54.1992	84.0276	54.1992	85.9163	54.1992	84.1492	54.1992	85.5711	54.1992	84.3045	54.1992	85.2535	54.1992	84.4928	54.1992	84.9673	54.1992	84.7136
55.6641	86.4752	55.6641	86.1304	55.6641	86.8153	55.6641	85.7909	55.6641	87.1394	55.6641	85.4657	55.6641	87.4344	55.6641	85.1628	55.6641	87.686	55.6641	84.8892	55.6641	87.8783	55.6641	84.6505	55.6641	87.9951	55.6641	84.4514	55.6641	88.0219	55.6641	84.295	55.6641	87.9496	55.6641	84.183	55.6641	87.7787	55.6641	84.1156	55.6641	87.5211	55.6641	84.0918	55.6641	87.1995	55.6641	84.1096	55.6641	86.8414	55.6641	84.1663	55.6641	86.4729	55.6641	84.259	55.6641	86.1141	55.6641	84.3851	55.6641	85.7776	55.6641	84.5423	55.6641	85.4698	55.6641	84.7294	55.6641	85.1926	55.6641	84.946
58.5938	86.9469	58.5938	86.6071	58.5938	87.2806	58.5938	86.2714	58.5938	87.5968	58.5938	85.9495	58.5938	87.8829	58.5938	85.6498	58.5938	88.1248	58.5938	85.3801	58.5938	88.3077	58.5938	85.1465	58.5938	88.4163	58.5938	84.954	58.5938	88.4377	58.5938	84.8059	58.5938	88.3648	58.5938	84.7036	58.5938	88.1996	58.5938	84.6469	58.5938	87.9554	58.5938	84.6343	58.5938	87.6546	58.5938	84.6632	58.5938	87.3227	58.5938	84.7303	58.5938	86.9823	58.5938	84.832	58.5938	86.6496	58.5938	84.9654	58.5938	86.3346	58.5938	85.1277	58.5938	86.0423	58.5938	85.3173	58.5938	85.7749	58.5938	85.5331
60.0586	87.1251	60.0586	86.7871	60.0586	87.4562	60.0586	86.4528	60.0586	87.7687	60.0586	86.1319	60.0586	88.0499	60.0586	85.8332	60.0586	88.2857	60.0586	85.5646	60.0586	88.4612	60.0586	85.3326	60.0586	88.5616	60.0586	85.1423	60.0586	88.5744	60.0586	84.997	60.0586	88.4935	60.0586	84.8982	60.0586	88.3218	60.0586	84.8456	60.0586	88.0739	60.0586	84.8374	60.0586	87.7729	60.0586	84.8704	60.0586	87.4449	60.0586	84.941	60.0586	87.1126	60.0586	85.0449	60.0586	86.7916	60.0586	85.1785	60.0586	86.4907	60.0586	85.3385	60.0586	86.2132	60.0586	85.5226	60.0586	85.9597	60.0586	85.7297
62.9883	87.5315	62.9883	87.186	62.9883	87.8669	62.9883	86.8417	62.9883	88.18	62.9883	86.509	62.9883	88.458	62.9883	86.1977	62.9883	88.6867	62.9883	85.9168	62.9883	88.8515	62.9883	85.6736	62.9883	88.9382	62.9883	85.4739	62.9883	88.9353	62.9883	85.3216	62.9883	88.8378	62.9883	85.2182	62.9883	88.65	62.9883	85.1631	62.9883	88.3878	62.9883	85.1539	62.9883	88.0754	62.9883	85.1868	62.9883	87.7397	62.9883	85.2573	62.9883	87.4034	62.9883	85.3606	62.9883	87.0818	62.9883	85.4926	62.9883	86.7827	62.9883	85.6499	62.9883	86.5085	62.9883	85.8305	62.9883	86.2592	62.9883	86.0335
64.4531	87.689	64.4531	87.3408	64.4531	88.026	64.4531	86.993	64.4531	88.3395	64.4531	86.6565	64.4531	88.6164	64.4531	86.3416	64.4531	88.8425	64.4531	86.0576	64.4531	89.0035	64.4531	85.8124	64.4531	89.0854	64.4531	85.612	64.4531	89.0773	64.4531	85.4602	64.4531	88.9747	64.4531	85.3587	64.4531	88.7829	64.4531	85.3065	64.4531	88.5183	64.4531	85.301	64.4531	88.2055	64.4531	85.3379	64.4531	87.8715	64.4531	85.4123	64.4531	87.5392	64.4531	85.519	64.4531	87.2231	64.4531	85.6536	64.4531	86.9302	64.4531	85.8124	64.4531	86.6619	64.4531	85.9932	64.4531	86.4173	64.4531	86.1947
67.3828	88.0383	67.3828	87.6769	67.3828	88.3844	67.3828	87.3119	67.3828	88.7026	67.3828	86.9549	67.3828	88.98	67.3828	86.6172	67.3828	89.2031	67.3828	86.3092	67.3828	89.3579	67.3828	86.0401	67.3828	89.4315	67.3828	85.8176	67.3828	89.4142	67.3828	85.6472	67.3828	89.3029	67.3828	85.5314	67.3828	89.1036	67.3828	85.4702	67.3828	88.8328	67.3828	85.4614	67.3828	88.5144	67.3828	85.5004	67.3828	88.1743	67.3828	85.5818	67.3828	87.8346	67.3828	85.6995	67.3828	87.5099	67.3828	85.8478	67.3828	87.2071	67.3828	86.0219	67.3828	86.9278	67.3828	86.2182	67.3828	86.6709	67.3828	86.4346
68.8477	88.2679	68.8477	87.9064	68.8477	88.6119	68.8477	87.5391	68.8477	88.926	68.8477	87.1778	68.8477	89.1977	68.8477	86.8339	68.8477	89.4137	68.8477	86.5184	68.8477	89.5611	68.8477	86.2413	68.8477	89.6279	68.8477	86.0108	68.8477	89.6056	68.8477	85.8332	68.8477	89.4919	68.8477	85.7119	68.8477	89.2941	68.8477	85.6476	68.8477	89.0287	68.8477	85.6384	68.8477	88.7191	68.8477	85.68	68.8477	88.3897	68.8477	85.767	68.8477	88.0604	68.8477	85.8927	68.8477	87.7438	68.8477	86.0507	68.8477	87.446	68.8477	86.2352	68.8477	87.1679	68.8477	86.4415	68.8477	86.9084	68.8477	86.6664
71.7773	88.7645	71.7773	88.4105	71.7773	89.0964	71.7773	88.0461	71.7773	89.3943	71.7773	87.6832	71.7773	89.6462	71.7773	87.3336	71.7773	89.8399	71.7773	87.0092	71.7773	89.963	71.7773	86.7213	71.7773	90.0049	71.7773	86.4794	71.7773	89.9585	71.7773	86.291	71.7773	89.8237	71.7773	86.1606	71.7773	89.6097	71.7773	86.0896	71.7773	89.3352	71.7773	86.0759	71.7773	89.025	71.7773	86.1152	71.7773	88.7036	71.7773	86.201	71.7773	88.3894	71.7773	86.3259	71.7773	88.0921	71.7773	86.4825	71.7773	87.8144	71.7773	86.664	71.7773	87.555	71.7773	86.8649	71.7773	87.3112	71.7773	87.0812
74.707	89.1811	74.707	88.8427	74.707	89.4973	74.707	88.4934	74.707	89.7799	74.707	88.1446	74.707	90.0166	74.707	87.8075	74.707	90.1952	74.707	87.4935	74.707	90.3032	74.707	87.2135	74.707	90.3302	74.707	86.9772	74.707	90.2695	74.707	86.7924	74.707	90.1218	74.707	86.6642	74.707	89.8975	74.707	86.594	74.707	89.6169	74.707	86.5801	74.707	89.3057	74.707	86.6175	74.707	88.9895	74.707	86.699	74.707	88.6867	74.707	86.8166	74.707	88.407	74.707	86.9618	74.707	88.1521	74.707	87.1274	74.707	87.919	74.707	87.3079	74.707	87.7029	74.707	87.4999
77.6367	89.4797	77.6367	89.1404	77.6367	89.7975	77.6367	88.7921	77.6367	90.0813	77.6367	88.4472	77.6367	90.318	77.6367	88.1176	77.6367	90.4946	77.6367	87.815	77.6367	90.599	77.6367	87.5499	77.6367	90.621	77.6367	87.3313	77.6367	90.5554	77.6367	87.1657	77.6367	90.4045	77.6367	87.0567	77.6367	90.1811	77.6367	87.0045	77.6367	89.9069	77.6367	87.006	77.6367	89.6087	77.6367	87.0557	77.6367	89.3111	77.6367	87.146	77.6367	89.0307	77.6367	87.2687	77.6367	88.7747	77.6367	87.4155	77.6367	88.5423	77.6367	87.5794	77.6367	88.329	77.6367	87.7548	77.6367	88.1291	77.6367	87.9383
79.1016	89.6282	79.1016	89.2828	79.1016	89.95	79.1016	88.9268	79.1016	90.2351	79.1016	88.573	79.1016	90.4706	79.1016	88.2342	79.1016	90.6435	79.1016	87.9224	79.1016	90.7415	79.1016	87.6492	79.1016	90.755	79.1016	87.424	79.1016	90.6791	79.1016	87.2538	79.1016	90.5171	79.1016	87.1424	79.1016	90.2824	79.1016	87.0901	79.1016	89.9984	79.1016	87.0936	79.1016	89.6929	79.1016	87.1468	79.1016	89.3914	79.1016	87.2415	79.1016	89.1107	79.1016	87.3687	79.1016	88.8575	79.1016	87.5192	79.1016	88.6302	79.1016	87.6853	79.1016	88.4228	79.1016	87.8608	79.1016	88.2286	79.1016	88.0421
82.0312	89.9248	82.0312	89.5728	82.0312	90.2501	82.0312	89.2074	82.0312	90.5354	82.0312	88.8421	82.0312	90.7674	82.0312	88.4901	82.0312	90.9329	82.0312	88.1645	82.0312	91.0199	82.0312	87.8771	82.0312	91.0186	82.0312	87.6381	82.0312	90.9244	82.0312	87.4553	82.0312	90.7412	82.0312	87.333	82.0312	90.4839	82.0312	87.272	82.0312	90.1778	82.0312	87.2693	82.0312	89.8536	82.0312	87.3187	82.0312	89.539	82.0312	87.4117	82.0312	89.252	82.0312	87.5386	82.0312	88.9986	82.0312	87.6892	82.0312	88.7754	82.0312	87.8546	82.0312	88.5741	82.0312	88.028	82.0312	88.3863	82.0312	88.2053
84.9609	90.1448	84.9609	89.7906	84.9609	90.4689	84.9609	89.4196	84.9609	90.75	84.9609	89.0454	84.9609	90.9752	84.9609	88.6818	84.9609	91.1324	84.9609	88.3424	84.9609	91.2101	84.9609	88.0396	84.9609	91.1996	84.9609	87.7846	84.9609	91.0971	84.9609	87.5854	84.9609	90.9064	84.9609	87.4471	84.9609	90.6414	84.9609	87.3709	84.9609	90.3249	84.9609	87.3542	84.9609	89.9848	84.9609	87.391	84.9609	89.6479	84.9609	87.4727	84.9609	89.3345	84.9609	87.5893	84.9609	89.0556	84.9609	87.7307	84.9609	88.8123	84.9609	87.8877	84.9609	88.5987	84.9609	88.0538	84.9609	88.4061	84.9609	88.2262
87.8906	90.1854	87.8906	89.8347	87.8906	90.5053	87.8906	89.4669	87.8906	90.7813	87.8906	89.096	87.8906	91.0007	87.8906	88.7361	87.8906	91.1516	87.8906	88.4012	87.8906	91.2241	87.8906	88.1043	87.8906	91.2115	87.8906	87.8562	87.8906	91.1134	87.8906	87.6649	87.8906	90.9368	87.8906	87.5348	87.8906	90.6981	87.8906	87.4662	87.8906	90.4199	87.8906	87.4561	87.8906	90.1259	87.8906	87.4984	87.8906	89.8345	87.8906	87.5851	87.8906	89.5561	87.8906	87.7072	87.8906	89.2947	87.8906	87.8562	87.8906	89.0504	87.8906	88.0248	87.8906	88.8216	87.8906	88.2077	87.8906	88.606	87.8906	88.4017
90.8203	90.2534	90.8203	89.8701	90.8203	90.6026	90.8203	89.4689	90.8203	90.9021	90.8203	89.0667	90.8203	91.1374	90.8203	88.6803	90.8203	91.2951	90.8203	88.3263	90.8203	91.3643	90.8203	88.0195	90.8203	91.3384	90.8203	87.772	90.8203	91.2176	90.8203	87.592	90.8203	91.0118	90.8203	87.4832	90.8203	90.7429	90.8203	87.4442	90.8203	90.4416	90.8203	87.4698	90.8203	90.1399	90.8203	87.5514	90.8203	89.8618	90.8203	87.6786	90.8203	89.6168	90.8203	87.8402	90.8203	89.4017	90.8203	88.0253	90.8203	89.2057	90.8203	88.2241	90.8203	89.0169	90.8203	88.4278	90.8203	88.8264	90.8203	88.6299
95.2148	90.4792	95.2148	90.1132	95.2148	90.8037	95.2148	89.72	95.2148	91.0736	95.2148	89.3159	95.2148	91.2771	95.2148	88.918	95.2148	91.4042	95.2148	88.5443	95.2148	91.4465	95.2148	88.2119	95.2148	91.3997	95.2148	87.936	95.2148	91.2654	95.2148	87.7279	95.2148	91.0546	95.2148	87.5934	95.2148	90.7877	95.2148	87.5329	95.2148	90.4914	95.2148	87.541	95.2148	90.1913	95.2148	87.6081	95.2148	89.9052	95.2148	87.7219	95.2148	89.6407	95.2148	87.8691	95.2148	89.3988	95.2148	88.0376	95.2148	89.1768	95.2148	88.2173	95.2148	88.9709	95.2148	88.4016	95.2148	88.7762	95.2148	88.5876
98.1445	90.3796	98.1445	89.9945	98.1445	90.7199	98.1445	89.5808	98.1445	91.0005	98.1445	89.1559	98.1445	91.2081	98.1445	88.7387	98.1445	91.3304	98.1445	88.3483	98.1445	91.358	98.1445	88.0027	98.1445	91.2858	98.1445	87.7177	98.1445	91.1167	98.1445	87.5043	98.1445	90.8648	98.1445	87.3681	98.1445	90.5568	98.1445	87.3084	98.1445	90.2281	98.1445	87.3195	98.1445	89.9122	98.1445	87.3914	98.1445	89.6306	98.1445	87.5118	98.1445	89.3878	98.1445	87.6676	98.1445	89.1761	98.1445	87.8465	98.1445	88.9835	98.1445	88.0375	98.1445	88.7987	98.1445	88.2324	98.1445	88.614	98.1445	88.4254
101.074	90.4018	101.074	89.9973	101.074	90.7561	101.074	89.5602	101.074	91.0445	101.074	89.1101	101.074	91.2529	101.074	88.6683	101.074	91.3692	101.074	88.2569	101.074	91.3843	101.074	87.8971	101.074	91.2938	101.074	87.607	101.074	91.1022	101.074	87.399	101.074	90.8257	101.074	87.278	101.074	90.4946	101.074	87.2412	101.074	90.1481	101.074	87.2795	101.074	89.8243	101.074	87.3792	101.074	89.5468	101.074	87.5249	101.074	89.3198	101.074	87.7011	101.074	89.1324	101.074	87.8941	101.074	88.9674	101.074	88.0923	101.074	88.8089	101.074	88.287	101.074	88.646	101.074	88.4724
105.469	90.5753	105.469	90.1487	105.469	90.9367	105.469	89.6741	105.469	91.2175	105.469	89.1716	105.469	91.4043	105.469	88.6641	105.469	91.4857	105.469	88.177	105.469	91.4527	105.469	87.7364	105.469	91.3011	105.469	87.3671	105.469	91.0354	105.469	87.0883	105.469	90.6732	105.469	86.9107	105.469	90.2486	105.469	86.8342	105.469	89.8085	105.469	86.8489	105.469	89.4012	105.469	86.9379	105.469	89.0606	105.469	87.0813	105.469	88.7967	105.469	87.2589	105.469	88.5979	105.469	87.4531	105.469	88.4411	105.469	87.6492	105.469	88.302	105.469	87.8363	105.469	88.1614	105.469	88.0077
108.398	90.8958	108.398	90.4658	108.398	91.2527	108.398	89.9782	108.398	91.5229	108.398	89.4517	108.398	91.6946	108.398	88.9077	108.398	91.7576	108.398	88.3711	108.398	91.7041	108.398	87.8692	108.398	91.5309	108.398	87.4295	108.398	91.2427	108.398	87.0769	108.398	90.8574	108.398	86.8288	108.398	90.408	108.398	86.6927	108.398	89.9405	108.398	86.6641	108.398	89.5021	108.398	86.7288	108.398	89.1268	108.398	86.8658	108.398	88.8263	108.398	87.0521	108.398	88.592	108.398	87.265	108.398	88.4032	108.398	87.4851	108.398	88.2365	108.398	87.6977	108.398	88.0713	108.398	87.8937
112.793	91.1327	112.793	90.7292	112.793	91.4636	112.793	90.2674	112.793	91.7094	112.793	89.7643	112.793	91.859	112.793	89.24	112.793	91.9024	112.793	88.7183	112.793	91.832	112.793	88.2262	112.793	91.6444	112.793	87.7916	112.793	91.3442	112.793	87.4408	112.793	90.9489	112.793	87.1934	112.793	90.4921	112.793	87.0589	112.793	90.0212	112.793	87.0343	112.793	89.5868	112.793	87.1051	112.793	89.2265	112.793	87.2487	112.793	88.9534	112.793	87.439	112.793	88.7562	112.793	87.6505	112.793	88.6104	112.793	87.8612	112.793	88.4877	112.793	88.0549	112.793	88.3642	112.793	88.2227
117.188	90.9845	117.188	90.5946	117.188	91.3019	117.188	90.1456	117.188	91.5349	117.188	89.6527	117.188	91.6727	117.188	89.134	117.188	91.7057	117.188	88.6104	117.188	91.6263	117.188	88.1052	117.188	91.431	117.188	87.6441	117.188	91.1242	117.188	87.2521	117.188	90.7228	117.188	86.9511	117.188	90.2593	117.188	86.7558	117.188	89.7801	117.188	86.6705	117.188	89.3345	117.188	86.6877	117.188	88.9588	117.188	86.7901	117.188	88.6649	117.188	86.954	117.188	88.441	117.188	87.1542	117.188	88.2626	117.188	87.3675	117.188	88.1037	117.188	87.5763	117.188	87.9437	117.188	87.7694
120.117	90.92	120.117	90.529	120.117	91.2371	120.117	90.0781	120.117	91.4679	120.117	89.5833	120.117	91.6011	120.117	89.0634	120.117	91.6269	120.117	88.5397	120.117	91.5372	120.117	88.036	120.117	91.3286	120.117	87.5772	120.117	91.0055	120.117	87.187	120.117	90.5854	120.117	86.8855	120.117	90.1022	120.117	86.6853	120.117	89.604	120.117	86.5899	120.117	89.1425	120.117	86.5926	120.117	88.7565	120.117	86.6783	120.117	88.4593	120.117	86.8258	120.117	88.2388	120.117	87.012	120.117	88.0681	120.117	87.2145	120.117	87.9188	120.117	87.4151	120.117	87.7677	120.117	87.6012
124.512	90.7869	124.512	90.4018	124.512	91.1009	124.512	89.9603	124.512	91.3309	124.512	89.4787	124.512	91.4652	124.512	88.9757	124.512	91.4933	124.512	88.4728	124.512	91.4077	124.512	87.9935	124.512	91.2053	124.512	87.5625	124.512	90.8916	124.512	87.2033	124.512	90.4846	124.512	86.9351	124.512	90.0184	124.512	86.7695	124.512	89.5409	124.512	86.708	124.512	89.1036	124.512	86.7417	124.512	88.7453	124.512	86.8529	124.512	88.4794	124.512	87.0187	124.512	88.2927	124.512	87.2145	124.512	88.1569	124.512	87.4176	124.512	88.0412	124.512	87.6096	124.512	87.9204	124.512	87.7784
128.906	90.3973	128.906	89.9954	128.906	90.7254	128.906	89.5362	128.906	90.9652	128.906	89.0386	128.906	91.1042	128.906	88.5242	128.906	91.1322	128.906	88.017	128.906	91.0422	128.906	87.543	128.906	90.8329	128.906	87.1283	128.906	90.5122	128.906	86.7968	128.906	90.1016	128.906	86.5669	128.906	89.6392	128.906	86.4479	128.906	89.1772	128.906	86.4383	128.906	88.7704	128.906	86.5256	128.906	88.4578	128.906	86.6891	128.906	88.249	128.906	86.9027	128.906	88.1239	128.906	87.1393	128.906	88.0457	128.906	87.3735	128.906	87.9763	128.906	87.5843	128.906	87.8859	128.906	87.757
133.301	90.2261	133.301	89.8079	133.301	90.5632	133.301	89.3261	133.301	90.8043	133.301	88.8012	133.301	90.9369	133.301	88.2567	133.301	90.9512	133.301	87.7188	133.301	90.8408	133.301	87.2156	133.301	90.605	133.301	86.7759	133.301	90.2522	133.301	86.4264	133.301	89.8048	133.301	86.1889	133.301	89.303	133.301	86.0754	133.301	88.8038	133.301	86.0857	133.301	88.3699	133.301	86.206	133.301	88.0495	133.301	86.4111	133.301	87.8568	133.301	86.6685	133.301	87.7691	133.301	86.9436	133.301	87.7417	133.301	87.2038	133.301	87.7257	133.301	87.4229	133.301	87.6815	133.301	87.5838
139.16	89.969	139.16	89.5589	139.16	90.2886	139.16	89.0732	139.16	90.506	139.16	88.531	139.16	90.6123	139.16	87.9557	139.16	90.6007	139.16	87.3755	139.16	90.4673	139.16	86.8218	139.16	90.2122	139.16	86.3274	139.16	89.8429	139.16	85.9231	139.16	89.3775	139.16	85.6336	139.16	88.8484	139.16	85.4731	139.16	88.3033	139.16	85.4424	139.16	87.7995	139.16	85.5282	139.16	87.3905	139.16	85.7045	139.16	87.1085	139.16	85.9374	139.16	86.9513	139.16	86.1897	139.16	86.8855	139.16	86.4265	139.16	86.861	139.16	86.6202	139.16	86.8292	139.16	86.7547
143.555	89.5053	143.555	89.0958	143.555	89.8268	143.555	88.6131	143.555	90.0492	143.555	88.0756	143.555	90.1633	143.555	87.5066	143.555	90.1627	143.555	86.934	143.555	90.0433	143.555	86.3888	143.555	89.8059	143.555	85.9026	143.555	89.4583	143.555	85.5042	143.555	89.019	143.555	85.2153	143.555	88.5192	143.555	85.0473	143.555	88.0018	143.555	84.9997	143.555	87.5154	143.555	85.0604	143.555	87.1039	143.555	85.2074	143.555	86.7939	143.555	85.4117	143.555	86.5867	143.555	85.6408	143.555	86.4606	143.555	85.8636	143.555	86.3795	143.555	86.0553	143.555	86.3038	143.555	86.2017
147.949	89.1308	147.949	88.7093	147.949	89.4585	147.949	88.2098	147.949	89.6799	147.949	87.6523	147.949	89.7858	147.949	87.0621	147.949	89.7698	147.949	86.4703	147.949	89.6306	147.949	85.913	147.949	89.3736	147.949	85.4288	147.949	89.0139	147.949	85.0523	147.949	88.578	147.949	84.8076	147.949	88.1032	147.949	84.7018	147.949	87.6327	147.949	84.7247	147.949	87.2076	147.949	84.8514	147.949	86.8585	147.949	85.0493	147.949	86.5994	147.949	85.2842	147.949	86.4254	147.949	85.5245	147.949	86.3154	147.949	85.7447	147.949	86.2389	147.949	85.9276	147.949	86.1645	147.949	86.0661
153.809	89.0978	153.809	88.6601	153.809	89.4139	153.809	88.1155	153.809	89.5976	153.809	87.4843	153.809	89.6419	153.809	86.7929	153.809	89.5432	153.809	86.075	153.809	89.3014	153.809	85.3718	153.809	88.9229	153.809	84.7302	153.809	88.4243	153.809	84.1984	153.809	87.8378	153.809	83.8173	153.809	87.2146	153.809	83.6096	153.809	86.621	153.809	83.5741	153.809	86.1231	153.809	83.6859	153.809	85.7638	153.809	83.9048	153.809	85.5459	153.809	84.1851	153.809	85.437	153.809	84.4835	153.809	85.3879	153.809	84.7637	153.809	85.351	153.809	84.9992	153.809	85.2884	153.809	85.1748
159.668	89.2293	159.668	88.845	159.668	89.4959	159.668	88.3524	159.668	89.6388	159.668	87.7658	159.668	89.6545	159.668	87.1051	159.668	89.5413	159.668	86.397	159.668	89.3002	159.668	85.6757	159.668	88.9366	159.668	84.9829	159.668	88.464	159.668	84.3664	159.668	87.9072	159.668	83.8743	159.668	87.3045	159.668	83.5461	159.668	86.7054	159.668	83.4006	159.668	86.1642	159.668	83.4288	159.668	85.7284	159.668	83.5965	159.668	85.4228	159.668	83.8543	159.668	85.2392	159.668	84.1498	159.668	85.1398	159.668	84.4375	159.668	85.074	159.668	84.6838	159.668	84.9951	159.668	84.8703
165.527	89.0977	165.527	88.7414	165.527	89.3369	165.527	88.2768	165.527	89.4534	165.527	87.7174	165.527	89.4431	165.527	87.0837	165.527	89.3034	165.527	86.4044	165.527	89.0347	165.527	85.7164	165.527	88.644	165.527	85.0632	165.527	88.1489	165.527	84.4908	165.527	87.5817	165.527	84.0405	165.527	86.9897	165.527	83.7415	165.527	86.4299	165.527	83.605	165.527	85.9568	165.527	83.6226	165.527	85.6085	165.527	83.7689	165.527	85.3948	165.527	84.007	165.527	85.2941	165.527	84.2939	165.527	85.2598	165.527	84.5864	165.527	85.2357	165.527	84.8465	165.527	85.1742	165.527	85.0467
171.387	88.7558	171.387	88.4096	171.387	88.9987	171.387	87.9677	171.387	89.1307	171.387	87.4391	171.387	89.1439	171.387	86.8372	171.387	89.0305	171.387	86.1825	171.387	88.7858	171.387	85.5065	171.387	88.4108	171.387	84.8533	171.387	87.9155	171.387	84.2781	171.387	87.3233	171.387	83.8373	171.387	86.6737	171.387	83.5718	171.387	86.0245	171.387	83.4905	171.387	85.4476	171.387	83.5677	171.387	85.0147	171.387	83.7557	171.387	84.7686	171.387	84.0025	171.387	84.6984	171.387	84.2632	171.387	84.7413	171.387	84.5022	171.387	84.8143	171.387	84.6919	171.387	84.8497	171.387	84.8114
177.246	88.0316	177.246	87.7339	177.246	88.2364	177.246	87.3572	177.246	88.3351	177.246	86.9144	177.246	88.3176	177.246	86.4165	177.246	88.1784	177.246	85.8734	177.246	87.9191	177.246	85.2968	177.246	87.5489	177.246	84.7046	177.246	87.0859	177.246	84.1263	177.246	86.5571	177.246	83.6056	177.246	85.9957	177.246	83.1964	177.246	85.4361	177.246	82.9482	177.246	84.9111	177.246	82.884	177.246	84.4558	177.246	82.9867	177.246	84.1116	177.246	83.2043	177.246	83.9149	177.246	83.4696	177.246	83.8668	177.246	83.7183	177.246	83.9161	177.246	83.9006	177.246	83.9805	177.246	83.9878
183.105	86.9418	183.105	86.5704	183.105	87.2152	183.105	86.1211	183.105	87.3762	183.105	85.6197	183.105	87.415	183.105	85.095	183.105	87.3258	183.105	84.5749	183.105	87.1074	183.105	84.0822	183.105	86.7667	183.105	83.6325	183.105	86.323	183.105	83.2372	183.105	85.8106	183.105	82.9078	183.105	85.2781	183.105	82.6605	183.105	84.7813	183.105	82.515	183.105	84.3716	183.105	82.4874	183.105	84.0782	183.105	82.5786	183.105	83.8965	183.105	82.767	183.105	83.7971	183.105	83.0103	183.105	83.747	183.105	83.257	183.105	83.718	183.105	83.4627	183.105	83.6807	183.105	83.6033
188.965	87.2278	188.965	86.7553	188.965	87.5585	188.965	86.166	188.965	87.7273	188.965	85.4919	188.965	87.7208	188.965	84.7756	188.965	87.5356	188.965	84.0712	188.965	87.1844	188.965	83.441	188.965	86.7001	188.965	82.9431	188.965	86.1339	188.965	82.6154	188.965	85.5434	188.965	82.4657	188.965	84.9742	188.965	82.4743	188.965	84.4528	188.965	82.6073	188.965	84.0044	188.965	82.8277	188.965	83.675	188.965	83.1003	188.965	83.5181	188.965	83.3912	188.965	83.545	188.965	83.666	188.965	83.6983	188.965	83.8913	188.965	83.8861	188.965	84.0379	188.965	84.0303	188.965	84.086
196.289	88.9206	196.289	88.4748	196.289	89.157	196.289	87.8435	196.289	89.1687	196.289	87.0592	196.289	88.9511	196.289	86.163	196.289	88.5113	196.289	85.2081	196.289	87.8718	196.289	84.2649	196.289	87.0794	196.289	83.4238	196.289	86.2185	196.289	82.7858	196.289	85.4166	196.289	82.4331	196.289	84.8112	196.289	82.3901	196.289	84.4702	196.289	82.6118	196.289	84.3515	196.289	83.0105	196.289	84.3641	196.289	83.4948	196.289	84.4499	196.289	83.9901	196.289	84.596	196.289	84.441	196.289	84.7911	196.289	84.806	196.289	84.9923	196.289	85.0536	196.289	85.1347	196.289	85.1637
203.613	88.9845	203.613	88.6265	203.613	89.154	203.613	88.0914	203.613	89.1256	203.613	87.3945	203.613	88.8897	203.613	86.5587	203.613	88.4371	203.613	85.6187	203.613	87.7642	203.613	84.6259	203.613	86.8838	203.613	83.6554	203.613	85.8428	203.613	82.8071	203.613	84.7417	203.613	82.1915	203.613	83.7347	203.613	81.8917	203.613	82.9775	203.613	81.9197	203.613	82.5418	203.613	82.2092	203.613	82.3996	203.613	82.651	203.613	82.4889	203.613	83.1348	203.613	82.7524	203.613	83.5704	203.613	83.1228	203.613	83.8907	203.613	83.5148	203.613	84.0518	203.613	83.8411	203.613	84.0329
210.938	89.3415	210.938	88.9911	210.938	89.4959	210.938	88.4548	210.938	89.4502	210.938	87.7498	210.938	89.2048	210.938	86.9014	210.938	88.7617	210.938	85.9451	210.938	88.1234	210.938	84.9298	210.938	87.2924	210.938	83.9238	210.938	86.2795	210.938	83.0183	210.938	85.1228	210.938	82.3202	210.938	83.919	210.938	81.9231	210.938	82.8432	210.938	81.862	210.938	82.1034	210.938	82.0911	210.938	81.814	210.938	82.5075	210.938	81.9299	210.938	82.9949	210.938	82.3183	210.938	83.4524	210.938	82.8362	210.938	83.8016	210.938	83.3501	210.938	83.9864	210.938	83.7516	210.938	83.9724
218.262	89.114	218.262	88.8134	218.262	89.249	218.262	88.362	218.262	89.2078	218.262	87.7792	218.262	88.9837	218.262	87.0872	218.262	88.5745	218.262	86.3093	218.262	87.9857	218.262	85.4698	218.262	87.2387	218.262	84.5964	218.262	86.382	218.262	83.7291	218.262	85.4982	218.262	82.931	218.262	84.6905	218.262	82.2926	218.262	84.0387	218.262	81.9113	218.262	83.5531	218.262	81.8408	218.262	83.1886	218.262	82.0473	218.262	82.9126	218.262	82.4213	218.262	82.751	218.262	82.83	218.262	82.7555	218.262	83.1594	218.262	82.9218	218.262	83.3333	218.262	83.1541	218.262	83.3221
225.586	90.4774	225.586	90.0352	225.586	90.6996	225.586	89.3853	225.586	90.6954	225.586	88.5497	225.586	90.4612	225.586	87.5648	225.586	89.9951	225.586	86.4863	225.586	89.2976	225.586	85.3917	225.586	88.3786	225.586	84.3783	225.586	87.2708	225.586	83.5504	225.586	86.0592	225.586	82.9959	225.586	84.9203	225.586	82.7631	225.586	84.1163	225.586	82.8491	225.586	83.8455	225.586	83.2049	225.586	84.0583	225.586	83.7484	225.586	84.5336	225.586	84.3829	225.586	85.0773	225.586	85.0133	225.586	85.5742	225.586	85.5577	225.586	85.9514	225.586	85.9534	225.586	86.1566	225.586	86.1592
232.91	90.9118	232.91	90.6085	232.91	91.0137	232.91	90.1064	232.91	90.9131	232.91	89.412	232.91	90.6086	232.91	88.5391	232.91	90.0974	232.91	87.5129	232.91	89.376	232.91	86.3752	232.91	88.4433	232.91	85.1915	232.91	87.3064	232.91	84.0597	232.91	85.9957	232.91	83.1129	232.91	84.5926	232.91	82.5004	232.91	83.2676	232.91	82.3305	232.91	82.2829	232.91	82.6013	232.91	81.8772	232.91	83.1925	232.91	82.0894	232.91	83.9269	232.91	82.7508	232.91	84.6358	232.91	83.6194	232.91	85.1865	232.91	84.4668	232.91	85.4835	232.91	85.1171	232.91	85.4671
241.699	90.1388	241.699	89.8642	241.699	90.2295	241.699	89.4055	241.699	90.1366	241.699	88.7655	241.699	89.8602	241.699	87.9536	241.699	89.3995	241.699	86.9902	241.699	88.7541	241.699	85.9128	241.699	87.9247	241.699	84.7825	241.699	86.9166	241.699	83.6894	241.699	85.7498	241.699	82.7494	241.699	84.4788	241.699	82.0817	241.699	83.2156	241.699	81.7668	241.699	82.1291	241.699	81.8085	241.699	81.3911	241.699	82.1307	241.699	81.1059	241.699	82.6076	241.699	81.2852	241.699	83.1004	241.699	81.8278	241.699	83.4817	241.699	82.5239	241.699	83.6503	241.699	83.1468	241.699	83.5427
250.488	90.1348	250.488	89.8411	250.488	90.2433	250.488	89.3684	250.488	90.1635	250.488	88.7256	250.488	89.8951	250.488	87.9248	250.488	89.4397	250.488	86.9825	250.488	88.7998	250.488	85.9229	250.488	87.9798	250.488	84.7841	250.488	86.9892	250.488	83.6299	250.488	85.8534	250.488	82.5635	250.488	84.6349	250.488	81.7305	250.488	83.463	250.488	81.28	250.488	82.533	250.488	81.2765	250.488	82.0119	250.488	81.6409	250.488	81.9037	250.488	82.1977	250.488	82.0783	250.488	82.7656	250.488	82.4099	250.488	83.2067	250.488	82.8106	250.488	83.4352	250.488	83.1836	250.488	83.419
259.277	90.8578	259.277	90.638	259.277	90.8785	259.277	90.2159	259.277	90.7067	259.277	89.5924	259.277	90.3531	259.277	88.7741	259.277	89.8312	259.277	87.777	259.277	89.1539	259.277	86.6313	259.277	88.3287	259.277	85.3906	259.277	87.352	259.277	84.1421	259.277	86.2099	259.277	83.0154	259.277	84.886	259.277	82.1729	259.277	83.3848	259.277	81.7593	259.277	81.799	259.277	81.823	259.277	80.4653	259.277	82.277	259.277	80.0176	259.277	82.9456	259.277	80.7155	259.277	83.6386	259.277	81.9742	259.277	84.1952	259.277	83.1644	259.277	84.4944	259.277	84.0124	259.277	84.4511
268.066	89.3384	268.066	89.2631	268.066	89.2654	268.066	89.0322	268.066	89.0522	268.066	88.6385	268.066	88.7088	268.066	88.0757	268.066	88.2472	268.066	87.3403	268.066	87.6817	268.066	86.4356	268.066	87.0304	268.066	85.3771	268.066	86.317	268.066	84.2032	268.066	85.5715	268.066	82.9943	268.066	84.8235	268.066	81.8996	268.066	84.0856	268.066	81.1451	268.066	83.3356	268.066	80.944	268.066	82.5291	268.066	81.3135	268.066	81.6896	268.066	82.0276	268.066	81.0595	268.066	82.7824	268.066	81.0517	268.066	83.3358	268.066	81.7273	268.066	83.5312	268.066	82.623	268.066	83.2883
276.855	88.5924	276.855	88.4725	276.855	88.5864	276.855	88.2301	276.855	88.4458	276.855	87.8619	276.855	88.1633	276.855	87.3611	276.855	87.7391	276.855	86.7245	276.855	87.1836	276.855	85.9587	276.855	86.5148	276.855	85.0844	276.855	85.7546	276.855	84.1395	276.855	84.9326	276.855	83.1843	276.855	84.0969	276.855	82.3079	276.855	83.3183	276.855	81.6349	276.855	82.6636	276.855	81.3071	276.855	82.1524	276.855	81.4086	276.855	81.7803	276.855	81.8736	276.855	81.6097	276.855	82.4934	276.855	81.7615	276.855	83.0274	276.855	82.2316	276.855	83.2951	276.855	82.8035	276.855	83.2113
287.109	88.4433	287.109	88.1522	287.109	88.517	287.109	87.6857	287.109	88.3578	287.109	87.0975	287.109	87.9818	287.109	86.4342	287.109	87.4298	287.109	85.7214	287.109	86.7535	287.109	84.9633	287.109	86.0033	287.109	84.1571	287.109	85.2243	287.109	83.3147	287.109	84.4565	287.109	82.4854	287.109	83.7242	287.109	81.7752	287.109	83.0276	287.109	81.3369	287.109	82.3554	287.109	81.2967	287.109	81.7252	287.109	81.6469	287.109	81.248	287.109	82.2316	287.109	81.1478	287.109	82.8458	287.109	81.5599	287.109	83.3194	287.109	82.2902	287.109	83.5373	287.109	82.9907	287.109	83.4322
297.363	88.8793	297.363	88.5756	297.363	88.9824	297.363	88.0772	297.363	88.8838	297.363	87.4049	297.363	88.5787	297.363	86.5992	297.363	88.0568	297.363	85.717	297.363	87.3139	297.363	84.8205	297.363	86.3717	297.363	83.9601	297.363	85.3035	297.363	83.1608	297.363	84.2575	297.363	82.4268	297.363	83.4476	297.363	81.7708	297.363	83.0367	297.363	81.2624	297.363	82.9452	297.363	81.0593	297.363	82.8589	297.363	81.3374	297.363	82.509	297.363	82.0984	297.363	82.0005	297.363	83.0925	297.363	81.9523	297.363	83.981	297.363	82.7443	297.363	84.4889	297.363	83.7902	297.363	84.4416
307.617	88.5635	307.617	88.146	307.617	88.7658	307.617	87.5592	307.617	88.7273	307.617	86.8527	307.617	88.4489	307.617	86.0632	307.617	87.9499	307.617	85.2069	307.617	87.2505	307.617	84.2866	307.617	86.3577	307.617	83.3098	307.617	85.272	307.617	82.3068	307.617	84.0212	307.617	81.3415	307.617	82.7053	307.617	80.5052	307.617	81.5085	307.617	79.8963	307.617	80.6222	307.617	79.5967	307.617	80.1122	307.617	79.6513	307.617	79.876	307.617	80.0207	307.617	79.7368	307.617	80.5349	307.617	79.6253	307.617	80.9375	307.617	79.7037	307.617	81.0093	307.617	80.1258	307.617	80.6823
319.336	89.1105	319.336	88.6475	319.336	89.2978	319.336	87.9374	319.336	89.2066	319.336	87.0339	319.336	88.8539	319.336	86.0066	319.336	88.2631	319.336	84.9253	319.336	87.4495	319.336	83.8428	319.336	86.413	319.336	82.7892	319.336	85.1446	319.336	81.7877	319.336	83.6565	319.336	80.885	319.336	82.0558	319.336	80.1782	319.336	80.6669	319.336	79.8044	319.336	79.9706	319.336	79.868	319.336	80.0368	319.336	80.3454	319.336	80.3833	319.336	81.0766	319.336	80.6706	319.336	81.8455	319.336	80.9806	319.336	82.4515	319.336	81.5036	319.336	82.7406	319.336	82.1502	319.336	82.6292
329.59	88.6907	329.59	88.491	329.59	88.6348	329.59	88.0252	329.59	88.3492	329.59	87.2969	329.59	87.8754	329.59	86.3244	329.59	87.2637	329.59	85.1453	329.59	86.5543	329.59	83.823	329.59	85.7545	329.59	82.451	329.59	84.8279	329.59	81.1457	329.59	83.7065	329.59	80.024	329.59	82.3318	329.59	79.1798	329.59	80.7289	329.59	78.6883	329.59	79.0974	329.59	78.6243	329.59	77.7962	329.59	79.0278	329.59	77.1249	329.59	79.8113	329.59	77.253	329.59	80.7372	329.59	78.2335	329.59	81.5167	329.59	79.6805	329.59	81.9081	329.59	80.976	329.59	81.7495
341.309	88.4611	341.309	88.2648	341.309	88.3693	341.309	87.8042	341.309	88.0041	341.309	87.1266	341.309	87.4218	341.309	86.2849	341.309	86.7018	341.309	85.3238	341.309	85.9057	341.309	84.2744	341.309	85.0457	341.309	83.1586	341.309	84.0915	341.309	82.0026	341.309	83.0112	341.309	80.8601	341.309	81.828	341.309	79.8537	341.309	80.6999	341.309	79.2122	341.309	79.9327	341.309	79.1891	341.309	79.68	341.309	79.798	341.309	79.6474	341.309	80.722	341.309	79.4703	341.309	81.5684	341.309	79.2369	341.309	82.0581	341.309	79.4968	341.309	82.0312	341.309	80.4225	341.309	81.4366
353.027	88.7356	353.027	88.6824	353.027	88.5225	353.027	88.341	353.027	88.1083	353.027	87.7293	353.027	87.5804	353.027	86.89	353.027	87.0003	353.027	85.8747	353.027	86.3677	353.027	84.7309	353.027	85.6414	353.027	83.4954	353.027	84.7962	353.027	82.1981	353.027	83.858	353.027	80.8784	353.027	82.8964	353.027	79.6227	353.027	81.993	353.027	78.6408	353.027	81.19	353.027	78.3195	353.027	80.4336	353.027	78.9554	353.027	79.6221	353.027	80.2777	353.027	78.876	353.027	81.671	353.027	78.8489	353.027	82.6707	353.027	79.9874	353.027	83.0333	353.027	81.5342	353.027	82.6493
366.211	88.173	366.211	87.9871	366.211	88.1789	366.211	87.6618	366.211	88.0108	366.211	87.2413	366.211	87.7143	366.211	86.7292	366.211	87.3153	366.211	86.0884	366.211	86.7777	366.211	85.278	366.211	86.0403	366.211	84.2874	366.211	85.0825	366.211	83.1475	366.211	83.9501	366.211	81.9201	366.211	82.7556	366.211	80.6793	366.211	81.7155	366.211	79.5297	366.211	81.1248	366.211	78.7173	366.211	81.0223	366.211	78.6845	366.211	80.9966	366.211	79.5909	366.211	80.6385	366.211	80.8999	366.211	80.0612	366.211	81.9479	366.211	80.0604	366.211	82.355	366.211	80.9862	366.211	81.9842
379.395	89.5476	379.395	89.177	379.395	89.6541	379.395	88.5149	379.395	89.5567	379.395	87.5945	379.395	89.3034	379.395	86.5146	379.395	88.8949	379.395	85.4166	379.395	88.2972	379.395	84.4231	379.395	87.4815	379.395	83.57	379.395	86.4408	379.395	82.805	379.395	85.172	379.395	82.0508	379.395	83.6777	379.395	81.2688	379.395	82.0571	379.395	80.4976	379.395	80.6667	379.395	79.8992	379.395	79.9698	379.395	79.7768	379.395	79.8372	379.395	80.353	379.395	79.6567	379.395	81.3938	379.395	79.3634	379.395	82.3426	379.395	79.789	379.395	82.7309	379.395	81.1179	379.395	82.3094
392.578	88.4944	392.578	88.2735	392.578	88.4579	392.578	87.7628	392.578	88.2163	392.578	86.9675	392.578	87.8142	392.578	85.9338	392.578	87.2726	392.578	84.7419	392.578	86.5988	392.578	83.4904	392.578	85.8095	392.578	82.2749	392.578	84.9334	392.578	81.1659	392.578	83.9804	392.578	80.1944	392.578	82.9129	392.578	79.3506	392.578	81.6981	392.578	78.6074	392.578	80.4838	392.578	77.9942	392.578	79.6913	392.578	77.7101	392.578	79.5225	392.578	78.0391	392.578	79.5091	392.578	78.8789	392.578	79.1618	392.578	79.6617	392.578	78.6541	392.578	79.8836	392.578	78.7345	392.578	79.4245
405.762	88.9081	405.762	88.4868	405.762	89.0016	405.762	87.775	405.762	88.7538	405.762	86.8402	405.762	88.173	405.762	85.7804	405.762	87.2917	405.762	84.6994	405.762	86.1585	405.762	83.658	405.762	84.8199	405.762	82.6405	405.762	83.3135	405.762	81.5756	405.762	81.6854	405.762	80.3949	405.762	80.0082	405.762	79.1018	405.762	78.4871	405.762	77.8731	405.762	77.7034	405.762	77.1717	405.762	78.0069	405.762	77.4993	405.762	78.5772	405.762	78.7105	405.762	78.6974	405.762	80.1482	405.762	78.6863	405.762	81.2767	405.762	79.3653	405.762	81.7933	405.762	80.599	405.762	81.5528
420.41	89.159	420.41	88.7654	420.41	89.0849	420.41	87.9264	420.41	88.5997	420.41	86.7375	420.41	87.8525	420.41	85.3757	420.41	87.0501	420.41	84.0825	420.41	86.3233	420.41	83.0633	420.41	85.6222	420.41	82.3477	420.41	84.7924	420.41	81.7822	420.41	83.6909	420.41	81.15	420.41	82.2093	420.41	80.2496	420.41	80.3069	420.41	78.915	420.41	78.2087	420.41	77.1577	420.41	76.586	420.41	75.8942	420.41	75.7073	420.41	76.9993	420.41	74.9145	420.41	79.4859	420.41	74.9784	420.41	81.4581	420.41	77.5229	420.41	82.3558	420.41	80.3765	420.41	82.0303
435.059	87.9712	435.059	88.0043	435.059	87.4666	435.059	87.4657	435.059	86.7808	435.059	86.3906	435.059	86.2904	435.059	84.9248	435.059	86.0922	435.059	83.3417	435.059	85.9323	435.059	82.0015	435.059	85.5852	435.059	81.1311	435.059	85.014	435.059	80.6427	435.059	84.2325	435.059	80.2898	435.059	83.1626	435.059	79.8676	435.059	81.7188	435.059	79.2266	435.059	80.3061	435.059	78.2476	435.059	80.1232	435.059	76.9751	435.059	80.8566	435.059	76.0312	435.059	80.6068	435.059	76.3802	435.059	78.077	435.059	77.4485	435.059	72.2662	435.059	77.7825	435.059	71.8593	435.059	76.2946
451.172	88.3666	451.172	88.1474	451.172	88.3358	451.172	87.5577	451.172	88.2176	451.172	86.5705	451.172	88.0651	451.172	85.2334	451.172	87.745	451.172	83.6435	451.172	87.0715	451.172	81.9412	451.172	85.9779	451.172	80.3144	451.172	84.5814	451.172	78.9725	451.172	83.1111	451.172	78.043	451.172	81.6388	451.172	77.4646	451.172	79.8883	451.172	77.0366	451.172	77.8814	451.172	76.5897	451.172	77.9347	451.172	76.2003	451.172	80.6357	451.172	76.4252	451.172	82.6487	451.172	77.7409	451.172	82.9969	451.172	79.4258	451.172	81.9985	451.172	80.483	451.172	80.883	451.172	80.6863
465.82	88.5073	465.82	88.4019	465.82	88.3618	465.82	87.8182	465.82	88.2456	465.82	86.6892	465.82	88.2479	465.82	85.1224	465.82	88.1956	465.82	83.4255	465.82	87.8639	465.82	82.0575	465.82	87.1333	465.82	81.2821	465.82	85.9955	465.82	80.8887	465.82	84.5099	465.82	80.5041	465.82	82.7371	465.82	79.9199	465.82	80.6035	465.82	79.0941	465.82	77.8427	465.82	78.0583	465.82	74.9017	465.82	76.9886	465.82	74.4367	465.82	76.5957	465.82	75.3899	465.82	77.6143	465.82	75.4016	465.82	79.1823	465.82	75.9338	465.82	80.0717	465.82	78.0499	465.82	79.7268
483.398	88.5247	483.398	88.9186	483.398	87.5696	483.398	88.6474	483.398	86.4199	483.398	87.7384	483.398	85.6188	483.398	86.2678	483.398	85.2948	483.398	84.3501	483.398	85.0542	483.398	82.2276	483.398	84.6334	483.398	80.4742	483.398	84.101	483.398	79.8276	483.398	83.613	483.398	80.1848	483.398	83.1748	483.398	80.7219	483.398	82.5891	483.398	80.8501	483.398	81.4269	483.398	80.2735	483.398	78.9218	483.398	78.8817	483.398	74.4445	483.398	77.3394	483.398	73.7083	483.398	77.7414	483.398	76.1556	483.398	79.3414	483.398	75.1862	483.398	79.5689	483.398	73.631	483.398	77.3121
499.512	87.9215	499.512	88.374	499.512	87.7324	499.512	88.502	499.512	88.2097	499.512	88.0605	499.512	88.8934	499.512	87.0211	499.512	89.1256	499.512	85.4158	499.512	88.6269	499.512	83.2783	499.512	87.4179	499.512	80.6733	499.512	85.7217	499.512	77.9224	499.512	83.9598	499.512	76.1218	499.512	82.6426	499.512	76.279	499.512	82.0152	499.512	77.3086	499.512	81.9457	499.512	77.9559	499.512	82.0972	499.512	77.8049	499.512	82.023	499.512	76.9617	499.512	81.4158	499.512	76.186	499.512	80.1738	499.512	76.1893	499.512	78.1634	499.512	76.1159	499.512	75.8406	499.512	75.3661
517.09	89.2423	517.09	89.1917	517.09	89.1792	517.09	88.7583	517.09	89.3265	517.09	87.927	517.09	89.6178	517.09	86.8494	517.09	89.6801	517.09	85.6984	517.09	89.2775	517.09	84.5443	517.09	88.4213	517.09	83.3266	517.09	87.258	517.09	81.9506	517.09	85.8908	517.09	80.4351	517.09	84.2012	517.09	79.0119	517.09	81.8704	517.09	77.956	517.09	78.805	517.09	77.1179	517.09	76.7229	517.09	76.1409	517.09	78.1776	517.09	75.7537	517.09	80.3156	517.09	77.4008	517.09	81.1725	517.09	79.6474	517.09	80.8076	517.09	80.858	517.09	80.4414	517.09	80.8382
536.133	88.3633	536.133	88.4868	536.133	88.4738	536.133	88.3204	536.133	89.0417	536.133	87.6423	536.133	89.5177	536.133	86.4675	536.133	89.3035	536.133	84.9042	536.133	88.186	536.133	83.1282	536.133	86.2835	536.133	81.416	536.133	84.1578	536.133	80.1355	536.133	82.9404	536.133	79.5608	536.133	82.9944	536.133	79.593	536.133	83.1005	536.133	79.7929	536.133	82.1185	536.133	79.6656	536.133	79.3769	536.133	78.8173	536.133	75.9683	536.133	77.2009	536.133	77.1411	536.133	76.1765	536.133	78.7021	536.133	77.2705	536.133	78.153	536.133	78.2708	536.133	77.1655	536.133	77.8174
555.176	87.5784	555.176	87.8922	555.176	87.7331	555.176	88.1161	555.176	88.3795	555.176	87.8682	555.176	88.9317	555.176	87.0428	555.176	88.9475	555.176	85.6909	555.176	88.285	555.176	83.9871	555.176	86.9139	555.176	82.1982	555.176	84.8407	555.176	80.5395	555.176	82.3469	555.176	79.0808	555.176	80.6605	555.176	78.0218	555.176	80.8194	555.176	77.7889	555.176	81.4096	555.176	78.1172	555.176	81.032	555.176	77.9955	555.176	79.3666	555.176	76.7457	555.176	77.5305	555.176	75.1107	555.176	76.3562	555.176	75.9593	555.176	74.5468	555.176	77.6566	555.176	75.1051	555.176	77.4176
574.219	87.6069	574.219	87.4972	574.219	88.3011	574.219	87.4346	574.219	89.4336	574.219	87.0162	574.219	90.3278	574.219	86.1784	574.219	90.5613	574.219	85.0179	574.219	90.0162	574.219	83.644	574.219	88.6813	574.219	82.0915	574.219	86.563	574.219	80.3443	574.219	83.7393	574.219	78.5602	574.219	80.6068	574.219	77.384	574.219	78.3147	574.219	77.3433	574.219	78.6065	574.219	77.7025	574.219	80.4608	574.219	77.4193	574.219	81.4065	574.219	76.0366	574.219	81.0434	574.219	74.4698	574.219	80.1677	574.219	75.1897	574.219	78.6907	574.219	76.3149	574.219	76.4158	574.219	75.9415
594.727	87.353	594.727	86.8394	594.727	88.8063	594.727	86.8351	594.727	90.4406	594.727	86.5993	594.727	91.4483	594.727	85.8735	594.727	91.5509	594.727	84.7065	594.727	90.7405	594.727	83.3176	594.727	89.0771	594.727	81.9922	594.727	86.587	594.727	80.8368	594.727	83.2611	594.727	79.7238	594.727	79.31	594.727	78.6296	594.727	75.7441	594.727	77.8431	594.727	73.9222	594.727	77.5257	594.727	74.4157	594.727	77.1984	594.727	78.1467	594.727	76.2345	594.727	81.699	594.727	74.9533	594.727	82.6098	594.727	75.2377	594.727	80.1689	594.727	75.9724	594.727	74.2142	594.727	74.0773
615.234	88.44	615.234	88.0418	615.234	89.1737	615.234	87.8994	615.234	89.8469	615.234	87.5861	615.234	90.0759	615.234	86.7776	615.234	89.7082	615.234	85.3505	615.234	88.7094	615.234	83.3581	615.234	87.0723	615.234	81.0605	615.234	84.8355	615.234	78.882	615.234	82.205	615.234	77.0935	615.234	79.9607	615.234	75.6891	615.234	78.9435	615.234	75.0248	615.234	77.8665	615.234	75.6289	615.234	74.4027	615.234	76.6075	615.234	63.6352	615.234	76.6775	615.234	71.0859	615.234	75.4677	615.234	75.0394	615.234	74.5095	615.234	74.8472	615.234	75.7347	615.234	75.2835	615.234	76.4149
637.207	89.32	637.207	88.7199	637.207	90.5047	637.207	88.5789	637.207	91.5434	637.207	88.208	637.207	91.8733	637.207	87.1976	637.207	91.4085	637.207	85.454	637.207	90.295	637.207	83.1188	637.207	88.696	637.207	80.5872	637.207	86.6917	637.207	78.4372	637.207	84.3177	637.207	77.165	637.207	81.7523	637.207	76.9271	637.207	79.4969	637.207	77.3819	637.207	78.474	637.207	77.8452	637.207	78.9582	637.207	77.7301	637.207	78.3423	637.207	76.8107	637.207	74.5301	637.207	75.6829	637.207	75.8384	637.207	75.5056	637.207	78.273	637.207	74.9568	637.207	76.2144	637.207	73.3242
659.18	88.1251	659.18	87.4255	659.18	89.6084	659.18	87.5963	659.18	91.0373	659.18	87.7716	659.18	91.8698	659.18	87.3309	659.18	91.8647	659.18	86.1401	659.18	90.9033	659.18	84.3673	659.18	88.9643	659.18	82.3888	659.18	86.145	659.18	80.5671	659.18	82.7371	659.18	78.7928	659.18	79.4111	659.18	76.6357	659.18	77.3105	659.18	75.0572	659.18	76.8414	659.18	76.1127	659.18	77.5493	659.18	77.4409	659.18	78.9365	659.18	77.0826	659.18	80.2414	659.18	75.1944	659.18	80.4856	659.18	74.5511	659.18	77.9454	659.18	75.0689	659.18	70.145	659.18	71.8731
682.617	88.0356	682.617	87.242	682.617	89.6579	682.617	87.2893	682.617	90.9226	682.617	87.07	682.617	91.239	682.617	86.0493	682.617	90.5888	682.617	84.298	682.617	89.1134	682.617	82.3318	682.617	86.9118	682.617	80.8324	682.617	84.0727	682.617	79.8008	682.617	80.7901	682.617	78.6121	682.617	77.3734	682.617	76.9519	682.617	75.3586	682.617	75.1048	682.617	75.1945	682.617	73.8045	682.617	71.6856	682.617	73.5431	682.617	64.3255	682.617	73.3064	682.617	76.2825	682.617	71.646	682.617	78.9582	682.617	70.1733	682.617	78.0302	682.617	72.2762	682.617	75.6107	682.617	73.9703
707.52	88.7258	707.52	87.5776	707.52	89.9659	707.52	87.1284	707.52	90.683	707.52	87.0528	707.52	90.6757	707.52	86.549	707.52	89.9436	707.52	85.1094	707.52	88.5649	707.52	82.5895	707.52	86.7533	707.52	79.3869	707.52	84.7689	707.52	77.1298	707.52	82.6088	707.52	76.805	707.52	80.0267	707.52	76.7302	707.52	76.7152	707.52	76.3303	707.52	75.625	707.52	76.5205	707.52	79.2124	707.52	77.2959	707.52	79.6615	707.52	77.0585	707.52	73.2282	707.52	74.5543	707.52	75.5401	707.52	71.7205	707.52	79.5603	707.52	72.8763	707.52	77.4099	707.52	73.4479
732.422	87.5055	732.422	86.3655	732.422	89.3905	732.422	86.2973	732.422	90.8934	732.422	86.404	732.422	91.3336	732.422	86.0007	732.422	90.5578	732.422	84.8664	732.422	88.8307	732.422	82.8598	732.422	86.7161	732.422	79.6811	732.422	84.4802	732.422	75.0148	732.422	81.6633	732.422	71.1435	732.422	78.9007	732.422	72.1356	732.422	78.0628	732.422	73.6857	732.422	75.2477	732.422	75.8143	732.422	59.1328	732.422	78.192	732.422	75.2217	732.422	78.6133	732.422	76.9984	732.422	75.9969	732.422	77.1834	732.422	72.6896	732.422	76.7642	732.422	73.0438	732.422	69.9734	732.422	67.7955
757.324	88.7934	757.324	87.4598	757.324	89.7008	757.324	86.6963	757.324	89.9638	757.324	86.5429	757.324	89.7914	757.324	85.887	757.324	89.0415	757.324	84.1983	757.324	87.4311	757.324	81.7357	757.324	85.1169	757.324	79.4124	757.324	82.5283	757.324	77.8741	757.324	79.9051	757.324	76.247	757.324	76.6289	757.324	73.2438	757.324	73.8704	757.324	70.1193	757.324	76.2266	757.324	70.0046	757.324	74.2531	757.324	70.2377	757.324	60.978	757.324	72.3806	757.324	69.2546	757.324	73.7327	757.324	69.6818	757.324	72.9319	757.324	74.6858	757.324	72.7695	757.324	76.7853	757.324	75.1047
785.156	88.7916	785.156	87.1701	785.156	90.2185	785.156	86.0265	785.156	90.9553	785.156	85.5428	785.156	90.7994	785.156	84.8629	785.156	90.0265	785.156	83.2316	785.156	89.048	785.156	80.8421	785.156	87.4811	785.156	78.5698	785.156	84.8446	785.156	77.5919	785.156	81.9923	785.156	77.4913	785.156	79.6725	785.156	76.3019	785.156	74.4085	785.156	75.0396	785.156	68.1982	785.156	76.5267	785.156	77.454	785.156	78.0639	785.156	77.1912	785.156	77.1084	785.156	75.2033	785.156	73.0092	785.156	77.8954	785.156	67.5058	785.156	78.8842	785.156	68.6298	785.156	75.4222	785.156	68.1199
811.523	89.1121	811.523	87.9833	811.523	90.1792	811.523	86.9652	811.523	90.9644	811.523	86.1104	811.523	91.0758	811.523	85.2264	811.523	90.1591	811.523	84.3181	811.523	88.3544	811.523	83.1614	811.523	86.5233	811.523	80.7818	811.523	85.1143	811.523	76.1163	811.523	83.052	811.523	69.355	811.523	80.14	811.523	69.1855	811.523	79.1942	811.523	72.8849	811.523	76.9494	811.523	76.7962	811.523	67.8232	811.523	79.8395	811.523	74.5528	811.523	80.8024	811.523	71.2943	811.523	79.2401	811.523	74.6684	811.523	74.3897	811.523	76.4546	811.523	61.545	811.523	71.7347	811.523	64.5437
840.82	88.7623	840.82	87.171	840.82	90.3941	840.82	86.2955	840.82	90.9549	840.82	85.6795	840.82	90.3663	840.82	85.1123	840.82	89.2379	840.82	84.3648	840.82	87.7141	840.82	83.0183	840.82	85.5561	840.82	80.7928	840.82	83.7065	840.82	77.9702	840.82	83.3379	840.82	75.6128	840.82	82.0774	840.82	74.1342	840.82	78.4114	840.82	69.7846	840.82	78.9549	840.82	58.0541	840.82	80.2925	840.82	70.4778	840.82	74.7143	840.82	69.8951	840.82	66.5634	840.82	67.0895	840.82	62.3722	840.82	72.0192	840.82	72.1358	840.82	72.9474	840.82	73.3326	840.82	71.4004
870.117	88.3472	870.117	87.0835	870.117	90.4625	870.117	86.7955	870.117	91.9733	870.117	86.3886	870.117	91.984	870.117	85.242	870.117	90.6515	870.117	83.6752	870.117	88.9937	870.117	82.2549	870.117	87.5952	870.117	80.6303	870.117	85.1606	870.117	78.12	870.117	80.2661	870.117	74.8939	870.117	77.0236	870.117	72.7428	870.117	78.8325	870.117	73.2825	870.117	75.7676	870.117	73.9489	870.117	77.482	870.117	74.0311	870.117	77.8456	870.117	77.2907	870.117	76.9401	870.117	78.1768	870.117	77.8539	870.117	73.6651	870.117	72.4448	870.117	67.8773	870.117	68.9733	870.117	69.4352
900.879	88.331	900.879	86.5483	900.879	90.5334	900.879	85.7849	900.879	91.915	900.879	85.1397	900.879	91.8774	900.879	84.5706	900.879	90.4686	900.879	84.2931	900.879	88.0957	900.879	83.3933	900.879	85.0335	900.879	81.2491	900.879	81.9934	900.879	78.0217	900.879	80.9879	900.879	74.8888	900.879	80.7214	900.879	73.2654	900.879	78.0199	900.879	71.929	900.879	78.5585	900.879	72.0874	900.879	79.2039	900.879	76.9502	900.879	72.9876	900.879	78.2036	900.879	61.0356	900.879	74.0459	900.879	73.4901	900.879	68.7029	900.879	77.0909	900.879	67.6541	900.879	76.0655	900.879	66.9051
933.105	88.8201	933.105	86.5818	933.105	91.6816	933.105	86.3003	933.105	93.1041	933.105	86.8432	933.105	92.5749	933.105	87.0232	933.105	91.142	933.105	86.2114	933.105	90.0567	933.105	84.3359	933.105	88.5282	933.105	81.6655	933.105	86.0581	933.105	78.7628	933.105	81.9803	933.105	78.3557	933.105	77.0928	933.105	79.2623	933.105	79.8494	933.105	78.4226	933.105	77.8537	933.105	76.3498	933.105	77.5147	933.105	73.6983	933.105	83.4047	933.105	71.0496	933.105	82.3206	933.105	75.1092	933.105	76.5531	933.105	75.7194	933.105	80.0763	933.105	70.3635	933.105	77.9392	933.105	71.1876
965.332	89.7473	965.332	87.8091	965.332	91.6404	965.332	87.3347	965.332	92.4825	965.332	87.8772	965.332	91.8216	965.332	88.1034	965.332	89.6105	965.332	87.6512	965.332	86.528	965.332	86.434	965.332	83.8179	965.332	84.4203	965.332	80.9757	965.332	81.623	965.332	80.1224	965.332	77.4221	965.332	82.8792	965.332	73.6028	965.332	78.8589	965.332	78.4428	965.332	75.4554	965.332	81.3683	965.332	79.4125	965.332	81.6716	965.332	75.7156	965.332	80.649	965.332	80.58	965.332	78.8363	965.332	76.7614	965.332	75.0167	965.332	77.2867	965.332	69.5696	965.332	74.9408	965.332	53.146
1,000.49	89.2263	1,000.49	87.4247	1,000.49	91.1415	1,000.49	88.1292	1,000.49	91.5622	1,000.49	89.5224	1,000.49	91.1195	1,000.49	89.4722	1,000.49	90.0061	1,000.49	88.2894	1,000.49	87.9634	1,000.49	86.8542	1,000.49	86.2399	1,000.49	84.8911	1,000.49	83.5154	1,000.49	82.446	1,000.49	82.5057	1,000.49	80.6675	1,000.49	81.4673	1,000.49	79.1637	1,000.49	79.9516	1,000.49	74.4296	1,000.49	76.343	1,000.49	73.0633	1,000.49	80.0471	1,000.49	79.7831	1,000.49	82.0856	1,000.49	81.8081	1,000.49	75.3139	1,000.49	78.9329	1,000.49	75.2322	1,000.49	76.5164	1,000.49	81.558	1,000.49	69.2097	1,000.49	77.4388	1,000.49	75.1032
1,035.64	88.8248	1,035.64	87.2752	1,035.64	89.8902	1,035.64	88.2275	1,035.64	90.3193	1,035.64	89.5861	1,035.64	89.9329	1,035.64	89.5581	1,035.64	88.6235	1,035.64	88.1775	1,035.64	86.3293	1,035.64	85.9559	1,035.64	82.0781	1,035.64	84.6691	1,035.64	82.4722	1,035.64	82.2759	1,035.64	79.5227	1,035.64	70.3037	1,035.64	75.3485	1,035.64	72.3848	1,035.64	75.3629	1,035.64	76.563	1,035.64	80.1793	1,035.64	79.234	1,035.64	79.4485	1,035.64	66.845	1,035.64	75.791	1,035.64	71.8802	1,035.64	79.4438	1,035.64	50.3815	1,035.64	78.6373	1,035.64	70.9321	1,035.64	70.7673	1,035.64	71.1945	1,035.64	79.8808	1,035.64	67.7287
1,072.27	87.5495	1,072.27	87.6866	1,072.27	88.4941	1,072.27	88.8946	1,072.27	89.5488	1,072.27	91.301	1,072.27	88.285	1,072.27	90.6038	1,072.27	87.0254	1,072.27	88.173	1,072.27	84.2169	1,072.27	85.547	1,072.27	84.0518	1,072.27	81.1497	1,072.27	83.3816	1,072.27	78.2727	1,072.27	81.4662	1,072.27	77.176	1,072.27	81.9048	1,072.27	71.3918	1,072.27	80.5349	1,072.27	79.4487	1,072.27	75.7726	1,072.27	81.2438	1,072.27	82.3192	1,072.27	80.0735	1,072.27	83.0658	1,072.27	81.2406	1,072.27	75.6046	1,072.27	79.4575	1,072.27	74.2121	1,072.27	72.4137	1,072.27	78.0597	1,072.27	68.9072	1,072.27	73.8738	1,072.27	74.9366
1,108.89	87.2109	1,108.89	87.3098	1,108.89	88.8581	1,108.89	88.7507	1,108.89	89.425	1,108.89	89.9212	1,108.89	88.9335	1,108.89	89.7624	1,108.89	86.4494	1,108.89	87.2664	1,108.89	84.4438	1,108.89	85.0733	1,108.89	82.5063	1,108.89	82.286	1,108.89	83.0355	1,108.89	78.886	1,108.89	80.8142	1,108.89	78.4681	1,108.89	77.1966	1,108.89	74.9874	1,108.89	70.7291	1,108.89	68.6799	1,108.89	77.8551	1,108.89	73.2909	1,108.89	78.5375	1,108.89	71.5759	1,108.89	67.8858	1,108.89	75.7707	1,108.89	75.7649	1,108.89	73.4363	1,108.89	74.5175	1,108.89	65.5219	1,108.89	73.5951	1,108.89	70.6942	1,108.89	74.0529	1,108.89	66.9212
1,148.44	87.4088	1,148.44	86.2632	1,148.44	88.8809	1,148.44	88.455	1,148.44	89.4435	1,148.44	89.5679	1,148.44	87.4781	1,148.44	88.3766	1,148.44	84.046	1,148.44	85.2554	1,148.44	81.571	1,148.44	80.7828	1,148.44	84.0395	1,148.44	79.417	1,148.44	84.0086	1,148.44	79.8807	1,148.44	79.8736	1,148.44	72.2818	1,148.44	78.5775	1,148.44	70.5687	1,148.44	75.799	1,148.44	69.4666	1,148.44	72.212	1,148.44	73.3403	1,148.44	80.1588	1,148.44	72.7983	1,148.44	81.8617	1,148.44	69.1179	1,148.44	71.9214	1,148.44	72.1453	1,148.44	75.8948	1,148.44	70.1771	1,148.44	75.4649	1,148.44	72.8674	1,148.44	74.6928	1,148.44	65.0867
1,189.45	86.981	1,189.45	85.4338	1,189.45	89.5737	1,189.45	88.0174	1,189.45	89.8009	1,189.45	88.793	1,189.45	87.7255	1,189.45	87.0017	1,189.45	82.4104	1,189.45	84.1415	1,189.45	82.0883	1,189.45	81.203	1,189.45	82.5921	1,189.45	76.9198	1,189.45	83.8001	1,189.45	70.509	1,189.45	82.7247	1,189.45	68.9199	1,189.45	78.0147	1,189.45	76.524	1,189.45	73.1858	1,189.45	71.7335	1,189.45	68.4051	1,189.45	72.3668	1,189.45	74.3719	1,189.45	66.653	1,189.45	63.9029	1,189.45	65.6378	1,189.45	76.189	1,189.45	67.8509	1,189.45	74.3371	1,189.45	61.2601	1,189.45	74.3585	1,189.45	65.6056	1,189.45	67.8815	1,189.45	73.0907
1,230.47	87.01	1,230.47	84.7832	1,230.47	89.9629	1,230.47	87.2833	1,230.47	89.4831	1,230.47	87.9167	1,230.47	86.76	1,230.47	86.4903	1,230.47	80.6932	1,230.47	81.8242	1,230.47	82.5451	1,230.47	77.1434	1,230.47	85.3497	1,230.47	71.0399	1,230.47	84.9844	1,230.47	62.6686	1,230.47	82.0644	1,230.47	67.9868	1,230.47	79.1175	1,230.47	74.1189	1,230.47	76.77	1,230.47	72.0117	1,230.47	70.316	1,230.47	66.8176	1,230.47	66.7377	1,230.47	67.5384	1,230.47	77.316	1,230.47	62.2007	1,230.47	69.0577	1,230.47	67.7454	1,230.47	72.6263	1,230.47	70.9358	1,230.47	72.5728	1,230.47	59.8276	1,230.47	70.0688	1,230.47	61.3937
1,274.41	85.89	1,274.41	81.8876	1,274.41	89.9047	1,274.41	86.8829	1,274.41	90.2444	1,274.41	86.7106	1,274.41	85.7133	1,274.41	84.7112	1,274.41	80.3224	1,274.41	80.4897	1,274.41	84.682	1,274.41	70.3098	1,274.41	86.0601	1,274.41	69.3783	1,274.41	85.0895	1,274.41	69.7842	1,274.41	81.6966	1,274.41	63.7276	1,274.41	77.6739	1,274.41	66.9851	1,274.41	78.3904	1,274.41	55.5745	1,274.41	72.9592	1,274.41	68.077	1,274.41	73.3123	1,274.41	67.8281	1,274.41	71.3715	1,274.41	64.8528	1,274.41	67.9617	1,274.41	64.2291	1,274.41	67.2419	1,274.41	60.1071	1,274.41	70.9401	1,274.41	61.0252	1,274.41	64.4932	1,274.41	61.7679
1,319.82	86.6202	1,319.82	79.7873	1,319.82	90.6224	1,319.82	86.6425	1,319.82	89.4636	1,319.82	86.4282	1,319.82	84.8208	1,319.82	82.4279	1,319.82	80.0817	1,319.82	75.5641	1,319.82	83.8683	1,319.82	67.7648	1,319.82	85.587	1,319.82	66.931	1,319.82	83.4936	1,319.82	76.4658	1,319.82	80.0852	1,319.82	74.9898	1,319.82	78.2563	1,319.82	75.468	1,319.82	72.6101	1,319.82	73.2565	1,319.82	68.1725	1,319.82	67.3067	1,319.82	66.0144	1,319.82	68.1879	1,319.82	72.5056	1,319.82	63.4934	1,319.82	72.5333	1,319.82	65.4506	1,319.82	67.3731	1,319.82	69.8252	1,319.82	72.8977	1,319.82	62.6624	1,319.82	63.6426	1,319.82	57.8581
1,366.7	86.7841	1,366.7	77.7938	1,366.7	91.1863	1,366.7	86.8054	1,366.7	89.902	1,366.7	85.5026	1,366.7	83.5074	1,366.7	80.6872	1,366.7	80.1541	1,366.7	71.8905	1,366.7	84.6634	1,366.7	67.633	1,366.7	84.9938	1,366.7	65.8152	1,366.7	83.4744	1,366.7	74.6134	1,366.7	80.6204	1,366.7	75.2748	1,366.7	76.8578	1,366.7	70.1304	1,366.7	75.5077	1,366.7	70.212	1,366.7	68.5145	1,366.7	72.2881	1,366.7	68.6837	1,366.7	67.412	1,366.7	70.7897	1,366.7	60.2453	1,366.7	46.0263	1,366.7	64.9267	1,366.7	66.4426	1,366.7	60.099	1,366.7	66.2467	1,366.7	64.9746	1,366.7	68.2766	1,366.7	65.4325
1,413.57	86.9568	1,413.57	74.3251	1,413.57	90.9572	1,413.57	85.675	1,413.57	89.2596	1,413.57	85.0972	1,413.57	81.0404	1,413.57	80.6364	1,413.57	80.243	1,413.57	68.0134	1,413.57	82.9417	1,413.57	71.925	1,413.57	82.7343	1,413.57	73.5102	1,413.57	81.7463	1,413.57	71.1969	1,413.57	78.0946	1,413.57	71.8205	1,413.57	74.5166	1,413.57	68.1689	1,413.57	74.2881	1,413.57	61.0961	1,413.57	66.4123	1,413.57	73.1145	1,413.57	60.7839	1,413.57	70.7413	1,413.57	56.9246	1,413.57	66.0578	1,413.57	67.5444	1,413.57	68.6209	1,413.57	65.8012	1,413.57	63.5602	1,413.57	67.9851	1,413.57	49.1516	1,413.57	62.4141	1,413.57	65.8604
1,463.38	85.5296	1,463.38	73.6622	1,463.38	90.1907	1,463.38	85.0013	1,463.38	88.117	1,463.38	85.1754	1,463.38	77.6569	1,463.38	80.6703	1,463.38	81.3293	1,463.38	75.4409	1,463.38	84.3008	1,463.38	70.295	1,463.38	82.8095	1,463.38	72.2592	1,463.38	79.5342	1,463.38	69.4624	1,463.38	76.2761	1,463.38	70.4535	1,463.38	72.775	1,463.38	71.0638	1,463.38	65.973	1,463.38	68.7034	1,463.38	70.3503	1,463.38	63.6723	1,463.38	69.4437	1,463.38	64.5859	1,463.38	73.1536	1,463.38	65.0241	1,463.38	69.1744	1,463.38	56.8416	1,463.38	63.209	1,463.38	58.9306	1,463.38	65.3017	1,463.38	60.1482	1,463.38	70.4034	1,463.38	67.427
1,516.11	86.115	1,516.11	75.8925	1,516.11	89.1781	1,516.11	84.5628	1,516.11	86.4838	1,516.11	85.5415	1,516.11	67.4028	1,516.11	82.0097	1,516.11	82.0365	1,516.11	76.1838	1,516.11	84.2333	1,516.11	74.6517	1,516.11	82.5031	1,516.11	75.9763	1,516.11	79.8771	1,516.11	76.0487	1,516.11	74.8456	1,516.11	73.198	1,516.11	69.247	1,516.11	75.1532	1,516.11	70.9357	1,516.11	73.1264	1,516.11	68.4502	1,516.11	69.1938	1,516.11	68.2164	1,516.11	72.2713	1,516.11	61.706	1,516.11	71.9995	1,516.11	59.549	1,516.11	68.1166	1,516.11	67.8846	1,516.11	63.2273	1,516.11	66.5064	1,516.11	56.5464	1,516.11	65.8344	1,516.11	66.1816
1,568.85	86.3426	1,568.85	77.8451	1,568.85	88.8341	1,568.85	84.1275	1,568.85	84.3853	1,568.85	85.104	1,568.85	67.576	1,568.85	82.1463	1,568.85	83.0649	1,568.85	77.9768	1,568.85	83.4432	1,568.85	76.3899	1,568.85	80.3794	1,568.85	76.4468	1,568.85	77.3617	1,568.85	72.8249	1,568.85	77.182	1,568.85	75.197	1,568.85	72.6623	1,568.85	74.8982	1,568.85	64.2577	1,568.85	69.7692	1,568.85	69.3382	1,568.85	71.4031	1,568.85	68.6746	1,568.85	71.0115	1,568.85	71.2615	1,568.85	69.1438	1,568.85	70.3411	1,568.85	67.9918	1,568.85	59.6912	1,568.85	65.9118	1,568.85	62.5502	1,568.85	66.8964	1,568.85	68.3516	1,568.85	66.5259
1,624.51	87.3444	1,624.51	78.9862	1,624.51	89.2225	1,624.51	83.9555	1,624.51	82.2271	1,624.51	85.3763	1,624.51	76.7128	1,624.51	82.5515	1,624.51	83.4745	1,624.51	79.031	1,624.51	82.9609	1,624.51	79.9058	1,624.51	78.1829	1,624.51	79.7819	1,624.51	78.4826	1,624.51	78.1625	1,624.51	75.7546	1,624.51	71.5293	1,624.51	69.0645	1,624.51	71.0627	1,624.51	72.9743	1,624.51	73.1959	1,624.51	68.874	1,624.51	70.7603	1,624.51	73.0767	1,624.51	73.4362	1,624.51	71.202	1,624.51	74.3823	1,624.51	58.0616	1,624.51	66.1685	1,624.51	64.0271	1,624.51	58.5092	1,624.51	65.8536	1,624.51	53.6374	1,624.51	64.3808	1,624.51	52.8291
1,681.64	89.1013	1,681.64	83.0268	1,681.64	90.0063	1,681.64	85.1286	1,681.64	82.2992	1,681.64	85.6409	1,681.64	81.15	1,681.64	82.0927	1,681.64	85.686	1,681.64	81.8787	1,681.64	82.43	1,681.64	81.8816	1,681.64	78.0309	1,681.64	79.5761	1,681.64	78.7233	1,681.64	78.2524	1,681.64	78.2663	1,681.64	78.6525	1,681.64	74.7956	1,681.64	76.6556	1,681.64	67.7072	1,681.64	70.8055	1,681.64	72.4899	1,681.64	73.1823	1,681.64	69.1703	1,681.64	73.1334	1,681.64	61.6969	1,681.64	68.8068	1,681.64	62.6071	1,681.64	72.6538	1,681.64	56.6778	1,681.64	67.705	1,681.64	66.3979	1,681.64	64.9827	1,681.64	66.6143	1,681.64	70.0587
1,741.7	90.5233	1,741.7	83.9253	1,741.7	90.7536	1,741.7	85.3559	1,741.7	82.6371	1,741.7	84.6807	1,741.7	82.6306	1,741.7	82.5681	1,741.7	86.6124	1,741.7	84.4688	1,741.7	84.2369	1,741.7	81.7529	1,741.7	79.2345	1,741.7	81.6967	1,741.7	81.8137	1,741.7	78.0572	1,741.7	79.2278	1,741.7	69.2221	1,741.7	73.7166	1,741.7	75.6915	1,741.7	76.7359	1,741.7	72.9311	1,741.7	73.4171	1,741.7	71.3944	1,741.7	76.1283	1,741.7	64.3942	1,741.7	76.4778	1,741.7	60.8758	1,741.7	68.2558	1,741.7	64.6848	1,741.7	69.6416	1,741.7	68.3928	1,741.7	68.4499	1,741.7	67.8667	1,741.7	63.1329	1,741.7	71.0082
1,803.22	91.2196	1,803.22	84.5604	1,803.22	91.1714	1,803.22	86.3193	1,803.22	83.3642	1,803.22	85.6858	1,803.22	83.9082	1,803.22	84.0748	1,803.22	87.3434	1,803.22	83.8974	1,803.22	82.206	1,803.22	82.9273	1,803.22	80.5805	1,803.22	79.9162	1,803.22	81.6483	1,803.22	73.9478	1,803.22	81.9869	1,803.22	69.4858	1,803.22	77.048	1,803.22	71.9443	1,803.22	72.3425	1,803.22	69.7773	1,803.22	67.6146	1,803.22	60.4668	1,803.22	75.0307	1,803.22	75.0856	1,803.22	73.3301	1,803.22	74.5077	1,803.22	66.9671	1,803.22	69.8873	1,803.22	70.5448	1,803.22	68.8447	1,803.22	69.5595	1,803.22	65.3665	1,803.22	67.601	1,803.22	71.799
1,866.21	90.023	1,866.21	83.57	1,866.21	90.7302	1,866.21	87.2191	1,866.21	84.8434	1,866.21	86.8953	1,866.21	87.2734	1,866.21	85.2736	1,866.21	86.8493	1,866.21	83.5526	1,866.21	80.8932	1,866.21	82.3666	1,866.21	81.3216	1,866.21	75.3793	1,866.21	83.3688	1,866.21	74.9314	1,866.21	79.9601	1,866.21	75.0555	1,866.21	76.1762	1,866.21	75.0235	1,866.21	72.1863	1,866.21	77.6016	1,866.21	68.3127	1,866.21	70.3728	1,866.21	72.9736	1,866.21	69.4189	1,866.21	56.6198	1,866.21	69.9082	1,866.21	60.4632	1,866.21	69.3793	1,866.21	61.5393	1,866.21	68.8551	1,866.21	71.5914	1,866.21	57.3273	1,866.21	71.6151	1,866.21	65.6911
1,932.13	89.8832	1,932.13	84.6847	1,932.13	89.9149	1,932.13	86.1513	1,932.13	84.2868	1,932.13	87.447	1,932.13	87.7517	1,932.13	86.6486	1,932.13	87.5087	1,932.13	84.3104	1,932.13	80.6018	1,932.13	81.0207	1,932.13	81.2664	1,932.13	75.5949	1,932.13	83.5938	1,932.13	76.2091	1,932.13	80.0502	1,932.13	74.056	1,932.13	76.5568	1,932.13	72.2737	1,932.13	69.0684	1,932.13	70.8115	1,932.13	68.9985	1,932.13	70.3003	1,932.13	73.2717	1,932.13	63.7528	1,932.13	67.4843	1,932.13	63.7889	1,932.13	63.5293	1,932.13	60.7941	1,932.13	68.7503	1,932.13	66.2587	1,932.13	65.6821	1,932.13	55.5543	1,932.13	68.2845	1,932.13	64.9195
1,999.51	90.3778	1,999.51	85.8575	1,999.51	89.7077	1,999.51	86.6576	1,999.51	85.1467	1,999.51	88.9964	1,999.51	88.8376	1,999.51	88.0428	1,999.51	87.5761	1,999.51	83.7621	1,999.51	81.13	1,999.51	81.2867	1,999.51	82.5376	1,999.51	80.0334	1,999.51	83.3481	1,999.51	76.1436	1,999.51	79.5439	1,999.51	73.4873	1,999.51	72.9294	1,999.51	73.7722	1,999.51	72.0961	1,999.51	75.2129	1,999.51	68.7764	1,999.51	71.4595	1,999.51	68.0617	1,999.51	69.0511	1,999.51	58.8358	1,999.51	72.2848	1,999.51	56.6216	1,999.51	68.9479	1,999.51	67.1574	1,999.51	64.1967	1,999.51	65.2926	1,999.51	58.6899	1,999.51	65.5709	1,999.51	65.0862
2,069.82	90.9893	2,069.82	87.1397	2,069.82	89.934	2,069.82	87.0315	2,069.82	86.8992	2,069.82	88.103	2,069.82	88.6622	2,069.82	87.6894	2,069.82	87.2283	2,069.82	84.7184	2,069.82	81.7413	2,069.82	80.8964	2,069.82	82.6929	2,069.82	77.1724	2,069.82	82.4931	2,069.82	76.0416	2,069.82	79.6803	2,069.82	71.2687	2,069.82	76.7531	2,069.82	72.8159	2,069.82	68.8109	2,069.82	71.8281	2,069.82	70.8672	2,069.82	69.7162	2,069.82	67.6992	2,069.82	69.6023	2,069.82	58.3296	2,069.82	67.988	2,069.82	61.9547	2,069.82	66.3507	2,069.82	61.1493	2,069.82	64.9901	2,069.82	61.7526	2,069.82	44.6014	2,069.82	66.946	2,069.82	63.5074
2,143.07	91.2227	2,143.07	87.9166	2,143.07	90.1487	2,143.07	87.6893	2,143.07	88.9494	2,143.07	88.0207	2,143.07	88.1498	2,143.07	86.8214	2,143.07	86.1878	2,143.07	84.8515	2,143.07	83.0232	2,143.07	79.3876	2,143.07	81.2248	2,143.07	78.1957	2,143.07	82.8109	2,143.07	71.7107	2,143.07	77.7589	2,143.07	75.1747	2,143.07	74.0812	2,143.07	70.2529	2,143.07	63.7253	2,143.07	72.8746	2,143.07	67.6252	2,143.07	66.9573	2,143.07	67.6422	2,143.07	64.595	2,143.07	63.9035	2,143.07	67.2498	2,143.07	60.8647	2,143.07	68.2406	2,143.07	64.9513	2,143.07	64.7996	2,143.07	63.1347	2,143.07	58.6073	2,143.07	64.3343	2,143.07	64.3244
2,219.24	90.3877	2,219.24	87.2175	2,219.24	88.7996	2,219.24	88.8913	2,219.24	90.448	2,219.24	87.6893	2,219.24	88.7894	2,219.24	86.152	2,219.24	85.154	2,219.24	84.5157	2,219.24	83.5013	2,219.24	79.7884	2,219.24	79.046	2,219.24	76.2852	2,219.24	81.3435	2,219.24	74.4269	2,219.24	80.9724	2,219.24	71.8418	2,219.24	76.955	2,219.24	72.5472	2,219.24	58.2805	2,219.24	72.6382	2,219.24	69.82	2,219.24	69.6211	2,219.24	70.5526	2,219.24	67.0703	2,219.24	65.5367	2,219.24	66.6272	2,219.24	60.3609	2,219.24	69.9987	2,219.24	63.7523	2,219.24	68.6588	2,219.24	60.3495	2,219.24	58.0901	2,219.24	66.974	2,219.24	56.3562
2,296.88	89.4132	2,296.88	86.634	2,296.88	87.3681	2,296.88	89.465	2,296.88	90.3365	2,296.88	89.6578	2,296.88	89.5606	2,296.88	86.5969	2,296.88	84.653	2,296.88	83.3396	2,296.88	84.425	2,296.88	79.667	2,296.88	75.9995	2,296.88	76.2854	2,296.88	81.974	2,296.88	78.0308	2,296.88	80.4213	2,296.88	77.1209	2,296.88	78.6632	2,296.88	75.3008	2,296.88	63.6687	2,296.88	71.1831	2,296.88	68.432	2,296.88	72.3709	2,296.88	71.9743	2,296.88	65.7804	2,296.88	65.695	2,296.88	68.014	2,296.88	60.007	2,296.88	69.305	2,296.88	66.2401	2,296.88	65.1516	2,296.88	59.9909	2,296.88	56.0994	2,296.88	65.4776	2,296.88	58.5868
2,378.91	89.3392	2,378.91	87.8872	2,378.91	86.9899	2,378.91	88.2837	2,378.91	89.1368	2,378.91	89.2828	2,378.91	89.0657	2,378.91	86.7734	2,378.91	85.4844	2,378.91	81.5225	2,378.91	84.5147	2,378.91	80.2357	2,378.91	74.9479	2,378.91	79.9131	2,378.91	81.0593	2,378.91	75.6285	2,378.91	80.9294	2,378.91	73.1698	2,378.91	74.8198	2,378.91	72.267	2,378.91	67.7523	2,378.91	75.1217	2,378.91	62.3164	2,378.91	72.0586	2,378.91	70.3863	2,378.91	69.4138	2,378.91	60.7449	2,378.91	70.6004	2,378.91	60.4498	2,378.91	70.4738	2,378.91	63.5322	2,378.91	67.9292	2,378.91	61.6239	2,378.91	60.4823	2,378.91	66.0787	2,378.91	60.7621
2,462.4	90.3228	2,462.4	89.2596	2,462.4	88.4975	2,462.4	89.2164	2,462.4	89.0448	2,462.4	89.527	2,462.4	86.9363	2,462.4	87.6376	2,462.4	85.8251	2,462.4	81.0581	2,462.4	84.2155	2,462.4	80.5881	2,462.4	75.8763	2,462.4	78.902	2,462.4	79.3927	2,462.4	78.1362	2,462.4	82.3418	2,462.4	78.418	2,462.4	75.0675	2,462.4	76.0473	2,462.4	68.6966	2,462.4	71.3659	2,462.4	67.825	2,462.4	72.8294	2,462.4	62.5828	2,462.4	68.4831	2,462.4	57.3548	2,462.4	70.7068	2,462.4	53.0814	2,462.4	70.4142	2,462.4	64.9183	2,462.4	67.7299	2,462.4	51.1444	2,462.4	62.3647	2,462.4	65.5772	2,462.4	55.1511
2,548.83	89.9075	2,548.83	90.0107	2,548.83	89.5475	2,548.83	89.8377	2,548.83	90.8125	2,548.83	89.4429	2,548.83	86.8267	2,548.83	86.8694	2,548.83	85.0151	2,548.83	83.2065	2,548.83	84.4331	2,548.83	78.9025	2,548.83	75.1286	2,548.83	81.9851	2,548.83	80.7247	2,548.83	75.5555	2,548.83	82.0563	2,548.83	73.825	2,548.83	76.2951	2,548.83	64.7604	2,548.83	67.1257	2,548.83	75.992	2,548.83	63.9001	2,548.83	71.494	2,548.83	61.4942	2,548.83	68.8243	2,548.83	63.7628	2,548.83	70.5548	2,548.83	60.5944	2,548.83	72.1207	2,548.83	61.5333	2,548.83	69.9292	2,548.83	62.8561	2,548.83	62.9368	2,548.83	60.1429	2,548.83	62.7994
2,639.65	89.0875	2,639.65	88.8601	2,639.65	88.8102	2,639.65	90.5108	2,639.65	91.6455	2,639.65	89.9889	2,639.65	88.8138	2,639.65	86.2231	2,639.65	84.7084	2,639.65	82.8055	2,639.65	84.3017	2,639.65	82.6881	2,639.65	75.8241	2,639.65	79.7932	2,639.65	80.1173	2,639.65	80.1148	2,639.65	79.7394	2,639.65	76.351	2,639.65	76.2443	2,639.65	75.1992	2,639.65	54.9263	2,639.65	73.3737	2,639.65	62.1126	2,639.65	70.5819	2,639.65	50.0011	2,639.65	69.5577	2,639.65	65.0409	2,639.65	67.9396	2,639.65	55.9418	2,639.65	69.7719	2,639.65	61.7405	2,639.65	70.1849	2,639.65	61.3459	2,639.65	61.0927	2,639.65	63.2997	2,639.65	57.6378
2,731.93	88.4176	2,731.93	88.3044	2,731.93	87.6598	2,731.93	89.7774	2,731.93	90.7987	2,731.93	89.4163	2,731.93	88.9279	2,731.93	84.9578	2,731.93	85.9051	2,731.93	84.408	2,731.93	83.8594	2,731.93	82.8793	2,731.93	78.4536	2,731.93	80.669	2,731.93	79.8497	2,731.93	76.763	2,731.93	80.9376	2,731.93	73.661	2,731.93	76.5672	2,731.93	71.7824	2,731.93	67.1694	2,731.93	73.1671	2,731.93	58.2218	2,731.93	71.7589	2,731.93	63.7012	2,731.93	69.9176	2,731.93	65.5712	2,731.93	65.8333	2,731.93	52.1538	2,731.93	71.1391	2,731.93	59.742	2,731.93	68.2412	2,731.93	57.4313	2,731.93	62.3239	2,731.93	63.0595	2,731.93	56.0412
2,828.61	88.7781	2,828.61	89.252	2,828.61	88.1046	2,828.61	89.4941	2,828.61	89.9046	2,828.61	89.3472	2,828.61	88.8515	2,828.61	85.3197	2,828.61	86.5356	2,828.61	83.5717	2,828.61	83.6201	2,828.61	83.3467	2,828.61	78.178	2,828.61	79.6186	2,828.61	78.1916	2,828.61	79.7616	2,828.61	79.6687	2,828.61	76.0994	2,828.61	76.5283	2,828.61	75.6365	2,828.61	72.0156	2,828.61	70.7434	2,828.61	63.2418	2,828.61	73.3146	2,828.61	59.4531	2,828.61	67.2534	2,828.61	61.7869	2,828.61	68.2635	2,828.61	58.616	2,828.61	69.7665	2,828.61	61.3983	2,828.61	64.584	2,828.61	53.506	2,828.61	62.8258	2,828.61	64.5436	2,828.61	55.9388
2,928.22	89.3817	2,928.22	90.7493	2,928.22	89.0668	2,928.22	90.8108	2,928.22	89.9588	2,928.22	88.5977	2,928.22	88.6365	2,928.22	86.533	2,928.22	87.272	2,928.22	84.3246	2,928.22	83.6529	2,928.22	83.1971	2,928.22	79.0752	2,928.22	81.7165	2,928.22	77.0714	2,928.22	74.2082	2,928.22	80.1854	2,928.22	78.5535	2,928.22	78.3674	2,928.22	65.9782	2,928.22	73.0051	2,928.22	72.7719	2,928.22	67.9318	2,928.22	72.0628	2,928.22	60.215	2,928.22	70.2819	2,928.22	59.6629	2,928.22	69.4202	2,928.22	58.8464	2,928.22	70.5008	2,928.22	60.5529	2,928.22	69.5065	2,928.22	44.7865	2,928.22	66.5694	2,928.22	65.2288	2,928.22	55.8241
3,030.76	89.7774	3,030.76	90.6507	3,030.76	89.2374	3,030.76	90.9347	3,030.76	89.9626	3,030.76	88.1761	3,030.76	88.266	3,030.76	86.1167	3,030.76	87.549	3,030.76	84.6862	3,030.76	84.5804	3,030.76	82.7665	3,030.76	78.9459	3,030.76	81.0295	3,030.76	77.7278	3,030.76	77.5226	3,030.76	80.9558	3,030.76	74.4834	3,030.76	79.0042	3,030.76	72.9899	3,030.76	74.6446	3,030.76	73.5464	3,030.76	62.6651	3,030.76	71.7247	3,030.76	62.1819	3,030.76	68.3304	3,030.76	58.7044	3,030.76	69.05	3,030.76	61.1986	3,030.76	68.8821	3,030.76	60.098	3,030.76	68.3071	3,030.76	51.4697	3,030.76	65.6956	3,030.76	64.9403	3,030.76	59.415
3,137.7	89.8219	3,137.7	90.3181	3,137.7	89.3328	3,137.7	90.4566	3,137.7	90.2497	3,137.7	88.2312	3,137.7	88.2551	3,137.7	85.7371	3,137.7	86.6039	3,137.7	84.6641	3,137.7	84.6206	3,137.7	82.5342	3,137.7	79.7486	3,137.7	80.6571	3,137.7	76.4777	3,137.7	77.3217	3,137.7	79.974	3,137.7	77.0995	3,137.7	78.0625	3,137.7	72.183	3,137.7	70.1396	3,137.7	70.9771	3,137.7	56.8487	3,137.7	71.093	3,137.7	52.8701	3,137.7	68.8648	3,137.7	53.2358	3,137.7	66.4275	3,137.7	57.9467	3,137.7	69.0231	3,137.7	57.0881	3,137.7	69.4586	3,137.7	49.9371	3,137.7	65.7472	3,137.7	61.4813	3,137.7	59.0382
3,249.02	89.6301	3,249.02	90.0204	3,249.02	89.1531	3,249.02	89.2275	3,249.02	89.941	3,249.02	87.9951	3,249.02	88.9845	3,249.02	86.3414	3,249.02	85.9963	3,249.02	83.8899	3,249.02	84.0712	3,249.02	83.046	3,249.02	80.7976	3,249.02	80.1952	3,249.02	73.529	3,249.02	76.5195	3,249.02	77.1864	3,249.02	71.6905	3,249.02	74.1978	3,249.02	69.2627	3,249.02	68.6425	3,249.02	70.2822	3,249.02	58.3917	3,249.02	69.9324	3,249.02	57.9218	3,249.02	63.0902	3,249.02	56.5246	3,249.02	63.0402	3,249.02	53.8486	3,249.02	68.378	3,249.02	53.1911	3,249.02	66.5212	3,249.02	49.3985	3,249.02	61.9292	3,249.02	59.2995	3,249.02	38.3674
3,363.28	89.5848	3,363.28	90.1135	3,363.28	89.146	3,363.28	88.26	3,363.28	88.7526	3,363.28	87.1165	3,363.28	88.8007	3,363.28	85.7473	3,363.28	86.1651	3,363.28	83.6029	3,363.28	83.0635	3,363.28	82.5347	3,363.28	81.0024	3,363.28	78.5348	3,363.28	67.7388	3,363.28	77.4879	3,363.28	73.857	3,363.28	68.8064	3,363.28	67.2519	3,363.28	71.8057	3,363.28	63.2631	3,363.28	67.2274	3,363.28	60.5281	3,363.28	68.5826	3,363.28	62.9006	3,363.28	62.9001	3,363.28	53.679	3,363.28	62.093	3,363.28	49.6773	3,363.28	66.3788	3,363.28	56.67	3,363.28	65.5353	3,363.28	49.303	3,363.28	58.8714	3,363.28	60.1923	3,363.28	52.3202
3,481.93	89.9792	3,481.93	90.9442	3,481.93	89.4309	3,481.93	89.3626	3,481.93	88.6724	3,481.93	87.3736	3,481.93	88.2326	3,481.93	85.6088	3,481.93	85.9609	3,481.93	84.4568	3,481.93	82.0471	3,481.93	82.3324	3,481.93	79.2066	3,481.93	78.1806	3,481.93	68.2	3,481.93	74.0497	3,481.93	73.2861	3,481.93	72.7024	3,481.93	68.0286	3,481.93	62.4143	3,481.93	53.7723	3,481.93	66.4801	3,481.93	61.0454	3,481.93	66.8047	3,481.93	56.5546	3,481.93	66.5416	3,481.93	51.0861	3,481.93	65.2758	3,481.93	51.0808	3,481.93	65.7306	3,481.93	58.4347	3,481.93	64.9822	3,481.93	44.7976	3,481.93	60.481	3,481.93	59.2689	3,481.93	51.628
3,604.98	90.3983	3,604.98	90.867	3,604.98	88.7841	3,604.98	89.5935	3,604.98	88.412	3,604.98	88.0698	3,604.98	88.6268	3,604.98	85.9277	3,604.98	86.5326	3,604.98	84.5042	3,604.98	82.4256	3,604.98	81.859	3,604.98	79.4453	3,604.98	76.0252	3,604.98	71.408	3,604.98	72.2914	3,604.98	71.7131	3,604.98	73.3621	3,604.98	70.6108	3,604.98	62.5719	3,604.98	63.7469	3,604.98	68.0002	3,604.98	35.7462	3,604.98	67.162	3,604.98	58.3684	3,604.98	65.9365	3,604.98	51.2773	3,604.98	62.3754	3,604.98	37.013	3,604.98	65.5202	3,604.98	54.2086	3,604.98	65.1873	3,604.98	40.1947	3,604.98	62.5424	3,604.98	52.1453	3,604.98	54.2329
3,732.42	91.3476	3,732.42	90.7957	3,732.42	89.7793	3,732.42	89.5581	3,732.42	87.508	3,732.42	87.878	3,732.42	87.8785	3,732.42	86.5077	3,732.42	86.9435	3,732.42	84.155	3,732.42	82.8937	3,732.42	80.5018	3,732.42	77.2261	3,732.42	74.8189	3,732.42	74.4565	3,732.42	69.8165	3,732.42	74.2499	3,732.42	68.4992	3,732.42	73.9657	3,732.42	67.044	3,732.42	67.5332	3,732.42	70.9947	3,732.42	51.7132	3,732.42	67.8763	3,732.42	55.9197	3,732.42	66.2414	3,732.42	47.0311	3,732.42	61.2145	3,732.42	47.3681	3,732.42	65.4666	3,732.42	45.3103	3,732.42	66.6551	3,732.42	50.9222	3,732.42	60.766	3,732.42	48.9709	3,732.42	32.4059
3,864.26	90.5316	3,864.26	90.2735	3,864.26	90.1792	3,864.26	89.287	3,864.26	89.1069	3,864.26	87.7157	3,864.26	88.3104	3,864.26	87.4321	3,864.26	87.1843	3,864.26	84.6396	3,864.26	83.7373	3,864.26	79.6188	3,864.26	79.0257	3,864.26	77.8586	3,864.26	74.2678	3,864.26	75.3714	3,864.26	74.6922	3,864.26	69.3901	3,864.26	74.3078	3,864.26	71.9801	3,864.26	66.4183	3,864.26	71.2302	3,864.26	52.1878	3,864.26	68.2921	3,864.26	53.2218	3,864.26	69.3481	3,864.26	47.5083	3,864.26	65.3481	3,864.26	51.4304	3,864.26	66.9081	3,864.26	50.2759	3,864.26	66.7519	3,864.26	49.4254	3,864.26	62.332	3,864.26	57.2737	3,864.26	51.3423
4,000.49	89.9618	4,000.49	89.4366	4,000.49	88.6834	4,000.49	88.4358	4,000.49	88.7163	4,000.49	87.9962	4,000.49	89.0013	4,000.49	87.2961	4,000.49	87.068	4,000.49	83.8422	4,000.49	84.3206	4,000.49	79.8154	4,000.49	80.3518	4,000.49	77.6384	4,000.49	72.9223	4,000.49	79.0622	4,000.49	74.2642	4,000.49	77.1154	4,000.49	74.4034	4,000.49	72.291	4,000.49	63.2882	4,000.49	70.5104	4,000.49	45.4517	4,000.49	68.6048	4,000.49	57.2522	4,000.49	68.0862	4,000.49	52.1893	4,000.49	63.8311	4,000.49	54.5928	4,000.49	65.239	4,000.49	46.9489	4,000.49	67.222	4,000.49	44.7073	4,000.49	62.4895	4,000.49	58.8765	4,000.49	51.89
4,141.11	90.7161	4,141.11	89.9641	4,141.11	89.6875	4,141.11	88.4657	4,141.11	87.7876	4,141.11	87.8763	4,141.11	88.3807	4,141.11	87.1309	4,141.11	86.653	4,141.11	83.376	4,141.11	83.8488	4,141.11	80.1472	4,141.11	80.5984	4,141.11	78.4155	4,141.11	75.7689	4,141.11	78.484	4,141.11	74.1664	4,141.11	77.1565	4,141.11	74.1348	4,141.11	69.9534	4,141.11	69.369	4,141.11	70.8078	4,141.11	57.5757	4,141.11	71.2859	4,141.11	61.1688	4,141.11	67.5686	4,141.11	51.5659	4,141.11	57.9334	4,141.11	53.1549	4,141.11	67.732	4,141.11	45.0261	4,141.11	67.4803	4,141.11	52.2811	4,141.11	60.7193	4,141.11	54.6451	4,141.11	53.5586
4,287.6	90.5438	4,287.6	90.0209	4,287.6	89.9663	4,287.6	88.309	4,287.6	87.789	4,287.6	87.8554	4,287.6	87.4751	4,287.6	86.6867	4,287.6	86.5044	4,287.6	82.2915	4,287.6	83.5984	4,287.6	81.3618	4,287.6	80.7685	4,287.6	81.972	4,287.6	76.2145	4,287.6	76.6781	4,287.6	74.9297	4,287.6	73.2655	4,287.6	72.022	4,287.6	68.9239	4,287.6	67.2651	4,287.6	70.9798	4,287.6	52.2502	4,287.6	66.5087	4,287.6	58.4977	4,287.6	66.7769	4,287.6	50.4752	4,287.6	64.2138	4,287.6	52.4119	4,287.6	62.5849	4,287.6	54.0722	4,287.6	66.0766	4,287.6	44.1437	4,287.6	59.7769	4,287.6	56.3509	4,287.6	51.5823
4,438.48	90.7211	4,438.48	89.7595	4,438.48	90.0351	4,438.48	88.0237	4,438.48	88.1591	4,438.48	88.0922	4,438.48	86.8571	4,438.48	86.1907	4,438.48	85.4729	4,438.48	81.5176	4,438.48	83.7009	4,438.48	82.3807	4,438.48	80.7676	4,438.48	79.37	4,438.48	76.3759	4,438.48	76.838	4,438.48	73.1764	4,438.48	70.7415	4,438.48	68.9995	4,438.48	68.6081	4,438.48	60.5148	4,438.48	66.3687	4,438.48	52.8512	4,438.48	66.4074	4,438.48	53.1442	4,438.48	66.662	4,438.48	55.6995	4,438.48	57.509	4,438.48	54.9588	4,438.48	61.8629	4,438.48	50.3212	4,438.48	64.9044	4,438.48	53.0641	4,438.48	60.3478	4,438.48	57.5672	4,438.48	51.5499
4,595.21	89.8984	4,595.21	89.769	4,595.21	89.688	4,595.21	87.6782	4,595.21	88.2537	4,595.21	87.4686	4,595.21	86.7616	4,595.21	84.7442	4,595.21	85.3202	4,595.21	80.8238	4,595.21	84.1925	4,595.21	80.339	4,595.21	82.2248	4,595.21	77.7184	4,595.21	77.1286	4,595.21	75.2922	4,595.21	70.3108	4,595.21	69.7274	4,595.21	69.7569	4,595.21	66.4386	4,595.21	57.127	4,595.21	64.8203	4,595.21	52.6219	4,595.21	65.9392	4,595.21	53.5526	4,595.21	61.556	4,595.21	43.3244	4,595.21	57.5169	4,595.21	48.678	4,595.21	64.0318	4,595.21	45.2653	4,595.21	63.9929	4,595.21	52.3486	4,595.21	54.6643	4,595.21	53.3521	4,595.21	54.8532
4,756.35	90.4218	4,756.35	89.8818	4,756.35	88.9433	4,756.35	88.5341	4,756.35	88.0063	4,756.35	88.4674	4,756.35	87.241	4,756.35	83.6718	4,756.35	85.3174	4,756.35	82.094	4,756.35	83.6708	4,756.35	81.4527	4,756.35	81.9405	4,756.35	76.3955	4,756.35	76.2046	4,756.35	68.6088	4,756.35	67.191	4,756.35	65.6346	4,756.35	71.2267	4,756.35	61.8037	4,756.35	63.0052	4,756.35	62.5673	4,756.35	41.7023	4,756.35	59.1536	4,756.35	43.0178	4,756.35	60.9207	4,756.35	56.6729	4,756.35	61.2342	4,756.35	49.11	4,756.35	61.5364	4,756.35	34.7652	4,756.35	62.3258	4,756.35	49.2922	4,756.35	53.7657	4,756.35	52.8726	4,756.35	52.0685
4,924.8	90.2649	4,924.8	89.6035	4,924.8	89.8875	4,924.8	88.0171	4,924.8	87.4746	4,924.8	87.8008	4,924.8	86.5201	4,924.8	83.8141	4,924.8	85.8791	4,924.8	82.1927	4,924.8	83.6268	4,924.8	80.6626	4,924.8	81.1004	4,924.8	73.4421	4,924.8	75.0929	4,924.8	69.8291	4,924.8	64.39	4,924.8	68.8592	4,924.8	68.7415	4,924.8	65.9925	4,924.8	62.4834	4,924.8	64.8034	4,924.8	50.876	4,924.8	61.9731	4,924.8	42.989	4,924.8	60.7814	4,924.8	49.7296	4,924.8	60.7624	4,924.8	42.1007	4,924.8	60.834	4,924.8	33.695	4,924.8	62.2827	4,924.8	45.069	4,924.8	53.7962	4,924.8	48.5304	4,924.8	55.0502
5,097.66	89.7448	5,097.66	88.8972	5,097.66	89.4974	5,097.66	88.9401	5,097.66	88.7509	5,097.66	87.6999	5,097.66	86.1023	5,097.66	84.4237	5,097.66	85.0334	5,097.66	83.7226	5,097.66	83.122	5,097.66	78.4997	5,097.66	79.5289	5,097.66	74.9321	5,097.66	72.467	5,097.66	72.2434	5,097.66	67.4324	5,097.66	71.3164	5,097.66	64.6564	5,097.66	69.0312	5,097.66	42.4615	5,097.66	67.6187	5,097.66	51.9645	5,097.66	65.7135	5,097.66	49.3512	5,097.66	64.9188	5,097.66	47.7247	5,097.66	62.7932	5,097.66	53.5517	5,097.66	62.3882	5,097.66	49.9893	5,097.66	62.9409	5,097.66	49.3149	5,097.66	60.3784	5,097.66	57.9661	5,097.66	52.5464
5,277.83	90.0869	5,277.83	88.7497	5,277.83	89.2948	5,277.83	88.5244	5,277.83	88.4306	5,277.83	86.8618	5,277.83	86.4614	5,277.83	85.0788	5,277.83	84.3186	5,277.83	83.674	5,277.83	81.9702	5,277.83	80.1342	5,277.83	78.9342	5,277.83	75.4354	5,277.83	71.6154	5,277.83	75.5479	5,277.83	68.4782	5,277.83	71.906	5,277.83	67.2479	5,277.83	69.5472	5,277.83	54.9426	5,277.83	67.4312	5,277.83	52.1493	5,277.83	66.2825	5,277.83	52.429	5,277.83	65.7411	5,277.83	50.7488	5,277.83	63.7091	5,277.83	51.6362	5,277.83	63.4553	5,277.83	42.0757	5,277.83	65.1141	5,277.83	47.2005	5,277.83	59.3253	5,277.83	57.9347	5,277.83	48.5501
5,463.87	90.0865	5,463.87	88.8427	5,463.87	89.4556	5,463.87	88.7138	5,463.87	87.8068	5,463.87	86.2304	5,463.87	86.7644	5,463.87	84.901	5,463.87	85.0852	5,463.87	83.3913	5,463.87	81.0574	5,463.87	76.883	5,463.87	77.8398	5,463.87	77.7236	5,463.87	73.4282	5,463.87	75.2689	5,463.87	68.9491	5,463.87	72.4275	5,463.87	64.8929	5,463.87	67.8245	5,463.87	53.5168	5,463.87	66.4343	5,463.87	55.3584	5,463.87	64.7538	5,463.87	53.4243	5,463.87	65.7911	5,463.87	33.6987	5,463.87	63.3877	5,463.87	49.4866	5,463.87	64.1483	5,463.87	42.1047	5,463.87	64.4812	5,463.87	41.1024	5,463.87	59.1623	5,463.87	54.6337	5,463.87	47.524
5,657.23	90.1842	5,657.23	88.8646	5,657.23	89.8721	5,657.23	88.5944	5,657.23	87.9388	5,657.23	85.8804	5,657.23	86.2001	5,657.23	85.2861	5,657.23	84.9058	5,657.23	82.5522	5,657.23	82.3906	5,657.23	78.2838	5,657.23	78.0014	5,657.23	77.7373	5,657.23	74.1949	5,657.23	75.1297	5,657.23	67.5265	5,657.23	68.1248	5,657.23	63.7007	5,657.23	68.7765	5,657.23	52.8079	5,657.23	63.0805	5,657.23	51.3196	5,657.23	62.948	5,657.23	44.3905	5,657.23	65.3975	5,657.23	52.4795	5,657.23	62.9502	5,657.23	47.3817	5,657.23	61.5657	5,657.23	44.6627	5,657.23	62.1635	5,657.23	42.877	5,657.23	56.5192	5,657.23	56.5499	5,657.23	49.9307
5,856.45	89.4941	5,856.45	89.1216	5,856.45	89.19	5,856.45	88.9619	5,856.45	88.2424	5,856.45	85.7876	5,856.45	86.789	5,856.45	85.239	5,856.45	84.841	5,856.45	80.6633	5,856.45	83.098	5,856.45	77.9364	5,856.45	79.1121	5,856.45	77.4428	5,856.45	74.5175	5,856.45	73.0779	5,856.45	66.3033	5,856.45	68.9268	5,856.45	61.8461	5,856.45	63.4727	5,856.45	50.9394	5,856.45	57.3641	5,856.45	31.8205	5,856.45	61.5089	5,856.45	47.181	5,856.45	64.0534	5,856.45	54.0018	5,856.45	60.7438	5,856.45	49.9254	5,856.45	56.4675	5,856.45	45.3885	5,856.45	58.8455	5,856.45	40.6897	5,856.45	53.7712	5,856.45	55.1638	5,856.45	49.2905
6,062.99	90.4544	6,062.99	89.6487	6,062.99	89.6544	6,062.99	89.2659	6,062.99	87.8724	6,062.99	86.8163	6,062.99	87.4181	6,062.99	85.5531	6,062.99	84.8143	6,062.99	79.2613	6,062.99	82.682	6,062.99	79.9012	6,062.99	79.0908	6,062.99	76.0792	6,062.99	74.3419	6,062.99	67.0404	6,062.99	67.2695	6,062.99	65.0322	6,062.99	65.7627	6,062.99	62.5706	6,062.99	56.917	6,062.99	61.5736	6,062.99	52.7244	6,062.99	61.4773	6,062.99	55.122	6,062.99	57.7569	6,062.99	54.1429	6,062.99	58.5281	6,062.99	52.3528	6,062.99	58.3255	6,062.99	44.5201	6,062.99	59.3805	6,062.99	49.3487	6,062.99	53.8615	6,062.99	57.3524	6,062.99	36.7167
6,276.86	89.8422	6,276.86	89.3929	6,276.86	90.1324	6,276.86	89.2421	6,276.86	88.1956	6,276.86	87.0469	6,276.86	86.5476	6,276.86	85.5115	6,276.86	84.6796	6,276.86	81.6684	6,276.86	82.5186	6,276.86	80.8199	6,276.86	78.0033	6,276.86	74.0514	6,276.86	73.723	6,276.86	70.466	6,276.86	67.9687	6,276.86	67.2681	6,276.86	67.1379	6,276.86	67.5724	6,276.86	49.5219	6,276.86	60.9358	6,276.86	50.3063	6,276.86	63.2811	6,276.86	41.0203	6,276.86	62.676	6,276.86	50.7159	6,276.86	59.9761	6,276.86	46.0455	6,276.86	59.5998	6,276.86	41.9299	6,276.86	61.1751	6,276.86	35.3527	6,276.86	55.2689	6,276.86	56.8692	6,276.86	47.0047
6,498.05	90.2862	6,498.05	89.8761	6,498.05	89.935	6,498.05	88.9549	6,498.05	88.2626	6,498.05	87.1375	6,498.05	86.8977	6,498.05	85.1231	6,498.05	84.606	6,498.05	82.9153	6,498.05	82.437	6,498.05	80.2418	6,498.05	79.4638	6,498.05	73.0291	6,498.05	75.0783	6,498.05	73.0156	6,498.05	68.7544	6,498.05	72.0773	6,498.05	66.3309	6,498.05	66.1645	6,498.05	51.0928	6,498.05	65.29	6,498.05	51.654	6,498.05	64.0052	6,498.05	46.0501	6,498.05	65.6556	6,498.05	53.2646	6,498.05	63.5105	6,498.05	46.7985	6,498.05	58.0234	6,498.05	45.0196	6,498.05	62.0727	6,498.05	51.9731	6,498.05	57.6012	6,498.05	56.0729	6,498.05	42.2816
6,726.56	90.7861	6,726.56	90.3111	6,726.56	90.4522	6,726.56	88.8411	6,726.56	88.214	6,726.56	87.3446	6,726.56	86.9923	6,726.56	84.0802	6,726.56	85.1587	6,726.56	84.0032	6,726.56	82.6622	6,726.56	77.7942	6,726.56	79.0529	6,726.56	75.6445	6,726.56	77.0142	6,726.56	74.8448	6,726.56	68.8652	6,726.56	70.678	6,726.56	64.8068	6,726.56	66.9083	6,726.56	44.6802	6,726.56	63.6635	6,726.56	53.4817	6,726.56	65.7179	6,726.56	50.4336	6,726.56	62.4905	6,726.56	53.6058	6,726.56	61.2569	6,726.56	47.1846	6,726.56	54.7056	6,726.56	51.6421	6,726.56	60.5181	6,726.56	43.1792	6,726.56	55.3753	6,726.56	55.4648	6,726.56	48.8376
6,963.87	90.3741	6,963.87	90.2199	6,963.87	90.5616	6,963.87	88.7069	6,963.87	88.9972	6,963.87	87.6226	6,963.87	86.4799	6,963.87	83.1997	6,963.87	84.8755	6,963.87	83.5737	6,963.87	82.3535	6,963.87	76.462	6,963.87	79.4902	6,963.87	76.9227	6,963.87	77.2552	6,963.87	73.1424	6,963.87	66.1734	6,963.87	64.7711	6,963.87	59.1862	6,963.87	62.4754	6,963.87	56.8238	6,963.87	60.7713	6,963.87	43.424	6,963.87	62.8713	6,963.87	36.922	6,963.87	63.5587	6,963.87	47.1098	6,963.87	60.1019	6,963.87	43.3135	6,963.87	49.848	6,963.87	40.0303	6,963.87	58.6296	6,963.87	41.7191	6,963.87	57.806	6,963.87	53.7898	6,963.87	45.288
7,209.96	91.1257	7,209.96	91.0777	7,209.96	90.6961	7,209.96	89.216	7,209.96	89.0958	7,209.96	88.0778	7,209.96	86.9851	7,209.96	84.4747	7,209.96	84.5078	7,209.96	82.6011	7,209.96	81.6876	7,209.96	77.7576	7,209.96	79.923	7,209.96	77.1003	7,209.96	75.9046	7,209.96	68.7321	7,209.96	62.4039	7,209.96	70.0603	7,209.96	59.81	7,209.96	61.7822	7,209.96	55.575	7,209.96	61.3682	7,209.96	43.2632	7,209.96	62.9096	7,209.96	50.6589	7,209.96	59.9562	7,209.96	48.7303	7,209.96	53.1032	7,209.96	43.9952	7,209.96	50.4288	7,209.96	42.845	7,209.96	54.1176	7,209.96	49.0357	7,209.96	57.5448	7,209.96	54.1296	7,209.96	35.7838
7,464.84	91.0553	7,464.84	91.1717	7,464.84	91.5937	7,464.84	89.0985	7,464.84	89.4627	7,464.84	87.987	7,464.84	86.9919	7,464.84	85.0559	7,464.84	85.0699	7,464.84	81.3611	7,464.84	82.0838	7,464.84	79.1804	7,464.84	79.5396	7,464.84	75.4357	7,464.84	72.174	7,464.84	66.617	7,464.84	66.8398	7,464.84	60.1889	7,464.84	57.5976	7,464.84	61.1339	7,464.84	54.8196	7,464.84	62.8774	7,464.84	43.1984	7,464.84	63.7228	7,464.84	49.7491	7,464.84	58.8003	7,464.84	33.3481	7,464.84	55.2804	7,464.84	36.2696	7,464.84	48.1327	7,464.84	43.7199	7,464.84	50.0056	7,464.84	48.1991	7,464.84	57.1919	7,464.84	53.3624	7,464.84	29.2878
7,727.05	91.5866	7,727.05	91.4711	7,727.05	91.3197	7,727.05	89.5439	7,727.05	89.6678	7,727.05	87.8962	7,727.05	87.4516	7,727.05	86.0948	7,727.05	84.8904	7,727.05	80.5726	7,727.05	81.6929	7,727.05	80.9768	7,727.05	78.4134	7,727.05	72.1046	7,727.05	69.1727	7,727.05	72.3905	7,727.05	69.686	7,727.05	72.2015	7,727.05	61.1579	7,727.05	65.502	7,727.05	52.3102	7,727.05	64.2963	7,727.05	44.5281	7,727.05	63.1768	7,727.05	51.7698	7,727.05	58.9518	7,727.05	48.7024	7,727.05	57.5106	7,727.05	45.1564	7,727.05	51.3267	7,727.05	46.2904	7,727.05	48.428	7,727.05	48.2007	7,727.05	56.9782	7,727.05	56.1045	7,727.05	45.7732
7,999.51	91.8144	7,999.51	91.7024	7,999.51	91.6908	7,999.51	89.9793	7,999.51	89.7274	7,999.51	86.8152	7,999.51	87.4087	7,999.51	86.225	7,999.51	85.093	7,999.51	81.9512	7,999.51	81.8457	7,999.51	79.2289	7,999.51	76.646	7,999.51	74.2322	7,999.51	75.2455	7,999.51	70.999	7,999.51	72.0818	7,999.51	67.8501	7,999.51	59.6077	7,999.51	62.487	7,999.51	43.4429	7,999.51	64.7839	7,999.51	44.05	7,999.51	64.0163	7,999.51	50.8599	7,999.51	60.4827	7,999.51	46.47	7,999.51	58.8504	7,999.51	48.2125	7,999.51	48.8356	7,999.51	42.3981	7,999.51	45.9416	7,999.51	46.5846	7,999.51	54.0607	7,999.51	55.3846	7,999.51	49.6594
8,282.23	91.7248	8,282.23	91.8329	8,282.23	91.6498	8,282.23	90.6446	8,282.23	89.9912	8,282.23	86.3964	8,282.23	87.4127	8,282.23	85.2906	8,282.23	84.6491	8,282.23	83.472	8,282.23	81.5421	8,282.23	76.4997	8,282.23	77.2799	8,282.23	75.6693	8,282.23	77.21	8,282.23	72.1896	8,282.23	69.7262	8,282.23	69.435	8,282.23	55.9914	8,282.23	58.3993	8,282.23	54.7308	8,282.23	63.1749	8,282.23	46.1841	8,282.23	60.3173	8,282.23	45.7105	8,282.23	60.3549	8,282.23	45.9433	8,282.23	55.7315	8,282.23	45.8989	8,282.23	52.2774	8,282.23	43.1484	8,282.23	42.2824	8,282.23	34.3585	8,282.23	49.4456	8,282.23	50.4168	8,282.23	49.2442
8,573.73	91.5841	8,573.73	90.9228	8,573.73	91.4502	8,573.73	90.0354	8,573.73	89.3528	8,573.73	86.2441	8,573.73	87.1363	8,573.73	83.3441	8,573.73	84.4529	8,573.73	82.8879	8,573.73	81.0082	8,573.73	76.7924	8,573.73	77.7361	8,573.73	75.1609	8,573.73	75.7907	8,573.73	66.6622	8,573.73	66.4939	8,573.73	65.9686	8,573.73	57.3936	8,573.73	59.396	8,573.73	50.4317	8,573.73	62.4959	8,573.73	50.4406	8,573.73	60.4175	8,573.73	47.6662	8,573.73	49.2456	8,573.73	45.6077	8,573.73	54.6628	8,573.73	39.9678	8,573.73	50.4746	8,573.73	41.3901	8,573.73	49.1862	8,573.73	35.85	8,573.73	46.4993	8,573.73	45.2799	8,573.73	47.7117
8,876.95	90.8214	8,876.95	90.1732	8,876.95	90.6093	8,876.95	89.7549	8,876.95	89.0324	8,876.95	86.3554	8,876.95	86.2759	8,876.95	81.8821	8,876.95	83.5119	8,876.95	81.1193	8,876.95	80.849	8,876.95	77.2598	8,876.95	78.6245	8,876.95	73.9792	8,876.95	70.754	8,876.95	64.034	8,876.95	65.3616	8,876.95	62.7109	8,876.95	57.5758	8,876.95	63.7612	8,876.95	53.9763	8,876.95	61.3251	8,876.95	56.6074	8,876.95	59.7776	8,876.95	53.4017	8,876.95	53.3838	8,876.95	51.964	8,876.95	43.1579	8,876.95	48.3959	8,876.95	58.983	8,876.95	50.8567	8,876.95	57.3714	8,876.95	49.7893	8,876.95	50.0754	8,876.95	47.1434	8,876.95	48.3149
9,188.96	90.9177	9,188.96	89.8559	9,188.96	90.6409	9,188.96	89.2701	9,188.96	88.9007	9,188.96	86.4511	9,188.96	86.1828	9,188.96	81.8431	9,188.96	83.0424	9,188.96	79.9253	9,188.96	80.1926	9,188.96	78.0435	9,188.96	77.193	9,188.96	71.0096	9,188.96	70.4448	9,188.96	69.1958	9,188.96	65.565	9,188.96	63.1199	9,188.96	57.6587	9,188.96	59.4887	9,188.96	49.9247	9,188.96	61.2688	9,188.96	55.962	9,188.96	56.8786	9,188.96	50.307	9,188.96	60.2332	9,188.96	52.1324	9,188.96	54.2517	9,188.96	48.8815	9,188.96	58.4644	9,188.96	52.963	9,188.96	59.0636	9,188.96	50.9422	9,188.96	52.0332	9,188.96	53.23	9,188.96	52.8834
9,514.16	90.8141	9,514.16	89.7285	9,514.16	90.2908	9,514.16	88.8476	9,514.16	88.7496	9,514.16	86.2957	9,514.16	85.9071	9,514.16	82.2044	9,514.16	82.6615	9,514.16	77.401	9,514.16	79.2916	9,514.16	76.7018	9,514.16	76.7588	9,514.16	71.656	9,514.16	70.2318	9,514.16	70.4153	9,514.16	65.4162	9,514.16	62.4354	9,514.16	56.7346	9,514.16	59.3659	9,514.16	55.4469	9,514.16	59.8094	9,514.16	56.5995	9,514.16	57.4727	9,514.16	52.9738	9,514.16	58.0844	9,514.16	54.9224	9,514.16	51.3045	9,514.16	53.4453	9,514.16	59.5553	9,514.16	56.8327	9,514.16	60.4204	9,514.16	54.8891	9,514.16	49.1276	9,514.16	58.2995	9,514.16	57.8624
9,849.61	90.3756	9,849.61	89.5447	9,849.61	89.9278	9,849.61	88.0737	9,849.61	88.0976	9,849.61	85.2586	9,849.61	85.4025	9,849.61	82.2296	9,849.61	81.6029	9,849.61	78.3116	9,849.61	78.2048	9,849.61	74.2697	9,849.61	74.2011	9,849.61	72.8738	9,849.61	70.8235	9,849.61	63.1249	9,849.61	63.2416	9,849.61	57.2856	9,849.61	54.7972	9,849.61	58.4514	9,849.61	53.7011	9,849.61	60.5702	9,849.61	54.4286	9,849.61	57.6675	9,849.61	53.5179	9,849.61	59.9774	9,849.61	54.7443	9,849.61	55.1517	9,849.61	54.0514	9,849.61	57.9389	9,849.61	56.3136	9,849.61	61.0352	9,849.61	55.4825	9,849.61	34.9798	9,849.61	57.638	9,849.61	58.4417
10,196.8	90.2721	10,196.8	90.1259	10,196.8	89.5786	10,196.8	88.2075	10,196.8	87.4823	10,196.8	84.5755	10,196.8	84.5607	10,196.8	81.5321	10,196.8	80.4807	10,196.8	79.9853	10,196.8	76.7663	10,196.8	74.3906	10,196.8	73.7006	10,196.8	71.7677	10,196.8	70.1301	10,196.8	65.4057	10,196.8	64.1304	10,196.8	63.3867	10,196.8	41.8801	10,196.8	59.8236	10,196.8	57.4655	10,196.8	61.6345	10,196.8	51.5079	10,196.8	59.6454	10,196.8	54.3731	10,196.8	58.9294	10,196.8	55.1178	10,196.8	49.2652	10,196.8	53.8335	10,196.8	56.4517	10,196.8	56.8952	10,196.8	60.7796	10,196.8	56.5433	10,196.8	45.086	10,196.8	58.0336	10,196.8	58.9247
10,555.7	90.066	10,555.7	90.4263	10,555.7	89.5204	10,555.7	88.2171	10,555.7	87.0047	10,555.7	83.9592	10,555.7	83.9758	10,555.7	80.0282	10,555.7	79.5745	10,555.7	79.8136	10,555.7	76.1881	10,555.7	76.1306	10,555.7	73.0873	10,555.7	71.0537	10,555.7	69.838	10,555.7	68.0869	10,555.7	61.9863	10,555.7	61.9026	10,555.7	48.4184	10,555.7	58.6335	10,555.7	56.9595	10,555.7	62.8004	10,555.7	51.0297	10,555.7	59.608	10,555.7	52.6322	10,555.7	56.9411	10,555.7	53.4586	10,555.7	50.288	10,555.7	52.5184	10,555.7	54.941	10,555.7	56.0374	10,555.7	61.7273	10,555.7	55.9365	10,555.7	44.8769	10,555.7	57.5645	10,555.7	58.9794
10,927.7	90.2875	10,927.7	90.8162	10,927.7	89.6478	10,927.7	88.2008	10,927.7	86.8589	10,927.7	83.5527	10,927.7	83.6621	10,927.7	78.5031	10,927.7	79.463	10,927.7	78.0154	10,927.7	75.9703	10,927.7	76.5506	10,927.7	71.1684	10,927.7	71.5722	10,927.7	69.4111	10,927.7	68.5846	10,927.7	57.8848	10,927.7	56.9643	10,927.7	43.9905	10,927.7	62.7955	10,927.7	53.3377	10,927.7	60.6769	10,927.7	53.475	10,927.7	57.8008	10,927.7	49.3724	10,927.7	54.0993	10,927.7	51.7223	10,927.7	53.537	10,927.7	53.3009	10,927.7	55.5572	10,927.7	55.9988	10,927.7	63.2709	10,927.7	55.5825	10,927.7	48.9884	10,927.7	57.7314	10,927.7	57.9687
11,313	90.3681	11,313	91.0784	11,313	89.6755	11,313	87.9838	11,313	86.8723	11,313	83.1797	11,313	83.4649	11,313	77.6894	11,313	79.1654	11,313	75.0955	11,313	75.8492	11,313	74.6557	11,313	72.9139	11,313	72.9006	11,313	67.1313	11,313	68.1584	11,313	59.8388	11,313	63.0681	11,313	39.1198	11,313	61.6644	11,313	50.6722	11,313	59.5678	11,313	56.1156	11,313	55.765	11,313	51.3976	11,313	54.5066	11,313	52.5986	11,313	56.2349	11,313	55.6105	11,313	56.8293	11,313	57.7659	11,313	64.0857	11,313	57.9685	11,313	50.6895	11,313	57.6665	11,313	58.8999
11,712.9	90.1595	11,712.9	90.8467	11,712.9	89.5424	11,712.9	87.0932	11,712.9	86.9414	11,712.9	82.5532	11,712.9	83.3127	11,712.9	77.8105	11,712.9	78.6476	11,712.9	74.9949	11,712.9	75.5173	11,712.9	71.9294	11,712.9	74.1859	11,712.9	71.7611	11,712.9	68.2064	11,712.9	68.8208	11,712.9	60.838	11,712.9	64.1021	11,712.9	49.2547	11,712.9	61.8067	11,712.9	49.9684	11,712.9	59.8908	11,712.9	57.5806	11,712.9	52.6381	11,712.9	54.7321	11,712.9	58.4595	11,712.9	56.153	11,712.9	58.8484	11,712.9	57.7625	11,712.9	56.63	11,712.9	59.5647	11,712.9	64.1413	11,712.9	59.4675	11,712.9	53.0693	11,712.9	59.4108	11,712.9	61.061
12,126	89.9822	12,126	90.2033	12,126	89.032	12,126	85.757	12,126	86.9833	12,126	80.9965	12,126	83.3701	12,126	76.3508	12,126	78.8202	12,126	75.5382	12,126	75.2649	12,126	73.3093	12,126	73.2062	12,126	70.1264	12,126	68.4583	12,126	68.0848	12,126	61.7507	12,126	63.8812	12,126	43.6618	12,126	61.3324	12,126	50.3192	12,126	60.2063	12,126	58.7338	12,126	51.7855	12,126	57.5247	12,126	60.9598	12,126	58.3644	12,126	59.9457	12,126	58.5955	12,126	57.0853	12,126	60.1575	12,126	63.9657	12,126	60.3675	12,126	53.1226	12,126	61.2203	12,126	61.5711
12,553.7	89.5097	12,553.7	89.3352	12,553.7	88.1765	12,553.7	84.6292	12,553.7	86.4873	12,553.7	78.9679	12,553.7	82.5123	12,553.7	73.259	12,553.7	77.3711	12,553.7	73.7456	12,553.7	74.155	12,553.7	74.0359	12,553.7	70.7548	12,553.7	71.9682	12,553.7	68.6593	12,553.7	69.2886	12,553.7	59.9748	12,553.7	65.2122	12,553.7	43.6878	12,553.7	61.7907	12,553.7	49.8958	12,553.7	61.2758	12,553.7	58.8507	12,553.7	55.077	12,553.7	58.753	12,553.7	60.7172	12,553.7	58.7682	12,553.7	58.8553	12,553.7	58.1337	12,553.7	56.3813	12,553.7	59.0865	12,553.7	64.0796	12,553.7	60.3405	12,553.7	53.5176	12,553.7	61.0368	12,553.7	61.5682
12,996.1	88.6773	12,996.1	88.5025	12,996.1	86.9015	12,996.1	83.6632	12,996.1	85.0474	12,996.1	78.0559	12,996.1	80.7432	12,996.1	71.3328	12,996.1	75.4893	12,996.1	71.2721	12,996.1	72.4301	12,996.1	72.5806	12,996.1	69.9407	12,996.1	71.4481	12,996.1	66.8194	12,996.1	68.9248	12,996.1	59.716	12,996.1	65.0958	12,996.1	43.2988	12,996.1	60.3158	12,996.1	44.352	12,996.1	59.4602	12,996.1	57.9835	12,996.1	52.4978	12,996.1	57.3017	12,996.1	61.3359	12,996.1	57.8286	12,996.1	59.0283	12,996.1	57.834	12,996.1	54.913	12,996.1	58.6185	12,996.1	64.2264	12,996.1	59.7338	12,996.1	55.4682	12,996.1	59.6783	12,996.1	61.2932
13,454.6	88.8719	13,454.6	88.2772	13,454.6	86.9344	13,454.6	83.7088	13,454.6	85.1018	13,454.6	77.7115	13,454.6	80.7176	13,454.6	71.2861	13,454.6	75.2756	13,454.6	70.1151	13,454.6	72.4385	13,454.6	70.7516	13,454.6	70.6532	13,454.6	70.4757	13,454.6	66.8907	13,454.6	67.3718	13,454.6	60.3468	13,454.6	65.4429	13,454.6	44.3688	13,454.6	54.272	13,454.6	46.9055	13,454.6	59.8141	13,454.6	59.1622	13,454.6	54.0738	13,454.6	58.3955	13,454.6	61.5296	13,454.6	57.9222	13,454.6	61.1249	13,454.6	58.492	13,454.6	56.8589	13,454.6	58.2807	13,454.6	65.3253	13,454.6	59.8776	13,454.6	57.6617	13,454.6	58.9583	13,454.6	61.1372
13,929.2	90.5358	13,929.2	89.7181	13,929.2	88.469	13,929.2	85.4805	13,929.2	86.4432	13,929.2	78.9053	13,929.2	81.4813	13,929.2	73.7173	13,929.2	76.029	13,929.2	71.5401	13,929.2	73.5647	13,929.2	73.0801	13,929.2	72.0124	13,929.2	71.5292	13,929.2	68.8448	13,929.2	69.0176	13,929.2	61.4537	13,929.2	66.7751	13,929.2	44.7239	13,929.2	55.2405	13,929.2	49.7633	13,929.2	62.037	13,929.2	61.7679	13,929.2	57.0643	13,929.2	61.374	13,929.2	64.4535	13,929.2	59.9215	13,929.2	63.5338	13,929.2	60.4015	13,929.2	59.7403	13,929.2	59.693	13,929.2	67.5109	13,929.2	61.3351	13,929.2	61.2267	13,929.2	60.0858	13,929.2	63.2654
14,419.9	90.2801	14,419.9	89.1386	14,419.9	87.9953	14,419.9	84.7802	14,419.9	85.5554	14,419.9	77.8365	14,419.9	79.9554	14,419.9	73.8469	14,419.9	74.0974	14,419.9	68.5149	14,419.9	72.1863	14,419.9	74.5001	14,419.9	70.7955	14,419.9	71.0911	14,419.9	66.5236	14,419.9	67.5304	14,419.9	62.8382	14,419.9	65.0534	14,419.9	50.3504	14,419.9	52.9104	14,419.9	50.1902	14,419.9	62.0355	14,419.9	61.5091	14,419.9	58.183	14,419.9	61.5392	14,419.9	64.4785	14,419.9	59.1895	14,419.9	62.087	14,419.9	59.4716	14,419.9	58.6769	14,419.9	58.3483	14,419.9	66.8846	14,419.9	60.0656	14,419.9	61.5485	14,419.9	58.9221	14,419.9	63.6012
14,928.2	87.8976	14,928.2	86.7728	14,928.2	85.2709	14,928.2	82.5458	14,928.2	82.3059	14,928.2	75.6417	14,928.2	75.8898	14,928.2	71.7196	14,928.2	70.4924	14,928.2	62.395	14,928.2	68.2988	14,928.2	72.9863	14,928.2	67.0444	14,928.2	67.8678	14,928.2	64.6397	14,928.2	62.5752	14,928.2	60.4313	14,928.2	61.7558	14,928.2	51.8213	14,928.2	51.1358	14,928.2	47.6199	14,928.2	59.7036	14,928.2	58.4445	14,928.2	56.4063	14,928.2	58.6224	14,928.2	61.0269	14,928.2	55.9181	14,928.2	61.1362	14,928.2	56.2025	14,928.2	55.0778	14,928.2	55.3684	14,928.2	64.9035	14,928.2	56.4751	14,928.2	57.7508	14,928.2	57.4695	14,928.2	62.0734
15,455.6	86.9978	15,455.6	86.14	15,455.6	84.4121	15,455.6	81.9136	15,455.6	81.7542	15,455.6	75.3617	15,455.6	75.515	15,455.6	71.6542	15,455.6	70.1388	15,455.6	58.7695	15,455.6	67.9939	15,455.6	71.4944	15,455.6	66.5562	15,455.6	64.4752	15,455.6	64.5211	15,455.6	56.4193	15,455.6	59.7653	15,455.6	58.738	15,455.6	51.8821	15,455.6	51.8845	15,455.6	52.0406	15,455.6	58.2109	15,455.6	56.295	15,455.6	54.6248	15,455.6	56.2059	15,455.6	59.533	15,455.6	53.5501	15,455.6	59.6937	15,455.6	53.6492	15,455.6	52.0039	15,455.6	51.614	15,455.6	64.6682	15,455.6	52.3444	15,455.6	56.5761	15,455.6	57.3972	15,455.6	57.0809
16,000.5	87.9193	16,000.5	86.3078	16,000.5	85.8265	16,000.5	82.555	16,000.5	82.5075	16,000.5	75.5639	16,000.5	76.7574	16,000.5	72.7693	16,000.5	71.7153	16,000.5	53.4962	16,000.5	69.3603	16,000.5	71.6943	16,000.5	68.4401	16,000.5	63.2905	16,000.5	64.0231	16,000.5	51.1828	16,000.5	61.8997	16,000.5	58.6385	16,000.5	53.0403	16,000.5	53.337	16,000.5	56.5407	16,000.5	55.7521	16,000.5	56.0984	16,000.5	52.6014	16,000.5	55.8298	16,000.5	53.342	16,000.5	51.221	16,000.5	61.6097	16,000.5	53.9439	16,000.5	49.6835	16,000.5	47.5276	16,000.5	64.115	16,000.5	48.7934	16,000.5	63.2052	16,000.5	57.5854	16,000.5	53.6486
16,564.5	89.34	16,564.5	86.0185	16,564.5	87.8689	16,564.5	83.7737	16,564.5	84.146	16,564.5	76.0189	16,564.5	78.2045	16,564.5	73.562	16,564.5	72.6642	16,564.5	55.2009	16,564.5	69.1635	16,564.5	72.2548	16,564.5	70.5833	16,564.5	62.7793	16,564.5	63.6297	16,564.5	57.4263	16,564.5	62.2975	16,564.5	61.5766	16,564.5	54.5439	16,564.5	55.8382	16,564.5	59.2717	16,564.5	54.8319	16,564.5	55.5308	16,564.5	46.0152	16,564.5	55.0451	16,564.5	44.8854	16,564.5	49.1145	16,564.5	61.7631	16,564.5	53.7011	16,564.5	51.5759	16,564.5	49.0561	16,564.5	64.4086	16,564.5	46.4407	16,564.5	63.4804	16,564.5	59.0818	16,564.5	58.285
17,148.9	89.3717	17,148.9	85.8201	17,148.9	87.7558	17,148.9	83.8699	17,148.9	83.9365	17,148.9	75.7737	17,148.9	78.124	17,148.9	73.0591	17,148.9	72.5826	17,148.9	62.0581	17,148.9	68.0345	17,148.9	70.8041	17,148.9	70.6395	17,148.9	62.6436	17,148.9	63.8623	17,148.9	62.3823	17,148.9	60.4748	17,148.9	64.7921	17,148.9	55.711	17,148.9	52.4241	17,148.9	59.8778	17,148.9	57.1063	17,148.9	52.3025	17,148.9	40.2605	17,148.9	53.8733	17,148.9	47.6736	17,148.9	45.8297	17,148.9	60.1507	17,148.9	51.6604	17,148.9	53.0085	17,148.9	48.5885	17,148.9	64.3537	17,148.9	41.2422	17,148.9	61.8807	17,148.9	59.4045	17,148.9	57.1867
17,752.4	88.268	17,752.4	84.4904	17,752.4	86.5644	17,752.4	81.8935	17,752.4	82.524	17,752.4	73.6692	17,752.4	76.553	17,752.4	71.3421	17,752.4	70.8114	17,752.4	63.8623	17,752.4	66.2221	17,752.4	68.2845	17,752.4	69.1386	17,752.4	63.5501	17,752.4	60.5417	17,752.4	61.0974	17,752.4	58.1398	17,752.4	66.1678	17,752.4	53.9575	17,752.4	52.0995	17,752.4	58.8015	17,752.4	57.3947	17,752.4	50.3708	17,752.4	32.1814	17,752.4	52.1543	17,752.4	52.7065	17,752.4	46.5907	17,752.4	58.3818	17,752.4	50.5281	17,752.4	49.6136	17,752.4	47.6074	17,752.4	62.4553	17,752.4	39.9512	17,752.4	59.2252	17,752.4	58.2404	17,752.4	53.7171
18,379.4	88.1722	18,379.4	83.8158	18,379.4	86.2905	18,379.4	81.5106	18,379.4	81.4431	18,379.4	73.1124	18,379.4	75.459	18,379.4	71.0107	18,379.4	69.9437	18,379.4	64.5551	18,379.4	63.8444	18,379.4	67.0699	18,379.4	68.5635	18,379.4	62.0848	18,379.4	54.94	18,379.4	62.1898	18,379.4	57.1231	18,379.4	66.4349	18,379.4	53.2396	18,379.4	56.0078	18,379.4	58.7171	18,379.4	59.7203	18,379.4	49.2875	18,379.4	47.9655	18,379.4	48.3055	18,379.4	56.3646	18,379.4	46.5023	18,379.4	57.2935	18,379.4	49.1321	18,379.4	40.6339	18,379.4	47.8966	18,379.4	60.2677	18,379.4	47.9243	18,379.4	58.9431	18,379.4	59.0214	18,379.4	55.6715
19,026.9	88.0392	19,026.9	82.6099	19,026.9	85.9546	19,026.9	81.311	19,026.9	80.2839	19,026.9	71.8244	19,026.9	74.7032	19,026.9	69.4755	19,026.9	69.4972	19,026.9	66.3197	19,026.9	62.4249	19,026.9	66.1385	19,026.9	68.4185	19,026.9	60.4767	19,026.9	53.1156	19,026.9	59.6307	19,026.9	54.4927	19,026.9	66.2632	19,026.9	51.6852	19,026.9	57.5577	19,026.9	58.4992	19,026.9	60.6934	19,026.9	49.696	19,026.9	52.928	19,026.9	42.2765	19,026.9	57.6938	19,026.9	45.7482	19,026.9	57.0217	19,026.9	46.5975	19,026.9	38.599	19,026.9	45.7239	19,026.9	57.4899	19,026.9	49.424	19,026.9	59.0459	19,026.9	58.7524	19,026.9	55.9371
19,697.8	87.4238	19,697.8	80.5001	19,697.8	85.3704	19,697.8	81.2441	19,697.8	79.7992	19,697.8	71.055	19,697.8	74.7325	19,697.8	67.7803	19,697.8	69.5835	19,697.8	66.8663	19,697.8	61.3071	19,697.8	67.0262	19,697.8	68.295	19,697.8	58.7679	19,697.8	52.8162	19,697.8	56.7511	19,697.8	52.1847	19,697.8	64.8492	19,697.8	49.7493	19,697.8	56.2303	19,697.8	58.1156	19,697.8	60.152	19,697.8	51.0923	19,697.8	52.7739	19,697.8	45.6766	19,697.8	58.5895	19,697.8	49.6827	19,697.8	56.3175	19,697.8	45.0858	19,697.8	43.3214	19,697.8	43.4219	19,697.8	54.9546	19,697.8	49.0931	19,697.8	59.217	19,697.8	58.0961	19,697.8	54.0184
19,999.5	87.5243	19,999.5	80.1097	19,999.5	85.4523	19,999.5	81.5781	19,999.5	80.0373	19,999.5	71.7082	19,999.5	74.685	19,999.5	67.6399	19,999.5	68.9941	19,999.5	66.42	19,999.5	62.1236	19,999.5	68.1635	19,999.5	67.4508	19,999.5	57.1882	19,999.5	58.8574	19,999.5	57.5311	19,999.5	52.5969	19,999.5	65.2945	19,999.5	34.3602	19,999.5	54.1094	19,999.5	59.4512	19,999.5	60.2977	19,999.5	51.2743	19,999.5	54.3472	19,999.5	47.9679	19,999.5	57.6125	19,999.5	52.9558	19,999.5	56.4051	19,999.5	46.0728	19,999.5	46.599	19,999.5	44.1298	19,999.5	52.1304	19,999.5	50.8206	19,999.5	57.7795	19,999.5	57.9078	19,999.5	55.0101
