"SPL Vertical"
"On-Axis"		"10°"		"-10°"		"20°"		"-20°"		"30°"		"-30°"		"40°"		"-40°"		"50°"		"-50°"		"60°"		"-60°"		"70°"		"-70°"		"80°"		"-80°"		"90°"		"-90°"		"100°"		"-100°"		"110°"		"-110°"		"120°"		"-120°"		"130°"		"-130°"		"140°"		"-140°"		"150°"		"-150°"		"160°"		"-160°"		"170°"		"-170°"		"180°"
"Frequency [Hz]"	"Sound Pessure Level [dB]  / [2.83V 1m] "	"Frequency [Hz]"	"Sound Pessure Level [dB]  / [2.83V 1m] "	"Frequency [Hz]"	"Sound Pessure Level [dB]  / [2.83V 1m] "	"Frequency [Hz]"	"Sound Pessure Level [dB]  / [2.83V 1m] "	"Frequency [Hz]"	"Sound Pessure Level [dB]  / [2.83V 1m] "	"Frequency [Hz]"	"Sound Pessure Level [dB]  / [2.83V 1m] "	"Frequency [Hz]"	"Sound Pessure Level [dB]  / [2.83V 1m] "	"Frequency [Hz]"	"Sound Pessure Level [dB]  / [2.83V 1m] "	"Frequency [Hz]"	"Sound Pessure Level [dB]  / [2.83V 1m] "	"Frequency [Hz]"	"Sound Pessure Level [dB]  / [2.83V 1m] "	"Frequency [Hz]"	"Sound Pessure Level [dB]  / [2.83V 1m] "	"Frequency [Hz]"	"Sound Pessure Level [dB]  / [2.83V 1m] "	"Frequency [Hz]"	"Sound Pessure Level [dB]  / [2.83V 1m] "	"Frequency [Hz]"	"Sound Pessure Level [dB]  / [2.83V 1m] "	"Frequency [Hz]"	"Sound Pessure Level [dB]  / [2.83V 1m] "	"Frequency [Hz]"	"Sound Pessure Level [dB]  / [2.83V 1m] "	"Frequency [Hz]"	"Sound Pessure Level [dB]  / [2.83V 1m] "	"Frequency [Hz]"	"Sound Pessure Level [dB]  / [2.83V 1m] "	"Frequency [Hz]"	"Sound Pessure Level [dB]  / [2.83V 1m] "	"Frequency [Hz]"	"Sound Pessure Level [dB]  / [2.83V 1m] "	"Frequency [Hz]"	"Sound Pessure Level [dB]  / [2.83V 1m] "	"Frequency [Hz]"	"Sound Pessure Level [dB]  / [2.83V 1m] "	"Frequency [Hz]"	"Sound Pessure Level [dB]  / [2.83V 1m] "	"Frequency [Hz]"	"Sound Pessure Level [dB]  / [2.83V 1m] "	"Frequency [Hz]"	"Sound Pessure Level [dB]  / [2.83V 1m] "	"Frequency [Hz]"	"Sound Pessure Level [dB]  / [2.83V 1m] "	"Frequency [Hz]"	"Sound Pessure Level [dB]  / [2.83V 1m] "	"Frequency [Hz]"	"Sound Pessure Level [dB]  / [2.83V 1m] "	"Frequency [Hz]"	"Sound Pessure Level [dB]  / [2.83V 1m] "	"Frequency [Hz]"	"Sound Pessure Level [dB]  / [2.83V 1m] "	"Frequency [Hz]"	"Sound Pessure Level [dB]  / [2.83V 1m] "	"Frequency [Hz]"	"Sound Pessure Level [dB]  / [2.83V 1m] "	"Frequency [Hz]"	"Sound Pessure Level [dB]  / [2.83V 1m] "	"Frequency [Hz]"	"Sound Pessure Level [dB]  / [2.83V 1m] "	"Frequency [Hz]"	"Sound Pessure Level [dB]  / [2.83V 1m] "	"Frequency [Hz]"	"Sound Pessure Level [dB]  / [2.83V 1m] "
20.5078	48.68	20.5078	48.4063	20.5078	48.7635	20.5078	47.9563	20.5078	48.644	20.5078	47.3532	20.5078	48.3093	20.5078	46.6452	20.5078	47.7518	20.5078	45.9349	20.5078	46.9876	20.5078	45.4116	20.5078	46.1072	20.5078	45.3255	20.5078	45.3747	20.5078	45.832	20.5078	45.2643	20.5078	46.8419	20.5078	46.0913	20.5078	48.1121	20.5078	47.5848	20.5078	49.4284	20.5078	49.2477	20.5078	50.6661	20.5078	50.7782	20.5078	51.766	20.5078	52.0635	20.5078	52.7021	20.5078	53.0775	20.5078	53.4619	20.5078	53.8246	20.5078	54.0373	20.5078	54.3179	20.5078	54.4206	20.5078	54.5726	20.5078	54.6026
21.9727	52.0236	21.9727	51.6816	21.9727	52.1662	21.9727	51.1422	21.9727	52.1027	21.9727	50.4053	21.9727	51.8204	21.9727	49.4767	21.9727	51.3029	21.9727	48.3912	21.9727	50.5363	21.9727	47.2659	21.9727	49.5315	21.9727	46.3896	21.9727	48.3902	21.9727	46.2067	21.9727	47.4428	21.9727	46.939	21.9727	47.2867	21.9727	48.2936	21.9727	48.221	21.9727	49.8318	21.9727	49.7909	21.9727	51.2926	21.9727	51.4254	21.9727	52.5734	21.9727	52.8503	21.9727	53.6433	21.9727	53.9866	21.9727	54.496	21.9727	54.8277	21.9727	55.1303	21.9727	55.3875	21.9727	55.544	21.9727	55.6835	21.9727	55.7314
23.4375	51.899	23.4375	51.5474	23.4375	52.0591	23.4375	51.0147	23.4375	52.0188	23.4375	50.3216	23.4375	51.7691	23.4375	49.5181	23.4375	51.305	23.4375	48.7209	23.4375	50.6407	23.4375	48.1558	23.4375	49.8484	23.4375	48.1177	23.4375	49.1355	23.4375	48.7544	23.4375	48.8948	23.4375	49.9076	23.4375	49.4732	23.4375	51.2824	23.4375	50.7556	23.4375	52.658	23.4375	52.3097	23.4375	53.9217	23.4375	53.8042	23.4375	55.0264	23.4375	55.0908	23.4375	55.9541	23.4375	56.1231	23.4375	56.6973	23.4375	56.8962	23.4375	57.2508	23.4375	57.4187	23.4375	57.6086	23.4375	57.7032	23.4375	57.7627
24.9023	54.0565	24.9023	53.7867	24.9023	54.1781	24.9023	53.3874	24.9023	54.1396	24.9023	52.8909	24.9023	53.9356	24.9023	52.3553	24.9023	53.5715	24.9023	51.8798	24.9023	53.0786	24.9023	51.6086	24.9023	52.5428	24.9023	51.6902	24.9023	52.1413	24.9023	52.19	24.9023	52.1286	24.9023	53.0387	24.9023	52.6799	24.9023	54.0861	24.9023	53.714	24.9023	55.1886	24.9023	54.9729	24.9023	56.2478	24.9023	56.2238	24.9023	57.2065	24.9023	57.3336	24.9023	58.0327	24.9023	58.2434	24.9023	58.7075	24.9023	58.9336	24.9023	59.2179	24.9023	59.4023	24.9023	59.553	24.9023	59.6555	24.9023	59.7023
26.3672	56.2326	26.3672	55.964	26.3672	56.3631	26.3672	55.5736	26.3672	56.3448	26.3672	55.0882	26.3672	56.1721	26.3672	54.5541	26.3672	55.848	26.3672	54.0496	26.3672	55.3945	26.3672	53.6919	26.3672	54.8737	26.3672	53.6158	26.3672	54.416	26.3672	53.9112	26.3672	54.2265	26.3672	54.5603	26.3672	54.4974	26.3672	55.4504	26.3672	55.2477	26.3672	56.4447	26.3672	56.2982	26.3672	57.4344	26.3672	57.4233	26.3672	58.3493	26.3672	58.4643	26.3672	59.1477	26.3672	59.3386	26.3672	59.8045	26.3672	60.0115	26.3672	60.3029	26.3672	60.473	26.3672	60.6298	26.3672	60.7248	26.3672	60.774
27.832	57.8979	27.832	57.6488	27.832	58.0226	27.832	57.2912	27.832	58.0125	27.832	56.851	27.832	57.8622	27.832	56.3707	27.832	57.5747	27.832	55.9195	27.832	57.1708	27.832	55.5977	27.832	56.7059	27.832	55.5194	27.832	56.2927	27.832	55.765	27.832	56.1056	27.832	56.3306	27.832	56.3147	27.832	57.13	27.832	56.9573	27.832	58.0453	27.832	57.899	27.832	58.9743	27.832	58.9413	27.832	59.8453	27.832	59.9289	27.832	60.613	27.832	60.7721	27.832	61.2486	27.832	61.4289	27.832	61.7323	27.832	61.8837	27.832	62.0492	27.832	62.1346	27.832	62.1869
29.2969	59.2802	29.2969	59.0518	29.2969	59.4073	29.2969	58.7404	29.2969	59.4221	29.2969	58.3749	29.2969	59.3207	29.2969	57.9999	29.2969	59.1099	29.2969	57.6802	29.2969	58.8151	29.2969	57.4981	29.2969	58.4929	29.2969	57.5346	29.2969	58.2436	29.2969	57.8359	29.2969	58.2019	29.2969	58.3872	29.2969	58.4811	29.2969	59.1205	29.2969	59.094	29.2969	59.9472	29.2969	59.9373	29.2969	60.7876	29.2969	60.862	29.2969	61.582	29.2969	61.7432	29.2969	62.2888	29.2969	62.5017	29.2969	62.8796	29.2969	63.0957	29.2969	63.3338	29.2969	63.507	29.2969	63.6354	29.2969	63.7312	29.2969	63.7714
30.7617	59.7565	30.7617	59.5898	30.7617	59.8224	30.7617	59.344	30.7617	59.7758	30.7617	59.0527	30.7617	59.6158	30.7617	58.7649	30.7617	59.357	30.7617	58.5468	30.7617	59.0386	30.7617	58.4739	30.7617	58.7371	30.7617	58.6115	30.7617	58.5702	30.7617	58.9865	30.7617	58.669	30.7617	59.5732	30.7617	59.1085	30.7617	60.3066	30.7617	59.8503	30.7617	61.1098	30.7617	60.7689	30.7617	61.9148	30.7617	61.7256	30.7617	62.6698	30.7617	62.6165	30.7617	63.3379	30.7617	63.3781	30.7617	63.8926	30.7617	63.977	30.7617	64.3142	30.7617	64.3981	30.7617	64.587	30.7617	64.6376	30.7617	64.6982
32.2266	61.6565	32.2266	61.5154	32.2266	61.7338	32.2266	61.3241	32.2266	61.7406	32.2266	61.1045	32.2266	61.6783	32.2266	60.8887	32.2266	61.5574	32.2266	60.7191	32.2266	61.4026	32.2266	60.6451	32.2266	61.2569	32.2266	60.7131	32.2266	61.1826	32.2266	60.9518	32.2266	61.2512	32.2266	61.3599	32.2266	61.5174	32.2266	61.9058	32.2266	61.9883	32.2266	62.5387	32.2266	62.6151	32.2266	63.2036	32.2266	63.3158	32.2266	63.8509	32.2266	64.0069	32.2266	64.4408	32.2266	64.6224	32.2266	64.9422	32.2266	65.1189	32.2266	65.3316	32.2266	65.471	32.2266	65.5907	32.2266	65.6674	32.2266	65.7058
33.6914	63.3226	33.6914	63.1822	33.6914	63.4068	33.6914	62.998	33.6914	63.4287	33.6914	62.7888	33.6914	63.3883	33.6914	62.5814	33.6914	63.2934	33.6914	62.4108	33.6914	63.163	33.6914	62.3178	33.6914	63.0305	33.6914	62.3424	33.6914	62.9452	33.6914	62.5124	33.6914	62.9663	33.6914	62.8336	33.6914	63.1445	33.6914	63.2858	33.6914	63.4984	33.6914	63.8297	33.6914	64.0009	33.6914	64.4172	33.6914	64.5897	33.6914	65.0018	33.6914	65.191	33.6914	65.5432	33.6914	65.7405	33.6914	66.0092	33.6914	66.1914	33.6914	66.3743	33.6914	66.5147	33.6914	66.6191	33.6914	66.6955	33.6914	66.7292
35.1562	64.8969	35.1562	64.7372	35.1562	64.9946	35.1562	64.5287	35.1562	65.0228	35.1562	64.2914	35.1562	64.9798	35.1562	64.0527	35.1562	64.8721	35.1562	63.8486	35.1562	64.717	35.1562	63.7214	35.1562	64.5475	35.1562	63.7129	35.1562	64.4142	35.1562	63.8533	35.1562	64.3807	35.1562	64.1502	35.1562	64.506	35.1562	64.5842	35.1562	64.8171	35.1562	65.1154	35.1562	65.2912	35.1562	65.6947	35.1562	65.8649	35.1562	66.2743	35.1562	66.4602	35.1562	66.8129	35.1562	67.0082	35.1562	67.2774	35.1562	67.4594	35.1562	67.6421	35.1562	67.7832	35.1562	67.887	35.1562	67.964	35.1562	67.9974
36.6211	65.8754	36.6211	65.7399	36.6211	65.9604	36.6211	65.5671	36.6211	65.9879	36.6211	65.3765	36.6211	65.9576	36.6211	65.1945	36.6211	65.8778	36.6211	65.0536	36.6211	65.7678	36.6211	64.9898	36.6211	65.661	36.6211	65.0364	36.6211	65.6046	36.6211	65.215	36.6211	65.6522	36.6211	65.5282	36.6211	65.8469	36.6211	65.9573	36.6211	66.2008	36.6211	66.4681	36.6211	66.6861	36.6211	67.0188	36.6211	67.2448	36.6211	67.5682	36.6211	67.8103	36.6211	68.0798	36.6211	68.3239	36.6211	68.5233	36.6211	68.743	36.6211	68.874	36.6211	69.0405	36.6211	69.113	36.6211	69.2027	36.6211	69.2257
38.0859	66.8397	38.0859	66.7278	38.0859	66.9156	38.0859	66.5919	38.0859	66.9492	38.0859	66.4501	38.0859	66.9408	38.0859	66.3258	38.0859	66.8991	38.0859	66.247	38.0859	66.8429	38.0859	66.2429	38.0859	66.8023	38.0859	66.3385	38.0859	66.8172	38.0859	66.5487	38.0859	66.9296	38.0859	66.8728	38.0859	67.1699	38.0859	67.2937	38.0859	67.5421	38.0859	67.7825	38.0859	68.0193	38.0859	68.304	38.0859	68.5519	38.0859	68.8225	38.0859	69.0834	38.0859	69.3057	38.0859	69.5634	38.0859	69.7256	38.0859	69.9541	38.0859	70.0592	38.0859	70.2306	38.0859	70.2879	38.0859	70.3798	38.0859	70.3978
39.5508	67.9632	39.5508	67.8816	39.5508	68.0267	39.5508	67.7904	39.5508	68.068	39.5508	67.7025	39.5508	68.0881	39.5508	67.6341	39.5508	68.0938	39.5508	67.6044	39.5508	68.0987	39.5508	67.6331	39.5508	68.1233	39.5508	67.7372	39.5508	68.1936	39.5508	67.9272	39.5508	68.3354	39.5508	68.2039	39.5508	68.5669	39.5508	68.557	39.5508	68.8903	39.5508	68.9671	39.5508	69.2881	39.5508	69.4082	39.5508	69.7269	39.5508	69.8523	39.5508	70.1655	39.5508	70.2715	39.5508	70.5641	39.5508	70.6406	39.5508	70.8902	39.5508	70.9378	39.5508	71.1206	39.5508	71.1452	39.5508	71.2419	39.5508	71.2494
41.0156	69.5759	41.0156	69.469	41.0156	69.6598	41.0156	69.3463	41.0156	69.7167	41.0156	69.2187	41.0156	69.7459	41.0156	69.0998	41.0156	69.751	41.0156	69.0068	41.0156	69.7407	41.0156	68.958	41.0156	69.7295	41.0156	68.9717	41.0156	69.7374	41.0156	69.062	41.0156	69.7876	41.0156	69.2353	41.0156	69.9013	41.0156	69.4885	41.0156	70.0903	41.0156	69.8078	41.0156	70.3507	41.0156	70.1715	41.0156	70.6624	41.0156	70.5531	41.0156	70.993	41.0156	70.9248	41.0156	71.306	41.0156	71.2602	41.0156	71.5684	41.0156	71.5363	41.0156	71.7544	41.0156	71.7344	41.0156	71.8476	41.0156	71.8407
42.4805	70.6091	42.4805	70.5087	42.4805	70.685	42.4805	70.3919	42.4805	70.7314	42.4805	70.2701	42.4805	70.7471	42.4805	70.1577	42.4805	70.7358	42.4805	70.0713	42.4805	70.7069	42.4805	70.029	42.4805	70.676	42.4805	70.0475	42.4805	70.6652	42.4805	70.1398	42.4805	70.6999	42.4805	70.3112	42.4805	70.8028	42.4805	70.5582	42.4805	70.9867	42.4805	70.8675	42.4805	71.2476	42.4805	71.2183	42.4805	71.564	42.4805	71.5852	42.4805	71.9023	42.4805	71.9417	42.4805	72.2247	42.4805	72.2622	42.4805	72.4973	42.4805	72.5242	42.4805	72.694	42.4805	72.709	42.4805	72.7983	42.4805	72.803
43.9453	71.4545	43.9453	71.3661	43.9453	71.5246	43.9453	71.2668	43.9453	71.5725	43.9453	71.1665	43.9453	71.5975	43.9453	71.0778	43.9453	71.6035	43.9453	71.0151	43.9453	71.5991	43.9453	70.9937	43.9453	71.5983	43.9453	71.0275	43.9453	71.6195	43.9453	71.1271	43.9453	71.6831	43.9453	71.2968	43.9453	71.8064	43.9453	71.5333	43.9453	71.9977	43.9453	71.8252	43.9453	72.2521	43.9453	72.1547	43.9453	72.5502	43.9453	72.4995	43.9453	72.863	43.9453	72.8356	43.9453	73.1578	43.9453	73.1395	43.9453	73.4045	43.9453	73.3902	43.9453	73.58	43.9453	73.5699	43.9453	73.6691	43.9453	73.6654
45.4102	72.3795	45.4102	72.2987	45.4102	72.447	45.4102	72.2108	45.4102	72.498	45.4102	72.1244	45.4102	72.5318	45.4102	72.05	45.4102	72.5516	45.4102	71.9996	45.4102	72.5645	45.4102	71.9858	45.4102	72.5816	45.4102	72.0205	45.4102	72.6177	45.4102	72.1124	45.4102	72.6888	45.4102	72.2654	45.4102	72.8084	45.4102	72.4775	45.4102	72.9834	45.4102	72.7394	45.4102	73.2096	45.4102	73.0364	45.4102	73.4719	45.4102	73.3493	45.4102	73.7461	45.4102	73.6566	45.4102	74.0042	45.4102	73.937	45.4102	74.2197	45.4102	74.1706	45.4102	74.3714	45.4102	74.3407	45.4102	74.4451	45.4102	74.4346
46.875	73.3307	46.875	73.2512	46.875	73.399	46.875	73.1661	46.875	73.453	46.875	73.0827	46.875	73.4919	46.875	73.0102	46.875	73.5179	46.875	72.9592	46.875	73.5368	46.875	72.9405	46.875	73.5575	46.875	72.9647	46.875	73.5923	46.875	73.0398	46.875	73.6546	46.875	73.1701	46.875	73.7564	46.875	73.3543	46.875	73.9044	46.875	73.5855	46.875	74.0966	46.875	73.851	46.875	74.3211	46.875	74.134	46.875	74.5576	46.875	74.415	46.875	74.7818	46.875	74.6739	46.875	74.9693	46.875	74.892	46.875	75.1002	46.875	75.053	46.875	75.1609	46.875	75.145
48.3398	74.1711	48.3398	74.0912	48.3398	74.242	48.3398	74.0075	48.3398	74.3007	48.3398	73.9268	48.3398	74.3459	48.3398	73.857	48.3398	74.3792	48.3398	73.8075	48.3398	74.4046	48.3398	73.7878	48.3398	74.4296	48.3398	73.8069	48.3398	74.4645	48.3398	73.872	48.3398	74.5207	48.3398	73.987	48.3398	74.6092	48.3398	74.1515	48.3398	74.7366	48.3398	74.3596	48.3398	74.9022	48.3398	74.6007	48.3398	75.0969	48.3398	74.8597	48.3398	75.3034	48.3398	75.119	48.3398	75.5	48.3398	75.36	48.3398	75.6647	48.3398	75.5649	48.3398	75.7786	48.3398	75.7182	48.3398	75.8286	48.3398	75.8083
51.2695	75.7145	51.2695	75.6441	51.2695	75.7772	51.2695	75.5696	51.2695	75.8299	51.2695	75.4962	51.2695	75.872	51.2695	75.4304	51.2695	75.9049	51.2695	75.3795	51.2695	75.9316	51.2695	75.3515	51.2695	75.9575	51.2695	75.3544	51.2695	75.9899	51.2695	75.3949	51.2695	76.0374	51.2695	75.4773	51.2695	76.1079	51.2695	75.6028	51.2695	76.2071	51.2695	75.768	51.2695	76.3351	51.2695	75.9649	51.2695	76.4858	51.2695	76.1817	51.2695	76.6466	51.2695	76.4033	51.2695	76.8003	51.2695	76.6132	51.2695	76.9286	51.2695	76.7951	51.2695	77.0151	51.2695	76.9346	51.2695	77.0478	51.2695	77.0209
52.7344	76.387	52.7344	76.3201	52.7344	76.4505	52.7344	76.2528	52.7344	76.5087	52.7344	76.1891	52.7344	76.5611	52.7344	76.1344	52.7344	76.6082	52.7344	76.0948	52.7344	76.6521	52.7344	76.0767	52.7344	76.6963	52.7344	76.0869	52.7344	76.7458	52.7344	76.1307	52.7344	76.8064	52.7344	76.2119	52.7344	76.8838	52.7344	76.3314	52.7344	76.982	52.7344	76.4864	52.7344	77.1009	52.7344	76.67	52.7344	77.2357	52.7344	76.872	52.7344	77.3759	52.7344	77.079	52.7344	77.5076	52.7344	77.2764	52.7344	77.6152	52.7344	77.4492	52.7344	77.6844	52.7344	77.5842	52.7344	77.7049	52.7344	77.6713
54.1992	77.0824	54.1992	77.0119	54.1992	77.1502	54.1992	76.9418	54.1992	77.213	54.1992	76.876	54.1992	77.2696	54.1992	76.8191	54.1992	77.3197	54.1992	76.7765	54.1992	77.3643	54.1992	76.7538	54.1992	77.4059	54.1992	76.7568	54.1992	77.4486	54.1992	76.7903	54.1992	77.4978	54.1992	76.8578	54.1992	77.5591	54.1992	76.9603	54.1992	77.6367	54.1992	77.0957	54.1992	77.7318	54.1992	77.2584	54.1992	77.8411	54.1992	77.4395	54.1992	77.9561	54.1992	77.6273	54.1992	78.0647	54.1992	77.8083	54.1992	78.1528	54.1992	77.9688	54.1992	78.2074	54.1992	78.0964	54.1992	78.2186	54.1992	78.1815
55.6641	77.6041	55.6641	77.5345	55.6641	77.6708	55.6641	77.465	55.6641	77.7323	55.6641	77.3996	55.6641	77.787	55.6641	77.3425	55.6641	77.8346	55.6641	77.2988	55.6641	77.876	55.6641	77.2738	55.6641	77.9137	55.6641	77.2727	55.6641	77.9518	55.6641	77.3001	55.6641	77.9956	55.6641	77.3593	55.6641	78.0506	55.6641	77.4515	55.6641	78.121	55.6641	77.5752	55.6641	78.2079	55.6641	77.7256	55.6641	78.3079	55.6641	77.8945	55.6641	78.4132	55.6641	78.0713	55.6641	78.5121	55.6641	78.2432	55.6641	78.5914	55.6641	78.3971	55.6641	78.6388	55.6641	78.5211	55.6641	78.645	55.6641	78.6055
58.5938	78.3826	58.5938	78.3226	58.5938	78.4432	58.5938	78.2653	58.5938	78.5029	58.5938	78.2133	58.5938	78.5607	58.5938	78.1697	58.5938	78.6161	58.5938	78.1383	58.5938	78.6693	58.5938	78.1228	58.5938	78.7215	58.5938	78.1274	58.5938	78.7744	58.5938	78.1555	58.5938	78.8307	58.5938	78.2098	58.5938	78.8929	58.5938	78.2915	58.5938	78.9632	58.5938	78.3995	58.5938	79.0416	58.5938	78.5304	58.5938	79.1256	58.5938	78.6778	58.5938	79.2097	58.5938	78.8331	58.5938	79.2852	58.5938	78.9858	58.5938	79.3423	58.5938	79.1246	58.5938	79.3716	58.5938	79.2393	58.5938	79.3657	58.5938	79.3214
60.0586	78.8104	60.0586	78.749	60.0586	78.8737	60.0586	78.6915	60.0586	78.9374	60.0586	78.6402	60.0586	79	60.0586	78.5978	60.0586	79.0608	60.0586	78.5672	60.0586	79.1193	60.0586	78.5516	60.0586	79.1758	60.0586	78.5543	60.0586	79.2313	60.0586	78.5782	60.0586	79.2872	60.0586	78.6256	60.0586	79.3455	60.0586	78.6976	60.0586	79.4077	60.0586	78.7936	60.0586	79.4738	60.0586	78.9107	60.0586	79.5422	60.0586	79.0439	60.0586	79.6083	60.0586	79.1858	60.0586	79.6652	60.0586	79.3272	60.0586	79.7049	60.0586	79.4581	60.0586	79.7194	60.0586	79.5691	60.0586	79.7028	60.0586	79.6523
62.9883	79.5485	62.9883	79.4893	62.9883	79.6119	62.9883	79.4361	62.9883	79.6781	62.9883	79.3902	62.9883	79.7455	62.9883	79.3535	62.9883	79.8124	62.9883	79.3278	62.9883	79.8776	62.9883	79.3151	62.9883	79.9398	62.9883	79.3174	62.9883	79.9985	62.9883	79.3367	62.9883	80.0537	62.9883	79.3747	62.9883	80.1061	62.9883	79.4325	62.9883	80.1565	62.9883	79.5099	62.9883	80.205	62.9883	79.6052	62.9883	80.2509	62.9883	79.715	62.9883	80.2916	62.9883	79.8338	62.9883	80.3229	62.9883	79.9546	62.9883	80.3392	62.9883	80.0694	62.9883	80.335	62.9883	80.1704	62.9883	80.306	62.9883	80.2507
64.4531	79.8681	64.4531	79.8102	64.4531	79.9314	64.4531	79.7591	64.4531	79.9987	64.4531	79.7161	64.4531	80.0683	64.4531	79.6825	64.4531	80.1383	64.4531	79.6595	64.4531	80.2071	64.4531	79.6488	64.4531	80.273	64.4531	79.6518	64.4531	80.3347	64.4531	79.6702	64.4531	80.3918	64.4531	79.7055	64.4531	80.4441	64.4531	79.7584	64.4531	80.4919	64.4531	79.8291	64.4531	80.5354	64.4531	79.9165	64.4531	80.5739	64.4531	80.0175	64.4531	80.6055	64.4531	80.1277	64.4531	80.6268	64.4531	80.241	64.4531	80.6335	64.4531	80.3501	64.4531	80.6211	64.4531	80.4479	64.4531	80.5863	64.4531	80.528
67.3828	80.3745	67.3828	80.3212	67.3828	80.4362	67.3828	80.2771	67.3828	80.5052	67.3828	80.2425	67.3828	80.5796	67.3828	80.2177	67.3828	80.6572	67.3828	80.203	67.3828	80.7354	67.3828	80.1986	67.3828	80.8112	67.3828	80.2052	67.3828	80.882	67.3828	80.2234	67.3828	80.9455	67.3828	80.2542	67.3828	81.0003	67.3828	80.2983	67.3828	81.0454	67.3828	80.3561	67.3828	81.0806	67.3828	80.4274	67.3828	81.1055	67.3828	80.5107	67.3828	81.1194	67.3828	80.6031	67.3828	81.1211	67.3828	80.7004	67.3828	81.1083	67.3828	80.7975	67.3828	81.0792	67.3828	80.8885	67.3828	81.0324	67.3828	80.9681
68.8477	80.6372	68.8477	80.5844	68.8477	80.6985	68.8477	80.5405	68.8477	80.767	68.8477	80.5057	68.8477	80.8411	68.8477	80.4801	68.8477	80.9182	68.8477	80.4635	68.8477	80.9954	68.8477	80.456	68.8477	81.0696	68.8477	80.4579	68.8477	81.1376	68.8477	80.4698	68.8477	81.1969	68.8477	80.4927	68.8477	81.2457	68.8477	80.5274	68.8477	81.2829	68.8477	80.5746	68.8477	81.3083	68.8477	80.6345	68.8477	81.322	68.8477	80.7062	68.8477	81.3239	68.8477	80.7878	68.8477	81.3134	68.8477	80.8758	68.8477	81.2897	68.8477	80.9658	68.8477	81.2516	68.8477	81.0527	68.8477	81.1987	68.8477	81.1316
71.7773	81.2238	71.7773	81.1716	71.7773	81.2847	71.7773	81.1286	71.7773	81.3533	71.7773	81.0945	71.7773	81.4276	71.7773	81.0691	71.7773	81.5049	71.7773	81.0517	71.7773	81.5819	71.7773	81.0419	71.7773	81.6548	71.7773	81.0396	71.7773	81.7201	71.7773	81.0449	71.7773	81.7745	71.7773	81.0584	71.7773	81.8156	71.7773	81.0809	71.7773	81.842	71.7773	81.1133	71.7773	81.8534	71.7773	81.1564	71.7773	81.8503	71.7773	81.2103	71.7773	81.8336	71.7773	81.2741	71.7773	81.8043	71.7773	81.3462	71.7773	81.7633	71.7773	81.4234	71.7773	81.7112	71.7773	81.5021	71.7773	81.649	71.7773	81.5785
74.707	81.6998	74.707	81.6495	74.707	81.7592	74.707	81.6084	74.707	81.8267	74.707	81.5761	74.707	81.9002	74.707	81.5521	74.707	81.9771	74.707	81.5352	74.707	82.0537	74.707	81.5247	74.707	82.1261	74.707	81.5199	74.707	82.1901	74.707	81.5208	74.707	82.2421	74.707	81.5276	74.707	82.2791	74.707	81.5411	74.707	82.2992	74.707	81.5623	74.707	82.3019	74.707	81.5925	74.707	82.2878	74.707	81.6326	74.707	82.2584	74.707	81.6828	74.707	82.2158	74.707	81.7425	74.707	82.1621	74.707	81.8099	74.707	82.0996	74.707	81.8824	74.707	82.0304	74.707	81.957
77.6367	82.0112	77.6367	81.9609	77.6367	82.0715	77.6367	81.9205	77.6367	82.1407	77.6367	81.8896	77.6367	82.217	77.6367	81.867	77.6367	82.2972	77.6367	81.8512	77.6367	82.3774	77.6367	81.8412	77.6367	82.4532	77.6367	81.8358	77.6367	82.5198	77.6367	81.8344	77.6367	82.5727	77.6367	81.8371	77.6367	82.6085	77.6367	81.8444	77.6367	82.6247	77.6367	81.8576	77.6367	82.6205	77.6367	81.8781	77.6367	82.5966	77.6367	81.9076	77.6367	82.5551	77.6367	81.9472	77.6367	82.4991	77.6367	81.9974	77.6367	82.4322	77.6367	82.0578	77.6367	82.3579	77.6367	82.1267	77.6367	82.28	77.6367	82.2018
79.1016	82.1531	79.1016	82.1027	79.1016	82.2139	79.1016	82.0625	79.1016	82.284	79.1016	82.0319	79.1016	82.3613	79.1016	82.0097	79.1016	82.4428	79.1016	81.9943	79.1016	82.5244	79.1016	81.9843	79.1016	82.6015	79.1016	81.9784	79.1016	82.6689	79.1016	81.9759	79.1016	82.7222	79.1016	81.9766	79.1016	82.7572	79.1016	81.9811	79.1016	82.7715	79.1016	81.9905	79.1016	82.7641	79.1016	82.0067	79.1016	82.7357	79.1016	82.0313	79.1016	82.6888	79.1016	82.066	79.1016	82.6267	79.1016	82.1119	79.1016	82.5536	79.1016	82.169	79.1016	82.474	79.1016	82.2363	79.1016	82.392	79.1016	82.3116
82.0312	82.5337	82.0312	82.4829	82.0312	82.5953	82.0312	82.4431	82.0312	82.6669	82.0312	82.4133	82.0312	82.7462	82.0312	82.3923	82.0312	82.8301	82.0312	82.3781	82.0312	82.9144	82.0312	82.3691	82.0312	82.9942	82.0312	82.3635	82.0312	83.0642	82.0312	82.3603	82.0312	83.1191	82.0312	82.3589	82.0312	83.1545	82.0312	82.3597	82.0312	83.1673	82.0312	82.3638	82.0312	83.1561	82.0312	82.3731	82.0312	83.1215	82.0312	82.39	82.0312	83.0662	82.0312	82.4169	82.0312	82.9944	82.0312	82.4557	82.0312	82.9113	82.0312	82.5076	82.0312	82.8224	82.0312	82.5724	82.0312	82.7332	82.0312	82.6485
84.9609	82.7897	84.9609	82.742	84.9609	82.8494	84.9609	82.7062	84.9609	82.9203	84.9609	82.6813	84.9609	83.0005	84.9609	82.6655	84.9609	83.0866	84.9609	82.6568	84.9609	83.1746	84.9609	82.6529	84.9609	83.2591	84.9609	82.6519	84.9609	83.3344	84.9609	82.6521	84.9609	83.3949	84.9609	82.6528	84.9609	83.4354	84.9609	82.6541	84.9609	83.4521	84.9609	82.6569	84.9609	83.4431	84.9609	82.6634	84.9609	83.4088	84.9609	82.6762	84.9609	83.3517	84.9609	82.6982	84.9609	83.2764	84.9609	82.7321	84.9609	83.189	84.9609	82.7798	84.9609	83.0959	84.9609	82.842	84.9609	83.0035	84.9609	82.9174
87.8906	83.0537	87.8906	83.01	87.8906	83.11	87.8906	82.9783	87.8906	83.1784	87.8906	82.957	87.8906	83.2569	87.8906	82.9439	87.8906	83.3423	87.8906	82.9361	87.8906	83.4297	87.8906	82.9312	87.8906	83.5135	87.8906	82.9265	87.8906	83.5873	87.8906	82.9203	87.8906	83.6447	87.8906	82.9119	87.8906	83.68	87.8906	82.9013	87.8906	83.6892	87.8906	82.89	87.8906	83.6702	87.8906	82.8808	87.8906	83.6236	87.8906	82.877	87.8906	83.5526	87.8906	82.8829	87.8906	83.4628	87.8906	82.9025	87.8906	83.3615	87.8906	82.9389	87.8906	83.2569	87.8906	82.9939	87.8906	83.1566	87.8906	83.0674
90.8203	83.4203	90.8203	83.3755	90.8203	83.4756	90.8203	83.3405	90.8203	83.5409	90.8203	83.3139	90.8203	83.6145	90.8203	83.2935	90.8203	83.6933	90.8203	83.277	90.8203	83.7729	90.8203	83.2619	90.8203	83.8481	90.8203	83.246	90.8203	83.9124	90.8203	83.2278	90.8203	83.9597	90.8203	83.2066	90.8203	83.9843	90.8203	83.1827	90.8203	83.9819	90.8203	83.1579	90.8203	83.9506	90.8203	83.135	90.8203	83.8908	90.8203	83.118	90.8203	83.8061	90.8203	83.1117	90.8203	83.7028	90.8203	83.1208	90.8203	83.589	90.8203	83.1495	90.8203	83.4738	90.8203	83.2001	90.8203	83.3661	90.8203	83.2731
95.2148	83.7885	95.2148	83.7378	95.2148	83.8486	95.2148	83.6964	95.2148	83.9174	95.2148	83.6631	95.2148	83.9931	95.2148	83.6363	95.2148	84.0726	95.2148	83.6137	95.2148	84.1518	95.2148	83.5929	95.2148	84.2252	95.2148	83.5716	95.2148	84.2868	95.2148	83.5481	95.2148	84.3302	95.2148	83.5212	95.2148	84.3496	95.2148	83.4913	95.2148	84.3404	95.2148	83.4596	95.2148	84.3003	95.2148	83.4293	95.2148	84.2297	95.2148	83.4045	95.2148	84.1324	95.2148	83.3906	95.2148	84.0153	95.2148	83.3932	95.2148	83.8877	95.2148	83.4175	95.2148	83.76	95.2148	83.467	95.2148	83.6422	95.2148	83.5427
98.1445	83.9607	98.1445	83.9109	98.1445	84.0203	98.1445	83.8707	98.1445	84.089	98.1445	83.8391	98.1445	84.1649	98.1445	83.8141	98.1445	84.2448	98.1445	83.7935	98.1445	84.3245	98.1445	83.7747	98.1445	84.3984	98.1445	83.755	98.1445	84.4605	98.1445	83.7325	98.1445	84.5041	98.1445	83.7059	98.1445	84.5232	98.1445	83.675	98.1445	84.513	98.1445	83.6413	98.1445	84.4711	98.1445	83.6078	98.1445	84.3979	98.1445	83.5788	98.1445	84.2975	98.1445	83.56	98.1445	84.1769	98.1445	83.5576	98.1445	84.0459	98.1445	83.5774	98.1445	83.9155	98.1445	83.6234	98.1445	83.7963	98.1445	83.697
101.074	84.1152	101.074	84.067	101.074	84.174	101.074	84.0291	101.074	84.2426	101.074	84.0004	101.074	84.3188	101.074	83.9788	101.074	84.3996	101.074	83.9619	101.074	84.4804	101.074	83.9467	101.074	84.5556	101.074	83.9305	101.074	84.6189	101.074	83.9108	101.074	84.6636	101.074	83.8861	101.074	84.6834	101.074	83.8562	101.074	84.6735	101.074	83.8222	101.074	84.6313	101.074	83.7871	101.074	84.5575	101.074	83.7554	101.074	84.4561	101.074	83.7331	101.074	84.3344	101.074	83.7267	101.074	84.2025	101.074	83.7424	101.074	84.0718	101.074	83.7848	101.074	83.9532	101.074	83.8557
105.469	84.3441	105.469	84.2966	105.469	84.4033	105.469	84.2602	105.469	84.4731	105.469	84.2337	105.469	84.5513	105.469	84.2146	105.469	84.6342	105.469	84.1998	105.469	84.717	105.469	84.186	105.469	84.7935	105.469	84.1698	105.469	84.8571	105.469	84.1484	105.469	84.9006	105.469	84.12	105.469	84.9174	105.469	84.0843	105.469	84.9027	105.469	84.0425	105.469	84.8537	105.469	83.998	105.469	84.7713	105.469	83.9558	105.469	84.6598	105.469	83.9227	105.469	84.5274	105.469	83.9063	105.469	84.3852	105.469	83.914	105.469	84.2456	105.469	83.9513	105.469	84.1209	105.469	84.0208
108.398	84.5375	108.398	84.4917	108.398	84.5928	108.398	84.4553	108.398	84.6568	108.398	84.4268	108.398	84.7273	108.398	84.4039	108.398	84.801	108.398	84.3837	108.398	84.8733	108.398	84.3629	108.398	84.9386	108.398	84.3383	108.398	84.9905	108.398	84.3071	108.398	85.0223	108.398	84.2677	108.398	85.0278	108.398	84.2197	108.398	85.0019	108.398	84.1648	108.398	84.9423	108.398	84.1066	108.398	84.8496	108.398	84.0506	108.398	84.7286	108.398	84.0042	108.398	84.5877	108.398	83.9756	108.398	84.4384	108.398	83.9731	108.398	84.2939	108.398	84.0028	108.398	84.167	108.398	84.0679
112.793	84.8108	112.793	84.7604	112.793	84.8688	112.793	84.7176	112.793	84.9333	112.793	84.6814	112.793	85.0023	112.793	84.6501	112.793	85.073	112.793	84.6212	112.793	85.1412	112.793	84.5918	112.793	85.2019	112.793	84.5591	112.793	85.2493	112.793	84.5204	112.793	85.2768	112.793	84.4741	112.793	85.2783	112.793	84.4202	112.793	85.2484	112.793	84.36	112.793	85.1843	112.793	84.2973	112.793	85.0863	112.793	84.2377	112.793	84.9587	112.793	84.1888	112.793	84.8102	112.793	84.1592	112.793	84.6526	112.793	84.1573	112.793	84.4997	112.793	84.1897	112.793	84.365	112.793	84.2594
117.188	84.9105	117.188	84.8638	117.188	84.9636	117.188	84.8238	117.188	85.0223	117.188	84.7897	117.188	85.085	117.188	84.7602	117.188	85.1493	117.188	84.7329	117.188	85.2118	117.188	84.7051	117.188	85.2683	117.188	84.6739	117.188	85.3135	117.188	84.6368	117.188	85.3411	117.188	84.592	117.188	85.3449	117.188	84.539	117.188	85.3194	117.188	84.4794	117.188	85.2612	117.188	84.4167	117.188	85.1697	117.188	84.3567	117.188	85.0489	117.188	84.3069	117.188	84.9065	117.188	84.276	117.188	84.7542	117.188	84.2726	117.188	84.6055	117.188	84.3033	117.188	84.4741	117.188	84.371
120.117	85.0006	120.117	84.9553	120.117	85.0524	120.117	84.9167	120.117	85.1101	120.117	84.8839	120.117	85.1721	120.117	84.8553	120.117	85.2361	120.117	84.8286	120.117	85.2987	120.117	84.8009	120.117	85.3556	120.117	84.7691	120.117	85.401	120.117	84.7306	120.117	85.4284	120.117	84.6833	120.117	85.4312	120.117	84.627	120.117	85.4036	120.117	84.5631	120.117	85.342	120.117	84.4954	120.117	85.2463	120.117	84.4298	120.117	85.1204	120.117	84.3745	120.117	84.9728	120.117	84.3385	120.117	84.8156	120.117	84.3309	120.117	84.663	120.117	84.3587	120.117	84.5291	120.117	84.4253
124.512	85.1794	124.512	85.1288	124.512	85.2368	124.512	85.0852	124.512	85.2999	124.512	85.0483	124.512	85.3669	124.512	85.0166	124.512	85.4356	124.512	84.9881	124.512	85.5025	124.512	84.9597	124.512	85.5632	124.512	84.9283	124.512	85.6119	124.512	84.891	124.512	85.6417	124.512	84.8454	124.512	85.6458	124.512	84.7908	124.512	85.6179	124.512	84.7284	124.512	85.5542	124.512	84.6617	124.512	85.4543	124.512	84.5965	124.512	85.3225	124.512	84.541	124.512	85.1678	124.512	84.5047	124.512	85.003	124.512	84.4972	124.512	84.8432	124.512	84.526	124.512	84.7033	124.512	84.5952
128.906	85.2034	128.906	85.1528	128.906	85.2602	128.906	85.1088	128.906	85.3223	128.906	85.0711	128.906	85.3882	128.906	85.0387	128.906	85.4558	128.906	85.0095	128.906	85.5221	128.906	84.9809	128.906	85.5829	128.906	84.9497	128.906	85.6326	128.906	84.9131	128.906	85.6645	128.906	84.8686	128.906	85.6715	128.906	84.8157	128.906	85.6471	128.906	84.7552	128.906	85.587	128.906	84.6906	128.906	85.4907	128.906	84.6278	128.906	85.3619	128.906	84.5749	128.906	85.2096	128.906	84.5412	128.906	85.0463	128.906	84.536	128.906	84.8871	128.906	84.567	128.906	84.7469	128.906	84.6378
133.301	85.3055	133.301	85.2504	133.301	85.366	133.301	85.2014	133.301	85.4308	133.301	85.1584	133.301	85.4984	133.301	85.1206	133.301	85.5665	133.301	85.0862	133.301	85.6324	133.301	85.0527	133.301	85.692	133.301	85.017	133.301	85.7396	133.301	84.9762	133.301	85.7687	133.301	84.928	133.301	85.772	133.301	84.8717	133.301	85.7432	133.301	84.8083	133.301	85.6781	133.301	84.7413	133.301	85.5761	133.301	84.6768	133.301	85.4413	133.301	84.6229	133.301	85.2828	133.301	84.589	133.301	85.1135	133.301	84.5847	133.301	84.949	133.301	84.6176	133.301	84.8041	133.301	84.6912
139.16	85.3647	139.16	85.3074	139.16	85.4259	139.16	85.2547	139.16	85.4899	139.16	85.2069	139.16	85.5553	139.16	85.1636	139.16	85.6207	139.16	85.1233	139.16	85.6837	139.16	85.0838	139.16	85.7407	139.16	85.0421	139.16	85.7866	139.16	84.9956	139.16	85.8148	139.16	84.942	139.16	85.8176	139.16	84.8806	139.16	85.7882	139.16	84.8127	139.16	85.7218	139.16	84.742	139.16	85.6173	139.16	84.6747	139.16	85.4786	139.16	84.6192	139.16	85.3146	139.16	84.5853	139.16	85.139	139.16	84.5826	139.16	84.9675	139.16	84.6187	139.16	84.816	139.16	84.6971
143.555	85.3939	143.555	85.3331	143.555	85.4569	143.555	85.2756	143.555	85.5211	143.555	85.2218	143.555	85.5856	143.555	85.1719	143.555	85.6491	143.555	85.1247	143.555	85.7099	143.555	85.0784	143.555	85.7649	143.555	85.0305	143.555	85.8093	143.555	84.9785	143.555	85.8367	143.555	84.9203	143.555	85.8394	143.555	84.8554	143.555	85.8102	143.555	84.7851	143.555	85.7437	143.555	84.7132	143.555	85.6384	143.555	84.6461	143.555	85.4976	143.555	84.5923	143.555	85.3304	143.555	84.5614	143.555	85.15	143.555	84.563	143.555	84.9727	143.555	84.6046	143.555	84.8147	143.555	84.6892
147.949	85.4716	147.949	85.4072	147.949	85.5356	147.949	85.3438	147.949	85.5982	147.949	85.2823	147.949	85.6582	147.949	85.223	147.949	85.7148	147.949	85.1652	147.949	85.7664	147.949	85.1075	147.949	85.8105	147.949	85.0477	147.949	85.8432	147.949	84.9836	147.949	85.8585	147.949	84.9137	147.949	85.8495	147.949	84.8376	147.949	85.8092	147.949	84.757	147.949	85.7326	147.949	84.6761	147.949	85.6182	147.949	84.6014	147.949	85.4694	147.949	84.5418	147.949	85.295	147.949	84.5072	147.949	85.1085	147.949	84.5071	147.949	84.9259	147.949	84.5487	147.949	84.7637	147.949	84.6351
153.809	85.4165	153.809	85.3562	153.809	85.4724	153.809	85.2931	153.809	85.5227	153.809	85.2291	153.809	85.5673	153.809	85.1652	153.809	85.6067	153.809	85.1019	153.809	85.6413	153.809	85.0382	153.809	85.6707	153.809	84.9725	153.809	85.6926	153.809	84.903	153.809	85.7023	153.809	84.8281	153.809	85.6931	153.809	84.7478	153.809	85.6576	153.809	84.664	153.809	85.5897	153.809	84.581	153.809	85.4866	153.809	84.5058	153.809	85.35	153.809	84.4472	153.809	85.1873	153.809	84.4149	153.809	85.0108	153.809	84.4178	153.809	84.8355	153.809	84.4621	153.809	84.6773	153.809	84.5498
159.668	85.4791	159.668	85.4161	159.668	85.5386	159.668	85.3512	159.668	85.5938	159.668	85.2861	159.668	85.6444	159.668	85.2218	159.668	85.6906	159.668	85.1584	159.668	85.7326	159.668	85.0949	159.668	85.7692	159.668	85.0294	159.668	85.7972	159.668	84.9596	159.668	85.8111	159.668	84.8838	159.668	85.8038	159.668	84.802	159.668	85.7676	159.668	84.7162	159.668	85.6965	159.668	84.6312	159.668	85.5883	159.668	84.5545	159.668	85.4454	159.668	84.4955	159.668	85.2759	159.668	84.4643	159.668	85.0925	159.668	84.4701	159.668	84.9104	159.668	84.5188	159.668	84.7457	159.668	84.612
165.527	85.5618	165.527	85.5086	165.527	85.6101	165.527	85.4518	165.527	85.6528	165.527	85.3931	165.527	85.6902	165.527	85.3333	165.527	85.723	165.527	85.2727	165.527	85.7521	165.527	85.2103	165.527	85.777	165.527	85.1441	165.527	85.795	165.527	85.0721	165.527	85.8008	165.527	84.9926	165.527	85.7873	165.527	84.9055	165.527	85.7466	165.527	84.813	165.527	85.6726	165.527	84.7198	165.527	85.5632	165.527	84.6335	165.527	85.4211	165.527	84.5636	165.527	85.2548	165.527	84.5205	165.527	85.0772	165.527	84.5134	165.527	84.9038	165.527	84.5489	165.527	84.7501	165.527	84.6289
171.387	85.5867	171.387	85.5197	171.387	85.6426	171.387	85.4442	171.387	85.6861	171.387	85.3629	171.387	85.7171	171.387	85.2784	171.387	85.7366	171.387	85.192	171.387	85.7463	171.387	85.1042	171.387	85.7469	171.387	85.0139	171.387	85.7375	171.387	84.9198	171.387	85.7145	171.387	84.8208	171.387	85.6723	171.387	84.7169	171.387	85.6045	171.387	84.6104	171.387	85.5061	171.387	84.5062	171.387	85.3755	171.387	84.4115	171.387	85.2162	171.387	84.3357	171.387	85.037	171.387	84.2888	171.387	84.8507	171.387	84.2796	171.387	84.6721	171.387	84.314	171.387	84.5158	171.387	84.3937
177.246	85.4111	177.246	85.3424	177.246	85.4704	177.246	85.2666	177.246	85.5193	177.246	85.1865	177.246	85.559	177.246	85.1049	177.246	85.5915	177.246	85.0236	177.246	85.6191	177.246	84.9427	177.246	85.6425	177.246	84.861	177.246	85.6596	177.246	84.7765	177.246	85.6643	177.246	84.6873	177.246	85.6478	177.246	84.5926	177.246	85.6002	177.246	84.4943	177.246	85.514	177.246	84.3968	177.246	85.3863	177.246	84.3075	177.246	85.2209	177.246	84.2364	177.246	85.0285	177.246	84.1938	177.246	84.8249	177.246	84.1898	177.246	84.6283	177.246	84.2311	177.246	84.4557	177.246	84.3206
183.105	85.303	183.105	85.2323	183.105	85.3639	183.105	85.154	183.105	85.4139	183.105	85.0716	183.105	85.4543	183.105	84.9883	183.105	85.4876	183.105	84.9062	183.105	85.5172	183.105	84.826	183.105	85.5451	183.105	84.747	183.105	85.5705	183.105	84.6673	183.105	85.5886	183.105	84.5851	183.105	85.5907	183.105	84.4998	183.105	85.5658	183.105	84.4129	183.105	85.5041	183.105	84.3288	183.105	85.4001	183.105	84.2548	183.105	85.2547	183.105	84.2003	183.105	85.0765	183.105	84.1757	183.105	84.8797	183.105	84.1899	183.105	84.6824	183.105	84.249	183.105	84.5024	183.105	84.3546
188.965	85.3347	188.965	85.2556	188.965	85.3924	188.965	85.1588	188.965	85.4271	188.965	85.049	188.965	85.4396	188.965	84.9311	188.965	85.4334	188.965	84.8095	188.965	85.4138	188.965	84.6873	188.965	85.3869	188.965	84.5666	188.965	85.3568	188.965	84.4487	188.965	85.3242	188.965	84.3343	188.965	85.2851	188.965	84.2253	188.965	85.2322	188.965	84.1244	188.965	85.1572	188.965	84.0362	188.965	85.0538	188.965	83.967	188.965	84.9207	188.965	83.9238	188.965	84.7626	188.965	83.9133	188.965	84.5896	188.965	83.9405	188.965	84.4147	188.965	84.0075	188.965	84.2518	188.965	84.1131
196.289	85.3461	196.289	85.2807	196.289	85.3916	196.289	85.1992	196.289	85.4151	196.289	85.106	196.289	85.4174	196.289	85.0053	196.289	85.4017	196.289	84.8997	196.289	85.3732	196.289	84.7901	196.289	85.3368	196.289	84.6758	196.289	85.2956	196.289	84.5555	196.289	85.2486	196.289	84.4285	196.289	85.1911	196.289	84.2962	196.289	85.1162	196.289	84.1628	196.289	85.0171	196.289	84.036	196.289	84.8904	196.289	83.9259	196.289	84.738	196.289	83.8436	196.289	84.5669	196.289	83.7989	196.289	84.3882	196.289	83.7983	196.289	84.2149	196.289	83.8437	196.289	84.0594	196.289	83.9328
203.613	85.2104	203.613	85.1395	203.613	85.2554	203.613	85.0472	203.613	85.2726	203.613	84.94	203.613	85.2637	203.613	84.8243	203.613	85.2342	203.613	84.7056	203.613	85.1918	203.613	84.5872	203.613	85.1448	203.613	84.4703	203.613	85.0986	203.613	84.3542	203.613	85.0539	203.613	84.2376	203.613	85.0056	203.613	84.1198	203.613	84.9445	203.613	84.0026	203.613	84.861	203.613	83.8908	203.613	84.7488	203.613	83.7923	203.613	84.6076	203.613	83.7174	203.613	84.4436	203.613	83.6762	203.613	84.2682	203.613	83.6765	203.613	84.0952	203.613	83.722	203.613	83.9389	203.613	83.8113
210.938	85.1842	210.938	85.104	210.938	85.2313	210.938	84.9967	210.938	85.2423	210.938	84.8697	210.938	85.2179	210.938	84.7304	210.938	85.1631	210.938	84.5854	210.938	85.0867	210.938	84.4394	210.938	84.9995	210.938	84.2952	210.938	84.9113	210.938	84.1541	210.938	84.8273	210.938	84.0166	210.938	84.7467	210.938	83.884	210.938	84.6628	210.938	83.759	210.938	84.5666	210.938	83.6466	210.938	84.451	210.938	83.5535	210.938	84.3141	210.938	83.4872	210.938	84.1605	210.938	83.4547	210.938	83.9996	210.938	83.4602	210.938	83.8431	210.938	83.5052	210.938	83.7026	210.938	83.5876
218.262	84.9454	218.262	84.8679	218.262	84.9909	218.262	84.765	218.262	85.0009	218.262	84.6453	218.262	84.9766	218.262	84.5169	218.262	84.924	218.262	84.3864	218.262	84.8529	218.262	84.2575	218.262	84.7744	218.262	84.131	218.262	84.6982	218.262	84.0062	218.262	84.6292	218.262	83.8822	218.262	84.5663	218.262	83.7597	218.262	84.5033	218.262	83.6426	218.262	84.4315	218.262	83.538	218.262	84.3437	218.262	83.4553	218.262	84.2365	218.262	83.4041	218.262	84.1119	218.262	83.3911	218.262	83.9755	218.262	83.4186	218.262	83.8357	218.262	83.4841	218.262	83.7012	218.262	83.581
225.586	84.8756	225.586	84.8013	225.586	84.912	225.586	84.6964	225.586	84.9074	225.586	84.5707	225.586	84.8643	225.586	84.4341	225.586	84.7912	225.586	84.2954	225.586	84.7009	225.586	84.1605	225.586	84.6081	225.586	84.0321	225.586	84.5247	225.586	83.9102	225.586	84.4561	225.586	83.7931	225.586	84.3989	225.586	83.6799	225.586	84.3434	225.586	83.5717	225.586	84.2777	225.586	83.4729	225.586	84.193	225.586	83.3911	225.586	84.0869	225.586	83.3352	225.586	83.9632	225.586	83.313	225.586	83.83	225.586	83.3285	225.586	83.6968	225.586	83.3806	225.586	83.5722	225.586	83.4642
232.91	84.9124	232.91	84.8452	232.91	84.9376	232.91	84.7433	232.91	84.9182	232.91	84.6159	232.91	84.8566	232.91	84.4733	232.91	84.7608	232.91	84.3242	232.91	84.6434	232.91	84.1751	232.91	84.5196	232.91	84.0301	232.91	84.4035	232.91	83.8909	232.91	84.3056	232.91	83.7588	232.91	84.2288	232.91	83.6354	232.91	84.1688	232.91	83.5242	232.91	84.1154	232.91	83.4304	232.91	84.0577	232.91	83.3607	232.91	83.9874	232.91	83.3211	232.91	83.9016	232.91	83.3157	232.91	83.8023	232.91	83.3447	232.91	83.6953	232.91	83.4044	232.91	83.5879	232.91	83.4882
241.699	84.8174	241.699	84.6992	241.699	84.8981	241.699	84.5521	241.699	84.9364	241.699	84.3866	241.699	84.9318	241.699	84.2138	241.699	84.887	241.699	84.0433	241.699	84.8078	241.699	83.8816	241.699	84.7003	241.699	83.7323	241.699	84.5705	241.699	83.5966	241.699	84.4233	241.699	83.4747	241.699	84.2634	241.699	83.3675	241.699	84.0966	241.699	83.2769	241.699	83.9302	241.699	83.2059	241.699	83.7726	241.699	83.1571	241.699	83.6313	241.699	83.1319	241.699	83.5114	241.699	83.1293	241.699	83.4137	241.699	83.146	241.699	83.3355	241.699	83.1775	241.699	83.2723	241.699	83.2201
250.488	85.0974	250.488	84.9523	250.488	85.1877	250.488	84.7604	250.488	85.2188	250.488	84.5316	250.488	85.1908	250.488	84.2766	250.488	85.1086	250.488	84.0053	250.488	84.9811	250.488	83.7259	250.488	84.8204	250.488	83.445	250.488	84.6387	250.488	83.169	250.488	84.4464	250.488	82.9059	250.488	84.25	250.488	82.6669	250.488	84.0522	250.488	82.4666	250.488	83.8543	250.488	82.3206	250.488	83.6577	250.488	82.2405	250.488	83.4656	250.488	82.23	250.488	83.2823	250.488	82.2817	250.488	83.1104	250.488	82.3803	250.488	82.9497	250.488	82.5079	250.488	82.7971	250.488	82.6494
259.277	84.7632	259.277	84.6068	259.277	84.876	259.277	84.414	259.277	84.9428	259.277	84.1962	259.277	84.9659	259.277	83.9658	259.277	84.9501	259.277	83.7338	259.277	84.9	259.277	83.5063	259.277	84.8178	259.277	83.284	259.277	84.7018	259.277	83.0634	259.277	84.5476	259.277	82.8413	259.277	84.3518	259.277	82.6187	259.277	84.1158	259.277	82.4047	259.277	83.849	259.277	82.2168	259.277	83.5682	259.277	82.0765	259.277	83.294	259.277	82.002	259.277	83.0432	259.277	82	259.277	82.8239	259.277	82.0627	259.277	82.6337	259.277	82.1725	259.277	82.4646	259.277	82.3104
268.066	84.3808	268.066	84.1693	268.066	84.5216	268.066	83.8948	268.066	84.5944	268.066	83.5743	268.066	84.6114	268.066	83.2325	268.066	84.5909	268.066	82.8972	268.066	84.5521	268.066	82.5933	268.066	84.5081	268.066	82.3371	268.066	84.4604	268.066	82.1315	268.066	84.3984	268.066	81.9673	268.066	84.3046	268.066	81.8289	268.066	84.1618	268.066	81.7035	268.066	83.9611	268.066	81.5892	268.066	83.7052	268.066	81.498	268.066	83.4078	268.066	81.4515	268.066	83.0893	268.066	81.4703	268.066	82.7705	268.066	81.5629	268.066	82.4666	268.066	81.723	268.066	82.1864	268.066	81.9356
276.855	83.9986	276.855	83.8747	276.855	84.0743	276.855	83.7095	276.855	84.1002	276.855	83.513	276.855	84.0827	276.855	83.2965	276.855	84.0364	276.855	83.071	276.855	83.9818	276.855	82.8468	276.855	83.9378	276.855	82.6335	276.855	83.9136	276.855	82.4389	276.855	83.9017	276.855	82.2682	276.855	83.8811	276.855	82.1233	276.855	83.8254	276.855	82.002	276.855	83.7134	276.855	81.901	276.855	83.5361	276.855	81.8187	276.855	83.2985	276.855	81.7591	276.855	83.018	276.855	81.7321	276.855	82.7196	276.855	81.7512	276.855	82.4303	276.855	81.8285	276.855	82.1744	276.855	81.9703
287.109	83.2091	287.109	83.1395	287.109	83.2233	287.109	83.0172	287.109	83.1932	287.109	82.8565	287.109	83.1444	287.109	82.6798	287.109	83.114	287.109	82.5133	287.109	83.1421	287.109	82.3806	287.109	83.2573	287.109	82.2961	287.109	83.4623	287.109	82.2608	287.109	83.7298	287.109	82.2638	287.109	84.0131	287.109	82.2889	287.109	84.263	287.109	82.3231	287.109	84.4419	287.109	82.3632	287.109	84.5279	287.109	82.4169	287.109	84.5141	287.109	82.5001	287.109	84.4045	287.109	82.6302	287.109	84.2114	287.109	82.8181	287.109	83.9541	287.109	83.063	287.109	83.6576	287.109	83.3509
297.363	84.9318	297.363	84.9369	297.363	84.8034	297.363	84.8246	297.363	84.5485	297.363	84.6032	297.363	84.1703	297.363	84.2857	297.363	83.6866	297.363	83.8917	297.363	83.1431	297.363	83.4498	297.363	82.6236	297.363	82.9982	297.363	82.2411	297.363	82.5815	297.363	82.0902	297.363	82.2445	297.363	82.1879	297.363	82.0228	297.363	82.4657	297.363	81.9351	297.363	82.8213	297.363	81.9806	297.363	83.1697	297.363	82.141	297.363	83.4581	297.363	82.3867	297.363	83.6605	297.363	82.6822	297.363	83.7664	297.363	82.9911	297.363	83.7746	297.363	83.2795	297.363	83.6892	297.363	83.5193
307.617	85.2687	307.617	85.2182	307.617	85.1911	307.617	85.0565	307.617	84.9726	307.617	84.8022	307.617	84.6109	307.617	84.4734	307.617	84.1205	307.617	84.0885	307.617	83.5395	307.617	83.6678	307.617	82.9315	307.617	83.2348	307.617	82.3801	307.617	82.8175	307.617	81.971	307.617	82.4471	307.617	81.7673	307.617	82.1557	307.617	81.7875	307.617	81.9706	307.617	82.0006	307.617	81.9081	307.617	82.3388	307.617	81.9704	307.617	82.7185	307.617	82.1438	307.617	83.0608	307.617	82.4004	307.617	83.3061	307.617	82.7005	307.617	83.42	307.617	82.9974	307.617	83.3943	307.617	83.2429
319.336	84.6744	319.336	84.506	319.336	84.758	319.336	84.2718	319.336	84.7402	319.336	83.9908	319.336	84.6088	319.336	83.6799	319.336	84.3596	319.336	83.3532	319.336	83.9993	319.336	83.0217	319.336	83.5479	319.336	82.6955	319.336	83.0393	319.336	82.3875	319.336	82.5199	319.336	82.1155	319.336	82.0468	319.336	81.9016	319.336	81.6847	319.336	81.767	319.336	81.4941	319.336	81.7251	319.336	81.5059	319.336	81.7758	319.336	81.6943	319.336	81.9047	319.336	81.9806	319.336	82.0853	319.336	82.2689	319.336	82.2831	319.336	82.4839	319.336	82.4585	319.336	82.5862	319.336	82.5711
329.59	84.3739	329.59	84.2199	329.59	84.4323	329.59	83.9878	329.59	84.3859	329.59	83.6998	329.59	84.2354	329.59	83.3785	329.59	83.993	329.59	83.0422	329.59	83.6812	329.59	82.7012	329.59	83.3307	329.59	82.3579	329.59	82.9732	329.59	82.0117	329.59	82.634	329.59	81.6685	329.59	82.3263	329.59	81.349	329.59	82.0561	329.59	81.0913	329.59	81.8332	329.59	80.9416	329.59	81.6797	329.59	80.9324	329.59	81.6211	329.59	81.0611	329.59	81.662	329.59	81.2856	329.59	81.7697	329.59	81.5411	329.59	81.883	329.59	81.7629	329.59	81.9406	329.59	81.9034
341.309	84.7065	341.309	84.5619	341.309	84.7461	341.309	84.3266	341.309	84.6705	341.309	84.0176	341.309	84.4756	341.309	83.6541	341.309	84.1672	341.309	83.2568	341.309	83.765	341.309	82.8466	341.309	83.304	341.309	82.4434	341.309	82.8323	341.309	82.0639	341.309	82.4003	341.309	81.7218	341.309	82.0457	341.309	81.4287	341.309	81.7846	341.309	81.1985	341.309	81.6173	341.309	81.0492	341.309	81.541	341.309	81.0005	341.309	81.5531	341.309	81.0625	341.309	81.6389	341.309	81.2229	341.309	81.7604	341.309	81.4413	341.309	81.8618	341.309	81.66	341.309	81.8915	341.309	81.8223
353.027	84.6588	353.027	84.5062	353.027	84.6932	353.027	84.2531	353.027	84.5976	353.027	83.9204	353.027	84.3696	353.027	83.5303	353.027	84.0191	353.027	83.104	353.027	83.5702	353.027	82.6608	353.027	83.0588	353.027	82.2162	353.027	82.5287	353.027	81.783	353.027	82.0272	353.027	81.3748	353.027	81.6018	353.027	81.0106	353.027	81.2949	353.027	80.7194	353.027	81.1355	353.027	80.5376	353.027	81.1257	353.027	80.4972	353.027	81.2355	353.027	80.6058	353.027	81.409	353.027	80.8343	353.027	81.5815	353.027	81.1227	353.027	81.6953	353.027	81.4007	353.027	81.7099	353.027	81.6086
366.211	84.8453	366.211	84.7014	366.211	84.8696	366.211	84.4467	366.211	84.77	366.211	84.0945	366.211	84.5482	366.211	83.6621	366.211	84.2125	366.211	83.171	366.211	83.7792	366.211	82.6466	366.211	83.274	366.211	82.1187	366.211	82.7334	366.211	81.6198	366.211	82.206	366.211	81.1819	366.211	81.7462	366.211	80.831	366.211	81.402	366.211	80.5819	366.211	81.1989	366.211	80.4378	366.211	81.1316	366.211	80.3948	366.211	81.1677	366.211	80.4469	366.211	81.257	366.211	80.5832	366.211	81.3436	366.211	80.7808	366.211	81.3788	366.211	81.0018	366.211	81.3323	366.211	81.1993
379.395	85.087	379.395	84.9291	379.395	85.1426	379.395	84.6829	379.395	85.0864	379.395	84.3641	379.395	84.9148	379.395	83.9862	379.395	84.6297	379.395	83.5588	379.395	84.2373	379.395	83.0868	379.395	83.7465	379.395	82.5751	379.395	83.1685	379.395	82.036	379.395	82.5223	379.395	81.4977	379.395	81.8472	379.395	81.0095	379.395	81.2239	379.395	80.6371	379.395	80.7791	379.395	80.4425	379.395	80.6341	379.395	80.4555	379.395	80.8037	379.395	80.6557	379.395	81.1655	379.395	80.9789	379.395	81.5492	379.395	81.3414	379.395	81.8279	379.395	81.663	379.395	81.9408	379.395	81.8781
392.578	84.4221	392.578	84.2414	392.578	84.5065	392.578	83.9803	392.578	84.4818	392.578	83.6566	392.578	84.3397	392.578	83.2874	392.578	84.0801	392.578	82.8856	392.578	83.7151	392.578	82.4573	392.578	83.2707	392.578	82.0021	392.578	82.781	392.578	81.5193	392.578	82.273	392.578	81.0166	392.578	81.7565	392.578	80.5225	392.578	81.2337	392.578	80.0919	392.578	80.7339	392.578	79.8001	392.578	80.3442	392.578	79.7135	392.578	80.1835	392.578	79.8487	392.578	80.2973	392.578	80.1522	392.578	80.5887	392.578	80.5224	392.578	80.888	392.578	80.8498	392.578	81.0607	392.578	81.0465
405.762	84.5886	405.762	84.4288	405.762	84.6295	405.762	84.1665	405.762	84.54	405.762	83.8208	405.762	84.3163	405.762	83.4111	405.762	83.9674	405.762	82.9544	405.762	83.5186	405.762	82.463	405.762	83.0112	405.762	81.9449	405.762	82.4933	405.762	81.4095	405.762	82.0063	405.762	80.8777	405.762	81.5736	405.762	80.3913	405.762	81.2049	405.762	80.0124	405.762	80.9145	405.762	79.8059	405.762	80.7387	405.762	79.8082	405.762	80.7199	405.762	80.0047	405.762	80.8581	405.762	80.3339	405.762	81.082	405.762	80.7116	405.762	81.2812	405.762	81.0522	405.762	81.3632	405.762	81.2846
420.41	84.8359	420.41	84.6831	420.41	84.8682	420.41	84.4291	420.41	84.7696	420.41	84.0971	420.41	84.5423	420.41	83.7077	420.41	84.2015	420.41	83.2751	420.41	83.7711	420.41	82.8035	420.41	83.2751	420.41	82.2897	420.41	82.7302	420.41	81.7282	420.41	82.1456	420.41	81.1225	420.41	81.5339	420.41	80.5001	420.41	80.9312	420.41	79.9277	420.41	80.418	420.41	79.5155	420.41	80.1138	420.41	79.3805	420.41	80.1104	420.41	79.5671	420.41	80.3798	420.41	79.9974	420.41	80.7738	420.41	80.5144	420.41	81.1193	420.41	80.9645	420.41	81.2938	420.41	81.2418
435.059	84.4897	435.059	84.3406	435.059	84.5154	435.059	84.0816	435.059	84.413	435.059	83.7327	435.059	84.1876	435.059	83.3166	435.059	83.8542	435.059	82.8543	435.059	83.4362	435.059	82.3625	435.059	82.9633	435.059	81.8529	435.059	82.4645	435.059	81.3363	435.059	81.9604	435.059	80.8307	435.059	81.4591	435.059	80.37	435.059	80.9715	435.059	80.0073	435.059	80.5404	435.059	79.8047	435.059	80.2587	435.059	79.807	435.059	80.2253	435.059	80.0108	435.059	80.4468	435.059	80.3557	435.059	80.8022	435.059	80.746	435.059	81.1271	435.059	81.0828	435.059	81.3037	435.059	81.2856
451.172	85.1421	451.172	84.9113	451.172	85.2315	451.172	84.5551	451.172	85.1664	451.172	84.0917	451.172	84.938	451.172	83.5391	451.172	84.5461	451.172	82.9127	451.172	84.0054	451.172	82.2227	451.172	83.3516	451.172	81.474	451.172	82.6385	451.172	80.6713	451.172	81.9207	451.172	79.8316	451.172	81.2271	451.172	79.0068	451.172	80.5523	451.172	78.3115	451.172	79.8935	451.172	77.9206	451.172	79.3213	451.172	77.9741	451.172	79.0066	451.172	78.4392	451.172	79.0942	451.172	79.1148	451.172	79.5126	451.172	79.773	451.172	80.0141	451.172	80.2514	451.172	80.3707	451.172	80.4606
465.82	84.7632	465.82	84.5828	465.82	84.8261	465.82	84.2943	465.82	84.7605	465.82	83.9061	465.82	84.5573	465.82	83.4254	465.82	84.2138	465.82	82.8598	465.82	83.7393	465.82	82.2182	465.82	83.1594	465.82	81.5138	465.82	82.5136	465.82	80.7664	465.82	81.8492	465.82	80.0071	465.82	81.2132	465.82	79.2859	465.82	80.6482	465.82	78.6838	465.82	80.1961	465.82	78.3139	465.82	79.9047	465.82	78.2822	465.82	79.8196	465.82	78.6044	465.82	79.9458	465.82	79.1643	465.82	80.2117	465.82	79.7774	465.82	80.4862	465.82	80.2818	465.82	80.6379	465.82	80.5794
483.398	84.872	483.398	84.7448	483.398	84.8607	483.398	84.4862	483.398	84.7092	483.398	84.1096	483.398	84.4221	483.398	83.6349	483.398	84.0162	483.398	83.0849	483.398	83.5251	483.398	82.4786	483.398	82.9968	483.398	81.8245	483.398	82.4745	483.398	81.1167	483.398	81.9728	483.398	80.3425	483.398	81.4733	483.398	79.5052	483.398	80.959	483.398	78.6649	483.398	80.4754	483.398	77.9891	483.398	80.1623	483.398	77.7422	483.398	80.1733	483.398	78.0948	483.398	80.5054	483.398	78.9113	483.398	80.9677	483.398	79.8659	483.398	81.332	483.398	80.688	483.398	81.4439	483.398	81.232
499.512	84.9165	499.512	84.7334	499.512	84.9597	499.512	84.4303	499.512	84.8533	499.512	84.034	499.512	84.5993	499.512	83.5713	499.512	84.2104	499.512	83.0619	499.512	83.7082	499.512	82.5131	499.512	83.118	499.512	81.9183	499.512	82.4624	499.512	81.2617	499.512	81.7561	499.512	80.5294	499.512	81.0101	499.512	79.7285	499.512	80.2525	499.512	78.9164	499.512	79.5714	499.512	78.2333	499.512	79.1497	499.512	77.8963	499.512	79.1804	499.512	78.0738	499.512	79.6468	499.512	78.7076	499.512	80.2809	499.512	79.5402	499.512	80.7856	499.512	80.3026	499.512	80.9834	499.512	80.8148
517.09	84.5827	517.09	84.3808	517.09	84.6565	517.09	84.0801	517.09	84.5902	517.09	83.7216	517.09	84.3902	517.09	83.3458	517.09	84.0809	517.09	82.9758	517.09	83.7	517.09	82.6059	517.09	83.2853	517.09	82.2022	517.09	82.853	517.09	81.7133	517.09	82.3796	517.09	81.0878	517.09	81.8072	517.09	80.2961	517.09	81.0825	517.09	79.3643	517.09	80.2292	517.09	78.4373	517.09	79.4494	517.09	77.8423	517.09	79.1356	517.09	77.9508	517.09	79.5205	517.09	78.7549	517.09	80.3193	517.09	79.8315	517.09	81.0537	517.09	80.7658	517.09	81.4261	517.09	81.3287
536.133	84.5439	536.133	84.2596	536.133	84.5948	536.133	83.7876	536.133	84.3887	536.133	83.1933	536.133	83.9348	536.133	82.5588	536.133	83.2919	536.133	81.9684	536.133	82.5781	536.133	81.4792	536.133	81.9495	536.133	81.0945	536.133	81.525	536.133	80.7627	536.133	81.2985	536.133	80.4007	536.133	81.1361	536.133	79.9255	536.133	80.8743	536.133	79.2878	536.133	80.4285	536.133	78.5262	536.133	79.8719	536.133	77.8487	536.133	79.4688	536.133	77.6402	536.133	79.5199	536.133	78.1414	536.133	80.0018	536.133	79.0984	536.133	80.5524	536.133	80.0433	536.133	80.8274	536.133	80.662
555.176	85.1694	555.176	84.8797	555.176	85.2367	555.176	84.3875	555.176	85.0741	555.176	83.7337	555.176	84.6852	555.176	82.9848	555.176	84.0908	555.176	82.227	555.176	83.3366	555.176	81.5391	555.176	82.4906	555.176	80.9573	555.176	81.6322	555.176	80.4556	555.176	80.8355	555.176	79.9632	555.176	80.1453	555.176	79.4052	555.176	79.5637	555.176	78.7458	555.176	79.0844	555.176	78.0302	555.176	78.7557	555.176	77.4333	555.176	78.6856	555.176	77.2425	555.176	78.9342	555.176	77.6336	555.176	79.3934	555.176	78.429	555.176	79.8269	555.176	79.2549	555.176	80.0122	555.176	79.8244
574.219	84.7965	574.219	84.4472	574.219	84.9378	574.219	83.9259	574.219	84.8567	574.219	83.2911	574.219	84.5594	574.219	82.6207	574.219	84.0763	574.219	81.9933	574.219	83.4613	574.219	81.4591	574.219	82.7796	574.219	81.0148	574.219	82.0829	574.219	80.6032	574.219	81.3801	574.219	80.1379	574.219	80.6254	574.219	79.5342	574.219	79.7506	574.219	78.7403	574.219	78.7561	574.219	77.7881	574.219	77.8586	574.219	76.8964	574.219	77.5317	574.219	76.5349	574.219	78.0292	574.219	77.0454	574.219	78.9438	574.219	78.1187	574.219	79.7178	574.219	79.1778	574.219	80.0561	574.219	79.8693
594.727	84.4406	594.727	84.0873	594.727	84.5606	594.727	83.5369	594.727	84.437	594.727	82.8553	594.727	84.0853	594.727	82.1325	594.727	83.5515	594.727	81.4594	594.727	82.9175	594.727	80.8916	594.727	82.2909	594.727	80.4253	594.727	81.7689	594.727	80.0055	594.727	81.371	594.727	79.5603	594.727	80.9874	594.727	79.0304	594.727	80.4205	594.727	78.3823	594.727	79.5203	594.727	77.6312	594.727	78.3736	594.727	76.9141	594.727	77.5407	594.727	76.5783	594.727	77.7554	594.727	76.9903	594.727	78.7626	594.727	78.0227	594.727	79.7039	594.727	79.1404	594.727	80.1199	594.727	79.9102
615.234	84.6489	615.234	84.3296	615.234	84.6922	615.234	83.7636	615.234	84.4657	615.234	83.0181	615.234	84.004	615.234	82.1904	615.234	83.3606	615.234	81.3833	615.234	82.5992	615.234	80.6689	615.234	81.7891	615.234	80.0654	615.234	81.0085	615.234	79.5471	615.234	80.3399	615.234	79.0759	615.234	79.8294	615.234	78.6189	615.234	79.4295	615.234	78.1449	615.234	79.0178	615.234	77.6251	615.234	78.5141	615.234	77.08	615.234	78.0171	615.234	76.6699	615.234	77.8257	615.234	76.6952	615.234	78.1235	615.234	77.2845	615.234	78.6423	615.234	78.1251	615.234	78.9387	615.234	78.7634
637.207	84.1827	637.207	83.6773	637.207	84.455	637.207	82.9981	637.207	84.4655	637.207	82.2377	637.207	84.2125	637.207	81.5098	637.207	83.7192	637.207	80.9115	637.207	83.0327	637.207	80.4727	637.207	82.2188	637.207	80.1315	637.207	81.355	637.207	79.7654	637.207	80.5211	637.207	79.2525	637.207	79.7558	637.207	78.5215	637.207	79.0014	637.207	77.5853	637.207	78.1475	637.207	76.5807	637.207	77.2391	637.207	75.8253	637.207	76.7375	637.207	75.7478	637.207	77.2076	637.207	76.489	637.207	78.3293	637.207	77.6754	637.207	79.3128	637.207	78.8075	637.207	79.7477	637.207	79.5561
659.18	84.4027	659.18	84.0551	659.18	84.4914	659.18	83.482	659.18	84.317	659.18	82.7556	659.18	83.8985	659.18	81.9864	659.18	83.2808	659.18	81.2952	659.18	82.5444	659.18	80.7598	659.18	81.8011	659.18	80.3716	659.18	81.1572	659.18	80.0456	659.18	80.6513	659.18	79.6736	659.18	80.2144	659.18	79.168	659.18	79.6912	659.18	78.4694	659.18	78.9247	659.18	77.5478	659.18	77.9009	659.18	76.4638	659.18	76.9883	659.18	75.5663	659.18	76.9416	659.18	75.5669	659.18	77.8509	659.18	76.6621	659.18	78.8603	659.18	78.0616	659.18	79.3256	659.18	79.046
682.617	85.7571	682.617	85.3052	682.617	85.8742	682.617	84.5783	682.617	85.6295	682.617	83.6776	682.617	85.0351	682.617	82.7467	682.617	84.1675	682.617	81.9407	682.617	83.1807	682.617	81.3572	682.617	82.2743	682.617	80.9749	682.617	81.6389	682.617	80.6685	682.617	81.3572	682.617	80.2997	682.617	81.2572	682.617	79.7983	682.617	81.0089	682.617	79.176	682.617	80.3954	682.617	78.4963	682.617	79.4335	682.617	77.8671	682.617	78.4755	682.617	77.4984	682.617	78.2374	682.617	77.6937	682.617	78.9645	682.617	78.5152	682.617	79.9256	682.617	79.5536	682.617	80.4439	682.617	80.2972
707.52	85.438	707.52	84.9861	707.52	85.6071	707.52	84.3068	707.52	85.4798	707.52	83.5026	707.52	85.08	707.52	82.7167	707.52	84.463	707.52	82.0938	707.52	83.6974	707.52	81.7067	707.52	82.8447	707.52	81.4935	707.52	81.9651	707.52	81.2844	707.52	81.1344	707.52	80.9073	707.52	80.3905	707.52	80.2689	707.52	79.6375	707.52	79.3626	707.52	78.6713	707.52	78.243	707.52	77.3649	707.52	77.0532	707.52	76.0722	707.52	76.192	707.52	75.9975	707.52	76.3093	707.52	77.4166	707.52	77.4416	707.52	78.9291	707.52	78.7757	707.52	79.7158	707.52	79.6333
732.422	85.2888	732.422	85.0148	732.422	85.2599	732.422	84.4652	732.422	84.947	732.422	83.7208	732.422	84.4007	732.422	82.9056	732.422	83.6843	732.422	82.1535	732.422	82.8536	732.422	81.5591	732.422	81.9489	732.422	81.1273	732.422	81.0233	732.422	80.7564	732.422	80.2113	732.422	80.3036	732.422	79.712	732.422	79.6928	732.422	79.5538	732.422	78.9622	732.422	79.4375	732.422	78.2093	732.422	78.9612	732.422	77.495	732.422	78.0051	732.422	76.8549	732.422	77.2219	732.422	76.501	732.422	77.6425	732.422	76.8571	732.422	78.6878	732.422	77.8841	732.422	79.2112	732.422	78.8738
757.324	85.7097	757.324	85.331	757.324	85.8107	757.324	84.733	757.324	85.5822	757.324	83.9702	757.324	85.0012	757.324	83.0894	757.324	84.1026	757.324	82.1409	757.324	82.9968	757.324	81.199	757.324	81.8562	757.324	80.3492	757.324	80.8914	757.324	79.6191	757.324	80.2785	757.324	78.9493	757.324	79.9715	757.324	78.2641	757.324	79.6908	757.324	77.5385	757.324	79.1995	757.324	76.8017	757.324	78.5004	757.324	76.1719	757.324	77.9244	757.324	75.9755	757.324	78.0048	757.324	76.6058	757.324	78.8021	757.324	77.9028	757.324	79.7215	757.324	79.2154	757.324	80.2159	757.324	80.0512
785.156	85.1915	785.156	84.8349	785.156	85.307	785.156	84.2853	785.156	85.1377	785.156	83.6018	785.156	84.6545	785.156	82.8631	785.156	83.8662	785.156	82.164	785.156	82.8294	785.156	81.5779	785.156	81.6378	785.156	81.0915	785.156	80.4705	785.156	80.5906	785.156	79.6207	785.156	79.9471	785.156	79.1714	785.156	79.1164	785.156	78.7597	785.156	78.162	785.156	77.9439	785.156	77.22	785.156	76.4596	785.156	76.4374	785.156	74.5524	785.156	75.9132	785.156	74.0441	785.156	75.7484	785.156	75.7575	785.156	76.1115	785.156	77.4248	785.156	76.9563	785.156	78.0837	785.156	77.8025
811.523	85.735	811.523	85.4225	811.523	85.7316	811.523	84.8011	811.523	85.4287	811.523	83.9216	811.523	84.8518	811.523	82.8972	811.523	84.0284	811.523	81.9005	811.523	82.9636	811.523	81.1008	811.523	81.6138	811.523	80.5246	811.523	80.0005	811.523	80.0006	811.523	78.5438	811.523	79.3218	811.523	77.979	811.523	78.4178	811.523	78.1966	811.523	77.374	811.523	78.2967	811.523	76.3812	811.523	77.5947	811.523	75.7426	811.523	75.8447	811.523	75.8401	811.523	74.2453	811.523	76.779	811.523	75.6372	811.523	78.1301	811.523	78.086	811.523	79.3031	811.523	79.5386	811.523	79.8698
840.82	86.3083	840.82	86.1559	840.82	86.1374	840.82	85.6763	840.82	85.6978	840.82	84.9069	840.82	85.0751	840.82	83.9111	840.82	84.3281	840.82	82.7833	840.82	83.4206	840.82	81.6796	840.82	82.2258	840.82	80.7834	840.82	80.6916	840.82	80.1285	840.82	79.0938	840.82	79.5458	840.82	77.9988	840.82	78.8578	840.82	77.527	840.82	77.975	840.82	77.0358	840.82	76.8459	840.82	75.8849	840.82	75.5172	840.82	74.1978	840.82	74.4445	840.82	73.7341	840.82	74.5836	840.82	75.4473	840.82	75.9802	840.82	77.3295	840.82	77.4982	840.82	78.3469	840.82	78.3759
870.117	87.1268	870.117	86.852	870.117	86.9253	870.117	86.1471	870.117	86.2815	870.117	85.0961	870.117	85.3214	870.117	83.7703	870.117	84.2265	870.117	82.2334	870.117	83.1154	870.117	80.6693	870.117	81.9108	870.117	79.5	870.117	80.404	870.117	79.0519	870.117	78.7176	870.117	79.0998	870.117	77.8672	870.117	79.203	870.117	78.4227	870.117	79.0145	870.117	79.2045	870.117	78.2416	870.117	79.1009	870.117	76.7284	870.117	77.4116	870.117	74.9251	870.117	74.2069	870.117	74.7635	870.117	74.6735	870.117	76.8518	870.117	78.1877	870.117	79.0212	870.117	80.0395	870.117	80.2007
900.879	88.1903	900.879	88.0448	900.879	87.9516	900.879	87.503	900.879	87.3879	900.879	86.5656	900.879	86.6049	900.879	85.2122	900.879	85.6864	900.879	83.4163	900.879	84.598	900.879	81.2727	900.879	83.1868	900.879	79.2019	900.879	81.3351	900.879	77.8296	900.879	79.1972	900.879	77.3495	900.879	77.5047	900.879	77.4848	900.879	77.3624	900.879	77.8784	900.879	78.3877	900.879	78.1139	900.879	79.088	900.879	77.7723	900.879	78.6616	900.879	76.7011	900.879	77.1124	900.879	75.7046	900.879	76.0983	900.879	76.532	900.879	77.5175	900.879	78.3822	900.879	79.1263	900.879	79.4423
933.105	88.3159	933.105	88.0748	933.105	88.1216	933.105	87.4652	933.105	87.4618	933.105	86.5311	933.105	86.382	933.105	85.2593	933.105	85.0154	933.105	83.6377	933.105	83.5631	933.105	81.7843	933.105	82.218	933.105	79.9953	933.105	81.0249	933.105	78.5944	933.105	79.8535	933.105	77.7717	933.105	78.8302	933.105	77.5736	933.105	78.6959	933.105	77.8554	933.105	79.3668	933.105	78.1192	933.105	79.6492	933.105	77.6915	933.105	78.7706	933.105	76.1425	933.105	76.4989	933.105	74.2605	933.105	74.746	933.105	75.4263	933.105	76.9908	933.105	78.2071	933.105	79.2512	933.105	79.657
965.332	88.1042	965.332	87.9919	965.332	87.7841	965.332	87.4614	965.332	87.1123	965.332	86.5441	965.332	86.2769	965.332	85.2284	965.332	85.4352	965.332	83.4774	965.332	84.5149	965.332	81.3517	965.332	83.257	965.332	79.241	965.332	81.5073	965.332	77.9137	965.332	79.4945	965.332	77.7212	965.332	77.975	965.332	77.9432	965.332	77.459	965.332	77.7862	965.332	77.4308	965.332	77.2695	965.332	77.4842	965.332	76.9234	965.332	77.4098	965.332	76.7752	965.332	76.8888	965.332	76.3528	965.332	76.4873	965.332	75.8769	965.332	77.345	965.332	76.5488	965.332	78.2464	965.332	77.8789
1,000.49	87.8033	1,000.49	87.714	1,000.49	87.49	1,000.49	87.2622	1,000.49	86.7787	1,000.49	86.4084	1,000.49	85.7925	1,000.49	85.0434	1,000.49	84.6818	1,000.49	83.1464	1,000.49	83.4902	1,000.49	80.968	1,000.49	82.1603	1,000.49	79.0798	1,000.49	80.6534	1,000.49	77.9704	1,000.49	78.9716	1,000.49	77.4911	1,000.49	77.4031	1,000.49	77.1648	1,000.49	77.0563	1,000.49	76.8393	1,000.49	77.686	1,000.49	76.6317	1,000.49	77.8245	1,000.49	76.3531	1,000.49	77.0388	1,000.49	75.4719	1,000.49	75.5118	1,000.49	74.0425	1,000.49	74.4221	1,000.49	74.3779	1,000.49	75.7498	1,000.49	76.7117	1,000.49	77.6535	1,000.49	78.0876
1,035.64	87.3898	1,035.64	87.4777	1,035.64	87.0175	1,035.64	87.0884	1,035.64	86.5351	1,035.64	86.097	1,035.64	85.9765	1,035.64	84.4909	1,035.64	85.1735	1,035.64	82.3998	1,035.64	83.9011	1,035.64	80.1121	1,035.64	82.1821	1,035.64	77.9409	1,035.64	80.4217	1,035.64	76.0473	1,035.64	79.2233	1,035.64	75.0237	1,035.64	78.7992	1,035.64	75.2118	1,035.64	78.2859	1,035.64	75.3979	1,035.64	77.2408	1,035.64	75.0621	1,035.64	76.6313	1,035.64	74.7615	1,035.64	76.7719	1,035.64	74.8603	1,035.64	76.3256	1,035.64	75.0878	1,035.64	75.0739	1,035.64	75.6625	1,035.64	75.7385	1,035.64	77.0066	1,035.64	77.62	1,035.64	78.0573
1,072.27	86.6263	1,072.27	86.6775	1,072.27	86.2701	1,072.27	86.3713	1,072.27	85.6286	1,072.27	85.6055	1,072.27	84.7985	1,072.27	84.32	1,072.27	83.9925	1,072.27	82.6159	1,072.27	83.3452	1,072.27	80.7241	1,072.27	82.6887	1,072.27	78.7489	1,072.27	81.5048	1,072.27	76.6747	1,072.27	78.9731	1,072.27	75.0691	1,072.27	75.1434	1,072.27	74.7384	1,072.27	74.5421	1,072.27	75.0322	1,072.27	76.676	1,072.27	74.9441	1,072.27	77.992	1,072.27	74.3037	1,072.27	77.7385	1,072.27	73.7547	1,072.27	75.9457	1,072.27	73.2028	1,072.27	74.8329	1,072.27	72.5414	1,072.27	76.3205	1,072.27	73.9801	1,072.27	77.3249	1,072.27	76.4159
1,108.89	86.53	1,108.89	86.3212	1,108.89	86.4231	1,108.89	85.969	1,108.89	85.8453	1,108.89	85.4526	1,108.89	84.8636	1,108.89	84.5563	1,108.89	83.7809	1,108.89	83.0983	1,108.89	82.8551	1,108.89	81.1979	1,108.89	81.9551	1,108.89	79.3176	1,108.89	80.6395	1,108.89	77.8334	1,108.89	78.6162	1,108.89	76.9043	1,108.89	76.3032	1,108.89	76.7281	1,108.89	75.0735	1,108.89	76.7777	1,108.89	75.5088	1,108.89	76.2161	1,108.89	76.4532	1,108.89	75.0791	1,108.89	77.2647	1,108.89	74.2516	1,108.89	77.3668	1,108.89	74.0244	1,108.89	76.265	1,108.89	73.5191	1,108.89	74.9711	1,108.89	72.8757	1,108.89	74.4267	1,108.89	73.5098
1,148.44	86.342	1,148.44	86.3082	1,148.44	86.0712	1,148.44	85.8691	1,148.44	85.6224	1,148.44	84.8879	1,148.44	85.1042	1,148.44	83.3589	1,148.44	84.3686	1,148.44	81.6947	1,148.44	83.1737	1,148.44	80.654	1,148.44	81.5713	1,148.44	80.3934	1,148.44	79.9897	1,148.44	79.9344	1,148.44	78.279	1,148.44	78.5594	1,148.44	75.5512	1,148.44	77.1597	1,148.44	73.7529	1,148.44	76.807	1,148.44	75.7837	1,148.44	76.4587	1,148.44	77.9252	1,148.44	75.3503	1,148.44	78.5096	1,148.44	73.5275	1,148.44	77.0787	1,148.44	72.0172	1,148.44	74.3639	1,148.44	72.4941	1,148.44	74.8296	1,148.44	74.4736	1,148.44	76.4744	1,148.44	76.2289
1,189.45	86.0198	1,189.45	85.8761	1,189.45	85.9778	1,189.45	85.4077	1,189.45	85.6528	1,189.45	84.3534	1,189.45	84.7852	1,189.45	82.6163	1,189.45	83.1598	1,189.45	80.6652	1,189.45	81.0584	1,189.45	79.4964	1,189.45	79.5316	1,189.45	79.3366	1,189.45	79.0522	1,189.45	79.0585	1,189.45	78.3324	1,189.45	77.5655	1,189.45	76.1733	1,189.45	75.1998	1,189.45	73.134	1,189.45	73.8274	1,189.45	72.4953	1,189.45	74.0643	1,189.45	74.136	1,189.45	74.3405	1,189.45	75.0029	1,189.45	73.0604	1,189.45	74.6902	1,189.45	71.1278	1,189.45	73.4323	1,189.45	72.1529	1,189.45	72.6879	1,189.45	73.8492	1,189.45	73.5315	1,189.45	74.2494
1,230.47	86.5773	1,230.47	86.4876	1,230.47	86.1904	1,230.47	85.8541	1,230.47	85.3937	1,230.47	84.6575	1,230.47	84.1742	1,230.47	83.0053	1,230.47	82.5044	1,230.47	81.2477	1,230.47	80.6647	1,230.47	79.6924	1,230.47	79.401	1,230.47	78.1992	1,230.47	78.9514	1,230.47	76.2198	1,230.47	78.2207	1,230.47	73.1976	1,230.47	76.3665	1,230.47	70.6146	1,230.47	73.8315	1,230.47	71.6539	1,230.47	72.7453	1,230.47	74.3658	1,230.47	74.6347	1,230.47	75.8563	1,230.47	76.5192	1,230.47	75.6983	1,230.47	76.2348	1,230.47	74.7369	1,230.47	73.7438	1,230.47	73.9656	1,230.47	72.7099	1,230.47	73.7113	1,230.47	73.8221	1,230.47	73.9409
1,274.41	86.7673	1,274.41	86.5623	1,274.41	86.2862	1,274.41	85.6313	1,274.41	85.2592	1,274.41	84.0747	1,274.41	83.8329	1,274.41	82.1396	1,274.41	82.1201	1,274.41	80.1642	1,274.41	80.3753	1,274.41	78.4153	1,274.41	78.9832	1,274.41	77.0054	1,274.41	77.8576	1,274.41	75.5873	1,274.41	76.6156	1,274.41	73.2073	1,274.41	75.4262	1,274.41	69.7255	1,274.41	74.5006	1,274.41	68.0807	1,274.41	73.5238	1,274.41	71.4791	1,274.41	73.8594	1,274.41	74.3805	1,274.41	75.4442	1,274.41	74.8036	1,274.41	75.087	1,274.41	73.2715	1,274.41	72.4544	1,274.41	72.0203	1,274.41	72.1186	1,274.41	73.2201	1,274.41	74.0915	1,274.41	74.4682
1,319.82	86.7845	1,319.82	86.459	1,319.82	86.5656	1,319.82	85.5108	1,319.82	85.7562	1,319.82	83.9168	1,319.82	84.1664	1,319.82	81.8586	1,319.82	81.6982	1,319.82	79.6071	1,319.82	78.7137	1,319.82	77.01	1,319.82	76.2279	1,319.82	73.8558	1,319.82	75.1675	1,319.82	70.9548	1,319.82	74.741	1,319.82	68.596	1,319.82	73.6329	1,319.82	68.0573	1,319.82	72.0351	1,319.82	68.3558	1,319.82	71.096	1,319.82	70.8579	1,319.82	70.3892	1,319.82	73.2376	1,319.82	72.1419	1,319.82	72.8775	1,319.82	74.3965	1,319.82	70.033	1,319.82	74.2877	1,319.82	68.9973	1,319.82	72.991	1,319.82	72.8117	1,319.82	73.9777	1,319.82	74.7202
1,366.7	86.8364	1,366.7	86.4289	1,366.7	86.4823	1,366.7	85.3195	1,366.7	85.4395	1,366.7	83.7429	1,366.7	83.7778	1,366.7	81.9827	1,366.7	81.3954	1,366.7	79.9644	1,366.7	78.3477	1,366.7	77.0052	1,366.7	75.821	1,366.7	72.3017	1,366.7	75.0849	1,366.7	67.1649	1,366.7	75.1226	1,366.7	67.197	1,366.7	74.4937	1,366.7	67.9772	1,366.7	72.8407	1,366.7	66.2822	1,366.7	69.9057	1,366.7	65.9373	1,366.7	66.9416	1,366.7	68.7967	1,366.7	71.3973	1,366.7	71.0382	1,366.7	73.8242	1,366.7	71.7136	1,366.7	72.3671	1,366.7	70.5584	1,366.7	70.8625	1,366.7	70.4441	1,366.7	72.7017	1,366.7	72.5419
1,413.57	86.4794	1,413.57	86.3509	1,413.57	85.8434	1,413.57	85.3144	1,413.57	84.6292	1,413.57	83.4111	1,413.57	83.057	1,413.57	81.0874	1,413.57	81.2103	1,413.57	79.0294	1,413.57	78.8137	1,413.57	77.1947	1,413.57	75.9162	1,413.57	74.6492	1,413.57	73.7752	1,413.57	71.5172	1,413.57	73.2943	1,413.57	69.8392	1,413.57	73.1471	1,413.57	69.5671	1,413.57	72.4411	1,413.57	68.8865	1,413.57	71.5796	1,413.57	66.7565	1,413.57	70.0078	1,413.57	69.5901	1,413.57	70.3778	1,413.57	72.7211	1,413.57	74.0129	1,413.57	73.1224	1,413.57	74.695	1,413.57	70.5778	1,413.57	72.5449	1,413.57	64.8366	1,413.57	70.3968	1,413.57	67.4352
1,463.38	85.2202	1,463.38	85.239	1,463.38	84.4621	1,463.38	84.478	1,463.38	83.4042	1,463.38	83.1563	1,463.38	82.4868	1,463.38	81.3814	1,463.38	81.2539	1,463.38	78.8457	1,463.38	78.914	1,463.38	75.5305	1,463.38	76.2018	1,463.38	73.0643	1,463.38	74.0016	1,463.38	73.1107	1,463.38	71.4973	1,463.38	73.3867	1,463.38	71.9206	1,463.38	71.8488	1,463.38	73.3447	1,463.38	67.6376	1,463.38	73.401	1,463.38	60.9222	1,463.38	70.2896	1,463.38	62.2812	1,463.38	64.8746	1,463.38	69.149	1,463.38	72.0237	1,463.38	72.6054	1,463.38	74.07	1,463.38	72.6157	1,463.38	72.5599	1,463.38	70.5695	1,463.38	71.0986	1,463.38	70.3088
1,516.11	84.6031	1,516.11	84.3717	1,516.11	84.2359	1,516.11	83.6255	1,516.11	83.4348	1,516.11	82.5495	1,516.11	82.2433	1,516.11	81.1053	1,516.11	80.3801	1,516.11	79.0603	1,516.11	78.0192	1,516.11	76.4817	1,516.11	76.4719	1,516.11	73.8781	1,516.11	75.2949	1,516.11	71.8254	1,516.11	72.5453	1,516.11	71.3581	1,516.11	69.065	1,516.11	71.1304	1,516.11	71.4435	1,516.11	69.6884	1,516.11	73.6256	1,516.11	66.8573	1,516.11	71.5178	1,516.11	68.0623	1,516.11	63.1381	1,516.11	72.7201	1,516.11	70.9458	1,516.11	74.1066	1,516.11	74.6539	1,516.11	72.7879	1,516.11	74.7212	1,516.11	71.1777	1,516.11	73.5194	1,516.11	72.0786
1,568.85	84.8141	1,568.85	84.5931	1,568.85	84.34	1,568.85	83.8197	1,568.85	83.1725	1,568.85	82.6427	1,568.85	81.3403	1,568.85	81.0138	1,568.85	79.0238	1,568.85	78.8182	1,568.85	77.3774	1,568.85	76.282	1,568.85	77.2932	1,568.85	73.8028	1,568.85	76.6482	1,568.85	71.2047	1,568.85	74.0268	1,568.85	69.1747	1,568.85	69.8953	1,568.85	68.44	1,568.85	68.7502	1,568.85	67.7568	1,568.85	71.5849	1,568.85	67.0765	1,568.85	71.9039	1,568.85	67.8963	1,568.85	68.1133	1,568.85	70.1634	1,568.85	65.9952	1,568.85	71.6133	1,568.85	71.8997	1,568.85	71.5914	1,568.85	73.5674	1,568.85	70.8237	1,568.85	72.7828	1,568.85	71.2499
1,624.51	85.2871	1,624.51	84.751	1,624.51	84.9381	1,624.51	83.651	1,624.51	83.5367	1,624.51	82.2621	1,624.51	81.0424	1,624.51	80.4616	1,624.51	77.8132	1,624.51	77.9035	1,624.51	75.5071	1,624.51	74.774	1,624.51	75.5816	1,624.51	71.7747	1,624.51	76.1188	1,624.51	69.7938	1,624.51	75.4584	1,624.51	68.4571	1,624.51	73.201	1,624.51	64.8728	1,624.51	70.7174	1,624.51	53.7713	1,624.51	71.9098	1,624.51	60.4797	1,624.51	72.1712	1,624.51	66.6292	1,624.51	68.1627	1,624.51	69.2994	1,624.51	60.3572	1,624.51	70.9062	1,624.51	70.4753	1,624.51	71.6298	1,624.51	73.3693	1,624.51	71.6758	1,624.51	73.3119	1,624.51	72.2389
1,681.64	85.8853	1,681.64	85.2876	1,681.64	85.2784	1,681.64	83.5648	1,681.64	83.2958	1,681.64	80.8434	1,681.64	79.9815	1,681.64	77.8151	1,681.64	76.2402	1,681.64	75.7021	1,681.64	73.7749	1,681.64	75.5491	1,681.64	74.1839	1,681.64	74.3134	1,681.64	76.0444	1,681.64	69.0499	1,681.64	76.4005	1,681.64	66.2206	1,681.64	74.0662	1,681.64	66.0256	1,681.64	70.3823	1,681.64	69.1098	1,681.64	73.9121	1,681.64	67.4956	1,681.64	74.9182	1,681.64	64.6659	1,681.64	71.507	1,681.64	72.4401	1,681.64	68.191	1,681.64	75.1289	1,681.64	69.9605	1,681.64	75.3131	1,681.64	73.1541	1,681.64	74.6775	1,681.64	74.4636	1,681.64	74.4788
1,741.7	86.5342	1,741.7	86.4974	1,741.7	85.2719	1,741.7	84.8171	1,741.7	83.0676	1,741.7	81.3019	1,741.7	80.5551	1,741.7	77.0759	1,741.7	78.0942	1,741.7	75.7973	1,741.7	75.3459	1,741.7	76.9381	1,741.7	73.1785	1,741.7	75.673	1,741.7	73.6992	1,741.7	69.0519	1,741.7	75.3518	1,741.7	56.8316	1,741.7	74.69	1,741.7	66.3533	1,741.7	69.7536	1,741.7	73.5762	1,741.7	72.1257	1,741.7	72.5829	1,741.7	74.7535	1,741.7	68.8458	1,741.7	71.0639	1,741.7	73.4051	1,741.7	58.5337	1,741.7	76.085	1,741.7	70.0164	1,741.7	76.1898	1,741.7	75.4398	1,741.7	75.2056	1,741.7	77.1479	1,741.7	76.1913
1,803.22	85.9651	1,803.22	85.9445	1,803.22	84.6516	1,803.22	84.2248	1,803.22	82.61	1,803.22	81.0045	1,803.22	80.2033	1,803.22	77.3307	1,803.22	77.565	1,803.22	73.6969	1,803.22	75.5877	1,803.22	72.1886	1,803.22	74.1886	1,803.22	71.9782	1,803.22	73.1259	1,803.22	70.2967	1,803.22	74.0509	1,803.22	67.1772	1,803.22	74.8822	1,803.22	57.119	1,803.22	71.6378	1,803.22	71.3524	1,803.22	63.747	1,803.22	73.4933	1,803.22	72.2354	1,803.22	70.7237	1,803.22	72.2525	1,803.22	69.5093	1,803.22	65.7172	1,803.22	73.8034	1,803.22	64.8	1,803.22	75.6246	1,803.22	72.8996	1,803.22	75.4149	1,803.22	75.9427	1,803.22	75.7358
1,866.21	85.38	1,866.21	85.3313	1,866.21	84.4394	1,866.21	84.0512	1,866.21	82.7064	1,866.21	81.7281	1,866.21	80.0289	1,866.21	79.2396	1,866.21	76.7937	1,866.21	76.5252	1,866.21	75.3497	1,866.21	72.5165	1,866.21	74.4286	1,866.21	70.0748	1,866.21	73.1704	1,866.21	70.7443	1,866.21	73.8953	1,866.21	69.5674	1,866.21	74.9274	1,866.21	61.5265	1,866.21	72.8721	1,866.21	71.6961	1,866.21	66.2863	1,866.21	73.4913	1,866.21	69.3267	1,866.21	71.5036	1,866.21	71.0913	1,866.21	66.5108	1,866.21	68.7125	1,866.21	66.8859	1,866.21	62.074	1,866.21	70.9395	1,866.21	68.4632	1,866.21	71.4972	1,866.21	73.0954	1,866.21	72.8711
1,932.13	84.5544	1,932.13	84.238	1,932.13	83.7784	1,932.13	82.9324	1,932.13	82.0286	1,932.13	81.2727	1,932.13	79.1354	1,932.13	79.8928	1,932.13	75.6229	1,932.13	77.6807	1,932.13	74.8544	1,932.13	73.2557	1,932.13	74.1229	1,932.13	69.4413	1,932.13	72.6369	1,932.13	71.0032	1,932.13	72.7157	1,932.13	70.4336	1,932.13	74.1337	1,932.13	55.8434	1,932.13	72.7652	1,932.13	67.6311	1,932.13	66.4062	1,932.13	71.0283	1,932.13	66.0513	1,932.13	70.5763	1,932.13	68.2325	1,932.13	64.4392	1,932.13	65.7866	1,932.13	60.2386	1,932.13	64.2895	1,932.13	67.7178	1,932.13	66.8606	1,932.13	69.0584	1,932.13	71.5554	1,932.13	71.1501
1,999.51	85.1143	1,999.51	84.0669	1,999.51	84.5613	1,999.51	82.0876	1,999.51	82.1454	1,999.51	80.3548	1,999.51	77.5886	1,999.51	79.1492	1,999.51	73.8897	1,999.51	77.018	1,999.51	74.6138	1,999.51	73.2983	1,999.51	74.5647	1,999.51	69.6105	1,999.51	74.4786	1,999.51	68.8883	1,999.51	73.2053	1,999.51	69.0975	1,999.51	72.8633	1,999.51	57.5598	1,999.51	73.1024	1,999.51	65.8773	1,999.51	70.3876	1,999.51	67.2075	1,999.51	67.2862	1,999.51	69.6946	1,999.51	69.3336	1,999.51	65.0555	1,999.51	66.9292	1,999.51	59.5907	1,999.51	67.4062	1,999.51	68.533	1,999.51	67.6062	1,999.51	69.4624	1,999.51	69.8247	1,999.51	69.5215
2,069.82	85.4187	2,069.82	84.0307	2,069.82	85.0123	2,069.82	82.0549	2,069.82	82.3442	2,069.82	80.3356	2,069.82	77.5381	2,069.82	77.8568	2,069.82	74.3671	2,069.82	74.7102	2,069.82	74.6785	2,069.82	73.998	2,069.82	74.6525	2,069.82	72.7952	2,069.82	74.682	2,069.82	67.3352	2,069.82	74.2543	2,069.82	62.5418	2,069.82	74.6494	2,069.82	64.0817	2,069.82	74.8538	2,069.82	64.7015	2,069.82	71.8423	2,069.82	61.9119	2,069.82	69.5602	2,069.82	64.1285	2,069.82	70.7081	2,069.82	53.3228	2,069.82	67.0823	2,069.82	63.1211	2,069.82	69.5243	2,069.82	66.9254	2,069.82	70.0147	2,069.82	66.7969	2,069.82	70.8914	2,069.82	68.5412
2,143.07	85.3553	2,143.07	84.4371	2,143.07	84.6499	2,143.07	82.5464	2,143.07	81.6272	2,143.07	79.8157	2,143.07	76.6803	2,143.07	76.9563	2,143.07	73.6869	2,143.07	75.8287	2,143.07	75.0494	2,143.07	74.7284	2,143.07	75.9413	2,143.07	71.4709	2,143.07	76.5105	2,143.07	63.1909	2,143.07	75.9854	2,143.07	55.1437	2,143.07	74.6848	2,143.07	63.4553	2,143.07	75.2874	2,143.07	65.3754	2,143.07	74.3034	2,143.07	60.241	2,143.07	71.3154	2,143.07	55.9836	2,143.07	71.8263	2,143.07	54.4447	2,143.07	67.1231	2,143.07	59.683	2,143.07	67.1375	2,143.07	69.0115	2,143.07	70.5005	2,143.07	69.705	2,143.07	69.6975	2,143.07	65.7728
2,219.24	84.2093	2,219.24	83.9038	2,219.24	83.4732	2,219.24	82.617	2,219.24	81.0275	2,219.24	79.2602	2,219.24	77.2519	2,219.24	75.4255	2,219.24	75.1372	2,219.24	75.1818	2,219.24	76.0203	2,219.24	74.3881	2,219.24	76.4399	2,219.24	70.0656	2,219.24	75.3318	2,219.24	62.1107	2,219.24	74.9216	2,219.24	62.788	2,219.24	74.2813	2,219.24	62.8181	2,219.24	74.677	2,219.24	67.2562	2,219.24	75.7444	2,219.24	65.9247	2,219.24	73.0456	2,219.24	61.2201	2,219.24	71.9043	2,219.24	57.6496	2,219.24	68.7652	2,219.24	59.9536	2,219.24	61.2204	2,219.24	70.0305	2,219.24	66.8748	2,219.24	70.8007	2,219.24	68.5882	2,219.24	65.7467
2,296.88	83.6996	2,296.88	83.5285	2,296.88	83.2458	2,296.88	82.2243	2,296.88	81.2028	2,296.88	79.3887	2,296.88	76.1483	2,296.88	77.9571	2,296.88	72.389	2,296.88	75.7189	2,296.88	77.1953	2,296.88	70.6526	2,296.88	77.0939	2,296.88	52.9582	2,296.88	74.9351	2,296.88	54.3089	2,296.88	74.662	2,296.88	66.3215	2,296.88	74.5566	2,296.88	65.5528	2,296.88	74.724	2,296.88	68.0257	2,296.88	73.9418	2,296.88	67.6959	2,296.88	73.7235	2,296.88	66.5219	2,296.88	71.8723	2,296.88	63.0647	2,296.88	65.1092	2,296.88	48.1945	2,296.88	58.2927	2,296.88	64.8167	2,296.88	63.8826	2,296.88	66.9249	2,296.88	66.6033	2,296.88	64.2439
2,378.91	84.2144	2,378.91	82.2601	2,378.91	83.2391	2,378.91	78.9761	2,378.91	78.7624	2,378.91	77.9233	2,378.91	68.3846	2,378.91	77.8206	2,378.91	72.7468	2,378.91	74.0118	2,378.91	77.3876	2,378.91	61.7142	2,378.91	78.2757	2,378.91	61.8575	2,378.91	77.794	2,378.91	67.7333	2,378.91	76.4048	2,378.91	63.3322	2,378.91	75.363	2,378.91	67.6259	2,378.91	77.3283	2,378.91	67.987	2,378.91	72.6081	2,378.91	67.4686	2,378.91	71.6973	2,378.91	63.7092	2,378.91	73.6112	2,378.91	63.924	2,378.91	67.5643	2,378.91	62.2354	2,378.91	64.0959	2,378.91	65.9317	2,378.91	65.5076	2,378.91	70.0073	2,378.91	64.3886	2,378.91	68.1662
2,462.4	85.4648	2,462.4	83.492	2,462.4	85.0145	2,462.4	81.6258	2,462.4	80.615	2,462.4	79.2794	2,462.4	70.0974	2,462.4	74.7378	2,462.4	73.5075	2,462.4	68.4161	2,462.4	77.3914	2,462.4	63.4516	2,462.4	79.1003	2,462.4	64.3473	2,462.4	76.4113	2,462.4	65.4627	2,462.4	72.7377	2,462.4	64.8069	2,462.4	72.4127	2,462.4	63.6707	2,462.4	74.2222	2,462.4	63.6557	2,462.4	75.3475	2,462.4	63.3902	2,462.4	69.8621	2,462.4	60.5824	2,462.4	71.7545	2,462.4	58.5963	2,462.4	67.4994	2,462.4	60.655	2,462.4	58.7176	2,462.4	64.9634	2,462.4	62.5142	2,462.4	67.8117	2,462.4	66.7494	2,462.4	68.1814
2,548.83	84.5163	2,548.83	83.4142	2,548.83	84.923	2,548.83	82.0577	2,548.83	81.6679	2,548.83	77.8536	2,548.83	72.9543	2,548.83	72.204	2,548.83	75.4037	2,548.83	69.9473	2,548.83	77.543	2,548.83	64.3173	2,548.83	78.9442	2,548.83	66.9517	2,548.83	77.0049	2,548.83	68.0563	2,548.83	74.9012	2,548.83	70.7703	2,548.83	74.8677	2,548.83	66.9105	2,548.83	72.5362	2,548.83	63.7109	2,548.83	73.0481	2,548.83	66.2967	2,548.83	71.1405	2,548.83	64.108	2,548.83	70.3838	2,548.83	63.1321	2,548.83	69.6842	2,548.83	61.3971	2,548.83	61.6919	2,548.83	64.5122	2,548.83	66.7542	2,548.83	64.4009	2,548.83	69.2601	2,548.83	65.2492
2,639.65	82.8194	2,639.65	82.4359	2,639.65	82.9361	2,639.65	81.2519	2,639.65	80.4723	2,639.65	76.7019	2,639.65	70.65	2,639.65	72.0567	2,639.65	77.327	2,639.65	69.1892	2,639.65	79.505	2,639.65	68.8155	2,639.65	79.1702	2,639.65	69.6731	2,639.65	79.355	2,639.65	71.1419	2,639.65	78.1001	2,639.65	67.5845	2,639.65	75.5274	2,639.65	68.1096	2,639.65	74.0599	2,639.65	67.4768	2,639.65	74.2627	2,639.65	63.9316	2,639.65	72.1894	2,639.65	67.6424	2,639.65	70.2827	2,639.65	66.4814	2,639.65	69.9086	2,639.65	65.1801	2,639.65	61.2118	2,639.65	65.6263	2,639.65	69.8561	2,639.65	65.333	2,639.65	69.3209	2,639.65	64.5618
2,731.93	82.0836	2,731.93	80.7293	2,731.93	82.0439	2,731.93	78.4483	2,731.93	77.7328	2,731.93	76.0147	2,731.93	64.1697	2,731.93	71.8325	2,731.93	76.7211	2,731.93	68.5116	2,731.93	80.0387	2,731.93	70.7102	2,731.93	79.8079	2,731.93	72.015	2,731.93	78.7822	2,731.93	70.7725	2,731.93	77.1722	2,731.93	71.3459	2,731.93	75.0897	2,731.93	71.2341	2,731.93	69.9448	2,731.93	70.7437	2,731.93	75.7154	2,731.93	69.4573	2,731.93	73.7883	2,731.93	67.4093	2,731.93	70.729	2,731.93	68.064	2,731.93	66.0087	2,731.93	65.5188	2,731.93	40.9082	2,731.93	63.4848	2,731.93	71.2857	2,731.93	60.3433	2,731.93	66.7285	2,731.93	50.4686
2,828.61	82.8328	2,828.61	82.115	2,828.61	82.0928	2,828.61	78.9656	2,828.61	77.0989	2,828.61	74.1217	2,828.61	59.0357	2,828.61	64.1349	2,828.61	77.0172	2,828.61	70.386	2,828.61	81.0921	2,828.61	73.8004	2,828.61	79.5981	2,828.61	74.4211	2,828.61	79.197	2,828.61	72.2384	2,828.61	78.5466	2,828.61	74.2139	2,828.61	73.5845	2,828.61	73.8657	2,828.61	67.2496	2,828.61	72.8766	2,828.61	71.6551	2,828.61	69.4853	2,828.61	75.3737	2,828.61	70.3974	2,828.61	69.8682	2,828.61	68.4069	2,828.61	69.4458	2,828.61	68.2133	2,828.61	60.8869	2,828.61	61.9343	2,828.61	70.6455	2,828.61	58.4187	2,828.61	64.725	2,828.61	63.661
2,928.22	83.468	2,928.22	83.28	2,928.22	82.7938	2,928.22	80.7321	2,928.22	77.8776	2,928.22	72.5392	2,928.22	66.0306	2,928.22	64.8657	2,928.22	77.8107	2,928.22	72.8156	2,928.22	81.1335	2,928.22	74.8017	2,928.22	80.31	2,928.22	76.5997	2,928.22	80.1319	2,928.22	76.3394	2,928.22	77.1878	2,928.22	75.1272	2,928.22	68.0759	2,928.22	71.1052	2,928.22	68.0771	2,928.22	69.7768	2,928.22	70.4566	2,928.22	69.6632	2,928.22	74.3805	2,928.22	68.7331	2,928.22	71.3056	2,928.22	70.1269	2,928.22	68.3483	2,928.22	69.8889	2,928.22	63.5082	2,928.22	64.9933	2,928.22	69.0672	2,928.22	56.6136	2,928.22	63.9607	2,928.22	62.37
3,030.76	83.5759	3,030.76	83.6889	3,030.76	82.4232	3,030.76	80.708	3,030.76	78.3697	3,030.76	71.0988	3,030.76	65.0799	3,030.76	70.9141	3,030.76	79.3198	3,030.76	75.2159	3,030.76	80.8753	3,030.76	76.3877	3,030.76	79.3034	3,030.76	77.6981	3,030.76	79.9745	3,030.76	74.9883	3,030.76	75.1829	3,030.76	69.8523	3,030.76	67.6272	3,030.76	70.7459	3,030.76	61.1553	3,030.76	70.9139	3,030.76	74.1708	3,030.76	69.5658	3,030.76	71.447	3,030.76	68.897	3,030.76	71.9342	3,030.76	69.7971	3,030.76	65.7823	3,030.76	69.4121	3,030.76	62.7568	3,030.76	67.1577	3,030.76	69.2395	3,030.76	57.8131	3,030.76	64.7937	3,030.76	65.6012
3,137.7	83.3831	3,137.7	82.9272	3,137.7	81.3982	3,137.7	80.441	3,137.7	78.0059	3,137.7	71.4881	3,137.7	53.0568	3,137.7	74.1466	3,137.7	79.0924	3,137.7	77.3577	3,137.7	80.8576	3,137.7	78.6116	3,137.7	78.2829	3,137.7	76.0828	3,137.7	78.7956	3,137.7	72.0293	3,137.7	72.4972	3,137.7	73.8107	3,137.7	70.9237	3,137.7	72.3475	3,137.7	67.483	3,137.7	71.2793	3,137.7	71.7535	3,137.7	68.0181	3,137.7	72.155	3,137.7	69.1186	3,137.7	71.5779	3,137.7	69.0741	3,137.7	66.9771	3,137.7	69.768	3,137.7	60.9621	3,137.7	63.0958	3,137.7	69.2322	3,137.7	54.4871	3,137.7	66.5823	3,137.7	66.9697
3,249.02	82.8193	3,249.02	82.6709	3,249.02	81.4962	3,249.02	79.7669	3,249.02	76.2152	3,249.02	67.3097	3,249.02	65.818	3,249.02	77.0518	3,249.02	76.9472	3,249.02	79.0523	3,249.02	80.9113	3,249.02	76.7552	3,249.02	79.6153	3,249.02	73.6143	3,249.02	78.5183	3,249.02	75.4828	3,249.02	69.9362	3,249.02	73.9821	3,249.02	75.6844	3,249.02	69.7495	3,249.02	69.5955	3,249.02	67.7923	3,249.02	72.9555	3,249.02	68.1953	3,249.02	69.1416	3,249.02	66.9316	3,249.02	73.2194	3,249.02	68.585	3,249.02	67.1435	3,249.02	69.2006	3,249.02	63.4978	3,249.02	64.6158	3,249.02	69.3458	3,249.02	61.5281	3,249.02	65.7394	3,249.02	65.4258
3,363.28	82.6704	3,363.28	83.3975	3,363.28	81.3215	3,363.28	78.2965	3,363.28	76.0584	3,363.28	72.1935	3,363.28	67.1305	3,363.28	77.6672	3,363.28	76.4512	3,363.28	78.3542	3,363.28	79.7565	3,363.28	75.984	3,363.28	80.5829	3,363.28	75.3312	3,363.28	79.7373	3,363.28	72.4904	3,363.28	73.6684	3,363.28	66.4341	3,363.28	78.5352	3,363.28	70.2718	3,363.28	74.67	3,363.28	69.4171	3,363.28	69.8184	3,363.28	68.5378	3,363.28	65.9983	3,363.28	67.7445	3,363.28	73.0328	3,363.28	66.3667	3,363.28	66.524	3,363.28	69.1874	3,363.28	62.7938	3,363.28	64.6643	3,363.28	70.1954	3,363.28	62.2377	3,363.28	62.7613	3,363.28	59.2139
3,481.93	83.4063	3,481.93	84.3189	3,481.93	80.8559	3,481.93	79.0449	3,481.93	77.4574	3,481.93	75.6403	3,481.93	67.7508	3,481.93	78.5482	3,481.93	78.5479	3,481.93	77.8428	3,481.93	79.2795	3,481.93	77.2385	3,481.93	80.8858	3,481.93	74.8336	3,481.93	80.476	3,481.93	70.7437	3,481.93	73.8583	3,481.93	73.27	3,481.93	79.712	3,481.93	70.3182	3,481.93	75.883	3,481.93	69.4586	3,481.93	70.9865	3,481.93	68.0335	3,481.93	63.4047	3,481.93	68.3091	3,481.93	72.1498	3,481.93	68.5849	3,481.93	64.903	3,481.93	69.3631	3,481.93	62.3182	3,481.93	65.9931	3,481.93	70.3493	3,481.93	58.8598	3,481.93	64.7261	3,481.93	57.3044
3,604.98	84.4085	3,604.98	84.1115	3,604.98	80.4151	3,604.98	77.2589	3,604.98	77.1039	3,604.98	77.7889	3,604.98	69.5532	3,604.98	79.0707	3,604.98	77.9278	3,604.98	76.9711	3,604.98	80.0186	3,604.98	76.2189	3,604.98	82.7976	3,604.98	74.8383	3,604.98	79.7601	3,604.98	74.7548	3,604.98	77.3187	3,604.98	72.4404	3,604.98	80.0437	3,604.98	70.6266	3,604.98	75.4375	3,604.98	71.5683	3,604.98	71.1614	3,604.98	70.14	3,604.98	67.4316	3,604.98	67.8052	3,604.98	69.1024	3,604.98	69.218	3,604.98	60.1977	3,604.98	70.359	3,604.98	61.3373	3,604.98	67.1008	3,604.98	70.2032	3,604.98	57.764	3,604.98	63.4225	3,604.98	58.9435
3,732.42	85.5631	3,732.42	84.4855	3,732.42	82.6396	3,732.42	77.7014	3,732.42	77.7627	3,732.42	78.7287	3,732.42	73.0777	3,732.42	78.5529	3,732.42	76.4739	3,732.42	78.4174	3,732.42	78.8888	3,732.42	76.6352	3,732.42	82.2115	3,732.42	77.0801	3,732.42	79.7079	3,732.42	74.2204	3,732.42	77.5405	3,732.42	74.125	3,732.42	77.7116	3,732.42	72.9667	3,732.42	74.5045	3,732.42	71.3357	3,732.42	67.1994	3,732.42	71.9109	3,732.42	68.1718	3,732.42	68.9953	3,732.42	68.9503	3,732.42	70.2574	3,732.42	59.312	3,732.42	70.7187	3,732.42	60.2864	3,732.42	70.6006	3,732.42	70.7217	3,732.42	61.3515	3,732.42	63.4647	3,732.42	57.4431
3,864.26	85.1738	3,864.26	83.1332	3,864.26	82.3125	3,864.26	79.3573	3,864.26	80.3866	3,864.26	79.0711	3,864.26	75.585	3,864.26	80.0433	3,864.26	76.6919	3,864.26	79.1315	3,864.26	78.8201	3,864.26	79.4053	3,864.26	82.2915	3,864.26	77.1735	3,864.26	78.5995	3,864.26	76.0588	3,864.26	76.8113	3,864.26	76.3407	3,864.26	73.12	3,864.26	73.2567	3,864.26	69.0488	3,864.26	72.8342	3,864.26	67.2244	3,864.26	72.8338	3,864.26	65.7635	3,864.26	70.006	3,864.26	69.9014	3,864.26	71.1752	3,864.26	57.9515	3,864.26	71.4136	3,864.26	62.5412	3,864.26	70.4083	3,864.26	71.44	3,864.26	63.0636	3,864.26	64.5152	3,864.26	57.7914
4,000.49	85.5308	4,000.49	81.9379	4,000.49	81.1976	4,000.49	80.6092	4,000.49	78.6219	4,000.49	79.1314	4,000.49	78.1458	4,000.49	81.2741	4,000.49	73.8882	4,000.49	80.4594	4,000.49	78.9264	4,000.49	80.3125	4,000.49	81.5146	4,000.49	78.7851	4,000.49	76.9592	4,000.49	78.7933	4,000.49	77.6347	4,000.49	75.1032	4,000.49	75.4553	4,000.49	73.1909	4,000.49	63.4122	4,000.49	71.8707	4,000.49	54.8266	4,000.49	72.0819	4,000.49	66.6459	4,000.49	68.7269	4,000.49	66.7626	4,000.49	71.0704	4,000.49	56.3038	4,000.49	70.8643	4,000.49	60.9054	4,000.49	70.1823	4,000.49	69.3823	4,000.49	64.6017	4,000.49	64.2786	4,000.49	50.4736
4,141.11	85.651	4,141.11	83.6147	4,141.11	83.34	4,141.11	81.8811	4,141.11	77.8161	4,141.11	79.5294	4,141.11	80.5894	4,141.11	81.9984	4,141.11	76.6613	4,141.11	82.1765	4,141.11	78.6494	4,141.11	80.6853	4,141.11	80.0529	4,141.11	80.1099	4,141.11	76.7653	4,141.11	75.0579	4,141.11	78.7887	4,141.11	73.5968	4,141.11	74.0487	4,141.11	72.3893	4,141.11	67.2228	4,141.11	70.1239	4,141.11	59.229	4,141.11	70.8316	4,141.11	68.2279	4,141.11	67.9596	4,141.11	66.6593	4,141.11	69.9146	4,141.11	64.3242	4,141.11	71.0723	4,141.11	62.794	4,141.11	68.7694	4,141.11	67.506	4,141.11	63.8975	4,141.11	65.1958	4,141.11	52.1694
4,287.6	84.2128	4,287.6	83.0847	4,287.6	83.8796	4,287.6	80.9093	4,287.6	78.2175	4,287.6	81.0054	4,287.6	81.129	4,287.6	82.531	4,287.6	78.8933	4,287.6	81.9042	4,287.6	80.4355	4,287.6	81.1193	4,287.6	80.9104	4,287.6	76.0661	4,287.6	79.464	4,287.6	75.7016	4,287.6	78.2728	4,287.6	73.4627	4,287.6	70.6907	4,287.6	68.2154	4,287.6	68.3002	4,287.6	70.5114	4,287.6	63.7054	4,287.6	69.1927	4,287.6	67.7914	4,287.6	67.2065	4,287.6	66.6381	4,287.6	68.7297	4,287.6	66.5009	4,287.6	70.0148	4,287.6	62.4429	4,287.6	67.8835	4,287.6	67.7475	4,287.6	61.4873	4,287.6	62.3258	4,287.6	53.7038
4,438.48	84.1835	4,438.48	83.9775	4,438.48	84.6476	4,438.48	81.0733	4,438.48	79.9709	4,438.48	82.7899	4,438.48	81.8942	4,438.48	82.8502	4,438.48	79.6608	4,438.48	82.9146	4,438.48	81.8784	4,438.48	77.09	4,438.48	80.9638	4,438.48	75.3164	4,438.48	81.5586	4,438.48	70.1261	4,438.48	75.4097	4,438.48	72.491	4,438.48	64.5863	4,438.48	71.7309	4,438.48	65.6463	4,438.48	68.4065	4,438.48	67.1284	4,438.48	68.6029	4,438.48	69.3728	4,438.48	68.9094	4,438.48	68.9746	4,438.48	68.7709	4,438.48	65.5887	4,438.48	70.1809	4,438.48	63.0495	4,438.48	69.3803	4,438.48	70.8328	4,438.48	64.478	4,438.48	60.4657	4,438.48	57.9494
4,595.21	84.4361	4,595.21	85.3963	4,595.21	84.1681	4,595.21	82.1936	4,595.21	81.3928	4,595.21	81.7784	4,595.21	82.7346	4,595.21	83.6057	4,595.21	78.9864	4,595.21	80.4134	4,595.21	81.8023	4,595.21	76.8735	4,595.21	81.6984	4,595.21	71.3992	4,595.21	80.7759	4,595.21	77.5294	4,595.21	69.1173	4,595.21	74.34	4,595.21	74.0706	4,595.21	71.8018	4,595.21	55.0479	4,595.21	71.4405	4,595.21	67.2216	4,595.21	71.5324	4,595.21	70.9329	4,595.21	70.5483	4,595.21	71.1317	4,595.21	69.6774	4,595.21	64.4328	4,595.21	71.7493	4,595.21	61.4983	4,595.21	69.8783	4,595.21	70.532	4,595.21	67.343	4,595.21	58.6322	4,595.21	59.5896
4,756.35	85.8797	4,756.35	85.9543	4,756.35	83.5651	4,756.35	81.0469	4,756.35	81.3307	4,756.35	84.0263	4,756.35	84.2633	4,756.35	84.8202	4,756.35	80.3242	4,756.35	79.2925	4,756.35	79.9408	4,756.35	76.8762	4,756.35	81.3976	4,756.35	80.0584	4,756.35	80.1966	4,756.35	78.3561	4,756.35	73.548	4,756.35	75.5474	4,756.35	74.1344	4,756.35	74.504	4,756.35	67.4578	4,756.35	71.6708	4,756.35	62.12	4,756.35	72.4028	4,756.35	69.0623	4,756.35	71.4419	4,756.35	68.3514	4,756.35	71.3786	4,756.35	64.0215	4,756.35	73.0676	4,756.35	61.0342	4,756.35	71.2327	4,756.35	69.6099	4,756.35	69.1323	4,756.35	56.9863	4,756.35	58.6752
4,924.8	86.037	4,924.8	86.0637	4,924.8	84.4216	4,924.8	82.221	4,924.8	82.8009	4,924.8	85.5636	4,924.8	84.4389	4,924.8	84.0084	4,924.8	82.4484	4,924.8	77.6619	4,924.8	79.0612	4,924.8	81.4928	4,924.8	81.0203	4,924.8	79.5904	4,924.8	78.9222	4,924.8	78.4329	4,924.8	73.5829	4,924.8	75.9936	4,924.8	73.6756	4,924.8	72.6241	4,924.8	71.1781	4,924.8	70.5692	4,924.8	52.6195	4,924.8	71.5706	4,924.8	70.8584	4,924.8	70.9749	4,924.8	69.291	4,924.8	69.8475	4,924.8	60.2303	4,924.8	72.0133	4,924.8	59.2511	4,924.8	71.3157	4,924.8	69.1441	4,924.8	68.283	4,924.8	62.9085	4,924.8	61.9755
5,097.66	86.882	5,097.66	85.1338	5,097.66	84.2918	5,097.66	83.3268	5,097.66	83.7896	5,097.66	85.3533	5,097.66	84.744	5,097.66	82.1314	5,097.66	83.0371	5,097.66	81.4217	5,097.66	77.6542	5,097.66	81.7268	5,097.66	80.413	5,097.66	79.8802	5,097.66	74.8201	5,097.66	76.3697	5,097.66	75.8264	5,097.66	72.2441	5,097.66	71.104	5,097.66	69.1168	5,097.66	71.6404	5,097.66	68.9773	5,097.66	57.7084	5,097.66	67.9367	5,097.66	72.22	5,097.66	68.5567	5,097.66	68.5979	5,097.66	68.5101	5,097.66	58.7213	5,097.66	71.7738	5,097.66	51.7316	5,097.66	69.866	5,097.66	70.0299	5,097.66	67.2241	5,097.66	62.3136	5,097.66	61.9383
5,277.83	87.7614	5,277.83	85.5198	5,277.83	85.6899	5,277.83	84.717	5,277.83	82.0922	5,277.83	85.9088	5,277.83	84.336	5,277.83	81.1379	5,277.83	84.702	5,277.83	82.2181	5,277.83	77.7407	5,277.83	80.7199	5,277.83	77.7005	5,277.83	74.5759	5,277.83	76.6142	5,277.83	74.8555	5,277.83	78.215	5,277.83	72.2527	5,277.83	74.6183	5,277.83	69.2941	5,277.83	72.604	5,277.83	68.7701	5,277.83	43.8474	5,277.83	67.2227	5,277.83	70.3639	5,277.83	68.9014	5,277.83	62.9506	5,277.83	66.6918	5,277.83	61.6044	5,277.83	71.5745	5,277.83	59.96	5,277.83	70.3992	5,277.83	68.8	5,277.83	69.555	5,277.83	59.5519	5,277.83	65.0777
5,463.87	87.8041	5,463.87	84.8087	5,463.87	85.3575	5,463.87	86.3826	5,463.87	81.5703	5,463.87	84.0278	5,463.87	84.9444	5,463.87	82.7116	5,463.87	87.252	5,463.87	82.6239	5,463.87	76.6983	5,463.87	77.3706	5,463.87	75.7974	5,463.87	76.7007	5,463.87	78.2541	5,463.87	75.9773	5,463.87	79.429	5,463.87	73.5562	5,463.87	78.9636	5,463.87	72.1481	5,463.87	72.2276	5,463.87	71.2267	5,463.87	52.0913	5,463.87	69.0098	5,463.87	71.7451	5,463.87	70.2868	5,463.87	66.6367	5,463.87	68.0922	5,463.87	65.4707	5,463.87	71.2664	5,463.87	56.377	5,463.87	72.2302	5,463.87	66.6254	5,463.87	68.3193	5,463.87	57.7984	5,463.87	65.462
5,657.23	87.7972	5,657.23	84.9074	5,657.23	86.3105	5,657.23	86.1591	5,657.23	84.7181	5,657.23	82.8837	5,657.23	85.1686	5,657.23	85.1213	5,657.23	87.327	5,657.23	81.7278	5,657.23	75.8543	5,657.23	79.3279	5,657.23	78.2568	5,657.23	78.6871	5,657.23	78.6653	5,657.23	79.1897	5,657.23	79.1991	5,657.23	76.641	5,657.23	76.3089	5,657.23	72.641	5,657.23	71.9683	5,657.23	71.3833	5,657.23	53.8778	5,657.23	69.0157	5,657.23	69.041	5,657.23	71.8415	5,657.23	63.3118	5,657.23	68.6554	5,657.23	66.7935	5,657.23	71.9052	5,657.23	58.7103	5,657.23	72.3319	5,657.23	68.6537	5,657.23	71.4274	5,657.23	55.7937	5,657.23	65.3251
5,856.45	87.4906	5,856.45	85.4169	5,856.45	86.6494	5,856.45	85.7467	5,856.45	86.3465	5,856.45	83.9902	5,856.45	85.6175	5,856.45	85.3015	5,856.45	87.0071	5,856.45	81.2041	5,856.45	76.4596	5,856.45	81.017	5,856.45	78.8687	5,856.45	80.6422	5,856.45	80.5261	5,856.45	76.9861	5,856.45	78.8333	5,856.45	72.7176	5,856.45	73.2789	5,856.45	70.4413	5,856.45	67.4637	5,856.45	68.437	5,856.45	61.2521	5,856.45	67.8327	5,856.45	64.319	5,856.45	71.228	5,856.45	61.0289	5,856.45	65.1836	5,856.45	66.1288	5,856.45	70.8683	5,856.45	44.8939	5,856.45	70.9019	5,856.45	71.0077	5,856.45	69.4215	5,856.45	56.9868	5,856.45	63.9623
6,062.99	87.165	6,062.99	85.2911	6,062.99	86.7646	6,062.99	84.1862	6,062.99	84.2293	6,062.99	86.0219	6,062.99	87.4708	6,062.99	83.9806	6,062.99	86.3131	6,062.99	81.5278	6,062.99	75.7537	6,062.99	81.3829	6,062.99	80.8038	6,062.99	77.777	6,062.99	82.2806	6,062.99	75.6464	6,062.99	76.922	6,062.99	69.6753	6,062.99	72.9108	6,062.99	67.0136	6,062.99	62.4268	6,062.99	64.255	6,062.99	60.9262	6,062.99	63.3287	6,062.99	62.4397	6,062.99	67.5718	6,062.99	66.7664	6,062.99	66.2687	6,062.99	64.9332	6,062.99	67.6357	6,062.99	47.3698	6,062.99	68.9406	6,062.99	67.2337	6,062.99	67.6496	6,062.99	57.4977	6,062.99	63.1993
6,276.86	85.9195	6,276.86	85.9313	6,276.86	86.1488	6,276.86	84.4257	6,276.86	83.0857	6,276.86	86.9401	6,276.86	86.7152	6,276.86	82.669	6,276.86	83.9085	6,276.86	82.3893	6,276.86	77.3769	6,276.86	79.1478	6,276.86	81.6215	6,276.86	73.3466	6,276.86	81.3964	6,276.86	71.7744	6,276.86	74.9204	6,276.86	70.8729	6,276.86	73.543	6,276.86	68.9741	6,276.86	67.2446	6,276.86	67.5327	6,276.86	57.8747	6,276.86	65.755	6,276.86	48.8788	6,276.86	66.861	6,276.86	65.1175	6,276.86	66.8123	6,276.86	61.7225	6,276.86	67.8485	6,276.86	51.114	6,276.86	69.175	6,276.86	65.1422	6,276.86	69.3059	6,276.86	56.2372	6,276.86	67.1862
6,498.05	86.3084	6,498.05	86.4554	6,498.05	86.9971	6,498.05	85.2552	6,498.05	83.5496	6,498.05	86.4575	6,498.05	85.8178	6,498.05	83.0616	6,498.05	79.6298	6,498.05	82.527	6,498.05	80.5572	6,498.05	76.7207	6,498.05	80.5803	6,498.05	77.2968	6,498.05	80.7998	6,498.05	76.2393	6,498.05	71.9401	6,498.05	72.4152	6,498.05	70.1357	6,498.05	70.9302	6,498.05	66.6357	6,498.05	69.196	6,498.05	59.9806	6,498.05	67.7786	6,498.05	58.3794	6,498.05	67.975	6,498.05	63.9267	6,498.05	68.0983	6,498.05	53.4706	6,498.05	70.2637	6,498.05	52.3224	6,498.05	70.8132	6,498.05	65.5063	6,498.05	69.8419	6,498.05	51.4663	6,498.05	67.7581
6,726.56	85.8803	6,726.56	85.5279	6,726.56	87.8201	6,726.56	85.8497	6,726.56	85.6536	6,726.56	85.3229	6,726.56	83.7246	6,726.56	84.3846	6,726.56	80.5561	6,726.56	81.351	6,726.56	80.8801	6,726.56	79.8236	6,726.56	79.0453	6,726.56	79.1694	6,726.56	78.7876	6,726.56	77.4585	6,726.56	75.4703	6,726.56	73.0143	6,726.56	69.3907	6,726.56	69.5062	6,726.56	64.2034	6,726.56	67.6987	6,726.56	62.5531	6,726.56	67.164	6,726.56	58.0035	6,726.56	67.0961	6,726.56	61.0126	6,726.56	67.1377	6,726.56	63.5579	6,726.56	70.4932	6,726.56	53.3548	6,726.56	68.9995	6,726.56	66.341	6,726.56	68.4846	6,726.56	39.7469	6,726.56	67.878
6,963.87	86.3372	6,963.87	85.0787	6,963.87	85.1927	6,963.87	85.9937	6,963.87	85.5271	6,963.87	84.3828	6,963.87	82.0792	6,963.87	84.5443	6,963.87	83.8696	6,963.87	79.4063	6,963.87	82.0114	6,963.87	80.817	6,963.87	77.944	6,963.87	77.5313	6,963.87	77.9357	6,963.87	72.635	6,963.87	77.2892	6,963.87	68.6857	6,963.87	69.0238	6,963.87	66.5926	6,963.87	64.6319	6,963.87	65.3508	6,963.87	61.0463	6,963.87	64.2678	6,963.87	55.2347	6,963.87	63.4534	6,963.87	59.5172	6,963.87	64.5933	6,963.87	63.9785	6,963.87	67.8098	6,963.87	58.4884	6,963.87	66.9081	6,963.87	61.2721	6,963.87	67.1657	6,963.87	50.2458	6,963.87	68.424
7,209.96	86.9149	7,209.96	84.8474	7,209.96	85.0964	7,209.96	86.7791	7,209.96	84.4635	7,209.96	85.4909	7,209.96	84.7371	7,209.96	82.4141	7,209.96	85.2477	7,209.96	81.3693	7,209.96	83.4734	7,209.96	79.0382	7,209.96	74.5938	7,209.96	74.1953	7,209.96	78.803	7,209.96	72.1334	7,209.96	76.9816	7,209.96	70.2427	7,209.96	67.7835	7,209.96	69.5811	7,209.96	56.959	7,209.96	67.0604	7,209.96	63.9894	7,209.96	66.341	7,209.96	55.0025	7,209.96	67.0459	7,209.96	59.0643	7,209.96	66.7444	7,209.96	63.8443	7,209.96	66.5671	7,209.96	56.1024	7,209.96	67.1499	7,209.96	60.4228	7,209.96	68.2393	7,209.96	58.8067	7,209.96	67.4949
7,464.84	85.2318	7,464.84	85.3646	7,464.84	86.5286	7,464.84	86.102	7,464.84	86.1671	7,464.84	84.7208	7,464.84	86.3125	7,464.84	81.6558	7,464.84	86.3547	7,464.84	82.7824	7,464.84	82.3914	7,464.84	77.1144	7,464.84	74.7496	7,464.84	78.7477	7,464.84	77.8399	7,464.84	77.0735	7,464.84	75.1665	7,464.84	73.0585	7,464.84	60.6351	7,464.84	70.842	7,464.84	61.3363	7,464.84	68.4559	7,464.84	63.6705	7,464.84	67.4313	7,464.84	58.2857	7,464.84	67.3778	7,464.84	57.855	7,464.84	67.0714	7,464.84	54.1616	7,464.84	66.0644	7,464.84	60.1485	7,464.84	68.2712	7,464.84	63.9786	7,464.84	67.9441	7,464.84	61.871	7,464.84	66.757
7,727.05	85.0028	7,727.05	86.2037	7,727.05	86.0123	7,727.05	84.8179	7,727.05	86.4196	7,727.05	83.8313	7,727.05	86.9828	7,727.05	82.8723	7,727.05	86.5477	7,727.05	81.3872	7,727.05	82.4511	7,727.05	79.5522	7,727.05	75.9453	7,727.05	79.5082	7,727.05	76.5808	7,727.05	75.0569	7,727.05	71.5132	7,727.05	69.0583	7,727.05	69.6595	7,727.05	66.8994	7,727.05	67.3204	7,727.05	61.723	7,727.05	61.9903	7,727.05	62.8194	7,727.05	64.6739	7,727.05	63.8808	7,727.05	60.2691	7,727.05	64.5458	7,727.05	48.25	7,727.05	62.154	7,727.05	57.6854	7,727.05	67.5601	7,727.05	60.6387	7,727.05	65.9024	7,727.05	61.3037	7,727.05	65.8343
7,999.51	83.9648	7,999.51	84.7602	7,999.51	85.4075	7,999.51	83.219	7,999.51	85.9513	7,999.51	83.1753	7,999.51	85.3673	7,999.51	82.956	7,999.51	85.9806	7,999.51	78.56	7,999.51	82.4627	7,999.51	80.4965	7,999.51	77.6558	7,999.51	74.1518	7,999.51	74.7047	7,999.51	67.6786	7,999.51	66.1606	7,999.51	67.6394	7,999.51	72.8595	7,999.51	66.5659	7,999.51	66.4688	7,999.51	63.4344	7,999.51	66.3406	7,999.51	62.3598	7,999.51	62.6938	7,999.51	63.4547	7,999.51	57.423	7,999.51	64.1764	7,999.51	55.9985	7,999.51	58.4568	7,999.51	59.2099	7,999.51	64.5079	7,999.51	59.7727	7,999.51	63.1319	7,999.51	59.9862	7,999.51	62.692
8,282.23	85.113	8,282.23	83.7194	8,282.23	85.6816	8,282.23	83.2816	8,282.23	84.2	8,282.23	83.5896	8,282.23	83.1536	8,282.23	80.6552	8,282.23	83.6145	8,282.23	82.0891	8,282.23	83.7057	8,282.23	77.7037	8,282.23	77.2635	8,282.23	75.667	8,282.23	69.3469	8,282.23	73.6285	8,282.23	70.5098	8,282.23	73.1084	8,282.23	73.0746	8,282.23	68.924	8,282.23	65.0472	8,282.23	67.2339	8,282.23	63.6691	8,282.23	64.8427	8,282.23	61.0251	8,282.23	65.4613	8,282.23	60.8202	8,282.23	66.8885	8,282.23	56.7875	8,282.23	63.6388	8,282.23	60.0304	8,282.23	65.4725	8,282.23	58.0191	8,282.23	64.6017	8,282.23	61.374	8,282.23	64.8618
8,573.73	84.0458	8,573.73	83.7972	8,573.73	84.6969	8,573.73	81.5272	8,573.73	83.4695	8,573.73	82.58	8,573.73	81.972	8,573.73	81.5055	8,573.73	81.8808	8,573.73	82.1411	8,573.73	85.0845	8,573.73	75.769	8,573.73	73.253	8,573.73	78.7158	8,573.73	77.2622	8,573.73	73.5515	8,573.73	73.4364	8,573.73	69.5645	8,573.73	69.5675	8,573.73	64.7611	8,573.73	65.9928	8,573.73	63.3008	8,573.73	60.8227	8,573.73	62.4263	8,573.73	54.257	8,573.73	60.4146	8,573.73	54.632	8,573.73	63.162	8,573.73	61.2268	8,573.73	61.5312	8,573.73	58.4346	8,573.73	63.8353	8,573.73	58.9883	8,573.73	60.1344	8,573.73	57.9781	8,573.73	59.646
8,876.95	85.0215	8,876.95	84.3213	8,876.95	85.6701	8,876.95	82.4878	8,876.95	84.6545	8,876.95	82.5184	8,876.95	83.9948	8,876.95	82.7124	8,876.95	80.5124	8,876.95	77.135	8,876.95	84.3956	8,876.95	78.0189	8,876.95	73.3098	8,876.95	73.4925	8,876.95	79.0032	8,876.95	65.2986	8,876.95	76.1161	8,876.95	65.8003	8,876.95	66.2761	8,876.95	64.6126	8,876.95	63.7297	8,876.95	61.7977	8,876.95	58.3804	8,876.95	60.3181	8,876.95	52.2756	8,876.95	60.9274	8,876.95	46.7852	8,876.95	63.0881	8,876.95	64.8148	8,876.95	55.7741	8,876.95	56.0239	8,876.95	60.0055	8,876.95	58.2327	8,876.95	55.0195	8,876.95	60.5871	8,876.95	59.9028
9,188.96	84.9201	9,188.96	84.8445	9,188.96	86.5542	9,188.96	82.9538	9,188.96	83.8095	9,188.96	83.4096	9,188.96	85.9215	9,188.96	80.6363	9,188.96	79.7159	9,188.96	79.7647	9,188.96	82.8226	9,188.96	77.292	9,188.96	76.5668	9,188.96	74.6359	9,188.96	80.1629	9,188.96	74.1885	9,188.96	76.489	9,188.96	71.4249	9,188.96	72.4389	9,188.96	68.0447	9,188.96	51.078	9,188.96	65.4706	9,188.96	50.7439	9,188.96	62.3918	9,188.96	53.5516	9,188.96	63.0959	9,188.96	55.5152	9,188.96	65.8396	9,188.96	64.1335	9,188.96	60.5566	9,188.96	50.1673	9,188.96	62.0515	9,188.96	55.3529	9,188.96	59.9302	9,188.96	58.4476	9,188.96	60.5297
9,514.16	86.8785	9,514.16	87.1622	9,514.16	87.5886	9,514.16	84.5008	9,514.16	85.0258	9,514.16	83.4196	9,514.16	85.6858	9,514.16	80.3356	9,514.16	82.0263	9,514.16	80.8114	9,514.16	79.5703	9,514.16	75.8424	9,514.16	79.9914	9,514.16	77.386	9,514.16	77.0083	9,514.16	71.6306	9,514.16	72.1167	9,514.16	66.3997	9,514.16	69.8579	9,514.16	59.9047	9,514.16	59.9946	9,514.16	57.1706	9,514.16	54.1332	9,514.16	58.4026	9,514.16	54.8732	9,514.16	57.0237	9,514.16	58.1762	9,514.16	58.4737	9,514.16	59.9396	9,514.16	54.9623	9,514.16	50.0418	9,514.16	58.7999	9,514.16	54.8233	9,514.16	55.9405	9,514.16	55.961	9,514.16	57.6682
9,849.61	87.8123	9,849.61	88.359	9,849.61	88.7232	9,849.61	85.6262	9,849.61	86.695	9,849.61	83.9108	9,849.61	84.0652	9,849.61	81.7529	9,849.61	82.79	9,849.61	78.7013	9,849.61	75.9373	9,849.61	75.8315	9,849.61	79.9774	9,849.61	70.4592	9,849.61	71.1287	9,849.61	61.2045	9,849.61	69.7644	9,849.61	64.4161	9,849.61	64.6079	9,849.61	60.2018	9,849.61	55.9705	9,849.61	57.7565	9,849.61	51.4956	9,849.61	54.9937	9,849.61	53.539	9,849.61	57.2201	9,849.61	54.9431	9,849.61	56.0381	9,849.61	57.3002	9,849.61	56.2701	9,849.61	40.6264	9,849.61	57.4848	9,849.61	48.7935	9,849.61	52.6034	9,849.61	54.7543	9,849.61	54.8634
10,196.8	88.5817	10,196.8	89.0076	10,196.8	88.7089	10,196.8	86.0616	10,196.8	86.8891	10,196.8	84.2156	10,196.8	83.7114	10,196.8	81.1354	10,196.8	82.2039	10,196.8	78.7152	10,196.8	76.8308	10,196.8	73.4799	10,196.8	77.6163	10,196.8	70.9409	10,196.8	64.5012	10,196.8	66.9682	10,196.8	64.3015	10,196.8	64.2203	10,196.8	50.283	10,196.8	58.6089	10,196.8	58.4854	10,196.8	58.4272	10,196.8	54.959	10,196.8	54.5921	10,196.8	52.6241	10,196.8	55.6628	10,196.8	53.4283	10,196.8	56.6793	10,196.8	49.0696	10,196.8	57.356	10,196.8	45.3965	10,196.8	55.4818	10,196.8	45.7421	10,196.8	45.1846	10,196.8	53.3421	10,196.8	53.6765
10,555.7	88.813	10,555.7	89.027	10,555.7	88.7788	10,555.7	86.1489	10,555.7	87.1763	10,555.7	84.6	10,555.7	83.7585	10,555.7	81.039	10,555.7	80.5664	10,555.7	77.8795	10,555.7	77.6065	10,555.7	72.4815	10,555.7	73.5063	10,555.7	70.7683	10,555.7	67.4315	10,555.7	58.9044	10,555.7	59.6709	10,555.7	60.2834	10,555.7	54.7949	10,555.7	56.8778	10,555.7	52.1726	10,555.7	55.9602	10,555.7	55.848	10,555.7	52.3352	10,555.7	52.2449	10,555.7	56.3935	10,555.7	51.8337	10,555.7	56.8497	10,555.7	40.6481	10,555.7	57.3311	10,555.7	36.7039	10,555.7	54.4316	10,555.7	45.7403	10,555.7	46.2572	10,555.7	48.0133	10,555.7	49.778
10,927.7	89.1774	10,927.7	88.9089	10,927.7	88.641	10,927.7	86.3135	10,927.7	86.979	10,927.7	84.6386	10,927.7	85	10,927.7	80.7254	10,927.7	79.8882	10,927.7	76.4	10,927.7	77.8683	10,927.7	72.6473	10,927.7	70.5439	10,927.7	68.499	10,927.7	66.9134	10,927.7	62.7534	10,927.7	56.6829	10,927.7	61.3569	10,927.7	50.0119	10,927.7	59.2887	10,927.7	52.1143	10,927.7	56.4787	10,927.7	53.4669	10,927.7	55.6738	10,927.7	48.578	10,927.7	58.5203	10,927.7	51.0146	10,927.7	59.1293	10,927.7	44.5538	10,927.7	57.7938	10,927.7	40.6742	10,927.7	56.5608	10,927.7	46.6166	10,927.7	51.8178	10,927.7	48.1406	10,927.7	46.7654
11,313	89.3058	11,313	88.9306	11,313	88.7801	11,313	86.3725	11,313	87.0095	11,313	84.143	11,313	85.3678	11,313	80.007	11,313	79.548	11,313	76.3349	11,313	77.3306	11,313	72.3491	11,313	69.6922	11,313	69.6687	11,313	62.4188	11,313	64.3614	11,313	64.076	11,313	60.4251	11,313	58.7727	11,313	58.8947	11,313	50.4603	11,313	54.1187	11,313	47.4596	11,313	54.3018	11,313	49.5777	11,313	56.8641	11,313	45.5229	11,313	58.8035	11,313	46.2821	11,313	58.4012	11,313	46.9904	11,313	57.771	11,313	47.2537	11,313	52.3723	11,313	50.1307	11,313	45.4691
11,712.9	89.1382	11,712.9	88.7752	11,712.9	88.7494	11,712.9	86.1475	11,712.9	86.5486	11,712.9	83.8605	11,712.9	85.1045	11,712.9	79.4827	11,712.9	79.3737	11,712.9	76.6376	11,712.9	75.472	11,712.9	72.0458	11,712.9	72.0947	11,712.9	69.3531	11,712.9	51.2805	11,712.9	59.3425	11,712.9	62.6116	11,712.9	59.6046	11,712.9	54.1585	11,712.9	58.1439	11,712.9	56.2958	11,712.9	53.8063	11,712.9	48.2963	11,712.9	53.8175	11,712.9	44.2588	11,712.9	54.7472	11,712.9	50.5411	11,712.9	58.3678	11,712.9	47.4417	11,712.9	58.841	11,712.9	44.5559	11,712.9	58.0805	11,712.9	52.3351	11,712.9	52.4656	11,712.9	51.9344	11,712.9	45.3976
12,126	88.9558	12,126	88.8702	12,126	88.4674	12,126	85.8376	12,126	86.6925	12,126	83.5421	12,126	83.7438	12,126	78.9817	12,126	79.6776	12,126	76.8288	12,126	73.1597	12,126	72.2071	12,126	70.4793	12,126	66.5652	12,126	61.8896	12,126	64.8149	12,126	63.0344	12,126	59.4186	12,126	56.2121	12,126	57.114	12,126	60.834	12,126	51.6752	12,126	54.5285	12,126	52.4337	12,126	49.3698	12,126	52.7781	12,126	52.1794	12,126	57.4225	12,126	50.552	12,126	58.7624	12,126	48.3378	12,126	58.0011	12,126	53.9676	12,126	52.3789	12,126	54.0049	12,126	44.6992
12,553.7	88.9459	12,553.7	88.8427	12,553.7	88.241	12,553.7	85.6908	12,553.7	86.5322	12,553.7	82.6906	12,553.7	83.2908	12,553.7	79.6087	12,553.7	79.626	12,553.7	76.1252	12,553.7	71.5416	12,553.7	70.1768	12,553.7	67.8701	12,553.7	65.8489	12,553.7	65.8652	12,553.7	55.3437	12,553.7	60.5629	12,553.7	56.3544	12,553.7	58.0623	12,553.7	58.1067	12,553.7	62.7782	12,553.7	47.1302	12,553.7	58.315	12,553.7	49.9614	12,553.7	52.5762	12,553.7	51.4738	12,553.7	49.8633	12,553.7	56.2546	12,553.7	40.5624	12,553.7	58.4455	12,553.7	40.3201	12,553.7	57.0823	12,553.7	49.6299	12,553.7	53.6675	12,553.7	52.3005	12,553.7	39.7273
12,996.1	88.8017	12,996.1	88.84	12,996.1	88.0756	12,996.1	84.5876	12,996.1	86.3851	12,996.1	82.5825	12,996.1	84.5998	12,996.1	79.1139	12,996.1	80.1586	12,996.1	74.6257	12,996.1	73.7999	12,996.1	69.7541	12,996.1	70.474	12,996.1	64.6245	12,996.1	68.1935	12,996.1	65.9924	12,996.1	58.3488	12,996.1	59.5389	12,996.1	52.8891	12,996.1	57.7063	12,996.1	63.1623	12,996.1	49.957	12,996.1	59.6189	12,996.1	53.1522	12,996.1	46.845	12,996.1	52.8568	12,996.1	49.8739	12,996.1	57.4074	12,996.1	43.7168	12,996.1	60.1161	12,996.1	46.0608	12,996.1	57.8762	12,996.1	55.6344	12,996.1	55.4056	12,996.1	55.1295	12,996.1	47.4214
13,454.6	88.5149	13,454.6	88.3413	13,454.6	87.7698	13,454.6	84.0992	13,454.6	85.6041	13,454.6	82.2177	13,454.6	84.7377	13,454.6	78.7609	13,454.6	78.6738	13,454.6	73.3239	13,454.6	75.1074	13,454.6	70.465	13,454.6	71.537	13,454.6	66.06	13,454.6	66.5248	13,454.6	58.6788	13,454.6	56.5812	13,454.6	57.9539	13,454.6	45.0041	13,454.6	57.8696	13,454.6	64.2076	13,454.6	51.452	13,454.6	57.3325	13,454.6	52.0374	13,454.6	51.8546	13,454.6	52.7279	13,454.6	43.1365	13,454.6	57.2648	13,454.6	41.0422	13,454.6	59.3437	13,454.6	48.7786	13,454.6	58.5771	13,454.6	53.2232	13,454.6	55.7359	13,454.6	54.9065	13,454.6	45.9679
13,929.2	88.4599	13,929.2	88.2312	13,929.2	87.5536	13,929.2	83.973	13,929.2	85.1712	13,929.2	82.1397	13,929.2	83.1906	13,929.2	77.8473	13,929.2	76.5603	13,929.2	73.9929	13,929.2	75.0273	13,929.2	71.0311	13,929.2	68.9238	13,929.2	66.474	13,929.2	62.8975	13,929.2	66.455	13,929.2	58.8525	13,929.2	59.3955	13,929.2	51.1045	13,929.2	58.012	13,929.2	61.0784	13,929.2	50.8935	13,929.2	54.8622	13,929.2	53.2747	13,929.2	49.8605	13,929.2	53.6434	13,929.2	44.8636	13,929.2	58.1264	13,929.2	48.4371	13,929.2	59.6622	13,929.2	44.3184	13,929.2	59.1269	13,929.2	49.7984	13,929.2	56.5429	13,929.2	56.6653	13,929.2	43.862
14,419.9	88.6008	14,419.9	87.9065	14,419.9	87.1968	14,419.9	84.0216	14,419.9	85.3887	14,419.9	81.7588	14,419.9	82.1052	14,419.9	77.6203	14,419.9	76.6536	14,419.9	73.5227	14,419.9	73.2719	14,419.9	70.9156	14,419.9	68.9961	14,419.9	65.6739	14,419.9	63.9671	14,419.9	62.1795	14,419.9	58.0633	14,419.9	58.7489	14,419.9	45.9257	14,419.9	57.7506	14,419.9	61.2611	14,419.9	46.3325	14,419.9	56.3235	14,419.9	51.2646	14,419.9	45.6968	14,419.9	55.376	14,419.9	46.6082	14,419.9	57.2674	14,419.9	52.3038	14,419.9	58.9218	14,419.9	46.2535	14,419.9	57.4629	14,419.9	50.3594	14,419.9	53.3769	14,419.9	55.1744	14,419.9	47.0829
14,928.2	88.8563	14,928.2	88.1471	14,928.2	87.7527	14,928.2	84.5389	14,928.2	85.0589	14,928.2	81.5622	14,928.2	82.4975	14,928.2	77.2701	14,928.2	77.5806	14,928.2	73.012	14,928.2	71.7195	14,928.2	71.304	14,928.2	66.9187	14,928.2	66.0456	14,928.2	62.2914	14,928.2	64.1371	14,928.2	48.5272	14,928.2	55.4936	14,928.2	45.3541	14,928.2	55.4075	14,928.2	59.4555	14,928.2	37.8659	14,928.2	54.479	14,928.2	46.4524	14,928.2	43.5874	14,928.2	53.5172	14,928.2	37.5342	14,928.2	56.2708	14,928.2	52.0827	14,928.2	56.9476	14,928.2	51.2531	14,928.2	57.0811	14,928.2	51.7558	14,928.2	54.8005	14,928.2	54.3564	14,928.2	50.1287
15,455.6	88.98	15,455.6	88.6406	15,455.6	88.3347	15,455.6	84.7251	15,455.6	85.7269	15,455.6	81.8143	15,455.6	82.2205	15,455.6	76.5625	15,455.6	76.873	15,455.6	72.5918	15,455.6	71.3192	15,455.6	69.2379	15,455.6	62.0693	15,455.6	61.634	15,455.6	61.2598	15,455.6	57.3544	15,455.6	54.5548	15,455.6	51.8147	15,455.6	45.3888	15,455.6	52.3189	15,455.6	59.6769	15,455.6	42.1951	15,455.6	54.2759	15,455.6	45.0754	15,455.6	36.5219	15,455.6	50.8741	15,455.6	47.5355	15,455.6	53.2844	15,455.6	47.8639	15,455.6	54.7767	15,455.6	48.0635	15,455.6	55.0625	15,455.6	48.1759	15,455.6	51.7816	15,455.6	54.0452	15,455.6	48.82
16,000.5	89.0984	16,000.5	88.5979	16,000.5	88.4102	16,000.5	84.6728	16,000.5	85.4034	16,000.5	81.2075	16,000.5	81.2139	16,000.5	75.275	16,000.5	74.9727	16,000.5	70.8625	16,000.5	69.0064	16,000.5	65.0695	16,000.5	60.9479	16,000.5	54.8889	16,000.5	59.9747	16,000.5	56.0277	16,000.5	51.456	16,000.5	47.1954	16,000.5	44.3331	16,000.5	45.8602	16,000.5	60.3966	16,000.5	47.3293	16,000.5	55.3087	16,000.5	40.262	16,000.5	44.4975	16,000.5	46.1694	16,000.5	46.0941	16,000.5	50.1188	16,000.5	43.9087	16,000.5	50.7261	16,000.5	48.924	16,000.5	50.8313	16,000.5	48.4789	16,000.5	51.1993	16,000.5	52.3116	16,000.5	45.3559
16,564.5	88.7292	16,564.5	88.1407	16,564.5	87.9785	16,564.5	83.96	16,564.5	84.9053	16,564.5	80.3941	16,564.5	80.8678	16,564.5	73.789	16,564.5	73.6173	16,564.5	68.9442	16,564.5	63.3502	16,564.5	64.0663	16,564.5	61.3483	16,564.5	56.2741	16,564.5	60.314	16,564.5	57.3547	16,564.5	44.3908	16,564.5	55.0741	16,564.5	49.0004	16,564.5	47.3728	16,564.5	61.5105	16,564.5	47.0487	16,564.5	55.8847	16,564.5	42.6288	16,564.5	44.365	16,564.5	48.1583	16,564.5	42.5015	16,564.5	50.6752	16,564.5	48.1278	16,564.5	50.5391	16,564.5	38.131	16,564.5	50.8179	16,564.5	49.314	16,564.5	52.8024	16,564.5	51.689	16,564.5	42.1007
17,148.9	88.0751	17,148.9	87.3778	17,148.9	87.072	17,148.9	83.1528	17,148.9	83.4635	17,148.9	78.9025	17,148.9	79.2001	17,148.9	72.6904	17,148.9	71.948	17,148.9	65.1454	17,148.9	58.9225	17,148.9	63.5565	17,148.9	59.2101	17,148.9	55.136	17,148.9	60.4785	17,148.9	48.1699	17,148.9	53.6441	17,148.9	50.9435	17,148.9	50.5626	17,148.9	41.4128	17,148.9	60.2883	17,148.9	39.4515	17,148.9	52.2691	17,148.9	39.8391	17,148.9	40.0365	17,148.9	50.6551	17,148.9	39.7215	17,148.9	49.0585	17,148.9	44.5851	17,148.9	48.267	17,148.9	35.6964	17,148.9	48.5266	17,148.9	44.3486	17,148.9	50.4829	17,148.9	49.2781	17,148.9	39.5194
17,752.4	87.0679	17,752.4	86.3378	17,752.4	86.0207	17,752.4	81.7516	17,752.4	82.2415	17,752.4	77.1047	17,752.4	76.8319	17,752.4	69.9875	17,752.4	68.0381	17,752.4	58.7676	17,752.4	61.2978	17,752.4	56.8369	17,752.4	62.9714	17,752.4	52.8935	17,752.4	57.9434	17,752.4	49.4773	17,752.4	54.7527	17,752.4	45.79	17,752.4	51.9463	17,752.4	26.5045	17,752.4	60.9104	17,752.4	40.9889	17,752.4	50.7673	17,752.4	39.4931	17,752.4	7.71463	17,752.4	52.7599	17,752.4	34.5326	17,752.4	43.3134	17,752.4	41.8836	17,752.4	49.82	17,752.4	45.0008	17,752.4	48.8414	17,752.4	44.0672	17,752.4	47.9463	17,752.4	44.3909	17,752.4	42.3125
18,379.4	86.0481	18,379.4	85.5152	18,379.4	85.2609	18,379.4	80.2761	18,379.4	80.5219	18,379.4	74.3209	18,379.4	74.1556	18,379.4	66.3641	18,379.4	60.3729	18,379.4	58.6986	18,379.4	64.7516	18,379.4	61.3008	18,379.4	63.0902	18,379.4	57.7537	18,379.4	61.3176	18,379.4	55.5241	18,379.4	52.1988	18,379.4	51.2985	18,379.4	48.2935	18,379.4	39.103	18,379.4	63.8881	18,379.4	45.9658	18,379.4	55.171	18,379.4	42.4456	18,379.4	35.7396	18,379.4	50.7513	18,379.4	32.0409	18,379.4	44.118	18,379.4	41.6816	18,379.4	49.8525	18,379.4	45.6398	18,379.4	49.3323	18,379.4	41.2863	18,379.4	45.5673	18,379.4	46.9736	18,379.4	43.982
19,026.9	85.5008	19,026.9	85.0497	19,026.9	84.8324	19,026.9	78.7685	19,026.9	79.4083	19,026.9	71.7638	19,026.9	70.6163	19,026.9	64.1002	19,026.9	56.3189	19,026.9	60.7027	19,026.9	65.3136	19,026.9	63.3	19,026.9	65.821	19,026.9	55.3852	19,026.9	57.4685	19,026.9	52.4052	19,026.9	52.1963	19,026.9	51.5867	19,026.9	52.7991	19,026.9	44.0585	19,026.9	63.8321	19,026.9	46.5352	19,026.9	54.8364	19,026.9	39.4489	19,026.9	39.7312	19,026.9	45.3638	19,026.9	19.381	19,026.9	45.6521	19,026.9	37.8066	19,026.9	47.5915	19,026.9	42.0943	19,026.9	47.6014	19,026.9	35.9846	19,026.9	46.1962	19,026.9	46.9435	19,026.9	42.7619
19,697.8	85.1256	19,697.8	84.436	19,697.8	84.1657	19,697.8	77.3852	19,697.8	77.9281	19,697.8	69.8885	19,697.8	65.9194	19,697.8	61.7862	19,697.8	64.211	19,697.8	61.3209	19,697.8	67.0251	19,697.8	62.3314	19,697.8	64.22	19,697.8	55.024	19,697.8	57.6721	19,697.8	52.3536	19,697.8	55.9454	19,697.8	48.9406	19,697.8	51.5951	19,697.8	44.106	19,697.8	64.1218	19,697.8	44.4402	19,697.8	53.0433	19,697.8	32.0523	19,697.8	38.8753	19,697.8	45.6204	19,697.8	28.6175	19,697.8	46.2486	19,697.8	41.2145	19,697.8	47.9145	19,697.8	38.598	19,697.8	46.3556	19,697.8	34.5445	19,697.8	44.9813	19,697.8	43.6408	19,697.8	41.5981
19,999.5	84.8275	19,999.5	84.012	19,999.5	83.8769	19,999.5	76.7694	19,999.5	77.7188	19,999.5	68.1029	19,999.5	61.4674	19,999.5	61.5816	19,999.5	67.1395	19,999.5	61.0533	19,999.5	69.3762	19,999.5	62.1634	19,999.5	62.4525	19,999.5	57.2607	19,999.5	60.5756	19,999.5	56.3005	19,999.5	53.0446	19,999.5	52.7585	19,999.5	53.0726	19,999.5	48.5029	19,999.5	65.1718	19,999.5	41.4012	19,999.5	55.0173	19,999.5	40.5705	19,999.5	43.3475	19,999.5	45.7005	19,999.5	46.3884	19,999.5	49.3491	19,999.5	42.6597	19,999.5	47.5972	19,999.5	49.9276	19,999.5	42.0586	19,999.5	40.7943	19,999.5	48.3647	19,999.5	43.624	19,999.5	42.5506
