"SPL Horizontal"
"On-Axis"		"10°"		"-10°"		"20°"		"-20°"		"30°"		"-30°"		"40°"		"-40°"		"50°"		"-50°"		"60°"		"-60°"		"70°"		"-70°"		"80°"		"-80°"		"90°"		"-90°"		"100°"		"-100°"		"110°"		"-110°"		"120°"		"-120°"		"130°"		"-130°"		"140°"		"-140°"		"150°"		"-150°"		"160°"		"-160°"		"170°"		"-170°"		"180°"
"Frequency [Hz]"	"Sound Pessure Level [dB]  / [2.83V 1m] "	"Frequency [Hz]"	"Sound Pessure Level [dB]  / [2.83V 1m] "	"Frequency [Hz]"	"Sound Pessure Level [dB]  / [2.83V 1m] "	"Frequency [Hz]"	"Sound Pessure Level [dB]  / [2.83V 1m] "	"Frequency [Hz]"	"Sound Pessure Level [dB]  / [2.83V 1m] "	"Frequency [Hz]"	"Sound Pessure Level [dB]  / [2.83V 1m] "	"Frequency [Hz]"	"Sound Pessure Level [dB]  / [2.83V 1m] "	"Frequency [Hz]"	"Sound Pessure Level [dB]  / [2.83V 1m] "	"Frequency [Hz]"	"Sound Pessure Level [dB]  / [2.83V 1m] "	"Frequency [Hz]"	"Sound Pessure Level [dB]  / [2.83V 1m] "	"Frequency [Hz]"	"Sound Pessure Level [dB]  / [2.83V 1m] "	"Frequency [Hz]"	"Sound Pessure Level [dB]  / [2.83V 1m] "	"Frequency [Hz]"	"Sound Pessure Level [dB]  / [2.83V 1m] "	"Frequency [Hz]"	"Sound Pessure Level [dB]  / [2.83V 1m] "	"Frequency [Hz]"	"Sound Pessure Level [dB]  / [2.83V 1m] "	"Frequency [Hz]"	"Sound Pessure Level [dB]  / [2.83V 1m] "	"Frequency [Hz]"	"Sound Pessure Level [dB]  / [2.83V 1m] "	"Frequency [Hz]"	"Sound Pessure Level [dB]  / [2.83V 1m] "	"Frequency [Hz]"	"Sound Pessure Level [dB]  / [2.83V 1m] "	"Frequency [Hz]"	"Sound Pessure Level [dB]  / [2.83V 1m] "	"Frequency [Hz]"	"Sound Pessure Level [dB]  / [2.83V 1m] "	"Frequency [Hz]"	"Sound Pessure Level [dB]  / [2.83V 1m] "	"Frequency [Hz]"	"Sound Pessure Level [dB]  / [2.83V 1m] "	"Frequency [Hz]"	"Sound Pessure Level [dB]  / [2.83V 1m] "	"Frequency [Hz]"	"Sound Pessure Level [dB]  / [2.83V 1m] "	"Frequency [Hz]"	"Sound Pessure Level [dB]  / [2.83V 1m] "	"Frequency [Hz]"	"Sound Pessure Level [dB]  / [2.83V 1m] "	"Frequency [Hz]"	"Sound Pessure Level [dB]  / [2.83V 1m] "	"Frequency [Hz]"	"Sound Pessure Level [dB]  / [2.83V 1m] "	"Frequency [Hz]"	"Sound Pessure Level [dB]  / [2.83V 1m] "	"Frequency [Hz]"	"Sound Pessure Level [dB]  / [2.83V 1m] "	"Frequency [Hz]"	"Sound Pessure Level [dB]  / [2.83V 1m] "	"Frequency [Hz]"	"Sound Pessure Level [dB]  / [2.83V 1m] "	"Frequency [Hz]"	"Sound Pessure Level [dB]  / [2.83V 1m] "	"Frequency [Hz]"	"Sound Pessure Level [dB]  / [2.83V 1m] "	"Frequency [Hz]"	"Sound Pessure Level [dB]  / [2.83V 1m] "
20.5078	48.68	20.5078	48.5554	20.5078	48.6051	20.5078	48.241	20.5078	48.3241	20.5078	47.757	20.5078	47.8325	20.5078	47.1503	20.5078	47.1347	20.5078	46.5259	20.5078	46.264	20.5078	46.0793	20.5078	45.3337	20.5078	46.0686	20.5078	44.6197	20.5078	46.6463	20.5078	44.5499	20.5078	47.7086	20.5078	45.3556	20.5078	49.001	20.5078	46.775	20.5078	50.3065	20.5078	48.3815	20.5078	51.5014	20.5078	49.9096	20.5078	52.5274	20.5078	51.2508	20.5078	53.3596	20.5078	52.3711	20.5078	53.9873	20.5078	53.2642	20.5078	54.4056	20.5078	53.9317	20.5078	54.6115	20.5078	54.3769	20.5078	54.6026
21.9727	52.0236	21.9727	51.8737	21.9727	51.9759	21.9727	51.5216	21.9727	51.7301	21.9727	50.958	21.9727	51.2817	21.9727	50.1726	21.9727	50.6271	21.9727	49.1678	21.9727	49.7768	21.9727	47.9998	21.9727	48.7865	21.9727	46.878	21.9727	47.8263	21.9727	46.2833	21.9727	47.2526	21.9727	46.7203	21.9727	47.4677	21.9727	48.0629	21.9727	48.4869	21.9727	49.7354	21.9727	49.9145	21.9727	51.3375	21.9727	51.3761	21.9727	52.7154	21.9727	52.6845	21.9727	53.8306	21.9727	53.772	21.9727	54.682	21.9727	54.6209	21.9727	55.2775	21.9727	55.2293	21.9727	55.6254	21.9727	55.5991	21.9727	55.7314
23.4375	51.899	23.4375	51.7209	23.4375	51.8763	23.4375	51.3405	23.4375	51.6547	23.4375	50.7628	23.4375	51.2384	23.4375	50.0143	23.4375	50.6408	23.4375	49.1817	23.4375	49.9051	23.4375	48.4767	23.4375	49.1448	23.4375	48.2573	23.4375	48.597	23.4375	48.8083	23.4375	48.5907	23.4375	50.0178	23.4375	49.2988	23.4375	51.5133	23.4375	50.5403	23.4375	52.999	23.4375	51.9826	23.4375	54.3312	23.4375	53.3871	23.4375	55.4569	23.4375	54.6387	23.4375	56.3608	23.4375	55.6925	23.4375	57.0412	23.4375	56.5339	23.4375	57.5002	23.4375	57.1595	23.4375	57.74	23.4375	57.5691	23.4375	57.7627
24.9023	54.0565	24.9023	53.9446	24.9023	54.0111	24.9023	53.6836	24.9023	53.8072	24.9023	53.294	24.9023	53.4523	24.9023	52.8203	24.9023	52.9695	24.9023	52.3492	24.9023	52.4135	24.9023	52.026	24.9023	51.8961	24.9023	52.031	24.9023	51.6007	24.9023	52.4818	24.9023	51.7298	24.9023	53.3368	24.9023	52.3647	24.9023	54.429	24.9023	53.3881	24.9023	55.5818	24.9023	54.5881	24.9023	56.6727	24.9023	55.7886	24.9023	57.6327	24.9023	56.8854	24.9023	58.4267	24.9023	57.8259	24.9023	59.0372	24.9023	58.5861	24.9023	59.4557	24.9023	59.155	24.9023	59.6781	24.9023	59.5278	24.9023	59.7023
26.3672	56.2326	26.3672	56.1353	26.3672	56.1836	26.3672	55.8976	26.3672	55.9882	26.3672	55.5352	26.3672	55.6534	26.3672	55.0814	26.3672	55.1982	26.3672	54.6021	26.3672	54.6659	26.3672	54.2097	26.3672	54.1423	26.3672	54.0576	26.3672	53.7705	26.3672	54.2796	26.3672	53.7266	26.3672	54.8971	26.3672	54.1233	26.3672	55.7996	26.3672	54.9177	26.3672	56.8248	26.3672	55.9453	26.3672	57.8376	26.3672	57.0328	26.3672	58.7518	26.3672	58.0594	26.3672	59.5196	26.3672	58.957	26.3672	60.1158	26.3672	59.6905	26.3672	60.5274	26.3672	60.2427	26.3672	60.7478	26.3672	60.6052	26.3672	60.774
27.832	57.8979	27.832	57.8176	27.832	57.8495	27.832	57.6105	27.832	57.6756	27.832	57.2861	27.832	57.3866	27.832	56.8674	27.832	57.005	27.832	56.4031	27.832	56.5752	27.832	55.9826	27.832	56.1758	27.832	55.7405	27.832	55.9238	27.832	55.82	27.832	55.9484	27.832	56.2886	27.832	56.325	27.832	57.0823	27.832	57.0202	27.832	58.0526	27.832	57.9139	27.832	59.053	27.832	58.871	27.832	59.9812	27.832	59.787	27.832	60.777	27.832	60.5955	27.832	61.4081	27.832	61.2576	27.832	61.8581	27.832	61.7511	27.832	62.1187	27.832	62.0632	27.832	62.1869
29.2969	59.2802	29.2969	59.21	29.2969	59.244	29.2969	59.039	29.2969	59.103	29.2969	58.7828	29.2969	58.8672	29.2969	58.4718	29.2969	58.5591	29.2969	58.1598	29.2969	58.2207	29.2969	57.9294	29.2969	57.9216	29.2969	57.8827	29.2969	57.7587	29.2969	58.1053	29.2969	57.8331	29.2969	58.6171	29.2969	58.2024	29.2969	59.356	29.2969	58.8429	29.2969	60.2144	29.2969	59.662	29.2969	61.0873	29.2969	60.5484	29.2969	61.8962	29.2969	61.409	29.2969	62.5904	29.2969	62.1798	29.2969	63.1392	29.2969	62.8208	29.2969	63.5246	29.2969	63.3079	29.2969	63.7369	29.2969	63.6273	29.2969	63.7714
30.7617	59.7565	30.7617	59.6807	30.7617	59.7272	30.7617	59.5036	30.7617	59.5989	30.7617	59.2411	30.7617	59.3886	30.7617	58.9276	30.7617	59.1279	30.7617	58.6248	30.7617	58.8693	30.7617	58.4258	30.7617	58.6887	30.7617	58.4401	30.7617	58.6758	30.7617	58.7476	30.7617	58.9035	30.7617	59.348	30.7617	59.39	30.7617	60.1592	30.7617	60.0867	30.7617	61.0653	30.7617	60.9042	30.7617	61.9642	30.7617	61.7511	30.7617	62.7849	30.7617	62.555	30.7617	63.4836	30.7617	63.2664	30.7617	64.0349	30.7617	63.8533	30.7617	64.4251	30.7617	64.2952	30.7617	64.647	30.7617	64.5795	30.7617	64.6982
32.2266	61.6565	32.2266	61.5967	32.2266	61.648	32.2266	61.4745	32.2266	61.5725	32.2266	61.3052	32.2266	61.4398	32.2266	61.1157	32.2266	61.2694	32.2266	60.947	32.2266	61.0935	32.2266	60.8535	32.2266	60.9585	32.2266	60.8938	32.2266	60.9217	32.2266	61.1123	32.2266	61.0382	32.2266	61.5191	32.2266	61.3396	32.2266	62.0831	32.2266	61.818	32.2266	62.7439	32.2266	62.4273	32.2266	63.4334	32.2266	63.1016	32.2266	64.0914	32.2266	63.7754	32.2266	64.6714	32.2266	64.3947	32.2266	65.1407	32.2266	64.9202	32.2266	65.4774	32.2266	65.3244	32.2266	65.668	32.2266	65.5898	32.2266	65.7058
33.6914	63.3226	33.6914	63.2707	33.6914	63.3155	33.6914	63.1641	33.6914	63.2516	33.6914	63.0141	33.6914	63.1395	33.6914	62.8415	33.6914	62.9957	33.6914	62.6779	33.6914	62.8465	33.6914	62.5665	33.6914	62.7288	33.6914	62.5563	33.6914	62.6877	33.6914	62.6903	33.6914	62.7676	33.6914	62.9885	33.6914	62.9973	33.6914	63.4371	33.6914	63.3772	33.6914	63.9928	33.6914	63.8769	33.6914	64.5969	33.6914	64.4455	33.6914	65.1913	33.6914	65.0271	33.6914	65.7277	33.6914	65.5712	33.6914	66.17	33.6914	66.038	33.6914	66.4933	33.6914	66.3984	33.6914	66.6823	33.6914	66.6328	33.6914	66.7292
35.1562	64.8969	35.1562	64.85	35.1562	64.8781	35.1562	64.7412	35.1562	64.796	35.1562	64.5809	35.1562	64.6592	35.1562	64.3886	35.1562	64.4846	35.1562	64.1952	35.1562	64.2989	35.1562	64.0442	35.1562	64.1406	35.1562	63.9877	35.1562	64.0575	35.1562	64.074	35.1562	64.0976	35.1562	64.33	35.1562	64.2941	35.1562	64.747	35.1562	64.6501	35.1562	65.2826	35.1562	65.1357	35.1562	65.8759	35.1562	65.6983	35.1562	66.4654	35.1562	66.2793	35.1562	67.0001	35.1562	66.8258	35.1562	67.4417	35.1562	67.2963	35.1562	67.7645	35.1562	67.6606	35.1562	67.9524	35.1562	67.8984	35.1562	67.9974
36.6211	65.8754	36.6211	65.8401	36.6211	65.8568	36.6211	65.7539	36.6211	65.788	36.6211	65.6273	36.6211	65.6791	36.6211	65.4794	36.6211	65.5483	36.6211	65.3397	36.6211	65.4226	36.6211	65.2479	36.6211	65.3373	36.6211	65.249	36.6211	65.3325	36.6211	65.3818	36.6211	65.4444	36.6211	65.6649	36.6211	65.6929	36.6211	66.0871	36.6211	66.0734	36.6211	66.6096	36.6211	66.5561	36.6211	67.1795	36.6211	67.0958	36.6211	67.7427	36.6211	67.6428	36.6211	68.2536	36.6211	68.1526	36.6211	68.6774	36.6211	68.5887	36.6211	68.9896	36.6211	68.9243	36.6211	69.175	36.6211	69.1404	36.6211	69.2257
38.0859	66.8397	38.0859	66.8014	38.0859	66.8384	38.0859	66.7262	38.0859	66.8007	38.0859	66.6243	38.0859	66.7366	38.0859	66.514	38.0859	66.663	38.0859	66.4228	38.0859	66.6034	38.0859	66.386	38.0859	66.5874	38.0859	66.4413	38.0859	66.6463	38.0859	66.6192	38.0859	66.8062	38.0859	66.9312	38.0859	67.0793	38.0859	67.3633	38.0859	67.4589	38.0859	67.8797	38.0859	67.9199	38.0859	68.4327	38.0859	68.4247	38.0859	68.9746	38.0859	68.9324	38.0859	69.4641	38.0859	69.4046	38.0859	69.8695	38.0859	69.8089	38.0859	70.1685	38.0859	70.1202	38.0859	70.347	38.0859	70.3204	38.0859	70.3978
39.5508	67.9632	39.5508	67.9266	39.5508	67.9781	39.5508	67.8717	39.5508	67.9731	39.5508	67.8078	39.5508	67.9548	39.5508	67.75	39.5508	67.9345	39.5508	67.7194	39.5508	67.9281	39.5508	67.7413	39.5508	67.955	39.5508	67.8405	39.5508	68.0354	39.5508	68.0348	39.5508	68.1868	39.5508	68.3286	39.5508	68.4189	39.5508	68.7096	39.5508	68.73	39.5508	69.1511	39.5508	69.1057	39.5508	69.6182	39.5508	69.5217	39.5508	70.0741	39.5508	69.9476	39.5508	70.4855	39.5508	70.3518	39.5508	70.8256	39.5508	70.7055	39.5508	71.0739	39.5508	70.9842	39.5508	71.2174	39.5508	71.1696	39.5508	71.2494
41.0156	69.5759	41.0156	69.5131	41.0156	69.6134	41.0156	69.4284	41.0156	69.6258	41.0156	69.3292	41.0156	69.6167	41.0156	69.2281	41.0156	69.5932	41.0156	69.1426	41.0156	69.5659	41.0156	69.0944	41.0156	69.5492	41.0156	69.1073	41.0156	69.56	41.0156	69.2011	41.0156	69.6158	41.0156	69.3864	41.0156	69.7311	41.0156	69.6596	41.0156	69.9133	41.0156	70.0021	41.0156	70.1595	41.0156	70.3847	41.0156	70.4557	41.0156	70.7732	41.0156	70.7784	41.0156	71.1346	41.0156	71.0993	41.0156	71.4403	41.0156	71.3894	41.0156	71.6684	41.0156	71.6225	41.0156	71.8043	41.0156	71.7776	41.0156	71.8407
42.4805	70.6091	42.4805	70.5816	42.4805	70.6103	42.4805	70.5315	42.4805	70.5852	42.4805	70.4664	42.4805	70.5374	42.4805	70.3981	42.4805	70.4748	42.4805	70.3428	42.4805	70.4096	42.4805	70.3195	42.4805	70.3585	42.4805	70.3485	42.4805	70.3414	42.4805	70.4463	42.4805	70.3792	42.4805	70.6219	42.4805	70.4889	42.4805	70.8725	42.4805	70.6783	42.4805	71.1831	42.4805	70.9427	42.4805	71.5288	42.4805	71.2643	42.4805	71.8797	42.4805	71.6157	42.4805	72.2056	42.4805	71.9652	42.4805	72.4793	42.4805	72.282	42.4805	72.6791	42.4805	72.5395	42.4805	72.7897	42.4805	72.7176	42.4805	72.803
43.9453	71.4545	43.9453	71.4358	43.9453	71.4528	43.9453	71.3998	43.9453	71.4314	43.9453	71.3532	43.9453	71.394	43.9453	71.3065	43.9453	71.3484	43.9453	71.2737	43.9453	71.3059	43.9453	71.2714	43.9453	71.2814	43.9453	71.3166	43.9453	71.292	43.9453	71.4235	43.9453	71.3543	43.9453	71.5991	43.9453	71.4811	43.9453	71.8407	43.9453	71.6769	43.9453	72.1351	43.9453	71.9359	43.9453	72.4604	43.9453	72.242	43.9453	72.7901	43.9453	72.571	43.9453	73.0965	43.9453	72.8955	43.9453	73.3545	43.9453	73.1882	43.9453	73.5439	43.9453	73.4255	43.9453	73.6501	43.9453	73.5887	43.9453	73.6654
45.4102	72.3795	45.4102	72.3663	45.4102	72.3774	45.4102	72.3405	45.4102	72.3606	45.4102	72.3078	45.4102	72.3326	45.4102	72.277	45.4102	72.2999	45.4102	72.2598	45.4102	72.2721	45.4102	72.2698	45.4102	72.2616	45.4102	72.3208	45.4102	72.2821	45.4102	72.424	45.4102	72.3472	45.4102	72.5853	45.4102	72.4668	45.4102	72.8026	45.4102	72.645	45.4102	73.0651	45.4102	72.877	45.4102	73.3549	45.4102	73.15	45.4102	73.6491	45.4102	73.444	45.4102	73.9236	45.4102	73.7352	45.4102	74.1556	45.4102	73.9993	45.4102	74.3263	45.4102	74.2147	45.4102	74.4218	45.4102	74.3637	45.4102	74.4346
46.875	73.3307	46.875	73.3252	46.875	73.323	46.875	73.3086	46.875	73.3026	46.875	73.2858	46.875	73.2724	46.875	73.264	46.875	73.2383	46.875	73.2529	46.875	73.2085	46.875	73.2639	46.875	73.1941	46.875	73.3086	46.875	73.2072	46.875	73.3969	46.875	73.2598	46.875	73.5344	46.875	73.3613	46.875	73.7204	46.875	73.5156	46.875	73.9468	46.875	73.7197	46.875	74.1989	46.875	73.9627	46.875	74.4569	46.875	74.2274	46.875	74.6991	46.875	74.4923	46.875	74.9045	46.875	74.7351	46.875	75.0552	46.875	74.9352	46.875	75.1378	46.875	75.0756	46.875	75.145
48.3398	74.1711	48.3398	74.173	48.3398	74.1585	48.3398	74.1658	48.3398	74.1357	48.3398	74.1534	48.3398	74.1055	48.3398	74.1417	48.3398	74.073	48.3398	74.1384	48.3398	74.0455	48.3398	74.1528	48.3398	74.0326	48.3398	74.1943	48.3398	74.0448	48.3398	74.2715	48.3398	74.0925	48.3398	74.3895	48.3398	74.184	48.3398	74.549	48.3398	74.323	48.3398	74.7443	48.3398	74.507	48.3398	74.9637	48.3398	74.7268	48.3398	75.1908	48.3398	74.9672	48.3398	75.4062	48.3398	75.2089	48.3398	75.5906	48.3398	75.4313	48.3398	75.7269	48.3398	75.6151	48.3398	75.802	48.3398	75.7444	48.3398	75.8083
51.2695	75.7145	51.2695	75.7142	51.2695	75.7056	51.2695	75.7058	51.2695	75.6878	51.2695	75.6924	51.2695	75.6635	51.2695	75.6785	51.2695	75.6368	51.2695	75.6703	51.2695	75.6134	51.2695	75.675	51.2695	75.6008	51.2695	75.7006	51.2695	75.6073	51.2695	75.7543	51.2695	75.6414	51.2695	75.8413	51.2695	75.7099	51.2695	75.9635	51.2695	75.8166	51.2695	76.1176	51.2695	75.9607	51.2695	76.2953	51.2695	76.1355	51.2695	76.4833	51.2695	76.3296	51.2695	76.6654	51.2695	76.5272	51.2695	76.8241	51.2695	76.7107	51.2695	76.9436	51.2695	76.8631	51.2695	77.0117	51.2695	76.9699	51.2695	77.0209
52.7344	76.387	52.7344	76.392	52.7344	76.3768	52.7344	76.3924	52.7344	76.3621	52.7344	76.3902	52.7344	76.345	52.7344	76.3889	52.7344	76.3293	52.7344	76.3931	52.7344	76.3196	52.7344	76.4086	52.7344	76.3221	52.7344	76.4418	52.7344	76.3432	52.7344	76.4985	52.7344	76.3891	52.7344	76.5833	52.7344	76.465	52.7344	76.6977	52.7344	76.5729	52.7344	76.8394	52.7344	76.7115	52.7344	77.0016	52.7344	76.8749	52.7344	77.1729	52.7344	77.053	52.7344	77.3391	52.7344	77.2322	52.7344	77.4848	52.7344	77.3973	52.7344	77.5956	52.7344	77.5335	52.7344	77.6601	52.7344	77.6278	52.7344	77.6713
54.1992	77.0824	54.1992	77.0874	54.1992	77.0732	54.1992	77.0886	54.1992	77.0602	54.1992	77.0878	54.1992	77.0453	54.1992	77.0875	54.1992	77.0311	54.1992	77.0916	54.1992	77.0215	54.1992	77.1049	54.1992	77.0215	54.1992	77.1325	54.1992	77.0365	54.1992	77.1796	54.1992	77.072	54.1992	77.2502	54.1992	77.1326	54.1992	77.3464	54.1992	77.2209	54.1992	77.4665	54.1992	77.3365	54.1992	77.605	54.1992	77.4752	54.1992	77.7525	54.1992	77.6287	54.1992	77.8965	54.1992	77.7855	54.1992	78.0231	54.1992	77.9319	54.1992	78.1191	54.1992	78.0541	54.1992	78.174	54.1992	78.1402	54.1992	78.1815
55.6641	77.6041	55.6641	77.6088	55.6641	77.5953	55.6641	77.6098	55.6641	77.5831	55.6641	77.6081	55.6641	77.5693	55.6641	77.6062	55.6641	77.5564	55.6641	77.6073	55.6641	77.548	55.6641	77.6158	55.6641	77.5484	55.6641	77.6367	55.6641	77.5626	55.6641	77.6752	55.6641	77.5957	55.6641	77.7354	55.6641	77.6517	55.6641	77.8199	55.6641	77.7331	55.6641	77.9277	55.6641	77.8396	55.6641	78.0542	55.6641	77.967	55.6641	78.1908	55.6641	78.1078	55.6641	78.3258	55.6641	78.2512	55.6641	78.4461	55.6641	78.3846	55.6641	78.539	55.6641	78.495	55.6641	78.5943	55.6641	78.5713	55.6641	78.6055
58.5938	78.3826	58.5938	78.3821	58.5938	78.383	58.5938	78.382	58.5938	78.3836	58.5938	78.3833	58.5938	78.3851	58.5938	78.3878	58.5938	78.3889	58.5938	78.3976	58.5938	78.3971	58.5938	78.4158	58.5938	78.4124	58.5938	78.4455	58.5938	78.438	58.5938	78.49	58.5938	78.4773	58.5938	78.5518	58.5938	78.5331	58.5938	78.6321	58.5938	78.607	58.5938	78.7298	58.5938	78.6987	58.5938	78.841	58.5938	78.8055	58.5938	78.9592	58.5938	78.9215	58.5938	79.0752	58.5938	79.0386	58.5938	79.1787	58.5938	79.1468	58.5938	79.2593	58.5938	79.2357	58.5938	79.3086	58.5938	79.2961	58.5938	79.3214
60.0586	78.8104	60.0586	78.8145	60.0586	78.8074	60.0586	78.8198	60.0586	78.8057	60.0586	78.8271	60.0586	78.806	60.0586	78.8376	60.0586	78.8094	60.0586	78.8528	60.0586	78.8176	60.0586	78.8747	60.0586	78.8327	60.0586	78.9057	60.0586	78.8573	60.0586	78.9483	60.0586	78.8938	60.0586	79.0043	60.0586	78.9444	60.0586	79.0749	60.0586	79.0104	60.0586	79.1592	60.0586	79.0916	60.0586	79.2543	60.0586	79.1857	60.0586	79.3548	60.0586	79.288	60.0586	79.453	60.0586	79.3918	60.0586	79.5398	60.0586	79.4886	60.0586	79.6064	60.0586	79.5694	60.0586	79.6455	60.0586	79.626	60.0586	79.6523
62.9883	79.5485	62.9883	79.5531	62.9883	79.5475	62.9883	79.5613	62.9883	79.5502	62.9883	79.5732	62.9883	79.5568	62.9883	79.5889	62.9883	79.5676	62.9883	79.609	62.9883	79.5831	62.9883	79.6341	62.9883	79.6041	62.9883	79.6654	62.9883	79.6316	62.9883	79.704	62.9883	79.6668	62.9883	79.7512	62.9883	79.7109	62.9883	79.8078	62.9883	79.7647	62.9883	79.8733	62.9883	79.828	62.9883	79.9461	62.9883	79.8998	62.9883	80.0224	62.9883	79.977	62.9883	80.097	62.9883	80.055	62.9883	80.1633	62.9883	80.1278	62.9883	80.2146	62.9883	80.1887	62.9883	80.2449	62.9883	80.2312	62.9883	80.2507
64.4531	79.8681	64.4531	79.8739	64.4531	79.867	64.4531	79.8843	64.4531	79.8708	64.4531	79.8991	64.4531	79.8794	64.4531	79.9182	64.4531	79.893	64.4531	79.9415	64.4531	79.9116	64.4531	79.9691	64.4531	79.9356	64.4531	80.0017	64.4531	79.9654	64.4531	80.0398	64.4531	80.0016	64.4531	80.0845	64.4531	80.0451	64.4531	80.1363	64.4531	80.0962	64.4531	80.1949	64.4531	80.1547	64.4531	80.2592	64.4531	80.2197	64.4531	80.3263	64.4531	80.2886	64.4531	80.3917	64.4531	80.3576	64.4531	80.4499	64.4531	80.4216	64.4531	80.4952	64.4531	80.4747	64.4531	80.5223	64.4531	80.5115	64.4531	80.528
67.3828	80.3745	67.3828	80.3775	67.3828	80.3794	67.3828	80.3882	67.3828	80.3921	67.3828	80.4057	67.3828	80.412	67.3828	80.4293	67.3828	80.4383	67.3828	80.4579	67.3828	80.4698	67.3828	80.4906	67.3828	80.5056	67.3828	80.5267	67.3828	80.5447	67.3828	80.5657	67.3828	80.5863	67.3828	80.6076	67.3828	80.6301	67.3828	80.6525	67.3828	80.6758	67.3828	80.7003	67.3828	80.7232	67.3828	80.7507	67.3828	80.7718	67.3828	80.8022	67.3828	80.8203	67.3828	80.8524	67.3828	80.8667	67.3828	80.8978	67.3828	80.9081	67.3828	80.9344	67.3828	80.941	67.3828	80.9587	67.3828	80.9618	67.3828	80.9681
68.8477	80.6372	68.8477	80.6401	68.8477	80.6423	68.8477	80.6506	68.8477	80.6552	68.8477	80.668	68.8477	80.675	68.8477	80.6911	68.8477	80.7006	68.8477	80.7186	68.8477	80.7306	68.8477	80.7492	68.8477	80.7636	68.8477	80.7818	68.8477	80.7984	68.8477	80.8157	68.8477	80.834	68.8477	80.8508	68.8477	80.87	68.8477	80.887	68.8477	80.9063	68.8477	80.9248	68.8477	80.9429	68.8477	80.9639	68.8477	80.9799	68.8477	81.0037	68.8477	81.0167	68.8477	81.0424	68.8477	81.0521	68.8477	81.0775	68.8477	81.084	68.8477	81.1059	68.8477	81.1097	68.8477	81.1246	68.8477	81.1263	68.8477	81.1316
71.7773	81.2238	71.7773	81.2304	71.7773	81.2254	71.7773	81.2449	71.7773	81.235	71.7773	81.2661	71.7773	81.2518	71.7773	81.2924	71.7773	81.2743	71.7773	81.322	71.7773	81.3009	71.7773	81.3528	71.7773	81.3298	71.7773	81.3833	71.7773	81.3593	71.7773	81.412	71.7773	81.3882	71.7773	81.4384	71.7773	81.4156	71.7773	81.4624	71.7773	81.4412	71.7773	81.4843	71.7773	81.4651	71.7773	81.5047	71.7773	81.4875	71.7773	81.524	71.7773	81.5089	71.7773	81.5419	71.7773	81.529	71.7773	81.5577	71.7773	81.5473	71.7773	81.5699	71.7773	81.5626	71.7773	81.5772	71.7773	81.5734	71.7773	81.5785
74.707	81.6998	74.707	81.708	74.707	81.7001	74.707	81.7241	74.707	81.7087	74.707	81.7468	74.707	81.7246	74.707	81.7741	74.707	81.7465	74.707	81.8039	74.707	81.7724	74.707	81.8339	74.707	81.8004	74.707	81.8618	74.707	81.8282	74.707	81.8862	74.707	81.8543	74.707	81.906	74.707	81.8773	74.707	81.9212	74.707	81.8965	74.707	81.9321	74.707	81.9118	74.707	81.9398	74.707	81.9237	74.707	81.9454	74.707	81.9329	74.707	81.9497	74.707	81.9402	74.707	81.9533	74.707	81.9463	74.707	81.9559	74.707	81.9513	74.707	81.9573	74.707	81.9549	74.707	81.957
77.6367	82.0112	77.6367	82.0197	77.6367	82.0122	77.6367	82.037	77.6367	82.0225	77.6367	82.0617	77.6367	82.0408	77.6367	82.0917	77.6367	82.0653	77.6367	82.1241	77.6367	82.0938	77.6367	82.1562	77.6367	82.1237	77.6367	82.1853	77.6367	82.1524	77.6367	82.2091	77.6367	82.1776	77.6367	82.2263	77.6367	82.1976	77.6367	82.2364	77.6367	82.2114	77.6367	82.2398	77.6367	82.2189	77.6367	82.2377	77.6367	82.2207	77.6367	82.2317	77.6367	82.2185	77.6367	82.2239	77.6367	82.2138	77.6367	82.216	77.6367	82.2086	77.6367	82.2091	77.6367	82.2043	77.6367	82.2043	77.6367	82.2018	77.6367	82.2018
79.1016	82.1531	79.1016	82.1621	79.1016	82.154	79.1016	82.1802	79.1016	82.1643	79.1016	82.2058	79.1016	82.1831	79.1016	82.2367	79.1016	82.2082	79.1016	82.27	79.1016	82.2373	79.1016	82.3025	79.1016	82.2676	79.1016	82.3315	79.1016	82.2964	79.1016	82.3546	79.1016	82.3211	79.1016	82.37	79.1016	82.3398	79.1016	82.3773	79.1016	82.3515	79.1016	82.3768	79.1016	82.3559	79.1016	82.3699	79.1016	82.3538	79.1016	82.3586	79.1016	82.3468	79.1016	82.3454	79.1016	82.3372	79.1016	82.3325	79.1016	82.3271	79.1016	82.3218	79.1016	82.3185	79.1016	82.3146	79.1016	82.3131	79.1016	82.3116
82.0312	82.5337	82.0312	82.5422	82.0312	82.5355	82.0312	82.5603	82.0312	82.5474	82.0312	82.5864	82.0312	82.5682	82.0312	82.618	82.0312	82.596	82.0312	82.6521	82.0312	82.6279	82.0312	82.6856	82.0312	82.6609	82.0312	82.7153	82.0312	82.6917	82.0312	82.7386	82.0312	82.7172	82.0312	82.7533	82.0312	82.7349	82.0312	82.7584	82.0312	82.7435	82.0312	82.7541	82.0312	82.7426	82.0312	82.7417	82.0312	82.7332	82.0312	82.7234	82.0312	82.7175	82.0312	82.7023	82.0312	82.6983	82.0312	82.6816	82.0312	82.679	82.0312	82.6643	82.0312	82.6628	82.0312	82.6528	82.0312	82.6521	82.0312	82.6485
84.9609	82.7897	84.9609	82.7925	84.9609	82.7987	84.9609	82.8067	84.9609	82.8192	84.9609	82.8307	84.9609	82.8493	84.9609	82.862	84.9609	82.8866	84.9609	82.8974	84.9609	82.9277	84.9609	82.9333	84.9609	82.9691	84.9609	82.9662	84.9609	83.0069	84.9609	82.9927	84.9609	83.0377	84.9609	83.0103	84.9609	83.0586	84.9609	83.0177	84.9609	83.0681	84.9609	83.0147	84.9609	83.0655	84.9609	83.0027	84.9609	83.052	84.9609	82.984	84.9609	83.0297	84.9609	82.9624	84.9609	83.0022	84.9609	82.9416	84.9609	82.9734	84.9609	82.9253	84.9609	82.9476	84.9609	82.9167	84.9609	82.9281	84.9609	82.9174
87.8906	83.0537	87.8906	83.067	87.8906	83.0519	87.8906	83.091	87.8906	83.0614	87.8906	83.124	87.8906	83.0806	87.8906	83.163	87.8906	83.1069	87.8906	83.2047	87.8906	83.137	87.8906	83.245	87.8906	83.1672	87.8906	83.28	87.8906	83.1936	87.8906	83.3061	87.8906	83.2127	87.8906	83.3203	87.8906	83.2219	87.8906	83.3207	87.8906	83.22	87.8906	83.3069	87.8906	83.2068	87.8906	83.2801	87.8906	83.1841	87.8906	83.2431	87.8906	83.1549	87.8906	83.2	87.8906	83.1234	87.8906	83.156	87.8906	83.0946	87.8906	83.1162	87.8906	83.0733	87.8906	83.0855	87.8906	83.0634	87.8906	83.0674
90.8203	83.4203	90.8203	83.4419	90.8203	83.4083	90.8203	83.4719	90.8203	83.4059	90.8203	83.5081	90.8203	83.4123	90.8203	83.5474	90.8203	83.4255	90.8203	83.5863	90.8203	83.4426	90.8203	83.6206	90.8203	83.4602	90.8203	83.6464	90.8203	83.4749	90.8203	83.6602	90.8203	83.4832	90.8203	83.6593	90.8203	83.4824	90.8203	83.6422	90.8203	83.4712	90.8203	83.6093	90.8203	83.4493	90.8203	83.5626	90.8203	83.4183	90.8203	83.506	90.8203	83.3813	90.8203	83.4448	90.8203	83.3426	90.8203	83.3853	90.8203	83.3076	90.8203	83.3337	90.8203	83.2815	90.8203	83.2952	90.8203	83.2689	90.8203	83.2731
95.2148	83.7885	95.2148	83.8027	95.2148	83.7834	95.2148	83.8252	95.2148	83.7874	95.2148	83.8541	95.2148	83.7994	95.2148	83.8866	95.2148	83.8172	95.2148	83.9191	95.2148	83.8382	95.2148	83.9474	95.2148	83.8588	95.2148	83.9672	95.2148	83.8754	95.2148	83.9745	95.2148	83.8841	95.2148	83.9663	95.2148	83.8818	95.2148	83.941	95.2148	83.8661	95.2148	83.8988	95.2148	83.8363	95.2148	83.8424	95.2148	83.7936	95.2148	83.7765	95.2148	83.7411	95.2148	83.7075	95.2148	83.6839	95.2148	83.6429	95.2148	83.6288	95.2148	83.5902	95.2148	83.5828	95.2148	83.5555	95.2148	83.5525	95.2148	83.5427
98.1445	83.9607	98.1445	83.9751	98.1445	83.9555	98.1445	83.9978	98.1445	83.9595	98.1445	84.0271	98.1445	83.9715	98.1445	84.06	98.1445	83.9893	98.1445	84.0928	98.1445	84.0104	98.1445	84.1214	98.1445	84.031	98.1445	84.1415	98.1445	84.0473	98.1445	84.1489	98.1445	84.0554	98.1445	84.1406	98.1445	84.052	98.1445	84.1147	98.1445	84.0347	98.1445	84.0716	98.1445	84.0027	98.1445	84.0135	98.1445	83.9574	98.1445	83.9452	98.1445	83.9021	98.1445	83.8732	98.1445	83.8423	98.1445	83.8052	98.1445	83.7848	98.1445	83.7492	98.1445	83.7372	98.1445	83.7117	98.1445	83.7063	98.1445	83.697
101.074	84.1152	101.074	84.1274	101.074	84.1127	101.074	84.1486	101.074	84.1196	101.074	84.1768	101.074	84.1345	101.074	84.2094	101.074	84.1551	101.074	84.2424	101.074	84.1782	101.074	84.2717	101.074	84.2002	101.074	84.2927	101.074	84.2171	101.074	84.3013	101.074	84.225	101.074	84.2943	101.074	84.2208	101.074	84.2697	101.074	84.2022	101.074	84.2278	101.074	84.1687	101.074	84.1707	101.074	84.1219	101.074	84.1031	101.074	84.0652	101.074	84.0315	101.074	84.004	101.074	83.9638	101.074	83.9454	101.074	83.9077	101.074	83.8968	101.074	83.8702	101.074	83.8652	101.074	83.8557
105.469	84.3441	105.469	84.3539	105.469	84.345	105.469	84.3732	105.469	84.3565	105.469	84.3998	105.469	84.3772	105.469	84.4305	105.469	84.4047	105.469	84.4612	105.469	84.4351	105.469	84.4875	105.469	84.4641	105.469	84.5048	105.469	84.4869	105.469	84.509	105.469	84.4988	105.469	84.4965	105.469	84.4957	105.469	84.4656	105.469	84.4749	105.469	84.4163	105.469	84.4355	105.469	84.3512	105.469	84.3789	105.469	84.2754	105.469	84.3087	105.469	84.1962	105.469	84.2314	105.469	84.1228	105.469	84.1551	105.469	84.0642	105.469	84.089	105.469	84.0285	105.469	84.0421	105.469	84.0208
108.398	84.5375	108.398	84.5479	108.398	84.5359	108.398	84.5661	108.398	84.5433	108.398	84.5897	108.398	84.5583	108.398	84.6158	108.398	84.5785	108.398	84.6404	108.398	84.6005	108.398	84.6592	108.398	84.6198	108.398	84.6676	108.398	84.632	108.398	84.6617	108.398	84.6324	108.398	84.638	108.398	84.6174	108.398	84.595	108.398	84.5845	108.398	84.5329	108.398	84.5331	108.398	84.4546	108.398	84.4647	108.398	84.3657	108.398	84.3834	108.398	84.274	108.398	84.296	108.398	84.1892	108.398	84.2114	108.398	84.1214	108.398	84.1393	108.398	84.0791	108.398	84.0891	108.398	84.0679
112.793	84.8108	112.793	84.8202	112.793	84.8093	112.793	84.8365	112.793	84.8155	112.793	84.8575	112.793	84.8283	112.793	84.8802	112.793	84.8454	112.793	84.9007	112.793	84.8634	112.793	84.9147	112.793	84.8783	112.793	84.9175	112.793	84.8856	112.793	84.905	112.793	84.8808	112.793	84.8743	112.793	84.8601	112.793	84.8237	112.793	84.8209	112.793	84.754	112.793	84.7625	112.793	84.6683	112.793	84.6866	112.793	84.5725	112.793	84.5979	112.793	84.475	112.793	84.5034	112.793	84.3857	112.793	84.4126	112.793	84.3146	112.793	84.3356	112.793	84.2707	112.793	84.2822	112.793	84.2594
117.188	84.9105	117.188	84.9214	117.188	84.9076	117.188	84.9396	117.188	84.9123	117.188	84.9632	117.188	84.9232	117.188	84.9891	117.188	84.9379	117.188	85.0133	117.188	84.9532	117.188	85.0311	117.188	84.9654	117.188	85.0377	117.188	84.9703	117.188	85.0285	117.188	84.9637	117.188	85.0002	117.188	84.9422	117.188	84.951	117.188	84.9033	117.188	84.8816	117.188	84.8463	117.188	84.7954	117.188	84.7731	117.188	84.6983	117.188	84.6878	117.188	84.5989	117.188	84.5975	117.188	84.5071	117.188	84.5111	117.188	84.4333	117.188	84.4387	117.188	84.386	117.188	84.3896	117.188	84.371
120.117	85.0006	120.117	85.0039	120.117	85.0039	120.117	85.0138	120.117	85.0134	120.117	85.0289	120.117	85.0274	120.117	85.0469	120.117	85.0438	120.117	85.0645	120.117	85.0597	120.117	85.0773	120.117	85.0715	120.117	85.0803	120.117	85.0753	120.117	85.069	120.117	85.067	120.117	85.0394	120.117	85.0431	120.117	84.9896	120.117	85.0013	120.117	84.9199	120.117	84.9409	120.117	84.8336	120.117	84.8634	120.117	84.7369	120.117	84.7732	120.117	84.6385	120.117	84.6773	120.117	84.5487	120.117	84.5847	120.117	84.4779	120.117	84.5058	120.117	84.4349	120.117	84.4501	120.117	84.4253
124.512	85.1794	124.512	85.1807	124.512	85.1845	124.512	85.1878	124.512	85.1954	124.512	85.1998	124.512	85.2111	124.512	85.2145	124.512	85.2296	124.512	85.2289	124.512	85.2483	124.512	85.2389	124.512	85.2636	124.512	85.2399	124.512	85.2713	124.512	85.2275	124.512	85.2672	124.512	85.1977	124.512	85.2469	124.512	85.1481	124.512	85.2077	124.512	85.079	124.512	85.1482	124.512	84.993	124.512	85.0696	124.512	84.8965	124.512	84.9762	124.512	84.7982	124.512	84.875	124.512	84.709	124.512	84.7757	124.512	84.6398	124.512	84.6893	124.512	84.5999	124.512	84.6263	124.512	84.5952
128.906	85.2034	128.906	85.2108	128.906	85.2021	128.906	85.2236	128.906	85.207	128.906	85.2401	128.906	85.2174	128.906	85.2582	128.906	85.2318	128.906	85.2746	128.906	85.2477	128.906	85.2856	128.906	85.2617	128.906	85.2868	128.906	85.2693	128.906	85.2739	128.906	85.2662	128.906	85.2435	128.906	85.2479	128.906	85.1935	128.906	85.2114	128.906	85.1242	128.906	85.1552	128.906	85.0386	128.906	85.0806	128.906	84.9428	128.906	84.9919	128.906	84.8452	128.906	84.8962	128.906	84.7564	128.906	84.8028	128.906	84.6869	128.906	84.7222	128.906	84.6455	128.906	84.6647	128.906	84.6378
133.301	85.3055	133.301	85.3248	133.301	85.2909	133.301	85.3475	133.301	85.2815	133.301	85.3717	133.301	85.2775	133.301	85.3951	133.301	85.278	133.301	85.4146	133.301	85.2811	133.301	85.4265	133.301	85.284	133.301	85.4268	133.301	85.2825	133.301	85.4115	133.301	85.2724	133.301	85.3775	133.301	85.2492	133.301	85.3229	133.301	85.2097	133.301	85.2481	133.301	85.1527	133.301	85.1561	133.301	85.0795	133.301	85.0527	133.301	84.9945	133.301	84.9463	133.301	84.9049	133.301	84.8472	133.301	84.8201	133.301	84.7661	133.301	84.7503	133.301	84.7121	133.301	84.705	133.301	84.6912
139.16	85.3647	139.16	85.377	139.16	85.3565	139.16	85.3927	139.16	85.3521	139.16	85.4107	139.16	85.351	139.16	85.4292	139.16	85.3521	139.16	85.4453	139.16	85.3532	139.16	85.4553	139.16	85.3516	139.16	85.455	139.16	85.3436	139.16	85.44	139.16	85.3255	139.16	85.4068	139.16	85.2936	139.16	85.3529	139.16	85.2451	139.16	85.2783	139.16	85.1792	139.16	85.1855	139.16	85.0979	139.16	85.0802	139.16	85.0059	139.16	84.9707	139.16	84.9109	139.16	84.8675	139.16	84.8227	139.16	84.7815	139.16	84.7517	139.16	84.7225	139.16	84.7076	139.16	84.6971
143.555	85.3939	143.555	85.3958	143.555	85.3947	143.555	85.4002	143.555	85.398	143.555	85.4065	143.555	85.4033	143.555	85.4133	143.555	85.4091	143.555	85.4186	143.555	85.4137	143.555	85.4193	143.555	85.4141	143.555	85.4115	143.555	85.4069	143.555	85.3915	143.555	85.388	143.555	85.3555	143.555	85.3539	143.555	85.3012	143.555	85.3019	143.555	85.228	143.555	85.2313	143.555	85.1382	143.555	85.1439	143.555	85.0372	143.555	85.0445	143.555	84.933	143.555	84.941	143.555	84.836	143.555	84.8435	143.555	84.7571	143.555	84.7629	143.555	84.706	143.555	84.7091	143.555	84.6892
147.949	85.4716	147.949	85.4727	147.949	85.4705	147.949	85.4732	147.949	85.4701	147.949	85.4722	147.949	85.4704	147.949	85.4686	147.949	85.4708	147.949	85.4605	147.949	85.4696	147.949	85.4458	147.949	85.4641	147.949	85.4217	147.949	85.4504	147.949	85.385	147.949	85.4243	147.949	85.3333	147.949	85.382	147.949	85.2647	147.949	85.3209	147.949	85.1796	147.949	85.2404	147.949	85.0806	147.949	85.1426	147.949	84.9735	147.949	85.0329	147.949	84.8663	147.949	84.9194	147.949	84.7693	147.949	84.8125	147.949	84.6928	147.949	84.7233	147.949	84.646	147.949	84.6618	147.949	84.6351
153.809	85.4165	153.809	85.4275	153.809	85.4021	153.809	85.4348	153.809	85.3849	153.809	85.4382	153.809	85.3657	153.809	85.4374	153.809	85.3452	153.809	85.4312	153.809	85.3233	153.809	85.4172	153.809	85.299	153.809	85.3927	153.809	85.2702	153.809	85.354	153.809	85.2339	153.809	85.2983	153.809	85.1872	153.809	85.224	153.809	85.1277	153.809	85.1316	153.809	85.0547	153.809	85.0249	153.809	84.9694	153.809	84.9105	153.809	84.8758	153.809	84.7974	153.809	84.7802	153.809	84.6961	153.809	84.6909	153.809	84.6164	153.809	84.6173	153.809	84.5661	153.809	84.568	153.809	84.5498
159.668	85.4791	159.668	85.4851	159.668	85.4695	159.668	85.4878	159.668	85.4566	159.668	85.4873	159.668	85.4406	159.668	85.4833	159.668	85.422	159.668	85.4747	159.668	85.4009	159.668	85.4592	159.668	85.3762	159.668	85.4337	159.668	85.3461	159.668	85.3948	159.668	85.3077	159.668	85.3397	159.668	85.2578	159.668	85.2669	159.668	85.1944	159.668	85.1773	159.668	85.117	159.668	85.0744	159.668	85.0275	159.668	84.9644	159.668	84.9308	159.668	84.8556	159.668	84.8339	159.668	84.7577	159.668	84.7453	159.668	84.6799	159.668	84.6739	159.668	84.6298	159.668	84.6276	159.668	84.612
165.527	85.5618	165.527	85.5671	165.527	85.5516	165.527	85.5677	165.527	85.537	165.527	85.5642	165.527	85.5185	165.527	85.5567	165.527	85.4969	165.527	85.5448	165.527	85.4723	165.527	85.5265	165.527	85.4439	165.527	85.4989	165.527	85.4099	165.527	85.4584	165.527	85.3673	165.527	85.4013	165.527	85.313	165.527	85.3259	165.527	85.2446	165.527	85.2324	165.527	85.1613	165.527	85.1243	165.527	85.0653	165.527	85.0083	165.527	84.9616	165.527	84.8931	165.527	84.8581	165.527	84.7888	165.527	84.7643	165.527	84.7052	165.527	84.6898	165.527	84.6502	165.527	84.6428	165.527	84.6289
171.387	85.5867	171.387	85.5774	171.387	85.5851	171.387	85.5576	171.387	85.5731	171.387	85.5285	171.387	85.5517	171.387	85.4907	171.387	85.5223	171.387	85.4447	171.387	85.4862	171.387	85.39	171.387	85.4436	171.387	85.3254	171.387	85.3932	171.387	85.2494	171.387	85.3327	171.387	85.1606	171.387	85.2592	171.387	85.0591	171.387	85.1705	171.387	84.9468	171.387	85.0663	171.387	84.8277	171.387	84.9491	171.387	84.7085	171.387	84.8245	171.387	84.5974	171.387	84.7007	171.387	84.5031	171.387	84.5871	171.387	84.4339	171.387	84.4932	171.387	84.3963	171.387	84.4269	171.387	84.3937
177.246	85.4111	177.246	85.4183	177.246	85.3974	177.246	85.4182	177.246	85.3782	177.246	85.4109	177.246	85.3548	177.246	85.3961	177.246	85.3282	177.246	85.3733	177.246	85.2987	177.246	85.3411	177.246	85.2654	177.246	85.2975	177.246	85.2259	177.246	85.2395	177.246	85.1765	177.246	85.165	177.246	85.113	177.246	85.073	177.246	85.0324	177.246	84.965	177.246	84.9339	177.246	84.8451	177.246	84.8201	177.246	84.7201	177.246	84.6978	177.246	84.5984	177.246	84.577	177.246	84.4894	177.246	84.4694	177.246	84.4021	177.246	84.3858	177.246	84.344	177.246	84.3347	177.246	84.3206
183.105	85.303	183.105	85.3216	183.105	85.2717	183.105	85.327	183.105	85.2298	183.105	85.3202	183.105	85.181	183.105	85.3033	183.105	85.1296	183.105	85.2783	183.105	85.0794	183.105	85.2463	183.105	85.0326	183.105	85.2072	183.105	84.9894	183.105	85.159	183.105	84.9472	183.105	85.0991	183.105	84.902	183.105	85.0251	183.105	84.8495	183.105	84.9363	183.105	84.7862	183.105	84.8345	183.105	84.7117	183.105	84.725	183.105	84.6286	183.105	84.6155	183.105	84.5434	183.105	84.5154	183.105	84.4645	183.105	84.4339	183.105	84.4016	183.105	84.3787	183.105	84.363	183.105	84.3546
188.965	85.3347	188.965	85.3436	188.965	85.3061	188.965	85.3343	188.965	85.2581	188.965	85.3089	188.965	85.1926	188.965	85.2705	188.965	85.113	188.965	85.2212	188.965	85.0235	188.965	85.1626	188.965	84.9287	188.965	85.0949	188.965	84.8326	188.965	85.0173	188.965	84.7382	188.965	84.9287	188.965	84.6468	188.965	84.8284	188.965	84.5586	188.965	84.7176	188.965	84.4731	188.965	84.5995	188.965	84.3904	188.965	84.4801	188.965	84.3119	188.965	84.3671	188.965	84.2408	188.965	84.2684	188.965	84.1811	188.965	84.1909	188.965	84.1373	188.965	84.1386	188.965	84.1134	188.965	84.1131
196.289	85.3461	196.289	85.3373	196.289	85.3355	196.289	85.3116	196.289	85.3044	196.289	85.2728	196.289	85.2538	196.289	85.2244	196.289	85.1855	196.289	85.1692	196.289	85.1016	196.289	85.1074	196.289	85.0044	196.289	85.0376	196.289	84.8955	196.289	84.957	196.289	84.7768	196.289	84.8631	196.289	84.6508	196.289	84.7548	196.289	84.5211	196.289	84.6336	196.289	84.3921	196.289	84.5035	196.289	84.269	196.289	84.3709	196.289	84.1575	196.289	84.244	196.289	84.0631	196.289	84.1309	196.289	83.9903	196.289	84.0384	196.289	83.9429	196.289	83.9715	196.289	83.9233	196.289	83.9328
203.613	85.2104	203.613	85.1799	203.613	85.2183	203.613	85.1271	203.613	85.2058	203.613	85.0554	203.613	85.1763	203.613	84.9703	203.613	85.1333	203.613	84.8786	203.613	85.079	203.613	84.7854	203.613	85.0137	203.613	84.6937	203.613	84.9365	203.613	84.6032	203.613	84.8454	203.613	84.5117	203.613	84.7391	203.613	84.417	203.613	84.6177	203.613	84.3183	203.613	84.4835	203.613	84.217	203.613	84.3419	203.613	84.1165	203.613	84.2007	203.613	84.0218	203.613	84.0699	203.613	83.9383	203.613	83.9592	203.613	83.8717	203.613	83.8766	203.613	83.8276	203.613	83.827	203.613	83.8113
210.938	85.1842	210.938	85.1629	210.938	85.1764	210.938	85.1118	210.938	85.1426	210.938	85.0325	210.938	85.0875	210.938	84.9286	210.938	85.0169	210.938	84.8051	210.938	84.9364	210.938	84.6684	210.938	84.8498	210.938	84.5248	210.938	84.7583	210.938	84.3796	210.938	84.6606	210.938	84.2372	210.938	84.5538	210.938	84.1011	210.938	84.4355	210.938	83.9745	210.938	84.3051	210.938	83.861	210.938	84.1659	210.938	83.7643	210.938	84.0248	210.938	83.6869	210.938	83.8912	210.938	83.6301	210.938	83.7751	210.938	83.5941	210.938	83.684	210.938	83.5794	210.938	83.6216	210.938	83.5876
218.262	84.9454	218.262	84.9445	218.262	84.9206	218.262	84.9169	218.262	84.8727	218.262	84.8634	218.262	84.8063	218.262	84.7861	218.262	84.7277	218.262	84.6879	218.262	84.6433	218.262	84.5724	218.262	84.5586	218.262	84.4436	218.262	84.4766	218.262	84.3054	218.262	84.3976	218.262	84.1619	218.262	84.3195	218.262	84.0179	218.262	84.2392	218.262	83.8792	218.262	84.1542	218.262	83.7537	218.262	84.0639	218.262	83.6498	218.262	83.9701	218.262	83.5751	218.262	83.8765	218.262	83.5333	218.262	83.7874	218.262	83.5236	218.262	83.7067	218.262	83.5415	218.262	83.6372	218.262	83.581
225.586	84.8756	225.586	84.8975	225.586	84.8239	225.586	84.8902	225.586	84.7434	225.586	84.8556	225.586	84.6369	225.586	84.7965	225.586	84.5098	225.586	84.7167	225.586	84.3696	225.586	84.6207	225.586	84.2259	225.586	84.5128	225.586	84.0885	225.586	84.3966	225.586	83.9654	225.586	84.2742	225.586	83.8612	225.586	84.1467	225.586	83.7758	225.586	84.0157	225.586	83.7062	225.586	83.885	225.586	83.6479	225.586	83.761	225.586	83.5978	225.586	83.6519	225.586	83.5544	225.586	83.5656	225.586	83.5182	225.586	83.5064	225.586	83.4899	225.586	83.4741	225.586	83.471	225.586	83.4642
232.91	84.9124	232.91	84.9244	232.91	84.8658	232.91	84.905	232.91	84.7834	232.91	84.8579	232.91	84.6662	232.91	84.7871	232.91	84.5179	232.91	84.6967	232.91	84.3448	232.91	84.5901	232.91	84.156	232.91	84.4715	232.91	83.9628	232.91	84.3455	232.91	83.7778	232.91	84.2182	232.91	83.6128	232.91	84.0968	232.91	83.477	232.91	83.9886	232.91	83.3748	232.91	83.8987	232.91	83.3064	232.91	83.8276	232.91	83.2695	232.91	83.7692	232.91	83.2621	232.91	83.7133	232.91	83.2835	232.91	83.6496	232.91	83.3323	232.91	83.5735	232.91	83.4037	232.91	83.4882
241.699	84.8174	241.699	84.82	241.699	84.7881	241.699	84.7931	241.699	84.7361	241.699	84.7363	241.699	84.6644	241.699	84.6519	241.699	84.5736	241.699	84.5437	241.699	84.4609	241.699	84.4161	241.699	84.3226	241.699	84.2738	241.699	84.1574	241.699	84.1218	241.699	83.9693	241.699	83.9667	241.699	83.7691	241.699	83.8163	241.699	83.573	241.699	83.6797	241.699	83.3985	241.699	83.5653	241.699	83.2595	241.699	83.4777	241.699	83.1634	241.699	83.4147	241.699	83.1111	241.699	83.3676	241.699	83.0989	241.699	83.3243	241.699	83.1199	241.699	83.2757	241.699	83.1643	241.699	83.2201
250.488	85.0974	250.488	85.0783	250.488	85.0601	250.488	85.0098	250.488	84.9653	250.488	84.9011	250.488	84.8199	250.488	84.7595	250.488	84.6372	250.488	84.5887	250.488	84.4326	250.488	84.3894	250.488	84.2183	250.488	84.1622	250.488	84	250.488	83.9106	250.488	83.7789	250.488	83.6439	250.488	83.5567	250.488	83.3763	250.488	83.34	250.488	83.1256	250.488	83.1417	250.488	82.9099	250.488	82.9768	250.488	82.7446	250.488	82.8555	250.488	82.6387	250.488	82.7775	250.488	82.591	250.488	82.7325	250.488	82.5896	250.488	82.7049	250.488	82.6154	250.488	82.6798	250.488	82.6494
259.277	84.7632	259.277	84.7545	259.277	84.718	259.277	84.6989	259.277	84.6201	259.277	84.608	259.277	84.4795	259.277	84.4945	259.277	84.3129	259.277	84.3671	259.277	84.1375	259.277	84.2273	259.277	83.9643	259.277	84.0691	259.277	83.7936	259.277	83.882	259.277	83.6173	259.277	83.6589	259.277	83.4267	259.277	83.4027	259.277	83.2206	259.277	83.1295	259.277	83.0095	259.277	82.8655	259.277	82.8124	259.277	82.6386	259.277	82.6477	259.277	82.4683	259.277	82.5246	259.277	82.3602	259.277	82.4397	259.277	82.3074	259.277	82.3819	259.277	82.2958	259.277	82.3403	259.277	82.3104
268.066	84.3808	268.066	84.2968	268.066	84.4152	268.066	84.1728	268.066	84.3923	268.066	84.0219	268.066	84.3058	268.066	83.8618	268.066	84.1549	268.066	83.7107	268.066	83.949	268.066	83.5822	268.066	83.71	268.066	83.48	268.066	83.4651	268.066	83.3968	268.066	83.2332	268.066	83.3173	268.066	83.0149	268.066	83.2236	268.066	82.7958	268.066	83.1017	268.066	82.5631	268.066	82.9462	268.066	82.3219	268.066	82.763	268.066	82.0981	268.066	82.5671	268.066	81.9258	268.066	82.3761	268.066	81.8281	268.066	82.2034	268.066	81.807	268.066	82.0556	268.066	81.8487	268.066	81.9356
276.855	83.9986	276.855	84.0533	276.855	83.9227	276.855	84.0705	276.855	83.8387	276.855	84.0366	276.855	83.7524	276.855	83.9454	276.855	83.6602	276.855	83.8006	276.855	83.5522	276.855	83.6152	276.855	83.4199	276.855	83.4072	276.855	83.2642	276.855	83.1957	276.855	83.0975	276.855	82.9967	276.855	82.9371	276.855	82.8216	276.855	82.7937	276.855	82.6748	276.855	82.6651	276.855	82.5512	276.855	82.5395	276.855	82.439	276.855	82.4076	276.855	82.3264	276.855	82.2706	276.855	82.2104	276.855	82.1415	276.855	82.1003	276.855	82.0386	276.855	82.0143	276.855	81.9784	276.855	81.9703
287.109	83.2091	287.109	83.1407	287.109	83.2113	287.109	83.0267	287.109	83.1453	287.109	82.9008	287.109	83.0289	287.109	82.8033	287.109	82.8934	287.109	82.7714	287.109	82.7713	287.109	82.8269	287.109	82.684	287.109	82.9623	287.109	82.6377	287.109	83.1386	287.109	82.6317	287.109	83.3006	287.109	82.6663	287.109	83.4026	287.109	82.7434	287.109	83.4285	287.109	82.8575	287.109	83.3964	287.109	82.9902	287.109	83.3452	287.109	83.1158	287.109	83.3114	287.109	83.2146	287.109	83.3085	287.109	83.2808	287.109	83.3259	287.109	83.3207	287.109	83.3443	287.109	83.3428	287.109	83.3509
297.363	84.9318	297.363	84.8726	297.363	84.8702	297.363	84.6951	297.363	84.6957	297.363	84.4147	297.363	84.4233	297.363	84.0588	297.363	84.0703	297.363	83.6669	297.363	83.6542	297.363	83.2919	297.363	83.1939	297.363	82.9978	297.363	82.7138	297.363	82.8402	297.363	82.2498	297.363	82.8367	297.363	81.8526	297.363	82.9519	297.363	81.5829	297.363	83.1197	297.363	81.4921	297.363	83.2825	297.363	81.5965	297.363	83.413	297.363	81.8659	297.363	83.5111	297.363	82.2384	297.363	83.584	297.363	82.6438	297.363	83.6262	297.363	83.02	297.363	83.6147	297.363	83.3204	297.363	83.5193
307.617	85.2687	307.617	85.2295	307.617	85.2046	307.617	85.0835	307.617	85.04	307.617	84.8246	307.617	84.7841	307.617	84.4478	307.617	84.4607	307.617	83.9578	307.617	84.1069	307.617	83.3825	307.617	83.7599	307.617	82.7897	307.617	83.4367	307.617	82.2934	307.617	83.1287	307.617	82.0184	307.617	82.8212	307.617	82.0186	307.617	82.5245	307.617	82.229	307.617	82.2904	307.617	82.5209	307.617	82.1915	307.617	82.7897	307.617	82.2665	307.617	82.9902	307.617	82.4816	307.617	83.1237	307.617	82.752	307.617	83.208	307.617	82.995	307.617	83.2512	307.617	83.1622	307.617	83.2429
319.336	84.6744	319.336	84.6621	319.336	84.6193	319.336	84.5806	319.336	84.4938	319.336	84.4283	319.336	84.2882	319.336	84.2044	319.336	83.9918	319.336	83.906	319.336	83.6071	319.336	83.5257	319.336	83.1669	319.336	83.0544	319.336	82.7384	319.336	82.4982	319.336	82.3979	319.336	81.9039	319.336	82.1791	319.336	81.3835	319.336	82.0469	319.336	81.0938	319.336	81.9364	319.336	81.1363	319.336	81.8178	319.336	81.4574	319.336	81.7255	319.336	81.8912	319.336	81.7302	319.336	82.2811	319.336	81.8728	319.336	82.5385	319.336	82.1187	319.336	82.6335	319.336	82.3803	319.336	82.5711
329.59	84.3739	329.59	84.2195	329.59	84.451	329.59	84.0092	329.59	84.4338	329.59	83.767	329.59	84.3106	329.59	83.5158	329.59	84.0746	329.59	83.2703	329.59	83.7254	329.59	83.0292	329.59	83.2712	329.59	82.7745	329.59	82.7363	329.59	82.4816	329.59	82.1715	329.59	82.1379	329.59	81.6585	329.59	81.7618	329.59	81.2898	329.59	81.412	329.59	81.1227	329.59	81.1745	329.59	81.1426	329.59	81.1166	329.59	81.2801	329.59	81.2358	329.59	81.461	329.59	81.4571	329.59	81.6363	329.59	81.6824	329.59	81.7806	329.59	81.8405	329.59	81.8766	329.59	81.9034
341.309	84.7065	341.309	84.6849	341.309	84.6192	341.309	84.5538	341.309	84.4261	341.309	84.3164	341.309	84.1337	341.309	83.9835	341.309	83.7528	341.309	83.5767	341.309	83.2994	341.309	83.1292	341.309	82.7966	341.309	82.679	341.309	82.2796	341.309	82.2598	341.309	81.7978	341.309	81.8945	341.309	81.4074	341.309	81.5951	341.309	81.1503	341.309	81.3686	341.309	81.0356	341.309	81.2235	341.309	81.0424	341.309	81.1715	341.309	81.1405	341.309	81.2206	341.309	81.3031	341.309	81.3602	341.309	81.4999	341.309	81.5496	341.309	81.686	341.309	81.7247	341.309	81.8072	341.309	81.8223
353.027	84.6588	353.027	84.5916	353.027	84.6362	353.027	84.4308	353.027	84.5327	353.027	84.1815	353.027	84.3557	353.027	83.8601	353.027	84.1051	353.027	83.4915	353.027	83.7699	353.027	83.1038	353.027	83.3306	353.027	82.7208	353.027	82.7701	353.027	82.36	353.027	82.092	353.027	82.0368	353.027	81.3451	353.027	81.7724	353.027	80.6413	353.027	81.5953	353.027	80.1344	353.027	81.5269	353.027	79.9331	353.027	81.562	353.027	80.0223	353.027	81.6617	353.027	80.2966	353.027	81.7659	353.027	80.6504	353.027	81.8152	353.027	81.0158	353.027	81.768	353.027	81.3479	353.027	81.6086
366.211	84.8453	366.211	84.7358	366.211	84.8686	366.211	84.5438	366.211	84.7997	366.211	84.2676	366.211	84.6345	366.211	83.8992	366.211	84.3736	366.211	83.4275	366.211	84.0222	366.211	82.8455	366.211	83.5861	366.211	82.1639	366.211	83.0684	366.211	81.43	366.211	82.4705	366.211	80.7432	366.211	81.8069	366.211	80.2443	366.211	81.1294	366.211	80.0471	366.211	80.5432	366.211	80.1518	366.211	80.1782	366.211	80.442	366.211	80.104	366.211	80.7715	366.211	80.2715	366.211	81.0376	366.211	80.5553	366.211	81.1971	366.211	80.8401	366.211	81.2471	366.211	81.0619	366.211	81.1993
379.395	85.087	379.395	85.0286	379.395	85.0492	379.395	84.8758	379.395	84.9181	379.395	84.6282	379.395	84.7064	379.395	84.2813	379.395	84.4323	379.395	83.8324	379.395	84.1074	379.395	83.2873	379.395	83.727	379.395	82.6636	379.395	83.2721	379.395	81.9899	379.395	82.7261	379.395	81.3089	379.395	82.0966	379.395	80.6892	379.395	81.4341	379.395	80.2362	379.395	80.8415	379.395	80.0676	379.395	80.4559	379.395	80.2293	379.395	80.3836	379.395	80.6354	379.395	80.616	379.395	81.1217	379.395	81.0239	379.395	81.5416	379.395	81.4426	379.395	81.8068	379.395	81.7491	379.395	81.8781
392.578	84.4221	392.578	84.3746	392.578	84.4089	392.578	84.2656	392.578	84.3213	392.578	84.0832	392.578	84.1389	392.578	83.8152	392.578	83.8487	392.578	83.4587	392.578	83.4582	392.578	83.0222	392.578	82.9972	392.578	82.5227	392.578	82.504	392.578	81.9817	392.578	82.0057	392.578	81.4282	392.578	81.5094	392.578	80.904	392.578	81.018	392.578	80.4658	392.578	80.5599	392.578	80.1785	392.578	80.2085	392.578	80.0922	392.578	80.0559	392.578	80.2094	392.578	80.1404	392.578	80.4671	392.578	80.3997	392.578	80.7578	392.578	80.7087	392.578	80.9748	392.578	80.9493	392.578	81.0465
405.762	84.5886	405.762	84.4709	405.762	84.6112	405.762	84.2631	405.762	84.5305	405.762	83.9696	405.762	84.3346	405.762	83.5948	405.762	84.0126	405.762	83.1423	405.762	83.5605	405.762	82.6163	405.762	82.9848	405.762	82.0318	405.762	82.3038	405.762	81.432	405.762	81.5535	405.762	80.8996	405.762	80.7989	405.762	80.5339	405.762	80.1435	405.762	80.3906	405.762	79.7127	405.762	80.4425	405.762	79.592	405.762	80.6116	405.762	79.7634	405.762	80.825	405.762	80.1168	405.762	81.0342	405.762	80.523	405.762	81.203	405.762	80.8853	405.762	81.2968	405.762	81.1473	405.762	81.2846
420.41	84.8359	420.41	84.7704	420.41	84.7987	420.41	84.5992	420.41	84.6704	420.41	84.3316	420.41	84.4603	420.41	83.9798	420.41	84.1671	420.41	83.5438	420.41	83.7806	420.41	83.0013	420.41	83.2896	420.41	82.3147	420.41	82.6886	420.41	81.459	420.41	81.9813	420.41	80.4701	420.41	81.1846	420.41	79.5132	420.41	80.3391	420.41	78.9031	420.41	79.5276	420.41	78.9064	420.41	78.894	420.41	79.4389	420.41	78.6217	420.41	80.165	420.41	78.8219	420.41	80.8086	420.41	79.4104	420.41	81.2339	420.41	80.1512	420.41	81.3855	420.41	80.8103	420.41	81.2418
435.059	84.4897	435.059	84.3943	435.059	84.4993	435.059	84.2389	435.059	84.4074	435.059	84.0318	435.059	84.2233	435.059	83.7495	435.059	83.9686	435.059	83.3503	435.059	83.649	435.059	82.8059	435.059	83.2362	435.059	82.1225	435.059	82.6791	435.059	81.3412	435.059	81.9418	435.059	80.5246	435.059	81.0478	435.059	79.7564	435.059	80.12	435.059	79.1664	435.059	79.3838	435.059	78.9277	435.059	79.0697	435.059	79.1411	435.059	79.2322	435.059	79.699	435.059	79.7088	435.059	80.354	435.059	80.2768	435.059	80.8938	435.059	80.7787	435.059	81.2123	435.059	81.1304	435.059	81.2856
451.172	85.1421	451.172	85.0536	451.172	85.1192	451.172	84.8334	451.172	84.9925	451.172	84.4744	451.172	84.7517	451.172	84.0016	451.172	84.3871	451.172	83.4607	451.172	83.9128	451.172	82.8775	451.172	83.3689	451.172	82.2224	451.172	82.7912	451.172	81.4231	451.172	82.1707	451.172	80.4342	451.172	81.4491	451.172	79.339	451.172	80.5765	451.172	78.4195	451.172	79.6233	451.172	78.0154	451.172	78.8706	451.172	78.1858	451.172	78.6555	451.172	78.6976	451.172	78.9812	451.172	79.3114	451.172	79.5365	451.172	79.8754	451.172	80.0478	451.172	80.2834	451.172	80.3766	451.172	80.4606
465.82	84.7632	465.82	84.7083	465.82	84.7727	465.82	84.6123	465.82	84.7202	465.82	84.4571	465.82	84.5881	465.82	84.2031	465.82	84.3612	465.82	83.8065	465.82	84.0268	465.82	83.242	465.82	83.5752	465.82	82.5157	465.82	83.0005	465.82	81.6635	465.82	82.2997	465.82	80.7419	465.82	81.4764	465.82	79.8378	465.82	80.5542	465.82	79.1013	465.82	79.6145	465.82	78.7316	465.82	78.8453	465.82	78.8284	465.82	78.5087	465.82	79.2661	465.82	78.7247	465.82	79.8036	465.82	79.3045	465.82	80.2554	465.82	79.9287	465.82	80.5286	465.82	80.3798	465.82	80.5794
483.398	84.872	483.398	84.7937	483.398	84.8379	483.398	84.6076	483.398	84.7087	483.398	84.3399	483.398	84.5084	483.398	84.02	483.398	84.2472	483.398	83.6538	483.398	83.9113	483.398	83.209	483.398	83.4695	483.398	82.6262	483.398	82.8876	483.398	81.8501	483.398	82.1429	483.398	80.8628	483.398	81.2346	483.398	79.726	483.398	80.2022	483.398	78.6501	483.398	79.1703	483.398	78.0294	483.398	78.4047	483.398	78.1928	483.398	78.2271	483.398	78.9919	483.398	78.6928	483.398	79.9627	483.398	79.5004	483.398	80.747	483.398	80.31	483.398	81.1826	483.398	80.9212	483.398	81.232
499.512	84.9165	499.512	84.7824	499.512	84.961	499.512	84.5799	499.512	84.8904	499.512	84.3093	499.512	84.6915	499.512	83.9512	499.512	84.3645	499.512	83.486	499.512	83.9134	499.512	82.9077	499.512	83.338	499.512	82.2188	499.512	82.6388	499.512	81.4169	499.512	81.8245	499.512	80.5033	499.512	80.9195	499.512	79.5373	499.512	79.9779	499.512	78.7059	499.512	79.1043	499.512	78.2951	499.512	78.4611	499.512	78.4612	499.512	78.2256	499.512	79.0604	499.512	78.4756	499.512	79.8006	499.512	79.0974	499.512	80.4334	499.512	79.8446	499.512	80.799	499.512	80.4722	499.512	80.8148
517.09	84.5827	517.09	84.5509	517.09	84.5681	517.09	84.4477	517.09	84.5023	517.09	84.2401	517.09	84.3558	517.09	83.9093	517.09	84.1048	517.09	83.4502	517.09	83.7549	517.09	82.8534	517.09	83.3287	517.09	82.0923	517.09	82.8264	517.09	81.1345	517.09	82.1971	517.09	79.9824	517.09	81.3616	517.09	78.7456	517.09	80.2874	517.09	77.7401	517.09	79.1025	517.09	77.434	517.09	78.2108	517.09	77.9657	517.09	78.1277	517.09	78.9268	517.09	78.8585	517.09	79.879	517.09	79.8698	517.09	80.6281	517.09	80.7121	517.09	81.1213	517.09	81.2055	517.09	81.3287
536.133	84.5439	536.133	84.4297	536.133	84.5159	536.133	84.2036	536.133	84.3544	536.133	83.9255	536.133	84.0929	536.133	83.6475	536.133	83.7629	536.133	83.3678	536.133	83.3705	536.133	83.0132	536.133	82.889	536.133	82.4648	536.133	82.2673	536.133	81.6019	536.133	81.4447	536.133	80.3409	536.133	80.366	536.133	78.7032	536.133	79.0126	536.133	77.0076	536.133	77.5017	536.133	76.0742	536.133	76.3017	536.133	76.4846	536.133	76.1732	536.133	77.6661	536.133	77.1714	536.133	78.8954	536.133	78.5239	536.133	79.8685	536.133	79.6644	536.133	80.4764	536.133	80.3928	536.133	80.662
555.176	85.1694	555.176	85.1642	555.176	85.1111	555.176	85.0549	555.176	85.0103	555.176	84.8011	555.176	84.8684	555.176	84.3882	555.176	84.6768	555.176	83.8352	555.176	84.4217	555.176	83.1712	555.176	84.0743	555.176	82.3941	555.176	83.5784	555.176	81.4481	555.176	82.8504	555.176	80.2412	555.176	81.798	555.176	78.7111	555.176	80.3532	555.176	76.9775	555.176	78.5356	555.176	75.6386	555.176	76.6231	555.176	75.6438	555.176	75.411	555.176	76.8925	555.176	75.6549	555.176	78.3581	555.176	76.8663	555.176	79.4228	555.176	78.1869	555.176	79.9114	555.176	79.2214	555.176	79.8244
574.219	84.7965	574.219	84.7264	574.219	84.7702	574.219	84.5692	574.219	84.6369	574.219	84.3381	574.219	84.3981	574.219	84.0657	574.219	84.0787	574.219	83.7921	574.219	83.7114	574.219	83.5124	574.219	83.3019	574.219	83.1311	574.219	82.8067	574.219	82.4803	574.219	82.1445	574.219	81.3932	574.219	81.2273	574.219	79.7803	574.219	79.9929	574.219	77.7176	574.219	78.4495	574.219	75.6793	574.219	76.7995	574.219	74.8165	574.219	75.6839	574.219	75.7328	574.219	75.9089	574.219	77.3611	574.219	77.1924	574.219	78.7574	574.219	78.5708	574.219	79.6146	574.219	79.5137	574.219	79.8693
594.727	84.4406	594.727	84.4105	594.727	84.4152	594.727	84.2997	594.727	84.3525	594.727	84.0954	594.727	84.2411	594.727	83.7997	594.727	84.0418	594.727	83.424	594.727	83.7189	594.727	82.9762	594.727	83.2708	594.727	82.4351	594.727	82.7227	594.727	81.7267	594.727	82.0717	594.727	80.7371	594.727	81.2335	594.727	79.3682	594.727	80.0526	594.727	77.6847	594.727	78.3832	594.727	76.2847	594.727	76.3122	594.727	76.1836	594.727	74.8331	594.727	77.1835	594.727	75.5	594.727	78.3001	594.727	77.3434	594.727	79.1453	594.727	78.8551	594.727	79.6917	594.727	79.6837	594.727	79.9102
615.234	84.6489	615.234	84.5097	615.234	84.6389	615.234	84.2723	615.234	84.4681	615.234	83.9912	615.234	84.1772	615.234	83.6881	615.234	83.8341	615.234	83.3431	615.234	83.483	615.234	82.9174	615.234	83.1111	615.234	82.3768	615.234	82.6558	615.234	81.6769	615.234	82.0316	615.234	80.7203	615.234	81.1471	615.234	79.3508	615.234	79.9005	615.234	77.4516	615.234	78.1874	615.234	75.2992	615.234	76.0313	615.234	74.2594	615.234	74.088	615.234	75.3424	615.234	73.8674	615.234	77.0757	615.234	75.277	615.234	78.327	615.234	76.8746	615.234	78.8751	615.234	78.0747	615.234	78.7634
637.207	84.1827	637.207	84.0858	637.207	84.1346	637.207	83.8811	637.207	83.9493	637.207	83.6301	637.207	83.6733	637.207	83.3799	637.207	83.3656	637.207	83.1319	637.207	83.0743	637.207	82.8384	637.207	82.8159	637.207	82.4199	637.207	82.5493	637.207	81.7831	637.207	82.1595	637.207	80.8251	637.207	81.4801	637.207	79.4315	637.207	80.3456	637.207	77.5029	637.207	78.6583	637.207	75.1599	637.207	76.524	637.207	73.5544	637.207	74.6729	637.207	74.4397	637.207	74.6273	637.207	76.5367	637.207	76.2804	637.207	78.2505	637.207	78.0274	637.207	79.255	637.207	79.1543	637.207	79.5561
659.18	84.4027	659.18	84.3119	659.18	84.3264	659.18	84.0546	659.18	84.1157	659.18	83.6796	659.18	83.8209	659.18	83.2742	659.18	83.4878	659.18	82.9038	659.18	83.1401	659.18	82.5632	659.18	82.7785	659.18	82.1866	659.18	82.3908	659.18	81.67	659.18	81.9493	659.18	80.8798	659.18	81.3715	659.18	79.6707	659.18	80.4835	659.18	77.934	659.18	79.0444	659.18	75.8174	659.18	76.8819	659.18	74.4586	659.18	74.4901	659.18	75.3181	659.18	74.0495	659.18	77.1136	659.18	75.7897	659.18	78.4303	659.18	77.4944	659.18	79.0348	659.18	78.5515	659.18	79.046
682.617	85.7571	682.617	85.5508	682.617	85.7697	682.617	85.2005	682.617	85.5588	682.617	84.7751	682.617	85.1323	682.617	84.3436	682.617	84.5763	682.617	83.9395	682.617	84.0533	682.617	83.5399	682.617	83.6809	682.617	83.0628	682.617	83.3859	682.617	82.3838	682.617	82.9402	682.617	81.3598	682.617	82.1348	682.617	79.8408	682.617	80.8846	682.617	77.7195	682.617	79.1907	682.617	75.2677	682.617	77.0565	682.617	74.1198	682.617	74.734	682.617	75.6078	682.617	73.8292	682.617	77.8126	682.617	75.5776	682.617	79.4489	682.617	77.8732	682.617	80.2819	682.617	79.4969	682.617	80.2972
707.52	85.438	707.52	85.3047	707.52	85.4033	707.52	85.0266	707.52	85.2154	707.52	84.6485	707.52	84.8976	707.52	84.207	707.52	84.4608	707.52	83.7481	707.52	83.9414	707.52	83.3499	707.52	83.444	707.52	83.0501	707.52	83.0835	707.52	82.7313	707.52	82.8175	707.52	82.1547	707.52	82.3893	707.52	81.0839	707.52	81.4788	707.52	79.3449	707.52	79.848	707.52	76.9778	707.52	77.4091	707.52	74.797	707.52	74.5223	707.52	74.4935	707.52	73.2764	707.52	75.9816	707.52	75.2206	707.52	77.7804	707.52	77.65	707.52	79.1089	707.52	79.1743	707.52	79.6333
732.422	85.2888	732.422	85.1975	732.422	85.1875	732.422	84.8847	732.422	84.931	732.422	84.375	732.422	84.5549	732.422	83.7817	732.422	84.1103	732.422	83.2428	732.422	83.6577	732.422	82.7824	732.422	83.2314	732.422	82.3012	732.422	82.827	732.422	81.6797	732.422	82.4097	732.422	80.8065	732.422	81.8921	732.422	79.5186	732.422	81.1006	732.422	77.5442	732.422	79.7863	732.422	74.6421	732.422	77.6733	732.422	72.116	732.422	74.7633	732.422	73.8811	732.422	73.0463	732.422	76.7953	732.422	74.762	732.422	78.46	732.422	76.8984	732.422	79.0211	732.422	78.2091	732.422	78.8738
757.324	85.7097	757.324	85.4364	757.324	85.7338	757.324	84.9685	757.324	85.4756	757.324	84.3669	757.324	84.9578	757.324	83.7296	757.324	84.2822	757.324	83.2308	757.324	83.6145	757.324	83.0232	757.324	83.1061	757.324	83.0067	757.324	82.7832	757.324	82.8382	757.324	82.5302	757.324	82.1819	757.324	82.1743	757.324	80.8142	757.324	81.5076	757.324	78.5619	757.324	80.2216	757.324	75.1746	757.324	77.8823	757.324	70.8124	757.324	74.1374	757.324	71.4159	757.324	71.1002	757.324	75.9883	757.324	73.5149	757.324	78.927	757.324	76.6667	757.324	80.1713	757.324	78.8359	757.324	80.0512
785.156	85.1915	785.156	84.8934	785.156	85.2191	785.156	84.4053	785.156	84.9643	785.156	83.8341	785.156	84.4513	785.156	83.2247	785.156	83.7248	785.156	82.5717	785.156	82.9192	785.156	81.9481	785.156	82.3168	785.156	81.5211	785.156	82.1462	785.156	81.3187	785.156	82.2125	785.156	81.0951	785.156	82.0241	785.156	80.4981	785.156	81.2709	785.156	79.1583	785.156	79.9494	785.156	76.6588	785.156	78.0887	785.156	73.0773	785.156	75.4988	785.156	71.9376	785.156	72.7394	785.156	74.2737	785.156	73.439	785.156	76.174	785.156	76.0638	785.156	77.2892	785.156	77.5299	785.156	77.8025
811.523	85.735	811.523	85.555	811.523	85.6322	811.523	85.0745	811.523	85.2353	811.523	84.2715	811.523	84.5504	811.523	83.216	811.523	83.6658	811.523	82.2024	811.523	82.7695	811.523	81.6851	811.523	82.0937	811.523	81.7594	811.523	81.7767	811.523	81.9595	811.523	81.7119	811.523	81.7358	811.523	81.6231	811.523	80.7035	811.523	81.2263	811.523	78.6125	811.523	80.2155	811.523	75.3377	811.523	78.2707	811.523	71.6481	811.523	75.234	811.523	71.9459	811.523	72.1042	811.523	75.4402	811.523	72.8898	811.523	78.2129	811.523	76.1899	811.523	79.7021	811.523	78.6921	811.523	79.8698
840.82	86.3083	840.82	86.1285	840.82	86.2692	840.82	85.5914	840.82	85.9888	840.82	84.6057	840.82	85.3276	840.82	83.3365	840.82	84.2612	840.82	82.1784	840.82	83.0269	840.82	81.3966	840.82	82.0162	840.82	80.9005	840.82	81.4589	840.82	80.6115	840.82	81.2601	840.82	80.5491	840.82	81.1865	840.82	80.4238	840.82	80.9827	840.82	79.5984	840.82	80.2678	840.82	77.2329	840.82	78.5017	840.82	72.2832	840.82	74.9898	840.82	69.2127	840.82	69.0427	840.82	73.9845	840.82	69.6051	840.82	76.8036	840.82	74.8267	840.82	78.0974	840.82	77.4766	840.82	78.3759
870.117	87.1268	870.117	86.8903	870.117	87.0426	870.117	86.4038	870.117	86.619	870.117	85.6393	870.117	85.9552	870.117	84.4994	870.117	85.1186	870.117	83.0593	870.117	84.0332	870.117	81.8205	870.117	82.6951	870.117	81.4558	870.117	81.5556	870.117	81.706	870.117	81.2517	870.117	81.5967	870.117	81.4813	870.117	80.6941	870.117	81.3107	870.117	79.07	870.117	80.2544	870.117	76.637	870.117	78.3523	870.117	72.828	870.117	75.7277	870.117	69.9922	870.117	72.6809	870.117	74.2429	870.117	72.9761	870.117	77.9331	870.117	76.6561	870.117	79.8174	870.117	79.1906	870.117	80.2007
900.879	88.1903	900.879	88.0594	900.879	88.0565	900.879	87.5623	900.879	87.7896	900.879	86.814	900.879	87.3162	900.879	85.9604	900.879	86.4443	900.879	84.8887	900.879	85.1632	900.879	83.3629	900.879	83.7495	900.879	81.6047	900.879	82.5417	900.879	80.672	900.879	81.635	900.879	81.0836	900.879	80.9966	900.879	81.5162	900.879	80.7159	900.879	80.6447	900.879	80.5188	900.879	77.9653	900.879	79.4407	900.879	73.0829	900.879	76.1821	900.879	67.0621	900.879	69.4514	900.879	72.8441	900.879	70.744	900.879	77.3815	900.879	75.7322	900.879	79.2958	900.879	78.2765	900.879	79.4423
933.105	88.3159	933.105	88.0581	933.105	88.3103	933.105	87.6573	933.105	87.9388	933.105	87.0349	933.105	87.2894	933.105	86.005	933.105	86.5013	933.105	84.5778	933.105	85.4978	933.105	83.1203	933.105	84.0904	933.105	82.1929	933.105	82.4707	933.105	81.8978	933.105	81.5017	933.105	81.7986	933.105	81.6945	933.105	81.6101	933.105	82.0762	933.105	81.0859	933.105	81.5141	933.105	79.6313	933.105	79.7021	933.105	76.2925	933.105	76.8334	933.105	70.2302	933.105	72.6139	933.105	71.534	933.105	69.5057	933.105	76.515	933.105	74.8877	933.105	78.9924	933.105	78.4963	933.105	79.657
965.332	88.1042	965.332	87.9544	965.332	87.945	965.332	87.6063	965.332	87.4674	965.332	87.0102	965.332	86.8729	965.332	86.0294	965.332	86.2435	965.332	84.7173	965.332	85.2842	965.332	83.2838	965.332	83.7281	965.332	81.9342	965.332	81.9277	965.332	81.0653	965.332	80.7412	965.332	81.0524	965.332	80.5545	965.332	81.2668	965.332	80.8696	965.332	80.8436	965.332	80.8381	965.332	79.117	965.332	79.8524	965.332	75.3744	965.332	77.3567	965.332	69.4428	965.332	72.3413	965.332	70.389	965.332	69.6433	965.332	75.0137	965.332	74.1815	965.332	77.4139	965.332	76.8164	965.332	77.8789
1,000.49	87.8033	1,000.49	87.7291	1,000.49	87.6359	1,000.49	87.1908	1,000.49	87.4123	1,000.49	86.3368	1,000.49	86.913	1,000.49	85.4356	1,000.49	85.8769	1,000.49	84.3637	1,000.49	84.4686	1,000.49	82.8423	1,000.49	83.045	1,000.49	81.3438	1,000.49	81.6439	1,000.49	80.8449	1,000.49	80.4384	1,000.49	80.9006	1,000.49	80.0082	1,000.49	80.5991	1,000.49	80.1155	1,000.49	79.9605	1,000.49	79.8117	1,000.49	79.1487	1,000.49	78.4899	1,000.49	77.3599	1,000.49	76.1459	1,000.49	73.2613	1,000.49	72.5695	1,000.49	72.4984	1,000.49	68.2924	1,000.49	76.3787	1,000.49	72.8089	1,000.49	77.9873	1,000.49	76.7365	1,000.49	78.0876
1,035.64	87.3898	1,035.64	87.2158	1,035.64	87.2714	1,035.64	86.9345	1,035.64	86.84	1,035.64	86.4703	1,035.64	86.3	1,035.64	85.5227	1,035.64	85.6601	1,035.64	84.0886	1,035.64	84.5916	1,035.64	82.5499	1,035.64	82.9077	1,035.64	81.033	1,035.64	80.9766	1,035.64	79.4401	1,035.64	79.466	1,035.64	78.651	1,035.64	78.8895	1,035.64	78.9692	1,035.64	79.0508	1,035.64	78.824	1,035.64	78.9499	1,035.64	76.8558	1,035.64	78.18	1,035.64	72.4045	1,035.64	75.8145	1,035.64	68.1222	1,035.64	68.9848	1,035.64	70.7012	1,035.64	65.9723	1,035.64	74.8397	1,035.64	73.4636	1,035.64	77.5082	1,035.64	76.6547	1,035.64	78.0573
1,072.27	86.6263	1,072.27	86.4929	1,072.27	86.7637	1,072.27	86.232	1,072.27	86.6119	1,072.27	85.6103	1,072.27	86.0568	1,072.27	84.8082	1,072.27	85.3696	1,072.27	83.9244	1,072.27	84.4956	1,072.27	82.4108	1,072.27	82.8943	1,072.27	80.013	1,072.27	80.4583	1,072.27	78.1205	1,072.27	78.3175	1,072.27	78.3184	1,072.27	77.9489	1,072.27	79.1386	1,072.27	78.7024	1,072.27	79.0626	1,072.27	79.0962	1,072.27	77.902	1,072.27	78.4173	1,072.27	75.2529	1,072.27	76.3818	1,072.27	68.6217	1,072.27	72.4297	1,072.27	69.1262	1,072.27	62.0006	1,072.27	75.0629	1,072.27	66.957	1,072.27	76.7746	1,072.27	74.0129	1,072.27	76.4159
1,108.89	86.53	1,108.89	86.2922	1,108.89	86.4811	1,108.89	85.8702	1,108.89	86.1115	1,108.89	85.3146	1,108.89	85.4495	1,108.89	84.4924	1,108.89	84.6194	1,108.89	83.2917	1,108.89	83.7498	1,108.89	81.8882	1,108.89	82.7232	1,108.89	80.4705	1,108.89	81.2326	1,108.89	79.0146	1,108.89	79.3282	1,108.89	77.9836	1,108.89	77.8007	1,108.89	78.017	1,108.89	77.2711	1,108.89	78.4405	1,108.89	77.6463	1,108.89	77.9643	1,108.89	78.056	1,108.89	75.4517	1,108.89	77.0656	1,108.89	69.3997	1,108.89	73.2622	1,108.89	65.0933	1,108.89	64.3318	1,108.89	71.4761	1,108.89	67.6806	1,108.89	73.6436	1,108.89	71.9904	1,108.89	73.5098
1,148.44	86.342	1,148.44	86.3009	1,148.44	86.1036	1,148.44	85.7868	1,148.44	85.7885	1,148.44	84.9629	1,148.44	85.3482	1,148.44	84.1231	1,148.44	84.6717	1,148.44	83.1484	1,148.44	83.6793	1,148.44	81.7185	1,148.44	82.26	1,148.44	79.9986	1,148.44	80.5453	1,148.44	78.4173	1,148.44	78.9687	1,148.44	76.975	1,148.44	77.8283	1,148.44	76.5125	1,148.44	77.4317	1,148.44	76.9457	1,148.44	77.3793	1,148.44	76.1476	1,148.44	76.7567	1,148.44	73.5467	1,148.44	75.3458	1,148.44	67.7712	1,148.44	72.1581	1,148.44	66.4784	1,148.44	62.805	1,148.44	72.0625	1,148.44	65.6877	1,148.44	75.2429	1,148.44	74.0197	1,148.44	76.2289
1,189.45	86.0198	1,189.45	85.7023	1,189.45	86.0751	1,189.45	85.1619	1,189.45	85.9005	1,189.45	84.5069	1,189.45	85.4208	1,189.45	83.6753	1,189.45	84.5833	1,189.45	82.5388	1,189.45	83.5544	1,189.45	81.0997	1,189.45	82.4764	1,189.45	79.1744	1,189.45	81.1231	1,189.45	76.5665	1,189.45	79.2448	1,189.45	74.9976	1,189.45	77.3233	1,189.45	75.8429	1,189.45	76.2833	1,189.45	76.7148	1,189.45	76.3484	1,189.45	76.2237	1,189.45	76.7863	1,189.45	74.2555	1,189.45	76.4726	1,189.45	69.9267	1,189.45	74.3864	1,189.45	60.559	1,189.45	69.3341	1,189.45	70.2623	1,189.45	66.0748	1,189.45	74.2437	1,189.45	71.4288	1,189.45	74.2494
1,230.47	86.5773	1,230.47	86.3197	1,230.47	86.5986	1,230.47	85.7494	1,230.47	86.328	1,230.47	84.8828	1,230.47	85.74	1,230.47	83.9696	1,230.47	84.9261	1,230.47	83.0194	1,230.47	83.9007	1,230.47	81.6218	1,230.47	82.6335	1,230.47	79.6828	1,230.47	81.2237	1,230.47	77.7847	1,230.47	79.6639	1,230.47	76.4426	1,230.47	77.9152	1,230.47	75.9071	1,230.47	76.8565	1,230.47	76.4472	1,230.47	77.0761	1,230.47	76.5581	1,230.47	77.3062	1,230.47	74.4253	1,230.47	76.2112	1,230.47	67.8323	1,230.47	73.0539	1,230.47	64.7827	1,230.47	67.0029	1,230.47	71.1119	1,230.47	67.1237	1,230.47	73.3074	1,230.47	72.4023	1,230.47	73.9409
1,274.41	86.7673	1,274.41	86.5479	1,274.41	86.6385	1,274.41	85.9267	1,274.41	86.2535	1,274.41	85.083	1,274.41	85.5896	1,274.41	84.1799	1,274.41	84.6754	1,274.41	83.0931	1,274.41	83.5931	1,274.41	81.7225	1,274.41	82.276	1,274.41	80.1835	1,274.41	80.664	1,274.41	78.4313	1,274.41	79.0059	1,274.41	76.4338	1,274.41	77.5202	1,274.41	75.5267	1,274.41	76.31	1,274.41	76.1376	1,274.41	75.9352	1,274.41	76.1024	1,274.41	76.2692	1,274.41	74.5459	1,274.41	76.0048	1,274.41	70.7742	1,274.41	73.8058	1,274.41	63.8846	1,274.41	68.5407	1,274.41	69.3454	1,274.41	67.1576	1,274.41	73.6573	1,274.41	72.4128	1,274.41	74.4682
1,319.82	86.7845	1,319.82	86.6239	1,319.82	86.6993	1,319.82	86.0969	1,319.82	86.3559	1,319.82	85.2763	1,319.82	85.6647	1,319.82	84.3658	1,319.82	84.6496	1,319.82	83.2412	1,319.82	83.4137	1,319.82	81.7681	1,319.82	82.1751	1,319.82	80.32	1,319.82	81.0106	1,319.82	78.9049	1,319.82	79.3841	1,319.82	76.9356	1,319.82	76.9809	1,319.82	75.0572	1,319.82	75.24	1,319.82	74.9726	1,319.82	75.7217	1,319.82	75.4485	1,319.82	76.4762	1,319.82	74.3151	1,319.82	75.9009	1,319.82	69.7131	1,319.82	73.5564	1,319.82	56.9025	1,319.82	66.8629	1,319.82	70.122	1,319.82	65.7915	1,319.82	74.1518	1,319.82	72.8647	1,319.82	74.7202
1,366.7	86.8364	1,366.7	86.5639	1,366.7	86.6741	1,366.7	85.8979	1,366.7	86.1131	1,366.7	84.9394	1,366.7	85.1758	1,366.7	83.7608	1,366.7	84.0038	1,366.7	82.5293	1,366.7	82.8786	1,366.7	81.3168	1,366.7	81.7895	1,366.7	79.7735	1,366.7	80.4021	1,366.7	77.7427	1,366.7	78.54	1,366.7	75.7674	1,366.7	76.1832	1,366.7	74.6956	1,366.7	73.8366	1,366.7	75.2932	1,366.7	74.1349	1,366.7	75.9234	1,366.7	76.2806	1,366.7	75.2324	1,366.7	76.3249	1,366.7	72.0655	1,366.7	73.3677	1,366.7	61.9525	1,366.7	66.517	1,366.7	65.7724	1,366.7	59.8077	1,366.7	71.5876	1,366.7	69.7848	1,366.7	72.5419
1,413.57	86.4794	1,413.57	86.2848	1,413.57	86.1829	1,413.57	85.7399	1,413.57	85.6602	1,413.57	84.8164	1,413.57	85.1209	1,413.57	83.3787	1,413.57	84.1024	1,413.57	81.8717	1,413.57	82.3409	1,413.57	80.6115	1,413.57	80.3918	1,413.57	79.1386	1,413.57	78.6837	1,413.57	77.5328	1,413.57	77.0628	1,413.57	76.1184	1,413.57	76.0441	1,413.57	74.358	1,413.57	75.3873	1,413.57	73.1211	1,413.57	73.6038	1,413.57	74.3824	1,413.57	72.7768	1,413.57	75.2795	1,413.57	74.6252	1,413.57	73.5219	1,413.57	74.9137	1,413.57	68.7541	1,413.57	71.4145	1,413.57	63.1712	1,413.57	62.8276	1,413.57	67.9576	1,413.57	60.4875	1,413.57	67.4352
1,463.38	85.2202	1,463.38	85.0127	1,463.38	85.1807	1,463.38	84.4961	1,463.38	84.8131	1,463.38	83.8025	1,463.38	83.9248	1,463.38	82.9903	1,463.38	82.6849	1,463.38	81.6859	1,463.38	81.4986	1,463.38	79.8069	1,463.38	80.2969	1,463.38	78.2088	1,463.38	78.6982	1,463.38	77.3724	1,463.38	77.0503	1,463.38	76.1681	1,463.38	75.8203	1,463.38	74.1307	1,463.38	74.1217	1,463.38	73.1332	1,463.38	71.3001	1,463.38	73.4206	1,463.38	70.4397	1,463.38	73.3342	1,463.38	71.5277	1,463.38	72.5374	1,463.38	71.9453	1,463.38	70.011	1,463.38	69.8334	1,463.38	66.662	1,463.38	64.1761	1,463.38	68.8728	1,463.38	67.8237	1,463.38	70.3088
1,516.11	84.6031	1,516.11	84.2141	1,516.11	84.6843	1,516.11	83.6575	1,516.11	84.1059	1,516.11	82.8682	1,516.11	83.0561	1,516.11	82.0165	1,516.11	82.2082	1,516.11	81.0223	1,516.11	81.4648	1,516.11	79.4234	1,516.11	80.0663	1,516.11	77.3512	1,516.11	77.9402	1,516.11	75.6472	1,516.11	75.6907	1,516.11	74.7998	1,516.11	73.9951	1,516.11	73.9024	1,516.11	73.6216	1,516.11	72.7898	1,516.11	73.2049	1,516.11	71.9841	1,516.11	71.9893	1,516.11	70.8044	1,516.11	71.1659	1,516.11	69.1573	1,516.11	70.4935	1,516.11	69.0049	1,516.11	68.0316	1,516.11	70.0101	1,516.11	66.7955	1,516.11	71.5584	1,516.11	70.145	1,516.11	72.0786
1,568.85	84.8141	1,568.85	84.511	1,568.85	84.808	1,568.85	83.7632	1,568.85	84.4476	1,568.85	82.6468	1,568.85	83.5948	1,568.85	81.5555	1,568.85	82.3754	1,568.85	80.5453	1,568.85	81.1086	1,568.85	79.1236	1,568.85	79.9123	1,568.85	77.1329	1,568.85	78.5678	1,568.85	75.1636	1,568.85	76.734	1,568.85	73.6879	1,568.85	74.606	1,568.85	73.0027	1,568.85	73.4186	1,568.85	72.6345	1,568.85	73.5709	1,568.85	71.9644	1,568.85	73.5158	1,568.85	71.1628	1,568.85	72.4117	1,568.85	69.1147	1,568.85	70.5846	1,568.85	66.9533	1,568.85	68.5445	1,568.85	70.7514	1,568.85	66.5779	1,568.85	72.67	1,568.85	67.8987	1,568.85	71.2499
1,624.51	85.2871	1,624.51	84.8075	1,624.51	85.1636	1,624.51	83.7677	1,624.51	84.6727	1,624.51	82.5016	1,624.51	83.958	1,624.51	81.2994	1,624.51	82.7597	1,624.51	80.2136	1,624.51	81.1014	1,624.51	79.0666	1,624.51	79.9371	1,624.51	77.5092	1,624.51	79.3219	1,624.51	75.3371	1,624.51	77.7539	1,624.51	73.5946	1,624.51	74.7611	1,624.51	72.1008	1,624.51	72.5512	1,624.51	70.3646	1,624.51	73.1563	1,624.51	69.8191	1,624.51	73.3611	1,624.51	69.332	1,624.51	71.9382	1,624.51	67.1872	1,624.51	70.9282	1,624.51	65.9478	1,624.51	70.0911	1,624.51	68.5773	1,624.51	68.5524	1,624.51	71.3866	1,624.51	70.5259	1,624.51	72.2389
1,681.64	85.8853	1,681.64	85.4891	1,681.64	85.9057	1,681.64	84.7518	1,681.64	85.3635	1,681.64	83.5634	1,681.64	84.2829	1,681.64	82.041	1,681.64	83.1108	1,681.64	80.621	1,681.64	82.1599	1,681.64	79.5489	1,681.64	81.0715	1,681.64	78.2887	1,681.64	79.4693	1,681.64	76.0584	1,681.64	77.6662	1,681.64	73.2626	1,681.64	76.1657	1,681.64	72.5482	1,681.64	75.3911	1,681.64	72.2835	1,681.64	74.8499	1,681.64	70.1157	1,681.64	73.1039	1,681.64	69.0257	1,681.64	70.7189	1,681.64	69.0122	1,681.64	70.5733	1,681.64	67.0024	1,681.64	70.2117	1,681.64	69.8153	1,681.64	70.7967	1,681.64	73.0979	1,681.64	73.6002	1,681.64	74.4788
1,741.7	86.5342	1,741.7	86.0536	1,741.7	86.3519	1,741.7	85.2049	1,741.7	85.6022	1,741.7	84.0358	1,741.7	84.67	1,741.7	82.3481	1,741.7	83.4294	1,741.7	80.6666	1,741.7	81.7122	1,741.7	79.9505	1,741.7	80.4803	1,741.7	79.4786	1,741.7	80.0027	1,741.7	77.5787	1,741.7	78.6666	1,741.7	73.9488	1,741.7	75.9642	1,741.7	72.9484	1,741.7	73.7412	1,741.7	74.5969	1,741.7	74.3246	1,741.7	73.4057	1,741.7	74.6577	1,741.7	68.803	1,741.7	72.5677	1,741.7	63.858	1,741.7	67.4162	1,741.7	66.698	1,741.7	66.0304	1,741.7	72.8322	1,741.7	71.4358	1,741.7	75.8792	1,741.7	74.621	1,741.7	76.1913
1,803.22	85.9651	1,803.22	85.6561	1,803.22	85.9108	1,803.22	85.0244	1,803.22	85.4072	1,803.22	84.1191	1,803.22	84.3711	1,803.22	82.8082	1,803.22	82.9614	1,803.22	81.0009	1,803.22	81.3479	1,803.22	79.4969	1,803.22	79.5826	1,803.22	78.9502	1,803.22	78.6353	1,803.22	78.0578	1,803.22	78.4494	1,803.22	75.5108	1,803.22	76.729	1,803.22	72.6759	1,803.22	72.2715	1,803.22	73.3816	1,803.22	71.7803	1,803.22	74.3318	1,803.22	74.1259	1,803.22	72.9764	1,803.22	74.0682	1,803.22	67.9336	1,803.22	70.7326	1,803.22	57.8289	1,803.22	57.6701	1,803.22	70.5857	1,803.22	67.5557	1,803.22	74.8811	1,803.22	73.8369	1,803.22	75.7358
1,866.21	85.38	1,866.21	85.0589	1,866.21	85.1521	1,866.21	84.4168	1,866.21	84.5536	1,866.21	83.5338	1,866.21	83.8075	1,866.21	82.2467	1,866.21	82.6661	1,866.21	80.5567	1,866.21	80.9164	1,866.21	78.9244	1,866.21	78.6846	1,866.21	78.0826	1,866.21	76.8279	1,866.21	77.4367	1,866.21	76.0825	1,866.21	75.5008	1,866.21	75.5368	1,866.21	72.1262	1,866.21	73.6359	1,866.21	71.6231	1,866.21	70.2873	1,866.21	73.7095	1,866.21	70.3215	1,866.21	73.6109	1,866.21	72.6788	1,866.21	70.4846	1,866.21	72.3654	1,866.21	57.0134	1,866.21	68.071	1,866.21	67.2709	1,866.21	59.3621	1,866.21	72.0843	1,866.21	70.4081	1,866.21	72.8711
1,932.13	84.5544	1,932.13	84.4334	1,932.13	84.4569	1,932.13	83.7831	1,932.13	84.0661	1,932.13	82.6332	1,932.13	83.2917	1,932.13	81.486	1,932.13	82.3061	1,932.13	80.0962	1,932.13	81.1526	1,932.13	78.0827	1,932.13	79.5164	1,932.13	76.8047	1,932.13	77.2884	1,932.13	76.5042	1,932.13	75.6709	1,932.13	74.8201	1,932.13	75.3411	1,932.13	71.5954	1,932.13	73.7984	1,932.13	70.8875	1,932.13	69.3038	1,932.13	71.9058	1,932.13	68.0664	1,932.13	71.7017	1,932.13	70.3741	1,932.13	69.4847	1,932.13	71.0892	1,932.13	59.8781	1,932.13	69.1825	1,932.13	64.1157	1,932.13	56.6322	1,932.13	70.6961	1,932.13	66.2874	1,932.13	71.1501
1,999.51	85.1143	1,999.51	84.7411	1,999.51	85.0345	1,999.51	83.7993	1,999.51	84.6362	1,999.51	82.686	1,999.51	83.7826	1,999.51	81.3512	1,999.51	82.7837	1,999.51	79.4996	1,999.51	81.7986	1,999.51	77.6005	1,999.51	80.4028	1,999.51	76.1387	1,999.51	78.7934	1,999.51	74.4503	1,999.51	77.2681	1,999.51	72.6301	1,999.51	75.2032	1,999.51	71.9011	1,999.51	72.7236	1,999.51	71.1402	1,999.51	71.8681	1,999.51	70.4916	1,999.51	71.8563	1,999.51	71.2229	1,999.51	71.3017	1,999.51	69.8763	1,999.51	71.2944	1,999.51	63.4182	1,999.51	70.0523	1,999.51	57.568	1,999.51	63.8215	1,999.51	68.2834	1,999.51	63.9464	1,999.51	69.5215
2,069.82	85.4187	2,069.82	85.0656	2,069.82	85.2833	2,069.82	84.4045	2,069.82	84.7146	2,069.82	83.2967	2,069.82	83.9589	2,069.82	81.9238	2,069.82	82.9069	2,069.82	80.3225	2,069.82	81.7497	2,069.82	78.3843	2,069.82	80.4299	2,069.82	76.9933	2,069.82	78.5841	2,069.82	75.8429	2,069.82	77.4844	2,069.82	73.9889	2,069.82	76.8481	2,069.82	71.8135	2,069.82	74.5017	2,069.82	70.5494	2,069.82	72.5434	2,069.82	71.1659	2,069.82	72.3561	2,069.82	71.437	2,069.82	72.4186	2,069.82	70.8495	2,069.82	72.7148	2,069.82	66.5407	2,069.82	70.5336	2,069.82	52.6557	2,069.82	62.8633	2,069.82	67.771	2,069.82	63.5052	2,069.82	68.5412
2,143.07	85.3553	2,143.07	85.1022	2,143.07	85.2184	2,143.07	84.2727	2,143.07	84.7626	2,143.07	83.5351	2,143.07	83.522	2,143.07	82.3829	2,143.07	82.4004	2,143.07	80.7703	2,143.07	81.5983	2,143.07	78.853	2,143.07	80.1819	2,143.07	76.8269	2,143.07	78.5606	2,143.07	76.2449	2,143.07	77.0748	2,143.07	75.0376	2,143.07	75.6081	2,143.07	71.8845	2,143.07	73.8818	2,143.07	70.7044	2,143.07	71.5235	2,143.07	71.1966	2,143.07	69.9367	2,143.07	70.6313	2,143.07	71.2786	2,143.07	71.0752	2,143.07	72.7047	2,143.07	69.302	2,143.07	71.1387	2,143.07	60.7162	2,143.07	64.258	2,143.07	64.0438	2,143.07	61.7984	2,143.07	65.7728
2,219.24	84.2093	2,219.24	84.2174	2,219.24	83.8992	2,219.24	83.4469	2,219.24	83.4572	2,219.24	82.5422	2,219.24	82.8032	2,219.24	81.6392	2,219.24	81.5987	2,219.24	80.3847	2,219.24	79.7794	2,219.24	79.0847	2,219.24	78.6114	2,219.24	77.4178	2,219.24	76.7401	2,219.24	75.9477	2,219.24	74.4279	2,219.24	75.2578	2,219.24	74.1314	2,219.24	73.5523	2,219.24	74.1983	2,219.24	71.0405	2,219.24	71.7794	2,219.24	70.9927	2,219.24	67.6805	2,219.24	70.8153	2,219.24	69.4861	2,219.24	70.0123	2,219.24	71.3168	2,219.24	68.5184	2,219.24	70.0707	2,219.24	62.7889	2,219.24	65.315	2,219.24	67.0006	2,219.24	55.042	2,219.24	65.7467
2,296.88	83.6996	2,296.88	82.9398	2,296.88	83.668	2,296.88	82.7509	2,296.88	82.9067	2,296.88	81.7862	2,296.88	82.1218	2,296.88	79.7232	2,296.88	81.2403	2,296.88	78.7371	2,296.88	80.2541	2,296.88	77.2863	2,296.88	78.6547	2,296.88	74.949	2,296.88	77.365	2,296.88	74.6225	2,296.88	75.8354	2,296.88	73.4354	2,296.88	73.4626	2,296.88	72.743	2,296.88	72.1414	2,296.88	71.1173	2,296.88	70.7091	2,296.88	68.3164	2,296.88	70.3189	2,296.88	69.5096	2,296.88	67.1461	2,296.88	71.945	2,296.88	69.376	2,296.88	68.5639	2,296.88	70.8022	2,296.88	64.7795	2,296.88	67.5141	2,296.88	62.8724	2,296.88	61.9755	2,296.88	64.2439
2,378.91	84.2144	2,378.91	84.0999	2,378.91	84.7153	2,378.91	83.3478	2,378.91	84.0942	2,378.91	81.9061	2,378.91	83.4901	2,378.91	81.2656	2,378.91	82.2174	2,378.91	80.4092	2,378.91	81.7536	2,378.91	78.6862	2,378.91	80.4656	2,378.91	76.2563	2,378.91	79.4085	2,378.91	74.1358	2,378.91	77.939	2,378.91	72.0525	2,378.91	76.2861	2,378.91	69.9402	2,378.91	75.8313	2,378.91	71.2809	2,378.91	71.0213	2,378.91	68.3755	2,378.91	71.6663	2,378.91	67.1037	2,378.91	71.7179	2,378.91	71.0771	2,378.91	69.1229	2,378.91	68.8917	2,378.91	73.5345	2,378.91	60.924	2,378.91	69.9538	2,378.91	65.3125	2,378.91	65.1969	2,378.91	68.1662
2,462.4	85.4648	2,462.4	85.1858	2,462.4	85.3004	2,462.4	84.4836	2,462.4	85.091	2,462.4	83.6831	2,462.4	84.3796	2,462.4	82.6873	2,462.4	83.6054	2,462.4	81.6299	2,462.4	82.6075	2,462.4	80.2941	2,462.4	81.6499	2,462.4	78.5776	2,462.4	79.9701	2,462.4	76.2211	2,462.4	77.916	2,462.4	75.3607	2,462.4	76.8112	2,462.4	73.1094	2,462.4	75.9551	2,462.4	71.94	2,462.4	74.1302	2,462.4	72.2291	2,462.4	73.6089	2,462.4	69.2182	2,462.4	72.8529	2,462.4	70.3332	2,462.4	70.7046	2,462.4	71.2408	2,462.4	71.4578	2,462.4	63.8286	2,462.4	69.8145	2,462.4	65.176	2,462.4	65.9539	2,462.4	68.1814
2,548.83	84.5163	2,548.83	84.1431	2,548.83	84.4839	2,548.83	84.0121	2,548.83	84.2045	2,548.83	83.3932	2,548.83	83.8586	2,548.83	82.3135	2,548.83	82.9791	2,548.83	81.2139	2,548.83	81.9079	2,548.83	80.6241	2,548.83	81.2061	2,548.83	78.6048	2,548.83	79.6861	2,548.83	76.8887	2,548.83	77.6116	2,548.83	75.1508	2,548.83	75.2688	2,548.83	74.1981	2,548.83	75.0964	2,548.83	73.1736	2,548.83	72.8777	2,548.83	73.7197	2,548.83	73.2053	2,548.83	71.8106	2,548.83	72.5433	2,548.83	70.0383	2,548.83	69.1847	2,548.83	70.5531	2,548.83	71.0213	2,548.83	65.3724	2,548.83	69.5205	2,548.83	61.6495	2,548.83	61.7868	2,548.83	65.2492
2,639.65	82.8194	2,639.65	82.5186	2,639.65	83.2369	2,639.65	82.2659	2,639.65	82.8494	2,639.65	81.717	2,639.65	82.8342	2,639.65	81.3475	2,639.65	82.0108	2,639.65	80.6719	2,639.65	80.8785	2,639.65	79.4481	2,639.65	79.3613	2,639.65	78.0688	2,639.65	78.5171	2,639.65	77.3333	2,639.65	77.2572	2,639.65	74.8163	2,639.65	75.3008	2,639.65	73.4703	2,639.65	73.4997	2,639.65	72.0404	2,639.65	71.0759	2,639.65	71.7461	2,639.65	72.0689	2,639.65	71.0839	2,639.65	72.1139	2,639.65	71.0541	2,639.65	69.3162	2,639.65	71.0696	2,639.65	70.2791	2,639.65	66.1065	2,639.65	68.2715	2,639.65	62.3675	2,639.65	59.5704	2,639.65	64.5618
2,731.93	82.0836	2,731.93	82.21	2,731.93	82.7045	2,731.93	81.6966	2,731.93	82.4622	2,731.93	81.2955	2,731.93	82.522	2,731.93	80.4902	2,731.93	81.9852	2,731.93	80.1878	2,731.93	81.4763	2,731.93	78.7813	2,731.93	80.1055	2,731.93	77.2197	2,731.93	78.8238	2,731.93	76.2737	2,731.93	77.6581	2,731.93	74.3765	2,731.93	75.369	2,731.93	73.6478	2,731.93	73.7239	2,731.93	70.022	2,731.93	72.5319	2,731.93	70.6617	2,731.93	71.7411	2,731.93	70.0044	2,731.93	72.4646	2,731.93	69.4612	2,731.93	71.7699	2,731.93	70.9183	2,731.93	70.4035	2,731.93	66.0593	2,731.93	70.6799	2,731.93	58.4895	2,731.93	65.772	2,731.93	50.4686
2,828.61	82.8328	2,828.61	83.0491	2,828.61	82.4232	2,828.61	82.4832	2,828.61	83.5562	2,828.61	82.4297	2,828.61	83.037	2,828.61	81.8305	2,828.61	82.9996	2,828.61	79.9949	2,828.61	82.1443	2,828.61	78.8929	2,828.61	81.2146	2,828.61	78.2259	2,828.61	79.9646	2,828.61	74.8788	2,828.61	78.0961	2,828.61	74.0646	2,828.61	75.5816	2,828.61	72.3385	2,828.61	74.4059	2,828.61	68.603	2,828.61	73.7405	2,828.61	71.436	2,828.61	70.8619	2,828.61	69.9635	2,828.61	73.2468	2,828.61	68.8108	2,828.61	71.6159	2,828.61	70.6459	2,828.61	71.163	2,828.61	67.6393	2,828.61	71.4271	2,828.61	63.6979	2,828.61	64.9765	2,828.61	63.661
2,928.22	83.468	2,928.22	83.27	2,928.22	83.3878	2,928.22	83.4378	2,928.22	83.8204	2,928.22	83.2738	2,928.22	83.5464	2,928.22	82.6648	2,928.22	83.2799	2,928.22	80.4707	2,928.22	82.6144	2,928.22	79.327	2,928.22	80.9648	2,928.22	78.3024	2,928.22	79.6547	2,928.22	75.2754	2,928.22	78.1669	2,928.22	74.3047	2,928.22	76.2926	2,928.22	73.9222	2,928.22	75.1727	2,928.22	70.2316	2,928.22	72.8102	2,928.22	70.7675	2,928.22	70.0332	2,928.22	71.9556	2,928.22	72.141	2,928.22	67.7666	2,928.22	70.7475	2,928.22	70.4611	2,928.22	71.6243	2,928.22	69.2792	2,928.22	71.8083	2,928.22	56.8682	2,928.22	68.3213	2,928.22	62.37
3,030.76	83.5759	3,030.76	83.6515	3,030.76	83.3907	3,030.76	83.6428	3,030.76	83.7915	3,030.76	83.5092	3,030.76	83.6937	3,030.76	83.0572	3,030.76	83.3519	3,030.76	81.4161	3,030.76	82.6322	3,030.76	79.9402	3,030.76	80.9968	3,030.76	78.052	3,030.76	78.8835	3,030.76	75.8731	3,030.76	77.6368	3,030.76	74.7855	3,030.76	75.4247	3,030.76	74.1104	3,030.76	74.5422	3,030.76	71.549	3,030.76	73.0775	3,030.76	71.0245	3,030.76	70.0934	3,030.76	72.0404	3,030.76	72.5264	3,030.76	67.9236	3,030.76	71.0899	3,030.76	69.5587	3,030.76	69.1456	3,030.76	68.0271	3,030.76	71.5643	3,030.76	65.4692	3,030.76	67.9628	3,030.76	65.6012
3,137.7	83.3831	3,137.7	83.505	3,137.7	83.737	3,137.7	83.7286	3,137.7	83.6801	3,137.7	83.5954	3,137.7	83.78	3,137.7	82.8214	3,137.7	83.0959	3,137.7	81.5651	3,137.7	82.4898	3,137.7	79.711	3,137.7	81.0659	3,137.7	77.4756	3,137.7	78.9875	3,137.7	76.027	3,137.7	77.3252	3,137.7	73.847	3,137.7	74.9415	3,137.7	73.1375	3,137.7	73.4371	3,137.7	71.0845	3,137.7	73.6542	3,137.7	71.1457	3,137.7	69.8506	3,137.7	72.9282	3,137.7	72.7227	3,137.7	69.5103	3,137.7	71.111	3,137.7	70.7998	3,137.7	67.7391	3,137.7	68.3265	3,137.7	70.1762	3,137.7	63.9399	3,137.7	65.8745	3,137.7	66.9697
3,249.02	82.8193	3,249.02	82.5794	3,249.02	83.2643	3,249.02	83.0926	3,249.02	83.3257	3,249.02	82.9912	3,249.02	83.7994	3,249.02	82.3819	3,249.02	83.387	3,249.02	81.5061	3,249.02	82.6096	3,249.02	79.2636	3,249.02	81.0856	3,249.02	76.3445	3,249.02	79.2029	3,249.02	75.5406	3,249.02	77.4207	3,249.02	73.9244	3,249.02	75.5954	3,249.02	72.996	3,249.02	73.2851	3,249.02	70.2471	3,249.02	72.3753	3,249.02	68.8023	3,249.02	69.1117	3,249.02	72.9068	3,249.02	71.4908	3,249.02	69.2813	3,249.02	72.7236	3,249.02	70.8592	3,249.02	69.1677	3,249.02	69.2804	3,249.02	70.9442	3,249.02	65.8855	3,249.02	68.4453	3,249.02	65.4258
3,363.28	82.6704	3,363.28	82.6437	3,363.28	83.2494	3,363.28	83.2029	3,363.28	83.2533	3,363.28	83.1498	3,363.28	83.7218	3,363.28	82.3013	3,363.28	83.192	3,363.28	81.5208	3,363.28	82.4968	3,363.28	79.735	3,363.28	81.2495	3,363.28	76.7203	3,363.28	79.1817	3,363.28	75.1188	3,363.28	77.2711	3,363.28	72.5704	3,363.28	75.5387	3,363.28	72.2449	3,363.28	73.5442	3,363.28	70.4799	3,363.28	72.8906	3,363.28	65.8495	3,363.28	69.6317	3,363.28	70.724	3,363.28	70.592	3,363.28	68.9394	3,363.28	73.8159	3,363.28	68.5508	3,363.28	69.3379	3,363.28	67.071	3,363.28	69.8434	3,363.28	61.3803	3,363.28	66.7718	3,363.28	59.2139
3,481.93	83.4063	3,481.93	83.7132	3,481.93	83.4598	3,481.93	83.6046	3,481.93	84.2051	3,481.93	83.6482	3,481.93	84.0513	3,481.93	83.0449	3,481.93	84.0637	3,481.93	82.2066	3,481.93	82.8524	3,481.93	80.7985	3,481.93	81.1763	3,481.93	78.3798	3,481.93	79.1628	3,481.93	76.0411	3,481.93	76.7511	3,481.93	73.5757	3,481.93	74.9709	3,481.93	72.2614	3,481.93	73.1888	3,481.93	71.8017	3,481.93	72.6779	3,481.93	68.5651	3,481.93	70.9789	3,481.93	71.2527	3,481.93	69.9232	3,481.93	70.2543	3,481.93	72.4872	3,481.93	69.3823	3,481.93	69.5569	3,481.93	67.9278	3,481.93	69.7831	3,481.93	57.1355	3,481.93	62.8031	3,481.93	57.3044
3,604.98	84.4085	3,604.98	84.8898	3,604.98	84.2814	3,604.98	85.0304	3,604.98	85.2658	3,604.98	84.5313	3,604.98	85.3407	3,604.98	84.0493	3,604.98	84.9923	3,604.98	82.1589	3,604.98	83.5197	3,604.98	80.2956	3,604.98	81.8522	3,604.98	78.5556	3,604.98	80.0134	3,604.98	75.5081	3,604.98	77.811	3,604.98	72.9832	3,604.98	75.6801	3,604.98	70.2422	3,604.98	74.486	3,604.98	70.7067	3,604.98	72.0513	3,604.98	68.3692	3,604.98	71.8325	3,604.98	71.0255	3,604.98	69.767	3,604.98	71.8457	3,604.98	72.2659	3,604.98	69.1497	3,604.98	71.6458	3,604.98	67.7266	3,604.98	70.6979	3,604.98	58.0295	3,604.98	65.2308	3,604.98	58.9435
3,732.42	85.5631	3,732.42	86.0649	3,732.42	85.2138	3,732.42	86.1922	3,732.42	85.9097	3,732.42	85.594	3,732.42	85.8167	3,732.42	84.8975	3,732.42	85.3201	3,732.42	82.7181	3,732.42	84.0034	3,732.42	80.3063	3,732.42	82.2726	3,732.42	78.1489	3,732.42	80.4785	3,732.42	75.7566	3,732.42	78.0976	3,732.42	73.5533	3,732.42	75.1391	3,732.42	71.6472	3,732.42	74.963	3,732.42	72.0205	3,732.42	72.3842	3,732.42	70.5158	3,732.42	72.1712	3,732.42	69.7724	3,732.42	69.0904	3,732.42	72.4863	3,732.42	72.594	3,732.42	68.1902	3,732.42	72.4753	3,732.42	68.0898	3,732.42	69.9849	3,732.42	53.2816	3,732.42	65.3492	3,732.42	57.4431
3,864.26	85.1738	3,864.26	85.7797	3,864.26	85.0256	3,864.26	85.9375	3,864.26	85.1894	3,864.26	85.3019	3,864.26	85.0078	3,864.26	84.165	3,864.26	84.2367	3,864.26	81.7032	3,864.26	82.694	3,864.26	79.6318	3,864.26	81.5293	3,864.26	77.5244	3,864.26	79.9625	3,864.26	75.7891	3,864.26	76.6263	3,864.26	72.92	3,864.26	74.4566	3,864.26	72.0128	3,864.26	73.138	3,864.26	70.0896	3,864.26	71.6236	3,864.26	70.8863	3,864.26	71.5659	3,864.26	70.065	3,864.26	68.8201	3,864.26	71.6319	3,864.26	72.0089	3,864.26	70.0223	3,864.26	71.9261	3,864.26	67.822	3,864.26	69.9717	3,864.26	54.4425	3,864.26	66.311	3,864.26	57.7914
4,000.49	85.5308	4,000.49	85.5519	4,000.49	85.9696	4,000.49	85.4692	4,000.49	85.5317	4,000.49	85.0574	4,000.49	85.4515	4,000.49	83.3471	4,000.49	84.6057	4,000.49	81.3788	4,000.49	83.4741	4,000.49	78.9778	4,000.49	81.6936	4,000.49	76.2432	4,000.49	79.7901	4,000.49	75.6756	4,000.49	76.5299	4,000.49	71.0966	4,000.49	75.6267	4,000.49	70.112	4,000.49	73.0089	4,000.49	69.3918	4,000.49	72.4823	4,000.49	69.3322	4,000.49	71.4552	4,000.49	69.3688	4,000.49	70.6408	4,000.49	71.7199	4,000.49	71.8422	4,000.49	70.2226	4,000.49	72.3801	4,000.49	68.6625	4,000.49	71.1258	4,000.49	54.1485	4,000.49	67.4057	4,000.49	50.4736
4,141.11	85.651	4,141.11	85.4854	4,141.11	85.8123	4,141.11	85.8343	4,141.11	85.7126	4,141.11	85.3541	4,141.11	85.367	4,141.11	83.6067	4,141.11	84.8322	4,141.11	82.2527	4,141.11	83.7368	4,141.11	79.8802	4,141.11	81.3268	4,141.11	78.8874	4,141.11	79.2612	4,141.11	75.8116	4,141.11	77.0749	4,141.11	73.4441	4,141.11	75.4088	4,141.11	70.9831	4,141.11	71.9391	4,141.11	71.8632	4,141.11	70.1913	4,141.11	69.6706	4,141.11	70.9363	4,141.11	70.1267	4,141.11	69.7021	4,141.11	71.4338	4,141.11	69.6382	4,141.11	69.4444	4,141.11	71.6802	4,141.11	69.9724	4,141.11	72.0221	4,141.11	58.3792	4,141.11	67.5479	4,141.11	52.1694
4,287.6	84.2128	4,287.6	85.143	4,287.6	84.4179	4,287.6	84.5814	4,287.6	85.6518	4,287.6	84.6538	4,287.6	85.6588	4,287.6	83.8852	4,287.6	85.3965	4,287.6	82.3784	4,287.6	84.5931	4,287.6	80.3357	4,287.6	82.0558	4,287.6	77.9375	4,287.6	79.5368	4,287.6	75.6616	4,287.6	77.9738	4,287.6	74.5137	4,287.6	75.5614	4,287.6	73.1383	4,287.6	74.0238	4,287.6	71.4494	4,287.6	71.3878	4,287.6	70.6144	4,287.6	70.4205	4,287.6	70.0465	4,287.6	70.3459	4,287.6	70.5582	4,287.6	70.8598	4,287.6	69.9178	4,287.6	72.0959	4,287.6	68.9287	4,287.6	70.5123	4,287.6	45.7174	4,287.6	69.0912	4,287.6	53.7038
4,438.48	84.1835	4,438.48	84.4984	4,438.48	85.0168	4,438.48	84.8927	4,438.48	84.9865	4,438.48	85.275	4,438.48	86.2667	4,438.48	85.2209	4,438.48	85.3142	4,438.48	83.8381	4,438.48	83.5871	4,438.48	81.2471	4,438.48	82.2662	4,438.48	78.6559	4,438.48	80.4833	4,438.48	76.3822	4,438.48	78.3998	4,438.48	74.054	4,438.48	76.0391	4,438.48	72.1142	4,438.48	73.6598	4,438.48	68.5645	4,438.48	71.2204	4,438.48	69.7844	4,438.48	70.4795	4,438.48	70.0606	4,438.48	71.7477	4,438.48	71.2068	4,438.48	71.0708	4,438.48	69.6071	4,438.48	72.3538	4,438.48	67.8794	4,438.48	68.9518	4,438.48	56.7927	4,438.48	67.7621	4,438.48	57.9494
4,595.21	84.4361	4,595.21	84.5133	4,595.21	84.5265	4,595.21	85.6586	4,595.21	84.9449	4,595.21	85.2612	4,595.21	85.6653	4,595.21	84.3555	4,595.21	85.231	4,595.21	82.7431	4,595.21	84.2726	4,595.21	81.3338	4,595.21	82.8338	4,595.21	79.2681	4,595.21	81.3892	4,595.21	76.6875	4,595.21	79.9196	4,595.21	75.4576	4,595.21	77.4081	4,595.21	71.3982	4,595.21	74.7025	4,595.21	71.1727	4,595.21	72.2071	4,595.21	71.175	4,595.21	70.6805	4,595.21	72.5303	4,595.21	73.0473	4,595.21	72.9559	4,595.21	71.0288	4,595.21	70.7519	4,595.21	73.3125	4,595.21	70.6312	4,595.21	72.2293	4,595.21	55.2111	4,595.21	67.1977	4,595.21	59.5896
4,756.35	85.8797	4,756.35	86.1438	4,756.35	84.9955	4,756.35	85.599	4,756.35	86.4455	4,756.35	85.4331	4,756.35	85.7881	4,756.35	83.9234	4,756.35	86.2179	4,756.35	82.4054	4,756.35	85.7624	4,756.35	81.3633	4,756.35	84.0821	4,756.35	79.7081	4,756.35	81.8249	4,756.35	76.6491	4,756.35	80.7474	4,756.35	75.8677	4,756.35	78.3939	4,756.35	72.5029	4,756.35	75.5718	4,756.35	71.9385	4,756.35	75.1331	4,756.35	70.4156	4,756.35	73.1149	4,756.35	71.9207	4,756.35	71.5682	4,756.35	71.9104	4,756.35	72.9473	4,756.35	68.9593	4,756.35	74.1197	4,756.35	70.7269	4,756.35	71.3296	4,756.35	60.8655	4,756.35	68.0734	4,756.35	58.6752
4,924.8	86.037	4,924.8	86.1933	4,924.8	86.8015	4,924.8	85.2811	4,924.8	85.6451	4,924.8	85.1861	4,924.8	86.3079	4,924.8	84.9658	4,924.8	85.6321	4,924.8	83.9757	4,924.8	85.2657	4,924.8	82.8775	4,924.8	84.2774	4,924.8	80.6553	4,924.8	82.7243	4,924.8	78.4325	4,924.8	79.6356	4,924.8	75.6594	4,924.8	78.1285	4,924.8	76.5628	4,924.8	76.158	4,924.8	73.3464	4,924.8	74.4304	4,924.8	71.4883	4,924.8	73.4505	4,924.8	72.17	4,924.8	73.7244	4,924.8	71.549	4,924.8	72.6153	4,924.8	71.1785	4,924.8	73.0679	4,924.8	71.2229	4,924.8	71.3608	4,924.8	62.3298	4,924.8	68.6895	4,924.8	61.9755
5,097.66	86.882	5,097.66	86.267	5,097.66	87.0848	5,097.66	85.8685	5,097.66	86.0827	5,097.66	84.7453	5,097.66	85.9232	5,097.66	84.5706	5,097.66	84.8414	5,097.66	83.3875	5,097.66	84.1396	5,097.66	81.6387	5,097.66	83.6124	5,097.66	78.1639	5,097.66	81.6849	5,097.66	77.9719	5,097.66	79.8125	5,097.66	74.6077	5,097.66	78.0006	5,097.66	75.7733	5,097.66	75.5143	5,097.66	73.6643	5,097.66	74.0984	5,097.66	72.0695	5,097.66	73.1572	5,097.66	73.8839	5,097.66	72.5883	5,097.66	71.0672	5,097.66	71.2457	5,097.66	71.4967	5,097.66	72.0484	5,097.66	68.38	5,097.66	69.4545	5,097.66	56.2656	5,097.66	68.1763	5,097.66	61.9383
5,277.83	87.7614	5,277.83	86.9113	5,277.83	86.8327	5,277.83	86.0443	5,277.83	86.6929	5,277.83	85.2461	5,277.83	84.5541	5,277.83	84.6021	5,277.83	84.7731	5,277.83	84.0025	5,277.83	84.8972	5,277.83	83.034	5,277.83	83.1169	5,277.83	81.3869	5,277.83	81.0063	5,277.83	79.3803	5,277.83	81.15	5,277.83	76.6541	5,277.83	77.6412	5,277.83	71.3942	5,277.83	75.6498	5,277.83	69.6154	5,277.83	75.0635	5,277.83	71.9003	5,277.83	70.5241	5,277.83	72.2403	5,277.83	72.3934	5,277.83	71.7904	5,277.83	71.7109	5,277.83	69.4217	5,277.83	71.6207	5,277.83	67.4172	5,277.83	70.4542	5,277.83	61.6393	5,277.83	67.0175	5,277.83	65.0777
5,463.87	87.8041	5,463.87	86.7437	5,463.87	87.7906	5,463.87	85.1225	5,463.87	86.4519	5,463.87	84.2182	5,463.87	85.2626	5,463.87	83.3643	5,463.87	84.8806	5,463.87	83.2735	5,463.87	84.4813	5,463.87	81.7253	5,463.87	84.0975	5,463.87	82.0504	5,463.87	83.0297	5,463.87	77.4453	5,463.87	79.2058	5,463.87	76.8612	5,463.87	77.4742	5,463.87	73.2082	5,463.87	74.8667	5,463.87	71.6268	5,463.87	74.1261	5,463.87	71.9768	5,463.87	71.4159	5,463.87	71.8132	5,463.87	73.3821	5,463.87	70.6572	5,463.87	71.0847	5,463.87	70.9329	5,463.87	73.4585	5,463.87	66.6248	5,463.87	70.666	5,463.87	64.8778	5,463.87	62.4101	5,463.87	65.462
5,657.23	87.7972	5,657.23	87.1863	5,657.23	87.9636	5,657.23	85.429	5,657.23	85.395	5,657.23	84.6115	5,657.23	85.1804	5,657.23	84.6918	5,657.23	84.6387	5,657.23	84.0194	5,657.23	83.98	5,657.23	81.9635	5,657.23	83.4444	5,657.23	79.3987	5,657.23	80.6156	5,657.23	75.8071	5,657.23	79.6925	5,657.23	73.3072	5,657.23	76.1134	5,657.23	73.6885	5,657.23	76.0575	5,657.23	69.5169	5,657.23	72.9611	5,657.23	70.7525	5,657.23	71.2934	5,657.23	67.9231	5,657.23	73.4459	5,657.23	69.2839	5,657.23	71.0838	5,657.23	70.9671	5,657.23	70.8323	5,657.23	63.824	5,657.23	68.5591	5,657.23	62.907	5,657.23	64.7738	5,657.23	65.3251
5,856.45	87.4906	5,856.45	86.2629	5,856.45	86.8446	5,856.45	84.5793	5,856.45	86.1882	5,856.45	83.2874	5,856.45	83.402	5,856.45	83.9965	5,856.45	84.6873	5,856.45	82.7684	5,856.45	84.7827	5,856.45	82.1458	5,856.45	83.5048	5,856.45	76.0968	5,856.45	80.1137	5,856.45	77.0858	5,856.45	79.5011	5,856.45	73.0841	5,856.45	76.0879	5,856.45	71.4221	5,856.45	74.2539	5,856.45	70.186	5,856.45	71.5566	5,856.45	70.5034	5,856.45	70.6888	5,856.45	68.1554	5,856.45	73.4739	5,856.45	68.9208	5,856.45	71.1831	5,856.45	69.0419	5,856.45	70.4831	5,856.45	63.8391	5,856.45	69.3214	5,856.45	59.5414	5,856.45	60.0033	5,856.45	63.9623
6,062.99	87.165	6,062.99	86.0176	6,062.99	87.012	6,062.99	83.7129	6,062.99	85.6294	6,062.99	83.8368	6,062.99	84.6135	6,062.99	83.6964	6,062.99	83.5411	6,062.99	83.9282	6,062.99	84.6234	6,062.99	82.194	6,062.99	83.4193	6,062.99	80.4693	6,062.99	81.7206	6,062.99	76.3874	6,062.99	79.3402	6,062.99	72.4733	6,062.99	75.9784	6,062.99	67.7306	6,062.99	74.292	6,062.99	66.7772	6,062.99	72.3647	6,062.99	69.0291	6,062.99	70.9202	6,062.99	67.9995	6,062.99	72.6391	6,062.99	70.0735	6,062.99	71.1058	6,062.99	70.935	6,062.99	73.3096	6,062.99	63.6014	6,062.99	69.4532	6,062.99	60.0943	6,062.99	60.9305	6,062.99	63.1993
6,276.86	85.9195	6,276.86	84.563	6,276.86	86.5372	6,276.86	83.3877	6,276.86	84.1701	6,276.86	83.7246	6,276.86	84.825	6,276.86	84.1996	6,276.86	84.1636	6,276.86	82.9355	6,276.86	83.6732	6,276.86	79.6448	6,276.86	82.6059	6,276.86	78.1001	6,276.86	79.5384	6,276.86	74.3115	6,276.86	78.4939	6,276.86	71.0622	6,276.86	74.213	6,276.86	71.7353	6,276.86	73.2783	6,276.86	69.7324	6,276.86	69.7162	6,276.86	67.0511	6,276.86	71.6644	6,276.86	70.7371	6,276.86	70.1754	6,276.86	70.1993	6,276.86	69.1164	6,276.86	67.4922	6,276.86	70.055	6,276.86	58.6486	6,276.86	66.7907	6,276.86	57.2755	6,276.86	58.3997	6,276.86	67.1862
6,498.05	86.3084	6,498.05	85.2233	6,498.05	85.2204	6,498.05	84.549	6,498.05	85.6682	6,498.05	84.3193	6,498.05	84.1986	6,498.05	84.8374	6,498.05	85.9348	6,498.05	81.7716	6,498.05	85.884	6,498.05	81.064	6,498.05	83.3921	6,498.05	76.61	6,498.05	80.7328	6,498.05	75.6379	6,498.05	78.3916	6,498.05	73.1638	6,498.05	75.9256	6,498.05	71.1356	6,498.05	72.5541	6,498.05	70.6168	6,498.05	72.0035	6,498.05	68.9487	6,498.05	70.5331	6,498.05	70.0481	6,498.05	70.5675	6,498.05	68.8239	6,498.05	71.3371	6,498.05	70.0041	6,498.05	70.4432	6,498.05	61.8312	6,498.05	70.6561	6,498.05	60.7554	6,498.05	60.0575	6,498.05	67.7581
6,726.56	85.8803	6,726.56	85.4479	6,726.56	86.1989	6,726.56	84.9827	6,726.56	85.4182	6,726.56	85.111	6,726.56	85.3978	6,726.56	84.3736	6,726.56	85.2366	6,726.56	83.6497	6,726.56	85.0898	6,726.56	80.8098	6,726.56	83.3199	6,726.56	77.0878	6,726.56	81.6096	6,726.56	76.8695	6,726.56	78.4753	6,726.56	76.2193	6,726.56	76.4253	6,726.56	72.4008	6,726.56	73.3962	6,726.56	71.6012	6,726.56	72.5153	6,726.56	68.461	6,726.56	68.9401	6,726.56	71.368	6,726.56	70.8924	6,726.56	72.7522	6,726.56	70.0002	6,726.56	71.2376	6,726.56	71.737	6,726.56	59.1996	6,726.56	68.7788	6,726.56	61.0075	6,726.56	62.398	6,726.56	67.878
6,963.87	86.3372	6,963.87	85.7506	6,963.87	86.2113	6,963.87	85.5004	6,963.87	85.7645	6,963.87	85.1066	6,963.87	85.6969	6,963.87	84.3676	6,963.87	85.7326	6,963.87	82.3043	6,963.87	84.1516	6,963.87	79.871	6,963.87	82.8135	6,963.87	80.09	6,963.87	79.8941	6,963.87	77.4001	6,963.87	79.1906	6,963.87	75.5443	6,963.87	76.1768	6,963.87	71.5986	6,963.87	75.1251	6,963.87	68.7235	6,963.87	70.6923	6,963.87	68.0025	6,963.87	68.7893	6,963.87	69.322	6,963.87	71.0315	6,963.87	69.174	6,963.87	70.5187	6,963.87	67	6,963.87	70.1366	6,963.87	61.6724	6,963.87	68.9688	6,963.87	55.9435	6,963.87	58.1377	6,963.87	68.424
7,209.96	86.9149	7,209.96	85.6438	7,209.96	86.3116	7,209.96	85.4808	7,209.96	85.8986	7,209.96	85.1047	7,209.96	85.1563	7,209.96	83.5056	7,209.96	85.3987	7,209.96	80.8653	7,209.96	84.7783	7,209.96	81.1134	7,209.96	83.2399	7,209.96	81.101	7,209.96	81.897	7,209.96	78.046	7,209.96	80.0227	7,209.96	76.4126	7,209.96	76.711	7,209.96	70.9409	7,209.96	75.5879	7,209.96	72.2646	7,209.96	72.715	7,209.96	68.2785	7,209.96	69.6976	7,209.96	69.4463	7,209.96	71.4977	7,209.96	70.4196	7,209.96	70.8799	7,209.96	69.508	7,209.96	70.9089	7,209.96	61.0144	7,209.96	69.8652	7,209.96	59.5253	7,209.96	54.306	7,209.96	67.4949
7,464.84	85.2318	7,464.84	84.6411	7,464.84	85.4903	7,464.84	85.2545	7,464.84	85.3399	7,464.84	83.9568	7,464.84	84.8742	7,464.84	82.3762	7,464.84	82.9735	7,464.84	82.3967	7,464.84	82.4841	7,464.84	81.7917	7,464.84	82.4351	7,464.84	80.2444	7,464.84	82.5189	7,464.84	78.5415	7,464.84	79.2576	7,464.84	75.9585	7,464.84	76.4261	7,464.84	71.4996	7,464.84	74.9145	7,464.84	70.3693	7,464.84	71.6175	7,464.84	67.9787	7,464.84	69.3678	7,464.84	69.8511	7,464.84	72.7877	7,464.84	69.8503	7,464.84	71.2177	7,464.84	68.2555	7,464.84	69.4379	7,464.84	57.1244	7,464.84	67.6241	7,464.84	62.0973	7,464.84	59.8882	7,464.84	66.757
7,727.05	85.0028	7,727.05	85.5777	7,727.05	85.5815	7,727.05	85.2989	7,727.05	85.9807	7,727.05	82.8967	7,727.05	85.1066	7,727.05	81.8618	7,727.05	83.2475	7,727.05	82.5794	7,727.05	82.5215	7,727.05	82.2615	7,727.05	84.2029	7,727.05	80.3185	7,727.05	82.9292	7,727.05	77.8914	7,727.05	80.6375	7,727.05	74.3121	7,727.05	77.4496	7,727.05	71.7118	7,727.05	75.2912	7,727.05	69.4172	7,727.05	72.0692	7,727.05	68.6508	7,727.05	71.6471	7,727.05	70.1388	7,727.05	72.6578	7,727.05	69.0708	7,727.05	71.7101	7,727.05	66.6862	7,727.05	69.9922	7,727.05	57.2834	7,727.05	68.2926	7,727.05	50.1006	7,727.05	60.8044	7,727.05	65.8343
7,999.51	83.9648	7,999.51	85.4821	7,999.51	85.0732	7,999.51	83.5623	7,999.51	84.9373	7,999.51	81.0593	7,999.51	83.1306	7,999.51	80.8629	7,999.51	81.1171	7,999.51	82.2704	7,999.51	82.3389	7,999.51	82.3608	7,999.51	83.1202	7,999.51	80.5707	7,999.51	82.5157	7,999.51	77.083	7,999.51	78.4329	7,999.51	73.1816	7,999.51	76.623	7,999.51	70.9347	7,999.51	73.1822	7,999.51	67.1321	7,999.51	71.8012	7,999.51	67.4337	7,999.51	69.4904	7,999.51	71.1772	7,999.51	70.1256	7,999.51	70.2657	7,999.51	70.1378	7,999.51	68.072	7,999.51	68.585	7,999.51	53.9261	7,999.51	63.535	7,999.51	60.7244	7,999.51	58.9952	7,999.51	62.692
8,282.23	85.113	8,282.23	84.9662	8,282.23	85.1662	8,282.23	83.2937	8,282.23	85.005	8,282.23	79.4429	8,282.23	82.0042	8,282.23	80.1697	8,282.23	80.8337	8,282.23	81.7237	8,282.23	80.7843	8,282.23	80.6567	8,282.23	82.4953	8,282.23	78.5834	8,282.23	80.5107	8,282.23	75.1556	8,282.23	78.4649	8,282.23	71.9504	8,282.23	74.7751	8,282.23	69.0969	8,282.23	70.9304	8,282.23	66.0019	8,282.23	69.5605	8,282.23	67.2025	8,282.23	69.9928	8,282.23	68.4317	8,282.23	69.4976	8,282.23	69.4211	8,282.23	69.3034	8,282.23	66.6639	8,282.23	67.0652	8,282.23	56.4552	8,282.23	66.1053	8,282.23	59.3063	8,282.23	60.3304	8,282.23	64.8618
8,573.73	84.0458	8,573.73	84.7613	8,573.73	85.0158	8,573.73	83.4021	8,573.73	84.7258	8,573.73	82.3882	8,573.73	81.8152	8,573.73	81.7672	8,573.73	81.135	8,573.73	82.0027	8,573.73	82.8513	8,573.73	80.5774	8,573.73	81.0911	8,573.73	77.5416	8,573.73	78.6597	8,573.73	73.8965	8,573.73	75.185	8,573.73	73.1651	8,573.73	73.5022	8,573.73	67.014	8,573.73	69.8605	8,573.73	63.25	8,573.73	68.8079	8,573.73	67.0249	8,573.73	66.1801	8,573.73	67.9873	8,573.73	67.0509	8,573.73	68.1829	8,573.73	67.4255	8,573.73	67.1816	8,573.73	66.9441	8,573.73	56.3676	8,573.73	64.7222	8,573.73	58.3112	8,573.73	54.6162	8,573.73	59.646
8,876.95	85.0215	8,876.95	84.8679	8,876.95	85.6406	8,876.95	84.1352	8,876.95	85.3911	8,876.95	82.9572	8,876.95	83.8458	8,876.95	82.6457	8,876.95	83.884	8,876.95	80.9805	8,876.95	83.1158	8,876.95	78.2865	8,876.95	80.6178	8,876.95	76.2893	8,876.95	76.2126	8,876.95	73.5291	8,876.95	76.9212	8,876.95	71.3784	8,876.95	73.0878	8,876.95	65.8433	8,876.95	70.7116	8,876.95	64.4355	8,876.95	67.9842	8,876.95	65.0991	8,876.95	65.5883	8,876.95	66.7088	8,876.95	65.8466	8,876.95	66.5433	8,876.95	66.1747	8,876.95	66.7278	8,876.95	66.7298	8,876.95	47.3043	8,876.95	64.0437	8,876.95	57.4953	8,876.95	57.8712	8,876.95	59.9028
9,188.96	84.9201	9,188.96	84.7538	9,188.96	85.1357	9,188.96	83.8521	9,188.96	84.8472	9,188.96	82.9988	9,188.96	83.9217	9,188.96	81.8787	9,188.96	82.7718	9,188.96	79.4666	9,188.96	81.8956	9,188.96	77.4543	9,188.96	78.8331	9,188.96	74.6295	9,188.96	76.838	9,188.96	74.2159	9,188.96	74.1995	9,188.96	71.5993	9,188.96	71.9565	9,188.96	67.1056	9,188.96	71.2691	9,188.96	66.2898	9,188.96	67.6451	9,188.96	65.199	9,188.96	61.16	9,188.96	62.9651	9,188.96	64.7136	9,188.96	65.3354	9,188.96	65.2835	9,188.96	66.3026	9,188.96	66.7651	9,188.96	52.7005	9,188.96	61.5755	9,188.96	60.8354	9,188.96	57.8591	9,188.96	60.5297
9,514.16	86.8785	9,514.16	85.7517	9,514.16	86.693	9,514.16	85.0605	9,514.16	86.0103	9,514.16	84.3188	9,514.16	86.2711	9,514.16	81.965	9,514.16	84.1912	9,514.16	78.0551	9,514.16	81.1178	9,514.16	76.7309	9,514.16	80.4834	9,514.16	75.7032	9,514.16	78.5811	9,514.16	73.3322	9,514.16	76.9434	9,514.16	70.1712	9,514.16	73.2219	9,514.16	68.156	9,514.16	71.1019	9,514.16	65.1666	9,514.16	66.1435	9,514.16	61.5412	9,514.16	63.6464	9,514.16	62.3344	9,514.16	67.5593	9,514.16	61.5854	9,514.16	67.2711	9,514.16	61.2201	9,514.16	66.5509	9,514.16	44.449	9,514.16	60.4755	9,514.16	53.673	9,514.16	54.1977	9,514.16	57.6682
9,849.61	87.8123	9,849.61	86.2183	9,849.61	87.7158	9,849.61	85.8517	9,849.61	87.0062	9,849.61	84.7098	9,849.61	86.6402	9,849.61	81.0287	9,849.61	84.2284	9,849.61	77.6693	9,849.61	81.6625	9,849.61	77.4435	9,849.61	80.6698	9,849.61	75.6991	9,849.61	79.0753	9,849.61	72.5268	9,849.61	76.442	9,849.61	70.2018	9,849.61	72.7683	9,849.61	64.5666	9,849.61	70.2042	9,849.61	64.4994	9,849.61	66.3785	9,849.61	59.183	9,849.61	64.7145	9,849.61	57.7323	9,849.61	66.6167	9,849.61	56.2848	9,849.61	66.1097	9,849.61	56.4951	9,849.61	64.4889	9,849.61	46.6867	9,849.61	59.1128	9,849.61	55.8551	9,849.61	54.3342	9,849.61	54.8634
10,196.8	88.5817	10,196.8	87.0652	10,196.8	88.5077	10,196.8	86.5921	10,196.8	87.8604	10,196.8	84.7267	10,196.8	87.1871	10,196.8	80.2738	10,196.8	84.6049	10,196.8	78.4695	10,196.8	81.6069	10,196.8	77.5012	10,196.8	80.4244	10,196.8	74.6223	10,196.8	78.5549	10,196.8	70.4565	10,196.8	75.6735	10,196.8	67.7726	10,196.8	72.0218	10,196.8	62.6081	10,196.8	69.0594	10,196.8	62.8181	10,196.8	65.8913	10,196.8	55.7866	10,196.8	63.4326	10,196.8	59.7913	10,196.8	65.3023	10,196.8	55.9887	10,196.8	64.6777	10,196.8	51.2879	10,196.8	62.764	10,196.8	50.281	10,196.8	57.5122	10,196.8	59.0977	10,196.8	55.7642	10,196.8	53.6765
10,555.7	88.813	10,555.7	87.4337	10,555.7	88.903	10,555.7	86.8765	10,555.7	87.9589	10,555.7	84.2995	10,555.7	86.8322	10,555.7	80.8734	10,555.7	83.9069	10,555.7	80.0511	10,555.7	81.083	10,555.7	77.4006	10,555.7	79.669	10,555.7	73.0957	10,555.7	76.8428	10,555.7	68.1849	10,555.7	73.6837	10,555.7	64.5569	10,555.7	69.2634	10,555.7	56.8428	10,555.7	66.7493	10,555.7	59.2345	10,555.7	63.5033	10,555.7	58.828	10,555.7	62.5685	10,555.7	60.5194	10,555.7	64.2939	10,555.7	58.8264	10,555.7	64.1675	10,555.7	52.0026	10,555.7	61.9278	10,555.7	49.4271	10,555.7	54.818	10,555.7	57.4703	10,555.7	55.9228	10,555.7	49.778
10,927.7	89.1774	10,927.7	87.7637	10,927.7	88.9717	10,927.7	86.9323	10,927.7	88.0021	10,927.7	84.3153	10,927.7	86.6567	10,927.7	81.5276	10,927.7	83.2573	10,927.7	79.8639	10,927.7	80.6855	10,927.7	76.8848	10,927.7	79.1566	10,927.7	71.8645	10,927.7	75.4349	10,927.7	69.0583	10,927.7	70.8432	10,927.7	65.0046	10,927.7	65.9434	10,927.7	61.6941	10,927.7	63.2726	10,927.7	55.9293	10,927.7	59.1063	10,927.7	59.9291	10,927.7	60.2223	10,927.7	62.0852	10,927.7	62.5223	10,927.7	60.0769	10,927.7	63.2333	10,927.7	52.5178	10,927.7	59.2601	10,927.7	51.8933	10,927.7	47.0244	10,927.7	59.2629	10,927.7	56.1544	10,927.7	46.7654
11,313	89.3058	11,313	87.6354	11,313	88.8695	11,313	86.8354	11,313	87.8338	11,313	83.8344	11,313	85.9436	11,313	81.5707	11,313	82.5346	11,313	79.5781	11,313	80.4727	11,313	75.7123	11,313	78.1912	11,313	71.8116	11,313	73.501	11,313	70.0841	11,313	68.0712	11,313	66.6896	11,313	65.6896	11,313	63.3568	11,313	61.5982	11,313	58.4654	11,313	59.3936	11,313	60.3887	11,313	57.5255	11,313	62.7922	11,313	59.3739	11,313	60.9948	11,313	62.5829	11,313	53.1143	11,313	59.2967	11,313	54.1668	11,313	43.3851	11,313	59.3162	11,313	56.4558	11,313	45.4691
11,712.9	89.1382	11,712.9	87.7421	11,712.9	88.5134	11,712.9	86.663	11,712.9	87.5621	11,712.9	83.6005	11,712.9	85.234	11,712.9	81.5257	11,712.9	82.1729	11,712.9	78.3197	11,712.9	80.2527	11,712.9	73.985	11,712.9	75.5871	11,712.9	73.6504	11,712.9	70.9341	11,712.9	70.2506	11,712.9	69.3739	11,712.9	68.8923	11,712.9	67.9454	11,712.9	64.6594	11,712.9	65.4546	11,712.9	60.9739	11,712.9	62.9924	11,712.9	60.7836	11,712.9	56.0215	11,712.9	63.9345	11,712.9	59.0893	11,712.9	62.2461	11,712.9	61.9617	11,712.9	50.15	11,712.9	59.7495	11,712.9	55.6172	11,712.9	44.0797	11,712.9	60.5297	11,712.9	56.5225	11,712.9	45.3976
12,126	88.9558	12,126	88.007	12,126	88.6144	12,126	86.4865	12,126	87.6205	12,126	84.329	12,126	84.4003	12,126	81.3121	12,126	82.1868	12,126	76.7669	12,126	78.3371	12,126	74.9072	12,126	73.7952	12,126	74.0039	12,126	72.7559	12,126	71.712	12,126	70.5972	12,126	68.3869	12,126	68.0966	12,126	64.3072	12,126	66.7705	12,126	62.5801	12,126	63.0989	12,126	59.5576	12,126	57.9439	12,126	63.3971	12,126	61.0202	12,126	61.3393	12,126	61.8672	12,126	49.0304	12,126	58.9674	12,126	54.5984	12,126	36.1001	12,126	60.2031	12,126	58.2272	12,126	44.6992
12,553.7	88.9459	12,553.7	88.1503	12,553.7	88.6842	12,553.7	86.4033	12,553.7	87.1877	12,553.7	84.2758	12,553.7	84.1732	12,553.7	80.3221	12,553.7	81.8669	12,553.7	76.0599	12,553.7	75.6363	12,553.7	74.8495	12,553.7	73.9481	12,553.7	71.9292	12,553.7	72.9399	12,553.7	69.9742	12,553.7	69.6957	12,553.7	65.282	12,553.7	64.7052	12,553.7	62.5652	12,553.7	62.4002	12,553.7	59.9724	12,553.7	60.7147	12,553.7	58.9016	12,553.7	58.8518	12,553.7	62.8486	12,553.7	59.5899	12,553.7	58.9435	12,553.7	59.7539	12,553.7	47.3738	12,553.7	55.5717	12,553.7	54.3034	12,553.7	37.3133	12,553.7	57.8427	12,553.7	57.4383	12,553.7	39.7273
12,996.1	88.8017	12,996.1	88.2125	12,996.1	88.7036	12,996.1	86.1659	12,996.1	86.7505	12,996.1	84.0489	12,996.1	84.2106	12,996.1	79.1397	12,996.1	80.8849	12,996.1	76.228	12,996.1	75.7186	12,996.1	74.1918	12,996.1	75.4641	12,996.1	71.5551	12,996.1	72.8646	12,996.1	66.715	12,996.1	68.5019	12,996.1	64.7813	12,996.1	63.5912	12,996.1	59.4294	12,996.1	61.5605	12,996.1	56.9945	12,996.1	56.0506	12,996.1	55.9947	12,996.1	56.4911	12,996.1	60.2773	12,996.1	57.8801	12,996.1	57.7548	12,996.1	58.4286	12,996.1	31.0063	12,996.1	54.8912	12,996.1	54.5074	12,996.1	46.9469	12,996.1	56.0351	12,996.1	54.8105	12,996.1	47.4214
13,454.6	88.5149	13,454.6	87.9658	13,454.6	88.6572	13,454.6	85.5426	13,454.6	86.7121	13,454.6	83.4167	13,454.6	84.2081	13,454.6	78.0534	13,454.6	80.1644	13,454.6	76.1263	13,454.6	76.74	13,454.6	72.5841	13,454.6	74.6884	13,454.6	69.1356	13,454.6	69.2868	13,454.6	66.8289	13,454.6	67.5458	13,454.6	65.1721	13,454.6	64.9773	13,454.6	58.3918	13,454.6	64.2297	13,454.6	55.9544	13,454.6	58.6497	13,454.6	55.0251	13,454.6	56.9647	13,454.6	56.37	13,454.6	55.2896	13,454.6	57.3967	13,454.6	58.2926	13,454.6	47.5447	13,454.6	56.5065	13,454.6	53.1772	13,454.6	47.4624	13,454.6	53.8452	13,454.6	55.6989	13,454.6	45.9679
13,929.2	88.4599	13,929.2	87.6333	13,929.2	88.5092	13,929.2	85.3507	13,929.2	86.8102	13,929.2	82.8535	13,929.2	84.632	13,929.2	78.3651	13,929.2	80.1839	13,929.2	76.5491	13,929.2	78.218	13,929.2	70.1427	13,929.2	73.4743	13,929.2	69.7082	13,929.2	67.8634	13,929.2	69.2318	13,929.2	69.7197	13,929.2	66.1965	13,929.2	67.2267	13,929.2	63.2322	13,929.2	66.6124	13,929.2	58.5262	13,929.2	60.2989	13,929.2	56.9575	13,929.2	55.6067	13,929.2	58.5686	13,929.2	57.0812	13,929.2	54.4629	13,929.2	59.4327	13,929.2	43.4815	13,929.2	54.9545	13,929.2	53.4538	13,929.2	48.597	13,929.2	56.0304	13,929.2	57.5754	13,929.2	43.862
14,419.9	88.6008	14,419.9	87.316	14,419.9	88.5695	14,419.9	85.6985	14,419.9	86.753	14,419.9	82.0786	14,419.9	84.8729	14,419.9	79.3376	14,419.9	80.4078	14,419.9	75.1114	14,419.9	78.357	14,419.9	71.2058	14,419.9	72.6526	14,419.9	72.0499	14,419.9	74.124	14,419.9	70.1136	14,419.9	71.4052	14,419.9	67.1328	14,419.9	68.114	14,419.9	64.2287	14,419.9	66.4043	14,419.9	60.9978	14,419.9	61.0941	14,419.9	59.5318	14,419.9	56.9708	14,419.9	58.1751	14,419.9	56.6631	14,419.9	52.0329	14,419.9	58.0911	14,419.9	38.3033	14,419.9	55.1651	14,419.9	51.7524	14,419.9	46.9276	14,419.9	54.7501	14,419.9	57.5928	14,419.9	47.0829
14,928.2	88.8563	14,928.2	87.1959	14,928.2	88.4877	14,928.2	85.774	14,928.2	87.0714	14,928.2	81.694	14,928.2	84.4162	14,928.2	79.2918	14,928.2	81.1498	14,928.2	73.5681	14,928.2	77.0172	14,928.2	73.7724	14,928.2	75.7554	14,928.2	71.6993	14,928.2	74.7437	14,928.2	68.0114	14,928.2	69.2112	14,928.2	63.2216	14,928.2	63.9116	14,928.2	61.0911	14,928.2	62.8823	14,928.2	59.2995	14,928.2	58.2057	14,928.2	56.9654	14,928.2	56.9202	14,928.2	56.1497	14,928.2	57.9069	14,928.2	50.5606	14,928.2	57.2519	14,928.2	37.5951	14,928.2	53.2442	14,928.2	49.4089	14,928.2	51.0255	14,928.2	49.5884	14,928.2	56.37	14,928.2	50.1287
15,455.6	88.98	15,455.6	87.3456	15,455.6	88.6793	15,455.6	85.676	15,455.6	87.4846	15,455.6	81.7536	15,455.6	84.5645	15,455.6	78.1096	15,455.6	81.3923	15,455.6	73.6796	15,455.6	76.3592	15,455.6	72.8349	15,455.6	75.9054	15,455.6	65.4129	15,455.6	71.1485	15,455.6	61.2368	15,455.6	66.0873	15,455.6	52.9571	15,455.6	62.9821	15,455.6	50.807	15,455.6	60.5635	15,455.6	53.1553	15,455.6	57.2232	15,455.6	49.8101	15,455.6	56.4655	15,455.6	55.1693	15,455.6	56.7607	15,455.6	47.9929	15,455.6	56.1876	15,455.6	46.0723	15,455.6	53.0146	15,455.6	47.3465	15,455.6	52.0187	15,455.6	48.7135	15,455.6	56.0765	15,455.6	48.82
16,000.5	89.0984	16,000.5	87.4342	16,000.5	88.8025	16,000.5	85.2671	16,000.5	87.5372	16,000.5	81.7192	16,000.5	84.2752	16,000.5	76.5571	16,000.5	81.0744	16,000.5	74.0716	16,000.5	76.0551	16,000.5	69.0794	16,000.5	74.5371	16,000.5	62.5673	16,000.5	66.8495	16,000.5	62.9978	16,000.5	65.7625	16,000.5	63.142	16,000.5	64.0858	16,000.5	55.9103	16,000.5	59.9612	16,000.5	50.4189	16,000.5	56.2215	16,000.5	49.5131	16,000.5	55.8194	16,000.5	55.7885	16,000.5	57.4456	16,000.5	50.7926	16,000.5	54.128	16,000.5	46.5542	16,000.5	51.4604	16,000.5	47.1634	16,000.5	52.4276	16,000.5	48.4675	16,000.5	53.8544	16,000.5	45.3559
16,564.5	88.7292	16,564.5	87.0158	16,564.5	88.4966	16,564.5	84.5594	16,564.5	86.9286	16,564.5	80.9243	16,564.5	83.765	16,564.5	74.5086	16,564.5	79.5657	16,564.5	72.9424	16,564.5	75.8075	16,564.5	60.6482	16,564.5	71.5939	16,564.5	69.6546	16,564.5	70.442	16,564.5	67.4557	16,564.5	69.1778	16,564.5	65.656	16,564.5	66.3018	16,564.5	60.0999	16,564.5	63.3482	16,564.5	55.3355	16,564.5	58.7089	16,564.5	52.8047	16,564.5	56.235	16,564.5	54.4455	16,564.5	56.0833	16,564.5	51.2651	16,564.5	53.7955	16,564.5	48.3733	16,564.5	51.5686	16,564.5	46.5332	16,564.5	53.0538	16,564.5	48.8502	16,564.5	51.911	16,564.5	42.1007
17,148.9	88.0751	17,148.9	86.2191	17,148.9	88.0206	17,148.9	83.2046	17,148.9	86.0644	17,148.9	79.0239	17,148.9	82.6299	17,148.9	73.8399	17,148.9	77.5153	17,148.9	68.7072	17,148.9	73.7485	17,148.9	68.5518	17,148.9	69.8921	17,148.9	68.7177	17,148.9	71.9532	17,148.9	65.0235	17,148.9	67.1898	17,148.9	60.0355	17,148.9	62.1211	17,148.9	55.031	17,148.9	60.9852	17,148.9	50.2449	17,148.9	53.5073	17,148.9	48.9972	17,148.9	49.0636	17,148.9	53.1303	17,148.9	52.847	17,148.9	51.5513	17,148.9	50.5742	17,148.9	49.1192	17,148.9	42.6538	17,148.9	47.7512	17,148.9	55.2017	17,148.9	46.395	17,148.9	51.1733	17,148.9	39.5194
17,752.4	87.0679	17,752.4	85.2309	17,752.4	87.0668	17,752.4	81.7689	17,752.4	84.8427	17,752.4	76.9798	17,752.4	80.9857	17,752.4	71.9311	17,752.4	74.8891	17,752.4	65.4187	17,752.4	70.2202	17,752.4	68.534	17,752.4	70.4099	17,752.4	60.2344	17,752.4	67.4637	17,752.4	50.6038	17,752.4	63.6127	17,752.4	52.0462	17,752.4	57.4278	17,752.4	43.8553	17,752.4	58.381	17,752.4	31.8936	17,752.4	50.8989	17,752.4	44.4107	17,752.4	41.8633	17,752.4	50.4767	17,752.4	40.1313	17,752.4	50.652	17,752.4	44.1728	17,752.4	48.0699	17,752.4	45.5962	17,752.4	40.8014	17,752.4	53.1408	17,752.4	41.4764	17,752.4	53.4874	17,752.4	42.3125
18,379.4	86.0481	18,379.4	83.9412	18,379.4	85.9224	18,379.4	80.3677	18,379.4	83.4195	18,379.4	73.9771	18,379.4	78.6161	18,379.4	68.8133	18,379.4	72.2358	18,379.4	67.6328	18,379.4	68.1899	18,379.4	65.1326	18,379.4	71.0899	18,379.4	60.9102	18,379.4	66.147	18,379.4	61.098	18,379.4	64.6427	18,379.4	60.6171	18,379.4	60.9657	18,379.4	54.2395	18,379.4	57.233	18,379.4	44.7309	18,379.4	54.6928	18,379.4	29.4706	18,379.4	52.8199	18,379.4	38.3095	18,379.4	48.3143	18,379.4	46.291	18,379.4	46.4431	18,379.4	46.7789	18,379.4	47.7027	18,379.4	33.7198	18,379.4	53.6849	18,379.4	42.9791	18,379.4	52.248	18,379.4	43.982
19,026.9	85.5008	19,026.9	82.8784	19,026.9	85.3383	19,026.9	78.6429	19,026.9	82.455	19,026.9	71.8267	19,026.9	76.6699	19,026.9	64.7453	19,026.9	69.2796	19,026.9	67.2616	19,026.9	69.1178	19,026.9	59.6254	19,026.9	70.8703	19,026.9	64.8879	19,026.9	69.0003	19,026.9	61.3206	19,026.9	65.9213	19,026.9	58.5225	19,026.9	62.2164	19,026.9	52.5483	19,026.9	59.0103	19,026.9	46.3633	19,026.9	54.331	19,026.9	34.8082	19,026.9	52.2944	19,026.9	48.2046	19,026.9	48.3979	19,026.9	42.9318	19,026.9	44.6302	19,026.9	46.2421	19,026.9	43.2442	19,026.9	32.1051	19,026.9	51.8007	19,026.9	44.5591	19,026.9	50.0799	19,026.9	42.7619
19,697.8	85.1256	19,697.8	82.2497	19,697.8	84.8463	19,697.8	76.5288	19,697.8	81.566	19,697.8	69.1651	19,697.8	75.2665	19,697.8	66.0123	19,697.8	69.1235	19,697.8	63.292	19,697.8	70.2845	19,697.8	64.3865	19,697.8	70.0966	19,697.8	59.4063	19,697.8	68.3535	19,697.8	50.3913	19,697.8	64.5325	19,697.8	47.7656	19,697.8	58.2177	19,697.8	41.3709	19,697.8	56.956	19,697.8	47.4876	19,697.8	50.574	19,697.8	32.3594	19,697.8	45.8616	19,697.8	45.6408	19,697.8	48.413	19,697.8	41.143	19,697.8	39.6823	19,697.8	45.5218	19,697.8	38.6865	19,697.8	31.7141	19,697.8	50.3695	19,697.8	39.4067	19,697.8	49.1319	19,697.8	41.5981
19,999.5	84.8275	19,999.5	81.8429	19,999.5	84.6914	19,999.5	75.2794	19,999.5	80.9642	19,999.5	67.824	19,999.5	73.9639	19,999.5	65.4931	19,999.5	69.6179	19,999.5	63.0724	19,999.5	71.1515	19,999.5	64.4153	19,999.5	69.7662	19,999.5	53.8771	19,999.5	67.9619	19,999.5	54.9003	19,999.5	62.6399	19,999.5	44.8414	19,999.5	57.4211	19,999.5	50.0815	19,999.5	55.1261	19,999.5	48.689	19,999.5	40.9804	19,999.5	48.8512	19,999.5	46.6133	19,999.5	54.3998	19,999.5	42.1599	19,999.5	55.8211	19,999.5	42.5437	19,999.5	43.8393	19,999.5	50.331	19,999.5	33.9518	19,999.5	35.4196	19,999.5	43.4033	19,999.5	49.2828	19,999.5	42.5506
