"SPL Vertical"
"On-Axis"		"10°"		"-10°"		"20°"		"-20°"		"30°"		"-30°"		"40°"		"-40°"		"50°"		"-50°"		"60°"		"-60°"		"70°"		"-70°"		"80°"		"-80°"		"90°"		"-90°"		"100°"		"-100°"		"110°"		"-110°"		"120°"		"-120°"		"130°"		"-130°"		"140°"		"-140°"		"150°"		"-150°"		"160°"		"-160°"		"170°"		"-170°"		"180°"
"Frequency [Hz]"	"Sound Pessure Level [dB]  / [2.83V 1m] "	"Frequency [Hz]"	"Sound Pessure Level [dB]  / [2.83V 1m] "	"Frequency [Hz]"	"Sound Pessure Level [dB]  / [2.83V 1m] "	"Frequency [Hz]"	"Sound Pessure Level [dB]  / [2.83V 1m] "	"Frequency [Hz]"	"Sound Pessure Level [dB]  / [2.83V 1m] "	"Frequency [Hz]"	"Sound Pessure Level [dB]  / [2.83V 1m] "	"Frequency [Hz]"	"Sound Pessure Level [dB]  / [2.83V 1m] "	"Frequency [Hz]"	"Sound Pessure Level [dB]  / [2.83V 1m] "	"Frequency [Hz]"	"Sound Pessure Level [dB]  / [2.83V 1m] "	"Frequency [Hz]"	"Sound Pessure Level [dB]  / [2.83V 1m] "	"Frequency [Hz]"	"Sound Pessure Level [dB]  / [2.83V 1m] "	"Frequency [Hz]"	"Sound Pessure Level [dB]  / [2.83V 1m] "	"Frequency [Hz]"	"Sound Pessure Level [dB]  / [2.83V 1m] "	"Frequency [Hz]"	"Sound Pessure Level [dB]  / [2.83V 1m] "	"Frequency [Hz]"	"Sound Pessure Level [dB]  / [2.83V 1m] "	"Frequency [Hz]"	"Sound Pessure Level [dB]  / [2.83V 1m] "	"Frequency [Hz]"	"Sound Pessure Level [dB]  / [2.83V 1m] "	"Frequency [Hz]"	"Sound Pessure Level [dB]  / [2.83V 1m] "	"Frequency [Hz]"	"Sound Pessure Level [dB]  / [2.83V 1m] "	"Frequency [Hz]"	"Sound Pessure Level [dB]  / [2.83V 1m] "	"Frequency [Hz]"	"Sound Pessure Level [dB]  / [2.83V 1m] "	"Frequency [Hz]"	"Sound Pessure Level [dB]  / [2.83V 1m] "	"Frequency [Hz]"	"Sound Pessure Level [dB]  / [2.83V 1m] "	"Frequency [Hz]"	"Sound Pessure Level [dB]  / [2.83V 1m] "	"Frequency [Hz]"	"Sound Pessure Level [dB]  / [2.83V 1m] "	"Frequency [Hz]"	"Sound Pessure Level [dB]  / [2.83V 1m] "	"Frequency [Hz]"	"Sound Pessure Level [dB]  / [2.83V 1m] "	"Frequency [Hz]"	"Sound Pessure Level [dB]  / [2.83V 1m] "	"Frequency [Hz]"	"Sound Pessure Level [dB]  / [2.83V 1m] "	"Frequency [Hz]"	"Sound Pessure Level [dB]  / [2.83V 1m] "	"Frequency [Hz]"	"Sound Pessure Level [dB]  / [2.83V 1m] "	"Frequency [Hz]"	"Sound Pessure Level [dB]  / [2.83V 1m] "	"Frequency [Hz]"	"Sound Pessure Level [dB]  / [2.83V 1m] "	"Frequency [Hz]"	"Sound Pessure Level [dB]  / [2.83V 1m] "	"Frequency [Hz]"	"Sound Pessure Level [dB]  / [2.83V 1m] "	"Frequency [Hz]"	"Sound Pessure Level [dB]  / [2.83V 1m] "
20.5078	43.4286	20.5078	41.3422	20.5078	44.6179	20.5078	37.7739	20.5078	45.1378	20.5078	31.9649	20.5078	45.0499	20.5078	34.5375	20.5078	44.2977	20.5078	40.8447	20.5078	42.6749	20.5078	44.9911	20.5078	39.6927	20.5078	47.9744	20.5078	34.92	20.5078	50.2816	20.5078	36.6709	20.5078	52.1407	20.5078	42.8	20.5078	53.6722	20.5078	47.0649	20.5078	54.9441	20.5078	50.1283	20.5078	55.9965	20.5078	52.4467	20.5078	56.8517	20.5078	54.2444	20.5078	57.5212	20.5078	55.6422	20.5078	58.0084	20.5078	56.7115	20.5078	58.3111	20.5078	57.4975	20.5078	58.4228	20.5078	58.0309	20.5078	58.3337
21.9727	46.4626	21.9727	45.5968	21.9727	47.1469	21.9727	44.8711	21.9727	47.528	21.9727	44.8601	21.9727	47.5621	21.9727	45.9231	21.9727	47.2316	21.9727	47.7098	21.9727	46.5556	21.9727	49.6745	21.9727	45.6895	21.9727	51.5303	21.9727	45.1692	21.9727	53.1896	21.9727	45.8648	21.9727	54.6427	21.9727	47.832	21.9727	55.9019	21.9727	50.2191	21.9727	56.9812	21.9727	52.4554	21.9727	57.8915	21.9727	54.375	21.9727	58.6389	21.9727	55.9653	21.9727	59.2246	21.9727	57.251	21.9727	59.6464	21.9727	58.2605	21.9727	59.8986	21.9727	59.0189	21.9727	59.9731	21.9727	59.5463	21.9727	59.8597
23.4375	52.295	23.4375	51.5939	23.4375	52.7867	23.4375	50.7188	23.4375	53.0536	23.4375	49.7668	23.4375	53.084	23.4375	48.9665	23.4375	52.8632	23.4375	48.6997	23.4375	52.3756	23.4375	49.2552	23.4375	51.6181	23.4375	50.4954	23.4375	50.6452	23.4375	52.031	23.4375	49.6856	23.4375	53.5703	23.4375	49.2845	23.4375	54.9793	23.4375	49.9867	23.4375	56.2118	23.4375	51.5802	23.4375	57.2566	23.4375	53.4203	23.4375	58.1126	23.4375	55.1165	23.4375	58.7803	23.4375	56.5414	23.4375	59.2577	23.4375	57.6757	23.4375	59.5402	23.4375	58.5323	23.4375	59.6204	23.4375	59.1304	23.4375	59.488
24.9023	51.2849	24.9023	50.3834	24.9023	51.9102	24.9023	49.2805	24.9023	52.2391	24.9023	48.2227	24.9023	52.2602	24.9023	47.7647	24.9023	51.9562	24.9023	48.4491	24.9023	51.3066	24.9023	50.0679	24.9023	50.3178	24.9023	51.992	24.9023	49.139	24.9023	53.8398	24.9023	48.3522	24.9023	55.4861	24.9023	48.9244	24.9023	56.9107	24.9023	50.8442	24.9023	58.1232	24.9023	53.1414	24.9023	59.137	24.9023	55.2415	24.9023	59.9622	24.9023	57.0009	24.9023	60.6036	24.9023	58.4202	24.9023	61.0616	24.9023	59.5297	24.9023	61.3326	24.9023	60.3604	24.9023	61.4093	24.9023	60.9377	24.9023	61.282
26.3672	53.6024	26.3672	52.9672	26.3672	54.0799	26.3672	52.2698	26.3672	54.3562	26.3672	51.7008	26.3672	54.4103	26.3672	51.5475	26.3672	54.2329	26.3672	52.0365	26.3672	53.8314	26.3672	53.1136	26.3672	53.2572	26.3672	54.5087	26.3672	52.6677	26.3672	55.9715	26.3672	52.3981	26.3672	57.3612	26.3672	52.846	26.3672	58.6169	26.3672	54.0626	26.3672	59.7172	26.3672	55.6824	26.3672	60.6555	26.3672	57.3314	26.3672	61.4297	26.3672	58.8161	26.3672	62.0376	26.3672	60.0681	26.3672	62.4753	26.3672	61.0739	26.3672	62.7366	26.3672	61.8395	26.3672	62.8137	26.3672	62.3765	26.3672	62.6973
27.832	56.7416	27.832	56.2721	27.832	57.094	27.832	55.7487	27.832	57.2942	27.832	55.2805	27.832	57.3228	27.832	55.0262	27.832	57.1704	27.832	55.1473	27.832	56.8413	27.832	55.7077	27.832	56.3689	27.832	56.623	27.832	55.8481	27.832	57.73	27.832	55.4774	27.832	58.882	27.832	55.5368	27.832	59.9843	27.832	56.1996	27.832	60.9849	27.832	57.3482	27.832	61.8566	27.832	58.698	27.832	62.5848	27.832	60.0171	27.832	63.1594	27.832	61.1831	27.832	63.5722	27.832	62.1467	27.832	63.8145	27.832	62.8941	27.832	63.8773	27.832	63.4266	27.832	63.7513
29.2969	57.9161	29.2969	57.5803	29.2969	58.1904	29.2969	57.2523	29.2969	58.36	29.2969	57.0313	29.2969	58.4015	29.2969	57.0311	29.2969	58.308	29.2969	57.3367	29.2969	58.0934	29.2969	57.9555	29.2969	57.8058	29.2969	58.8133	29.2969	57.5482	29.2969	59.8012	29.2969	57.4862	29.2969	60.821	29.2969	57.7936	29.2969	61.8038	29.2969	58.5315	29.2969	62.7061	29.2969	59.5893	29.2969	63.5016	29.2969	60.7767	29.2969	64.1732	29.2969	61.9346	29.2969	64.7083	29.2969	62.9684	29.2969	65.0965	29.2969	63.8318	29.2969	65.3278	29.2969	64.5069	29.2969	65.3929	29.2969	64.9897	29.2969	65.2829
30.7617	60.0735	30.7617	59.7199	30.7617	60.3529	30.7617	59.3439	30.7617	60.526	30.7617	59.0233	30.7617	60.5749	30.7617	58.8586	30.7617	60.4942	30.7617	58.9474	30.7617	60.2936	30.7617	59.3388	30.7617	60.0085	30.7617	60.0041	30.7617	59.7161	30.7617	60.8552	30.7617	59.546	30.7617	61.7905	30.7617	59.6559	30.7617	62.727	30.7617	60.1452	30.7617	63.6078	30.7617	60.9741	30.7617	64.3965	30.7617	61.9934	30.7617	65.0698	30.7617	63.0435	30.7617	65.6114	30.7617	64.0118	30.7617	66.0085	30.7617	64.8356	30.7617	66.2503	30.7617	65.4853	30.7617	66.3268	30.7617	65.9501	30.7617	66.2291
32.2266	61.2342	32.2266	60.9454	32.2266	61.462	32.2266	60.6438	32.2266	61.5981	32.2266	60.3988	32.2266	61.6261	32.2266	60.2954	32.2266	61.5426	32.2266	60.4127	32.2266	61.3599	32.2266	60.7894	32.2266	61.1153	32.2266	61.4034	32.2266	60.8826	32.2266	62.1845	32.2266	60.7776	32.2266	63.0477	32.2266	60.9313	32.2266	63.9195	32.2266	61.4197	32.2266	64.7461	32.2266	62.205	32.2266	65.4912	32.2266	63.1614	32.2266	66.1298	32.2266	64.1507	32.2266	66.6445	32.2266	65.0704	32.2266	67.0212	32.2266	65.8595	32.2266	67.2483	32.2266	66.4869	32.2266	67.3158	32.2266	66.9398	32.2266	67.2151
33.6914	62.6392	33.6914	62.4163	33.6914	62.8269	33.6914	62.2026	33.6914	62.9495	33.6914	62.0557	33.6914	62.9898	33.6914	62.0398	33.6914	62.9438	33.6914	62.2081	33.6914	62.8236	33.6914	62.5828	33.6914	62.6632	33.6914	63.1443	33.6914	62.5259	33.6914	63.8411	33.6914	62.5035	33.6914	64.6094	33.6914	62.6933	33.6914	65.3907	33.6914	63.1496	33.6914	66.1387	33.6914	63.8464	33.6914	66.819	33.6914	64.6914	33.6914	67.4066	33.6914	65.5754	33.6914	67.8825	33.6914	66.4092	33.6914	68.2317	33.6914	67.1345	33.6914	68.4416	33.6914	67.7179	33.6914	68.5017	33.6914	68.1429	33.6914	68.4039
35.1562	63.9994	35.1562	63.8387	35.1562	64.1386	35.1562	63.6945	35.1562	64.2302	35.1562	63.6141	35.1562	64.2597	35.1562	63.6478	35.1562	64.2256	35.1562	63.8356	35.1562	64.1416	35.1562	64.194	35.1562	64.0413	35.1562	64.7084	35.1562	63.9817	35.1562	65.3399	35.1562	64.0377	35.1562	66.0379	35.1562	64.281	35.1562	66.7532	35.1562	64.7453	35.1562	67.4443	35.1562	65.4034	35.1562	68.0785	35.1562	66.1805	35.1562	68.6307	35.1562	66.9885	35.1562	69.0814	35.1562	67.7522	35.1562	69.4146	35.1562	68.4196	35.1562	69.6173	35.1562	68.9584	35.1562	69.6789	35.1562	69.3515	35.1562	69.5918
36.6211	65.6019	36.6211	65.454	36.6211	65.7368	36.6211	65.3254	36.6211	65.836	36.6211	65.2551	36.6211	65.8868	36.6211	65.2837	36.6211	65.8875	36.6211	65.4441	36.6211	65.8499	36.6211	65.7513	36.6211	65.8013	36.6211	66.1967	36.6211	65.7866	36.6211	66.7513	36.6211	65.8634	36.6211	67.3741	36.6211	66.0863	36.6211	68.0227	36.6211	66.4841	36.6211	68.6585	36.6211	67.042	36.6211	69.2498	36.6211	67.7071	36.6211	69.771	36.6211	68.4093	36.6211	70.2014	36.6211	69.0832	36.6211	70.5243	36.6211	69.6787	36.6211	70.7262	36.6211	70.1626	36.6211	70.7963	36.6211	70.5152	36.6211	70.7271
38.0859	66.7403	38.0859	66.6146	38.0859	66.8579	38.0859	66.5088	38.0859	66.9474	38.0859	66.4566	38.0859	66.9977	38.0859	66.4929	38.0859	67.0077	38.0859	66.6459	38.0859	66.9878	38.0859	66.9295	38.0859	66.9624	38.0859	67.3383	38.0859	66.9704	38.0859	67.8486	38.0859	67.0606	38.0859	68.4257	38.0859	67.2791	38.0859	69.0313	38.0859	67.6507	38.0859	69.6297	38.0859	68.1646	38.0859	70.1898	38.0859	68.7769	38.0859	70.6863	38.0859	69.4269	38.0859	71.0982	38.0859	70.0553	38.0859	71.4083	38.0859	70.6145	38.0859	71.6029	38.0859	71.0714	38.0859	71.6713	38.0859	71.4055	38.0859	71.6064
39.5508	68.1565	39.5508	68.0544	39.5508	68.254	39.5508	67.9708	39.5508	68.33	39.5508	67.9333	39.5508	68.3752	39.5508	67.97	39.5508	68.3888	39.5508	68.1047	39.5508	68.3801	39.5508	68.3499	39.5508	68.3699	39.5508	68.7038	39.5508	68.3905	39.5508	69.1498	39.5508	68.4823	39.5508	69.6606	39.5508	68.6833	39.5508	70.204	39.5508	69.0149	39.5508	70.7479	39.5508	69.4705	39.5508	71.2631	39.5508	70.0158	39.5508	71.7244	39.5508	70.6001	39.5508	72.1104	39.5508	71.1706	39.5508	72.4034	39.5508	71.683	39.5508	72.5891	39.5508	72.1043	39.5508	72.6565	39.5508	72.4134	39.5508	72.5987
41.0156	69.3878	41.0156	69.3064	41.0156	69.4734	41.0156	69.2487	41.0156	69.5484	41.0156	69.2376	41.0156	69.6048	41.0156	69.2958	41.0156	69.6421	41.0156	69.4414	41.0156	69.6686	41.0156	69.6833	41.0156	69.7018	41.0156	70.019	41.0156	69.768	41.0156	70.4343	41.0156	69.8982	41.0156	70.9065	41.0156	70.1202	41.0156	71.4084	41.0156	70.448	41.0156	71.9121	41.0156	70.8745	41.0156	72.3915	41.0156	71.3714	41.0156	72.8234	41.0156	71.8974	41.0156	73.1877	41.0156	72.4089	41.0156	73.4673	41.0156	72.8672	41.0156	73.6486	41.0156	73.2433	41.0156	73.7209	41.0156	73.5171	41.0156	73.6777
42.4805	70.7738	42.4805	70.696	42.4805	70.8546	42.4805	70.638	42.4805	70.9258	42.4805	70.6197	42.4805	70.9804	42.4805	70.661	42.4805	71.018	42.4805	70.7788	42.4805	71.0454	42.4805	70.983	42.4805	71.0776	42.4805	71.2737	42.4805	71.1368	42.4805	71.641	42.4805	71.2496	42.4805	72.0661	42.4805	71.4408	42.4805	72.5252	42.4805	71.7247	42.4805	72.9923	42.4805	72.0985	42.4805	73.4419	42.4805	72.5405	42.4805	73.8506	42.4805	73.0157	42.4805	74.1978	42.4805	73.4843	42.4805	74.4659	42.4805	73.9094	42.4805	74.6405	42.4805	74.2614	42.4805	74.711	42.4805	74.5195	42.4805	74.6711
43.9453	71.8133	43.9453	71.7554	43.9453	71.8803	43.9453	71.7208	43.9453	71.9457	43.9453	71.7259	43.9453	72.0033	43.9453	71.7867	43.9453	72.0525	43.9453	71.9164	43.9453	72.0989	43.9453	72.1224	43.9453	72.1549	43.9453	72.4042	43.9453	72.2384	43.9453	72.7529	43.9453	72.371	43.9453	73.1527	43.9453	72.5723	43.9453	73.583	43.9453	72.8531	43.9453	74.0207	43.9453	73.2105	43.9453	74.4429	43.9453	73.6258	43.9453	74.8279	43.9453	74.0691	43.9453	75.1562	43.9453	74.5053	43.9453	75.4107	43.9453	74.9013	43.9453	75.5774	43.9453	75.2295	43.9453	75.6461	43.9453	75.4701	43.9453	75.6107
45.4102	72.9719	45.4102	72.9199	45.4102	73.0336	45.4102	72.8898	45.4102	73.0957	45.4102	72.8956	45.4102	73.1529	45.4102	72.9511	45.4102	73.2046	45.4102	73.0679	45.4102	73.2557	45.4102	73.2527	45.4102	73.3165	45.4102	73.5061	45.4102	73.4023	45.4102	73.8211	45.4102	73.5312	45.4102	74.1847	45.4102	73.7197	45.4102	74.5789	45.4102	73.9775	45.4102	74.9832	45.4102	74.3023	45.4102	75.3761	45.4102	74.6788	45.4102	75.737	45.4102	75.0813	45.4102	76.0469	45.4102	75.4788	45.4102	76.289	45.4102	75.8409	45.4102	76.4494	45.4102	76.1417	45.4102	76.5181	45.4102	76.3619	45.4102	76.4891
46.875	74.0507	46.875	74.0074	46.875	74.1043	46.875	73.9848	46.875	74.1605	46.875	73.9946	46.875	74.2149	46.875	74.0487	46.875	74.267	46.875	74.1568	46.875	74.3212	46.875	74.3253	46.875	74.3863	46.875	74.5552	46.875	74.4756	46.875	74.8415	46.875	74.6042	46.875	75.1735	46.875	74.7862	46.875	75.5359	46.875	75.0294	46.875	75.9102	46.875	75.3318	46.875	76.2769	46.875	75.6801	46.875	76.6165	46.875	76.0516	46.875	76.9103	46.875	76.4184	46.875	77.1421	46.875	76.7525	46.875	77.2981	46.875	77.0298	46.875	77.368	46.875	77.2316	46.875	77.3461
48.3398	74.8899	48.3398	74.8473	48.3398	74.9445	48.3398	74.8261	48.3398	75.0042	48.3398	74.8372	48.3398	75.0649	48.3398	74.8911	48.3398	75.1266	48.3398	74.997	48.3398	75.193	48.3398	75.1604	48.3398	75.2722	48.3398	75.3822	48.3398	75.3752	48.3398	75.6575	48.3398	75.5147	48.3398	75.9765	48.3398	75.702	48.3398	76.3247	48.3398	75.9429	48.3398	76.685	48.3398	76.2346	48.3398	77.0389	48.3398	76.5649	48.3398	77.368	48.3398	76.9133	48.3398	77.6544	48.3398	77.2548	48.3398	77.8825	48.3398	77.5642	48.3398	78.039	48.3398	77.8189	48.3398	78.1141	48.3398	78.0019	48.3398	78.1019
51.2695	76.7235	51.2695	76.6916	51.2695	76.7709	51.2695	76.6816	51.2695	76.8285	51.2695	76.7006	51.2695	76.8934	51.2695	76.7557	51.2695	76.9649	51.2695	76.8526	51.2695	77.0448	51.2695	76.995	51.2695	77.1377	51.2695	77.1835	51.2695	77.2504	51.2695	77.4149	51.2695	77.3905	51.2695	77.6823	51.2695	77.5645	51.2695	77.9753	51.2695	77.7757	51.2695	78.2808	51.2695	78.0222	51.2695	78.5839	51.2695	78.2952	51.2695	78.8689	51.2695	78.5803	51.2695	79.1202	51.2695	78.8587	51.2695	79.3235	51.2695	79.1104	51.2695	79.4666	51.2695	79.3169	51.2695	79.5403	51.2695	79.4633	51.2695	79.5393
52.7344	77.5863	52.7344	77.5582	52.7344	77.6311	52.7344	77.552	52.7344	77.6882	52.7344	77.5735	52.7344	77.7548	52.7344	77.6283	52.7344	77.83	52.7344	77.721	52.7344	77.9148	52.7344	77.8545	52.7344	78.0125	52.7344	78.0292	52.7344	78.1281	52.7344	78.2424	52.7344	78.2671	52.7344	78.4883	52.7344	78.4347	52.7344	78.7582	52.7344	78.6333	52.7344	79.0405	52.7344	78.8612	52.7344	79.3218	52.7344	79.1109	52.7344	79.5878	52.7344	79.3701	52.7344	79.8239	52.7344	79.6224	52.7344	80.0166	52.7344	79.85	52.7344	80.1541	52.7344	80.036	52.7344	80.2275	52.7344	80.1665	52.7344	80.2318
54.1992	78.354	54.1992	78.3285	54.1992	78.3952	54.1992	78.323	54.1992	78.4487	54.1992	78.3423	54.1992	78.5125	54.1992	78.3913	54.1992	78.5858	54.1992	78.4739	54.1992	78.6696	54.1992	78.5931	54.1992	78.7664	54.1992	78.7498	54.1992	78.88	54.1992	78.9422	54.1992	79.0148	54.1992	79.1657	54.1992	79.1745	54.1992	79.4129	54.1992	79.3609	54.1992	79.6736	54.1992	79.5721	54.1992	79.9356	54.1992	79.8018	54.1992	80.1856	54.1992	80.0388	54.1992	80.4096	54.1992	80.2687	54.1992	80.5945	54.1992	80.4753	54.1992	80.7288	54.1992	80.643	54.1992	80.8035	54.1992	80.7589	54.1992	80.8138
55.6641	78.9899	55.6641	78.9672	55.6641	79.0282	55.6641	78.9637	55.6641	79.0796	55.6641	78.9832	55.6641	79.1422	55.6641	79.0297	55.6641	79.2154	55.6641	79.1067	55.6641	79.2999	55.6641	79.2167	55.6641	79.3974	55.6641	79.3606	55.6641	79.5107	55.6641	79.5372	55.6641	79.6432	55.6641	79.7428	55.6641	79.7975	55.6641	79.9709	55.6641	79.9745	55.6641	80.2127	55.6641	80.1724	55.6641	80.4571	55.6641	80.3852	55.6641	80.6917	55.6641	80.6031	55.6641	80.9035	55.6641	80.8131	55.6641	81.08	55.6641	81.0007	55.6641	81.21	55.6641	81.1517	55.6641	81.285	55.6641	81.2543	55.6641	81.3
58.5938	80.0506	58.5938	80.0303	58.5938	80.088	58.5938	80.0293	58.5938	80.1405	58.5938	80.0501	58.5938	80.2069	58.5938	80.0955	58.5938	80.2864	58.5938	80.1677	58.5938	80.3788	58.5938	80.2683	58.5938	80.4848	58.5938	80.3978	58.5938	80.6052	58.5938	80.5551	58.5938	80.7409	58.5938	80.7372	58.5938	80.8924	58.5938	80.939	58.5938	81.0591	58.5938	81.1535	58.5938	81.2384	58.5938	81.3714	58.5938	81.4251	58.5938	81.5824	58.5938	81.6113	58.5938	81.7751	58.5938	81.7868	58.5938	81.9386	58.5938	81.9403	58.5938	82.0628	58.5938	82.0605	58.5938	82.1399	58.5938	82.1377	58.5938	82.1652
60.0586	80.5167	60.0586	80.4963	60.0586	80.5549	60.0586	80.4954	60.0586	80.6094	60.0586	80.5159	60.0586	80.6789	60.0586	80.5598	60.0586	80.7626	60.0586	80.6286	60.0586	80.8599	60.0586	80.7236	60.0586	80.9704	60.0586	80.8449	60.0586	81.0941	60.0586	80.9916	60.0586	81.2307	60.0586	81.161	60.0586	81.3797	60.0586	81.3488	60.0586	81.5397	60.0586	81.5487	60.0586	81.708	60.0586	81.7527	60.0586	81.8798	60.0586	81.9512	60.0586	82.0484	60.0586	82.1341	60.0586	82.2049	60.0586	82.2911	60.0586	82.3397	60.0586	82.4127	60.0586	82.4428	60.0586	82.4915	60.0586	82.5059	60.0586	82.523
62.9883	81.4201	62.9883	81.3992	62.9883	81.4589	62.9883	81.397	62.9883	81.5146	62.9883	81.4144	62.9883	81.5863	62.9883	81.452	62.9883	81.6727	62.9883	81.5107	62.9883	81.7724	62.9883	81.5908	62.9883	81.884	62.9883	81.6924	62.9883	82.0057	62.9883	81.8147	62.9883	82.1358	62.9883	81.9559	62.9883	82.2724	62.9883	82.113	62.9883	82.4135	62.9883	82.2814	62.9883	82.5561	62.9883	82.4551	62.9883	82.6967	62.9883	82.6264	62.9883	82.8301	62.9883	82.7869	62.9883	82.9503	62.9883	82.9279	62.9883	83.0501	62.9883	83.0412	62.9883	83.1223	62.9883	83.1201	62.9883	83.1605	62.9883	83.1603
64.4531	81.7993	64.4531	81.7772	64.4531	81.8389	64.4531	81.7734	64.4531	81.8952	64.4531	81.7882	64.4531	81.9672	64.4531	81.8221	64.4531	82.0537	64.4531	81.8755	64.4531	82.153	64.4531	81.9486	64.4531	82.2633	64.4531	82.0412	64.4531	82.3825	64.4531	82.1527	64.4531	82.5085	64.4531	82.2816	64.4531	82.6388	64.4531	82.4253	64.4531	82.7713	64.4531	82.58	64.4531	82.9029	64.4531	82.7403	64.4531	83.0303	64.4531	82.8996	64.4531	83.149	64.4531	83.0503	64.4531	83.2539	64.4531	83.1842	64.4531	83.3388	64.4531	83.2939	64.4531	83.3976	64.4531	83.3729	64.4531	83.4249	64.4531	83.4171
67.3828	82.33	67.3828	82.3074	67.3828	82.3694	67.3828	82.3017	67.3828	82.4252	67.3828	82.3127	67.3828	82.4967	67.3828	82.3403	67.3828	82.5824	67.3828	82.3844	67.3828	82.6805	67.3828	82.4446	67.3828	82.7884	67.3828	82.5209	67.3828	82.9033	67.3828	82.6125	67.3828	83.0222	67.3828	82.7187	67.3828	83.1418	67.3828	82.8376	67.3828	83.259	67.3828	82.9666	67.3828	83.371	67.3828	83.1018	67.3828	83.4746	67.3828	83.2382	67.3828	83.5665	67.3828	83.3696	67.3828	83.6431	67.3828	83.4895	67.3828	83.7005	67.3828	83.5914	67.3828	83.7346	67.3828	83.6697	67.3828	83.742	67.3828	83.7205
68.8477	82.4958	68.8477	82.4746	68.8477	82.5345	68.8477	82.4705	68.8477	82.5905	68.8477	82.4832	68.8477	82.6629	68.8477	82.5122	68.8477	82.7505	68.8477	82.5568	68.8477	82.8509	68.8477	82.6167	68.8477	82.9616	68.8477	82.6913	68.8477	83.079	68.8477	82.7802	68.8477	83.1998	68.8477	82.8823	68.8477	83.3201	68.8477	82.9962	68.8477	83.4366	68.8477	83.1194	68.8477	83.546	68.8477	83.2486	68.8477	83.6451	68.8477	83.3791	68.8477	83.7309	68.8477	83.5055	68.8477	83.8004	68.8477	83.6216	68.8477	83.8502	68.8477	83.7215	68.8477	83.8772	68.8477	83.7998	68.8477	83.8786	68.8477	83.8529
71.7773	82.9297	71.7773	82.9116	71.7773	82.9657	71.7773	82.9105	71.7773	83.0198	71.7773	82.9255	71.7773	83.0916	71.7773	82.9552	71.7773	83.1796	71.7773	82.9985	71.7773	83.2815	71.7773	83.0542	71.7773	83.3939	71.7773	83.1217	71.7773	83.513	71.7773	83.2001	71.7773	83.6343	71.7773	83.2887	71.7773	83.753	71.7773	83.3866	71.7773	83.865	71.7773	83.4924	71.7773	83.9662	71.7773	83.6038	71.7773	84.0535	71.7773	83.7176	71.7773	84.1242	71.7773	83.8299	71.7773	84.1763	71.7773	83.9357	71.7773	84.2078	71.7773	84.0303	71.7773	84.2174	71.7773	84.1087	71.7773	84.204	71.7773	84.1675
74.707	83.37	74.707	83.3515	74.707	83.4063	74.707	83.3497	74.707	83.4606	74.707	83.3631	74.707	83.5326	74.707	83.39	74.707	83.6207	74.707	83.4287	74.707	83.7223	74.707	83.4778	74.707	83.8337	74.707	83.536	74.707	83.9506	74.707	83.6024	74.707	84.0676	74.707	83.6761	74.707	84.1797	74.707	83.7568	74.707	84.2818	74.707	83.8435	74.707	84.3698	74.707	83.9353	74.707	84.4405	74.707	84.0303	74.707	84.492	74.707	84.1261	74.707	84.5232	74.707	84.2195	74.707	84.5339	74.707	84.3068	74.707	84.5243	74.707	84.384	74.707	84.4952	74.707	84.4477
77.6367	83.6434	77.6367	83.6268	77.6367	83.6763	77.6367	83.625	77.6367	83.7264	77.6367	83.6359	77.6367	83.7936	77.6367	83.6574	77.6367	83.8764	77.6367	83.6874	77.6367	83.9722	77.6367	83.7239	77.6367	84.077	77.6367	83.7657	77.6367	84.1857	77.6367	83.8119	77.6367	84.2927	77.6367	83.8622	77.6367	84.3921	77.6367	83.9169	77.6367	84.4785	77.6367	83.9764	77.6367	84.5478	77.6367	84.0411	77.6367	84.5969	77.6367	84.1109	77.6367	84.6247	77.6367	84.185	77.6367	84.6313	77.6367	84.2618	77.6367	84.618	77.6367	84.339	77.6367	84.5869	77.6367	84.4133	77.6367	84.5405	77.6367	84.4816
79.1016	83.719	79.1016	83.7008	79.1016	83.7524	79.1016	83.696	79.1016	83.8019	79.1016	83.7025	79.1016	83.8674	79.1016	83.7178	79.1016	83.9476	79.1016	83.7399	79.1016	84.0397	79.1016	83.767	79.1016	84.1397	79.1016	83.7977	79.1016	84.2423	79.1016	83.8315	79.1016	84.3418	79.1016	83.8685	79.1016	84.4323	79.1016	83.9094	79.1016	84.5085	79.1016	83.9553	79.1016	84.5663	79.1016	84.0071	79.1016	84.6029	79.1016	84.0655	79.1016	84.6177	79.1016	84.1303	79.1016	84.6111	79.1016	84.2007	79.1016	84.5851	79.1016	84.2746	79.1016	84.5425	79.1016	84.3491	79.1016	84.4867	79.1016	84.421
82.0312	83.9366	82.0312	83.9098	82.0312	83.9761	82.0312	83.8943	82.0312	84.0288	82.0312	83.8885	82.0312	84.0947	82.0312	83.8904	82.0312	84.1725	82.0312	83.8984	82.0312	84.2599	82.0312	83.911	82.0312	84.3532	82.0312	83.9275	82.0312	84.4478	82.0312	83.9475	82.0312	84.5384	82.0312	83.9714	82.0312	84.6193	82.0312	84.0001	82.0312	84.6853	82.0312	84.0351	82.0312	84.7322	82.0312	84.0777	82.0312	84.7573	82.0312	84.1291	82.0312	84.7594	82.0312	84.1897	82.0312	84.7393	82.0312	84.2589	82.0312	84.6992	82.0312	84.335	82.0312	84.6426	82.0312	84.4153	82.0312	84.5734	82.0312	84.4962
84.9609	83.9418	84.9609	83.9168	84.9609	83.9854	84.9609	83.909	84.9609	84.048	84.9609	83.9159	84.9609	84.1286	84.9609	83.9349	84.9609	84.2253	84.9609	83.9631	84.9609	84.3344	84.9609	83.9979	84.9609	84.4516	84.9609	84.0371	84.9609	84.5713	84.9609	84.0794	84.9609	84.6874	84.9609	84.1243	84.9609	84.7935	84.9609	84.172	84.9609	84.8836	84.9609	84.2235	84.9609	84.9523	84.9609	84.2803	84.9609	84.9958	84.9609	84.3436	84.9609	85.0121	84.9609	84.4145	84.9609	85.0014	84.9609	84.4929	84.9609	84.966	84.9609	84.5776	84.9609	84.9095	84.9609	84.6659	84.9609	84.8371	84.9609	84.754
87.8906	83.9071	87.8906	83.9003	87.8906	83.937	87.8906	83.9139	87.8906	83.9912	87.8906	83.9441	87.8906	84.0696	87.8906	83.9865	87.8906	84.1702	87.8906	84.0366	87.8906	84.2896	87.8906	84.0903	87.8906	84.4228	87.8906	84.1443	87.8906	84.5633	87.8906	84.1967	87.8906	84.7033	87.8906	84.2466	87.8906	84.8344	87.8906	84.2945	87.8906	84.9483	87.8906	84.3423	87.8906	85.0376	87.8906	84.3925	87.8906	85.0968	87.8906	84.448	87.8906	85.123	87.8906	84.5114	87.8906	85.1163	87.8906	84.5842	87.8906	85.0795	87.8906	84.6664	87.8906	85.0178	87.8906	84.7559	87.8906	84.9383	87.8906	84.8486
90.8203	84.123	90.8203	84.1147	90.8203	84.1471	90.8203	84.1192	90.8203	84.1886	90.8203	84.1327	90.8203	84.2481	90.8203	84.1511	90.8203	84.3242	90.8203	84.1703	90.8203	84.4142	90.8203	84.187	90.8203	84.5139	90.8203	84.1986	90.8203	84.6172	90.8203	84.2041	90.8203	84.7172	90.8203	84.2041	90.8203	84.8063	90.8203	84.2005	90.8203	84.877	90.8203	84.1969	90.8203	84.9227	90.8203	84.1979	90.8203	84.9389	90.8203	84.2086	90.8203	84.9238	90.8203	84.2336	90.8203	84.8785	90.8203	84.2767	90.8203	84.8073	90.8203	84.3391	90.8203	84.7171	90.8203	84.4198	90.8203	84.6164	90.8203	84.5144
95.2148	84.6553	95.2148	84.6357	95.2148	84.6809	95.2148	84.6194	95.2148	84.715	95.2148	84.604	95.2148	84.7598	95.2148	84.5874	95.2148	84.8161	95.2148	84.5682	95.2148	84.8832	95.2148	84.5452	95.2148	84.958	95.2148	84.518	95.2148	85.0352	95.2148	84.4868	95.2148	85.1076	95.2148	84.4525	95.2148	85.1665	95.2148	84.4171	95.2148	85.2039	95.2148	84.3836	95.2148	85.2126	95.2148	84.3561	95.2148	85.1884	95.2148	84.3395	95.2148	85.1307	95.2148	84.3391	95.2148	85.0431	95.2148	84.3599	95.2148	84.9327	95.2148	84.4053	95.2148	84.8099	95.2148	84.4767	95.2148	84.6861	95.2148	84.5721
98.1445	84.4443	98.1445	84.4301	98.1445	84.4703	98.1445	84.4256	98.1445	84.5104	98.1445	84.4279	98.1445	84.5657	98.1445	84.4344	98.1445	84.6365	98.1445	84.4424	98.1445	84.7212	98.1445	84.4495	98.1445	84.8164	98.1445	84.4537	98.1445	84.9161	98.1445	84.4541	98.1445	85.0129	98.1445	84.4505	98.1445	85.0981	98.1445	84.4441	98.1445	85.163	98.1445	84.4375	98.1445	85.2004	98.1445	84.4344	98.1445	85.2054	98.1445	84.4393	98.1445	85.1766	98.1445	84.4571	98.1445	85.1164	98.1445	84.4922	98.1445	85.0309	98.1445	84.5471	98.1445	84.9288	98.1445	84.6224	98.1445	84.8203	98.1445	84.7154
101.074	84.3983	101.074	84.3788	101.074	84.4328	101.074	84.3717	101.074	84.4846	101.074	84.3741	101.074	84.5546	101.074	84.383	101.074	84.6422	101.074	84.3958	101.074	84.7445	101.074	84.4098	101.074	84.8564	101.074	84.4229	101.074	84.9705	101.074	84.4334	101.074	85.0783	101.074	84.4407	101.074	85.1704	101.074	84.4452	101.074	85.2383	101.074	84.4488	101.074	85.2752	101.074	84.4546	101.074	85.277	101.074	84.4669	101.074	85.2433	101.074	84.4902	101.074	85.1776	101.074	84.5292	101.074	85.0866	101.074	84.587	101.074	84.9798	101.074	84.6645	101.074	84.8675	101.074	84.7597
105.469	84.449	105.469	84.4308	105.469	84.4814	105.469	84.4244	105.469	84.5295	105.469	84.4265	105.469	84.5937	105.469	84.4336	105.469	84.6727	105.469	84.4419	105.469	84.7641	105.469	84.4477	105.469	84.8634	105.469	84.4483	105.469	84.9645	105.469	84.4419	105.469	85.0601	105.469	84.4283	105.469	85.1417	105.469	84.4093	105.469	85.2012	105.469	84.3884	105.469	85.2313	105.469	84.3707	105.469	85.2273	105.469	84.3628	105.469	85.1876	105.469	84.3714	105.469	85.1144	105.469	84.4024	105.469	85.0137	105.469	84.4593	105.469	84.8949	105.469	84.5425	105.469	84.7692	105.469	84.6483
108.398	84.6313	108.398	84.6174	108.398	84.659	108.398	84.6142	108.398	84.7019	108.398	84.6182	108.398	84.7602	108.398	84.6252	108.398	84.8327	108.398	84.6308	108.398	84.9163	108.398	84.631	108.398	85.0063	108.398	84.6225	108.398	85.0965	108.398	84.6035	108.398	85.1794	108.398	84.5737	108.398	85.2469	108.398	84.535	108.398	85.291	108.398	84.4917	108.398	85.3048	108.398	84.4498	108.398	85.284	108.398	84.4174	108.398	85.2273	108.398	84.4028	108.398	85.1376	108.398	84.4137	108.398	85.0219	108.398	84.4554	108.398	84.8906	108.398	84.5293	108.398	84.7564	108.398	84.6322
112.793	84.7488	112.793	84.7291	112.793	84.7799	112.793	84.7187	112.793	84.823	112.793	84.7143	112.793	84.8776	112.793	84.712	112.793	84.9419	112.793	84.7074	112.793	85.0129	112.793	84.6966	112.793	85.0866	112.793	84.6764	112.793	85.1579	112.793	84.645	112.793	85.221	112.793	84.6024	112.793	85.2691	112.793	84.5508	112.793	85.2952	112.793	84.4947	112.793	85.2932	112.793	84.4407	112.793	85.2589	112.793	84.3967	112.793	85.191	112.793	84.3715	112.793	85.0924	112.793	84.3731	112.793	84.9701	112.793	84.4071	112.793	84.8345	112.793	84.4753	112.793	84.6984	112.793	84.575
117.188	84.8955	117.188	84.87	117.188	84.9263	117.188	84.8481	117.188	84.9634	117.188	84.8269	117.188	85.0066	117.188	84.803	117.188	85.055	117.188	84.7726	117.188	85.1067	117.188	84.7326	117.188	85.1592	117.188	84.6807	117.188	85.2086	117.188	84.6164	117.188	85.2501	117.188	84.541	117.188	85.2777	117.188	84.4585	117.188	85.2848	117.188	84.3747	117.188	85.2654	117.188	84.2981	117.188	85.2149	117.188	84.2379	117.188	85.1318	117.188	84.2039	117.188	85.0182	117.188	84.2041	117.188	84.8805	117.188	84.2434	117.188	84.7288	117.188	84.3225	117.188	84.5762	117.188	84.4365
120.117	85.1373	120.117	85.1108	120.117	85.1627	120.117	85.0808	120.117	85.1882	120.117	85.0437	120.117	85.2135	120.117	84.9953	120.117	85.2377	120.117	84.9314	120.117	85.2588	120.117	84.8488	120.117	85.2744	120.117	84.7455	120.117	85.2811	120.117	84.6223	120.117	85.2748	120.117	84.4821	120.117	85.2505	120.117	84.3311	120.117	85.2028	120.117	84.1784	120.117	85.127	120.117	84.0352	120.117	85.02	120.117	83.9146	120.117	84.8818	120.117	83.8294	120.117	84.7161	120.117	83.7908	120.117	84.5311	120.117	83.8059	120.117	84.3391	120.117	83.8759	120.117	84.1553	120.117	83.996
124.512	85.245	124.512	85.2115	124.512	85.2716	124.512	85.1691	124.512	85.2926	124.512	85.1155	124.512	85.3086	124.512	85.0483	124.512	85.32	124.512	84.9651	124.512	85.3263	124.512	84.8641	124.512	85.3261	124.512	84.7447	124.512	85.3166	124.512	84.6079	124.512	85.2934	124.512	84.4565	124.512	85.2507	124.512	84.2956	124.512	85.1824	124.512	84.1325	124.512	85.0833	124.512	83.977	124.512	84.9506	124.512	83.8408	124.512	84.7855	124.512	83.7367	124.512	84.5939	124.512	83.6768	124.512	84.3867	124.512	83.6706	124.512	84.1791	124.512	83.7228	124.512	83.9883	124.512	83.8316
128.906	84.8826	128.906	84.8467	128.906	84.917	128.906	84.8083	128.906	84.9511	128.906	84.7669	128.906	84.9869	128.906	84.7219	128.906	85.0266	128.906	84.6725	128.906	85.0714	128.906	84.6177	128.906	85.1207	128.906	84.5564	128.906	85.1711	128.906	84.488	128.906	85.2161	128.906	84.4125	128.906	85.2467	128.906	84.3315	128.906	85.2528	128.906	84.2483	128.906	85.225	128.906	84.1686	128.906	85.1573	128.906	84.1002	128.906	85.0488	128.906	84.0526	128.906	84.9043	128.906	84.0358	128.906	84.7347	128.906	84.0583	128.906	84.5553	128.906	84.1252	128.906	84.3835	128.906	84.2359
133.301	84.6124	133.301	84.5673	133.301	84.6589	133.301	84.5225	133.301	84.7084	133.301	84.4772	133.301	84.7628	133.301	84.4309	133.301	84.8237	133.301	84.3829	133.301	84.8913	133.301	84.3321	133.301	84.9638	133.301	84.2775	133.301	85.0365	133.301	84.2183	133.301	85.1022	133.301	84.1548	133.301	85.1514	133.301	84.0886	133.301	85.1741	133.301	84.0235	133.301	85.1611	133.301	83.9652	133.301	85.1065	133.301	83.9215	133.301	85.0088	133.301	83.9012	133.301	84.8723	133.301	83.9129	133.301	84.7066	133.301	83.9632	133.301	84.5261	133.301	84.055	133.301	84.347	133.301	84.1856
139.16	84.6195	139.16	84.582	139.16	84.6625	139.16	84.5483	139.16	84.7124	139.16	84.5161	139.16	84.7704	139.16	84.483	139.16	84.8366	139.16	84.4462	139.16	84.9102	139.16	84.4026	139.16	84.9884	139.16	84.3497	139.16	85.0663	139.16	84.2854	139.16	85.1363	139.16	84.2093	139.16	85.1886	139.16	84.1235	139.16	85.2124	139.16	84.0329	139.16	85.1973	139.16	83.9456	139.16	85.1362	139.16	83.8724	139.16	85.0265	139.16	83.8258	139.16	84.8722	139.16	83.818	139.16	84.6841	139.16	83.8585	139.16	84.4784	139.16	83.9514	139.16	84.2749	139.16	84.0937
143.555	84.6707	143.555	84.6315	143.555	84.7192	143.555	84.6007	143.555	84.7774	143.555	84.5763	143.555	84.8451	143.555	84.5554	143.555	84.9215	143.555	84.5343	143.555	85.0051	143.555	84.5083	143.555	85.0926	143.555	84.473	143.555	85.179	143.555	84.4248	143.555	85.2563	143.555	84.3619	143.555	85.3144	143.555	84.2852	143.555	85.342	143.555	84.1988	143.555	85.3285	143.555	84.1107	143.555	85.2666	143.555	84.0323	143.555	85.1543	143.555	83.9771	143.555	84.9961	143.555	83.959	143.555	84.8037	143.555	83.9893	143.555	84.5947	143.555	84.0738	143.555	84.3901	143.555	84.2108
147.949	84.446	147.949	84.3977	147.949	84.4977	147.949	84.3537	147.949	84.5529	147.949	84.315	147.949	84.6123	147.949	84.2818	147.949	84.678	147.949	84.2535	147.949	84.7521	147.949	84.2282	147.949	84.8355	147.949	84.2037	147.949	84.9265	147.949	84.1773	147.949	85.0196	147.949	84.1476	147.949	85.1049	147.949	84.1141	147.949	85.1699	147.949	84.0789	147.949	85.2015	147.949	84.0464	147.949	85.1888	147.949	84.0236	147.949	85.1261	147.949	84.0191	147.949	85.0147	147.949	84.0427	147.949	84.8636	147.949	84.1022	147.949	84.688	147.949	84.202	147.949	84.5071	147.949	84.3399
153.809	84.6201	153.809	84.5669	153.809	84.67	153.809	84.5099	153.809	84.7167	153.809	84.4481	153.809	84.7604	153.809	84.3803	153.809	84.8014	153.809	84.305	153.809	84.8397	153.809	84.2206	153.809	84.8751	153.809	84.1265	153.809	84.9064	153.809	84.023	153.809	84.9305	153.809	83.9127	153.809	84.9421	153.809	83.8003	153.809	84.9339	153.809	83.693	153.809	84.8978	153.809	83.6002	153.809	84.8271	153.809	83.5322	153.809	84.7181	153.809	83.4992	153.809	84.5722	153.809	83.5098	153.809	84.3961	153.809	83.5688	153.809	84.2022	153.809	83.6761	153.809	84.0063	153.809	83.8258
159.668	84.6934	159.668	84.6326	159.668	84.7489	159.668	84.5664	159.668	84.7992	159.668	84.4948	159.668	84.8449	159.668	84.417	159.668	84.8873	159.668	84.3318	159.668	84.9277	159.668	84.2382	159.668	84.9668	159.668	84.1352	159.668	85.0034	159.668	84.0232	159.668	85.0338	159.668	83.9046	159.668	85.0509	159.668	83.7839	159.668	85.0454	159.668	83.6687	159.668	85.0078	159.668	83.5687	159.668	84.9301	159.668	83.4953	159.668	84.8088	159.668	83.46	159.668	84.646	159.668	83.4721	159.668	84.4502	159.668	83.5372	159.668	84.2353	159.668	83.6553	159.668	84.019	159.668	83.82
165.527	84.6288	165.527	84.5676	165.527	84.6883	165.527	84.5063	165.527	84.7444	165.527	84.4458	165.527	84.7964	165.527	84.3858	165.527	84.8444	165.527	84.3245	165.527	84.8896	165.527	84.2593	165.527	84.9334	165.527	84.1874	165.527	84.9756	165.527	84.1069	165.527	85.013	165.527	84.0175	165.527	85.039	165.527	83.9221	165.527	85.0442	165.527	83.8263	165.527	85.0182	165.527	83.7385	165.527	84.9525	165.527	83.6696	165.527	84.8432	165.527	83.6309	165.527	84.6925	165.527	83.6329	165.527	84.5095	165.527	83.6827	165.527	84.3089	165.527	83.7825	165.527	84.1088	165.527	83.9281
171.387	84.5169	171.387	84.4504	171.387	84.5811	171.387	84.3842	171.387	84.6401	171.387	84.3203	171.387	84.6924	171.387	84.259	171.387	84.7377	171.387	84.199	171.387	84.778	171.387	84.1379	171.387	84.8162	171.387	84.073	171.387	84.8545	171.387	84.0021	171.387	84.8925	171.387	83.9251	171.387	84.9252	171.387	83.8444	171.387	84.9437	171.387	83.7654	171.387	84.937	171.387	83.6962	171.387	84.8946	171.387	83.6467	171.387	84.8101	171.387	83.6274	171.387	84.6834	171.387	83.6471	171.387	84.5212	171.387	83.7112	171.387	84.3366	171.387	83.8204	171.387	84.1466	171.387	83.9692
177.246	84.7597	177.246	84.6582	177.246	84.8408	177.246	84.5428	177.246	84.8965	177.246	84.42	177.246	84.9247	177.246	84.2957	177.246	84.9266	177.246	84.1746	177.246	84.9073	177.246	84.0599	177.246	84.8744	177.246	83.9535	177.246	84.8356	177.246	83.8562	177.246	84.7968	177.246	83.7689	177.246	84.7597	177.246	83.6925	177.246	84.7213	177.246	83.629	177.246	84.6753	177.246	83.5816	177.246	84.6139	177.246	83.5546	177.246	84.5307	177.246	83.553	177.246	84.4229	177.246	83.5813	177.246	84.2929	177.246	83.6423	177.246	84.1477	177.246	83.7357	177.246	83.9983	177.246	83.8572
183.105	84.6894	183.105	84.6228	183.105	84.7422	183.105	84.5447	183.105	84.7801	183.105	84.4572	183.105	84.8031	183.105	84.3612	183.105	84.8128	183.105	84.2567	183.105	84.812	183.105	84.1426	183.105	84.803	183.105	84.0179	183.105	84.7863	183.105	83.8831	183.105	84.7598	183.105	83.7413	183.105	84.7185	183.105	83.5984	183.105	84.6558	183.105	83.4634	183.105	84.5663	183.105	83.3465	183.105	84.4472	183.105	83.2581	183.105	84.2999	183.105	83.2069	183.105	84.1304	183.105	83.1987	183.105	83.9478	183.105	83.2357	183.105	83.7633	183.105	83.3167	183.105	83.5892	183.105	83.437
188.965	84.4405	188.965	84.3944	188.965	84.4665	188.965	84.3288	188.965	84.4739	188.965	84.2451	188.965	84.4669	188.965	84.1447	188.965	84.4531	188.965	84.0288	188.965	84.442	188.965	83.8983	188.965	84.4424	188.965	83.7545	188.965	84.4585	188.965	83.6005	188.965	84.4868	188.965	83.4414	188.965	84.5156	188.965	83.285	188.965	84.5272	188.965	83.1416	188.965	84.5031	188.965	83.0225	188.965	84.4293	188.965	82.9388	188.965	84.3003	188.965	82.8993	188.965	84.1213	188.965	82.9098	188.965	83.9062	188.965	82.9728	188.965	83.6753	188.965	83.0874	188.965	83.45	188.965	83.2494
196.289	84.6018	196.289	84.5334	196.289	84.6463	196.289	84.4448	196.289	84.6643	196.289	84.3395	196.289	84.6557	196.289	84.2199	196.289	84.6242	196.289	84.0869	196.289	84.5768	196.289	83.9405	196.289	84.523	196.289	83.7805	196.289	84.4717	196.289	83.6085	196.289	84.4282	196.289	83.4293	196.289	84.3918	196.289	83.2516	196.289	84.3557	196.289	83.0879	196.289	84.309	196.289	82.9533	196.289	84.2397	196.289	82.862	196.289	84.1384	196.289	82.825	196.289	84.0009	196.289	82.8476	196.289	83.83	196.289	82.9286	196.289	83.6349	196.289	83.061	196.289	83.4303	196.289	83.2333
203.613	84.6062	203.613	84.5315	203.613	84.6588	203.613	84.4395	203.613	84.6858	203.613	84.3346	203.613	84.687	203.613	84.2194	203.613	84.6667	203.613	84.0941	203.613	84.6326	203.613	83.957	203.613	84.5941	203.613	83.8063	203.613	84.5588	203.613	83.6419	203.613	84.5291	203.613	83.4673	203.613	84.5005	203.613	83.2904	203.613	84.4632	203.613	83.1234	203.613	84.4046	203.613	82.9816	203.613	84.3139	203.613	82.8802	203.613	84.1853	203.613	82.8315	203.613	84.0198	203.613	82.842	203.613	83.825	203.613	82.9121	203.613	83.6136	203.613	83.0359	203.613	83.4009	203.613	83.2033
210.938	84.4803	210.938	84.4004	210.938	84.5326	210.938	84.2966	210.938	84.5552	210.938	84.1722	210.938	84.5481	210.938	84.0303	210.938	84.5149	210.938	83.8734	210.938	84.4625	210.938	83.7038	210.938	84.4008	210.938	83.5244	210.938	84.3401	210.938	83.3401	210.938	84.2874	210.938	83.1579	210.938	84.2441	210.938	82.987	210.938	84.2042	210.938	82.8384	210.938	84.1563	210.938	82.7234	210.938	84.0868	210.938	82.6523	210.938	83.9846	210.938	82.6325	210.938	83.8448	210.938	82.6673	210.938	83.6702	210.938	82.7556	210.938	83.4715	210.938	82.8915	210.938	83.2641	210.938	83.0655
218.262	84.3077	218.262	84.2057	218.262	84.3767	218.262	84.08	218.262	84.4059	218.262	83.9393	218.262	84.3932	218.262	83.7903	218.262	84.344	218.262	83.6374	218.262	84.2704	218.262	83.4831	218.262	84.189	218.262	83.33	218.262	84.116	218.262	83.1819	218.262	84.0628	218.262	83.0445	218.262	84.0321	218.262	82.9254	218.262	84.0185	218.262	82.8335	218.262	84.0102	218.262	82.777	218.262	83.9923	218.262	82.7623	218.262	83.9512	218.262	82.792	218.262	83.8769	218.262	82.8653	218.262	83.7662	218.262	82.9778	218.262	83.6233	218.262	83.1216	218.262	83.4585	218.262	83.2863
225.586	84.448	225.586	84.3447	225.586	84.5023	225.586	84.2004	225.586	84.5051	225.586	84.0262	225.586	84.4607	225.586	83.8345	225.586	84.3796	225.586	83.6365	225.586	84.2767	225.586	83.4423	225.586	84.1675	225.586	83.26	225.586	84.0649	225.586	83.0968	225.586	83.9766	225.586	82.9589	225.586	83.9042	225.586	82.8522	225.586	83.8443	225.586	82.7816	225.586	83.7911	225.586	82.7501	225.586	83.7383	225.586	82.7578	225.586	83.6803	225.586	82.802	225.586	83.612	225.586	82.8769	225.586	83.5302	225.586	82.9749	225.586	83.4337	225.586	83.0877	225.586	83.3243	225.586	83.2068
232.91	84.5551	232.91	84.4538	232.91	84.616	232.91	84.318	232.91	84.6329	232.91	84.1542	232.91	84.6053	232.91	83.9685	232.91	84.5365	232.91	83.766	232.91	84.433	232.91	83.5512	232.91	84.3041	232.91	83.3298	232.91	84.1601	232.91	83.11	232.91	84.0107	232.91	82.9034	232.91	83.8635	232.91	82.7245	232.91	83.7227	232.91	82.5881	232.91	83.5909	232.91	82.5046	232.91	83.4689	232.91	82.477	232.91	83.3563	232.91	82.4997	232.91	83.2513	232.91	82.5611	232.91	83.151	232.91	82.6473	232.91	83.052	232.91	82.7461	232.91	82.9516	232.91	82.8491
241.699	84.3059	241.699	84.2019	241.699	84.3721	241.699	84.0674	241.699	84.3962	241.699	83.9106	241.699	84.3782	241.699	83.7387	241.699	84.3231	241.699	83.5569	241.699	84.2393	241.699	83.3681	241.699	84.1369	241.699	83.1744	241.699	84.0237	241.699	82.9786	241.699	83.9031	241.699	82.7861	241.699	83.7731	241.699	82.6059	241.699	83.6289	241.699	82.45	241.699	83.468	241.699	82.3309	241.699	83.2938	241.699	82.2575	241.699	83.1161	241.699	82.2327	241.699	82.9473	241.699	82.2514	241.699	82.7973	241.699	82.3033	241.699	82.6692	241.699	82.3767	241.699	82.5596	241.699	82.4631
250.488	84.4325	250.488	84.2591	250.488	84.5431	250.488	84.0324	250.488	84.5872	250.488	83.7656	250.488	84.5687	250.488	83.4739	250.488	84.4981	250.488	83.1723	250.488	84.3915	250.488	82.8745	250.488	84.2664	250.488	82.5927	250.488	84.1366	250.488	82.3374	250.488	84.008	250.488	82.1179	250.488	83.8771	250.488	81.9423	250.488	83.7333	250.488	81.8174	250.488	83.5658	250.488	81.7467	250.488	83.3699	250.488	81.7293	250.488	83.1511	250.488	81.7594	250.488	82.923	250.488	81.8275	250.488	82.7019	250.488	81.9234	250.488	82.5008	250.488	82.0393	250.488	82.3249	250.488	82.1725
259.277	84.3915	259.277	84.2543	259.277	84.4701	259.277	84.0638	259.277	84.4904	259.277	83.8296	259.277	84.4584	259.277	83.5639	259.277	84.3848	259.277	83.2802	259.277	84.2851	259.277	82.9921	259.277	84.1768	259.277	82.7135	259.277	84.0765	259.277	82.4582	259.277	83.9928	259.277	82.2393	259.277	83.9222	259.277	82.0678	259.277	83.848	259.277	81.95	259.277	83.7477	259.277	81.886	259.277	83.6028	259.277	81.87	259.277	83.4075	259.277	81.893	259.277	83.1717	259.277	81.9472	259.277	82.9179	259.277	82.0282	259.277	82.6725	259.277	82.1367	259.277	82.4559	259.277	82.2775
268.066	84.2928	268.066	84.1348	268.066	84.4012	268.066	83.9285	268.066	84.4583	268.066	83.6755	268.066	84.4629	268.066	83.3783	268.066	84.4159	268.066	83.0416	268.066	84.3239	268.066	82.6736	268.066	84.2003	268.066	82.2885	268.066	84.0641	268.066	81.9082	268.066	83.9326	268.066	81.5631	268.066	83.8149	268.066	81.2878	268.066	83.7074	268.066	81.1114	268.066	83.5963	268.066	81.0471	268.066	83.4646	268.066	81.0878	268.066	83.2993	268.066	81.2111	268.066	83.0964	268.066	81.3905	268.066	82.8615	268.066	81.6042	268.066	82.6066	268.066	81.8386	268.066	82.3449	268.066	82.0869
276.855	84.3078	276.855	84.1786	276.855	84.3888	276.855	84.0117	276.855	84.4104	276.855	83.8134	276.855	84.3653	276.855	83.5843	276.855	84.2545	276.855	83.3193	276.855	84.0907	276.855	83.0095	276.855	83.8976	276.855	82.6487	276.855	83.705	276.855	82.2401	276.855	83.5405	276.855	81.8048	276.855	83.4207	276.855	81.3863	276.855	83.3459	276.855	81.0456	276.855	83.2996	276.855	80.842	276.855	83.2544	276.855	80.8076	276.855	83.1822	276.855	80.9325	276.855	83.0635	276.855	81.174	276.855	82.8918	276.855	81.479	276.855	82.6715	276.855	81.8034	276.855	82.4112	276.855	82.1191
287.109	84.0399	287.109	83.9069	287.109	84.0996	287.109	83.7185	287.109	84.0761	287.109	83.4941	287.109	83.9722	287.109	83.2493	287.109	83.8065	287.109	82.9919	287.109	83.6092	287.109	82.7216	287.109	83.413	287.109	82.4332	287.109	83.2424	287.109	82.1241	287.109	83.1069	287.109	81.8024	287.109	83.0049	287.109	81.4929	287.109	82.9327	287.109	81.2374	287.109	82.8898	287.109	81.0832	287.109	82.8746	287.109	81.0652	287.109	82.8755	287.109	81.187	287.109	82.8677	287.109	81.4193	287.109	82.8221	287.109	81.714	287.109	82.7169	287.109	82.0226	287.109	82.5439	287.109	82.3075
297.363	84.6122	297.363	84.4609	297.363	84.6808	297.363	84.2421	297.363	84.6564	297.363	83.9725	297.363	84.5378	297.363	83.6665	297.363	84.335	297.363	83.3352	297.363	84.0696	297.363	82.9864	297.363	83.7712	297.363	82.6267	297.363	83.4704	297.363	82.2638	297.363	83.1894	297.363	81.9099	297.363	82.9345	297.363	81.5822	297.363	82.6984	297.363	81.3033	297.363	82.4718	297.363	81.0977	297.363	82.2561	297.363	80.9857	297.363	82.0651	297.363	80.9751	297.363	81.9147	297.363	81.0552	297.363	81.8063	297.363	81.1965	297.363	81.7212	297.363	81.3601	297.363	81.6303	297.363	81.511
307.617	84.5242	307.617	84.371	307.617	84.5998	307.617	84.1513	307.617	84.591	307.617	83.8779	307.617	84.4978	307.617	83.563	307.617	84.3287	307.617	83.2171	307.617	84.1	307.617	82.849	307.617	83.8343	307.617	82.4678	307.617	83.5567	307.617	82.0862	307.617	83.2887	307.617	81.7237	307.617	83.0419	307.617	81.4087	307.617	82.8163	307.617	81.1736	307.617	82.6047	307.617	81.0435	307.617	82.4018	307.617	81.0217	307.617	82.2098	307.617	81.0867	307.617	82.0367	307.617	81.2021	307.617	81.8897	307.617	81.3327	307.617	81.7689	307.617	81.4561	307.617	81.6653	307.617	81.5652
319.336	84.3209	319.336	84.177	319.336	84.3908	319.336	83.975	319.336	84.3778	319.336	83.7319	319.336	84.2832	319.336	83.4611	319.336	84.1187	319.336	83.1694	319.336	83.9027	319.336	82.8567	319.336	83.6547	319.336	82.5191	319.336	83.3905	319.336	82.1555	319.336	83.1217	319.336	81.7756	319.336	82.8567	319.336	81.4067	319.336	82.6043	319.336	81.0942	319.336	82.3748	319.336	80.889	319.336	82.1788	319.336	80.8243	319.336	82.0237	319.336	80.8947	319.336	81.9093	319.336	81.0575	319.336	81.8268	319.336	81.255	319.336	81.7592	319.336	81.4387	319.336	81.6851	319.336	81.5829
329.59	83.6704	329.59	83.514	329.59	83.78	329.59	83.3273	329.59	83.8302	329.59	83.1261	329.59	83.8147	329.59	82.9198	329.59	83.7345	329.59	82.7072	329.59	83.5975	329.59	82.4766	329.59	83.4166	329.59	82.2103	329.59	83.2062	329.59	81.8927	329.59	82.976	329.59	81.5195	329.59	82.7279	329.59	81.1049	329.59	82.4584	329.59	80.6867	329.59	82.1665	329.59	80.3222	329.59	81.8631	329.59	80.073	329.59	81.5721	329.59	79.9793	329.59	81.3207	329.59	80.0385	329.59	81.1213	329.59	80.206	329.59	80.9601	329.59	80.4197	329.59	80.8053	329.59	80.6275
341.309	84.0898	341.309	83.8815	341.309	84.1986	341.309	83.5959	341.309	84.1969	341.309	83.2604	341.309	84.0889	341.309	82.9018	341.309	83.8957	341.309	82.5405	341.309	83.6529	341.309	82.1877	341.309	83.4027	341.309	81.8468	341.309	83.1801	341.309	81.5191	341.309	82.9986	341.309	81.2103	341.309	82.8453	341.309	80.9366	341.309	82.6901	341.309	80.7246	341.309	82.5043	341.309	80.6035	341.309	82.2769	341.309	80.5909	341.309	82.0229	341.309	80.6799	341.309	81.7785	341.309	80.8376	341.309	81.5828	341.309	81.0163	341.309	81.4524	341.309	81.1733	341.309	81.368	341.309	81.2872
353.027	83.5948	353.027	83.3941	353.027	83.6999	353.027	83.1222	353.027	83.6991	353.027	82.8094	353.027	83.6007	353.027	82.4842	353.027	83.4321	353.027	82.1661	353.027	83.2356	353.027	81.8623	353.027	83.0547	353.027	81.5697	353.027	82.9163	353.027	81.2817	353.027	82.816	353.027	80.995	353.027	82.7198	353.027	80.7147	353.027	82.5838	353.027	80.4542	353.027	82.3789	353.027	80.2334	353.027	82.1032	353.027	80.0735	353.027	81.7794	353.027	79.9923	353.027	81.4412	353.027	79.9962	353.027	81.1201	353.027	80.0762	353.027	80.8354	353.027	80.2125	353.027	80.5927	353.027	80.3867
366.211	84.004	366.211	83.7956	366.211	84.0999	366.211	83.4939	366.211	84.0702	366.211	83.1216	366.211	83.9087	366.211	82.7029	366.211	83.6184	366.211	82.2607	366.211	83.2191	366.211	81.8152	366.211	82.757	366.211	81.3837	366.211	82.3085	366.211	80.9839	366.211	81.9584	366.211	80.6365	366.211	81.7565	366.211	80.3645	366.211	81.6865	366.211	80.1862	366.211	81.6811	366.211	80.1035	366.211	81.6649	366.211	80.0986	366.211	81.5863	366.211	80.1431	366.211	81.4297	366.211	80.2136	366.211	81.2117	366.211	80.3008	366.211	80.9693	366.211	80.41	366.211	80.7417	366.211	80.5537
379.395	84.003	379.395	83.7662	379.395	84.1583	379.395	83.4813	379.395	84.2076	379.395	83.1813	379.395	84.1385	379.395	82.8863	379.395	83.9523	379.395	82.5942	379.395	83.6652	379.395	82.2823	379.395	83.3075	379.395	81.9184	379.395	82.9181	379.395	81.48	379.395	82.5337	379.395	80.9734	379.395	82.1806	379.395	80.4478	379.395	81.8751	379.395	79.9961	379.395	81.6305	379.395	79.7267	379.395	81.46	379.395	79.706	379.395	81.3692	379.395	79.9136	379.395	81.3455	379.395	80.2574	379.395	81.3563	379.395	80.6302	379.395	81.359	379.395	80.9518	379.395	81.3117	379.395	81.1815
392.578	83.6071	392.578	83.2803	392.578	83.8236	392.578	82.8784	392.578	83.9078	392.578	82.4458	392.578	83.8522	392.578	82.0264	392.578	83.6678	392.578	81.6479	392.578	83.3894	392.578	81.3117	392.578	83.0744	392.578	80.9966	392.578	82.7854	392.578	80.6762	392.578	82.5585	392.578	80.3393	392.578	82.3792	392.578	80.0009	392.578	82.1885	392.578	79.6999	392.578	81.9171	392.578	79.4836	392.578	81.5271	392.578	79.3866	392.578	81.0442	392.578	79.4132	392.578	80.5627	392.578	79.5339	392.578	80.2014	392.578	79.6945	392.578	80.0162	392.578	79.8357	392.578	79.956	392.578	79.9195
405.762	83.1218	405.762	82.7723	405.762	83.2906	405.762	82.2863	405.762	83.2539	405.762	81.7221	405.762	83.0184	405.762	81.1483	405.762	82.6371	405.762	80.6335	405.762	82.216	405.762	80.2255	405.762	81.8934	405.762	79.9333	405.762	81.7809	405.762	79.7328	405.762	81.8958	405.762	79.5937	405.762	82.1498	405.762	79.5022	405.762	82.4088	405.762	79.4619	405.762	82.5582	405.762	79.4797	405.762	82.5281	405.762	79.5516	405.762	82.2938	405.762	79.6612	405.762	81.8775	405.762	79.7866	405.762	81.3556	405.762	79.9113	405.762	80.8453	405.762	80.0369	405.762	80.4499	405.762	80.1961
420.41	84.9581	420.41	84.7283	420.41	84.9986	420.41	84.3289	420.41	84.8389	420.41	83.7855	420.41	84.4818	420.41	83.1269	420.41	83.9476	420.41	82.3861	420.41	83.2837	420.41	81.6047	420.41	82.5815	420.41	80.8398	420.41	81.9865	420.41	80.1679	420.41	81.654	420.41	79.6772	420.41	81.6417	420.41	79.4427	420.41	81.8637	420.41	79.49	420.41	82.1793	420.41	79.7764	420.41	82.4835	420.41	80.2095	420.41	82.718	420.41	80.6897	420.41	82.8465	420.41	81.1456	420.41	82.8471	420.41	81.547	420.41	82.7208	420.41	81.8975	420.41	82.4962	420.41	82.2133
435.059	84.9868	435.059	84.7161	435.059	85.0908	435.059	84.3016	435.059	85.0185	435.059	83.7744	435.059	84.7721	435.059	83.1643	435.059	84.359	435.059	82.4918	435.059	83.788	435.059	81.7672	435.059	83.0832	435.059	81.0002	435.059	82.3162	435.059	80.2229	435.059	81.6296	435.059	79.5189	435.059	81.1956	435.059	79.0341	435.059	81.1029	435.059	78.9233	435.059	81.2893	435.059	79.2304	435.059	81.6123	435.059	79.8384	435.059	81.9536	435.059	80.5613	435.059	82.2527	435.059	81.252	435.059	82.484	435.059	81.8299	435.059	82.6261	435.059	82.2608	435.059	82.6511	435.059	82.534
451.172	85.0427	451.172	84.7341	451.172	85.2	451.172	84.2971	451.172	85.1814	451.172	83.7529	451.172	84.9628	451.172	83.1187	451.172	84.5285	451.172	82.4017	451.172	83.8847	451.172	81.5954	451.172	83.0754	451.172	80.6846	451.172	82.197	451.172	79.6635	451.172	81.4007	451.172	78.568	451.172	80.8482	451.172	77.5308	451.172	80.6061	451.172	76.8277	451.172	80.5824	451.172	76.7584	451.172	80.6126	451.172	77.3307	451.172	80.5913	451.172	78.2306	451.172	80.5231	451.172	79.1344	451.172	80.4822	451.172	79.8598	451.172	80.5174	451.172	80.3347	451.172	80.5811	451.172	80.5564
465.82	85.2293	465.82	84.9021	465.82	85.3754	465.82	84.427	465.82	85.3169	465.82	83.8412	465.82	85.0487	465.82	83.1828	465.82	84.588	465.82	82.4861	465.82	83.968	465.82	81.7723	465.82	83.2228	465.82	81.0416	465.82	82.3814	465.82	80.2775	465.82	81.4889	465.82	79.4743	465.82	80.6579	465.82	78.6888	465.82	80.1033	465.82	78.0952	465.82	80.0363	465.82	77.9425	465.82	80.4262	465.82	78.3332	465.82	80.995	465.82	79.0874	465.82	81.4781	465.82	79.9257	465.82	81.7646	465.82	80.6606	465.82	81.8588	465.82	81.2171	465.82	81.7962	465.82	81.5883
483.398	85.5885	483.398	85.3733	483.398	85.6467	483.398	85.0076	483.398	85.546	483.398	84.5037	483.398	85.2917	483.398	83.8808	483.398	84.8989	483.398	83.1651	483.398	84.3956	483.398	82.3836	483.398	83.8229	483.398	81.5497	483.398	83.2274	483.398	80.6509	483.398	82.6415	483.398	79.6582	483.398	82.066	483.398	78.5763	483.398	81.4913	483.398	77.5351	483.398	80.9623	483.398	76.8674	483.398	80.6189	483.398	76.9496	483.398	80.6063	483.398	77.7747	483.398	80.9038	483.398	78.9463	483.398	81.3207	483.398	80.0829	483.398	81.6487	483.398	80.974	483.398	81.7463	483.398	81.5331
499.512	85.4881	499.512	85.237	499.512	85.5839	499.512	84.8619	499.512	85.5084	499.512	84.4018	499.512	85.2633	499.512	83.8896	499.512	84.8649	499.512	83.3362	499.512	84.3382	499.512	82.7217	499.512	83.711	499.512	82.0033	499.512	83.0204	499.512	81.1406	499.512	82.3202	499.512	80.1298	499.512	81.674	499.512	79.0416	499.512	81.1296	499.512	78.0585	499.512	80.7123	499.512	77.4781	499.512	80.4555	499.512	77.5686	499.512	80.4187	499.512	78.2981	499.512	80.6316	499.512	79.3364	499.512	81.0139	499.512	80.3382	499.512	81.3936	499.512	81.0944	499.512	81.5996	499.512	81.5175
517.09	84.7941	517.09	84.5384	517.09	84.8831	517.09	84.1504	517.09	84.8016	517.09	83.6972	517.09	84.5665	517.09	83.2605	517.09	84.2044	517.09	82.8961	517.09	83.7455	517.09	82.5937	517.09	83.2267	517.09	82.2712	517.09	82.6941	517.09	81.8058	517.09	82.1917	517.09	81.079	517.09	81.7373	517.09	80.0322	517.09	81.3053	517.09	78.7635	517.09	80.8397	517.09	77.6919	517.09	80.3148	517.09	77.4905	517.09	79.8349	517.09	78.2973	517.09	79.678	517.09	79.5058	517.09	80.0455	517.09	80.5788	517.09	80.7294	517.09	81.2818	517.09	81.3154	517.09	81.5305
536.133	85.2365	536.133	84.8484	536.133	85.3521	536.133	84.2419	536.133	85.171	536.133	83.4976	536.133	84.706	536.133	82.7246	536.133	84.0063	536.133	82.0492	536.133	83.1488	536.133	81.5686	536.133	82.2462	536.133	81.2773	536.133	81.4725	536.133	81.0429	536.133	81.0268	536.133	80.673	536.133	80.9749	536.133	80.0135	536.133	81.1552	536.133	79.0383	536.133	81.2999	536.133	77.9721	536.133	81.2039	536.133	77.3752	536.133	80.8282	536.133	77.7146	536.133	80.3664	536.133	78.711	536.133	80.1713	536.133	79.7659	536.133	80.3838	536.133	80.5177	536.133	80.7254	536.133	80.8325
555.176	84.8324	555.176	84.429	555.176	84.9813	555.176	83.8141	555.176	84.8694	555.176	83.0736	555.176	84.5152	555.176	82.328	555.176	83.947	555.176	81.6951	555.176	83.1929	555.176	81.2295	555.176	82.292	555.176	80.8824	555.176	81.3267	555.176	80.5227	555.176	80.4532	555.176	80.0002	555.176	79.8842	555.176	79.2049	555.176	79.7653	555.176	78.1137	555.176	80.0016	555.176	76.8551	555.176	80.282	555.176	75.8127	555.176	80.303	555.176	75.5332	555.176	79.9363	555.176	76.1091	555.176	79.2913	555.176	77.0051	555.176	78.6789	555.176	77.7255	555.176	78.333	555.176	78.1187
574.219	85.1372	574.219	84.6545	574.219	85.3773	574.219	83.9728	574.219	85.3608	574.219	83.1826	574.219	85.0812	574.219	82.4122	574.219	84.5318	574.219	81.7753	574.219	83.7166	574.219	81.305	574.219	82.6769	574.219	80.9408	574.219	81.5327	574.219	80.5872	574.219	80.5119	574.219	80.172	574.219	79.8755	574.219	79.6427	574.219	79.6905	574.219	78.9365	574.219	79.7326	574.219	78.0266	574.219	79.7044	574.219	77.1243	574.219	79.4779	574.219	76.8383	574.219	79.1883	574.219	77.5331	574.219	79.138	574.219	78.6513	574.219	79.4363	574.219	79.5301	574.219	79.8129	574.219	79.9119
594.727	85.3748	594.727	84.8153	594.727	85.6558	594.727	84.0093	594.727	85.6493	594.727	83.0213	594.727	85.3563	594.727	81.9645	594.727	84.7733	594.727	81.0149	594.727	83.8994	594.727	80.3572	594.727	82.7699	594.727	80.0447	594.727	81.4942	594.727	79.9454	594.727	80.3005	594.727	79.8458	594.727	79.5703	594.727	79.5557	594.727	79.5888	594.727	78.9645	594.727	80.0982	594.727	78.0853	594.727	80.5541	594.727	77.1079	594.727	80.6371	594.727	76.4302	594.727	80.3347	594.727	76.4594	594.727	79.8481	594.727	77.1391	594.727	79.417	594.727	77.9955	594.727	79.0817	594.727	78.6627
615.234	86.2289	615.234	85.8124	615.234	86.3501	615.234	85.098	615.234	86.1961	615.234	84.121	615.234	85.7944	615.234	82.9669	615.234	85.181	615.234	81.7691	615.234	84.3893	615.234	80.6984	615.234	83.4208	615.234	79.9452	615.234	82.2521	615.234	79.627	615.234	80.9163	615.234	79.6449	615.234	79.6362	615.234	79.7211	615.234	78.951	615.234	79.6058	615.234	79.3424	615.234	79.2156	615.234	80.4016	615.234	78.7018	615.234	81.3091	615.234	78.4476	615.234	81.6605	615.234	78.7567	615.234	81.5	615.234	79.4555	615.234	81.1357	615.234	80.1352	615.234	80.8407	615.234	80.5763
637.207	86.3284	637.207	85.8589	637.207	86.5231	637.207	85.1317	637.207	86.4667	637.207	84.2048	637.207	86.2017	637.207	83.1624	637.207	85.7539	637.207	82.1032	637.207	85.1057	637.207	81.1346	637.207	84.2156	637.207	80.3447	637.207	83.0657	637.207	79.773	637.207	81.6806	637.207	79.4137	637.207	80.1282	637.207	79.1972	637.207	78.6662	637.207	78.9678	637.207	77.9721	637.207	78.5627	637.207	78.4593	637.207	78.001	637.207	79.4772	637.207	77.6529	637.207	80.3543	637.207	78.0107	637.207	80.9149	637.207	78.9905	637.207	81.1827	637.207	80.0413	637.207	81.1604	637.207	80.7942
659.18	85.7574	659.18	85.4416	659.18	85.859	659.18	84.908	659.18	85.7577	659.18	84.1627	659.18	85.4655	659.18	83.2402	659.18	84.9812	659.18	82.2399	659.18	84.2934	659.18	81.3326	659.18	83.4203	659.18	80.6609	659.18	82.4433	659.18	80.2022	659.18	81.4682	659.18	79.8034	659.18	80.554	659.18	79.3634	659.18	79.7577	659.18	78.92	659.18	79.2469	659.18	78.5598	659.18	79.1686	659.18	78.3216	659.18	79.4312	659.18	78.2846	659.18	79.8704	659.18	78.6554	659.18	80.4095	659.18	79.488	659.18	80.9315	659.18	80.4328	659.18	81.2181	659.18	81.07
682.617	85.8959	682.617	85.4413	682.617	86.0469	682.617	84.7127	682.617	85.8798	682.617	83.7526	682.617	85.4158	682.617	82.6385	682.617	84.7235	682.617	81.5155	682.617	83.8922	682.617	80.5911	682.617	82.9974	682.617	80.0392	682.617	82.1339	682.617	79.8579	682.617	81.4302	682.617	79.8446	682.617	80.8857	682.617	79.7323	682.617	80.3298	682.617	79.3553	682.617	79.7465	682.617	78.7609	682.617	79.4315	682.617	78.266	682.617	79.5801	682.617	78.3091	682.617	79.9614	682.617	78.9834	682.617	80.3229	682.617	79.905	682.617	80.6541	682.617	80.6461	682.617	80.936	682.617	80.9895
707.52	85.926	707.52	85.6022	707.52	85.9752	707.52	84.9803	707.52	85.8182	707.52	84.0948	707.52	85.524	707.52	83.0416	707.52	85.0917	707.52	81.9589	707.52	84.4386	707.52	80.9949	707.52	83.4911	707.52	80.2931	707.52	82.2734	707.52	79.8938	707.52	80.9025	707.52	79.613	707.52	79.5266	707.52	79.2305	707.52	78.3094	707.52	78.7206	707.52	77.4821	707.52	78.175	707.52	77.2596	707.52	77.6257	707.52	77.515	707.52	77.1388	707.52	77.8876	707.52	77.1144	707.52	78.3051	707.52	77.9022	707.52	78.9058	707.52	78.974	707.52	79.4851	707.52	79.5834
732.422	85.3981	732.422	85.1588	732.422	85.4253	732.422	84.6746	732.422	85.282	732.422	83.9622	732.422	84.9572	732.422	83.0889	732.422	84.381	732.422	82.1443	732.422	83.512	732.422	81.2204	732.422	82.4274	732.422	80.4024	732.422	81.2953	732.422	79.7437	732.422	80.2426	732.422	79.2619	732.422	79.3179	732.422	78.9565	732.422	78.6662	732.422	78.783	732.422	78.5342	732.422	78.6302	732.422	78.7845	732.422	78.3891	732.422	78.9465	732.422	78.1138	732.422	78.9137	732.422	78.1044	732.422	79.0225	732.422	78.578	732.422	79.4076	732.422	79.2638	732.422	79.7461	732.422	79.7217
757.324	85.96	757.324	85.5969	757.324	86.058	757.324	84.9863	757.324	85.9052	757.324	84.1815	757.324	85.5132	757.324	83.2323	757.324	84.8601	757.324	82.1428	757.324	83.9223	757.324	80.9188	757.324	82.7688	757.324	79.7017	757.324	81.5963	757.324	78.8018	757.324	80.5899	757.324	78.4346	757.324	79.7295	757.324	78.432	757.324	78.8715	757.324	78.4045	757.324	78.1884	757.324	78.0958	757.324	78.2933	757.324	77.5804	757.324	79.1412	757.324	77.2745	757.324	79.8893	757.324	77.6112	757.324	80.1486	757.324	78.506	757.324	80.1537	757.324	79.4453	757.324	80.1658	757.324	80.0169
785.156	85.4037	785.156	85.1152	785.156	85.4736	785.156	84.6568	785.156	85.2999	785.156	84.0665	785.156	84.8554	785.156	83.3166	785.156	84.1027	785.156	82.3418	785.156	83.0609	785.156	81.1614	785.156	81.8627	785.156	79.9442	785.156	80.6725	785.156	78.8728	785.156	79.5314	785.156	78.0005	785.156	78.3984	785.156	77.3918	785.156	77.4092	785.156	77.1886	785.156	76.8522	785.156	77.3157	785.156	76.6788	785.156	77.3909	785.156	76.6184	785.156	77.1453	785.156	76.7193	785.156	76.8485	785.156	77.0647	785.156	77.0498	785.156	77.4661	785.156	77.5926	785.156	77.7834	785.156	77.8869
811.523	85.5085	811.523	85.2325	811.523	85.5368	811.523	84.7683	811.523	85.3207	811.523	84.1796	811.523	84.9038	811.523	83.4639	811.523	84.2607	811.523	82.5393	811.523	83.2789	811.523	81.3277	811.523	81.9607	811.523	79.8949	811.523	80.5734	811.523	78.5143	811.523	79.3851	811.523	77.4948	811.523	78.2925	811.523	76.9427	811.523	77.1031	811.523	76.8156	811.523	76.2948	811.523	77.0322	811.523	76.5657	811.523	77.3722	811.523	77.3152	811.523	77.5764	811.523	77.858	811.523	77.684	811.523	78.3346	811.523	78.0208	811.523	78.9204	811.523	78.6485	811.523	79.3032	811.523	79.1925
840.82	85.6378	840.82	85.4614	840.82	85.6013	840.82	85.1165	840.82	85.3727	840.82	84.6683	840.82	84.9436	840.82	84.0484	840.82	84.2431	840.82	83.0246	840.82	83.2875	840.82	81.4681	840.82	82.2879	840.82	79.7467	840.82	81.4297	840.82	78.5685	840.82	80.5787	840.82	78.0223	840.82	79.4014	840.82	77.6184	840.82	77.5758	840.82	77.0201	840.82	74.8812	840.82	76.4694	840.82	72.4572	840.82	76.4311	840.82	74.0419	840.82	76.7088	840.82	76.6845	840.82	76.9066	840.82	77.8527	840.82	77.0001	840.82	77.8442	840.82	77.1115	840.82	77.4827	840.82	77.255
870.117	85.5686	870.117	85.3486	870.117	85.4713	870.117	84.877	870.117	85.0325	870.117	84.2273	870.117	84.253	870.117	83.381	870.117	83.1975	870.117	82.1977	870.117	82.0371	870.117	80.5779	870.117	80.9083	870.117	78.8067	870.117	79.8213	870.117	77.7299	870.117	78.8493	870.117	77.7875	870.117	78.0121	870.117	78.2364	870.117	77.1429	870.117	78.3089	870.117	76.1552	870.117	77.8072	870.117	75.1437	870.117	76.9623	870.117	74.8238	870.117	76.4566	870.117	76.4178	870.117	77.0343	870.117	78.7413	870.117	78.3283	870.117	80.2117	870.117	79.5228	870.117	80.6324	870.117	80.319
900.879	86.8629	900.879	86.5063	900.879	86.8461	900.879	85.8624	900.879	86.4929	900.879	85.1373	900.879	85.7823	900.879	84.3785	900.879	84.6026	900.879	83.2434	900.879	82.9786	900.879	81.1535	900.879	81.2528	900.879	77.695	900.879	79.8696	900.879	73.7113	900.879	79.0365	900.879	73.6019	900.879	78.6498	900.879	76.5287	900.879	78.2429	900.879	78.6993	900.879	76.9042	900.879	79.6837	900.879	73.1575	900.879	79.8308	900.879	70.7682	900.879	79.5344	900.879	77.1047	900.879	79.2616	900.879	80.6776	900.879	79.5527	900.879	82.0602	900.879	80.4681	900.879	82.156	900.879	81.4972
933.105	87.9123	933.105	87.1684	933.105	88.2176	933.105	86.3077	933.105	87.9226	933.105	85.5935	933.105	87.0751	933.105	85.003	933.105	85.8169	933.105	84.2115	933.105	84.1755	933.105	82.7703	933.105	82.103	933.105	80.4333	933.105	79.9119	933.105	77.2196	933.105	78.6888	933.105	73.3693	933.105	79.0991	933.105	73.2313	933.105	80.0179	933.105	76.3318	933.105	80.2481	933.105	78.126	933.105	78.8385	933.105	78.8193	933.105	74.0543	933.105	79.0807	933.105	71.7173	933.105	79.7041	933.105	79.5872	933.105	81.2444	933.105	83.2204	933.105	83.0824	933.105	84.5254	933.105	84.3397
965.332	88.0972	965.332	87.7716	965.332	88.0769	965.332	87.0806	965.332	87.8011	965.332	86.0728	965.332	87.3164	965.332	84.9082	965.332	86.5608	965.332	83.7385	965.332	85.4266	965.332	82.3915	965.332	83.6989	965.332	80.8084	965.332	81.1218	965.332	79.1986	965.332	78.089	965.332	77.1138	965.332	77.0067	965.332	74.4062	965.332	78.4004	965.332	74.3329	965.332	79.1609	965.332	77.3859	965.332	77.7605	965.332	79.9378	965.332	71.6095	965.332	81.3029	965.332	67.648	965.332	81.6837	965.332	78.9041	965.332	81.7813	965.332	82.5982	965.332	82.4408	965.332	83.7078	965.332	83.3957
1,000.49	88.0846	1,000.49	87.9377	1,000.49	87.8934	1,000.49	87.3543	1,000.49	87.4916	1,000.49	86.2454	1,000.49	86.9331	1,000.49	84.6693	1,000.49	86.0952	1,000.49	83.0042	1,000.49	84.8215	1,000.49	81.5217	1,000.49	83.0721	1,000.49	80.3676	1,000.49	80.8257	1,000.49	79.5278	1,000.49	77.8327	1,000.49	77.8714	1,000.49	74.4375	1,000.49	74.7533	1,000.49	76.7064	1,000.49	73.1918	1,000.49	80.5612	1,000.49	75.727	1,000.49	81.6917	1,000.49	78.4944	1,000.49	79.689	1,000.49	80.3278	1,000.49	71.3874	1,000.49	81.4227	1,000.49	71.9785	1,000.49	82.5027	1,000.49	80.6735	1,000.49	83.7212	1,000.49	83.6391	1,000.49	84.3527
1,035.64	87.3688	1,035.64	87.82	1,035.64	86.7956	1,035.64	87.6592	1,035.64	86.4845	1,035.64	86.6072	1,035.64	86.3084	1,035.64	84.7024	1,035.64	85.8584	1,035.64	82.3991	1,035.64	85.1267	1,035.64	80.5606	1,035.64	84.2878	1,035.64	79.7285	1,035.64	82.7964	1,035.64	79.0829	1,035.64	79.8571	1,035.64	77.0477	1,035.64	75.4276	1,035.64	72.1912	1,035.64	75.1593	1,035.64	69.1354	1,035.64	78.7528	1,035.64	75.037	1,035.64	80.5007	1,035.64	78.9463	1,035.64	79.9697	1,035.64	81.3564	1,035.64	75.3858	1,035.64	82.8584	1,035.64	72.4426	1,035.64	83.8095	1,035.64	80.7295	1,035.64	84.4969	1,035.64	83.8865	1,035.64	84.7512
1,072.27	86.8781	1,072.27	87.8613	1,072.27	85.4791	1,072.27	88.0903	1,072.27	84.2742	1,072.27	87.1956	1,072.27	83.8303	1,072.27	84.7556	1,072.27	84.0216	1,072.27	80.9694	1,072.27	84.2651	1,072.27	78.461	1,072.27	84.1545	1,072.27	79.6162	1,072.27	83.7176	1,072.27	80.7303	1,072.27	82.7103	1,072.27	79.7146	1,072.27	79.4248	1,072.27	76.8098	1,072.27	66.1789	1,072.27	72.4799	1,072.27	76.9215	1,072.27	60.4849	1,072.27	82.9222	1,072.27	73.1287	1,072.27	84.6184	1,072.27	80.2108	1,072.27	83.1218	1,072.27	83.2526	1,072.27	77.9618	1,072.27	84.3614	1,072.27	77.8775	1,072.27	84.5138	1,072.27	82.2994	1,072.27	84.0544
1,108.89	86.6103	1,108.89	87.5811	1,108.89	85.706	1,108.89	88.1919	1,108.89	84.9592	1,108.89	88.0199	1,108.89	84.0691	1,108.89	86.7278	1,108.89	83.0776	1,108.89	84.1906	1,108.89	82.5874	1,108.89	80.8626	1,108.89	82.7404	1,108.89	78.4857	1,108.89	82.7215	1,108.89	78.7783	1,108.89	82.1339	1,108.89	79.6206	1,108.89	80.429	1,108.89	78.5924	1,108.89	75.3164	1,108.89	74.5727	1,108.89	64.6776	1,108.89	67.6979	1,108.89	78.8605	1,108.89	71.7265	1,108.89	82.8517	1,108.89	77.2425	1,108.89	83.3045	1,108.89	80.9551	1,108.89	80.2434	1,108.89	83.1787	1,108.89	72.1967	1,108.89	83.8559	1,108.89	78.319	1,108.89	82.6714
1,148.44	86.4285	1,148.44	86.7746	1,148.44	86.2804	1,148.44	87.1867	1,148.44	86.0143	1,148.44	87.2118	1,148.44	85.2525	1,148.44	86.3738	1,148.44	84.096	1,148.44	84.5415	1,148.44	82.9971	1,148.44	82.1687	1,148.44	82.2255	1,148.44	80.3604	1,148.44	81.7967	1,148.44	80.793	1,148.44	81.5555	1,148.44	81.1222	1,148.44	80.7418	1,148.44	79.6031	1,148.44	77.5044	1,148.44	76.8778	1,148.44	64.0969	1,148.44	72.5535	1,148.44	78.0249	1,148.44	63.9069	1,148.44	83.2261	1,148.44	73.243	1,148.44	83.8675	1,148.44	78.8381	1,148.44	80.7968	1,148.44	80.9919	1,148.44	70.4192	1,148.44	81.1636	1,148.44	72.9832	1,148.44	79.3685
1,189.45	86.4236	1,189.45	85.8936	1,189.45	86.885	1,189.45	85.8151	1,189.45	86.7582	1,189.45	86.0663	1,189.45	85.915	1,189.45	85.8663	1,189.45	84.7104	1,189.45	84.8365	1,189.45	83.1076	1,189.45	83.1257	1,189.45	81.0602	1,189.45	80.3999	1,189.45	80.0301	1,189.45	79.3413	1,189.45	80.5934	1,189.45	80.9417	1,189.45	80.7832	1,189.45	81.2482	1,189.45	79.1217	1,189.45	80.3022	1,189.45	74.7427	1,189.45	77.2703	1,189.45	60.9236	1,189.45	69.0759	1,189.45	78.1173	1,189.45	68.2234	1,189.45	82.9599	1,189.45	76.3381	1,189.45	82.7647	1,189.45	79.3004	1,189.45	76.6648	1,189.45	79.9605	1,189.45	66.2904	1,189.45	77.9483
1,230.47	87.9448	1,230.47	87.5342	1,230.47	88.0367	1,230.47	86.968	1,230.47	87.6101	1,230.47	86.2555	1,230.47	86.6246	1,230.47	85.4326	1,230.47	85.3209	1,230.47	84.8255	1,230.47	83.866	1,230.47	84.3533	1,230.47	82.2064	1,230.47	82.4618	1,230.47	80.4496	1,230.47	78.2946	1,230.47	78.8986	1,230.47	76.9378	1,230.47	78.2689	1,230.47	79.138	1,230.47	77.9847	1,230.47	80.2819	1,230.47	75.7539	1,230.47	79.3358	1,230.47	67.7737	1,230.47	76.3893	1,230.47	74.4363	1,230.47	69.7074	1,230.47	80.609	1,230.47	67.4176	1,230.47	81.3308	1,230.47	73.7703	1,230.47	76.9447	1,230.47	74.2751	1,230.47	59.8587	1,230.47	70.8746
1,274.41	88.2881	1,274.41	87.726	1,274.41	88.1717	1,274.41	86.9299	1,274.41	87.181	1,274.41	85.9563	1,274.41	85.9029	1,274.41	84.7769	1,274.41	84.9325	1,274.41	83.9301	1,274.41	83.8358	1,274.41	83.8763	1,274.41	82.4528	1,274.41	82.8301	1,274.41	81.0713	1,274.41	79.1905	1,274.41	78.9102	1,274.41	74.7314	1,274.41	77.764	1,274.41	74.9221	1,274.41	77.7314	1,274.41	76.7754	1,274.41	76.1664	1,274.41	77.1776	1,274.41	74.025	1,274.41	76.074	1,274.41	76.1261	1,274.41	72.1776	1,274.41	77.3392	1,274.41	64.8835	1,274.41	77.8649	1,274.41	72.9332	1,274.41	76.0055	1,274.41	75.4594	1,274.41	72.5278	1,274.41	74.0225
1,319.82	88.376	1,319.82	88.4111	1,319.82	87.7024	1,319.82	87.6197	1,319.82	86.9224	1,319.82	86.0454	1,319.82	86.2145	1,319.82	84.5186	1,319.82	84.8432	1,319.82	84.0253	1,319.82	83.0457	1,319.82	83.2748	1,319.82	80.9277	1,319.82	80.6354	1,319.82	78.3921	1,319.82	76.3048	1,319.82	77.0628	1,319.82	73.6329	1,319.82	75.6004	1,319.82	72.6779	1,319.82	73.6542	1,319.82	73.4832	1,319.82	73.7459	1,319.82	75.731	1,319.82	73.0426	1,319.82	77.5978	1,319.82	71.6998	1,319.82	76.5928	1,319.82	75.6261	1,319.82	71.0128	1,319.82	77.6432	1,319.82	73.5621	1,319.82	75.797	1,319.82	76.5848	1,319.82	73.5559	1,319.82	75.9531
1,366.7	87.4674	1,366.7	87.886	1,366.7	87.257	1,366.7	87.5451	1,366.7	87.1447	1,366.7	86.0803	1,366.7	86.3764	1,366.7	84.4581	1,366.7	84.816	1,366.7	83.0765	1,366.7	82.3959	1,366.7	80.3343	1,366.7	80.2736	1,366.7	77.0834	1,366.7	79.655	1,366.7	75.3768	1,366.7	78.1463	1,366.7	75.8576	1,366.7	76.3264	1,366.7	76.1506	1,366.7	75.7088	1,366.7	74.699	1,366.7	73.5076	1,366.7	72.9177	1,366.7	68.7609	1,366.7	75.8153	1,366.7	69.6076	1,366.7	76.7157	1,366.7	75.2535	1,366.7	73.9782	1,366.7	76.6318	1,366.7	73.2344	1,366.7	74.9984	1,366.7	76.5505	1,366.7	74.7242	1,366.7	76.7488
1,413.57	87.0845	1,413.57	87.1093	1,413.57	86.8133	1,413.57	86.4632	1,413.57	86.2593	1,413.57	84.9351	1,413.57	85.4568	1,413.57	83.671	1,413.57	84.2173	1,413.57	82.626	1,413.57	82.6262	1,413.57	79.4487	1,413.57	81.1539	1,413.57	74.0889	1,413.57	79.1773	1,413.57	73.499	1,413.57	77.82	1,413.57	74.5946	1,413.57	77.9411	1,413.57	71.9178	1,413.57	76.122	1,413.57	69.5825	1,413.57	73.9066	1,413.57	69.0151	1,413.57	73.5198	1,413.57	71.3621	1,413.57	71.5754	1,413.57	74.0401	1,413.57	76.0969	1,413.57	72.9832	1,413.57	77.4992	1,413.57	73.1037	1,413.57	75.1914	1,413.57	76.5705	1,413.57	72.2814	1,413.57	76.4805
1,463.38	86.6575	1,463.38	87.1764	1,463.38	86.3133	1,463.38	86.8187	1,463.38	86.0413	1,463.38	85.4222	1,463.38	85.4273	1,463.38	84.0717	1,463.38	84.358	1,463.38	82.5025	1,463.38	82.8447	1,463.38	79.7002	1,463.38	81.3491	1,463.38	75.3979	1,463.38	77.7405	1,463.38	73.0191	1,463.38	74.6882	1,463.38	73.642	1,463.38	74.0366	1,463.38	70.8268	1,463.38	75.2503	1,463.38	65.9601	1,463.38	75.9514	1,463.38	70.4411	1,463.38	74.3636	1,463.38	70.3425	1,463.38	72.7991	1,463.38	72.7903	1,463.38	73.4509	1,463.38	72.118	1,463.38	77.0074	1,463.38	72.1694	1,463.38	75.0548	1,463.38	75.6469	1,463.38	72.3211	1,463.38	75.428
1,516.11	85.9669	1,516.11	86.1422	1,516.11	85.9776	1,516.11	85.6354	1,516.11	86.3142	1,516.11	84.8323	1,516.11	86.2575	1,516.11	84.3707	1,516.11	85.2026	1,516.11	82.3058	1,516.11	84.0811	1,516.11	77.966	1,516.11	82.3812	1,516.11	77.784	1,516.11	79.2495	1,516.11	77.4043	1,516.11	77.8397	1,516.11	75.7116	1,516.11	76.3666	1,516.11	75.8352	1,516.11	72.8221	1,516.11	76.2828	1,516.11	73.5176	1,516.11	73.324	1,516.11	74.3737	1,516.11	64.2203	1,516.11	69.0232	1,516.11	66.7293	1,516.11	72.6646	1,516.11	71.5899	1,516.11	76.1014	1,516.11	72.2969	1,516.11	74.7791	1,516.11	74.9695	1,516.11	72.6714	1,516.11	73.4376
1,568.85	84.8684	1,568.85	84.3995	1,568.85	85.3729	1,568.85	84.3027	1,568.85	85.3141	1,568.85	84.3179	1,568.85	84.8219	1,568.85	83.0434	1,568.85	83.9775	1,568.85	79.3812	1,568.85	82.1835	1,568.85	77.4207	1,568.85	81.494	1,568.85	79.1733	1,568.85	79.9491	1,568.85	76.5433	1,568.85	75.778	1,568.85	69.5533	1,568.85	71.9051	1,568.85	74.3063	1,568.85	70.2875	1,568.85	75.6924	1,568.85	73.0636	1,568.85	73.3684	1,568.85	72.7229	1,568.85	71.9912	1,568.85	67.2944	1,568.85	72.3356	1,568.85	72.0333	1,568.85	72.9604	1,568.85	73.9993	1,568.85	69.4245	1,568.85	72.5523	1,568.85	70.1159	1,568.85	73.5925	1,568.85	71.3009
1,624.51	85.3532	1,624.51	84.049	1,624.51	85.4346	1,624.51	83.2662	1,624.51	84.7415	1,624.51	84.329	1,624.51	84.0151	1,624.51	83.5479	1,624.51	82.549	1,624.51	79.2127	1,624.51	80.7035	1,624.51	78.3161	1,624.51	80.3448	1,624.51	80.1417	1,624.51	78.7085	1,624.51	76.6327	1,624.51	75.4809	1,624.51	68.2844	1,624.51	72.0996	1,624.51	68.1055	1,624.51	70.9856	1,624.51	74.4904	1,624.51	71.2914	1,624.51	75.9032	1,624.51	71.3841	1,624.51	72.5935	1,624.51	70.3844	1,624.51	69.452	1,624.51	71.9473	1,624.51	71.6818	1,624.51	70.433	1,624.51	71.3714	1,624.51	70.2546	1,624.51	72.3556	1,624.51	70.0777	1,624.51	72.897
1,681.64	85.1018	1,681.64	84.0676	1,681.64	85.8487	1,681.64	83.3297	1,681.64	85.2394	1,681.64	82.9745	1,681.64	84.1932	1,681.64	80.7718	1,681.64	83.4162	1,681.64	78.5746	1,681.64	80.721	1,681.64	81.2022	1,681.64	78.193	1,681.64	80.2119	1,681.64	79.7559	1,681.64	78.0367	1,681.64	79.6038	1,681.64	78.1499	1,681.64	77.2645	1,681.64	74.1209	1,681.64	75.0268	1,681.64	74.5889	1,681.64	76.1086	1,681.64	71.3629	1,681.64	74.6774	1,681.64	74.0012	1,681.64	72.8596	1,681.64	69.6358	1,681.64	67.4925	1,681.64	71.921	1,681.64	74.5406	1,681.64	65.4634	1,681.64	74.287	1,681.64	59.73	1,681.64	71.0982	1,681.64	71.284
1,741.7	85.6143	1,741.7	85.3298	1,741.7	86.066	1,741.7	85.0939	1,741.7	84.9928	1,741.7	83.3874	1,741.7	83.9332	1,741.7	80.239	1,741.7	82.885	1,741.7	79.0189	1,741.7	80.2236	1,741.7	79.4768	1,741.7	80.7534	1,741.7	77.5422	1,741.7	80.0674	1,741.7	75.8262	1,741.7	76.196	1,741.7	74.2998	1,741.7	74.0803	1,741.7	66.2928	1,741.7	69.2626	1,741.7	63.6929	1,741.7	73.6082	1,741.7	70.8261	1,741.7	74.0215	1,741.7	76.9813	1,741.7	73.1188	1,741.7	72.8672	1,741.7	74.9793	1,741.7	66.8475	1,741.7	71.151	1,741.7	69.4655	1,741.7	75.1729	1,741.7	68.0556	1,741.7	70.5145	1,741.7	69.6136
1,803.22	84.0379	1,803.22	84.6157	1,803.22	84.6239	1,803.22	85.0226	1,803.22	84.9585	1,803.22	83.3504	1,803.22	85.3714	1,803.22	79.822	1,803.22	83.0668	1,803.22	79.4538	1,803.22	81.6298	1,803.22	79.0268	1,803.22	77.4077	1,803.22	72.8536	1,803.22	75.9495	1,803.22	72.0861	1,803.22	71.476	1,803.22	74.238	1,803.22	68.1382	1,803.22	72.4418	1,803.22	67.1799	1,803.22	70.93	1,803.22	74.6832	1,803.22	72.8904	1,803.22	77.9282	1,803.22	69.2012	1,803.22	75.2225	1,803.22	76.8527	1,803.22	64.7879	1,803.22	74.5	1,803.22	77.8546	1,803.22	72.384	1,803.22	73.0119	1,803.22	66.9027	1,803.22	71.9535	1,803.22	73.2681
1,866.21	83.3517	1,866.21	83.6649	1,866.21	83.9674	1,866.21	84.2074	1,866.21	84.7192	1,866.21	83.2389	1,866.21	84.0033	1,866.21	80.6151	1,866.21	82.7302	1,866.21	79.5974	1,866.21	79.5201	1,866.21	76.9699	1,866.21	77.3531	1,866.21	70.203	1,866.21	78.0324	1,866.21	70.6861	1,866.21	74.1259	1,866.21	71.4919	1,866.21	73.9878	1,866.21	75.9774	1,866.21	73.286	1,866.21	73.8896	1,866.21	75.0989	1,866.21	69.661	1,866.21	69.6393	1,866.21	68.1738	1,866.21	72.6456	1,866.21	73.8656	1,866.21	67.0059	1,866.21	73.1254	1,866.21	72.4476	1,866.21	73.2311	1,866.21	72.5789	1,866.21	70.0836	1,866.21	67.3946	1,866.21	65.3692
1,932.13	83.6262	1,932.13	83.5803	1,932.13	84.1965	1,932.13	83.2986	1,932.13	84.3678	1,932.13	82.2445	1,932.13	82.5912	1,932.13	81.2211	1,932.13	80.5301	1,932.13	77.522	1,932.13	78.3727	1,932.13	75.7597	1,932.13	77.0092	1,932.13	76.656	1,932.13	75.7959	1,932.13	73.3038	1,932.13	73.7652	1,932.13	74.3198	1,932.13	72.3265	1,932.13	73.2478	1,932.13	72.5481	1,932.13	65.5168	1,932.13	71.2581	1,932.13	69.7834	1,932.13	66.2007	1,932.13	69.9975	1,932.13	71.0524	1,932.13	73.7105	1,932.13	71.4739	1,932.13	72.1039	1,932.13	72.0453	1,932.13	70.7932	1,932.13	73.2188	1,932.13	69.063	1,932.13	71.3323	1,932.13	66.5723
1,999.51	84.8952	1,999.51	83.0606	1,999.51	84.9389	1,999.51	80.9301	1,999.51	84.4041	1,999.51	81.0821	1,999.51	82.6475	1,999.51	80.8351	1,999.51	79.6846	1,999.51	78.8398	1,999.51	76.3424	1,999.51	78.0998	1,999.51	77.2714	1,999.51	76.5588	1,999.51	76.4806	1,999.51	74.6552	1,999.51	74.1387	1,999.51	67.6698	1,999.51	70.218	1,999.51	68.277	1,999.51	69.7048	1,999.51	73.1422	1,999.51	72.5194	1,999.51	69.0438	1,999.51	66.9021	1,999.51	67.5182	1,999.51	69.7873	1,999.51	72.9029	1,999.51	70.3835	1,999.51	70.6218	1,999.51	70.1769	1,999.51	67.8404	1,999.51	73.4284	1,999.51	66.7159	1,999.51	71.6414	1,999.51	67.3676
2,069.82	85.849	2,069.82	83.712	2,069.82	85.6273	2,069.82	79.3764	2,069.82	84.7574	2,069.82	79.8931	2,069.82	82.0417	2,069.82	81.2973	2,069.82	78.7967	2,069.82	79.4033	2,069.82	75.3906	2,069.82	77.6337	2,069.82	76.6741	2,069.82	73.4345	2,069.82	76.7601	2,069.82	72.8124	2,069.82	76.5591	2,069.82	74.3624	2,069.82	75.1163	2,069.82	71.1104	2,069.82	74.4333	2,069.82	68.7997	2,069.82	72.401	2,069.82	73.474	2,069.82	70.7262	2,069.82	64.6993	2,069.82	66.8849	2,069.82	72.4623	2,069.82	70.8717	2,069.82	71.0051	2,069.82	69.9051	2,069.82	65.6028	2,069.82	74.1601	2,069.82	66.29	2,069.82	73.6435	2,069.82	67.4057
2,143.07	86.1864	2,143.07	83.9615	2,143.07	86.1696	2,143.07	80.7749	2,143.07	85.1767	2,143.07	79.723	2,143.07	82.119	2,143.07	80.3969	2,143.07	78.8344	2,143.07	78.8182	2,143.07	75.1777	2,143.07	77.3046	2,143.07	76.3172	2,143.07	74.5271	2,143.07	76.6746	2,143.07	74.7722	2,143.07	77.0852	2,143.07	72.2422	2,143.07	76.3073	2,143.07	70.6809	2,143.07	76.7935	2,143.07	68.7894	2,143.07	74.4361	2,143.07	72.347	2,143.07	73.1508	2,143.07	70.3671	2,143.07	66.6698	2,143.07	69.2751	2,143.07	70.1627	2,143.07	72.4414	2,143.07	69.4417	2,143.07	66.3178	2,143.07	74.2904	2,143.07	64.9661	2,143.07	73.2407	2,143.07	67.0858
2,219.24	85.3405	2,219.24	83.4252	2,219.24	85.2889	2,219.24	82.0873	2,219.24	84.1492	2,219.24	79.7348	2,219.24	82.5087	2,219.24	77.9292	2,219.24	78.4102	2,219.24	78.0369	2,219.24	75.4161	2,219.24	77.4247	2,219.24	76.9203	2,219.24	73.7658	2,219.24	75.7165	2,219.24	72.1797	2,219.24	74.8175	2,219.24	71.9586	2,219.24	77.3287	2,219.24	68.1333	2,219.24	76.6502	2,219.24	69.5532	2,219.24	75.7187	2,219.24	70.0876	2,219.24	75.4139	2,219.24	72.6694	2,219.24	64.2831	2,219.24	67.258	2,219.24	65.7915	2,219.24	71.1972	2,219.24	65.8976	2,219.24	67.9148	2,219.24	72.32	2,219.24	63.107	2,219.24	74.5258	2,219.24	69.3734
2,296.88	85.2533	2,296.88	82.8631	2,296.88	85.601	2,296.88	82.2394	2,296.88	83.5412	2,296.88	79.6169	2,296.88	81.6469	2,296.88	75.5799	2,296.88	77.309	2,296.88	78.9618	2,296.88	78.1114	2,296.88	77.8282	2,296.88	77.8811	2,296.88	78.6039	2,296.88	75.0577	2,296.88	77.8061	2,296.88	73.7078	2,296.88	73.6544	2,296.88	76.4236	2,296.88	73.9578	2,296.88	75.6323	2,296.88	64.0239	2,296.88	73.6047	2,296.88	70.388	2,296.88	74.9629	2,296.88	73.2432	2,296.88	66.6648	2,296.88	69.8104	2,296.88	65.4276	2,296.88	71.9645	2,296.88	64.1938	2,296.88	69.5793	2,296.88	71.4025	2,296.88	64.226	2,296.88	72.3751	2,296.88	64.0777
2,378.91	85.952	2,378.91	83.2899	2,378.91	86.1154	2,378.91	80.2962	2,378.91	81.9994	2,378.91	77.4976	2,378.91	76.4902	2,378.91	77.1942	2,378.91	75.4735	2,378.91	79.2544	2,378.91	79.1258	2,378.91	79.086	2,378.91	79.9306	2,378.91	78.8104	2,378.91	78.6344	2,378.91	73.3308	2,378.91	77.7696	2,378.91	73.7442	2,378.91	77.5248	2,378.91	70.7253	2,378.91	76.1739	2,378.91	70.7443	2,378.91	70.8502	2,378.91	67.8687	2,378.91	73.6935	2,378.91	72.592	2,378.91	69.8715	2,378.91	69.2831	2,378.91	69.0817	2,378.91	69.9654	2,378.91	64.9465	2,378.91	66.0433	2,378.91	69.4473	2,378.91	51.7196	2,378.91	72.141	2,378.91	60.2201
2,462.4	86.6627	2,462.4	84.0647	2,462.4	87.1634	2,462.4	78.3618	2,462.4	84.0572	2,462.4	76.3598	2,462.4	75.8356	2,462.4	79.7454	2,462.4	74.468	2,462.4	79.9846	2,462.4	79.5943	2,462.4	78.5038	2,462.4	81.1549	2,462.4	78.1241	2,462.4	80.2639	2,462.4	76.2828	2,462.4	76.7297	2,462.4	72.9572	2,462.4	75.0506	2,462.4	73.0574	2,462.4	74.0762	2,462.4	69.0819	2,462.4	75.8924	2,462.4	69.1706	2,462.4	70.1939	2,462.4	69.2258	2,462.4	74.7312	2,462.4	70.3425	2,462.4	65.8764	2,462.4	68.9767	2,462.4	65.5415	2,462.4	68.2138	2,462.4	69.7881	2,462.4	44.0037	2,462.4	73.5962	2,462.4	67.1756
2,548.83	85.5235	2,548.83	83.902	2,548.83	86.2463	2,548.83	79.6813	2,548.83	84.1662	2,548.83	78.0989	2,548.83	79.427	2,548.83	81.236	2,548.83	76.6418	2,548.83	79.1761	2,548.83	79.0765	2,548.83	77.5846	2,548.83	81.0185	2,548.83	76.0647	2,548.83	77.8729	2,548.83	71.6807	2,548.83	77.9791	2,548.83	73.5765	2,548.83	76.7085	2,548.83	70.273	2,548.83	74.1298	2,548.83	71.0055	2,548.83	73.4581	2,548.83	70.3141	2,548.83	73.4038	2,548.83	67.5039	2,548.83	73.2421	2,548.83	69.9641	2,548.83	67.5514	2,548.83	68.5213	2,548.83	65.6259	2,548.83	65.852	2,548.83	66.7217	2,548.83	47.0598	2,548.83	73.8924	2,548.83	68.8262
2,639.65	83.8204	2,639.65	81.823	2,639.65	84.4525	2,639.65	79.2451	2,639.65	82.9962	2,639.65	78.2268	2,639.65	80.1583	2,639.65	80.2042	2,639.65	78.5131	2,639.65	78.8972	2,639.65	79.7429	2,639.65	77.9345	2,639.65	80.1759	2,639.65	77.4571	2,639.65	80.5335	2,639.65	76.671	2,639.65	78.7116	2,639.65	72.9603	2,639.65	76.9587	2,639.65	70.3404	2,639.65	74.9473	2,639.65	66.9619	2,639.65	72.8779	2,639.65	69.7167	2,639.65	74.7593	2,639.65	70.5186	2,639.65	71.9337	2,639.65	70.9589	2,639.65	68.4894	2,639.65	69.7056	2,639.65	69.2617	2,639.65	65.4021	2,639.65	67.2272	2,639.65	50.4779	2,639.65	73.9813	2,639.65	64.2717
2,731.93	83.5404	2,731.93	80.3465	2,731.93	84.5627	2,731.93	76.6416	2,731.93	82.3868	2,731.93	76.9115	2,731.93	78.8331	2,731.93	78.6783	2,731.93	77.3273	2,731.93	80.0962	2,731.93	80.3452	2,731.93	78.7426	2,731.93	80.2951	2,731.93	77.7915	2,731.93	80.9893	2,731.93	73.7386	2,731.93	77.4457	2,731.93	71.0363	2,731.93	76.7917	2,731.93	67.7081	2,731.93	73.0062	2,731.93	70.0204	2,731.93	75.9048	2,731.93	68.5087	2,731.93	73.5441	2,731.93	70.8225	2,731.93	73.9057	2,731.93	69.5234	2,731.93	63.9776	2,731.93	69.8321	2,731.93	68.2095	2,731.93	67.0334	2,731.93	68.6317	2,731.93	53.5458	2,731.93	72.2106	2,731.93	64.0067
2,828.61	84.9102	2,828.61	81.6735	2,828.61	85.4716	2,828.61	68.5819	2,828.61	82.7455	2,828.61	76.3817	2,828.61	75.5432	2,828.61	79.8097	2,828.61	76.187	2,828.61	80.8244	2,828.61	81.1755	2,828.61	79.7916	2,828.61	80.4601	2,828.61	77.8006	2,828.61	81.1871	2,828.61	73.7311	2,828.61	78.0549	2,828.61	72.8882	2,828.61	75.0943	2,828.61	73.1708	2,828.61	69.0945	2,828.61	71.3472	2,828.61	73.3922	2,828.61	68.0986	2,828.61	75.2177	2,828.61	71.0825	2,828.61	72.8532	2,828.61	69.489	2,828.61	69.5579	2,828.61	67.9934	2,828.61	62.0982	2,828.61	65.3239	2,828.61	69.8868	2,828.61	57.2381	2,828.61	72.0735	2,828.61	41.2622
2,928.22	85.4406	2,928.22	82.197	2,928.22	86.5151	2,928.22	65.2518	2,928.22	83.7331	2,928.22	77.1943	2,928.22	75.1264	2,928.22	81.2703	2,928.22	76.7591	2,928.22	80.3653	2,928.22	81.4678	2,928.22	79.5756	2,928.22	81.6768	2,928.22	77.0984	2,928.22	82.4318	2,928.22	77.7654	2,928.22	77.808	2,928.22	75.8104	2,928.22	71.7467	2,928.22	70.8666	2,928.22	64.0979	2,928.22	69.8633	2,928.22	65.9838	2,928.22	68.7479	2,928.22	74.852	2,928.22	70.5103	2,928.22	71.7822	2,928.22	70.4762	2,928.22	71.0887	2,928.22	70.1875	2,928.22	67.1232	2,928.22	67.5841	2,928.22	67.3123	2,928.22	57.9358	2,928.22	71.7388	2,928.22	58.8399
3,030.76	85.2841	3,030.76	82.1597	3,030.76	85.7193	3,030.76	61.5166	3,030.76	83.2953	3,030.76	78.217	3,030.76	73.124	3,030.76	80.7681	3,030.76	80.4281	3,030.76	80.9652	3,030.76	82.1367	3,030.76	79.7379	3,030.76	81.9265	3,030.76	79.3572	3,030.76	83.0719	3,030.76	77.9328	3,030.76	78.188	3,030.76	70.6201	3,030.76	69.1662	3,030.76	69.8406	3,030.76	57.8122	3,030.76	69.917	3,030.76	70.9374	3,030.76	69.1346	3,030.76	72.1235	3,030.76	69.3872	3,030.76	73.9672	3,030.76	70.1825	3,030.76	68.2456	3,030.76	69.5375	3,030.76	64.4485	3,030.76	68.2067	3,030.76	66.6137	3,030.76	59.911	3,030.76	71.2758	3,030.76	61.075
3,137.7	85.5954	3,137.7	81.4334	3,137.7	85.088	3,137.7	68.3061	3,137.7	82.0961	3,137.7	77.6688	3,137.7	68.8763	3,137.7	81.1976	3,137.7	81.2234	3,137.7	81.2908	3,137.7	82.8713	3,137.7	81.5944	3,137.7	81.3765	3,137.7	79.3327	3,137.7	82.7128	3,137.7	73.297	3,137.7	75.662	3,137.7	72.723	3,137.7	69.3007	3,137.7	72.5757	3,137.7	55.7947	3,137.7	69.9875	3,137.7	59.3415	3,137.7	69.2121	3,137.7	74.1115	3,137.7	71.7116	3,137.7	70.8425	3,137.7	70.0412	3,137.7	71.614	3,137.7	67.2248	3,137.7	62.1401	3,137.7	66.4899	3,137.7	66.5965	3,137.7	58.7774	3,137.7	70.6702	3,137.7	64.7643
3,249.02	85.6502	3,249.02	80.5733	3,249.02	85.9605	3,249.02	74.0705	3,249.02	80.7506	3,249.02	77.8705	3,249.02	54.7042	3,249.02	81.7932	3,249.02	79.4499	3,249.02	82.26	3,249.02	83.7481	3,249.02	81.216	3,249.02	82.9756	3,249.02	76.9628	3,249.02	83.0924	3,249.02	77.5574	3,249.02	72.5091	3,249.02	74.926	3,249.02	72.8103	3,249.02	70.6357	3,249.02	63.9739	3,249.02	69.2571	3,249.02	71.4863	3,249.02	69.2503	3,249.02	72.7706	3,249.02	70.5573	3,249.02	71.3403	3,249.02	70.8865	3,249.02	72.3432	3,249.02	68.6397	3,249.02	64.5225	3,249.02	65.1961	3,249.02	66.5285	3,249.02	55.2642	3,249.02	71.2555	3,249.02	67.198
3,363.28	85.0419	3,363.28	80.8661	3,363.28	85.8125	3,363.28	75.6501	3,363.28	80.9397	3,363.28	78.7155	3,363.28	65.7397	3,363.28	81.9219	3,363.28	80.0754	3,363.28	82.7517	3,363.28	82.9234	3,363.28	80.0057	3,363.28	83.6618	3,363.28	78.4193	3,363.28	82.5747	3,363.28	76.9414	3,363.28	74.1377	3,363.28	68.4362	3,363.28	75.2409	3,363.28	69.807	3,363.28	72.4337	3,363.28	68.572	3,363.28	70.9627	3,363.28	69.1738	3,363.28	70.99	3,363.28	68.5665	3,363.28	71.7629	3,363.28	69.7184	3,363.28	71.9338	3,363.28	66.002	3,363.28	66.1454	3,363.28	63.703	3,363.28	67.4189	3,363.28	56.4551	3,363.28	68.4444	3,363.28	63.7535
3,481.93	84.8225	3,481.93	82.5469	3,481.93	84.8668	3,481.93	77.706	3,481.93	81.0494	3,481.93	80.0593	3,481.93	68.8887	3,481.93	82.797	3,481.93	82.0417	3,481.93	82.7351	3,481.93	82.6446	3,481.93	79.9828	3,481.93	84.1155	3,481.93	78.2435	3,481.93	82.0965	3,481.93	72.4043	3,481.93	74.0066	3,481.93	74.3335	3,481.93	75.1991	3,481.93	68.6308	3,481.93	74.9848	3,481.93	69.7422	3,481.93	72.7705	3,481.93	67.8431	3,481.93	68.6743	3,481.93	69.7902	3,481.93	70.2716	3,481.93	69.9108	3,481.93	71.6176	3,481.93	66.8313	3,481.93	64.8435	3,481.93	64.1912	3,481.93	67.783	3,481.93	59.6694	3,481.93	68.3387	3,481.93	65.1454
3,604.98	85.3467	3,604.98	83.2175	3,604.98	84.6219	3,604.98	76.1126	3,604.98	79.1193	3,604.98	80.7437	3,604.98	74.7337	3,604.98	82.7843	3,604.98	82.0672	3,604.98	81.0513	3,604.98	82.6837	3,604.98	80.1279	3,604.98	84.9266	3,604.98	77.0681	3,604.98	79.0556	3,604.98	77.2694	3,604.98	76.0221	3,604.98	73.8003	3,604.98	74.8033	3,604.98	69.9013	3,604.98	75.6134	3,604.98	70.4026	3,604.98	73.0447	3,604.98	68.4542	3,604.98	64.3717	3,604.98	68.0762	3,604.98	70.5052	3,604.98	70.4062	3,604.98	70.1089	3,604.98	67.4058	3,604.98	61.411	3,604.98	62.4909	3,604.98	67.2938	3,604.98	61.4902	3,604.98	67.0291	3,604.98	65.5186
3,732.42	86.2039	3,732.42	84.6953	3,732.42	85.416	3,732.42	75.648	3,732.42	79.8538	3,732.42	81.076	3,732.42	76.268	3,732.42	82.7131	3,732.42	82.1547	3,732.42	81.7661	3,732.42	81.4641	3,732.42	79.7361	3,732.42	84.0267	3,732.42	78.0511	3,732.42	77.8841	3,732.42	76.078	3,732.42	76.001	3,732.42	71.72	3,732.42	70.4333	3,732.42	69.772	3,732.42	73.1944	3,732.42	69.7966	3,732.42	69.4548	3,732.42	67.2735	3,732.42	64.8775	3,732.42	67.1655	3,732.42	69.9137	3,732.42	68.3395	3,732.42	69.0978	3,732.42	67.1816	3,732.42	53.6109	3,732.42	64.5538	3,732.42	66.3449	3,732.42	60.0534	3,732.42	66.5662	3,732.42	64.8414
3,864.26	85.4939	3,864.26	83.1664	3,864.26	83.4855	3,864.26	77.0482	3,864.26	81.2582	3,864.26	82.1008	3,864.26	77.4957	3,864.26	82.7924	3,864.26	81.877	3,864.26	80.9334	3,864.26	80.9753	3,864.26	80.1969	3,864.26	82.7894	3,864.26	77.1269	3,864.26	75.1168	3,864.26	73.7232	3,864.26	72.1511	3,864.26	71.3434	3,864.26	71.547	3,864.26	68.8059	3,864.26	63.7748	3,864.26	69.357	3,864.26	64.0519	3,864.26	66.7595	3,864.26	64.6627	3,864.26	67.1242	3,864.26	70.2652	3,864.26	66.8147	3,864.26	67.7896	3,864.26	65.9408	3,864.26	57.8314	3,864.26	60.5121	3,864.26	68.2656	3,864.26	55.3997	3,864.26	65.8226	3,864.26	65.7162
4,000.49	86.2328	4,000.49	81.28	4,000.49	81.6106	4,000.49	78.3398	4,000.49	78.5391	4,000.49	81.4654	4,000.49	80.6496	4,000.49	81.9099	4,000.49	78.7684	4,000.49	80.8736	4,000.49	80.6802	4,000.49	79.3008	4,000.49	79.8223	4,000.49	74.2538	4,000.49	73.759	4,000.49	75.5479	4,000.49	67.3341	4,000.49	69.2402	4,000.49	75.9474	4,000.49	68.3591	4,000.49	66.118	4,000.49	65.7524	4,000.49	61.5162	4,000.49	67.2677	4,000.49	64.353	4,000.49	64.2425	4,000.49	70.2666	4,000.49	66.5571	4,000.49	64.2197	4,000.49	64.8201	4,000.49	55.055	4,000.49	59.4223	4,000.49	66.3196	4,000.49	47.1783	4,000.49	64.9951	4,000.49	62.1611
4,141.11	86.8173	4,141.11	82.8867	4,141.11	82.9935	4,141.11	80.3809	4,141.11	75.1244	4,141.11	80.2158	4,141.11	81.6885	4,141.11	81.876	4,141.11	79.4497	4,141.11	80.7179	4,141.11	78.6337	4,141.11	76.3519	4,141.11	74.9047	4,141.11	76.9985	4,141.11	75.1087	4,141.11	70.0877	4,141.11	73.4735	4,141.11	71.9509	4,141.11	73.5729	4,141.11	67.2559	4,141.11	52.424	4,141.11	67.1199	4,141.11	60.5185	4,141.11	67.4846	4,141.11	65.7921	4,141.11	65.2774	4,141.11	67.6023	4,141.11	67.1052	4,141.11	63.0791	4,141.11	63.967	4,141.11	57.7654	4,141.11	56.5033	4,141.11	62.8355	4,141.11	47.2138	4,141.11	65.4979	4,141.11	58.0282
4,287.6	85.4803	4,287.6	81.2085	4,287.6	83.048	4,287.6	78.1618	4,287.6	74.0978	4,287.6	81.5146	4,287.6	81.4262	4,287.6	82.2941	4,287.6	79.8054	4,287.6	78.1419	4,287.6	77.0941	4,287.6	76.589	4,287.6	74.0833	4,287.6	73.3236	4,287.6	76.4024	4,287.6	75.3292	4,287.6	74.3829	4,287.6	71.8087	4,287.6	68.0047	4,287.6	68.8746	4,287.6	64.0146	4,287.6	67.5249	4,287.6	52.5694	4,287.6	67.3584	4,287.6	66.9844	4,287.6	64.1982	4,287.6	65.0804	4,287.6	67.134	4,287.6	63.4054	4,287.6	64.6257	4,287.6	55.077	4,287.6	59.7392	4,287.6	62.5552	4,287.6	56.1346	4,287.6	64.6926	4,287.6	61.2395
4,438.48	85.9163	4,438.48	80.0543	4,438.48	84.4169	4,438.48	78.6505	4,438.48	74.6544	4,438.48	82.6237	4,438.48	81.8919	4,438.48	80.6525	4,438.48	79.8781	4,438.48	79.2812	4,438.48	77.0477	4,438.48	75.0979	4,438.48	74.8513	4,438.48	77.3837	4,438.48	77.9583	4,438.48	72.3871	4,438.48	70.0445	4,438.48	71.3814	4,438.48	65.695	4,438.48	68.4352	4,438.48	67.6402	4,438.48	66.0031	4,438.48	62.9861	4,438.48	67.6181	4,438.48	67.513	4,438.48	65.9309	4,438.48	65.4105	4,438.48	67.6007	4,438.48	63.4408	4,438.48	64.9527	4,438.48	38.0923	4,438.48	61.6227	4,438.48	65.3545	4,438.48	52.4112	4,438.48	64.7408	4,438.48	62.3098
4,595.21	85.6461	4,595.21	82.1909	4,595.21	84.8348	4,595.21	80.7985	4,595.21	74.6033	4,595.21	82.8129	4,595.21	83.071	4,595.21	81.3344	4,595.21	80.2248	4,595.21	77.828	4,595.21	76.1292	4,595.21	79.05	4,595.21	77.336	4,595.21	76.3693	4,595.21	78.613	4,595.21	75.4604	4,595.21	73.2337	4,595.21	71.1407	4,595.21	69.1367	4,595.21	66.5999	4,595.21	64.5982	4,595.21	67.0118	4,595.21	66.4993	4,595.21	67.2687	4,595.21	66.81	4,595.21	65.4484	4,595.21	66.7007	4,595.21	66.6395	4,595.21	63.9488	4,595.21	62.6859	4,595.21	54.9254	4,595.21	60.1876	4,595.21	66.4195	4,595.21	52.9737	4,595.21	62.7676	4,595.21	61.5834
4,756.35	86.0241	4,756.35	82.1672	4,756.35	85.392	4,756.35	81.3584	4,756.35	73.7644	4,756.35	83.9751	4,756.35	84.3497	4,756.35	80.1565	4,756.35	81.4668	4,756.35	80.1067	4,756.35	74.8298	4,756.35	78.0037	4,756.35	77.5099	4,756.35	76.4204	4,756.35	78.4382	4,756.35	74.445	4,756.35	75.5072	4,756.35	70.7757	4,756.35	75.1323	4,756.35	69.6869	4,756.35	71.1789	4,756.35	65.1438	4,756.35	65.1305	4,756.35	65.3337	4,756.35	65.1991	4,756.35	65.7224	4,756.35	65.2703	4,756.35	65.631	4,756.35	64.5984	4,756.35	65.9739	4,756.35	59.8798	4,756.35	65.2445	4,756.35	66.8762	4,756.35	57.5871	4,756.35	62.1914	4,756.35	59.8713
4,924.8	86.2939	4,924.8	82.0216	4,924.8	86.324	4,924.8	82.1061	4,924.8	77.1141	4,924.8	83.695	4,924.8	83.8549	4,924.8	81.001	4,924.8	82.7507	4,924.8	80.6547	4,924.8	75.633	4,924.8	78.3684	4,924.8	78.6843	4,924.8	75.3016	4,924.8	77.7155	4,924.8	73.0788	4,924.8	73.8385	4,924.8	70.2665	4,924.8	73.7815	4,924.8	67.4759	4,924.8	68.214	4,924.8	63.9508	4,924.8	69.3851	4,924.8	66.3509	4,924.8	68.4868	4,924.8	65.4249	4,924.8	70.4906	4,924.8	65.5767	4,924.8	66.5724	4,924.8	60.1972	4,924.8	56.5372	4,924.8	60.3649	4,924.8	63.8626	4,924.8	50.2864	4,924.8	63.0729	4,924.8	60.2792
5,097.66	86.0475	5,097.66	82.6391	5,097.66	86.1157	5,097.66	83.8034	5,097.66	79.5506	5,097.66	82.884	5,097.66	83.6373	5,097.66	81.8618	5,097.66	83.1921	5,097.66	79.5254	5,097.66	75.8996	5,097.66	76.871	5,097.66	77.3673	5,097.66	74.7798	5,097.66	79.9074	5,097.66	73.3009	5,097.66	76.5296	5,097.66	69.4732	5,097.66	73.0497	5,097.66	66.6241	5,097.66	66.9784	5,097.66	66.2751	5,097.66	68.9917	5,097.66	65.5886	5,097.66	68.0062	5,097.66	63.5998	5,097.66	70.7023	5,097.66	64.1252	5,097.66	66.7341	5,097.66	64.8945	5,097.66	59.2268	5,097.66	64.1988	5,097.66	67.7066	5,097.66	55.6503	5,097.66	63.2396	5,097.66	55.6475
5,277.83	85.951	5,277.83	82.1634	5,277.83	85.6037	5,277.83	82.8652	5,277.83	80.9286	5,277.83	82.8118	5,277.83	83.4112	5,277.83	81.5754	5,277.83	83.6273	5,277.83	78.3674	5,277.83	72.3046	5,277.83	76.2031	5,277.83	77.4372	5,277.83	73.2542	5,277.83	80.5165	5,277.83	70.5894	5,277.83	79.1189	5,277.83	70.7626	5,277.83	77.6923	5,277.83	66.4095	5,277.83	72.2536	5,277.83	62.3515	5,277.83	67.1577	5,277.83	65.0119	5,277.83	66.5802	5,277.83	64.1588	5,277.83	67.1243	5,277.83	63.3484	5,277.83	63.7201	5,277.83	63.2073	5,277.83	58.94	5,277.83	61.0778	5,277.83	66.8128	5,277.83	59.335	5,277.83	59.4751	5,277.83	57.2113
5,463.87	85.4736	5,463.87	81.4687	5,463.87	84.6023	5,463.87	83.333	5,463.87	81.8363	5,463.87	82.7776	5,463.87	84.0742	5,463.87	80.0634	5,463.87	83.7477	5,463.87	76.7523	5,463.87	72.528	5,463.87	75.4102	5,463.87	77.9036	5,463.87	74.2035	5,463.87	80.1713	5,463.87	70.5959	5,463.87	78.7639	5,463.87	68.4376	5,463.87	77.1773	5,463.87	64.1902	5,463.87	69.6253	5,463.87	61.9485	5,463.87	60.6373	5,463.87	64.8636	5,463.87	67.7956	5,463.87	63.6714	5,463.87	67.9424	5,463.87	62.1653	5,463.87	34.3302	5,463.87	61.3351	5,463.87	61.8852	5,463.87	59.4613	5,463.87	61.8466	5,463.87	60.2407	5,463.87	58.8262	5,463.87	54.7056
5,657.23	84.8241	5,657.23	81.3893	5,657.23	84.7179	5,657.23	83.2631	5,657.23	84.0099	5,657.23	82.0643	5,657.23	83.7747	5,657.23	78.8255	5,657.23	82.872	5,657.23	77.3306	5,657.23	71.6987	5,657.23	75.6696	5,657.23	78.9957	5,657.23	72.5708	5,657.23	79.303	5,657.23	70.0159	5,657.23	78.601	5,657.23	68.785	5,657.23	73.5572	5,657.23	62.8253	5,657.23	59.7533	5,657.23	62.0993	5,657.23	56.0036	5,657.23	60.8716	5,657.23	68.2299	5,657.23	62.3624	5,657.23	62.8969	5,657.23	61.747	5,657.23	56.8865	5,657.23	60.9123	5,657.23	61.4853	5,657.23	57.863	5,657.23	64.381	5,657.23	56.0513	5,657.23	53.2568	5,657.23	53.695
5,856.45	85.1365	5,856.45	81.1726	5,856.45	84.036	5,856.45	83.56	5,856.45	83.7332	5,856.45	81.8932	5,856.45	83.9662	5,856.45	78.2375	5,856.45	82.0001	5,856.45	78.6321	5,856.45	73.9987	5,856.45	75.2291	5,856.45	78.4527	5,856.45	73.5989	5,856.45	78.0634	5,856.45	67.1984	5,856.45	74.3495	5,856.45	66.5117	5,856.45	71.3512	5,856.45	63.2714	5,856.45	63.6574	5,856.45	59.3377	5,856.45	57.6914	5,856.45	62.4151	5,856.45	63.894	5,856.45	63.7287	5,856.45	57.0328	5,856.45	61.2237	5,856.45	61.1244	5,856.45	60.6923	5,856.45	57.7902	5,856.45	61.9428	5,856.45	67.3564	5,856.45	59.5273	5,856.45	58.0813	5,856.45	54.6773
6,062.99	84.9844	6,062.99	81.1484	6,062.99	83.7351	6,062.99	84.5277	6,062.99	80.5583	6,062.99	81.7809	6,062.99	84.617	6,062.99	79.4413	6,062.99	80.6621	6,062.99	79.2436	6,062.99	76.6271	6,062.99	75.6182	6,062.99	77.4718	6,062.99	71.7574	6,062.99	74.8417	6,062.99	69.9363	6,062.99	68.699	6,062.99	66.1358	6,062.99	69.1006	6,062.99	61.4379	6,062.99	67.9847	6,062.99	60.8195	6,062.99	61.4135	6,062.99	62.6968	6,062.99	52.6464	6,062.99	63.125	6,062.99	56.3293	6,062.99	60.0281	6,062.99	64.6339	6,062.99	61.3081	6,062.99	60.006	6,062.99	60.8865	6,062.99	65.3594	6,062.99	54.2685	6,062.99	54.3964	6,062.99	56.4268
6,276.86	85.1975	6,276.86	82.2358	6,276.86	84.2735	6,276.86	84.525	6,276.86	81.2809	6,276.86	81.6542	6,276.86	83.246	6,276.86	80.6563	6,276.86	79.3223	6,276.86	78.5285	6,276.86	77.6251	6,276.86	75.1402	6,276.86	74.8544	6,276.86	71.7142	6,276.86	69.2339	6,276.86	70.0873	6,276.86	68.0464	6,276.86	68.3962	6,276.86	64.3536	6,276.86	62.9247	6,276.86	68.3638	6,276.86	61.9556	6,276.86	60.8656	6,276.86	61.7942	6,276.86	47.9009	6,276.86	64.9801	6,276.86	59.491	6,276.86	62.8712	6,276.86	63.8661	6,276.86	61.394	6,276.86	57.043	6,276.86	63.5315	6,276.86	60.4987	6,276.86	59.4641	6,276.86	54.4387	6,276.86	56.5681
6,498.05	85.3983	6,498.05	82.699	6,498.05	84.2769	6,498.05	84.7488	6,498.05	82.9048	6,498.05	81.4244	6,498.05	82.0845	6,498.05	80.9376	6,498.05	79.2205	6,498.05	78.1368	6,498.05	78.1844	6,498.05	74.1762	6,498.05	70.0663	6,498.05	73.3622	6,498.05	71.5288	6,498.05	70.2927	6,498.05	69.3117	6,498.05	67.4215	6,498.05	64.2865	6,498.05	62.709	6,498.05	63.0778	6,498.05	61.8166	6,498.05	49.3127	6,498.05	63.1253	6,498.05	55.5562	6,498.05	64.4917	6,498.05	55.1026	6,498.05	63.0547	6,498.05	58.2148	6,498.05	62.2803	6,498.05	59.6427	6,498.05	62.4339	6,498.05	57.6346	6,498.05	59.2166	6,498.05	54.3146	6,498.05	55.2188
6,726.56	85.019	6,726.56	82.7011	6,726.56	84.5496	6,726.56	84.9508	6,726.56	83.3406	6,726.56	81.9533	6,726.56	81.5767	6,726.56	80.0001	6,726.56	80.7528	6,726.56	77.6788	6,726.56	79.9087	6,726.56	74.4798	6,726.56	65.5757	6,726.56	73.2627	6,726.56	74.8668	6,726.56	71.1106	6,726.56	70.66	6,726.56	67.2301	6,726.56	68.4461	6,726.56	61.9989	6,726.56	61.513	6,726.56	60.1475	6,726.56	55.5629	6,726.56	63.1448	6,726.56	59.8494	6,726.56	63.2902	6,726.56	55.8167	6,726.56	62.1877	6,726.56	45.2355	6,726.56	62.6469	6,726.56	58.6429	6,726.56	61.4519	6,726.56	61.792	6,726.56	61.7391	6,726.56	57.9439	6,726.56	50.7894
6,963.87	84.9616	6,963.87	83.6627	6,963.87	84.2148	6,963.87	85.1296	6,963.87	82.4177	6,963.87	82.4954	6,963.87	83.3387	6,963.87	80.4945	6,963.87	81.1925	6,963.87	77.8435	6,963.87	80.2643	6,963.87	75.3287	6,963.87	58.3655	6,963.87	73.3103	6,963.87	74.0168	6,963.87	69.2643	6,963.87	71.0775	6,963.87	68.168	6,963.87	65.0904	6,963.87	61.7334	6,963.87	51.4078	6,963.87	56.714	6,963.87	53.0936	6,963.87	62.9298	6,963.87	60.6748	6,963.87	62.753	6,963.87	59.043	6,963.87	62.5587	6,963.87	54.9318	6,963.87	61.3025	6,963.87	58.9666	6,963.87	60.1296	6,963.87	60.2669	6,963.87	63.2644	6,963.87	57.3871	6,963.87	53.3279
7,209.96	85.5208	7,209.96	85.4968	7,209.96	86.3998	7,209.96	85.9736	7,209.96	82.1468	7,209.96	83.6666	7,209.96	85.1643	7,209.96	79.7005	7,209.96	81.1474	7,209.96	78.4391	7,209.96	79.8221	7,209.96	75.7999	7,209.96	69.0074	7,209.96	73.474	7,209.96	74.1597	7,209.96	71.5512	7,209.96	67.2703	7,209.96	66.0934	7,209.96	64.3818	7,209.96	61.2171	7,209.96	59.9101	7,209.96	58.6752	7,209.96	59.7867	7,209.96	61.3448	7,209.96	60.4744	7,209.96	62.853	7,209.96	60.2395	7,209.96	63.4853	7,209.96	59.2596	7,209.96	60.8337	7,209.96	58.0457	7,209.96	61.007	7,209.96	57.1978	7,209.96	64.7513	7,209.96	55.3474	7,209.96	51.5421
7,464.84	85.4472	7,464.84	86.1464	7,464.84	87.3751	7,464.84	85.8177	7,464.84	83.8637	7,464.84	83.3378	7,464.84	85.2184	7,464.84	79.798	7,464.84	82.2353	7,464.84	78.2925	7,464.84	78.1116	7,464.84	75.489	7,464.84	71.7633	7,464.84	72.6605	7,464.84	70.7515	7,464.84	70.8857	7,464.84	63.537	7,464.84	66.9559	7,464.84	64.8174	7,464.84	59.0574	7,464.84	62.7362	7,464.84	54.4745	7,464.84	61.1312	7,464.84	60.5088	7,464.84	52.0308	7,464.84	62.6413	7,464.84	57.9735	7,464.84	60.9514	7,464.84	46.693	7,464.84	57.9483	7,464.84	58.3384	7,464.84	61.442	7,464.84	60.7201	7,464.84	61.9373	7,464.84	55.4496	7,464.84	45.0283
7,727.05	86.5711	7,727.05	87.037	7,727.05	86.4088	7,727.05	86.6168	7,727.05	85.1424	7,727.05	83.5707	7,727.05	83.7589	7,727.05	80.2819	7,727.05	81.9663	7,727.05	76.825	7,727.05	77.5082	7,727.05	74.1628	7,727.05	72.1172	7,727.05	70.8447	7,727.05	69.4429	7,727.05	69.0246	7,727.05	68.0985	7,727.05	64.1775	7,727.05	66.5932	7,727.05	59.7377	7,727.05	62.5254	7,727.05	52.7671	7,727.05	59.0254	7,727.05	57.349	7,727.05	35.6418	7,727.05	62.6653	7,727.05	56.794	7,727.05	59.3195	7,727.05	46.9526	7,727.05	58.8324	7,727.05	58.0153	7,727.05	61.8934	7,727.05	59.4009	7,727.05	60.1206	7,727.05	57.3848	7,727.05	54.8309
7,999.51	86.9676	7,999.51	87.3082	7,999.51	87.3517	7,999.51	86.8461	7,999.51	84.4373	7,999.51	83.7335	7,999.51	82.7048	7,999.51	79.8569	7,999.51	80.5391	7,999.51	76.2546	7,999.51	78.1388	7,999.51	74.6221	7,999.51	70.9369	7,999.51	72.0551	7,999.51	71.5304	7,999.51	69.6239	7,999.51	68.9986	7,999.51	64.6457	7,999.51	64.6139	7,999.51	60.9045	7,999.51	58.3836	7,999.51	58.7034	7,999.51	61.7794	7,999.51	54.6671	7,999.51	47.643	7,999.51	64.1394	7,999.51	55.9919	7,999.51	62.3298	7,999.51	53.337	7,999.51	59.5365	7,999.51	57.319	7,999.51	60.8496	7,999.51	58.1442	7,999.51	61.1936	7,999.51	53.6511	7,999.51	56.6221
8,282.23	86.624	8,282.23	87.4364	8,282.23	86.8677	8,282.23	86.6121	8,282.23	84.5045	8,282.23	83.5586	8,282.23	81.9739	8,282.23	78.9598	8,282.23	77.5324	8,282.23	77.2018	8,282.23	75.5334	8,282.23	75.3662	8,282.23	67.6051	8,282.23	74.1489	8,282.23	68.7865	8,282.23	72.453	8,282.23	69.527	8,282.23	67.5542	8,282.23	60.6538	8,282.23	59.6012	8,282.23	55.9846	8,282.23	55.25	8,282.23	59.1053	8,282.23	59.5292	8,282.23	46.469	8,282.23	64.5708	8,282.23	53.0622	8,282.23	62.6376	8,282.23	57.9608	8,282.23	62.1924	8,282.23	59.6076	8,282.23	63.0526	8,282.23	58.6408	8,282.23	61.8218	8,282.23	56.8521	8,282.23	57.0448
8,573.73	84.922	8,573.73	86.2727	8,573.73	84.9984	8,573.73	85.5005	8,573.73	83.9527	8,573.73	82.4893	8,573.73	82.1194	8,573.73	79.1318	8,573.73	74.0245	8,573.73	77.6122	8,573.73	76.7751	8,573.73	76.2377	8,573.73	74.6543	8,573.73	73.1201	8,573.73	72.5087	8,573.73	70.5956	8,573.73	70.9084	8,573.73	64.1699	8,573.73	62.8873	8,573.73	63.3808	8,573.73	54.7212	8,573.73	55.8292	8,573.73	49.0843	8,573.73	55.3598	8,573.73	37.3988	8,573.73	64.5924	8,573.73	54.8109	8,573.73	63.9243	8,573.73	54.5499	8,573.73	58.6621	8,573.73	55.9748	8,573.73	60.7392	8,573.73	55.9518	8,573.73	63.4846	8,573.73	54.0682	8,573.73	57.8487
8,876.95	84.8373	8,876.95	85.7454	8,876.95	85.034	8,876.95	84.8243	8,876.95	83.548	8,876.95	81.8702	8,876.95	83.9738	8,876.95	80.1127	8,876.95	76.9639	8,876.95	77.3331	8,876.95	76.8488	8,876.95	75.9269	8,876.95	78.8181	8,876.95	72.8943	8,876.95	70.9518	8,876.95	71.2576	8,876.95	73.1645	8,876.95	67.2952	8,876.95	68.0772	8,876.95	62.0385	8,876.95	55.8962	8,876.95	55.365	8,876.95	46.2444	8,876.95	56.3633	8,876.95	52.7298	8,876.95	63.7783	8,876.95	53.8925	8,876.95	64.0234	8,876.95	40.1556	8,876.95	58.2749	8,876.95	53.197	8,876.95	59.1616	8,876.95	52.0344	8,876.95	62.9798	8,876.95	57.0914	8,876.95	57.5195
9,188.96	84.025	9,188.96	85.4321	9,188.96	84.6286	9,188.96	83.4095	9,188.96	81.4081	9,188.96	82.1716	9,188.96	82.877	9,188.96	80.4889	9,188.96	79.1559	9,188.96	77.1268	9,188.96	75.5416	9,188.96	75.7919	9,188.96	79.4407	9,188.96	74.1406	9,188.96	59.0655	9,188.96	71.7156	9,188.96	72.4464	9,188.96	67.0484	9,188.96	64.9873	9,188.96	62.1538	9,188.96	53.0809	9,188.96	44.4816	9,188.96	55.7393	9,188.96	55.4204	9,188.96	53.9302	9,188.96	64.925	9,188.96	48.8346	9,188.96	63.3722	9,188.96	54.3378	9,188.96	56.3914	9,188.96	53.7118	9,188.96	61.4645	9,188.96	55.2066	9,188.96	64.3584	9,188.96	56.5349	9,188.96	57.7462
9,514.16	84.7965	9,514.16	84.8666	9,514.16	84.5945	9,514.16	82.7628	9,514.16	82.7808	9,514.16	82.4417	9,514.16	79.6513	9,514.16	80.298	9,514.16	79.1797	9,514.16	77.5366	9,514.16	76.2685	9,514.16	75.2318	9,514.16	78.4566	9,514.16	73.1489	9,514.16	62.7922	9,514.16	70.8465	9,514.16	73.6998	9,514.16	66.2147	9,514.16	65.6899	9,514.16	62.7523	9,514.16	46.552	9,514.16	52.6063	9,514.16	49.2039	9,514.16	54.7115	9,514.16	53.5491	9,514.16	62.2886	9,514.16	51.4627	9,514.16	62.5857	9,514.16	57.5406	9,514.16	57.1312	9,514.16	57.2813	9,514.16	61.1466	9,514.16	54.271	9,514.16	62.3338	9,514.16	53.8402	9,514.16	54.768
9,849.61	84.571	9,849.61	83.8082	9,849.61	83.8423	9,849.61	82.3939	9,849.61	82.6629	9,849.61	81.9781	9,849.61	80.1524	9,849.61	80.6718	9,849.61	79.9408	9,849.61	76.8537	9,849.61	79.6321	9,849.61	75.283	9,849.61	75.423	9,849.61	73.08	9,849.61	68.3879	9,849.61	71.1023	9,849.61	72.6933	9,849.61	65.6697	9,849.61	63.2111	9,849.61	61.612	9,849.61	51.7784	9,849.61	52.8674	9,849.61	55.2144	9,849.61	54.9646	9,849.61	51.86	9,849.61	61.3833	9,849.61	51.0942	9,849.61	60.5364	9,849.61	60.4222	9,849.61	57.7023	9,849.61	52.6464	9,849.61	60.0288	9,849.61	55.6617	9,849.61	60.2406	9,849.61	54.281	9,849.61	54.2892
10,196.8	85.1392	10,196.8	84.0595	10,196.8	83.8537	10,196.8	83.3134	10,196.8	82.1784	10,196.8	81.7078	10,196.8	82.864	10,196.8	79.7331	10,196.8	80.0135	10,196.8	76.3157	10,196.8	80.1301	10,196.8	74.4641	10,196.8	72.129	10,196.8	71.5531	10,196.8	70.3775	10,196.8	68.3991	10,196.8	69.3451	10,196.8	62.0633	10,196.8	63.3467	10,196.8	59.9705	10,196.8	58.2927	10,196.8	41.9104	10,196.8	52.9945	10,196.8	45.8907	10,196.8	52.722	10,196.8	59.1628	10,196.8	51.0016	10,196.8	58.4509	10,196.8	60.4054	10,196.8	55.0932	10,196.8	54.8894	10,196.8	57.6345	10,196.8	53.18	10,196.8	58.0955	10,196.8	48.4766	10,196.8	53.1471
10,555.7	85.4026	10,555.7	84.5903	10,555.7	85.2529	10,555.7	83.4849	10,555.7	82.5017	10,555.7	81.7651	10,555.7	83.2223	10,555.7	78.2116	10,555.7	78.9612	10,555.7	75.1281	10,555.7	77.9378	10,555.7	72.4189	10,555.7	72.2049	10,555.7	68.5741	10,555.7	67.1298	10,555.7	66.1296	10,555.7	65.1688	10,555.7	59.1055	10,555.7	64.7943	10,555.7	56.275	10,555.7	53.4132	10,555.7	46.7333	10,555.7	55.1439	10,555.7	49.0649	10,555.7	49.9686	10,555.7	57.3797	10,555.7	53.2367	10,555.7	54.9405	10,555.7	58.8368	10,555.7	52.6375	10,555.7	55.2035	10,555.7	53.9463	10,555.7	50.1835	10,555.7	54.2953	10,555.7	49.7762	10,555.7	54.6939
10,927.7	85.8483	10,927.7	84.6169	10,927.7	85.5349	10,927.7	83.903	10,927.7	82.4105	10,927.7	81.2863	10,927.7	82.0436	10,927.7	78.1418	10,927.7	77.8489	10,927.7	73.5529	10,927.7	74.1478	10,927.7	71.1	10,927.7	73.2952	10,927.7	66.9164	10,927.7	66.8859	10,927.7	62.8503	10,927.7	62.4598	10,927.7	56.9882	10,927.7	63.8851	10,927.7	54.5161	10,927.7	59.1001	10,927.7	50.1989	10,927.7	50.4918	10,927.7	45.0269	10,927.7	46.1037	10,927.7	56.9435	10,927.7	46.7216	10,927.7	52.5065	10,927.7	56.0501	10,927.7	50.1194	10,927.7	51.0386	10,927.7	47.3696	10,927.7	52.496	10,927.7	53.0976	10,927.7	52.2157	10,927.7	52.2335
11,313	85.9931	11,313	85.4052	11,313	86.3705	11,313	84.0402	11,313	84.0549	11,313	81.2423	11,313	80.2368	11,313	77.8005	11,313	79.3251	11,313	72.9364	11,313	73.4626	11,313	68.8493	11,313	73.527	11,313	65.0498	11,313	68.1079	11,313	61.4319	11,313	66.0073	11,313	57.3997	11,313	63.0883	11,313	52.9054	11,313	62.0694	11,313	47.8417	11,313	55.148	11,313	45.4321	11,313	43.595	11,313	55.1771	11,313	51.1689	11,313	51.0412	11,313	54.4832	11,313	45.4057	11,313	43.4954	11,313	43.4017	11,313	54.0984	11,313	52.2819	11,313	50.8199	11,313	53.9495
11,712.9	86.0407	11,712.9	85.6007	11,712.9	86.1696	11,712.9	84.34	11,712.9	84.1702	11,712.9	81.0877	11,712.9	80.7799	11,712.9	77.4816	11,712.9	79.2267	11,712.9	72.1523	11,712.9	75.5035	11,712.9	68.0679	11,712.9	72.2707	11,712.9	63.5133	11,712.9	68.7278	11,712.9	61.5996	11,712.9	63.6894	11,712.9	59.0395	11,712.9	58.1563	11,712.9	55.407	11,712.9	62.4596	11,712.9	38.8596	11,712.9	53.4155	11,712.9	37.1334	11,712.9	40.0006	11,712.9	51.8181	11,712.9	47.561	11,712.9	50.9657	11,712.9	44.4982	11,712.9	46.3983	11,712.9	49.4115	11,712.9	47.4642	11,712.9	56.2736	11,712.9	51.3628	11,712.9	48.9043	11,712.9	54.0094
12,126	86.2392	12,126	85.5434	12,126	85.8896	12,126	84.2702	12,126	84.1043	12,126	80.9738	12,126	82.5868	12,126	77.2094	12,126	77.9982	12,126	71.5462	12,126	75.3863	12,126	68.1552	12,126	69.5659	12,126	63.7055	12,126	66.7206	12,126	62.4766	12,126	58.0547	12,126	59.7579	12,126	59.1413	12,126	54.6863	12,126	61.7979	12,126	47.2395	12,126	54.2111	12,126	42.9479	12,126	28.574	12,126	52.1736	12,126	46.4812	12,126	52.8897	12,126	42.4226	12,126	50.6861	12,126	49.9799	12,126	50.8219	12,126	53.1001	12,126	51.7646	12,126	46.5556	12,126	52.7404
12,553.7	86.3733	12,553.7	85.863	12,553.7	85.6453	12,553.7	84.0712	12,553.7	83.7909	12,553.7	80.5732	12,553.7	82.0409	12,553.7	76.814	12,553.7	76.3304	12,553.7	71.6206	12,553.7	73.9784	12,553.7	68.7471	12,553.7	66.6464	12,553.7	64.1866	12,553.7	63.954	12,553.7	62.2364	12,553.7	56.7008	12,553.7	58.9531	12,553.7	53.7592	12,553.7	53.2923	12,553.7	59.5731	12,553.7	49.3959	12,553.7	54.1434	12,553.7	40.9997	12,553.7	41.1662	12,553.7	52.299	12,553.7	37.4969	12,553.7	52.635	12,553.7	43.2273	12,553.7	50.2996	12,553.7	48.7734	12,553.7	48.4847	12,553.7	50.4628	12,553.7	50.268	12,553.7	47.0003	12,553.7	51.4647
12,996.1	86.5601	12,996.1	85.9947	12,996.1	85.9318	12,996.1	84.149	12,996.1	83.5975	12,996.1	80.3024	12,996.1	80.679	12,996.1	76.5438	12,996.1	75.8297	12,996.1	71.3818	12,996.1	71.5967	12,996.1	67.8861	12,996.1	65.0968	12,996.1	63.1251	12,996.1	59.0002	12,996.1	60.2615	12,996.1	49.2447	12,996.1	57.3496	12,996.1	50.7047	12,996.1	49.1511	12,996.1	59.2251	12,996.1	46.4672	12,996.1	52.7106	12,996.1	38.2913	12,996.1	29.9384	12,996.1	51.0607	12,996.1	35.1167	12,996.1	50.824	12,996.1	43.845	12,996.1	48.4813	12,996.1	45.1888	12,996.1	46.2129	12,996.1	47.569	12,996.1	46.4575	12,996.1	47.8759	12,996.1	49.4986
13,454.6	86.8148	13,454.6	86.1075	13,454.6	86.1794	13,454.6	84.224	13,454.6	84.155	13,454.6	79.8891	13,454.6	80.5873	13,454.6	75.7293	13,454.6	75.4192	13,454.6	70.307	13,454.6	69.2657	13,454.6	66.1529	13,454.6	63.0461	13,454.6	59.8828	13,454.6	57.8253	13,454.6	56.5506	13,454.6	51.0809	13,454.6	52.2174	13,454.6	44.6971	13,454.6	44.7671	13,454.6	57.6833	13,454.6	28.6326	13,454.6	51.2622	13,454.6	25.1937	13,454.6	21.7296	13,454.6	45.0683	13,454.6	29.6065	13,454.6	46.6045	13,454.6	40.1403	13,454.6	45.1503	13,454.6	40.2362	13,454.6	40.497	13,454.6	45.4921	13,454.6	44.3277	13,454.6	47.5129	13,454.6	47.6687
13,929.2	87.2762	13,929.2	86.4196	13,929.2	86.5447	13,929.2	84.0978	13,929.2	84.0589	13,929.2	79.6339	13,929.2	81.1012	13,929.2	74.5554	13,929.2	74.8182	13,929.2	68.1185	13,929.2	66.1275	13,929.2	62.7077	13,929.2	61.1845	13,929.2	56.1798	13,929.2	61.1288	13,929.2	49.4464	13,929.2	50.605	13,929.2	34.8291	13,929.2	47.027	13,929.2	38.8855	13,929.2	55.4201	13,929.2	27.0482	13,929.2	47.6575	13,929.2	35.2279	13,929.2	41.7901	13,929.2	24.6779	13,929.2	37.3873	13,929.2	39.1552	13,929.2	38.0327	13,929.2	40.5851	13,929.2	27.0737	13,929.2	41.6677	13,929.2	46.8683	13,929.2	39.9329	13,929.2	40.8172	13,929.2	45.2879
14,419.9	87.6343	14,419.9	86.5734	14,419.9	87.1701	14,419.9	83.9702	14,419.9	83.9136	14,419.9	79.385	14,419.9	80.2453	14,419.9	72.2741	14,419.9	73.6268	14,419.9	61.6556	14,419.9	59.7045	14,419.9	52.7323	14,419.9	64.5448	14,419.9	54.9692	14,419.9	62.6865	14,419.9	54.1825	14,419.9	58.3527	14,419.9	53.6104	14,419.9	53.3237	14,419.9	46.1026	14,419.9	48.4963	14,419.9	40.1945	14,419.9	48.3195	14,419.9	41.8345	14,419.9	36.2908	14,419.9	45.3327	14,419.9	40.7772	14,419.9	41.2904	14,419.9	45.1786	14,419.9	46.565	14,419.9	36.8845	14,419.9	45.8558	14,419.9	47.8748	14,419.9	36.6542	14,419.9	40.3096	14,419.9	42.4095
14,928.2	87.6798	14,928.2	86.6507	14,928.2	86.9976	14,928.2	84.1448	14,928.2	84.1864	14,928.2	79.2365	14,928.2	79.8505	14,928.2	70.809	14,928.2	72.0589	14,928.2	59.9551	14,928.2	57.7491	14,928.2	56.114	14,928.2	67.051	14,928.2	59.194	14,928.2	61.5957	14,928.2	59.4712	14,928.2	61.3737	14,928.2	57.7155	14,928.2	53.0855	14,928.2	51.8228	14,928.2	53.9349	14,928.2	44.7254	14,928.2	47.7178	14,928.2	41.2135	14,928.2	35.044	14,928.2	48.9797	14,928.2	40.9628	14,928.2	48.8467	14,928.2	43.1254	14,928.2	50.1766	14,928.2	42.1322	14,928.2	46.6283	14,928.2	50.2639	14,928.2	40.1431	14,928.2	40.2633	14,928.2	41.8264
15,455.6	87.4588	15,455.6	86.4447	15,455.6	87.0125	15,455.6	84.1736	15,455.6	84.3463	15,455.6	78.7317	15,455.6	79.4622	15,455.6	71.8564	15,455.6	69.908	15,455.6	63.3073	15,455.6	64.1672	15,455.6	59.2707	15,455.6	66.1276	15,455.6	59.3242	15,455.6	63.6049	15,455.6	58.5319	15,455.6	58.7946	15,455.6	58.1834	15,455.6	53.434	15,455.6	50.4697	15,455.6	54.9498	15,455.6	47.4382	15,455.6	43.0715	15,455.6	36.609	15,455.6	37.9381	15,455.6	48.8682	15,455.6	35.1377	15,455.6	49.2395	15,455.6	40.4058	15,455.6	49.9356	15,455.6	28.3453	15,455.6	44.5995	15,455.6	48.2551	15,455.6	42.2404	15,455.6	42.9169	15,455.6	38.4435
16,000.5	87.2468	16,000.5	86.4196	16,000.5	86.9603	16,000.5	83.9681	16,000.5	84.2938	16,000.5	77.7326	16,000.5	78.337	16,000.5	71.6054	16,000.5	68.589	16,000.5	60.1282	16,000.5	59.3659	16,000.5	55.7513	16,000.5	66.5396	16,000.5	55.2851	16,000.5	61.5165	16,000.5	54.9939	16,000.5	58.1888	16,000.5	54.4078	16,000.5	56.4658	16,000.5	45.7207	16,000.5	54.2724	16,000.5	45.8959	16,000.5	49.3497	16,000.5	32.131	16,000.5	39.175	16,000.5	44.2954	16,000.5	37.1053	16,000.5	45.4996	16,000.5	39.486	16,000.5	45.0196	16,000.5	34.417	16,000.5	41.0958	16,000.5	43.7651	16,000.5	41.0641	16,000.5	43.8029	16,000.5	35.7926
16,564.5	87.2329	16,564.5	86.4151	16,564.5	86.3924	16,564.5	83.4975	16,564.5	83.5548	16,564.5	77.0068	16,564.5	77.5788	16,564.5	69.3623	16,564.5	66.7726	16,564.5	54.5922	16,564.5	61.2022	16,564.5	51.528	16,564.5	65.794	16,564.5	55.9876	16,564.5	60.994	16,564.5	53.8914	16,564.5	58.2925	16,564.5	51.0755	16,564.5	54.2768	16,564.5	43.7616	16,564.5	50.9583	16,564.5	42.8064	16,564.5	47.9495	16,564.5	32.2621	16,564.5	38.9726	16,564.5	41.7245	16,564.5	38.4883	16,564.5	41.6548	16,564.5	35.2611	16,564.5	42.9583	16,564.5	39.9075	16,564.5	36.8039	16,564.5	43.604	16,564.5	42.1776	16,564.5	46.3487	16,564.5	28.4202
17,148.9	87.1894	17,148.9	86.3535	17,148.9	86.1441	17,148.9	83.0805	17,148.9	82.9195	17,148.9	76.2679	17,148.9	76.795	17,148.9	66.3268	17,148.9	65.488	17,148.9	38.2052	17,148.9	59.7494	17,148.9	57.5089	17,148.9	57.8111	17,148.9	57.0449	17,148.9	56.2303	17,148.9	53.5898	17,148.9	52.8931	17,148.9	49.7075	17,148.9	44.1402	17,148.9	43.5609	17,148.9	45.1365	17,148.9	38.7268	17,148.9	43.8914	17,148.9	29.6585	17,148.9	36.3713	17,148.9	42.5455	17,148.9	35.0646	17,148.9	40.3436	17,148.9	32.7572	17,148.9	39.2914	17,148.9	35.1631	17,148.9	36.1694	17,148.9	43.3437	17,148.9	40.2713	17,148.9	44.4097	17,148.9	34.7271
17,752.4	87.0981	17,752.4	86.1064	17,752.4	85.8723	17,752.4	82.5074	17,752.4	82.0791	17,752.4	74.9638	17,752.4	75.6473	17,752.4	62.7021	17,752.4	64.2453	17,752.4	53.7555	17,752.4	48.9877	17,752.4	59.4734	17,752.4	53.403	17,752.4	56.3491	17,752.4	51.6364	17,752.4	52.4194	17,752.4	43.9023	17,752.4	48.95	17,752.4	42.7079	17,752.4	40.0036	17,752.4	34.991	17,752.4	39.2788	17,752.4	36.2683	17,752.4	31.9431	17,752.4	31.7009	17,752.4	41.4561	17,752.4	38.1261	17,752.4	38.9186	17,752.4	37.9229	17,752.4	36.3261	17,752.4	34.9068	17,752.4	30.879	17,752.4	39.5962	17,752.4	39.5619	17,752.4	43.2837	17,752.4	31.6836
18,379.4	86.8534	18,379.4	85.7548	18,379.4	85.6361	18,379.4	81.6896	18,379.4	81.3716	18,379.4	72.7697	18,379.4	73.4875	18,379.4	57.2082	18,379.4	58.2728	18,379.4	59.4779	18,379.4	52.6615	18,379.4	60.3391	18,379.4	56.6213	18,379.4	55.1634	18,379.4	51.1882	18,379.4	51.9039	18,379.4	41.3715	18,379.4	49.2039	18,379.4	40.236	18,379.4	39.5474	18,379.4	40.717	18,379.4	36.6313	18,379.4	39.2274	18,379.4	30.6072	18,379.4	32.369	18,379.4	40.9222	18,379.4	36.3951	18,379.4	38.3417	18,379.4	36.2935	18,379.4	39.1149	18,379.4	35.1696	18,379.4	29.506	18,379.4	38.7962	18,379.4	39.8181	18,379.4	43.2708	18,379.4	33.6579
19,026.9	86.666	19,026.9	85.4201	19,026.9	85.1626	19,026.9	80.845	19,026.9	80.2643	19,026.9	70.6933	19,026.9	71.0343	19,026.9	55.1028	19,026.9	48.2776	19,026.9	61.5021	19,026.9	55.4725	19,026.9	60.836	19,026.9	54.4667	19,026.9	54.3609	19,026.9	50.8709	19,026.9	50.8926	19,026.9	47.1292	19,026.9	48.7164	19,026.9	35.8087	19,026.9	38.8446	19,026.9	45.7902	19,026.9	38.5299	19,026.9	40.8351	19,026.9	33.069	19,026.9	31.679	19,026.9	40.2998	19,026.9	34.3541	19,026.9	38.3064	19,026.9	35.8594	19,026.9	39.2809	19,026.9	32.4139	19,026.9	28.7973	19,026.9	38.9294	19,026.9	36.6813	19,026.9	42.114	19,026.9	35.0676
19,697.8	86.1897	19,697.8	84.9963	19,697.8	84.6184	19,697.8	80.194	19,697.8	79.3214	19,697.8	68.6594	19,697.8	69.0866	19,697.8	58.4278	19,697.8	45.7768	19,697.8	62.9866	19,697.8	55.9021	19,697.8	60.753	19,697.8	52.3743	19,697.8	53.389	19,697.8	50.3509	19,697.8	50.9256	19,697.8	43.4184	19,697.8	48.9237	19,697.8	36.6548	19,697.8	39.3037	19,697.8	46.7195	19,697.8	40.1458	19,697.8	40.0066	19,697.8	33.3064	19,697.8	30.6189	19,697.8	39.5278	19,697.8	20.8305	19,697.8	36.8726	19,697.8	30.5244	19,697.8	39.052	19,697.8	34.0419	19,697.8	31.4311	19,697.8	38.5566	19,697.8	29.7676	19,697.8	40.6573	19,697.8	35.8675
19,999.5	86.0514	19,999.5	84.9626	19,999.5	84.4513	19,999.5	79.9837	19,999.5	79.1675	19,999.5	67.9643	19,999.5	68.409	19,999.5	59.6003	19,999.5	50.4677	19,999.5	64.1129	19,999.5	56.7462	19,999.5	59.7607	19,999.5	53.1051	19,999.5	51.3537	19,999.5	45.4066	19,999.5	49.1236	19,999.5	42.4596	19,999.5	48.2195	19,999.5	43.5043	19,999.5	34.6099	19,999.5	42.0024	19,999.5	47.0296	19,999.5	44.1075	19,999.5	40.6438	19,999.5	48.5452	19,999.5	36.428	19,999.5	47.7578	19,999.5	46.7722	19,999.5	52.0209	19,999.5	47.8905	19,999.5	52.3546	19,999.5	45.8203	19,999.5	45.0613	19,999.5	38.5334	19,999.5	43.5375	19,999.5	41.0759
