"SPL Horizontal"
"On-Axis"		"10°"		"-10°"		"20°"		"-20°"		"30°"		"-30°"		"40°"		"-40°"		"50°"		"-50°"		"60°"		"-60°"		"70°"		"-70°"		"80°"		"-80°"		"90°"		"-90°"		"100°"		"-100°"		"110°"		"-110°"		"120°"		"-120°"		"130°"		"-130°"		"140°"		"-140°"		"150°"		"-150°"		"160°"		"-160°"		"170°"		"-170°"		"180°"
"Frequency [Hz]"	"Sound Pessure Level [dB]  / [2.83V 1m] "	"Frequency [Hz]"	"Sound Pessure Level [dB]  / [2.83V 1m] "	"Frequency [Hz]"	"Sound Pessure Level [dB]  / [2.83V 1m] "	"Frequency [Hz]"	"Sound Pessure Level [dB]  / [2.83V 1m] "	"Frequency [Hz]"	"Sound Pessure Level [dB]  / [2.83V 1m] "	"Frequency [Hz]"	"Sound Pessure Level [dB]  / [2.83V 1m] "	"Frequency [Hz]"	"Sound Pessure Level [dB]  / [2.83V 1m] "	"Frequency [Hz]"	"Sound Pessure Level [dB]  / [2.83V 1m] "	"Frequency [Hz]"	"Sound Pessure Level [dB]  / [2.83V 1m] "	"Frequency [Hz]"	"Sound Pessure Level [dB]  / [2.83V 1m] "	"Frequency [Hz]"	"Sound Pessure Level [dB]  / [2.83V 1m] "	"Frequency [Hz]"	"Sound Pessure Level [dB]  / [2.83V 1m] "	"Frequency [Hz]"	"Sound Pessure Level [dB]  / [2.83V 1m] "	"Frequency [Hz]"	"Sound Pessure Level [dB]  / [2.83V 1m] "	"Frequency [Hz]"	"Sound Pessure Level [dB]  / [2.83V 1m] "	"Frequency [Hz]"	"Sound Pessure Level [dB]  / [2.83V 1m] "	"Frequency [Hz]"	"Sound Pessure Level [dB]  / [2.83V 1m] "	"Frequency [Hz]"	"Sound Pessure Level [dB]  / [2.83V 1m] "	"Frequency [Hz]"	"Sound Pessure Level [dB]  / [2.83V 1m] "	"Frequency [Hz]"	"Sound Pessure Level [dB]  / [2.83V 1m] "	"Frequency [Hz]"	"Sound Pessure Level [dB]  / [2.83V 1m] "	"Frequency [Hz]"	"Sound Pessure Level [dB]  / [2.83V 1m] "	"Frequency [Hz]"	"Sound Pessure Level [dB]  / [2.83V 1m] "	"Frequency [Hz]"	"Sound Pessure Level [dB]  / [2.83V 1m] "	"Frequency [Hz]"	"Sound Pessure Level [dB]  / [2.83V 1m] "	"Frequency [Hz]"	"Sound Pessure Level [dB]  / [2.83V 1m] "	"Frequency [Hz]"	"Sound Pessure Level [dB]  / [2.83V 1m] "	"Frequency [Hz]"	"Sound Pessure Level [dB]  / [2.83V 1m] "	"Frequency [Hz]"	"Sound Pessure Level [dB]  / [2.83V 1m] "	"Frequency [Hz]"	"Sound Pessure Level [dB]  / [2.83V 1m] "	"Frequency [Hz]"	"Sound Pessure Level [dB]  / [2.83V 1m] "	"Frequency [Hz]"	"Sound Pessure Level [dB]  / [2.83V 1m] "	"Frequency [Hz]"	"Sound Pessure Level [dB]  / [2.83V 1m] "	"Frequency [Hz]"	"Sound Pessure Level [dB]  / [2.83V 1m] "	"Frequency [Hz]"	"Sound Pessure Level [dB]  / [2.83V 1m] "	"Frequency [Hz]"	"Sound Pessure Level [dB]  / [2.83V 1m] "
20.5078	43.4286	20.5078	43.0647	20.5078	43.0984	20.5078	41.9226	20.5078	42.0112	20.5078	39.7356	20.5078	39.8972	20.5078	36.106	20.5078	36.031	20.5078	34.041	20.5078	30.3995	20.5078	39.0724	20.5078	35.8497	20.5078	43.7957	20.5078	41.8232	20.5078	47.2429	20.5078	45.7992	20.5078	49.8713	20.5078	48.72	20.5078	51.9523	20.5078	50.9972	20.5078	53.6336	20.5078	52.8277	20.5078	54.9998	20.5078	54.3184	20.5078	56.1013	20.5078	55.5319	20.5078	56.9678	20.5078	56.5064	20.5078	57.6166	20.5078	57.2645	20.5078	58.0573	20.5078	57.8186	20.5078	58.2953	20.5078	58.1745	20.5078	58.3337
21.9727	46.4626	21.9727	46.267	21.9727	46.3799	21.9727	45.7988	21.9727	46.0716	21.9727	45.1599	21.9727	45.6732	21.9727	44.6653	21.9727	45.4557	21.9727	44.8897	21.9727	45.7868	21.9727	46.1771	21.9727	46.8502	21.9727	48.1521	21.9727	48.4448	21.9727	50.2624	21.9727	50.2283	21.9727	52.2241	21.9727	51.9705	21.9727	53.9517	21.9727	53.569	21.9727	55.4361	21.9727	54.9896	21.9727	56.6885	21.9727	56.2257	21.9727	57.7224	21.9727	57.2794	21.9727	58.5475	21.9727	58.1539	21.9727	59.1703	21.9727	58.8508	21.9727	59.5946	21.9727	59.3695	21.9727	59.8234	21.9727	59.707	21.9727	59.8597
23.4375	52.295	23.4375	52.0533	23.4375	52.3227	23.4375	51.5879	23.4375	52.147	23.4375	50.8969	23.4375	51.7823	23.4375	50.0128	23.4375	51.2571	23.4375	49.0715	23.4375	50.6392	23.4375	48.4289	23.4375	50.0766	23.4375	48.6091	23.4375	49.8248	23.4375	49.7673	23.4375	50.1489	23.4375	51.4641	23.4375	51.0898	23.4375	53.2265	23.4375	52.4163	23.4375	54.8262	23.4375	53.8491	23.4375	56.1917	23.4375	55.2096	23.4375	57.3121	23.4375	56.4144	23.4375	58.1936	23.4375	57.4313	23.4375	58.8451	23.4375	58.2499	23.4375	59.2744	23.4375	58.8668	23.4375	59.4872	23.4375	59.2802	23.4375	59.488
24.9023	51.2849	24.9023	51.0054	24.9023	51.279	24.9023	50.4352	24.9023	50.9962	24.9023	49.5919	24.9023	50.4509	24.9023	48.5872	24.9023	49.69	24.9023	47.7943	24.9023	48.8614	24.9023	47.9103	24.9023	48.3289	24.9023	49.2572	24.9023	48.6182	24.9023	51.2733	24.9023	49.8841	24.9023	53.3423	24.9023	51.6924	24.9023	55.2053	24.9023	53.5753	24.9023	56.8016	24.9023	55.3072	24.9023	58.1339	24.9023	56.8182	24.9023	59.2177	24.9023	58.0988	24.9023	60.0672	24.9023	59.1559	24.9023	60.6928	24.9023	59.9984	24.9023	61.1011	24.9023	60.6323	24.9023	61.2964	24.9023	61.0601	24.9023	61.282
26.3672	53.6024	26.3672	53.4343	26.3672	53.5737	26.3672	53.0897	26.3672	53.3479	26.3672	52.6258	26.3672	52.9434	26.3672	52.1715	26.3672	52.4137	26.3672	51.9562	26.3672	51.8837	26.3672	52.2461	26.3672	51.5885	26.3672	53.1378	26.3672	51.8215	26.3672	54.4579	26.3672	52.7078	26.3672	55.9387	26.3672	54.0674	26.3672	57.3873	26.3672	55.6049	26.3672	58.7056	26.3672	57.1096	26.3672	59.8524	26.3672	58.4773	26.3672	60.8124	26.3672	59.667	26.3672	61.5802	26.3672	60.6649	26.3672	62.1538	26.3672	61.4675	26.3672	62.5317	26.3672	62.074	26.3672	62.7131	26.3672	62.4841	26.3672	62.6973
27.832	56.7416	27.832	56.6725	27.832	56.6644	27.832	56.4693	27.832	56.4423	27.832	56.1642	27.832	56.0912	27.832	55.8235	27.832	55.6517	27.832	55.5636	27.832	55.2068	27.832	55.5446	27.832	54.8994	27.832	55.9055	27.832	54.914	27.832	56.666	27.832	55.3813	27.832	57.7088	27.832	56.2721	27.832	58.868	27.832	57.4226	27.832	60.0096	27.832	58.6533	27.832	61.0512	27.832	59.8388	27.832	61.9481	27.832	60.9093	27.832	62.6774	27.832	61.8294	27.832	63.2272	27.832	62.5814	27.832	63.5912	27.832	63.1558	27.832	63.7662	27.832	63.5471	27.832	63.7513
29.2969	57.9161	29.2969	57.8385	29.2969	57.8929	29.2969	57.6746	29.2969	57.7728	29.2969	57.4626	29.2969	57.5783	29.2969	57.2728	29.2969	57.356	29.2969	57.2101	29.2969	57.1826	29.2969	57.3919	29.2969	57.1618	29.2969	57.8926	29.2969	57.3965	29.2969	58.6931	29.2969	57.9369	29.2969	59.6927	29.2969	58.7472	29.2969	60.7684	29.2969	59.7285	29.2969	61.8198	29.2969	60.7709	29.2969	62.7806	29.2969	61.7876	29.2969	63.611	29.2969	62.7211	29.2969	64.2882	29.2969	63.5363	29.2969	64.7992	29.2969	64.2119	29.2969	65.1369	29.2969	64.734	29.2969	65.2982	29.2969	65.0933	29.2969	65.2829
30.7617	60.0735	30.7617	59.9876	30.7617	60.0591	30.7617	59.813	30.7617	59.9464	30.7617	59.5793	30.7617	59.7507	30.7617	59.3418	30.7617	59.5041	30.7617	59.1865	30.7617	59.2616	30.7617	59.2194	30.7617	59.1052	30.7617	59.5282	30.7617	59.1343	30.7617	60.1317	30.7617	59.4308	30.7617	60.9651	30.7617	60.0135	30.7617	61.9195	30.7617	60.8242	30.7617	62.8905	30.7617	61.7612	30.7617	63.8009	30.7617	62.7245	30.7617	64.601	30.7617	63.6381	30.7617	65.2605	30.7617	64.4517	30.7617	65.7614	30.7617	65.134	30.7617	66.093	30.7617	65.6653	30.7617	66.2496	30.7617	66.0329	30.7617	66.2291
32.2266	61.2342	32.2266	61.1889	32.2266	61.1928	32.2266	61.0685	32.2266	61.066	32.2266	60.9011	32.2266	60.8692	32.2266	60.7356	32.2266	60.6349	32.2266	60.6438	32.2266	60.4183	32.2266	60.711	32.2266	60.2987	32.2266	61.0077	32.2266	60.3666	32.2266	61.5536	32.2266	60.69	32.2266	62.3039	32.2266	61.2761	32.2266	63.1725	32.2266	62.0653	32.2266	64.0688	32.2266	62.9635	32.2266	64.9195	32.2266	63.8803	32.2266	65.6738	32.2266	64.7477	32.2266	66.2989	32.2266	65.52	32.2266	66.7746	32.2266	66.1685	32.2266	67.0892	32.2266	66.6746	32.2266	67.2366	32.2266	67.0261	32.2266	67.2151
33.6914	62.6392	33.6914	62.6012	33.6914	62.6153	33.6914	62.5135	33.6914	62.5302	33.6914	62.4028	33.6914	62.3971	33.6914	62.3127	33.6914	62.2444	33.6914	62.3023	33.6914	62.1171	33.6914	62.4355	33.6914	62.0757	33.6914	62.7599	33.6914	62.1855	33.6914	63.2834	33.6914	62.4945	33.6914	63.9688	33.6914	63.0107	33.6914	64.7495	33.6914	63.6961	33.6914	65.5536	33.6914	64.4839	33.6914	66.3204	33.6914	65.3024	33.6914	67.0044	33.6914	66.0907	33.6914	67.5744	33.6914	66.8036	33.6914	68.0097	33.6914	67.4094	33.6914	68.2973	33.6914	67.8867	33.6914	68.4296	33.6914	68.2213	33.6914	68.4039
35.1562	63.9994	35.1562	63.974	35.1562	63.9794	35.1562	63.9142	35.1562	63.9155	35.1562	63.8438	35.1562	63.8214	35.1562	63.8003	35.1562	63.7242	35.1562	63.8325	35.1562	63.6642	35.1562	63.9906	35.1562	63.6914	35.1562	64.3109	35.1562	63.8547	35.1562	64.7993	35.1562	64.1856	35.1562	65.427	35.1562	64.6846	35.1562	66.1405	35.1562	65.319	35.1562	66.8799	35.1562	66.0359	35.1562	67.5911	35.1562	66.7774	35.1562	68.232	35.1562	67.4926	35.1562	68.7717	35.1562	68.1414	35.1562	69.1889	35.1562	68.6939	35.1562	69.4693	35.1562	69.1289	35.1562	69.6048	35.1562	69.4314	35.1562	69.5918
36.6211	65.6019	36.6211	65.5835	36.6211	65.5873	36.6211	65.5411	36.6211	65.5415	36.6211	65.4938	36.6211	65.4759	36.6211	65.472	36.6211	65.4126	36.6211	65.5145	36.6211	65.3835	36.6211	65.6621	36.6211	65.4268	36.6211	65.9455	36.6211	65.5803	36.6211	66.3728	36.6211	65.8694	36.6211	66.9242	36.6211	66.2982	36.6211	67.5583	36.6211	66.8455	36.6211	68.2241	36.6211	67.4721	36.6211	68.8728	36.6211	68.1308	36.6211	69.4635	36.6211	68.7762	36.6211	69.9648	36.6211	69.3699	36.6211	70.3541	36.6211	69.8815	36.6211	70.616	36.6211	70.2884	36.6211	70.7416	36.6211	70.5739	36.6211	70.7271
38.0859	66.7403	38.0859	66.7233	38.0859	66.7319	38.0859	66.6897	38.0859	66.6987	38.0859	66.6574	38.0859	66.6503	38.0859	66.6536	38.0859	66.6053	38.0859	66.7123	38.0859	66.591	38.0859	66.8676	38.0859	66.64	38.0859	67.1448	38.0859	66.785	38.0859	67.5497	38.0859	67.049	38.0859	68.0655	38.0859	67.4377	38.0859	68.6564	38.0859	67.9358	38.0859	69.2775	38.0859	68.511	38.0859	69.8843	38.0859	69.122	38.0859	70.4381	38.0859	69.7274	38.0859	70.9085	38.0859	70.29	38.0859	71.2728	38.0859	70.7797	38.0859	71.5157	38.0859	71.173	38.0859	71.6281	38.0859	71.4525	38.0859	71.6064
39.5508	68.1565	39.5508	68.1527	39.5508	68.1404	39.5508	68.1354	39.5508	68.1055	39.5508	68.1195	39.5508	68.061	39.5508	68.1271	39.5508	68.0231	39.5508	68.1864	39.5508	68.0148	39.5508	68.3263	39.5508	68.0632	39.5508	68.5689	39.5508	68.1946	39.5508	68.922	39.5508	68.4289	39.5508	69.3746	39.5508	68.7722	39.5508	69.8988	39.5508	69.2143	39.5508	70.4567	39.5508	69.7298	39.5508	71.008	39.5508	70.2839	39.5508	71.5163	39.5508	70.8392	39.5508	71.9514	39.5508	71.3606	39.5508	72.2902	39.5508	71.8181	39.5508	72.5165	39.5508	72.1879	39.5508	72.6207	39.5508	72.4522	39.5508	72.5987
41.0156	69.3878	41.0156	69.3879	41.0156	69.3797	41.0156	69.386	41.0156	69.3639	41.0156	69.3951	41.0156	69.3476	41.0156	69.4337	41.0156	69.3439	41.0156	69.5242	41.0156	69.3711	41.0156	69.6887	41.0156	69.4504	41.0156	69.9427	41.0156	69.6019	41.0156	70.2901	41.0156	69.8405	41.0156	70.72	41.0156	70.1699	41.0156	71.2082	41.0156	70.5813	41.0156	71.7225	41.0156	71.0537	41.0156	72.2282	41.0156	71.5584	41.0156	72.6932	41.0156	72.0637	41.0156	73.0907	41.0156	72.5391	41.0156	73.3997	41.0156	72.9578	41.0156	73.6057	41.0156	73.2975	41.0156	73.6996	41.0156	73.5414	41.0156	73.6777
42.4805	70.7738	42.4805	70.7771	42.4805	70.7635	42.4805	70.7786	42.4805	70.7462	42.4805	70.7898	42.4805	70.7278	42.4805	70.8265	42.4805	70.7196	42.4805	70.908	42.4805	70.7375	42.4805	71.0534	42.4805	70.8001	42.4805	71.277	42.4805	70.9262	42.4805	71.5835	42.4805	71.13	42.4805	71.9652	42.4805	71.4171	42.4805	72.4027	42.4805	71.7819	42.4805	72.8684	42.4805	72.2074	42.4805	73.331	42.4805	72.6687	42.4805	73.7603	42.4805	73.1366	42.4805	74.1299	42.4805	73.5818	42.4805	74.4184	42.4805	73.9779	42.4805	74.6103	42.4805	74.3023	42.4805	74.6959	42.4805	74.5375	42.4805	74.6711
43.9453	71.8133	43.9453	71.8214	43.9453	71.8054	43.9453	71.8343	43.9453	71.7977	43.9453	71.8612	43.9453	71.7953	43.9453	71.9154	43.9453	71.8074	43.9453	72.0124	43.9453	71.8471	43.9453	72.1674	43.9453	71.9294	43.9453	72.3916	43.9453	72.0691	43.9453	72.6885	43.9453	72.277	43.9453	73.0515	43.9453	72.557	43.9453	73.4641	43.9453	72.9041	43.9453	73.9021	43.9453	73.3038	43.9453	74.3377	43.9453	73.7347	43.9453	74.7432	43.9453	74.1714	43.9453	75.0935	43.9453	74.5876	43.9453	75.3679	43.9453	74.9588	43.9453	75.551	43.9453	75.2637	43.9453	75.6332	43.9453	75.4851	43.9453	75.6107
45.4102	72.9719	45.4102	72.9817	45.4102	72.9641	45.4102	72.9976	45.4102	72.9583	45.4102	73.0278	45.4102	72.9587	45.4102	73.0838	45.4102	72.9732	45.4102	73.1786	45.4102	73.0129	45.4102	73.3253	45.4102	73.0908	45.4102	73.5333	45.4102	73.2197	45.4102	73.8059	45.4102	73.409	45.4102	74.1376	45.4102	73.6627	45.4102	74.5145	45.4102	73.9772	45.4102	74.9156	45.4102	74.3409	45.4102	75.316	45.4102	74.7353	45.4102	75.6902	45.4102	75.1379	45.4102	76.0143	45.4102	75.5245	45.4102	76.2686	45.4102	75.8717	45.4102	76.438	45.4102	76.1588	45.4102	76.5128	45.4102	76.3687	45.4102	76.4891
46.875	74.0507	46.875	74.0703	46.875	74.0351	46.875	74.097	46.875	74.0239	46.875	74.1373	46.875	74.0212	46.875	74.2006	46.875	74.034	46.875	74.2978	46.875	74.0723	46.875	74.4396	46.875	74.1471	46.875	74.6344	46.875	74.2695	46.875	74.8853	46.875	74.4477	46.875	75.1886	46.875	74.6853	46.875	75.5327	46.875	74.979	46.875	75.8997	46.875	75.3187	46.875	76.2672	46.875	75.6878	46.875	76.6119	46.875	76.0657	46.875	76.9115	46.875	76.4297	46.875	77.1468	46.875	76.7578	46.875	77.3032	46.875	77.0301	46.875	77.3709	46.875	77.2302	46.875	77.3461
48.3398	74.8899	48.3398	74.9061	48.3398	74.8804	48.3398	74.9321	48.3398	74.8779	48.3398	74.9737	48.3398	74.8856	48.3398	75.0395	48.3398	74.9098	48.3398	75.1392	48.3398	74.9588	48.3398	75.2825	48.3398	75.0423	48.3398	75.4764	48.3398	75.1695	48.3398	75.7231	48.3398	75.3477	48.3398	76.0186	48.3398	75.5794	48.3398	76.3516	48.3398	75.8618	48.3398	76.7051	48.3398	76.1854	48.3398	77.0585	48.3398	76.5356	48.3398	77.3897	48.3398	76.8932	48.3398	77.6779	48.3398	77.2375	48.3398	77.9047	48.3398	77.5477	48.3398	78.0563	48.3398	77.805	48.3398	78.1233	48.3398	77.9936	48.3398	78.1019
51.2695	76.7235	51.2695	76.748	51.2695	76.7107	51.2695	76.786	51.2695	76.71	51.2695	76.8412	51.2695	76.7234	51.2695	76.9186	51.2695	76.7549	51.2695	77.0243	51.2695	76.8099	51.2695	77.1638	51.2695	76.8945	51.2695	77.3413	51.2695	77.0145	51.2695	77.5577	51.2695	77.1743	51.2695	77.8098	51.2695	77.3757	51.2695	78.0895	51.2695	77.6165	51.2695	78.3844	51.2695	77.8902	51.2695	78.6787	51.2695	78.186	51.2695	78.9549	51.2695	78.4893	51.2695	79.1955	51.2695	78.7834	51.2695	79.3848	51.2695	79.0508	51.2695	79.51	51.2695	79.2748	51.2695	79.5627	51.2695	79.4412	51.2695	79.5393
52.7344	77.5863	52.7344	77.6134	52.7344	77.5728	52.7344	77.6554	52.7344	77.5731	52.7344	77.7152	52.7344	77.5888	52.7344	77.7965	52.7344	77.623	52.7344	77.9039	52.7344	77.68	52.7344	78.0413	52.7344	77.7645	52.7344	78.2116	52.7344	77.8812	52.7344	78.4153	52.7344	78.0337	52.7344	78.6493	52.7344	78.2231	52.7344	78.9069	52.7344	78.4476	52.7344	79.1772	52.7344	78.7014	52.7344	79.4464	52.7344	78.9751	52.7344	79.6992	52.7344	79.2557	52.7344	79.9194	52.7344	79.5281	52.7344	80.0927	52.7344	79.7761	52.7344	80.2072	52.7344	79.9845	52.7344	80.2547	52.7344	80.1397	52.7344	80.2318
54.1992	78.354	54.1992	78.383	54.1992	78.3383	54.1992	78.4264	54.1992	78.3363	54.1992	78.4863	54.1992	78.3497	54.1992	78.5657	54.1992	78.3812	54.1992	78.6683	54.1992	78.4345	54.1992	78.7975	54.1992	78.5135	54.1992	78.9558	54.1992	78.6223	54.1992	79.1437	54.1992	78.7636	54.1992	79.3588	54.1992	78.9387	54.1992	79.5953	54.1992	79.1458	54.1992	79.8437	54.1992	79.3801	54.1992	80.0918	54.1992	79.6332	54.1992	80.3251	54.1992	79.8939	54.1992	80.5289	54.1992	80.1481	54.1992	80.6892	54.1992	80.381	54.1992	80.7946	54.1992	80.5777	54.1992	80.8373	54.1992	80.7253	54.1992	80.8138
55.6641	78.9899	55.6641	79.0185	55.6641	78.9752	55.6641	79.0619	55.6641	78.9749	55.6641	79.1216	55.6641	78.9904	55.6641	79.1999	55.6641	79.0237	55.6641	79.2998	55.6641	79.0778	55.6641	79.4238	55.6641	79.1559	55.6641	79.5739	55.6641	79.261	55.6641	79.7503	55.6641	79.3955	55.6641	79.9507	55.6641	79.5599	55.6641	80.17	55.6641	79.753	55.6641	80.4	55.6641	79.9703	55.6641	80.6295	55.6641	80.2047	55.6641	80.8457	55.6641	80.4458	55.6641	81.0348	55.6641	80.6813	55.6641	81.1839	55.6641	80.8973	55.6641	81.2821	55.6641	81.0802	55.6641	81.3219	55.6641	81.2176	55.6641	81.3
58.5938	80.0506	58.5938	80.078	58.5938	80.0395	58.5938	80.1218	58.5938	80.0447	58.5938	80.1831	58.5938	80.067	58.5938	80.263	58.5938	80.1075	58.5938	80.3627	58.5938	80.1678	58.5938	80.4835	58.5938	80.2498	58.5938	80.6258	58.5938	80.355	58.5938	80.7889	58.5938	80.4845	58.5938	80.9707	58.5938	80.6382	58.5938	81.1666	58.5938	80.8143	58.5938	81.37	58.5938	81.0091	58.5938	81.5718	58.5938	81.2163	58.5938	81.7615	58.5938	81.4276	58.5938	81.9274	58.5938	81.6326	58.5938	82.0586	58.5938	81.8197	58.5938	82.1458	58.5938	81.9775	58.5938	82.1823	58.5938	82.0953	58.5938	82.1652
60.0586	80.5167	60.0586	80.5439	60.0586	80.5069	60.0586	80.5886	60.0586	80.5146	60.0586	80.6512	60.0586	80.5401	60.0586	80.7322	60.0586	80.5841	60.0586	80.8322	60.0586	80.6476	60.0586	80.9516	60.0586	80.7314	60.0586	81.0902	60.0586	80.8363	60.0586	81.2469	60.0586	80.9626	60.0586	81.4192	60.0586	81.1097	60.0586	81.6031	60.0586	81.2758	60.0586	81.7924	60.0586	81.4575	60.0586	81.9791	60.0586	81.6492	60.0586	82.1538	60.0586	81.8439	60.0586	82.3063	60.0586	82.0323	60.0586	82.4266	60.0586	82.2043	60.0586	82.5063	60.0586	82.3495	60.0586	82.5393	60.0586	82.4582	60.0586	82.523
62.9883	81.4201	62.9883	81.4492	62.9883	81.409	62.9883	81.496	62.9883	81.416	62.9883	81.5601	62.9883	81.4412	62.9883	81.6409	62.9883	81.4846	62.9883	81.7376	62.9883	81.5459	62.9883	81.8494	62.9883	81.625	62.9883	81.9753	62.9883	81.7215	62.9883	82.1135	62.9883	81.8348	62.9883	82.2618	62.9883	81.9638	62.9883	82.4168	62.9883	82.1069	62.9883	82.574	62.9883	82.2612	62.9883	82.7274	62.9883	82.4226	62.9883	82.8698	62.9883	82.5858	62.9883	82.9932	62.9883	82.7436	62.9883	83.0898	62.9883	82.8881	62.9883	83.1527	62.9883	83.0108	62.9883	83.177	62.9883	83.1036	62.9883	83.1603
64.4531	81.7993	64.4531	81.8286	64.4531	81.7877	64.4531	81.8752	64.4531	81.7942	64.4531	81.9384	64.4531	81.8186	64.4531	82.0172	64.4531	81.8607	64.4531	82.1107	64.4531	81.9201	64.4531	82.2175	64.4531	81.9963	64.4531	82.3364	64.4531	82.0887	64.4531	82.4656	64.4531	82.1962	64.4531	82.6028	64.4531	82.3176	64.4531	82.7451	64.4531	82.4512	64.4531	82.8884	64.4531	82.5942	64.4531	83.0276	64.4531	82.7429	64.4531	83.1563	64.4531	82.8925	64.4531	83.2677	64.4531	83.0368	64.4531	83.3547	64.4531	83.1687	64.4531	83.4111	64.4531	83.2805	64.4531	83.4326	64.4531	83.3652	64.4531	83.4171
67.3828	82.33	67.3828	82.3544	67.3828	82.3233	67.3828	82.396	67.3828	82.3344	67.3828	82.4538	67.3828	82.3629	67.3828	82.5263	67.3828	82.4078	67.3828	82.6119	67.3828	82.4679	67.3828	82.7087	67.3828	82.5419	67.3828	82.8149	67.3828	82.628	67.3828	82.9282	67.3828	82.7248	67.3828	83.0463	67.3828	82.8306	67.3828	83.1667	67.3828	82.9436	67.3828	83.2861	67.3828	83.0618	67.3828	83.4007	67.3828	83.1828	67.3828	83.5059	67.3828	83.3031	67.3828	83.5965	67.3828	83.4185	67.3828	83.6674	67.3828	83.5236	67.3828	83.7137	67.3828	83.6126	67.3828	83.732	67.3828	83.6798	67.3828	83.7205
68.8477	82.4958	68.8477	82.5208	68.8477	82.4891	68.8477	82.5634	68.8477	82.5007	68.8477	82.6222	68.8477	82.5301	68.8477	82.6957	68.8477	82.5763	68.8477	82.7818	68.8477	82.6379	68.8477	82.8784	68.8477	82.7133	68.8477	82.9832	68.8477	82.8005	68.8477	83.0937	68.8477	82.8978	68.8477	83.2078	68.8477	83.0033	68.8477	83.3229	68.8477	83.115	68.8477	83.4362	68.8477	83.2309	68.8477	83.5444	68.8477	83.3483	68.8477	83.6436	68.8477	83.464	68.8477	83.7294	68.8477	83.5738	68.8477	83.7971	68.8477	83.6728	68.8477	83.8422	68.8477	83.7554	68.8477	83.8614	68.8477	83.8168	68.8477	83.8529
71.7773	82.9297	71.7773	82.9568	71.7773	82.9215	71.7773	83.0019	71.7773	82.9326	71.7773	83.0633	71.7773	82.9624	71.7773	83.1387	71.7773	83.0096	71.7773	83.2253	71.7773	83.0724	71.7773	83.3202	71.7773	83.1486	71.7773	83.4207	71.7773	83.2356	71.7773	83.524	71.7773	83.331	71.7773	83.6276	71.7773	83.4322	71.7773	83.7294	71.7773	83.5368	71.7773	83.8272	71.7773	83.6424	71.7773	83.9184	71.7773	83.7466	71.7773	84.0004	71.7773	83.8466	71.7773	84.0701	71.7773	83.9393	71.7773	84.1242	71.7773	84.0212	71.7773	84.1599	71.7773	84.0887	71.7773	84.1747	71.7773	84.1383	71.7773	84.1675
74.707	83.37	74.707	83.3973	74.707	83.3621	74.707	83.4427	74.707	83.3734	74.707	83.5043	74.707	83.4034	74.707	83.5796	74.707	83.4503	74.707	83.6653	74.707	83.5119	74.707	83.7579	74.707	83.5854	74.707	83.8541	74.707	83.6676	74.707	83.9505	74.707	83.7555	74.707	84.0443	74.707	83.8461	74.707	84.1329	74.707	83.9368	74.707	84.2143	74.707	84.0256	74.707	84.2868	74.707	84.1105	74.707	84.3485	74.707	84.1899	74.707	84.398	74.707	84.2624	74.707	84.4338	74.707	84.3262	74.707	84.4544	74.707	84.3797	74.707	84.4591	74.707	84.4208	74.707	84.4477
77.6367	83.6434	77.6367	83.6688	77.6367	83.6361	77.6367	83.7114	77.6367	83.6471	77.6367	83.7689	77.6367	83.6752	77.6367	83.8385	77.6367	83.7186	77.6367	83.9166	77.6367	83.7746	77.6367	83.9992	77.6367	83.84	77.6367	84.0826	77.6367	83.9112	77.6367	84.1632	77.6367	83.985	77.6367	84.2379	77.6367	84.0582	77.6367	84.3047	77.6367	84.1285	77.6367	84.3622	77.6367	84.194	77.6367	84.4096	77.6367	84.2538	77.6367	84.4467	77.6367	84.3076	77.6367	84.4736	77.6367	84.3551	77.6367	84.4903	77.6367	84.3967	77.6367	84.4971	77.6367	84.432	77.6367	84.494	77.6367	84.4606	77.6367	84.4816
79.1016	83.719	79.1016	83.744	79.1016	83.7112	79.1016	83.785	79.1016	83.7207	79.1016	83.8397	79.1016	83.7465	79.1016	83.9049	79.1016	83.7866	79.1016	83.977	79.1016	83.8382	79.1016	84.052	79.1016	83.8979	79.1016	84.1259	79.1016	83.9623	79.1016	84.1952	79.1016	84.0277	79.1016	84.2574	79.1016	84.0913	79.1016	84.3106	79.1016	84.1505	79.1016	84.3541	79.1016	84.2039	79.1016	84.3878	79.1016	84.251	79.1016	84.4122	79.1016	84.2917	79.1016	84.4282	79.1016	84.3269	79.1016	84.4365	79.1016	84.3571	79.1016	84.4376	79.1016	84.3829	79.1016	84.4323	79.1016	84.4043	79.1016	84.421
82.0312	83.9366	82.0312	83.9646	82.0312	83.9243	82.0312	84.0065	82.0312	83.928	82.0312	84.06	82.0312	83.9472	82.0312	84.1216	82.0312	83.9799	82.0312	84.1876	82.0312	84.0237	82.0312	84.254	82.0312	84.0753	82.0312	84.3171	82.0312	84.131	82.0312	84.3737	82.0312	84.1875	82.0312	84.4215	82.0312	84.2417	82.0312	84.4592	82.0312	84.2912	82.0312	84.4867	82.0312	84.3347	82.0312	84.5048	82.0312	84.3716	82.0312	84.5151	82.0312	84.4025	82.0312	84.5191	82.0312	84.4282	82.0312	84.5184	82.0312	84.4497	82.0312	84.514	82.0312	84.4679	82.0312	84.5064	82.0312	84.4833	82.0312	84.4962
84.9609	83.9418	84.9609	83.9603	84.9609	83.9439	84.9609	83.9984	84.9609	83.9663	84.9609	84.0536	84.9609	84.0072	84.9609	84.1225	84.9609	84.0641	84.9609	84.2008	84.9609	84.1331	84.9609	84.2835	84.9609	84.2102	84.9609	84.3659	84.9609	84.2911	84.9609	84.4438	84.9609	84.3715	84.9609	84.5138	84.9609	84.4478	84.9609	84.574	84.9609	84.5171	84.9609	84.6237	84.9609	84.5775	84.9609	84.6634	84.9609	84.628	84.9609	84.6943	84.9609	84.6688	84.9609	84.7177	84.9609	84.7004	84.9609	84.7348	84.9609	84.7238	84.9609	84.7463	84.9609	84.7401	84.9609	84.7528	84.9609	84.75	84.9609	84.754
87.8906	83.9071	87.8906	83.9136	87.8906	83.9267	87.8906	83.9453	87.8906	83.9711	87.8906	83.9996	87.8906	84.0378	87.8906	84.0725	87.8906	84.1224	87.8906	84.1588	87.8906	84.2197	87.8906	84.2527	87.8906	84.324	87.8906	84.3486	87.8906	84.4293	87.8906	84.4414	87.8906	84.5302	87.8906	84.5269	87.8906	84.6222	87.8906	84.6021	87.8906	84.7014	87.8906	84.6654	87.8906	84.7655	87.8906	84.7164	87.8906	84.8134	87.8906	84.7557	87.8906	84.8453	87.8906	84.785	87.8906	84.863	87.8906	84.8067	87.8906	84.869	87.8906	84.8232	87.8906	84.8666	87.8906	84.8367	87.8906	84.859	87.8906	84.8486
90.8203	84.123	90.8203	84.171	90.8203	84.0946	90.8203	84.2359	90.8203	84.0869	90.8203	84.3137	90.8203	84.0997	90.8203	84.3996	90.8203	84.1311	90.8203	84.4882	90.8203	84.1774	90.8203	84.5738	90.8203	84.234	90.8203	84.6511	90.8203	84.2952	90.8203	84.715	90.8203	84.3552	90.8203	84.7613	90.8203	84.4087	90.8203	84.7872	90.8203	84.4516	90.8203	84.7914	90.8203	84.4814	90.8203	84.7747	90.8203	84.4977	90.8203	84.7404	90.8203	84.5024	90.8203	84.6936	90.8203	84.4992	90.8203	84.641	90.8203	84.4933	90.8203	84.5897	90.8203	84.4906	90.8203	84.5461	90.8203	84.4964	90.8203	84.5144
95.2148	84.6553	95.2148	84.665	95.2148	84.6548	95.2148	84.6839	95.2148	84.6625	95.2148	84.7108	95.2148	84.6769	95.2148	84.7437	95.2148	84.6956	95.2148	84.7794	95.2148	84.7162	95.2148	84.814	95.2148	84.7359	95.2148	84.8434	95.2148	84.752	95.2148	84.8633	95.2148	84.762	95.2148	84.8705	95.2148	84.7639	95.2148	84.8627	95.2148	84.7566	95.2148	84.8394	95.2148	84.7399	95.2148	84.8023	95.2148	84.7149	95.2148	84.7553	95.2148	84.6839	95.2148	84.7038	95.2148	84.6502	95.2148	84.6543	95.2148	84.6179	95.2148	84.6131	95.2148	84.5914	95.2148	84.5849	95.2148	84.575	95.2148	84.5721
98.1445	84.4443	98.1445	84.4545	98.1445	84.4506	98.1445	84.4805	98.1445	84.4736	98.1445	84.5201	98.1445	84.5116	98.1445	84.5702	98.1445	84.5622	98.1445	84.6268	98.1445	84.6215	98.1445	84.6852	98.1445	84.6846	98.1445	84.7404	98.1445	84.7464	98.1445	84.7874	98.1445	84.8015	98.1445	84.8219	98.1445	84.845	98.1445	84.8411	98.1445	84.8737	98.1445	84.8437	98.1445	84.8858	98.1445	84.831	98.1445	84.8815	98.1445	84.8063	98.1445	84.8627	98.1445	84.7754	98.1445	84.8332	98.1445	84.745	98.1445	84.7981	98.1445	84.7219	98.1445	84.763	98.1445	84.7112	98.1445	84.7337	98.1445	84.7154
101.074	84.3983	101.074	84.4368	101.074	84.3809	101.074	84.4945	101.074	84.385	101.074	84.5678	101.074	84.4089	101.074	84.6516	101.074	84.4498	101.074	84.7396	101.074	84.5035	101.074	84.825	101.074	84.5652	101.074	84.9011	101.074	84.6295	101.074	84.9618	101.074	84.6909	101.074	85.0027	101.074	84.7446	101.074	85.0209	101.074	84.7864	101.074	85.0163	101.074	84.8138	101.074	84.9911	101.074	84.8259	101.074	84.9501	101.074	84.8238	101.074	84.9003	101.074	84.8107	101.074	84.8496	101.074	84.7917	101.074	84.8057	101.074	84.7727	101.074	84.7748	101.074	84.7602	101.074	84.7597
105.469	84.449	105.469	84.4886	105.469	84.429	105.469	84.5451	105.469	84.4297	105.469	84.6144	105.469	84.4506	105.469	84.6914	105.469	84.4895	105.469	84.7699	105.469	84.5426	105.469	84.8434	105.469	84.6049	105.469	84.9054	105.469	84.6702	105.469	84.9503	105.469	84.7322	105.469	84.9737	105.469	84.7847	105.469	84.9735	105.469	84.8222	105.469	84.9501	105.469	84.841	105.469	84.9068	105.469	84.8394	105.469	84.8499	105.469	84.8187	105.469	84.7875	105.469	84.7832	105.469	84.7286	105.469	84.7398	105.469	84.6819	105.469	84.6972	105.469	84.654	105.469	84.6642	105.469	84.6483
108.398	84.6313	108.398	84.6735	108.398	84.6003	108.398	84.7243	108.398	84.582	108.398	84.7808	108.398	84.5777	108.398	84.8399	108.398	84.5872	108.398	84.8974	108.398	84.6094	108.398	84.9492	108.398	84.6416	108.398	84.9906	108.398	84.6798	108.398	85.0173	108.398	84.719	108.398	85.0258	108.398	84.7535	108.398	85.0142	108.398	84.7781	108.398	84.9827	108.398	84.7886	108.398	84.9337	108.398	84.783	108.398	84.8723	108.398	84.7621	108.398	84.8053	108.398	84.7298	108.398	84.7408	108.398	84.6926	108.398	84.6865	108.398	84.6588	108.398	84.649	108.398	84.6366	108.398	84.6322
112.793	84.7488	112.793	84.7911	112.793	84.7175	112.793	84.8418	112.793	84.6987	112.793	84.8978	112.793	84.6931	112.793	84.9553	112.793	84.7003	112.793	85.0101	112.793	84.7184	112.793	85.0576	112.793	84.7446	112.793	85.0932	112.793	84.7746	112.793	85.1125	112.793	84.8032	112.793	85.1119	112.793	84.8247	112.793	85.0891	112.793	84.8339	112.793	85.0436	112.793	84.8268	112.793	84.9778	112.793	84.8022	112.793	84.8968	112.793	84.7616	112.793	84.8085	112.793	84.7102	112.793	84.7227	112.793	84.6562	112.793	84.6497	112.793	84.6095	112.793	84.5986	112.793	84.5799	112.793	84.575
117.188	84.8955	117.188	84.9107	117.188	84.8856	117.188	84.9303	117.188	84.8814	117.188	84.9525	117.188	84.8829	117.188	84.9747	117.188	84.8895	117.188	84.9937	117.188	84.9002	117.188	85.0053	117.188	84.9131	117.188	85.0055	117.188	84.9255	117.188	84.9902	117.188	84.9338	117.188	84.9565	117.188	84.9337	117.188	84.9033	117.188	84.9209	117.188	84.8319	117.188	84.8922	117.188	84.7467	117.188	84.8457	117.188	84.6552	117.188	84.7824	117.188	84.5671	117.188	84.7062	117.188	84.4933	117.188	84.6239	117.188	84.4433	117.188	84.5449	117.188	84.4237	117.188	84.4792	117.188	84.4365
120.117	85.1373	120.117	85.14	120.117	85.1328	120.117	85.1412	120.117	85.1257	120.117	85.14	120.117	85.1147	120.117	85.1347	120.117	85.0981	120.117	85.1222	120.117	85.0743	120.117	85.0989	120.117	85.0416	120.117	85.0604	120.117	84.9983	120.117	85.003	120.117	84.9425	120.117	84.9237	120.117	84.8725	120.117	84.8218	120.117	84.787	120.117	84.6991	120.117	84.6861	120.117	84.5609	120.117	84.5716	120.117	84.416	120.117	84.4479	120.117	84.2758	120.117	84.3218	120.117	84.153	120.117	84.2028	120.117	84.0599	120.117	84.1018	120.117	84.0059	120.117	84.0298	120.117	83.996
124.512	85.245	124.512	85.2784	124.512	85.2071	124.512	85.3059	124.512	85.1651	124.512	85.3258	124.512	85.1193	124.512	85.3358	124.512	85.0691	124.512	85.333	124.512	85.0136	124.512	85.314	124.512	84.9513	124.512	85.2752	124.512	84.8803	124.512	85.213	124.512	84.7983	124.512	85.1246	124.512	84.703	124.512	85.0085	124.512	84.5933	124.512	84.8656	124.512	84.4694	124.512	84.6998	124.512	84.3348	124.512	84.5187	124.512	84.1958	124.512	84.3334	124.512	84.0623	124.512	84.1578	124.512	83.9467	124.512	84.007	124.512	83.8625	124.512	83.8949	124.512	83.8215	124.512	83.8316
128.906	84.8826	128.906	84.9275	128.906	84.8461	128.906	84.9775	128.906	84.8195	128.906	85.0287	128.906	84.803	128.906	85.0761	128.906	84.7947	128.906	85.1147	128.906	84.7911	128.906	85.1392	128.906	84.7875	128.906	85.1449	128.906	84.7789	128.906	85.1277	128.906	84.7606	128.906	85.085	128.906	84.729	128.906	85.0163	128.906	84.6824	128.906	84.9234	128.906	84.6211	128.906	84.8108	128.906	84.548	128.906	84.6862	128.906	84.468	128.906	84.5593	128.906	84.3881	128.906	84.4413	128.906	84.3165	128.906	84.3429	128.906	84.2623	128.906	84.2728	128.906	84.2334	128.906	84.2359
133.301	84.6124	133.301	84.6548	133.301	84.5821	133.301	84.7076	133.301	84.5642	133.301	84.7678	133.301	84.5577	133.301	84.8309	133.301	84.5604	133.301	84.8914	133.301	84.569	133.301	84.943	133.301	84.5791	133.301	84.9788	133.301	84.586	133.301	84.9926	133.301	84.585	133.301	84.9792	133.301	84.5722	133.301	84.9358	133.301	84.5449	133.301	84.8626	133.301	84.5025	133.301	84.7635	133.301	84.4464	133.301	84.6462	133.301	84.381	133.301	84.5216	133.301	84.3128	133.301	84.4024	133.301	84.2502	133.301	84.3009	133.301	84.2025	133.301	84.2267	133.301	84.1787	133.301	84.1856
139.16	84.6195	139.16	84.6591	139.16	84.5928	139.16	84.711	139.16	84.578	139.16	84.7724	139.16	84.573	139.16	84.8386	139.16	84.5749	139.16	84.9034	139.16	84.58	139.16	84.9592	139.16	84.5845	139.16	84.9985	139.16	84.5839	139.16	85.0145	139.16	84.574	139.16	85.0018	139.16	84.5506	139.16	84.9573	139.16	84.511	139.16	84.8809	139.16	84.4544	139.16	84.7758	139.16	84.3828	139.16	84.6486	139.16	84.3014	139.16	84.5096	139.16	84.219	139.16	84.3716	139.16	84.1462	139.16	84.2486	139.16	84.0947	139.16	84.1529	139.16	84.075	139.16	84.0937
143.555	84.6707	143.555	84.6871	143.555	84.6681	143.555	84.717	143.555	84.6776	143.555	84.7585	143.555	84.6965	143.555	84.8074	143.555	84.7211	143.555	84.8579	143.555	84.7468	143.555	84.9028	143.555	84.7689	143.555	84.9351	143.555	84.7823	143.555	84.948	143.555	84.7823	143.555	84.9365	143.555	84.7651	143.555	84.8981	143.555	84.728	143.555	84.8326	143.555	84.6706	143.555	84.7431	143.555	84.5949	143.555	84.6361	143.555	84.5062	143.555	84.5209	143.555	84.4129	143.555	84.4091	143.555	84.3256	143.555	84.3131	143.555	84.2563	143.555	84.2444	143.555	84.2156	143.555	84.2108
147.949	84.446	147.949	84.4271	147.949	84.4775	147.949	84.4226	147.949	84.5195	147.949	84.4336	147.949	84.5703	147.949	84.4589	147.949	84.6277	147.949	84.4947	147.949	84.689	147.949	84.5347	147.949	84.7502	147.949	84.571	147.949	84.806	147.949	84.5955	147.949	84.8503	147.949	84.6018	147.949	84.8773	147.949	84.5866	147.949	84.8824	147.949	84.5504	147.949	84.8627	147.949	84.4979	147.949	84.8179	147.949	84.4371	147.949	84.7505	147.949	84.378	147.949	84.666	147.949	84.3312	147.949	84.5725	147.949	84.3058	147.949	84.4801	147.949	84.3079	147.949	84.3995	147.949	84.3399
153.809	84.6201	153.809	84.6328	153.809	84.6055	153.809	84.6442	153.809	84.589	153.809	84.6552	153.809	84.5712	153.809	84.6664	153.809	84.5529	153.809	84.6774	153.809	84.5351	153.809	84.686	153.809	84.5179	153.809	84.6878	153.809	84.5004	153.809	84.6766	153.809	84.4798	153.809	84.6458	153.809	84.452	153.809	84.59	153.809	84.412	153.809	84.507	153.809	84.3554	153.809	84.3991	153.809	84.2802	153.809	84.2737	153.809	84.1884	153.809	84.1422	153.809	84.0868	153.809	84.0188	153.809	83.9866	153.809	83.9176	153.809	83.9012	153.809	83.8507	153.809	83.8442	153.809	83.8258
159.668	84.6934	159.668	84.7178	159.668	84.6652	159.668	84.7361	159.668	84.6355	159.668	84.7465	159.668	84.6068	159.668	84.7482	159.668	84.5804	159.668	84.7404	159.668	84.5565	159.668	84.7225	159.668	84.5339	159.668	84.6928	159.668	84.5101	159.668	84.6492	159.668	84.482	159.668	84.5887	159.668	84.446	159.668	84.5094	159.668	84.3992	159.668	84.411	159.668	84.3396	159.668	84.2969	159.668	84.2667	159.668	84.1742	159.668	84.1823	159.668	84.0536	159.668	84.0906	159.668	83.9475	159.668	83.9986	159.668	83.8682	159.668	83.9157	159.668	83.8244	159.668	83.8529	159.668	83.82
165.527	84.6288	165.527	84.6452	165.527	84.6119	165.527	84.66	165.527	84.5958	165.527	84.6723	165.527	84.582	165.527	84.6806	165.527	84.572	165.527	84.683	165.527	84.5662	165.527	84.6769	165.527	84.5636	165.527	84.6593	165.527	84.5614	165.527	84.6271	165.527	84.5547	165.527	84.5779	165.527	84.5381	165.527	84.5103	165.527	84.5065	165.527	84.425	165.527	84.4572	165.527	84.3255	165.527	84.39	165.527	84.2185	165.527	84.3077	165.527	84.1137	165.527	84.2157	165.527	84.0226	165.527	84.1217	165.527	83.9564	165.527	84.0355	165.527	83.9236	165.527	83.9676	165.527	83.9281
171.387	84.5169	171.387	84.511	171.387	84.5203	171.387	84.5027	171.387	84.5219	171.387	84.4932	171.387	84.5231	171.387	84.4838	171.387	84.5255	171.387	84.4754	171.387	84.5302	171.387	84.468	171.387	84.5367	171.387	84.4598	171.387	84.5421	171.387	84.4479	171.387	84.5417	171.387	84.4283	171.387	84.5295	171.387	84.3972	171.387	84.5	171.387	84.3524	171.387	84.4501	171.387	84.2941	171.387	84.3802	171.387	84.2251	171.387	84.2949	171.387	84.1509	171.387	84.2024	171.387	84.0794	171.387	84.1134	171.387	84.0197	171.387	84.0392	171.387	83.9806	171.387	83.9892	171.387	83.9692
177.246	84.7597	177.246	84.7829	177.246	84.7196	177.246	84.7878	177.246	84.6653	177.246	84.7747	177.246	84.6015	177.246	84.7442	177.246	84.5346	177.246	84.6977	177.246	84.4716	177.246	84.6364	177.246	84.4189	177.246	84.5619	177.246	84.3795	177.246	84.4755	177.246	84.3522	177.246	84.3793	177.246	84.3316	177.246	84.2761	177.246	84.3098	177.246	84.1705	177.246	84.2793	177.246	84.0687	177.246	84.2355	177.246	83.9776	177.246	84.1777	177.246	83.9042	177.246	84.1092	177.246	83.8538	177.246	84.0361	177.246	83.8294	177.246	83.9653	177.246	83.8312	177.246	83.9036	177.246	83.8572
183.105	84.6894	183.105	84.7229	183.105	84.6465	183.105	84.7469	183.105	84.5946	183.105	84.7602	183.105	84.5339	183.105	84.7602	183.105	84.4652	183.105	84.7438	183.105	84.3895	183.105	84.7074	183.105	84.3083	183.105	84.6484	183.105	84.2227	183.105	84.5655	183.105	84.1335	183.105	84.4595	183.105	84.0414	183.105	84.3328	183.105	83.9469	183.105	84.1903	183.105	83.8506	183.105	84.0388	183.105	83.7546	183.105	83.8875	183.105	83.6624	183.105	83.7467	183.105	83.5788	183.105	83.6259	183.105	83.5097	183.105	83.5321	183.105	83.4602	183.105	83.469	183.105	83.4349	183.105	83.437
188.965	84.4405	188.965	84.4713	188.965	84.4035	188.965	84.4967	188.965	84.3603	188.965	84.5176	188.965	84.3118	188.965	84.534	188.965	84.2597	188.965	84.5436	188.965	84.2057	188.965	84.5426	188.965	84.1505	188.965	84.5252	188.965	84.0929	188.965	84.4855	188.965	84.0304	188.965	84.4183	188.965	83.9591	188.965	84.3209	188.965	83.8759	188.965	84.1937	188.965	83.7792	188.965	84.0414	188.965	83.6706	188.965	83.8729	188.965	83.5556	188.965	83.7009	188.965	83.4434	188.965	83.5398	188.965	83.3457	188.965	83.404	188.965	83.2745	188.965	83.3048	188.965	83.2401	188.965	83.2494
196.289	84.6018	196.289	84.6136	196.289	84.5724	196.289	84.6091	196.289	84.5256	196.289	84.5905	196.289	84.4632	196.289	84.5596	196.289	84.3887	196.289	84.5177	196.289	84.3062	196.289	84.4643	196.289	84.2194	196.289	84.3981	196.289	84.13	196.289	84.3177	196.289	84.0376	196.289	84.2221	196.289	83.9399	196.289	84.112	196.289	83.8346	196.289	83.9898	196.289	83.7212	196.289	83.8598	196.289	83.6025	196.289	83.7271	196.289	83.4849	196.289	83.5977	196.289	83.3774	196.289	83.4771	196.289	83.2905	196.289	83.3715	196.289	83.234	196.289	83.2878	196.289	83.2143	196.289	83.2333
203.613	84.6062	203.613	84.6033	203.613	84.5846	203.613	84.5758	203.613	84.5409	203.613	84.5263	203.613	84.4795	203.613	84.4594	203.613	84.405	203.613	84.38	203.613	84.3211	203.613	84.292	203.613	84.2301	203.613	84.1975	203.613	84.133	203.613	84.097	203.613	84.0294	203.613	83.9903	203.613	83.9193	203.613	83.878	203.613	83.804	203.613	83.7617	203.613	83.6865	203.613	83.6453	203.613	83.5713	203.613	83.5334	203.613	83.4638	203.613	83.4313	203.613	83.3692	203.613	83.3437	203.613	83.292	203.613	83.2744	203.613	83.2366	203.613	83.2267	203.613	83.2065	203.613	83.2033
210.938	84.4803	210.938	84.4278	210.938	84.5158	210.938	84.3611	210.938	84.5318	210.938	84.2818	210.938	84.5265	210.938	84.1911	210.938	84.5006	210.938	84.0898	210.938	84.4574	210.938	83.9787	210.938	84.4023	210.938	83.8593	210.938	84.3399	210.938	83.7336	210.938	84.2722	210.938	83.6047	210.938	84.1973	210.938	83.4768	210.938	84.1102	210.938	83.3547	210.938	84.0058	210.938	83.2434	210.938	83.882	210.938	83.1473	210.938	83.7404	210.938	83.0706	210.938	83.5872	210.938	83.0183	210.938	83.4314	210.938	82.9963	210.938	83.2846	210.938	83.0108	210.938	83.159	210.938	83.0655
218.262	84.3077	218.262	84.3118	218.262	84.2885	218.262	84.2982	218.262	84.2572	218.262	84.2656	218.262	84.2157	218.262	84.2141	218.262	84.1648	218.262	84.1454	218.262	84.1046	218.262	84.0616	218.262	84.0359	218.262	83.9647	218.262	83.9613	218.262	83.8571	218.262	83.8846	218.262	83.7416	218.262	83.809	218.262	83.623	218.262	83.7357	218.262	83.5082	218.262	83.6644	218.262	83.4061	218.262	83.595	218.262	83.3252	218.262	83.5285	218.262	83.271	218.262	83.4672	218.262	83.2445	218.262	83.4126	218.262	83.2421	218.262	83.3646	218.262	83.2581	218.262	83.3225	218.262	83.2863
225.586	84.448	225.586	84.4857	225.586	84.3805	225.586	84.4921	225.586	84.2877	225.586	84.4683	225.586	84.1766	225.586	84.4174	225.586	84.0551	225.586	84.3431	225.586	83.9298	225.586	84.2488	225.586	83.8046	225.586	84.1376	225.586	83.6803	225.586	84.0133	225.586	83.5567	225.586	83.8809	225.586	83.4346	225.586	83.7478	225.586	83.318	225.586	83.6229	225.586	83.2138	225.586	83.5145	225.586	83.1312	225.586	83.4282	225.586	83.0786	225.586	83.3645	225.586	83.0604	225.586	83.3189	225.586	83.0743	225.586	83.2831	225.586	83.1114	225.586	83.2478	225.586	83.1593	225.586	83.2068
232.91	84.5551	232.91	84.5611	232.91	84.5096	232.91	84.532	232.91	84.4227	232.91	84.4726	232.91	84.2975	232.91	84.3864	232.91	84.1421	232.91	84.2752	232.91	83.9681	232.91	84.1402	232.91	83.7878	232.91	83.9833	232.91	83.6106	232.91	83.8079	232.91	83.4414	232.91	83.6199	232.91	83.2825	232.91	83.4276	232.91	83.1362	232.91	83.2433	232.91	83.007	232.91	83.0827	232.91	82.9021	232.91	82.9612	232.91	82.8293	232.91	82.8869	232.91	82.7924	232.91	82.8554	232.91	82.7884	232.91	82.851	232.91	82.8065	232.91	82.854	232.91	82.8313	232.91	82.8491
241.699	84.3059	241.699	84.2827	241.699	84.2978	241.699	84.2334	241.699	84.2561	241.699	84.1644	241.699	84.1811	241.699	84.0815	241.699	84.0759	241.699	83.9873	241.699	83.9455	241.699	83.88	241.699	83.7967	241.699	83.7547	241.699	83.6367	241.699	83.606	241.699	83.4723	241.699	83.4314	241.699	83.309	241.699	83.2345	241.699	83.1505	241.699	83.0257	241.699	83.0001	241.699	82.8228	241.699	82.862	241.699	82.6472	241.699	82.7419	241.699	82.518	241.699	82.6459	241.699	82.4447	241.699	82.5767	241.699	82.4224	241.699	82.5298	241.699	82.4349	241.699	82.4948	241.699	82.4631
250.488	84.4325	250.488	84.3965	250.488	84.4181	250.488	84.3151	250.488	84.3505	250.488	84.1955	250.488	84.2293	250.488	84.0472	250.488	84.0585	250.488	83.8821	250.488	83.8472	250.488	83.7119	250.488	83.6106	250.488	83.5452	250.488	83.3676	250.488	83.3843	250.488	83.1372	250.488	83.224	250.488	82.9331	250.488	83.055	250.488	82.7617	250.488	82.87	250.488	82.6223	250.488	82.6725	250.488	82.5099	250.488	82.4799	250.488	82.4188	250.488	82.3184	250.488	82.345	250.488	82.2097	250.488	82.2863	250.488	82.1588	250.488	82.2402	250.488	82.1529	250.488	82.203	250.488	82.1725
259.277	84.3915	259.277	84.3654	259.277	84.3739	259.277	84.2992	259.277	84.3108	259.277	84.1966	259.277	84.2025	259.277	84.0612	259.277	84.053	259.277	83.8972	259.277	83.8702	259.277	83.7104	259.277	83.6653	259.277	83.51	259.277	83.4517	259.277	83.3082	259.277	83.2422	259.277	83.1182	259.277	83.0474	259.277	82.9517	259.277	82.8737	259.277	82.8156	259.277	82.7231	259.277	82.7089	259.277	82.5936	259.277	82.6227	259.277	82.4826	259.277	82.5447	259.277	82.39	259.277	82.4667	259.277	82.319	259.277	82.3899	259.277	82.2745	259.277	82.3232	259.277	82.2604	259.277	82.2775
268.066	84.2928	268.066	84.1956	268.066	84.3415	268.066	84.0612	268.066	84.3337	268.066	83.9019	268.066	84.2654	268.066	83.7287	268.066	84.1366	268.066	83.5503	268.066	83.9512	268.066	83.3744	268.066	83.7168	268.066	83.2094	268.066	83.4456	268.066	83.0644	268.066	83.1538	268.066	82.9441	268.066	82.8599	268.066	82.8456	268.066	82.5823	268.066	82.7597	268.066	82.3358	268.066	82.6778	268.066	82.1306	268.066	82.5966	268.066	81.9741	268.066	82.5158	268.066	81.8743	268.066	82.4311	268.066	81.8396	268.066	82.3338	268.066	81.8725	268.066	82.2172	268.066	81.9627	268.066	82.0869
276.855	84.3078	276.855	84.2748	276.855	84.3121	276.855	84.2113	276.855	84.288	276.855	84.1142	276.855	84.2352	276.855	83.9779	276.855	84.1519	276.855	83.7946	276.855	84.0353	276.855	83.5574	276.855	83.8815	276.855	83.266	276.855	83.6872	276.855	82.9346	276.855	83.4549	276.855	82.5972	276.855	83.1986	276.855	82.3026	276.855	82.9451	276.855	82.0967	276.855	82.7235	276.855	81.9989	276.855	82.5482	276.855	81.9926	276.855	82.4127	276.855	82.0377	276.855	82.3016	276.855	82.0915	276.855	82.2096	276.855	82.125	276.855	82.1451	276.855	82.13	276.855	82.1169	276.855	82.1191
287.109	84.0399	287.109	84.056	287.109	84.0131	287.109	84.05	287.109	83.9799	287.109	84.0092	287.109	83.9351	287.109	83.9256	287.109	83.8658	287.109	83.799	287.109	83.7591	287.109	83.6352	287.109	83.6053	287.109	83.441	287.109	83.3978	287.109	83.2203	287.109	83.1323	287.109	82.9775	287.109	82.8123	287.109	82.7254	287.109	82.4632	287.109	82.4925	287.109	82.1387	287.109	82.32	287.109	81.9048	287.109	82.2414	287.109	81.8029	287.109	82.2555	287.109	81.825	287.109	82.3194	287.109	81.9269	287.109	82.3724	287.109	82.0617	287.109	82.3715	287.109	82.1965	287.109	82.3075
297.363	84.6122	297.363	84.6489	297.363	84.4932	297.363	84.6038	297.363	84.3069	297.363	84.4892	297.363	84.0784	297.363	84.3189	297.363	83.8312	297.363	84.1019	297.363	83.5794	297.363	83.8447	297.363	83.3329	297.363	83.5593	297.363	83.106	297.363	83.2672	297.363	82.9134	297.363	82.9892	297.363	82.7513	297.363	82.7279	297.363	82.5887	297.363	82.4626	297.363	82.3902	297.363	82.1686	297.363	82.154	297.363	81.8488	297.363	81.9273	297.363	81.5516	297.363	81.7714	297.363	81.3529	297.363	81.7026	297.363	81.3023	297.363	81.6737	297.363	81.3801	297.363	81.6192	297.363	81.511
307.617	84.5242	307.617	84.4781	307.617	84.5057	307.617	84.3659	307.617	84.4256	307.617	84.1923	307.617	84.2875	307.617	83.9688	307.617	84.0973	307.617	83.7081	307.617	83.8644	307.617	83.4155	307.617	83.6007	307.617	83.0881	307.617	83.318	307.617	82.7274	307.617	83.0294	307.617	82.3581	307.617	82.7492	307.617	82.0337	307.617	82.4889	307.617	81.8153	307.617	82.2504	307.617	81.7284	307.617	82.0288	307.617	81.7384	307.617	81.825	307.617	81.7746	307.617	81.6551	307.617	81.778	307.617	81.5409	307.617	81.7303	307.617	81.4934	307.617	81.6489	307.617	81.5066	307.617	81.5652
319.336	84.3209	319.336	84.2045	319.336	84.3722	319.336	84.0399	319.336	84.3436	319.336	83.8396	319.336	84.2288	319.336	83.6086	319.336	84.0322	319.336	83.3456	319.336	83.767	319.336	83.0461	319.336	83.4487	319.336	82.7085	319.336	83.0917	319.336	82.3388	319.336	82.711	319.336	81.9565	319.336	82.3275	319.336	81.5973	319.336	81.969	319.336	81.3104	319.336	81.664	319.336	81.1416	319.336	81.4338	319.336	81.1095	319.336	81.2925	319.336	81.1919	319.336	81.248	319.336	81.3351	319.336	81.2951	319.336	81.4779	319.336	81.4026	319.336	81.5701	319.336	81.5166	319.336	81.5829
329.59	83.6704	329.59	83.6295	329.59	83.718	329.59	83.6034	329.59	83.7476	329.59	83.5811	329.59	83.7296	329.59	83.5371	329.59	83.6437	329.59	83.4398	329.59	83.4882	329.59	83.2609	329.59	83.2775	329.59	82.9851	329.59	83.0315	329.59	82.6148	329.59	82.7631	329.59	82.1732	329.59	82.4712	329.59	81.7039	329.59	82.1464	329.59	81.2702	329.59	81.7835	329.59	80.9426	329.59	81.3949	329.59	80.7661	329.59	81.0167	329.59	80.7247	329.59	80.7036	329.59	80.7492	329.59	80.5096	329.59	80.7629	329.59	80.4571	329.59	80.7223	329.59	80.5176	329.59	80.6275
341.309	84.0898	341.309	84.1162	341.309	83.9627	341.309	84.0473	341.309	83.7479	341.309	83.9038	341.309	83.4727	341.309	83.7162	341.309	83.1702	341.309	83.5151	341.309	82.8665	341.309	83.3191	341.309	82.5734	341.309	83.1252	341.309	82.2911	341.309	82.9078	341.309	82.022	341.309	82.6304	341.309	81.7816	341.309	82.2675	341.309	81.5929	341.309	81.8263	341.309	81.4697	341.309	81.3614	341.309	81.408	341.309	80.9686	341.309	81.3947	341.309	80.7457	341.309	81.4154	341.309	80.7309	341.309	81.4487	341.309	80.8777	341.309	81.4604	341.309	81.0919	341.309	81.4136	341.309	81.2872
353.027	83.5948	353.027	83.5118	353.027	83.6194	353.027	83.3888	353.027	83.5728	353.027	83.2476	353.027	83.45	353.027	83.1104	353.027	83.2568	353.027	82.9935	353.027	83.0118	353.027	82.9003	353.027	82.7416	353.027	82.8196	353.027	82.4659	353.027	82.7286	353.027	82.1842	353.027	82.6023	353.027	81.8787	353.027	82.4253	353.027	81.5315	353.027	82.1995	353.027	81.139	353.027	81.9448	353.027	80.7143	353.027	81.6894	353.027	80.2914	353.027	81.4528	353.027	79.9394	353.027	81.2309	353.027	79.7553	353.027	80.9964	353.027	79.8027	353.027	80.7174	353.027	80.0487	353.027	80.3867
366.211	84.004	366.211	83.8244	366.211	84.0812	366.211	83.5314	366.211	84.0682	366.211	83.1279	366.211	83.9663	366.211	82.6389	366.211	83.7711	366.211	82.1144	366.211	83.4871	366.211	81.6348	366.211	83.1363	366.211	81.3027	366.211	82.7492	366.211	81.1863	366.211	82.349	366.211	81.2551	366.211	81.9491	366.211	81.3973	366.211	81.5699	366.211	81.5035	366.211	81.2501	366.211	81.518	366.211	81.0256	366.211	81.4349	366.211	80.8923	366.211	81.2741	366.211	80.8029	366.211	81.0659	366.211	80.7101	366.211	80.8477	366.211	80.6095	366.211	80.6631	366.211	80.5414	366.211	80.5537
379.395	84.003	379.395	83.9403	379.395	83.9992	379.395	83.8108	379.395	83.9425	379.395	83.6192	379.395	83.8497	379.395	83.3621	379.395	83.7212	379.395	83.0235	379.395	83.5357	379.395	82.5847	379.395	83.2707	379.395	82.0467	379.395	82.9296	379.395	81.4537	379.395	82.5428	379.395	80.8961	379.395	82.1413	379.395	80.4757	379.395	81.7366	379.395	80.2527	379.395	81.3385	379.395	80.2266	379.395	80.9911	379.395	80.3556	379.395	80.7738	379.395	80.5743	379.395	80.7407	379.395	80.8094	379.395	80.8581	379.395	81.004	379.395	81.0242	379.395	81.1312	379.395	81.1456	379.395	81.1815
392.578	83.6071	392.578	83.4487	392.578	83.6823	392.578	83.2507	392.578	83.6427	392.578	83.0467	392.578	83.4865	392.578	82.8476	392.578	83.2449	392.578	82.6445	392.578	82.9653	392.578	82.4213	392.578	82.6853	392.578	82.1638	392.578	82.4156	392.578	81.8619	392.578	82.1472	392.578	81.5082	392.578	81.8665	392.578	81.0994	392.578	81.563	392.578	80.6484	392.578	81.2303	392.578	80.2042	392.578	80.8729	392.578	79.8568	392.578	80.5208	392.578	79.6866	392.578	80.2284	392.578	79.6892	392.578	80.0422	392.578	79.7792	392.578	79.961	392.578	79.8687	392.578	79.9384	392.578	79.9195
405.762	83.1218	405.762	82.9508	405.762	83.1751	405.762	82.6733	405.762	83.1059	405.762	82.3162	405.762	82.9206	405.762	81.9301	405.762	82.6468	405.762	81.5758	405.762	82.333	405.762	81.2962	405.762	82.0336	405.762	81.102	405.762	81.7921	405.762	80.9874	405.762	81.6299	405.762	80.9532	405.762	81.5395	405.762	80.9971	405.762	81.4769	405.762	81.0789	405.762	81.373	405.762	81.118	405.762	81.1708	405.762	81.045	405.762	80.8715	405.762	80.8565	405.762	80.5501	405.762	80.6161	405.762	80.3087	405.762	80.4052	405.762	80.1926	405.762	80.2673	405.762	80.1696	405.762	80.1961
420.41	84.9581	420.41	84.8609	420.41	84.8722	420.41	84.5548	420.41	84.6316	420.41	84.0301	420.41	84.2575	420.41	83.3019	420.41	83.7646	420.41	82.4164	420.41	83.1746	420.41	81.4637	420.41	82.5314	420.41	80.5912	420.41	81.907	420.41	79.9682	420.41	81.3889	420.41	79.686	420.41	81.0614	420.41	79.721	420.41	80.974	420.41	80.0212	420.41	81.0954	420.41	80.5371	420.41	81.3078	420.41	81.1621	420.41	81.4881	420.41	81.7412	420.41	81.5955	420.41	82.1531	420.41	81.6783	420.41	82.3522	420.41	81.8081	420.41	82.3548	420.41	82.0035	420.41	82.2133
435.059	84.9868	435.059	84.9263	435.059	84.9469	435.059	84.7537	435.059	84.8148	435.059	84.4526	435.059	84.5935	435.059	83.9969	435.059	84.278	435.059	83.3517	435.059	83.8576	435.059	82.489	435.059	83.319	435.059	81.432	435.059	82.6485	435.059	80.3256	435.059	81.8459	435.059	79.4549	435.059	80.9748	435.059	79.06	435.059	80.2359	435.059	79.119	435.059	79.9312	435.059	79.4814	435.059	80.1855	435.059	80.0608	435.059	80.7857	435.059	80.7772	435.059	81.4296	435.059	81.4862	435.059	81.9474	435.059	82.0475	435.059	82.2987	435.059	82.3957	435.059	82.4938	435.059	82.534
451.172	85.0427	451.172	84.8482	451.172	85.107	451.172	84.5561	451.172	85.0321	451.172	84.2084	451.172	84.8301	451.172	83.8342	451.172	84.5167	451.172	83.4293	451.172	84.0942	451.172	82.9492	451.172	83.5588	451.172	82.3174	451.172	82.9259	451.172	81.4564	451.172	82.2369	451.172	80.3514	451.172	81.5311	451.172	79.1735	451.172	80.827	451.172	78.3773	451.172	80.1804	451.172	78.3693	451.172	79.7591	451.172	78.9328	451.172	79.7291	451.172	79.5716	451.172	80.0048	451.172	80.0431	451.172	80.3211	451.172	80.3299	451.172	80.5118	451.172	80.4839	451.172	80.5725	451.172	80.5564
465.82	85.2293	465.82	85.2183	465.82	85.1524	465.82	85.104	465.82	84.9934	465.82	84.87	465.82	84.7462	465.82	84.5051	465.82	84.4016	465.82	83.9991	465.82	83.9567	465.82	83.3362	465.82	83.417	465.82	82.5077	465.82	82.7943	465.82	81.552	465.82	82.1176	465.82	80.5846	465.82	81.4449	465.82	79.771	465.82	80.8382	465.82	79.2611	465.82	80.3111	465.82	79.1638	465.82	79.8659	465.82	79.5136	465.82	79.6099	465.82	80.1755	465.82	79.7142	465.82	80.8825	465.82	80.1738	465.82	81.406	465.82	80.7684	465.82	81.6428	465.82	81.2785	465.82	81.5883
483.398	85.5885	483.398	85.5325	483.398	85.5894	483.398	85.4019	483.398	85.5302	483.398	85.1687	483.398	85.3867	483.398	84.8187	483.398	85.1328	483.398	84.3616	483.398	84.7598	483.398	83.8185	483.398	84.2794	483.398	83.1925	483.398	83.7057	483.398	82.4429	483.398	83.0269	483.398	81.4949	483.398	82.2075	483.398	80.3063	483.398	81.2431	483.398	79.0194	483.398	80.2383	483.398	78.1531	483.398	79.4487	483.398	78.2943	483.398	79.1934	483.398	79.2093	483.398	79.5667	483.398	80.2104	483.398	80.288	483.398	80.9497	483.398	80.9738	483.398	81.3809	483.398	81.4045	483.398	81.5331
499.512	85.4881	499.512	85.3299	499.512	85.5177	499.512	85.0801	499.512	85.4118	499.512	84.7648	499.512	85.1977	499.512	84.3681	499.512	84.9056	499.512	83.8527	499.512	84.5398	499.512	83.2117	499.512	84.0779	499.512	82.495	499.512	83.4903	499.512	81.7762	499.512	82.7667	499.512	81.0863	499.512	81.9438	499.512	80.4103	499.512	81.1242	499.512	79.7814	499.512	80.4527	499.512	79.3557	499.512	80.0329	499.512	79.3265	499.512	79.8806	499.512	79.7308	499.512	79.9833	499.512	80.3899	499.512	80.3232	499.512	81.0343	499.512	80.8094	499.512	81.4448	499.512	81.2674	499.512	81.5175
517.09	84.7941	517.09	84.7427	517.09	84.7428	517.09	84.562	517.09	84.6384	517.09	84.2915	517.09	84.5064	517.09	84.0143	517.09	84.3286	517.09	83.744	517.09	84.0683	517.09	83.3442	517.09	83.7196	517.09	82.6178	517.09	83.3165	517.09	81.4821	517.09	82.8676	517.09	80.1037	517.09	82.2987	517.09	78.8694	517.09	81.5104	517.09	78.0762	517.09	80.5191	517.09	77.8073	517.09	79.557	517.09	78.2086	517.09	78.9952	517.09	79.2306	517.09	79.0589	517.09	80.3612	517.09	79.6452	517.09	81.1705	517.09	80.4437	517.09	81.5516	517.09	81.1375	517.09	81.5305
536.133	85.2365	536.133	85.0701	536.133	85.2225	536.133	84.7835	536.133	85.0056	536.133	84.4357	536.133	84.6176	536.133	84.0575	536.133	84.1184	536.133	83.6568	536.133	83.5572	536.133	83.2282	536.133	82.9569	536.133	82.7323	536.133	82.3127	536.133	82.0572	536.133	81.5822	536.133	81.0344	536.133	80.7046	536.133	79.5346	536.133	79.689	536.133	77.6767	536.133	78.7045	536.133	76.2492	536.133	78.0483	536.133	76.3573	536.133	77.9697	536.133	77.5706	536.133	78.4983	536.133	78.8539	536.133	79.3929	536.133	79.8455	536.133	80.2531	536.133	80.5074	536.133	80.7647	536.133	80.8325
555.176	84.8324	555.176	84.8509	555.176	84.785	555.176	84.7844	555.176	84.7295	555.176	84.5503	555.176	84.653	555.176	84.0903	555.176	84.5096	555.176	83.4435	555.176	84.2462	555.176	82.752	555.176	83.8461	555.176	82.1334	555.176	83.3565	555.176	81.546	555.176	82.8582	555.176	80.8361	555.176	82.3608	555.176	79.8865	555.176	81.6966	555.176	78.6996	555.176	80.5792	555.176	77.3957	555.176	78.8795	555.176	76.2888	555.176	77.0901	555.176	76.0527	555.176	76.3394	555.176	76.9007	555.176	76.6826	555.176	77.9002	555.176	77.2187	555.176	78.3097	555.176	77.6813	555.176	78.1187
574.219	85.1372	574.219	84.9456	574.219	85.1747	574.219	84.6294	574.219	85.0253	574.219	84.2338	574.219	84.6941	574.219	83.8596	574.219	84.2511	574.219	83.5931	574.219	83.8017	574.219	83.3672	574.219	83.4184	574.219	83.0047	574.219	83.0769	574.219	82.4111	574.219	82.6539	574.219	81.6146	574.219	82.0316	574.219	80.5753	574.219	81.2437	574.219	79.1107	574.219	80.4741	574.219	77.2499	574.219	79.8062	574.219	75.8237	574.219	79.0869	574.219	75.9423	574.219	78.2803	574.219	77.123	574.219	77.9585	574.219	78.4273	574.219	78.6535	574.219	79.4506	574.219	79.5944	574.219	79.9119
594.727	85.3748	594.727	85.2369	594.727	85.373	594.727	84.9923	594.727	85.1978	594.727	84.6363	594.727	84.8686	594.727	84.1353	594.727	84.4431	594.727	83.4788	594.727	83.9274	594.727	82.7302	594.727	83.2705	594.727	81.9836	594.727	82.5116	594.727	81.2788	594.727	81.838	594.727	80.6576	594.727	81.3431	594.727	80.1918	594.727	80.8546	594.727	79.7869	594.727	80.1557	594.727	79.1944	594.727	79.2247	594.727	78.4283	594.727	78.3147	594.727	77.9983	594.727	77.8296	594.727	78.2254	594.727	77.8554	594.727	78.6388	594.727	78.1126	594.727	78.7892	594.727	78.4055	594.727	78.6627
615.234	86.2289	615.234	86.1229	615.234	86.2122	615.234	85.9033	615.234	86.0723	615.234	85.572	615.234	85.8067	615.234	85.1055	615.234	85.4178	615.234	84.5026	615.234	84.9237	615.234	83.8327	615.234	84.3229	615.234	83.1523	615.234	83.5735	615.234	82.3653	615.234	82.6598	615.234	81.28	615.234	81.6375	615.234	79.8829	615.234	80.548	615.234	78.5738	615.234	79.4049	615.234	77.8846	615.234	78.4683	615.234	77.8121	615.234	78.197	615.234	78.1412	615.234	78.5166	615.234	78.8394	615.234	79.0453	615.234	79.7022	615.234	79.6781	615.234	80.3636	615.234	80.2894	615.234	80.5763
637.207	86.3284	637.207	86.2119	637.207	86.3278	637.207	86.0115	637.207	86.1775	637.207	85.7253	637.207	85.8985	637.207	85.349	637.207	85.5329	637.207	84.8809	637.207	85.0967	637.207	84.3025	637.207	84.5916	637.207	83.6344	637.207	84.0033	637.207	82.942	637.207	83.2931	637.207	82.1828	637.207	82.482	637.207	81.1901	637.207	81.7053	637.207	79.9062	637.207	81.0097	637.207	78.6095	637.207	80.2491	637.207	77.891	637.207	79.4853	637.207	78.1316	637.207	79.2005	637.207	79.0217	637.207	79.6068	637.207	79.9543	637.207	80.2422	637.207	80.5659	637.207	80.6788	637.207	80.7942
659.18	85.7574	659.18	85.6359	659.18	85.7925	659.18	85.4332	659.18	85.7067	659.18	85.1187	659.18	85.4934	659.18	84.6686	659.18	85.1887	659.18	84.125	659.18	84.8061	659.18	83.5616	659.18	84.322	659.18	82.9391	659.18	83.7355	659.18	82.076	659.18	83.0254	659.18	80.8652	659.18	82.071	659.18	79.5214	659.18	80.7696	659.18	78.3851	659.18	79.2278	659.18	77.6324	659.18	77.7802	659.18	77.6347	659.18	77.0216	659.18	78.5388	659.18	77.6343	659.18	79.6671	659.18	79.1067	659.18	80.4791	659.18	80.3307	659.18	80.9157	659.18	80.936	659.18	81.07
682.617	85.8959	682.617	85.7486	682.617	85.9278	682.617	85.5134	682.617	85.7905	682.617	85.2225	682.617	85.4409	682.617	84.8957	682.617	84.9578	682.617	84.4994	682.617	84.5116	682.617	83.9748	682.617	84.1379	682.617	83.3058	682.617	83.6951	682.617	82.4693	682.617	83.0812	682.617	81.3384	682.617	82.2588	682.617	79.7819	682.617	81.076	682.617	77.9685	682.617	79.4021	682.617	76.648	682.617	77.6651	682.617	76.6814	682.617	76.9417	682.617	77.974	682.617	77.2523	682.617	79.572	682.617	77.9116	682.617	80.7411	682.617	78.9641	682.617	81.2278	682.617	80.1475	682.617	80.9895
707.52	85.926	707.52	85.7286	707.52	85.8692	707.52	85.3714	707.52	85.628	707.52	84.9756	707.52	85.3562	707.52	84.5487	707.52	85.1084	707.52	84.0506	707.52	84.814	707.52	83.4833	707.52	84.4003	707.52	82.8621	707.52	83.8398	707.52	82.2056	707.52	83.0984	707.52	81.5074	707.52	82.1379	707.52	80.61	707.52	80.9575	707.52	79.2227	707.52	79.5249	707.52	77.272	707.52	77.7354	707.52	75.439	707.52	75.8498	707.52	75.0596	707.52	75.2118	707.52	76.2166	707.52	76.4108	707.52	77.8128	707.52	78.0632	707.52	79.0679	707.52	79.2249	707.52	79.5834
732.422	85.3981	732.422	85.3514	732.422	85.411	732.422	85.1205	732.422	85.3753	732.422	84.6554	732.422	85.1448	732.422	84.127	732.422	84.6706	732.422	83.6565	732.422	84.0951	732.422	83.1571	732.422	83.6157	732.422	82.5612	732.422	83.2487	732.422	81.9067	732.422	82.8196	732.422	81.0753	732.422	82.1836	732.422	79.7707	732.422	81.2879	732.422	77.9058	732.422	80.0578	732.422	76.0531	732.422	78.4535	732.422	75.6018	732.422	76.8263	732.422	76.6417	732.422	76.1759	732.422	77.9963	732.422	76.9675	732.422	79.123	732.422	78.2245	732.422	79.7326	732.422	79.1912	732.422	79.7217
757.324	85.96	757.324	85.6506	757.324	85.9651	757.324	85.2554	757.324	85.6364	757.324	84.8663	757.324	85.1768	757.324	84.3766	757.324	84.755	757.324	83.8206	757.324	84.3248	757.324	83.4617	757.324	83.8243	757.324	83.2383	757.324	83.3778	757.324	82.7332	757.324	83.0553	757.324	81.7008	757.324	82.6311	757.324	80.0977	757.324	81.8129	757.324	77.8211	757.324	80.4396	757.324	74.6909	757.324	78.3759	757.324	71.999	757.324	75.7302	757.324	73.9606	757.324	74.3756	757.324	77.4924	757.324	75.8732	757.324	79.7541	757.324	77.6469	757.324	80.4911	757.324	78.9496	757.324	80.0169
785.156	85.4037	785.156	85.2255	785.156	85.4398	785.156	84.7845	785.156	85.3717	785.156	84.1994	785.156	85.0454	785.156	83.6489	785.156	84.4632	785.156	83.0208	785.156	83.8959	785.156	82.2805	785.156	83.4471	785.156	81.7294	785.156	82.9748	785.156	81.4589	785.156	82.434	785.156	81.0785	785.156	81.7682	785.156	80.3045	785.156	80.7132	785.156	78.9971	785.156	79.2761	785.156	76.7128	785.156	78.0509	785.156	73.3603	785.156	77.235	785.156	72.4381	785.156	76.1851	785.156	74.5352	785.156	75.6151	785.156	76.045	785.156	76.7143	785.156	77.109	785.156	77.8253	785.156	77.8869
811.523	85.5085	811.523	85.2459	811.523	85.4875	811.523	84.8319	811.523	85.1893	811.523	84.3394	811.523	84.7167	811.523	83.7874	811.523	84.1469	811.523	83.294	811.523	83.5951	811.523	82.9454	811.523	83.2351	811.523	82.6083	811.523	83.0156	811.523	82.1602	811.523	82.5823	811.523	81.5073	811.523	81.7766	811.523	80.4077	811.523	80.8228	811.523	78.6934	811.523	79.7686	811.523	76.7291	811.523	78.1542	811.523	75.1346	811.523	75.9735	811.523	74.1895	811.523	74.7567	811.523	75.5814	811.523	75.6414	811.523	77.923	811.523	77.3254	811.523	79.1041	811.523	78.5885	811.523	79.1925
840.82	85.6378	840.82	85.4375	840.82	85.6054	840.82	84.9817	840.82	85.3428	840.82	84.2659	840.82	84.9024	840.82	83.3793	840.82	84.4077	840.82	82.4987	840.82	83.9019	840.82	81.7767	840.82	83.3015	840.82	81.1204	840.82	82.5515	840.82	80.392	840.82	81.783	840.82	79.8373	840.82	81.2023	840.82	79.7779	840.82	80.6765	840.82	79.4587	840.82	79.8097	840.82	77.8323	840.82	78.4276	840.82	75.1569	840.82	76.7815	840.82	74.5488	840.82	75.7771	840.82	75.4357	840.82	76.1556	840.82	75.8718	840.82	76.9921	840.82	76.5421	840.82	77.4311	840.82	77.255
870.117	85.5686	870.117	85.4858	870.117	85.4515	870.117	84.9799	870.117	85.221	870.117	84.147	870.117	84.7424	870.117	83.3781	870.117	84.0712	870.117	82.8291	870.117	83.4635	870.117	82.3179	870.117	82.9764	870.117	81.8029	870.117	82.5572	870.117	81.3072	870.117	82.0987	870.117	80.3288	870.117	81.1929	870.117	78.4245	870.117	79.5045	870.117	76.2704	870.117	77.5957	870.117	75.8306	870.117	76.8695	870.117	75.7977	870.117	77.0373	870.117	75.69	870.117	77.3987	870.117	77.5201	870.117	78.2075	870.117	79.8806	870.117	79.0329	870.117	80.7607	870.117	79.614	870.117	80.319
900.879	86.8629	900.879	86.5324	900.879	86.7054	900.879	85.8872	900.879	86.299	900.879	85.2008	900.879	85.7148	900.879	84.4028	900.879	84.7941	900.879	83.5703	900.879	83.9284	900.879	82.9373	900.879	83.7087	900.879	82.3256	900.879	83.7386	900.879	81.6085	900.879	83.4933	900.879	80.916	900.879	83.0016	900.879	80.0249	900.879	81.8668	900.879	78.1707	900.879	79.1807	900.879	75.2065	900.879	74.979	900.879	74.0673	900.879	73.5849	900.879	76.7231	900.879	76.3885	900.879	79.132	900.879	78.9945	900.879	80.3964	900.879	80.719	900.879	81.055	900.879	81.5053	900.879	81.4972
933.105	87.9123	933.105	87.6574	933.105	87.8763	933.105	87.0059	933.105	87.3139	933.105	85.7613	933.105	86.3429	933.105	84.3524	933.105	85.2265	933.105	83.2396	933.105	83.6889	933.105	82.5959	933.105	82.1788	933.105	82.9184	933.105	82.3894	933.105	83.514	933.105	83.34	933.105	83.0487	933.105	83.0944	933.105	81.0541	933.105	81.8848	933.105	77.9978	933.105	80.711	933.105	74.2992	933.105	78.2255	933.105	74.3633	933.105	72.2794	933.105	78.5677	933.105	75.6256	933.105	80.9801	933.105	79.9316	933.105	82.61	933.105	82.1695	933.105	83.9137	933.105	83.6267	933.105	84.3397
965.332	88.0972	965.332	87.9427	965.332	87.9078	965.332	87.4342	965.332	87.4246	965.332	86.5928	965.332	86.4569	965.332	85.1779	965.332	85.048	965.332	83.3384	965.332	83.6788	965.332	82.1948	965.332	82.5674	965.332	82.1645	965.332	81.867	965.332	82.2988	965.332	82.028	965.332	82.2704	965.332	82.8642	965.332	81.867	965.332	83.0061	965.332	79.8542	965.332	81.2205	965.332	74.2826	965.332	77.0521	965.332	59.9398	965.332	68.2744	965.332	74.141	965.332	69.879	965.332	79.4806	965.332	78.1404	965.332	81.8441	965.332	81.6593	965.332	82.9001	965.332	83.1523	965.332	83.3957
1,000.49	88.0846	1,000.49	87.6112	1,000.49	87.9893	1,000.49	86.9321	1,000.49	87.403	1,000.49	86.0259	1,000.49	86.6781	1,000.49	84.7073	1,000.49	85.3748	1,000.49	82.9598	1,000.49	83.081	1,000.49	80.9116	1,000.49	80.8634	1,000.49	80.4397	1,000.49	80.025	1,000.49	82.3135	1,000.49	80.7164	1,000.49	83.7625	1,000.49	82.0128	1,000.49	83.1033	1,000.49	82.4727	1,000.49	80.2125	1,000.49	81.105	1,000.49	75.2182	1,000.49	77.0548	1,000.49	66.7421	1,000.49	67.5471	1,000.49	74.0524	1,000.49	68.5583	1,000.49	79.9042	1,000.49	77.9053	1,000.49	82.79	1,000.49	81.6508	1,000.49	84.1054	1,000.49	83.5879	1,000.49	84.3527
1,035.64	87.3688	1,035.64	87.6601	1,035.64	87.1636	1,035.64	87.2804	1,035.64	87.2522	1,035.64	86.3209	1,035.64	86.6995	1,035.64	84.7554	1,035.64	85.3573	1,035.64	81.9308	1,035.64	83.6925	1,035.64	78.8093	1,035.64	80.8041	1,035.64	79.6596	1,035.64	76.3773	1,035.64	81.4631	1,035.64	77.3448	1,035.64	81.9709	1,035.64	80.8221	1,035.64	82.2039	1,035.64	82.5553	1,035.64	81.3231	1,035.64	82.6098	1,035.64	77.0873	1,035.64	80.9497	1,035.64	66.0762	1,035.64	76.0151	1,035.64	76.0092	1,035.64	71.5769	1,035.64	81.0073	1,035.64	77.7276	1,035.64	83.0858	1,035.64	81.9225	1,035.64	84.1856	1,035.64	84.199	1,035.64	84.7512
1,072.27	86.8781	1,072.27	86.9288	1,072.27	86.7282	1,072.27	86.7652	1,072.27	86.8314	1,072.27	86.4639	1,072.27	86.8408	1,072.27	85.6077	1,072.27	86.4435	1,072.27	84.0884	1,072.27	85.5888	1,072.27	81.4759	1,072.27	83.7052	1,072.27	75.3346	1,072.27	80.0487	1,072.27	74.2609	1,072.27	74.3951	1,072.27	80.4477	1,072.27	75.9662	1,072.27	82.786	1,072.27	79.9226	1,072.27	82.4978	1,072.27	82.3022	1,072.27	80.7423	1,072.27	82.3922	1,072.27	76.8447	1,072.27	80.0794	1,072.27	75.3411	1,072.27	76.4216	1,072.27	80.1528	1,072.27	76.5259	1,072.27	83.2695	1,072.27	81.2662	1,072.27	84.6177	1,072.27	82.902	1,072.27	84.0544
1,108.89	86.6103	1,108.89	86.485	1,108.89	86.6804	1,108.89	86.5215	1,108.89	86.1347	1,108.89	86.3802	1,108.89	85.4751	1,108.89	85.945	1,108.89	85.3389	1,108.89	84.8537	1,108.89	84.8994	1,108.89	82.5428	1,108.89	83.4207	1,108.89	78.712	1,108.89	81.0373	1,108.89	76.1582	1,108.89	77.8367	1,108.89	78.2213	1,108.89	75.1742	1,108.89	81.0778	1,108.89	78.2962	1,108.89	82.9677	1,108.89	80.5992	1,108.89	82.0403	1,108.89	81.6155	1,108.89	77.8914	1,108.89	81.3197	1,108.89	71.6581	1,108.89	78.3298	1,108.89	73.2706	1,108.89	73.9497	1,108.89	79.3723	1,108.89	75.7316	1,108.89	81.9082	1,108.89	81.1432	1,108.89	82.6714
1,148.44	86.4285	1,148.44	86.1612	1,148.44	86.4606	1,148.44	86.0839	1,148.44	86.0786	1,148.44	85.7807	1,148.44	85.6421	1,148.44	85.3754	1,148.44	85.1669	1,148.44	85.0326	1,148.44	84.6437	1,148.44	83.6066	1,148.44	84.1457	1,148.44	80.5079	1,148.44	82.8464	1,148.44	75.701	1,148.44	79.5	1,148.44	73.6987	1,148.44	74.1841	1,148.44	79.1973	1,148.44	76.676	1,148.44	81.7429	1,148.44	80.1976	1,148.44	81.889	1,148.44	81.6932	1,148.44	80.0655	1,148.44	81.6555	1,148.44	75.4912	1,148.44	79.5003	1,148.44	74.5799	1,148.44	73.7695	1,148.44	77.9149	1,148.44	72.6193	1,148.44	79.5584	1,148.44	76.2649	1,148.44	79.3685
1,189.45	86.4236	1,189.45	86.2898	1,189.45	86.4749	1,189.45	85.8106	1,189.45	86.2294	1,189.45	85.1457	1,189.45	85.5779	1,189.45	84.7922	1,189.45	84.8956	1,189.45	84.4195	1,189.45	84.4739	1,189.45	83.335	1,189.45	84.0056	1,189.45	81.3683	1,189.45	82.8714	1,189.45	77.537	1,189.45	81.1323	1,189.45	71.6141	1,189.45	78.1945	1,189.45	76.9756	1,189.45	74.0488	1,189.45	81.0871	1,189.45	76.8042	1,189.45	81.9543	1,189.45	80.219	1,189.45	80.4746	1,189.45	80.6378	1,189.45	78.3039	1,189.45	79.7989	1,189.45	75.0603	1,189.45	75.7078	1,189.45	75.0263	1,189.45	69.899	1,189.45	78.5977	1,189.45	74.3161	1,189.45	77.9483
1,230.47	87.9448	1,230.47	87.53	1,230.47	87.8806	1,230.47	86.6846	1,230.47	87.5904	1,230.47	85.7808	1,230.47	86.671	1,230.47	84.461	1,230.47	85.5802	1,230.47	83.5384	1,230.47	84.6145	1,230.47	83.2343	1,230.47	83.4606	1,230.47	81.7213	1,230.47	82.5166	1,230.47	78.9415	1,230.47	80.9682	1,230.47	75.5579	1,230.47	78.501	1,230.47	74.9768	1,230.47	76.2369	1,230.47	77.9201	1,230.47	75.6478	1,230.47	80.3237	1,230.47	77.7773	1,230.47	80.519	1,230.47	79.6361	1,230.47	77.0902	1,230.47	78.7537	1,230.47	68.1988	1,230.47	74.9504	1,230.47	58.6777	1,230.47	66.219	1,230.47	69.1691	1,230.47	63.3034	1,230.47	70.8746
1,274.41	88.2881	1,274.41	87.8105	1,274.41	88.1139	1,274.41	87.1304	1,274.41	87.5923	1,274.41	86.2983	1,274.41	87.1768	1,274.41	85.0942	1,274.41	86.2075	1,274.41	83.6777	1,274.41	84.9749	1,274.41	82.56	1,274.41	83.9608	1,274.41	81.3606	1,274.41	82.3501	1,274.41	79.3644	1,274.41	80.6145	1,274.41	77.0924	1,274.41	78.6418	1,274.41	74.813	1,274.41	76.5544	1,274.41	75.6293	1,274.41	76.2668	1,274.41	78.007	1,274.41	77.1327	1,274.41	77.8695	1,274.41	77.7035	1,274.41	76.2168	1,274.41	76.7555	1,274.41	70.9484	1,274.41	72.3048	1,274.41	63.1346	1,274.41	65.9855	1,274.41	70.8008	1,274.41	71.9716	1,274.41	74.0225
1,319.82	88.376	1,319.82	88.0461	1,319.82	88.0946	1,319.82	87.1765	1,319.82	87.4936	1,319.82	86.4936	1,319.82	86.8056	1,319.82	85.584	1,319.82	85.6876	1,319.82	84.1588	1,319.82	84.3171	1,319.82	82.9128	1,319.82	83.1782	1,319.82	81.5605	1,319.82	81.8159	1,319.82	80.3065	1,319.82	79.8797	1,319.82	77.9631	1,319.82	77.7785	1,319.82	74.9147	1,319.82	76.739	1,319.82	75.9716	1,319.82	75.8755	1,319.82	76.5266	1,319.82	76.893	1,319.82	75.6885	1,319.82	77.4889	1,319.82	72.1812	1,319.82	75.3593	1,319.82	66.0431	1,319.82	70.2792	1,319.82	71.5857	1,319.82	68.7069	1,319.82	75.542	1,319.82	74.1632	1,319.82	75.9531
1,366.7	87.4674	1,366.7	87.1666	1,366.7	87.4718	1,366.7	86.796	1,366.7	87.0975	1,366.7	85.6392	1,366.7	86.284	1,366.7	84.2533	1,366.7	85.3973	1,366.7	83.5663	1,366.7	84.0443	1,366.7	82.0348	1,366.7	82.6508	1,366.7	80.5612	1,366.7	81.5124	1,366.7	77.8674	1,366.7	79.3198	1,366.7	74.6486	1,366.7	77.4833	1,366.7	74.1374	1,366.7	76.1845	1,366.7	74.8065	1,366.7	75.1214	1,366.7	75.6478	1,366.7	74.7846	1,366.7	74.6199	1,366.7	73.1472	1,366.7	72.9685	1,366.7	70.1626	1,366.7	58.2828	1,366.7	58.9569	1,366.7	73.2396	1,366.7	69.5172	1,366.7	76.8744	1,366.7	74.5325	1,366.7	76.7488
1,413.57	87.0845	1,413.57	87.0491	1,413.57	87.1673	1,413.57	86.4859	1,413.57	86.6562	1,413.57	85.3998	1,413.57	85.2488	1,413.57	83.8795	1,413.57	83.8997	1,413.57	82.2569	1,413.57	82.6689	1,413.57	81.5436	1,413.57	80.8848	1,413.57	80.048	1,413.57	79.204	1,413.57	76.3646	1,413.57	78.2147	1,413.57	73.7281	1,413.57	76.5509	1,413.57	74.7035	1,413.57	74.367	1,413.57	76.3241	1,413.57	74.6479	1,413.57	78.5033	1,413.57	76.3392	1,413.57	76.9528	1,413.57	75.928	1,413.57	71.5136	1,413.57	74.2745	1,413.57	57.1533	1,413.57	67.6846	1,413.57	71.4279	1,413.57	65.4368	1,413.57	75.1786	1,413.57	74.3671	1,413.57	76.4805
1,463.38	86.6575	1,463.38	86.4436	1,463.38	86.5685	1,463.38	85.5607	1,463.38	85.7212	1,463.38	84.2975	1,463.38	85.2264	1,463.38	83.4109	1,463.38	84.0655	1,463.38	82.6069	1,463.38	82.5592	1,463.38	81.0962	1,463.38	81.3558	1,463.38	79.3752	1,463.38	79.5416	1,463.38	78.9138	1,463.38	77.9275	1,463.38	76.6468	1,463.38	75.9189	1,463.38	72.6827	1,463.38	73.9719	1,463.38	74.9952	1,463.38	72.5106	1,463.38	77.5268	1,463.38	73.9405	1,463.38	77.0322	1,463.38	75.7867	1,463.38	74.487	1,463.38	74.4666	1,463.38	61.7293	1,463.38	68.3836	1,463.38	69.3005	1,463.38	61.0854	1,463.38	74.51	1,463.38	71.014	1,463.38	75.428
1,516.11	85.9669	1,516.11	85.5594	1,516.11	85.6303	1,516.11	84.3968	1,516.11	85.4496	1,516.11	83.1518	1,516.11	84.6075	1,516.11	82.1472	1,516.11	83.3448	1,516.11	81.1507	1,516.11	82.4804	1,516.11	79.6118	1,516.11	80.7794	1,516.11	78.5234	1,516.11	79.7554	1,516.11	77.4053	1,516.11	78.5313	1,516.11	75.3678	1,516.11	76.7927	1,516.11	73.5664	1,516.11	73.9008	1,516.11	73.8485	1,516.11	72.9022	1,516.11	71.9445	1,516.11	73.9348	1,516.11	74.0745	1,516.11	75.0167	1,516.11	70.2604	1,516.11	74.8556	1,516.11	59.4638	1,516.11	70.719	1,516.11	69.7658	1,516.11	53.7521	1,516.11	73.7351	1,516.11	69.3321	1,516.11	73.4376
1,568.85	84.8684	1,568.85	84.6138	1,568.85	85.1588	1,568.85	84.0413	1,568.85	84.4722	1,568.85	82.2627	1,568.85	83.6631	1,568.85	81.074	1,568.85	82.2591	1,568.85	79.3775	1,568.85	80.2494	1,568.85	77.0596	1,568.85	79.2525	1,568.85	76.1561	1,568.85	78.1494	1,568.85	75.2786	1,568.85	77.7551	1,568.85	72.1716	1,568.85	76.3285	1,568.85	69.0803	1,568.85	72.9517	1,568.85	68.5139	1,568.85	73.0232	1,568.85	73.3313	1,568.85	71.4088	1,568.85	74.473	1,568.85	73.9981	1,568.85	70.0083	1,568.85	74.9751	1,568.85	64.6183	1,568.85	69.8165	1,568.85	63.3957	1,568.85	62.4005	1,568.85	70.2137	1,568.85	57.1748	1,568.85	71.3009
1,624.51	85.3532	1,624.51	84.9084	1,624.51	85.4127	1,624.51	84.0819	1,624.51	84.4512	1,624.51	82.8363	1,624.51	83.6836	1,624.51	80.9298	1,624.51	82.9097	1,624.51	79.2566	1,624.51	81.1083	1,624.51	78.2634	1,624.51	80.1209	1,624.51	77.1072	1,624.51	77.9837	1,624.51	75.3996	1,624.51	77.097	1,624.51	74.45	1,624.51	74.6674	1,624.51	69.3355	1,624.51	74.4884	1,624.51	68.0087	1,624.51	72.6604	1,624.51	71.1211	1,624.51	69.1024	1,624.51	73.7754	1,624.51	71.1962	1,624.51	73.6883	1,624.51	73.7305	1,624.51	69.9029	1,624.51	68.8426	1,624.51	54.1173	1,624.51	62.0032	1,624.51	70.3078	1,624.51	66.3407	1,624.51	72.897
1,681.64	85.1018	1,681.64	85.259	1,681.64	85.1788	1,681.64	84.6371	1,681.64	84.2588	1,681.64	83.0837	1,681.64	84.0327	1,681.64	81.9205	1,681.64	82.1334	1,681.64	79.9221	1,681.64	81.4293	1,681.64	78.6346	1,681.64	79.3273	1,681.64	79.5618	1,681.64	78.474	1,681.64	76.9376	1,681.64	77.0143	1,681.64	76.0615	1,681.64	76.4678	1,681.64	72.4774	1,681.64	75.01	1,681.64	62.6889	1,681.64	71.15	1,681.64	70.6371	1,681.64	73.1503	1,681.64	69.0889	1,681.64	72.0955	1,681.64	72.7597	1,681.64	70.7837	1,681.64	69.8763	1,681.64	72.2225	1,681.64	65.0998	1,681.64	65.838	1,681.64	72.8536	1,681.64	70.3557	1,681.64	71.284
1,741.7	85.6143	1,741.7	84.8674	1,741.7	84.8057	1,741.7	84.3752	1,741.7	84.4381	1,741.7	83.1529	1,741.7	84.093	1,741.7	81.8264	1,741.7	82.4647	1,741.7	80.7277	1,741.7	80.6673	1,741.7	78.7231	1,741.7	79.6554	1,741.7	78.4857	1,741.7	79.3431	1,741.7	77.4965	1,741.7	77.6006	1,741.7	76.3154	1,741.7	77.9001	1,741.7	74.3617	1,741.7	72.244	1,741.7	72.1377	1,741.7	65.7454	1,741.7	70.0101	1,741.7	67.9625	1,741.7	75.0778	1,741.7	70.2491	1,741.7	75.507	1,741.7	68.9957	1,741.7	71.2305	1,741.7	67.7367	1,741.7	65.7726	1,741.7	64.4568	1,741.7	71.2455	1,741.7	72.8177	1,741.7	69.6136
1,803.22	84.0379	1,803.22	83.8501	1,803.22	84.7343	1,803.22	83.2749	1,803.22	83.6754	1,803.22	81.7859	1,803.22	81.8732	1,803.22	80.8991	1,803.22	81.3988	1,803.22	79.1864	1,803.22	80.5548	1,803.22	78.0899	1,803.22	78.2135	1,803.22	77.5812	1,803.22	76.6038	1,803.22	74.457	1,803.22	76.4109	1,803.22	72.6679	1,803.22	75.016	1,803.22	70.6352	1,803.22	73.2761	1,803.22	67.8988	1,803.22	75.2243	1,803.22	67.356	1,803.22	71.5358	1,803.22	69.6208	1,803.22	73.4142	1,803.22	72.0626	1,803.22	72.9845	1,803.22	68.4978	1,803.22	69.7909	1,803.22	64.1466	1,803.22	59.4944	1,803.22	68.6093	1,803.22	69.567	1,803.22	73.2681
1,866.21	83.3517	1,866.21	82.4316	1,866.21	83.2994	1,866.21	81.2689	1,866.21	82.6827	1,866.21	80.4895	1,866.21	81.0613	1,866.21	78.9033	1,866.21	80.2152	1,866.21	77.8658	1,866.21	78.1065	1,866.21	75.3878	1,866.21	76.4321	1,866.21	76.1273	1,866.21	72.5983	1,866.21	73.7496	1,866.21	74.7671	1,866.21	72.8295	1,866.21	74.3143	1,866.21	74.4258	1,866.21	73.1316	1,866.21	72.5127	1,866.21	73.8898	1,866.21	73.4821	1,866.21	66.7455	1,866.21	71.813	1,866.21	72.0026	1,866.21	72.3198	1,866.21	74.42	1,866.21	65.065	1,866.21	72.2544	1,866.21	66.2836	1,866.21	69.8743	1,866.21	65.0264	1,866.21	60.2922	1,866.21	65.3692
1,932.13	83.6262	1,932.13	83.3431	1,932.13	83.4523	1,932.13	82.1165	1,932.13	82.692	1,932.13	80.9068	1,932.13	81.7635	1,932.13	78.8841	1,932.13	80.1211	1,932.13	76.7861	1,932.13	78.4551	1,932.13	75.7383	1,932.13	77.3934	1,932.13	75.5407	1,932.13	76.1887	1,932.13	75.5824	1,932.13	75.4309	1,932.13	74.533	1,932.13	75.2054	1,932.13	73.7193	1,932.13	74.6135	1,932.13	70.8709	1,932.13	71.2546	1,932.13	66.5956	1,932.13	69.4051	1,932.13	70.2662	1,932.13	69.7922	1,932.13	71.0204	1,932.13	71.5381	1,932.13	64.6934	1,932.13	71.5792	1,932.13	59.2395	1,932.13	66.8527	1,932.13	66.8821	1,932.13	59.416	1,932.13	66.5723
1,999.51	84.8952	1,999.51	84.7036	1,999.51	84.5919	1,999.51	83.7437	1,999.51	84.1071	1,999.51	82.7315	1,999.51	83.1207	1,999.51	81.294	1,999.51	82.2012	1,999.51	79.2104	1,999.51	80.57	1,999.51	76.2967	1,999.51	79.2147	1,999.51	74.8661	1,999.51	76.7308	1,999.51	73.2238	1,999.51	76.3165	1,999.51	73.7836	1,999.51	75.7725	1,999.51	72.7061	1,999.51	74.4011	1,999.51	71.1708	1,999.51	73.4641	1,999.51	67.4574	1,999.51	72.2773	1,999.51	68.9251	1,999.51	69.3684	1,999.51	70.5151	1,999.51	72.0143	1,999.51	66.6545	1,999.51	71.661	1,999.51	52.6271	1,999.51	66.5293	1,999.51	65.445	1,999.51	53.2626	1,999.51	67.3676
2,069.82	85.849	2,069.82	85.3576	2,069.82	85.6151	2,069.82	84.9606	2,069.82	84.9047	2,069.82	83.7902	2,069.82	83.9035	2,069.82	82.7913	2,069.82	82.6965	2,069.82	81.2038	2,069.82	81.0288	2,069.82	78.5971	2,069.82	79.8089	2,069.82	76.0842	2,069.82	78.7234	2,069.82	74.9489	2,069.82	77.3077	2,069.82	74.164	2,069.82	76.2922	2,069.82	73.2159	2,069.82	74.3189	2,069.82	72.7081	2,069.82	73.1446	2,069.82	69.4427	2,069.82	71.6984	2,069.82	69.5165	2,069.82	71.5562	2,069.82	71.7188	2,069.82	72.1563	2,069.82	70.123	2,069.82	71.5429	2,069.82	59.0368	2,069.82	65.8753	2,069.82	66.1292	2,069.82	57.6394	2,069.82	67.4057
2,143.07	86.1864	2,143.07	85.8078	2,143.07	85.6977	2,143.07	85.0323	2,143.07	85.0202	2,143.07	84.2692	2,143.07	83.967	2,143.07	83.2703	2,143.07	83.039	2,143.07	82.3293	2,143.07	81.2003	2,143.07	80.0307	2,143.07	79.9071	2,143.07	77.4163	2,143.07	78.5994	2,143.07	75.6689	2,143.07	76.8991	2,143.07	75.216	2,143.07	76.6404	2,143.07	74.9294	2,143.07	74.6658	2,143.07	73.5659	2,143.07	71.5811	2,143.07	71.5617	2,143.07	70.5231	2,143.07	71.9255	2,143.07	70.6517	2,143.07	72.1062	2,143.07	71.0108	2,143.07	69.7182	2,143.07	70.9186	2,143.07	61.0773	2,143.07	64.9939	2,143.07	62.6548	2,143.07	60.4884	2,143.07	67.0858
2,219.24	85.3405	2,219.24	84.9072	2,219.24	85.0434	2,219.24	84.45	2,219.24	84.0928	2,219.24	83.5652	2,219.24	83.5588	2,219.24	82.6379	2,219.24	81.8539	2,219.24	81.4712	2,219.24	81.0436	2,219.24	80.5382	2,219.24	79.2875	2,219.24	77.7418	2,219.24	77.4665	2,219.24	76.6334	2,219.24	75.5546	2,219.24	75.3897	2,219.24	75.9083	2,219.24	73.9318	2,219.24	74.1391	2,219.24	72.7182	2,219.24	70.9707	2,219.24	71.7249	2,219.24	70.4133	2,219.24	70.7686	2,219.24	69.7013	2,219.24	73.1411	2,219.24	70.9998	2,219.24	72.9519	2,219.24	71.9242	2,219.24	59.9331	2,219.24	67.2622	2,219.24	66.5021	2,219.24	53.6438	2,219.24	69.3734
2,296.88	85.2533	2,296.88	84.8318	2,296.88	84.9753	2,296.88	83.8923	2,296.88	84.8399	2,296.88	83.0821	2,296.88	83.6199	2,296.88	81.9076	2,296.88	82.5849	2,296.88	80.9803	2,296.88	81.7683	2,296.88	78.8123	2,296.88	80.103	2,296.88	76.4706	2,296.88	78.6015	2,296.88	75.7645	2,296.88	77.0097	2,296.88	75.2819	2,296.88	75.5686	2,296.88	72.6649	2,296.88	74.5931	2,296.88	70.6795	2,296.88	74.0665	2,296.88	71.8768	2,296.88	72.5167	2,296.88	70.283	2,296.88	68.1216	2,296.88	73.237	2,296.88	72.0957	2,296.88	71.9998	2,296.88	73.7619	2,296.88	63.2801	2,296.88	71.9411	2,296.88	66.3494	2,296.88	57.4529	2,296.88	64.0777
2,378.91	85.952	2,378.91	85.6198	2,378.91	85.9636	2,378.91	84.9746	2,378.91	85.443	2,378.91	83.9617	2,378.91	84.7298	2,378.91	82.8887	2,378.91	83.7103	2,378.91	81.6715	2,378.91	82.3465	2,378.91	80.5652	2,378.91	81.6079	2,378.91	78.5433	2,378.91	80.2615	2,378.91	76.2978	2,378.91	78.161	2,378.91	74.9467	2,378.91	77.6883	2,378.91	70.9579	2,378.91	76.4563	2,378.91	72.2639	2,378.91	74.2234	2,378.91	71.6663	2,378.91	73.2246	2,378.91	68.0248	2,378.91	73.0982	2,378.91	71.5077	2,378.91	71.3275	2,378.91	68.958	2,378.91	73.2949	2,378.91	59.7377	2,378.91	71.5632	2,378.91	59.1919	2,378.91	57.6327	2,378.91	60.2201
2,462.4	86.6627	2,462.4	86.4888	2,462.4	86.4601	2,462.4	85.8829	2,462.4	85.954	2,462.4	85.1072	2,462.4	85.4859	2,462.4	84.1639	2,462.4	84.4834	2,462.4	83.0038	2,462.4	83.4195	2,462.4	81.7957	2,462.4	82.4885	2,462.4	80.3041	2,462.4	81.0099	2,462.4	76.9462	2,462.4	78.8551	2,462.4	76.9258	2,462.4	77.3443	2,462.4	74.4338	2,462.4	76.2484	2,462.4	72.0506	2,462.4	72.9709	2,462.4	73.3044	2,462.4	71.657	2,462.4	69.3614	2,462.4	73.0506	2,462.4	70.3149	2,462.4	70.8364	2,462.4	73.186	2,462.4	72.9669	2,462.4	68.16	2,462.4	71.0175	2,462.4	63.422	2,462.4	63.7017	2,462.4	67.1756
2,548.83	85.5235	2,548.83	85.3823	2,548.83	85.219	2,548.83	85.5131	2,548.83	85.069	2,548.83	84.9376	2,548.83	84.6863	2,548.83	84.007	2,548.83	84.0325	2,548.83	82.0505	2,548.83	82.4288	2,548.83	81.0047	2,548.83	81.3336	2,548.83	78.858	2,548.83	80.1833	2,548.83	77.5524	2,548.83	78.2154	2,548.83	75.4799	2,548.83	76.0479	2,548.83	75.0455	2,548.83	76.1882	2,548.83	72.5175	2,548.83	72.6242	2,548.83	73.7551	2,548.83	68.3114	2,548.83	72.3224	2,548.83	69.7301	2,548.83	68.9029	2,548.83	67.9819	2,548.83	71.6573	2,548.83	69.4467	2,548.83	69.7094	2,548.83	69.5111	2,548.83	64.8029	2,548.83	59.093	2,548.83	68.8262
2,639.65	83.8204	2,639.65	83.9487	2,639.65	84.3386	2,639.65	83.6652	2,639.65	83.5976	2,639.65	83.3407	2,639.65	83.652	2,639.65	82.6827	2,639.65	82.8985	2,639.65	82.0023	2,639.65	81.9699	2,639.65	80.1135	2,639.65	80.0681	2,639.65	79.074	2,639.65	78.963	2,639.65	77.4189	2,639.65	77.0821	2,639.65	74.1645	2,639.65	74.0982	2,639.65	73.7993	2,639.65	74.5853	2,639.65	71.475	2,639.65	73.6222	2,639.65	72.3232	2,639.65	69.2542	2,639.65	70.6557	2,639.65	70.0349	2,639.65	68.0751	2,639.65	66.9916	2,639.65	69.7986	2,639.65	68.9844	2,639.65	65.4231	2,639.65	67.9743	2,639.65	63.0133	2,639.65	55.4768	2,639.65	64.2717
2,731.93	83.5404	2,731.93	83.791	2,731.93	84.2311	2,731.93	82.9034	2,731.93	83.9295	2,731.93	82.9872	2,731.93	83.7626	2,731.93	81.7211	2,731.93	83.1456	2,731.93	81.4182	2,731.93	82.5128	2,731.93	79.2076	2,731.93	80.6437	2,731.93	78.344	2,731.93	78.6463	2,731.93	76.4618	2,731.93	76.9958	2,731.93	74.3946	2,731.93	74.2002	2,731.93	72.9428	2,731.93	72.8627	2,731.93	67.387	2,731.93	72.5012	2,731.93	70.5776	2,731.93	71.6147	2,731.93	69.3503	2,731.93	69.4485	2,731.93	67.7986	2,731.93	69.8556	2,731.93	70.9965	2,731.93	69.9578	2,731.93	65.2528	2,731.93	70.3171	2,731.93	58.707	2,731.93	62.5065	2,731.93	64.0067
2,828.61	84.9102	2,828.61	84.8864	2,828.61	84.4593	2,828.61	84.0606	2,828.61	85.1118	2,828.61	83.8372	2,828.61	84.5758	2,828.61	83.209	2,828.61	84.0755	2,828.61	81.1496	2,828.61	83.3038	2,828.61	79.9735	2,828.61	81.9711	2,828.61	79.1171	2,828.61	79.9425	2,828.61	75.7355	2,828.61	78.0333	2,828.61	74.3133	2,828.61	74.9668	2,828.61	73.1776	2,828.61	72.7538	2,828.61	67.8532	2,828.61	73.0887	2,828.61	70.2021	2,828.61	70.5574	2,828.61	70.219	2,828.61	71.0417	2,828.61	68.0667	2,828.61	71.2815	2,828.61	70.2144	2,828.61	71.7768	2,828.61	66.6955	2,828.61	72.0829	2,828.61	63.5586	2,828.61	63.6106	2,828.61	41.2622
2,928.22	85.4406	2,928.22	84.9791	2,928.22	85.4347	2,928.22	85.2107	2,928.22	85.5456	2,928.22	84.5447	2,928.22	85.0415	2,928.22	83.7904	2,928.22	84.514	2,928.22	81.8149	2,928.22	83.6199	2,928.22	80.5415	2,928.22	82.6777	2,928.22	79.0663	2,928.22	81.0059	2,928.22	75.9798	2,928.22	78.6912	2,928.22	74.7748	2,928.22	76.7102	2,928.22	73.7506	2,928.22	74.6424	2,928.22	72.1458	2,928.22	74.3213	2,928.22	69.5264	2,928.22	68.8135	2,928.22	72.5867	2,928.22	70.8147	2,928.22	67.7294	2,928.22	69.6484	2,928.22	69.4501	2,928.22	71.3713	2,928.22	68.8928	2,928.22	71.7534	2,928.22	64.2371	2,928.22	66.5254	2,928.22	58.8399
3,030.76	85.2841	3,030.76	85.3649	3,030.76	85.2388	3,030.76	85.478	3,030.76	85.7577	3,030.76	85.0352	3,030.76	85.4396	3,030.76	84.5379	3,030.76	85.0456	3,030.76	82.83	3,030.76	83.8719	3,030.76	81.0712	3,030.76	82.3767	3,030.76	78.7	3,030.76	80.3871	3,030.76	77.0917	3,030.76	78.7639	3,030.76	74.7581	3,030.76	76.8047	3,030.76	73.9606	3,030.76	74.8346	3,030.76	72.2911	3,030.76	72.032	3,030.76	69.3479	3,030.76	70.9317	3,030.76	70.7795	3,030.76	70.0454	3,030.76	67.2288	3,030.76	70.0737	3,030.76	69.4543	3,030.76	71.8137	3,030.76	68.6149	3,030.76	72.8223	3,030.76	61.1379	3,030.76	69.327	3,030.76	61.075
3,137.7	85.5954	3,137.7	85.7194	3,137.7	85.8896	3,137.7	85.9248	3,137.7	86.0344	3,137.7	85.5529	3,137.7	85.8016	3,137.7	84.474	3,137.7	84.9966	3,137.7	82.9887	3,137.7	83.8031	3,137.7	81.049	3,137.7	82.3558	3,137.7	79.0107	3,137.7	80.4825	3,137.7	77.9011	3,137.7	78.5651	3,137.7	75.2189	3,137.7	76.5549	3,137.7	74.5955	3,137.7	74.6529	3,137.7	73.5102	3,137.7	73.9359	3,137.7	69.9719	3,137.7	72.646	3,137.7	72.6736	3,137.7	71.3143	3,137.7	70.7904	3,137.7	71.3812	3,137.7	70.2988	3,137.7	70.3649	3,137.7	67.8458	3,137.7	72.5186	3,137.7	65.9663	3,137.7	68.4621	3,137.7	64.7643
3,249.02	85.6502	3,249.02	85.5226	3,249.02	86.0779	3,249.02	85.7112	3,249.02	86.1042	3,249.02	85.367	3,249.02	86.1583	3,249.02	84.4086	3,249.02	85.4263	3,249.02	83.2404	3,249.02	84.1768	3,249.02	80.8092	3,249.02	82.6561	3,249.02	78.6804	3,249.02	80.6776	3,249.02	77.2913	3,249.02	78.9995	3,249.02	74.9326	3,249.02	77.2257	3,249.02	74.1368	3,249.02	74.3585	3,249.02	73.0374	3,249.02	73.2551	3,249.02	69.6593	3,249.02	71.4938	3,249.02	72.317	3,249.02	72.0186	3,249.02	70.2927	3,249.02	70.6084	3,249.02	72.3015	3,249.02	69.8502	3,249.02	68.4678	3,249.02	72.7567	3,249.02	67.6789	3,249.02	69.1479	3,249.02	67.198
3,363.28	85.0419	3,363.28	85.1489	3,363.28	85.7726	3,363.28	85.6657	3,363.28	85.4536	3,363.28	85.4575	3,363.28	85.9578	3,363.28	83.8643	3,363.28	85.0213	3,363.28	83.2276	3,363.28	83.9152	3,363.28	80.822	3,363.28	82.5008	3,363.28	78.3853	3,363.28	80.6873	3,363.28	76.7482	3,363.28	78.2283	3,363.28	73.4825	3,363.28	76.034	3,363.28	71.9888	3,363.28	73.6283	3,363.28	73.0727	3,363.28	71.5566	3,363.28	68.4148	3,363.28	70.7037	3,363.28	70.4722	3,363.28	70.1211	3,363.28	68.2828	3,363.28	71.4986	3,363.28	69.5218	3,363.28	68.0179	3,363.28	68.1091	3,363.28	71.9756	3,363.28	65.2689	3,363.28	71.1923	3,363.28	63.7535
3,481.93	84.8225	3,481.93	84.9377	3,481.93	85.2161	3,481.93	84.8953	3,481.93	85.3514	3,481.93	84.6899	3,481.93	85.2584	3,481.93	84.1797	3,481.93	85.0695	3,481.93	83.7835	3,481.93	84.1799	3,481.93	81.9065	3,481.93	82.2796	3,481.93	79.7296	3,481.93	80.0981	3,481.93	77.4343	3,481.93	78.0696	3,481.93	75.6497	3,481.93	76.6568	3,481.93	73.2946	3,481.93	73.9335	3,481.93	72.2649	3,481.93	72.3928	3,481.93	69.5497	3,481.93	71.2139	3,481.93	72.3789	3,481.93	69.141	3,481.93	69.5742	3,481.93	72.5279	3,481.93	71.2399	3,481.93	67.3562	3,481.93	69.4138	3,481.93	71.1216	3,481.93	66.6038	3,481.93	69.5609	3,481.93	65.1454
3,604.98	85.3467	3,604.98	85.9903	3,604.98	85.2697	3,604.98	86.0645	3,604.98	86.4852	3,604.98	85.2643	3,604.98	86.6547	3,604.98	84.964	3,604.98	85.9746	3,604.98	83.0348	3,604.98	84.7242	3,604.98	81.2666	3,604.98	82.6874	3,604.98	79.9958	3,604.98	81.2071	3,604.98	77.5074	3,604.98	79.0618	3,604.98	76.0375	3,604.98	77.2051	3,604.98	72.2386	3,604.98	75.1358	3,604.98	72.3078	3,604.98	73.7291	3,604.98	69.0621	3,604.98	72.5824	3,604.98	70.3402	3,604.98	70.2608	3,604.98	71.3774	3,604.98	72.3175	3,604.98	70.7613	3,604.98	69.5518	3,604.98	67.8658	3,604.98	71.1669	3,604.98	62.2704	3,604.98	68.4663	3,604.98	65.5186
3,732.42	86.2039	3,732.42	86.7386	3,732.42	85.5961	3,732.42	86.8503	3,732.42	86.3407	3,732.42	86.1607	3,732.42	86.2387	3,732.42	85.8053	3,732.42	85.7777	3,732.42	83.4387	3,732.42	84.6032	3,732.42	81.4885	3,732.42	82.6104	3,732.42	79.9808	3,732.42	81.3012	3,732.42	77.9145	3,732.42	78.6319	3,732.42	75.7112	3,732.42	76.5513	3,732.42	72.5787	3,732.42	74.4114	3,732.42	72.6177	3,732.42	72.7163	3,732.42	69.893	3,732.42	71.2327	3,732.42	68.937	3,732.42	69.1932	3,732.42	70.8046	3,732.42	69.8518	3,732.42	69.8261	3,732.42	69.5066	3,732.42	69.6523	3,732.42	71.1927	3,732.42	61.3498	3,732.42	68.3619	3,732.42	64.8414
3,864.26	85.4939	3,864.26	85.7654	3,864.26	85.2253	3,864.26	85.5902	3,864.26	84.8236	3,864.26	85.0157	3,864.26	84.4069	3,864.26	84.2315	3,864.26	83.6457	3,864.26	82.4268	3,864.26	82.8601	3,864.26	80.9453	3,864.26	81.9275	3,864.26	79.8449	3,864.26	80.1934	3,864.26	77.7837	3,864.26	78.0587	3,864.26	75.0653	3,864.26	76.1114	3,864.26	73.6556	3,864.26	73.8099	3,864.26	71.4681	3,864.26	70.8087	3,864.26	70.9486	3,864.26	71.6395	3,864.26	69.8346	3,864.26	66.2854	3,864.26	70.8388	3,864.26	69.5906	3,864.26	70.7836	3,864.26	67.7902	3,864.26	69.9764	3,864.26	68.153	3,864.26	62.1276	3,864.26	68.4485	3,864.26	65.7162
4,000.49	86.2328	4,000.49	85.3254	4,000.49	86.6878	4,000.49	85.0173	4,000.49	85.6095	4,000.49	83.9801	4,000.49	84.8778	4,000.49	82.8225	4,000.49	84.3818	4,000.49	81.8735	4,000.49	83.4938	4,000.49	80.0188	4,000.49	82.5745	4,000.49	78.0566	4,000.49	80.4864	4,000.49	76.7187	4,000.49	78.4513	4,000.49	73.6046	4,000.49	76.3579	4,000.49	72.0031	4,000.49	74.3449	4,000.49	70.8871	4,000.49	73.0128	4,000.49	69.3272	4,000.49	70.6686	4,000.49	68.8247	4,000.49	68.8088	4,000.49	70.8702	4,000.49	71.03	4,000.49	70.2173	4,000.49	70.489	4,000.49	69.4336	4,000.49	69.1871	4,000.49	61.8145	4,000.49	68.5785	4,000.49	62.1611
4,141.11	86.8173	4,141.11	85.853	4,141.11	86.6558	4,141.11	85.4296	4,141.11	85.8061	4,141.11	84.4567	4,141.11	84.573	4,141.11	83.3983	4,141.11	84.099	4,141.11	82.4029	4,141.11	83.2859	4,141.11	81.3435	4,141.11	81.8959	4,141.11	79.3193	4,141.11	79.2583	4,141.11	75.2698	4,141.11	78.4152	4,141.11	74.0826	4,141.11	75.6199	4,141.11	71.8809	4,141.11	73.0366	4,141.11	70.6193	4,141.11	70.9653	4,141.11	68.9861	4,141.11	69.1421	4,141.11	68.1925	4,141.11	67.8373	4,141.11	69.9342	4,141.11	68.5088	4,141.11	66.5088	4,141.11	69.9125	4,141.11	69.6614	4,141.11	69.1421	4,141.11	60.3071	4,141.11	67.7059	4,141.11	58.0282
4,287.6	85.4803	4,287.6	85.1924	4,287.6	85.2602	4,287.6	83.6242	4,287.6	85.2962	4,287.6	83.9363	4,287.6	84.1898	4,287.6	83.5215	4,287.6	84.0579	4,287.6	82.4588	4,287.6	82.8528	4,287.6	80.5718	4,287.6	81.1832	4,287.6	77.4894	4,287.6	78.9228	4,287.6	74.829	4,287.6	77.1367	4,287.6	73.4714	4,287.6	74.9551	4,287.6	73.0157	4,287.6	73.6428	4,287.6	68.9431	4,287.6	69.9404	4,287.6	68.5777	4,287.6	68.4526	4,287.6	65.4342	4,287.6	67.7056	4,287.6	69.59	4,287.6	65.7473	4,287.6	67.5827	4,287.6	69.6162	4,287.6	69.0241	4,287.6	67.513	4,287.6	62.1395	4,287.6	67.8561	4,287.6	61.2395
4,438.48	85.9163	4,438.48	85.1904	4,438.48	86.1189	4,438.48	85.045	4,438.48	85.0758	4,438.48	84.2826	4,438.48	84.8384	4,438.48	84.2659	4,438.48	83.542	4,438.48	83.0586	4,438.48	82.4154	4,438.48	81.1945	4,438.48	80.8999	4,438.48	78.8043	4,438.48	79.187	4,438.48	76.2471	4,438.48	77.7984	4,438.48	73.3225	4,438.48	74.3471	4,438.48	71.3753	4,438.48	72.7662	4,438.48	69.1423	4,438.48	70.7596	4,438.48	68.4461	4,438.48	68.5991	4,438.48	66.843	4,438.48	65.6274	4,438.48	70.1822	4,438.48	65.5856	4,438.48	66.8973	4,438.48	69.8979	4,438.48	65.5883	4,438.48	66.2522	4,438.48	61.6048	4,438.48	67.1894	4,438.48	62.3098
4,595.21	85.6461	4,595.21	84.8237	4,595.21	85.4479	4,595.21	84.5486	4,595.21	84.3137	4,595.21	83.983	4,595.21	84.0552	4,595.21	83.0053	4,595.21	83.0279	4,595.21	81.5598	4,595.21	81.9115	4,595.21	80.8449	4,595.21	80.9452	4,595.21	79.1066	4,595.21	79.4222	4,595.21	76.0435	4,595.21	76.9959	4,595.21	74.6243	4,595.21	75.0691	4,595.21	69.3673	4,595.21	73.0497	4,595.21	70.4044	4,595.21	69.5931	4,595.21	68.7953	4,595.21	67.63	4,595.21	69.7509	4,595.21	68.4229	4,595.21	71.3199	4,595.21	65.1289	4,595.21	68.6726	4,595.21	69.3144	4,595.21	68.8216	4,595.21	65.2001	4,595.21	63.0798	4,595.21	67.4907	4,595.21	61.5834
4,756.35	86.0241	4,756.35	86.0345	4,756.35	85.2712	4,756.35	84.4862	4,756.35	85.4886	4,756.35	84.6753	4,756.35	84.0202	4,756.35	83.7908	4,756.35	84.1373	4,756.35	82.6777	4,756.35	84.2327	4,756.35	81.168	4,756.35	82.2619	4,756.35	78.3696	4,756.35	80.3581	4,756.35	76.0028	4,756.35	78.6325	4,756.35	73.5098	4,756.35	75.8501	4,756.35	73.5174	4,756.35	73.0552	4,756.35	70.6622	4,756.35	70.9083	4,756.35	67.1043	4,756.35	70.0652	4,756.35	66.5932	4,756.35	66.0146	4,756.35	70.1832	4,756.35	66.9394	4,756.35	67.1791	4,756.35	70.6779	4,756.35	68.6587	4,756.35	67.1947	4,756.35	58.2066	4,756.35	67.6318	4,756.35	59.8713
4,924.8	86.2939	4,924.8	85.7237	4,924.8	86.2562	4,924.8	85.2942	4,924.8	85.0369	4,924.8	84.5957	4,924.8	84.8496	4,924.8	84.6765	4,924.8	84.3813	4,924.8	83.7912	4,924.8	84.2845	4,924.8	82.4478	4,924.8	82.6497	4,924.8	79.3873	4,924.8	80.4018	4,924.8	77.5012	4,924.8	78.4458	4,924.8	74.3971	4,924.8	76.1044	4,924.8	74.1644	4,924.8	73.4597	4,924.8	70.6881	4,924.8	71.383	4,924.8	67.8044	4,924.8	68.8948	4,924.8	66.9596	4,924.8	69.0154	4,924.8	67.6792	4,924.8	68.2079	4,924.8	67.9172	4,924.8	69.977	4,924.8	67.9828	4,924.8	68.1444	4,924.8	54.159	4,924.8	67.2265	4,924.8	60.2792
5,097.66	86.0475	5,097.66	85.609	5,097.66	86.1679	5,097.66	85.882	5,097.66	85.4222	5,097.66	84.8796	5,097.66	85.0502	5,097.66	84.7406	5,097.66	83.8174	5,097.66	83.3625	5,097.66	82.7483	5,097.66	81.0735	5,097.66	82.0802	5,097.66	77.5889	5,097.66	80.2138	5,097.66	77.5959	5,097.66	77.8461	5,097.66	73.2975	5,097.66	76.4915	5,097.66	70.72	5,097.66	73.019	5,097.66	68.6134	5,097.66	70.4745	5,097.66	69.8251	5,097.66	69.1337	5,097.66	70.3274	5,097.66	68.1752	5,097.66	68.976	5,097.66	67.3327	5,097.66	70.2526	5,097.66	70.36	5,097.66	68.628	5,097.66	65.8224	5,097.66	58.208	5,097.66	67.4482	5,097.66	55.6475
5,277.83	85.951	5,277.83	85.375	5,277.83	85.0211	5,277.83	85.0502	5,277.83	85.6253	5,277.83	84.9982	5,277.83	83.9987	5,277.83	83.6912	5,277.83	84.2015	5,277.83	83.1354	5,277.83	83.4013	5,277.83	81.5268	5,277.83	81.6677	5,277.83	81.317	5,277.83	79.9274	5,277.83	76.7174	5,277.83	78.4832	5,277.83	75.6849	5,277.83	75.07	5,277.83	71.077	5,277.83	72.2523	5,277.83	67.9722	5,277.83	70.0951	5,277.83	68.9006	5,277.83	67.5779	5,277.83	65.2916	5,277.83	67.27	5,277.83	68.7519	5,277.83	64.2571	5,277.83	65.8502	5,277.83	68.1505	5,277.83	67.5774	5,277.83	66.1885	5,277.83	58.0816	5,277.83	68.5606	5,277.83	57.2113
5,463.87	85.4736	5,463.87	85.1911	5,463.87	85.7346	5,463.87	84.9248	5,463.87	84.9822	5,463.87	83.8455	5,463.87	84.8479	5,463.87	83.1572	5,463.87	83.8218	5,463.87	82.1457	5,463.87	83.2064	5,463.87	80.0502	5,463.87	81.9123	5,463.87	78.9549	5,463.87	80.4051	5,463.87	75.7854	5,463.87	78.3482	5,463.87	74.2852	5,463.87	75.7004	5,463.87	73.8496	5,463.87	73.4235	5,463.87	69.6799	5,463.87	71.0767	5,463.87	69.0434	5,463.87	67.4617	5,463.87	67.9383	5,463.87	68.3726	5,463.87	68.0457	5,463.87	66.4097	5,463.87	67.6924	5,463.87	67.9826	5,463.87	68.9235	5,463.87	69.2305	5,463.87	54.0636	5,463.87	66.7611	5,463.87	54.7056
5,657.23	84.8241	5,657.23	85.066	5,657.23	85.1209	5,657.23	84.8931	5,657.23	84.3088	5,657.23	84.55	5,657.23	84.2962	5,657.23	84.5896	5,657.23	83.3472	5,657.23	83.1311	5,657.23	81.8069	5,657.23	81.6414	5,657.23	81.6797	5,657.23	78.5349	5,657.23	80.4283	5,657.23	77.7644	5,657.23	76.1851	5,657.23	74.3161	5,657.23	75.7746	5,657.23	72.1843	5,657.23	73.1796	5,657.23	71.482	5,657.23	69.623	5,657.23	69.1712	5,657.23	67.6589	5,657.23	68.3604	5,657.23	69.1547	5,657.23	66.455	5,657.23	65.3297	5,657.23	69.6229	5,657.23	67.9189	5,657.23	66.8057	5,657.23	68.9147	5,657.23	45.9804	5,657.23	66.796	5,657.23	53.695
5,856.45	85.1365	5,856.45	85.1138	5,856.45	84.7057	5,856.45	84.1612	5,856.45	85.101	5,856.45	83.3524	5,856.45	83.8286	5,856.45	82.7468	5,856.45	83.576	5,856.45	82.2919	5,856.45	83.1928	5,856.45	81.5841	5,856.45	81.7647	5,856.45	80.2937	5,856.45	78.7567	5,856.45	77.7213	5,856.45	79.9032	5,856.45	75.0106	5,856.45	75.8199	5,856.45	71.1384	5,856.45	73.8625	5,856.45	69.86	5,856.45	70.8161	5,856.45	69.0598	5,856.45	67.8185	5,856.45	69.0601	5,856.45	67.2674	5,856.45	66.7995	5,856.45	64.5026	5,856.45	67.706	5,856.45	66.3487	5,856.45	65.6534	5,856.45	67.0536	5,856.45	51.7564	5,856.45	65.7064	5,856.45	54.6773
6,062.99	84.9844	6,062.99	84.722	6,062.99	85.2895	6,062.99	84.2138	6,062.99	85.0029	6,062.99	83.909	6,062.99	83.9193	6,062.99	83.3051	6,062.99	82.7527	6,062.99	83.2756	6,062.99	82.9124	6,062.99	81.9068	6,062.99	83.0254	6,062.99	81.7211	6,062.99	82.0094	6,062.99	77.7295	6,062.99	79.9115	6,062.99	75.2737	6,062.99	76.7669	6,062.99	71.4305	6,062.99	73.8574	6,062.99	69.3378	6,062.99	71.8203	6,062.99	66.9926	6,062.99	68.089	6,062.99	67.3778	6,062.99	68.4746	6,062.99	68.8388	6,062.99	67.3942	6,062.99	69.0682	6,062.99	68.0787	6,062.99	64.2005	6,062.99	68.3203	6,062.99	51.1312	6,062.99	64.4204	6,062.99	56.4268
6,276.86	85.1975	6,276.86	85.0995	6,276.86	85.3378	6,276.86	84.4561	6,276.86	84.9149	6,276.86	82.925	6,276.86	84.3196	6,276.86	82.9347	6,276.86	82.7552	6,276.86	82.0451	6,276.86	82.1131	6,276.86	81.1513	6,276.86	82.0678	6,276.86	78.9855	6,276.86	81.3618	6,276.86	77.0817	6,276.86	78.4071	6,276.86	74.2048	6,276.86	75.9151	6,276.86	72.5263	6,276.86	73.3783	6,276.86	71.1904	6,276.86	70.1679	6,276.86	69.0781	6,276.86	68.3836	6,276.86	67.4469	6,276.86	68.8028	6,276.86	67.7924	6,276.86	65.6132	6,276.86	67.6408	6,276.86	68.3448	6,276.86	65.5949	6,276.86	67.8075	6,276.86	43.022	6,276.86	66.0042	6,276.86	56.5681
6,498.05	85.3983	6,498.05	84.9908	6,498.05	84.9577	6,498.05	83.9069	6,498.05	85.3323	6,498.05	82.4928	6,498.05	83.7029	6,498.05	82.215	6,498.05	83.5384	6,498.05	81.8202	6,498.05	83.2786	6,498.05	80.8286	6,498.05	82.2289	6,498.05	78.0755	6,498.05	80.4114	6,498.05	75.4974	6,498.05	79.0022	6,498.05	73.3974	6,498.05	76.0494	6,498.05	69.7209	6,498.05	72.6235	6,498.05	68.6638	6,498.05	70.9694	6,498.05	64.8892	6,498.05	67.8644	6,498.05	65.1789	6,498.05	66.6135	6,498.05	64.5046	6,498.05	65.1873	6,498.05	68.7529	6,498.05	65.1043	6,498.05	62.9325	6,498.05	67.9828	6,498.05	52.5871	6,498.05	64.1455	6,498.05	55.2188
6,726.56	85.019	6,726.56	84.8195	6,726.56	85.1645	6,726.56	83.952	6,726.56	84.6644	6,726.56	83.0389	6,726.56	83.4322	6,726.56	82.9102	6,726.56	82.7244	6,726.56	83.4544	6,726.56	82.6265	6,726.56	80.5172	6,726.56	82.2218	6,726.56	78.7824	6,726.56	80.9619	6,726.56	76.6398	6,726.56	78.1358	6,726.56	73.7637	6,726.56	75.7976	6,726.56	70.3956	6,726.56	72.2256	6,726.56	66.224	6,726.56	70.37	6,726.56	62.3603	6,726.56	65.3822	6,726.56	65.4516	6,726.56	66.5319	6,726.56	67.9334	6,726.56	66.0286	6,726.56	69.6002	6,726.56	67.2904	6,726.56	61.0292	6,726.56	67.0537	6,726.56	50.4673	6,726.56	63.621	6,726.56	50.7894
6,963.87	84.9616	6,963.87	84.4215	6,963.87	84.982	6,963.87	83.538	6,963.87	84.095	6,963.87	83.1401	6,963.87	83.4594	6,963.87	83.3088	6,963.87	82.9136	6,963.87	81.8542	6,963.87	82.0674	6,963.87	81.5041	6,963.87	81.4214	6,963.87	79.8267	6,963.87	80.0847	6,963.87	76.4783	6,963.87	77.2212	6,963.87	72.9732	6,963.87	74.8267	6,963.87	70.2003	6,963.87	71.7799	6,963.87	66.852	6,963.87	67.5897	6,963.87	64.428	6,963.87	67.091	6,963.87	64.6552	6,963.87	65.8384	6,963.87	63.2611	6,963.87	63.0247	6,963.87	67.8941	6,963.87	66.3231	6,963.87	61.5572	6,963.87	65.4957	6,963.87	41.8517	6,963.87	62.8526	6,963.87	53.3279
7,209.96	85.5208	7,209.96	84.4837	7,209.96	85.6263	7,209.96	83.5348	7,209.96	84.6197	7,209.96	84.0651	7,209.96	84.4191	7,209.96	83.7733	7,209.96	84.4083	7,209.96	83.2478	7,209.96	84.4929	7,209.96	82.4074	7,209.96	82.9578	7,209.96	80.0531	7,209.96	80.7205	7,209.96	77.1762	7,209.96	78.6477	7,209.96	74.3349	7,209.96	75.3947	7,209.96	70.1575	7,209.96	73.4822	7,209.96	66.4346	7,209.96	70.156	7,209.96	65.973	7,209.96	65.9593	7,209.96	68.2073	7,209.96	66.3432	7,209.96	66.3482	7,209.96	65.3677	7,209.96	68.9424	7,209.96	65.7902	7,209.96	60.9621	7,209.96	67.2266	7,209.96	48.6227	7,209.96	63.0101	7,209.96	51.5421
7,464.84	85.4472	7,464.84	84.572	7,464.84	85.3629	7,464.84	84.1887	7,464.84	84.6411	7,464.84	84.4138	7,464.84	84.5838	7,464.84	84.1685	7,464.84	83.666	7,464.84	84.2306	7,464.84	83.2267	7,464.84	81.8132	7,464.84	82.1827	7,464.84	80.2042	7,464.84	80.982	7,464.84	77.217	7,464.84	78.127	7,464.84	75.6945	7,464.84	75.3027	7,464.84	70.7897	7,464.84	72.8538	7,464.84	64.4645	7,464.84	69.4152	7,464.84	66.0943	7,464.84	66.9168	7,464.84	68.8046	7,464.84	65.6657	7,464.84	66.8214	7,464.84	64.9363	7,464.84	68.2135	7,464.84	67.1922	7,464.84	59.5673	7,464.84	67.6441	7,464.84	41.7202	7,464.84	63.4331	7,464.84	45.0283
7,727.05	86.5711	7,727.05	86.1419	7,727.05	85.9734	7,727.05	85.4572	7,727.05	85.8996	7,727.05	85.5251	7,727.05	85.7372	7,727.05	84.8284	7,727.05	84.8441	7,727.05	83.4756	7,727.05	83.8376	7,727.05	82.5614	7,727.05	83.3432	7,727.05	80.5491	7,727.05	81.1521	7,727.05	76.6949	7,727.05	79.6034	7,727.05	74.355	7,727.05	76.3847	7,727.05	69.6386	7,727.05	73.6081	7,727.05	66.5859	7,727.05	69.8851	7,727.05	67.4587	7,727.05	68.5496	7,727.05	66.6686	7,727.05	66.0572	7,727.05	66.7058	7,727.05	64.3884	7,727.05	67.958	7,727.05	65.2322	7,727.05	59.6459	7,727.05	67.6233	7,727.05	46.471	7,727.05	63.2117	7,727.05	54.8309
7,999.51	86.9676	7,999.51	86.3761	7,999.51	86.5245	7,999.51	86.4367	7,999.51	86.2427	7,999.51	86.3226	7,999.51	85.8309	7,999.51	85.0891	7,999.51	85.0156	7,999.51	84.2195	7,999.51	84.1749	7,999.51	82.9372	7,999.51	83.2303	7,999.51	80.482	7,999.51	81.2011	7,999.51	78.1912	7,999.51	78.7822	7,999.51	74.3649	7,999.51	75.8551	7,999.51	71.6766	7,999.51	73.3543	7,999.51	69.7714	7,999.51	69.3172	7,999.51	67.0623	7,999.51	67.0463	7,999.51	67.2246	7,999.51	63.3906	7,999.51	66.7071	7,999.51	63.0211	7,999.51	68.169	7,999.51	65.0658	7,999.51	58.9907	7,999.51	66.883	7,999.51	51.254	7,999.51	61.1464	7,999.51	56.6221
8,282.23	86.624	8,282.23	85.991	8,282.23	86.5908	8,282.23	85.8458	8,282.23	86.4762	8,282.23	85.4247	8,282.23	86.0878	8,282.23	84.3861	8,282.23	85.0371	8,282.23	83.2857	8,282.23	83.8526	8,282.23	81.5892	8,282.23	83.0958	8,282.23	78.7686	8,282.23	80.9609	8,282.23	76.6837	8,282.23	79.4099	8,282.23	73.827	8,282.23	75.9858	8,282.23	70.844	8,282.23	72.68	8,282.23	68.2573	8,282.23	68.9535	8,282.23	65.7492	8,282.23	67.3737	8,282.23	65.7194	8,282.23	63.9341	8,282.23	65.6344	8,282.23	62.3491	8,282.23	66.3284	8,282.23	65.3781	8,282.23	54.3109	8,282.23	67.3049	8,282.23	40.6952	8,282.23	62.448	8,282.23	57.0448
8,573.73	84.922	8,573.73	84.9346	8,573.73	85.5137	8,573.73	84.6219	8,573.73	85.3207	8,573.73	83.8867	8,573.73	84.4356	8,573.73	83.2025	8,573.73	84.0363	8,573.73	81.2854	8,573.73	82.797	8,573.73	80.3528	8,573.73	82.0223	8,573.73	77.9091	8,573.73	79.9302	8,573.73	75.2644	8,573.73	77.8167	8,573.73	70.8713	8,573.73	74.3514	8,573.73	67.371	8,573.73	71.6591	8,573.73	65.1566	8,573.73	68.2633	8,573.73	63.6105	8,573.73	64.9514	8,573.73	63.2782	8,573.73	62.3398	8,573.73	62.7201	8,573.73	61.0326	8,573.73	63.2176	8,573.73	63.8363	8,573.73	50.8909	8,573.73	66.4239	8,573.73	45.2915	8,573.73	58.3795	8,573.73	57.8487
8,876.95	84.8373	8,876.95	84.5897	8,876.95	84.853	8,876.95	83.2961	8,876.95	85.0137	8,876.95	82.3722	8,876.95	84.1783	8,876.95	81.1645	8,876.95	82.3585	8,876.95	80.4136	8,876.95	81.3236	8,876.95	78.4834	8,876.95	80.4381	8,876.95	77.111	8,876.95	78.8926	8,876.95	73.1362	8,876.95	76.7413	8,876.95	69.8416	8,876.95	73.3607	8,876.95	68.446	8,876.95	69.5658	8,876.95	65.1789	8,876.95	67.1268	8,876.95	55.8818	8,876.95	63.3289	8,876.95	60.5881	8,876.95	59.6743	8,876.95	60.6054	8,876.95	58.4958	8,876.95	62.6128	8,876.95	62.1214	8,876.95	52.6437	8,876.95	64.4514	8,876.95	34.742	8,876.95	55.3503	8,876.95	57.5195
9,188.96	84.025	9,188.96	84.7351	9,188.96	84.2298	9,188.96	84.3141	9,188.96	84.2971	9,188.96	83.2069	9,188.96	82.8972	9,188.96	81.8823	9,188.96	82.1427	9,188.96	80.1581	9,188.96	80.4054	9,188.96	78.8911	9,188.96	79.5157	9,188.96	76.4331	9,188.96	78.1012	9,188.96	73.4234	9,188.96	74.9696	9,188.96	70.8341	9,188.96	71.8463	9,188.96	66.2954	9,188.96	68.3454	9,188.96	60.3848	9,188.96	65.8374	9,188.96	57.9755	9,188.96	60.8988	9,188.96	58.95	9,188.96	62.1106	9,188.96	60.335	9,188.96	56.8169	9,188.96	62.628	9,188.96	60.2113	9,188.96	53.6996	9,188.96	63.4687	9,188.96	34.383	9,188.96	56.6737	9,188.96	57.7462
9,514.16	84.7965	9,514.16	85.439	9,514.16	85.1751	9,514.16	84.2817	9,514.16	84.9403	9,514.16	82.8256	9,514.16	84.0656	9,514.16	80.6237	9,514.16	82.2055	9,514.16	79.4151	9,514.16	80.2801	9,514.16	77.4345	9,514.16	78.8286	9,514.16	75.578	9,514.16	76.7991	9,514.16	71.5736	9,514.16	73.592	9,514.16	69.5909	9,514.16	70.9968	9,514.16	65.2733	9,514.16	67.8059	9,514.16	58.6833	9,514.16	63.9606	9,514.16	56.4234	9,514.16	59.9551	9,514.16	59.8286	9,514.16	62.0213	9,514.16	60.6097	9,514.16	57.5218	9,514.16	62.4167	9,514.16	58.2608	9,514.16	54.9178	9,514.16	63.1869	9,514.16	49.3913	9,514.16	55.6309	9,514.16	54.768
9,849.61	84.571	9,849.61	85.1161	9,849.61	84.9268	9,849.61	84.3002	9,849.61	84.8569	9,849.61	82.225	9,849.61	83.17	9,849.61	80.5593	9,849.61	81.274	9,849.61	78.6734	9,849.61	79.4328	9,849.61	77.1048	9,849.61	78.9414	9,849.61	74.2951	9,849.61	77.3416	9,849.61	71.8387	9,849.61	73.4729	9,849.61	68.9389	9,849.61	70.6727	9,849.61	61.0681	9,849.61	67.2399	9,849.61	59.5152	9,849.61	62.7106	9,849.61	59.4945	9,849.61	61.2314	9,849.61	55.5843	9,849.61	61.2814	9,849.61	58.4905	9,849.61	54.227	9,849.61	63.1378	9,849.61	58.8392	9,849.61	53.8328	9,849.61	62.91	9,849.61	47.346	9,849.61	55.864	9,849.61	54.2892
10,196.8	85.1392	10,196.8	85.5474	10,196.8	85.2741	10,196.8	84.2191	10,196.8	85.0465	10,196.8	82.4736	10,196.8	83.7327	10,196.8	80.6421	10,196.8	82.1891	10,196.8	79.1073	10,196.8	80.0744	10,196.8	76.6732	10,196.8	78.3968	10,196.8	74.1305	10,196.8	76.6093	10,196.8	70.3726	10,196.8	73.3324	10,196.8	66.2177	10,196.8	70.2096	10,196.8	62.4169	10,196.8	66.0232	10,196.8	60.085	10,196.8	63.4931	10,196.8	56.1472	10,196.8	62.2843	10,196.8	53.664	10,196.8	54.7579	10,196.8	53.852	10,196.8	46.6074	10,196.8	60.0429	10,196.8	59.036	10,196.8	55.9026	10,196.8	62.8406	10,196.8	54.8784	10,196.8	56.9448	10,196.8	53.1471
10,555.7	85.4026	10,555.7	85.5592	10,555.7	85.4842	10,555.7	84.7955	10,555.7	85.3774	10,555.7	83.3295	10,555.7	84.042	10,555.7	81.3828	10,555.7	82.0138	10,555.7	79.1239	10,555.7	80.6961	10,555.7	77.843	10,555.7	78.3187	10,555.7	74.0257	10,555.7	75.591	10,555.7	71.7818	10,555.7	72.7078	10,555.7	66.1871	10,555.7	69.1871	10,555.7	64.576	10,555.7	65.6045	10,555.7	62.1804	10,555.7	63.6175	10,555.7	58.7363	10,555.7	59.9994	10,555.7	54.8974	10,555.7	53.15	10,555.7	54.8977	10,555.7	46.8826	10,555.7	59.909	10,555.7	57.5567	10,555.7	54.7745	10,555.7	61.573	10,555.7	51.617	10,555.7	55.1958	10,555.7	54.6939
10,927.7	85.8483	10,927.7	85.8703	10,927.7	85.8686	10,927.7	84.5865	10,927.7	85.3839	10,927.7	82.6383	10,927.7	84.2146	10,927.7	81.1036	10,927.7	82.5397	10,927.7	78.9154	10,927.7	80.4071	10,927.7	76.2586	10,927.7	78.5277	10,927.7	72.7315	10,927.7	75.4091	10,927.7	68.5625	10,927.7	72.8258	10,927.7	65.5517	10,927.7	68.772	10,927.7	62.3317	10,927.7	66.0388	10,927.7	59.857	10,927.7	62.1656	10,927.7	56.9528	10,927.7	59.2646	10,927.7	51.781	10,927.7	56.0001	10,927.7	53.24	10,927.7	48.9656	10,927.7	54.1015	10,927.7	55.5648	10,927.7	53.7593	10,927.7	62.046	10,927.7	47.8849	10,927.7	56.1743	10,927.7	52.2335
11,313	85.9931	11,313	85.4414	11,313	85.7507	11,313	84.4369	11,313	85.4966	11,313	82.9709	11,313	84.3198	11,313	80.8263	11,313	82.5941	11,313	77.3494	11,313	80.4265	11,313	75.4677	11,313	78.7377	11,313	71.8459	11,313	76.4476	11,313	67.9768	11,313	72.7443	11,313	64.489	11,313	69.5256	11,313	61.9277	11,313	65.4303	11,313	59.1662	11,313	63.3772	11,313	53.5764	11,313	59.7103	11,313	45.4321	11,313	56.9725	11,313	54.2444	11,313	47.6849	11,313	53.1749	11,313	56.9066	11,313	48.6956	11,313	60.4912	11,313	48.4662	11,313	54.6756	11,313	53.9495
11,712.9	86.0407	11,712.9	85.3454	11,712.9	85.6817	11,712.9	84.2304	11,712.9	85.4947	11,712.9	82.2749	11,712.9	84.4907	11,712.9	80.0628	11,712.9	82.3451	11,712.9	77.1871	11,712.9	80.1884	11,712.9	74.4854	11,712.9	77.7578	11,712.9	70.6995	11,712.9	75.4649	11,712.9	67.3123	11,712.9	71.8598	11,712.9	64.1277	11,712.9	68.0324	11,712.9	60.584	11,712.9	65.1428	11,712.9	57.1682	11,712.9	61.7902	11,712.9	51.6449	11,712.9	59.5823	11,712.9	49.9456	11,712.9	57.8411	11,712.9	51.1074	11,712.9	48.6814	11,712.9	49.8768	11,712.9	54.1039	11,712.9	44.6673	11,712.9	58.4852	11,712.9	47.4686	11,712.9	52.9692	11,712.9	54.0094
12,126	86.2392	12,126	85.5966	12,126	85.9978	12,126	84.2343	12,126	85.4215	12,126	82.3041	12,126	84.0343	12,126	79.6898	12,126	82.1002	12,126	76.855	12,126	79.273	12,126	74.1825	12,126	76.8018	12,126	70.817	12,126	73.882	12,126	66.5704	12,126	69.4427	12,126	65.2029	12,126	66.5089	12,126	61.214	12,126	63.5013	12,126	58.8898	12,126	60.7988	12,126	56.0475	12,126	59.5387	12,126	52.105	12,126	54.4196	12,126	48.7629	12,126	47.0736	12,126	48.5065	12,126	49.4171	12,126	41.9454	12,126	55.1719	12,126	45.2051	12,126	50.8762	12,126	52.7404
12,553.7	86.3733	12,553.7	85.6015	12,553.7	86.1606	12,553.7	84.3227	12,553.7	85.1792	12,553.7	82.3399	12,553.7	83.7818	12,553.7	79.5829	12,553.7	81.7119	12,553.7	76.3351	12,553.7	78.6945	12,553.7	73.8229	12,553.7	75.6088	12,553.7	70.6882	12,553.7	72.4802	12,553.7	68.344	12,553.7	69.6644	12,553.7	65.4701	12,553.7	66.4545	12,553.7	60.9884	12,553.7	63.226	12,553.7	59.9269	12,553.7	60.8134	12,553.7	56.0594	12,553.7	57.3854	12,553.7	47.4924	12,553.7	53.2299	12,553.7	49.5008	12,553.7	49.6791	12,553.7	46.4478	12,553.7	47.7412	12,553.7	30.9846	12,553.7	55.0701	12,553.7	43.1435	12,553.7	47.3855	12,553.7	51.4647
12,996.1	86.5601	12,996.1	85.6646	12,996.1	86.2731	12,996.1	84.2794	12,996.1	85.3328	12,996.1	82.3814	12,996.1	83.9498	12,996.1	79.4357	12,996.1	81.5689	12,996.1	76.2531	12,996.1	78.6433	12,996.1	73.9002	12,996.1	75.603	12,996.1	71.3976	12,996.1	72.7543	12,996.1	68.4022	12,996.1	70.2328	12,996.1	66.0125	12,996.1	67.0107	12,996.1	61.2043	12,996.1	64.4574	12,996.1	59.7511	12,996.1	60.7809	12,996.1	56.6049	12,996.1	57.8124	12,996.1	44.211	12,996.1	55.3868	12,996.1	47.6547	12,996.1	49.2828	12,996.1	43.9726	12,996.1	49.4435	12,996.1	34.0134	12,996.1	54.6072	12,996.1	45.7274	12,996.1	50.4213	12,996.1	49.4986
13,454.6	86.8148	13,454.6	85.9697	13,454.6	86.6613	13,454.6	84.5429	13,454.6	85.5717	13,454.6	82.5523	13,454.6	84.2185	13,454.6	79.7179	13,454.6	81.7771	13,454.6	76.2289	13,454.6	78.4855	13,454.6	73.8452	13,454.6	75.5801	13,454.6	71.9108	13,454.6	72.8331	13,454.6	68.3623	13,454.6	70.3972	13,454.6	65.9703	13,454.6	67.1479	13,454.6	61.3645	13,454.6	63.9112	13,454.6	58.944	13,454.6	60.8668	13,454.6	56.1977	13,454.6	57.0734	13,454.6	48.0955	13,454.6	54.1086	13,454.6	45.0524	13,454.6	48.5078	13,454.6	37.1151	13,454.6	49.2253	13,454.6	40.4313	13,454.6	53.3808	13,454.6	46.7761	13,454.6	51.5311	13,454.6	47.6687
13,929.2	87.2762	13,929.2	86.3074	13,929.2	87.0887	13,929.2	84.8771	13,929.2	85.9126	13,929.2	82.5906	13,929.2	84.393	13,929.2	79.5831	13,929.2	81.6864	13,929.2	76.0773	13,929.2	78.0729	13,929.2	73.8737	13,929.2	75.1229	13,929.2	71.607	13,929.2	72.5712	13,929.2	68.4369	13,929.2	69.474	13,929.2	64.9308	13,929.2	65.7071	13,929.2	61.3833	13,929.2	62.8972	13,929.2	59.2771	13,929.2	59.6438	13,929.2	55.0623	13,929.2	56.0037	13,929.2	49.716	13,929.2	53.9264	13,929.2	45.2946	13,929.2	48.9356	13,929.2	43.0536	13,929.2	48.5938	13,929.2	37.6727	13,929.2	51.8257	13,929.2	44.5499	13,929.2	51.9551	13,929.2	45.2879
14,419.9	87.6343	14,419.9	86.6942	14,419.9	87.413	14,419.9	85.1257	14,419.9	86.198	14,419.9	82.7999	14,419.9	84.6545	14,419.9	79.4345	14,419.9	81.701	14,419.9	76.0314	14,419.9	77.9846	14,419.9	73.4148	14,419.9	74.7072	14,419.9	70.5829	14,419.9	71.8613	14,419.9	67.853	14,419.9	67.9434	14,419.9	63.7201	14,419.9	64.7773	14,419.9	60.7797	14,419.9	62.3051	14,419.9	57.3761	14,419.9	58.9915	14,419.9	54.6336	14,419.9	55.3454	14,419.9	49.9622	14,419.9	53.6909	14,419.9	45.9026	14,419.9	47.8659	14,419.9	41.5295	14,419.9	48.2788	14,419.9	40.4531	14,419.9	47.6792	14,419.9	39.9333	14,419.9	51.8504	14,419.9	42.4095
14,928.2	87.6798	14,928.2	86.8558	14,928.2	87.5056	14,928.2	85.1868	14,928.2	86.1571	14,928.2	82.7432	14,928.2	84.2192	14,928.2	78.9806	14,928.2	81.1962	14,928.2	75.2613	14,928.2	77.6591	14,928.2	72.3185	14,928.2	73.6652	14,928.2	67.9602	14,928.2	69.444	14,928.2	65.9522	14,928.2	67.5416	14,928.2	62.1455	14,928.2	64.2271	14,928.2	60.5287	14,928.2	61.5801	14,928.2	56.4341	14,928.2	58.3797	14,928.2	52.2541	14,928.2	54.4957	14,928.2	50.1266	14,928.2	52.0739	14,928.2	37.2243	14,928.2	47.026	14,928.2	40.6619	14,928.2	46.6482	14,928.2	43.9224	14,928.2	44.491	14,928.2	28.1013	14,928.2	47.5084	14,928.2	41.8264
15,455.6	87.4588	15,455.6	86.6431	15,455.6	87.2091	15,455.6	84.8532	15,455.6	86.0167	15,455.6	82.2915	15,455.6	84.0263	15,455.6	78.4683	15,455.6	80.5371	15,455.6	74.043	15,455.6	76.4521	15,455.6	70.3558	15,455.6	72.4851	15,455.6	67.7945	15,455.6	68.5832	15,455.6	64.4811	15,455.6	66.1201	15,455.6	61.0643	15,455.6	63.1231	15,455.6	59.3443	15,455.6	61.1647	15,455.6	57.4452	15,455.6	56.8693	15,455.6	52.221	15,455.6	52.5678	15,455.6	48.1958	15,455.6	53.9139	15,455.6	38.0348	15,455.6	47.6624	15,455.6	39.1521	15,455.6	46.4034	15,455.6	45.365	15,455.6	42.9637	15,455.6	35.1799	15,455.6	47.1954	15,455.6	38.4435
16,000.5	87.2468	16,000.5	86.4731	16,000.5	86.9799	16,000.5	84.7077	16,000.5	85.8615	16,000.5	81.5789	16,000.5	83.6205	16,000.5	78.0706	16,000.5	80.0365	16,000.5	72.9238	16,000.5	75.4276	16,000.5	67.8069	16,000.5	69.9569	16,000.5	65.6898	16,000.5	66.4012	16,000.5	63.3036	16,000.5	64.0131	16,000.5	59.7338	16,000.5	61.9419	16,000.5	56.8747	16,000.5	59.9027	16,000.5	54.9415	16,000.5	55.5706	16,000.5	50.0704	16,000.5	52.237	16,000.5	43.291	16,000.5	54.388	16,000.5	40.6251	16,000.5	46.7567	16,000.5	34.9866	16,000.5	43.8543	16,000.5	46.5178	16,000.5	40.6189	16,000.5	41.2698	16,000.5	45.1693	16,000.5	35.7926
16,564.5	87.2329	16,564.5	86.2973	16,564.5	87.0127	16,564.5	84.4176	16,564.5	85.7226	16,564.5	80.8992	16,564.5	83.1689	16,564.5	77.1926	16,564.5	79.3152	16,564.5	70.8606	16,564.5	74.0446	16,564.5	64.1927	16,564.5	67.2322	16,564.5	65.064	16,564.5	64.4896	16,564.5	62.1319	16,564.5	64.8824	16,564.5	58.8064	16,564.5	62.0088	16,564.5	56.423	16,564.5	59.2254	16,564.5	52.523	16,564.5	55.9241	16,564.5	46.845	16,564.5	53.1374	16,564.5	45.3036	16,564.5	54.4856	16,564.5	38.039	16,564.5	46.0219	16,564.5	41.2949	16,564.5	43.1342	16,564.5	46.542	16,564.5	39.2417	16,564.5	42.5431	16,564.5	40.5154	16,564.5	28.4202
17,148.9	87.1894	17,148.9	86.2351	17,148.9	86.98	17,148.9	84.0861	17,148.9	85.4984	17,148.9	80.4319	17,148.9	82.8183	17,148.9	75.366	17,148.9	78.46	17,148.9	67.0262	17,148.9	72.2346	17,148.9	60.7342	17,148.9	63.4678	17,148.9	64.9368	17,148.9	64.7088	17,148.9	63.836	17,148.9	65.4691	17,148.9	59.5542	17,148.9	62.7441	17,148.9	57.1356	17,148.9	59.6427	17,148.9	53.278	17,148.9	55.8073	17,148.9	46.7226	17,148.9	52.798	17,148.9	43.0348	17,148.9	53.3104	17,148.9	34.5546	17,148.9	46.832	17,148.9	41.7292	17,148.9	43.5938	17,148.9	44.5364	17,148.9	42.2463	17,148.9	42.4882	17,148.9	38.5741	17,148.9	34.7271
17,752.4	87.0981	17,752.4	85.9802	17,752.4	86.8496	17,752.4	83.534	17,752.4	85.1862	17,752.4	79.3264	17,752.4	82.1284	17,752.4	73.2101	17,752.4	77.3915	17,752.4	61.717	17,752.4	69.8309	17,752.4	64.7417	17,752.4	58.9086	17,752.4	67.3667	17,752.4	65.5338	17,752.4	65.8751	17,752.4	66.71	17,752.4	61.6211	17,752.4	63.4537	17,752.4	58.9532	17,752.4	60.3362	17,752.4	53.8804	17,752.4	55.6863	17,752.4	46.8818	17,752.4	53.5878	17,752.4	40.7835	17,752.4	54.0913	17,752.4	34.8651	17,752.4	47.7919	17,752.4	42.2018	17,752.4	45.2145	17,752.4	41.4743	17,752.4	44.068	17,752.4	42.2793	17,752.4	36.3604	17,752.4	31.6836
18,379.4	86.8534	18,379.4	85.8369	18,379.4	86.5804	18,379.4	83.1928	18,379.4	84.7017	18,379.4	78.6102	18,379.4	81.2159	18,379.4	70.9938	18,379.4	75.7557	18,379.4	61.0338	18,379.4	64.6983	18,379.4	67.7537	18,379.4	62.6888	18,379.4	68.9915	18,379.4	67.8363	18,379.4	67.1485	18,379.4	68.2482	18,379.4	63.1445	18,379.4	64.6498	18,379.4	59.4723	18,379.4	61.1409	18,379.4	54.7469	18,379.4	56.5174	18,379.4	46.278	18,379.4	55.0118	18,379.4	39.5425	18,379.4	53.4665	18,379.4	35.3649	18,379.4	48.5255	18,379.4	41.686	18,379.4	45.7409	18,379.4	34.5683	18,379.4	44.9512	18,379.4	44.1026	18,379.4	39.6609	18,379.4	33.6579
19,026.9	86.666	19,026.9	85.5519	19,026.9	86.3094	19,026.9	82.6547	19,026.9	84.1671	19,026.9	77.7333	19,026.9	80.1906	19,026.9	68.2559	19,026.9	73.9715	19,026.9	63.3519	19,026.9	56.7591	19,026.9	68.6882	19,026.9	66.3588	19,026.9	69.3652	19,026.9	68.9796	19,026.9	67.4695	19,026.9	69.0145	19,026.9	63.0166	19,026.9	65.3682	19,026.9	59.2399	19,026.9	61.4173	19,026.9	54.7288	19,026.9	56.9038	19,026.9	47.6073	19,026.9	55.4774	19,026.9	43.5538	19,026.9	52.3728	19,026.9	22.7574	19,026.9	48.9863	19,026.9	37.5142	19,026.9	46.1168	19,026.9	28.0081	19,026.9	46.2022	19,026.9	43.4803	19,026.9	39.7552	19,026.9	35.0676
19,697.8	86.1897	19,697.8	84.9918	19,697.8	85.862	19,697.8	81.8427	19,697.8	83.4993	19,697.8	76.4997	19,697.8	78.8814	19,697.8	62.7139	19,697.8	71.6659	19,697.8	65.0614	19,697.8	57.5108	19,697.8	69.3294	19,697.8	67.7866	19,697.8	69.6643	19,697.8	69.5022	19,697.8	67.8219	19,697.8	69.5384	19,697.8	63.2302	19,697.8	65.7534	19,697.8	59.1815	19,697.8	61.698	19,697.8	55.3346	19,697.8	57.0169	19,697.8	48.5128	19,697.8	55.5574	19,697.8	47.7889	19,697.8	52.1914	19,697.8	33.2903	19,697.8	49.3622	19,697.8	31.2208	19,697.8	47.1189	19,697.8	35.8303	19,697.8	45.3188	19,697.8	42.7337	19,697.8	41.5768	19,697.8	35.8675
19,999.5	86.0514	19,999.5	84.6311	19,999.5	85.7926	19,999.5	81.4201	19,999.5	83.2071	19,999.5	75.602	19,999.5	78.3481	19,999.5	59.4151	19,999.5	70.4168	19,999.5	66.5487	19,999.5	61.5495	19,999.5	70.0919	19,999.5	68.0773	19,999.5	69.5393	19,999.5	69.6164	19,999.5	67.8016	19,999.5	69.502	19,999.5	64.2952	19,999.5	66.428	19,999.5	60.4039	19,999.5	61.8008	19,999.5	57.0069	19,999.5	55.2479	19,999.5	34.4805	19,999.5	57.0095	19,999.5	50.0325	19,999.5	55.3847	19,999.5	49.1677	19,999.5	43.6807	19,999.5	48.1295	19,999.5	46.5174	19,999.5	40.0313	19,999.5	23.4969	19,999.5	38.1343	19,999.5	19.8809	19,999.5	41.0759
