"SPL Horizontal"
"On-Axis"		"10°"		"-10°"		"20°"		"-20°"		"30°"		"-30°"		"40°"		"-40°"		"50°"		"-50°"		"60°"		"-60°"		"70°"		"-70°"		"80°"		"-80°"		"90°"		"-90°"		"100°"		"-100°"		"110°"		"-110°"		"120°"		"-120°"		"130°"		"-130°"		"140°"		"-140°"		"150°"		"-150°"		"160°"		"-160°"		"170°"		"-170°"		"180°"
"Frequency [Hz]"	"Sound Pessure Level [dB]  / [2.83V 1m] "	"Frequency [Hz]"	"Sound Pessure Level [dB]  / [2.83V 1m] "	"Frequency [Hz]"	"Sound Pessure Level [dB]  / [2.83V 1m] "	"Frequency [Hz]"	"Sound Pessure Level [dB]  / [2.83V 1m] "	"Frequency [Hz]"	"Sound Pessure Level [dB]  / [2.83V 1m] "	"Frequency [Hz]"	"Sound Pessure Level [dB]  / [2.83V 1m] "	"Frequency [Hz]"	"Sound Pessure Level [dB]  / [2.83V 1m] "	"Frequency [Hz]"	"Sound Pessure Level [dB]  / [2.83V 1m] "	"Frequency [Hz]"	"Sound Pessure Level [dB]  / [2.83V 1m] "	"Frequency [Hz]"	"Sound Pessure Level [dB]  / [2.83V 1m] "	"Frequency [Hz]"	"Sound Pessure Level [dB]  / [2.83V 1m] "	"Frequency [Hz]"	"Sound Pessure Level [dB]  / [2.83V 1m] "	"Frequency [Hz]"	"Sound Pessure Level [dB]  / [2.83V 1m] "	"Frequency [Hz]"	"Sound Pessure Level [dB]  / [2.83V 1m] "	"Frequency [Hz]"	"Sound Pessure Level [dB]  / [2.83V 1m] "	"Frequency [Hz]"	"Sound Pessure Level [dB]  / [2.83V 1m] "	"Frequency [Hz]"	"Sound Pessure Level [dB]  / [2.83V 1m] "	"Frequency [Hz]"	"Sound Pessure Level [dB]  / [2.83V 1m] "	"Frequency [Hz]"	"Sound Pessure Level [dB]  / [2.83V 1m] "	"Frequency [Hz]"	"Sound Pessure Level [dB]  / [2.83V 1m] "	"Frequency [Hz]"	"Sound Pessure Level [dB]  / [2.83V 1m] "	"Frequency [Hz]"	"Sound Pessure Level [dB]  / [2.83V 1m] "	"Frequency [Hz]"	"Sound Pessure Level [dB]  / [2.83V 1m] "	"Frequency [Hz]"	"Sound Pessure Level [dB]  / [2.83V 1m] "	"Frequency [Hz]"	"Sound Pessure Level [dB]  / [2.83V 1m] "	"Frequency [Hz]"	"Sound Pessure Level [dB]  / [2.83V 1m] "	"Frequency [Hz]"	"Sound Pessure Level [dB]  / [2.83V 1m] "	"Frequency [Hz]"	"Sound Pessure Level [dB]  / [2.83V 1m] "	"Frequency [Hz]"	"Sound Pessure Level [dB]  / [2.83V 1m] "	"Frequency [Hz]"	"Sound Pessure Level [dB]  / [2.83V 1m] "	"Frequency [Hz]"	"Sound Pessure Level [dB]  / [2.83V 1m] "	"Frequency [Hz]"	"Sound Pessure Level [dB]  / [2.83V 1m] "	"Frequency [Hz]"	"Sound Pessure Level [dB]  / [2.83V 1m] "	"Frequency [Hz]"	"Sound Pessure Level [dB]  / [2.83V 1m] "	"Frequency [Hz]"	"Sound Pessure Level [dB]  / [2.83V 1m] "	"Frequency [Hz]"	"Sound Pessure Level [dB]  / [2.83V 1m] "
20.5078	38.9692	20.5078	31.0243	20.5078	42.3925	20.5078	29.8451	20.5078	44.2086	20.5078	40.05	20.5078	45.0995	20.5078	44.9332	20.5078	45.3043	20.5078	48.1695	20.5078	44.8904	20.5078	50.5781	20.5078	43.8034	20.5078	52.478	20.5078	41.8174	20.5078	54.0229	20.5078	38.2888	20.5078	55.2903	20.5078	30.9646	20.5078	56.3119	20.5078	30.8645	20.5078	57.0906	20.5078	39.3956	20.5078	57.6128	20.5078	43.9728	20.5078	57.8609	20.5078	47.0269	20.5078	57.8237	20.5078	49.2946	20.5078	57.503	20.5078	51.0972	20.5078	56.9177	20.5078	52.6096	20.5078	56.1013	20.5078	53.9288	20.5078	55.0943
21.9727	54.8523	21.9727	54.4585	21.9727	55.1105	21.9727	53.9615	21.9727	55.2149	21.9727	53.4148	21.9727	55.1572	21.9727	52.9006	21.9727	54.9354	21.9727	52.5253	21.9727	54.5514	21.9727	52.3879	21.9727	54.0097	21.9727	52.5255	21.9727	53.317	21.9727	52.8863	21.9727	52.4867	21.9727	53.3614	21.9727	51.5477	21.9727	53.839	21.9727	50.5568	21.9727	54.2316	21.9727	49.6123	21.9727	54.477	21.9727	48.8559	21.9727	54.5317	21.9727	48.4422	21.9727	54.3678	21.9727	48.4703	21.9727	53.9745	21.9727	48.9256	21.9727	53.362	21.9727	49.6969	21.9727	52.5623	21.9727	50.641	21.9727	51.6298
23.4375	51.7679	23.4375	51.0945	23.4375	52.1912	23.4375	50.1755	23.4375	52.3668	23.4375	49.0447	23.4375	52.2954	23.4375	47.8177	23.4375	51.9711	23.4375	46.7786	23.4375	51.3774	23.4375	46.3742	23.4375	50.4815	23.4375	46.8512	23.4375	49.2256	23.4375	47.9416	23.4375	47.5133	23.4375	49.2059	23.4375	45.1869	23.4375	50.3692	23.4375	42.0314	23.4375	51.312	23.4375	38.2974	23.4375	51.9874	23.4375	37.6	23.4375	52.3776	23.4375	40.8935	23.4375	52.481	23.4375	43.9763	23.4375	52.3094	23.4375	46.2592	23.4375	51.8857	23.4375	47.974	23.4375	51.2369	23.4375	49.3108	23.4375	50.3813
24.9023	54.0477	24.9023	53.4562	24.9023	54.4116	24.9023	52.6268	24.9023	54.5559	24.9023	51.5522	24.9023	54.4855	24.9023	50.2467	24.9023	54.2016	24.9023	48.7973	24.9023	53.7023	24.9023	47.4705	24.9023	52.9812	24.9023	46.7674	24.9023	52.0284	24.9023	47.0427	24.9023	50.8323	24.9023	48.0168	24.9023	49.3894	24.9023	49.1587	24.9023	47.7336	24.9023	50.1511	24.9023	46.0195	24.9023	50.877	24.9023	44.6675	24.9023	51.3086	24.9023	44.2803	24.9023	51.4494	24.9023	44.9578	24.9023	51.3159	24.9023	46.1594	24.9023	50.9324	24.9023	47.4185	24.9023	50.3277	24.9023	48.5558	24.9023	49.5294
26.3672	55.7475	26.3672	55.403	26.3672	55.9222	26.3672	54.9011	26.3672	55.9196	26.3672	54.2659	26.3672	55.734	26.3672	53.5446	26.3672	55.3591	26.3672	52.8221	26.3672	54.7876	26.3672	52.2267	26.3672	54.0118	26.3672	51.8981	26.3672	53.0272	26.3672	51.9091	26.3672	51.8432	26.3672	52.2096	26.3672	50.5086	26.3672	52.6635	26.3672	49.1596	26.3672	53.1294	26.3672	48.0724	26.3672	53.5038	26.3672	47.5936	26.3672	53.7255	26.3672	47.8467	26.3672	53.7652	26.3672	48.6023	26.3672	53.6153	26.3672	49.5488	26.3672	53.2831	26.3672	50.498	26.3672	52.7849	26.3672	51.3723	26.3672	52.1412
27.832	57.8759	27.832	57.4457	27.832	58.1128	27.832	56.8115	27.832	58.1633	27.832	55.9594	27.832	58.0308	27.832	54.8764	27.832	57.7148	27.832	53.5617	27.832	57.2106	27.832	52.0592	27.832	56.509	27.832	50.5297	27.832	55.5967	27.832	49.3336	27.832	54.4578	27.832	48.8968	27.832	53.079	27.832	49.2458	27.832	51.4637	27.832	49.9656	27.832	49.6713	27.832	50.6661	27.832	47.9096	27.832	51.16	27.832	46.6387	27.832	51.3901	27.832	46.3449	27.832	51.3545	27.832	46.9499	27.832	51.0713	27.832	47.9461	27.832	50.5633	27.832	48.9635	27.832	49.8526
29.2969	57.3273	29.2969	56.847	29.2969	57.6084	29.2969	56.1665	29.2969	57.6947	29.2969	55.2968	29.2969	57.5905	29.2969	54.2815	29.2969	57.299	29.2969	53.2348	29.2969	56.8239	29.2969	52.3809	29.2969	56.1717	29.2969	52.0028	29.2969	55.3589	29.2969	52.2245	29.2969	54.4237	29.2969	52.8779	29.2969	53.4459	29.2969	53.6823	29.2969	52.5669	29.2969	54.4367	29.2969	51.9774	29.2969	55.0438	29.2969	51.8269	29.2969	55.4682	29.2969	52.1086	29.2969	55.705	29.2969	52.6705	29.2969	55.7636	29.2969	53.3375	29.2969	55.6612	29.2969	53.9903	29.2969	55.4173	29.2969	54.5692	29.2969	55.049
30.7617	59.9018	30.7617	59.5488	30.7617	60.1109	30.7617	59.0617	30.7617	60.1718	30.7617	58.4604	30.7617	60.0828	30.7617	57.7816	30.7617	59.8442	30.7617	57.087	30.7617	59.4581	30.7617	56.4661	30.7617	58.9292	30.7617	56.0181	30.7617	58.2686	30.7617	55.8087	30.7617	57.4984	30.7617	55.8304	30.7617	56.6602	30.7617	56.0081	30.7617	55.823	30.7617	56.2448	30.7617	55.086	30.7617	56.4597	30.7617	54.5596	30.7617	56.6009	30.7617	54.3196	30.7617	56.6417	30.7617	54.3636	30.7617	56.5733	30.7617	54.6184	30.7617	56.3992	30.7617	54.989	30.7617	56.1318	30.7617	55.3969	30.7617	55.7894
32.2266	60.6806	32.2266	60.3759	32.2266	60.836	32.2266	59.9271	32.2266	60.8407	32.2266	59.3472	32.2266	60.6954	32.2266	58.662	32.2266	60.4028	32.2266	57.92	32.2266	59.9676	32.2266	57.1994	32.2266	59.3974	32.2266	56.6032	32.2266	58.7054	32.2266	56.2256	32.2266	57.9145	32.2266	56.1004	32.2266	57.0646	32.2266	56.1786	32.2266	56.22	32.2266	56.3616	32.2266	55.4707	32.2266	56.552	32.2266	54.9155	32.2266	56.6821	32.2266	54.6241	32.2266	56.7156	32.2266	54.6016	32.2266	56.6407	32.2266	54.7912	32.2266	56.4621	32.2266	55.1105	32.2266	56.1943	32.2266	55.4849	32.2266	55.8591
33.6914	61.9347	33.6914	61.7076	33.6914	62.0524	33.6914	61.3845	33.6914	62.0537	33.6914	60.9882	33.6914	61.9367	33.6914	60.5534	33.6914	61.7036	33.6914	60.1272	33.6914	61.3607	33.6914	59.763	33.6914	60.9202	33.6914	59.5055	33.6914	60.4019	33.6914	59.3737	33.6914	59.8371	33.6914	59.3527	33.6914	59.2702	33.6914	59.4019	33.6914	58.7573	33.6914	59.4734	33.6914	58.3557	33.6914	59.5279	33.6914	58.1069	33.6914	59.5409	33.6914	58.0207	33.6914	59.5028	33.6914	58.0752	33.6914	59.4139	33.6914	58.2295	33.6914	59.2793	33.6914	58.4403	33.6914	59.1053	33.6914	58.6722	33.6914	58.8994
35.1562	63.0312	35.1562	62.8153	35.1562	63.1226	35.1562	62.4812	35.1562	63.0878	35.1562	62.0405	35.1562	62.9277	35.1562	61.5134	35.1562	62.6463	35.1562	60.9313	35.1562	62.25	35.1562	60.3386	35.1562	61.7492	35.1562	59.7884	35.1562	61.159	35.1562	59.3304	35.1562	60.5022	35.1562	58.9935	35.1562	59.8117	35.1562	58.7743	35.1562	59.1321	35.1562	58.6423	35.1562	58.5172	35.1562	58.5568	35.1562	58.0209	35.1562	58.4829	35.1562	57.6823	35.1562	58.3983	35.1562	57.5114	35.1562	58.2931	35.1562	57.4862	35.1562	58.1657	35.1562	57.5645	35.1562	58.0193	35.1562	57.7011	35.1562	57.8603
36.6211	63.9289	36.6211	63.6978	36.6211	64.0423	36.6211	63.3537	36.6211	64.0366	36.6211	62.9066	36.6211	63.9127	36.6211	62.3735	36.6211	63.6735	36.6211	61.7819	36.6211	63.3241	36.6211	61.1709	36.6211	62.8724	36.6211	60.5887	36.6211	62.3303	36.6211	60.083	36.6211	61.7162	36.6211	59.686	36.6211	61.0572	36.6211	59.4027	36.6211	60.3907	36.6211	59.2129	36.6211	59.7624	36.6211	59.0841	36.6211	59.2199	36.6211	58.9861	36.6211	58.8012	36.6211	58.8979	36.6211	58.5247	36.6211	58.8072	36.6211	58.3844	36.6211	58.7083	36.6211	58.3554	36.6211	58.6015	36.6211	58.4032	36.6211	58.4942
38.0859	64.4498	38.0859	64.2266	38.0859	64.5522	38.0859	63.8877	38.0859	64.5324	38.0859	63.4438	38.0859	64.3911	38.0859	62.9138	38.0859	64.1311	38.0859	62.3285	38.0859	63.757	38.0859	61.7314	38.0859	63.2769	38.0859	61.1751	38.0859	62.7036	38.0859	60.7086	38.0859	62.0579	38.0859	60.3609	38.0859	61.3712	38.0859	60.1299	38.0859	60.687	38.0859	59.9884	38.0859	60.0589	38.0859	59.8993	38.0859	59.5412	38.0859	59.8293	38.0859	59.1743	38.0859	59.7549	38.0859	58.9712	38.0859	59.662	38.0859	58.9152	38.0859	59.5441	38.0859	58.9695	38.0859	59.4023	38.0859	59.092	38.0859	59.2456
39.5508	65.6428	39.5508	65.4544	39.5508	65.7342	39.5508	65.1766	39.5508	65.7259	39.5508	64.8228	39.5508	65.6182	39.5508	64.4153	39.5508	65.4138	39.5508	63.9859	39.5508	65.1177	39.5508	63.5751	39.5508	64.7374	39.5508	63.2247	39.5508	64.2839	39.5508	62.966	39.5508	63.7738	39.5508	62.8077	39.5508	63.2316	39.5508	62.7328	39.5508	62.6913	39.5508	62.7077	39.5508	62.1959	39.5508	62.6951	39.5508	61.7919	39.5508	62.6645	39.5508	61.517	39.5508	62.5968	39.5508	61.3888	39.5508	62.4835	39.5508	61.398	39.5508	62.3255	39.5508	61.5147	39.5508	62.1311	39.5508	61.6995	39.5508	61.9151
41.0156	66.8197	41.0156	66.6092	41.0156	66.9395	41.0156	66.3135	41.0156	66.9672	41.0156	65.9434	41.0156	66.9043	41.0156	65.5164	41.0156	66.7543	41.0156	65.0586	41.0156	66.522	41.0156	64.6033	41.0156	66.2136	41.0156	64.1865	41.0156	65.8362	41.0156	63.8385	41.0156	65.3994	41.0156	63.5734	41.0156	64.9172	41.0156	63.3857	41.0156	64.411	41.0156	63.2549	41.0156	63.9106	41.0156	63.1557	41.0156	63.4519	41.0156	63.0678	41.0156	63.0705	41.0156	62.9792	41.0156	62.7918	41.0156	62.886	41.0156	62.6232	41.0156	62.7898	41.0156	62.5534	41.0156	62.6959	41.0156	62.559	41.0156	62.6138
42.4805	67.7443	42.4805	67.7193	42.4805	67.682	42.4805	67.6168	42.4805	67.5273	42.4805	67.4515	42.4805	67.2787	42.4805	67.2439	42.4805	66.9377	42.4805	67.0192	42.4805	66.5092	42.4805	66.8045	42.4805	66.0024	42.4805	66.6226	42.4805	65.4337	42.4805	66.4864	42.4805	64.8314	42.4805	66.3949	42.4805	64.241	42.4805	66.3353	42.4805	63.7267	42.4805	66.2875	42.4805	63.3614	42.4805	66.2307	42.4805	63.2007	42.4805	66.1469	42.4805	63.2556	42.4805	66.0227	42.4805	63.4882	42.4805	65.8493	42.4805	63.8346	42.4805	65.6223	42.4805	64.232	42.4805	65.3412	42.4805	64.6334	42.4805	65.0087
43.9453	68.7353	43.9453	68.6587	43.9453	68.7367	43.9453	68.5146	43.9453	68.6584	43.9453	68.3139	43.9453	68.4985	43.9453	68.0713	43.9453	68.2584	43.9453	67.8038	43.9453	67.9427	43.9453	67.5296	43.9453	67.5604	43.9453	67.2653	43.9453	67.1263	43.9453	67.0226	43.9453	66.6619	43.9453	66.806	43.9453	66.1953	43.9453	66.6128	43.9453	65.759	43.9453	66.4356	43.9453	65.3849	43.9453	66.265	43.9453	65.0978	43.9453	66.0932	43.9453	64.9106	43.9453	65.915	43.9453	64.8225	43.9453	65.7297	43.9453	64.8223	43.9453	65.54	43.9453	64.8928	43.9453	65.3517	43.9453	65.0155	43.9453	65.1732
45.4102	69.9433	45.4102	69.8847	45.4102	69.9169	45.4102	69.7462	45.4102	69.8023	45.4102	69.5354	45.4102	69.5982	45.4102	69.2618	45.4102	69.3057	45.4102	68.9376	45.4102	68.929	45.4102	68.5764	45.4102	68.4762	45.4102	68.1919	45.4102	67.9607	45.4102	67.7966	45.4102	67.402	45.4102	67.3996	45.4102	66.8253	45.4102	67.0069	45.4102	66.26	45.4102	66.6213	45.4102	65.7361	45.4102	66.2452	45.4102	65.2799	45.4102	65.8818	45.4102	64.911	45.4102	65.5368	45.4102	64.6404	45.4102	65.2184	45.4102	64.4713	45.4102	64.9367	45.4102	64.4013	45.4102	64.7025	45.4102	64.4233	45.4102	64.5274
46.875	70.7195	46.875	70.6503	46.875	70.6961	46.875	70.4921	46.875	70.5776	46.875	70.2504	46.875	70.3631	46.875	69.9325	46.875	70.0538	46.875	69.5478	46.875	69.653	46.875	69.108	46.875	69.1677	46.875	68.6268	46.875	68.6096	46.875	68.1193	46.875	67.9955	46.875	67.6005	46.875	67.3482	46.875	67.0842	46.875	66.6956	46.875	66.5816	46.875	66.0686	46.875	66.1019	46.875	65.4975	46.875	65.6531	46.875	65.009	46.875	65.2435	46.875	64.6223	46.875	64.8825	46.875	64.3482	46.875	64.5803	46.875	64.1894	46.875	64.3483	46.875	64.1421	46.875	64.1985
48.3398	71.597	48.3398	71.4844	48.3398	71.6068	48.3398	71.2706	48.3398	71.5137	48.3398	70.9592	48.3398	71.3185	48.3398	70.5563	48.3398	71.0238	48.3398	70.0727	48.3398	70.6345	48.3398	69.5252	48.3398	70.1589	48.3398	68.9376	48.3398	69.6099	48.3398	68.3406	48.3398	69.006	48.3398	67.7677	48.3398	68.3715	48.3398	67.2479	48.3398	67.7356	48.3398	66.7988	48.3398	67.1297	48.3398	66.4239	48.3398	66.5837	48.3398	66.1158	48.3398	66.1216	48.3398	65.8629	48.3398	65.7588	48.3398	65.655	48.3398	65.5003	48.3398	65.4871	48.3398	65.3425	48.3398	65.3615	48.3398	65.2756	48.3398	65.2867
51.2695	70.0745	51.2695	69.9069	51.2695	70.1859	51.2695	69.6955	51.2695	70.235	51.2695	69.4582	51.2695	70.2211	51.2695	69.2173	51.2695	70.1481	51.2695	68.9956	51.2695	70.0242	51.2695	68.812	51.2695	69.8611	51.2695	68.6767	51.2695	69.6739	51.2695	68.5901	51.2695	69.4796	51.2695	68.5452	51.2695	69.2958	51.2695	68.5323	51.2695	69.138	51.2695	68.5427	51.2695	69.0167	51.2695	68.5706	51.2695	68.9355	51.2695	68.6122	51.2695	68.8909	51.2695	68.6638	51.2695	68.8741	51.2695	68.7203	51.2695	68.8729	51.2695	68.7752	51.2695	68.8752	51.2695	68.8215	51.2695	68.8711	51.2695	68.854
52.7344	72.0315	52.7344	71.9904	52.7344	72.0105	52.7344	71.89	52.7344	71.9259	52.7344	71.7346	52.7344	71.778	52.7344	71.5296	52.7344	71.5684	52.7344	71.281	52.7344	71.3009	52.7344	70.9952	52.7344	70.9818	52.7344	70.6787	52.7344	70.6203	52.7344	70.338	52.7344	70.2289	52.7344	69.9802	52.7344	69.8231	52.7344	69.6139	52.7344	69.42	52.7344	69.249	52.7344	69.0368	52.7344	68.8975	52.7344	68.6884	52.7344	68.5729	52.7344	68.3863	52.7344	68.2885	52.7344	68.1376	52.7344	68.0558	52.7344	67.946	52.7344	67.8823	52.7344	67.8126	52.7344	67.7717	52.7344	67.7383	52.7344	67.7241
54.1992	72.8127	54.1992	72.7823	54.1992	72.7744	54.1992	72.686	54.1992	72.6657	54.1992	72.5282	54.1992	72.4868	54.1992	72.3144	54.1992	72.2397	54.1992	72.0512	54.1992	71.9291	54.1992	71.7465	54.1992	71.5629	54.1992	71.4087	54.1992	71.1525	54.1992	71.0467	54.1992	70.7135	54.1992	70.6698	54.1992	70.2648	54.1992	70.2881	54.1992	69.8274	54.1992	69.9123	54.1992	69.4222	54.1992	69.5544	54.1992	69.0675	54.1992	69.2268	54.1992	68.7761	54.1992	68.941	54.1992	68.5545	54.1992	68.705	54.1992	68.4026	54.1992	68.5224	54.1992	68.3162	54.1992	68.393	54.1992	68.2888	54.1992	68.3153
55.6641	73.6962	55.6641	73.6912	55.6641	73.6369	55.6641	73.6234	55.6641	73.5126	55.6641	73.4954	55.6641	73.3241	55.6641	73.3107	55.6641	73.0741	55.6641	73.0734	55.6641	72.7676	55.6641	72.7886	55.6641	72.4129	55.6641	72.4622	55.6641	72.0217	55.6641	72.1014	55.6641	71.6091	55.6641	71.7151	55.6641	71.1928	55.6641	71.3144	55.6641	70.7917	55.6641	70.9127	55.6641	70.4233	55.6641	70.5256	55.6641	70.1014	55.6641	70.1704	55.6641	69.8341	55.6641	69.8638	55.6641	69.6233	55.6641	69.6191	55.6641	69.4666	55.6641	69.4433	55.6641	69.3598	55.6641	69.3358	55.6641	69.3007	55.6641	69.2908
58.5938	75.4169	58.5938	75.4276	58.5938	75.3184	58.5938	75.3518	58.5938	75.1316	58.5938	75.1924	58.5938	74.8578	58.5938	74.9537	58.5938	74.4997	58.5938	74.6417	58.5938	74.0629	58.5938	74.2645	58.5938	73.556	58.5938	73.8321	58.5938	72.9921	58.5938	73.3561	58.5938	72.3895	58.5938	72.8497	58.5938	71.7721	58.5938	72.3271	58.5938	71.1686	58.5938	71.8033	58.5938	70.6105	58.5938	71.2941	58.5938	70.1273	58.5938	70.8159	58.5938	69.7411	58.5938	70.3843	58.5938	69.4627	58.5938	70.0123	58.5938	69.2912	58.5938	69.7086	58.5938	69.217	58.5938	69.4765	58.5938	69.2285	58.5938	69.3164
60.0586	76.0887	60.0586	76.0433	60.0586	76.0415	60.0586	75.9065	60.0586	75.9018	60.0586	75.6805	60.0586	75.6708	60.0586	75.3694	60.0586	75.3515	60.0586	74.9787	60.0586	74.9489	60.0586	74.5169	60.0586	74.4708	60.0586	73.9949	60.0586	73.9291	60.0586	73.4275	60.0586	73.3404	60.0586	72.833	60.0586	72.7272	60.0586	72.2338	60.0586	72.1174	60.0586	71.6561	60.0586	71.5422	60.0586	71.1275	60.0586	71.0318	60.0586	70.674	60.0586	70.6087	60.0586	70.3139	60.0586	70.283	60.0586	70.0541	60.0586	70.0506	60.0586	69.8882	60.0586	69.8986	60.0586	69.8018	60.0586	69.8115	60.0586	69.7793
62.9883	76.9611	62.9883	76.9232	62.9883	76.8957	62.9883	76.7834	62.9883	76.7262	62.9883	76.5439	62.9883	76.4528	62.9883	76.2077	62.9883	76.0771	62.9883	75.7791	62.9883	75.6025	62.9883	75.2637	62.9883	75.0358	62.9883	74.6693	62.9883	74.3877	62.9883	74.007	62.9883	73.6755	62.9883	73.292	62.9883	72.9236	62.9883	72.5464	62.9883	72.1657	62.9883	71.8009	62.9883	71.4428	62.9883	71.0952	62.9883	70.7981	62.9883	70.4742	62.9883	70.2674	62.9883	69.9778	62.9883	69.8684	62.9883	69.6266	62.9883	69.5953	62.9883	69.4144	62.9883	69.4251	62.9883	69.3139	62.9883	69.3301	62.9883	69.2928
64.4531	77.8104	64.4531	77.7667	64.4531	77.7477	64.4531	77.6178	64.4531	77.5778	64.4531	77.3648	64.4531	77.3003	64.4531	77.0093	64.4531	76.9154	64.4531	76.5532	64.4531	76.4252	64.4531	75.9994	64.4531	75.8343	64.4531	75.3525	64.4531	75.1516	64.4531	74.6205	64.4531	74.3923	64.4531	73.8173	64.4531	73.5802	64.4531	72.9662	64.4531	72.75	64.4531	72.1039	64.4531	71.9473	64.4531	71.2821	64.4531	71.223	64.4531	70.5632	64.4531	70.6211	64.4531	70.0039	64.4531	70.1639	64.4531	69.6339	64.4531	69.8449	64.4531	69.4416	64.4531	69.6345	64.4531	69.3843	64.4531	69.498	64.4531	69.4135
67.3828	78.3806	67.3828	78.3315	67.3828	78.3101	67.3828	78.163	67.3828	78.119	67.3828	77.8734	67.3828	77.8045	67.3828	77.4601	67.3828	77.363	67.3828	76.9191	67.3828	76.7899	67.3828	76.2454	67.3828	76.08	67.3828	75.4339	67.3828	75.2287	67.3828	74.4803	67.3828	74.2337	67.3828	73.3844	67.3828	73.0992	67.3828	72.1555	67.3828	71.8436	67.3828	70.8231	67.3828	70.5139	67.3828	69.4548	67.3828	69.2033	67.3828	68.1734	67.3828	68.0531	67.3828	67.1456	67.3828	67.2049	67.3828	66.5025	67.3828	66.7065	67.3828	66.238	67.3828	66.4746	67.3828	66.2173	67.3828	66.3689	67.3828	66.288
68.8477	78.617	68.8477	78.5297	68.8477	78.5767	68.8477	78.3135	68.8477	78.4084	68.8477	77.9654	68.8477	78.1096	68.8477	77.4805	68.8477	77.676	68.8477	76.8526	68.8477	77.1009	68.8477	76.0738	68.8477	76.375	68.8477	75.135	68.8477	75.4861	68.8477	74.0258	68.8477	74.4187	68.8477	72.735	68.8477	73.1545	68.8477	71.2522	68.8477	71.6753	68.8477	69.5737	68.8477	69.9725	68.8477	67.7196	68.8477	68.0706	68.8477	65.7741	68.8477	66.0773	68.8477	63.9512	68.8477	64.2462	68.8477	62.5988	68.8477	62.9277	68.8477	61.9496	68.8477	62.2688	68.8477	61.8423	68.8477	62.0401	68.8477	61.9313
71.7773	79.3436	71.7773	79.1994	71.7773	79.3636	71.7773	78.9299	71.7773	79.2594	71.7773	78.5334	71.7773	79.0301	71.7773	78.0077	71.7773	78.6732	71.7773	77.3506	71.7773	78.1853	71.7773	76.56	71.7773	77.5612	71.7773	75.6345	71.7773	76.7947	71.7773	74.5729	71.7773	75.8782	71.7773	73.3742	71.7773	74.804	71.7773	72.0382	71.7773	73.5653	71.7773	70.5678	71.7773	72.1585	71.7773	68.9767	71.7773	70.5883	71.7773	67.3013	71.7773	68.877	71.7773	65.619	71.7773	67.0783	71.7773	64.0634	71.7773	65.2984	71.7773	62.8192	71.7773	63.7113	71.7773	62.0756	71.7773	62.5383	71.7773	61.9676
74.707	80.0396	74.707	79.9673	74.707	80.0076	74.707	79.7917	74.707	79.8702	74.707	79.5139	74.707	79.6267	74.707	79.1352	74.707	79.2767	74.707	78.6573	74.707	78.8205	74.707	78.0825	74.707	78.2599	74.707	77.4145	74.707	77.599	74.707	76.659	74.707	76.8454	74.707	75.8246	74.707	76.011	74.707	74.9245	74.707	75.1133	74.707	73.9788	74.707	74.1744	74.707	73.0161	74.707	73.2211	74.707	72.075	74.707	72.2845	74.707	71.2023	74.707	71.4019	74.707	70.4502	74.707	70.6193	74.707	69.8709	74.707	69.9912	74.707	69.5118	74.707	69.5734	74.707	69.4083
77.6367	81.0989	77.6367	81.0504	77.6367	81.0523	77.6367	80.9076	77.6367	80.9103	77.6367	80.6715	77.6367	80.6732	77.6367	80.3439	77.6367	80.342	77.6367	79.9268	77.6367	79.9191	77.6367	79.4235	77.6367	79.4082	77.6367	78.8388	77.6367	78.8161	77.6367	78.1795	77.6367	78.1523	77.6367	77.4551	77.6367	77.4305	77.6367	76.6795	77.6367	76.6686	77.6367	75.8718	77.6367	75.8887	77.6367	75.0582	77.6367	75.1159	77.6367	74.2724	77.6367	74.3772	77.6367	73.5557	77.6367	73.7004	77.6367	72.9529	77.6367	73.1138	77.6367	72.5062	77.6367	72.6468	77.6367	72.2471	77.6367	72.3295	77.6367	72.1897
79.1016	81.4995	79.1016	81.4573	79.1016	81.4436	79.1016	81.3175	79.1016	81.29	79.1016	81.0809	79.1016	81.0394	79.1016	80.7491	79.1016	80.6932	79.1016	80.3245	79.1016	80.2544	79.1016	79.8109	79.1016	79.7275	79.1016	79.2135	79.1016	79.1198	79.1016	78.54	79.1016	78.4419	79.1016	77.8008	79.1016	77.7086	79.1016	77.0104	79.1016	76.9394	79.1016	76.1892	79.1016	76.1578	79.1016	75.3648	79.1016	75.3907	79.1016	74.5734	79.1016	74.666	79.1016	73.8586	79.1016	74.0104	79.1016	73.2668	79.1016	73.4485	79.1016	72.8386	79.1016	73.0033	79.1016	72.5998	79.1016	72.6981	79.1016	72.5566
82.0312	82.4147	82.0312	82.366	82.0312	82.3635	82.0312	82.218	82.0312	82.2121	82.0312	81.9713	82.0312	81.9604	82.0312	81.6272	82.0312	81.6089	82.0312	81.1879	82.0312	81.159	82.0312	80.6569	82.0312	80.614	82.0312	80.0397	82.0312	79.9799	82.0312	79.3445	82.0312	79.2671	82.0312	78.5839	82.0312	78.4917	82.0312	77.7754	82.0312	77.6767	82.0312	76.9434	82.0312	76.8524	82.0312	76.1203	82.0312	76.0546	82.0312	75.3459	82.0312	75.3211	82.0312	74.6638	82.0312	74.6851	82.0312	74.114	82.0312	74.17	82.0312	73.7241	82.0312	73.7884	82.0312	73.5038	82.0312	73.546	82.0312	73.4481
84.9609	83.3605	84.9609	83.2965	84.9609	83.3197	84.9609	83.1283	84.9609	83.1736	84.9609	82.856	84.9609	82.9217	84.9609	82.4799	84.9609	82.5636	84.9609	82.0008	84.9609	82.1001	84.9609	81.4205	84.9609	81.5341	84.9609	80.7426	84.9609	80.8715	84.9609	79.9745	84.9609	80.1237	84.9609	79.1292	84.9609	79.3087	84.9609	78.2284	84.9609	78.4537	84.9609	77.3065	84.9609	77.5956	84.9609	76.4125	84.9609	76.7779	84.9609	75.6075	84.9609	76.0447	84.9609	74.9532	84.9609	75.4294	84.9609	74.4921	84.9609	74.946	84.9609	74.2309	84.9609	74.5883	84.9609	74.1428	84.9609	74.3395	84.9609	74.1886
87.8906	83.9615	87.8906	83.8924	87.8906	83.9153	87.8906	83.7078	87.8906	83.7537	87.8906	83.4071	87.8906	83.4768	87.8906	82.9895	87.8906	83.0846	87.8906	82.4547	87.8906	82.578	87.8906	81.8028	87.8906	81.9595	87.8906	81.0359	87.8906	81.2348	87.8906	80.1596	87.8906	80.4145	87.8906	79.1858	87.8906	79.5168	87.8906	78.1382	87.8906	78.5713	87.8906	77.0583	87.8906	77.6205	87.8906	76.0122	87.8906	76.7182	87.8906	75.0888	87.8906	75.92	87.8906	74.38	87.8906	75.266	87.8906	73.9406	87.8906	74.7652	87.8906	73.7599	87.8906	74.3946	87.8906	73.7736	87.8906	74.1173	87.8906	73.9081
90.8203	84.2166	90.8203	84.1693	90.8203	84.1388	90.8203	83.9959	90.8203	83.9362	90.8203	83.6941	90.8203	83.6083	90.8203	83.2608	90.8203	83.154	90.8203	82.6922	90.8203	82.5722	90.8203	81.984	90.8203	81.8632	90.8203	81.1328	90.8203	81.0301	90.8203	80.1379	90.8203	80.0824	90.8203	79.006	90.8203	79.0416	90.8203	77.7603	90.8203	77.9486	90.8203	76.4562	90.8203	76.8712	90.8203	75.2025	90.8203	75.9025	90.8203	74.1649	90.8203	75.1362	90.8203	73.5082	90.8203	74.6195	90.8203	73.2799	90.8203	74.3212	90.8203	73.3673	90.8203	74.1504	90.8203	73.5939	90.8203	74.0076	90.8203	73.8262
95.2148	85.3358	95.2148	85.2445	95.2148	85.283	95.2148	85.0075	95.2148	85.0843	95.2148	84.6204	95.2148	84.735	95.2148	84.0753	95.2148	84.2269	95.2148	83.3598	95.2148	83.5472	95.2148	82.4561	95.2148	82.6781	95.2148	81.3384	95.2148	81.5938	95.2148	79.9686	95.2148	80.2583	95.2148	78.288	95.2148	78.6197	95.2148	76.2013	95.2148	76.601	95.2148	73.5395	95.2148	74.086	95.2148	69.963	95.2148	70.9073	95.2148	64.6302	95.2148	66.958	95.2148	55.3779	95.2148	63.352	95.2148	58.7238	95.2148	63.5805	95.2148	64.0689	95.2148	65.6599	95.2148	66.4317	95.2148	66.9874	95.2148	67.2694
98.1445	85.3451	98.1445	85.2316	98.1445	85.3189	98.1445	84.9791	98.1445	85.1506	98.1445	84.5869	98.1445	84.8358	98.1445	84.0524	98.1445	84.3678	98.1445	83.3712	98.1445	83.7372	98.1445	82.5368	98.1445	82.9305	98.1445	81.5401	98.1445	81.9296	98.1445	80.3688	98.1445	80.7097	98.1445	79.0075	98.1445	79.2381	98.1445	77.4401	98.1445	77.472	98.1445	75.6594	98.1445	75.3606	98.1445	73.694	98.1445	72.8648	98.1445	71.6718	98.1445	70.0535	98.1445	69.9041	98.1445	67.4348	98.1445	68.7956	98.1445	66.2008	98.1445	68.4058	98.1445	66.6208	98.1445	68.3189	98.1445	67.4925	98.1445	68.0883
101.074	85.6236	101.074	85.4794	101.074	85.6469	101.074	85.2178	101.074	85.5463	101.074	84.8431	101.074	85.319	101.074	84.3603	101.074	84.9623	101.074	83.7752	101.074	84.4735	101.074	83.0945	101.074	83.8499	101.074	82.3259	101.074	83.0893	101.074	81.4786	101.074	82.1912	101.074	80.5649	101.074	81.1591	101.074	79.6028	101.074	80.0059	101.074	78.6196	101.074	78.7615	101.074	77.6555	101.074	77.4863	101.074	76.7619	101.074	76.2813	101.074	75.9907	101.074	75.2804	101.074	75.3752	101.074	74.6002	101.074	74.9147	101.074	74.27	101.074	74.5805	101.074	74.2195	101.074	74.3454
105.469	85.8888	105.469	85.8686	105.469	85.8608	105.469	85.798	105.469	85.7855	105.469	85.6733	105.469	85.6625	105.469	85.4892	105.469	85.491	105.469	85.2402	105.469	85.2701	105.469	84.9211	105.469	84.9994	105.469	84.5298	105.469	84.6804	105.469	84.0692	105.469	84.3171	105.469	83.5493	105.469	83.9166	105.469	82.989	105.469	83.4893	105.469	82.4156	105.469	83.0483	105.469	81.8633	105.469	82.6083	105.469	81.3703	105.469	82.1851	105.469	80.9735	105.469	81.7927	105.469	80.7018	105.469	81.4407	105.469	80.5689	105.469	81.134	105.469	80.5693	105.469	80.8769	105.469	80.6812
108.398	87.7233	108.398	87.7144	108.398	87.6568	108.398	87.6271	108.398	87.5179	108.398	87.4572	108.398	87.3102	108.398	87.2002	108.398	87.039	108.398	86.8512	108.398	86.7121	108.398	86.4066	108.398	86.3406	108.398	85.8669	108.398	85.9396	108.398	85.239	108.398	85.5261	108.398	84.5404	108.398	85.1179	108.398	83.8011	108.398	84.729	108.398	83.0654	108.398	84.3664	108.398	82.3898	108.398	84.0287	108.398	81.837	108.398	83.7065	108.398	81.4637	108.398	83.3857	108.398	81.3048	108.398	83.0508	108.398	81.3589	108.398	82.6909	108.398	81.5864	108.398	82.3079	108.398	81.9241
112.793	89.0026	112.793	89.0089	112.793	88.8527	112.793	88.8736	112.793	88.5577	112.793	88.5993	112.793	88.1167	112.793	88.1896	112.793	87.5307	112.793	87.6504	112.793	86.804	112.793	86.9906	112.793	85.9473	112.793	86.2232	112.793	84.9809	112.793	85.3663	112.793	83.9406	112.793	84.4434	112.793	82.8832	112.793	83.484	112.793	81.8907	112.793	82.5238	112.793	81.0587	112.793	81.6056	112.793	80.4622	112.793	80.7794	112.793	80.1107	112.793	80.101	112.793	79.9388	112.793	79.6228	112.793	79.8453	112.793	79.3736	112.793	79.7454	112.793	79.3363	112.793	79.6035	112.793	79.4431
117.188	90.0573	117.188	89.9539	117.188	90.032	117.188	89.7181	117.188	89.881	117.188	89.3454	117.188	89.6049	117.188	88.8323	117.188	89.2022	117.188	88.1779	117.188	88.6693	117.188	87.3847	117.188	88.0006	117.188	86.4615	117.188	87.1899	117.188	85.4256	117.188	86.2333	117.188	84.3072	117.188	85.1339	117.188	83.1553	117.188	83.9097	117.188	82.0406	117.188	82.604	117.188	81.0472	117.188	81.2935	117.188	80.2425	117.188	80.0875	117.188	79.6406	117.188	79.1063	117.188	79.1944	117.188	78.4395	117.188	78.8327	117.188	78.1099	117.188	78.5099	117.188	78.0711	117.188	78.2352
120.117	91.0059	120.117	90.9457	120.117	90.9519	120.117	90.7726	120.117	90.7819	120.117	90.4873	120.117	90.4927	120.117	90.0903	120.117	90.0795	120.117	89.5811	120.117	89.535	120.117	88.9579	120.117	88.8497	120.117	88.2159	120.117	88.0119	120.117	87.3475	120.117	87.0097	120.117	86.3435	120.117	85.8351	120.117	85.1968	120.117	84.4902	120.117	83.9116	120.117	82.9969	120.117	82.5154	120.117	81.4093	120.117	81.0735	120.117	79.8275	120.117	79.6953	120.117	78.4028	120.117	78.5091	120.117	77.3079	120.117	77.6007	120.117	76.6603	120.117	76.9717	120.117	76.4526	120.117	76.5855
124.512	90.4434	124.512	90.3981	124.512	90.4319	124.512	90.3	124.512	90.3594	124.512	90.1524	124.512	90.2221	124.512	89.9563	124.512	90.0165	124.512	89.7102	124.512	89.7383	124.512	89.4097	124.512	89.3826	124.512	89.0484	124.512	88.943	124.512	88.6187	124.512	88.4126	124.512	88.1144	124.512	87.7863	124.512	87.5326	124.512	87.0634	124.512	86.8765	124.512	86.252	124.512	86.1568	124.512	85.374	124.512	85.3927	124.512	84.4706	124.512	84.6111	124.512	83.6068	124.512	83.8479	124.512	82.8695	124.512	83.1504	124.512	82.353	124.512	82.5817	124.512	82.129	124.512	82.2176
128.906	89.9091	128.906	89.7787	128.906	89.9329	128.906	89.5372	128.906	89.8543	128.906	89.1807	128.906	89.6777	128.906	88.7082	128.906	89.4075	128.906	88.1244	128.906	89.0501	128.906	87.4449	128.906	88.6139	128.906	86.7027	128.906	88.1109	128.906	85.9532	128.906	87.5557	128.906	85.2728	128.906	86.9651	128.906	84.7412	128.906	86.3566	128.906	84.408	128.906	85.749	128.906	84.2641	128.906	85.1645	128.906	84.2442	128.906	84.6319	128.906	84.2602	128.906	84.1875	128.906	84.2387	128.906	83.8702	128.906	84.1443	128.906	83.7081	128.906	83.9872	128.906	83.7021	128.906	83.8165
133.301	90.3415	133.301	90.2778	133.301	90.2704	133.301	90.0727	133.301	90.069	133.301	89.7162	133.301	89.7405	133.301	89.1952	133.301	89.2888	133.301	88.4923	133.301	88.721	133.301	87.5863	133.301	88.0507	133.301	86.4526	133.301	87.3015	133.301	85.0679	133.301	86.5083	133.301	83.4278	133.301	85.7159	133.301	81.604	133.301	84.9714	133.301	79.8872	133.301	84.3115	133.301	78.893	133.301	83.7528	133.301	79.0352	133.301	83.2914	133.301	79.8743	133.301	82.9145	133.301	80.769	133.301	82.6138	133.301	81.4328	133.301	82.3864	133.301	81.8382	133.301	82.2188	133.301	82.0648
139.16	89.8335	139.16	89.8194	139.16	89.7043	139.16	89.6518	139.16	89.4378	139.16	89.3168	139.16	89.0354	139.16	88.797	139.16	88.4933	139.16	88.0713	139.16	87.8009	139.16	87.1134	139.16	86.9402	139.16	85.8885	139.16	85.8842	139.16	84.3464	139.16	84.5975	139.16	82.407	139.16	83.0387	139.16	79.9304	139.16	81.1727	139.16	76.6434	139.16	79.0056	139.16	71.9158	139.16	76.6831	139.16	64.0102	139.16	74.6633	139.16	62.1579	139.16	73.6042	139.16	68.5761	139.16	73.5483	139.16	71.611	139.16	73.8579	139.16	73.1347	139.16	74.0316	139.16	73.8448
143.555	89.0178	143.555	89.0281	143.555	88.934	143.555	88.9646	143.555	88.7735	143.555	88.8247	143.555	88.5295	143.555	88.6042	143.555	88.1897	143.555	88.2972	143.555	87.736	143.555	87.896	143.555	87.1433	143.555	87.3903	143.555	86.3791	143.555	86.7659	143.555	85.4041	143.555	86.005	143.555	84.173	143.555	85.0879	143.555	82.6366	143.555	83.9979	143.555	80.7449	143.555	82.7276	143.555	78.458	143.555	81.2841	143.555	75.7881	143.555	79.6928	143.555	72.9578	143.555	78.0001	143.555	70.7712	143.555	76.27	143.555	70.3343	143.555	74.563	143.555	71.3726	143.555	72.9108
147.949	91.0681	147.949	91.0581	147.949	91.0448	147.949	91.0247	147.949	90.9771	147.949	90.9746	147.949	90.8543	147.949	90.9092	147.949	90.6664	147.949	90.8244	147.949	90.4045	147.949	90.7103	147.949	90.0598	147.949	90.5518	147.949	89.624	147.949	90.3294	147.949	89.0904	147.949	90.0212	147.949	88.4562	147.949	89.6049	147.949	87.7254	147.949	89.0618	147.949	86.9124	147.949	88.3816	147.949	86.0459	147.949	87.568	147.949	85.1717	147.949	86.6466	147.949	84.3557	147.949	85.6707	147.949	83.682	147.949	84.7246	147.949	83.244	147.949	83.9157	147.949	83.1221	147.949	83.3543
153.809	93.1318	153.809	93.1418	153.809	93.0607	153.809	93.0944	153.809	92.9265	153.809	92.9942	153.809	92.73	153.809	92.8465	153.809	92.4755	153.809	92.6565	153.809	92.1709	153.809	92.4288	153.809	91.827	153.809	92.1659	153.809	91.4547	153.809	91.8676	153.809	91.062	153.809	91.5298	153.809	90.6514	153.809	91.1446	153.809	90.2195	153.809	90.7029	153.809	89.7611	153.809	90.1983	153.809	89.2754	153.809	89.6347	153.809	88.7722	153.809	89.0327	153.809	88.2768	153.809	88.4348	153.809	87.8303	153.809	87.9028	153.809	87.4845	153.809	87.5047	153.809	87.2921	153.809	87.2939
159.668	92.73	159.668	92.6888	159.668	92.6871	159.668	92.5684	159.668	92.5581	159.668	92.376	159.668	92.3446	159.668	92.1198	159.668	92.053	159.668	91.8089	159.668	91.6941	159.668	91.4533	159.668	91.2835	159.668	91.0639	159.668	90.8398	159.668	90.6526	159.668	90.382	159.668	90.2319	159.668	89.9267	159.668	89.8129	159.668	89.4854	159.668	89.4036	159.668	89.0647	159.668	89.0085	159.668	88.669	159.668	88.6304	159.668	88.3049	159.668	88.2754	159.668	87.9834	159.668	87.9568	159.668	87.7193	159.668	87.6944	159.668	87.5285	159.668	87.5095	159.668	87.4249	159.668	87.4176
165.527	92.0495	165.527	91.984	165.527	92.011	165.527	91.8198	165.527	91.8659	165.527	91.5642	165.527	91.6156	165.527	91.2258	165.527	91.2667	165.527	90.8144	165.527	90.8313	165.527	90.3425	165.527	90.3284	165.527	89.8269	165.527	89.7843	165.527	89.291	165.527	89.2309	165.527	88.7655	165.527	88.7024	165.527	88.2849	165.527	88.2292	165.527	87.8795	165.527	87.8325	165.527	87.5667	165.527	87.5218	165.527	87.3455	165.527	87.2967	165.527	87.201	165.527	87.1491	165.527	87.1132	165.527	87.0653	165.527	87.0633	165.527	87.0278	165.527	87.0366	165.527	87.0182	165.527	87.0228
171.387	92.0402	171.387	91.9475	171.387	92.0113	171.387	91.7386	171.387	91.8578	171.387	91.4197	171.387	91.579	171.387	90.9983	171.387	91.1777	171.387	90.4829	171.387	90.6613	171.387	89.8846	171.387	90.0433	171.387	89.2201	171.387	89.3458	171.387	88.5161	171.387	88.6024	171.387	87.8134	171.387	87.8602	171.387	87.1669	171.387	87.1777	171.387	86.6363	171.387	86.6162	171.387	86.2663	171.387	86.2219	171.387	86.0669	171.387	86.008	171.387	86.01	171.387	85.9492	171.387	86.0437	171.387	85.9924	171.387	86.1125	171.387	86.0774	171.387	86.1705	171.387	86.1532	171.387	86.1877
177.246	91.9087	177.246	91.8041	177.246	91.8849	177.246	91.576	177.246	91.7287	177.246	91.23	177.246	91.4389	177.246	90.771	177.246	91.0178	177.246	90.2042	177.246	90.4729	177.246	89.5366	177.246	89.8181	177.246	88.7817	177.246	89.0768	177.246	87.9664	177.246	88.285	177.246	87.1411	177.246	87.4944	177.246	86.3865	177.246	86.7711	177.246	85.8046	177.246	86.1867	177.246	85.4784	177.246	85.7977	177.246	85.4187	177.246	85.6224	177.246	85.5534	177.246	85.6309	177.246	85.7723	177.246	85.7582	177.246	85.9788	177.246	85.9279	177.246	86.1112	177.246	86.0722	177.246	86.142
183.105	91.0743	183.105	90.9715	183.105	91.0257	183.105	90.7213	183.105	90.8217	183.105	90.3273	183.105	90.4604	183.105	89.7916	183.105	89.9429	183.105	89.1153	183.105	89.2747	183.105	88.3015	183.105	88.4693	183.105	87.362	183.105	87.5532	183.105	86.3312	183.105	86.5761	183.105	85.2907	183.105	85.623	183.105	84.3944	183.105	84.8199	183.105	83.8472	183.105	84.3056	183.105	83.7813	183.105	84.1606	183.105	84.1287	183.105	84.3464	183.105	84.6774	183.105	84.7333	183.105	85.2266	183.105	85.1787	183.105	85.6547	183.105	85.5745	183.105	85.9076	183.105	85.8521	183.105	85.9709
188.965	90.3601	188.965	90.2891	188.965	90.2501	188.965	90.0388	188.965	89.9541	188.965	89.6062	188.965	89.4646	188.965	88.9811	188.965	88.7719	188.965	88.1448	188.965	87.8646	188.965	87.0682	188.965	86.7314	188.965	85.7139	188.965	85.368	188.965	84.0496	188.965	83.8019	188.965	82.1082	188.965	82.1594	188.965	80.1929	188.965	80.7927	188.965	79.1886	188.965	80.2638	188.965	79.8153	188.965	80.7854	188.965	81.3525	188.965	81.9034	188.965	82.8876	188.965	83.0989	188.965	84.0929	188.965	84.1176	188.965	84.919	188.965	84.8747	188.965	85.3856	188.965	85.3459	188.965	85.5207
196.289	91.791	196.289	91.674	196.289	91.7343	196.289	91.3871	196.289	91.4961	196.289	90.9278	196.289	91.065	196.289	90.284	196.289	90.4246	196.289	89.4292	196.289	89.551	196.289	88.316	196.289	88.4071	196.289	86.8669	196.289	86.9334	196.289	84.9569	196.289	85.0319	196.289	82.3862	196.289	82.5385	196.289	78.8937	196.289	79.2132	196.289	75.0677	196.289	75.255	196.289	75.5989	196.289	74.5002	196.289	79.1285	196.289	77.8809	196.289	81.8778	196.289	80.8962	196.289	83.7057	196.289	82.9878	196.289	84.8424	196.289	84.3705	196.289	85.4313	196.289	85.1968	196.289	85.5427
203.613	94.0692	203.613	94.0146	203.613	94.0226	203.613	93.8587	203.613	93.8796	203.613	93.6063	203.613	93.6482	203.613	93.2665	203.613	93.3376	203.613	92.8502	203.613	92.9566	203.613	92.3672	203.613	92.5112	203.613	91.8236	203.613	92.0037	203.613	91.22	203.613	91.4316	203.613	90.5545	203.613	90.7879	203.613	89.8287	203.613	90.0652	203.613	89.0587	203.613	89.262	203.613	88.2829	203.613	88.3951	203.613	87.56	203.613	87.5123	203.613	86.9482	203.613	86.7012	203.613	86.4758	203.613	86.0723	203.613	86.1287	203.613	85.7067	203.613	85.8706	203.613	85.6025	203.613	85.6842
210.938	93.9263	210.938	93.8774	210.938	93.8594	210.938	93.7105	210.938	93.6859	210.938	93.4314	210.938	93.4205	210.938	93.0534	210.938	93.0804	210.938	92.595	210.938	92.6828	210.938	92.0765	210.938	92.2421	210.938	91.5171	210.938	91.7664	210.938	90.9314	210.938	91.2562	210.938	90.3273	210.938	90.7048	210.938	89.7044	210.938	90.1023	210.938	89.0558	210.938	89.4417	210.938	88.3746	210.938	88.7257	210.938	87.6641	210.938	87.9719	210.938	86.9487	210.938	87.2148	210.938	86.28	210.938	86.5045	210.938	85.7326	210.938	85.9034	210.938	85.3859	210.938	85.4806	210.938	85.2973
218.262	92.6431	218.262	92.5781	218.262	92.5944	218.262	92.4027	218.262	92.4336	218.262	92.1247	218.262	92.1668	218.262	91.7562	218.262	91.8037	218.262	91.3116	218.262	91.3578	218.262	90.8069	218.262	90.8448	218.262	90.2586	218.262	90.2809	218.262	89.6829	218.262	89.6802	218.262	89.0933	218.262	89.0525	218.262	88.4987	218.262	88.4043	218.262	87.9019	218.262	87.7421	218.262	87.3025	218.262	87.0789	218.262	86.704	218.262	86.4379	218.262	86.1226	218.262	85.8525	218.262	85.592	218.262	85.3604	218.262	85.1579	218.262	84.9953	218.262	84.8635	218.262	84.7819	218.262	84.7357
225.586	92.0567	225.586	92.0448	225.586	91.9301	225.586	91.8894	225.586	91.675	225.586	91.5931	225.586	91.3048	225.586	91.1676	225.586	90.836	225.586	90.6333	225.586	90.289	225.586	90.0182	225.586	89.6898	225.586	89.3554	225.586	89.0706	225.586	88.6808	225.586	88.468	225.586	88.0336	225.586	87.9175	225.586	87.4548	225.586	87.4478	225.586	86.9829	225.586	87.0763	225.586	86.6454	225.586	86.8107	225.586	86.4485	225.586	86.6485	225.586	86.3737	225.586	86.5752	225.586	86.3852	225.586	86.5621	225.586	86.4416	225.586	86.5736	225.586	86.5072	225.586	86.5779	225.586	86.5567
232.91	92.3941	232.91	92.3702	232.91	92.2703	232.91	92.1972	232.91	92.0021	232.91	91.8766	232.91	91.5947	232.91	91.4138	232.91	91.0548	232.91	90.818	232.91	90.3911	232.91	90.1002	232.91	89.6142	232.91	89.2726	232.91	88.7381	232.91	88.3497	232.91	87.7838	232.91	87.3568	232.91	86.7871	232.91	86.345	232.91	85.8084	232.91	85.4087	232.91	84.9415	232.91	84.6841	232.91	84.3039	232.91	84.294	232.91	83.9926	232.91	84.2558	232.91	84.0157	232.91	84.4557	232.91	84.2699	232.91	84.7257	232.91	84.5979	232.91	84.9279	232.91	84.8629	232.91	84.9819
241.699	91.8849	241.699	91.8053	241.699	91.8198	241.699	91.5845	241.699	91.6092	241.699	91.2286	241.699	91.2559	241.699	90.7446	241.699	90.7661	241.699	90.1399	241.699	90.1494	241.699	89.4194	241.699	89.4174	241.699	88.5858	241.699	88.582	241.699	87.6409	241.699	87.6552	241.699	86.5932	241.699	86.6525	241.699	85.4717	241.699	85.6028	241.699	84.3456	241.699	84.5634	241.699	83.342	241.699	83.6332	241.699	82.629	241.699	82.9401	241.699	82.3213	241.699	82.58	241.699	82.3723	241.699	82.5371	241.699	82.5998	241.699	82.6801	241.699	82.8156	241.699	82.8439	241.699	82.9061
250.488	91.5537	250.488	91.4656	250.488	91.4925	250.488	91.2293	250.488	91.2858	250.488	90.8502	250.488	90.9406	250.488	90.3384	250.488	90.4664	250.488	89.7069	250.488	89.8747	250.488	88.9682	250.488	89.1781	250.488	88.1322	250.488	88.3918	250.488	87.2051	250.488	87.5368	250.488	86.1967	250.488	86.6453	250.488	85.1375	250.488	85.768	250.488	84.1059	250.488	84.9759	250.488	83.2471	250.488	84.3485	250.488	82.734	250.488	83.945	250.488	82.6467	250.488	83.7718	250.488	82.8897	250.488	83.7722	250.488	83.2677	250.488	83.8475	250.488	83.6109	250.488	83.8924	250.488	83.8259
259.277	92.7843	259.277	92.6365	259.277	92.7791	259.277	92.3428	259.277	92.6111	259.277	91.9048	259.277	92.2728	259.277	91.3198	259.277	91.763	259.277	90.583	259.277	91.0896	259.277	89.6903	259.277	90.2672	259.277	88.6395	259.277	89.3129	259.277	87.4304	259.277	88.2409	259.277	86.0687	259.277	87.063	259.277	84.5818	259.277	85.8013	259.277	83.065	259.277	84.5237	259.277	81.7641	259.277	83.3969	259.277	81.084	259.277	82.6932	259.277	81.2568	259.277	82.6016	259.277	82.0063	259.277	82.9832	259.277	82.8615	259.277	83.4862	259.277	83.5183	259.277	83.8231	259.277	83.8485
268.066	92.4725	268.066	92.3598	268.066	92.4241	268.066	92.0984	268.066	92.2077	268.066	91.7019	268.066	91.8242	268.066	91.1827	268.066	91.2826	268.066	90.5505	268.066	90.5988	268.066	89.8124	268.066	89.7921	268.066	88.9748	268.066	88.882	268.066	88.0426	268.066	87.8871	268.066	87.0175	268.066	86.8278	268.066	85.8995	268.066	85.733	268.066	84.7009	268.066	84.6489	268.066	83.484	268.066	83.6423	268.066	82.408	268.066	82.7978	268.066	81.7088	268.066	82.2037	268.066	81.5139	268.066	81.9148	268.066	81.6765	268.066	81.892	268.066	81.9135	268.066	81.9884	268.066	82.0293
276.855	91.9929	276.855	91.8965	276.855	91.9257	276.855	91.6419	276.855	91.6949	276.855	91.2397	276.855	91.3054	276.855	90.7023	276.855	90.7663	276.855	90.0412	276.855	90.0886	276.855	89.2643	276.855	89.2833	276.855	88.3761	276.855	88.3617	276.855	87.3834	276.855	87.3389	276.855	86.3052	276.855	86.2456	276.855	85.1876	276.855	85.1493	276.855	84.1206	276.855	84.1747	276.855	83.2445	276.855	83.4855	276.855	82.7129	276.855	83.1876	276.855	82.5991	276.855	83.2303	276.855	82.8226	276.855	83.4468	276.855	83.1985	276.855	83.6719	276.855	83.5477	276.855	83.796	276.855	83.7598
287.109	91.8832	287.109	91.7654	287.109	91.8217	287.109	91.4741	287.109	91.5837	287.109	91.0214	287.109	91.1811	287.109	90.4221	287.109	90.6295	287.109	89.6918	287.109	89.942	287.109	88.8455	287.109	89.1239	287.109	87.8959	287.109	88.1728	287.109	86.8527	287.109	87.0818	287.109	85.729	287.109	85.8474	287.109	84.5616	287.109	84.4934	287.109	83.4457	287.109	83.1379	287.109	82.564	287.109	82.0983	287.109	82.1408	287.109	81.7944	287.109	82.2654	287.109	82.2484	287.109	82.7724	287.109	83.0057	287.109	83.3769	287.109	83.6572	287.109	83.8561	287.109	84.0308	287.109	84.0915
297.363	91.8526	297.363	91.8482	297.363	91.6891	297.363	91.6642	297.363	91.377	297.363	91.3007	297.363	90.9361	297.363	90.7667	297.363	90.3786	297.363	90.0721	297.363	89.7043	297.363	89.2195	297.363	88.9013	297.363	88.2054	297.363	87.9557	297.363	87.034	297.363	86.8672	297.363	85.7463	297.363	85.6634	297.363	84.457	297.363	84.4038	297.363	83.3801	297.363	83.1908	297.363	82.777	297.363	82.2195	297.363	82.7797	297.363	81.8031	297.363	83.2583	297.363	82.1286	297.363	83.9254	297.363	82.954	297.363	84.5155	297.363	83.8474	297.363	84.8586	297.363	84.5245	297.363	84.8701
307.617	92.2372	307.617	92.1265	307.617	92.1588	307.617	91.8351	307.617	91.886	307.617	91.3682	307.617	91.4232	307.617	90.7272	307.617	90.7878	307.617	89.9137	307.617	90.0014	307.617	88.9316	307.617	89.0718	307.617	87.7803	307.617	87.9762	307.617	86.4415	307.617	86.6584	307.617	84.8747	307.617	85.0461	307.617	83.0547	307.617	83.0891	307.617	81.1151	307.617	80.8616	307.617	79.6264	307.617	78.8716	307.617	79.412	307.617	78.2645	307.617	80.3408	307.617	79.3094	307.617	81.5648	307.617	80.858	307.617	82.5789	307.617	82.1572	307.617	83.1984	307.617	83.0014	307.617	83.3489
319.336	91.4625	319.336	91.3428	319.336	91.4114	319.336	91.0605	319.336	91.1792	319.336	90.62	319.336	90.7599	319.336	90.022	319.336	90.1577	319.336	89.2654	319.336	89.3896	319.336	88.3495	319.336	88.4797	319.336	87.2748	319.336	87.4482	319.336	86.0387	319.336	86.3006	319.336	84.6311	319.336	85.0251	319.336	83.054	319.336	83.6007	319.336	81.4195	319.336	82.0442	319.336	80.1794	319.336	80.5543	319.336	80.0733	319.336	79.7249	319.336	81.1057	319.336	80.1556	319.336	82.4545	319.336	81.4637	319.336	83.5392	319.336	82.826	319.336	84.1577	319.336	83.8007	319.336	84.2513
329.59	92.1117	329.59	91.961	329.59	92.0882	329.59	91.6482	329.59	91.8748	329.59	91.1785	329.59	91.4612	329.59	90.5504	329.59	90.8496	329.59	89.7597	329.59	90.0555	329.59	88.8002	329.59	89.0979	329.59	87.66	329.59	87.9839	329.59	86.3119	329.59	86.6939	329.59	84.699	329.59	85.1695	329.59	82.7201	329.59	83.3045	329.59	80.2725	329.59	80.963	329.59	77.6632	329.59	78.2155	329.59	76.8636	329.59	76.4977	329.59	78.9163	329.59	77.9547	329.59	81.3681	329.59	80.5588	329.59	83.1275	329.59	82.5989	329.59	84.106	329.59	83.8483	329.59	84.3422
341.309	91.1997	341.309	91.0564	341.309	91.1722	341.309	90.7475	341.309	90.9769	341.309	90.2847	341.309	90.6226	341.309	89.6826	341.309	90.1188	341.309	88.9552	341.309	89.4716	341.309	88.112	341.309	88.6846	341.309	87.1518	341.309	87.7621	341.309	86.0522	341.309	86.7073	341.309	84.7589	341.309	85.5079	341.309	83.1901	341.309	84.1162	341.309	81.2836	341.309	82.4476	341.309	79.1991	341.309	80.4411	341.309	77.8546	341.309	78.3382	341.309	78.4702	341.309	77.3237	341.309	80.2185	341.309	78.4387	341.309	81.7422	341.309	80.3608	341.309	82.5709	341.309	81.8606	341.309	82.6132
353.027	90.9585	353.027	90.8258	353.027	90.913	353.027	90.5139	353.027	90.6986	353.027	90.0283	353.027	90.3318	353.027	89.3768	353.027	89.8308	353.027	88.5652	353.027	89.2032	353.027	87.5952	353.027	88.4354	353.027	86.4685	353.027	87.4934	353.027	85.1882	353.027	86.3344	353.027	83.7391	353.027	84.919	353.027	82.035	353.027	83.2247	353.027	79.8607	353.027	81.2878	353.027	76.8869	353.027	79.3359	353.027	73.4531	353.027	77.9845	353.027	73.7805	353.027	77.9281	353.027	77.2974	353.027	78.9848	353.027	79.9402	353.027	80.3458	353.027	81.3757	353.027	81.3961	353.027	81.804
366.211	90.7163	366.211	90.6283	366.211	90.6219	366.211	90.3682	366.211	90.3502	366.211	89.9542	366.211	89.9222	366.211	89.4043	366.211	89.3669	366.211	88.7307	366.211	88.7085	366.211	87.933	366.211	87.9594	366.211	86.9879	366.211	87.1197	366.211	85.8446	366.211	86.175	366.211	84.4427	366.211	85.0801	366.211	82.7486	366.211	83.7293	366.211	80.7969	366.211	81.9383	366.211	78.7275	366.211	79.4775	366.211	76.8778	366.211	76.3531	366.211	75.9836	366.211	74.2023	366.211	76.5771	366.211	75.3926	366.211	77.8736	366.211	77.4675	366.211	78.8923	366.211	78.7879	366.211	79.2372
379.395	91.0951	379.395	90.9816	379.395	91.0084	379.395	90.6693	379.395	90.7214	379.395	90.1563	379.395	90.2387	379.395	89.4379	379.395	89.5656	379.395	88.5167	379.395	88.7049	379.395	87.414	379.395	87.6611	379.395	86.1684	379.395	86.4537	379.395	84.817	379.395	85.1288	379.395	83.3645	379.395	83.7509	379.395	81.7558	379.395	82.3601	379.395	79.8976	379.395	80.9259	379.395	77.8213	379.395	79.4165	379.395	76.1654	379.395	78.0935	379.395	76.2277	379.395	77.7265	379.395	77.7607	379.395	78.5816	379.395	79.3731	379.395	79.7912	379.395	80.4508	379.395	80.6342	379.395	80.8718
392.578	91.18	392.578	91.1174	392.578	91.0504	392.578	90.8701	392.578	90.7364	392.578	90.449	392.578	90.2653	392.578	89.8569	392.578	89.6744	392.578	89.0877	392.578	88.9896	392.578	88.1321	392.578	88.2023	392.578	86.9804	392.578	87.2609	392.578	85.6142	392.578	86.0791	392.578	83.991	392.578	84.5495	392.578	82.0247	392.578	82.5383	392.578	79.5637	392.578	79.8506	392.578	76.4805	392.578	76.2288	392.578	73.7336	392.578	72.425	392.578	74.6722	392.578	73.4278	392.578	77.6285	392.578	76.9898	392.578	79.9157	392.578	79.5561	392.578	81.2145	392.578	81.0386	392.578	81.5791
405.762	90.5101	405.762	90.477	405.762	90.3512	405.762	90.2393	405.762	90.0308	405.762	89.8058	405.762	89.5842	405.762	89.2056	405.762	89.0341	405.762	88.4839	405.762	88.3819	405.762	87.6898	405.762	87.6156	405.762	86.8424	405.762	86.7351	405.762	85.8894	405.762	85.7693	405.762	84.6955	405.762	84.7581	405.762	83.0654	405.762	83.6853	405.762	80.766	405.762	82.4095	405.762	77.57	405.762	80.6747	405.762	74.0327	405.762	78.3232	405.762	74.1629	405.762	76.3006	405.762	77.2549	405.762	77.0639	405.762	79.6222	405.762	79.2426	405.762	80.9145	405.762	80.7453	405.762	81.2799
420.41	90.4231	420.41	90.3294	420.41	90.3411	420.41	90.0409	420.41	90.1091	420.41	89.5699	420.41	89.7333	420.41	88.958	420.41	89.1993	420.41	88.2472	420.41	88.4929	420.41	87.4564	420.41	87.6194	420.41	86.584	420.41	86.6074	420.41	85.6139	420.41	85.4881	420.41	84.4798	420.41	84.2483	420.41	83.0098	420.41	82.7686	420.41	80.9064	420.41	80.7685	420.41	77.7396	420.41	77.7208	420.41	73.1474	420.41	72.7649	420.41	71.5415	420.41	70.6446	420.41	76.1344	420.41	76.3869	420.41	79.6871	420.41	80.1301	420.41	81.7233	420.41	82.0071	420.41	82.4856
435.059	90.3505	435.059	90.2281	435.059	90.2911	435.059	89.9344	435.059	90.0314	435.059	89.4725	435.059	89.5585	435.059	88.8478	435.059	88.8837	435.059	88.0734	435.059	88.0553	435.059	87.1698	435.059	87.1595	435.059	86.1682	435.059	86.2917	435.059	85.1126	435.059	85.4891	435.059	84.0326	435.059	84.6727	435.059	82.8629	435.059	83.6795	435.059	81.3743	435.059	82.3524	435.059	79.1415	435.059	80.5594	435.059	75.3591	435.059	78.0999	435.059	68.5111	435.059	74.8205	435.059	70.055	435.059	72.8969	435.059	75.7884	435.059	75.4522	435.059	78.3782	435.059	78.026	435.059	79.0175
451.172	91.1264	451.172	90.9798	451.172	91.0715	451.172	90.6715	451.172	90.7766	451.172	90.2112	451.172	90.2425	451.172	89.5885	451.172	89.519	451.172	88.8059	451.172	88.6752	451.172	87.8874	451.172	87.7535	451.172	86.8469	451.172	86.7493	451.172	85.6507	451.172	85.6317	451.172	84.2138	451.172	84.3665	451.172	82.4416	451.172	82.88	451.172	80.3511	451.172	80.9443	451.172	78.3625	451.172	78.0161	451.172	77.3296	451.172	73.099	451.172	77.6091	451.172	70.4269	451.172	79.0722	451.172	76.2795	451.172	81.0374	451.172	80.1168	451.172	82.4665	451.172	82.1403	451.172	82.8724
465.82	90.8761	465.82	90.719	465.82	90.7224	465.82	90.2761	465.82	90.3114	465.82	89.6447	465.82	89.7355	465.82	88.9401	465.82	89.0733	465.82	88.2308	465.82	88.3701	465.82	87.5195	465.82	87.6474	465.82	86.7799	465.82	86.8986	465.82	85.9911	465.82	86.0825	465.82	85.1093	465.82	85.152	465.82	83.9804	465.82	84.0709	465.82	82.261	465.82	82.7572	465.82	79.3475	465.82	81	465.82	74.0489	465.82	78.4504	465.82	67.5199	465.82	74.8887	465.82	74.3592	465.82	73.0896	465.82	78.6619	465.82	76.4817	465.82	80.6303	465.82	79.5554	465.82	80.9123
483.398	90.9184	483.398	90.8287	483.398	90.7955	483.398	90.5238	483.398	90.4657	483.398	90.0086	483.398	89.9471	483.398	89.3085	483.398	89.2782	483.398	88.4772	483.398	88.5056	483.398	87.5869	483.398	87.6619	483.398	86.6952	483.398	86.7559	483.398	85.8037	483.398	85.7869	483.398	84.8391	483.398	84.7698	483.398	83.6638	483.398	83.7216	483.398	82.08	483.398	82.533	483.398	79.7867	483.398	80.7488	483.398	76.357	483.398	77.3375	483.398	72.8388	483.398	70.5379	483.398	75.3111	483.398	73.3728	483.398	79.135	483.398	79.0335	483.398	81.3484	483.398	81.502	483.398	82.1269
499.512	90.7278	499.512	90.6047	499.512	90.6337	499.512	90.2712	499.512	90.3226	499.512	89.74	499.512	89.7986	499.512	89.0226	499.512	89.0751	499.512	88.1324	499.512	88.1908	499.512	87.113	499.512	87.228	499.512	86.0602	499.512	86.3088	499.512	85.085	499.512	85.5162	499.512	84.2182	499.512	84.7717	499.512	83.3438	499.512	83.8438	499.512	82.1814	499.512	82.5158	499.512	80.2375	499.512	80.6872	499.512	76.6064	499.512	78.2579	499.512	69.1959	499.512	75.0511	499.512	69.6165	499.512	72.5864	499.512	75.901	499.512	74.742	499.512	78.4042	499.512	77.5588	499.512	78.8208
517.09	91.5133	517.09	91.2513	517.09	91.4128	517.09	90.7011	517.09	90.9457	517.09	89.9598	517.09	90.206	517.09	89.116	517.09	89.349	517.09	88.2508	517.09	88.498	517.09	87.4391	517.09	87.6856	517.09	86.7114	517.09	86.8898	517.09	86.0104	517.09	86.0776	517.09	85.2204	517.09	85.1822	517.09	84.2338	517.09	84.078	517.09	82.9178	517.09	82.5863	517.09	80.9614	517.09	80.426	517.09	77.7038	517.09	77.0898	517.09	72.6554	517.09	72.9065	517.09	74.4853	517.09	75.2916	517.09	79.6863	517.09	79.8832	517.09	82.4623	517.09	82.4885	517.09	83.3187
536.133	90.8527	536.133	90.8266	536.133	90.561	536.133	90.4188	536.133	90.0402	536.133	89.6766	536.133	89.3265	536.133	88.7489	536.133	88.4367	536.133	87.7756	536.133	87.4482	536.133	86.8	536.133	86.4652	536.133	85.829	536.133	85.5152	536.133	84.9189	536.133	84.5863	536.133	84.1068	536.133	83.7818	536.133	83.3037	536.133	83.2692	536.133	82.3266	536.133	82.8494	536.133	80.8896	536.133	81.8391	536.133	78.3949	536.133	79.3839	536.133	73.7645	536.133	74.1859	536.133	72.3445	536.133	68.9825	536.133	78.045	536.133	76.0653	536.133	80.9728	536.133	80.0042	536.133	81.5043
555.176	91.5555	555.176	91.2998	555.176	91.479	555.176	90.7211	555.176	91.066	555.176	89.8451	555.176	90.3425	555.176	88.7561	555.176	89.3781	555.176	87.5926	555.176	88.2684	555.176	86.4602	555.176	87.1229	555.176	85.3795	555.176	86.0845	555.176	84.3975	555.176	85.2975	555.176	83.6519	555.176	84.7097	555.176	83.0952	555.176	84.0145	555.176	82.2623	555.176	82.9472	555.176	80.4826	555.176	81.3487	555.176	76.8969	555.176	78.6366	555.176	69.3913	555.176	72.5165	555.176	70.3014	555.176	66.5069	555.176	77.8697	555.176	77.448	555.176	81.3626	555.176	81.3648	555.176	82.4487
574.219	91.9574	574.219	91.6974	574.219	91.7789	574.219	91.0788	574.219	91.1468	574.219	90.1926	574.219	90.1454	574.219	89.1039	574.219	88.9575	574.219	87.8798	574.219	87.8064	574.219	86.6596	574.219	86.8536	574.219	85.634	574.219	86.1091	574.219	84.8628	574.219	85.4707	574.219	84.1715	574.219	84.8804	574.219	83.3888	574.219	84.3351	574.219	82.5793	574.219	83.7336	574.219	81.6899	574.219	82.8154	574.219	79.8677	574.219	81.0941	574.219	75.3946	574.219	77.6223	574.219	72.4691	574.219	72.4962	574.219	78.7241	574.219	76.3792	574.219	81.6818	574.219	80.5436	574.219	82.1443
594.727	91.4863	594.727	91.2809	594.727	91.2386	594.727	90.6287	594.727	90.6067	594.727	89.6033	594.727	89.6959	594.727	88.3315	594.727	88.5823	594.727	86.9749	594.727	87.3143	594.727	85.687	594.727	86.0057	594.727	84.566	594.727	84.8506	594.727	83.6337	594.727	83.8946	594.727	82.8848	594.727	82.9466	594.727	82.3251	594.727	82.0235	594.727	81.753	594.727	81.4526	594.727	80.6232	594.727	80.9136	594.727	78.2315	594.727	79.3022	594.727	73.3882	594.727	75.3302	594.727	62.3919	594.727	68.6401	594.727	72.0689	594.727	73.9788	594.727	77.4699	594.727	78.2547	594.727	79.2399
615.234	91.6273	615.234	91.3803	615.234	91.3864	615.234	90.6778	615.234	90.676	615.234	89.5945	615.234	89.5675	615.234	88.2722	615.234	88.1774	615.234	86.9324	615.234	86.6709	615.234	85.7667	615.234	85.2205	615.234	84.7716	615.234	83.936	615.234	83.8051	615.234	82.9397	615.234	82.9191	615.234	82.4767	615.234	82.4222	615.234	82.5711	615.234	82.1607	615.234	82.6574	615.234	81.1926	615.234	82.0531	615.234	78.3545	615.234	80.3209	615.234	71.6072	615.234	76.6118	615.234	69.8553	615.234	65.4071	615.234	78.2474	615.234	74.1582	615.234	81.8915	615.234	80.7207	615.234	82.7178
637.207	91.4217	637.207	91.1031	637.207	91.2201	637.207	90.3196	637.207	90.5258	637.207	89.2314	637.207	89.4252	637.207	88.0386	637.207	88.0689	637.207	86.8515	637.207	86.6348	637.207	85.6714	637.207	85.2325	637.207	84.5369	637.207	83.9624	637.207	83.5866	637.207	83.1332	637.207	82.8537	637.207	82.8891	637.207	82.2071	637.207	82.6451	637.207	81.6378	637.207	81.8628	637.207	81.0442	637.207	80.621	637.207	79.9659	637.207	78.5994	637.207	77.6567	637.207	73.3603	637.207	73.798	637.207	69.1061	637.207	76.3649	637.207	78.3786	637.207	80.8273	637.207	81.8349	637.207	82.5075
659.18	90.6068	659.18	90.3258	659.18	90.3557	659.18	89.5057	659.18	89.6421	659.18	88.2072	659.18	88.5655	659.18	86.5681	659.18	87.2319	659.18	84.7835	659.18	85.8018	659.18	83.0533	659.18	84.5082	659.18	81.5601	659.18	83.4315	659.18	80.478	659.18	82.3305	659.18	80.0785	659.18	81.265	659.18	80.5701	659.18	80.9239	659.18	81.3631	659.18	81.1467	659.18	81.4906	659.18	81.1735	659.18	80.2799	659.18	80.6001	659.18	76.2988	659.18	78.6511	659.18	61.0419	659.18	73.2413	659.18	75.772	659.18	67.4781	659.18	80.3426	659.18	77.5633	659.18	80.7542
682.617	90.485	682.617	90.0073	682.617	90.4115	682.617	89.0844	682.617	89.7708	682.617	87.9619	682.617	88.67	682.617	86.9011	682.617	87.3848	682.617	85.9315	682.617	86.0705	682.617	84.9122	682.617	84.512	682.617	83.9142	682.617	82.6833	682.617	83.0917	682.617	81.207	682.617	82.215	682.617	80.2263	682.617	81.2805	682.617	79.5702	682.617	80.5771	682.617	80.1032	682.617	79.8585	682.617	80.9305	682.617	78.1656	682.617	79.9956	682.617	73.5312	682.617	75.7731	682.617	70.1067	682.617	66.6744	682.617	77.5883	682.617	75.8409	682.617	81.1441	682.617	80.5261	682.617	82.0128
707.52	90.2909	707.52	90.2163	707.52	89.8733	707.52	89.6682	707.52	89.13	707.52	88.7631	707.52	88.2967	707.52	87.5621	707.52	87.397	707.52	86.1077	707.52	86.2169	707.52	84.5297	707.52	84.6981	707.52	82.9484	707.52	83.1432	707.52	81.7077	707.52	81.7806	707.52	81.4176	707.52	80.4637	707.52	81.3921	707.52	79.6013	707.52	80.891	707.52	79.7219	707.52	80.5392	707.52	79.9159	707.52	79.976	707.52	79.4026	707.52	77.7582	707.52	77.1521	707.52	71.7446	707.52	69.8761	707.52	69.5731	707.52	66.2276	707.52	76.9691	707.52	76.2064	707.52	78.5874
732.422	89.4356	732.422	89.3746	732.422	89.1053	732.422	88.9502	732.422	88.4193	732.422	88.2012	732.422	87.3855	732.422	87.1388	732.422	86.0034	732.422	85.7651	732.422	84.6237	732.422	84.1342	732.422	83.8189	732.422	82.3679	732.422	83.305	732.422	80.5832	732.422	82.094	732.422	79.0198	732.422	80.5734	732.422	78.6823	732.422	80.1885	732.422	80.2773	732.422	79.7963	732.422	81.7033	732.422	79.2687	732.422	81.3067	732.422	79.7292	732.422	78.0398	732.422	79.1432	732.422	66.4422	732.422	74.2499	732.422	74.9625	732.422	62.818	732.422	80.7593	732.422	77.7431	732.422	81.3679
757.324	89.8136	757.324	89.6331	757.324	89.6153	757.324	89.0245	757.324	89.0237	757.324	87.991	757.324	88.0497	757.324	86.5972	757.324	87.0799	757.324	85.0016	757.324	86.2389	757.324	83.4243	757.324	85.0172	757.324	82.3358	757.324	83.4808	757.324	81.9903	757.324	82.2308	757.324	81.2229	757.324	80.6072	757.324	79.849	757.324	77.6409	757.324	80.4242	757.324	77.1866	757.324	81.5153	757.324	80.1496	757.324	80.6173	757.324	81.664	757.324	77.6267	757.324	80.8037	757.324	69.909	757.324	76.1448	757.324	74.1581	757.324	71.3786	757.324	80.1668	757.324	79.4045	757.324	81.6175
785.156	89.5505	785.156	89.4476	785.156	89.126	785.156	88.8217	785.156	88.3975	785.156	88.0712	785.156	87.7099	785.156	87.4961	785.156	87.1557	785.156	86.7627	785.156	86.4716	785.156	85.6091	785.156	85.4567	785.156	83.7352	785.156	84.1894	785.156	80.6475	785.156	82.9034	785.156	77.7448	785.156	81.5682	785.156	76.9602	785.156	80.1676	785.156	76.7417	785.156	79.9635	785.156	78.7924	785.156	80.9692	785.156	80.1015	785.156	81.8558	785.156	78.261	785.156	81.9034	785.156	69.5544	785.156	79.3042	785.156	71.644	785.156	71.8542	785.156	78.8053	785.156	74.0999	785.156	79.1848
811.523	88.8277	811.523	88.3947	811.523	88.9361	811.523	88.2054	811.523	88.4785	811.523	88.2442	811.523	87.9453	811.523	87.8715	811.523	87.7192	811.523	86.9335	811.523	87.2536	811.523	85.8076	811.523	85.989	811.523	84.654	811.523	84.1203	811.523	83.365	811.523	82.1444	811.523	81.6343	811.523	79.8707	811.523	79.5947	811.523	78.1154	811.523	78.6962	811.523	77.693	811.523	79.3241	811.523	78.6371	811.523	79.9894	811.523	81.329	811.523	78.8114	811.523	81.6197	811.523	71.4178	811.523	76.5619	811.523	71.0612	811.523	67.3371	811.523	78.8257	811.523	77.0535	811.523	79.7528
840.82	88.2078	840.82	88.3545	840.82	87.4648	840.82	88.045	840.82	87.5938	840.82	88.235	840.82	88.7127	840.82	88.6406	840.82	89.0782	840.82	88.2473	840.82	88.322	840.82	86.634	840.82	87.2126	840.82	84.1036	840.82	86.4779	840.82	81.124	840.82	85.738	840.82	77.0153	840.82	84.2701	840.82	73.3154	840.82	81.6392	840.82	74.6479	840.82	78.7985	840.82	78.6079	840.82	78.277	840.82	80.5141	840.82	79.5175	840.82	77.871	840.82	81.5848	840.82	57.5698	840.82	80.5833	840.82	78.1791	840.82	70.3441	840.82	83.4088	840.82	77.0033	840.82	83.3231
870.117	86.5622	870.117	86.7506	870.117	86.4274	870.117	87.6268	870.117	87.3548	870.117	88.9822	870.117	89.0242	870.117	89.798	870.117	89.9352	870.117	89.5874	870.117	89.6626	870.117	88.1389	870.117	88.447	870.117	85.797	870.117	86.7177	870.117	83.8959	870.117	84.2663	870.117	81.8382	870.117	82.2041	870.117	76.9335	870.117	81.2128	870.117	70.6765	870.117	77.7011	870.117	75.4557	870.117	76.852	870.117	79.6758	870.117	80.4053	870.117	79.6672	870.117	80.4537	870.117	74.1506	870.117	77.7704	870.117	67.1975	870.117	68.1784	870.117	80.396	870.117	81.8397	870.117	84.0189
900.879	83.5764	900.879	85.5125	900.879	85.4377	900.879	88.5856	900.879	88.6126	900.879	90.6315	900.879	90.2316	900.879	91.0541	900.879	90.6792	900.879	90.3299	900.879	90.3152	900.879	89.0077	900.879	88.891	900.879	87.218	900.879	86.2959	900.879	85.1313	900.879	84.3592	900.879	83.0416	900.879	83.5252	900.879	81.3348	900.879	80.1684	900.879	76.7846	900.879	75.1757	900.879	66.4794	900.879	76.7558	900.879	76.4559	900.879	77.0588	900.879	79.7581	900.879	77.8722	900.879	76.7387	900.879	75.4463	900.879	61.2701	900.879	66.4621	900.879	79.4156	900.879	79.6652	900.879	82.5885
933.105	84.2252	933.105	84.7226	933.105	85.9634	933.105	87.6069	933.105	88.5435	933.105	90.2961	933.105	90.8804	933.105	91.3806	933.105	91.7705	933.105	91.1131	933.105	91.0685	933.105	89.8853	933.105	89.0493	933.105	87.5454	933.105	86.3222	933.105	84.5244	933.105	84.0935	933.105	81.7351	933.105	81.8715	933.105	78.4116	933.105	79.8625	933.105	74.7678	933.105	76.216	933.105	67.6944	933.105	67.442	933.105	76.4042	933.105	74.9271	933.105	77.9318	933.105	79.2941	933.105	76.3446	933.105	78.3148	933.105	69.1286	933.105	62.8701	933.105	77.5616	933.105	77.9523	933.105	80.9426
965.332	80.1908	965.332	84.1729	965.332	83.7564	965.332	88.3785	965.332	88.6229	965.332	90.6874	965.332	90.833	965.332	91.7132	965.332	91.2951	965.332	91.523	965.332	90.8379	965.332	90.0573	965.332	89.5335	965.332	87.2816	965.332	87.0351	965.332	83.828	965.332	83.9946	965.332	82.4268	965.332	80.8477	965.332	81.0115	965.332	78.3506	965.332	74.0981	965.332	77.6694	965.332	56.3242	965.332	72.4228	965.332	74.2829	965.332	70.3697	965.332	78.482	965.332	78.4656	965.332	78.3169	965.332	77.8272	965.332	65.5008	965.332	60.4051	965.332	78.1297	965.332	79.877	965.332	83.0713
1,000.49	84.1713	1,000.49	84.6628	1,000.49	86.046	1,000.49	88.1526	1,000.49	88.9621	1,000.49	90.8078	1,000.49	90.7821	1,000.49	91.5347	1,000.49	91.1519	1,000.49	90.8721	1,000.49	90.4899	1,000.49	89.4109	1,000.49	88.4184	1,000.49	87.2671	1,000.49	84.6299	1,000.49	84.6535	1,000.49	80.348	1,000.49	81.5098	1,000.49	77.1189	1,000.49	77.9743	1,000.49	76.1042	1,000.49	74.9297	1,000.49	75.9308	1,000.49	69.6554	1,000.49	73.2999	1,000.49	64.8162	1,000.49	69.0087	1,000.49	76.9581	1,000.49	74.8413	1,000.49	77.5582	1,000.49	75.785	1,000.49	67.784	1,000.49	70.897	1,000.49	78.3037	1,000.49	69.3439	1,000.49	79.3429
1,035.64	84.2205	1,035.64	85.0694	1,035.64	84.348	1,035.64	86.7717	1,035.64	86.7129	1,035.64	89.0112	1,035.64	89.4302	1,035.64	90.3127	1,035.64	90.7244	1,035.64	90.2604	1,035.64	90.3271	1,035.64	88.7105	1,035.64	88.7493	1,035.64	86.1158	1,035.64	86.6741	1,035.64	83.2833	1,035.64	84.239	1,035.64	81.0131	1,035.64	81.1603	1,035.64	79.1754	1,035.64	77.2805	1,035.64	76.3392	1,035.64	73.7547	1,035.64	70.4905	1,035.64	63.2195	1,035.64	62.06	1,035.64	61.8922	1,035.64	71.8614	1,035.64	70.4515	1,035.64	69.4137	1,035.64	74.0386	1,035.64	69.6383	1,035.64	69.6886	1,035.64	78.6262	1,035.64	77.9956	1,035.64	80.5385
1,072.27	87.9088	1,072.27	87.9157	1,072.27	87.1156	1,072.27	88.0221	1,072.27	86.8801	1,072.27	88.6034	1,072.27	87.9512	1,072.27	89.1968	1,072.27	88.7108	1,072.27	89.113	1,072.27	88.1901	1,072.27	87.8755	1,072.27	87.189	1,072.27	85.9907	1,072.27	85.7089	1,072.27	82.9847	1,072.27	82.4207	1,072.27	79.3163	1,072.27	78.0083	1,072.27	77.8496	1,072.27	75.006	1,072.27	77.335	1,072.27	74.6501	1,072.27	74.1215	1,072.27	75.8337	1,072.27	70.0527	1,072.27	73.7842	1,072.27	69.2051	1,072.27	72.6848	1,072.27	57.3	1,072.27	64.8928	1,072.27	73.3702	1,072.27	73.1448	1,072.27	80.2643	1,072.27	79.8363	1,072.27	81.7794
1,108.89	89.1733	1,108.89	88.4679	1,108.89	88.3789	1,108.89	87.8748	1,108.89	87.5979	1,108.89	88.1629	1,108.89	87.4754	1,108.89	88.0582	1,108.89	87.584	1,108.89	87.4387	1,108.89	87.2842	1,108.89	86.2527	1,108.89	86.4667	1,108.89	84.9327	1,108.89	84.445	1,108.89	84.0341	1,108.89	81.5838	1,108.89	81.2332	1,108.89	80.7852	1,108.89	76.629	1,108.89	76.8486	1,108.89	73.8228	1,108.89	71.9873	1,108.89	73.3325	1,108.89	70.4046	1,108.89	74.6601	1,108.89	67.7156	1,108.89	55.1299	1,108.89	59.1035	1,108.89	69.2111	1,108.89	68.5786	1,108.89	67.7169	1,108.89	72.796	1,108.89	66.9898	1,108.89	74.698	1,108.89	73.9004
1,148.44	88.1506	1,148.44	87.9103	1,148.44	87.647	1,148.44	87.6665	1,148.44	86.4456	1,148.44	87.3429	1,148.44	86.5689	1,148.44	87.2729	1,148.44	87.1351	1,148.44	86.949	1,148.44	86.9938	1,148.44	86.1117	1,148.44	86.0445	1,148.44	85.0084	1,148.44	84.9437	1,148.44	81.6365	1,148.44	83.2162	1,148.44	76.9332	1,148.44	79.976	1,148.44	76.1037	1,148.44	78.0902	1,148.44	73.5425	1,148.44	75.9975	1,148.44	75.5982	1,148.44	76.0486	1,148.44	74.073	1,148.44	75.8266	1,148.44	67.2894	1,148.44	73.7687	1,148.44	60.6325	1,148.44	69.3511	1,148.44	72.3286	1,148.44	69.0671	1,148.44	76.5761	1,148.44	73.216	1,148.44	76.1807
1,189.45	88.9123	1,189.45	88.2698	1,189.45	88.2625	1,189.45	87.5376	1,189.45	88.0158	1,189.45	87.234	1,189.45	88.082	1,189.45	86.4906	1,189.45	87.9353	1,189.45	86.5541	1,189.45	87.8226	1,189.45	86.5379	1,189.45	86.8538	1,189.45	84.7001	1,189.45	85.6828	1,189.45	81.6393	1,189.45	84.1245	1,189.45	79.8867	1,189.45	81.5466	1,189.45	77.9022	1,189.45	78.2871	1,189.45	75.1178	1,189.45	74.1747	1,189.45	75.5232	1,189.45	76.142	1,189.45	72.3619	1,189.45	74.3422	1,189.45	72.3634	1,189.45	69.1728	1,189.45	67.0666	1,189.45	66.0415	1,189.45	71.3233	1,189.45	68.0631	1,189.45	72.6719	1,189.45	73.1061	1,189.45	74.2195
1,230.47	89.3024	1,230.47	89.0131	1,230.47	89.2307	1,230.47	88.246	1,230.47	88.7085	1,230.47	87.746	1,230.47	88.0853	1,230.47	87.5159	1,230.47	87.818	1,230.47	87.2128	1,230.47	87.7604	1,230.47	86.7565	1,230.47	86.5944	1,230.47	85.2552	1,230.47	85.5643	1,230.47	83.9034	1,230.47	83.9783	1,230.47	82.1987	1,230.47	81.134	1,230.47	77.8465	1,230.47	78.8787	1,230.47	74.5362	1,230.47	75.7415	1,230.47	73.114	1,230.47	71.5582	1,230.47	72.3595	1,230.47	71.404	1,230.47	67.2219	1,230.47	71.5887	1,230.47	62.96	1,230.47	67.6406	1,230.47	64.4056	1,230.47	65.2852	1,230.47	74.2374	1,230.47	67.6597	1,230.47	72.5337
1,274.41	89.9581	1,274.41	89.5537	1,274.41	89.5739	1,274.41	88.79	1,274.41	88.5581	1,274.41	88.1956	1,274.41	88.3258	1,274.41	88.0885	1,274.41	88.4792	1,274.41	87.4732	1,274.41	88.0818	1,274.41	86.008	1,274.41	87.2259	1,274.41	85.2343	1,274.41	85.9552	1,274.41	84.1596	1,274.41	85.2214	1,274.41	81.5697	1,274.41	82.8737	1,274.41	79.9774	1,274.41	78.9932	1,274.41	77.91	1,274.41	74.5595	1,274.41	75.4123	1,274.41	74.8756	1,274.41	74.2983	1,274.41	73.0831	1,274.41	70.8093	1,274.41	74.0444	1,274.41	70.2031	1,274.41	65.8425	1,274.41	70.5267	1,274.41	64.6037	1,274.41	68.1169	1,274.41	69.8182	1,274.41	70.6278
1,319.82	89.1092	1,319.82	89.2842	1,319.82	88.7626	1,319.82	88.8164	1,319.82	89.1042	1,319.82	88.7249	1,319.82	88.6189	1,319.82	88.3601	1,319.82	88.0023	1,319.82	87.6377	1,319.82	88.1685	1,319.82	87.4233	1,319.82	87.1823	1,319.82	85.5946	1,319.82	86.4479	1,319.82	82.7118	1,319.82	83.969	1,319.82	80.8221	1,319.82	81.0004	1,319.82	77.8973	1,319.82	78.9098	1,319.82	76.5584	1,319.82	77.6752	1,319.82	73.3589	1,319.82	76.2203	1,319.82	76.2339	1,319.82	76.6607	1,319.82	73.2371	1,319.82	66.2767	1,319.82	70.3071	1,319.82	70.1978	1,319.82	70.4292	1,319.82	73.2197	1,319.82	72.2806	1,319.82	69.3101	1,319.82	69.4579
1,366.7	88.3458	1,366.7	89.1271	1,366.7	88.9693	1,366.7	88.8239	1,366.7	89.3399	1,366.7	88.3275	1,366.7	88.2742	1,366.7	88.6718	1,366.7	89.0788	1,366.7	87.9986	1,366.7	88.0264	1,366.7	87.5547	1,366.7	87.1296	1,366.7	85.8614	1,366.7	86.0126	1,366.7	85.409	1,366.7	83.9231	1,366.7	83.5444	1,366.7	82.5581	1,366.7	81.4696	1,366.7	78.7955	1,366.7	77.5303	1,366.7	76.1488	1,366.7	74.6121	1,366.7	76.0523	1,366.7	69.2003	1,366.7	74.6199	1,366.7	73.5793	1,366.7	74.479	1,366.7	73.2646	1,366.7	72.9884	1,366.7	70.7682	1,366.7	66.1204	1,366.7	57.8212	1,366.7	62.1022	1,366.7	65.031
1,413.57	88.8679	1,413.57	88.5215	1,413.57	88.945	1,413.57	88.6386	1,413.57	88.5652	1,413.57	88.6481	1,413.57	88.5384	1,413.57	88.5448	1,413.57	87.8264	1,413.57	88.4744	1,413.57	88.0568	1,413.57	86.9133	1,413.57	87.1302	1,413.57	86.7892	1,413.57	86.0311	1,413.57	85.2273	1,413.57	84.3963	1,413.57	82.0571	1,413.57	82.272	1,413.57	80.8631	1,413.57	79.5721	1,413.57	77.3219	1,413.57	77.9074	1,413.57	76.2962	1,413.57	73.5631	1,413.57	74.5432	1,413.57	74.294	1,413.57	76.441	1,413.57	73.0125	1,413.57	74.4551	1,413.57	75.7341	1,413.57	74.5932	1,413.57	73.2007	1,413.57	75.081	1,413.57	71.7689	1,413.57	72.2379
1,463.38	88.0278	1,463.38	88.0265	1,463.38	88.5427	1,463.38	88.5112	1,463.38	88.6936	1,463.38	87.7603	1,463.38	88.6104	1,463.38	88.9987	1,463.38	87.9132	1,463.38	88.4846	1,463.38	88.0053	1,463.38	87.0439	1,463.38	87.4406	1,463.38	84.5008	1,463.38	85.7267	1,463.38	81.7222	1,463.38	83.3475	1,463.38	82.1202	1,463.38	81.2151	1,463.38	79.5757	1,463.38	78.456	1,463.38	78.5241	1,463.38	74.3064	1,463.38	77.2799	1,463.38	75.6408	1,463.38	73.5239	1,463.38	65.5167	1,463.38	69.1249	1,463.38	69.7489	1,463.38	73.0047	1,463.38	68.2737	1,463.38	69.4456	1,463.38	74.755	1,463.38	62.9272	1,463.38	64.7891	1,463.38	65.5104
1,516.11	87.7063	1,516.11	86.2425	1,516.11	87.5998	1,516.11	87.1079	1,516.11	86.8864	1,516.11	87.8989	1,516.11	86.9035	1,516.11	88.1078	1,516.11	87.0442	1,516.11	87.1844	1,516.11	87.2552	1,516.11	87.4084	1,516.11	87.2363	1,516.11	86.1032	1,516.11	84.1543	1,516.11	84.9471	1,516.11	83.4946	1,516.11	80.4055	1,516.11	78.416	1,516.11	79.2746	1,516.11	77.5622	1,516.11	71.9994	1,516.11	78.549	1,516.11	75.4099	1,516.11	71.8412	1,516.11	75.8899	1,516.11	75.1656	1,516.11	73.7216	1,516.11	66.2029	1,516.11	68.0238	1,516.11	71.1476	1,516.11	73.7755	1,516.11	72.7211	1,516.11	71.6356	1,516.11	71.6506	1,516.11	69.9936
1,568.85	87.7704	1,568.85	87.0187	1,568.85	86.9358	1,568.85	86.476	1,568.85	86.245	1,568.85	86.8689	1,568.85	86.3817	1,568.85	86.7222	1,568.85	86.68	1,568.85	87.3431	1,568.85	87.0938	1,568.85	86.414	1,568.85	86.8076	1,568.85	85.0329	1,568.85	84.9512	1,568.85	82.9604	1,568.85	82.7162	1,568.85	80.5988	1,568.85	80.6159	1,568.85	76.4347	1,568.85	77.661	1,568.85	76.1682	1,568.85	73.3868	1,568.85	72.6872	1,568.85	71.2854	1,568.85	72.284	1,568.85	68.5855	1,568.85	70.0033	1,568.85	68.1721	1,568.85	71.4415	1,568.85	70.0072	1,568.85	71.8523	1,568.85	70.688	1,568.85	68.512	1,568.85	64.1623	1,568.85	48.5263
1,624.51	87.578	1,624.51	86.9227	1,624.51	87.2335	1,624.51	85.5959	1,624.51	86.4346	1,624.51	85.3391	1,624.51	86.007	1,624.51	86.1458	1,624.51	86.5933	1,624.51	86.3465	1,624.51	86.9227	1,624.51	85.8419	1,624.51	86.0516	1,624.51	84.0202	1,624.51	85.2405	1,624.51	81.9905	1,624.51	83.154	1,624.51	79.5946	1,624.51	80.3725	1,624.51	77.241	1,624.51	78.8006	1,624.51	74.9788	1,624.51	76.3057	1,624.51	72.7404	1,624.51	74.4274	1,624.51	72.9407	1,624.51	73.9235	1,624.51	70.5155	1,624.51	69.9192	1,624.51	65.0665	1,624.51	71.6504	1,624.51	65.1238	1,624.51	68.7872	1,624.51	62.9787	1,624.51	62.8843	1,624.51	63.1143
1,681.64	88.2445	1,681.64	87.4456	1,681.64	87.3097	1,681.64	86.38	1,681.64	86.2695	1,681.64	86.3543	1,681.64	86.5011	1,681.64	86.5744	1,681.64	87.2477	1,681.64	87.3808	1,681.64	87.6695	1,681.64	86.6676	1,681.64	87.5963	1,681.64	85.4464	1,681.64	86.4718	1,681.64	82.5365	1,681.64	84.0512	1,681.64	79.7463	1,681.64	81.7632	1,681.64	76.8756	1,681.64	77.6942	1,681.64	74.1025	1,681.64	76.6093	1,681.64	71.597	1,681.64	70.7809	1,681.64	70.9756	1,681.64	72.2804	1,681.64	71.5688	1,681.64	72.7771	1,681.64	68.7471	1,681.64	60.4002	1,681.64	68.2141	1,681.64	71.3376	1,681.64	63.9645	1,681.64	70.7013	1,681.64	60.7056
1,741.7	88.3646	1,741.7	88.1647	1,741.7	87.845	1,741.7	86.6713	1,741.7	86.8485	1,741.7	86.3949	1,741.7	86.6931	1,741.7	87.4649	1,741.7	87.3137	1,741.7	87.8858	1,741.7	87.9401	1,741.7	87.3914	1,741.7	87.2227	1,741.7	85.5737	1,741.7	85.6821	1,741.7	83.9691	1,741.7	83.1956	1,741.7	80.4612	1,741.7	81.014	1,741.7	78.434	1,741.7	78.452	1,741.7	74.4223	1,741.7	76.7239	1,741.7	71.9561	1,741.7	74.0556	1,741.7	69.4905	1,741.7	71.8602	1,741.7	71.6331	1,741.7	72.1367	1,741.7	67.7154	1,741.7	68.4914	1,741.7	71.638	1,741.7	68.7779	1,741.7	68.0747	1,741.7	55.8405	1,741.7	58.7477
1,803.22	88.6895	1,803.22	87.6525	1,803.22	87.7606	1,803.22	86.9207	1,803.22	86.2422	1,803.22	86.4405	1,803.22	86.55	1,803.22	87.3532	1,803.22	87.4341	1,803.22	87.6839	1,803.22	87.7822	1,803.22	87.4928	1,803.22	87.1594	1,803.22	86.3113	1,803.22	86.0634	1,803.22	83.6869	1,803.22	84.0559	1,803.22	80.5911	1,803.22	80.4253	1,803.22	78.4697	1,803.22	78.0023	1,803.22	77.4864	1,803.22	75.6107	1,803.22	73.3496	1,803.22	73.3288	1,803.22	70.6215	1,803.22	71.4463	1,803.22	69.4493	1,803.22	70.7745	1,803.22	65.763	1,803.22	70.8599	1,803.22	47.7645	1,803.22	67.6094	1,803.22	64.803	1,803.22	62.1473	1,803.22	66.597
1,866.21	87.8966	1,866.21	87.482	1,866.21	86.9109	1,866.21	85.9422	1,866.21	85.5517	1,866.21	86.092	1,866.21	85.4401	1,866.21	86.8372	1,866.21	86.2939	1,866.21	87.5343	1,866.21	86.8707	1,866.21	87.1557	1,866.21	86.6315	1,866.21	85.4573	1,866.21	84.591	1,866.21	83.7635	1,866.21	82.8129	1,866.21	82.4402	1,866.21	80.789	1,866.21	78.6005	1,866.21	76.9893	1,866.21	75.0049	1,866.21	73.5503	1,866.21	73.1697	1,866.21	72.2618	1,866.21	70.5591	1,866.21	66.8601	1,866.21	69.9674	1,866.21	66.788	1,866.21	65.5638	1,866.21	70.9058	1,866.21	70.4082	1,866.21	68.3786	1,866.21	67.8098	1,866.21	57.4631	1,866.21	64.3594
1,932.13	86.7098	1,932.13	85.9538	1,932.13	85.9422	1,932.13	85.0549	1,932.13	85.302	1,932.13	85.5652	1,932.13	85.0109	1,932.13	86.4122	1,932.13	85.981	1,932.13	86.8116	1,932.13	86.5772	1,932.13	85.8877	1,932.13	85.5313	1,932.13	85.0324	1,932.13	84.7038	1,932.13	82.7904	1,932.13	82.3532	1,932.13	79.5804	1,932.13	79.442	1,932.13	77.6825	1,932.13	76.8092	1,932.13	76.2277	1,932.13	73.8084	1,932.13	72.9442	1,932.13	72.4626	1,932.13	71.4082	1,932.13	69.9272	1,932.13	73.3582	1,932.13	71.3855	1,932.13	69.734	1,932.13	65.5896	1,932.13	71.5135	1,932.13	65.3169	1,932.13	64.9508	1,932.13	50.1556	1,932.13	59.491
1,999.51	87.4434	1,999.51	86.6232	1,999.51	86.6125	1,999.51	85.5519	1,999.51	85.5655	1,999.51	85.8396	1,999.51	86.1598	1,999.51	86.6279	1,999.51	86.5866	1,999.51	86.4364	1,999.51	86.7144	1,999.51	85.3644	1,999.51	86.1512	1,999.51	83.7145	1,999.51	84.9217	1,999.51	82.6335	1,999.51	83.1005	1,999.51	80.2561	1,999.51	81.0731	1,999.51	75.9668	1,999.51	77.7172	1,999.51	74.1475	1,999.51	74.2279	1,999.51	74.066	1,999.51	73.9505	1,999.51	69.989	1,999.51	71.1233	1,999.51	71.5217	1,999.51	69.5676	1,999.51	66.9006	1,999.51	71.395	1,999.51	68.3304	1,999.51	68.5174	1,999.51	41.1584	1,999.51	65.3511	1,999.51	67.3981
2,069.82	87.4322	2,069.82	87.661	2,069.82	87.4303	2,069.82	87.0334	2,069.82	87.5605	2,069.82	86.3464	2,069.82	87.1494	2,069.82	86.9126	2,069.82	87.6252	2,069.82	86.8859	2,069.82	87.4886	2,069.82	85.8258	2,069.82	86.6347	2,069.82	84.3712	2,069.82	85.5915	2,069.82	82.1953	2,069.82	84.3366	2,069.82	79.3436	2,069.82	81.162	2,069.82	76.9108	2,069.82	78.5855	2,069.82	72.5335	2,069.82	75.7729	2,069.82	72.168	2,069.82	71.9091	2,069.82	69.2153	2,069.82	73.0523	2,069.82	69.7999	2,069.82	69.5341	2,069.82	68.7085	2,069.82	69.0279	2,069.82	69.9604	2,069.82	68.5223	2,069.82	57.5743	2,069.82	56.1471	2,069.82	67.4958
2,143.07	87.4989	2,143.07	88.1466	2,143.07	88.2267	2,143.07	88.2694	2,143.07	88.0255	2,143.07	86.5173	2,143.07	86.9085	2,143.07	86.6788	2,143.07	87.1681	2,143.07	87.7897	2,143.07	87.7161	2,143.07	87.1894	2,143.07	87.1245	2,143.07	85.3464	2,143.07	86.0639	2,143.07	83.2661	2,143.07	84.0626	2,143.07	81.0658	2,143.07	82.0262	2,143.07	77.8352	2,143.07	79.1043	2,143.07	73.2161	2,143.07	74.4834	2,143.07	65.3911	2,143.07	72.617	2,143.07	67.7046	2,143.07	69.8129	2,143.07	61.9063	2,143.07	68.4713	2,143.07	62.6787	2,143.07	71.5613	2,143.07	61.1702	2,143.07	67.8687	2,143.07	61.7482	2,143.07	66.8646	2,143.07	66.7655
2,219.24	86.5311	2,219.24	87.0719	2,219.24	87.9356	2,219.24	88.1809	2,219.24	87.8192	2,219.24	86.8493	2,219.24	85.5894	2,219.24	86.3977	2,219.24	86.1085	2,219.24	87.4772	2,219.24	87.3476	2,219.24	87.4331	2,219.24	86.8717	2,219.24	86.1832	2,219.24	84.8586	2,219.24	84.7197	2,219.24	83.0912	2,219.24	81.3519	2,219.24	80.1806	2,219.24	79.4801	2,219.24	77.0844	2,219.24	77.143	2,219.24	74.3278	2,219.24	72.5374	2,219.24	69.4602	2,219.24	68.3832	2,219.24	66.3328	2,219.24	62.926	2,219.24	62.1342	2,219.24	67.6843	2,219.24	61.5822	2,219.24	67.5136	2,219.24	65.734	2,219.24	67.8915	2,219.24	61.1035	2,219.24	62.7015
2,296.88	86.404	2,296.88	87.5382	2,296.88	86.9569	2,296.88	87.4649	2,296.88	87.5939	2,296.88	86.2799	2,296.88	85.0036	2,296.88	85.3024	2,296.88	84.6885	2,296.88	86.6457	2,296.88	86.2484	2,296.88	87.067	2,296.88	86.3386	2,296.88	85.1736	2,296.88	85.0048	2,296.88	82.4762	2,296.88	81.9607	2,296.88	80.8396	2,296.88	78.9882	2,296.88	78.3176	2,296.88	77.024	2,296.88	75.9357	2,296.88	74.538	2,296.88	72.8524	2,296.88	68.1884	2,296.88	70.0267	2,296.88	67.9306	2,296.88	69.4239	2,296.88	66.2143	2,296.88	66.8374	2,296.88	63.9605	2,296.88	59.5439	2,296.88	63.9453	2,296.88	57.7553	2,296.88	68.0861	2,296.88	53.4264
2,378.91	86.7148	2,378.91	87.9217	2,378.91	87.8398	2,378.91	87.8733	2,378.91	88.1514	2,378.91	85.8551	2,378.91	87.243	2,378.91	85.2248	2,378.91	85.4604	2,378.91	86.6351	2,378.91	86.992	2,378.91	86.3916	2,378.91	87.3201	2,378.91	84.7363	2,378.91	85.9682	2,378.91	82.4548	2,378.91	83.1175	2,378.91	79.7545	2,378.91	81.678	2,378.91	76.3838	2,378.91	78.6739	2,378.91	76.1565	2,378.91	74.9622	2,378.91	72.8233	2,378.91	72.4217	2,378.91	67.4129	2,378.91	68.8973	2,378.91	66.7702	2,378.91	65.7778	2,378.91	64.2472	2,378.91	68.4999	2,378.91	61.5979	2,378.91	57.8702	2,378.91	57.9012	2,378.91	55.6657	2,378.91	48.4316
2,462.4	88.7424	2,462.4	89.4873	2,462.4	89.6314	2,462.4	89.9703	2,462.4	90.1453	2,462.4	88.1488	2,462.4	88.5636	2,462.4	86.3816	2,462.4	88.101	2,462.4	87.5388	2,462.4	88.6965	2,462.4	87.8257	2,462.4	88.6435	2,462.4	86.2041	2,462.4	86.656	2,462.4	83.0112	2,462.4	84.9435	2,462.4	79.9021	2,462.4	82.0241	2,462.4	77.0429	2,462.4	78.9793	2,462.4	74.3407	2,462.4	76.3835	2,462.4	73.1101	2,462.4	72.914	2,462.4	69.5691	2,462.4	70.5063	2,462.4	60.437	2,462.4	64.3743	2,462.4	68.8089	2,462.4	66.5559	2,462.4	53.8423	2,462.4	62.2587	2,462.4	56.1324	2,462.4	63.6534	2,462.4	57.8913
2,548.83	89.3656	2,548.83	90.3134	2,548.83	90.4417	2,548.83	90.5405	2,548.83	89.8992	2,548.83	89.3745	2,548.83	88.5424	2,548.83	87.927	2,548.83	87.6827	2,548.83	88.1367	2,548.83	88.4844	2,548.83	88.271	2,548.83	88.4371	2,548.83	86.6134	2,548.83	86.7738	2,548.83	84.2606	2,548.83	84.2829	2,548.83	81.4513	2,548.83	81.105	2,548.83	78.8248	2,548.83	79.2756	2,548.83	75.5219	2,548.83	76.0423	2,548.83	70.6496	2,548.83	74.5826	2,548.83	70.8069	2,548.83	67.8026	2,548.83	63.5142	2,548.83	61.463	2,548.83	63.2504	2,548.83	70.6123	2,548.83	63.0117	2,548.83	55.9231	2,548.83	64.6029	2,548.83	56.963	2,548.83	68.8643
2,639.65	88.3359	2,639.65	88.7888	2,639.65	89.0205	2,639.65	89.6268	2,639.65	89.4216	2,639.65	88.4969	2,639.65	88.3701	2,639.65	87.8659	2,639.65	86.6309	2,639.65	88.1184	2,639.65	87.1433	2,639.65	87.8744	2,639.65	87.1888	2,639.65	86.4862	2,639.65	85.6144	2,639.65	85.3083	2,639.65	82.8893	2,639.65	81.6796	2,639.65	81.1454	2,639.65	78.9648	2,639.65	78.7429	2,639.65	76.7097	2,639.65	74.744	2,639.65	75.1374	2,639.65	72.8979	2,639.65	70.0569	2,639.65	68.4258	2,639.65	68.5383	2,639.65	69.6343	2,639.65	67.8568	2,639.65	60.8226	2,639.65	66.1396	2,639.65	55.3506	2,639.65	70.1058	2,639.65	64.8918	2,639.65	56.4345
2,731.93	86.5792	2,731.93	87.0632	2,731.93	87.5159	2,731.93	88.0655	2,731.93	88.6264	2,731.93	87.4783	2,731.93	88.4156	2,731.93	86.1673	2,731.93	85.9558	2,731.93	87.4665	2,731.93	86.4274	2,731.93	86.7981	2,731.93	86.444	2,731.93	86.5613	2,731.93	85.5186	2,731.93	83.1382	2,731.93	83.2418	2,731.93	80.5418	2,731.93	80.8142	2,731.93	77.0114	2,731.93	75.9053	2,731.93	76.4699	2,731.93	75.2404	2,731.93	75.1768	2,731.93	74.4681	2,731.93	69.28	2,731.93	69.4733	2,731.93	68.6037	2,731.93	65.159	2,731.93	65.5979	2,731.93	63.5718	2,731.93	55.5008	2,731.93	59.4067	2,731.93	64.0161	2,731.93	68.6417	2,731.93	64.7172
2,828.61	87.5696	2,828.61	87.5049	2,828.61	86.3915	2,828.61	88.0134	2,828.61	88.0715	2,828.61	88.5973	2,828.61	88.288	2,828.61	86.113	2,828.61	86.8044	2,828.61	85.4212	2,828.61	85.8806	2,828.61	86.1168	2,828.61	86.9546	2,828.61	85.0844	2,828.61	86.1168	2,828.61	81.648	2,828.61	84.4905	2,828.61	79.7079	2,828.61	81.1487	2,828.61	78.1824	2,828.61	78.5974	2,828.61	73.6918	2,828.61	75.852	2,828.61	74.2309	2,828.61	73.0417	2,828.61	69.5267	2,828.61	70.7927	2,828.61	68.6043	2,828.61	70.1637	2,828.61	64.2362	2,828.61	66.1812	2,828.61	57.3842	2,828.61	46.6221	2,828.61	66.3364	2,828.61	61.4758	2,828.61	54.8994
2,928.22	86.8204	2,928.22	86.7374	2,928.22	86.5851	2,928.22	87.9274	2,928.22	87.6812	2,928.22	89.1189	2,928.22	88.5749	2,928.22	86.2242	2,928.22	86.6564	2,928.22	85.0315	2,928.22	85.8503	2,928.22	86.7756	2,928.22	87.1299	2,928.22	85.8108	2,928.22	86.4323	2,928.22	83.8358	2,928.22	85.0091	2,928.22	79.9318	2,928.22	81.8472	2,928.22	76.8482	2,928.22	79.6614	2,928.22	74.7371	2,928.22	76.569	2,928.22	71.5091	2,928.22	73.2758	2,928.22	72.4144	2,928.22	68.9431	2,928.22	70.5669	2,928.22	71.4367	2,928.22	67.3212	2,928.22	57.2552	2,928.22	59.2143	2,928.22	59.1976	2,928.22	60.4974	2,928.22	64.6215	2,928.22	66.4867
3,030.76	87.2626	3,030.76	85.7298	3,030.76	87.4695	3,030.76	87.0646	3,030.76	87.586	3,030.76	88.6758	3,030.76	88.7249	3,030.76	86.0159	3,030.76	86.8139	3,030.76	86.6058	3,030.76	86.9293	3,030.76	87.7916	3,030.76	87.7923	3,030.76	87.4255	3,030.76	87.628	3,030.76	85.204	3,030.76	85.1295	3,030.76	81.434	3,030.76	81.8088	3,030.76	77.7607	3,030.76	78.2401	3,030.76	74.2178	3,030.76	76.3925	3,030.76	73.2397	3,030.76	73.924	3,030.76	71.0154	3,030.76	69.5164	3,030.76	68.9621	3,030.76	63.5157	3,030.76	66.6171	3,030.76	63.6302	3,030.76	62.8125	3,030.76	58.9731	3,030.76	68.1596	3,030.76	60.9236	3,030.76	55.4319
3,137.7	87.6309	3,137.7	86.9107	3,137.7	86.0535	3,137.7	87.5712	3,137.7	88.2323	3,137.7	88.441	3,137.7	88.5764	3,137.7	87.806	3,137.7	86.8347	3,137.7	87.8616	3,137.7	87.0574	3,137.7	88.6889	3,137.7	88.18	3,137.7	88.1241	3,137.7	88.0055	3,137.7	85.5147	3,137.7	84.664	3,137.7	82.1898	3,137.7	81.9083	3,137.7	76.6696	3,137.7	78.2753	3,137.7	75.812	3,137.7	74.5852	3,137.7	74.4048	3,137.7	75.3768	3,137.7	72.2953	3,137.7	72.9351	3,137.7	70.1253	3,137.7	68.3695	3,137.7	65.3554	3,137.7	67.6787	3,137.7	62.5815	3,137.7	59.541	3,137.7	65.2338	3,137.7	65.604	3,137.7	59.1552
3,249.02	88.3269	3,249.02	87.4527	3,249.02	87.7883	3,249.02	87.6408	3,249.02	87.5215	3,249.02	88.0848	3,249.02	87.9234	3,249.02	86.3431	3,249.02	86.8011	3,249.02	86.4166	3,249.02	87.543	3,249.02	88.2422	3,249.02	88.3739	3,249.02	87.4663	3,249.02	87.2863	3,249.02	84.9155	3,249.02	84.6485	3,249.02	81.5933	3,249.02	82.0008	3,249.02	77.1586	3,249.02	78.573	3,249.02	75.1723	3,249.02	75.3392	3,249.02	73.7149	3,249.02	74.1227	3,249.02	71.2425	3,249.02	74.3268	3,249.02	68.5159	3,249.02	70.7186	3,249.02	66.8812	3,249.02	67.2712	3,249.02	54.4529	3,249.02	58.0312	3,249.02	55.0306	3,249.02	68.4414	3,249.02	68.4029
3,363.28	88.5094	3,363.28	88.7826	3,363.28	88.9119	3,363.28	88.0302	3,363.28	87.7251	3,363.28	88.1628	3,363.28	88.2865	3,363.28	87.6731	3,363.28	87.6567	3,363.28	86.4491	3,363.28	86.9437	3,363.28	87.3187	3,363.28	88.0361	3,363.28	85.9614	3,363.28	87.1895	3,363.28	83.6525	3,363.28	83.5342	3,363.28	80.4553	3,363.28	80.8228	3,363.28	76.0658	3,363.28	77.6206	3,363.28	73.3883	3,363.28	75.0106	3,363.28	69.639	3,363.28	73.782	3,363.28	69.4758	3,363.28	70.5071	3,363.28	71.3127	3,363.28	73.314	3,363.28	67.2235	3,363.28	66.6301	3,363.28	65.2718	3,363.28	57.3938	3,363.28	66.5571	3,363.28	66.2256	3,363.28	67.7022
3,481.93	89.6928	3,481.93	89.8747	3,481.93	90.486	3,481.93	88.4642	3,481.93	88.352	3,481.93	88.8306	3,481.93	88.6221	3,481.93	88.4701	3,481.93	88.5164	3,481.93	87.3472	3,481.93	87.3689	3,481.93	87.3919	3,481.93	87.7611	3,481.93	86.0309	3,481.93	86.2491	3,481.93	84.0409	3,481.93	83.9245	3,481.93	80.503	3,481.93	80.8127	3,481.93	77.1365	3,481.93	77.2343	3,481.93	72.9402	3,481.93	73.879	3,481.93	70.2309	3,481.93	68.2695	3,481.93	69.9193	3,481.93	70.3392	3,481.93	71.4545	3,481.93	71.7617	3,481.93	69.9604	3,481.93	69.651	3,481.93	65.2954	3,481.93	47.2448	3,481.93	67.5934	3,481.93	63.7907	3,481.93	57.9968
3,604.98	90.4538	3,604.98	90.6976	3,604.98	90.7562	3,604.98	89.1983	3,604.98	89.1608	3,604.98	89.7966	3,604.98	89.3283	3,604.98	89.9017	3,604.98	89.694	3,604.98	88.1085	3,604.98	87.7037	3,604.98	88.3749	3,604.98	88.0442	3,604.98	87.5675	3,604.98	86.9317	3,604.98	84.7895	3,604.98	84.908	3,604.98	81.6934	3,604.98	81.2831	3,604.98	77.7381	3,604.98	77.3643	3,604.98	73.1946	3,604.98	75.6791	3,604.98	70.3744	3,604.98	71.6773	3,604.98	69.9397	3,604.98	73.5278	3,604.98	68.5827	3,604.98	70.9915	3,604.98	69.6775	3,604.98	71.1068	3,604.98	64.3486	3,604.98	61.3011	3,604.98	69.2329	3,604.98	63.9039	3,604.98	64.2888
3,732.42	91.045	3,732.42	91.469	3,732.42	91.0581	3,732.42	89.464	3,732.42	89.9341	3,732.42	90.5135	3,732.42	90.6461	3,732.42	90.6865	3,732.42	89.9703	3,732.42	88.1134	3,732.42	88.0014	3,732.42	88.2709	3,732.42	88.4667	3,732.42	87.9586	3,732.42	87.5792	3,732.42	84.8349	3,732.42	85.4464	3,732.42	81.5205	3,732.42	81.4007	3,732.42	77.9276	3,732.42	78.422	3,732.42	74.3294	3,732.42	74.2605	3,732.42	70.6757	3,732.42	70.3801	3,732.42	71.1773	3,732.42	71.3432	3,732.42	66.7233	3,732.42	70.2718	3,732.42	69.5055	3,732.42	68.9315	3,732.42	64.1111	3,732.42	61.5903	3,732.42	63.9022	3,732.42	66.4611	3,732.42	63.7573
3,864.26	90.7108	3,864.26	90.5093	3,864.26	90.5766	3,864.26	89.8245	3,864.26	89.0767	3,864.26	90.4822	3,864.26	89.4953	3,864.26	89.4538	3,864.26	88.8577	3,864.26	87.5342	3,864.26	86.4491	3,864.26	87.6181	3,864.26	87.2225	3,864.26	87.8437	3,864.26	86.7105	3,864.26	84.4271	3,864.26	83.3482	3,864.26	80.8564	3,864.26	79.2139	3,864.26	77.4149	3,864.26	76.8398	3,864.26	73.8164	3,864.26	70.4078	3,864.26	69.6929	3,864.26	71.6015	3,864.26	70.2638	3,864.26	69.6168	3,864.26	67.7221	3,864.26	69.1174	3,864.26	69.7137	3,864.26	61.4087	3,864.26	61.2558	3,864.26	58.8707	3,864.26	60.9377	3,864.26	63.1329	3,864.26	65.0394
4,000.49	89.5575	4,000.49	88.9158	4,000.49	89.0356	4,000.49	88.3467	4,000.49	88.4104	4,000.49	88.6123	4,000.49	87.9988	4,000.49	87.5505	4,000.49	88.6111	4,000.49	85.4269	4,000.49	86.4795	4,000.49	85.9703	4,000.49	85.8334	4,000.49	85.4136	4,000.49	86.1024	4,000.49	82.7337	4,000.49	82.9275	4,000.49	78.7654	4,000.49	80.3273	4,000.49	73.961	4,000.49	75.0087	4,000.49	72.1607	4,000.49	73.3044	4,000.49	70.299	4,000.49	69.0836	4,000.49	70.4455	4,000.49	67.3903	4,000.49	67.7379	4,000.49	67.1247	4,000.49	67.3087	4,000.49	56.2938	4,000.49	64.0079	4,000.49	62.7436	4,000.49	64.4959	4,000.49	61.0716	4,000.49	57.7123
4,141.11	89.7491	4,141.11	89.0263	4,141.11	89.1754	4,141.11	88.7078	4,141.11	88.8881	4,141.11	88.1319	4,141.11	88.7709	4,141.11	89.1521	4,141.11	88.5802	4,141.11	86.7308	4,141.11	86.5569	4,141.11	86.2517	4,141.11	85.8286	4,141.11	85.9739	4,141.11	85.4326	4,141.11	83.9242	4,141.11	82.9528	4,141.11	79.9745	4,141.11	79.9889	4,141.11	77.4167	4,141.11	75.6576	4,141.11	71.384	4,141.11	71.9512	4,141.11	70.1463	4,141.11	70.8104	4,141.11	71.5992	4,141.11	68.6062	4,141.11	66.4248	4,141.11	68.5286	4,141.11	67.2028	4,141.11	63.914	4,141.11	62.5979	4,141.11	56.8227	4,141.11	68.8825	4,141.11	61.2119	4,141.11	58.7445
4,287.6	89.8666	4,287.6	88.238	4,287.6	88.8902	4,287.6	88.9103	4,287.6	88.1767	4,287.6	87.655	4,287.6	88.177	4,287.6	88.1954	4,287.6	87.5867	4,287.6	85.8162	4,287.6	83.9568	4,287.6	85.5343	4,287.6	84.7535	4,287.6	86.3504	4,287.6	84.8669	4,287.6	84.3774	4,287.6	83.8025	4,287.6	80.4043	4,287.6	79.9225	4,287.6	76.5483	4,287.6	75.6881	4,287.6	73.8653	4,287.6	71.6072	4,287.6	67.5045	4,287.6	68.4379	4,287.6	69.4953	4,287.6	66.4307	4,287.6	67.0899	4,287.6	66.3148	4,287.6	65.1192	4,287.6	67.4592	4,287.6	51.1265	4,287.6	59.4224	4,287.6	64.4708	4,287.6	61.4315	4,287.6	61.2797
4,438.48	89.2977	4,438.48	88.6558	4,438.48	87.6838	4,438.48	87.802	4,438.48	88.7975	4,438.48	87.1057	4,438.48	86.5068	4,438.48	88.0487	4,438.48	88.087	4,438.48	84.9174	4,438.48	86.1636	4,438.48	85.6661	4,438.48	86.645	4,438.48	86.1272	4,438.48	86.2149	4,438.48	83.0508	4,438.48	84.4812	4,438.48	80.5444	4,438.48	80.4284	4,438.48	76.094	4,438.48	76.5955	4,438.48	73.9071	4,438.48	71.6411	4,438.48	72.0749	4,438.48	68.9369	4,438.48	71.3788	4,438.48	68.1333	4,438.48	65.9159	4,438.48	68.5946	4,438.48	66.7662	4,438.48	65.65	4,438.48	50.4453	4,438.48	64.7144	4,438.48	64.8834	4,438.48	62.5555	4,438.48	61.8797
4,595.21	88.1678	4,595.21	87.8414	4,595.21	88.3087	4,595.21	88.0327	4,595.21	87.4629	4,595.21	86.1003	4,595.21	86.8399	4,595.21	87.5775	4,595.21	86.087	4,595.21	85.384	4,595.21	83.6092	4,595.21	85.6964	4,595.21	86.598	4,595.21	84.7016	4,595.21	85.8484	4,595.21	83.8106	4,595.21	82.1853	4,595.21	78.648	4,595.21	79.8204	4,595.21	78.7221	4,595.21	75.6851	4,595.21	72.8042	4,595.21	71.4892	4,595.21	65.93	4,595.21	69.7298	4,595.21	67.6824	4,595.21	64.7457	4,595.21	62.3066	4,595.21	68.4619	4,595.21	69.3366	4,595.21	66.4827	4,595.21	59.0814	4,595.21	58.8358	4,595.21	59.8806	4,595.21	64.3858	4,595.21	55.0709
4,756.35	86.7295	4,756.35	87.3711	4,756.35	87.051	4,756.35	86.9377	4,756.35	87.6476	4,756.35	86.1983	4,756.35	85.208	4,756.35	86.4987	4,756.35	86.7554	4,756.35	85.2538	4,756.35	86.8592	4,756.35	85.1424	4,756.35	84.9841	4,756.35	84.9098	4,756.35	84.7456	4,756.35	81.2231	4,756.35	83.5063	4,756.35	78.484	4,756.35	79.7549	4,756.35	70.5276	4,756.35	74.9768	4,756.35	70.5775	4,756.35	72.9434	4,756.35	67.8094	4,756.35	67.6389	4,756.35	63.9998	4,756.35	64.7573	4,756.35	61.3935	4,756.35	65.4303	4,756.35	64.8432	4,756.35	65.0144	4,756.35	53.4526	4,756.35	54.3383	4,756.35	56.4996	4,756.35	55.8929	4,756.35	64.085
4,924.8	87.1082	4,924.8	88.627	4,924.8	88.4839	4,924.8	87.8522	4,924.8	87.5243	4,924.8	86.1522	4,924.8	86.9583	4,924.8	86.8521	4,924.8	87.1677	4,924.8	86.2309	4,924.8	86.1309	4,924.8	84.2237	4,924.8	85.9974	4,924.8	84.3695	4,924.8	86.0963	4,924.8	81.2682	4,924.8	82.1398	4,924.8	78.0114	4,924.8	77.9121	4,924.8	75.1662	4,924.8	76.5787	4,924.8	71.0257	4,924.8	71.1647	4,924.8	67.5197	4,924.8	67.2274	4,924.8	64.2252	4,924.8	63.3124	4,924.8	65.4967	4,924.8	65.946	4,924.8	63.971	4,924.8	59.4738	4,924.8	43.6527	4,924.8	62.8677	4,924.8	62.2224	4,924.8	60.4483	4,924.8	48.7664
5,097.66	87.0888	5,097.66	87.7691	5,097.66	88.001	5,097.66	87.0566	5,097.66	88.0452	5,097.66	86.3002	5,097.66	86.6382	5,097.66	86.9048	5,097.66	87.6182	5,097.66	85.548	5,097.66	86.0209	5,097.66	83.6615	5,097.66	84.0946	5,097.66	83.207	5,097.66	83.9577	5,097.66	82.16	5,097.66	81.2977	5,097.66	76.7257	5,097.66	78.9815	5,097.66	75.561	5,097.66	74.8583	5,097.66	72.6959	5,097.66	70.9438	5,097.66	66.3325	5,097.66	68.4272	5,097.66	50.3793	5,097.66	64.6792	5,097.66	57.0186	5,097.66	62.3924	5,097.66	65.1061	5,097.66	66.6056	5,097.66	57.0351	5,097.66	64.2789	5,097.66	55.9832	5,097.66	57.9893	5,097.66	58.296
5,277.83	87.348	5,277.83	87.6311	5,277.83	88.258	5,277.83	87.1858	5,277.83	87.909	5,277.83	85.7961	5,277.83	86.8905	5,277.83	86.2624	5,277.83	86.9275	5,277.83	84.2464	5,277.83	85.5345	5,277.83	81.8514	5,277.83	83.7691	5,277.83	83.8908	5,277.83	84.5101	5,277.83	79.4419	5,277.83	81.3066	5,277.83	76.9447	5,277.83	78.1135	5,277.83	68.3823	5,277.83	74.9446	5,277.83	64.8082	5,277.83	71.4561	5,277.83	67.3643	5,277.83	67.0423	5,277.83	52.5915	5,277.83	57.3328	5,277.83	57.9583	5,277.83	55.8691	5,277.83	56.4392	5,277.83	63.2548	5,277.83	57.8022	5,277.83	49.348	5,277.83	56.4101	5,277.83	50.9706	5,277.83	56.4124
5,463.87	88.5979	5,463.87	88.5002	5,463.87	88.5638	5,463.87	87.8085	5,463.87	88.3581	5,463.87	86.3236	5,463.87	87.267	5,463.87	87.1193	5,463.87	88.1588	5,463.87	84.6607	5,463.87	86.346	5,463.87	82.534	5,463.87	83.6101	5,463.87	80.7923	5,463.87	83.634	5,463.87	80.1185	5,463.87	81.9111	5,463.87	76.6317	5,463.87	78.5116	5,463.87	74.5964	5,463.87	75.1728	5,463.87	69.6309	5,463.87	71.647	5,463.87	62.8704	5,463.87	70.0281	5,463.87	63.0347	5,463.87	65.3613	5,463.87	47.7183	5,463.87	63.9569	5,463.87	53.7701	5,463.87	63.8817	5,463.87	59.0558	5,463.87	65.7055	5,463.87	41.0942	5,463.87	59.2954	5,463.87	63.592
5,657.23	88.9985	5,657.23	88.4565	5,657.23	88.8917	5,657.23	87.3676	5,657.23	88.352	5,657.23	86.8759	5,657.23	87.7377	5,657.23	85.7398	5,657.23	86.5353	5,657.23	84.8249	5,657.23	86.1833	5,657.23	82.4595	5,657.23	83.97	5,657.23	84.2366	5,657.23	86.177	5,657.23	81.0729	5,657.23	82.9092	5,657.23	77.1197	5,657.23	79.0345	5,657.23	70.9122	5,657.23	74.8972	5,657.23	69.7732	5,657.23	73.2209	5,657.23	66.5082	5,657.23	67.4037	5,657.23	67.6135	5,657.23	54.834	5,657.23	58.074	5,657.23	57.3006	5,657.23	58.533	5,657.23	62.1234	5,657.23	56.3259	5,657.23	48.1085	5,657.23	58.0212	5,657.23	61.0113	5,657.23	56.0125
5,856.45	88.2498	5,856.45	87.6334	5,856.45	88.107	5,856.45	87.6303	5,856.45	87.6295	5,856.45	86.6088	5,856.45	87.4198	5,856.45	85.2277	5,856.45	86.3411	5,856.45	84.7999	5,856.45	85.5914	5,856.45	82.2404	5,856.45	84.1812	5,856.45	84.2124	5,856.45	85.0518	5,856.45	80.9365	5,856.45	82.7503	5,856.45	77.8421	5,856.45	79.0567	5,856.45	73.5936	5,856.45	75.2083	5,856.45	69.8375	5,856.45	72.6139	5,856.45	59.2819	5,856.45	66.1101	5,856.45	46.5009	5,856.45	67.1463	5,856.45	51.2727	5,856.45	62.7622	5,856.45	60.4827	5,856.45	62.6857	5,856.45	50.9771	5,856.45	64.8069	5,856.45	49.9801	5,856.45	50.7895	5,856.45	54.912
6,062.99	89.0121	6,062.99	88.4685	6,062.99	88.7068	6,062.99	88.1826	6,062.99	89.0559	6,062.99	86.7264	6,062.99	88.3711	6,062.99	85.8404	6,062.99	86.7872	6,062.99	85.6659	6,062.99	87.1463	6,062.99	83.7272	6,062.99	85.4645	6,062.99	83.2404	6,062.99	85.5192	6,062.99	80.503	6,062.99	82.8004	6,062.99	77.0697	6,062.99	79.8653	6,062.99	73.8017	6,062.99	73.2291	6,062.99	71.0933	6,062.99	72.1144	6,062.99	67.8024	6,062.99	67.0044	6,062.99	63.412	6,062.99	64.2322	6,062.99	59.6808	6,062.99	60.6383	6,062.99	59.8362	6,062.99	65.9384	6,062.99	55.1343	6,062.99	57.1161	6,062.99	58.9358	6,062.99	58.4388	6,062.99	48.5581
6,276.86	89.3574	6,276.86	87.335	6,276.86	88.3878	6,276.86	88.2067	6,276.86	88.3991	6,276.86	86.3553	6,276.86	88.1997	6,276.86	86.183	6,276.86	86.7593	6,276.86	85.9084	6,276.86	87.0694	6,276.86	82.9266	6,276.86	84.314	6,276.86	84.0005	6,276.86	84.554	6,276.86	81.5263	6,276.86	82.7307	6,276.86	78.4777	6,276.86	79.5172	6,276.86	72.4356	6,276.86	74.9538	6,276.86	70.7511	6,276.86	70.5963	6,276.86	66.3765	6,276.86	65.7139	6,276.86	63.4688	6,276.86	67.6402	6,276.86	59.5042	6,276.86	59.1574	6,276.86	56.6729	6,276.86	59.4679	6,276.86	61.0716	6,276.86	61.1391	6,276.86	61.2604	6,276.86	49.7704	6,276.86	55.4627
6,498.05	88.801	6,498.05	87.9205	6,498.05	88.1186	6,498.05	87.8694	6,498.05	88.4299	6,498.05	86.7704	6,498.05	87.2781	6,498.05	85.7793	6,498.05	86.9381	6,498.05	85.9513	6,498.05	87.218	6,498.05	82.7578	6,498.05	84.1691	6,498.05	83.5583	6,498.05	85.573	6,498.05	81.154	6,498.05	82.4076	6,498.05	77.1615	6,498.05	78.8044	6,498.05	70.0239	6,498.05	72.1934	6,498.05	68.571	6,498.05	70.0431	6,498.05	64.1973	6,498.05	64.6924	6,498.05	54.0018	6,498.05	70.0987	6,498.05	54.0758	6,498.05	51.9267	6,498.05	61.9701	6,498.05	64.6351	6,498.05	63.0202	6,498.05	60.6472	6,498.05	60.7488	6,498.05	63.5819	6,498.05	58.7154
6,726.56	88.5391	6,726.56	87.9609	6,726.56	88.5645	6,726.56	87.9714	6,726.56	88.8826	6,726.56	86.8243	6,726.56	87.8681	6,726.56	86.2124	6,726.56	87.4944	6,726.56	85.5143	6,726.56	86.8648	6,726.56	82.7504	6,726.56	85.0485	6,726.56	84.375	6,726.56	85.5369	6,726.56	81.8199	6,726.56	83.397	6,726.56	78.0452	6,726.56	79.6447	6,726.56	73.5472	6,726.56	74.2	6,726.56	67.6706	6,726.56	69.3042	6,726.56	59.6948	6,726.56	63.5725	6,726.56	61.974	6,726.56	66.6516	6,726.56	51.1189	6,726.56	55.2657	6,726.56	57.2504	6,726.56	59.4275	6,726.56	59.5597	6,726.56	61.7917	6,726.56	59.1817	6,726.56	43.0216	6,726.56	58.5415
6,963.87	87.4881	6,963.87	87.1691	6,963.87	87.9484	6,963.87	86.9025	6,963.87	87.7094	6,963.87	86.1775	6,963.87	86.9671	6,963.87	85.5701	6,963.87	86.0816	6,963.87	84.7334	6,963.87	86.2042	6,963.87	82.4343	6,963.87	84.0702	6,963.87	82.8639	6,963.87	84.1042	6,963.87	81.9845	6,963.87	82.9661	6,963.87	76.7022	6,963.87	79.1298	6,963.87	73.2899	6,963.87	75.0635	6,963.87	69.3831	6,963.87	69.5298	6,963.87	65.3791	6,963.87	64.3391	6,963.87	60.8018	6,963.87	67.7283	6,963.87	50.0521	6,963.87	57.4946	6,963.87	51.6495	6,963.87	62.3826	6,963.87	55.3266	6,963.87	54.8454	6,963.87	60.7155	6,963.87	60.5205	6,963.87	58.1174
7,209.96	87.0283	7,209.96	87.7167	7,209.96	87.8325	7,209.96	85.8975	7,209.96	86.92	7,209.96	87.2296	7,209.96	87.6246	7,209.96	86.148	7,209.96	86.2343	7,209.96	85.5425	7,209.96	86.3401	7,209.96	83.3805	7,209.96	84.3323	7,209.96	84.2105	7,209.96	84.2124	7,209.96	82.0401	7,209.96	83.1068	7,209.96	77.2977	7,209.96	78.8768	7,209.96	73.4524	7,209.96	74.2868	7,209.96	67.5645	7,209.96	69.3786	7,209.96	61.2204	7,209.96	54.6679	7,209.96	61.126	7,209.96	65.0245	7,209.96	57.6838	7,209.96	54.3063	7,209.96	60.1643	7,209.96	62.7031	7,209.96	56.5559	7,209.96	43.3258	7,209.96	57.8866	7,209.96	55.4119	7,209.96	54.9164
7,464.84	87.1228	7,464.84	87.786	7,464.84	88.0366	7,464.84	86.5362	7,464.84	86.6514	7,464.84	87.4906	7,464.84	87.786	7,464.84	85.8893	7,464.84	85.6273	7,464.84	85.4436	7,464.84	85.5386	7,464.84	83.4754	7,464.84	83.9969	7,464.84	83.0506	7,464.84	83.7023	7,464.84	80.8562	7,464.84	81.3216	7,464.84	75.6295	7,464.84	77.8267	7,464.84	72.1368	7,464.84	71.3018	7,464.84	67.5992	7,464.84	67.7726	7,464.84	58.7389	7,464.84	58.0336	7,464.84	59.0182	7,464.84	65.1852	7,464.84	58.0691	7,464.84	48.4457	7,464.84	56.581	7,464.84	58.2767	7,464.84	39.9076	7,464.84	53.5913	7,464.84	55.0864	7,464.84	58.0981	7,464.84	56.1487
7,727.05	87.3701	7,727.05	87.5644	7,727.05	87.5696	7,727.05	86.8813	7,727.05	86.4228	7,727.05	86.5273	7,727.05	86.6556	7,727.05	84.9633	7,727.05	84.4751	7,727.05	84.6522	7,727.05	84.4047	7,727.05	83.0234	7,727.05	82.1263	7,727.05	81.4657	7,727.05	80.5959	7,727.05	81.0461	7,727.05	79.6042	7,727.05	75.7914	7,727.05	75.4189	7,727.05	70.7653	7,727.05	70.4657	7,727.05	68.5011	7,727.05	66.5453	7,727.05	57.2646	7,727.05	59	7,727.05	59.9569	7,727.05	64.508	7,727.05	57.4399	7,727.05	45.4506	7,727.05	48.9721	7,727.05	58.8543	7,727.05	48.2408	7,727.05	42.8545	7,727.05	54.0539	7,727.05	47.1875	7,727.05	57.5927
7,999.51	88.131	7,999.51	87.7826	7,999.51	87.6777	7,999.51	87.3428	7,999.51	87.2526	7,999.51	86.1693	7,999.51	85.9291	7,999.51	85.4103	7,999.51	84.4116	7,999.51	84.8715	7,999.51	83.5267	7,999.51	83.2841	7,999.51	81.3713	7,999.51	81.556	7,999.51	79.9228	7,999.51	81.1877	7,999.51	78.237	7,999.51	74.1101	7,999.51	73.6023	7,999.51	68.668	7,999.51	69.4593	7,999.51	65.7204	7,999.51	64.3001	7,999.51	57.4216	7,999.51	58.8186	7,999.51	58.4537	7,999.51	61.8601	7,999.51	51.9848	7,999.51	36.8586	7,999.51	53.9633	7,999.51	57.156	7,999.51	56.224	7,999.51	53.9064	7,999.51	48.5157	7,999.51	53.0432	7,999.51	55.7414
8,282.23	87.9274	8,282.23	87.0456	8,282.23	87.0723	8,282.23	87.0587	8,282.23	87.2106	8,282.23	85.8947	8,282.23	85.5058	8,282.23	85.4202	8,282.23	84.55	8,282.23	83.2516	8,282.23	83.0484	8,282.23	81.9606	8,282.23	81.1299	8,282.23	79.4109	8,282.23	78.831	8,282.23	78.6856	8,282.23	77.4734	8,282.23	71.1658	8,282.23	72.7203	8,282.23	66.6984	8,282.23	67.1085	8,282.23	64.8504	8,282.23	63.5785	8,282.23	60.075	8,282.23	52.5917	8,282.23	58.0711	8,282.23	60.5434	8,282.23	39.5165	8,282.23	34.3572	8,282.23	50.3189	8,282.23	49.2258	8,282.23	57.0742	8,282.23	56.8961	8,282.23	51.5421	8,282.23	44.473	8,282.23	56.8096
8,573.73	87.8203	8,573.73	87.1069	8,573.73	87.4776	8,573.73	86.8472	8,573.73	87.1684	8,573.73	85.6859	8,573.73	85.8136	8,573.73	84.5766	8,573.73	84.8932	8,573.73	82.7217	8,573.73	83.4218	8,573.73	80.9146	8,573.73	81.6786	8,573.73	78.8056	8,573.73	79.9857	8,573.73	77.5347	8,573.73	77.8409	8,573.73	72.1616	8,573.73	72.8572	8,573.73	66.7322	8,573.73	65.6696	8,573.73	63.9131	8,573.73	64.7333	8,573.73	57.4157	8,573.73	59.8084	8,573.73	54.1227	8,573.73	61.459	8,573.73	41.1871	8,573.73	47.5186	8,573.73	52.8642	8,573.73	51.3159	8,573.73	52.6204	8,573.73	54.0097	8,573.73	56.3481	8,573.73	49.4539	8,573.73	56.5479
8,876.95	87.1062	8,876.95	86.2402	8,876.95	86.8386	8,876.95	85.9028	8,876.95	86.2952	8,876.95	84.6921	8,876.95	85.1407	8,876.95	83.7133	8,876.95	84.054	8,876.95	81.9928	8,876.95	82.755	8,876.95	79.7542	8,876.95	81.3944	8,876.95	78.1216	8,876.95	78.9084	8,876.95	76.1071	8,876.95	77.6599	8,876.95	71.0618	8,876.95	72.54	8,876.95	64.5905	8,876.95	67.8631	8,876.95	62.4915	8,876.95	64.0298	8,876.95	58.5506	8,876.95	61.5741	8,876.95	56.3137	8,876.95	63.6779	8,876.95	45.0138	8,876.95	52.2917	8,876.95	44.525	8,876.95	52.8085	8,876.95	53.5539	8,876.95	31.6489	8,876.95	53.8414	8,876.95	53.6462	8,876.95	56.027
9,188.96	87.2476	9,188.96	86.4228	9,188.96	86.6278	9,188.96	85.9407	9,188.96	86.3553	9,188.96	84.5751	9,188.96	85.444	9,188.96	83.4331	9,188.96	84.4357	9,188.96	81.6384	9,188.96	82.8956	9,188.96	79.2458	9,188.96	81.0203	9,188.96	76.8998	9,188.96	78.6609	9,188.96	76.8536	9,188.96	78.2227	9,188.96	71.013	9,188.96	72.8276	9,188.96	65.4157	9,188.96	69.3466	9,188.96	62.8452	9,188.96	65.6245	9,188.96	56.5029	9,188.96	61.1895	9,188.96	55.8812	9,188.96	64.1363	9,188.96	39.5236	9,188.96	55.5163	9,188.96	47.0648	9,188.96	54.8546	9,188.96	53.3853	9,188.96	51.8304	9,188.96	50.4869	9,188.96	47.5159	9,188.96	54.2381
9,514.16	86.8239	9,514.16	85.6759	9,514.16	86.7914	9,514.16	85.3297	9,514.16	86.1652	9,514.16	83.9791	9,514.16	85.1862	9,514.16	82.6509	9,514.16	84.1175	9,514.16	80.1343	9,514.16	82.5456	9,514.16	78.7612	9,514.16	80.9465	9,514.16	78.0021	9,514.16	78.9549	9,514.16	77.017	9,514.16	77.8648	9,514.16	69.2507	9,514.16	73.3867	9,514.16	66.5421	9,514.16	69.0026	9,514.16	63.281	9,514.16	65.1476	9,514.16	56.5032	9,514.16	60.3474	9,514.16	52.6729	9,514.16	62.0481	9,514.16	41.6378	9,514.16	55.6193	9,514.16	43.1294	9,514.16	54.0525	9,514.16	47.6745	9,514.16	50.2519	9,514.16	48.5199	9,514.16	47.094	9,514.16	48.3221
9,849.61	86.9447	9,849.61	86.0247	9,849.61	86.6671	9,849.61	85.3339	9,849.61	86.3257	9,849.61	84.1889	9,849.61	85.0296	9,849.61	82.7969	9,849.61	83.5667	9,849.61	80.2626	9,849.61	82.2219	9,849.61	78.9428	9,849.61	80.8468	9,849.61	77.2478	9,849.61	78.6555	9,849.61	76.7763	9,849.61	77.6915	9,849.61	69.7705	9,849.61	72.6817	9,849.61	67.1333	9,849.61	68.5299	9,849.61	63.2958	9,849.61	62.1295	9,849.61	58.3677	9,849.61	59.8291	9,849.61	53.404	9,849.61	61.3449	9,849.61	32.5184	9,849.61	54.6372	9,849.61	47.7645	9,849.61	51.818	9,849.61	50.878	9,849.61	50.4858	9,849.61	50.0261	9,849.61	47.1049	9,849.61	51.1952
10,196.8	86.9024	10,196.8	86.1027	10,196.8	86.5401	10,196.8	85.0308	10,196.8	86.195	10,196.8	83.8015	10,196.8	85.0282	10,196.8	82.3271	10,196.8	83.356	10,196.8	79.674	10,196.8	81.9369	10,196.8	77.8175	10,196.8	80.6089	10,196.8	75.7607	10,196.8	78.5966	10,196.8	74.1697	10,196.8	77.6048	10,196.8	69.1127	10,196.8	72.2206	10,196.8	64.1431	10,196.8	68.0937	10,196.8	62.4555	10,196.8	62.6955	10,196.8	49.3186	10,196.8	56.3756	10,196.8	49.263	10,196.8	59.3446	10,196.8	47.0847	10,196.8	52.0027	10,196.8	49.0044	10,196.8	46.1427	10,196.8	49.8911	10,196.8	40.4162	10,196.8	54.0744	10,196.8	51.2594	10,196.8	53.2663
10,555.7	86.8474	10,555.7	86.1342	10,555.7	86.563	10,555.7	85.1328	10,555.7	86.3257	10,555.7	83.1111	10,555.7	84.3148	10,555.7	81.8261	10,555.7	82.89	10,555.7	78.6673	10,555.7	80.5781	10,555.7	76.5476	10,555.7	79.4461	10,555.7	73.1529	10,555.7	76.868	10,555.7	72.7139	10,555.7	75.5677	10,555.7	66.4186	10,555.7	70.5181	10,555.7	61.929	10,555.7	67.1857	10,555.7	60.0599	10,555.7	62.6697	10,555.7	52.8755	10,555.7	55.722	10,555.7	43.6982	10,555.7	58.5044	10,555.7	43.6652	10,555.7	49.7	10,555.7	50.5212	10,555.7	48.7316	10,555.7	46.5833	10,555.7	47.1115	10,555.7	51.1501	10,555.7	47.9563	10,555.7	50.8982
10,927.7	87.2542	10,927.7	86.3705	10,927.7	87.0238	10,927.7	85.2604	10,927.7	86.6089	10,927.7	82.9656	10,927.7	84.3446	10,927.7	81.8782	10,927.7	82.8502	10,927.7	78.0243	10,927.7	80.0826	10,927.7	75.0731	10,927.7	78.4303	10,927.7	69.9662	10,927.7	74.5506	10,927.7	70.2932	10,927.7	73.5265	10,927.7	61.8531	10,927.7	68.3652	10,927.7	59.2622	10,927.7	66.3561	10,927.7	58.2445	10,927.7	61.3939	10,927.7	52.0219	10,927.7	51.7971	10,927.7	42.05	10,927.7	58.1491	10,927.7	47.2736	10,927.7	49.3291	10,927.7	45.0535	10,927.7	48.4939	10,927.7	49.0517	10,927.7	49.4512	10,927.7	50.4736	10,927.7	48.5388	10,927.7	50.0181
11,313	87.338	11,313	86.4105	11,313	87.0987	11,313	85.1577	11,313	86.5321	11,313	82.9048	11,313	84.6292	11,313	81.3687	11,313	82.6228	11,313	76.3274	11,313	79.0892	11,313	73.3286	11,313	76.9541	11,313	68.1107	11,313	73.4437	11,313	65.2775	11,313	73.1662	11,313	61.1941	11,313	68.311	11,313	56.9094	11,313	62.5917	11,313	54.1082	11,313	59.0719	11,313	48.0005	11,313	50.2335	11,313	44.7628	11,313	51.6278	11,313	39.789	11,313	39.4013	11,313	33.4429	11,313	38.606	11,313	47.4351	11,313	45.597	11,313	45.6839	11,313	47.7188	11,313	49.3267
11,712.9	87.542	11,712.9	86.6821	11,712.9	87.1266	11,712.9	85.4086	11,712.9	86.4552	11,712.9	83.218	11,712.9	84.8111	11,712.9	80.9898	11,712.9	82.2969	11,712.9	76.4045	11,712.9	77.884	11,712.9	73.5865	11,712.9	75.8459	11,712.9	69.1064	11,712.9	72.3146	11,712.9	67.8737	11,712.9	70.778	11,712.9	63.9242	11,712.9	67.1244	11,712.9	57.6098	11,712.9	61.542	11,712.9	50.2642	11,712.9	57.2916	11,712.9	44.0879	11,712.9	53.0897	11,712.9	38.1844	11,712.9	53.6887	11,712.9	34.3093	11,712.9	42.1553	11,712.9	39.4514	11,712.9	50.1586	11,712.9	36.4949	11,712.9	47.5182	11,712.9	44.9724	11,712.9	48.87	11,712.9	47.9826
12,126	88.1391	12,126	87.0361	12,126	87.5413	12,126	85.5218	12,126	86.465	12,126	83.3879	12,126	84.907	12,126	80.5461	12,126	82.2701	12,126	76.3394	12,126	77.2032	12,126	73.5889	12,126	73.7514	12,126	68.4266	12,126	68.2136	12,126	68.3881	12,126	68.1694	12,126	64.0173	12,126	64.7229	12,126	59.4275	12,126	59.5649	12,126	51.5735	12,126	54.1377	12,126	48.5713	12,126	50.7788	12,126	29.804	12,126	47.8662	12,126	42.9477	12,126	37.7726	12,126	26.7398	12,126	44.3907	12,126	43.6751	12,126	50.519	12,126	47.4959	12,126	49.1287	12,126	48.4202
12,553.7	88.4107	12,553.7	87.2347	12,553.7	87.9852	12,553.7	85.5278	12,553.7	86.6373	12,553.7	82.6673	12,553.7	84.7401	12,553.7	79.1423	12,553.7	81.87	12,553.7	74.2741	12,553.7	77.2264	12,553.7	72.1839	12,553.7	72.1777	12,553.7	66.8142	12,553.7	66.7175	12,553.7	66.5204	12,553.7	68.7106	12,553.7	64.1825	12,553.7	64.3752	12,553.7	58.8103	12,553.7	59.2191	12,553.7	51.2082	12,553.7	51.9678	12,553.7	40.6936	12,553.7	52.3693	12,553.7	39.1695	12,553.7	43.0775	12,553.7	41.9671	12,553.7	42.7601	12,553.7	37.8372	12,553.7	43.9351	12,553.7	47.3195	12,553.7	47.627	12,553.7	47.0264	12,553.7	50.3575	12,553.7	49.0452
12,996.1	88.9731	12,996.1	87.928	12,996.1	88.7068	12,996.1	85.5539	12,996.1	87.1495	12,996.1	82.4631	12,996.1	85.2103	12,996.1	78.885	12,996.1	82.3535	12,996.1	73.7076	12,996.1	77.3934	12,996.1	73.6567	12,996.1	72.3172	12,996.1	68.2096	12,996.1	65.8975	12,996.1	69.4759	12,996.1	68.7875	12,996.1	66.9004	12,996.1	63.9266	12,996.1	57.5302	12,996.1	61.3576	12,996.1	55.2179	12,996.1	54.4507	12,996.1	46.6408	12,996.1	48.639	12,996.1	40.485	12,996.1	46.991	12,996.1	38.6753	12,996.1	48.3528	12,996.1	43.5255	12,996.1	45.9025	12,996.1	43.2908	12,996.1	46.0368	12,996.1	42.1816	12,996.1	50.6658	12,996.1	42.793
13,454.6	89.7267	13,454.6	88.4443	13,454.6	89.4728	13,454.6	85.8777	13,454.6	88.018	13,454.6	82.1257	13,454.6	85.4608	13,454.6	77.4016	13,454.6	83.2756	13,454.6	74.3403	13,454.6	78.386	13,454.6	74.1053	13,454.6	73.6756	13,454.6	71.8657	13,454.6	67.0925	13,454.6	71.8587	13,454.6	66.5533	13,454.6	68.0384	13,454.6	64.7502	13,454.6	59.8748	13,454.6	60.4584	13,454.6	56.5533	13,454.6	52.8936	13,454.6	48.3661	13,454.6	51.2225	13,454.6	40.0383	13,454.6	47.4897	13,454.6	46.1662	13,454.6	43.2772	13,454.6	41.4315	13,454.6	47.9849	13,454.6	26.8747	13,454.6	42.7704	13,454.6	46.5216	13,454.6	49.9089	13,454.6	48.89
13,929.2	90.2351	13,929.2	88.5657	13,929.2	89.8276	13,929.2	85.9111	13,929.2	88.6167	13,929.2	81.1483	13,929.2	85.4328	13,929.2	76.5948	13,929.2	83.0158	13,929.2	73.5686	13,929.2	79.8245	13,929.2	75.5544	13,929.2	75.7809	13,929.2	73.9009	13,929.2	72.2543	13,929.2	71.1551	13,929.2	70.4413	13,929.2	68.3395	13,929.2	66.6013	13,929.2	59.1011	13,929.2	59.9702	13,929.2	53.7859	13,929.2	53.0194	13,929.2	45.1359	13,929.2	53.5798	13,929.2	49.8018	13,929.2	44.7284	13,929.2	49.9294	13,929.2	47.2863	13,929.2	45.7733	13,929.2	45.949	13,929.2	22.1493	13,929.2	47.1442	13,929.2	44.2748	13,929.2	51.5976	13,929.2	48.1091
14,419.9	90.2814	14,419.9	87.9228	14,419.9	89.8103	14,419.9	84.75	14,419.9	88.6015	14,419.9	78.7354	14,419.9	85.2674	14,419.9	74.0056	14,419.9	82.4749	14,419.9	73.0604	14,419.9	80.6528	14,419.9	77.0996	14,419.9	79.077	14,419.9	73.5211	14,419.9	75.3309	14,419.9	72.3986	14,419.9	72.0952	14,419.9	69.1199	14,419.9	69.615	14,419.9	60.1468	14,419.9	61.3925	14,419.9	55.3241	14,419.9	55.214	14,419.9	31.2513	14,419.9	55.9541	14,419.9	54.4932	14,419.9	43.3757	14,419.9	50.0337	14,419.9	42.2803	14,419.9	47.1403	14,419.9	44.0181	14,419.9	45.9768	14,419.9	46.6327	14,419.9	50.7853	14,419.9	47.9196	14,419.9	48.4554
14,928.2	89.743	14,928.2	87.0984	14,928.2	89.6914	14,928.2	82.357	14,928.2	88.4619	14,928.2	74.8444	14,928.2	85.1023	14,928.2	70.5621	14,928.2	82.6152	14,928.2	72.9302	14,928.2	80.1625	14,928.2	74.7762	14,928.2	78.635	14,928.2	73.7746	14,928.2	75.4332	14,928.2	72.2522	14,928.2	71.8374	14,928.2	68.0921	14,928.2	70.2269	14,928.2	59.8377	14,928.2	59.5336	14,928.2	54.7967	14,928.2	54.9169	14,928.2	39.9781	14,928.2	56.2516	14,928.2	54.1711	14,928.2	46.4587	14,928.2	43.1414	14,928.2	38.4629	14,928.2	40.6049	14,928.2	38.3758	14,928.2	46.7544	14,928.2	49.4938	14,928.2	51.712	14,928.2	51.1645	14,928.2	44.2568
15,455.6	89.1736	15,455.6	85.6397	15,455.6	89.7938	15,455.6	78.468	15,455.6	88.1284	15,455.6	66.9021	15,455.6	84.16	15,455.6	72.147	15,455.6	81.0634	15,455.6	73.5674	15,455.6	78.7223	15,455.6	75.2944	15,455.6	78.2717	15,455.6	72.1421	15,455.6	76.5823	15,455.6	67.6014	15,455.6	72.0324	15,455.6	62.4269	15,455.6	69.9127	15,455.6	56.7368	15,455.6	60.2064	15,455.6	50.3676	15,455.6	48.5237	15,455.6	37.5042	15,455.6	54.0961	15,455.6	48.0676	15,455.6	50.3002	15,455.6	27.5565	15,455.6	43.9028	15,455.6	45.5811	15,455.6	34.2337	15,455.6	48.4353	15,455.6	46.8809	15,455.6	49.5373	15,455.6	51.3204	15,455.6	47.4521
16,000.5	88.1981	16,000.5	83.7153	16,000.5	89.1124	16,000.5	75.1602	16,000.5	87.3171	16,000.5	73.6778	16,000.5	83.5439	16,000.5	77.7028	16,000.5	79.7935	16,000.5	76.6762	16,000.5	78.1322	16,000.5	76.509	16,000.5	78.7738	16,000.5	70.1247	16,000.5	76.9945	16,000.5	68.1919	16,000.5	74.9233	16,000.5	64.9412	16,000.5	72.6646	16,000.5	57.3728	16,000.5	63.9344	16,000.5	53.415	16,000.5	55.5358	16,000.5	41.828	16,000.5	59.3107	16,000.5	50.6835	16,000.5	58.5637	16,000.5	36.5347	16,000.5	52.1985	16,000.5	46.9418	16,000.5	42.5419	16,000.5	47.2114	16,000.5	40.0364	16,000.5	50.3693	16,000.5	47.6188	16,000.5	45.5988
16,564.5	87.4507	16,564.5	83.1431	16,564.5	88.5902	16,564.5	79.5088	16,564.5	86.8244	16,564.5	79.1603	16,564.5	82.9775	16,564.5	80.4452	16,564.5	79.7889	16,564.5	77.8448	16,564.5	77.7085	16,564.5	75.7254	16,564.5	78.2895	16,564.5	71.815	16,564.5	77.4637	16,564.5	66.3306	16,564.5	75.2878	16,564.5	63.9648	16,564.5	72.5313	16,564.5	54.6591	16,564.5	62.1298	16,564.5	46.2589	16,564.5	54.4816	16,564.5	41.294	16,564.5	59.167	16,564.5	48.4693	16,564.5	59.5053	16,564.5	44.6723	16,564.5	50.1251	16,564.5	45.6883	16,564.5	37.8754	16,564.5	48.2853	16,564.5	41.4756	16,564.5	46.5762	16,564.5	45.3104	16,564.5	43.5125
17,148.9	87.4899	17,148.9	83.8781	17,148.9	88.2624	17,148.9	81.462	17,148.9	86.5711	17,148.9	80.7237	17,148.9	82.5753	17,148.9	80.3914	17,148.9	78.4296	17,148.9	76.923	17,148.9	76.5524	17,148.9	74.1981	17,148.9	76.8276	17,148.9	67.8363	17,148.9	75.4453	17,148.9	61.7128	17,148.9	72.8217	17,148.9	59.6179	17,148.9	70.1128	17,148.9	48.9573	17,148.9	58.7016	17,148.9	39.6883	17,148.9	52.634	17,148.9	34.7462	17,148.9	57.5257	17,148.9	45.925	17,148.9	57.9056	17,148.9	43.8826	17,148.9	43.9562	17,148.9	41.1802	17,148.9	29.5671	17,148.9	44.8858	17,148.9	43.106	17,148.9	39.8651	17,148.9	43.6485	17,148.9	40.1681
17,752.4	86.7766	17,752.4	83.6153	17,752.4	87.2042	17,752.4	81.9626	17,752.4	85.2578	17,752.4	80.4259	17,752.4	81.2147	17,752.4	79.1953	17,752.4	77.4425	17,752.4	74.9729	17,752.4	75.2416	17,752.4	71.1632	17,752.4	74.5717	17,752.4	64.1559	17,752.4	72.171	17,752.4	56.6574	17,752.4	69.6662	17,752.4	52.1082	17,752.4	66.6753	17,752.4	32.6032	17,752.4	55.7042	17,752.4	31.143	17,752.4	48.579	17,752.4	35.7282	17,752.4	54.8646	17,752.4	40.7703	17,752.4	55.3203	17,752.4	40.7301	17,752.4	37.7213	17,752.4	36.0795	17,752.4	41.2221	17,752.4	41.1135	17,752.4	41.5741	17,752.4	32.9268	17,752.4	43.3035	17,752.4	37.5791
18,379.4	85.6627	18,379.4	83.1535	18,379.4	85.9149	18,379.4	81.7514	18,379.4	83.8222	18,379.4	79.9696	18,379.4	80.1025	18,379.4	77.3175	18,379.4	76.7669	18,379.4	71.5506	18,379.4	73.537	18,379.4	66.0187	18,379.4	71.5356	18,379.4	55.3627	18,379.4	68.1276	18,379.4	46.1987	18,379.4	65.8482	18,379.4	49.018	18,379.4	62.9082	18,379.4	43.9782	18,379.4	50.1475	18,379.4	35.1325	18,379.4	40.6452	18,379.4	32.0994	18,379.4	50.5888	18,379.4	41.8439	18,379.4	51.3479	18,379.4	39.138	18,379.4	38.0137	18,379.4	38.6751	18,379.4	40.8651	18,379.4	39.0328	18,379.4	39.2136	18,379.4	33.9289	18,379.4	35.9552	18,379.4	37.3468
19,026.9	84.4569	19,026.9	82.1348	19,026.9	84.6809	19,026.9	81.1044	19,026.9	82.8224	19,026.9	78.5986	19,026.9	79.5396	19,026.9	74.3048	19,026.9	75.9291	19,026.9	66.119	19,026.9	72.2455	19,026.9	48.6162	19,026.9	68.9557	19,026.9	60.4329	19,026.9	64.539	19,026.9	59.6854	19,026.9	63.4425	19,026.9	57.6454	19,026.9	61.775	19,026.9	49.7128	19,026.9	50.4107	19,026.9	35.6788	19,026.9	42.3432	19,026.9	32.0723	19,026.9	47.0218	19,026.9	39.7356	19,026.9	47.2294	19,026.9	37.7739	19,026.9	36.7839	19,026.9	25.6968	19,026.9	36.721	19,026.9	32.512	19,026.9	39.4478	19,026.9	30.7776	19,026.9	26.0181	19,026.9	31.7607
19,697.8	83.198	19,697.8	81.3638	19,697.8	83.341	19,697.8	80.2401	19,697.8	82.0629	19,697.8	77.0525	19,697.8	79.0116	19,697.8	71.3439	19,697.8	75.1853	19,697.8	59.5047	19,697.8	70.2131	19,697.8	57.8936	19,697.8	64.7895	19,697.8	61.9467	19,697.8	60.6823	19,697.8	61.3894	19,697.8	60.8383	19,697.8	57.4835	19,697.8	59.6251	19,697.8	49.5295	19,697.8	48.3584	19,697.8	33.3938	19,697.8	41.5485	19,697.8	34.4682	19,697.8	44.527	19,697.8	27.5502	19,697.8	44.5765	19,697.8	28.8815	19,697.8	37.3071	19,697.8	33.8323	19,697.8	29.7951	19,697.8	36.2229	19,697.8	37.8468	19,697.8	36.8671	19,697.8	34.5218	19,697.8	31.4293
19,999.5	82.4072	19,999.5	80.8593	19,999.5	82.7237	19,999.5	80.2342	19,999.5	81.5127	19,999.5	76.4378	19,999.5	79.1361	19,999.5	71.393	19,999.5	74.2301	19,999.5	57.3402	19,999.5	69.1323	19,999.5	58.6359	19,999.5	61.5505	19,999.5	59.0361	19,999.5	57.5021	19,999.5	61.3634	19,999.5	59.2419	19,999.5	57.3495	19,999.5	56.884	19,999.5	47.7893	19,999.5	51.9991	19,999.5	43.6711	19,999.5	31.3161	19,999.5	43.8838	19,999.5	38.1954	19,999.5	42.56	19,999.5	49.1991	19,999.5	41.4077	19,999.5	45.0268	19,999.5	40.2537	19,999.5	41.1889	19,999.5	42.2054	19,999.5	43.5785	19,999.5	49.62	19,999.5	36.8026	19,999.5	35.8812
