"SPL Vertical"
"On-Axis"		"10°"		"-10°"		"20°"		"-20°"		"30°"		"-30°"		"40°"		"-40°"		"50°"		"-50°"		"60°"		"-60°"		"70°"		"-70°"		"80°"		"-80°"		"90°"		"-90°"		"100°"		"-100°"		"110°"		"-110°"		"120°"		"-120°"		"130°"		"-130°"		"140°"		"-140°"		"150°"		"-150°"		"160°"		"-160°"		"170°"		"-170°"		"180°"
"Frequency [Hz]"	"Sound Pessure Level [dB]  / [2.83V 1m] "	"Frequency [Hz]"	"Sound Pessure Level [dB]  / [2.83V 1m] "	"Frequency [Hz]"	"Sound Pessure Level [dB]  / [2.83V 1m] "	"Frequency [Hz]"	"Sound Pessure Level [dB]  / [2.83V 1m] "	"Frequency [Hz]"	"Sound Pessure Level [dB]  / [2.83V 1m] "	"Frequency [Hz]"	"Sound Pessure Level [dB]  / [2.83V 1m] "	"Frequency [Hz]"	"Sound Pessure Level [dB]  / [2.83V 1m] "	"Frequency [Hz]"	"Sound Pessure Level [dB]  / [2.83V 1m] "	"Frequency [Hz]"	"Sound Pessure Level [dB]  / [2.83V 1m] "	"Frequency [Hz]"	"Sound Pessure Level [dB]  / [2.83V 1m] "	"Frequency [Hz]"	"Sound Pessure Level [dB]  / [2.83V 1m] "	"Frequency [Hz]"	"Sound Pessure Level [dB]  / [2.83V 1m] "	"Frequency [Hz]"	"Sound Pessure Level [dB]  / [2.83V 1m] "	"Frequency [Hz]"	"Sound Pessure Level [dB]  / [2.83V 1m] "	"Frequency [Hz]"	"Sound Pessure Level [dB]  / [2.83V 1m] "	"Frequency [Hz]"	"Sound Pessure Level [dB]  / [2.83V 1m] "	"Frequency [Hz]"	"Sound Pessure Level [dB]  / [2.83V 1m] "	"Frequency [Hz]"	"Sound Pessure Level [dB]  / [2.83V 1m] "	"Frequency [Hz]"	"Sound Pessure Level [dB]  / [2.83V 1m] "	"Frequency [Hz]"	"Sound Pessure Level [dB]  / [2.83V 1m] "	"Frequency [Hz]"	"Sound Pessure Level [dB]  / [2.83V 1m] "	"Frequency [Hz]"	"Sound Pessure Level [dB]  / [2.83V 1m] "	"Frequency [Hz]"	"Sound Pessure Level [dB]  / [2.83V 1m] "	"Frequency [Hz]"	"Sound Pessure Level [dB]  / [2.83V 1m] "	"Frequency [Hz]"	"Sound Pessure Level [dB]  / [2.83V 1m] "	"Frequency [Hz]"	"Sound Pessure Level [dB]  / [2.83V 1m] "	"Frequency [Hz]"	"Sound Pessure Level [dB]  / [2.83V 1m] "	"Frequency [Hz]"	"Sound Pessure Level [dB]  / [2.83V 1m] "	"Frequency [Hz]"	"Sound Pessure Level [dB]  / [2.83V 1m] "	"Frequency [Hz]"	"Sound Pessure Level [dB]  / [2.83V 1m] "	"Frequency [Hz]"	"Sound Pessure Level [dB]  / [2.83V 1m] "	"Frequency [Hz]"	"Sound Pessure Level [dB]  / [2.83V 1m] "	"Frequency [Hz]"	"Sound Pessure Level [dB]  / [2.83V 1m] "	"Frequency [Hz]"	"Sound Pessure Level [dB]  / [2.83V 1m] "	"Frequency [Hz]"	"Sound Pessure Level [dB]  / [2.83V 1m] "	"Frequency [Hz]"	"Sound Pessure Level [dB]  / [2.83V 1m] "
20.5078	38.9692	20.5078	38.3519	20.5078	38.8441	20.5078	36.7664	20.5078	38.0055	20.5078	33.5839	20.5078	36.3822	20.5078	27.9391	20.5078	34.2541	20.5078	31.38	20.5078	34.2717	20.5078	37.9889	20.5078	37.9724	20.5078	42.2731	20.5078	41.929	20.5078	45.3093	20.5078	45.1274	20.5078	47.5917	20.5078	47.6561	20.5078	49.3588	20.5078	49.6644	20.5078	50.7469	20.5078	51.261	20.5078	51.8475	20.5078	52.5219	20.5078	52.7293	20.5078	53.5011	20.5078	53.4454	20.5078	54.2354	20.5078	54.0325	20.5078	54.748	20.5078	54.5077	20.5078	55.0533	20.5078	54.8677	20.5078	55.1634	20.5078	55.0943
21.9727	54.8523	21.9727	54.5117	21.9727	55.0648	21.9727	54.0434	21.9727	55.1474	21.9727	53.4491	21.9727	55.0968	21.9727	52.7352	21.9727	54.9094	21.9727	51.9194	21.9727	54.5845	21.9727	51.0414	21.9727	54.1308	21.9727	50.1751	21.9727	53.5735	21.9727	49.4353	21.9727	52.9629	21.9727	48.9506	21.9727	52.3759	21.9727	48.798	21.9727	51.9032	21.9727	48.9499	21.9727	51.6146	21.9727	49.3011	21.9727	51.524	21.9727	49.7413	21.9727	51.583	21.9727	50.1968	21.9727	51.7093	21.9727	50.631	21.9727	51.8218	21.9727	51.0256	21.9727	51.8621	21.9727	51.365	21.9727	51.7997	21.9727	51.6298
23.4375	51.7679	23.4375	51.365	23.4375	51.9541	23.4375	50.7269	23.4375	51.9292	23.4375	49.8207	23.4375	51.6877	23.4375	48.5971	23.4375	51.2154	23.4375	46.9903	23.4375	50.4952	23.4375	44.9348	23.4375	49.5226	23.4375	42.481	23.4375	48.3424	23.4375	40.3128	23.4375	47.1284	23.4375	40.1619	23.4375	46.2673	23.4375	41.9812	23.4375	46.1864	23.4375	44.0617	23.4375	46.866	23.4375	45.775	23.4375	47.8726	23.4375	47.1017	23.4375	48.8432	23.4375	48.13	23.4375	49.6186	23.4375	48.9389	23.4375	50.1549	23.4375	49.5767	23.4375	50.4506	23.4375	50.0601	23.4375	50.5194	23.4375	50.3813
24.9023	54.0477	24.9023	53.6596	24.9023	54.2494	24.9023	53.0704	24.9023	54.2708	24.9023	52.257	24.9023	54.11	24.9023	51.188	24.9023	53.7586	24.9023	49.8269	24.9023	53.2049	24.9023	48.1473	24.9023	52.4413	24.9023	46.195	24.9023	51.478	24.9023	44.2839	24.9023	50.3685	24.9023	43.247	24.9023	49.2443	24.9023	43.717	24.9023	48.3277	24.9023	45.0497	24.9023	47.843	24.9023	46.4226	24.9023	47.838	24.9023	47.5351	24.9023	48.1515	24.9023	48.3536	24.9023	48.5751	24.9023	48.9179	24.9023	48.9703	24.9023	49.2773	24.9023	49.2731	24.9023	49.4723	24.9023	49.4614	24.9023	49.5294
26.3672	55.7475	26.3672	55.4761	26.3672	55.8676	26.3672	55.0482	26.3672	55.8374	26.3672	54.4573	26.3672	55.6536	26.3672	53.7009	26.3672	55.31	26.3672	52.7906	26.3672	54.8013	26.3672	51.772	26.3672	54.1316	26.3672	50.753	26.3672	53.3277	26.3672	49.9223	26.3672	52.4569	26.3672	49.493	26.3672	51.6406	26.3672	49.548	26.3672	51.0331	26.3672	49.9626	26.3672	50.7444	26.3672	50.5247	26.3672	50.7657	26.3672	51.0727	26.3672	50.9895	26.3672	51.5252	26.3672	51.2945	26.3672	51.8549	26.3672	51.5969	26.3672	52.061	26.3672	51.8519	26.3672	52.1526	26.3672	52.0375	26.3672	52.1412
27.832	57.8759	27.832	57.5628	27.832	58.0248	27.832	57.0789	27.832	58.0087	27.832	56.4112	27.832	57.82	27.832	55.5414	27.832	57.4449	27.832	54.4491	27.832	56.8658	27.832	53.119	27.832	56.0647	27.832	51.5593	27.832	55.0296	27.832	49.8472	27.832	53.7669	27.832	48.2182	27.832	52.3238	27.832	47.1131	27.832	50.8267	27.832	46.8862	27.832	49.5115	27.832	47.3683	27.832	48.6627	27.832	48.1081	27.832	48.4059	27.832	48.8036	27.832	48.5966	27.832	49.3396	27.832	48.9842	27.832	49.6901	27.832	49.381	27.832	49.858	27.832	49.6863	27.832	49.8526
29.2969	57.3273	29.2969	56.9986	29.2969	57.4888	29.2969	56.5059	29.2969	57.4779	29.2969	55.8538	29.2969	57.2872	29.2969	55.055	29.2969	56.9088	29.2969	54.1428	29.2969	56.3405	29.2969	53.1924	29.2969	55.5959	29.2969	52.342	29.2969	54.7248	29.2969	51.7799	29.2969	53.8389	29.2969	51.65	29.2969	53.1215	29.2969	51.9363	29.2969	52.7618	29.2969	52.4805	29.2969	52.8194	29.2969	53.1071	29.2969	53.1779	29.2969	53.6989	29.2969	53.6585	29.2969	54.1983	29.2969	54.1283	29.2969	54.584	29.2969	54.5194	29.2969	54.8523	29.2969	54.8062	29.2969	55.0062	29.2969	54.9826	29.2969	55.049
30.7617	59.9018	30.7617	59.7006	30.7617	59.9798	30.7617	59.377	30.7617	59.933	30.7617	58.9326	30.7617	59.7582	30.7617	58.3727	30.7617	59.4523	30.7617	57.711	30.7617	59.0159	30.7617	56.9762	30.7617	58.4598	30.7617	56.2194	30.7617	57.8142	30.7617	55.5173	30.7617	57.1374	30.7617	54.9603	30.7617	56.5141	30.7617	54.6211	30.7617	56.0327	30.7617	54.5179	30.7617	55.745	30.7617	54.6075	30.7617	55.6397	30.7617	54.8147	30.7617	55.6571	30.7617	55.0674	30.7617	55.7278	30.7617	55.314	30.7617	55.7994	30.7617	55.5245	30.7617	55.8418	30.7617	55.6844	30.7617	55.8407	30.7617	55.7894
32.2266	60.6806	32.2266	60.3937	32.2266	60.8322	32.2266	59.9726	32.2266	60.847	32.2266	59.4191	32.2266	60.7229	32.2266	58.7395	32.2266	60.4588	32.2266	57.9506	32.2266	60.0579	32.2266	57.0877	32.2266	59.5323	32.2266	56.2151	32.2266	58.9091	32.2266	55.4286	32.2266	58.236	32.2266	54.8367	32.2266	57.5795	32.2266	54.5144	32.2266	57.0122	32.2266	54.4597	32.2266	56.586	32.2266	54.6012	32.2266	56.3119	32.2266	54.845	32.2266	56.161	32.2266	55.1154	32.2266	56.0862	32.2266	55.366	32.2266	56.0435	32.2266	55.5753	32.2266	56.0023	32.2266	55.7384	32.2266	55.9444	32.2266	55.8591
33.6914	61.9347	33.6914	61.6853	33.6914	62.0859	33.6914	61.345	33.6914	62.1331	33.6914	60.9245	33.6914	62.0727	33.6914	60.4401	33.6914	61.9034	33.6914	59.9164	33.6914	61.6292	33.6914	59.388	33.6914	61.2631	33.6914	58.8992	33.6914	60.83	33.6914	58.4977	33.6914	60.3682	33.6914	58.2218	33.6914	59.925	33.6914	58.0869	33.6914	59.5463	33.6914	58.0801	33.6914	59.2618	33.6914	58.168	33.6914	59.0774	33.6914	58.3103	33.6914	58.9779	33.6914	58.4709	33.6914	58.9375	33.6914	58.623	33.6914	58.9297	33.6914	58.7496	33.6914	58.9319	33.6914	58.8421	33.6914	58.9263	33.6914	58.8994
35.1562	63.0312	35.1562	62.8101	35.1562	63.1442	35.1562	62.4862	35.1562	63.1436	35.1562	62.0657	35.1562	63.0237	35.1562	61.557	35.1562	62.7803	35.1562	60.9746	35.1562	62.4132	35.1562	60.3419	35.1562	61.9298	35.1562	59.6936	35.1562	61.3503	35.1562	59.0747	35.1562	60.7116	35.1562	58.5328	35.1562	60.0677	35.1562	58.106	35.1562	59.4803	35.1562	57.8107	35.1562	59.0001	35.1562	57.6391	35.1562	58.6477	35.1562	57.567	35.1562	58.41	35.1562	57.5658	35.1562	58.2529	35.1562	57.6103	35.1562	58.14	35.1562	57.6821	35.1562	58.0448	35.1562	57.7682	35.1562	57.953	35.1562	57.8603
36.6211	63.9289	36.6211	63.7184	36.6211	64.0338	36.6211	63.4061	36.6211	64.0289	36.6211	62.9968	36.6211	63.9098	36.6211	62.4978	36.6211	63.6729	36.6211	61.922	36.6211	63.3177	36.6211	61.2909	36.6211	62.8503	36.6211	60.637	36.6211	62.2875	36.6211	60.0029	36.6211	61.6601	36.6211	59.4365	36.6211	61.0129	36.6211	58.9786	36.6211	60.3982	36.6211	58.6509	36.6211	59.8629	36.6211	58.4503	36.6211	59.4343	36.6211	58.3539	36.6211	59.1155	36.6211	58.3306	36.6211	58.8906	36.6211	58.3508	36.6211	58.7365	36.6211	58.392	36.6211	58.6305	36.6211	58.4412	36.6211	58.5543	36.6211	58.4942
38.0859	64.4498	38.0859	64.2382	38.0859	64.5542	38.0859	63.9236	38.0859	64.5473	38.0859	63.5114	38.0859	64.425	38.0859	63.01	38.0859	64.1847	38.0859	62.4332	38.0859	63.8275	38.0859	61.804	38.0859	63.3619	38.0859	61.1569	38.0859	62.8081	38.0859	60.537	38.0859	62.2017	38.0859	59.9931	38.0859	61.5919	38.0859	59.5648	38.0859	61.0327	38.0859	59.2687	38.0859	60.5662	38.0859	59.0955	38.0859	60.208	38.0859	59.0182	38.0859	59.9461	38.0859	59.0058	38.0859	59.7525	38.0859	59.0334	38.0859	59.5991	38.0859	59.0861	38.0859	59.4673	38.0859	59.1574	38.0859	59.3495	38.0859	59.2456
39.5508	65.6428	39.5508	65.479	39.5508	65.7143	39.5508	65.2306	39.5508	65.6877	39.5508	64.9069	39.5508	65.5591	39.5508	64.5201	39.5508	65.3276	39.5508	64.0866	39.5508	64.9978	39.5508	63.6281	39.5508	64.5825	39.5508	63.1724	39.5508	64.1057	39.5508	62.7508	39.5508	63.6043	39.5508	62.3936	39.5508	63.1241	39.5508	62.1217	39.5508	62.7096	39.5508	61.9414	39.5508	62.3903	39.5508	61.8438	39.5508	62.172	39.5508	61.8098	39.5508	62.0402	39.5508	61.8167	39.5508	61.9704	39.5508	61.8435	39.5508	61.939	39.5508	61.8744	39.5508	61.9275	39.5508	61.8995	39.5508	61.9225	39.5508	61.9151
41.0156	66.8197	41.0156	66.6393	41.0156	66.9085	41.0156	66.3749	41.0156	66.9001	41.0156	66.0361	41.0156	66.7905	41.0156	65.6358	41.0156	66.5786	41.0156	65.1907	41.0156	66.2676	41.0156	64.722	41.0156	65.8681	41.0156	64.2555	41.0156	65.4008	41.0156	63.819	41.0156	64.8975	41.0156	63.4379	41.0156	64.3984	41.0156	63.1299	41.0156	63.9437	41.0156	62.9013	41.0156	63.5627	41.0156	62.7468	41.0156	63.2661	41.0156	62.6532	41.0156	63.0469	41.0156	62.6044	41.0156	62.8895	41.0156	62.585	41.0156	62.7777	41.0156	62.5836	41.0156	62.6998	41.0156	62.5936	41.0156	62.6473	41.0156	62.6138
42.4805	67.7443	42.4805	67.7217	42.4805	67.6964	42.4805	67.6294	42.4805	67.5783	42.4805	67.4693	42.4805	67.3923	42.4805	67.246	42.4805	67.1436	42.4805	66.9686	42.4805	66.8427	42.4805	66.6522	42.4805	66.5065	42.4805	66.3184	42.4805	66.1586	42.4805	65.993	42.4805	65.8271	42.4805	65.7019	42.4805	65.5391	42.4805	65.4649	42.4805	65.3135	42.4805	65.2911	42.4805	65.1563	42.4805	65.1773	42.4805	65.0605	42.4805	65.1106	42.4805	65.011	42.4805	65.0742	42.4805	64.9911	42.4805	65.0527	42.4805	64.9871	42.4805	65.0365	42.4805	64.9906	42.4805	65.0218	42.4805	64.9982	42.4805	65.0087
43.9453	68.7353	43.9453	68.6139	43.9453	68.7841	43.9453	68.4229	43.9453	68.7591	43.9453	68.1675	43.9453	68.6609	43.9453	67.8558	43.9453	68.4926	43.9453	67.4994	43.9453	68.2604	43.9453	67.1139	43.9453	67.9746	43.9453	66.7189	43.9453	67.6498	43.9453	66.3358	43.9453	67.3046	43.9453	65.9857	43.9453	66.9594	43.9453	65.686	43.9453	66.6325	43.9453	65.4472	43.9453	66.337	43.9453	65.2718	43.9453	66.0792	43.9453	65.1553	43.9453	65.8584	43.9453	65.0891	43.9453	65.6706	43.9453	65.0639	43.9453	65.5106	43.9453	65.0721	43.9453	65.3748	43.9453	65.1094	43.9453	65.2622	43.9453	65.1732
45.4102	69.9433	45.4102	69.8104	45.4102	69.9979	45.4102	69.6003	45.4102	69.9738	45.4102	69.3151	45.4102	69.871	45.4102	68.9585	45.4102	69.691	45.4102	68.5368	45.4102	69.4372	45.4102	68.0597	45.4102	69.1157	45.4102	67.5412	45.4102	68.7365	45.4102	66.9997	45.4102	68.3134	45.4102	66.4567	45.4102	67.8637	45.4102	65.9354	45.4102	67.4051	45.4102	65.4582	45.4102	66.9533	45.4102	65.0454	45.4102	66.5189	45.4102	64.7136	45.4102	66.1074	45.4102	64.4756	45.4102	65.7212	45.4102	64.3392	45.4102	65.3627	45.4102	64.3067	45.4102	65.0371	45.4102	64.3732	45.4102	64.7542	45.4102	64.5274
46.875	70.7195	46.875	70.5902	46.875	70.7628	46.875	70.375	46.875	70.7199	46.875	70.0746	46.875	70.5909	46.875	69.6909	46.875	70.3767	46.875	69.228	46.875	70.08	46.875	68.6937	46.875	69.7063	46.875	68.1008	46.875	69.2651	46.875	67.4676	46.875	68.7705	46.875	66.8181	46.875	68.2406	46.875	66.1796	46.875	67.6947	46.875	65.5806	46.875	67.1508	46.875	65.0481	46.875	66.622	46.875	64.6059	46.875	66.1166	46.875	64.2734	46.875	65.6398	46.875	64.0645	46.875	65.1978	46.875	63.9857	46.875	64.7998	46.875	64.0342	46.875	64.4605	46.875	64.1985
48.3398	71.597	48.3398	71.4545	48.3398	71.6401	48.3398	71.2126	48.3398	71.5852	48.3398	70.8732	48.3398	71.4344	48.3398	70.4413	48.3398	71.1909	48.3398	69.9266	48.3398	70.8596	48.3398	69.3448	48.3398	70.4485	48.3398	68.7187	48.3398	69.9696	48.3398	68.0781	48.3398	69.44	48.3398	67.4577	48.3398	68.8808	48.3398	66.8912	48.3398	68.3149	48.3398	66.4051	48.3398	67.7632	48.3398	66.0124	48.3398	67.2415	48.3398	65.7119	48.3398	66.7603	48.3398	65.493	48.3398	66.3279	48.3398	65.3432	48.3398	65.9534	48.3398	65.2559	48.3398	65.6483	48.3398	65.2339	48.3398	65.424	48.3398	65.2867
51.2695	70.0745	51.2695	69.8907	51.2695	70.208	51.2695	69.6682	51.2695	70.2828	51.2695	69.4204	51.2695	70.2938	51.2695	69.1623	51.2695	70.2399	51.2695	68.9091	51.2695	70.1246	51.2695	68.6759	51.2695	69.9562	51.2695	68.4764	51.2695	69.7481	51.2695	68.3224	51.2695	69.5184	51.2695	68.223	51.2695	69.288	51.2695	68.1833	51.2695	69.0788	51.2695	68.2028	51.2695	68.9096	51.2695	68.2749	51.2695	68.7934	51.2695	68.3861	51.2695	68.7346	51.2695	68.5172	51.2695	68.7277	51.2695	68.6468	51.2695	68.7579	51.2695	68.7546	51.2695	68.8038	51.2695	68.8258	51.2695	68.8424	51.2695	68.854
52.7344	72.0315	52.7344	71.8814	52.7344	72.1221	52.7344	71.6771	52.7344	72.1478	52.7344	71.424	52.7344	72.1035	52.7344	71.1273	52.7344	71.9851	52.7344	70.7923	52.7344	71.7905	52.7344	70.4256	52.7344	71.5207	52.7344	70.0363	52.7344	71.1811	52.7344	69.6362	52.7344	70.7829	52.7344	69.2404	52.7344	70.3431	52.7344	68.8658	52.7344	69.8829	52.7344	68.5294	52.7344	69.4264	52.7344	68.2456	52.7344	68.9982	52.7344	68.0231	52.7344	68.6198	52.7344	67.8637	52.7344	68.3072	52.7344	67.7625	52.7344	68.0673	52.7344	67.7106	52.7344	67.8974	52.7344	67.6993	52.7344	67.7871	52.7344	67.7241
54.1992	72.8127	54.1992	72.6723	54.1992	72.8902	54.1992	72.4739	54.1992	72.9003	54.1992	72.2226	54.1992	72.8393	54.1992	71.9238	54.1992	72.7046	54.1992	71.5837	54.1992	72.4956	54.1992	71.2099	54.1992	72.2148	54.1992	70.8123	54.1992	71.8694	54.1992	70.4032	54.1992	71.4715	54.1992	69.9973	54.1992	71.0381	54.1992	69.61	54.1992	70.5892	54.1992	69.2563	54.1992	70.1458	54.1992	68.9489	54.1992	69.727	54.1992	68.6966	54.1992	69.3491	54.1992	68.5037	54.1992	69.0238	54.1992	68.3711	54.1992	68.7577	54.1992	68.297	54.1992	68.5523	54.1992	68.279	54.1992	68.4058	54.1992	68.3153
55.6641	73.6962	55.6641	73.5766	55.6641	73.7542	55.6641	73.3982	55.6641	73.7479	55.6641	73.1639	55.6641	73.6753	55.6641	72.8769	55.6641	73.5354	55.6641	72.5411	55.6641	73.3287	55.6641	72.1625	55.6641	73.0587	55.6641	71.7502	55.6641	72.7328	55.6641	71.3175	55.6641	72.3623	55.6641	70.8817	55.6641	71.9624	55.6641	70.4631	55.6641	71.5498	55.6641	70.0827	55.6641	71.1413	55.6641	69.7595	55.6641	70.7521	55.6641	69.5066	55.6641	70.3947	55.6641	69.3296	55.6641	70.0784	55.6641	69.2267	55.6641	69.8089	55.6641	69.1911	55.6641	69.5881	55.6641	69.2147	55.6641	69.4156	55.6641	69.2908
58.5938	75.4169	58.5938	75.2787	58.5938	75.4689	58.5938	75.0557	58.5938	75.4332	58.5938	74.7504	58.5938	75.3089	58.5938	74.3656	58.5938	75.0966	58.5938	73.9065	58.5938	74.7992	58.5938	73.3804	58.5938	74.423	58.5938	72.7984	58.5938	73.9791	58.5938	72.1764	58.5938	73.4829	58.5938	71.5364	58.5938	72.9541	58.5938	70.9073	58.5938	72.4143	58.5938	70.3235	58.5938	71.8848	58.5938	69.8217	58.5938	71.3834	58.5938	69.433	58.5938	70.9221	58.5938	69.1764	58.5938	70.5072	58.5938	69.0535	58.5938	70.1402	58.5938	69.0508	58.5938	69.8195	58.5938	69.146	58.5938	69.5441	58.5938	69.3164
60.0586	76.0887	60.0586	75.9932	60.0586	76.0963	60.0586	75.8104	60.0586	76.0154	60.0586	75.5412	60.0586	75.8458	60.0586	75.1868	60.0586	75.5882	60.0586	74.7502	60.0586	75.2456	60.0586	74.2366	60.0586	74.8241	60.0586	73.6554	60.0586	74.3346	60.0586	73.0209	60.0586	73.7933	60.0586	72.3549	60.0586	73.2219	60.0586	71.6872	60.0586	72.6464	60.0586	71.0554	60.0586	72.0943	60.0586	70.5011	60.0586	71.5891	60.0586	70.062	60.0586	71.1458	60.0586	69.7623	60.0586	70.7689	60.0586	69.6055	60.0586	70.4529	60.0586	69.5751	60.0586	70.1877	60.0586	69.6427	60.0586	69.9639	60.0586	69.7793
62.9883	76.9611	62.9883	76.8315	62.9883	76.9893	62.9883	76.6018	62.9883	76.9147	62.9883	76.2736	62.9883	76.7364	62.9883	75.8487	62.9883	76.4542	62.9883	75.3303	62.9883	76.0697	62.9883	74.7233	62.9883	75.5868	62.9883	74.0362	62.9883	75.0136	62.9883	73.2827	62.9883	74.3641	62.9883	72.4844	62.9883	73.6599	62.9883	71.6731	62.9883	72.9322	62.9883	70.8925	62.9883	72.2188	62.9883	70.1958	62.9883	71.5592	62.9883	69.6367	62.9883	70.9836	62.9883	69.2539	62.9883	70.504	62.9883	69.0572	62.9883	70.1132	62.9883	69.0254	62.9883	69.7919	62.9883	69.1178	62.9883	69.5209	62.9883	69.2928
64.4531	77.8104	64.4531	77.6759	64.4531	77.837	64.4531	77.435	64.4531	77.7547	64.4531	77.089	64.4531	77.5623	64.4531	76.6396	64.4531	77.2594	64.4531	76.0892	64.4531	76.8462	64.4531	75.4418	64.4531	76.3252	64.4531	74.7045	64.4531	75.702	64.4531	73.8894	64.4531	74.9878	64.4531	73.0173	64.4531	74.2032	64.4531	72.122	64.4531	73.3805	64.4531	71.2525	64.4531	72.5644	64.4531	70.4721	64.4531	71.8056	64.4531	69.8464	64.4531	71.1485	64.4531	69.4216	64.4531	70.6158	64.4531	69.2053	64.4531	70.2022	64.4531	69.1657	64.4531	69.8819	64.4531	69.251	64.4531	69.625	64.4531	69.4135
67.3828	78.3806	67.3828	78.2269	67.3828	78.4151	67.3828	77.9546	67.3828	78.3285	67.3828	77.563	67.3828	78.1174	67.3828	77.0498	67.3828	77.7768	67.3828	76.4108	67.3828	77.3002	67.3828	75.6404	67.3828	76.6796	67.3828	74.7317	67.3828	75.9071	67.3828	73.6785	67.3828	74.9779	67.3828	72.4794	67.3828	73.896	67.3828	71.1455	67.3828	72.6827	67.3828	69.7153	67.3828	71.3884	67.3828	68.2798	67.3828	70.1026	67.3828	67.0037	67.3828	68.947	67.3828	66.0962	67.3828	68.0313	67.3828	65.6849	67.3828	67.388	67.3828	65.7031	67.3828	66.952	67.3828	65.9597	67.3828	66.6134	67.3828	66.288
68.8477	78.617	68.8477	78.4348	68.8477	78.6771	68.8477	78.1314	68.8477	78.6116	68.8477	77.7053	68.8477	78.4149	68.8477	77.1519	68.8477	78.0785	68.8477	76.4634	68.8477	77.5914	68.8477	75.6284	68.8477	76.9396	68.8477	74.6319	68.8477	76.1066	68.8477	73.4553	68.8477	75.0746	68.8477	72.0779	68.8477	73.8273	68.8477	70.4795	68.8477	72.3541	68.8477	68.6485	68.8477	70.6611	68.8477	66.607	68.8477	68.7911	68.8477	64.473	68.8477	66.8601	68.8477	62.5685	68.8477	65.0869	68.8477	61.3935	68.8477	63.7302	68.8477	61.1527	68.8477	62.8809	68.8477	61.4767	68.8477	62.3641	68.8477	61.9313
71.7773	79.3436	71.7773	79.1472	71.7773	79.4258	71.7773	78.838	71.7773	79.3901	71.7773	78.4163	71.7773	79.2312	71.7773	77.8806	71.7773	78.9415	71.7773	77.2281	71.7773	78.511	71.7773	76.455	71.7773	77.9276	71.7773	75.5575	71.7773	77.178	71.7773	74.5324	71.7773	76.2484	71.7773	73.379	71.7773	75.1268	71.7773	72.101	71.7773	73.8047	71.7773	70.7094	71.7773	72.2803	71.7773	69.2261	71.7773	70.5629	71.7773	67.6877	71.7773	68.683	71.7773	66.1502	71.7773	66.7121	71.7773	64.6907	71.7773	64.7969	71.7773	63.4103	71.7773	63.1888	71.7773	62.4421	71.7773	62.1898	71.7773	61.9676
74.707	80.0396	74.707	79.8715	74.707	80.1076	74.707	79.6067	74.707	80.0713	74.707	79.2478	74.707	79.9248	74.707	78.7973	74.707	79.6615	74.707	78.2581	74.707	79.2737	74.707	77.6341	74.707	78.7546	74.707	76.9318	74.707	78.0993	74.707	76.1607	74.707	77.3083	74.707	75.3351	74.707	76.3895	74.707	74.4741	74.707	75.3624	74.707	73.601	74.707	74.2606	74.707	72.7418	74.707	73.1336	74.707	71.9236	74.707	72.046	74.707	71.1729	74.707	71.0719	74.707	70.5163	74.707	70.2824	74.707	69.9816	74.707	69.7313	74.707	69.6003	74.707	69.4424	74.707	69.4083
77.6367	81.0989	77.6367	80.9257	77.6367	81.1764	77.6367	80.6607	77.6367	81.154	77.6367	80.3075	77.6367	81.0268	77.6367	79.8699	77.6367	80.7902	77.6367	79.3522	77.6367	80.4402	77.6367	78.7604	77.6367	79.9745	77.6367	78.103	77.6367	79.3943	77.6367	77.3924	77.6367	78.706	77.6367	76.6452	77.6367	77.9232	77.6367	75.8823	77.6367	77.0688	77.6367	75.1283	77.6367	76.1751	77.6367	74.41	77.6367	75.2835	77.6367	73.7548	77.6367	74.4402	77.6367	73.1883	77.6367	73.6909	77.6367	72.7329	77.6367	73.0734	77.6367	72.4063	77.6367	72.6124	77.6367	72.2219	77.6367	72.3179	77.6367	72.1897
79.1016	81.4995	79.1016	81.3202	79.1016	81.5798	79.1016	81.046	79.1016	81.5575	79.1016	80.6807	79.1016	81.4284	79.1016	80.2285	79.1016	81.1889	79.1016	79.6944	79.1016	80.8359	79.1016	79.085	79.1016	80.3682	79.1016	78.4096	79.1016	79.7874	79.1016	77.6808	79.1016	79.1002	79.1016	76.9159	79.1016	78.3202	79.1016	76.1367	79.1016	77.4696	79.1016	75.3695	79.1016	76.5804	79.1016	74.644	79.1016	75.6933	79.1016	73.9901	79.1016	74.8543	79.1016	73.4357	79.1016	74.1078	79.1016	73.003	79.1016	73.4894	79.1016	72.7072	79.1016	73.0209	79.1016	72.5568	79.1016	72.7101	79.1016	72.5566
82.0312	82.4147	82.0312	82.2477	82.0312	82.4796	82.0312	81.9817	82.0312	82.4395	82.0312	81.6196	82.0312	82.2913	82.0312	81.1651	82.0312	82.0322	82.0312	80.6224	82.0312	81.6601	82.0312	79.9979	82.0312	81.1745	82.0312	79.3002	82.0312	80.5778	82.0312	78.5423	82.0312	79.8775	82.0312	77.7423	82.0312	79.0881	82.0312	76.925	82.0312	78.233	82.0312	76.1225	82.0312	77.3456	82.0312	75.3719	82.0312	76.4682	82.0312	74.7119	82.0312	75.6474	82.0312	74.1748	82.0312	74.9272	82.0312	73.7799	82.0312	74.3395	82.0312	73.5315	82.0312	73.8989	82.0312	73.4233	82.0312	73.6045	82.0312	73.4481
84.9609	83.3605	84.9609	83.207	84.9609	83.4055	84.9609	82.9468	84.9609	83.34	84.9609	82.5818	84.9609	83.1618	84.9609	82.1142	84.9609	82.8688	84.9609	81.5469	84.9609	82.4595	84.9609	80.8846	84.9609	81.9341	84.9609	80.1347	84.9609	81.2963	84.9609	79.3096	84.9609	80.5551	84.9609	78.4285	84.9609	79.7275	84.9609	77.5211	84.9609	78.8409	84.9609	76.6293	84.9609	77.9342	84.9609	75.8069	84.9609	77.0558	84.9609	75.1119	84.9609	76.2573	84.9609	74.5907	84.9609	75.5806	84.9609	74.2613	84.9609	75.0467	84.9609	74.1081	84.9609	74.6508	84.9609	74.0953	84.9609	74.3718	84.9609	74.1886
87.8906	83.9615	87.8906	83.7914	87.8906	84.0114	87.8906	83.5029	87.8906	83.9391	87.8906	83.0975	87.8906	83.7425	87.8906	82.577	87.8906	83.4195	87.8906	81.9433	87.8906	82.9687	87.8906	81.1997	87.8906	82.3903	87.8906	80.3519	87.8906	81.6879	87.8906	79.4104	87.8906	80.8706	87.8906	78.3942	87.8906	79.956	87.8906	77.3365	87.8906	78.974	87.8906	76.2911	87.8906	77.9684	87.8906	75.334	87.8906	76.9969	87.8906	74.5527	87.8906	76.1223	87.8906	74.015	87.8906	75.3953	87.8906	73.7353	87.8906	74.836	87.8906	73.6695	87.8906	74.4277	87.8906	73.7465	87.8906	74.1309	87.8906	73.9081
90.8203	84.2166	90.8203	84.0677	90.8203	84.2354	90.8203	83.7886	90.8203	84.1234	90.8203	83.3776	90.8203	83.8783	90.8203	82.832	90.8203	83.4971	90.8203	82.1482	90.8203	82.9765	90.8203	81.322	90.8203	82.3142	90.8203	80.3503	90.8203	81.5114	90.8203	79.2342	90.8203	80.576	90.8203	77.9863	90.8203	79.5293	90.8203	76.6449	90.8203	78.4134	90.8203	75.2969	90.8203	77.2985	90.8203	74.099	90.8203	76.2798	90.8203	73.251	90.8203	75.4526	90.8203	72.8787	90.8203	74.8666	90.8203	72.9233	90.8203	74.4963	90.8203	73.1986	90.8203	74.2585	90.8203	73.5316	90.8203	74.0586	90.8203	73.8262
95.2148	85.3358	95.2148	85.141	95.2148	85.3789	95.2148	84.7951	95.2148	85.2673	95.2148	84.2959	95.2148	84.9961	95.2148	83.638	95.2148	84.5574	95.2148	82.8109	95.2148	83.94	95.2148	81.7974	95.2148	83.1275	95.2148	80.5701	95.2148	82.0965	95.2148	79.0868	95.2148	80.8135	95.2148	77.2805	95.2148	79.2299	95.2148	75.0392	95.2148	77.2729	95.2148	72.1571	95.2148	74.831	95.2148	68.1887	95.2148	71.7371	95.2148	61.8272	95.2148	67.8269	95.2148	48.8734	95.2148	63.817	95.2148	59.7418	95.2148	63.3391	95.2148	64.4893	95.2148	65.4252	95.2148	66.574	95.2148	66.878	95.2148	67.2694
98.1445	85.3451	98.1445	85.1908	98.1445	85.3574	98.1445	84.896	98.1445	85.2246	98.1445	84.4601	98.1445	84.9414	98.1445	83.8803	98.1445	84.5007	98.1445	83.1514	98.1445	83.8933	98.1445	82.2656	98.1445	83.107	98.1445	81.2127	98.1445	82.1253	98.1445	79.9808	98.1445	80.9265	98.1445	78.5584	98.1445	79.4809	98.1445	76.9418	98.1445	77.7482	98.1445	75.1512	98.1445	75.6772	98.1445	73.266	98.1445	73.2154	98.1445	71.4751	98.1445	70.377	98.1445	70.0717	98.1445	67.5277	98.1445	69.2523	98.1445	65.8696	98.1445	68.8777	98.1445	66.1641	98.1445	68.5917	98.1445	67.2221	98.1445	68.0883
101.074	85.6236	101.074	85.5125	101.074	85.605	101.074	85.2739	101.074	85.4552	101.074	84.9108	101.074	85.1735	101.074	84.4275	101.074	84.7599	101.074	83.8294	101.074	84.2148	101.074	83.1239	101.074	83.5398	101.074	82.3212	101.074	82.7369	101.074	81.4353	101.074	81.8105	101.074	80.4862	101.074	80.7689	101.074	79.5019	101.074	79.6285	101.074	78.52	101.074	78.4213	101.074	77.5857	101.074	77.2046	101.074	76.7446	101.074	76.0696	101.074	76.0294	101.074	75.1338	101.074	75.4491	101.074	74.5005	101.074	74.9886	101.074	74.2012	101.074	74.6239	101.074	74.1805	101.074	74.3454
105.469	85.8888	105.469	85.8197	105.469	85.8884	105.469	85.6868	105.469	85.815	105.469	85.4977	105.469	85.6675	105.469	85.2615	105.469	85.4469	105.469	84.9877	105.469	85.1567	105.469	84.6854	105.469	84.8027	105.469	84.3613	105.469	84.3934	105.469	84.0201	105.469	83.9402	105.469	83.6642	105.469	83.4573	105.469	83.2952	105.469	82.9615	105.469	82.9151	105.469	82.4703	105.469	82.5274	105.469	82.001	105.469	82.1383	105.469	81.5711	105.469	81.7577	105.469	81.1993	105.469	81.4002	105.469	80.9064	105.469	81.0854	105.469	80.7136	105.469	80.8375	105.469	80.6369	105.469	80.6812
108.398	87.7233	108.398	87.654	108.398	87.7055	108.398	87.5043	108.398	87.595	108.398	87.2818	108.398	87.3878	108.398	86.9946	108.398	87.0827	108.398	86.6517	108.398	86.6824	108.398	86.2638	108.398	86.1957	108.398	85.8426	108.398	85.639	108.398	85.4013	108.398	85.0381	108.398	84.9532	108.398	84.4266	108.398	84.5102	108.398	83.8415	108.398	84.0813	108.398	83.3146	108.398	83.6719	108.398	82.8657	108.398	83.285	108.398	82.5007	108.398	82.9235	108.398	82.2171	108.398	82.5933	108.398	82.0132	108.398	82.3056	108.398	81.8922	108.398	82.0767	108.398	81.8611	108.398	81.9241
112.793	89.0026	112.793	88.902	112.793	88.9417	112.793	88.6453	112.793	88.7151	112.793	88.2389	112.793	88.3199	112.793	87.6902	112.793	87.7548	112.793	87.0082	112.793	87.0208	112.793	86.2053	112.793	86.1231	112.793	85.3002	112.793	85.0748	112.793	84.3224	112.793	83.9047	112.793	83.3174	112.793	82.6689	112.793	82.3476	112.793	81.4636	112.793	81.4852	112.793	80.4212	112.793	80.7916	112.793	79.6667	112.793	80.2934	112.793	79.2461	112.793	79.9712	112.793	79.101	112.793	79.7747	112.793	79.1226	112.793	79.6471	112.793	79.2178	112.793	79.5449	112.793	79.3325	112.793	79.4431
117.188	90.0573	117.188	89.9143	117.188	90.0719	117.188	89.6443	117.188	89.9548	117.188	89.2465	117.188	89.7004	117.188	88.718	117.188	89.3015	117.188	88.0552	117.188	88.7488	117.188	87.2546	117.188	88.0313	117.188	86.3153	117.188	87.1384	117.188	85.2414	117.188	86.064	117.188	84.0466	117.188	84.8158	117.188	82.7597	117.188	83.4324	117.188	81.4341	117.188	82.0078	117.188	80.1587	117.188	80.7042	117.188	79.0599	117.188	79.7064	117.188	78.2731	117.188	79.099	117.188	77.8742	117.188	78.7959	117.188	77.8236	117.188	78.6265	117.188	77.9915	117.188	78.4566	117.188	78.2352
120.117	91.0059	120.117	90.8444	120.117	91.0449	120.117	90.5635	120.117	90.9582	120.117	90.1662	120.117	90.7418	120.117	89.656	120.117	90.3901	120.117	89.0374	120.117	89.8956	120.117	88.316	120.117	89.248	120.117	87.4985	120.117	88.4336	120.117	86.592	120.117	87.4352	120.117	85.6024	120.117	86.2344	120.117	84.5326	120.117	84.8153	120.117	83.3829	120.117	83.1773	120.117	82.1554	120.117	81.362	120.117	80.867	120.117	79.5072	120.117	79.5731	120.117	77.8962	120.117	78.3892	120.117	76.8569	120.117	77.4665	120.117	76.4534	120.117	76.8876	120.117	76.4375	120.117	76.5855
124.512	90.4434	124.512	90.2443	124.512	90.5483	124.512	89.9607	124.512	90.5542	124.512	89.6072	124.512	90.4605	124.512	89.2025	124.512	90.2702	124.512	88.7683	124.512	89.9889	124.512	88.3255	124.512	89.6227	124.512	87.8906	124.512	89.1769	124.512	87.471	124.512	88.6543	124.512	87.062	124.512	88.0541	124.512	86.647	124.512	87.3727	124.512	86.2014	124.512	86.6075	124.512	85.699	124.512	85.7635	124.512	85.1216	124.512	84.8641	124.512	84.47	124.512	83.9619	124.512	83.7744	124.512	83.1451	124.512	83.1007	124.512	82.5251	124.512	82.5459	124.512	82.2011	124.512	82.2176
128.906	89.9091	128.906	89.6581	128.906	89.9987	128.906	89.2514	128.906	89.9258	128.906	88.6993	128.906	89.6937	128.906	88.0183	128.906	89.3117	128.906	87.234	128.906	88.7955	128.906	86.3859	128.906	88.1699	128.906	85.5337	128.906	87.4704	128.906	84.7573	128.906	86.7453	128.906	84.1432	128.906	86.0527	128.906	83.7506	128.906	85.4491	128.906	83.5776	128.906	84.9725	128.906	83.5629	128.906	84.628	128.906	83.6223	128.906	84.3906	128.906	83.6894	128.906	84.2219	128.906	83.7334	128.906	84.0895	128.906	83.7562	128.906	83.9771	128.906	83.7771	128.906	83.884	128.906	83.8165
133.301	90.3415	133.301	90.1324	133.301	90.3911	133.301	89.766	133.301	90.2781	133.301	89.2434	133.301	89.9986	133.301	88.5645	133.301	89.5473	133.301	87.7276	133.301	88.9179	133.301	86.7304	133.301	88.1036	133.301	85.5724	133.301	87.1008	133.301	84.2625	133.301	85.9177	133.301	82.8385	133.301	84.5938	133.301	81.4049	133.301	83.2371	133.301	80.1805	133.301	82.0621	133.301	79.463	133.301	81.343	133.301	79.4089	133.301	81.1999	133.301	79.8626	133.301	81.4606	133.301	80.5284	133.301	81.8352	133.301	81.1851	133.301	82.1145	133.301	81.7164	133.301	82.2004	133.301	82.0648
139.16	89.8335	139.16	89.6057	139.16	89.9056	139.16	89.2264	139.16	89.8167	139.16	88.6979	139.16	89.561	139.16	88.0189	139.16	89.1317	139.16	87.1829	139.16	88.5201	139.16	86.1753	139.16	87.712	139.16	84.9701	139.16	86.6836	139.16	83.5251	139.16	85.3949	139.16	81.7732	139.16	83.78	139.16	79.6043	139.16	81.7331	139.16	76.8237	139.16	79.0844	139.16	73.0348	139.16	75.5801	139.16	67.2944	139.16	71.1451	139.16	60.668	139.16	68.4917	139.16	66.3773	139.16	70.6116	139.16	70.6092	139.16	72.8181	139.16	72.8359	139.16	73.8541	139.16	73.8448
143.555	89.0178	143.555	88.8657	143.555	89.0495	143.555	88.5999	143.555	88.9554	143.555	88.2278	143.555	88.7319	143.555	87.756	143.555	88.3758	143.555	87.1897	143.555	87.8824	143.555	86.5314	143.555	87.2423	143.555	85.7803	143.555	86.4377	143.555	84.9323	143.555	85.4401	143.555	83.9796	143.555	84.2086	143.555	82.9122	143.555	82.6892	143.555	81.72	143.555	80.8197	143.555	80.3988	143.555	78.551	143.555	78.96	143.555	75.932	143.555	77.4482	143.555	73.3625	143.555	75.9624	143.555	71.8032	143.555	74.6546	143.555	71.7027	143.555	73.6493	143.555	72.2657	143.555	72.9108
147.949	91.0681	147.949	91.0553	147.949	90.9938	147.949	90.9598	147.949	90.8316	147.949	90.7902	147.949	90.5815	147.949	90.5598	147.949	90.2437	147.949	90.2849	147.949	89.8177	147.949	89.9808	147.949	89.3037	147.949	89.6577	147.949	88.7036	147.949	89.3167	147.949	88.0232	147.949	88.9488	147.949	87.274	147.949	88.5376	147.949	86.474	147.949	88.0638	147.949	85.6509	147.949	87.5113	147.949	84.8444	147.949	86.8735	147.949	84.1077	147.949	86.1581	147.949	83.5031	147.949	85.3913	147.949	83.0912	147.949	84.6209	147.949	82.9183	147.949	83.9155	147.949	83.0081	147.949	83.3543
153.809	93.1318	153.809	93.0311	153.809	93.1217	153.809	92.8299	153.809	92.9964	153.809	92.5451	153.809	92.7569	153.809	92.1999	153.809	92.4094	153.809	91.822	153.809	91.9654	153.809	91.4387	153.809	91.4422	153.809	91.0723	153.809	90.8631	153.809	90.734	153.809	90.256	153.809	90.4222	153.809	89.6502	153.809	90.1245	153.809	89.0723	153.809	89.8228	153.809	88.5431	153.809	89.5004	153.809	88.0764	153.809	89.1473	153.809	87.6816	153.809	88.7633	153.809	87.3697	153.809	88.359	153.809	87.1575	153.809	87.9564	153.809	87.0663	153.809	87.588	153.809	87.1122	153.809	87.2939
159.668	92.73	159.668	92.5566	159.668	92.7609	159.668	92.2512	159.668	92.6465	159.668	91.8331	159.668	92.3918	159.668	91.3296	159.668	92.0091	159.668	90.776	159.668	91.5181	159.668	90.2124	159.668	90.9449	159.668	89.6792	159.668	90.3212	159.668	89.2093	159.668	89.6823	159.668	88.8219	159.668	89.0648	159.668	88.5193	159.668	88.5041	159.668	88.2899	159.668	88.0309	159.668	88.1153	159.668	87.6662	159.668	87.9767	159.668	87.4173	159.668	87.8586	159.668	87.2772	159.668	87.7491	159.668	87.2283	159.668	87.64	159.668	87.2494	159.668	87.5283	159.668	87.3191	159.668	87.4176
165.527	92.0495	165.527	91.8777	165.527	92.0657	165.527	91.5568	165.527	91.9268	165.527	91.1016	165.527	91.6396	165.527	90.5366	165.527	91.2168	165.527	89.8972	165.527	90.6772	165.527	89.2295	165.527	90.0457	165.527	88.5872	165.527	89.3539	165.527	88.0237	165.527	88.64	165.527	87.5799	165.527	87.9502	165.527	87.2734	165.527	87.3372	165.527	87.0958	165.527	86.8545	165.527	87.0203	165.527	86.5428	165.527	87.0145	165.527	86.4123	165.527	87.0467	165.527	86.4366	165.527	87.0877	165.527	86.5631	165.527	87.1109	165.527	86.7331	165.527	87.0938	165.527	86.8974	165.527	87.0228
171.387	92.0402	171.387	91.839	171.387	92.0698	171.387	91.472	171.387	91.9273	171.387	90.9502	171.387	91.6164	171.387	90.2914	171.387	91.1461	171.387	89.5218	171.387	90.5305	171.387	88.6786	171.387	89.7898	171.387	87.8136	171.387	88.9513	171.387	86.9937	171.387	88.0527	171.387	86.2955	171.387	87.1478	171.387	85.7878	171.387	86.3133	171.387	85.5063	171.387	85.6473	171.387	85.4389	171.387	85.2414	171.387	85.5337	171.387	85.1305	171.387	85.721	171.387	85.2634	171.387	85.9317	171.387	85.5312	171.387	86.1068	171.387	85.8225	171.387	86.2016	171.387	86.0563	171.387	86.1877
177.246	91.9087	177.246	91.6788	177.246	91.9541	177.246	91.2703	177.246	91.8132	177.246	90.694	177.246	91.4894	177.246	89.9666	177.246	90.9905	177.246	89.1121	177.246	90.3298	177.246	88.166	177.246	89.5262	177.246	87.1809	177.246	88.6054	177.246	86.2328	177.246	87.6043	177.246	85.4214	177.246	86.5793	177.246	84.8512	177.246	85.6217	177.246	84.5892	177.246	84.8648	177.246	84.6264	177.246	84.4518	177.246	84.8828	177.246	84.4444	177.246	85.2492	177.246	84.7591	177.246	85.6251	177.246	85.2208	177.246	85.9332	177.246	85.6653	177.246	86.1178	177.246	85.9883	177.246	86.142
183.105	91.0743	183.105	90.8132	183.105	91.1255	183.105	90.3468	183.105	90.965	183.105	89.6827	183.105	90.5942	183.105	88.8328	183.105	90.0182	183.105	87.8155	183.105	89.246	183.105	86.6615	183.105	88.291	183.105	85.4258	183.105	87.1728	183.105	84.209	183.105	85.9245	183.105	83.1796	183.105	84.6139	183.105	82.5547	183.105	83.3878	183.105	82.4808	183.105	82.5139	183.105	82.9023	183.105	82.2884	183.105	83.6075	183.105	82.7501	183.105	84.3803	183.105	83.6064	183.105	85.0739	183.105	84.5139	183.105	85.6019	183.105	85.2611	183.105	85.9123	183.105	85.7556	183.105	85.9709
188.965	90.3601	188.965	90.0529	188.965	90.4186	188.965	89.4956	188.965	90.2302	188.965	88.6859	188.965	89.7973	188.965	87.6197	188.965	89.1226	188.965	86.2896	188.965	88.2067	188.965	84.6859	188.965	87.0441	188.965	82.8075	188.965	85.6154	188.965	80.7146	188.965	83.8804	188.965	78.7111	188.965	81.7843	188.965	77.6218	188.965	79.3556	188.965	78.1707	188.965	77.1966	188.965	79.7601	188.965	77.0515	188.965	81.4908	188.965	79.038	188.965	82.9881	188.965	81.319	188.965	84.1578	188.965	83.139	188.965	84.9791	188.965	84.4155	188.965	85.4398	188.965	85.1926	188.965	85.5207
196.289	91.791	196.289	91.5985	196.289	91.762	196.289	91.1817	196.289	91.5155	196.289	90.5365	196.289	91.0572	196.289	89.6541	196.289	90.3943	196.289	88.5169	196.289	89.5336	196.289	87.0906	196.289	88.4748	196.289	85.3145	196.289	87.2015	196.289	83.087	196.289	85.6663	196.289	80.2701	196.289	83.7724	196.289	76.9197	196.289	81.359	196.289	74.8162	196.289	78.2937	196.289	76.6675	196.289	75.4908	196.289	79.6532	196.289	76.4168	196.289	82.039	196.289	79.587	196.289	83.7472	196.289	82.2099	196.289	84.8724	196.289	83.996	196.289	85.4678	196.289	85.0722	196.289	85.5427
203.613	94.0692	203.613	94.0011	203.613	93.9884	203.613	93.7857	203.613	93.7644	203.613	93.4308	203.613	93.4106	203.613	92.9495	203.613	92.9479	203.613	92.3586	203.613	92.4034	203.613	91.677	203.613	91.8069	203.613	90.9243	203.613	91.1861	203.613	90.1194	203.613	90.5607	203.613	89.2809	203.613	89.938	203.613	88.4303	203.613	89.3131	203.613	87.5991	203.613	88.676	203.613	86.836	203.613	88.0251	203.613	86.2065	203.613	87.3827	203.613	85.7718	203.613	86.7995	203.613	85.5534	203.613	86.3347	203.613	85.5135	203.613	86.0162	203.613	85.5779	203.613	85.818	203.613	85.6842
210.938	93.9263	210.938	93.7905	210.938	93.8705	210.938	93.4731	210.938	93.6243	210.938	92.9931	210.938	93.2028	210.938	92.3765	210.938	92.6359	210.938	91.6548	210.938	91.9685	210.938	90.8639	210.938	91.255	210.938	90.0415	210.938	90.5509	210.938	89.2243	210.938	89.8997	210.938	88.4436	210.938	89.3228	210.938	87.7221	210.938	88.8146	210.938	87.0734	210.938	88.3493	210.938	86.5048	210.938	87.8934	210.938	86.0215	210.938	87.4216	210.938	85.6311	210.938	86.9279	210.938	85.3463	210.938	86.4293	210.938	85.1853	210.938	85.9623	210.938	85.166	210.938	85.5715	210.938	85.2973
218.262	92.6431	218.262	92.526	218.262	92.5651	218.262	92.2221	218.262	92.2959	218.262	91.7512	218.262	91.8519	218.262	91.1435	218.262	91.2628	218.262	90.4376	218.262	90.5715	218.262	89.6767	218.262	89.8337	218.262	88.9022	218.262	89.1131	218.262	88.1469	218.262	88.4683	218.262	87.4301	218.262	87.9341	218.262	86.7609	218.262	87.5073	218.262	86.1471	218.262	87.15	218.262	85.6059	218.262	86.8107	218.262	85.1638	218.262	86.4489	218.262	84.8444	218.262	86.0531	218.262	84.6543	218.262	85.6444	218.262	84.582	218.262	85.2647	218.262	84.6118	218.262	84.9546	218.262	84.7357
225.586	92.0567	225.586	91.8719	225.586	91.9937	225.586	91.4541	225.586	91.6806	225.586	90.8315	225.586	91.1281	225.586	90.0479	225.586	90.3626	225.586	89.1626	225.586	89.4315	225.586	88.2479	225.586	88.4091	225.586	87.3796	225.586	87.4012	225.586	86.6226	225.586	86.5349	225.586	86.017	225.586	85.927	225.586	85.5763	225.586	85.6346	225.586	85.2995	225.586	85.6282	225.586	85.1857	225.586	85.813	225.586	85.2353	225.586	86.0791	225.586	85.4323	225.586	86.339	225.586	85.7297	225.586	86.5387	225.586	86.058	225.586	86.6499	225.586	86.3492	225.586	86.6581	225.586	86.5567
232.91	92.3941	232.91	92.2158	232.91	92.3061	232.91	91.7843	232.91	91.9474	232.91	91.1222	232.91	91.3243	232.91	90.2621	232.91	90.4558	232.91	89.2483	232.91	89.3774	232.91	88.1359	232.91	88.1459	232.91	86.9877	232.91	86.8432	232.91	85.8653	232.91	85.5795	232.91	84.8225	232.91	84.4891	232.91	83.9071	232.91	83.7083	232.91	83.1801	232.91	83.3278	232.91	82.7342	232.91	83.3426	232.91	82.6656	232.91	83.6492	232.91	82.9809	232.91	84.0988	232.91	83.5472	232.91	84.55	232.91	84.1664	232.91	84.8928	232.91	84.6756	232.91	85.0512	232.91	84.9819
241.699	91.8849	241.699	91.6851	241.699	91.816	241.699	91.2281	241.699	91.4761	241.699	90.5347	241.699	90.873	241.699	89.6361	241.699	90.0267	241.699	88.5761	241.699	88.9709	241.699	87.4104	241.699	87.7547	241.699	86.2035	241.699	86.4437	241.699	85.0212	241.699	85.1213	241.699	83.9213	241.699	83.8918	241.699	82.9512	241.699	82.8835	241.699	82.1527	241.699	82.23	241.699	81.5768	241.699	82.0013	241.699	81.288	241.699	82.1314	241.699	81.3289	241.699	82.4475	241.699	81.6549	241.699	82.7737	241.699	82.1264	241.699	82.9933	241.699	82.5819	241.699	83.0456	241.699	82.9061
250.488	91.5537	250.488	91.3409	250.488	91.4887	250.488	90.8631	250.488	91.1447	250.488	90.1456	250.488	90.5312	250.488	89.2274	250.488	89.6695	250.488	88.1614	250.488	88.5939	250.488	87.0102	250.488	87.355	250.488	85.8379	250.488	86.0228	250.488	84.6994	250.488	84.6893	250.488	83.6374	250.488	83.4693	250.488	82.6951	250.488	82.4972	250.488	81.9395	250.488	81.9109	250.488	81.4706	250.488	81.7994	250.488	81.3837	250.488	82.1229	250.488	81.6859	250.488	82.6983	250.488	82.2564	250.488	83.295	250.488	82.9063	250.488	83.7348	250.488	83.4671	250.488	83.9214	250.488	83.8259
259.277	92.7843	259.277	92.4875	259.277	92.8103	259.277	91.9346	259.277	92.5585	259.277	91.1498	259.277	92.0282	259.277	90.1692	259.277	91.2262	259.277	89.0406	259.277	90.1688	259.277	87.818	259.277	88.8847	259.277	86.5515	259.277	87.4149	259.277	85.2746	259.277	85.8135	259.277	84.0021	259.277	84.1536	259.277	82.748	259.277	82.5651	259.277	81.5695	259.277	81.3167	259.277	80.6287	259.277	80.8119	259.277	80.1985	259.277	81.2149	259.277	80.4721	259.277	82.1532	259.277	81.3104	259.277	83.1117	259.277	82.345	259.277	83.7804	259.277	83.2542	259.277	84.0347	259.277	83.8485
268.066	92.4725	268.066	92.162	268.066	92.5143	268.066	91.5965	268.066	92.2804	268.066	90.7966	268.066	91.7722	268.066	89.7914	268.066	91.003	268.066	88.6218	268.066	90.0004	268.066	87.34	268.066	88.8057	268.066	86.0068	268.066	87.4697	268.066	84.6835	268.066	86.0444	268.066	83.4254	268.066	84.578	268.066	82.2822	268.066	83.1293	268.066	81.3094	268.066	81.8178	268.066	80.5815	268.066	80.8796	268.066	80.1863	268.066	80.5716	268.066	80.1811	268.066	80.8714	268.066	80.5284	268.066	81.4377	268.066	81.0808	268.066	81.9221	268.066	81.6397	268.066	82.1366	268.066	82.0293
276.855	91.9929	276.855	91.6775	276.855	92.003	276.855	91.0718	276.855	91.7043	276.855	90.2042	276.855	91.1058	276.855	89.1186	276.855	90.2304	276.855	87.8753	276.855	89.1166	276.855	86.5481	276.855	87.8181	276.855	85.2134	276.855	86.4003	276.855	83.936	276.855	84.9307	276.855	82.7626	276.855	83.4693	276.855	81.7382	276.855	82.0785	276.855	80.9454	276.855	80.8914	276.855	80.5257	276.855	80.2101	276.855	80.6067	276.855	80.3661	276.855	81.1576	276.855	81.2467	276.855	81.9696	276.855	82.3349	276.855	82.792	276.855	83.212	276.855	83.4312	276.855	83.6985	276.855	83.7598
287.109	91.8832	287.109	91.5848	287.109	91.8388	287.109	90.9561	287.109	91.4497	287.109	90.0224	287.109	90.7259	287.109	88.8261	287.109	89.6925	287.109	87.4321	287.109	88.3951	287.109	85.9318	287.109	86.9016	287.109	84.438	287.109	85.3005	287.109	83.0631	287.109	83.6913	287.109	81.8825	287.109	82.1719	287.109	80.921	287.109	80.84	287.109	80.2102	287.109	79.8266	287.109	79.8939	287.109	79.3453	287.109	80.1954	287.109	79.6151	287.109	81.1062	287.109	80.5788	287.109	82.2653	287.109	81.8421	287.109	83.2781	287.109	82.9892	287.109	83.918	287.109	83.7736	287.109	84.0915
297.363	91.8526	297.363	91.6141	297.363	91.7242	297.363	91.0194	297.363	91.232	297.363	90.0907	297.363	90.3956	297.363	88.8615	297.363	89.2535	297.363	87.3796	297.363	87.8621	297.363	85.714	297.363	86.2917	297.363	83.9658	297.363	84.6208	297.363	82.2839	297.363	82.9346	297.363	80.8727	297.363	81.3387	297.363	79.9427	297.363	80.0022	297.363	79.5944	297.363	79.1951	297.363	79.8013	297.363	79.1882	297.363	80.5139	297.363	79.9862	297.363	81.623	297.363	81.2699	297.363	82.8695	297.363	82.6425	297.363	83.9495	297.363	83.8057	297.363	84.651	297.363	84.5789	297.363	84.8701
307.617	92.2372	307.617	91.9148	307.617	92.1947	307.617	91.2479	307.617	91.7829	307.617	90.2719	307.617	91.0128	307.617	89.0367	307.617	89.9113	307.617	87.6025	307.617	88.5213	307.617	86.0309	307.617	86.8996	307.617	84.3727	307.617	85.1086	307.617	82.6601	307.617	83.2013	307.617	80.9121	307.617	81.2155	307.617	79.1641	307.617	79.2286	307.617	77.5605	307.617	77.558	307.617	76.5751	307.617	76.9367	307.617	76.9479	307.617	77.7647	307.617	78.5747	307.617	79.3708	307.617	80.4852	307.617	80.9967	307.617	82.0313	307.617	82.2884	307.617	82.9989	307.617	83.0978	307.617	83.3489
319.336	91.4625	319.336	91.0176	319.336	91.5226	319.336	90.2011	319.336	91.1974	319.336	89.0404	319.336	90.4998	319.336	87.5777	319.336	89.4565	319.336	85.8746	319.336	88.1096	319.336	84.0198	319.336	86.5172	319.336	82.1392	319.336	84.751	319.336	80.4005	319.336	82.8946	319.336	78.9928	319.336	81.0574	319.336	78.0668	319.336	79.4237	319.336	77.6841	319.336	78.3243	319.336	77.8646	319.336	78.1681	319.336	78.6469	319.336	79.0494	319.336	79.956	319.336	80.5452	319.336	81.4837	319.336	82.1029	319.336	82.8583	319.336	83.3482	319.336	83.8241	319.336	84.09	319.336	84.2513
329.59	92.1117	329.59	91.6329	329.59	92.1946	329.59	90.7741	329.59	91.8764	329.59	89.5603	329.59	91.1655	329.59	88.024	329.59	90.0858	329.59	86.2047	329.59	88.6789	329.59	84.1478	329.59	87.0005	329.59	81.898	329.59	85.1052	329.59	79.4889	329.59	83.0161	329.59	76.9556	329.59	80.6939	329.59	74.4668	329.59	78.068	329.59	72.7329	329.59	75.4245	329.59	73.0558	329.59	74.6287	329.59	75.3296	329.59	76.8438	329.59	78.1157	329.59	79.6754	329.59	80.5952	329.59	81.9225	329.59	82.5028	329.59	83.4383	329.59	83.76	329.59	84.2387	329.59	84.3422
341.309	91.1997	341.309	90.7983	341.309	91.2086	341.309	90.0128	341.309	90.8302	341.309	88.8661	341.309	90.0819	341.309	87.3969	341.309	88.993	341.309	85.6601	341.309	87.6064	341.309	83.7228	341.309	85.9802	341.309	81.6443	341.309	84.1834	341.309	79.4375	341.309	82.2788	341.309	77.0377	341.309	80.294	341.309	74.3755	341.309	78.1886	341.309	71.9068	341.309	75.8741	341.309	71.6194	341.309	73.6265	341.309	73.96	341.309	73.4202	341.309	76.7459	341.309	76.138	341.309	79.1101	341.309	79.1051	341.309	80.918	341.309	81.1987	341.309	82.1105	341.309	82.3403	341.309	82.6132
353.027	90.9585	353.027	90.666	353.027	90.8633	353.027	89.9921	353.027	90.387	353.027	88.9578	353.027	89.5478	353.027	87.6014	353.027	88.379	353.027	85.9822	353.027	86.9344	353.027	84.1841	353.027	85.2879	353.027	82.3117	353.027	83.519	353.027	80.4613	353.027	81.6798	353.027	78.6503	353.027	79.7589	353.027	76.7179	353.027	77.6605	353.027	74.2606	353.027	75.2258	353.027	70.8384	353.027	72.4833	353.027	68.9719	353.027	71.1367	353.027	72.9889	353.027	73.6891	353.027	77.0238	353.027	77.209	353.027	79.7075	353.027	79.8228	353.027	81.2623	353.027	81.339	353.027	81.804
366.211	90.7163	366.211	90.459	366.211	90.5795	366.211	89.8266	366.211	90.0357	366.211	88.8408	366.211	89.0871	366.211	87.5285	366.211	87.7624	366.211	85.9309	366.211	86.1298	366.211	84.1175	366.211	84.3083	366.211	82.1966	366.211	82.4672	366.211	80.3043	366.211	80.7897	366.211	78.5421	366.211	79.3771	366.211	76.8451	366.211	78.1403	366.211	74.8839	366.211	76.8124	366.211	72.2809	366.211	75.1228	366.211	70.1873	366.211	73.2136	366.211	72.2132	366.211	72.5358	366.211	75.5755	366.211	74.2888	366.211	77.8949	366.211	76.6815	366.211	79.0783	366.211	78.4228	366.211	79.2372
379.395	91.0951	379.395	90.7259	379.395	91.0525	379.395	89.9586	379.395	90.593	379.395	88.8216	379.395	89.7164	379.395	87.3633	379.395	88.4313	379.395	85.6555	379.395	86.7682	379.395	83.7887	379.395	84.793	379.395	81.8553	379.395	82.6092	379.395	79.9258	379.395	80.3429	379.395	78.0346	379.395	78.1571	379.395	76.1783	379.395	76.3534	379.395	74.3444	379.395	75.376	379.395	72.7385	379.395	75.3498	379.395	72.37	379.395	75.9518	379.395	74.1197	379.395	76.9977	379.395	76.7135	379.395	78.3838	379.395	78.8959	379.395	79.7412	379.395	80.2986	379.395	80.6513	379.395	80.8718
392.578	91.18	392.578	90.6768	392.578	91.2351	392.578	89.742	392.578	90.8302	392.578	88.3963	392.578	89.9659	392.578	86.6724	392.578	88.6669	392.578	84.627	392.578	86.9917	392.578	82.3493	392.578	85.0346	392.578	79.9625	392.578	82.9123	392.578	77.6143	392.578	80.7328	392.578	75.437	392.578	78.5363	392.578	73.4183	392.578	76.202	392.578	71.1806	392.578	73.3973	392.578	67.8465	392.578	70.3633	392.578	64.4731	392.578	71.3884	392.578	69.7392	392.578	75.6057	392.578	75.0969	392.578	78.8203	392.578	78.5206	392.578	80.7561	392.578	80.5825	392.578	81.6355	392.578	81.5791
405.762	90.5101	405.762	89.9987	405.762	90.5875	405.762	89.0667	405.762	90.2042	405.762	87.7268	405.762	89.3297	405.762	86.0141	405.762	87.9575	405.762	84.0076	405.762	86.1406	405.762	81.8396	405.762	84.0168	405.762	79.6785	405.762	81.7928	405.762	77.674	405.762	79.6529	405.762	75.8862	405.762	77.6447	405.762	74.2699	405.762	75.686	405.762	72.7061	405.762	73.784	405.762	71.1083	405.762	72.6125	405.762	70.2222	405.762	73.5815	405.762	72.0384	405.762	76.1936	405.762	75.4209	405.762	78.7465	405.762	78.3125	405.762	80.5233	405.762	80.2657	405.762	81.3698	405.762	81.2799
420.41	90.4231	420.41	89.9506	420.41	90.3636	420.41	88.9695	420.41	89.7652	420.41	87.5254	420.41	88.6495	420.41	85.7047	420.41	87.0919	420.41	83.6506	420.41	85.2425	420.41	81.5477	420.41	83.3088	420.41	79.5637	420.41	81.462	420.41	77.8063	420.41	79.7061	420.41	76.3071	420.41	77.8363	420.41	74.8969	420.41	75.5084	420.41	73.0355	420.41	72.2184	420.41	69.6981	420.41	66.8826	420.41	64.4776	420.41	65.0622	420.41	69.6448	420.41	72.9846	420.41	75.6386	420.41	77.9829	420.41	79.3011	420.41	80.9101	420.41	81.4861	420.41	82.3295	420.41	82.4856
435.059	90.3505	435.059	89.9969	435.059	90.1794	435.059	89.1728	435.059	89.4475	435.059	87.9331	435.059	88.1681	435.059	86.3348	435.059	86.4394	435.059	84.4494	435.059	84.4551	435.059	82.3773	435.059	82.4516	435.059	80.2513	435.059	80.5981	435.059	78.2195	435.059	78.9428	435.059	76.4394	435.059	77.4378	435.059	75.1299	435.059	75.9394	435.059	74.4717	435.059	74.1786	435.059	74.2064	435.059	71.7474	435.059	73.8333	435.059	68.1046	435.059	73.5515	435.059	65.5677	435.059	74.5467	435.059	70.7884	435.059	76.6816	435.059	75.4977	435.059	78.4374	435.059	78.1221	435.059	79.0175
451.172	91.1264	451.172	90.8465	451.172	90.8834	451.172	90.056	451.172	90.1354	451.172	88.7974	451.172	88.9278	451.172	87.1458	451.172	87.3206	451.172	85.2056	451.172	85.3704	451.172	83.0971	451.172	83.1379	451.172	80.9492	451.172	80.7472	451.172	78.9377	451.172	78.4632	451.172	77.2874	451.172	76.6633	451.172	75.912	451.172	75.515	451.172	74.153	451.172	74.6389	451.172	71.7345	451.172	73.4206	451.172	71.9128	451.172	72.1429	451.172	75.8113	451.172	73.5324	451.172	79.2359	451.172	77.1355	451.172	81.4843	451.172	80.1552	451.172	82.6775	451.172	82.0515	451.172	82.8724
465.82	90.8761	465.82	90.3324	465.82	90.871	465.82	89.2599	465.82	90.3288	465.82	87.7299	465.82	89.2879	465.82	85.8885	465.82	87.8191	465.82	83.9497	465.82	86.0304	465.82	82.108	465.82	84.0492	465.82	80.3956	465.82	81.9705	465.82	78.6479	465.82	79.8299	465.82	76.6772	465.82	77.731	465.82	74.4634	465.82	76.0883	465.82	71.9761	465.82	75.2736	465.82	68.7247	465.82	74.6401	465.82	66.0598	465.82	73.0551	465.82	70.6505	465.82	71.0031	465.82	75.6609	465.82	73.4574	465.82	78.8538	465.82	77.4845	465.82	80.5454	465.82	79.9508	465.82	80.9123
483.398	90.9184	483.398	90.3213	483.398	90.9306	483.398	89.1882	483.398	90.3554	483.398	87.6139	483.398	89.2414	483.398	85.73	483.398	87.6865	483.398	83.6747	483.398	85.8174	483.398	81.5544	483.398	83.7545	483.398	79.4458	483.398	81.5967	483.398	77.4568	483.398	79.4556	483.398	75.81	483.398	77.4348	483.398	74.7626	483.398	75.4209	483.398	74.1016	483.398	73.051	483.398	72.8181	483.398	70.4255	483.398	69.2344	483.398	69.7749	483.398	65.7204	483.398	72.6249	483.398	73.7212	483.398	76.436	483.398	78.7028	483.398	79.5982	483.398	81.257	483.398	81.548	483.398	82.1269
499.512	90.7278	499.512	90.3568	499.512	90.5363	499.512	89.4239	499.512	89.8197	499.512	87.9752	499.512	88.6432	499.512	86.108	499.512	87.0866	499.512	83.9665	499.512	85.2391	499.512	81.7239	499.512	83.2097	499.512	79.5631	499.512	81.1204	499.512	77.6598	499.512	79.0757	499.512	76.1479	499.512	77.1933	499.512	75.0459	499.512	75.721	499.512	74.2234	499.512	74.9421	499.512	73.4774	499.512	74.6693	499.512	72.6818	499.512	74.2175	499.512	72.2048	499.512	73.2552	499.512	73.3258	499.512	73.2549	499.512	75.9	499.512	75.6508	499.512	78.0472	499.512	77.9768	499.512	78.8208
517.09	91.5133	517.09	90.9887	517.09	91.4945	517.09	89.9789	517.09	90.9306	517.09	88.5907	517.09	89.8812	517.09	86.9457	517.09	88.4643	517.09	85.1318	517.09	86.8191	517.09	83.1921	517.09	85.0202	517.09	81.145	517.09	83.0194	517.09	78.9803	517.09	80.7026	517.09	76.7091	517.09	78.0985	517.09	74.527	517.09	75.8761	517.09	72.6048	517.09	75.1904	517.09	70.4158	517.09	75.4164	517.09	67.9171	517.09	75.4417	517.09	70.8426	517.09	76.2857	517.09	76.3611	517.09	78.8058	517.09	80.2165	517.09	81.3371	517.09	82.4629	517.09	82.9099	517.09	83.3187
536.133	90.8527	536.133	90.2314	536.133	90.9639	536.133	89.1492	536.133	90.5887	536.133	87.7181	536.133	89.8085	536.133	86.0768	536.133	88.7048	536.133	84.3365	536.133	87.2854	536.133	82.5459	536.133	85.4806	536.133	80.6909	536.133	83.2393	536.133	78.727	536.133	80.7115	536.133	76.6773	536.133	78.3766	536.133	74.8397	536.133	76.521	536.133	73.786	536.133	74.7312	536.133	73.5622	536.133	73.3666	536.133	73.5228	536.133	74.1273	536.133	73.3547	536.133	75.9233	536.133	74.186	536.133	77.809	536.133	77.0484	536.133	79.9547	536.133	79.9504	536.133	81.4462	536.133	81.5043
555.176	91.5555	555.176	91.0194	555.176	91.5084	555.176	89.97	555.176	90.8744	555.176	88.4996	555.176	89.7308	555.176	86.6939	555.176	88.2015	555.176	84.6482	555.176	86.4026	555.176	82.4902	555.176	84.4242	555.176	80.3278	555.176	82.3226	555.176	78.2131	555.176	80.0583	555.176	76.3712	555.176	77.4579	555.176	75.3284	555.176	74.4608	555.176	75.1734	555.176	72.0913	555.176	75.0612	555.176	71.8153	555.176	73.9851	555.176	72.4178	555.176	72.353	555.176	74.1106	555.176	74.746	555.176	77.0923	555.176	79.0304	555.176	79.8369	555.176	81.6473	555.176	81.7263	555.176	82.4487
574.219	91.9574	574.219	91.5476	574.219	91.7382	574.219	90.5012	574.219	90.9602	574.219	88.8809	574.219	89.6777	574.219	86.7849	574.219	87.9015	574.219	84.3355	574.219	85.7058	574.219	81.6837	574.219	83.2801	574.219	79.0045	574.219	80.8242	574.219	76.5753	574.219	78.5125	574.219	75.158	574.219	76.5686	574.219	75.5313	574.219	75.2639	574.219	76.492	574.219	74.5882	574.219	76.4787	574.219	73.8639	574.219	75.1391	574.219	71.9974	574.219	73.8922	574.219	68.7957	574.219	75.5764	574.219	73.263	574.219	78.628	574.219	78.8593	574.219	81.0135	574.219	81.599	574.219	82.1443
594.727	91.4863	594.727	90.9712	594.727	91.553	594.727	90.0527	594.727	91.1511	594.727	88.7912	594.727	90.3227	594.727	87.251	594.727	89.1389	594.727	85.4296	594.727	87.548	594.727	83.2012	594.727	85.3521	594.727	80.4029	594.727	82.3856	594.727	76.9716	594.727	78.6167	594.727	72.9333	594.727	74.3574	594.727	69.6492	594.727	72.088	594.727	71.2481	594.727	73.9212	594.727	73.8796	594.727	76.4476	594.727	74.7733	594.727	78.2022	594.727	74.3453	594.727	78.4564	594.727	75.362	594.727	76.4524	594.727	78.1025	594.727	73.4552	594.727	79.7227	594.727	76.2906	594.727	79.2399
615.234	91.6273	615.234	90.9411	615.234	91.8048	615.234	89.8362	615.234	91.4601	615.234	88.4264	615.234	90.6441	615.234	86.7471	615.234	89.3976	615.234	84.7237	615.234	87.7119	615.234	82.3003	615.234	85.6183	615.234	79.618	615.234	83.2565	615.234	77.0366	615.234	80.688	615.234	74.7595	615.234	77.5857	615.234	72.1431	615.234	73.1436	615.234	69.4533	615.234	65.4936	615.234	71.2017	615.234	67.4143	615.234	73.917	615.234	74.6033	615.234	74.2938	615.234	78.5098	615.234	72.3393	615.234	80.7732	615.234	75.3081	615.234	82.2376	615.234	80.2942	615.234	83.0959	615.234	82.7178
637.207	91.4217	637.207	90.9768	637.207	91.3433	637.207	90.1206	637.207	90.6413	637.207	88.8928	637.207	89.3492	637.207	87.2563	637.207	87.6826	637.207	85.2138	637.207	85.8789	637.207	82.9647	637.207	84.0125	637.207	80.8422	637.207	82.0404	637.207	78.8989	637.207	79.9256	637.207	76.8351	637.207	77.7831	637.207	74.9184	637.207	75.7334	637.207	74.105	637.207	73.5114	637.207	74.1911	637.207	71.3115	637.207	74.7655	637.207	69.6394	637.207	76.1392	637.207	68.9114	637.207	78.229	637.207	74.5543	637.207	80.4737	637.207	79.1562	637.207	82.0698	637.207	81.5998	637.207	82.5075
659.18	90.6068	659.18	90.3902	659.18	90.3961	659.18	89.7141	659.18	89.8651	659.18	88.5831	659.18	89.1062	659.18	87.0424	659.18	87.9948	659.18	85.2234	659.18	86.3525	659.18	83.2999	659.18	84.2762	659.18	81.2614	659.18	82.0052	659.18	78.8883	659.18	79.6212	659.18	76.1148	659.18	77.2182	659.18	72.9547	659.18	75.116	659.18	70.4388	659.18	74.4108	659.18	71.3023	659.18	75.3365	659.18	73.1185	659.18	76.0394	659.18	73.8348	659.18	75.593	659.18	74.83	659.18	71.8674	659.18	77.8952	659.18	68.2661	659.18	80.4863	659.18	77.6151	659.18	80.7542
682.617	90.485	682.617	89.937	682.617	90.6498	682.617	89.0856	682.617	90.4855	682.617	88.072	682.617	89.9918	682.617	86.9432	682.617	89.0433	682.617	85.6039	682.617	87.6761	682.617	83.9029	682.617	86.0549	682.617	81.6847	682.617	84.0899	682.617	78.6342	682.617	81.4986	682.617	74.612	682.617	78.1895	682.617	71.7741	682.617	74.1916	682.617	71.9786	682.617	70.7989	682.617	73.6706	682.617	74.7452	682.617	76.7199	682.617	78.543	682.617	77.8435	682.617	79.3256	682.617	75.4091	682.617	78.8101	682.617	75.7141	682.617	80.1606	682.617	80.1385	682.617	81.8193	682.617	82.0128
707.52	90.2909	707.52	90.2238	707.52	90.2146	707.52	89.8737	707.52	89.9249	707.52	89.1274	707.52	89.1243	707.52	87.896	707.52	87.6841	707.52	86.076	707.52	85.8124	707.52	83.6554	707.52	83.8349	707.52	80.8632	707.52	82.0223	707.52	78.2324	707.52	80.4908	707.52	75.7864	707.52	79.0556	707.52	71.638	707.52	76.992	707.52	71.0328	707.52	72.5046	707.52	75.3445	707.52	63.2822	707.52	75.7733	707.52	72.1345	707.52	75.8834	707.52	77.1925	707.52	76.8712	707.52	78.8074	707.52	77.2921	707.52	77.8219	707.52	78.289	707.52	77.3861	707.52	78.5874
732.422	89.4356	732.422	89.2398	732.422	89.5723	732.422	89.1223	732.422	89.4258	732.422	88.7324	732.422	89.0856	732.422	87.5704	732.422	88.5777	732.422	85.608	732.422	87.5786	732.422	83.4528	732.422	85.9072	732.422	81.7725	732.422	83.7288	732.422	80.6999	732.422	81.4021	732.422	79.2395	732.422	79.2659	732.422	75.5915	732.422	77.3328	732.422	68.2836	732.422	75.7165	732.422	66.6665	732.422	74.9698	732.422	73.6752	732.422	74.3731	732.422	77.4011	732.422	74.8146	732.422	78.4327	732.422	76.0183	732.422	78.7178	732.422	75.6894	732.422	80.63	732.422	78.927	732.422	81.3679
757.324	89.8136	757.324	89.7957	757.324	89.842	757.324	89.5192	757.324	89.9455	757.324	88.6662	757.324	89.8025	757.324	87.2265	757.324	88.8909	757.324	85.7461	757.324	87.2186	757.324	84.7855	757.324	85.4995	757.324	83.9698	757.324	84.186	757.324	82.4292	757.324	82.512	757.324	79.9573	757.324	79.4658	757.324	77.5372	757.324	75.703	757.324	76.2853	757.324	73.0577	757.324	75.9464	757.324	72.9017	757.324	75.1597	757.324	78.9697	757.324	74.0958	757.324	80.6345	757.324	74.0213	757.324	79.534	757.324	76.2283	757.324	80.7314	757.324	79.722	757.324	81.9502	757.324	81.6175
785.156	89.5505	785.156	89.7965	785.156	89.2195	785.156	89.3982	785.156	89.2971	785.156	88.3436	785.156	89.5272	785.156	87.19	785.156	89.4074	785.156	86.5632	785.156	88.5981	785.156	86.0018	785.156	86.8212	785.156	84.5638	785.156	84.0821	785.156	82.0855	785.156	80.6877	785.156	79.1987	785.156	77.9126	785.156	77.1547	785.156	78.276	785.156	75.0734	785.156	78.1023	785.156	71.1166	785.156	74.4434	785.156	74.4702	785.156	58.4613	785.156	76.5806	785.156	73.464	785.156	77.4325	785.156	77.3132	785.156	78.8498	785.156	75.5689	785.156	79.5362	785.156	76.8088	785.156	79.1848
811.523	88.8277	811.523	89.3341	811.523	88.3523	811.523	89.009	811.523	88.5373	811.523	88.2976	811.523	88.7922	811.523	88.1724	811.523	88.8609	811.523	88.1317	811.523	88.5912	811.523	87.1029	811.523	87.5184	811.523	84.9164	811.523	85.4529	811.523	82.2128	811.523	82.8352	811.523	79.3214	811.523	80.2987	811.523	77.2134	811.523	77.3081	811.523	76.3056	811.523	74.0031	811.523	73.8744	811.523	74.8265	811.523	74.6762	811.523	76.9056	811.523	77.2155	811.523	76.5533	811.523	77.2055	811.523	75.685	811.523	78.548	811.523	74.0758	811.523	80.985	811.523	74.0314	811.523	79.7528
840.82	88.2078	840.82	87.8465	840.82	88.9816	840.82	88.478	840.82	89.5588	840.82	89.3385	840.82	89.2914	840.82	89.3226	840.82	88.1047	840.82	88.3352	840.82	87.1273	840.82	86.9763	840.82	86.9494	840.82	85.4753	840.82	86.4143	840.82	83.7769	840.82	84.5997	840.82	82.3878	840.82	81.6486	840.82	81.0402	840.82	78.1952	840.82	78.6747	840.82	73.6588	840.82	74.128	840.82	66.5121	840.82	71.0085	840.82	70.6914	840.82	78.319	840.82	78.6053	840.82	78.3339	840.82	80.5678	840.82	75.4575	840.82	79.6276	840.82	81.3474	840.82	81.8317	840.82	83.3231
870.117	86.5622	870.117	87.5458	870.117	87.2347	870.117	88.7414	870.117	88.8869	870.117	89.1152	870.117	89.9461	870.117	88.9933	870.117	89.6289	870.117	88.1362	870.117	88.3133	870.117	86.416	870.117	86.6733	870.117	85.0884	870.117	85.1812	870.117	84.114	870.117	83.5257	870.117	82.1978	870.117	81.4109	870.117	80.835	870.117	81.3826	870.117	80.0596	870.117	82.4972	870.117	78.1664	870.117	80.088	870.117	76.129	870.117	75.3673	870.117	77.7666	870.117	73.3546	870.117	79.1304	870.117	77.8631	870.117	76.7328	870.117	78.8496	870.117	79.8293	870.117	83.0876	870.117	84.0189
900.879	83.5764	900.879	86.6716	900.879	84.8147	900.879	89.0136	900.879	88.6735	900.879	89.5623	900.879	90.8372	900.879	89.1005	900.879	91.1388	900.879	88.5934	900.879	90.2044	900.879	88.1709	900.879	87.7272	900.879	86.6452	900.879	84.2238	900.879	83.4674	900.879	81.1167	900.879	80.1263	900.879	79.3296	900.879	77.478	900.879	78.0148	900.879	77.3234	900.879	77.2368	900.879	78.4692	900.879	79.1928	900.879	76.4027	900.879	79.674	900.879	72.9305	900.879	82.3456	900.879	78.0437	900.879	82.498	900.879	78.8169	900.879	79.8972	900.879	81.1872	900.879	77.5259	900.879	82.5885
933.105	84.2252	933.105	85.4431	933.105	86.3641	933.105	87.8648	933.105	88.9257	933.105	89.5547	933.105	90.0697	933.105	90.3874	933.105	90.179	933.105	90.1487	933.105	89.3149	933.105	88.6617	933.105	87.5606	933.105	86.1769	933.105	85.7281	933.105	83.8054	933.105	83.5277	933.105	82.7798	933.105	80.9007	933.105	82.086	933.105	79.8113	933.105	78.8683	933.105	79.2523	933.105	69.0643	933.105	77.7465	933.105	75.2851	933.105	73.2762	933.105	78.1693	933.105	76.4102	933.105	77.6289	933.105	81.5014	933.105	76.4282	933.105	79.317	933.105	80.5853	933.105	76.4777	933.105	80.9426
965.332	80.1908	965.332	84.1402	965.332	83.8617	965.332	88.2649	965.332	88.4855	965.332	89.3288	965.332	90.916	965.332	89.3371	965.332	91.6809	965.332	89.2428	965.332	91.3517	965.332	88.549	965.332	89.0493	965.332	86.9028	965.332	85.25	965.332	85.0908	965.332	82.6588	965.332	83.299	965.332	81.7922	965.332	80.277	965.332	79.775	965.332	77.9227	965.332	80.2494	965.332	77.0848	965.332	80.8827	965.332	78.5688	965.332	80.595	965.332	78.1371	965.332	80.7075	965.332	78.8571	965.332	79.9643	965.332	78.9066	965.332	80.064	965.332	80.5928	965.332	77.7703	965.332	83.0713
1,000.49	84.1713	1,000.49	81.1394	1,000.49	85.837	1,000.49	85.8364	1,000.49	86.1686	1,000.49	89.9543	1,000.49	88.5474	1,000.49	91.2478	1,000.49	90.6569	1,000.49	90.4648	1,000.49	90.463	1,000.49	88.5451	1,000.49	88.5746	1,000.49	85.9221	1,000.49	86.2461	1,000.49	82.8706	1,000.49	83.605	1,000.49	79.6611	1,000.49	80.2624	1,000.49	75.1555	1,000.49	77.9342	1,000.49	73.4111	1,000.49	77.5243	1,000.49	70.8561	1,000.49	74.4912	1,000.49	74.3594	1,000.49	65.6611	1,000.49	81.3487	1,000.49	80.6809	1,000.49	79.4737	1,000.49	81.9613	1,000.49	78.2273	1,000.49	79.3865	1,000.49	80.8429	1,000.49	70.8406	1,000.49	79.3429
1,035.64	84.2205	1,035.64	83.8045	1,035.64	86.1923	1,035.64	87.7502	1,035.64	87.894	1,035.64	90.9195	1,035.64	88.4921	1,035.64	91.338	1,035.64	89.7232	1,035.64	89.6954	1,035.64	90.5832	1,035.64	87.8487	1,035.64	90.4698	1,035.64	87.3057	1,035.64	89.8754	1,035.64	86.3362	1,035.64	87.9666	1,035.64	84.1608	1,035.64	84.7112	1,035.64	84.1946	1,035.64	80.0839	1,035.64	81.965	1,035.64	75.1933	1,035.64	78.5763	1,035.64	78.3188	1,035.64	72.574	1,035.64	79.2727	1,035.64	80.8614	1,035.64	65.4617	1,035.64	83.8876	1,035.64	77.7179	1,035.64	74.8382	1,035.64	77.7208	1,035.64	78.386	1,035.64	74.4942	1,035.64	80.5385
1,072.27	87.9088	1,072.27	85.6682	1,072.27	86.4592	1,072.27	86.6158	1,072.27	86.8525	1,072.27	89.4728	1,072.27	88.6968	1,072.27	90.2868	1,072.27	89.1645	1,072.27	90.5496	1,072.27	88.7811	1,072.27	90.5879	1,072.27	87.8989	1,072.27	89.5666	1,072.27	85.7969	1,072.27	87.7177	1,072.27	85.1491	1,072.27	85.0333	1,072.27	84.6711	1,072.27	82.1306	1,072.27	81.7469	1,072.27	77.6735	1,072.27	78.46	1,072.27	74.0649	1,072.27	75.3155	1,072.27	73.1608	1,072.27	73.1243	1,072.27	74.1853	1,072.27	66.8171	1,072.27	83.2258	1,072.27	80.1369	1,072.27	80.5544	1,072.27	83.1149	1,072.27	77.3822	1,072.27	72.093	1,072.27	81.7794
1,108.89	89.1733	1,108.89	86.0018	1,108.89	87.1004	1,108.89	84.0417	1,108.89	82.989	1,108.89	88.151	1,108.89	87.3689	1,108.89	89.835	1,108.89	90.7579	1,108.89	89.8556	1,108.89	91.1865	1,108.89	90.0529	1,108.89	88.7547	1,108.89	88.5468	1,108.89	84.8153	1,108.89	85.95	1,108.89	82.27	1,108.89	85.2271	1,108.89	81.2421	1,108.89	82.8794	1,108.89	80.357	1,108.89	81.7617	1,108.89	80.8474	1,108.89	76.5945	1,108.89	81.7951	1,108.89	72.6047	1,108.89	83.8831	1,108.89	75.3691	1,108.89	77.9063	1,108.89	78.9796	1,108.89	80.9515	1,108.89	80.4305	1,108.89	78.3621	1,108.89	74.0784	1,108.89	72.1679	1,108.89	73.9004
1,148.44	88.1506	1,148.44	86.3425	1,148.44	87.6119	1,148.44	83.3467	1,148.44	84.8834	1,148.44	87.3881	1,148.44	83.2786	1,148.44	89.4597	1,148.44	86.9903	1,148.44	89.8336	1,148.44	89.0492	1,148.44	89.9457	1,148.44	88.9585	1,148.44	88.1881	1,148.44	87.6494	1,148.44	85.808	1,148.44	84.3557	1,148.44	82.7944	1,148.44	80.1137	1,148.44	77.8961	1,148.44	77.3577	1,148.44	78.4727	1,148.44	76.2503	1,148.44	81.4314	1,148.44	60.7778	1,148.44	75.5633	1,148.44	73.2277	1,148.44	76.7723	1,148.44	73.8522	1,148.44	83.4798	1,148.44	79.9223	1,148.44	79.7089	1,148.44	80.7327	1,148.44	75.83	1,148.44	67.8431	1,148.44	76.1807
1,189.45	88.9123	1,189.45	86.5026	1,189.45	87.0111	1,189.45	82.2395	1,189.45	83.429	1,189.45	85.8448	1,189.45	84.0094	1,189.45	89.003	1,189.45	87.0452	1,189.45	90.4758	1,189.45	88.7864	1,189.45	89.9512	1,189.45	89.2411	1,189.45	87.8104	1,189.45	86.7739	1,189.45	85.4246	1,189.45	82.9969	1,189.45	83.5751	1,189.45	81.3464	1,189.45	81.6767	1,189.45	79.3694	1,189.45	75.9086	1,189.45	71.9777	1,189.45	79.1279	1,189.45	80.0176	1,189.45	80.2866	1,189.45	81.4284	1,189.45	74.5936	1,189.45	76.177	1,189.45	75.9162	1,189.45	71.4255	1,189.45	79.0838	1,189.45	77.357	1,189.45	71.4191	1,189.45	74.0074	1,189.45	74.2195
1,230.47	89.3024	1,230.47	87.7693	1,230.47	88.4749	1,230.47	84.2532	1,230.47	86.3052	1,230.47	83.7855	1,230.47	84.0604	1,230.47	87.9454	1,230.47	84.6246	1,230.47	90.3984	1,230.47	87.8094	1,230.47	90.2713	1,230.47	88.3399	1,230.47	88.205	1,230.47	86.0507	1,230.47	86.4382	1,230.47	83.0346	1,230.47	84.9423	1,230.47	79.9581	1,230.47	80.7716	1,230.47	76.8854	1,230.47	71.1572	1,230.47	75.726	1,230.47	75.8267	1,230.47	68.439	1,230.47	77.8125	1,230.47	63.3535	1,230.47	69.9975	1,230.47	72.5395	1,230.47	79.5867	1,230.47	68.9817	1,230.47	78.4491	1,230.47	77.8568	1,230.47	66.6165	1,230.47	68.5986	1,230.47	72.5337
1,274.41	89.9581	1,274.41	88.4159	1,274.41	88.1344	1,274.41	83.6241	1,274.41	85.9321	1,274.41	83.5147	1,274.41	84.5536	1,274.41	88.1447	1,274.41	84.9571	1,274.41	90.0276	1,274.41	86.3778	1,274.41	89.8027	1,274.41	87.9391	1,274.41	88.5514	1,274.41	86.544	1,274.41	85.0235	1,274.41	82.5578	1,274.41	82.472	1,274.41	79.5002	1,274.41	81.9042	1,274.41	73.4056	1,274.41	79.2215	1,274.41	63.8551	1,274.41	65.9276	1,274.41	70.5923	1,274.41	78.5813	1,274.41	78.009	1,274.41	74.3928	1,274.41	75.8286	1,274.41	75.6013	1,274.41	67.6681	1,274.41	78.2215	1,274.41	76.3819	1,274.41	67.7771	1,274.41	73.4371	1,274.41	70.6278
1,319.82	89.1092	1,319.82	88.8654	1,319.82	88.1968	1,319.82	86.2348	1,319.82	86.911	1,319.82	84.3896	1,319.82	84.9989	1,319.82	87.9265	1,319.82	84.0739	1,319.82	90.0035	1,319.82	86.2357	1,319.82	88.7688	1,319.82	85.4043	1,319.82	86.4701	1,319.82	82.6255	1,319.82	83.9055	1,319.82	80.3458	1,319.82	81.6587	1,319.82	74.3307	1,319.82	81.0312	1,319.82	75.0538	1,319.82	76.874	1,319.82	73.8827	1,319.82	75.8971	1,319.82	75.9745	1,319.82	74.7233	1,319.82	71.2947	1,319.82	77.8151	1,319.82	64.3583	1,319.82	67.9847	1,319.82	68.2213	1,319.82	76.3744	1,319.82	74.6677	1,319.82	65.9875	1,319.82	67.8116	1,319.82	69.4579
1,366.7	88.3458	1,366.7	89.1993	1,366.7	89.0432	1,366.7	89.0391	1,366.7	87.7226	1,366.7	86.0253	1,366.7	85.0896	1,366.7	87.3351	1,366.7	84.6267	1,366.7	89.3207	1,366.7	83.9851	1,366.7	88.6152	1,366.7	82.7934	1,366.7	87.2987	1,366.7	82.0715	1,366.7	85.9451	1,366.7	78.6762	1,366.7	83.3185	1,366.7	77.5738	1,366.7	78.0561	1,366.7	73.7348	1,366.7	77.4649	1,366.7	71.6411	1,366.7	70.3682	1,366.7	73.9954	1,366.7	65.7366	1,366.7	76.3972	1,366.7	77.1539	1,366.7	76.4695	1,366.7	70.7162	1,366.7	57.7785	1,366.7	79.2162	1,366.7	73.2988	1,366.7	57.3754	1,366.7	70.2147	1,366.7	65.031
1,413.57	88.8679	1,413.57	89.7315	1,413.57	88.9092	1,413.57	88.1263	1,413.57	88.1794	1,413.57	85.4451	1,413.57	86.1298	1,413.57	86.8471	1,413.57	84.3243	1,413.57	86.2101	1,413.57	83.6481	1,413.57	87.3918	1,413.57	80.8661	1,413.57	86.3372	1,413.57	80.1687	1,413.57	80.9513	1,413.57	80.3391	1,413.57	79.379	1,413.57	76.8088	1,413.57	77.1145	1,413.57	75.5722	1,413.57	77.8758	1,413.57	73.1899	1,413.57	75.7214	1,413.57	73.0995	1,413.57	58.2805	1,413.57	73.0609	1,413.57	71.765	1,413.57	71.3153	1,413.57	69.9452	1,413.57	62.9944	1,413.57	77.4579	1,413.57	76.691	1,413.57	68.2945	1,413.57	77.268	1,413.57	72.2379
1,463.38	88.0278	1,463.38	88.6462	1,463.38	88.4936	1,463.38	89.1936	1,463.38	88.439	1,463.38	87.9407	1,463.38	85.9909	1,463.38	86.8501	1,463.38	82.714	1,463.38	87.2215	1,463.38	78.8022	1,463.38	87.5225	1,463.38	78.8359	1,463.38	83.2546	1,463.38	82.626	1,463.38	82.3778	1,463.38	79.5372	1,463.38	79.4091	1,463.38	72.6848	1,463.38	71.3784	1,463.38	72.5917	1,463.38	68.6955	1,463.38	77.8962	1,463.38	76.3609	1,463.38	75.4529	1,463.38	67.325	1,463.38	75.6488	1,463.38	71.0494	1,463.38	75.7155	1,463.38	75.5507	1,463.38	75.3307	1,463.38	77.2196	1,463.38	72.0509	1,463.38	71.9943	1,463.38	70.9561	1,463.38	65.5104
1,516.11	87.7063	1,516.11	88.5611	1,516.11	88.0105	1,516.11	88.0374	1,516.11	88.248	1,516.11	87.5602	1,516.11	85.7051	1,516.11	85.4398	1,516.11	82.3675	1,516.11	86.0226	1,516.11	80.6659	1,516.11	85.3854	1,516.11	81.2313	1,516.11	83.8161	1,516.11	78.7816	1,516.11	81.9627	1,516.11	79.4152	1,516.11	78.003	1,516.11	73.8973	1,516.11	79.1674	1,516.11	72.4072	1,516.11	73.2883	1,516.11	64.9341	1,516.11	71.7679	1,516.11	70.7036	1,516.11	72.9912	1,516.11	69.1237	1,516.11	67.7828	1,516.11	72.8367	1,516.11	72.263	1,516.11	72.7755	1,516.11	74.3941	1,516.11	71.0326	1,516.11	60.4071	1,516.11	70.8471	1,516.11	69.9936
1,568.85	87.7704	1,568.85	87.3261	1,568.85	87.1594	1,568.85	87.7244	1,568.85	86.6662	1,568.85	86.1944	1,568.85	85.1111	1,568.85	83.8933	1,568.85	81.341	1,568.85	85.3432	1,568.85	80.5571	1,568.85	85.4588	1,568.85	82.2137	1,568.85	82.5308	1,568.85	77.3512	1,568.85	79.7105	1,568.85	78.4418	1,568.85	78.0344	1,568.85	76.6626	1,568.85	72.0493	1,568.85	68.0656	1,568.85	69.1955	1,568.85	64.8895	1,568.85	76.8308	1,568.85	73.2377	1,568.85	67.5194	1,568.85	75.2207	1,568.85	72.536	1,568.85	68.4993	1,568.85	75.2273	1,568.85	72.0561	1,568.85	70.3933	1,568.85	73.0339	1,568.85	68.0474	1,568.85	71.5703	1,568.85	48.5263
1,624.51	87.578	1,624.51	88.0795	1,624.51	87.2723	1,624.51	87.3396	1,624.51	85.4878	1,624.51	85.5728	1,624.51	83.5806	1,624.51	84.7458	1,624.51	81.257	1,624.51	85.0085	1,624.51	80.0354	1,624.51	84.5208	1,624.51	80.3945	1,624.51	83.5278	1,624.51	81.0621	1,624.51	82.6988	1,624.51	73.5045	1,624.51	78.0052	1,624.51	74.0312	1,624.51	78.614	1,624.51	72.4623	1,624.51	73.5683	1,624.51	41.7902	1,624.51	69.1004	1,624.51	67.6202	1,624.51	73.595	1,624.51	68.0334	1,624.51	68.1097	1,624.51	67.5868	1,624.51	65.5057	1,624.51	61.1467	1,624.51	69.5685	1,624.51	71.8246	1,624.51	68.0682	1,624.51	67.0293	1,624.51	63.1143
1,681.64	88.2445	1,681.64	88.0761	1,681.64	87.7047	1,681.64	86.802	1,681.64	86.6095	1,681.64	85.0023	1,681.64	81.8609	1,681.64	84.6672	1,681.64	80.7819	1,681.64	85.1809	1,681.64	80.99	1,681.64	85.4965	1,681.64	81.1032	1,681.64	83.0233	1,681.64	76.2689	1,681.64	79.4498	1,681.64	77.0119	1,681.64	79.3734	1,681.64	72.2002	1,681.64	73.3649	1,681.64	68.4626	1,681.64	72.9753	1,681.64	70.1211	1,681.64	68.1421	1,681.64	68.9921	1,681.64	66.4799	1,681.64	65.8645	1,681.64	67.9635	1,681.64	65.0724	1,681.64	68.7217	1,681.64	70.056	1,681.64	71.6719	1,681.64	63.1579	1,681.64	71.8467	1,681.64	71.0495	1,681.64	60.7056
1,741.7	88.3646	1,741.7	88.5483	1,741.7	88.0412	1,741.7	87.1009	1,741.7	86.3304	1,741.7	84.6689	1,741.7	83.7625	1,741.7	84.1796	1,741.7	78.8834	1,741.7	84.4802	1,741.7	79.4895	1,741.7	84.1203	1,741.7	77.5152	1,741.7	83.5269	1,741.7	78.2228	1,741.7	81.9057	1,741.7	62.7406	1,741.7	75.1948	1,741.7	67.9929	1,741.7	76.4742	1,741.7	66.7984	1,741.7	71.4957	1,741.7	65.0686	1,741.7	66.3769	1,741.7	63.0618	1,741.7	67.0382	1,741.7	67.0766	1,741.7	67.0982	1,741.7	63.5769	1,741.7	73.05	1,741.7	73.2671	1,741.7	64.696	1,741.7	70.6943	1,741.7	71.1379	1,741.7	67.651	1,741.7	58.7477
1,803.22	88.6895	1,803.22	88.4113	1,803.22	88.1037	1,803.22	87.2872	1,803.22	86.4088	1,803.22	85.5086	1,803.22	82.294	1,803.22	84.1045	1,803.22	80.6526	1,803.22	84.9561	1,803.22	76.6459	1,803.22	84.0953	1,803.22	77.8959	1,803.22	81.6229	1,803.22	73.8831	1,803.22	78.538	1,803.22	73.839	1,803.22	76.8275	1,803.22	61.5724	1,803.22	74.6232	1,803.22	60.0277	1,803.22	72.5472	1,803.22	63.9793	1,803.22	71.5085	1,803.22	59.8105	1,803.22	67.7323	1,803.22	67.9675	1,803.22	62.1282	1,803.22	67.0347	1,803.22	62.7948	1,803.22	61.4486	1,803.22	67.8501	1,803.22	67.2493	1,803.22	64.6256	1,803.22	55.1829	1,803.22	66.597
1,866.21	87.8966	1,866.21	87.9688	1,866.21	87.2875	1,866.21	87.6968	1,866.21	85.8721	1,866.21	85.6054	1,866.21	83.2119	1,866.21	84.2629	1,866.21	79.7534	1,866.21	84.0641	1,866.21	79.1797	1,866.21	83.2252	1,866.21	74.3996	1,866.21	82.0037	1,866.21	75.8294	1,866.21	79.3949	1,866.21	65.7861	1,866.21	76.9491	1,866.21	66.3969	1,866.21	73.3455	1,866.21	65.7956	1,866.21	71.681	1,866.21	57.2827	1,866.21	68.2165	1,866.21	64.3918	1,866.21	62.0549	1,866.21	58.8589	1,866.21	62.1894	1,866.21	69.5571	1,866.21	62.5114	1,866.21	64.7032	1,866.21	70.1758	1,866.21	64.4551	1,866.21	69.1909	1,866.21	61.9243	1,866.21	64.3594
1,932.13	86.7098	1,932.13	86.9277	1,932.13	87.6359	1,932.13	87.6822	1,932.13	85.5896	1,932.13	87.0056	1,932.13	83.7873	1,932.13	84.0753	1,932.13	81.709	1,932.13	84.1952	1,932.13	78.4979	1,932.13	84.1662	1,932.13	75.6058	1,932.13	81.2814	1,932.13	71.6545	1,932.13	77.804	1,932.13	75.9733	1,932.13	74.0376	1,932.13	65.7655	1,932.13	72.9272	1,932.13	69.1035	1,932.13	69.2876	1,932.13	59.2791	1,932.13	70.8304	1,932.13	64.1491	1,932.13	68.6575	1,932.13	67.3661	1,932.13	65.8376	1,932.13	52.222	1,932.13	68.4359	1,932.13	66.3618	1,932.13	71.452	1,932.13	60.2856	1,932.13	64.3385	1,932.13	69.2455	1,932.13	59.491
1,999.51	87.4434	1,999.51	87.0783	1,999.51	87.0105	1,999.51	86.9966	1,999.51	84.9129	1,999.51	86.9161	1,999.51	84.1677	1,999.51	85.8214	1,999.51	82.5504	1,999.51	84.984	1,999.51	78.2756	1,999.51	84.2513	1,999.51	74.3448	1,999.51	82.0218	1,999.51	76.5607	1,999.51	79.3212	1,999.51	72.8079	1,999.51	75.1718	1,999.51	72.0309	1,999.51	71.9995	1,999.51	60.705	1,999.51	70.9395	1,999.51	60.8444	1,999.51	65.1215	1,999.51	61.3438	1,999.51	65.861	1,999.51	65.7334	1,999.51	60.7427	1,999.51	61.0462	1,999.51	60.3371	1,999.51	65.2377	1,999.51	69.6465	1,999.51	61.0853	1,999.51	64.5723	1,999.51	68.1622	1,999.51	67.3981
2,069.82	87.4322	2,069.82	86.9754	2,069.82	87.5242	2,069.82	86.9238	2,069.82	84.761	2,069.82	85.7262	2,069.82	82.4936	2,069.82	86.0205	2,069.82	83.2456	2,069.82	84.8298	2,069.82	79.7209	2,069.82	84.6986	2,069.82	76.9255	2,069.82	82.9196	2,069.82	78.0591	2,069.82	80.1308	2,069.82	77.445	2,069.82	75.922	2,069.82	67.8077	2,069.82	72.529	2,069.82	60.1527	2,069.82	69.3156	2,069.82	61.7168	2,069.82	71.9082	2,069.82	55.7662	2,069.82	67.605	2,069.82	65.6278	2,069.82	63.245	2,069.82	62.1439	2,069.82	65.1617	2,069.82	68.241	2,069.82	66.6889	2,069.82	63.6464	2,069.82	65.1155	2,069.82	69.0489	2,069.82	67.4958
2,143.07	87.4989	2,143.07	87.4343	2,143.07	86.6615	2,143.07	85.7138	2,143.07	85.177	2,143.07	84.5878	2,143.07	83.0602	2,143.07	86.6567	2,143.07	83.4538	2,143.07	86.1198	2,143.07	80.0669	2,143.07	83.8508	2,143.07	77.5025	2,143.07	81.5199	2,143.07	78.3166	2,143.07	79.5744	2,143.07	79.853	2,143.07	75.843	2,143.07	76.3081	2,143.07	73.804	2,143.07	65.9815	2,143.07	72.6004	2,143.07	64.7482	2,143.07	66.3631	2,143.07	50.7125	2,143.07	67.9721	2,143.07	67.3218	2,143.07	58.8129	2,143.07	62.7192	2,143.07	66.6563	2,143.07	69.4501	2,143.07	70.044	2,143.07	61.7245	2,143.07	66.8801	2,143.07	68.1987	2,143.07	66.7655
2,219.24	86.5311	2,219.24	87.0438	2,219.24	85.5729	2,219.24	86.3158	2,219.24	84.45	2,219.24	84.7756	2,219.24	83.8954	2,219.24	84.795	2,219.24	83.1729	2,219.24	86.1004	2,219.24	80.8981	2,219.24	83.9583	2,219.24	78.7242	2,219.24	82.3289	2,219.24	81.271	2,219.24	78.7231	2,219.24	77.9697	2,219.24	77.3078	2,219.24	77.0631	2,219.24	72.5228	2,219.24	62.8745	2,219.24	69.6868	2,219.24	65.5101	2,219.24	71.994	2,219.24	66.7136	2,219.24	67.7079	2,219.24	67.3151	2,219.24	60.4645	2,219.24	65.2497	2,219.24	60.9123	2,219.24	68.7265	2,219.24	59.3754	2,219.24	63.2669	2,219.24	65.1455	2,219.24	64.8121	2,219.24	62.7015
2,296.88	86.404	2,296.88	86.1649	2,296.88	83.5183	2,296.88	85.8257	2,296.88	81.9289	2,296.88	86.2093	2,296.88	85.119	2,296.88	85.3354	2,296.88	84.3397	2,296.88	86.8519	2,296.88	81.9079	2,296.88	85.1613	2,296.88	79.3238	2,296.88	82.8436	2,296.88	79.6454	2,296.88	80.418	2,296.88	80.6991	2,296.88	76.4686	2,296.88	76.6606	2,296.88	75.7462	2,296.88	67.8742	2,296.88	71.6267	2,296.88	69.5859	2,296.88	72.3021	2,296.88	68.0728	2,296.88	68.8848	2,296.88	65.941	2,296.88	63.6216	2,296.88	69.2035	2,296.88	58.9074	2,296.88	69.648	2,296.88	60.0239	2,296.88	56.9538	2,296.88	66.0928	2,296.88	63.5978	2,296.88	53.4264
2,378.91	86.7148	2,378.91	85.7685	2,378.91	81.6416	2,378.91	83.7837	2,378.91	82.2536	2,378.91	86.0556	2,378.91	85.1229	2,378.91	85.052	2,378.91	85.4485	2,378.91	84.9732	2,378.91	81.5501	2,378.91	86.287	2,378.91	81.36	2,378.91	83.2771	2,378.91	80.9063	2,378.91	79.8953	2,378.91	82.9431	2,378.91	78.1958	2,378.91	79.5661	2,378.91	73.9031	2,378.91	70.5284	2,378.91	73.1644	2,378.91	70.8316	2,378.91	68.4414	2,378.91	70.5739	2,378.91	66.5107	2,378.91	67.0194	2,378.91	64.2627	2,378.91	65.906	2,378.91	65.4945	2,378.91	72.0069	2,378.91	53.7702	2,378.91	60.4149	2,378.91	55.176	2,378.91	56.7694	2,378.91	48.4316
2,462.4	88.7424	2,462.4	87.8645	2,462.4	83.7407	2,462.4	84.5288	2,462.4	81.9032	2,462.4	86.6858	2,462.4	83.4713	2,462.4	84.8106	2,462.4	85.7339	2,462.4	85.8317	2,462.4	81.9487	2,462.4	86.2392	2,462.4	83.2022	2,462.4	84.3484	2,462.4	83.3684	2,462.4	80.6685	2,462.4	83.0128	2,462.4	72.9556	2,462.4	80.4252	2,462.4	73.2756	2,462.4	70.6365	2,462.4	74.0674	2,462.4	67.9472	2,462.4	67.8451	2,462.4	70.1173	2,462.4	71.6408	2,462.4	59.9934	2,462.4	66.6886	2,462.4	69.8456	2,462.4	57.1139	2,462.4	70.7437	2,462.4	63.6117	2,462.4	51.2219	2,462.4	62.0029	2,462.4	59.063	2,462.4	57.8913
2,548.83	89.3656	2,548.83	87.741	2,548.83	84.548	2,548.83	87.0852	2,548.83	84.5342	2,548.83	82.8195	2,548.83	81.9403	2,548.83	84.8767	2,548.83	84.9991	2,548.83	86.2552	2,548.83	82.5505	2,548.83	85.4861	2,548.83	83.5399	2,548.83	82.2592	2,548.83	82.212	2,548.83	80.1764	2,548.83	81.7953	2,548.83	77.7111	2,548.83	81.4813	2,548.83	74.8045	2,548.83	68.8138	2,548.83	69.5554	2,548.83	70.6515	2,548.83	74.5492	2,548.83	67.8483	2,548.83	70.876	2,548.83	63.0496	2,548.83	68.5368	2,548.83	70.7116	2,548.83	68.8243	2,548.83	66.2047	2,548.83	61.2806	2,548.83	64.4954	2,548.83	60.5128	2,548.83	63.3643	2,548.83	68.8643
2,639.65	88.3359	2,639.65	88.1916	2,639.65	85.4161	2,639.65	87.9777	2,639.65	85.4105	2,639.65	81.6749	2,639.65	83.8021	2,639.65	85.9912	2,639.65	83.6823	2,639.65	86.1988	2,639.65	84.3513	2,639.65	85.4118	2,639.65	83.0981	2,639.65	84.2692	2,639.65	83.4213	2,639.65	79.7709	2,639.65	83.4796	2,639.65	77.9848	2,639.65	78.2871	2,639.65	72.1935	2,639.65	57.9901	2,639.65	74.1563	2,639.65	65.0636	2,639.65	72.816	2,639.65	66.5122	2,639.65	72.7309	2,639.65	66.0192	2,639.65	68.8862	2,639.65	72.542	2,639.65	65.0055	2,639.65	68.6886	2,639.65	59.3963	2,639.65	61.5336	2,639.65	68.1135	2,639.65	69.8867	2,639.65	56.4345
2,731.93	86.5792	2,731.93	88.3104	2,731.93	85.2282	2,731.93	87.7198	2,731.93	85.1128	2,731.93	85.3226	2,731.93	85.8472	2,731.93	82.7458	2,731.93	83.3887	2,731.93	87.4253	2,731.93	85.1182	2,731.93	86.9936	2,731.93	84.2588	2,731.93	86.4059	2,731.93	83.1103	2,731.93	83.8377	2,731.93	82.9443	2,731.93	77.9405	2,731.93	77.4868	2,731.93	77.8219	2,731.93	63.864	2,731.93	73.7848	2,731.93	70.5203	2,731.93	74.5713	2,731.93	66.3169	2,731.93	72.7559	2,731.93	66.1346	2,731.93	71.4455	2,731.93	71.4014	2,731.93	68.5219	2,731.93	70.2802	2,731.93	64.0218	2,731.93	62.125	2,731.93	67.4562	2,731.93	66.9161	2,731.93	64.7172
2,828.61	87.5696	2,828.61	89.5902	2,828.61	87.0956	2,828.61	87.453	2,828.61	85.2584	2,828.61	85.7466	2,828.61	87.1431	2,828.61	83.0164	2,828.61	83.1771	2,828.61	86.3966	2,828.61	83.9993	2,828.61	86.6903	2,828.61	85.7209	2,828.61	85.3236	2,828.61	82.8305	2,828.61	83.3095	2,828.61	84.4967	2,828.61	80.0851	2,828.61	76.0406	2,828.61	75.2472	2,828.61	76.893	2,828.61	74.6236	2,828.61	74.6395	2,828.61	71.1988	2,828.61	70.1948	2,828.61	73.1686	2,828.61	68.9209	2,828.61	73.513	2,828.61	70.7345	2,828.61	61.7109	2,828.61	69.6178	2,828.61	57.7919	2,828.61	55.745	2,828.61	63.8724	2,828.61	67.0046	2,828.61	54.8994
2,928.22	86.8204	2,928.22	90.9032	2,928.22	88.7878	2,928.22	88.2972	2,928.22	85.2433	2,928.22	86.864	2,928.22	86.6175	2,928.22	80.7579	2,928.22	85.8165	2,928.22	87.0007	2,928.22	83.1214	2,928.22	88.9205	2,928.22	86.3857	2,928.22	86.7854	2,928.22	84.2548	2,928.22	82.0847	2,928.22	83.816	2,928.22	81.6924	2,928.22	79.7892	2,928.22	74.1646	2,928.22	78.5352	2,928.22	77.4411	2,928.22	72.8577	2,928.22	72.4109	2,928.22	76.2241	2,928.22	71.49	2,928.22	73.2733	2,928.22	73.0044	2,928.22	70.0971	2,928.22	71.2426	2,928.22	70.307	2,928.22	66.5133	2,928.22	61.9412	2,928.22	63.7064	2,928.22	65.1823	2,928.22	66.4867
3,030.76	87.2626	3,030.76	91.209	3,030.76	89.6925	3,030.76	90.9669	3,030.76	85.804	3,030.76	87.2878	3,030.76	85.7467	3,030.76	82.2662	3,030.76	86.4394	3,030.76	86.6977	3,030.76	86.152	3,030.76	87.6	3,030.76	86.0257	3,030.76	85.8248	3,030.76	87.585	3,030.76	84.9735	3,030.76	82.6923	3,030.76	76.3597	3,030.76	86.3645	3,030.76	77.7217	3,030.76	80.3708	3,030.76	69.4155	3,030.76	67.7654	3,030.76	71.6415	3,030.76	76.98	3,030.76	72.9083	3,030.76	66.313	3,030.76	72.9815	3,030.76	65.5688	3,030.76	58.5595	3,030.76	68.7986	3,030.76	52.368	3,030.76	59.8286	3,030.76	67.6402	3,030.76	63.0076	3,030.76	55.4319
3,137.7	87.6309	3,137.7	91.4112	3,137.7	90.136	3,137.7	91.6252	3,137.7	87.3381	3,137.7	87.1961	3,137.7	86.6139	3,137.7	82.5225	3,137.7	86.2626	3,137.7	84.9187	3,137.7	87.1392	3,137.7	88.1066	3,137.7	84.3924	3,137.7	86.9624	3,137.7	88.7228	3,137.7	83.1451	3,137.7	84.0677	3,137.7	79.5355	3,137.7	88.4343	3,137.7	78.2548	3,137.7	78.1489	3,137.7	72.8681	3,137.7	67.3162	3,137.7	73.9035	3,137.7	75.1663	3,137.7	75.579	3,137.7	67.5452	3,137.7	71.5383	3,137.7	70.3769	3,137.7	67.7561	3,137.7	66.1848	3,137.7	59.9921	3,137.7	51.4357	3,137.7	69.4001	3,137.7	67.5953	3,137.7	59.1552
3,249.02	88.3269	3,249.02	90.0948	3,249.02	89.9091	3,249.02	91.222	3,249.02	87.9848	3,249.02	88.4732	3,249.02	87.4213	3,249.02	84.2032	3,249.02	87.5442	3,249.02	82.7171	3,249.02	85.1151	3,249.02	88.278	3,249.02	84.9024	3,249.02	86.7038	3,249.02	88.6729	3,249.02	84.9069	3,249.02	87.1497	3,249.02	82.0995	3,249.02	88.6254	3,249.02	73.0034	3,249.02	79.2532	3,249.02	73.0753	3,249.02	73.4172	3,249.02	71.4957	3,249.02	74.9936	3,249.02	73.6766	3,249.02	59.1951	3,249.02	69.3739	3,249.02	66.7807	3,249.02	68.7191	3,249.02	66.2412	3,249.02	60.1254	3,249.02	60.7218	3,249.02	62.3557	3,249.02	61.6303	3,249.02	68.4029
3,363.28	88.5094	3,363.28	89.1264	3,363.28	89.5154	3,363.28	89.7255	3,363.28	87.8074	3,363.28	88.3905	3,363.28	87.4906	3,363.28	83.33	3,363.28	88.3556	3,363.28	82.9191	3,363.28	84.6778	3,363.28	88.0752	3,363.28	86.3596	3,363.28	88.1739	3,363.28	89.9068	3,363.28	82.06	3,363.28	88.3668	3,363.28	81.8573	3,363.28	88.1099	3,363.28	74.379	3,363.28	75.8961	3,363.28	75.6784	3,363.28	76.7551	3,363.28	75.0496	3,363.28	73.2615	3,363.28	74.1489	3,363.28	66.7128	3,363.28	72.3633	3,363.28	65.0459	3,363.28	61.4973	3,363.28	65.8933	3,363.28	61.6711	3,363.28	63.7613	3,363.28	59.2335	3,363.28	62.3823	3,363.28	67.7022
3,481.93	89.6928	3,481.93	88.3289	3,481.93	88.7263	3,481.93	90.6379	3,481.93	88.0429	3,481.93	88.0465	3,481.93	86.8493	3,481.93	84.852	3,481.93	89.2395	3,481.93	81.517	3,481.93	83.6422	3,481.93	87.5971	3,481.93	87.5255	3,481.93	87.5643	3,481.93	88.7349	3,481.93	85.946	3,481.93	88.6745	3,481.93	80.2419	3,481.93	83.8001	3,481.93	74.5306	3,481.93	75.0167	3,481.93	73.8185	3,481.93	72.3157	3,481.93	73.1101	3,481.93	69.732	3,481.93	72.3415	3,481.93	67.0051	3,481.93	70.7714	3,481.93	61.2203	3,481.93	65.7246	3,481.93	68.479	3,481.93	58.7658	3,481.93	64.6372	3,481.93	65.8219	3,481.93	65.4139	3,481.93	57.9968
3,604.98	90.4538	3,604.98	88.0333	3,604.98	87.4539	3,604.98	90.9549	3,604.98	88.2325	3,604.98	89.3258	3,604.98	85.8578	3,604.98	85.2005	3,604.98	89.7523	3,604.98	81.2864	3,604.98	85.6078	3,604.98	87.6266	3,604.98	86.4783	3,604.98	88.4498	3,604.98	87.1921	3,604.98	84.6075	3,604.98	87.5181	3,604.98	78.9639	3,604.98	77.2547	3,604.98	79.0415	3,604.98	72.717	3,604.98	73.2535	3,604.98	66.4892	3,604.98	73.1514	3,604.98	64.8474	3,604.98	69.0908	3,604.98	67.2751	3,604.98	70.9206	3,604.98	35.0088	3,604.98	72.1107	3,604.98	67.6813	3,604.98	59.9573	3,604.98	67.1315	3,604.98	67.1454	3,604.98	58.9646	3,604.98	64.2888
3,732.42	91.045	3,732.42	87.2655	3,732.42	88.298	3,732.42	89.9893	3,732.42	86.7893	3,732.42	89.2998	3,732.42	86.9654	3,732.42	86.4563	3,732.42	89.167	3,732.42	81.0551	3,732.42	86.301	3,732.42	87.4922	3,732.42	85.7215	3,732.42	87.7908	3,732.42	86.0779	3,732.42	85.3436	3,732.42	83.0884	3,732.42	80.6245	3,732.42	80.7726	3,732.42	76.8041	3,732.42	79.7736	3,732.42	71.6845	3,732.42	71.2662	3,732.42	72.5648	3,732.42	59.9819	3,732.42	68.9817	3,732.42	63.5323	3,732.42	68.082	3,732.42	47.4988	3,732.42	70.8829	3,732.42	64.9483	3,732.42	65.9277	3,732.42	66.1732	3,732.42	69.6736	3,732.42	61.0837	3,732.42	63.7573
3,864.26	90.7108	3,864.26	88.4397	3,864.26	89.3072	3,864.26	89.2016	3,864.26	88.0761	3,864.26	90.0868	3,864.26	84.5332	3,864.26	87.1387	3,864.26	87.0948	3,864.26	82.8364	3,864.26	87.6633	3,864.26	86.2119	3,864.26	84.648	3,864.26	88.3015	3,864.26	84.8322	3,864.26	83.7921	3,864.26	84.2595	3,864.26	78.093	3,864.26	81.1281	3,864.26	74.9389	3,864.26	78.4722	3,864.26	70.8697	3,864.26	67.614	3,864.26	74.7048	3,864.26	66.5763	3,864.26	70.5313	3,864.26	62.4471	3,864.26	66.7217	3,864.26	62.6721	3,864.26	68.4238	3,864.26	61.1929	3,864.26	62.7292	3,864.26	61.1018	3,864.26	64.136	3,864.26	62.7297	3,864.26	65.0394
4,000.49	89.5575	4,000.49	88.5426	4,000.49	87.621	4,000.49	88.0636	4,000.49	88.7947	4,000.49	89.1646	4,000.49	86.5055	4,000.49	87.6351	4,000.49	87.0688	4,000.49	81.0908	4,000.49	88.9772	4,000.49	86.3475	4,000.49	84.7148	4,000.49	87.2251	4,000.49	83.3642	4,000.49	85.3754	4,000.49	82.5374	4,000.49	79.5193	4,000.49	81.7204	4,000.49	76.7961	4,000.49	78.9742	4,000.49	74.9829	4,000.49	72.7837	4,000.49	72.5571	4,000.49	70.1071	4,000.49	69.6876	4,000.49	64.5692	4,000.49	68.5535	4,000.49	59.4049	4,000.49	63.9632	4,000.49	63.9487	4,000.49	62.4652	4,000.49	63.7249	4,000.49	62.9984	4,000.49	61.4623	4,000.49	57.7123
4,141.11	89.7491	4,141.11	89.082	4,141.11	88.3366	4,141.11	86.9254	4,141.11	87.3274	4,141.11	90.7022	4,141.11	88.0259	4,141.11	87.5227	4,141.11	84.9329	4,141.11	81.6812	4,141.11	88.5111	4,141.11	85.3314	4,141.11	83.3813	4,141.11	87.392	4,141.11	81.1083	4,141.11	84.2068	4,141.11	80.4049	4,141.11	79.5399	4,141.11	84.3255	4,141.11	79.3375	4,141.11	81.179	4,141.11	71.7063	4,141.11	70.6567	4,141.11	70.6911	4,141.11	71.8866	4,141.11	66.1829	4,141.11	63.4857	4,141.11	68.0405	4,141.11	58.3721	4,141.11	68.1119	4,141.11	60.2486	4,141.11	58.1624	4,141.11	58.3655	4,141.11	64.4374	4,141.11	66.9766	4,141.11	58.7445
4,287.6	89.8666	4,287.6	89.8602	4,287.6	89.2179	4,287.6	87.4646	4,287.6	87.4289	4,287.6	89.8388	4,287.6	87.6826	4,287.6	87.3244	4,287.6	86.0187	4,287.6	82.261	4,287.6	88.4152	4,287.6	84.1783	4,287.6	78.0237	4,287.6	86.4188	4,287.6	80.7683	4,287.6	84.5648	4,287.6	83.1665	4,287.6	81.5122	4,287.6	84.9155	4,287.6	76.5287	4,287.6	79.6352	4,287.6	68.761	4,287.6	71.2462	4,287.6	68.3583	4,287.6	71.8684	4,287.6	66.4011	4,287.6	55.5236	4,287.6	68.0422	4,287.6	54.7104	4,287.6	66.6196	4,287.6	56.7412	4,287.6	56.6439	4,287.6	64.4975	4,287.6	69.4155	4,287.6	64.2942	4,287.6	61.2797
4,438.48	89.2977	4,438.48	89.3333	4,438.48	88.5892	4,438.48	87.9256	4,438.48	87.4964	4,438.48	90.1751	4,438.48	86.5145	4,438.48	88.7071	4,438.48	86.0342	4,438.48	80.8347	4,438.48	87.5782	4,438.48	83.9943	4,438.48	74.5883	4,438.48	86.6657	4,438.48	85.8345	4,438.48	82.6626	4,438.48	86.7215	4,438.48	78.4242	4,438.48	85.4376	4,438.48	76.4714	4,438.48	79.6393	4,438.48	70.0761	4,438.48	75.0688	4,438.48	67.6332	4,438.48	71.9209	4,438.48	66.4092	4,438.48	60.0713	4,438.48	69.2792	4,438.48	56.2809	4,438.48	70.5784	4,438.48	55.5423	4,438.48	59.8004	4,438.48	61.4607	4,438.48	67.7603	4,438.48	64.4869	4,438.48	61.8797
4,595.21	88.1678	4,595.21	88.5961	4,595.21	88.6505	4,595.21	87.8381	4,595.21	86.6264	4,595.21	88.4605	4,595.21	85.1779	4,595.21	87.6593	4,595.21	86.3111	4,595.21	84.1787	4,595.21	87.6805	4,595.21	83.1392	4,595.21	83.4076	4,595.21	85.8847	4,595.21	88.7569	4,595.21	84.0519	4,595.21	86.0578	4,595.21	78.8841	4,595.21	82.0181	4,595.21	74.6978	4,595.21	73.5624	4,595.21	67.2089	4,595.21	73.2749	4,595.21	65.1981	4,595.21	69.4655	4,595.21	66.8186	4,595.21	66.6513	4,595.21	68.01	4,595.21	58.0353	4,595.21	64.1331	4,595.21	58.2542	4,595.21	52.5453	4,595.21	67.6286	4,595.21	70.9893	4,595.21	66.3371	4,595.21	55.0709
4,756.35	86.7295	4,756.35	89.5436	4,756.35	88.1778	4,756.35	88.8181	4,756.35	85.3777	4,756.35	88.8813	4,756.35	84.9343	4,756.35	88.3753	4,756.35	85.3677	4,756.35	82.4335	4,756.35	86.4613	4,756.35	80.8367	4,756.35	86.0351	4,756.35	85.1629	4,756.35	88.458	4,756.35	80.9309	4,756.35	80.8541	4,756.35	79.4892	4,756.35	80.7595	4,756.35	71.6392	4,756.35	61.6981	4,756.35	68.963	4,756.35	68.3102	4,756.35	65.3334	4,756.35	55.0986	4,756.35	67.5119	4,756.35	67.4824	4,756.35	64.4029	4,756.35	67.3669	4,756.35	65.3293	4,756.35	52.1026	4,756.35	52.2035	4,756.35	65.2591	4,756.35	67.0757	4,756.35	66.1247	4,756.35	64.085
4,924.8	87.1082	4,924.8	88.9051	4,924.8	88.0835	4,924.8	87.4279	4,924.8	86.8584	4,924.8	87.5291	4,924.8	87.1986	4,924.8	87.9684	4,924.8	83.9713	4,924.8	82.7883	4,924.8	84.5794	4,924.8	80.4526	4,924.8	86.4458	4,924.8	83.9322	4,924.8	85.2665	4,924.8	82.3339	4,924.8	80.9799	4,924.8	79.3006	4,924.8	77.5495	4,924.8	75.5163	4,924.8	63.3199	4,924.8	68.3112	4,924.8	61.3572	4,924.8	63.4751	4,924.8	65.2147	4,924.8	64.6594	4,924.8	61.7873	4,924.8	64.341	4,924.8	66.705	4,924.8	65.9667	4,924.8	61.6363	4,924.8	56.1831	4,924.8	64.4887	4,924.8	66.1519	4,924.8	65.7202	4,924.8	48.7664
5,097.66	87.0888	5,097.66	88.7204	5,097.66	88.1036	5,097.66	88.2861	5,097.66	87.8113	5,097.66	87.8013	5,097.66	87.6348	5,097.66	87.8134	5,097.66	84.0944	5,097.66	84.1347	5,097.66	83.9794	5,097.66	78.011	5,097.66	86.4271	5,097.66	85.2028	5,097.66	82.5807	5,097.66	82.6112	5,097.66	79.5393	5,097.66	77.6508	5,097.66	69.8315	5,097.66	71.7862	5,097.66	68.4518	5,097.66	66.7314	5,097.66	67.9156	5,097.66	65.8479	5,097.66	62.0176	5,097.66	64.3111	5,097.66	57.3558	5,097.66	62.5258	5,097.66	64.7775	5,097.66	64.2906	5,097.66	60.9035	5,097.66	51.4724	5,097.66	61.5939	5,097.66	64.0446	5,097.66	67.2762	5,097.66	58.296
5,277.83	87.348	5,277.83	88.6066	5,277.83	87.5096	5,277.83	88.2981	5,277.83	85.6594	5,277.83	86.0467	5,277.83	85.5388	5,277.83	87.6636	5,277.83	82.9789	5,277.83	82.5798	5,277.83	85.9678	5,277.83	78.553	5,277.83	85.5586	5,277.83	82.7857	5,277.83	74.6062	5,277.83	80.1688	5,277.83	82.5533	5,277.83	76.5966	5,277.83	75.6646	5,277.83	69.0695	5,277.83	73.3794	5,277.83	66.8544	5,277.83	63.7635	5,277.83	66.8388	5,277.83	61.2806	5,277.83	63.9829	5,277.83	63.9042	5,277.83	62.8366	5,277.83	62.4718	5,277.83	62.4641	5,277.83	56.2447	5,277.83	56.1198	5,277.83	64.2542	5,277.83	63.8385	5,277.83	61.3942	5,277.83	56.4124
5,463.87	88.5979	5,463.87	88.6632	5,463.87	87.2347	5,463.87	88.5245	5,463.87	88.3084	5,463.87	85.2452	5,463.87	85.8782	5,463.87	87.0943	5,463.87	86.5837	5,463.87	84.4255	5,463.87	87.1416	5,463.87	76.5476	5,463.87	85.1792	5,463.87	81.3662	5,463.87	72.4392	5,463.87	81.5625	5,463.87	83.9533	5,463.87	78.0577	5,463.87	81.503	5,463.87	72.3789	5,463.87	76.6055	5,463.87	68.2278	5,463.87	67.3285	5,463.87	67.7635	5,463.87	62.5791	5,463.87	61.2033	5,463.87	56.4066	5,463.87	62.8967	5,463.87	66.4949	5,463.87	66.7753	5,463.87	57.77	5,463.87	62.6522	5,463.87	61.6287	5,463.87	62.8225	5,463.87	64.8498	5,463.87	63.592
5,657.23	88.9985	5,657.23	88.4658	5,657.23	87.0227	5,657.23	88.7556	5,657.23	87.4344	5,657.23	86.0034	5,657.23	87.5236	5,657.23	86.8968	5,657.23	86.8838	5,657.23	84.9347	5,657.23	87.1988	5,657.23	69.7186	5,657.23	84.7751	5,657.23	81.9149	5,657.23	77.0548	5,657.23	79.1734	5,657.23	82.9546	5,657.23	74.4186	5,657.23	79.1463	5,657.23	70.0852	5,657.23	68.6134	5,657.23	67.0462	5,657.23	63.2407	5,657.23	67.3764	5,657.23	64.2383	5,657.23	58.1019	5,657.23	65.1408	5,657.23	60.0286	5,657.23	68.1492	5,657.23	62.6246	5,657.23	60.4186	5,657.23	62.7077	5,657.23	62.4835	5,657.23	60.7747	5,657.23	63.2433	5,657.23	56.0125
5,856.45	88.2498	5,856.45	89.2152	5,856.45	86.3162	5,856.45	88.6455	5,856.45	86.3393	5,856.45	83.7446	5,856.45	87.0562	5,856.45	86.5211	5,856.45	84.4069	5,856.45	83.3729	5,856.45	86.3475	5,856.45	73.4182	5,856.45	84.279	5,856.45	80.1158	5,856.45	77.3539	5,856.45	81.2095	5,856.45	81.3797	5,856.45	76.3923	5,856.45	76.8277	5,856.45	69.7082	5,856.45	74.3801	5,856.45	65.7395	5,856.45	54.0703	5,856.45	67.2072	5,856.45	55.6032	5,856.45	56.0234	5,856.45	62.236	5,856.45	58.0356	5,856.45	67.8372	5,856.45	51.6524	5,856.45	61.5637	5,856.45	59.76	5,856.45	62.5273	5,856.45	65.7224	5,856.45	59.6706	5,856.45	54.912
6,062.99	89.0121	6,062.99	88.8736	6,062.99	88.153	6,062.99	88.484	6,062.99	89.1735	6,062.99	85.6164	6,062.99	84.0563	6,062.99	84.8555	6,062.99	83.2439	6,062.99	83.9934	6,062.99	85.4703	6,062.99	71.896	6,062.99	83.9772	6,062.99	82.1557	6,062.99	80.8249	6,062.99	78.3652	6,062.99	83.9347	6,062.99	75.0862	6,062.99	79.8146	6,062.99	68.1798	6,062.99	75.0398	6,062.99	70.1578	6,062.99	62.1256	6,062.99	67.973	6,062.99	65.3407	6,062.99	62.4982	6,062.99	54.4792	6,062.99	59.6165	6,062.99	66.7662	6,062.99	56.3212	6,062.99	55.3095	6,062.99	59.9138	6,062.99	59.4694	6,062.99	61.983	6,062.99	64.3534	6,062.99	48.5581
6,276.86	89.3574	6,276.86	89.3142	6,276.86	86.5126	6,276.86	88.4114	6,276.86	87.4408	6,276.86	85.7062	6,276.86	85.8922	6,276.86	83.7632	6,276.86	85.1848	6,276.86	83.8657	6,276.86	83.3988	6,276.86	74.2298	6,276.86	84.4539	6,276.86	79.5043	6,276.86	81.8807	6,276.86	77.6762	6,276.86	83.901	6,276.86	73.8837	6,276.86	74.9884	6,276.86	66.5854	6,276.86	75.4298	6,276.86	70.1526	6,276.86	58.444	6,276.86	65.1864	6,276.86	66.2737	6,276.86	60.7152	6,276.86	63.1823	6,276.86	59.1899	6,276.86	64.8278	6,276.86	55.1335	6,276.86	63.044	6,276.86	57.4418	6,276.86	61.3679	6,276.86	65.5428	6,276.86	60.9658	6,276.86	55.4627
6,498.05	88.801	6,498.05	88.1311	6,498.05	87.5558	6,498.05	88.2813	6,498.05	86.6482	6,498.05	84.4224	6,498.05	86.9081	6,498.05	83.3322	6,498.05	83.8186	6,498.05	83.7414	6,498.05	82.8757	6,498.05	69.1971	6,498.05	84.3272	6,498.05	78.5312	6,498.05	82.0609	6,498.05	77.9509	6,498.05	81.6726	6,498.05	72.9029	6,498.05	79.8562	6,498.05	66.3246	6,498.05	77.3729	6,498.05	66.4312	6,498.05	50.286	6,498.05	63.916	6,498.05	62.8588	6,498.05	60.7037	6,498.05	61.7905	6,498.05	57.9781	6,498.05	63.5641	6,498.05	45.229	6,498.05	61.4062	6,498.05	64.2715	6,498.05	56.0748	6,498.05	58.7354	6,498.05	63.6381	6,498.05	58.7154
6,726.56	88.5391	6,726.56	88.2227	6,726.56	85.8271	6,726.56	87.6287	6,726.56	85.5379	6,726.56	85.2638	6,726.56	86.0564	6,726.56	83.1291	6,726.56	83.0895	6,726.56	83.5648	6,726.56	83.2704	6,726.56	74.6291	6,726.56	84.3264	6,726.56	77.5006	6,726.56	82.292	6,726.56	80.7485	6,726.56	77.7704	6,726.56	77.4341	6,726.56	78.4474	6,726.56	67.2468	6,726.56	72.8113	6,726.56	69.5833	6,726.56	63.7267	6,726.56	64.4947	6,726.56	57.4955	6,726.56	56.9106	6,726.56	52.3765	6,726.56	56.5765	6,726.56	60.701	6,726.56	56.291	6,726.56	41.3488	6,726.56	46.0583	6,726.56	61.1071	6,726.56	61.7634	6,726.56	55.7989	6,726.56	58.5415
6,963.87	87.4881	6,963.87	87.6495	6,963.87	87.3169	6,963.87	86.5844	6,963.87	85.8933	6,963.87	85.4913	6,963.87	86.741	6,963.87	80.664	6,963.87	85.252	6,963.87	83.6671	6,963.87	83.4112	6,963.87	77.9418	6,963.87	84.8117	6,963.87	77.7059	6,963.87	79.8502	6,963.87	78.6867	6,963.87	73.7043	6,963.87	74.2904	6,963.87	77.1356	6,963.87	65.0019	6,963.87	62.4108	6,963.87	70.2285	6,963.87	63.0807	6,963.87	62.7666	6,963.87	50.3331	6,963.87	53.0526	6,963.87	57.6157	6,963.87	44.1929	6,963.87	56.0739	6,963.87	50.9411	6,963.87	61.9971	6,963.87	65.1573	6,963.87	60.3221	6,963.87	59.1102	6,963.87	54.8742	6,963.87	58.1174
7,209.96	87.0283	7,209.96	86.6333	7,209.96	86.3218	7,209.96	85.9692	7,209.96	85.7379	7,209.96	85.2725	7,209.96	86.5927	7,209.96	80.6104	7,209.96	85.182	7,209.96	83.3958	7,209.96	83.2178	7,209.96	80.94	7,209.96	84.1639	7,209.96	73.3207	7,209.96	78.4648	7,209.96	80.3225	7,209.96	77.2972	7,209.96	75.6602	7,209.96	75.4016	7,209.96	69.0133	7,209.96	71.3353	7,209.96	69.9282	7,209.96	61.199	7,209.96	63.7136	7,209.96	52.9089	7,209.96	57.6434	7,209.96	47.587	7,209.96	48.7834	7,209.96	60.4974	7,209.96	58.4492	7,209.96	57.3411	7,209.96	53.939	7,209.96	51.8625	7,209.96	50.7019	7,209.96	53.6157	7,209.96	54.9164
7,464.84	87.1228	7,464.84	85.9626	7,464.84	86.3853	7,464.84	85.3796	7,464.84	85.0304	7,464.84	85.3742	7,464.84	85.6902	7,464.84	80.1627	7,464.84	84.2056	7,464.84	83.8906	7,464.84	83.2996	7,464.84	80.3379	7,464.84	78.8358	7,464.84	73.4334	7,464.84	81.1197	7,464.84	77.0127	7,464.84	76.4228	7,464.84	73.536	7,464.84	78.3726	7,464.84	62.9528	7,464.84	70.7465	7,464.84	68.6506	7,464.84	62.5237	7,464.84	59.6905	7,464.84	52.9295	7,464.84	55.5554	7,464.84	54.738	7,464.84	54.7465	7,464.84	60.1662	7,464.84	56.6677	7,464.84	49.5765	7,464.84	60.3882	7,464.84	52.5976	7,464.84	50.9926	7,464.84	45.262	7,464.84	56.1487
7,727.05	87.3701	7,727.05	86.3088	7,727.05	86.2469	7,727.05	85.7954	7,727.05	86.6389	7,727.05	85.0025	7,727.05	85.2033	7,727.05	81.445	7,727.05	83.5565	7,727.05	83.8666	7,727.05	80.6091	7,727.05	79.9383	7,727.05	78.4797	7,727.05	69.3642	7,727.05	81.2354	7,727.05	76.9109	7,727.05	72.1345	7,727.05	69.1376	7,727.05	75.7538	7,727.05	63.2946	7,727.05	65.3062	7,727.05	68.6611	7,727.05	59.4027	7,727.05	56.8807	7,727.05	55.6933	7,727.05	51.2702	7,727.05	52.6923	7,727.05	56.4091	7,727.05	58.5492	7,727.05	56.4964	7,727.05	53.3786	7,727.05	59.9269	7,727.05	54.5774	7,727.05	53.1952	7,727.05	54.7005	7,727.05	57.5927
7,999.51	88.131	7,999.51	87.2609	7,999.51	87.8175	7,999.51	85.9691	7,999.51	86.1811	7,999.51	85.4294	7,999.51	85.7165	7,999.51	81.8925	7,999.51	82.781	7,999.51	83.278	7,999.51	80.0673	7,999.51	80.2632	7,999.51	81.744	7,999.51	70.8377	7,999.51	79.0386	7,999.51	75.1764	7,999.51	65.8442	7,999.51	69.7843	7,999.51	69.5266	7,999.51	65.9808	7,999.51	47.6437	7,999.51	67.822	7,999.51	46.3225	7,999.51	55.8521	7,999.51	53.0849	7,999.51	48.5002	7,999.51	48.5672	7,999.51	52.2088	7,999.51	50.4543	7,999.51	57.0562	7,999.51	42.2742	7,999.51	39.773	7,999.51	52.9939	7,999.51	55.092	7,999.51	54.8909	7,999.51	55.7414
8,282.23	87.9274	8,282.23	87.2323	8,282.23	88.0392	8,282.23	86.1403	8,282.23	86.5982	8,282.23	85.2962	8,282.23	85.2737	8,282.23	82.2954	8,282.23	83.004	8,282.23	82.077	8,282.23	78.5879	8,282.23	78.7462	8,282.23	84.1283	8,282.23	70.3447	8,282.23	75.7338	8,282.23	75.1697	8,282.23	74.7454	8,282.23	61.7894	8,282.23	69.6667	8,282.23	60.4213	8,282.23	62.5736	8,282.23	64.7051	8,282.23	51.9033	8,282.23	42.1766	8,282.23	25.4379	8,282.23	57.4985	8,282.23	52.116	8,282.23	49.8236	8,282.23	44.989	8,282.23	45.1069	8,282.23	44.7831	8,282.23	51.132	8,282.23	51.1761	8,282.23	49.7096	8,282.23	54.0739	8,282.23	56.8096
8,573.73	87.8203	8,573.73	86.9157	8,573.73	88.039	8,573.73	85.9754	8,573.73	87.0396	8,573.73	84.7701	8,573.73	84.4902	8,573.73	82.7513	8,573.73	82.7043	8,573.73	81.003	8,573.73	77.2163	8,573.73	78.4081	8,573.73	81.9456	8,573.73	70.2568	8,573.73	71.1146	8,573.73	72.207	8,573.73	73.0966	8,573.73	69.9408	8,573.73	70.0422	8,573.73	65.9407	8,573.73	62.1092	8,573.73	63.797	8,573.73	56.3029	8,573.73	53.3541	8,573.73	50.4738	8,573.73	56.2333	8,573.73	46.7649	8,573.73	54.0823	8,573.73	49.5347	8,573.73	49.7274	8,573.73	37.3465	8,573.73	49.7635	8,573.73	45.5319	8,573.73	48.6493	8,573.73	56.0743	8,573.73	56.5479
8,876.95	87.1062	8,876.95	86.834	8,876.95	87.7612	8,876.95	85.5278	8,876.95	87.1699	8,876.95	85.1978	8,876.95	85.1028	8,876.95	82.4524	8,876.95	82.6606	8,876.95	81.3452	8,876.95	79.2489	8,876.95	78.1992	8,876.95	77.0187	8,876.95	71.2494	8,876.95	77.0497	8,876.95	68.7249	8,876.95	69.6121	8,876.95	63.4776	8,876.95	67.708	8,876.95	50.8798	8,876.95	54.5535	8,876.95	56.3832	8,876.95	58.4192	8,876.95	51.274	8,876.95	56.0396	8,876.95	51.4424	8,876.95	56.0727	8,876.95	54.3671	8,876.95	46.5479	8,876.95	51.2318	8,876.95	52.0763	8,876.95	50.2051	8,876.95	54.8234	8,876.95	49.6747	8,876.95	52.4299	8,876.95	56.027
9,188.96	87.2476	9,188.96	86.6389	9,188.96	87.6674	9,188.96	84.8555	9,188.96	86.1204	9,188.96	85.2807	9,188.96	84.2502	9,188.96	82.6268	9,188.96	82.8621	9,188.96	80.5979	9,188.96	79.662	9,188.96	78.0013	9,188.96	79.1197	9,188.96	66.1649	9,188.96	75.3012	9,188.96	70.834	9,188.96	61.048	9,188.96	63.7915	9,188.96	65.2772	9,188.96	59.6683	9,188.96	59.1866	9,188.96	55.0551	9,188.96	47.3022	9,188.96	47.6583	9,188.96	52.102	9,188.96	50.2459	9,188.96	53.7176	9,188.96	52.1359	9,188.96	53.8112	9,188.96	49.4781	9,188.96	44.9693	9,188.96	56.0335	9,188.96	49.2608	9,188.96	50.3212	9,188.96	43.8092	9,188.96	54.2381
9,514.16	86.8239	9,514.16	85.7875	9,514.16	87.3887	9,514.16	84.7058	9,514.16	86.7591	9,514.16	85.0214	9,514.16	83.8842	9,514.16	82.8851	9,514.16	82.2568	9,514.16	79.5916	9,514.16	79.7617	9,514.16	76.8688	9,514.16	78.9799	9,514.16	66.7832	9,514.16	72.5903	9,514.16	70.7562	9,514.16	70.1494	9,514.16	65.5757	9,514.16	65.9699	9,514.16	56.0265	9,514.16	58.581	9,514.16	55.7648	9,514.16	48.7463	9,514.16	50.437	9,514.16	51.2617	9,514.16	46.5692	9,514.16	48.5908	9,514.16	46.611	9,514.16	46.7439	9,514.16	47.8138	9,514.16	42.6176	9,514.16	51.7161	9,514.16	40.9595	9,514.16	45.0062	9,514.16	44.543	9,514.16	48.3221
9,849.61	86.9447	9,849.61	85.074	9,849.61	86.951	9,849.61	84.7958	9,849.61	85.9277	9,849.61	84.2597	9,849.61	83.6101	9,849.61	82.0964	9,849.61	81.5483	9,849.61	77.3783	9,849.61	76.9578	9,849.61	76.1608	9,849.61	77.5961	9,849.61	65.5304	9,849.61	74.9012	9,849.61	64.6478	9,849.61	70.2194	9,849.61	57.4847	9,849.61	59.3154	9,849.61	54.0352	9,849.61	50.0057	9,849.61	53.6972	9,849.61	45.4257	9,849.61	49.0327	9,849.61	41.7065	9,849.61	48.4298	9,849.61	39.9134	9,849.61	43.6827	9,849.61	47.6411	9,849.61	38.9411	9,849.61	37.518	9,849.61	43.5018	9,849.61	41.8597	9,849.61	39.0157	9,849.61	45.5816	9,849.61	51.1952
10,196.8	86.9024	10,196.8	85.1242	10,196.8	86.8366	10,196.8	84.7233	10,196.8	85.8757	10,196.8	83.6157	10,196.8	82.523	10,196.8	81.223	10,196.8	81.8323	10,196.8	77.7897	10,196.8	77.8599	10,196.8	74.0159	10,196.8	75.2375	10,196.8	62.7715	10,196.8	69.9527	10,196.8	63.7731	10,196.8	65.619	10,196.8	56.8836	10,196.8	61.7597	10,196.8	57.4317	10,196.8	44.4542	10,196.8	54.4505	10,196.8	42.0808	10,196.8	51.7943	10,196.8	46.5335	10,196.8	39.7734	10,196.8	41.8914	10,196.8	46.1097	10,196.8	35.0289	10,196.8	46.8081	10,196.8	38.65	10,196.8	43.9766	10,196.8	39.4215	10,196.8	18.9127	10,196.8	46.26	10,196.8	53.2663
10,555.7	86.8474	10,555.7	85.3609	10,555.7	86.8781	10,555.7	85.0278	10,555.7	85.3364	10,555.7	83.4337	10,555.7	83.384	10,555.7	81.1339	10,555.7	79.6211	10,555.7	77.5703	10,555.7	78.1252	10,555.7	73.2756	10,555.7	74.3498	10,555.7	63.8413	10,555.7	72.1621	10,555.7	61.0072	10,555.7	65.7248	10,555.7	59.3676	10,555.7	64.1109	10,555.7	48.7195	10,555.7	47.3294	10,555.7	44.3661	10,555.7	40.6045	10,555.7	47.7056	10,555.7	27.493	10,555.7	46.9017	10,555.7	43.8732	10,555.7	45.9008	10,555.7	34.0554	10,555.7	41.9549	10,555.7	34.7584	10,555.7	42.124	10,555.7	37.3919	10,555.7	43.1547	10,555.7	32.8398	10,555.7	50.8982
10,927.7	87.2542	10,927.7	86.0647	10,927.7	86.6997	10,927.7	85.3228	10,927.7	85.068	10,927.7	83.5174	10,927.7	82.5497	10,927.7	81.14	10,927.7	80.9782	10,927.7	76.1089	10,927.7	78.0744	10,927.7	74.1399	10,927.7	69.9728	10,927.7	62.8171	10,927.7	70.3283	10,927.7	61.2977	10,927.7	61.481	10,927.7	48.123	10,927.7	52.0688	10,927.7	56.1743	10,927.7	47.5406	10,927.7	55.6354	10,927.7	30.4912	10,927.7	48.5048	10,927.7	44.0909	10,927.7	40.527	10,927.7	52.2008	10,927.7	47.8653	10,927.7	42.6388	10,927.7	45.0961	10,927.7	48.5682	10,927.7	41.8916	10,927.7	46.4464	10,927.7	49.1507	10,927.7	35.476	10,927.7	50.0181
11,313	87.338	11,313	86.6262	11,313	86.8206	11,313	85.2246	11,313	85.3977	11,313	83.7903	11,313	83.314	11,313	81.1181	11,313	80.3424	11,313	74.5678	11,313	76.241	11,313	73.4844	11,313	70.706	11,313	66.2306	11,313	67.4583	11,313	58.6288	11,313	64.3845	11,313	61.0099	11,313	60.8565	11,313	51.464	11,313	50.4292	11,313	51.7188	11,313	40.1647	11,313	45.8641	11,313	45.465	11,313	42.941	11,313	47.2571	11,313	50.4445	11,313	34.055	11,313	42.276	11,313	47.6948	11,313	42.1668	11,313	42.7648	11,313	48.1453	11,313	44.1516	11,313	49.3267
11,712.9	87.542	11,712.9	86.9273	11,712.9	86.8849	11,712.9	85.2728	11,712.9	85.8736	11,712.9	83.8281	11,712.9	83.2083	11,712.9	80.49	11,712.9	79.4752	11,712.9	73.9592	11,712.9	76.1553	11,712.9	73.4939	11,712.9	69.5523	11,712.9	64.629	11,712.9	67.4678	11,712.9	44.8705	11,712.9	64.6696	11,712.9	55.1945	11,712.9	57.8021	11,712.9	54.7119	11,712.9	48.3271	11,712.9	51.2018	11,712.9	24.4644	11,712.9	47.3395	11,712.9	41.3336	11,712.9	37.5105	11,712.9	33.7169	11,712.9	48.4173	11,712.9	42.7988	11,712.9	45.412	11,712.9	39.9946	11,712.9	35.5917	11,712.9	39.2064	11,712.9	45.8421	11,712.9	43.1864	11,712.9	47.9826
12,126	88.1391	12,126	87.57	12,126	87.3754	12,126	85.772	12,126	86.85	12,126	83.5846	12,126	83.1453	12,126	79.4704	12,126	80.1719	12,126	74.5221	12,126	75.2296	12,126	71.3042	12,126	70.3574	12,126	62.3182	12,126	69.427	12,126	51.1154	12,126	62.7492	12,126	52.9835	12,126	53.936	12,126	50.4066	12,126	41.1007	12,126	41.4376	12,126	43.5545	12,126	39.8362	12,126	45.7627	12,126	32.5227	12,126	47.1838	12,126	49.3392	12,126	41.6907	12,126	48.9259	12,126	30.5519	12,126	46.1866	12,126	26.727	12,126	46.1812	12,126	46.6448	12,126	48.4202
12,553.7	88.4107	12,553.7	88.1874	12,553.7	87.7429	12,553.7	86.1197	12,553.7	87.1672	12,553.7	82.8034	12,553.7	83.7319	12,553.7	78.1674	12,553.7	78.4092	12,553.7	73.629	12,553.7	72.804	12,553.7	70.0804	12,553.7	61.2803	12,553.7	62.769	12,553.7	69.5796	12,553.7	51.0899	12,553.7	67.1495	12,553.7	51.7034	12,553.7	57.3078	12,553.7	51.9674	12,553.7	37.57	12,553.7	50.9451	12,553.7	46.837	12,553.7	44.4021	12,553.7	48.2802	12,553.7	41.203	12,553.7	47.7303	12,553.7	45.532	12,553.7	45.4657	12,553.7	46.9504	12,553.7	25.2065	12,553.7	47.0625	12,553.7	29.6378	12,553.7	43.3293	12,553.7	43.6902	12,553.7	49.0452
12,996.1	88.9731	12,996.1	88.7503	12,996.1	88.168	12,996.1	86.5595	12,996.1	87.5882	12,996.1	82.1517	12,996.1	84.1449	12,996.1	77.3279	12,996.1	78.1725	12,996.1	71.5936	12,996.1	71.8897	12,996.1	68.5442	12,996.1	69.2333	12,996.1	62.0967	12,996.1	69.5662	12,996.1	51.3929	12,996.1	69.8893	12,996.1	49.8253	12,996.1	56.4863	12,996.1	50.1276	12,996.1	51.4994	12,996.1	25.1841	12,996.1	43.9533	12,996.1	40.5646	12,996.1	34.6888	12,996.1	31.3788	12,996.1	44.7909	12,996.1	35.2436	12,996.1	38.8064	12,996.1	47.9506	12,996.1	34.2658	12,996.1	43.8665	12,996.1	44.5613	12,996.1	46.8433	12,996.1	47.5742	12,996.1	42.793
13,454.6	89.7267	13,454.6	89.3709	13,454.6	88.7801	13,454.6	87.0281	13,454.6	87.7107	13,454.6	82.0399	13,454.6	84.2292	13,454.6	75.6177	13,454.6	77.6704	13,454.6	71.5228	13,454.6	72.4224	13,454.6	66.305	13,454.6	69.2634	13,454.6	63.8181	13,454.6	69.8225	13,454.6	54.0664	13,454.6	71.1651	13,454.6	50.9888	13,454.6	54.6167	13,454.6	46.28	13,454.6	56.0951	13,454.6	48.7386	13,454.6	50.8739	13,454.6	39.5497	13,454.6	48.7274	13,454.6	42.5246	13,454.6	41.4376	13,454.6	39.3372	13,454.6	39.5749	13,454.6	47.8286	13,454.6	32.3999	13,454.6	43.2532	13,454.6	43.1492	13,454.6	43.2579	13,454.6	45.3761	13,454.6	48.89
13,929.2	90.2351	13,929.2	89.7443	13,929.2	89.4668	13,929.2	87.0587	13,929.2	87.7758	13,929.2	81.6073	13,929.2	82.9038	13,929.2	73.3446	13,929.2	75.6525	13,929.2	69.6163	13,929.2	69.4964	13,929.2	64.3521	13,929.2	67.5617	13,929.2	64.9887	13,929.2	67.4728	13,929.2	59.8496	13,929.2	68.0939	13,929.2	54.3365	13,929.2	43.0879	13,929.2	43.5602	13,929.2	60.802	13,929.2	47.5221	13,929.2	48.4137	13,929.2	44.1862	13,929.2	33.8993	13,929.2	38.2276	13,929.2	40.8997	13,929.2	41.8292	13,929.2	35.057	13,929.2	48.9655	13,929.2	46.53	13,929.2	42.4297	13,929.2	43.2868	13,929.2	41.8006	13,929.2	47.9808	13,929.2	48.1091
14,419.9	90.2814	14,419.9	89.5074	14,419.9	89.3052	14,419.9	86.1432	14,419.9	87.4686	14,419.9	80.5109	14,419.9	81.3726	14,419.9	71.3004	14,419.9	73.4547	14,419.9	63.7431	14,419.9	69.157	14,419.9	69.7897	14,419.9	65.6762	14,419.9	68.8314	14,419.9	66.4334	14,419.9	62.9935	14,419.9	60.4074	14,419.9	51.5968	14,419.9	39.2182	14,419.9	29.313	14,419.9	62.5149	14,419.9	51.0068	14,419.9	47.317	14,419.9	48.6333	14,419.9	40.3865	14,419.9	27.1914	14,419.9	38.2101	14,419.9	50.5093	14,419.9	47.7471	14,419.9	49.0863	14,419.9	35.8752	14,419.9	47.9472	14,419.9	46.5355	14,419.9	45.4158	14,419.9	43.0468	14,419.9	48.4554
14,928.2	89.743	14,928.2	88.8392	14,928.2	88.903	14,928.2	85.1794	14,928.2	86.5341	14,928.2	78.6198	14,928.2	79.852	14,928.2	73.8844	14,928.2	72.6609	14,928.2	70.2913	14,928.2	67.6125	14,928.2	72.8529	14,928.2	58.1896	14,928.2	70.4328	14,928.2	47.8574	14,928.2	64.9103	14,928.2	60.4803	14,928.2	57.1179	14,928.2	58.8295	14,928.2	48.4061	14,928.2	64.7932	14,928.2	53.5529	14,928.2	52.9628	14,928.2	50.2679	14,928.2	43.4086	14,928.2	43.9047	14,928.2	44.1336	14,928.2	49.7675	14,928.2	46.9101	14,928.2	43.2039	14,928.2	31.7274	14,928.2	42.7112	14,928.2	51.4669	14,928.2	47.9462	14,928.2	32.9426	14,928.2	44.2568
15,455.6	89.1736	15,455.6	87.5285	15,455.6	88.4549	15,455.6	84.0294	15,455.6	84.876	15,455.6	78.5592	15,455.6	79.7617	15,455.6	73.4414	15,455.6	73.6058	15,455.6	72.5603	15,455.6	66.7354	15,455.6	73.5782	15,455.6	64.1511	15,455.6	69.6599	15,455.6	60.3861	15,455.6	66.1363	15,455.6	60.543	15,455.6	58.0612	15,455.6	61.3727	15,455.6	48.4903	15,455.6	64.8446	15,455.6	49.8912	15,455.6	54.7885	15,455.6	46.0066	15,455.6	46.386	15,455.6	45.3607	15,455.6	39.7716	15,455.6	49.3389	15,455.6	46.638	15,455.6	39.5336	15,455.6	38.046	15,455.6	44.2109	15,455.6	46.1902	15,455.6	46.0526	15,455.6	37.0218	15,455.6	47.4521
16,000.5	88.1981	16,000.5	85.9033	16,000.5	86.4663	16,000.5	82.0084	16,000.5	83.3287	16,000.5	77.1205	16,000.5	77.5913	16,000.5	71.9573	16,000.5	65.9061	16,000.5	70.6597	16,000.5	66.6744	16,000.5	74.3223	16,000.5	67.875	16,000.5	69.8357	16,000.5	61.1326	16,000.5	65.6768	16,000.5	60.7522	16,000.5	57.1948	16,000.5	58.8581	16,000.5	45.1225	16,000.5	63.1121	16,000.5	48.772	16,000.5	49.3368	16,000.5	46.3112	16,000.5	26.4151	16,000.5	46.6449	16,000.5	36.7063	16,000.5	27.7907	16,000.5	43.4149	16,000.5	32.2084	16,000.5	35.9073	16,000.5	47.9584	16,000.5	40.9042	16,000.5	47.6298	16,000.5	30.1189	16,000.5	45.5988
16,564.5	87.4507	16,564.5	84.8798	16,564.5	85.2641	16,564.5	80.9389	16,564.5	81.5393	16,564.5	74.9176	16,564.5	74.634	16,564.5	70.7956	16,564.5	64.9423	16,564.5	70.9544	16,564.5	66.6864	16,564.5	72.8702	16,564.5	67.2382	16,564.5	68.4227	16,564.5	62.8295	16,564.5	63.6468	16,564.5	58.594	16,564.5	54.4626	16,564.5	56.0219	16,564.5	35.7282	16,564.5	62.4152	16,564.5	31.3511	16,564.5	49.9403	16,564.5	34.5432	16,564.5	42.8424	16,564.5	44.6087	16,564.5	41.7116	16,564.5	34.9484	16,564.5	47.6721	16,564.5	32.3249	16,564.5	31.757	16,564.5	40.0818	16,564.5	45.8076	16,564.5	47.6179	16,564.5	38.7388	16,564.5	43.5125
17,148.9	87.4899	17,148.9	84.9515	17,148.9	85.0693	17,148.9	80.1048	17,148.9	80.8962	17,148.9	72.8453	17,148.9	71.5573	17,148.9	70.1141	17,148.9	68.8223	17,148.9	68.8394	17,148.9	66.4835	17,148.9	69.7322	17,148.9	65.6296	17,148.9	63.9796	17,148.9	60.2179	17,148.9	62.0674	17,148.9	57.7166	17,148.9	45.7637	17,148.9	53.9568	17,148.9	44.059	17,148.9	61.3869	17,148.9	44.9488	17,148.9	49.3574	17,148.9	35.8602	17,148.9	42.324	17,148.9	42.6016	17,148.9	37.3769	17,148.9	33.9411	17,148.9	41.6011	17,148.9	31.2499	17,148.9	41.8402	17,148.9	34.0932	17,148.9	41.2975	17,148.9	41.0331	17,148.9	36.8739	17,148.9	40.1681
17,752.4	86.7766	17,752.4	83.8751	17,752.4	84.2743	17,752.4	77.772	17,752.4	78.1399	17,752.4	70.7384	17,752.4	67.9636	17,752.4	70.0504	17,752.4	69.4941	17,752.4	68.4378	17,752.4	67.8557	17,752.4	66.088	17,752.4	64.7386	17,752.4	60.6026	17,752.4	59.0601	17,752.4	54.7314	17,752.4	57.6463	17,752.4	42.5886	17,752.4	55.2165	17,752.4	39.582	17,752.4	63.2557	17,752.4	37.4005	17,752.4	51.1947	17,752.4	32.0918	17,752.4	39.0175	17,752.4	32.9065	17,752.4	39.1169	17,752.4	39.0163	17,752.4	40.5935	17,752.4	34.6227	17,752.4	39.7456	17,752.4	30.9121	17,752.4	37.9518	17,752.4	38.9601	17,752.4	34.8364	17,752.4	37.5791
18,379.4	85.6627	18,379.4	82.7831	18,379.4	83.0029	18,379.4	76.2148	18,379.4	75.245	18,379.4	72.9434	18,379.4	71.7542	18,379.4	71.9024	18,379.4	71.8754	18,379.4	69.0839	18,379.4	68.7722	18,379.4	63.0531	18,379.4	63.3448	18,379.4	57.6298	18,379.4	56.9259	18,379.4	45.3052	18,379.4	55.6948	18,379.4	35.89	18,379.4	55.2721	18,379.4	24.0547	18,379.4	64.2189	18,379.4	39.4346	18,379.4	52.323	18,379.4	24.5652	18,379.4	41.0587	18,379.4	38.5891	18,379.4	38.281	18,379.4	41.5392	18,379.4	38.7505	18,379.4	36.6858	18,379.4	38.8106	18,379.4	33.6927	18,379.4	35.2891	18,379.4	25.2368	18,379.4	27.2597	18,379.4	37.3468
19,026.9	84.4569	19,026.9	81.6205	19,026.9	81.5732	19,026.9	76.1721	19,026.9	75.1956	19,026.9	74.2144	19,026.9	74.4078	19,026.9	71.8326	19,026.9	72.2513	19,026.9	67.5198	19,026.9	66.516	19,026.9	60.7802	19,026.9	59.3519	19,026.9	54.0221	19,026.9	46.3798	19,026.9	44.74	19,026.9	49.067	19,026.9	38.2996	19,026.9	57.3384	19,026.9	22.0861	19,026.9	64.1198	19,026.9	41.6921	19,026.9	50.3787	19,026.9	31.7887	19,026.9	40.0454	19,026.9	36.2681	19,026.9	33.938	19,026.9	41.7624	19,026.9	39.7967	19,026.9	40.4415	19,026.9	38.9538	19,026.9	34.5889	19,026.9	32.3758	19,026.9	36.2475	19,026.9	32.3269	19,026.9	31.7607
19,697.8	83.198	19,697.8	80.5168	19,697.8	81.0092	19,697.8	76.2864	19,697.8	76.8032	19,697.8	73.6044	19,697.8	75.3753	19,697.8	69.3869	19,697.8	70.9876	19,697.8	63.6183	19,697.8	63.5472	19,697.8	55.5835	19,697.8	51.5396	19,697.8	45.3125	19,697.8	48.87	19,697.8	48.6337	19,697.8	39.3217	19,697.8	41.466	19,697.8	58.0289	19,697.8	35.6338	19,697.8	64.1488	19,697.8	36.4665	19,697.8	48.2311	19,697.8	33.8141	19,697.8	35.0898	19,697.8	34.2773	19,697.8	33.558	19,697.8	41.8843	19,697.8	35.0989	19,697.8	40.6582	19,697.8	37.095	19,697.8	37.3132	19,697.8	32.2851	19,697.8	40.7351	19,697.8	33.3615	19,697.8	31.4293
19,999.5	82.4072	19,999.5	80.4776	19,999.5	80.5901	19,999.5	76.9286	19,999.5	78.1902	19,999.5	73.7865	19,999.5	75.6687	19,999.5	67.7512	19,999.5	70.1498	19,999.5	60.816	19,999.5	60.3344	19,999.5	51.7373	19,999.5	53.1781	19,999.5	52.7519	19,999.5	50.3017	19,999.5	54.3673	19,999.5	48.4287	19,999.5	47.1157	19,999.5	57.9088	19,999.5	35.931	19,999.5	64.2371	19,999.5	45.2876	19,999.5	41.414	19,999.5	38.5267	19,999.5	43.8343	19,999.5	30.02	19,999.5	39.2501	19,999.5	35.7362	19,999.5	40.2022	19,999.5	36.1635	19,999.5	38.7436	19,999.5	30.9574	19,999.5	31.4443	19,999.5	45.8636	19,999.5	40.8455	19,999.5	35.8812
