"SPL Horizontal"
"On-Axis"		"10°"		"-10°"		"20°"		"-20°"		"30°"		"-30°"		"40°"		"-40°"		"50°"		"-50°"		"60°"		"-60°"		"70°"		"-70°"		"80°"		"-80°"		"90°"		"-90°"		"100°"		"-100°"		"110°"		"-110°"		"120°"		"-120°"		"130°"		"-130°"		"140°"		"-140°"		"150°"		"-150°"		"160°"		"-160°"		"170°"		"-170°"		"180°"
"Frequency / Hz"	"Sound Pressure Level / dB (re 20 µPa/V)  [2.83  V @ 1. m]"	"Frequency / Hz"	"Sound Pressure Level / dB (re 20 µPa/V)  [2.83  V @ 1. m]"	"Frequency / Hz"	"Sound Pressure Level / dB (re 20 µPa/V)  [2.83  V @ 1. m]"	"Frequency / Hz"	"Sound Pressure Level / dB (re 20 µPa/V)  [2.83  V @ 1. m]"	"Frequency / Hz"	"Sound Pressure Level / dB (re 20 µPa/V)  [2.83  V @ 1. m]"	"Frequency / Hz"	"Sound Pressure Level / dB (re 20 µPa/V)  [2.83  V @ 1. m]"	"Frequency / Hz"	"Sound Pressure Level / dB (re 20 µPa/V)  [2.83  V @ 1. m]"	"Frequency / Hz"	"Sound Pressure Level / dB (re 20 µPa/V)  [2.83  V @ 1. m]"	"Frequency / Hz"	"Sound Pressure Level / dB (re 20 µPa/V)  [2.83  V @ 1. m]"	"Frequency / Hz"	"Sound Pressure Level / dB (re 20 µPa/V)  [2.83  V @ 1. m]"	"Frequency / Hz"	"Sound Pressure Level / dB (re 20 µPa/V)  [2.83  V @ 1. m]"	"Frequency / Hz"	"Sound Pressure Level / dB (re 20 µPa/V)  [2.83  V @ 1. m]"	"Frequency / Hz"	"Sound Pressure Level / dB (re 20 µPa/V)  [2.83  V @ 1. m]"	"Frequency / Hz"	"Sound Pressure Level / dB (re 20 µPa/V)  [2.83  V @ 1. m]"	"Frequency / Hz"	"Sound Pressure Level / dB (re 20 µPa/V)  [2.83  V @ 1. m]"	"Frequency / Hz"	"Sound Pressure Level / dB (re 20 µPa/V)  [2.83  V @ 1. m]"	"Frequency / Hz"	"Sound Pressure Level / dB (re 20 µPa/V)  [2.83  V @ 1. m]"	"Frequency / Hz"	"Sound Pressure Level / dB (re 20 µPa/V)  [2.83  V @ 1. m]"	"Frequency / Hz"	"Sound Pressure Level / dB (re 20 µPa/V)  [2.83  V @ 1. m]"	"Frequency / Hz"	"Sound Pressure Level / dB (re 20 µPa/V)  [2.83  V @ 1. m]"	"Frequency / Hz"	"Sound Pressure Level / dB (re 20 µPa/V)  [2.83  V @ 1. m]"	"Frequency / Hz"	"Sound Pressure Level / dB (re 20 µPa/V)  [2.83  V @ 1. m]"	"Frequency / Hz"	"Sound Pressure Level / dB (re 20 µPa/V)  [2.83  V @ 1. m]"	"Frequency / Hz"	"Sound Pressure Level / dB (re 20 µPa/V)  [2.83  V @ 1. m]"	"Frequency / Hz"	"Sound Pressure Level / dB (re 20 µPa/V)  [2.83  V @ 1. m]"	"Frequency / Hz"	"Sound Pressure Level / dB (re 20 µPa/V)  [2.83  V @ 1. m]"	"Frequency / Hz"	"Sound Pressure Level / dB (re 20 µPa/V)  [2.83  V @ 1. m]"	"Frequency / Hz"	"Sound Pressure Level / dB (re 20 µPa/V)  [2.83  V @ 1. m]"	"Frequency / Hz"	"Sound Pressure Level / dB (re 20 µPa/V)  [2.83  V @ 1. m]"	"Frequency / Hz"	"Sound Pressure Level / dB (re 20 µPa/V)  [2.83  V @ 1. m]"	"Frequency / Hz"	"Sound Pressure Level / dB (re 20 µPa/V)  [2.83  V @ 1. m]"	"Frequency / Hz"	"Sound Pressure Level / dB (re 20 µPa/V)  [2.83  V @ 1. m]"	"Frequency / Hz"	"Sound Pressure Level / dB (re 20 µPa/V)  [2.83  V @ 1. m]"	"Frequency / Hz"	"Sound Pressure Level / dB (re 20 µPa/V)  [2.83  V @ 1. m]"	"Frequency / Hz"	"Sound Pressure Level / dB (re 20 µPa/V)  [2.83  V @ 1. m]"	"Frequency / Hz"	"Sound Pressure Level / dB (re 20 µPa/V)  [2.83  V @ 1. m]"
20.5078	98.1654	20.5078	98.3228	20.5078	97.9337	20.5078	98.405	20.5078	97.6282	20.5078	98.4109	20.5078	97.2492	20.5078	98.3392	20.5078	96.7977	20.5078	98.1886	20.5078	96.2749	20.5078	97.9589	20.5078	95.6834	20.5078	97.6509	20.5078	95.0268	20.5078	97.2669	20.5078	94.3119	20.5078	96.8106	20.5078	93.5507	20.5078	96.2874	20.5078	92.7665	20.5078	95.7043	20.5078	91.9995	20.5078	95.0715	20.5078	91.3119	20.5078	94.4028	20.5078	90.7806	20.5078	93.7177	20.5078	90.4714	20.5078	93.0409	20.5078	90.4071	20.5078	92.3984	20.5078	90.5588	20.5078	91.8125	20.5078	90.8717	20.5078	91.2987
21.9727	99.6045	21.9727	99.7423	21.9727	99.421	21.9727	99.8324	21.9727	99.1942	21.9727	99.8729	21.9727	98.9271	21.9727	99.8628	21.9727	98.6241	21.9727	99.8017	21.9727	98.2913	21.9727	99.6904	21.9727	97.9371	21.9727	99.5313	21.9727	97.5729	21.9727	99.3285	21.9727	97.2132	21.9727	99.0877	21.9727	96.8755	21.9727	98.8162	21.9727	96.5794	21.9727	98.5225	21.9727	96.3434	21.9727	98.2161	21.9727	96.1817	21.9727	97.9069	21.9727	96.0998	21.9727	97.6046	21.9727	96.0943	21.9727	97.3177	21.9727	96.1542	21.9727	97.0527	21.9727	96.2659	21.9727	96.8132	21.9727	96.4174	21.9727	96.601
23.4375	100.067	23.4375	100.13	23.4375	99.9817	23.4375	100.168	23.4375	99.8756	23.4375	100.18	23.4375	99.7498	23.4375	100.164	23.4375	99.606	23.4375	100.117	23.4375	99.4467	23.4375	100.038	23.4375	99.2754	23.4375	99.9269	23.4375	99.0965	23.4375	99.7858	23.4375	98.9158	23.4375	99.6181	23.4375	98.7393	23.4375	99.4292	23.4375	98.5726	23.4375	99.226	23.4375	98.4207	23.4375	99.0166	23.4375	98.2877	23.4375	98.8091	23.4375	98.1769	23.4375	98.612	23.4375	98.0916	23.4375	98.4332	23.4375	98.0353	23.4375	98.2798	23.4375	98.0113	23.4375	98.1579	23.4375	98.0227	23.4375	98.0715
24.9023	99.7592	24.9023	99.7338	24.9023	99.774	24.9023	99.6984	24.9023	99.7773	24.9023	99.6535	24.9023	99.7681	24.9023	99.5991	24.9023	99.7451	24.9023	99.5347	24.9023	99.7074	24.9023	99.4599	24.9023	99.6541	24.9023	99.3742	24.9023	99.585	24.9023	99.2777	24.9023	99.5006	24.9023	99.1716	24.9023	99.4023	24.9023	99.0585	24.9023	99.2924	24.9023	98.9423	24.9023	99.174	24.9023	98.8284	24.9023	99.0509	24.9023	98.7228	24.9023	98.9277	24.9023	98.6316	24.9023	98.8098	24.9023	98.5603	24.9023	98.7029	24.9023	98.5136	24.9023	98.6132	24.9023	98.4949	24.9023	98.5461	24.9023	98.5059
26.3672	93.2121	26.3672	92.9754	26.3672	93.4756	26.3672	92.7721	26.3672	93.7594	26.3672	92.6084	26.3672	94.0569	26.3672	92.4903	26.3672	94.3614	26.3672	92.423	26.3672	94.6656	26.3672	92.4104	26.3672	94.9615	26.3672	92.4546	26.3672	95.2405	26.3672	92.5548	26.3672	95.4936	26.3672	92.7076	26.3672	95.7117	26.3672	92.9065	26.3672	95.8861	26.3672	93.1439	26.3672	96.0095	26.3672	93.4114	26.3672	96.0759	26.3672	93.7018	26.3672	96.0815	26.3672	94.008	26.3672	96.0248	26.3672	94.3237	26.3672	95.9071	26.3672	94.6413	26.3672	95.7328	26.3672	94.9518	26.3672	95.5088	26.3672	95.2448
27.832	100.218	27.832	100.33	27.832	100.06	27.832	100.398	27.832	99.8604	27.832	100.419	27.832	99.6208	27.832	100.395	27.832	99.3464	27.832	100.325	27.832	99.0438	27.832	100.212	27.832	98.7227	27.832	100.06	27.832	98.3955	27.832	99.8735	27.832	98.0767	27.832	99.6594	27.832	97.7817	27.832	99.4254	27.832	97.5255	27.832	99.1789	27.832	97.3205	27.832	98.9265	27.832	97.1753	27.832	98.6731	27.832	97.0941	27.832	98.4224	27.832	97.0761	27.832	98.1776	27.832	97.1172	27.832	97.9424	27.832	97.2105	27.832	97.7214	27.832	97.3478	27.832	97.5208
29.2969	104.436	29.2969	104.461	29.2969	104.377	29.2969	104.451	29.2969	104.284	29.2969	104.406	29.2969	104.16	29.2969	104.326	29.2969	104.005	29.2969	104.21	29.2969	103.821	29.2969	104.06	29.2969	103.612	29.2969	103.876	29.2969	103.381	29.2969	103.662	29.2969	103.134	29.2969	103.422	29.2969	102.876	29.2969	103.161	29.2969	102.616	29.2969	102.89	29.2969	102.362	29.2969	102.616	29.2969	102.124	29.2969	102.351	29.2969	101.91	29.2969	102.105	29.2969	101.732	29.2969	101.889	29.2969	101.596	29.2969	101.713	29.2969	101.511	29.2969	101.582	29.2969	101.479	29.2969	101.503
30.7617	101.035	30.7617	101.02	30.7617	101.026	30.7617	100.982	30.7617	100.993	30.7617	100.922	30.7617	100.935	30.7617	100.838	30.7617	100.851	30.7617	100.733	30.7617	100.742	30.7617	100.604	30.7617	100.607	30.7617	100.453	30.7617	100.448	30.7617	100.278	30.7617	100.266	30.7617	100.081	30.7617	100.063	30.7617	99.8649	30.7617	99.8439	30.7617	99.6335	30.7617	99.6138	30.7617	99.3951	30.7617	99.3802	30.7617	99.1603	30.7617	99.1523	30.7617	98.9421	30.7617	98.9409	30.7617	98.7546	30.7617	98.7581	30.7617	98.6107	30.7617	98.6157	30.7617	98.5209	30.7617	98.5243	30.7617	98.4916
32.2266	98.1599	32.2266	98.1147	32.2266	98.2073	32.2266	98.073	32.2266	98.2549	32.2266	98.0353	32.2266	98.3006	32.2266	98.0017	32.2266	98.3417	32.2266	97.9712	32.2266	98.3756	32.2266	97.9422	32.2266	98.3994	32.2266	97.9127	32.2266	98.4109	32.2266	97.8804	32.2266	98.4082	32.2266	97.8437	32.2266	98.3899	32.2266	97.8021	32.2266	98.3554	32.2266	97.7569	32.2266	98.3049	32.2266	97.7113	32.2266	98.2392	32.2266	97.6702	32.2266	98.1603	32.2266	97.6399	32.2266	98.0712	32.2266	97.6263	32.2266	97.9765	32.2266	97.6342	32.2266	97.882	32.2266	97.6658	32.2266	97.7943	32.2266	97.7204
33.6914	98.9241	33.6914	98.9249	33.6914	98.9254	33.6914	98.9281	33.6914	98.9288	33.6914	98.9334	33.6914	98.9339	33.6914	98.9406	33.6914	98.9404	33.6914	98.9491	33.6914	98.9478	33.6914	98.9579	33.6914	98.9558	33.6914	98.9659	33.6914	98.9641	33.6914	98.9719	33.6914	98.9723	33.6914	98.975	33.6914	98.9804	33.6914	98.9745	33.6914	98.9882	33.6914	98.9709	33.6914	98.9951	33.6914	98.9651	33.6914	99.0006	33.6914	98.959	33.6914	99.0037	33.6914	98.9544	33.6914	99.0036	33.6914	98.953	33.6914	98.9997	33.6914	98.9556	33.6914	98.9923	33.6914	98.9623	33.6914	98.9825	33.6914	98.9718
35.1562	98.5018	35.1562	98.482	35.1562	98.5335	35.1562	98.475	35.1562	98.576	35.1562	98.4814	35.1562	98.6279	35.1562	98.5013	35.1562	98.6875	35.1562	98.5348	35.1562	98.7532	35.1562	98.5813	35.1562	98.8231	35.1562	98.6397	35.1562	98.8957	35.1562	98.7084	35.1562	98.9697	35.1562	98.7854	35.1562	99.0442	35.1562	98.8681	35.1562	99.1183	35.1562	98.9539	35.1562	99.1906	35.1562	99.04	35.1562	99.2589	35.1562	99.1238	35.1562	99.3203	35.1562	99.2028	35.1562	99.3714	35.1562	99.2743	35.1562	99.4087	35.1562	99.3356	35.1562	99.4295	35.1562	99.384	35.1562	99.4324	35.1562	99.4169
36.6211	98.0629	36.6211	97.9973	36.6211	98.1647	36.6211	97.9715	36.6211	98.2978	36.6211	97.9876	36.6211	98.4566	36.6211	98.0462	36.6211	98.6353	36.6211	98.1459	36.6211	98.8282	36.6211	98.2837	36.6211	99.0297	36.6211	98.4548	36.6211	99.235	36.6211	98.6532	36.6211	99.4398	36.6211	98.8719	36.6211	99.6401	36.6211	99.103	36.6211	99.8319	36.6211	99.3386	36.6211	100.011	36.6211	99.5707	36.6211	100.173	36.6211	99.7918	36.6211	100.312	36.6211	99.995	36.6211	100.424	36.6211	100.174	36.6211	100.504	36.6211	100.324	36.6211	100.548	36.6211	100.438	36.6211	100.552	36.6211	100.515
38.0859	98.7483	38.0859	98.5908	38.0859	98.9192	38.0859	98.4509	38.0859	99.0992	38.0859	98.3325	38.0859	99.2839	38.0859	98.2394	38.0859	99.469	38.0859	98.1746	38.0859	99.6503	38.0859	98.1407	38.0859	99.8237	38.0859	98.1389	38.0859	99.9853	38.0859	98.1694	38.0859	100.131	38.0859	98.2312	38.0859	100.256	38.0859	98.3229	38.0859	100.355	38.0859	98.4425	38.0859	100.425	38.0859	98.5885	38.0859	100.459	38.0859	98.759	38.0859	100.453	38.0859	98.9514	38.0859	100.406	38.0859	99.1614	38.0859	100.315	38.0859	99.3825	38.0859	100.184	38.0859	99.6057	38.0859	100.017	38.0859	99.8207
39.5508	100.878	39.5508	100.856	39.5508	100.893	39.5508	100.826	39.5508	100.9	39.5508	100.788	39.5508	100.898	39.5508	100.744	39.5508	100.888	39.5508	100.694	39.5508	100.87	39.5508	100.638	39.5508	100.844	39.5508	100.579	39.5508	100.812	39.5508	100.517	39.5508	100.774	39.5508	100.455	39.5508	100.73	39.5508	100.393	39.5508	100.682	39.5508	100.337	39.5508	100.63	39.5508	100.288	39.5508	100.576	39.5508	100.249	39.5508	100.519	39.5508	100.223	39.5508	100.461	39.5508	100.211	39.5508	100.404	39.5508	100.214	39.5508	100.351	39.5508	100.232	39.5508	100.302	39.5508	100.262
41.0156	100.979	41.0156	100.938	41.0156	101.016	41.0156	100.894	41.0156	101.048	41.0156	100.849	41.0156	101.074	41.0156	100.805	41.0156	101.093	41.0156	100.762	41.0156	101.105	41.0156	100.723	41.0156	101.11	41.0156	100.689	41.0156	101.108	41.0156	100.662	41.0156	101.1	41.0156	100.643	41.0156	101.086	41.0156	100.633	41.0156	101.069	41.0156	100.633	41.0156	101.048	41.0156	100.643	41.0156	101.025	41.0156	100.663	41.0156	101	41.0156	100.69	41.0156	100.972	41.0156	100.724	41.0156	100.943	41.0156	100.761	41.0156	100.911	41.0156	100.801	41.0156	100.877	41.0156	100.84
42.4805	100.972	42.4805	100.917	42.4805	101.047	42.4805	100.885	42.4805	101.142	42.4805	100.876	42.4805	101.253	42.4805	100.892	42.4805	101.38	42.4805	100.933	42.4805	101.519	42.4805	101	42.4805	101.667	42.4805	101.091	42.4805	101.822	42.4805	101.208	42.4805	101.98	42.4805	101.346	42.4805	102.136	42.4805	101.504	42.4805	102.288	42.4805	101.677	42.4805	102.43	42.4805	101.86	42.4805	102.557	42.4805	102.046	42.4805	102.665	42.4805	102.228	42.4805	102.748	42.4805	102.397	42.4805	102.803	42.4805	102.546	42.4805	102.824	42.4805	102.667	42.4805	102.808	42.4805	102.756
43.9453	101.384	43.9453	101.512	43.9453	101.264	43.9453	101.643	43.9453	101.159	43.9453	101.772	43.9453	101.077	43.9453	101.896	43.9453	101.027	43.9453	102.014	43.9453	101.015	43.9453	102.125	43.9453	101.049	43.9453	102.228	43.9453	101.131	43.9453	102.325	43.9453	101.26	43.9453	102.417	43.9453	101.431	43.9453	102.507	43.9453	101.634	43.9453	102.595	43.9453	101.857	43.9453	102.683	43.9453	102.087	43.9453	102.768	43.9453	102.31	43.9453	102.847	43.9453	102.513	43.9453	102.914	43.9453	102.686	43.9453	102.962	43.9453	102.822	43.9453	102.983	43.9453	102.917	43.9453	102.97
45.4102	103.204	45.4102	103.328	45.4102	103.033	45.4102	103.407	45.4102	102.818	45.4102	103.441	45.4102	102.559	45.4102	103.429	45.4102	102.258	45.4102	103.372	45.4102	101.917	45.4102	103.271	45.4102	101.54	45.4102	103.128	45.4102	101.136	45.4102	102.944	45.4102	100.714	45.4102	102.723	45.4102	100.289	45.4102	102.468	45.4102	99.8827	45.4102	102.184	45.4102	99.5232	45.4102	101.875	45.4102	99.2403	45.4102	101.547	45.4102	99.0615	45.4102	101.203	45.4102	99.0034	45.4102	100.849	45.4102	99.0667	45.4102	100.49	45.4102	99.2363	45.4102	100.135	45.4102	99.488	45.4102	99.7951
46.875	103.098	46.875	103.137	46.875	103.019	46.875	103.137	46.875	102.903	46.875	103.097	46.875	102.749	46.875	103.016	46.875	102.557	46.875	102.893	46.875	102.328	46.875	102.728	46.875	102.061	46.875	102.52	46.875	101.759	46.875	102.272	46.875	101.422	46.875	101.984	46.875	101.055	46.875	101.661	46.875	100.665	46.875	101.306	46.875	100.263	46.875	100.925	46.875	99.8651	46.875	100.528	46.875	99.4926	46.875	100.125	46.875	99.1713	46.875	99.7342	46.875	98.929	46.875	99.3771	46.875	98.7898	46.875	99.0801	46.875	98.7695	46.875	98.8701
48.3398	102.184	48.3398	102.148	48.3398	102.191	48.3398	102.082	48.3398	102.169	48.3398	101.987	48.3398	102.118	48.3398	101.863	48.3398	102.039	48.3398	101.71	48.3398	101.93	48.3398	101.531	48.3398	101.792	48.3398	101.327	48.3398	101.624	48.3398	101.102	48.3398	101.426	48.3398	100.86	48.3398	101.201	48.3398	100.606	48.3398	100.952	48.3398	100.345	48.3398	100.684	48.3398	100.084	48.3398	100.405	48.3398	99.8344	48.3398	100.125	48.3398	99.6067	48.3398	99.8564	48.3398	99.4155	48.3398	99.6142	48.3398	99.2756	48.3398	99.4143	48.3398	99.2005	48.3398	99.2719	48.3398	99.1987
51.2695	102.212	51.2695	102.179	51.2695	102.24	51.2695	102.143	51.2695	102.263	51.2695	102.104	51.2695	102.281	51.2695	102.064	51.2695	102.292	51.2695	102.024	51.2695	102.297	51.2695	101.984	51.2695	102.296	51.2695	101.947	51.2695	102.291	51.2695	101.912	51.2695	102.281	51.2695	101.884	51.2695	102.27	51.2695	101.862	51.2695	102.257	51.2695	101.848	51.2695	102.242	51.2695	101.845	51.2695	102.227	51.2695	101.854	51.2695	102.209	51.2695	101.875	51.2695	102.187	51.2695	101.906	51.2695	102.159	51.2695	101.946	51.2695	102.125	51.2695	101.992	51.2695	102.085	51.2695	102.039
52.7344	102.174	52.7344	102.15	52.7344	102.196	52.7344	102.122	52.7344	102.215	52.7344	102.093	52.7344	102.23	52.7344	102.063	52.7344	102.243	52.7344	102.033	52.7344	102.254	52.7344	102.003	52.7344	102.264	52.7344	101.976	52.7344	102.274	52.7344	101.954	52.7344	102.286	52.7344	101.939	52.7344	102.3	52.7344	101.933	52.7344	102.317	52.7344	101.94	52.7344	102.335	52.7344	101.961	52.7344	102.353	52.7344	101.996	52.7344	102.367	52.7344	102.044	52.7344	102.375	52.7344	102.101	52.7344	102.372	52.7344	102.164	52.7344	102.356	52.7344	102.226	52.7344	102.326	52.7344	102.281
54.1992	102.349	54.1992	102.376	54.1992	102.308	54.1992	102.39	54.1992	102.255	54.1992	102.389	54.1992	102.193	54.1992	102.374	54.1992	102.124	54.1992	102.343	54.1992	102.049	54.1992	102.3	54.1992	101.971	54.1992	102.245	54.1992	101.894	54.1992	102.182	54.1992	101.822	54.1992	102.113	54.1992	101.758	54.1992	102.044	54.1992	101.704	54.1992	101.978	54.1992	101.665	54.1992	101.918	54.1992	101.64	54.1992	101.867	54.1992	101.629	54.1992	101.825	54.1992	101.632	54.1992	101.79	54.1992	101.645	54.1992	101.761	54.1992	101.664	54.1992	101.735	54.1992	101.687	54.1992	101.711
55.6641	102.495	55.6641	102.544	55.6641	102.43	55.6641	102.574	55.6641	102.352	55.6641	102.587	55.6641	102.262	55.6641	102.581	55.6641	102.164	55.6641	102.557	55.6641	102.062	55.6641	102.518	55.6641	101.96	55.6641	102.466	55.6641	101.861	55.6641	102.403	55.6641	101.77	55.6641	102.333	55.6641	101.69	55.6641	102.26	55.6641	101.626	55.6641	102.185	55.6641	101.58	55.6641	102.112	55.6641	101.554	55.6641	102.041	55.6641	101.547	55.6641	101.973	55.6641	101.557	55.6641	101.908	55.6641	101.583	55.6641	101.844	55.6641	101.622	55.6641	101.783	55.6641	101.67	55.6641	101.724
58.5938	102.852	58.5938	102.879	58.5938	102.802	58.5938	102.883	58.5938	102.732	58.5938	102.863	58.5938	102.645	58.5938	102.819	58.5938	102.544	58.5938	102.755	58.5938	102.432	58.5938	102.672	58.5938	102.316	58.5938	102.574	58.5938	102.198	58.5938	102.468	58.5938	102.085	58.5938	102.358	58.5938	101.981	58.5938	102.249	58.5938	101.89	58.5938	102.147	58.5938	101.815	58.5938	102.053	58.5938	101.758	58.5938	101.971	58.5938	101.719	58.5938	101.901	58.5938	101.696	58.5938	101.843	58.5938	101.688	58.5938	101.795	58.5938	101.692	58.5938	101.757	58.5938	101.706	58.5938	101.728
60.0586	102.533	60.0586	102.543	60.0586	102.501	60.0586	102.529	60.0586	102.448	60.0586	102.492	60.0586	102.376	60.0586	102.432	60.0586	102.29	60.0586	102.352	60.0586	102.191	60.0586	102.254	60.0586	102.085	60.0586	102.142	60.0586	101.976	60.0586	102.022	60.0586	101.868	60.0586	101.899	60.0586	101.767	60.0586	101.78	60.0586	101.676	60.0586	101.671	60.0586	101.598	60.0586	101.577	60.0586	101.535	60.0586	101.501	60.0586	101.486	60.0586	101.446	60.0586	101.45	60.0586	101.409	60.0586	101.424	60.0586	101.39	60.0586	101.406	60.0586	101.382	60.0586	101.393	60.0586	101.384
62.9883	102.034	62.9883	102.051	62.9883	102.005	62.9883	102.055	62.9883	101.965	62.9883	102.046	62.9883	101.915	62.9883	102.026	62.9883	101.857	62.9883	101.995	62.9883	101.794	62.9883	101.955	62.9883	101.731	62.9883	101.907	62.9883	101.67	62.9883	101.855	62.9883	101.615	62.9883	101.8	62.9883	101.571	62.9883	101.748	62.9883	101.539	62.9883	101.701	62.9883	101.523	62.9883	101.663	62.9883	101.522	62.9883	101.636	62.9883	101.533	62.9883	101.622	62.9883	101.554	62.9883	101.617	62.9883	101.577	62.9883	101.619	62.9883	101.599	62.9883	101.622	62.9883	101.614	62.9883	101.622
64.4531	101.89	64.4531	101.862	64.4531	101.909	64.4531	101.829	64.4531	101.921	64.4531	101.79	64.4531	101.924	64.4531	101.748	64.4531	101.92	64.4531	101.705	64.4531	101.91	64.4531	101.663	64.4531	101.896	64.4531	101.625	64.4531	101.879	64.4531	101.593	64.4531	101.863	64.4531	101.571	64.4531	101.85	64.4531	101.561	64.4531	101.842	64.4531	101.566	64.4531	101.841	64.4531	101.587	64.4531	101.847	64.4531	101.623	64.4531	101.859	64.4531	101.671	64.4531	101.875	64.4531	101.727	64.4531	101.889	64.4531	101.782	64.4531	101.896	64.4531	101.832	64.4531	101.89	64.4531	101.869
67.3828	101.39	67.3828	101.314	67.3828	101.462	67.3828	101.239	67.3828	101.527	67.3828	101.168	67.3828	101.585	67.3828	101.105	67.3828	101.633	67.3828	101.054	67.3828	101.672	67.3828	101.017	67.3828	101.703	67.3828	100.998	67.3828	101.727	67.3828	100.999	67.3828	101.748	67.3828	101.02	67.3828	101.766	67.3828	101.062	67.3828	101.784	67.3828	101.124	67.3828	101.802	67.3828	101.205	67.3828	101.822	67.3828	101.302	67.3828	101.84	67.3828	101.408	67.3828	101.855	67.3828	101.517	67.3828	101.861	67.3828	101.621	67.3828	101.854	67.3828	101.71	67.3828	101.828	67.3828	101.78
68.8477	101.519	68.8477	101.435	68.8477	101.599	68.8477	101.35	68.8477	101.67	68.8477	101.269	68.8477	101.731	68.8477	101.197	68.8477	101.78	68.8477	101.138	68.8477	101.817	68.8477	101.098	68.8477	101.844	68.8477	101.078	68.8477	101.862	68.8477	101.081	68.8477	101.875	68.8477	101.107	68.8477	101.884	68.8477	101.156	68.8477	101.893	68.8477	101.226	68.8477	101.903	68.8477	101.313	68.8477	101.915	68.8477	101.413	68.8477	101.927	68.8477	101.519	68.8477	101.938	68.8477	101.625	68.8477	101.942	68.8477	101.723	68.8477	101.935	68.8477	101.806	68.8477	101.913	68.8477	101.87
71.7773	101.922	71.7773	101.854	71.7773	101.98	71.7773	101.778	71.7773	102.027	71.7773	101.696	71.7773	102.064	71.7773	101.611	71.7773	102.09	71.7773	101.525	71.7773	102.106	71.7773	101.444	71.7773	102.114	71.7773	101.373	71.7773	102.115	71.7773	101.316	71.7773	102.111	71.7773	101.278	71.7773	102.103	71.7773	101.265	71.7773	102.093	71.7773	101.277	71.7773	102.079	71.7773	101.317	71.7773	102.064	71.7773	101.38	71.7773	102.044	71.7773	101.463	71.7773	102.02	71.7773	101.556	71.7773	101.988	71.7773	101.653	71.7773	101.947	71.7773	101.745	71.7773	101.894	71.7773	101.826
74.707	102.043	74.707	102.036	74.707	102.038	74.707	102.019	74.707	102.023	74.707	101.991	74.707	101.998	74.707	101.955	74.707	101.964	74.707	101.911	74.707	101.923	74.707	101.862	74.707	101.878	74.707	101.81	74.707	101.831	74.707	101.759	74.707	101.786	74.707	101.712	74.707	101.745	74.707	101.671	74.707	101.711	74.707	101.639	74.707	101.686	74.707	101.617	74.707	101.669	74.707	101.606	74.707	101.659	74.707	101.605	74.707	101.655	74.707	101.612	74.707	101.655	74.707	101.624	74.707	101.655	74.707	101.636	74.707	101.653	74.707	101.647
77.6367	101.991	77.6367	101.978	77.6367	101.991	77.6367	101.954	77.6367	101.98	77.6367	101.919	77.6367	101.957	77.6367	101.875	77.6367	101.926	77.6367	101.825	77.6367	101.886	77.6367	101.773	77.6367	101.84	77.6367	101.723	77.6367	101.791	77.6367	101.678	77.6367	101.743	77.6367	101.642	77.6367	101.697	77.6367	101.618	77.6367	101.659	77.6367	101.605	77.6367	101.63	77.6367	101.603	77.6367	101.612	77.6367	101.611	77.6367	101.605	77.6367	101.625	77.6367	101.609	77.6367	101.64	77.6367	101.62	77.6367	101.653	77.6367	101.635	77.6367	101.659	77.6367	101.649	77.6367	101.658
79.1016	101.939	79.1016	101.928	79.1016	101.935	79.1016	101.905	79.1016	101.919	79.1016	101.869	79.1016	101.891	79.1016	101.822	79.1016	101.852	79.1016	101.767	79.1016	101.805	79.1016	101.709	79.1016	101.753	79.1016	101.65	79.1016	101.698	79.1016	101.597	79.1016	101.644	79.1016	101.552	79.1016	101.593	79.1016	101.518	79.1016	101.55	79.1016	101.497	79.1016	101.518	79.1016	101.488	79.1016	101.497	79.1016	101.489	79.1016	101.488	79.1016	101.497	79.1016	101.489	79.1016	101.509	79.1016	101.497	79.1016	101.519	79.1016	101.509	79.1016	101.526	79.1016	101.52	79.1016	101.526
82.0312	101.93	82.0312	101.92	82.0312	101.924	82.0312	101.893	82.0312	101.901	82.0312	101.85	82.0312	101.863	82.0312	101.796	82.0312	101.811	82.0312	101.731	82.0312	101.748	82.0312	101.662	82.0312	101.677	82.0312	101.592	82.0312	101.601	82.0312	101.527	82.0312	101.526	82.0312	101.47	82.0312	101.455	82.0312	101.426	82.0312	101.394	82.0312	101.395	82.0312	101.346	82.0312	101.377	82.0312	101.314	82.0312	101.37	82.0312	101.299	82.0312	101.371	82.0312	101.299	82.0312	101.375	82.0312	101.311	82.0312	101.377	82.0312	101.33	82.0312	101.375	82.0312	101.35	82.0312	101.366
84.9609	102.189	84.9609	102.198	84.9609	102.156	84.9609	102.183	84.9609	102.101	84.9609	102.144	84.9609	102.027	84.9609	102.084	84.9609	101.936	84.9609	102.006	84.9609	101.832	84.9609	101.913	84.9609	101.718	84.9609	101.811	84.9609	101.599	84.9609	101.706	84.9609	101.479	84.9609	101.604	84.9609	101.363	84.9609	101.508	84.9609	101.255	84.9609	101.422	84.9609	101.16	84.9609	101.347	84.9609	101.083	84.9609	101.283	84.9609	101.026	84.9609	101.227	84.9609	100.992	84.9609	101.177	84.9609	100.979	84.9609	101.131	84.9609	100.987	84.9609	101.086	84.9609	101.011	84.9609	101.046
87.8906	102.291	87.8906	102.293	87.8906	102.268	87.8906	102.275	87.8906	102.227	87.8906	102.235	87.8906	102.169	87.8906	102.177	87.8906	102.098	87.8906	102.103	87.8906	102.017	87.8906	102.017	87.8906	101.929	87.8906	101.924	87.8906	101.838	87.8906	101.831	87.8906	101.748	87.8906	101.744	87.8906	101.662	87.8906	101.667	87.8906	101.584	87.8906	101.603	87.8906	101.517	87.8906	101.553	87.8906	101.462	87.8906	101.515	87.8906	101.422	87.8906	101.487	87.8906	101.397	87.8906	101.464	87.8906	101.385	87.8906	101.444	87.8906	101.385	87.8906	101.426	87.8906	101.394	87.8906	101.409
90.8203	102.404	90.8203	102.429	90.8203	102.355	90.8203	102.427	90.8203	102.283	90.8203	102.4	90.8203	102.191	90.8203	102.348	90.8203	102.082	90.8203	102.275	90.8203	101.961	90.8203	102.185	90.8203	101.832	90.8203	102.083	90.8203	101.702	90.8203	101.976	90.8203	101.576	90.8203	101.871	90.8203	101.461	90.8203	101.774	90.8203	101.363	90.8203	101.688	90.8203	101.286	90.8203	101.617	90.8203	101.234	90.8203	101.558	90.8203	101.207	90.8203	101.509	90.8203	101.204	90.8203	101.465	90.8203	101.221	90.8203	101.424	90.8203	101.252	90.8203	101.381	90.8203	101.293	90.8203	101.337
95.2148	102.304	95.2148	102.323	95.2148	102.256	95.2148	102.311	95.2148	102.18	95.2148	102.27	95.2148	102.078	95.2148	102.2	95.2148	101.955	95.2148	102.105	95.2148	101.814	95.2148	101.99	95.2148	101.66	95.2148	101.859	95.2148	101.501	95.2148	101.72	95.2148	101.343	95.2148	101.58	95.2148	101.193	95.2148	101.444	95.2148	101.058	95.2148	101.319	95.2148	100.944	95.2148	101.208	95.2148	100.855	95.2148	101.113	95.2148	100.792	95.2148	101.033	95.2148	100.757	95.2148	100.966	95.2148	100.745	95.2148	100.908	95.2148	100.754	95.2148	100.858	95.2148	100.778	95.2148	100.814
98.1445	102.266	98.1445	102.272	98.1445	102.233	98.1445	102.249	98.1445	102.175	98.1445	102.199	98.1445	102.093	98.1445	102.123	98.1445	101.991	98.1445	102.024	98.1445	101.873	98.1445	101.907	98.1445	101.743	98.1445	101.779	98.1445	101.607	98.1445	101.647	98.1445	101.471	98.1445	101.521	98.1445	101.342	98.1445	101.406	98.1445	101.227	98.1445	101.309	98.1445	101.13	98.1445	101.232	98.1445	101.058	98.1445	101.176	98.1445	101.01	98.1445	101.136	98.1445	100.986	98.1445	101.107	98.1445	100.982	98.1445	101.083	98.1445	100.993	98.1445	101.061	98.1445	101.013	98.1445	101.037
101.074	102.303	101.074	102.321	101.074	102.253	101.074	102.305	101.074	102.174	101.074	102.255	101.074	102.071	101.074	102.174	101.074	101.948	101.074	102.063	101.074	101.812	101.074	101.93	101.074	101.67	101.074	101.781	101.074	101.529	101.074	101.626	101.074	101.398	101.074	101.476	101.074	101.284	101.074	101.341	101.074	101.193	101.074	101.229	101.074	101.128	101.074	101.146	101.074	101.088	101.074	101.094	101.074	101.072	101.074	101.071	101.074	101.073	101.074	101.069	101.074	101.083	101.074	101.079	101.074	101.095	101.074	101.093	101.074	101.102	101.074	101.102
105.469	102.314	105.469	102.329	105.469	102.262	105.469	102.306	105.469	102.175	105.469	102.245	105.469	102.055	105.469	102.148	105.469	101.907	105.469	102.019	105.469	101.735	105.469	101.86	105.469	101.548	105.469	101.681	105.469	101.352	105.469	101.489	105.469	101.159	105.469	101.293	105.469	100.979	105.469	101.105	105.469	100.821	105.469	100.936	105.469	100.695	105.469	100.794	105.469	100.604	105.469	100.685	105.469	100.548	105.469	100.61	105.469	100.521	105.469	100.566	105.469	100.514	105.469	100.545	105.469	100.519	105.469	100.536	105.469	100.526	105.469	100.532
108.398	102.482	108.398	102.5	108.398	102.429	108.398	102.481	108.398	102.341	108.398	102.426	108.398	102.22	108.398	102.337	108.398	102.072	108.398	102.217	108.398	101.9	108.398	102.07	108.398	101.712	108.398	101.904	108.398	101.517	108.398	101.725	108.398	101.324	108.398	101.542	108.398	101.145	108.398	101.364	108.398	100.989	108.398	101.201	108.398	100.866	108.398	101.063	108.398	100.781	108.398	100.954	108.398	100.732	108.398	100.877	108.398	100.716	108.398	100.83	108.398	100.722	108.398	100.803	108.398	100.739	108.398	100.788	108.398	100.759	108.398	100.775
112.793	102.294	112.793	102.297	112.793	102.259	112.793	102.266	112.793	102.191	112.793	102.203	112.793	102.094	112.793	102.11	112.793	101.97	112.793	101.992	112.793	101.825	112.793	101.853	112.793	101.665	112.793	101.699	112.793	101.497	112.793	101.537	112.793	101.331	112.793	101.377	112.793	101.175	112.793	101.224	112.793	101.037	112.793	101.086	112.793	100.923	112.793	100.969	112.793	100.837	112.793	100.877	112.793	100.778	112.793	100.81	112.793	100.743	112.793	100.766	112.793	100.726	112.793	100.741	112.793	100.721	112.793	100.729	112.793	100.721	112.793	100.724
117.188	102.005	117.188	102	117.188	101.978	117.188	101.961	117.188	101.918	117.188	101.891	117.188	101.828	117.188	101.792	117.188	101.713	117.188	101.671	117.188	101.578	117.188	101.533	117.188	101.432	117.188	101.387	117.188	101.283	117.188	101.243	117.188	101.142	117.188	101.11	117.188	101.019	117.188	100.998	117.188	100.924	117.188	100.914	117.188	100.862	117.188	100.862	117.188	100.834	117.188	100.842	117.188	100.836	117.188	100.849	117.188	100.859	117.188	100.875	117.188	100.892	117.188	100.906	117.188	100.924	117.188	100.934	117.188	100.945	117.188	100.948
120.117	101.924	120.117	101.92	120.117	101.897	120.117	101.884	120.117	101.84	120.117	101.817	120.117	101.755	120.117	101.724	120.117	101.646	120.117	101.608	120.117	101.518	120.117	101.476	120.117	101.379	120.117	101.335	120.117	101.237	120.117	101.196	120.117	101.102	120.117	101.066	120.117	100.983	120.117	100.956	120.117	100.889	120.117	100.872	120.117	100.827	120.117	100.819	120.117	100.798	120.117	100.797	120.117	100.798	120.117	100.802	120.117	100.82	120.117	100.827	120.117	100.853	120.117	100.859	120.117	100.884	120.117	100.888	120.117	100.903	120.117	100.905
124.512	101.801	124.512	101.786	124.512	101.786	124.512	101.741	124.512	101.743	124.512	101.666	124.512	101.675	124.512	101.565	124.512	101.586	124.512	101.443	124.512	101.48	124.512	101.306	124.512	101.365	124.512	101.164	124.512	101.247	124.512	101.028	124.512	101.136	124.512	100.908	124.512	101.039	124.512	100.813	124.512	100.963	124.512	100.752	124.512	100.913	124.512	100.726	124.512	100.89	124.512	100.733	124.512	100.891	124.512	100.765	124.512	100.908	124.512	100.814	124.512	100.933	124.512	100.868	124.512	100.953	124.512	100.915	124.512	100.96	124.512	100.947
128.906	101.68	128.906	101.675	128.906	101.655	128.906	101.639	128.906	101.602	128.906	101.574	128.906	101.526	128.906	101.481	128.906	101.431	128.906	101.367	128.906	101.324	128.906	101.237	128.906	101.212	128.906	101.1	128.906	101.104	128.906	100.969	128.906	101.007	128.906	100.853	128.906	100.93	128.906	100.763	128.906	100.877	128.906	100.706	128.906	100.85	128.906	100.685	128.906	100.849	128.906	100.699	128.906	100.868	128.906	100.739	128.906	100.899	128.906	100.795	128.906	100.931	128.906	100.856	128.906	100.954	128.906	100.909	128.906	100.961	128.906	100.946
133.301	101.507	133.301	101.512	133.301	101.469	133.301	101.484	133.301	101.401	133.301	101.425	133.301	101.307	133.301	101.338	133.301	101.192	133.301	101.228	133.301	101.064	133.301	101.103	133.301	100.93	133.301	100.973	133.301	100.802	133.301	100.85	133.301	100.691	133.301	100.744	133.301	100.606	133.301	100.667	133.301	100.555	133.301	100.624	133.301	100.542	133.301	100.618	133.301	100.564	133.301	100.645	133.301	100.615	133.301	100.694	133.301	100.684	133.301	100.754	133.301	100.756	133.301	100.812	133.301	100.818	133.301	100.853	133.301	100.859	133.301	100.871
139.16	101.535	139.16	101.532	139.16	101.502	139.16	101.491	139.16	101.434	139.16	101.415	139.16	101.333	139.16	101.307	139.16	101.204	139.16	101.174	139.16	101.053	139.16	101.024	139.16	100.89	139.16	100.866	139.16	100.724	139.16	100.715	139.16	100.565	139.16	100.581	139.16	100.428	139.16	100.478	139.16	100.321	139.16	100.41	139.16	100.254	139.16	100.381	139.16	100.23	139.16	100.384	139.16	100.245	139.16	100.411	139.16	100.289	139.16	100.448	139.16	100.35	139.16	100.48	139.16	100.413	139.16	100.498	139.16	100.463	139.16	100.493
143.555	101.397	143.555	101.378	143.555	101.38	143.555	101.323	143.555	101.328	143.555	101.235	143.555	101.244	143.555	101.118	143.555	101.133	143.555	100.977	143.555	100.999	143.555	100.82	143.555	100.851	143.555	100.659	143.555	100.698	143.555	100.507	143.555	100.55	143.555	100.375	143.555	100.418	143.555	100.274	143.555	100.312	143.555	100.213	143.555	100.24	143.555	100.19	143.555	100.203	143.555	100.202	143.555	100.201	143.555	100.237	143.555	100.226	143.555	100.281	143.555	100.266	143.555	100.322	143.555	100.308	143.555	100.349	143.555	100.341	143.555	100.356
147.949	101.381	147.949	101.365	147.949	101.356	147.949	101.311	147.949	101.293	147.949	101.22	147.949	101.195	147.949	101.096	147.949	101.066	147.949	100.946	147.949	100.915	147.949	100.778	147.949	100.75	147.949	100.604	147.949	100.583	147.949	100.436	147.949	100.424	147.949	100.287	147.949	100.286	147.949	100.167	147.949	100.179	147.949	100.086	147.949	100.108	147.949	100.045	147.949	100.074	147.949	100.04	147.949	100.072	147.949	100.064	147.949	100.094	147.949	100.101	147.949	100.127	147.949	100.141	147.949	100.16	147.949	100.172	147.949	100.181	147.949	100.186
153.809	101.332	153.809	101.328	153.809	101.29	153.809	101.278	153.809	101.203	153.809	101.186	153.809	101.075	153.809	101.057	153.809	100.913	153.809	100.899	153.809	100.724	153.809	100.722	153.809	100.519	153.809	100.538	153.809	100.312	153.809	100.36	153.809	100.115	153.809	100.199	153.809	99.9446	153.809	100.067	153.809	99.8116	153.809	99.9706	153.809	99.7244	153.809	99.9133	153.809	99.6855	153.809	99.8914	153.809	99.6901	153.809	99.8963	153.809	99.7278	153.809	99.9152	153.809	99.7843	153.809	99.9343	153.809	99.8449	153.809	99.9418	153.809	99.8964	153.809	99.9299
159.668	100.994	159.668	100.989	159.668	100.949	159.668	100.933	159.668	100.856	159.668	100.833	159.668	100.717	159.668	100.694	159.668	100.541	159.668	100.527	159.668	100.339	159.668	100.345	159.668	100.122	159.668	100.163	159.668	99.9092	159.668	99.9973	159.668	99.7167	159.668	99.8615	159.668	99.5618	159.668	99.766	159.668	99.4573	159.668	99.7153	159.668	99.4094	159.668	99.7069	159.668	99.416	159.668	99.7315	159.668	99.4674	159.668	99.7751	159.668	99.5487	159.668	99.8221	159.668	99.6427	159.668	99.8577	159.668	99.7331	159.668	99.8704	159.668	99.8065	159.668	99.8537
165.527	100.707	165.527	100.693	165.527	100.67	165.527	100.628	165.527	100.583	165.527	100.517	165.527	100.449	165.527	100.366	165.527	100.273	165.527	100.183	165.527	100.065	165.527	99.9826	165.527	99.8381	165.527	99.7801	165.527	99.6083	165.527	99.5945	165.527	99.3968	165.527	99.4447	165.527	99.226	165.527	99.3465	165.527	99.1155	165.527	99.3088	165.527	99.077	165.527	99.3301	165.527	99.1106	165.527	99.3987	165.527	99.2032	165.527	99.4951	165.527	99.3327	165.527	99.5965	165.527	99.4726	165.527	99.681	165.527	99.598	165.527	99.7309	165.527	99.6895	165.527	99.7351
171.387	100.546	171.387	100.496	171.387	100.543	171.387	100.394	171.387	100.488	171.387	100.245	171.387	100.382	171.387	100.053	171.387	100.231	171.387	99.8282	171.387	100.042	171.387	99.5828	171.387	99.8244	171.387	99.3331	171.387	99.5943	171.387	99.0982	171.387	99.3696	171.387	98.899	171.387	99.1709	171.387	98.7544	171.387	99.0178	171.387	98.6773	171.387	98.9241	171.387	98.6708	171.387	98.8941	171.387	98.7264	171.387	98.9203	171.387	98.8252	171.387	98.9852	171.387	98.9427	171.387	99.0653	171.387	99.054	171.387	99.1369	171.387	99.1383	171.387	99.18	171.387	99.1819
177.246	100.202	177.246	100.175	177.246	100.174	177.246	100.095	177.246	100.095	177.246	99.9637	177.246	99.9653	177.246	99.7851	177.246	99.7916	177.246	99.5658	177.246	99.5819	177.246	99.3159	177.246	99.3477	177.246	99.0496	177.246	99.1045	177.246	98.7855	177.246	98.8708	177.246	98.546	177.246	98.6664	177.246	98.3539	177.246	98.5097	177.246	98.2274	177.246	98.4133	177.246	98.1752	177.246	98.3803	177.246	98.193	177.246	98.4025	177.246	98.2646	177.246	98.4615	177.246	98.3662	177.246	98.5335	177.246	98.4723	177.246	98.5941	177.246	98.5601	177.246	98.6245	177.246	98.6135
183.105	99.8554	183.105	99.8418	183.105	99.8125	183.105	99.7723	183.105	99.714	183.105	99.6489	183.105	99.5626	183.105	99.4758	183.105	99.3635	183.105	99.2597	183.105	99.1255	183.105	99.0107	183.105	98.8615	183.105	98.7437	183.105	98.5897	183.105	98.4784	183.105	98.3322	183.105	98.2386	183.105	98.1132	183.105	98.0486	183.105	97.9547	183.105	97.9286	183.105	97.8709	183.105	97.8875	183.105	97.8641	183.105	97.9198	183.105	97.923	183.105	98.0057	183.105	98.0254	183.105	98.1172	183.105	98.143	183.105	98.2249	183.105	98.2477	183.105	98.3038	183.105	98.3169	183.105	98.3368
188.965	99.7773	188.965	99.7591	188.965	99.7364	188.965	99.6821	188.965	99.6369	188.965	99.5481	188.965	99.4814	188.965	99.3604	188.965	99.2746	188.965	99.1241	188.965	99.0244	188.965	98.8475	188.965	98.7433	188.965	98.5431	188.965	98.4481	188.965	98.2287	188.965	98.1604	188.965	97.9279	188.965	97.9037	188.965	97.6684	188.965	97.7002	188.965	97.4769	188.965	97.5659	188.965	97.3712	188.965	97.506	188.965	97.3534	188.965	97.5128	188.965	97.4073	188.965	97.567	188.965	97.5041	188.965	97.6422	188.965	97.6107	188.965	97.7112	188.965	97.6985	188.965	97.7511	188.965	97.748
196.289	99.4622	196.289	99.4637	196.289	99.4109	196.289	99.416	196.289	99.3096	196.289	99.3207	196.289	99.1589	196.289	99.1803	196.289	98.9607	196.289	98.9995	196.289	98.7195	196.289	98.7853	196.289	98.4441	196.289	98.5486	196.289	98.1482	196.289	98.304	196.289	97.8512	196.289	98.0695	196.289	97.5768	196.289	97.8642	196.289	97.3494	196.289	97.7046	196.289	97.1894	196.289	97.5997	196.289	97.1073	196.289	97.5478	196.289	97.1012	196.289	97.5368	196.289	97.1565	196.289	97.5477	196.289	97.2497	196.289	97.5593	196.289	97.355	196.289	97.5533	196.289	97.4496	196.289	97.5178
203.613	99.3501	203.613	99.3101	203.613	99.3374	203.613	99.2193	203.613	99.2719	203.613	99.0816	203.613	99.1553	203.613	98.9032	203.613	98.9918	203.613	98.6938	203.613	98.7887	203.613	98.4662	203.613	98.5574	203.613	98.2367	203.613	98.3134	203.613	98.0243	203.613	98.0763	203.613	97.8481	203.613	97.8675	203.613	97.7252	203.613	97.7076	203.613	97.666	203.613	97.6121	203.613	97.6714	203.613	97.5874	203.613	97.7311	203.613	97.6281	203.613	97.8254	203.613	97.7178	203.613	97.9293	203.613	97.8323	203.613	98.018	203.613	97.9451	203.613	98.0713	203.613	98.0323	203.613	98.0769
210.938	99.2273	210.938	99.1698	210.938	99.2178	210.938	99.0464	210.938	99.1429	210.938	98.8609	210.938	99.0064	210.938	98.6206	210.938	98.8148	210.938	98.337	210.938	98.5781	210.938	98.0261	210.938	98.3109	210.938	97.7087	210.938	98.0328	210.938	97.4097	210.938	97.7677	210.938	97.1559	210.938	97.5414	210.938	96.9728	210.938	97.3769	210.938	96.8787	210.938	97.2888	210.938	96.8795	210.938	97.2787	210.938	96.9653	210.938	97.3335	210.938	97.1116	210.938	97.4291	210.938	97.285	210.938	97.5354	210.938	97.4511	210.938	97.6231	210.938	97.581	210.938	97.6683	210.938	97.6558
218.262	99.0296	218.262	98.983	218.262	99.0135	218.262	98.8736	218.262	98.9363	218.262	98.703	218.262	98.8019	218.262	98.4744	218.262	98.6166	218.262	98.1946	218.262	98.3903	218.262	97.8752	218.262	98.1371	218.262	97.5358	218.262	97.8756	218.262	97.2048	218.262	97.6289	218.262	96.9188	218.262	97.4225	218.262	96.7162	218.262	97.2808	218.262	96.6258	218.262	97.22	218.262	96.6551	218.262	97.2417	218.262	96.7859	218.262	97.3298	218.262	96.9819	218.262	97.4539	218.262	97.2006	218.262	97.5776	218.262	97.4047	218.262	97.668	218.262	97.5666	218.262	97.7021	218.262	97.6685
225.586	99.4779	225.586	99.4741	225.586	99.4106	225.586	99.3965	225.586	99.2765	225.586	99.2455	225.586	99.082	225.586	99.0244	225.586	98.8347	225.586	98.741	225.586	98.5443	225.586	98.4079	225.586	98.2231	225.586	98.044	225.586	97.8883	225.586	97.6752	225.586	97.5625	225.586	97.3344	225.586	97.2741	225.586	97.0583	225.586	97.0534	225.586	96.8803	225.586	96.9255	225.586	96.8194	225.586	96.9009	225.586	96.8715	225.586	96.97	225.586	97.008	225.586	97.1041	225.586	97.1844	225.586	97.2636	225.586	97.3534	225.586	97.408	225.586	97.4764	225.586	97.5038	225.586	97.5292
232.91	99.6688	232.91	99.6784	232.91	99.5833	232.91	99.6095	232.91	99.4253	232.91	99.4618	232.91	99.1989	232.91	99.238	232.91	98.9088	232.91	98.9451	232.91	98.5621	232.91	98.5961	232.91	98.1708	232.91	98.2106	232.91	97.7543	232.91	97.8168	232.91	97.342	232.91	97.4501	232.91	96.9722	232.91	97.1489	232.91	96.6859	232.91	96.9441	232.91	96.5152	232.91	96.8474	232.91	96.4707	232.91	96.8467	232.91	96.5363	232.91	96.9115	232.91	96.675	232.91	97.005	232.91	96.8415	232.91	97.0936	232.91	96.9949	232.91	97.1507	232.91	97.1054	232.91	97.1579
241.699	99.8578	241.699	99.8039	241.699	99.8316	241.699	99.6715	241.699	99.7252	241.699	99.4634	241.699	99.5395	241.699	99.1849	241.699	99.2765	241.699	98.8438	241.699	98.9398	241.699	98.4523	241.699	98.5358	241.699	98.0281	241.699	98.0762	241.699	97.596	241.699	97.5821	241.699	97.1883	241.699	97.0876	241.699	96.8413	241.699	96.6413	241.699	96.588	241.699	96.2987	241.699	96.4472	241.699	96.1045	241.699	96.4155	241.699	96.071	241.699	96.4681	241.699	96.169	241.699	96.5666	241.699	96.3408	241.699	96.6682	241.699	96.5229	241.699	96.7346	241.699	96.665	241.699	96.7378
250.488	99.7405	250.488	99.6707	250.488	99.7374	250.488	99.5303	250.488	99.6595	250.488	99.3212	250.488	99.5061	250.488	99.0448	250.488	99.2781	250.488	98.7022	250.488	98.978	250.488	98.2962	250.488	98.6112	250.488	97.8357	250.488	98.1872	250.488	97.3416	250.488	97.7222	250.488	96.8529	250.488	97.2412	250.488	96.427	250.488	96.7805	250.488	96.1272	250.488	96.3857	250.488	95.9949	250.488	96.1036	250.488	96.0243	250.488	95.966	250.488	96.1622	250.488	95.9735	250.488	96.3347	250.488	96.0907	250.488	96.4767	250.488	96.2596	250.488	96.5457	250.488	96.4201	250.488	96.5247
259.277	100.195	259.277	100.141	259.277	100.179	259.277	100.017	259.277	100.09	259.277	99.8246	259.277	99.9289	259.277	99.5645	259.277	99.696	259.277	99.2391	259.277	99.394	259.277	98.8532	259.277	99.0293	259.277	98.4162	259.277	98.6136	259.277	97.9447	259.277	98.1652	259.277	97.4637	259.277	97.7084	259.277	97.0064	259.277	97.2722	259.277	96.6103	259.277	96.8861	259.277	96.3088	259.277	96.5753	259.277	96.1204	259.277	96.3546	259.277	96.0399	259.277	96.224	259.277	96.0401	259.277	96.1676	259.277	96.0819	259.277	96.1576	259.277	96.1287	259.277	96.1628	259.277	96.1574
268.066	99.4828	268.066	99.4407	268.066	99.4591	268.066	99.3339	268.066	99.3681	268.066	99.1634	268.066	99.2087	268.066	98.9321	268.066	98.9824	268.066	98.6451	268.066	98.6963	268.066	98.3105	268.066	98.3652	268.066	97.939	268.066	98.0117	268.066	97.5453	268.066	97.6633	268.066	97.1503	268.066	97.3482	268.066	96.7839	268.066	97.0899	268.066	96.4833	268.066	96.9031	268.066	96.2832	268.066	96.791	268.066	96.2015	268.066	96.7454	268.066	96.229	268.066	96.7468	268.066	96.3333	268.066	96.769	268.066	96.4719	268.066	96.7839	268.066	96.6064	268.066	96.7685	268.066	96.7096
276.855	98.5006	276.855	98.4914	276.855	98.464	276.855	98.4349	276.855	98.3809	276.855	98.3262	276.855	98.2488	276.855	98.1592	276.855	98.0651	276.855	97.9301	276.855	97.8275	276.855	97.6442	276.855	97.5368	276.855	97.3209	276.855	97.2004	276.855	96.9949	276.855	96.8373	276.855	96.7091	276.855	96.481	276.855	96.5014	276.855	96.1766	276.855	96.392	276.855	95.9698	276.855	96.3783	276.855	95.8901	276.855	96.4396	276.855	95.9372	276.855	96.5444	276.855	96.0815	276.855	96.6573	276.855	96.2763	276.855	96.7442	276.855	96.4746	276.855	96.7782	276.855	96.6388	276.855	96.7438
287.109	99.0725	287.109	99.0552	287.109	99.0153	287.109	98.9632	287.109	98.8836	287.109	98.7959	287.109	98.6786	287.109	98.5522	287.109	98.4038	287.109	98.2331	287.109	98.0674	287.109	97.8462	287.109	97.6839	287.109	97.4113	287.109	97.274	287.109	96.9657	287.109	96.8634	287.109	96.5643	287.109	96.4792	287.109	96.267	287.109	96.1495	287.109	96.1154	287.109	95.9038	287.109	96.1093	287.109	95.7715	287.109	96.208	287.109	95.7708	287.109	96.3526	287.109	95.8911	287.109	96.4922	287.109	96.0896	287.109	96.5925	287.109	96.3061	287.109	96.6326	287.109	96.4869	287.109	96.5991
297.363	99.6238	297.363	99.5463	297.363	99.5928	297.363	99.3604	297.363	99.4557	297.363	99.0692	297.363	99.2169	297.363	98.6801	297.363	98.8842	297.363	98.2055	297.363	98.4691	297.363	97.6652	297.363	97.989	297.363	97.0882	297.363	97.4689	297.363	96.5152	297.363	96.9434	297.363	95.9987	297.363	96.4554	297.363	95.5985	297.363	96.0495	297.363	95.3676	297.363	95.7602	297.363	95.3298	297.363	95.604	297.363	95.4637	297.363	95.5789	297.363	95.7057	297.363	95.6671	297.363	95.9745	297.363	95.8361	297.363	96.1961	297.363	96.0384	297.363	96.3197	297.363	96.2184	297.363	96.324
307.617	99.8908	307.617	99.7942	307.617	99.8838	307.617	99.5989	307.617	99.7699	307.617	99.3108	307.617	99.5479	307.617	98.9363	307.617	99.2178	307.617	98.4824	307.617	98.7817	307.617	97.9603	307.617	98.2456	307.617	97.3916	307.617	97.6259	307.617	96.8164	307.617	96.9572	307.617	96.296	307.617	96.3016	307.617	95.9044	307.617	95.7504	307.617	95.7043	307.617	95.4053	307.617	95.7202	307.617	95.3353	307.617	95.9263	307.617	95.5321	307.617	96.2561	307.617	95.9124	307.617	96.6239	307.617	96.36	307.617	96.9448	307.617	96.7689	307.617	97.1497	307.617	97.0621	307.617	97.194
319.336	100.112	319.336	100.068	319.336	100.081	319.336	99.943	319.336	99.9751	319.336	99.7248	319.336	99.7896	319.336	99.3992	319.336	99.5163	319.336	98.9553	319.336	99.1496	319.336	98.3914	319.336	98.691	319.336	97.7214	319.336	98.1529	319.336	96.9817	319.336	97.5618	319.336	96.2381	319.336	96.96	319.336	95.5905	319.336	96.4054	319.336	95.1548	319.336	95.9671	319.336	95.0088	319.336	95.7094	319.336	95.1368	319.336	95.6654	319.336	95.4419	319.336	95.8108	319.336	95.8093	319.336	96.0644	319.336	96.1493	319.336	96.3208	319.336	96.3999	319.336	96.49	319.336	96.5201
329.59	100.855	329.59	100.836	329.59	100.798	329.59	100.74	329.59	100.661	329.59	100.563	329.59	100.432	329.59	100.296	329.59	100.101	329.59	99.9354	329.59	99.6595	329.59	99.4805	329.59	99.103	329.59	98.9377	329.59	98.438	329.59	98.3186	329.59	97.6862	329.59	97.6433	329.59	96.8922	329.59	96.9486	329.59	96.1308	329.59	96.3	329.59	95.5059	329.59	95.7945	329.59	95.1259	329.59	95.5296	329.59	95.0507	329.59	95.5404	329.59	95.2472	329.59	95.7594	329.59	95.6012	329.59	96.0508	329.59	95.9733	329.59	96.2799	329.59	96.2485	329.59	96.3571
341.309	100.502	341.309	100.441	341.309	100.496	341.309	100.312	341.309	100.424	341.309	100.108	341.309	100.279	341.309	99.8207	341.309	100.056	341.309	99.4433	341.309	99.7487	341.309	98.9767	341.309	99.3578	341.309	98.4317	341.309	98.8925	341.309	97.8325	341.309	98.3719	341.309	97.2197	341.309	97.8233	341.309	96.649	341.309	97.2836	341.309	96.181	341.309	96.7986	341.309	95.8609	341.309	96.4161	341.309	95.7	341.309	96.1671	341.309	95.6723	341.309	96.0468	341.309	95.7305	341.309	96.0157	341.309	95.8256	341.309	96.0207	341.309	95.9192	341.309	96.019	341.309	95.9869
353.027	100.523	353.027	100.54	353.027	100.437	353.027	100.48	353.027	100.285	353.027	100.337	353.027	100.066	353.027	100.112	353.027	99.7725	353.027	99.8066	353.027	99.3972	353.027	99.4257	353.027	98.9408	353.027	98.9714	353.027	98.4145	353.027	98.4494	353.027	97.8422	353.027	97.8786	353.027	97.2592	353.027	97.3005	353.027	96.7112	353.027	96.7778	353.027	96.2484	353.027	96.3745	353.027	95.9139	353.027	96.1206	353.027	95.7242	353.027	95.9933	353.027	95.6578	353.027	95.9355	353.027	95.667	353.027	95.896	353.027	95.7068	353.027	95.8517	353.027	95.7537	353.027	95.8025
366.211	100.527	366.211	100.422	366.211	100.523	366.211	100.217	366.211	100.406	366.211	99.9235	366.211	100.182	366.211	99.5497	366.211	99.8655	366.211	99.1053	366.211	99.4738	366.211	98.6044	366.211	99.0197	366.211	98.0682	366.211	98.509	366.211	97.5256	366.211	97.9466	366.211	97.0146	366.211	97.3533	366.211	96.585	366.211	96.7842	366.211	96.296	366.211	96.332	366.211	96.1941	366.211	96.093	366.211	96.2811	366.211	96.1055	366.211	96.5033	366.211	96.3199	366.211	96.7775	366.211	96.6318	366.211	97.0256	366.211	96.9343	366.211	97.1909	366.211	97.1496	366.211	97.2377
379.395	101.988	379.395	101.922	379.395	101.933	379.395	101.73	379.395	101.77	379.395	101.407	379.395	101.505	379.395	100.957	379.395	101.135	379.395	100.381	379.395	100.649	379.395	99.6777	379.395	100.035	379.395	98.851	379.395	99.2948	379.395	97.9181	379.395	98.4471	379.395	96.9348	379.395	97.535	379.395	96.0229	379.395	96.6302	379.395	95.3738	379.395	95.8436	379.395	95.1635	379.395	95.3207	379.395	95.3955	379.395	95.181	379.395	95.8801	379.395	95.4154	379.395	96.3902	379.395	95.8714	379.395	96.7768	379.395	96.3596	379.395	96.9728	379.395	96.7456	379.395	96.96
392.578	101.403	392.578	101.349	392.578	101.369	392.578	101.216	392.578	101.235	392.578	101.009	392.578	100.993	392.578	100.726	392.578	100.645	392.578	100.363	392.578	100.203	392.578	99.9144	392.578	99.6845	392.578	99.3706	392.578	99.1131	392.578	98.7171	392.578	98.5137	392.578	97.944	392.578	97.915	392.578	97.0679	392.578	97.3551	392.578	96.169	392.578	96.8868	392.578	95.4189	392.578	96.5705	392.578	95.0269	392.578	96.4472	392.578	95.0826	392.578	96.5069	392.578	95.4758	392.578	96.6794	392.578	96.0022	392.578	96.855	392.578	96.4837	392.578	96.9228	392.578	96.8059
405.762	101.69	405.762	101.697	405.762	101.607	405.762	101.619	405.762	101.455	405.762	101.45	405.762	101.233	405.762	101.189	405.762	100.93	405.762	100.848	405.762	100.533	405.762	100.439	405.762	100.03	405.762	99.9667	405.762	99.4149	405.762	99.4239	405.762	98.6943	405.762	98.8007	405.762	97.894	405.762	98.1092	405.762	97.0724	405.762	97.4133	405.762	96.3328	405.762	96.8429	405.762	95.8164	405.762	96.5524	405.762	95.6536	405.762	96.6151	405.762	95.8807	405.762	96.9467	405.762	96.3921	405.762	97.3555	405.762	96.9874	405.762	97.65	405.762	97.4677	405.762	97.7026
420.41	101.337	420.41	101.257	420.41	101.387	420.41	101.141	420.41	101.386	420.41	100.961	420.41	101.293	420.41	100.685	420.41	101.066	420.41	100.298	420.41	100.68	420.41	99.8038	420.41	100.131	420.41	99.2246	420.41	99.4388	420.41	98.596	420.41	98.6477	420.41	97.9647	420.41	97.8179	420.41	97.3771	420.41	97.0228	420.41	96.8659	420.41	96.349	420.41	96.4478	420.41	95.8825	420.41	96.1342	420.41	95.6667	420.41	95.938	420.41	95.6647	420.41	95.866	420.41	95.781	420.41	95.8977	420.41	95.9195	420.41	95.9764	420.41	96.0139	420.41	96.031
435.059	101.985	435.059	101.962	435.059	101.926	435.059	101.848	435.059	101.79	435.059	101.633	435.059	101.583	435.059	101.307	435.059	101.304	435.059	100.86	435.059	100.956	435.059	100.282	435.059	100.542	435.059	99.5702	435.059	100.055	435.059	98.7325	435.059	99.4799	435.059	97.7904	435.059	98.8012	435.059	96.8122	435.059	98.0375	435.059	95.9852	435.059	97.2788	435.059	95.6105	435.059	96.6832	435.059	95.8291	435.059	96.3876	435.059	96.4016	435.059	96.3952	435.059	96.9622	435.059	96.5877	435.059	97.3001	435.059	96.8398	435.059	97.3838	435.059	97.0832	435.059	97.2828
451.172	101.295	451.172	101.23	451.172	101.28	451.172	101.106	451.172	101.182	451.172	100.952	451.172	101.006	451.172	100.784	451.172	100.758	451.172	100.599	451.172	100.434	451.172	100.372	451.172	100.03	451.172	100.065	451.172	99.5543	451.172	99.6393	451.172	99.0326	451.172	99.0672	451.172	98.5115	451.172	98.3511	451.172	98.0512	451.172	97.5519	451.172	97.7104	451.172	96.8076	451.172	97.5295	451.172	96.3037	451.172	97.5152	451.172	96.1657	451.172	97.6251	451.172	96.3607	451.172	97.7667	451.172	96.7415	451.172	97.8337	451.172	97.1615	451.172	97.7558	451.172	97.5207
465.82	102.989	465.82	102.971	465.82	102.88	465.82	102.817	465.82	102.658	465.82	102.526	465.82	102.335	465.82	102.113	465.82	101.92	465.82	101.615	465.82	101.414	465.82	101.082	465.82	100.819	465.82	100.546	465.82	100.137	465.82	100.005	465.82	99.3694	465.82	99.4245	465.82	98.5074	465.82	98.7772	465.82	97.5392	465.82	98.0873	465.82	96.5049	465.82	97.4614	465.82	95.5939	465.82	97.0507	465.82	95.1342	465.82	96.928	465.82	95.277	465.82	97.0048	465.82	95.7834	465.82	97.116	465.82	96.3282	465.82	97.1392	465.82	96.7523	465.82	97.0223
483.398	102.941	483.398	102.896	483.398	102.907	483.398	102.752	483.398	102.799	483.398	102.484	483.398	102.603	483.398	102.083	483.398	102.3	483.398	101.551	483.398	101.884	483.398	100.884	483.398	101.367	483.398	100.069	483.398	100.769	483.398	99.1086	483.398	100.109	483.398	98.0445	483.398	99.403	483.398	96.9837	483.398	98.6914	483.398	96.1126	483.398	98.0586	483.398	95.6721	483.398	97.6095	483.398	95.8015	483.398	97.4153	483.398	96.3873	483.398	97.4836	483.398	97.1631	483.398	97.7631	483.398	97.8853	483.398	98.1453	483.398	98.3881	483.398	98.4718	483.398	98.5838
499.512	101.585	499.512	101.508	499.512	101.665	499.512	101.457	499.512	101.679	499.512	101.405	499.512	101.565	499.512	101.301	499.512	101.304	499.512	101.107	499.512	100.93	499.512	100.815	499.512	100.495	499.512	100.448	499.512	100.036	499.512	100.033	499.512	99.5543	499.512	99.5596	499.512	99.0319	499.512	98.9752	499.512	98.4671	499.512	98.2458	499.512	97.9145	499.512	97.4717	499.512	97.4847	499.512	96.9295	499.512	97.2729	499.512	96.8607	499.512	97.2623	499.512	97.1552	499.512	97.3371	499.512	97.4729	499.512	97.4075	499.512	97.6031	499.512	97.4765	499.512	97.5638
517.09	102.722	517.09	102.648	517.09	102.664	517.09	102.441	517.09	102.478	517.09	102.101	517.09	102.171	517.09	101.641	517.09	101.746	517.09	101.084	517.09	101.209	517.09	100.449	517.09	100.563	517.09	99.7352	517.09	99.8093	517.09	98.9259	517.09	98.9528	517.09	98.0342	517.09	98.0223	517.09	97.1817	517.09	97.0937	517.09	96.6219	517.09	96.3139	517.09	96.5694	517.09	95.9037	517.09	96.9594	517.09	96.0701	517.09	97.5421	517.09	96.8026	517.09	98.1376	517.09	97.8069	517.09	98.6866	517.09	98.7099	517.09	99.1408	517.09	99.26	517.09	99.3804
536.133	102.112	536.133	102.102	536.133	102.037	536.133	101.981	536.133	101.888	536.133	101.732	536.133	101.649	536.133	101.358	536.133	101.288	536.133	100.862	536.133	100.778	536.133	100.235	536.133	100.111	536.133	99.4695	536.133	99.3114	536.133	98.5926	536.133	98.4208	536.133	97.6786	536.133	97.4925	536.133	96.8057	536.133	96.6189	536.133	96.0301	536.133	95.9725	536.133	95.4484	536.133	95.727	536.133	95.2588	536.133	95.8633	536.133	95.578	536.133	96.1546	536.133	96.1804	536.133	96.3887	536.133	96.6846	536.133	96.5261	536.133	96.8826	536.133	96.6553	536.133	96.8142
555.176	101.941	555.176	101.887	555.176	101.866	555.176	101.713	555.176	101.66	555.176	101.426	555.176	101.334	555.176	101.037	555.176	100.911	555.176	100.557	555.176	100.405	555.176	99.98	555.176	99.8014	555.176	99.2665	555.176	99.0692	555.176	98.3691	555.176	98.1899	555.176	97.2928	555.176	97.1975	555.176	96.1721	555.176	96.2243	555.176	95.3266	555.176	95.513	555.176	95.1338	555.176	95.3224	555.176	95.6292	555.176	95.7327	555.176	96.4608	555.176	96.5406	555.176	97.2877	555.176	97.4102	555.176	97.9418	555.176	98.0878	555.176	98.3689	555.176	98.4689	555.176	98.5522
574.219	101.363	574.219	101.358	574.219	101.298	574.219	101.249	574.219	101.184	574.219	101.017	574.219	101.007	574.219	100.673	574.219	100.733	574.219	100.231	574.219	100.323	574.219	99.683	574.219	99.7483	574.219	99.0176	574.219	98.993	574.219	98.2509	574.219	98.0578	574.219	97.3877	574.219	96.9688	574.219	96.3532	574.219	95.7682	574.219	95.1172	574.219	94.5478	574.219	94.0586	574.219	93.6062	574.219	93.9508	574.219	93.4899	574.219	94.9053	574.219	94.3495	574.219	96.1964	574.219	95.6244	574.219	97.252	574.219	96.7939	574.219	97.8686	574.219	97.621	574.219	97.9943
594.727	102.521	594.727	102.473	594.727	102.496	594.727	102.366	594.727	102.378	594.727	102.193	594.727	102.162	594.727	101.921	594.727	101.858	594.727	101.491	594.727	101.465	594.727	100.844	594.727	100.938	594.727	99.9401	594.727	100.219	594.727	98.797	594.727	99.2717	594.727	97.5188	594.727	98.1025	594.727	96.2624	594.727	96.7372	594.727	95.1176	594.727	95.2525	594.727	94.0629	594.727	93.8769	594.727	93.1776	594.727	93.0511	594.727	92.8902	594.727	93.1702	594.727	93.5128	594.727	94.0972	594.727	94.5939	594.727	95.2059	594.727	95.542	594.727	95.9322	594.727	96.04
615.234	102.433	615.234	102.33	615.234	102.415	615.234	102.1	615.234	102.256	615.234	101.746	615.234	101.935	615.234	101.308	615.234	101.46	615.234	100.825	615.234	100.866	615.234	100.277	615.234	100.186	615.234	99.6116	615.234	99.4173	615.234	98.781	615.234	98.51	615.234	97.7144	615.234	97.398	615.234	96.3179	615.234	96.0741	615.234	94.7053	615.234	94.713	615.234	93.6654	615.234	93.7329	615.234	94.0832	615.234	93.539	615.234	95.3726	615.234	94.2244	615.234	96.6567	615.234	95.5581	615.234	97.6811	615.234	97.0278	615.234	98.3715	615.234	98.1199	615.234	98.5696
637.207	101.511	637.207	101.432	637.207	101.509	637.207	101.274	637.207	101.42	637.207	101.053	637.207	101.222	637.207	100.801	637.207	100.896	637.207	100.537	637.207	100.451	637.207	100.217	637.207	99.9264	637.207	99.7088	637.207	99.3493	637.207	98.8782	637.207	98.6693	637.207	97.7376	637.207	97.7223	637.207	96.483	637.207	96.3008	637.207	95.2663	637.207	94.3446	637.207	94.0063	637.207	92.3792	637.207	92.8224	637.207	91.8752	637.207	92.6944	637.207	93.0796	637.207	93.8224	637.207	94.4036	637.207	94.9024	637.207	95.0967	637.207	95.3561	637.207	95.3105	637.207	95.3884
659.18	102.07	659.18	102.141	659.18	101.908	659.18	102.121	659.18	101.699	659.18	102.015	659.18	101.489	659.18	101.778	659.18	101.269	659.18	101.337	659.18	100.959	659.18	100.65	659.18	100.443	659.18	99.7532	659.18	99.6452	659.18	98.7445	659.18	98.5986	659.18	97.6927	659.18	97.4582	659.18	96.4986	659.18	96.3712	659.18	94.9739	659.18	95.2539	659.18	93.2642	659.18	93.8235	659.18	92.0369	659.18	92.1672	659.18	91.7655	659.18	91.429	659.18	92.4379	659.18	92.4354	659.18	93.8573	659.18	94.1368	659.18	95.2866	659.18	95.485	659.18	95.9287
682.617	101.627	682.617	101.577	682.617	101.578	682.617	101.327	682.617	101.485	682.617	100.896	682.617	101.301	682.617	100.43	682.617	100.961	682.617	100.017	682.617	100.465	682.617	99.5848	682.617	99.8793	682.617	99.0342	682.617	99.2265	682.617	98.3197	682.617	98.4182	682.617	97.4206	682.617	97.3543	682.617	96.3559	682.617	96.0364	682.617	95.1502	682.617	94.6456	682.617	93.74	682.617	93.6528	682.617	92.3483	682.617	93.4965	682.617	92.0925	682.617	93.8482	682.617	93.2194	682.617	94.2583	682.617	94.5443	682.617	94.7878	682.617	95.4958	682.617	95.441	682.617	95.806
707.52	101.592	707.52	101.489	707.52	101.565	707.52	101.438	707.52	101.32	707.52	101.459	707.52	100.951	707.52	101.38	707.52	100.583	707.52	101.073	707.52	100.207	707.52	100.518	707.52	99.7095	707.52	99.6578	707.52	99.0368	707.52	98.4625	707.52	98.2206	707.52	97.1125	707.52	97.2146	707.52	95.7723	707.52	95.851	707.52	94.2436	707.52	93.9942	707.52	92.4257	707.52	91.7915	707.52	91.3578	707.52	90.4302	707.52	92.0672	707.52	91.0637	707.52	93.3345	707.52	92.2995	707.52	94.1673	707.52	93.2919	707.52	94.488	707.52	94.0146	707.52	94.4238
732.422	101.257	732.422	101.288	732.422	101.209	732.422	101.169	732.422	101.099	732.422	100.812	732.422	100.767	732.422	100.28	732.422	100.195	732.422	99.666	732.422	99.5318	732.422	99.0358	732.422	98.882	732.422	98.4376	732.422	98.1704	732.422	97.815	732.422	97.261	732.422	96.9669	732.422	96.1112	732.422	95.6968	732.422	94.8166	732.422	93.9536	732.422	93.5043	732.422	91.9217	732.422	91.9739	732.422	90.3846	732.422	89.9753	732.422	90.4002	732.422	88.4175	732.422	91.4868	732.422	89.0076	732.422	92.5892	732.422	90.9796	732.422	93.3349	732.422	92.7509	732.422	93.5326
757.324	100.123	757.324	100.31	757.324	99.8976	757.324	100.3	757.324	99.7526	757.324	100.015	757.324	99.6714	757.324	99.5012	757.324	99.4695	757.324	98.8822	757.324	98.967	757.324	98.2457	757.324	98.1997	757.324	97.5394	757.324	97.3159	757.324	96.6339	757.324	96.3307	757.324	95.4927	757.324	95.1543	757.324	94.102	757.324	93.695	757.324	92.35	757.324	91.8061	757.324	90.4424	757.324	89.2964	757.324	89.0522	757.324	87.4126	757.324	88.5481	757.324	88.4096	757.324	89.5616	757.324	89.6643	757.324	91.9044	757.324	91.2164	757.324	93.7271	757.324	93.1403	757.324	94.1595
785.156	100.639	785.156	100.41	785.156	100.879	785.156	100.309	785.156	100.945	785.156	100.245	785.156	100.699	785.156	99.9651	785.156	100.141	785.156	99.3547	785.156	99.4531	785.156	98.5641	785.156	98.8483	785.156	97.7621	785.156	98.297	785.156	96.8009	785.156	97.4931	785.156	95.4097	785.156	96.0541	785.156	93.6376	785.156	93.8082	785.156	91.6899	785.156	91.2337	785.156	88.8642	785.156	89.1059	785.156	82.9794	785.156	87.1596	785.156	76.4188	785.156	84.9034	785.156	82.3699	785.156	83.3981	785.156	83.5387	785.156	83.5107	785.156	82.3193	785.156	82.4692	785.156	81.5286
811.523	98.7103	811.523	98.7607	811.523	98.717	811.523	98.5811	811.523	98.8882	811.523	98.0534	811.523	98.9672	811.523	97.3763	811.523	98.6206	811.523	96.8081	811.523	97.8019	811.523	96.1512	811.523	96.6333	811.523	94.6864	811.523	95.0714	811.523	91.6996	811.523	93.0961	811.523	86.6291	811.523	91.3458	811.523	83.3536	811.523	90.3701	811.523	85.6865	811.523	88.7629	811.523	87.4972	811.523	83.3647	811.523	88.2963	811.523	68.3628	811.523	88.0226	811.523	84.6954	811.523	87.8028	811.523	88.4441	811.523	87.7891	811.523	89.5928	811.523	87.5972	811.523	89.1604	811.523	88.018
840.82	100.077	840.82	100.304	840.82	99.988	840.82	100.524	840.82	99.9405	840.82	100.381	840.82	99.8909	840.82	99.8151	840.82	99.8146	840.82	99.1519	840.82	99.5991	840.82	98.5596	840.82	99.0281	840.82	97.6125	840.82	97.7948	840.82	95.8156	840.82	95.647	840.82	93.3857	840.82	92.5395	840.82	91.3728	840.82	88.4478	840.82	90.1254	840.82	82.3038	840.82	88.4443	840.82	68.1924	840.82	85.9993	840.82	73.6273	840.82	84.9716	840.82	77.3771	840.82	86.0898	840.82	80.8514	840.82	85.9567	840.82	85.1187	840.82	85.0102	840.82	85.6488	840.82	84.8904
870.117	103.158	870.117	103.149	870.117	103.002	870.117	102.804	870.117	102.813	870.117	102.029	870.117	102.524	870.117	100.783	870.117	101.916	870.117	99.1218	870.117	100.85	870.117	97.3504	870.117	99.3253	870.117	95.7104	870.117	97.2877	870.117	94.1087	870.117	94.7612	870.117	92.7413	870.117	92.9195	870.117	92.055	870.117	92.8024	870.117	91.8493	870.117	92.6888	870.117	91.792	870.117	91.5081	870.117	91.4741	870.117	89.589	870.117	90.0243	870.117	87.6544	870.117	87.6514	870.117	85.575	870.117	87.0211	870.117	82.2552	870.117	87.2276	870.117	80.7085	870.117	84.7881
900.879	101.856	900.879	101.758	900.879	101.55	900.879	101.362	900.879	100.853	900.879	100.81	900.879	100.047	900.879	100.3	900.879	99.2897	900.879	99.9269	900.879	98.2673	900.879	99.4809	900.879	96.8042	900.879	98.846	900.879	95.3158	900.879	98.283	900.879	94.5072	900.879	97.6117	900.879	94.2616	900.879	96.3463	900.879	93.4139	900.879	94.4017	900.879	91.4016	900.879	91.4516	900.879	88.7108	900.879	86.4529	900.879	84.5943	900.879	84.7295	900.879	71.8058	900.879	87.2798	900.879	71.6461	900.879	89.0459	900.879	75.5596	900.879	89.9425	900.879	86.7839	900.879	90.324
933.105	101.093	933.105	101.309	933.105	100.523	933.105	101.022	933.105	99.639	933.105	100.192	933.105	98.4987	933.105	99.2575	933.105	97.5805	933.105	98.8175	933.105	97.3709	933.105	98.6244	933.105	97.51	933.105	97.848	933.105	97.5676	933.105	96.3333	933.105	97.4038	933.105	94.6694	933.105	96.7043	933.105	93.0599	933.105	95.3647	933.105	91.713	933.105	93.9243	933.105	90.9906	933.105	92.7772	933.105	89.7093	933.105	90.8267	933.105	87.3282	933.105	87.6489	933.105	89.0925	933.105	85.7685	933.105	92.9166	933.105	89.1524	933.105	94.3476	933.105	91.3053	933.105	93.31
965.332	102.052	965.332	101.884	965.332	102.131	965.332	101.561	965.332	102.017	965.332	101.106	965.332	101.364	965.332	100.459	965.332	100.168	965.332	99.2551	965.332	99.1804	965.332	97.4572	965.332	99.029	965.332	96.313	965.332	99.3269	965.332	96.6755	965.332	99.6207	965.332	96.9568	965.332	99.7873	965.332	96.0615	965.332	99.5035	965.332	95.0271	965.332	98.5601	965.332	94.8479	965.332	97.0598	965.332	93.6595	965.332	95.5051	965.332	89.0071	965.332	94.4578	965.332	88.7946	965.332	93.3708	965.332	91.9094	965.332	93.0006	965.332	93.3875	965.332	94.2145	965.332	94.4733
1,000.49	101.79	1,000.49	101.291	1,000.49	101.991	1,000.49	100.752	1,000.49	101.899	1,000.49	100.561	1,000.49	101.647	1,000.49	100.441	1,000.49	101.402	1,000.49	100.106	1,000.49	101.079	1,000.49	100.185	1,000.49	100.484	1,000.49	100.29	1,000.49	99.6711	1,000.49	99.2632	1,000.49	99.0163	1,000.49	97.7082	1,000.49	98.5007	1,000.49	97.0265	1,000.49	97.0928	1,000.49	95.9785	1,000.49	94.4066	1,000.49	93.6102	1,000.49	91.2906	1,000.49	91.204	1,000.49	88.2927	1,000.49	88.5224	1,000.49	84.3839	1,000.49	89.6668	1,000.49	76.6427	1,000.49	93.2977	1,000.49	86.7865	1,000.49	94.6105	1,000.49	92.1451	1,000.49	94.2408
1,035.64	101.303	1,035.64	101.543	1,035.64	100.642	1,035.64	101.408	1,035.64	100.236	1,035.64	101.253	1,035.64	100.169	1,035.64	100.748	1,035.64	99.9403	1,035.64	99.6629	1,035.64	99.7429	1,035.64	98.7591	1,035.64	99.7169	1,035.64	98.5038	1,035.64	99.4443	1,035.64	98.0818	1,035.64	98.7102	1,035.64	97.0633	1,035.64	97.4448	1,035.64	95.2279	1,035.64	95.0737	1,035.64	92.2288	1,035.64	91.3075	1,035.64	89.6695	1,035.64	88.1568	1,035.64	84.6952	1,035.64	88.1598	1,035.64	78.6263	1,035.64	88.5742	1,035.64	85.3071	1,035.64	86.1327	1,035.64	86.706	1,035.64	79.6192	1,035.64	87.9812	1,035.64	79.0231	1,035.64	86.3985
1,072.27	101.176	1,072.27	101.049	1,072.27	101.141	1,072.27	100.598	1,072.27	101.017	1,072.27	100.417	1,072.27	100.338	1,072.27	100.254	1,072.27	99.1428	1,072.27	99.4214	1,072.27	98.1548	1,072.27	98.5691	1,072.27	97.5018	1,072.27	98.0228	1,072.27	96.6057	1,072.27	96.995	1,072.27	95.7082	1,072.27	95.4638	1,072.27	95.3921	1,072.27	94.1592	1,072.27	94.5723	1,072.27	93.1052	1,072.27	92.7064	1,072.27	91.8706	1,072.27	92.2092	1,072.27	91.4811	1,072.27	92.2415	1,072.27	88.3775	1,072.27	90.0513	1,072.27	83.562	1,072.27	87.3215	1,072.27	88.6951	1,072.27	86.0505	1,072.27	90.4541	1,072.27	88.0351	1,072.27	89.3251
1,108.89	103.461	1,108.89	102.647	1,108.89	103.865	1,108.89	101.368	1,108.89	103.827	1,108.89	100.11	1,108.89	103.239	1,108.89	99.5895	1,108.89	102.247	1,108.89	99.4155	1,108.89	100.901	1,108.89	99.0042	1,108.89	99.2933	1,108.89	98.1749	1,108.89	97.5462	1,108.89	96.512	1,108.89	95.8263	1,108.89	94.34	1,108.89	93.895	1,108.89	92.6949	1,108.89	91.7739	1,108.89	91.7942	1,108.89	91.7554	1,108.89	90.3519	1,108.89	92.0667	1,108.89	85.1349	1,108.89	90.5274	1,108.89	79.9125	1,108.89	86.7827	1,108.89	90.4314	1,108.89	81.5103	1,108.89	91.6021	1,108.89	76.7381	1,108.89	88.0902	1,108.89	83.6375	1,108.89	86.8258
1,148.44	103.281	1,148.44	103.267	1,148.44	102.806	1,148.44	102.637	1,148.44	102.234	1,148.44	101.913	1,148.44	101.81	1,148.44	101.292	1,148.44	100.9	1,148.44	100.773	1,148.44	98.8116	1,148.44	99.9092	1,148.44	97.2468	1,148.44	98.1958	1,148.44	97.115	1,148.44	96.8305	1,148.44	97.5584	1,148.44	97.1081	1,148.44	97.7863	1,148.44	97.2201	1,148.44	96.9409	1,148.44	96.9683	1,148.44	96.3458	1,148.44	96.2977	1,148.44	96.149	1,148.44	92.9572	1,148.44	95.1516	1,148.44	89.9043	1,148.44	93.2599	1,148.44	87.2509	1,148.44	91.0833	1,148.44	87.9485	1,148.44	91.2113	1,148.44	92.0316	1,148.44	92.6177	1,148.44	92.9622
1,189.45	102.103	1,189.45	101.703	1,189.45	102.224	1,189.45	101.081	1,189.45	101.572	1,189.45	100.632	1,189.45	100.3	1,189.45	100.08	1,189.45	99.5332	1,189.45	99.2527	1,189.45	99.7432	1,189.45	98.8027	1,189.45	99.4331	1,189.45	97.8584	1,189.45	98.2045	1,189.45	96.8148	1,189.45	97.179	1,189.45	96.1244	1,189.45	95.3496	1,189.45	94.1199	1,189.45	92.8487	1,189.45	91.5689	1,189.45	92.1967	1,189.45	90.4251	1,189.45	92.5578	1,189.45	90.6426	1,189.45	94.2368	1,189.45	88.5922	1,189.45	93.6873	1,189.45	73.9572	1,189.45	91.8812	1,189.45	81.4229	1,189.45	92.6575	1,189.45	73.0327	1,189.45	90.0929	1,189.45	83.2124
1,230.47	101.467	1,230.47	101.06	1,230.47	101.767	1,230.47	101.31	1,230.47	101.637	1,230.47	101.288	1,230.47	101.346	1,230.47	100.35	1,230.47	100.299	1,230.47	99.1849	1,230.47	98.3664	1,230.47	97.9871	1,230.47	97.2605	1,230.47	96.8895	1,230.47	96.9216	1,230.47	96.5377	1,230.47	96.3587	1,230.47	96.0431	1,230.47	95.7846	1,230.47	95.2065	1,230.47	94.3348	1,230.47	94.4162	1,230.47	91.8608	1,230.47	92.8509	1,230.47	88.4088	1,230.47	90.5001	1,230.47	83.1438	1,230.47	82.9738	1,230.47	78.5746	1,230.47	77.1495	1,230.47	74.7371	1,230.47	84.4709	1,230.47	87.2933	1,230.47	87.9207	1,230.47	91.3907	1,230.47	91.1942
1,274.41	100.18	1,274.41	100.026	1,274.41	99.5479	1,274.41	99.53	1,274.41	97.8607	1,274.41	99.5416	1,274.41	97.7419	1,274.41	99.9463	1,274.41	98.8414	1,274.41	98.6171	1,274.41	99.4517	1,274.41	96.3813	1,274.41	99.3792	1,274.41	95.5568	1,274.41	99.5455	1,274.41	94.14	1,274.41	99.4841	1,274.41	91.6767	1,274.41	97.3079	1,274.41	89.541	1,274.41	93.2566	1,274.41	87.9181	1,274.41	91.1546	1,274.41	91.6724	1,274.41	89.7362	1,274.41	93.4013	1,274.41	86.3475	1,274.41	91.3361	1,274.41	88.2922	1,274.41	88.7608	1,274.41	88.6024	1,274.41	83.7351	1,274.41	88.7194	1,274.41	83.5227	1,274.41	87.9032	1,274.41	82.3959
1,319.82	102.376	1,319.82	102.228	1,319.82	101.815	1,319.82	101.765	1,319.82	100.827	1,319.82	101.146	1,319.82	99.5421	1,319.82	100.166	1,319.82	99.778	1,319.82	98.942	1,319.82	100.365	1,319.82	97.7108	1,319.82	99.3578	1,319.82	96.2305	1,319.82	97.1282	1,319.82	94.8682	1,319.82	96.3014	1,319.82	94.9008	1,319.82	95.7159	1,319.82	94.0223	1,319.82	93.7762	1,319.82	91.9779	1,319.82	92.8289	1,319.82	89.9296	1,319.82	92.7498	1,319.82	85.962	1,319.82	91.3448	1,319.82	84.5101	1,319.82	89.412	1,319.82	80.8446	1,319.82	89.7561	1,319.82	85.722	1,319.82	90.7361	1,319.82	90.2453	1,319.82	93.6078	1,319.82	94.784
1,366.7	99.9678	1,366.7	100.397	1,366.7	98.462	1,366.7	99.801	1,366.7	98.2571	1,366.7	99.7878	1,366.7	98.494	1,366.7	99.476	1,366.7	96.9991	1,366.7	97.7202	1,366.7	95.9851	1,366.7	96.8573	1,366.7	95.565	1,366.7	95.9088	1,366.7	94.6221	1,366.7	93.14	1,366.7	93.8123	1,366.7	91.3161	1,366.7	91.9794	1,366.7	91.7414	1,366.7	90.9528	1,366.7	94.2657	1,366.7	91.4183	1,366.7	95.717	1,366.7	88.8896	1,366.7	93.3523	1,366.7	85.1699	1,366.7	93.4022	1,366.7	87.2683	1,366.7	90.3618	1,366.7	87.7162	1,366.7	84.906	1,366.7	72.3217	1,366.7	83.5847	1,366.7	80.5954	1,366.7	80.3555
1,413.57	98.9845	1,413.57	99.4965	1,413.57	100.045	1,413.57	99.6589	1,413.57	99.9563	1,413.57	99.1766	1,413.57	98.8722	1,413.57	100.189	1,413.57	99.9241	1,413.57	99.2208	1,413.57	99.6697	1,413.57	95.901	1,413.57	97.2953	1,413.57	92.8517	1,413.57	95.4782	1,413.57	92.7683	1,413.57	91.8994	1,413.57	89.9903	1,413.57	87.9277	1,413.57	86.6309	1,413.57	85.9514	1,413.57	88.5037	1,413.57	84.6678	1,413.57	89.1796	1,413.57	88.955	1,413.57	88.0612	1,413.57	82.3687	1,413.57	83.4717	1,413.57	70.9277	1,413.57	81.3113	1,413.57	78.6118	1,413.57	91.0218	1,413.57	85.6522	1,413.57	91.1292	1,413.57	86.2907	1,413.57	90.0467
1,463.38	103.009	1,463.38	102.784	1,463.38	101.897	1,463.38	101.165	1,463.38	100.374	1,463.38	100.528	1,463.38	99.9485	1,463.38	99.6817	1,463.38	99.4622	1,463.38	98.9011	1,463.38	95.7991	1,463.38	97.621	1,463.38	93.2394	1,463.38	94.6446	1,463.38	90.3658	1,463.38	94.8398	1,463.38	88.7289	1,463.38	93.8443	1,463.38	91.0274	1,463.38	94.4452	1,463.38	87.8933	1,463.38	95.3812	1,463.38	89.0499	1,463.38	95.097	1,463.38	92.0673	1,463.38	92.6278	1,463.38	91.9538	1,463.38	91.6416	1,463.38	90.8277	1,463.38	80.1007	1,463.38	88.0634	1,463.38	82.9444	1,463.38	89.0589	1,463.38	89.6068	1,463.38	74.8734	1,463.38	88.4699
1,516.11	102.524	1,516.11	102.597	1,516.11	101.346	1,516.11	102.419	1,516.11	100.789	1,516.11	102.46	1,516.11	101.759	1,516.11	101.265	1,516.11	102.351	1,516.11	98.9486	1,516.11	101.354	1,516.11	97.7785	1,516.11	98.414	1,516.11	95.5079	1,516.11	97.3718	1,516.11	93.0247	1,516.11	96.1209	1,516.11	87.2687	1,516.11	92.5653	1,516.11	80.0272	1,516.11	92.6329	1,516.11	81.5583	1,516.11	95.3389	1,516.11	86.9002	1,516.11	94.2544	1,516.11	88.4742	1,516.11	84.0619	1,516.11	83.6665	1,516.11	85.1408	1,516.11	76.8212	1,516.11	78.1528	1,516.11	78.3981	1,516.11	89.5604	1,516.11	83.7549	1,516.11	85.5391	1,516.11	63.6355
1,568.85	100.717	1,568.85	100.643	1,568.85	99.7471	1,568.85	99.6656	1,568.85	99.4101	1,568.85	100.107	1,568.85	98.5676	1,568.85	98.8966	1,568.85	96.1855	1,568.85	97.6225	1,568.85	92.9447	1,568.85	95.2465	1,568.85	93.7393	1,568.85	92.8573	1,568.85	95.745	1,568.85	91.6085	1,568.85	93.7286	1,568.85	90.5959	1,568.85	91.3441	1,568.85	89.5324	1,568.85	75.5493	1,568.85	88.1566	1,568.85	78.9775	1,568.85	78.9464	1,568.85	85.8817	1,568.85	83.6771	1,568.85	81.3665	1,568.85	80.3768	1,568.85	77.9153	1,568.85	63.0862	1,568.85	83.8289	1,568.85	86.5724	1,568.85	86.8597	1,568.85	87.6118	1,568.85	89.6779	1,568.85	86.9289
1,624.51	99.0439	1,624.51	99.1168	1,624.51	98.6327	1,624.51	98.14	1,624.51	98.5835	1,624.51	99.2927	1,624.51	97.5651	1,624.51	96.8136	1,624.51	97.8486	1,624.51	96.5759	1,624.51	96.3507	1,624.51	96.128	1,624.51	92.0145	1,624.51	94.7406	1,624.51	93.6073	1,624.51	93.0761	1,624.51	90.8108	1,624.51	89.8644	1,624.51	82.5002	1,624.51	89.321	1,624.51	81.9342	1,624.51	90.0879	1,624.51	82.2935	1,624.51	88.4832	1,624.51	87.7232	1,624.51	86.4055	1,624.51	89.0593	1,624.51	86.6439	1,624.51	84.347	1,624.51	85.7805	1,624.51	89.5832	1,624.51	88.5247	1,624.51	89.6303	1,624.51	87.1842	1,624.51	86.2752	1,624.51	85.2911
1,681.64	99.7862	1,681.64	99.7803	1,681.64	99.5958	1,681.64	99.3519	1,681.64	99.1638	1,681.64	98.4948	1,681.64	98.7923	1,681.64	97.6758	1,681.64	98.1844	1,681.64	96.6802	1,681.64	96.8307	1,681.64	94.8234	1,681.64	95.6765	1,681.64	92.8197	1,681.64	93.0273	1,681.64	91.6627	1,681.64	91.147	1,681.64	89.7203	1,681.64	89.1103	1,681.64	87.1893	1,681.64	85.8594	1,681.64	80.9821	1,681.64	81.3257	1,681.64	81.0544	1,681.64	83.7437	1,681.64	78.849	1,681.64	83.9971	1,681.64	81.6301	1,681.64	79.116	1,681.64	68.7076	1,681.64	76.7418	1,681.64	74.6979	1,681.64	71.6916	1,681.64	84.9056	1,681.64	83.207	1,681.64	86.635
1,741.7	101.063	1,741.7	100.765	1,741.7	100.849	1,741.7	100.351	1,741.7	100.459	1,741.7	99.5887	1,741.7	99.4984	1,741.7	98.6134	1,741.7	98.6938	1,741.7	97.7957	1,741.7	97.5019	1,741.7	96.1506	1,741.7	95.7276	1,741.7	94.6759	1,741.7	94.7572	1,741.7	91.7335	1,741.7	92.4135	1,741.7	88.0794	1,741.7	89.9415	1,741.7	86.3047	1,741.7	86.2572	1,741.7	84.6826	1,741.7	83.7989	1,741.7	83.5946	1,741.7	83.2254	1,741.7	83.7373	1,741.7	81.6826	1,741.7	77.2616	1,741.7	81.1852	1,741.7	78.3273	1,741.7	71.6432	1,741.7	75.3247	1,741.7	76.984	1,741.7	80.97	1,741.7	85.554	1,741.7	85.5394
1,803.22	101.111	1,803.22	101.232	1,803.22	101.142	1,803.22	100.549	1,803.22	100.588	1,803.22	99.7817	1,803.22	100.093	1,803.22	99.1281	1,803.22	99.0217	1,803.22	97.417	1,803.22	97.7139	1,803.22	96.5691	1,803.22	96.3596	1,803.22	95.0108	1,803.22	94.744	1,803.22	92.2306	1,803.22	92.9783	1,803.22	90.76	1,803.22	88.6063	1,803.22	86.6335	1,803.22	86.5355	1,803.22	80.3057	1,803.22	83.1811	1,803.22	84.505	1,803.22	75.0394	1,803.22	78.8598	1,803.22	80.8008	1,803.22	84.6332	1,803.22	75.4272	1,803.22	78.2258	1,803.22	68.5784	1,803.22	80.6748	1,803.22	81.2154	1,803.22	86.8759	1,803.22	83.8504	1,803.22	85.4447
1,866.21	100.769	1,866.21	100.459	1,866.21	100.633	1,866.21	100.299	1,866.21	100.277	1,866.21	99.6349	1,866.21	99.6165	1,866.21	98.5078	1,866.21	98.7774	1,866.21	97.5637	1,866.21	97.6304	1,866.21	95.5807	1,866.21	96.1863	1,866.21	93.5929	1,866.21	93.2859	1,866.21	92.8938	1,866.21	90.6974	1,866.21	89.1812	1,866.21	90.4197	1,866.21	83.5466	1,866.21	82.6813	1,866.21	80.6692	1,866.21	71.6131	1,866.21	54.6151	1,866.21	83.5355	1,866.21	81.4536	1,866.21	80.9535	1,866.21	76.8955	1,866.21	81.7856	1,866.21	78.9469	1,866.21	79.0126	1,866.21	75.9266	1,866.21	71.6358	1,866.21	82.9701	1,866.21	85.5716	1,866.21	88.1256
1,932.13	100.473	1,932.13	100.398	1,932.13	100.188	1,932.13	99.8096	1,932.13	100.003	1,932.13	99.0539	1,932.13	98.9769	1,932.13	98.0764	1,932.13	97.8624	1,932.13	96.7157	1,932.13	96.6762	1,932.13	95.5629	1,932.13	94.9607	1,932.13	93.8103	1,932.13	94.6059	1,932.13	90.1226	1,932.13	93.3996	1,932.13	88.614	1,932.13	86.6073	1,932.13	87.1116	1,932.13	86.0719	1,932.13	78.6419	1,932.13	84.0126	1,932.13	82.633	1,932.13	77.3598	1,932.13	77.377	1,932.13	81.543	1,932.13	81.9298	1,932.13	76.178	1,932.13	81.2638	1,932.13	82.9547	1,932.13	79.9175	1,932.13	81.0202	1,932.13	86.0081	1,932.13	86.0769	1,932.13	83.9032
1,999.51	100.737	1,999.51	100.74	1,999.51	100.957	1,999.51	99.9503	1,999.51	99.8618	1,999.51	99.3101	1,999.51	99.5579	1,999.51	98.6606	1,999.51	98.6094	1,999.51	97.363	1,999.51	97.452	1,999.51	96.0837	1,999.51	96.3655	1,999.51	94.2897	1,999.51	94.1063	1,999.51	93.525	1,999.51	90.6827	1,999.51	89.8729	1,999.51	90.8076	1,999.51	73.6991	1,999.51	81.2337	1,999.51	66.6136	1,999.51	79.4863	1,999.51	82.0053	1,999.51	81.9265	1,999.51	80.4532	1,999.51	78.5257	1,999.51	82.7751	1,999.51	80.5927	1,999.51	82.1587	1,999.51	81.1146	1,999.51	81.3079	1,999.51	78.3121	1,999.51	84.6727	1,999.51	81.3934	1,999.51	86.8158
2,069.82	101.52	2,069.82	101.004	2,069.82	100.919	2,069.82	101.133	2,069.82	101.164	2,069.82	100.613	2,069.82	100.022	2,069.82	99.3494	2,069.82	99.177	2,069.82	98.5742	2,069.82	97.9236	2,069.82	96.818	2,069.82	96.3247	2,069.82	95.233	2,069.82	95.1211	2,069.82	92.5279	2,069.82	93.4881	2,069.82	88.123	2,069.82	86.5545	2,069.82	88.3168	2,069.82	85.5217	2,069.82	80.0517	2,069.82	84.4928	2,069.82	61.8833	2,069.82	85.0545	2,069.82	83.2801	2,069.82	81.3336	2,069.82	75.2604	2,069.82	78.63	2,069.82	82.2362	2,069.82	84.4742	2,069.82	76.0789	2,069.82	75.4785	2,069.82	84.7305	2,069.82	87.4764	2,069.82	87.335
2,143.07	100.548	2,143.07	100.853	2,143.07	100.813	2,143.07	99.8537	2,143.07	99.7624	2,143.07	98.9836	2,143.07	99.4096	2,143.07	98.4611	2,143.07	98.4804	2,143.07	96.9228	2,143.07	97.4843	2,143.07	96.337	2,143.07	96.3713	2,143.07	94.244	2,143.07	95.0653	2,143.07	91.921	2,143.07	91.1844	2,143.07	90.2936	2,143.07	91.3494	2,143.07	77.1045	2,143.07	83.4975	2,143.07	55.634	2,143.07	78.6294	2,143.07	84.4162	2,143.07	68.3703	2,143.07	80.8302	2,143.07	84.9845	2,143.07	83.0826	2,143.07	84.3124	2,143.07	86.7237	2,143.07	84.6923	2,143.07	82.5586	2,143.07	78.1669	2,143.07	85.2905	2,143.07	80.7206	2,143.07	87.1328
2,219.24	99.7884	2,219.24	99.3973	2,219.24	99.3369	2,219.24	99.6043	2,219.24	99.5773	2,219.24	98.9065	2,219.24	98.5513	2,219.24	97.7425	2,219.24	97.661	2,219.24	96.8347	2,219.24	96.567	2,219.24	94.7319	2,219.24	95.2117	2,219.24	93.6752	2,219.24	93.0437	2,219.24	92.6183	2,219.24	92.3081	2,219.24	87.8418	2,219.24	88.502	2,219.24	89.3265	2,219.24	87.0209	2,219.24	85.7941	2,219.24	88.2044	2,219.24	72.55	2,219.24	87.4293	2,219.24	84.0932	2,219.24	82.0595	2,219.24	79.5369	2,219.24	79.5087	2,219.24	81.7938	2,219.24	83.2091	2,219.24	75.0396	2,219.24	75.5764	2,219.24	84.4971	2,219.24	83.0707	2,219.24	84.7596
2,296.88	100.275	2,296.88	100.162	2,296.88	100.283	2,296.88	99.0644	2,296.88	99.112	2,296.88	98.4063	2,296.88	98.7675	2,296.88	98.0526	2,296.88	97.7324	2,296.88	97.1834	2,296.88	96.7666	2,296.88	96.8435	2,296.88	95.7788	2,296.88	94.7122	2,296.88	95.4423	2,296.88	92.7028	2,296.88	93.7435	2,296.88	91.6718	2,296.88	91.4943	2,296.88	81.7802	2,296.88	86.869	2,296.88	77.9677	2,296.88	77.8754	2,296.88	87.2922	2,296.88	76.6121	2,296.88	82.361	2,296.88	85.9634	2,296.88	83.044	2,296.88	87.1024	2,296.88	84.8746	2,296.88	84.0012	2,296.88	79.1584	2,296.88	79.1382	2,296.88	83.0266	2,296.88	81.9888	2,296.88	84.9924
2,378.91	99.6287	2,378.91	99.6734	2,378.91	99.5403	2,378.91	100.055	2,378.91	99.8931	2,378.91	99.7092	2,378.91	98.9425	2,378.91	98.4132	2,378.91	98.5826	2,378.91	97.2665	2,378.91	97.685	2,378.91	95.6825	2,378.91	96.3588	2,378.91	95.5011	2,378.91	94.9449	2,378.91	94.6788	2,378.91	92.6149	2,378.91	90.3457	2,378.91	90.9493	2,378.91	90.7782	2,378.91	89.6043	2,378.91	88.2428	2,378.91	88.3921	2,378.91	82.6593	2,378.91	88.3317	2,378.91	88.5675	2,378.91	85.7073	2,378.91	83.5324	2,378.91	78.2649	2,378.91	79.0109	2,378.91	79.8136	2,378.91	78.5899	2,378.91	74.3374	2,378.91	83.8231	2,378.91	84.6753	2,378.91	85.2565
2,462.4	99.9813	2,462.4	99.4948	2,462.4	99.4941	2,462.4	98.3703	2,462.4	98.5695	2,462.4	97.6703	2,462.4	98.5314	2,462.4	97.5145	2,462.4	97.3763	2,462.4	97.1674	2,462.4	96.3689	2,462.4	96.6037	2,462.4	95.7847	2,462.4	94.0912	2,462.4	95.0416	2,462.4	92.8864	2,462.4	94.9924	2,462.4	91.5597	2,462.4	92.854	2,462.4	85.8393	2,462.4	88.7627	2,462.4	82.9899	2,462.4	86.1334	2,462.4	89.1183	2,462.4	84.3288	2,462.4	85.2986	2,462.4	86.9753	2,462.4	85.4927	2,462.4	88.9441	2,462.4	85.5145	2,462.4	85.2865	2,462.4	77.0938	2,462.4	80.0214	2,462.4	80.7231	2,462.4	80.6383	2,462.4	84.3545
2,548.83	99.811	2,548.83	100.055	2,548.83	100.039	2,548.83	100.079	2,548.83	99.9748	2,548.83	99.4774	2,548.83	98.7519	2,548.83	98.3765	2,548.83	98.2626	2,548.83	96.9694	2,548.83	97.5452	2,548.83	95.9505	2,548.83	96.5255	2,548.83	96.1211	2,548.83	95.9523	2,548.83	94.6492	2,548.83	91.7593	2,548.83	91.1343	2,548.83	89.9337	2,548.83	90.7587	2,548.83	89.2874	2,548.83	90.8756	2,548.83	89.0281	2,548.83	86.8978	2,548.83	88.6483	2,548.83	87.6385	2,548.83	86.7832	2,548.83	87.0777	2,548.83	82.4996	2,548.83	78.1199	2,548.83	83.2074	2,548.83	83.7858	2,548.83	76.2691	2,548.83	81.106	2,548.83	78.389	2,548.83	84.7789
2,639.65	100.019	2,639.65	99.435	2,639.65	99.3745	2,639.65	98.7513	2,639.65	98.5647	2,639.65	97.705	2,639.65	98.2961	2,639.65	97.4704	2,639.65	97.5344	2,639.65	97.4543	2,639.65	96.1025	2,639.65	96.3284	2,639.65	95.2969	2,639.65	94.5839	2,639.65	94.2768	2,639.65	93.3634	2,639.65	94.7804	2,639.65	91.8165	2,639.65	92.8045	2,639.65	89.4991	2,639.65	90.3389	2,639.65	85.8165	2,639.65	87.5743	2,639.65	88.2858	2,639.65	87.5024	2,639.65	88.4039	2,639.65	87.6133	2,639.65	86.7048	2,639.65	88.9056	2,639.65	86.8683	2,639.65	84.9306	2,639.65	79.5347	2,639.65	83.7973	2,639.65	76.8389	2,639.65	79.0406	2,639.65	81.1022
2,731.93	98.9956	2,731.93	99.1849	2,731.93	99.2316	2,731.93	98.9751	2,731.93	98.9927	2,731.93	98.3274	2,731.93	98.1455	2,731.93	97.3551	2,731.93	96.8503	2,731.93	95.9193	2,731.93	96.876	2,731.93	95.7797	2,731.93	96.3738	2,731.93	95.3664	2,731.93	95.1343	2,731.93	92.7751	2,731.93	93.045	2,731.93	91.5688	2,731.93	91.076	2,731.93	89.3716	2,731.93	89.1347	2,731.93	90.1862	2,731.93	89.0886	2,731.93	89.5934	2,731.93	88.5897	2,731.93	88.7491	2,731.93	89.0489	2,731.93	86.171	2,731.93	85.5204	2,731.93	82.5114	2,731.93	83.7281	2,731.93	83.506	2,731.93	81.0704	2,731.93	84.3913	2,731.93	80.7563	2,731.93	82.9167
2,828.61	99.4997	2,828.61	99.0667	2,828.61	98.9445	2,828.61	98.605	2,828.61	98.2867	2,828.61	98.2914	2,828.61	97.9921	2,828.61	97.9641	2,828.61	97.7837	2,828.61	97.7415	2,828.61	97.197	2,828.61	96.5228	2,828.61	96.5873	2,828.61	95.7207	2,828.61	96.273	2,828.61	94.9578	2,828.61	94.8995	2,828.61	92.6761	2,828.61	92.947	2,828.61	91.371	2,828.61	91.586	2,828.61	90.5938	2,828.61	91.6581	2,828.61	91.5403	2,828.61	90.9459	2,828.61	90.5323	2,828.61	89.3808	2,828.61	89.4402	2,828.61	89.9055	2,828.61	85.6102	2,828.61	86.0518	2,828.61	72.7998	2,828.61	85.353	2,828.61	79.5495	2,828.61	82.6134	2,828.61	83.6764
2,928.22	98.2898	2,928.22	98.6369	2,928.22	98.6221	2,928.22	98.321	2,928.22	98.3162	2,928.22	97.9277	2,928.22	98.0499	2,928.22	97.5756	2,928.22	97.7564	2,928.22	96.6629	2,928.22	97.8908	2,928.22	96.4852	2,928.22	97.4585	2,928.22	94.9619	2,928.22	95.7346	2,928.22	93.3053	2,928.22	94.0064	2,928.22	91.5863	2,928.22	92.2042	2,928.22	92.2854	2,928.22	91.1102	2,928.22	92.0077	2,928.22	91.2131	2,928.22	92.6795	2,928.22	92.0875	2,928.22	91.6264	2,928.22	92.5184	2,928.22	87.4302	2,928.22	87.7682	2,928.22	82.9663	2,928.22	85.2336	2,928.22	85.8951	2,928.22	83.7818	2,928.22	84.0803	2,928.22	83.0603	2,928.22	79.0435
3,030.76	98.095	3,030.76	97.909	3,030.76	98.0454	3,030.76	97.8131	3,030.76	97.7718	3,030.76	98.2374	3,030.76	97.5042	3,030.76	97.4229	3,030.76	98.0745	3,030.76	97.8929	3,030.76	97.4101	3,030.76	96.4987	3,030.76	96.3574	3,030.76	95.8079	3,030.76	95.6489	3,030.76	93.9935	3,030.76	93.832	3,030.76	92.3862	3,030.76	92.5672	3,030.76	91.8296	3,030.76	92.706	3,030.76	94.3961	3,030.76	93.0122	3,030.76	92.8905	3,030.76	92.9323	3,030.76	91.7219	3,030.76	90.8318	3,030.76	90.4228	3,030.76	89.4213	3,030.76	85.6241	3,030.76	84.3867	3,030.76	82.6734	3,030.76	80.8119	3,030.76	82.5269	3,030.76	81.2633	3,030.76	87.3637
3,137.7	99.0071	3,137.7	98.1209	3,137.7	98.2257	3,137.7	97.9605	3,137.7	98.8668	3,137.7	97.7425	3,137.7	99.1376	3,137.7	98.3476	3,137.7	97.9471	3,137.7	97.3371	3,137.7	97.3711	3,137.7	96.5289	3,137.7	96.8053	3,137.7	94.8365	3,137.7	94.8265	3,137.7	93.3025	3,137.7	94.254	3,137.7	93.4331	3,137.7	93.7697	3,137.7	94.3351	3,137.7	93.2692	3,137.7	93.1676	3,137.7	94.2949	3,137.7	94.4039	3,137.7	94.6383	3,137.7	92.4991	3,137.7	92.1931	3,137.7	89.5448	3,137.7	90.1558	3,137.7	86.2016	3,137.7	87.0937	3,137.7	78.7328	3,137.7	84.8934	3,137.7	87.1005	3,137.7	85.9333	3,137.7	85.6747
3,249.02	98.1564	3,249.02	98.5617	3,249.02	98.6427	3,249.02	98.7306	3,249.02	98.0442	3,249.02	98.1391	3,249.02	98.0836	3,249.02	98.0877	3,249.02	97.8633	3,249.02	96.4764	3,249.02	97.8184	3,249.02	95.3904	3,249.02	96.281	3,249.02	94.5399	3,249.02	95.1	3,249.02	94.4723	3,249.02	93.4619	3,249.02	93.8876	3,249.02	92.7552	3,249.02	94.5227	3,249.02	93.6069	3,249.02	94.2351	3,249.02	94.1285	3,249.02	93.2058	3,249.02	93.4956	3,249.02	92.6032	3,249.02	92.7025	3,249.02	89.5515	3,249.02	89.5564	3,249.02	84.8927	3,249.02	85.6449	3,249.02	85.9397	3,249.02	80.3154	3,249.02	86.2287	3,249.02	84.7737	3,249.02	85.4055
3,363.28	97.4136	3,363.28	97.9912	3,363.28	98.1865	3,363.28	97.9917	3,363.28	98.0716	3,363.28	98.5605	3,363.28	97.4175	3,363.28	97.4952	3,363.28	98.1094	3,363.28	97.6368	3,363.28	97.0115	3,363.28	96.7686	3,363.28	95.9684	3,363.28	95.5502	3,363.28	95.3576	3,363.28	94.7641	3,363.28	94.1699	3,363.28	94.2071	3,363.28	93.9212	3,363.28	93.995	3,363.28	94.6136	3,363.28	94.6074	3,363.28	94.5349	3,363.28	93.3783	3,363.28	93.2257	3,363.28	92.4994	3,363.28	90.7703	3,363.28	90.4737	3,363.28	90.4417	3,363.28	84.2818	3,363.28	85.3457	3,363.28	85.6335	3,363.28	84.8414	3,363.28	84.7482	3,363.28	82.9299	3,363.28	89.7562
3,481.93	98.7696	3,481.93	98.2279	3,481.93	98.0714	3,481.93	98.2789	3,481.93	98.7692	3,481.93	98.3226	3,481.93	98.8215	3,481.93	97.9695	3,481.93	97.9113	3,481.93	97.7324	3,481.93	97.3348	3,481.93	96.8832	3,481.93	96.9068	3,481.93	95.6623	3,481.93	95.3187	3,481.93	94.8425	3,481.93	95.889	3,481.93	95.384	3,481.93	95.372	3,481.93	94.8717	3,481.93	94.6301	3,481.93	94.1661	3,481.93	94.6148	3,481.93	94.3744	3,481.93	94.4921	3,481.93	92.5002	3,481.93	93.1728	3,481.93	90.2248	3,481.93	91.1659	3,481.93	89.5452	3,481.93	87.7832	3,481.93	84.8048	3,481.93	85.0222	3,481.93	89.2738	3,481.93	88.3754	3,481.93	87.8752
3,604.98	98.4422	3,604.98	98.4976	3,604.98	98.223	3,604.98	98.7865	3,604.98	98.3441	3,604.98	98.4289	3,604.98	98.5936	3,604.98	98.3725	3,604.98	97.9245	3,604.98	96.737	3,604.98	97.4514	3,604.98	95.5027	3,604.98	96.4167	3,604.98	96.02	3,604.98	95.3916	3,604.98	94.5066	3,604.98	94.4415	3,604.98	94.468	3,604.98	94.3696	3,604.98	94.602	3,604.98	94.0527	3,604.98	93.7532	3,604.98	93.9537	3,604.98	92.6593	3,604.98	92.9253	3,604.98	91.4198	3,604.98	92.251	3,604.98	91.0148	3,604.98	91.0269	3,604.98	88.8258	3,604.98	87.9484	3,604.98	83.4908	3,604.98	86.1025	3,604.98	87.8269	3,604.98	87.7311	3,604.98	88.4654
3,732.42	98.9409	3,732.42	99.1884	3,732.42	99.393	3,732.42	99.5129	3,732.42	99.1269	3,732.42	99.1468	3,732.42	98.5932	3,732.42	98.2121	3,732.42	98.5826	3,732.42	97.581	3,732.42	97.5798	3,732.42	96.9412	3,732.42	96.207	3,732.42	95.9847	3,732.42	95.6594	3,732.42	95.7038	3,732.42	94.2163	3,732.42	94.7327	3,732.42	94.5559	3,732.42	94.1163	3,732.42	94.0678	3,732.42	93.8022	3,732.42	93.9926	3,732.42	92.963	3,732.42	92.3251	3,732.42	92.5684	3,732.42	91.8966	3,732.42	91.3044	3,732.42	90.3825	3,732.42	86.8957	3,732.42	88.2749	3,732.42	86.105	3,732.42	86.2518	3,732.42	85.5978	3,732.42	87.9292	3,732.42	89.9488
3,864.26	99.38	3,864.26	99.2602	3,864.26	99.5071	3,864.26	99.084	3,864.26	99.3508	3,864.26	98.8222	3,864.26	98.8893	3,864.26	98.2373	3,864.26	98.411	3,864.26	97.7177	3,864.26	97.2821	3,864.26	96.7231	3,864.26	96.5206	3,864.26	95.651	3,864.26	95.8955	3,864.26	95.4957	3,864.26	95.7898	3,864.26	94.942	3,864.26	94.0427	3,864.26	93.4597	3,864.26	93.1519	3,864.26	92.7329	3,864.26	92.522	3,864.26	92.1074	3,864.26	92.813	3,864.26	92.336	3,864.26	92.1072	3,864.26	90.8456	3,864.26	89.0605	3,864.26	87.2627	3,864.26	88.5454	3,864.26	85.1464	3,864.26	87.0494	3,864.26	87.9127	3,864.26	86.2682	3,864.26	89.244
4,000.49	99.942	4,000.49	99.7001	4,000.49	99.7179	4,000.49	99.3234	4,000.49	99.3513	4,000.49	98.9447	4,000.49	98.9388	4,000.49	98.3389	4,000.49	98.4774	4,000.49	97.8672	4,000.49	97.6591	4,000.49	97.3143	4,000.49	97.1769	4,000.49	96.5487	4,000.49	96.0575	4,000.49	95.2348	4,000.49	94.8626	4,000.49	93.7727	4,000.49	93.749	4,000.49	92.7311	4,000.49	93.0336	4,000.49	91.8097	4,000.49	92.0939	4,000.49	92.5218	4,000.49	92.1063	4,000.49	92.2124	4,000.49	90.5613	4,000.49	90.0553	4,000.49	89.8805	4,000.49	88.1936	4,000.49	87.1102	4,000.49	83.1705	4,000.49	86.0192	4,000.49	88.052	4,000.49	87.6762	4,000.49	87.9987
4,141.11	99.6644	4,141.11	99.7015	4,141.11	99.7103	4,141.11	99.7347	4,141.11	99.3357	4,141.11	99.0011	4,141.11	98.9897	4,141.11	98.3522	4,141.11	98.4586	4,141.11	97.8852	4,141.11	98.0162	4,141.11	97.4074	4,141.11	97.3454	4,141.11	95.9504	4,141.11	96.0036	4,141.11	94.7051	4,141.11	94.8266	4,141.11	92.7204	4,141.11	93.5474	4,141.11	92.0154	4,141.11	91.9993	4,141.11	91.6776	4,141.11	91.5476	4,141.11	91.3529	4,141.11	91.3229	4,141.11	91.2447	4,141.11	91.8845	4,141.11	90.1803	4,141.11	90.8783	4,141.11	87.5437	4,141.11	86.7278	4,141.11	81.6952	4,141.11	82.3896	4,141.11	88.0974	4,141.11	87.9915	4,141.11	89.1582
4,287.6	99.9635	4,287.6	99.7712	4,287.6	99.922	4,287.6	99.5182	4,287.6	99.5059	4,287.6	99.2414	4,287.6	99.477	4,287.6	99.1884	4,287.6	99.0945	4,287.6	98.8774	4,287.6	98.5865	4,287.6	97.6833	4,287.6	97.9572	4,287.6	96.1637	4,287.6	96.4316	4,287.6	94.3622	4,287.6	94.4323	4,287.6	93.025	4,287.6	93.1579	4,287.6	92.3108	4,287.6	92.3216	4,287.6	91.263	4,287.6	91.421	4,287.6	91.0619	4,287.6	90.6664	4,287.6	91.4081	4,287.6	90.5177	4,287.6	90.2701	4,287.6	90.7186	4,287.6	87.4277	4,287.6	86.1362	4,287.6	83.0719	4,287.6	85.639	4,287.6	86.1812	4,287.6	88.1337	4,287.6	90.3276
4,438.48	99.3146	4,438.48	99.2185	4,438.48	99.1329	4,438.48	99.1079	4,438.48	99.1753	4,438.48	99.2153	4,438.48	99.0322	4,438.48	98.8726	4,438.48	98.6697	4,438.48	98.6523	4,438.48	97.9754	4,438.48	96.9849	4,438.48	97.0639	4,438.48	95.9052	4,438.48	95.4769	4,438.48	94.5852	4,438.48	94.9265	4,438.48	93.9223	4,438.48	93.8351	4,438.48	92.2961	4,438.48	91.6746	4,438.48	91.0892	4,438.48	90.5268	4,438.48	90.3066	4,438.48	89.8549	4,438.48	90.6399	4,438.48	90.8591	4,438.48	90.2155	4,438.48	90.1509	4,438.48	86.1644	4,438.48	86.1985	4,438.48	83.4932	4,438.48	85.1612	4,438.48	86.4892	4,438.48	88.1045	4,438.48	90.9266
4,595.21	99.9943	4,595.21	99.8993	4,595.21	99.8865	4,595.21	99.993	4,595.21	100.029	4,595.21	99.9743	4,595.21	99.7268	4,595.21	98.9454	4,595.21	99.4673	4,595.21	98.3058	4,595.21	98.3657	4,595.21	97.3145	4,595.21	98.0729	4,595.21	96.6748	4,595.21	96.7165	4,595.21	95.8161	4,595.21	95.7803	4,595.21	93.5315	4,595.21	93.1712	4,595.21	91.7564	4,595.21	91.0441	4,595.21	89.8282	4,595.21	89.9953	4,595.21	90.3832	4,595.21	90.3112	4,595.21	91.01	4,595.21	90.5727	4,595.21	89.8669	4,595.21	90.0197	4,595.21	85.2123	4,595.21	85.6655	4,595.21	87.241	4,595.21	86.6142	4,595.21	88.4175	4,595.21	88.5263	4,595.21	91.5769
4,756.35	100.189	4,756.35	99.7997	4,756.35	99.6817	4,756.35	99.984	4,756.35	99.8722	4,756.35	99.8863	4,756.35	99.3561	4,756.35	99.0733	4,756.35	98.4803	4,756.35	99.0151	4,756.35	98.3775	4,756.35	98.7839	4,756.35	98.4126	4,756.35	97.4141	4,756.35	96.868	4,756.35	95.5633	4,756.35	94.5983	4,756.35	92.9402	4,756.35	92.6272	4,756.35	92.5153	4,756.35	90.7334	4,756.35	91.9758	4,756.35	90.6868	4,756.35	90.9466	4,756.35	90.515	4,756.35	90.2908	4,756.35	90.1191	4,756.35	89.6829	4,756.35	88.2668	4,756.35	86.3516	4,756.35	86.9187	4,756.35	86.6627	4,756.35	86.5102	4,756.35	88.8849	4,756.35	88.8315	4,756.35	92.217
4,924.8	98.8455	4,924.8	98.6913	4,924.8	98.7211	4,924.8	99.519	4,924.8	99.0584	4,924.8	99.4893	4,924.8	99.2796	4,924.8	99.3934	4,924.8	99.6425	4,924.8	99.5574	4,924.8	99.7395	4,924.8	99.3408	4,924.8	99.414	4,924.8	97.2764	4,924.8	97.4942	4,924.8	95.6655	4,924.8	95.3965	4,924.8	94.3841	4,924.8	94.832	4,924.8	93.4956	4,924.8	93.6049	4,924.8	92.2471	4,924.8	91.583	4,924.8	89.4227	4,924.8	89.1525	4,924.8	90.2108	4,924.8	88.47	4,924.8	90.868	4,924.8	90.3949	4,924.8	88.3457	4,924.8	88.1625	4,924.8	88.9114	4,924.8	86.2362	4,924.8	90.7534	4,924.8	89.6041	4,924.8	94.0489
5,097.66	98.3341	5,097.66	98.0706	5,097.66	98.0051	5,097.66	98.7683	5,097.66	98.4972	5,097.66	99.3289	5,097.66	98.6849	5,097.66	99.7997	5,097.66	99.0951	5,097.66	99.7561	5,097.66	99.0062	5,097.66	98.8991	5,097.66	97.9594	5,097.66	98.2699	5,097.66	97.2933	5,097.66	97.4145	5,097.66	96.3505	5,097.66	95.8811	5,097.66	94.9626	5,097.66	93.4658	5,097.66	93.2617	5,097.66	90.7498	5,097.66	89.4926	5,097.66	87.5662	5,097.66	87.3932	5,097.66	86.3603	5,097.66	86.3022	5,097.66	90.5547	5,097.66	89.5595	5,097.66	88.0821	5,097.66	88.8223	5,097.66	88.4816	5,097.66	87.3586	5,097.66	92.9059	5,097.66	92.8893	5,097.66	94.9138
5,277.83	98.2772	5,277.83	98.1149	5,277.83	97.7439	5,277.83	98.4677	5,277.83	97.7059	5,277.83	98.1787	5,277.83	97.8832	5,277.83	97.961	5,277.83	97.7566	5,277.83	98.3025	5,277.83	98.0524	5,277.83	98.6142	5,277.83	97.5614	5,277.83	98.0414	5,277.83	97.1657	5,277.83	96.8407	5,277.83	95.7735	5,277.83	94.4679	5,277.83	93.2921	5,277.83	92.8979	5,277.83	92.8047	5,277.83	90.467	5,277.83	91.6365	5,277.83	87.2052	5,277.83	90.0079	5,277.83	81.3216	5,277.83	85.0643	5,277.83	86.401	5,277.83	82.9182	5,277.83	80.5259	5,277.83	83.9383	5,277.83	87.966	5,277.83	86.3657	5,277.83	91.9579	5,277.83	91.9876	5,277.83	92.9203
5,463.87	100.003	5,463.87	99.6178	5,463.87	99.3697	5,463.87	99.6885	5,463.87	99.9968	5,463.87	99.1341	5,463.87	99.1927	5,463.87	99.072	5,463.87	99.3238	5,463.87	99.1936	5,463.87	99.0663	5,463.87	99.2449	5,463.87	98.5798	5,463.87	97.5698	5,463.87	97.4961	5,463.87	96.138	5,463.87	96.1989	5,463.87	94.763	5,463.87	95.045	5,463.87	94.7276	5,463.87	94.5746	5,463.87	93.8276	5,463.87	93.5869	5,463.87	92.0858	5,463.87	92.1353	5,463.87	87.7604	5,463.87	88.8591	5,463.87	84.2206	5,463.87	84.1916	5,463.87	81.3337	5,463.87	81.307	5,463.87	85.8897	5,463.87	86.0248	5,463.87	91.6447	5,463.87	91.906	5,463.87	90.6015
5,657.23	99.6352	5,657.23	99.1821	5,657.23	98.4776	5,657.23	99.7064	5,657.23	99.7244	5,657.23	98.6326	5,657.23	98.118	5,657.23	99.1671	5,657.23	98.5604	5,657.23	98.8394	5,657.23	98.2182	5,657.23	98.3438	5,657.23	97.9346	5,657.23	97.101	5,657.23	96.6691	5,657.23	95.8587	5,657.23	95.5167	5,657.23	94.1472	5,657.23	94.3179	5,657.23	94.3336	5,657.23	92.8839	5,657.23	93.7096	5,657.23	93.2447	5,657.23	92.9318	5,657.23	92.1046	5,657.23	89.8631	5,657.23	90.984	5,657.23	83.1758	5,657.23	85.6199	5,657.23	84.1455	5,657.23	85.1883	5,657.23	78.1839	5,657.23	82.7275	5,657.23	90.749	5,657.23	90.6834	5,657.23	87.0465
5,856.45	98.5902	5,856.45	98.1503	5,856.45	97.9572	5,856.45	99.3984	5,856.45	99.2321	5,856.45	98.1101	5,856.45	97.7106	5,856.45	98.921	5,856.45	98.6057	5,856.45	98.4905	5,856.45	98.5684	5,856.45	97.993	5,856.45	97.7462	5,856.45	96.9922	5,856.45	96.4743	5,856.45	95.7383	5,856.45	94.8155	5,856.45	93.4678	5,856.45	93.6592	5,856.45	94.0448	5,856.45	92.9397	5,856.45	92.5368	5,856.45	93.0364	5,856.45	92.9087	5,856.45	92.3439	5,856.45	89.3394	5,856.45	92.3078	5,856.45	84.2049	5,856.45	85.9685	5,856.45	84.4509	5,856.45	85.9194	5,856.45	73.1717	5,856.45	83.0651	5,856.45	90.6216	5,856.45	87.0324	5,856.45	83.9572
6,062.99	97.3025	6,062.99	97.2624	6,062.99	97.9198	6,062.99	98.4832	6,062.99	98.2027	6,062.99	96.9934	6,062.99	96.9797	6,062.99	97.9644	6,062.99	97.8624	6,062.99	97.7405	6,062.99	98.2721	6,062.99	96.9059	6,062.99	96.2898	6,062.99	95.5388	6,062.99	95.5133	6,062.99	94.4408	6,062.99	93.502	6,062.99	92.2203	6,062.99	92.2363	6,062.99	93.143	6,062.99	92.1964	6,062.99	90.8637	6,062.99	92.0765	6,062.99	92.8204	6,062.99	92.357	6,062.99	91.3614	6,062.99	92.3794	6,062.99	84.9133	6,062.99	85.295	6,062.99	82.216	6,062.99	83.583	6,062.99	73.5968	6,062.99	86.0662	6,062.99	90.262	6,062.99	84.3861	6,062.99	83.2071
6,276.86	95.8851	6,276.86	97.5406	6,276.86	98.2519	6,276.86	97.0801	6,276.86	96.9372	6,276.86	96.9543	6,276.86	96.5537	6,276.86	97.8062	6,276.86	98.2471	6,276.86	97.5527	6,276.86	97.9896	6,276.86	96.805	6,276.86	95.1013	6,276.86	95.3648	6,276.86	93.9029	6,276.86	93.808	6,276.86	92.3811	6,276.86	91.1502	6,276.86	90.6996	6,276.86	92.9816	6,276.86	90.5191	6,276.86	91.1055	6,276.86	91.7171	6,276.86	93.5056	6,276.86	91.5782	6,276.86	93.4604	6,276.86	92.2483	6,276.86	89.0715	6,276.86	85.2193	6,276.86	81.3428	6,276.86	79.3013	6,276.86	70.2852	6,276.86	88.0481	6,276.86	89.6433	6,276.86	81.9303	6,276.86	87.544
6,498.05	94.1266	6,498.05	98.6162	6,498.05	98.503	6,498.05	96.0957	6,498.05	95.7596	6,498.05	97.8752	6,498.05	96.8897	6,498.05	98.2929	6,498.05	98.4667	6,498.05	97.5219	6,498.05	97.3297	6,498.05	96.2406	6,498.05	94.5117	6,498.05	94.8544	6,498.05	93.3127	6,498.05	92.613	6,498.05	91.3297	6,498.05	89.2248	6,498.05	89.4854	6,498.05	92.808	6,498.05	89.2346	6,498.05	89.4506	6,498.05	91.1115	6,498.05	93.8683	6,498.05	90.9892	6,498.05	94.4888	6,498.05	91.6695	6,498.05	91.2197	6,498.05	87.457	6,498.05	84.3293	6,498.05	70.3301	6,498.05	84.0737	6,498.05	89.0193	6,498.05	89.0616	6,498.05	77.4291	6,498.05	91.3984
6,726.56	94.3353	6,726.56	99.0852	6,726.56	99.4094	6,726.56	94.9117	6,726.56	94.3753	6,726.56	98.1245	6,726.56	97.3153	6,726.56	98.0722	6,726.56	98.1781	6,726.56	97.1189	6,726.56	97.1118	6,726.56	94.6815	6,726.56	92.6985	6,726.56	93.1136	6,726.56	92.6992	6,726.56	91.5526	6,726.56	89.2024	6,726.56	84.9723	6,726.56	87.169	6,726.56	92.1189	6,726.56	87.4414	6,726.56	87.0933	6,726.56	88.9923	6,726.56	93.8132	6,726.56	88.7829	6,726.56	94.843	6,726.56	90.7092	6,726.56	91.46	6,726.56	88.4402	6,726.56	83.45	6,726.56	82.1561	6,726.56	87.0998	6,726.56	91.7855	6,726.56	88.5971	6,726.56	84.1851	6,726.56	92.8684
6,963.87	96.8417	6,963.87	100.066	6,963.87	99.8577	6,963.87	94.503	6,963.87	94.2109	6,963.87	99.2069	6,963.87	98.5963	6,963.87	98.2907	6,963.87	98.4572	6,963.87	96.0329	6,963.87	96.2493	6,963.87	93.4685	6,963.87	91.2718	6,963.87	92.8217	6,963.87	91.4933	6,963.87	89.5027	6,963.87	87.5712	6,963.87	78.7764	6,963.87	83.8235	6,963.87	91.9794	6,963.87	84.8495	6,963.87	81.4908	6,963.87	86.184	6,963.87	92.4104	6,963.87	86.8816	6,963.87	94.4979	6,963.87	88.1525	6,963.87	92.6462	6,963.87	90.481	6,963.87	87.9067	6,963.87	88.7526	6,963.87	81.2407	6,963.87	93.7096	6,963.87	90.297	6,963.87	91.4084	6,963.87	92.8152
7,209.96	98.9149	7,209.96	100.122	7,209.96	99.4139	7,209.96	97.1399	7,209.96	97.0023	7,209.96	99.9608	7,209.96	99.7159	7,209.96	97.9043	7,209.96	98.4281	7,209.96	94.9075	7,209.96	94.7762	7,209.96	91.6688	7,209.96	89.0647	7,209.96	89.5025	7,209.96	89.2421	7,209.96	85.7726	7,209.96	82.6194	7,209.96	77.085	7,209.96	82.7009	7,209.96	91.7827	7,209.96	80.4012	7,209.96	73.1954	7,209.96	81.3471	7,209.96	91.2836	7,209.96	79.8898	7,209.96	93.2226	7,209.96	80.7928	7,209.96	92.3183	7,209.96	90.0511	7,209.96	89.4506	7,209.96	87.8977	7,209.96	79.7812	7,209.96	92.2441	7,209.96	93.1749	7,209.96	92.1333	7,209.96	91.7495
7,464.84	100.993	7,464.84	99.4437	7,464.84	98.4664	7,464.84	99.1656	7,464.84	98.8544	7,464.84	100.094	7,464.84	99.5829	7,464.84	97.3894	7,464.84	97.0402	7,464.84	94.2603	7,464.84	92.8478	7,464.84	89.951	7,464.84	87.92	7,464.84	88.6968	7,464.84	89.7845	7,464.84	78.5492	7,464.84	83.8917	7,464.84	85.2027	7,464.84	84.4869	7,464.84	91.5298	7,464.84	85.991	7,464.84	84.1773	7,464.84	68.0572	7,464.84	88.0753	7,464.84	74.5948	7,464.84	90.9012	7,464.84	82.2622	7,464.84	90.8068	7,464.84	90.7819	7,464.84	90.7931	7,464.84	91.2685	7,464.84	76.9705	7,464.84	92.4985	7,464.84	93.3666	7,464.84	94.4274	7,464.84	87.035
7,727.05	101.417	7,727.05	97.1142	7,727.05	95.8628	7,727.05	99.7394	7,727.05	99.3842	7,727.05	99.7195	7,727.05	99.1965	7,727.05	96.8167	7,727.05	96.1012	7,727.05	92.314	7,727.05	91.8814	7,727.05	88.1055	7,727.05	85.7484	7,727.05	86.8743	7,727.05	88.6684	7,727.05	37.3057	7,727.05	81.754	7,727.05	89.8126	7,727.05	87.8367	7,727.05	91.8782	7,727.05	85.4757	7,727.05	85.8868	7,727.05	78.8737	7,727.05	85.7892	7,727.05	80.9337	7,727.05	89.0798	7,727.05	89.5646	7,727.05	85.3347	7,727.05	88.8913	7,727.05	88.4467	7,727.05	89.1854	7,727.05	79.016	7,727.05	88.116	7,727.05	93.3243	7,727.05	93.2692	7,727.05	86.6878
7,999.51	101.006	7,999.51	94.9898	7,999.51	94.1849	7,999.51	99.577	7,999.51	98.9864	7,999.51	98.6157	7,999.51	98.3431	7,999.51	96.087	7,999.51	94.82	7,999.51	90.8932	7,999.51	90.4799	7,999.51	87.4452	7,999.51	86.6418	7,999.51	86.1756	7,999.51	89.5744	7,999.51	77.3732	7,999.51	84.794	7,999.51	92.743	7,999.51	89.5656	7,999.51	90.9286	7,999.51	88.3059	7,999.51	88.3485	7,999.51	82.9577	7,999.51	78.2954	7,999.51	82.6748	7,999.51	86.7236	7,999.51	91.385	7,999.51	81.6774	7,999.51	88.5236	7,999.51	87.9013	7,999.51	89.6377	7,999.51	86.7573	7,999.51	78.5671	7,999.51	87.6541	7,999.51	89.603	7,999.51	88.8215
8,282.23	100.505	8,282.23	94.7838	8,282.23	95.4819	8,282.23	99.2555	8,282.23	98.8383	8,282.23	97.9773	8,282.23	98.2143	8,282.23	95.4896	8,282.23	94.286	8,282.23	90.2705	8,282.23	89.6823	8,282.23	86.1182	8,282.23	86.4859	8,282.23	86.3769	8,282.23	90.7904	8,282.23	80.4142	8,282.23	85.2953	8,282.23	93.7492	8,282.23	90.0247	8,282.23	90.2129	8,282.23	88.6818	8,282.23	88.6675	8,282.23	83.7978	8,282.23	67.0675	8,282.23	79.7146	8,282.23	88.7867	8,282.23	91.1033	8,282.23	83.5859	8,282.23	87.1992	8,282.23	83.3659	8,282.23	90.2315	8,282.23	82.4494	8,282.23	69.8964	8,282.23	82.4004	8,282.23	86.2562	8,282.23	89.0997
8,573.73	100.198	8,573.73	96.1166	8,573.73	97.0343	8,573.73	99.6096	8,573.73	99.0441	8,573.73	97.8584	8,573.73	98.2528	8,573.73	94.9008	8,573.73	93.8908	8,573.73	88.8354	8,573.73	88.1747	8,573.73	86.0785	8,573.73	87.5609	8,573.73	86.8523	8,573.73	91.1287	8,573.73	82.7328	8,573.73	83.9811	8,573.73	95.6191	8,573.73	90.1095	8,573.73	88.9449	8,573.73	87.4136	8,573.73	85.9595	8,573.73	83.8309	8,573.73	80.0379	8,573.73	78.1884	8,573.73	90.9984	8,573.73	91.5971	8,573.73	85.8309	8,573.73	85.4367	8,573.73	82.7194	8,573.73	91.209	8,573.73	82.1247	8,573.73	80.9503	8,573.73	79.9395	8,573.73	73.7841	8,573.73	84.8484
8,876.95	99.7757	8,876.95	97.5355	8,876.95	98.0186	8,876.95	100.159	8,876.95	99.8951	8,876.95	98.0088	8,876.95	97.9579	8,876.95	94.7723	8,876.95	93.5185	8,876.95	88.9552	8,876.95	86.1418	8,876.95	86.1579	8,876.95	90.2996	8,876.95	86.8501	8,876.95	91.3521	8,876.95	82.9243	8,876.95	78.873	8,876.95	95.8175	8,876.95	88.6347	8,876.95	89.6264	8,876.95	86.0179	8,876.95	81.9973	8,876.95	83.1475	8,876.95	86.606	8,876.95	82.1222	8,876.95	92.2348	8,876.95	90.3525	8,876.95	85.689	8,876.95	81.7137	8,876.95	82.0878	8,876.95	90.8895	8,876.95	84.7386	8,876.95	81.981	8,876.95	81.5028	8,876.95	82.0133	8,876.95	67.1158
9,188.96	99.2117	9,188.96	98.8491	9,188.96	98.7764	9,188.96	100.233	9,188.96	100.208	9,188.96	97.5848	9,188.96	97.1504	9,188.96	95.5087	9,188.96	92.9291	9,188.96	91.2517	9,188.96	84.455	9,188.96	87.1087	9,188.96	91.1905	9,188.96	84.1134	9,188.96	92.1872	9,188.96	80.2641	9,188.96	79.722	9,188.96	95.2788	9,188.96	84.8576	9,188.96	89.3689	9,188.96	82.1745	9,188.96	80.1316	9,188.96	80.4256	9,188.96	90.6064	9,188.96	85.9436	9,188.96	90.4212	9,188.96	84.8856	9,188.96	83.0359	9,188.96	66.6274	9,188.96	77.2233	9,188.96	85.9162	9,188.96	82.7589	9,188.96	77.7998	9,188.96	79.6711	9,188.96	69.4104	9,188.96	83.7177
9,514.16	98.7616	9,514.16	99.3177	9,514.16	98.7739	9,514.16	100.265	9,514.16	100.317	9,514.16	97.941	9,514.16	97.7362	9,514.16	95.054	9,514.16	93.6762	9,514.16	92.4526	9,514.16	86.8356	9,514.16	82.9263	9,514.16	92.546	9,514.16	84.5175	9,514.16	92.7682	9,514.16	76.1694	9,514.16	80.0918	9,514.16	93.2761	9,514.16	78.75	9,514.16	86.897	9,514.16	84.2507	9,514.16	87.8258	9,514.16	78.154	9,514.16	90.1971	9,514.16	86.0038	9,514.16	84.9648	9,514.16	77.337	9,514.16	76.6837	9,514.16	73.927	9,514.16	67.4095	9,514.16	76.3656	9,514.16	79.5531	9,514.16	68.5604	9,514.16	88.3634	9,514.16	82.971	9,514.16	86.0975
9,849.61	99.1096	9,849.61	98.2101	9,849.61	97.8865	9,849.61	100.302	9,849.61	100.319	9,849.61	98.0438	9,849.61	97.8067	9,849.61	95.0832	9,849.61	94.4272	9,849.61	92.1694	9,849.61	86.4892	9,849.61	81.7421	9,849.61	93.9536	9,849.61	83.5096	9,849.61	93.623	9,849.61	85.2933	9,849.61	76.8282	9,849.61	90.8307	9,849.61	74.4006	9,849.61	85.7205	9,849.61	87.5814	9,849.61	88.944	9,849.61	79.4924	9,849.61	88.299	9,849.61	83.6973	9,849.61	84.3691	9,849.61	85.0344	9,849.61	81.3739	9,849.61	76.7736	9,849.61	79.4481	9,849.61	81.914	9,849.61	77.7009	9,849.61	75.3145	9,849.61	89.0721	9,849.61	82.5939	9,849.61	86.0311
10,196.8	99.9824	10,196.8	97.9525	10,196.8	98.064	10,196.8	101.001	10,196.8	100.961	10,196.8	98.1915	10,196.8	98.5878	10,196.8	95.8602	10,196.8	94.8629	10,196.8	91.9535	10,196.8	87.0233	10,196.8	83.2162	10,196.8	95.1698	10,196.8	84.005	10,196.8	94.7458	10,196.8	89.379	10,196.8	74.9119	10,196.8	87.0266	10,196.8	78.9861	10,196.8	83.7122	10,196.8	90.8245	10,196.8	88.4403	10,196.8	82.4294	10,196.8	85.0598	10,196.8	78.3943	10,196.8	89.1309	10,196.8	90.7801	10,196.8	83.1039	10,196.8	72.081	10,196.8	81.097	10,196.8	83.4778	10,196.8	84.1519	10,196.8	83.1241	10,196.8	84.4051	10,196.8	76.6793	10,196.8	83.3778
10,555.7	100.93	10,555.7	99.0873	10,555.7	99.7185	10,555.7	101.735	10,555.7	101.749	10,555.7	98.0695	10,555.7	99.6374	10,555.7	95.7102	10,555.7	94.9625	10,555.7	92.1569	10,555.7	88.3066	10,555.7	82.7375	10,555.7	96.1985	10,555.7	84.3652	10,555.7	95.7857	10,555.7	91.3649	10,555.7	78.3121	10,555.7	85.4429	10,555.7	83.6683	10,555.7	84.9987	10,555.7	93.618	10,555.7	83.2816	10,555.7	83.6358	10,555.7	84.1882	10,555.7	81.9935	10,555.7	92.6511	10,555.7	93.2861	10,555.7	81.8822	10,555.7	74.4391	10,555.7	78.499	10,555.7	75.9065	10,555.7	84.3708	10,555.7	82.9939	10,555.7	71.1294	10,555.7	79.1346	10,555.7	83.9917
10,927.7	100.191	10,927.7	99.775	10,927.7	100.87	10,927.7	101.759	10,927.7	101.824	10,927.7	97.8115	10,927.7	100.215	10,927.7	95.0349	10,927.7	95.7419	10,927.7	93.1974	10,927.7	90.7429	10,927.7	82.4387	10,927.7	96.8927	10,927.7	86.7014	10,927.7	97.7726	10,927.7	92.761	10,927.7	85.0223	10,927.7	88.0938	10,927.7	87.0615	10,927.7	85.2146	10,927.7	94.2851	10,927.7	79.4748	10,927.7	82.6354	10,927.7	85.4184	10,927.7	86.2503	10,927.7	94.0337	10,927.7	92.5774	10,927.7	76.8407	10,927.7	85.5432	10,927.7	76.97	10,927.7	86.0993	10,927.7	79.1008	10,927.7	69.8982	10,927.7	78.4262	10,927.7	84.3194	10,927.7	81.18
11,313	99.1205	11,313	99.734	11,313	100.597	11,313	101.544	11,313	101.462	11,313	97.0642	11,313	100.059	11,313	94.4137	11,313	96.2885	11,313	94.588	11,313	92.5223	11,313	79.6934	11,313	96.9173	11,313	89.9991	11,313	99.6752	11,313	92.8104	11,313	90.3563	11,313	90.7824	11,313	87.4953	11,313	83.5978	11,313	92.9486	11,313	87.6481	11,313	78.868	11,313	86.837	11,313	86.737	11,313	93.2104	11,313	89.0704	11,313	63.7161	11,313	88.4275	11,313	75.5247	11,313	92.5472	11,313	81.9518	11,313	89.9782	11,313	75.6168	11,313	85.0362	11,313	80.5348
11,712.9	98.4783	11,712.9	101.115	11,712.9	101.688	11,712.9	101.605	11,712.9	101.788	11,712.9	96.8827	11,712.9	100.177	11,712.9	94.0253	11,712.9	96.6331	11,712.9	95.3585	11,712.9	94.0219	11,712.9	71.9454	11,712.9	96.583	11,712.9	92.7503	11,712.9	100.815	11,712.9	91.8764	11,712.9	93.0985	11,712.9	92.6969	11,712.9	85.437	11,712.9	81.1388	11,712.9	90.5733	11,712.9	89.3474	11,712.9	71.9066	11,712.9	88.7843	11,712.9	83.4601	11,712.9	89.8751	11,712.9	89.0808	11,712.9	78.3089	11,712.9	86.4596	11,712.9	79.976	11,712.9	92.6149	11,712.9	82.7417	11,712.9	91.3766	11,712.9	81.5877	11,712.9	84.1196	11,712.9	89.3224
12,126	97.4563	12,126	102.274	12,126	102.523	12,126	101.586	12,126	101.65	12,126	97.0355	12,126	99.6083	12,126	93.4637	12,126	96.601	12,126	95.5587	12,126	95.0163	12,126	79.4913	12,126	95.5711	12,126	94.5536	12,126	101.286	12,126	89.2148	12,126	95.2799	12,126	93.4203	12,126	76.9897	12,126	86.254	12,126	92.0057	12,126	86.0363	12,126	71.3287	12,126	90.2854	12,126	80.3837	12,126	82.4973	12,126	90.8574	12,126	84.3585	12,126	77.2906	12,126	77.5416	12,126	87.2067	12,126	80.8237	12,126	83.0102	12,126	83.4893	12,126	83.6886	12,126	86.2546
12,553.7	96.4531	12,553.7	101.819	12,553.7	101.737	12,553.7	100.392	12,553.7	100.336	12,553.7	96.3006	12,553.7	97.8993	12,553.7	92.3157	12,553.7	94.8092	12,553.7	95.0674	12,553.7	94.4967	12,553.7	85.8348	12,553.7	94.1786	12,553.7	95.4061	12,553.7	99.8899	12,553.7	86.0274	12,553.7	96.1818	12,553.7	91.7934	12,553.7	80.1656	12,553.7	88.128	12,553.7	95.16	12,553.7	72.3972	12,553.7	82.5022	12,553.7	88.9058	12,553.7	88.7012	12,553.7	78.6051	12,553.7	85.1977	12,553.7	84.3761	12,553.7	69.2205	12,553.7	75.0807	12,553.7	84.1285	12,553.7	85.0702	12,553.7	83.2491	12,553.7	77.5857	12,553.7	82.2393	12,553.7	75.0103
12,996.1	95.9727	12,996.1	101.129	12,996.1	100.958	12,996.1	98.6572	12,996.1	98.9107	12,996.1	94.4469	12,996.1	95.2813	12,996.1	90.3167	12,996.1	92.2452	12,996.1	93.7282	12,996.1	93.249	12,996.1	89.4711	12,996.1	92.27	12,996.1	96.408	12,996.1	98.103	12,996.1	76.9945	12,996.1	95.7765	12,996.1	84.6756	12,996.1	86.9329	12,996.1	85.2263	12,996.1	95.5956	12,996.1	86.5079	12,996.1	85.9949	12,996.1	86.5692	12,996.1	91.2866	12,996.1	85.0356	12,996.1	93.3896	12,996.1	76.6868	12,996.1	70.2228	12,996.1	66.8787	12,996.1	80.0684	12,996.1	86.9419	12,996.1	83.0465	12,996.1	86.2472	12,996.1	84.6855	12,996.1	86.0166
13,454.6	96.8729	13,454.6	102.13	13,454.6	102.121	13,454.6	99.0665	13,454.6	99.3819	13,454.6	94.0436	13,454.6	95.4454	13,454.6	89.4865	13,454.6	91.8652	13,454.6	94.5887	13,454.6	93.429	13,454.6	92.3577	13,454.6	94.0425	13,454.6	98.9569	13,454.6	97.8787	13,454.6	78.7438	13,454.6	96.531	13,454.6	80.5269	13,454.6	89.8082	13,454.6	77.5704	13,454.6	96.8883	13,454.6	92.1934	13,454.6	87.1459	13,454.6	90.9989	13,454.6	91.2283	13,454.6	85.8634	13,454.6	98.5817	13,454.6	75.6961	13,454.6	85.6809	13,454.6	78.9202	13,454.6	82.2687	13,454.6	77.026	13,454.6	80.0957	13,454.6	88.0545	13,454.6	83.2564	13,454.6	79.2499
13,929.2	98.7594	13,929.2	103.478	13,929.2	103.454	13,929.2	99.8121	13,929.2	100.412	13,929.2	94.5822	13,929.2	94.7689	13,929.2	89.9706	13,929.2	92.1323	13,929.2	95.3802	13,929.2	94.4728	13,929.2	94.9327	13,929.2	93.8391	13,929.2	100.288	13,929.2	95.8424	13,929.2	86.7399	13,929.2	93.565	13,929.2	91.5984	13,929.2	89.1391	13,929.2	83.6654	13,929.2	94.5375	13,929.2	92.787	13,929.2	81.3568	13,929.2	93.186	13,929.2	83.261	13,929.2	88.7709	13,929.2	95.6618	13,929.2	82.5164	13,929.2	88.417	13,929.2	77.6666	13,929.2	89.383	13,929.2	87.0334	13,929.2	90.3325	13,929.2	85.038	13,929.2	78.9106	13,929.2	88.0248
14,419.9	101.489	14,419.9	104.924	14,419.9	104.788	14,419.9	100.357	14,419.9	101.086	14,419.9	95.0876	14,419.9	94.8903	14,419.9	91.4171	14,419.9	93.1815	14,419.9	96.2589	14,419.9	96.8347	14,419.9	97.7346	14,419.9	92.9237	14,419.9	101.861	14,419.9	92.7779	14,419.9	90.3577	14,419.9	89.963	14,419.9	94.7804	14,419.9	86.2527	14,419.9	87.8818	14,419.9	94.7053	14,419.9	90.1925	14,419.9	64.4381	14,419.9	93.5639	14,419.9	82.2405	14,419.9	89.6718	14,419.9	87.6361	14,419.9	80.856	14,419.9	81.415	14,419.9	81.0964	14,419.9	83.3568	14,419.9	90.7921	14,419.9	87.0719	14,419.9	91.943	14,419.9	89.2307	14,419.9	89.9638
14,928.2	102.586	14,928.2	105.062	14,928.2	104.977	14,928.2	100.171	14,928.2	100.804	14,928.2	95.8501	14,928.2	94.0535	14,928.2	92.1472	14,928.2	93.4285	14,928.2	97.3118	14,928.2	97.7647	14,928.2	100.181	14,928.2	92.2393	14,928.2	103.065	14,928.2	90.4508	14,928.2	91.8517	14,928.2	93.4806	14,928.2	95.1878	14,928.2	78.3433	14,928.2	85.1801	14,928.2	96.7559	14,928.2	90.6343	14,928.2	68.5673	14,928.2	94.6134	14,928.2	84.1946	14,928.2	87.1389	14,928.2	94.8763	14,928.2	72.1691	14,928.2	80.1981	14,928.2	55.3486	14,928.2	85.7896	14,928.2	84.798	14,928.2	87.0508	14,928.2	82.4092	14,928.2	79.3268	14,928.2	82.4952
15,455.6	102.246	15,455.6	104.282	15,455.6	104.031	15,455.6	99.4334	15,455.6	98.9961	15,455.6	95.3057	15,455.6	91.0432	15,455.6	92.5445	15,455.6	91.7337	15,455.6	97.8378	15,455.6	96.7665	15,455.6	99.9475	15,455.6	91.355	15,455.6	102.721	15,455.6	88.9043	15,455.6	91.9896	15,455.6	96.5717	15,455.6	93.918	15,455.6	82.792	15,455.6	83.9525	15,455.6	93.5959	15,455.6	91.0963	15,455.6	86.9264	15,455.6	94.9666	15,455.6	89.6341	15,455.6	81.3616	15,455.6	87.8976	15,455.6	73.4314	15,455.6	80.7541	15,455.6	79.4392	15,455.6	83.8734	15,455.6	86.8282	15,455.6	88.5988	15,455.6	88.9773	15,455.6	87.2409	15,455.6	89.7392
16,000.5	101.084	16,000.5	102.9	16,000.5	102.589	16,000.5	98.0101	16,000.5	97.1385	16,000.5	93.7059	16,000.5	87.1602	16,000.5	93.6338	16,000.5	89.6035	16,000.5	98.0365	16,000.5	95.6072	16,000.5	98.2474	16,000.5	90.4723	16,000.5	100.667	16,000.5	85.4894	16,000.5	91.3235	16,000.5	97.7227	16,000.5	95.1856	16,000.5	88.2659	16,000.5	90.5592	16,000.5	81.3093	16,000.5	84.8208	16,000.5	90.8158	16,000.5	93.3055	16,000.5	91.0123	16,000.5	74.9632	16,000.5	92.8337	16,000.5	79.7021	16,000.5	79.1992	16,000.5	71.4611	16,000.5	83.1332	16,000.5	73.6947	16,000.5	84.9585	16,000.5	79.8568	16,000.5	81.0769	16,000.5	79.6636
16,564.5	99.4609	16,564.5	101.333	16,564.5	101.209	16,564.5	96.0169	16,564.5	94.1128	16,564.5	91.4728	16,564.5	83.1195	16,564.5	93.4972	16,564.5	86.2462	16,564.5	97.3857	16,564.5	93.4343	16,564.5	96.3088	16,564.5	89.5505	16,564.5	96.8851	16,564.5	81.3482	16,564.5	87.4726	16,564.5	96.3643	16,564.5	94.3949	16,564.5	85.5769	16,564.5	89.2349	16,564.5	83.477	16,564.5	79.3352	16,564.5	88.1652	16,564.5	94.0746	16,564.5	84.5154	16,564.5	84.2256	16,564.5	91.5151	16,564.5	79.2742	16,564.5	81.712	16,564.5	77.8337	16,564.5	84.2212	16,564.5	78.8304	16,564.5	84.9535	16,564.5	84.0982	16,564.5	84.5623	16,564.5	82.1682
17,148.9	98.1026	17,148.9	98.8554	17,148.9	99.0822	17,148.9	92.7858	17,148.9	91.4716	17,148.9	88.0218	17,148.9	80.6422	17,148.9	93.4008	17,148.9	82.8725	17,148.9	96.4812	17,148.9	90.6731	17,148.9	94.1891	17,148.9	87.1981	17,148.9	91.2092	17,148.9	76.7185	17,148.9	70.6827	17,148.9	93.7629	17,148.9	88.81	17,148.9	73.9471	17,148.9	79.4772	17,148.9	78.4294	17,148.9	76.2351	17,148.9	81.1061	17,148.9	93.3283	17,148.9	83.6784	17,148.9	85.4153	17,148.9	83.1501	17,148.9	67.2157	17,148.9	65.2563	17,148.9	80.3545	17,148.9	74.2938	17,148.9	78.1103	17,148.9	79.7729	17,148.9	70.6677	17,148.9	75.7609	17,148.9	75.4118
17,752.4	96.7169	17,752.4	96.4275	17,752.4	97.1598	17,752.4	90.2839	17,752.4	88.508	17,752.4	86.116	17,752.4	77.4168	17,752.4	91.5388	17,752.4	80.7174	17,752.4	94.1464	17,752.4	88.9442	17,752.4	92.5639	17,752.4	83.4283	17,752.4	84.0161	17,752.4	65.523	17,752.4	83.3762	17,752.4	90.3821	17,752.4	79.237	17,752.4	79.7314	17,752.4	77.449	17,752.4	82.1763	17,752.4	67.933	17,752.4	83.692	17,752.4	88.9319	17,752.4	79.9692	17,752.4	84.1123	17,752.4	85.9684	17,752.4	72.0016	17,752.4	74.6978	17,752.4	71.0581	17,752.4	75.6037	17,752.4	80.9148	17,752.4	77.8618	17,752.4	84.5542	17,752.4	78.2545	17,752.4	74.8887
18,379.4	93.81	18,379.4	92.742	18,379.4	94.5745	18,379.4	86.4815	18,379.4	85.8582	18,379.4	80.831	18,379.4	75.2299	18,379.4	90.3478	18,379.4	79.0377	18,379.4	91.386	18,379.4	88.0949	18,379.4	89.256	18,379.4	77.3743	18,379.4	82.9782	18,379.4	76.8517	18,379.4	87.4196	18,379.4	90.088	18,379.4	87.4159	18,379.4	84.4944	18,379.4	72.9275	18,379.4	87.6459	18,379.4	74.8311	18,379.4	84.5572	18,379.4	86.8833	18,379.4	71.2979	18,379.4	81.3083	18,379.4	79.1095	18,379.4	68.5128	18,379.4	71.9575	18,379.4	61.9034	18,379.4	79.9168	18,379.4	70.2991	18,379.4	79.7892	18,379.4	78.1019	18,379.4	71.63	18,379.4	76.9713
19,026.9	92.8309	19,026.9	91.0623	19,026.9	92.9256	19,026.9	84.2057	19,026.9	83.7218	19,026.9	82.0778	19,026.9	75.0154	19,026.9	91.0764	19,026.9	77.9756	19,026.9	91.0135	19,026.9	88.4006	19,026.9	84.4225	19,026.9	75.0032	19,026.9	81.8546	19,026.9	82.6859	19,026.9	87.9348	19,026.9	89.6542	19,026.9	88.1622	19,026.9	84.9564	19,026.9	70.4116	19,026.9	84.9795	19,026.9	82.3371	19,026.9	80.4509	19,026.9	85.6927	19,026.9	80.1258	19,026.9	69.5942	19,026.9	87.2458	19,026.9	80.9393	19,026.9	70.7571	19,026.9	77.8418	19,026.9	73.3377	19,026.9	66.6937	19,026.9	69.0964	19,026.9	72.2908	19,026.9	52.4707	19,026.9	78.7025
19,697.8	92.3073	19,697.8	90.8622	19,697.8	91.7146	19,697.8	81.7812	19,697.8	82.2177	19,697.8	81.2054	19,697.8	74.0829	19,697.8	90.8439	19,697.8	73.9786	19,697.8	91.3586	19,697.8	89.9381	19,697.8	79.2353	19,697.8	80.5102	19,697.8	81.5179	19,697.8	84.15	19,697.8	87.5855	19,697.8	86.9637	19,697.8	86.8016	19,697.8	85.4352	19,697.8	74.0979	19,697.8	82.9221	19,697.8	78.5843	19,697.8	75.275	19,697.8	78.1224	19,697.8	80.573	19,697.8	77.7333	19,697.8	76.4275	19,697.8	79.862	19,697.8	65.3735	19,697.8	77.7521	19,697.8	76.8876	19,697.8	72.4734	19,697.8	66.1719	19,697.8	72.2042	19,697.8	78.6745	19,697.8	73.8099
19,999.5	92.362	19,999.5	91.8187	19,999.5	91.9198	19,999.5	81.7603	19,999.5	82.883	19,999.5	81.6481	19,999.5	65.7069	19,999.5	90.73	19,999.5	74.3502	19,999.5	90.8954	19,999.5	89.583	19,999.5	80.1051	19,999.5	82.1719	19,999.5	82.0764	19,999.5	84.8629	19,999.5	86.9379	19,999.5	85.9002	19,999.5	86.2965	19,999.5	86.8611	19,999.5	78.2993	19,999.5	84.9442	19,999.5	68.8829	19,999.5	74.6264	19,999.5	64.7275	19,999.5	78.6604	19,999.5	78.2255	19,999.5	81.2466	19,999.5	75.7132	19,999.5	59.8565	19,999.5	74.7787	19,999.5	70.1172	19,999.5	82.2267	19,999.5	65.1059	19,999.5	65.1685	19,999.5	80.5803	19,999.5	75.0917
