"SPL Vertical"
"On-Axis"		"10°"		"-10°"		"20°"		"-20°"		"30°"		"-30°"		"40°"		"-40°"		"50°"		"-50°"		"60°"		"-60°"		"70°"		"-70°"		"80°"		"-80°"		"90°"		"-90°"		"100°"		"-100°"		"110°"		"-110°"		"120°"		"-120°"		"130°"		"-130°"		"140°"		"-140°"		"150°"		"-150°"		"160°"		"-160°"		"170°"		"-170°"		"180°"
"Frequency / Hz"	"Sound Pressure Level / dB (re 20 µPa/V)  [2.83  V @ 1. m]"	"Frequency / Hz"	"Sound Pressure Level / dB (re 20 µPa/V)  [2.83  V @ 1. m]"	"Frequency / Hz"	"Sound Pressure Level / dB (re 20 µPa/V)  [2.83  V @ 1. m]"	"Frequency / Hz"	"Sound Pressure Level / dB (re 20 µPa/V)  [2.83  V @ 1. m]"	"Frequency / Hz"	"Sound Pressure Level / dB (re 20 µPa/V)  [2.83  V @ 1. m]"	"Frequency / Hz"	"Sound Pressure Level / dB (re 20 µPa/V)  [2.83  V @ 1. m]"	"Frequency / Hz"	"Sound Pressure Level / dB (re 20 µPa/V)  [2.83  V @ 1. m]"	"Frequency / Hz"	"Sound Pressure Level / dB (re 20 µPa/V)  [2.83  V @ 1. m]"	"Frequency / Hz"	"Sound Pressure Level / dB (re 20 µPa/V)  [2.83  V @ 1. m]"	"Frequency / Hz"	"Sound Pressure Level / dB (re 20 µPa/V)  [2.83  V @ 1. m]"	"Frequency / Hz"	"Sound Pressure Level / dB (re 20 µPa/V)  [2.83  V @ 1. m]"	"Frequency / Hz"	"Sound Pressure Level / dB (re 20 µPa/V)  [2.83  V @ 1. m]"	"Frequency / Hz"	"Sound Pressure Level / dB (re 20 µPa/V)  [2.83  V @ 1. m]"	"Frequency / Hz"	"Sound Pressure Level / dB (re 20 µPa/V)  [2.83  V @ 1. m]"	"Frequency / Hz"	"Sound Pressure Level / dB (re 20 µPa/V)  [2.83  V @ 1. m]"	"Frequency / Hz"	"Sound Pressure Level / dB (re 20 µPa/V)  [2.83  V @ 1. m]"	"Frequency / Hz"	"Sound Pressure Level / dB (re 20 µPa/V)  [2.83  V @ 1. m]"	"Frequency / Hz"	"Sound Pressure Level / dB (re 20 µPa/V)  [2.83  V @ 1. m]"	"Frequency / Hz"	"Sound Pressure Level / dB (re 20 µPa/V)  [2.83  V @ 1. m]"	"Frequency / Hz"	"Sound Pressure Level / dB (re 20 µPa/V)  [2.83  V @ 1. m]"	"Frequency / Hz"	"Sound Pressure Level / dB (re 20 µPa/V)  [2.83  V @ 1. m]"	"Frequency / Hz"	"Sound Pressure Level / dB (re 20 µPa/V)  [2.83  V @ 1. m]"	"Frequency / Hz"	"Sound Pressure Level / dB (re 20 µPa/V)  [2.83  V @ 1. m]"	"Frequency / Hz"	"Sound Pressure Level / dB (re 20 µPa/V)  [2.83  V @ 1. m]"	"Frequency / Hz"	"Sound Pressure Level / dB (re 20 µPa/V)  [2.83  V @ 1. m]"	"Frequency / Hz"	"Sound Pressure Level / dB (re 20 µPa/V)  [2.83  V @ 1. m]"	"Frequency / Hz"	"Sound Pressure Level / dB (re 20 µPa/V)  [2.83  V @ 1. m]"	"Frequency / Hz"	"Sound Pressure Level / dB (re 20 µPa/V)  [2.83  V @ 1. m]"	"Frequency / Hz"	"Sound Pressure Level / dB (re 20 µPa/V)  [2.83  V @ 1. m]"	"Frequency / Hz"	"Sound Pressure Level / dB (re 20 µPa/V)  [2.83  V @ 1. m]"	"Frequency / Hz"	"Sound Pressure Level / dB (re 20 µPa/V)  [2.83  V @ 1. m]"	"Frequency / Hz"	"Sound Pressure Level / dB (re 20 µPa/V)  [2.83  V @ 1. m]"	"Frequency / Hz"	"Sound Pressure Level / dB (re 20 µPa/V)  [2.83  V @ 1. m]"	"Frequency / Hz"	"Sound Pressure Level / dB (re 20 µPa/V)  [2.83  V @ 1. m]"	"Frequency / Hz"	"Sound Pressure Level / dB (re 20 µPa/V)  [2.83  V @ 1. m]"	"Frequency / Hz"	"Sound Pressure Level / dB (re 20 µPa/V)  [2.83  V @ 1. m]"
20.5078	98.1654	20.5078	97.8487	20.5078	98.4289	20.5078	97.4881	20.5078	98.628	20.5078	97.0912	20.5078	98.7482	20.5078	96.6649	20.5078	98.7717	20.5078	96.2154	20.5078	98.6788	20.5078	95.7481	20.5078	98.4502	20.5078	95.2676	20.5078	98.0717	20.5078	94.7776	20.5078	97.5395	20.5078	94.2813	20.5078	96.8669	20.5078	93.7822	20.5078	96.0882	20.5078	93.2848	20.5078	95.257	20.5078	92.7967	20.5078	94.4351	20.5078	92.3309	20.5078	93.6734	20.5078	91.9079	20.5078	92.9971	20.5078	91.5577	20.5078	92.4111	20.5078	91.3176	20.5078	91.9192	20.5078	91.224	20.5078	91.5386	20.5078	91.2987
21.9727	99.6045	21.9727	99.2994	21.9727	99.8879	21.9727	98.9783	21.9727	100.143	21.9727	98.6467	21.9727	100.363	21.9727	98.3098	21.9727	100.537	21.9727	97.9732	21.9727	100.657	21.9727	97.6423	21.9727	100.713	21.9727	97.3226	21.9727	100.696	21.9727	97.0196	21.9727	100.601	21.9727	96.739	21.9727	100.423	21.9727	96.4871	21.9727	100.166	21.9727	96.2712	21.9727	99.8322	21.9727	96.0997	21.9727	99.4303	21.9727	95.9829	21.9727	98.9724	21.9727	95.9322	21.9727	98.4754	21.9727	95.96	21.9727	97.9622	21.9727	96.0773	21.9727	97.4597	21.9727	96.2911	21.9727	96.9971	21.9727	96.601
23.4375	100.067	23.4375	99.7196	23.4375	100.414	23.4375	99.3783	23.4375	100.751	23.4375	99.0483	23.4375	101.069	23.4375	98.7344	23.4375	101.354	23.4375	98.4406	23.4375	101.588	23.4375	98.1705	23.4375	101.755	23.4375	97.9276	23.4375	101.837	23.4375	97.715	23.4375	101.823	23.4375	97.5356	23.4375	101.703	23.4375	97.3926	23.4375	101.48	23.4375	97.2895	23.4375	101.161	23.4375	97.2303	23.4375	100.763	23.4375	97.2196	23.4375	100.309	23.4375	97.2627	23.4375	99.8238	23.4375	97.3652	23.4375	99.3352	23.4375	97.5321	23.4375	98.8675	23.4375	97.7673	23.4375	98.4413	23.4375	98.0715
24.9023	99.7592	24.9023	99.4333	24.9023	100.091	24.9023	99.1196	24.9023	100.422	24.9023	98.8229	24.9023	100.74	24.9023	98.5477	24.9023	101.032	24.9023	98.298	24.9023	101.28	24.9023	98.0775	24.9023	101.466	24.9023	97.8896	24.9023	101.573	24.9023	97.7373	24.9023	101.586	24.9023	97.6231	24.9023	101.499	24.9023	97.5492	24.9023	101.314	24.9023	97.5174	24.9023	101.042	24.9023	97.5289	24.9023	100.703	24.9023	97.5845	24.9023	100.321	24.9023	97.6842	24.9023	99.9217	24.9023	97.8273	24.9023	99.5268	24.9023	98.0127	24.9023	99.1533	24.9023	98.2393	24.9023	98.8113	24.9023	98.5059
26.3672	93.2121	26.3672	92.8095	26.3672	93.7062	26.3672	92.5034	26.3672	94.2754	26.3672	92.29	26.3672	94.8918	26.3672	92.1605	26.3672	95.5196	26.3672	92.1047	26.3672	96.1191	26.3672	92.1133	26.3672	96.6515	26.3672	92.1787	26.3672	97.0834	26.3672	92.2951	26.3672	97.3896	26.3672	92.458	26.3672	97.5558	26.3672	92.6635	26.3672	97.5806	26.3672	92.9076	26.3672	97.4759	26.3672	93.1861	26.3672	97.2655	26.3672	93.4939	26.3672	96.9804	26.3672	93.8249	26.3672	96.6519	26.3672	94.1721	26.3672	96.3047	26.3672	94.5284	26.3672	95.9524	26.3672	94.8874	26.3672	95.5995	26.3672	95.2448
27.832	100.218	27.832	99.8219	27.832	100.586	27.832	99.4077	27.832	100.92	27.832	98.985	27.832	101.214	27.832	98.5648	27.832	101.461	27.832	98.1585	27.832	101.653	27.832	97.777	27.832	101.78	27.832	97.4303	27.832	101.829	27.832	97.1268	27.832	101.79	27.832	96.8737	27.832	101.652	27.832	96.6768	27.832	101.409	27.832	96.5403	27.832	101.064	27.832	96.4678	27.832	100.627	27.832	96.4619	27.832	100.119	27.832	96.525	27.832	99.5681	27.832	96.66	27.832	99.0044	27.832	96.8697	27.832	98.4592	27.832	97.1565	27.832	97.9585	27.832	97.5208
29.2969	104.436	29.2969	104.055	29.2969	104.798	29.2969	103.663	29.2969	105.132	29.2969	103.27	29.2969	105.427	29.2969	102.884	29.2969	105.671	29.2969	102.514	29.2969	105.846	29.2969	102.166	29.2969	105.938	29.2969	101.85	29.2969	105.928	29.2969	101.57	29.2969	105.807	29.2969	101.331	29.2969	105.57	29.2969	101.139	29.2969	105.221	29.2969	100.995	29.2969	104.778	29.2969	100.901	29.2969	104.268	29.2969	100.86	29.2969	103.724	29.2969	100.873	29.2969	103.181	29.2969	100.941	29.2969	102.67	29.2969	101.066	29.2969	102.214	29.2969	101.252	29.2969	101.823	29.2969	101.503
30.7617	101.035	30.7617	100.757	30.7617	101.317	30.7617	100.485	30.7617	101.601	30.7617	100.217	30.7617	101.878	30.7617	99.9546	30.7617	102.137	30.7617	99.6975	30.7617	102.356	30.7617	99.4476	30.7617	102.515	30.7617	99.2069	30.7617	102.587	30.7617	98.9783	30.7617	102.553	30.7617	98.7654	30.7617	102.399	30.7617	98.5721	30.7617	102.122	30.7617	98.4028	30.7617	101.733	30.7617	98.2632	30.7617	101.256	30.7617	98.1595	30.7617	100.723	30.7617	98.0997	30.7617	100.175	30.7617	98.0927	30.7617	99.6512	30.7617	98.1489	30.7617	99.1833	30.7617	98.2787	30.7617	98.7934	30.7617	98.4916
32.2266	98.1599	32.2266	97.7665	32.2266	98.5952	32.2266	97.42	32.2266	99.0613	32.2266	97.1211	32.2266	99.5406	32.2266	96.8676	32.2266	100.01	32.2266	96.6561	32.2266	100.441	32.2266	96.4836	32.2266	100.804	32.2266	96.348	32.2266	101.074	32.2266	96.2482	32.2266	101.227	32.2266	96.185	32.2266	101.249	32.2266	96.16	32.2266	101.138	32.2266	96.1762	32.2266	100.9	32.2266	96.2373	32.2266	100.553	32.2266	96.3472	32.2266	100.122	32.2266	96.5096	32.2266	99.6393	32.2266	96.7274	32.2266	99.1335	32.2266	97.0022	32.2266	98.6322	32.2266	97.334	32.2266	98.1562	32.2266	97.7204
33.6914	98.9241	33.6914	98.5525	33.6914	99.3335	33.6914	98.2248	33.6914	99.7704	33.6914	97.9429	33.6914	100.219	33.6914	97.7067	33.6914	100.66	33.6914	97.5147	33.6914	101.069	33.6914	97.3651	33.6914	101.422	33.6914	97.2568	33.6914	101.694	33.6914	97.1894	33.6914	101.867	33.6914	97.1635	33.6914	101.926	33.6914	97.1803	33.6914	101.867	33.6914	97.2416	33.6914	101.695	33.6914	97.3493	33.6914	101.424	33.6914	97.5048	33.6914	101.076	33.6914	97.7087	33.6914	100.674	33.6914	97.9601	33.6914	100.244	33.6914	98.2571	33.6914	99.8062	33.6914	98.596	33.6914	99.3781	33.6914	98.9718
35.1562	98.5018	35.1562	98.1259	35.1562	98.9368	35.1562	97.8104	35.1562	99.4229	35.1562	97.5525	35.1562	99.9444	35.1562	97.3475	35.1562	100.477	35.1562	97.1912	35.1562	100.989	35.1562	97.0806	35.1562	101.447	35.1562	97.0149	35.1562	101.815	35.1562	96.9949	35.1562	102.068	35.1562	97.0228	35.1562	102.188	35.1562	97.1012	35.1562	102.171	35.1562	97.2321	35.1562	102.028	35.1562	97.4165	35.1562	101.779	35.1562	97.653	35.1562	101.452	35.1562	97.9378	35.1562	101.074	35.1562	98.2648	35.1562	100.669	35.1562	98.6259	35.1562	100.251	35.1562	99.0127	35.1562	99.8316	35.1562	99.4169
36.6211	98.0629	36.6211	97.6107	36.6211	98.5988	36.6211	97.2526	36.6211	99.2	36.6211	96.9919	36.6211	99.8407	36.6211	96.826	36.6211	100.49	36.6211	96.7486	36.6211	101.112	36.6211	96.752	36.6211	101.671	36.6211	96.8287	36.6211	102.134	36.6211	96.9715	36.6211	102.477	36.6211	97.174	36.6211	102.682	36.6211	97.4301	36.6211	102.749	36.6211	97.7335	36.6211	102.688	36.6211	98.0773	36.6211	102.521	36.6211	98.4539	36.6211	102.274	36.6211	98.8546	36.6211	101.974	36.6211	99.2701	36.6211	101.64	36.6211	99.691	36.6211	101.283	36.6211	100.108	36.6211	100.907	36.6211	100.515
38.0859	98.7483	38.0859	98.2778	38.0859	99.2678	38.0859	97.87	38.0859	99.8199	38.0859	97.5356	38.0859	100.385	38.0859	97.2815	38.0859	100.942	38.0859	97.1106	38.0859	101.464	38.0859	97.022	38.0859	101.924	38.0859	97.0116	38.0859	102.295	38.0859	97.0727	38.0859	102.55	38.0859	97.1972	38.0859	102.674	38.0859	97.3761	38.0859	102.656	38.0859	97.6004	38.0859	102.502	38.0859	97.861	38.0859	102.229	38.0859	98.1494	38.0859	101.869	38.0859	98.4583	38.0859	101.455	38.0859	98.7818	38.0859	101.024	38.0859	99.1163	38.0859	100.601	38.0859	99.4616	38.0859	100.199	38.0859	99.8207
39.5508	100.878	39.5508	100.534	39.5508	101.245	39.5508	100.215	39.5508	101.628	39.5508	99.9243	39.5508	102.019	39.5508	99.6626	39.5508	102.405	39.5508	99.4323	39.5508	102.768	39.5508	99.2352	39.5508	103.084	39.5508	99.0734	39.5508	103.33	39.5508	98.9487	39.5508	103.484	39.5508	98.8631	39.5508	103.528	39.5508	98.8184	39.5508	103.454	39.5508	98.8168	39.5508	103.264	39.5508	98.8607	39.5508	102.966	39.5508	98.9532	39.5508	102.581	39.5508	99.0981	39.5508	102.134	39.5508	99.2991	39.5508	101.652	39.5508	99.5596	39.5508	101.164	39.5508	99.8812	39.5508	100.694	39.5508	100.262
41.0156	100.979	41.0156	100.655	41.0156	101.338	41.0156	100.365	41.0156	101.729	41.0156	100.108	41.0156	102.14	41.0156	99.8819	41.0156	102.558	41.0156	99.6854	41.0156	102.957	41.0156	99.5184	41.0156	103.311	41.0156	99.3822	41.0156	103.592	41.0156	99.2793	41.0156	103.774	41.0156	99.2128	41.0156	103.84	41.0156	99.187	41.0156	103.785	41.0156	99.2064	41.0156	103.613	41.0156	99.2755	41.0156	103.339	41.0156	99.3985	41.0156	102.987	41.0156	99.5784	41.0156	102.581	41.0156	99.8159	41.0156	102.145	41.0156	100.109	41.0156	101.698	41.0156	100.453	41.0156	101.259	41.0156	100.84
42.4805	100.972	42.4805	100.64	42.4805	101.367	42.4805	100.375	42.4805	101.815	42.4805	100.176	42.4805	102.299	42.4805	100.039	42.4805	102.796	42.4805	99.9591	42.4805	103.279	42.4805	99.9314	42.4805	103.719	42.4805	99.9525	42.4805	104.088	42.4805	100.02	42.4805	104.364	42.4805	100.132	42.4805	104.534	42.4805	100.288	42.4805	104.597	42.4805	100.487	42.4805	104.56	42.4805	100.728	42.4805	104.439	42.4805	101.008	42.4805	104.252	42.4805	101.322	42.4805	104.016	42.4805	101.664	42.4805	103.742	42.4805	102.024	42.4805	103.437	42.4805	102.391	42.4805	103.107	42.4805	102.756
43.9453	101.384	43.9453	100.992	43.9453	101.819	43.9453	100.658	43.9453	102.281	43.9453	100.391	43.9453	102.748	43.9453	100.198	43.9453	103.2	43.9453	100.082	43.9453	103.615	43.9453	100.04	43.9453	103.968	43.9453	100.068	43.9453	104.241	43.9453	100.16	43.9453	104.419	43.9453	100.31	43.9453	104.497	43.9453	100.511	43.9453	104.482	43.9453	100.755	43.9453	104.393	43.9453	101.036	43.9453	104.252	43.9453	101.344	43.9453	104.083	43.9453	101.672	43.9453	103.898	43.9453	102.009	43.9453	103.701	43.9453	102.345	43.9453	103.485	43.9453	102.668	43.9453	103.242	43.9453	102.97
45.4102	103.204	45.4102	102.771	45.4102	103.619	45.4102	102.331	45.4102	104.003	45.4102	101.894	45.4102	104.344	45.4102	101.471	45.4102	104.623	45.4102	101.07	45.4102	104.82	45.4102	100.699	45.4102	104.912	45.4102	100.366	45.4102	104.875	45.4102	100.075	45.4102	104.689	45.4102	99.8324	45.4102	104.344	45.4102	99.6399	45.4102	103.846	45.4102	99.4993	45.4102	103.223	45.4102	99.4103	45.4102	102.527	45.4102	99.3712	45.4102	101.828	45.4102	99.3783	45.4102	101.198	45.4102	99.4273	45.4102	100.683	45.4102	99.5137	45.4102	100.292	45.4102	99.6351	45.4102	100.006	45.4102	99.7951
46.875	103.098	46.875	102.734	46.875	103.442	46.875	102.356	46.875	103.762	46.875	101.97	46.875	104.05	46.875	101.581	46.875	104.296	46.875	101.197	46.875	104.486	46.875	100.825	46.875	104.6	46.875	100.469	46.875	104.614	46.875	100.135	46.875	104.503	46.875	99.827	46.875	104.247	46.875	99.5474	46.875	103.836	46.875	99.2987	46.875	103.275	46.875	99.0828	46.875	102.586	46.875	98.9026	46.875	101.815	46.875	98.7627	46.875	101.023	46.875	98.6715	46.875	100.283	46.875	98.6434	46.875	99.6562	46.875	98.7001	46.875	99.1829	46.875	98.8701
48.3398	102.184	48.3398	101.903	48.3398	102.462	48.3398	101.616	48.3398	102.74	48.3398	101.322	48.3398	103.018	48.3398	101.021	48.3398	103.29	48.3398	100.716	48.3398	103.543	48.3398	100.412	48.3398	103.755	48.3398	100.113	48.3398	103.899	48.3398	99.826	48.3398	103.944	48.3398	99.5549	48.3398	103.867	48.3398	99.3052	48.3398	103.652	48.3398	99.082	48.3398	103.296	48.3398	98.8918	48.3398	102.81	48.3398	98.743	48.3398	102.219	48.3398	98.6482	48.3398	101.559	48.3398	98.6245	48.3398	100.877	48.3398	98.6941	48.3398	100.225	48.3398	98.8798	48.3398	99.6531	48.3398	99.1987
51.2695	102.212	51.2695	101.896	51.2695	102.571	51.2695	101.624	51.2695	102.967	51.2695	101.391	51.2695	103.387	51.2695	101.192	51.2695	103.808	51.2695	101.022	51.2695	104.202	51.2695	100.877	51.2695	104.535	51.2695	100.759	51.2695	104.775	51.2695	100.666	51.2695	104.9	51.2695	100.602	51.2695	104.898	51.2695	100.571	51.2695	104.774	51.2695	100.579	51.2695	104.549	51.2695	100.631	51.2695	104.251	51.2695	100.734	51.2695	103.908	51.2695	100.891	51.2695	103.544	51.2695	101.105	51.2695	103.169	51.2695	101.374	51.2695	102.789	51.2695	101.69	51.2695	102.41	51.2695	102.039
52.7344	102.174	52.7344	101.805	52.7344	102.586	52.7344	101.487	52.7344	103.028	52.7344	101.221	52.7344	103.482	52.7344	101.006	52.7344	103.922	52.7344	100.842	52.7344	104.318	52.7344	100.723	52.7344	104.639	52.7344	100.649	52.7344	104.857	52.7344	100.615	52.7344	104.948	52.7344	100.621	52.7344	104.906	52.7344	100.666	52.7344	104.739	52.7344	100.751	52.7344	104.473	52.7344	100.874	52.7344	104.149	52.7344	101.036	52.7344	103.804	52.7344	101.235	52.7344	103.469	52.7344	101.466	52.7344	103.154	52.7344	101.723	52.7344	102.857	52.7344	101.998	52.7344	102.568	52.7344	102.281
54.1992	102.349	54.1992	101.933	54.1992	102.792	54.1992	101.557	54.1992	103.247	54.1992	101.227	54.1992	103.696	54.1992	100.948	54.1992	104.113	54.1992	100.72	54.1992	104.471	54.1992	100.544	54.1992	104.741	54.1992	100.419	54.1992	104.896	54.1992	100.342	54.1992	104.919	54.1992	100.313	54.1992	104.8	54.1992	100.329	54.1992	104.551	54.1992	100.388	54.1992	104.198	54.1992	100.488	54.1992	103.782	54.1992	100.626	54.1992	103.351	54.1992	100.798	54.1992	102.944	54.1992	100.998	54.1992	102.58	54.1992	101.221	54.1992	102.261	54.1992	101.459	54.1992	101.976	54.1992	101.711
55.6641	102.495	55.6641	102.096	55.6641	102.913	55.6641	101.726	55.6641	103.339	55.6641	101.389	55.6641	103.758	55.6641	101.093	55.6641	104.152	55.6641	100.842	55.6641	104.498	55.6641	100.637	55.6641	104.767	55.6641	100.482	55.6641	104.933	55.6641	100.376	55.6641	104.976	55.6641	100.319	55.6641	104.887	55.6641	100.311	55.6641	104.673	55.6641	100.349	55.6641	104.357	55.6641	100.433	55.6641	103.973	55.6641	100.56	55.6641	103.56	55.6641	100.726	55.6641	103.146	55.6641	100.93	55.6641	102.751	55.6641	101.166	55.6641	102.383	55.6641	101.432	55.6641	102.041	55.6641	101.724
58.5938	102.852	58.5938	102.477	58.5938	103.242	58.5938	102.124	58.5938	103.638	58.5938	101.8	58.5938	104.024	58.5938	101.508	58.5938	104.384	58.5938	101.252	58.5938	104.694	58.5938	101.034	58.5938	104.927	58.5938	100.856	58.5938	105.057	58.5938	100.72	58.5938	105.065	58.5938	100.626	58.5938	104.943	58.5938	100.575	58.5938	104.699	58.5938	100.569	58.5938	104.359	58.5938	100.607	58.5938	103.958	58.5938	100.691	58.5938	103.536	58.5938	100.819	58.5938	103.122	58.5938	100.989	58.5938	102.732	58.5938	101.2	58.5938	102.37	58.5938	101.448	58.5938	102.036	58.5938	101.728
60.0586	102.533	60.0586	102.132	60.0586	102.949	60.0586	101.755	60.0586	103.37	60.0586	101.407	60.0586	103.783	60.0586	101.092	60.0586	104.169	60.0586	100.813	60.0586	104.503	60.0586	100.575	60.0586	104.758	60.0586	100.38	60.0586	104.909	60.0586	100.229	60.0586	104.934	60.0586	100.126	60.0586	104.825	60.0586	100.07	60.0586	104.59	60.0586	100.064	60.0586	104.25	60.0586	100.108	60.0586	103.841	60.0586	100.203	60.0586	103.4	60.0586	100.348	60.0586	102.956	60.0586	100.541	60.0586	102.527	60.0586	100.781	60.0586	102.12	60.0586	101.064	60.0586	101.738	60.0586	101.384
62.9883	102.034	62.9883	101.6	62.9883	102.494	62.9883	101.201	62.9883	102.969	62.9883	100.842	62.9883	103.444	62.9883	100.529	62.9883	103.899	62.9883	100.264	62.9883	104.309	62.9883	100.05	62.9883	104.647	62.9883	99.8874	62.9883	104.883	62.9883	99.7786	62.9883	104.995	62.9883	99.7243	62.9883	104.971	62.9883	99.7251	62.9883	104.815	62.9883	99.7814	62.9883	104.543	62.9883	99.8933	62.9883	104.188	62.9883	100.06	62.9883	103.78	62.9883	100.281	62.9883	103.347	62.9883	100.552	62.9883	102.907	62.9883	100.871	62.9883	102.468	62.9883	101.23	62.9883	102.037	62.9883	101.622
64.4531	101.89	64.4531	101.465	64.4531	102.346	64.4531	101.079	64.4531	102.824	64.4531	100.739	64.4531	103.308	64.4531	100.447	64.4531	103.778	64.4531	100.206	64.4531	104.209	64.4531	100.017	64.4531	104.571	64.4531	99.8819	64.4531	104.837	64.4531	99.801	64.4531	104.981	64.4531	99.7749	64.4531	104.993	64.4531	99.8041	64.4531	104.875	64.4531	99.8887	64.4531	104.643	64.4531	100.028	64.4531	104.327	64.4531	100.222	64.4531	103.955	64.4531	100.467	64.4531	103.553	64.4531	100.76	64.4531	103.135	64.4531	101.096	64.4531	102.71	64.4531	101.469	64.4531	102.286	64.4531	101.869
67.3828	101.39	67.3828	100.924	67.3828	101.895	67.3828	100.508	67.3828	102.426	67.3828	100.148	67.3828	102.964	67.3828	99.8463	67.3828	103.486	67.3828	99.6064	67.3828	103.964	67.3828	99.4286	67.3828	104.368	67.3828	99.3131	67.3828	104.668	67.3828	99.2597	67.3828	104.842	67.3828	99.2683	67.3828	104.88	67.3828	99.3381	67.3828	104.786	67.3828	99.4679	67.3828	104.58	67.3828	99.656	67.3828	104.287	67.3828	99.8999	67.3828	103.935	67.3828	100.196	67.3828	103.542	67.3828	100.539	67.3828	103.122	67.3828	100.923	67.3828	102.682	67.3828	101.34	67.3828	102.232	67.3828	101.78
68.8477	101.519	68.8477	101.056	68.8477	102.02	68.8477	100.642	68.8477	102.543	68.8477	100.283	68.8477	103.07	68.8477	99.9851	68.8477	103.576	68.8477	99.7498	68.8477	104.035	68.8477	99.5778	68.8477	104.417	68.8477	99.469	68.8477	104.695	68.8477	99.4223	68.8477	104.847	68.8477	99.4365	68.8477	104.866	68.8477	99.51	68.8477	104.758	68.8477	99.6408	68.8477	104.546	68.8477	99.8267	68.8477	104.256	68.8477	100.065	68.8477	103.915	68.8477	100.351	68.8477	103.541	68.8477	100.682	68.8477	103.143	68.8477	101.051	68.8477	102.727	68.8477	101.45	68.8477	102.3	68.8477	101.87
71.7773	101.922	71.7773	101.513	71.7773	102.361	71.7773	101.143	71.7773	102.818	71.7773	100.818	71.7773	103.275	71.7773	100.542	71.7773	103.713	71.7773	100.318	71.7773	104.105	71.7773	100.145	71.7773	104.424	71.7773	100.025	71.7773	104.643	71.7773	99.9559	71.7773	104.741	71.7773	99.9385	71.7773	104.712	71.7773	99.9716	71.7773	104.563	71.7773	100.054	71.7773	104.318	71.7773	100.185	71.7773	104.009	71.7773	100.362	71.7773	103.665	71.7773	100.583	71.7773	103.306	71.7773	100.845	71.7773	102.938	71.7773	101.144	71.7773	102.566	71.7773	101.473	71.7773	102.193	71.7773	101.826
74.707	102.043	74.707	101.661	74.707	102.453	74.707	101.314	74.707	102.88	74.707	101.006	74.707	103.313	74.707	100.739	74.707	103.73	74.707	100.513	74.707	104.106	74.707	100.331	74.707	104.413	74.707	100.193	74.707	104.621	74.707	100.099	74.707	104.707	74.707	100.051	74.707	104.663	74.707	100.048	74.707	104.496	74.707	100.091	74.707	104.231	74.707	100.181	74.707	103.901	74.707	100.317	74.707	103.535	74.707	100.499	74.707	103.156	74.707	100.727	74.707	102.772	74.707	100.997	74.707	102.388	74.707	101.306	74.707	102.011	74.707	101.647
77.6367	101.991	77.6367	101.602	77.6367	102.41	77.6367	101.252	77.6367	102.851	77.6367	100.942	77.6367	103.298	77.6367	100.676	77.6367	103.732	77.6367	100.455	77.6367	104.124	77.6367	100.277	77.6367	104.445	77.6367	100.146	77.6367	104.662	77.6367	100.059	77.6367	104.754	77.6367	100.018	77.6367	104.709	77.6367	100.024	77.6367	104.537	77.6367	100.075	77.6367	104.261	77.6367	100.173	77.6367	103.917	77.6367	100.317	77.6367	103.54	77.6367	100.506	77.6367	103.154	77.6367	100.739	77.6367	102.769	77.6367	101.012	77.6367	102.389	77.6367	101.32	77.6367	102.017	77.6367	101.658
79.1016	101.939	79.1016	101.544	79.1016	102.361	79.1016	101.185	79.1016	102.804	79.1016	100.864	79.1016	103.251	79.1016	100.584	79.1016	103.685	79.1016	100.348	79.1016	104.078	79.1016	100.156	79.1016	104.4	79.1016	100.01	79.1016	104.621	79.1016	99.9118	79.1016	104.716	79.1016	99.862	79.1016	104.676	79.1016	99.8612	79.1016	104.505	79.1016	99.9098	79.1016	104.227	79.1016	100.007	79.1016	103.875	79.1016	100.153	79.1016	103.485	79.1016	100.346	79.1016	103.082	79.1016	100.584	79.1016	102.679	79.1016	100.863	79.1016	102.282	79.1016	101.179	79.1016	101.896	79.1016	101.526
82.0312	101.93	82.0312	101.544	82.0312	102.341	82.0312	101.185	82.0312	102.768	82.0312	100.858	82.0312	103.199	82.0312	100.565	82.0312	103.616	82.0312	100.308	82.0312	103.998	82.0312	100.09	82.0312	104.314	82.0312	99.9133	82.0312	104.538	82.0312	99.782	82.0312	104.643	82.0312	99.6991	82.0312	104.619	82.0312	99.6676	82.0312	104.468	82.0312	99.6899	82.0312	104.21	82.0312	99.7679	82.0312	103.872	82.0312	99.9022	82.0312	103.485	82.0312	100.093	82.0312	103.07	82.0312	100.339	82.0312	102.641	82.0312	100.636	82.0312	102.207	82.0312	100.981	82.0312	101.778	82.0312	101.366
84.9609	102.189	84.9609	101.821	84.9609	102.567	84.9609	101.47	84.9609	102.951	84.9609	101.138	84.9609	103.332	84.9609	100.83	84.9609	103.699	84.9609	100.548	84.9609	104.032	84.9609	100.295	84.9609	104.307	84.9609	100.076	84.9609	104.495	84.9609	99.8925	84.9609	104.572	84.9609	99.7503	84.9609	104.525	84.9609	99.6539	84.9609	104.357	84.9609	99.6083	84.9609	104.088	84.9609	99.6188	84.9609	103.743	84.9609	99.6901	84.9609	103.345	84.9609	99.8264	84.9609	102.908	84.9609	100.031	84.9609	102.444	84.9609	100.304	84.9609	101.966	84.9609	100.645	84.9609	101.492	84.9609	101.046
87.8906	102.291	87.8906	101.939	87.8906	102.662	87.8906	101.61	87.8906	103.047	87.8906	101.307	87.8906	103.437	87.8906	101.031	87.8906	103.815	87.8906	100.784	87.8906	104.16	87.8906	100.568	87.8906	104.443	87.8906	100.383	87.8906	104.632	87.8906	100.233	87.8906	104.704	87.8906	100.119	87.8906	104.647	87.8906	100.046	87.8906	104.473	87.8906	100.017	87.8906	104.208	87.8906	100.037	87.8906	103.883	87.8906	100.112	87.8906	103.518	87.8906	100.245	87.8906	103.125	87.8906	100.442	87.8906	102.705	87.8906	100.704	87.8906	102.268	87.8906	101.029	87.8906	101.828	87.8906	101.409
90.8203	102.404	90.8203	102.033	90.8203	102.786	90.8203	101.679	90.8203	103.169	90.8203	101.348	90.8203	103.545	90.8203	101.046	90.8203	103.9	90.8203	100.775	90.8203	104.215	90.8203	100.54	90.8203	104.465	90.8203	100.343	90.8203	104.623	90.8203	100.185	90.8203	104.666	90.8203	100.07	90.8203	104.584	90.8203	99.9979	90.8203	104.387	90.8203	99.9734	90.8203	104.101	90.8203	99.9994	90.8203	103.758	90.8203	100.079	90.8203	103.383	90.8203	100.215	90.8203	102.988	90.8203	100.411	90.8203	102.576	90.8203	100.665	90.8203	102.154	90.8203	100.976	90.8203	101.735	90.8203	101.337
95.2148	102.304	95.2148	101.96	95.2148	102.649	95.2148	101.622	95.2148	102.988	95.2148	101.296	95.2148	103.315	95.2148	100.986	95.2148	103.622	95.2148	100.697	95.2148	103.89	95.2148	100.434	95.2148	104.1	95.2148	100.199	95.2148	104.224	95.2148	99.9973	95.2148	104.24	95.2148	99.8322	95.2148	104.14	95.2148	99.7085	95.2148	103.934	95.2148	99.6316	95.2148	103.646	95.2148	99.6074	95.2148	103.306	95.2148	99.6419	95.2148	102.931	95.2148	99.7405	95.2148	102.529	95.2148	99.9073	95.2148	102.102	95.2148	100.144	95.2148	101.662	95.2148	100.449	95.2148	101.225	95.2148	100.814
98.1445	102.266	98.1445	101.923	98.1445	102.61	98.1445	101.587	98.1445	102.947	98.1445	101.266	98.1445	103.271	98.1445	100.964	98.1445	103.571	98.1445	100.689	98.1445	103.831	98.1445	100.443	98.1445	104.03	98.1445	100.231	98.1445	104.145	98.1445	100.055	98.1445	104.155	98.1445	99.918	98.1445	104.059	98.1445	99.8239	98.1445	103.872	98.1445	99.7762	98.1445	103.621	98.1445	99.779	98.1445	103.33	98.1445	99.8368	98.1445	103.009	98.1445	99.9536	98.1445	102.655	98.1445	100.133	98.1445	102.267	98.1445	100.375	98.1445	101.854	98.1445	100.679	98.1445	101.436	98.1445	101.037
101.074	102.303	101.074	101.945	101.074	102.653	101.074	101.59	101.074	102.988	101.074	101.244	101.074	103.3	101.074	100.918	101.074	103.578	101.074	100.62	101.074	103.805	101.074	100.356	101.074	103.962	101.074	100.133	101.074	104.025	101.074	99.9546	101.074	103.98	101.074	99.8244	101.074	103.834	101.074	99.7455	101.074	103.615	101.074	99.7204	101.074	103.36	101.074	99.751	101.074	103.099	101.074	99.8387	101.074	102.832	101.074	99.984	101.074	102.543	101.074	100.186	101.074	102.218	101.074	100.444	101.074	101.857	101.074	100.752	101.074	101.477	101.074	101.102
105.469	102.314	105.469	101.959	105.469	102.653	105.469	101.595	105.469	102.968	105.469	101.231	105.469	103.251	105.469	100.876	105.469	103.49	105.469	100.538	105.469	103.669	105.469	100.227	105.469	103.766	105.469	99.95	105.469	103.758	105.469	99.7159	105.469	103.631	105.469	99.531	105.469	103.393	105.469	99.4012	105.469	103.078	105.469	99.3311	105.469	102.739	105.469	99.324	105.469	102.418	105.469	99.3811	105.469	102.126	105.469	99.5019	105.469	101.843	105.469	99.6838	105.469	101.544	105.469	99.9218	105.469	101.219	105.469	100.208	105.469	100.875	105.469	100.532
108.398	102.482	108.398	102.128	108.398	102.821	108.398	101.765	108.398	103.134	108.398	101.403	108.398	103.415	108.398	101.048	108.398	103.652	108.398	100.711	108.398	103.831	108.398	100.398	108.398	103.931	108.398	100.119	108.398	103.934	108.398	99.8805	108.398	103.825	108.398	99.691	108.398	103.612	108.398	99.5577	108.398	103.326	108.398	99.4869	108.398	103.011	108.398	99.4831	108.398	102.705	108.398	99.5483	108.398	102.417	108.398	99.6817	108.398	102.13	108.398	99.8793	108.398	101.822	108.398	100.134	108.398	101.486	108.398	100.437	108.398	101.131	108.398	100.775
112.793	102.294	112.793	101.964	112.793	102.608	112.793	101.625	112.793	102.897	112.793	101.285	112.793	103.154	112.793	100.951	112.793	103.37	112.793	100.631	112.793	103.533	112.793	100.332	112.793	103.627	112.793	100.062	112.793	103.634	112.793	99.828	112.793	103.546	112.793	99.6374	112.793	103.371	112.793	99.4981	112.793	103.141	112.793	99.4177	112.793	102.894	112.793	99.4027	112.793	102.655	112.793	99.4576	112.793	102.417	112.793	99.5843	112.793	102.154	112.793	99.7814	112.793	101.845	112.793	100.044	112.793	101.491	112.793	100.362	112.793	101.108	112.793	100.724
117.188	102.005	117.188	101.681	117.188	102.308	117.188	101.345	117.188	102.582	117.188	101.005	117.188	102.819	117.188	100.673	117.188	103.013	117.188	100.359	117.188	103.151	117.188	100.072	117.188	103.221	117.188	99.8214	117.188	103.209	117.188	99.6168	117.188	103.109	117.188	99.4665	117.188	102.94	117.188	99.3778	117.188	102.739	117.188	99.3564	117.188	102.551	117.188	99.4057	117.188	102.399	117.188	99.5259	117.188	102.263	117.188	99.7138	117.188	102.106	117.188	99.9623	117.188	101.894	117.188	100.261	117.188	101.621	117.188	100.595	117.188	101.298	117.188	100.948
120.117	101.924	120.117	101.6	120.117	102.226	120.117	101.261	120.117	102.498	120.117	100.918	120.117	102.732	120.117	100.581	120.117	102.922	120.117	100.259	120.117	103.057	120.117	99.9649	120.117	103.125	120.117	99.7077	120.117	103.111	120.117	99.4983	120.117	103.011	120.117	99.3465	120.117	102.842	120.117	99.2607	120.117	102.641	120.117	99.2472	120.117	102.453	120.117	99.3088	120.117	102.3	120.117	99.4446	120.117	102.166	120.117	99.649	120.117	102.014	120.117	99.9119	120.117	101.813	120.117	100.22	120.117	101.553	120.117	100.557	120.117	101.244	120.117	100.905
124.512	101.801	124.512	101.484	124.512	102.094	124.512	101.15	124.512	102.354	124.512	100.81	124.512	102.576	124.512	100.475	124.512	102.753	124.512	100.156	124.512	102.879	124.512	99.8634	124.512	102.944	124.512	99.6094	124.512	102.94	124.512	99.4042	124.512	102.863	124.512	99.258	124.512	102.732	124.512	99.1793	124.512	102.581	124.512	99.1747	124.512	102.446	124.512	99.2474	124.512	102.338	124.512	99.3967	124.512	102.234	124.512	99.6168	124.512	102.096	124.512	99.8975	124.512	101.895	124.512	100.225	124.512	101.626	124.512	100.581	124.512	101.303	124.512	100.947
128.906	101.68	128.906	101.376	128.906	101.953	128.906	101.051	128.906	102.189	128.906	100.716	128.906	102.382	128.906	100.383	128.906	102.531	128.906	100.063	128.906	102.632	128.906	99.7702	128.906	102.681	128.906	99.5167	128.906	102.675	128.906	99.3143	128.906	102.614	128.906	99.1734	128.906	102.516	128.906	99.1029	128.906	102.41	128.906	99.109	128.906	102.322	128.906	99.1943	128.906	102.255	128.906	99.3568	128.906	102.18	128.906	99.5899	128.906	102.061	128.906	99.8818	128.906	101.873	128.906	100.217	128.906	101.615	128.906	100.578	128.906	101.298	128.906	100.946
133.301	101.507	133.301	101.214	133.301	101.759	133.301	100.891	133.301	101.967	133.301	100.547	133.301	102.129	133.301	100.198	133.301	102.245	133.301	99.8569	133.301	102.32	133.301	99.5394	133.301	102.356	133.301	99.261	133.301	102.353	133.301	99.0368	133.301	102.318	133.301	98.8802	133.301	102.268	133.301	98.8029	133.301	102.227	133.301	98.8127	133.301	102.207	133.301	98.9127	133.301	102.196	133.301	99.1003	133.301	102.156	133.301	99.3663	133.301	102.052	133.301	99.6962	133.301	101.862	133.301	100.071	133.301	101.589	133.301	100.47	133.301	101.251	133.301	100.871
139.16	101.535	139.16	101.265	139.16	101.755	139.16	100.953	139.16	101.918	139.16	100.609	139.16	102.026	139.16	100.247	139.16	102.082	139.16	99.8829	139.16	102.094	139.16	99.5318	139.16	102.071	139.16	99.2101	139.16	102.021	139.16	98.9341	139.16	101.96	139.16	98.7196	139.16	101.91	139.16	98.581	139.16	101.891	139.16	98.5303	139.16	101.908	139.16	98.5755	139.16	101.929	139.16	98.7185	139.16	101.907	139.16	98.9544	139.16	101.798	139.16	99.2704	139.16	101.587	139.16	99.6479	139.16	101.283	139.16	100.064	139.16	100.909	139.16	100.493
143.555	101.397	143.555	101.153	143.555	101.585	143.555	100.862	143.555	101.715	143.555	100.538	143.555	101.785	143.555	100.193	143.555	101.802	143.555	99.8426	143.555	101.778	143.555	99.5036	143.555	101.727	143.555	99.1913	143.555	101.665	143.555	98.9209	143.555	101.613	143.555	98.7071	143.555	101.595	143.555	98.5631	143.555	101.625	143.555	98.5006	143.555	101.693	143.555	98.5281	143.555	101.757	143.555	98.6497	143.555	101.761	143.555	98.8633	143.555	101.665	143.555	99.1596	143.555	101.457	143.555	99.5223	143.555	101.151	143.555	99.9296	143.555	100.773	143.555	100.356
147.949	101.381	147.949	101.169	147.949	101.528	147.949	100.903	147.949	101.605	147.949	100.599	147.949	101.611	147.949	100.271	147.949	101.554	147.949	99.9363	147.949	101.451	147.949	99.6114	147.949	101.324	147.949	99.3116	147.949	101.204	147.949	99.0509	147.949	101.126	147.949	98.8419	147.949	101.122	147.949	98.6951	147.949	101.204	147.949	98.6195	147.949	101.34	147.949	98.6223	147.949	101.464	147.949	98.7075	147.949	101.509	147.949	98.8754	147.949	101.434	147.949	99.1211	147.949	101.237	147.949	99.4334	147.949	100.94	147.949	99.7956	147.949	100.578	147.949	100.186
153.809	101.332	153.809	101.133	153.809	101.45	153.809	100.867	153.809	101.478	153.809	100.552	153.809	101.413	153.809	100.207	153.809	101.262	153.809	99.8536	153.809	101.043	153.809	99.5122	153.809	100.785	153.809	99.2019	153.809	100.536	153.809	98.9392	153.809	100.354	153.809	98.7372	153.809	100.298	153.809	98.6047	153.809	100.389	153.809	98.5466	153.809	100.581	153.809	98.5642	153.809	100.784	153.809	98.6552	153.809	100.907	153.809	98.8143	153.809	100.905	153.809	99.0336	153.809	100.776	153.809	99.302	153.809	100.546	153.809	99.6063	153.809	100.252	153.809	99.9299
159.668	100.994	159.668	100.819	159.668	101.071	159.668	100.564	159.668	101.038	159.668	100.249	159.668	100.888	159.668	99.8983	159.668	100.629	159.668	99.5365	159.668	100.282	159.668	99.1881	159.668	99.89	159.668	98.8763	159.668	99.5242	159.668	98.621	159.668	99.2802	159.668	98.4377	159.668	99.2481	159.668	98.336	159.668	99.4494	159.668	98.3192	159.668	99.8028	159.668	98.3844	159.668	100.171	159.668	98.5237	159.668	100.441	159.668	98.7253	159.668	100.558	159.668	98.9749	159.668	100.523	159.668	99.2569	159.668	100.368	159.668	99.5553	159.668	100.133	159.668	99.8537
165.527	100.707	165.527	100.541	165.527	100.764	165.527	100.285	165.527	100.697	165.527	99.9597	165.527	100.499	165.527	99.5886	165.527	100.172	165.527	99.1958	165.527	99.7324	165.527	98.8064	165.527	99.2242	165.527	98.4456	165.527	98.725	165.527	98.1378	165.527	98.3571	165.527	97.9055	165.527	98.2602	165.527	97.7669	165.527	98.5014	165.527	97.7344	165.527	98.9951	165.527	97.812	165.527	99.5552	165.527	97.9944	165.527	100.016	165.527	98.2665	165.527	100.291	165.527	98.6055	165.527	100.367	165.527	98.9833	165.527	100.272	165.527	99.3699	165.527	100.048	165.527	99.7351
171.387	100.546	171.387	100.386	171.387	100.594	171.387	100.133	171.387	100.519	171.387	99.8066	171.387	100.314	171.387	99.4287	171.387	99.9839	171.387	99.0224	171.387	99.5506	171.387	98.6108	171.387	99.0596	171.387	98.2169	171.387	98.5896	171.387	97.8633	171.387	98.2565	171.387	97.5715	171.387	98.1842	171.387	97.3617	171.387	98.423	171.387	97.2517	171.387	98.884	171.387	97.2546	171.387	99.3906	171.387	97.3757	171.387	99.788	171.387	97.6098	171.387	99.9973	171.387	97.939	171.387	100.007	171.387	98.3348	171.387	99.8463	171.387	98.7617	171.387	99.5568	171.387	99.1819
177.246	100.202	177.246	100.051	177.246	100.24	177.246	99.8073	177.246	100.153	177.246	99.4917	177.246	99.9311	177.246	99.1271	177.246	99.5778	177.246	98.7373	177.246	99.1149	177.246	98.3456	177.246	98.5933	177.246	97.9739	177.246	98.1034	177.246	97.6416	177.246	97.7746	177.246	97.3651	177.246	97.7325	177.246	97.1583	177.246	98.0071	177.246	97.0329	177.246	98.4836	177.246	96.9988	177.246	98.9774	177.246	97.0632	177.246	99.3427	177.246	97.2284	177.246	99.5128	177.246	97.488	177.246	99.486	177.246	97.825	177.246	99.296	177.246	98.212	177.246	98.9895	177.246	98.6135
183.105	99.8554	183.105	99.7323	183.105	99.8539	183.105	99.5058	183.105	99.7117	183.105	99.1996	183.105	99.4209	183.105	98.8391	183.105	98.9882	183.105	98.4504	183.105	98.4446	183.105	98.0587	183.105	97.8579	183.105	97.6875	183.105	97.3444	183.105	97.3575	183.105	97.0578	183.105	97.0857	183.105	97.1201	183.105	96.886	183.105	97.5162	183.105	96.7693	183.105	98.0826	183.105	96.7445	183.105	98.6219	183.105	96.817	183.105	99.0026	183.105	96.9871	183.105	99.1773	183.105	97.2467	183.105	99.1571	183.105	97.5779	183.105	98.9804	183.105	97.9527	183.105	98.6927	183.105	98.3368
188.965	99.7773	188.965	99.691	188.965	99.7295	188.965	99.4909	188.965	99.5329	188.965	99.2014	188.965	99.181	188.965	98.849	188.965	98.6815	188.965	98.461	188.965	98.0655	188.965	98.0635	188.965	97.4042	188.965	97.6801	188.965	96.8274	188.965	97.3304	188.965	96.5145	188.965	97.03	188.965	96.6033	188.965	96.7905	188.965	97.056	188.965	96.6213	188.965	97.6665	188.965	96.5306	188.965	98.2149	188.965	96.5262	188.965	98.5719	188.965	96.614	188.965	98.7034	188.965	96.7943	188.965	98.6351	188.965	97.0584	188.965	98.4179	188.965	97.3864	188.965	98.106	188.965	97.748
196.289	99.4622	196.289	99.3296	196.289	99.4646	196.289	99.0891	196.289	99.3169	196.289	98.7652	196.289	99.0042	196.289	98.3845	196.289	98.5245	196.289	97.9761	196.289	97.9031	196.289	97.5702	196.289	97.2154	196.289	97.1961	196.289	96.609	196.289	96.8792	196.289	96.2861	196.289	96.6379	196.289	96.3843	196.289	96.4817	196.289	96.8372	196.289	96.4113	196.289	97.4182	196.289	96.4195	196.289	97.9136	196.289	96.4952	196.289	98.2137	196.289	96.6265	196.289	98.3035	196.289	96.8027	196.289	98.2234	196.289	97.0153	196.289	98.0324	196.289	97.2567	196.289	97.7844	196.289	97.5178
203.613	99.3501	203.613	99.1618	203.613	99.3932	203.613	98.8559	203.613	99.2682	203.613	98.4632	203.613	98.9604	203.613	98.0163	203.613	98.4696	203.613	97.5494	203.613	97.8232	203.613	97.0962	203.613	97.0978	203.613	96.6893	203.613	96.4439	203.613	96.358	203.613	96.0762	203.613	96.1264	203.613	96.158	203.613	96.0108	203.613	96.644	203.613	96.0181	203.613	97.3064	203.613	96.1438	203.613	97.9173	203.613	96.372	203.613	98.3514	203.613	96.6779	203.613	98.5792	203.613	97.031	203.613	98.6258	203.613	97.4001	203.613	98.5342	203.613	97.7565	203.613	98.3424	203.613	98.0769
210.938	99.2273	210.938	99.0617	210.938	99.256	210.938	98.7838	210.938	99.1294	210.938	98.4213	210.938	98.8393	210.938	98.004	210.938	98.3947	210.938	97.5617	210.938	97.8349	210.938	97.123	210.938	97.2462	210.938	96.7133	210.938	96.7733	210.938	96.3542	210.938	96.5892	210.938	96.0628	210.938	96.7905	210.938	95.8529	210.938	97.299	210.938	95.7363	210.938	97.9102	210.938	95.7232	210.938	98.43	210.938	95.8211	210.938	98.7493	210.938	96.0317	210.938	98.8416	210.938	96.3464	210.938	98.7318	210.938	96.7441	210.938	98.4663	210.938	97.1931	210.938	98.0933	210.938	97.6558
218.262	99.0296	218.262	98.9549	218.262	98.9659	218.262	98.7626	218.262	98.7517	218.262	98.4789	218.262	98.3891	218.262	98.1333	218.262	97.9037	218.262	97.7566	218.262	97.3593	218.262	97.3786	218.262	96.8728	218.262	97.0263	218.262	96.6043	218.262	96.7212	218.262	96.6842	218.262	96.479	218.262	97.1063	218.262	96.3086	218.262	97.7133	218.262	96.2138	218.262	98.305	218.262	96.1962	218.262	98.7377	218.262	96.2565	218.262	98.9498	218.262	96.3963	218.262	98.9447	218.262	96.6159	218.262	98.7625	218.262	96.9112	218.262	98.4562	218.262	97.2696	218.262	98.0767	218.262	97.6685
225.586	99.4779	225.586	99.3969	225.586	99.4006	225.586	99.1826	225.586	99.146	225.586	98.8651	225.586	98.7061	225.586	98.478	225.586	98.0967	225.586	98.0575	225.586	97.3847	225.586	97.6392	225.586	96.7284	225.586	97.2552	225.586	96.3829	225.586	96.9303	225.586	96.5612	225.586	96.6788	225.586	97.209	225.586	96.5043	225.586	98.0344	225.586	96.4018	225.586	98.7506	225.586	96.3628	225.586	99.2008	225.586	96.381	225.586	99.3459	225.586	96.4568	225.586	99.2214	225.586	96.5992	225.586	98.9001	225.586	96.8214	225.586	98.4639	225.586	97.1328	225.586	97.9871	225.586	97.5292
232.91	99.6688	232.91	99.5245	232.91	99.6387	232.91	99.2412	232.91	99.4026	232.91	98.8561	232.91	98.9379	232.91	98.4083	232.91	98.2462	232.91	97.9383	232.91	97.3855	232.91	97.4865	232.91	96.5278	232.91	97.0898	232.91	95.996	232.91	96.7769	232.91	96.1008	232.91	96.5633	232.91	96.7911	232.91	96.4486	232.91	97.6832	232.91	96.4174	232.91	98.4259	232.91	96.4454	232.91	98.8522	232.91	96.5062	232.91	98.9374	232.91	96.5808	232.91	98.7406	232.91	96.664	232.91	98.363	232.91	96.7682	232.91	97.9159	232.91	96.9219	232.91	97.4945	232.91	97.1579
241.699	99.8578	241.699	99.6994	241.699	99.8347	241.699	99.3987	241.699	99.595	241.699	98.9972	241.699	99.1109	241.699	98.538	241.699	98.3726	241.699	98.0643	241.699	97.4156	241.699	97.6162	241.699	96.3812	241.699	97.2274	241.699	95.5984	241.699	96.9206	241.699	95.4887	241.699	96.7044	241.699	96.111	241.699	96.5733	241.699	97.0351	241.699	96.5104	241.699	97.8209	241.699	96.4923	241.699	98.2649	241.699	96.4957	241.699	98.3445	241.699	96.5042	241.699	98.1361	241.699	96.5133	241.699	97.7609	241.699	96.5348	241.699	97.3454	241.699	96.5969	241.699	96.9877	241.699	96.7378
250.488	99.7405	250.488	99.5677	250.488	99.7009	250.488	99.2221	250.488	99.4104	250.488	98.7468	250.488	98.8337	250.488	98.1898	250.488	97.9484	250.488	97.606	250.488	96.7782	250.488	97.0549	250.488	95.488	250.488	96.5947	250.488	94.5513	250.488	96.2709	250.488	94.598	250.488	96.1057	250.488	95.5693	250.488	96.0898	250.488	96.7487	250.488	96.1863	250.488	97.6246	250.488	96.3416	250.488	98.0385	250.488	96.5003	250.488	98.0217	250.488	96.6168	250.488	97.7	250.488	96.6631	250.488	97.2482	250.488	96.6368	250.488	96.8411	250.488	96.5683	250.488	96.5943	250.488	96.5247
259.277	100.195	259.277	99.8763	259.277	100.295	259.277	99.3825	259.277	100.131	259.277	98.7607	259.277	99.6536	259.277	98.0618	259.277	98.8087	259.277	97.3429	259.277	97.5358	259.277	96.6658	259.277	95.7934	259.277	96.0937	259.277	93.7135	259.277	95.6825	259.277	92.1087	259.277	95.4704	259.277	92.2972	259.277	95.4638	259.277	93.7105	259.277	95.6301	259.277	94.9741	259.277	95.9035	259.277	95.6549	259.277	96.2033	259.277	95.8247	259.277	96.453	259.277	95.716	259.277	96.5928	259.277	95.5916	259.277	96.587	259.277	95.6298	259.277	96.4303	259.277	95.8508	259.277	96.1574
268.066	99.4828	268.066	98.9825	268.066	99.7884	268.066	98.3365	268.066	99.8569	268.066	97.601	268.066	99.6482	268.066	96.8381	268.066	99.1218	268.066	96.1082	268.066	98.2353	268.066	95.4613	268.066	96.9567	268.066	94.932	268.066	95.3282	268.066	94.5444	268.066	93.6649	268.066	94.3228	268.066	92.7574	268.066	94.2924	268.066	93.1016	268.066	94.4632	268.066	94.0464	268.066	94.8087	268.066	94.8985	268.066	95.2634	268.066	95.4849	268.066	95.7436	268.066	95.8787	268.066	96.1719	268.066	96.1787	268.066	96.4921	268.066	96.4284	268.066	96.6734	268.066	96.617	268.066	96.7096
276.855	98.5006	276.855	98.1242	276.855	98.7652	276.855	97.6759	276.855	98.8759	276.855	97.1907	276.855	98.7897	276.855	96.6956	276.855	98.4661	276.855	96.207	276.855	97.8739	276.855	95.7321	276.855	97.0096	276.855	95.2758	276.855	95.939	276.855	94.8514	276.855	94.8729	276.855	94.4906	276.855	94.1837	276.855	94.2454	276.855	94.1381	276.855	94.1745	276.855	94.5866	276.855	94.3137	276.855	95.1932	276.855	94.65	276.855	95.756	276.855	95.1204	276.855	96.2137	276.855	95.6376	276.855	96.5537	276.855	96.1186	276.855	96.7647	276.855	96.5003	276.855	96.8319	276.855	96.7438
287.109	99.0725	287.109	98.6399	287.109	99.3619	287.109	98.1133	287.109	99.4578	287.109	97.5386	287.109	99.3125	287.109	96.9561	287.109	98.8888	287.109	96.3953	287.109	98.1747	287.109	95.8735	287.109	97.2097	287.109	95.3986	287.109	96.1339	287.109	94.979	287.109	95.2409	287.109	94.6339	287.109	94.8881	287.109	94.3989	287.109	95.1568	287.109	94.3173	287.109	95.7448	287.109	94.4182	287.109	96.3136	287.109	94.6927	287.109	96.704	287.109	95.0895	287.109	96.9015	287.109	95.5355	287.109	96.953	287.109	95.9622	287.109	96.9078	287.109	96.3235	287.109	96.7903	287.109	96.5991
297.363	99.6238	297.363	99.2347	297.363	99.8484	297.363	98.7415	297.363	99.8527	297.363	98.2026	297.363	99.5918	297.363	97.6681	297.363	99.0395	297.363	97.1731	297.363	98.2005	297.363	96.7351	297.363	97.1353	297.363	96.3565	297.363	96.0139	297.363	96.0309	297.363	95.1808	297.363	95.7518	297.363	95.0276	297.363	95.5184	297.363	95.5583	297.363	95.3392	297.363	96.3484	297.363	95.2299	297.363	97.0083	297.363	95.2067	297.363	97.3771	297.363	95.2788	297.363	97.4528	297.363	95.4429	297.363	97.3059	297.363	95.6849	297.363	97.0237	297.363	95.9852	297.363	96.6801	297.363	96.324
307.617	99.8908	307.617	99.5412	307.617	100.075	307.617	99.0798	307.617	100.052	307.617	98.5628	307.617	99.7977	307.617	98.038	307.617	99.3159	307.617	97.5347	307.617	98.6465	307.617	97.0603	307.617	97.8873	307.617	96.607	307.617	97.2176	307.617	96.166	307.617	96.8731	307.617	95.744	307.617	96.9879	307.617	95.3754	307.617	97.4356	307.617	95.12	307.617	97.9367	307.617	95.0412	307.617	98.2803	307.617	95.1692	307.617	98.3977	307.617	95.478	307.617	98.3212	307.617	95.8991	307.617	98.1198	307.617	96.3573	307.617	97.8515	307.617	96.7978	307.617	97.5427	307.617	97.194
319.336	100.112	319.336	99.8254	319.336	100.24	319.336	99.4454	319.336	100.153	319.336	99.0302	319.336	99.8043	319.336	98.6214	319.336	99.1732	319.336	98.2344	319.336	98.2886	319.336	97.8584	319.336	97.2965	319.336	97.4691	319.336	96.5725	319.336	97.0463	319.336	96.6339	319.336	96.5901	319.336	97.5202	319.336	96.132	319.336	98.6365	319.336	95.7345	319.336	99.4425	319.336	95.4719	319.336	99.7273	319.336	95.393	319.336	99.507	319.336	95.4883	319.336	98.9238	319.336	95.6979	319.336	98.1811	319.336	95.9534	319.336	97.4735	319.336	96.2206	319.336	96.917	319.336	96.5201
329.59	100.855	329.59	100.522	329.59	101.018	329.59	100.093	329.59	100.941	329.59	99.6395	329.59	100.563	329.59	99.213	329.59	99.8325	329.59	98.8365	329.59	98.7052	329.59	98.5012	329.59	97.1832	329.59	98.1771	329.59	95.5296	329.59	97.83	329.59	94.7618	329.59	97.4369	329.59	95.7782	329.59	96.9977	329.59	97.4954	329.59	96.5411	329.59	98.7729	329.59	96.1242	329.59	99.3269	329.59	95.8177	329.59	99.2365	329.59	95.6742	329.59	98.7057	329.59	95.6982	329.59	97.9826	329.59	95.8472	329.59	97.2881	329.59	96.0711	329.59	96.7445	329.59	96.3571
341.309	100.502	341.309	100.003	341.309	100.849	341.309	99.4269	341.309	100.986	341.309	98.8478	341.309	100.862	341.309	98.3273	341.309	100.433	341.309	97.8987	341.309	99.6475	341.309	97.5631	341.309	98.4492	341.309	97.2976	341.309	96.8675	341.309	97.0711	341.309	95.3571	341.309	96.8594	341.309	95.0234	341.309	96.6555	341.309	96.0019	341.309	96.4717	341.309	97.062	341.309	96.332	341.309	97.5261	341.309	96.2559	341.309	97.3683	341.309	96.2396	341.309	96.832	341.309	96.2485	341.309	96.2545	341.309	96.2291	341.309	95.908	341.309	96.1395	341.309	95.8584	341.309	95.9869
353.027	100.523	353.027	99.7819	353.027	101.118	353.027	99.013	353.027	101.473	353.027	98.3412	353.027	101.524	353.027	97.8529	353.027	101.217	353.027	97.5576	353.027	100.504	353.027	97.3945	353.027	99.3284	353.027	97.2771	353.027	97.6782	353.027	97.136	353.027	95.8415	353.027	96.9393	353.027	94.8639	353.027	96.696	353.027	95.4366	353.027	96.4494	353.027	96.4368	353.027	96.2587	353.027	96.921	353.027	96.1665	353.027	96.7677	353.027	96.1663	353.027	96.2297	353.027	96.1979	353.027	95.6904	353.027	96.1784	353.027	95.4489	353.027	96.0462	353.027	95.5422	353.027	95.8025
366.211	100.527	366.211	100.032	366.211	100.979	366.211	99.5657	366.211	101.301	366.211	99.1654	366.211	101.406	366.211	98.8334	366.211	101.221	366.211	98.551	366.211	100.679	366.211	98.2925	366.211	99.7252	366.211	98.0307	366.211	98.3485	366.211	97.7378	366.211	96.7504	366.211	97.3915	366.211	95.6262	366.211	96.9877	366.211	95.6533	366.211	96.5566	366.211	96.3319	366.211	96.1738	366.211	96.8971	366.211	95.9466	366.211	97.1696	366.211	95.9599	366.211	97.2781	366.211	96.2081	366.211	97.3457	366.211	96.5881	366.211	97.3921	366.211	96.9643	366.211	97.3732	366.211	97.2377
379.395	101.988	379.395	101.444	379.395	102.368	379.395	100.828	379.395	102.506	379.395	100.23	379.395	102.339	379.395	99.7106	379.395	101.823	379.395	99.2932	379.395	100.929	379.395	98.9658	379.395	99.6646	379.395	98.6945	379.395	98.1546	379.395	98.4353	379.395	96.8651	379.395	98.1432	379.395	96.5892	379.395	97.782	379.395	97.3787	379.395	97.3359	379.395	98.3863	379.395	96.8228	379.395	99.0474	379.395	96.3081	379.395	99.2527	379.395	95.9083	379.395	99.0889	379.395	95.7577	379.395	98.6906	379.395	95.928	379.395	98.1679	379.395	96.371	379.395	97.5796	379.395	96.96
392.578	101.403	392.578	100.769	392.578	101.962	392.578	100.18	392.578	102.324	392.578	99.7124	392.578	102.39	392.578	99.3826	392.578	102.094	392.578	99.1632	392.578	101.393	392.578	99.0189	392.578	100.256	392.578	98.9209	392.578	98.6855	392.578	98.8419	392.578	96.9821	392.578	98.7513	392.578	96.2633	392.578	98.6208	392.578	97.2452	392.578	98.4341	392.578	98.6499	392.578	98.1931	392.578	99.4693	392.578	97.9146	392.578	99.544	392.578	97.6208	392.578	99.0433	392.578	97.3317	392.578	98.256	392.578	97.0676	392.578	97.4959	392.578	96.867	392.578	96.9916	392.578	96.8059
405.762	101.69	405.762	101.152	405.762	102.099	405.762	100.584	405.762	102.285	405.762	100.057	405.762	102.176	405.762	99.599	405.762	101.736	405.762	99.2125	405.762	100.938	405.762	98.8949	405.762	99.7405	405.762	98.6429	405.762	98.0936	405.762	98.4398	405.762	96.2395	405.762	98.2516	405.762	95.4763	405.762	98.0434	405.762	96.7353	405.762	97.7991	405.762	98.4492	405.762	97.5306	405.762	99.5387	405.762	97.2737	405.762	99.9091	405.762	97.0788	405.762	99.7508	405.762	97.0001	405.762	99.2962	405.762	97.0782	405.762	98.7362	405.762	97.3208	405.762	98.1864	405.762	97.7026
420.41	101.337	420.41	100.733	420.41	101.894	420.41	100.182	420.41	102.297	420.41	99.7233	420.41	102.465	420.41	99.3313	420.41	102.349	420.41	98.9574	420.41	101.909	420.41	98.5872	420.41	101.073	420.41	98.2573	420.41	99.7076	420.41	98.0271	420.41	97.7082	420.41	97.9312	420.41	95.5537	420.41	97.9514	420.41	95.1179	420.41	98.0283	420.41	96.5317	420.41	98.0901	420.41	97.7483	420.41	98.0725	420.41	98.0988	420.41	97.9241	420.41	97.717	420.41	97.6107	420.41	96.9465	420.41	97.1299	420.41	96.2037	420.41	96.5451	420.41	95.8574	420.41	96.031
435.059	101.985	435.059	101.387	435.059	102.54	435.059	100.864	435.059	102.933	435.059	100.46	435.059	103.082	435.059	100.127	435.059	102.949	435.059	99.7841	435.059	102.51	435.059	99.3944	435.059	101.741	435.059	98.9828	435.059	100.628	435.059	98.6082	435.059	99.3356	435.059	98.3229	435.059	98.4641	435.059	98.1531	435.059	98.5336	435.059	98.099	435.059	98.9785	435.059	98.1397	435.059	99.0197	435.059	98.2329	435.059	98.4655	435.059	98.316	435.059	97.5658	435.059	98.315	435.059	96.7759	435.059	98.1593	435.059	96.4851	435.059	97.8064	435.059	96.7433	435.059	97.2828
451.172	101.295	451.172	101.025	451.172	101.946	451.172	101.088	451.172	102.757	451.172	101.228	451.172	103.446	451.172	101.198	451.172	103.82	451.172	100.873	451.172	103.773	451.172	100.25	451.172	103.204	451.172	99.4228	451.172	101.951	451.172	98.5694	451.172	99.8695	451.172	97.91	451.172	97.5543	451.172	97.6221	451.172	97.3838	451.172	97.7301	451.172	99.0489	451.172	98.0916	451.172	100.143	451.172	98.504	451.172	100.152	451.172	98.7981	451.172	99.3234	451.172	98.8616	451.172	98.1592	451.172	98.6376	451.172	97.2807	451.172	98.1422	451.172	97.1003	451.172	97.5207
465.82	102.989	465.82	102.765	465.82	103.203	465.82	102.559	465.82	103.335	465.82	102.345	465.82	103.309	465.82	102.075	465.82	103.094	465.82	101.715	465.82	102.695	465.82	101.255	465.82	102.099	465.82	100.714	465.82	101.262	465.82	100.124	465.82	100.214	465.82	99.5263	465.82	99.2919	465.82	98.97	465.82	99.0768	465.82	98.511	465.82	99.5319	465.82	98.1943	465.82	99.9294	465.82	98.0225	465.82	99.7897	465.82	97.9381	465.82	99.0916	465.82	97.844	465.82	98.1129	465.82	97.653	465.82	97.2784	465.82	97.3459	465.82	96.9163	465.82	97.0223
483.398	102.941	483.398	102.529	483.398	103.45	483.398	102.274	483.398	103.876	483.398	102.056	483.398	104.066	483.398	101.697	483.398	103.956	483.398	101.107	483.398	103.524	483.398	100.329	483.398	102.702	483.398	99.5168	483.398	101.41	483.398	98.8513	483.398	100.004	483.398	98.4485	483.398	99.9071	483.398	98.3273	483.398	101.349	483.398	98.4491	483.398	102.519	483.398	98.7555	483.398	102.545	483.398	99.1668	483.398	101.397	483.398	99.5709	483.398	99.4366	483.398	99.8331	483.398	97.5037	483.398	99.8196	483.398	96.7895	483.398	99.4186	483.398	97.4802	483.398	98.5838
499.512	101.585	499.512	101.996	499.512	101.723	499.512	102.619	499.512	102.312	499.512	103.041	499.512	102.994	499.512	103.017	499.512	103.493	499.512	102.443	499.512	103.584	499.512	101.319	499.512	102.943	499.512	99.7325	499.512	101.074	499.512	97.8595	499.512	97.2539	499.512	96.008	499.512	93.0882	499.512	94.8049	499.512	96.7738	499.512	94.9712	499.512	100.006	499.512	96.2094	499.512	101.02	499.512	97.5993	499.512	100.428	499.512	98.6299	499.512	98.7897	499.512	99.1472	499.512	96.9467	499.512	99.1208	499.512	96.0293	499.512	98.5622	499.512	96.4665	499.512	97.5638
517.09	102.722	517.09	102.973	517.09	102.438	517.09	103.022	517.09	102.335	517.09	102.812	517.09	102.507	517.09	102.389	517.09	102.808	517.09	101.862	517.09	102.941	517.09	101.324	517.09	102.619	517.09	100.792	517.09	101.598	517.09	100.188	517.09	99.5588	517.09	99.3863	517.09	96.0178	517.09	98.2894	517.09	91.8631	517.09	96.9532	517.09	93.1093	517.09	95.8294	517.09	95.4457	517.09	95.7403	517.09	96.0767	517.09	96.7961	517.09	95.9333	517.09	98.1705	517.09	96.1966	517.09	99.2138	517.09	97.2143	517.09	99.6486	517.09	98.4687	517.09	99.3804
536.133	102.112	536.133	102.451	536.133	101.918	536.133	102.636	536.133	102.098	536.133	102.502	536.133	102.555	536.133	102.042	536.133	102.954	536.133	101.356	536.133	102.973	536.133	100.596	536.133	102.429	536.133	99.8823	536.133	101.302	536.133	99.2392	536.133	99.7149	536.133	98.6032	536.133	98.2235	536.133	97.9056	536.133	98.354	536.133	97.1901	536.133	99.7667	536.133	96.7195	536.133	100.399	536.133	96.8294	536.133	99.5195	536.133	97.4589	536.133	97.233	536.133	98.1391	536.133	94.3332	536.133	98.4263	536.133	93.181	536.133	98.0393	536.133	94.8212	536.133	96.8142
555.176	101.941	555.176	102.022	555.176	101.915	555.176	102.004	555.176	102.057	555.176	101.804	555.176	102.3	555.176	101.436	555.176	102.415	555.176	100.971	555.176	102.174	555.176	100.479	555.176	101.456	555.176	99.978	555.176	100.189	555.176	99.4203	555.176	98.2515	555.176	98.7229	555.176	96.8245	555.176	97.7906	555.176	98.5763	555.176	96.5593	555.176	100.505	555.176	95.1585	555.176	100.499	555.176	94.2591	555.176	98.5036	555.176	94.7628	555.176	95.2146	555.176	96.2736	555.176	93.5947	555.176	97.7224	555.176	95.4925	555.176	98.5575	555.176	97.5418	555.176	98.5522
574.219	101.363	574.219	102.157	574.219	100.692	574.219	102.588	574.219	100.821	574.219	102.57	574.219	101.68	574.219	102.244	574.219	102.558	574.219	101.829	574.219	102.945	574.219	101.485	574.219	102.537	574.219	101.21	574.219	101	574.219	100.873	574.219	97.9151	574.219	100.299	574.219	95.4341	574.219	99.3454	574.219	98.2852	574.219	97.968	574.219	99.9845	574.219	96.3308	574.219	98.7932	574.219	94.9566	574.219	95.0061	574.219	94.5855	574.219	89.5798	574.219	95.3326	574.219	89.9763	574.219	96.5388	574.219	94.7298	574.219	97.5779	574.219	97.2723	574.219	97.9943
594.727	102.521	594.727	102.49	594.727	101.958	594.727	101.916	594.727	100.996	594.727	100.951	594.727	100.279	594.727	99.7351	594.727	100.554	594.727	98.3364	594.727	101.477	594.727	96.8947	594.727	102.012	594.727	95.8863	594.727	101.372	594.727	95.753	594.727	98.6623	594.727	96.1667	594.727	91.6218	594.727	96.5398	594.727	86.5693	594.727	96.5149	594.727	92.3253	594.727	95.8943	594.727	92.6619	594.727	94.7141	594.727	93.2786	594.727	93.5875	594.727	94.1484	594.727	93.5925	594.727	94.3685	594.727	94.6095	594.727	95.0551	594.727	95.5934	594.727	95.833	594.727	96.04
615.234	102.433	615.234	102.641	615.234	101.925	615.234	102.482	615.234	101.303	615.234	101.928	615.234	100.919	615.234	100.977	615.234	101.009	615.234	99.6921	615.234	101.299	615.234	98.2484	615.234	101.228	615.234	96.9715	615.234	100.302	615.234	96.2322	615.234	98.0805	615.234	96.1189	615.234	94.2627	615.234	96.2699	615.234	93.299	615.234	96.1728	615.234	97.309	615.234	95.5271	615.234	99.2676	615.234	94.4388	615.234	98.9572	615.234	93.6708	615.234	97.4763	615.234	94.3544	615.234	96.642	615.234	96.163	615.234	97.3392	615.234	97.7956	615.234	98.3294	615.234	98.5696
637.207	101.511	637.207	101.657	637.207	101.233	637.207	101.496	637.207	100.979	637.207	100.928	637.207	100.802	637.207	99.9743	637.207	100.629	637.207	98.7584	637.207	100.312	637.207	97.4272	637.207	99.8075	637.207	96.0531	637.207	99.2497	637.207	94.6695	637.207	98.684	637.207	93.5635	637.207	97.594	637.207	93.3641	637.207	95.0979	637.207	94.063	637.207	93.9408	637.207	94.7588	637.207	96.5181	637.207	94.7253	637.207	96.7807	637.207	93.7272	637.207	93.4679	637.207	92.4427	637.207	88.2813	637.207	92.8751	637.207	91.3938	637.207	94.5593	637.207	94.5263	637.207	95.3884
659.18	102.07	659.18	102.175	659.18	101.587	659.18	101.843	659.18	101.02	659.18	101.154	659.18	100.75	659.18	100.183	659.18	100.797	659.18	98.9458	659.18	100.712	659.18	97.5068	659.18	100.072	659.18	96.1655	659.18	98.8595	659.18	95.382	659.18	97.4654	659.18	95.3195	659.18	96.8231	659.18	95.5165	659.18	97.5164	659.18	95.343	659.18	97.456	659.18	94.6475	659.18	94.901	659.18	93.8583	659.18	88.9578	659.18	93.5337	659.18	85.5801	659.18	93.6187	659.18	92.4163	659.18	93.8414	659.18	95.7864	659.18	94.6052	659.18	96.6743	659.18	95.9287
682.617	101.627	682.617	101.984	682.617	100.779	682.617	101.648	682.617	99.8596	682.617	100.557	682.617	99.5785	682.617	98.8595	682.617	100.15	682.617	96.9631	682.617	100.849	682.617	95.2979	682.617	100.899	682.617	93.8201	682.617	99.5922	682.617	92.3192	682.617	96.2933	682.617	92.1063	682.617	94.5562	682.617	93.9874	682.617	98.6468	682.617	95.5711	682.617	100.013	682.617	95.7143	682.617	97.5759	682.617	94.4588	682.617	93.0343	682.617	92.5268	682.617	92.8046	682.617	92.0801	682.617	94.7577	682.617	93.8862	682.617	95.5863	682.617	95.3817	682.617	95.7587	682.617	95.806
707.52	101.592	707.52	102.09	707.52	101.096	707.52	102.021	707.52	100.925	707.52	101.224	707.52	100.584	707.52	99.959	707.52	99.5576	707.52	98.6724	707.52	98.3695	707.52	97.5844	707.52	98.427	707.52	96.5857	707.52	98.9347	707.52	95.415	707.52	97.9052	707.52	93.5354	707.52	93.0175	707.52	90.2312	707.52	90.1959	707.52	88.5016	707.52	97.1265	707.52	92.3594	707.52	97.7996	707.52	94.5553	707.52	96.0575	707.52	94.048	707.52	94.4829	707.52	91.1987	707.52	93.2199	707.52	88.7375	707.52	93.1564	707.52	91.9797	707.52	94.4137	707.52	94.4238
732.422	101.257	732.422	101.319	732.422	100.651	732.422	100.686	732.422	99.7697	732.422	99.445	732.422	98.9225	732.422	98.0643	732.422	98.2971	732.422	97.1059	732.422	97.9114	732.422	96.6404	732.422	97.6658	732.422	96.4946	732.422	97.2438	732.422	96.4687	732.422	96.1673	732.422	96.1293	732.422	93.8702	732.422	95.0293	732.422	92.3044	732.422	93.3654	732.422	94.4983	732.422	92.5823	732.422	92.8407	732.422	93.2916	732.422	83.8266	732.422	94.0861	732.422	79.7419	732.422	94.0653	732.422	91.3562	732.422	93.1207	732.422	95.1498	732.422	92.2935	732.422	95.3027	732.422	93.5326
757.324	100.123	757.324	100.212	757.324	99.6061	757.324	99.6579	757.324	99.3457	757.324	98.7273	757.324	99.6889	757.324	97.921	757.324	99.9325	757.324	97.4171	757.324	99.3257	757.324	96.9004	757.324	97.8076	757.324	96.1737	757.324	95.8325	757.324	95.3125	757.324	94.0107	757.324	94.1742	757.324	92.2818	757.324	92.3514	757.324	91.2427	757.324	90.235	757.324	93.1477	757.324	90.644	757.324	92.3713	757.324	92.7879	757.324	87.6028	757.324	93.2244	757.324	90.8798	757.324	91.9737	757.324	92.2422	757.324	91.2008	757.324	92.6517	757.324	92.6815	757.324	93.9656	757.324	94.1595
785.156	100.639	785.156	100.435	785.156	99.9986	785.156	99.8045	785.156	98.8271	785.156	98.8808	785.156	98.2849	785.156	97.5227	785.156	98.2906	785.156	95.9203	785.156	97.2266	785.156	94.3187	785.156	94.9104	785.156	93.1065	785.156	93.5363	785.156	92.8998	785.156	93.2131	785.156	92.7626	785.156	91.7254	785.156	89.7793	785.156	86.7293	785.156	74.8237	785.156	94.0434	785.156	85.9893	785.156	98.0469	785.156	88.8586	785.156	98.0391	785.156	93.6336	785.156	96.5423	785.156	96.4821	785.156	96.2935	785.156	94.7222	785.156	94.3537	785.156	88.6757	785.156	86.8283	785.156	81.5286
811.523	98.7103	811.523	99.7919	811.523	99.4506	811.523	100.406	811.523	100.349	811.523	100.258	811.523	100.212	811.523	99.5308	811.523	99.5545	811.523	97.5847	811.523	97.7445	811.523	94.1455	811.523	94.5359	811.523	90.9902	811.523	89.3444	811.523	92.4376	811.523	86.2872	811.523	95.6036	811.523	89.6921	811.523	97.0459	811.523	95.2914	811.523	96.2219	811.523	99.1377	811.523	94.6625	811.523	99.7279	811.523	95.065	811.523	97.1153	811.523	97.4477	811.523	98.0422	811.523	99.0022	811.523	99.1298	811.523	98.8726	811.523	93.7702	811.523	96.1626	811.523	83.9161	811.523	88.018
840.82	100.077	840.82	99.2779	840.82	100.091	840.82	98.6392	840.82	99.078	840.82	98.4778	840.82	98.1369	840.82	98.2045	840.82	98.5729	840.82	97.5305	840.82	99.1506	840.82	96.9708	840.82	97.6881	840.82	96.68	840.82	93.273	840.82	96.0049	840.82	85.8037	840.82	94.9869	840.82	83.4293	840.82	92.7341	840.82	90.0483	840.82	82.2904	840.82	94.0934	840.82	84.6224	840.82	92.6203	840.82	86.7913	840.82	90.903	840.82	92.8308	840.82	95.3393	840.82	95.9265	840.82	96.1336	840.82	93.8664	840.82	92.6887	840.82	89.6818	840.82	86.9158	840.82	84.8904
870.117	103.158	870.117	101.486	870.117	101.493	870.117	97.4352	870.117	96.034	870.117	94.2372	870.117	94.238	870.117	96.5584	870.117	99.3722	870.117	99.6608	870.117	101.434	870.117	101.208	870.117	100.226	870.117	101.278	870.117	96.6348	870.117	100.141	870.117	90.1518	870.117	98.3883	870.117	84.2487	870.117	95.5221	870.117	88.8966	870.117	87.3736	870.117	94.5036	870.117	90.7046	870.117	94.8223	870.117	93.397	870.117	94.2406	870.117	94.8264	870.117	91.4158	870.117	96.591	870.117	95.3449	870.117	93.3307	870.117	97.6345	870.117	82.8363	870.117	94.3083	870.117	84.7881
900.879	101.856	900.879	100.662	900.879	101.833	900.879	99.5471	900.879	100.163	900.879	99.8238	900.879	98.8545	900.879	99.8728	900.879	100.14	900.879	98.509	900.879	100.347	900.879	97.3494	900.879	95.8021	900.879	98.1158	900.879	85.6815	900.879	99.0236	900.879	89.0718	900.879	99.2719	900.879	81.5383	900.879	98.8446	900.879	87.0046	900.879	94.4341	900.879	94.391	900.879	82.7761	900.879	96.2446	900.879	94.1693	900.879	91.956	900.879	91.8022	900.879	83.9799	900.879	92.71	900.879	95.7433	900.879	94.5148	900.879	96.2455	900.879	91.2187	900.879	93.2512	900.879	90.324
933.105	101.093	933.105	100.813	933.105	101.73	933.105	101.092	933.105	102.458	933.105	100.95	933.105	101.768	933.105	98.3789	933.105	100.029	933.105	93.2279	933.105	93.5352	933.105	92.0476	933.105	91.5484	933.105	96.3549	933.105	97.4927	933.105	98.0603	933.105	100.546	933.105	97.9572	933.105	99.7218	933.105	98.1503	933.105	89.9661	933.105	93.8174	933.105	84.678	933.105	89.1408	933.105	83.432	933.105	98.0108	933.105	77.0363	933.105	96.2721	933.105	90.5108	933.105	93.2153	933.105	93.3318	933.105	91.4117	933.105	93.6626	933.105	91.3864	933.105	94.0666	933.105	93.31
965.332	102.052	965.332	101.213	965.332	101.696	965.332	100.886	965.332	100.322	965.332	100.224	965.332	98.6743	965.332	99.6719	965.332	98.0723	965.332	98.8383	965.332	99.7432	965.332	96.7544	965.332	100.465	965.332	93.4044	965.332	98.3874	965.332	90.8691	965.332	98.5779	965.332	93.6749	965.332	99.5193	965.332	96.5867	965.332	97.7488	965.332	96.4221	965.332	98.7402	965.332	96.1035	965.332	93.3024	965.332	98.0722	965.332	93.3246	965.332	96.5661	965.332	93.6866	965.332	90.311	965.332	64.6919	965.332	82.999	965.332	91.5118	965.332	89.216	965.332	94.3934	965.332	94.4733
1,000.49	101.79	1,000.49	100.361	1,000.49	103.721	1,000.49	102.015	1,000.49	102.621	1,000.49	103.341	1,000.49	97.3803	1,000.49	102.334	1,000.49	94.5656	1,000.49	98.7465	1,000.49	100.21	1,000.49	92.1667	1,000.49	103.091	1,000.49	88.6094	1,000.49	102.02	1,000.49	91.0899	1,000.49	100.136	1,000.49	92.867	1,000.49	100.211	1,000.49	96.9811	1,000.49	98.798	1,000.49	98.0999	1,000.49	97.2128	1,000.49	96.4437	1,000.49	95.869	1,000.49	97.4733	1,000.49	98.4985	1,000.49	94.1047	1,000.49	98.6395	1,000.49	88.4996	1,000.49	95.0953	1,000.49	91.4056	1,000.49	88.9728	1,000.49	94.2354	1,000.49	89.6101	1,000.49	94.2408
1,035.64	101.303	1,035.64	98.8008	1,035.64	103.95	1,035.64	100.95	1,035.64	102.429	1,035.64	102.722	1,035.64	98.0267	1,035.64	101.632	1,035.64	100.093	1,035.64	99.7298	1,035.64	102.443	1,035.64	99.2735	1,035.64	99.2704	1,035.64	100.183	1,035.64	88.4116	1,035.64	101.811	1,035.64	90.4094	1,035.64	103.033	1,035.64	92.4823	1,035.64	103.142	1,035.64	84.9717	1,035.64	102.118	1,035.64	87.4686	1,035.64	99.4062	1,035.64	98.7654	1,035.64	92.2166	1,035.64	98.9958	1,035.64	83.9825	1,035.64	96.3585	1,035.64	94.0966	1,035.64	98.696	1,035.64	95.1841	1,035.64	94.1299	1,035.64	93.4735	1,035.64	86.2385	1,035.64	86.3985
1,072.27	101.176	1,072.27	100.885	1,072.27	102.422	1,072.27	102.049	1,072.27	101.772	1,072.27	102.189	1,072.27	98.6236	1,072.27	100.809	1,072.27	99.5722	1,072.27	98.6955	1,072.27	102.338	1,072.27	96.0343	1,072.27	103.539	1,072.27	94.7566	1,072.27	100.41	1,072.27	96.2159	1,072.27	95.7773	1,072.27	96.2854	1,072.27	96.6948	1,072.27	93.7563	1,072.27	99.6028	1,072.27	98.4476	1,072.27	100.629	1,072.27	98.2337	1,072.27	94.9572	1,072.27	94.1826	1,072.27	96.5404	1,072.27	93.235	1,072.27	97.4407	1,072.27	92.3594	1,072.27	92.3612	1,072.27	91.2286	1,072.27	86.3528	1,072.27	89.3389	1,072.27	88.0016	1,072.27	89.3251
1,108.89	103.461	1,108.89	102.312	1,108.89	101.854	1,108.89	99.1166	1,108.89	97.0533	1,108.89	99.3208	1,108.89	101.807	1,108.89	101.702	1,108.89	103.275	1,108.89	104.206	1,108.89	101.732	1,108.89	105.92	1,108.89	93.1759	1,108.89	107.456	1,108.89	103.22	1,108.89	108.678	1,108.89	105.556	1,108.89	109.217	1,108.89	106.626	1,108.89	109.19	1,108.89	105.505	1,108.89	108.301	1,108.89	102.191	1,108.89	105.277	1,108.89	102.126	1,108.89	98.7566	1,108.89	100.833	1,108.89	90.5282	1,108.89	98.9245	1,108.89	88.7417	1,108.89	99.9844	1,108.89	95.1176	1,108.89	96.8639	1,108.89	94.147	1,108.89	87.3744	1,108.89	86.8258
1,148.44	103.281	1,148.44	101.658	1,148.44	102.516	1,148.44	98.8444	1,148.44	99.7762	1,148.44	99.6417	1,148.44	101.158	1,148.44	101.924	1,148.44	101.516	1,148.44	102.28	1,148.44	100.716	1,148.44	99.2453	1,148.44	97.5329	1,148.44	91.5791	1,148.44	84.2104	1,148.44	86.2785	1,148.44	92.8423	1,148.44	96.5006	1,148.44	94.1542	1,148.44	98.55	1,148.44	98.1608	1,148.44	95.5429	1,148.44	99.862	1,148.44	89.842	1,148.44	93.4262	1,148.44	97.7256	1,148.44	100.882	1,148.44	97.5183	1,148.44	99.3768	1,148.44	96.039	1,148.44	90.3757	1,148.44	90.4612	1,148.44	88.4497	1,148.44	90.3246	1,148.44	92.3997	1,148.44	92.9622
1,189.45	102.103	1,189.45	101.85	1,189.45	103.124	1,189.45	102.084	1,189.45	101.761	1,189.45	101.653	1,189.45	96.6564	1,189.45	100.682	1,189.45	101.303	1,189.45	96.5748	1,189.45	103.905	1,189.45	88.9637	1,189.45	100.547	1,189.45	93.9464	1,189.45	89.4954	1,189.45	92.9199	1,189.45	94.9407	1,189.45	84.1822	1,189.45	94.3584	1,189.45	95.3265	1,189.45	90.3255	1,189.45	100.554	1,189.45	94.0653	1,189.45	100.914	1,189.45	94.8674	1,189.45	94.3832	1,189.45	90.5786	1,189.45	89.4448	1,189.45	93.1284	1,189.45	97.0957	1,189.45	92.1327	1,189.45	97.1044	1,189.45	98.0913	1,189.45	92.5782	1,189.45	95.162	1,189.45	83.2124
1,230.47	101.467	1,230.47	102.339	1,230.47	102.458	1,230.47	102.078	1,230.47	103.091	1,230.47	99.6345	1,230.47	99.7909	1,230.47	96.6391	1,230.47	97.0279	1,230.47	95.846	1,230.47	98.1735	1,230.47	95.7535	1,230.47	97.6294	1,230.47	94.0874	1,230.47	85.3108	1,230.47	92.9804	1,230.47	95.5991	1,230.47	91.1837	1,230.47	98.5383	1,230.47	94.1929	1,230.47	99.1438	1,230.47	98.5276	1,230.47	97.3766	1,230.47	99.842	1,230.47	95.0781	1,230.47	99.1584	1,230.47	86.9574	1,230.47	93.7071	1,230.47	93.8787	1,230.47	85.2787	1,230.47	93.3238	1,230.47	90.2891	1,230.47	88.7895	1,230.47	92.6257	1,230.47	79.4274	1,230.47	91.1942
1,274.41	100.18	1,274.41	103.076	1,274.41	100.129	1,274.41	101.91	1,274.41	103.875	1,274.41	98.1056	1,274.41	99.0254	1,274.41	93.0976	1,274.41	97.3648	1,274.41	101.498	1,274.41	104.433	1,274.41	105.415	1,274.41	105.864	1,274.41	107.723	1,274.41	102.717	1,274.41	108.148	1,274.41	103.606	1,274.41	108.102	1,274.41	104.743	1,274.41	107.409	1,274.41	105.215	1,274.41	105.095	1,274.41	105.029	1,274.41	102.4	1,274.41	100.522	1,274.41	96.3155	1,274.41	95.7076	1,274.41	71.6208	1,274.41	92.0623	1,274.41	90.0208	1,274.41	92.4353	1,274.41	94.7644	1,274.41	94.2597	1,274.41	92.6712	1,274.41	87.1188	1,274.41	82.3959
1,319.82	102.376	1,319.82	99.5156	1,319.82	101.556	1,319.82	99.103	1,319.82	97.5928	1,319.82	101.329	1,319.82	101.556	1,319.82	100.53	1,319.82	103.457	1,319.82	93.0628	1,319.82	99.5587	1,319.82	98.5227	1,319.82	97.2382	1,319.82	104.518	1,319.82	104.757	1,319.82	106.767	1,319.82	106.759	1,319.82	106.665	1,319.82	105.555	1,319.82	104.504	1,319.82	104.131	1,319.82	100.533	1,319.82	101.152	1,319.82	97.7359	1,319.82	97.0175	1,319.82	96.2279	1,319.82	99.0422	1,319.82	100.244	1,319.82	101.109	1,319.82	96.715	1,319.82	98.426	1,319.82	86.3307	1,319.82	88.0645	1,319.82	88.6332	1,319.82	93.4612	1,319.82	94.784
1,366.7	99.9678	1,366.7	101.596	1,366.7	97.6845	1,366.7	98.2675	1,366.7	101.054	1,366.7	93.545	1,366.7	99.7864	1,366.7	98.7373	1,366.7	88.4883	1,366.7	101.845	1,366.7	102.029	1,366.7	103.666	1,366.7	104.695	1,366.7	105.792	1,366.7	101.651	1,366.7	107.12	1,366.7	102.634	1,366.7	107.52	1,366.7	103.174	1,366.7	106.983	1,366.7	102.273	1,366.7	105.432	1,366.7	102.658	1,366.7	101.504	1,366.7	100.125	1,366.7	89.7575	1,366.7	98.0506	1,366.7	87.8102	1,366.7	96.9425	1,366.7	94.3442	1,366.7	85.0767	1,366.7	95.1145	1,366.7	84.9911	1,366.7	88.8599	1,366.7	89.4267	1,366.7	80.3555
1,413.57	98.9845	1,413.57	99.718	1,413.57	101.503	1,413.57	100.939	1,413.57	100.093	1,413.57	98.7871	1,413.57	89.6714	1,413.57	84.67	1,413.57	103.384	1,413.57	101.343	1,413.57	101.036	1,413.57	105.722	1,413.57	99.2153	1,413.57	108.009	1,413.57	103.828	1,413.57	109.028	1,413.57	106.047	1,413.57	108.911	1,413.57	105.46	1,413.57	107.148	1,413.57	102.967	1,413.57	102.602	1,413.57	97.1368	1,413.57	94.4764	1,413.57	98.0198	1,413.57	90.124	1,413.57	97.9627	1,413.57	96.1167	1,413.57	97.8519	1,413.57	90.2673	1,413.57	95.5472	1,413.57	81.3593	1,413.57	90.8323	1,413.57	83.8966	1,413.57	84.411	1,413.57	90.0467
1,463.38	103.009	1,463.38	100.217	1,463.38	100.434	1,463.38	97.6295	1,463.38	98.5297	1,463.38	100.056	1,463.38	98.8424	1,463.38	96.9931	1,463.38	95.8129	1,463.38	91.2618	1,463.38	88.8511	1,463.38	98.529	1,463.38	87.8913	1,463.38	102.546	1,463.38	101.749	1,463.38	103.706	1,463.38	103.424	1,463.38	102.805	1,463.38	100.266	1,463.38	100.281	1,463.38	95.283	1,463.38	98.4478	1,463.38	64.8735	1,463.38	95.8214	1,463.38	77.7923	1,463.38	89.5764	1,463.38	91.4277	1,463.38	89.767	1,463.38	92.0171	1,463.38	90.0551	1,463.38	88.8454	1,463.38	90.6013	1,463.38	83.8896	1,463.38	89.9678	1,463.38	72.8806	1,463.38	88.4699
1,516.11	102.524	1,516.11	99.2453	1,516.11	102.545	1,516.11	101.184	1,516.11	93.7676	1,516.11	99.5958	1,516.11	99.1876	1,516.11	91.2416	1,516.11	94.5653	1,516.11	87.804	1,516.11	96.5109	1,516.11	97.7281	1,516.11	101.999	1,516.11	100.887	1,516.11	102.525	1,516.11	103.698	1,516.11	96.4169	1,516.11	103.291	1,516.11	97.257	1,516.11	102.345	1,516.11	99.7503	1,516.11	99.7542	1,516.11	95.7836	1,516.11	78.0351	1,516.11	92.3492	1,516.11	91.7322	1,516.11	93.5347	1,516.11	93.7264	1,516.11	84.7468	1,516.11	92.3907	1,516.11	86.5927	1,516.11	93.2836	1,516.11	91.2375	1,516.11	91.5868	1,516.11	86.5522	1,516.11	63.6355
1,568.85	100.717	1,568.85	100.718	1,568.85	100.466	1,568.85	100.009	1,568.85	97.1636	1,568.85	93.4397	1,568.85	95.2385	1,568.85	86.7564	1,568.85	98.6877	1,568.85	96.5621	1,568.85	85.1016	1,568.85	98.5836	1,568.85	94.794	1,568.85	98.7427	1,568.85	98.9269	1,568.85	96.1413	1,568.85	98.5683	1,568.85	95.3652	1,568.85	95.7025	1,568.85	98.0359	1,568.85	88.4653	1,568.85	96.9227	1,568.85	83.8379	1,568.85	89.0767	1,568.85	87.2728	1,568.85	89.281	1,568.85	82.5046	1,568.85	89.8843	1,568.85	89.167	1,568.85	92.4068	1,568.85	86.1503	1,568.85	93.0956	1,568.85	79.8134	1,568.85	88.9697	1,568.85	83.7121	1,568.85	86.9289
1,624.51	99.0439	1,624.51	101.094	1,624.51	99.6006	1,624.51	98.7032	1,624.51	98.822	1,624.51	91.359	1,624.51	92.3814	1,624.51	95.8218	1,624.51	99.2206	1,624.51	97.5878	1,624.51	92.774	1,624.51	91.2815	1,624.51	84.1326	1,624.51	81.6139	1,624.51	95.6754	1,624.51	90.7256	1,624.51	96.9263	1,624.51	85.0076	1,624.51	93.3525	1,624.51	80.5331	1,624.51	78.6365	1,624.51	94.8716	1,624.51	92.5348	1,624.51	94.7911	1,624.51	93.2177	1,624.51	97.6081	1,624.51	95.6153	1,624.51	93.1748	1,624.51	96.3295	1,624.51	76.6807	1,624.51	93.0944	1,624.51	90.817	1,624.51	89.0636	1,624.51	93.1222	1,624.51	88.7387	1,624.51	85.2911
1,681.64	99.7862	1,681.64	99.8957	1,681.64	98.5752	1,681.64	97.7811	1,681.64	96.5734	1,681.64	94.8934	1,681.64	95.4823	1,681.64	92.8244	1,681.64	96.2221	1,681.64	92.9269	1,681.64	96.6224	1,681.64	92.5266	1,681.64	94.7998	1,681.64	94.0374	1,681.64	96.5065	1,681.64	94.2859	1,681.64	89.9953	1,681.64	96.6531	1,681.64	90.7344	1,681.64	95.4822	1,681.64	83.5864	1,681.64	92.8499	1,681.64	69.0915	1,681.64	93.6539	1,681.64	78.2814	1,681.64	91.5671	1,681.64	82.232	1,681.64	91.6666	1,681.64	82.4875	1,681.64	92.0134	1,681.64	85.6146	1,681.64	91.6949	1,681.64	82.2908	1,681.64	90.7482	1,681.64	77.1688	1,681.64	86.635
1,741.7	101.063	1,741.7	99.6722	1,741.7	99.2222	1,741.7	95.9738	1,741.7	96.4991	1,741.7	90.4912	1,741.7	94.0489	1,741.7	88.1706	1,741.7	96.8686	1,741.7	91.5651	1,741.7	96.2039	1,741.7	93.4855	1,741.7	96.7931	1,741.7	94.3343	1,741.7	93.1692	1,741.7	96.133	1,741.7	98.2992	1,741.7	94.3566	1,741.7	95.2908	1,741.7	91.4603	1,741.7	87.9829	1,741.7	92.8524	1,741.7	83.0212	1,741.7	91.6032	1,741.7	72.5486	1,741.7	91.681	1,741.7	86.6366	1,741.7	89.7691	1,741.7	84.8585	1,741.7	88.8095	1,741.7	82.1774	1,741.7	86.0292	1,741.7	70.1967	1,741.7	85.8771	1,741.7	79.6425	1,741.7	85.5394
1,803.22	101.111	1,803.22	101.175	1,803.22	99.443	1,803.22	97.0621	1,803.22	96.4096	1,803.22	87.8798	1,803.22	93.9663	1,803.22	88.3916	1,803.22	95.978	1,803.22	91.6768	1,803.22	98.2986	1,803.22	93.3631	1,803.22	96.3356	1,803.22	94.1948	1,803.22	96.6394	1,803.22	91.6079	1,803.22	88.4187	1,803.22	91.9122	1,803.22	89.3801	1,803.22	93.1318	1,803.22	86.3739	1,803.22	91.9111	1,803.22	80.1795	1,803.22	92.7758	1,803.22	80.0269	1,803.22	92.3054	1,803.22	86.2798	1,803.22	91.6763	1,803.22	84.285	1,803.22	89.4074	1,803.22	78.0075	1,803.22	89.4504	1,803.22	68.8891	1,803.22	89.177	1,803.22	82.4865	1,803.22	85.4447
1,866.21	100.769	1,866.21	100.277	1,866.21	98.8993	1,866.21	96.13	1,866.21	93.9288	1,866.21	86.1126	1,866.21	91.7262	1,866.21	88.3193	1,866.21	96.9585	1,866.21	90.934	1,866.21	97.6654	1,866.21	94.451	1,866.21	98.5988	1,866.21	94.3747	1,866.21	92.5967	1,866.21	96.5577	1,866.21	97.7825	1,866.21	97.7696	1,866.21	94.7117	1,866.21	95.1277	1,866.21	90.8445	1,866.21	94.8404	1,866.21	82.0315	1,866.21	93.2856	1,866.21	78.3999	1,866.21	93.2661	1,866.21	87.7434	1,866.21	92.8349	1,866.21	83.1663	1,866.21	93.3913	1,866.21	79.6638	1,866.21	91.6489	1,866.21	71.4641	1,866.21	89.8938	1,866.21	84.8215	1,866.21	88.1256
1,932.13	100.473	1,932.13	99.6058	1,932.13	97.8479	1,932.13	95.0438	1,932.13	92.5089	1,932.13	79.2671	1,932.13	89.0379	1,932.13	85.5656	1,932.13	96.7353	1,932.13	93.805	1,932.13	98.5298	1,932.13	95.0803	1,932.13	95.2045	1,932.13	95.6723	1,932.13	97.5136	1,932.13	94.6456	1,932.13	89.6631	1,932.13	91.9785	1,932.13	86.9601	1,932.13	94.9238	1,932.13	89.0706	1,932.13	95.1467	1,932.13	70.6062	1,932.13	95.2745	1,932.13	85.0524	1,932.13	92.9946	1,932.13	83.351	1,932.13	91.6823	1,932.13	85.5467	1,932.13	89.3836	1,932.13	76.4967	1,932.13	89.3667	1,932.13	72.4655	1,932.13	86.6716	1,932.13	82.5178	1,932.13	83.9032
1,999.51	100.737	1,999.51	99.705	1,999.51	97.8847	1,999.51	94.8249	1,999.51	90.0321	1,999.51	86.8459	1,999.51	88.4083	1,999.51	88.5206	1,999.51	96.3886	1,999.51	93.6191	1,999.51	97.4156	1,999.51	93.611	1,999.51	97.3457	1,999.51	94.5398	1,999.51	89.8629	1,999.51	96.6239	1,999.51	96.9711	1,999.51	99.0706	1,999.51	93.1947	1,999.51	97.2006	1,999.51	89.4691	1,999.51	95.958	1,999.51	81.1875	1,999.51	94.6046	1,999.51	76.2883	1,999.51	94.9844	1,999.51	85.8017	1,999.51	93.5421	1,999.51	79.0605	1,999.51	92.5041	1,999.51	82.3284	1,999.51	89.7891	1,999.51	76.0534	1,999.51	89.7002	1,999.51	81.5947	1,999.51	86.8158
2,069.82	101.52	2,069.82	99.7874	2,069.82	99.0381	2,069.82	92.9171	2,069.82	88.2413	2,069.82	83.195	2,069.82	89.355	2,069.82	91.3413	2,069.82	96.1845	2,069.82	93.4536	2,069.82	98.6045	2,069.82	96.5503	2,069.82	94.1195	2,069.82	98.6744	2,069.82	94.9577	2,069.82	99.5118	2,069.82	82.7157	2,069.82	97.0351	2,069.82	89.965	2,069.82	95.9739	2,069.82	87.0554	2,069.82	95.4656	2,069.82	76.8942	2,069.82	95.047	2,069.82	80.1005	2,069.82	93.1115	2,069.82	80.9377	2,069.82	92.4177	2,069.82	85.54	2,069.82	91.9817	2,069.82	77.135	2,069.82	91.4854	2,069.82	74.5313	2,069.82	89.4392	2,069.82	82.8714	2,069.82	87.335
2,143.07	100.548	2,143.07	100.423	2,143.07	97.1775	2,143.07	95.0097	2,143.07	90.3531	2,143.07	80.3246	2,143.07	87.6095	2,143.07	90.6784	2,143.07	96.8895	2,143.07	95.4972	2,143.07	96.6455	2,143.07	96.6397	2,143.07	95.7102	2,143.07	95.843	2,143.07	88.0528	2,143.07	93.524	2,143.07	94.3262	2,143.07	96.5833	2,143.07	91.6062	2,143.07	96.4358	2,143.07	89.8535	2,143.07	95.4424	2,143.07	71.0854	2,143.07	94.2962	2,143.07	66.8822	2,143.07	94.3904	2,143.07	84.5867	2,143.07	92.3328	2,143.07	85.1984	2,143.07	87.2608	2,143.07	79.5242	2,143.07	87.1173	2,143.07	78.7994	2,143.07	85.8778	2,143.07	85.6207	2,143.07	87.1328
2,219.24	99.7884	2,219.24	98.4033	2,219.24	96.4539	2,219.24	92.9137	2,219.24	88.0877	2,219.24	80.3657	2,219.24	93.928	2,219.24	93.9959	2,219.24	96.1656	2,219.24	96.0573	2,219.24	97.4261	2,219.24	97.2753	2,219.24	92.9021	2,219.24	97.8353	2,219.24	91.5718	2,219.24	99.8776	2,219.24	81.8163	2,219.24	98.8232	2,219.24	92.1134	2,219.24	96.7906	2,219.24	85.7836	2,219.24	95.6938	2,219.24	77.9816	2,219.24	94.5423	2,219.24	83.6933	2,219.24	92.7398	2,219.24	85.2514	2,219.24	93.2099	2,219.24	78.8054	2,219.24	92.4545	2,219.24	83.4253	2,219.24	89.9157	2,219.24	79.9956	2,219.24	89.3852	2,219.24	84.0053	2,219.24	84.7596
2,296.88	100.275	2,296.88	99.0845	2,296.88	95.7878	2,296.88	92.0193	2,296.88	87.088	2,296.88	85.3291	2,296.88	94.6993	2,296.88	94.0748	2,296.88	96.5765	2,296.88	97.176	2,296.88	95.0828	2,296.88	96.8835	2,296.88	93.7389	2,296.88	97.6612	2,296.88	89.6173	2,296.88	93.5635	2,296.88	92.5116	2,296.88	94.0489	2,296.88	88.8312	2,296.88	94.3813	2,296.88	88.0605	2,296.88	94.466	2,296.88	73.7378	2,296.88	94.4752	2,296.88	76.9857	2,296.88	93.6532	2,296.88	84.9711	2,296.88	89.8736	2,296.88	87.7485	2,296.88	87.4158	2,296.88	65.4799	2,296.88	86.0731	2,296.88	79.5005	2,296.88	83.6155	2,296.88	82.1469	2,296.88	84.9924
2,378.91	99.6287	2,378.91	99.665	2,378.91	96.1389	2,378.91	92.4459	2,378.91	91.6016	2,378.91	87.3933	2,378.91	96.3679	2,378.91	94.6051	2,378.91	96.4555	2,378.91	95.876	2,378.91	94.4686	2,378.91	97.0853	2,378.91	92.1185	2,378.91	95.6807	2,378.91	89.9974	2,378.91	98.5602	2,378.91	87.4029	2,378.91	98.9117	2,378.91	92.4244	2,378.91	97.0445	2,378.91	88.1609	2,378.91	95.9136	2,378.91	81.8512	2,378.91	94.1913	2,378.91	76.037	2,378.91	93.9667	2,378.91	85.4272	2,378.91	94.066	2,378.91	85.7596	2,378.91	89.7599	2,378.91	85.5638	2,378.91	88.2599	2,378.91	84.1595	2,378.91	86.9137	2,378.91	83.2832	2,378.91	85.2565
2,462.4	99.9813	2,462.4	99.3182	2,462.4	93.8632	2,462.4	91.9039	2,462.4	92.6856	2,462.4	91.0958	2,462.4	97.2937	2,462.4	95.384	2,462.4	96.6711	2,462.4	96.7418	2,462.4	92.8085	2,462.4	96.5393	2,462.4	90.0253	2,462.4	98.4925	2,462.4	92.219	2,462.4	94.971	2,462.4	90.2868	2,462.4	94.6156	2,462.4	67.3323	2,462.4	93.9635	2,462.4	82.9395	2,462.4	94.8118	2,462.4	65.5657	2,462.4	94.7046	2,462.4	78.5726	2,462.4	92.8752	2,462.4	82.5912	2,462.4	90.1367	2,462.4	84.5923	2,462.4	89.6229	2,462.4	81.8314	2,462.4	84.9702	2,462.4	80.2745	2,462.4	81.0296	2,462.4	85.2682	2,462.4	84.3545
2,548.83	99.811	2,548.83	98.9359	2,548.83	94.384	2,548.83	90.112	2,548.83	93.7218	2,548.83	89.5981	2,548.83	97.9979	2,548.83	95.4702	2,548.83	96.8713	2,548.83	95.5396	2,548.83	89.1775	2,548.83	98.2079	2,548.83	91.1176	2,548.83	96.9867	2,548.83	89.4256	2,548.83	99.0989	2,548.83	92.1268	2,548.83	97.4495	2,548.83	91.6393	2,548.83	95.7169	2,548.83	84.1049	2,548.83	94.3296	2,548.83	71.0188	2,548.83	92.803	2,548.83	79.1186	2,548.83	92.4618	2,548.83	87.3151	2,548.83	91.6331	2,548.83	87.8562	2,548.83	87.0391	2,548.83	79.897	2,548.83	83.2068	2,548.83	84.0827	2,548.83	81.8404	2,548.83	85.606	2,548.83	84.7789
2,639.65	100.019	2,639.65	98.3511	2,639.65	95.186	2,639.65	88.3997	2,639.65	93.9635	2,639.65	93.077	2,639.65	99.1546	2,639.65	95.4089	2,639.65	96.9487	2,639.65	98.1939	2,639.65	88.881	2,639.65	98.3693	2,639.65	87.6274	2,639.65	98.8266	2,639.65	91.4851	2,639.65	92.8784	2,639.65	85.2189	2,639.65	92.0294	2,639.65	88.7169	2,639.65	90.4735	2,639.65	80.8204	2,639.65	91.5685	2,639.65	73.0284	2,639.65	92.5589	2,639.65	65.2097	2,639.65	92.2962	2,639.65	86.3124	2,639.65	89.8206	2,639.65	84.5023	2,639.65	86.317	2,639.65	82.0573	2,639.65	83.3585	2,639.65	82.7859	2,639.65	75.6312	2,639.65	87.2806	2,639.65	81.1022
2,731.93	98.9956	2,731.93	97.3359	2,731.93	94.1259	2,731.93	89.3012	2,731.93	95.4724	2,731.93	92.5846	2,731.93	99.063	2,731.93	97.2748	2,731.93	97.5665	2,731.93	98.917	2,731.93	86.9866	2,731.93	98.957	2,731.93	88.5575	2,731.93	96.3037	2,731.93	91.7858	2,731.93	94.9399	2,731.93	90.1906	2,731.93	90.0762	2,731.93	85.13	2,731.93	92.5954	2,731.93	68.2157	2,731.93	94.9994	2,731.93	68.136	2,731.93	95.0874	2,731.93	75.3768	2,731.93	94.6759	2,731.93	83.1893	2,731.93	92.7367	2,731.93	88.4308	2,731.93	89.0193	2,731.93	80.9544	2,731.93	81.8795	2,731.93	86.7908	2,731.93	81.3993	2,731.93	85.5298	2,731.93	82.9167
2,828.61	99.4997	2,828.61	96.5949	2,828.61	95.3132	2,828.61	90.8377	2,828.61	95.8966	2,828.61	95.2101	2,828.61	100.084	2,828.61	97.9564	2,828.61	98.1922	2,828.61	99.5731	2,828.61	88.9755	2,828.61	97.6655	2,828.61	87.8665	2,828.61	93.955	2,828.61	92.3419	2,828.61	77.277	2,828.61	92.1852	2,828.61	93.135	2,828.61	89.7035	2,828.61	95.2999	2,828.61	69.1281	2,828.61	96.2752	2,828.61	73.2319	2,828.61	97.3553	2,828.61	73.8135	2,828.61	96.8354	2,828.61	83.0654	2,828.61	94.3794	2,828.61	87.9511	2,828.61	91.1795	2,828.61	85.2127	2,828.61	88.0444	2,828.61	87.0016	2,828.61	82.7678	2,828.61	87.4577	2,828.61	83.6764
2,928.22	98.2898	2,928.22	95.987	2,928.22	94.9096	2,928.22	93.0593	2,928.22	96.9445	2,928.22	96.1935	2,928.22	100.537	2,928.22	99.0019	2,928.22	98.6566	2,928.22	98.9928	2,928.22	90.7611	2,928.22	94.997	2,928.22	88.9015	2,928.22	77.8063	2,928.22	91.5236	2,928.22	90.3707	2,928.22	87.7945	2,928.22	91.2694	2,928.22	87.4663	2,928.22	96.3341	2,928.22	79.102	2,928.22	98.4845	2,928.22	74.5112	2,928.22	98.3673	2,928.22	76.2632	2,928.22	97.5101	2,928.22	86.6881	2,928.22	96.3847	2,928.22	89.009	2,928.22	93.1486	2,928.22	89.0529	2,928.22	86.764	2,928.22	87.9747	2,928.22	79.8146	2,928.22	89.0088	2,928.22	79.0435
3,030.76	98.095	3,030.76	95.8322	3,030.76	95.4416	3,030.76	94.091	3,030.76	96.9549	3,030.76	97.2969	3,030.76	100.917	3,030.76	98.8354	3,030.76	99.2143	3,030.76	97.2153	3,030.76	89.632	3,030.76	87.8111	3,030.76	89.0003	3,030.76	88.7763	3,030.76	93.1114	3,030.76	96.7733	3,030.76	88.4711	3,030.76	98.8624	3,030.76	85.9264	3,030.76	98.95	3,030.76	76.5359	3,030.76	98.8964	3,030.76	74.976	3,030.76	98.6937	3,030.76	78.3401	3,030.76	97.8846	3,030.76	89.1867	3,030.76	95.4702	3,030.76	89.3722	3,030.76	91.706	3,030.76	89.7567	3,030.76	86.8242	3,030.76	90.0569	3,030.76	86.8262	3,030.76	85.3447	3,030.76	87.3637
3,137.7	99.0071	3,137.7	97.4697	3,137.7	96.5238	3,137.7	96.6239	3,137.7	96.9586	3,137.7	97.2706	3,137.7	100.511	3,137.7	98.5952	3,137.7	98.9274	3,137.7	95.1342	3,137.7	93.4359	3,137.7	89.292	3,137.7	92.324	3,137.7	95.9118	3,137.7	94.725	3,137.7	94.9392	3,137.7	89.8346	3,137.7	98.2862	3,137.7	87.5435	3,137.7	97.0124	3,137.7	82.802	3,137.7	96.531	3,137.7	83.9586	3,137.7	97.3891	3,137.7	74.0038	3,137.7	96.6089	3,137.7	83.4741	3,137.7	94.8457	3,137.7	90.4951	3,137.7	92.1831	3,137.7	90.2909	3,137.7	87.6589	3,137.7	90.2325	3,137.7	83.6577	3,137.7	88.3908	3,137.7	85.6747
3,249.02	98.1564	3,249.02	97.5398	3,249.02	96.4989	3,249.02	96.6352	3,249.02	97.3727	3,249.02	98.0439	3,249.02	100.195	3,249.02	98.2567	3,249.02	98.6877	3,249.02	94.4	3,249.02	94.101	3,249.02	95.2551	3,249.02	94.7654	3,249.02	96.3178	3,249.02	95.4686	3,249.02	99.1032	3,249.02	92.6101	3,249.02	94.2905	3,249.02	90.5963	3,249.02	96.0191	3,249.02	79.7156	3,249.02	97.4629	3,249.02	80.6983	3,249.02	97.1949	3,249.02	70.0044	3,249.02	95.6699	3,249.02	83.5154	3,249.02	94.027	3,249.02	91.6109	3,249.02	89.4134	3,249.02	89.316	3,249.02	83.3787	3,249.02	88.6417	3,249.02	84.577	3,249.02	90.826	3,249.02	85.4055
3,363.28	97.4136	3,363.28	98.6543	3,363.28	97.3384	3,363.28	95.844	3,363.28	97.959	3,363.28	97.8541	3,363.28	100.199	3,363.28	97.8587	3,363.28	98.6733	3,363.28	94.7714	3,363.28	96.1762	3,363.28	96.2574	3,363.28	97.1771	3,363.28	97.6927	3,363.28	97.5978	3,363.28	96.402	3,363.28	92.8682	3,363.28	96.9461	3,363.28	92.541	3,363.28	96.2769	3,363.28	82.6747	3,363.28	96.4701	3,363.28	80.3647	3,363.28	96.3916	3,363.28	70.7496	3,363.28	95.9936	3,363.28	83.6594	3,363.28	94.0132	3,363.28	90.2829	3,363.28	90.4277	3,363.28	90.3438	3,363.28	85.9601	3,363.28	90.2448	3,363.28	87.5735	3,363.28	89.9826	3,363.28	89.7562
3,481.93	98.7696	3,481.93	99.4039	3,481.93	98.3467	3,481.93	96.5195	3,481.93	99.1292	3,481.93	98.909	3,481.93	99.6953	3,481.93	96.4729	3,481.93	98.3847	3,481.93	94.9401	3,481.93	94.1245	3,481.93	96.5692	3,481.93	96.9533	3,481.93	96.077	3,481.93	98.0756	3,481.93	91.1626	3,481.93	94.9705	3,481.93	96.2163	3,481.93	93.373	3,481.93	95.7616	3,481.93	67.4643	3,481.93	96.3006	3,481.93	82.4452	3,481.93	97.3524	3,481.93	81.5337	3,481.93	96.9129	3,481.93	85.2154	3,481.93	93.8185	3,481.93	88.933	3,481.93	89.5674	3,481.93	91.7612	3,481.93	84.2442	3,481.93	91.4689	3,481.93	81.1642	3,481.93	89.759	3,481.93	87.8752
3,604.98	98.4422	3,604.98	98.629	3,604.98	97.6806	3,604.98	97.5303	3,604.98	99.9519	3,604.98	98.3765	3,604.98	99.9843	3,604.98	96.2435	3,604.98	97.5161	3,604.98	95.9	3,604.98	92.908	3,604.98	96.2235	3,604.98	96.0917	3,604.98	95.1919	3,604.98	97.4178	3,604.98	96.3671	3,604.98	92.9962	3,604.98	95.0583	3,604.98	87.0883	3,604.98	95.5707	3,604.98	77.1558	3,604.98	96.683	3,604.98	69.3141	3,604.98	96.7535	3,604.98	83.7858	3,604.98	95.6604	3,604.98	84.2926	3,604.98	93.6546	3,604.98	86.606	3,604.98	89.8155	3,604.98	90.8521	3,604.98	84.6695	3,604.98	89.8872	3,604.98	84.9204	3,604.98	88.8132	3,604.98	88.4654
3,732.42	98.9409	3,732.42	98.8807	3,732.42	96.098	3,732.42	97.709	3,732.42	99.4668	3,732.42	97.2372	3,732.42	100.558	3,732.42	95.085	3,732.42	99.3867	3,732.42	95.7715	3,732.42	95.6392	3,732.42	96.1193	3,732.42	95.7173	3,732.42	96.3516	3,732.42	95.6821	3,732.42	97.6114	3,732.42	93.0547	3,732.42	94.51	3,732.42	83.8638	3,732.42	94.5381	3,732.42	79.2767	3,732.42	95.4695	3,732.42	74.8761	3,732.42	95.296	3,732.42	83.0601	3,732.42	94.5622	3,732.42	82.4566	3,732.42	91.9181	3,732.42	84.506	3,732.42	85.9737	3,732.42	91.6413	3,732.42	76.353	3,732.42	90.0598	3,732.42	85.6945	3,732.42	89.5457	3,732.42	89.9488
3,864.26	99.38	3,864.26	99.3778	3,864.26	96.8178	3,864.26	97.8448	3,864.26	99.1866	3,864.26	96.3022	3,864.26	99.5168	3,864.26	95.06	3,864.26	99.375	3,864.26	95.3391	3,864.26	97.6288	3,864.26	96.5821	3,864.26	95.5717	3,864.26	96.5718	3,864.26	95.0451	3,864.26	94.9493	3,864.26	90.095	3,864.26	93.9838	3,864.26	75.0206	3,864.26	93.7535	3,864.26	76.8766	3,864.26	95.0644	3,864.26	75.1608	3,864.26	95.394	3,864.26	66.6187	3,864.26	94.2542	3,864.26	87.9524	3,864.26	91.3342	3,864.26	85.2481	3,864.26	86.3878	3,864.26	89.9287	3,864.26	75.8245	3,864.26	91.0074	3,864.26	87.8732	3,864.26	90.4607	3,864.26	89.244
4,000.49	99.942	4,000.49	98.2356	4,000.49	97.0528	4,000.49	97.5676	4,000.49	99.385	4,000.49	95.8664	4,000.49	99.3665	4,000.49	96.1499	4,000.49	99.3097	4,000.49	94.9906	4,000.49	97.8983	4,000.49	96.4808	4,000.49	95.2051	4,000.49	95.7863	4,000.49	92.5016	4,000.49	92.7107	4,000.49	90.3466	4,000.49	94.7966	4,000.49	82.3742	4,000.49	95.0431	4,000.49	78.0128	4,000.49	94.9294	4,000.49	77.1466	4,000.49	95.1979	4,000.49	71.5505	4,000.49	94.9253	4,000.49	88.9365	4,000.49	92.1082	4,000.49	87.394	4,000.49	85.0507	4,000.49	88.9318	4,000.49	81.6391	4,000.49	91.0241	4,000.49	83.8145	4,000.49	91.036	4,000.49	87.9987
4,141.11	99.6644	4,141.11	98.6436	4,141.11	98.1819	4,141.11	97.5405	4,141.11	99.1438	4,141.11	96.0594	4,141.11	99.6606	4,141.11	95.8915	4,141.11	99.9174	4,141.11	95.3606	4,141.11	98.0575	4,141.11	96.1008	4,141.11	94.9325	4,141.11	94.7782	4,141.11	89.3737	4,141.11	94.6672	4,141.11	91.1909	4,141.11	95.7448	4,141.11	85.0861	4,141.11	94.8	4,141.11	77.6301	4,141.11	94.6771	4,141.11	77.0286	4,141.11	94.8592	4,141.11	64.1708	4,141.11	93.7692	4,141.11	87.9995	4,141.11	90.8105	4,141.11	84.6334	4,141.11	83.908	4,141.11	89.215	4,141.11	81.3705	4,141.11	89.8169	4,141.11	87.8155	4,141.11	90.5741	4,141.11	89.1582
4,287.6	99.9635	4,287.6	98.3501	4,287.6	98.9559	4,287.6	96.7699	4,287.6	99.6883	4,287.6	97.6118	4,287.6	99.1462	4,287.6	94.0941	4,287.6	99.6192	4,287.6	95.4643	4,287.6	99.1135	4,287.6	96.1779	4,287.6	95.2376	4,287.6	95.7247	4,287.6	86.8064	4,287.6	96.4509	4,287.6	93.1977	4,287.6	95.4488	4,287.6	87.8399	4,287.6	94.2299	4,287.6	82.7642	4,287.6	93.4307	4,287.6	80.2233	4,287.6	93.6148	4,287.6	72.0292	4,287.6	92.5686	4,287.6	84.6673	4,287.6	88.7381	4,287.6	82.5896	4,287.6	79.1274	4,287.6	89.2288	4,287.6	76.1854	4,287.6	90.0621	4,287.6	86.9997	4,287.6	91.4836	4,287.6	90.3276
4,438.48	99.3146	4,438.48	98.9902	4,438.48	98.4233	4,438.48	97.1747	4,438.48	99.8	4,438.48	97.011	4,438.48	99.4644	4,438.48	94.0947	4,438.48	99.1373	4,438.48	95.8208	4,438.48	98.8046	4,438.48	94.9109	4,438.48	95.4175	4,438.48	97.2633	4,438.48	94.5215	4,438.48	97.0283	4,438.48	95.3123	4,438.48	94.6676	4,438.48	85.6703	4,438.48	93.1461	4,438.48	80.8236	4,438.48	92.9364	4,438.48	67.6299	4,438.48	93.2634	4,438.48	75.2261	4,438.48	91.874	4,438.48	82.8273	4,438.48	85.7758	4,438.48	85.0209	4,438.48	73.2691	4,438.48	88.5596	4,438.48	79.6554	4,438.48	90.5888	4,438.48	89.1208	4,438.48	90.4315	4,438.48	90.9266
4,595.21	99.9943	4,595.21	98.2018	4,595.21	99.1869	4,595.21	98.3735	4,595.21	99.7111	4,595.21	95.4641	4,595.21	100.595	4,595.21	96.412	4,595.21	100.081	4,595.21	95.5752	4,595.21	99.8932	4,595.21	96.9105	4,595.21	95.4429	4,595.21	96.8571	4,595.21	97.9555	4,595.21	95.7014	4,595.21	95.6929	4,595.21	96.1473	4,595.21	85.5946	4,595.21	95.7076	4,595.21	79.729	4,595.21	94.6313	4,595.21	78.5936	4,595.21	93.955	4,595.21	80.9776	4,595.21	92.9179	4,595.21	78.5687	4,595.21	88.3312	4,595.21	78.8296	4,595.21	71.1205	4,595.21	88.1776	4,595.21	83.4428	4,595.21	90.8871	4,595.21	89.7168	4,595.21	91.637	4,595.21	91.5769
4,756.35	100.189	4,756.35	98.3792	4,756.35	99.2058	4,756.35	98.3448	4,756.35	98.7851	4,756.35	95.2946	4,756.35	100.548	4,756.35	97.791	4,756.35	100.749	4,756.35	96.2369	4,756.35	100.096	4,756.35	97.1997	4,756.35	97.4919	4,756.35	96.9576	4,756.35	98.7842	4,756.35	99.1219	4,756.35	94.3816	4,756.35	99.2765	4,756.35	89.94	4,756.35	97.3736	4,756.35	87.1919	4,756.35	94.3127	4,756.35	80.3552	4,756.35	92.4271	4,756.35	79.9645	4,756.35	90.7483	4,756.35	78.9003	4,756.35	85.8388	4,756.35	82.8446	4,756.35	78.7332	4,756.35	86.3921	4,756.35	87.5137	4,756.35	91.0853	4,756.35	93.3743	4,756.35	91.4731	4,756.35	92.217
4,924.8	98.8455	4,924.8	98.7438	4,924.8	101.045	4,924.8	98.3531	4,924.8	99.2076	4,924.8	97.799	4,924.8	99.7647	4,924.8	97.2278	4,924.8	102.08	4,924.8	98.9312	4,924.8	101.039	4,924.8	98.9398	4,924.8	99.8716	4,924.8	100.804	4,924.8	98.0918	4,924.8	101.563	4,924.8	93.7633	4,924.8	100.239	4,924.8	86.3034	4,924.8	99.021	4,924.8	89.0783	4,924.8	97.1558	4,924.8	87.5738	4,924.8	93.8905	4,924.8	79.8353	4,924.8	89.6514	4,924.8	80.4133	4,924.8	85.1358	4,924.8	84.1229	4,924.8	81.0127	4,924.8	89.1978	4,924.8	90.8596	4,924.8	91.798	4,924.8	94.6391	4,924.8	93.3041	4,924.8	94.0489
5,097.66	98.3341	5,097.66	99.2728	5,097.66	99.3676	5,097.66	99.1161	5,097.66	99.0474	5,097.66	98.9952	5,097.66	98.5451	5,097.66	100.173	5,097.66	101.142	5,097.66	100.124	5,097.66	101.708	5,097.66	100.964	5,097.66	100.827	5,097.66	102.49	5,097.66	95.1687	5,097.66	102.72	5,097.66	93.6142	5,097.66	102.754	5,097.66	86.6058	5,097.66	102.469	5,097.66	86.3585	5,097.66	100.886	5,097.66	82.3022	5,097.66	97.1087	5,097.66	84.2308	5,097.66	89.9112	5,097.66	77.5255	5,097.66	87.9126	5,097.66	83.2427	5,097.66	85.5807	5,097.66	88.1306	5,097.66	91.6215	5,097.66	91.4689	5,097.66	95.0601	5,097.66	91.1013	5,097.66	94.9138
5,277.83	98.2772	5,277.83	99.6963	5,277.83	96.7957	5,277.83	101.259	5,277.83	96.6958	5,277.83	100.086	5,277.83	93.119	5,277.83	101.446	5,277.83	97.5717	5,277.83	100.144	5,277.83	98.5527	5,277.83	101.844	5,277.83	97.865	5,277.83	101.983	5,277.83	88.8216	5,277.83	103.152	5,277.83	89.1453	5,277.83	103.486	5,277.83	87.4656	5,277.83	102.992	5,277.83	90.2592	5,277.83	101.336	5,277.83	80.2276	5,277.83	97.26	5,277.83	76.9014	5,277.83	86.8658	5,277.83	87.1529	5,277.83	89.2067	5,277.83	72.934	5,277.83	90.9339	5,277.83	83.9254	5,277.83	90.8565	5,277.83	89.9786	5,277.83	94.7699	5,277.83	91.9511	5,277.83	92.9203
5,463.87	100.003	5,463.87	101.107	5,463.87	97.9638	5,463.87	101.165	5,463.87	95.4053	5,463.87	100.274	5,463.87	92.1382	5,463.87	100.369	5,463.87	92.1648	5,463.87	100.115	5,463.87	93.422	5,463.87	100.163	5,463.87	93.8396	5,463.87	101.111	5,463.87	88.5449	5,463.87	101.721	5,463.87	87.8389	5,463.87	101.924	5,463.87	86.2415	5,463.87	101.493	5,463.87	89.7427	5,463.87	100.536	5,463.87	76.1562	5,463.87	97.2245	5,463.87	76.3862	5,463.87	87.1123	5,463.87	53.3215	5,463.87	88.8649	5,463.87	83.8518	5,463.87	93.3396	5,463.87	80.3509	5,463.87	90.1063	5,463.87	85.5303	5,463.87	93.4766	5,463.87	90.7975	5,463.87	90.6015
5,657.23	99.6352	5,657.23	99.7883	5,657.23	98.2633	5,657.23	100.453	5,657.23	96.1746	5,657.23	99.4402	5,657.23	92.2241	5,657.23	99.2208	5,657.23	91.9124	5,657.23	98.8305	5,657.23	90.8816	5,657.23	98.8895	5,657.23	88.2322	5,657.23	99.4147	5,657.23	84.4386	5,657.23	99.1821	5,657.23	82.4095	5,657.23	99.9971	5,657.23	70.5326	5,657.23	99.7811	5,657.23	86.6787	5,657.23	98.9264	5,657.23	81.4664	5,657.23	95.7239	5,657.23	83.6096	5,657.23	85.1973	5,657.23	86.6379	5,657.23	89.2664	5,657.23	76.5828	5,657.23	93.5916	5,657.23	83.4898	5,657.23	89.4398	5,657.23	83.3539	5,657.23	91.2201	5,657.23	88.3644	5,657.23	87.0465
5,856.45	98.5902	5,856.45	99.1434	5,856.45	97.7124	5,856.45	99.7143	5,856.45	95.9066	5,856.45	98.2837	5,856.45	91.7461	5,856.45	98.7887	5,856.45	91.9566	5,856.45	97.4846	5,856.45	90.8076	5,856.45	97.97	5,856.45	86.7011	5,856.45	97.8898	5,856.45	87.1791	5,856.45	98.1139	5,856.45	85.7461	5,856.45	98.2376	5,856.45	80.6191	5,856.45	97.7094	5,856.45	88.3749	5,856.45	96.6642	5,856.45	71.9349	5,856.45	93.1545	5,856.45	73.8252	5,856.45	80.8925	5,856.45	87.4902	5,856.45	90.2947	5,856.45	82.2174	5,856.45	92.9014	5,856.45	85.1548	5,856.45	88.9369	5,856.45	84.7527	5,856.45	89.6289	5,856.45	82.9162	5,856.45	83.9572
6,062.99	97.3025	6,062.99	98.1175	6,062.99	96.0113	6,062.99	98.5759	6,062.99	95.4024	6,062.99	97.8544	6,062.99	91.878	6,062.99	97.8072	6,062.99	90.2004	6,062.99	96.7203	6,062.99	90.3713	6,062.99	97.369	6,062.99	89.3567	6,062.99	97.1516	6,062.99	81.1989	6,062.99	97.5191	6,062.99	82.7183	6,062.99	96.121	6,062.99	78.1184	6,062.99	95.8537	6,062.99	85.8101	6,062.99	94.74	6,062.99	78.9979	6,062.99	91.3757	6,062.99	83.5197	6,062.99	71.1029	6,062.99	85.6057	6,062.99	90.7967	6,062.99	82.2411	6,062.99	93.4804	6,062.99	86.9378	6,062.99	89.7717	6,062.99	85.9397	6,062.99	88.5818	6,062.99	82.6677	6,062.99	83.2071
6,276.86	95.8851	6,276.86	97.2319	6,276.86	94.9876	6,276.86	98.1848	6,276.86	94.2619	6,276.86	97.9846	6,276.86	92.3238	6,276.86	97.0695	6,276.86	90.25	6,276.86	96.6893	6,276.86	90.6221	6,276.86	96.5305	6,276.86	89.0058	6,276.86	96.6274	6,276.86	86.6455	6,276.86	95.5832	6,276.86	86.9408	6,276.86	96.24	6,276.86	80.7247	6,276.86	95.4047	6,276.86	86.2515	6,276.86	94.2987	6,276.86	82.0796	6,276.86	91.0535	6,276.86	74.5541	6,276.86	74.6497	6,276.86	89.9024	6,276.86	90.9039	6,276.86	83.279	6,276.86	94.4444	6,276.86	88.1702	6,276.86	90.3382	6,276.86	90.1115	6,276.86	90.6382	6,276.86	77.2223	6,276.86	87.544
6,498.05	94.1266	6,498.05	97.9795	6,498.05	93.8414	6,498.05	98.2813	6,498.05	93.9686	6,498.05	97.635	6,498.05	93.1814	6,498.05	97.1239	6,498.05	91.0117	6,498.05	96.3579	6,498.05	90.9274	6,498.05	96.3905	6,498.05	88.3282	6,498.05	96.5998	6,498.05	87.0191	6,498.05	95.2758	6,498.05	81.305	6,498.05	95.3169	6,498.05	83.0768	6,498.05	94.0941	6,498.05	88.5392	6,498.05	93.7757	6,498.05	84.6585	6,498.05	91.033	6,498.05	83.557	6,498.05	73.8601	6,498.05	92.0869	6,498.05	91.4259	6,498.05	85.7683	6,498.05	94.8719	6,498.05	90.5669	6,498.05	92.0602	6,498.05	90.2734	6,498.05	91.5174	6,498.05	80.8213	6,498.05	91.3984
6,726.56	94.3353	6,726.56	99.4063	6,726.56	93.1183	6,726.56	99.5933	6,726.56	94.9349	6,726.56	97.9237	6,726.56	94.1189	6,726.56	96.7025	6,726.56	92.1193	6,726.56	95.7964	6,726.56	90.9793	6,726.56	96.4341	6,726.56	87.6592	6,726.56	95.6811	6,726.56	87.4835	6,726.56	95.344	6,726.56	80.7979	6,726.56	92.9501	6,726.56	85.6702	6,726.56	93.5197	6,726.56	87.3793	6,726.56	93.9381	6,726.56	85.1069	6,726.56	91.5429	6,726.56	84.2062	6,726.56	77.5429	6,726.56	87.2122	6,726.56	90.6694	6,726.56	83.9394	6,726.56	94.3753	6,726.56	90.1947	6,726.56	94.9627	6,726.56	93.4142	6,726.56	91.5757	6,726.56	85.3248	6,726.56	92.8684
6,963.87	96.8417	6,963.87	101.107	6,963.87	95.2955	6,963.87	99.9492	6,963.87	95.062	6,963.87	97.4786	6,963.87	95.2364	6,963.87	94.8476	6,963.87	92.06	6,963.87	96.6959	6,963.87	92.4377	6,963.87	95.0893	6,963.87	89.4875	6,963.87	95.009	6,963.87	85.9006	6,963.87	91.8137	6,963.87	81.2237	6,963.87	93.7527	6,963.87	88.8904	6,963.87	93.353	6,963.87	88.3701	6,963.87	94.0684	6,963.87	87.6908	6,963.87	91.0135	6,963.87	84.1868	6,963.87	75.925	6,963.87	93.5125	6,963.87	89.6469	6,963.87	86.5429	6,963.87	93.4301	6,963.87	92.7765	6,963.87	95.7253	6,963.87	94.0459	6,963.87	91.388	6,963.87	91.0938	6,963.87	92.8152
7,209.96	98.9149	7,209.96	102.265	7,209.96	97.6219	7,209.96	99.8684	7,209.96	95.2844	7,209.96	95.8732	7,209.96	95.7251	7,209.96	94.1362	7,209.96	91.6995	7,209.96	96.0122	7,209.96	93.5292	7,209.96	94.9907	7,209.96	93.4368	7,209.96	93.003	7,209.96	85.2939	7,209.96	93.6689	7,209.96	89.2335	7,209.96	90.6116	7,209.96	91.172	7,209.96	92.4576	7,209.96	88.4641	7,209.96	93.3243	7,209.96	85.769	7,209.96	90.1794	7,209.96	82.8101	7,209.96	74.3441	7,209.96	91.4508	7,209.96	87.8991	7,209.96	89.5211	7,209.96	90.3682	7,209.96	91.3661	7,209.96	95.324	7,209.96	95.3273	7,209.96	86.8814	7,209.96	93.7996	7,209.96	91.7495
7,464.84	100.993	7,464.84	102.16	7,464.84	98.5983	7,464.84	100.026	7,464.84	96.4585	7,464.84	93.9638	7,464.84	94.1012	7,464.84	94.5149	7,464.84	94.156	7,464.84	95.7926	7,464.84	94.0331	7,464.84	93.2347	7,464.84	95.2106	7,464.84	93.7539	7,464.84	91.8826	7,464.84	90.5495	7,464.84	90.681	7,464.84	90.8165	7,464.84	91.9043	7,464.84	92.5983	7,464.84	86.3125	7,464.84	93.4605	7,464.84	88.4006	7,464.84	90.0499	7,464.84	85.8314	7,464.84	83.2562	7,464.84	87.1782	7,464.84	87.0939	7,464.84	87.9258	7,464.84	81.9173	7,464.84	91.1399	7,464.84	92.3486	7,464.84	94.3563	7,464.84	84.7865	7,464.84	95.3127	7,464.84	87.035
7,727.05	101.417	7,727.05	101.005	7,727.05	98.4743	7,727.05	98.2319	7,727.05	96.8469	7,727.05	91.4673	7,727.05	92.9994	7,727.05	94.684	7,727.05	95.0006	7,727.05	94.6119	7,727.05	95.6566	7,727.05	93.6292	7,727.05	95.9567	7,727.05	91.4483	7,727.05	95.241	7,727.05	91.0547	7,727.05	87.1177	7,727.05	88.69	7,727.05	92.1239	7,727.05	91.1977	7,727.05	85.8931	7,727.05	91.9089	7,727.05	86.4813	7,727.05	88.8661	7,727.05	83.4902	7,727.05	82.6094	7,727.05	81.5682	7,727.05	85.0324	7,727.05	82.7607	7,727.05	78.0833	7,727.05	88.1908	7,727.05	85.7745	7,727.05	91.9473	7,727.05	87.2409	7,727.05	94.8756	7,727.05	86.6878
7,999.51	101.006	7,999.51	99.0005	7,999.51	98.5622	7,999.51	95.3176	7,999.51	96.7934	7,999.51	91.6862	7,999.51	93.509	7,999.51	93.8745	7,999.51	95.6026	7,999.51	92.4279	7,999.51	95.8098	7,999.51	92.0171	7,999.51	94.9874	7,999.51	90.2181	7,999.51	93.7499	7,999.51	88.7232	7,999.51	84.5955	7,999.51	84.5872	7,999.51	90.5638	7,999.51	89.3618	7,999.51	89.7446	7,999.51	90.8627	7,999.51	81.6379	7,999.51	87.3835	7,999.51	73.5944	7,999.51	85.7173	7,999.51	72.6782	7,999.51	84.6671	7,999.51	85.0809	7,999.51	84.279	7,999.51	78.1587	7,999.51	82.2587	7,999.51	86.9485	7,999.51	87.2976	7,999.51	91.8382	7,999.51	88.8215
8,282.23	100.505	8,282.23	97.0203	8,282.23	98.8687	8,282.23	93.5384	8,282.23	97.3438	8,282.23	92.7332	8,282.23	93.9046	8,282.23	91.2887	8,282.23	96.0431	8,282.23	89.9938	8,282.23	96.5386	8,282.23	89.078	8,282.23	94.442	8,282.23	87.8171	8,282.23	90.7548	8,282.23	85.3158	8,282.23	84.5782	8,282.23	84.7655	8,282.23	89.2835	8,282.23	86.5241	8,282.23	91.2545	8,282.23	88.6702	8,282.23	76.9938	8,282.23	85.4836	8,282.23	64.8329	8,282.23	86.1904	8,282.23	65.2823	8,282.23	81.1934	8,282.23	86.8882	8,282.23	83.9342	8,282.23	78.3662	8,282.23	86.3952	8,282.23	78.0799	8,282.23	82.2804	8,282.23	83.2006	8,282.23	89.0997
8,573.73	100.198	8,573.73	95.3804	8,573.73	100.081	8,573.73	91.0422	8,573.73	98.901	8,573.73	89.2542	8,573.73	94.9276	8,573.73	88.2509	8,573.73	96.7053	8,573.73	87.0543	8,573.73	96.2759	8,573.73	89.312	8,573.73	93.4097	8,573.73	85.15	8,573.73	88.7394	8,573.73	84.1366	8,573.73	86.0103	8,573.73	78.1581	8,573.73	89.6546	8,573.73	85.7458	8,573.73	93.3303	8,573.73	85.7154	8,573.73	77.5287	8,573.73	85.1486	8,573.73	78.5215	8,573.73	85.2387	8,573.73	77.6597	8,573.73	80.0555	8,573.73	86.7706	8,573.73	86.1001	8,573.73	86.1324	8,573.73	85.8283	8,573.73	84.8573	8,573.73	86.0699	8,573.73	81.5771	8,573.73	84.8484
8,876.95	99.7757	8,876.95	94.8263	8,876.95	101.737	8,876.95	90.3707	8,876.95	100.147	8,876.95	78.6585	8,876.95	97.2346	8,876.95	85.0727	8,876.95	98.4059	8,876.95	89.7136	8,876.95	98.0756	8,876.95	86.4058	8,876.95	92.6885	8,876.95	84.7123	8,876.95	93.2082	8,876.95	81.075	8,876.95	87.9666	8,876.95	79.0487	8,876.95	88.3182	8,876.95	80.6233	8,876.95	94.154	8,876.95	80.1937	8,876.95	67.4479	8,876.95	81.7114	8,876.95	76.2445	8,876.95	86.0841	8,876.95	78.3461	8,876.95	83.0347	8,876.95	81.8045	8,876.95	89.0345	8,876.95	87.9864	8,876.95	85.0104	8,876.95	86.7238	8,876.95	92.0962	8,876.95	90.0866	8,876.95	67.1158
9,188.96	99.2117	9,188.96	96.1356	9,188.96	102.584	9,188.96	90.8717	9,188.96	100.586	9,188.96	87.7164	9,188.96	97.2559	9,188.96	90.7734	9,188.96	99.1067	9,188.96	89.7256	9,188.96	98.6921	9,188.96	85.9686	9,188.96	92.585	9,188.96	81.7273	9,188.96	94.4627	9,188.96	76.5148	9,188.96	89.2652	9,188.96	74	9,188.96	90.8225	9,188.96	79.1039	9,188.96	92.3346	9,188.96	78.7136	9,188.96	64.5966	9,188.96	88.6122	9,188.96	65.5136	9,188.96	89.253	9,188.96	67.7859	9,188.96	88.9552	9,188.96	83.5049	9,188.96	90.9736	9,188.96	82.7543	9,188.96	82.72	9,188.96	85.4898	9,188.96	91.9912	9,188.96	89.7907	9,188.96	83.7177
9,514.16	98.7616	9,514.16	98.8589	9,514.16	103.058	9,514.16	93.2467	9,514.16	101.219	9,514.16	90.1804	9,514.16	96.4794	9,514.16	93.0071	9,514.16	96.9384	9,514.16	89.4087	9,514.16	96.517	9,514.16	87.9298	9,514.16	92.2111	9,514.16	81.4334	9,514.16	82.0529	9,514.16	85.9632	9,514.16	88.8043	9,514.16	76.339	9,514.16	82.1928	9,514.16	81.4466	9,514.16	78.9958	9,514.16	74.05	9,514.16	81.6428	9,514.16	91.6817	9,514.16	83.969	9,514.16	89.5906	9,514.16	85.1829	9,514.16	90.8105	9,514.16	81.9261	9,514.16	92.2051	9,514.16	87.8686	9,514.16	86.249	9,514.16	91.5943	9,514.16	83.1433	9,514.16	92.1324	9,514.16	86.0975
9,849.61	99.1096	9,849.61	99.5791	9,849.61	102.102	9,849.61	93.8653	9,849.61	99.8253	9,849.61	90.0591	9,849.61	97.6483	9,849.61	91.917	9,849.61	96.9762	9,849.61	88.9235	9,849.61	95.2586	9,849.61	87.1787	9,849.61	91.0571	9,849.61	82.5727	9,849.61	70.9199	9,849.61	86.2124	9,849.61	85.2799	9,849.61	72.3269	9,849.61	77.5882	9,849.61	84.7755	9,849.61	73.8539	9,849.61	79.0095	9,849.61	82.6952	9,849.61	91.0437	9,849.61	79.813	9,849.61	85.0302	9,849.61	86.973	9,849.61	88.6829	9,849.61	86.4828	9,849.61	91.2015	9,849.61	88.1679	9,849.61	87.7776	9,849.61	89.6977	9,849.61	87.3234	9,849.61	91.92	9,849.61	86.0311
10,196.8	99.9824	10,196.8	99.2811	10,196.8	101.597	10,196.8	92.4049	10,196.8	97.9805	10,196.8	88.1825	10,196.8	98.9781	10,196.8	89.7785	10,196.8	98.4122	10,196.8	83.9265	10,196.8	95.3206	10,196.8	82.419	10,196.8	93.4383	10,196.8	65.0734	10,196.8	84.4562	10,196.8	84.9716	10,196.8	86.9922	10,196.8	76.2358	10,196.8	84.8278	10,196.8	86.0316	10,196.8	76.0072	10,196.8	84.5199	10,196.8	83.1673	10,196.8	90.1414	10,196.8	75.3959	10,196.8	75.0808	10,196.8	83.1464	10,196.8	85.1502	10,196.8	80.007	10,196.8	87.6987	10,196.8	85.0746	10,196.8	85.2205	10,196.8	81.9941	10,196.8	93.1358	10,196.8	87.6413	10,196.8	83.3778
10,555.7	100.93	10,555.7	98.3442	10,555.7	100.798	10,555.7	90.3601	10,555.7	98.4038	10,555.7	81.0689	10,555.7	100.242	10,555.7	84.8375	10,555.7	99.4006	10,555.7	78.3622	10,555.7	95.5439	10,555.7	76.8026	10,555.7	92.5282	10,555.7	62.6965	10,555.7	85.9543	10,555.7	81.252	10,555.7	89.2671	10,555.7	72.018	10,555.7	80.1786	10,555.7	86.4125	10,555.7	77.7836	10,555.7	86.9744	10,555.7	84.0369	10,555.7	88.053	10,555.7	78.3526	10,555.7	55.533	10,555.7	86.6177	10,555.7	81.6863	10,555.7	75.0381	10,555.7	85.5583	10,555.7	81.9568	10,555.7	79.028	10,555.7	79.2663	10,555.7	92.8126	10,555.7	82.7277	10,555.7	83.9917
10,927.7	100.191	10,927.7	94.8035	10,927.7	99.7549	10,927.7	82.0267	10,927.7	100.036	10,927.7	87.7036	10,927.7	100.39	10,927.7	89.6216	10,927.7	99.0591	10,927.7	86.4937	10,927.7	94.8103	10,927.7	84.3855	10,927.7	91.3256	10,927.7	73.9808	10,927.7	84.8306	10,927.7	82.9827	10,927.7	91.334	10,927.7	75.469	10,927.7	73.0066	10,927.7	90.3041	10,927.7	74.0904	10,927.7	89.4948	10,927.7	76.7016	10,927.7	87.9487	10,927.7	79.1597	10,927.7	79.837	10,927.7	80.9591	10,927.7	82.3242	10,927.7	83.1107	10,927.7	87.1194	10,927.7	75.416	10,927.7	80.6158	10,927.7	86.7439	10,927.7	84.2521	10,927.7	81.4471	10,927.7	81.18
11,313	99.1205	11,313	89.8619	11,313	98.8173	11,313	84.916	11,313	100.198	11,313	92.6723	11,313	99.7819	11,313	93.624	11,313	97.373	11,313	89.6267	11,313	94.0001	11,313	85.5505	11,313	84.1799	11,313	85.9396	11,313	87.5783	11,313	82.0191	11,313	86.2726	11,313	78.6792	11,313	74.8152	11,313	91.972	11,313	75.6289	11,313	90.9171	11,313	82.7813	11,313	90.4209	11,313	84.2308	11,313	85.9203	11,313	84.2891	11,313	86.0878	11,313	67.4813	11,313	89.0691	11,313	77.433	11,313	83.1349	11,313	89.2056	11,313	86.4668	11,313	84.9403	11,313	80.5348
11,712.9	98.4783	11,712.9	88.7412	11,712.9	98.0714	11,712.9	89.0555	11,712.9	100.658	11,712.9	94.2775	11,712.9	100.018	11,712.9	94.2675	11,712.9	95.7412	11,712.9	91.1481	11,712.9	93.9455	11,712.9	87.701	11,712.9	89.148	11,712.9	88.1754	11,712.9	87.3233	11,712.9	76.4588	11,712.9	79.7469	11,712.9	82.3691	11,712.9	81.137	11,712.9	89.6021	11,712.9	77.0328	11,712.9	88.9274	11,712.9	85.021	11,712.9	90.1766	11,712.9	84.0335	11,712.9	85.9803	11,712.9	87.62	11,712.9	85.8023	11,712.9	76.9596	11,712.9	90.616	11,712.9	81.3456	11,712.9	83.8919	11,712.9	74.3287	11,712.9	92.5825	11,712.9	84.4697	11,712.9	89.3224
12,126	97.4563	12,126	91.4268	12,126	97.6393	12,126	90.0096	12,126	101.149	12,126	94.7063	12,126	99.7373	12,126	94.8351	12,126	95.1293	12,126	90.1779	12,126	94.0771	12,126	85.8406	12,126	91.8506	12,126	89.9043	12,126	84.0322	12,126	71.8408	12,126	79.9088	12,126	86.5609	12,126	82.9141	12,126	84.3304	12,126	84.4412	12,126	83.4333	12,126	84.3464	12,126	86.7636	12,126	85.1587	12,126	80.7486	12,126	90.982	12,126	80.6559	12,126	66.8964	12,126	90.5788	12,126	68.3399	12,126	83.2811	12,126	87.3995	12,126	91.7109	12,126	83.9271	12,126	86.2546
12,553.7	96.4531	12,553.7	94.505	12,553.7	96.7174	12,553.7	93.2572	12,553.7	99.9628	12,553.7	94.3724	12,553.7	98.3359	12,553.7	93.6643	12,553.7	94.4569	12,553.7	89.4874	12,553.7	91.7922	12,553.7	81.7073	12,553.7	92.3746	12,553.7	90.7932	12,553.7	87.8603	12,553.7	70.7275	12,553.7	79.2083	12,553.7	88.0072	12,553.7	80.3895	12,553.7	83.1761	12,553.7	86.1649	12,553.7	74.2625	12,553.7	82.1534	12,553.7	79.9565	12,553.7	82.7368	12,553.7	71.3833	12,553.7	91.5099	12,553.7	81.9923	12,553.7	72.1222	12,553.7	88.0225	12,553.7	72.9587	12,553.7	77.8849	12,553.7	88.4411	12,553.7	79.0286	12,553.7	80.1622	12,553.7	75.0103
12,996.1	95.9727	12,996.1	96.7168	12,996.1	95.3559	12,996.1	96.218	12,996.1	96.2475	12,996.1	95.9042	12,996.1	95.3639	12,996.1	93.7584	12,996.1	92.894	12,996.1	89.7886	12,996.1	90.2034	12,996.1	81.1677	12,996.1	88.1802	12,996.1	89.8962	12,996.1	88.4005	12,996.1	77.0883	12,996.1	74.6998	12,996.1	88.6874	12,996.1	80.1631	12,996.1	84.5488	12,996.1	85.2406	12,996.1	76.4704	12,996.1	71.856	12,996.1	71.0638	12,996.1	73.5019	12,996.1	77.7347	12,996.1	88.2142	12,996.1	84.8321	12,996.1	79.024	12,996.1	80.7268	12,996.1	76.5959	12,996.1	78.7228	12,996.1	73.7583	12,996.1	82.2762	12,996.1	75.8325	12,996.1	86.0166
13,454.6	96.8729	13,454.6	97.7795	13,454.6	96.1821	13,454.6	97.4634	13,454.6	96.0483	13,454.6	95.9209	13,454.6	95.8658	13,454.6	94.0458	13,454.6	94.1829	13,454.6	89.3537	13,454.6	91.3864	13,454.6	73.8313	13,454.6	89.0477	13,454.6	89.1373	13,454.6	90.7947	13,454.6	77.4858	13,454.6	73.3103	13,454.6	90.7396	13,454.6	77.5427	13,454.6	87.5072	13,454.6	79.1371	13,454.6	77.6394	13,454.6	77.3268	13,454.6	84.5418	13,454.6	82.9231	13,454.6	79.3587	13,454.6	82.9078	13,454.6	86.3166	13,454.6	87.3593	13,454.6	84.6705	13,454.6	81.4754	13,454.6	84.925	13,454.6	88.039	13,454.6	85.4502	13,454.6	78.6258	13,454.6	79.2499
13,929.2	98.7594	13,929.2	99.0568	13,929.2	95.876	13,929.2	95.3961	13,929.2	95.1873	13,929.2	93.7977	13,929.2	97.5378	13,929.2	92.5406	13,929.2	94.5142	13,929.2	90.4088	13,929.2	91.8714	13,929.2	77.4442	13,929.2	90.3224	13,929.2	89.194	13,929.2	89.7843	13,929.2	80.1306	13,929.2	81.0638	13,929.2	92.0918	13,929.2	75.7313	13,929.2	89.7596	13,929.2	77.2285	13,929.2	80.0247	13,929.2	79.2321	13,929.2	88.6508	13,929.2	85.6941	13,929.2	83.4525	13,929.2	77.9624	13,929.2	84.0944	13,929.2	87.7258	13,929.2	85.0098	13,929.2	82.5992	13,929.2	88.7964	13,929.2	87.7979	13,929.2	80.8097	13,929.2	83.0539	13,929.2	88.0248
14,419.9	101.489	14,419.9	101.631	14,419.9	96.9387	14,419.9	93.289	14,419.9	90.995	14,419.9	89.5358	14,419.9	94.1796	14,419.9	90.239	14,419.9	93.5194	14,419.9	90.002	14,419.9	87.9257	14,419.9	82.4982	14,419.9	89.2035	14,419.9	87.3702	14,419.9	88.1008	14,419.9	81.2577	14,419.9	70.8323	14,419.9	91.8383	14,419.9	81.9442	14,419.9	90.2197	14,419.9	81.0776	14,419.9	81.1881	14,419.9	71.0334	14,419.9	88.8996	14,419.9	83.3034	14,419.9	84.3742	14,419.9	74.0776	14,419.9	79.2176	14,419.9	76.7417	14,419.9	81.0052	14,419.9	81.6452	14,419.9	88.7056	14,419.9	80.7423	14,419.9	81.6253	14,419.9	82.9616	14,419.9	89.9638
14,928.2	102.586	14,928.2	102.947	14,928.2	97.6603	14,928.2	95.3261	14,928.2	88.0637	14,928.2	88.9873	14,928.2	87.5772	14,928.2	88.9913	14,928.2	90.9828	14,928.2	89.736	14,928.2	81.135	14,928.2	81.8755	14,928.2	85.5089	14,928.2	86.0967	14,928.2	83.9749	14,928.2	80.8771	14,928.2	79.8745	14,928.2	91.2091	14,928.2	78.7877	14,928.2	89.277	14,928.2	80.8478	14,928.2	80.5462	14,928.2	81.6036	14,928.2	85.9691	14,928.2	83.7363	14,928.2	81.9112	14,928.2	81.767	14,928.2	75.9617	14,928.2	73.669	14,928.2	80.4965	14,928.2	75.6838	14,928.2	83.6345	14,928.2	88.5536	14,928.2	83.9362	14,928.2	83.2108	14,928.2	82.4952
15,455.6	102.246	15,455.6	101.985	15,455.6	97.3479	15,455.6	94.531	15,455.6	92.0831	15,455.6	87.1535	15,455.6	81.8636	15,455.6	86.865	15,455.6	87.5544	15,455.6	89.2823	15,455.6	81.2773	15,455.6	80.7077	15,455.6	78.9439	15,455.6	86.5141	15,455.6	75.284	15,455.6	81.4495	15,455.6	81.9725	15,455.6	89.746	15,455.6	75.4753	15,455.6	87.2225	15,455.6	71.3661	15,455.6	79.2689	15,455.6	84.4837	15,455.6	81.2909	15,455.6	79.141	15,455.6	76.4122	15,455.6	79.9596	15,455.6	80.0212	15,455.6	74.0515	15,455.6	82.4209	15,455.6	74.1765	15,455.6	79.2072	15,455.6	80.9039	15,455.6	87.8686	15,455.6	81.9108	15,455.6	89.7392
16,000.5	101.084	16,000.5	100.517	16,000.5	96.2649	16,000.5	92.8551	16,000.5	93.8568	16,000.5	82.2723	16,000.5	83.5485	16,000.5	87.3725	16,000.5	86.0238	16,000.5	89.0645	16,000.5	76.5265	16,000.5	82.7618	16,000.5	62.4292	16,000.5	85.8482	16,000.5	73.1959	16,000.5	81.9318	16,000.5	78.5116	16,000.5	88.4886	16,000.5	79.0702	16,000.5	84.631	16,000.5	71.8697	16,000.5	80.7365	16,000.5	82.885	16,000.5	80.448	16,000.5	65.4848	16,000.5	52.1335	16,000.5	60.5599	16,000.5	70.7711	16,000.5	80.5822	16,000.5	82.8369	16,000.5	75.5462	16,000.5	81.5494	16,000.5	79.1027	16,000.5	80.6348	16,000.5	79.4702	16,000.5	79.6636
16,564.5	99.4609	16,564.5	98.2627	16,564.5	95.4925	16,564.5	90.091	16,564.5	94.0178	16,564.5	67.9924	16,564.5	87.4599	16,564.5	87.2757	16,564.5	85.0184	16,564.5	88.3587	16,564.5	69.0832	16,564.5	82.9764	16,564.5	76.855	16,564.5	85.1087	16,564.5	82.2215	16,564.5	82.3175	16,564.5	76.1213	16,564.5	87.6192	16,564.5	78.4281	16,564.5	82.4555	16,564.5	77.5169	16,564.5	81.2578	16,564.5	75.6645	16,564.5	80.0573	16,564.5	63.5065	16,564.5	44.6957	16,564.5	69.0514	16,564.5	71.3182	16,564.5	81.4666	16,564.5	78.9267	16,564.5	70.2107	16,564.5	78.6915	16,564.5	78.9576	16,564.5	86.9239	16,564.5	78.2119	16,564.5	82.1682
17,148.9	98.1026	17,148.9	94.6389	17,148.9	96.1471	17,148.9	85.9808	17,148.9	95.479	17,148.9	76.0514	17,148.9	90.7183	17,148.9	86.5133	17,148.9	88.3439	17,148.9	88.4751	17,148.9	79.1868	17,148.9	80.097	17,148.9	82.2629	17,148.9	83.7083	17,148.9	77.6315	17,148.9	81.3209	17,148.9	80.9848	17,148.9	86.5869	17,148.9	77.3604	17,148.9	80.5498	17,148.9	79.4171	17,148.9	80.3009	17,148.9	69.9979	17,148.9	75.6222	17,148.9	72.7123	17,148.9	74.607	17,148.9	72.0165	17,148.9	70.0248	17,148.9	83.1594	17,148.9	79.598	17,148.9	75.4534	17,148.9	84.6154	17,148.9	74.8508	17,148.9	82.7751	17,148.9	70.9224	17,148.9	75.4118
17,752.4	96.7169	17,752.4	90.9122	17,752.4	97.4889	17,752.4	85.5145	17,752.4	97.4673	17,752.4	74.0399	17,752.4	92.309	17,752.4	87.0825	17,752.4	87.8277	17,752.4	88.9384	17,752.4	83.4117	17,752.4	80.2775	17,752.4	88.0272	17,752.4	84.142	17,752.4	81.2501	17,752.4	80.6394	17,752.4	83.0847	17,752.4	85.7167	17,752.4	79.031	17,752.4	79.9247	17,752.4	74.1911	17,752.4	82.2108	17,752.4	69.0996	17,752.4	66.5517	17,752.4	78.1138	17,752.4	79.8823	17,752.4	74.6581	17,752.4	74.3016	17,752.4	81.9655	17,752.4	63.4732	17,752.4	68.4152	17,752.4	78.231	17,752.4	65.3306	17,752.4	84.0094	17,752.4	75.9585	17,752.4	74.8887
18,379.4	93.81	18,379.4	86.8545	18,379.4	95.8464	18,379.4	89.4173	18,379.4	95.05	18,379.4	66.2014	18,379.4	89.9606	18,379.4	88.7706	18,379.4	83.0623	18,379.4	89.523	18,379.4	81.2748	18,379.4	75.2392	18,379.4	86.8253	18,379.4	83.5571	18,379.4	80.4703	18,379.4	81.7154	18,379.4	81.6637	18,379.4	83.0097	18,379.4	73.034	18,379.4	81.184	18,379.4	77.7909	18,379.4	84.6985	18,379.4	77.5059	18,379.4	78.1441	18,379.4	74.2092	18,379.4	79.1726	18,379.4	84.4246	18,379.4	79.9142	18,379.4	83.0645	18,379.4	76.9962	18,379.4	67.4218	18,379.4	74.5019	18,379.4	72.4574	18,379.4	81.5762	18,379.4	74.1941	18,379.4	76.9713
19,026.9	92.8309	19,026.9	85.8636	19,026.9	95.5325	19,026.9	90.3875	19,026.9	93.6686	19,026.9	69.2157	19,026.9	87.2622	19,026.9	90.1108	19,026.9	83.1211	19,026.9	91.6877	19,026.9	79.8143	19,026.9	79.518	19,026.9	83.7232	19,026.9	82.6087	19,026.9	79.9483	19,026.9	83.8081	19,026.9	80.7003	19,026.9	76.0748	19,026.9	71.8133	19,026.9	82.2455	19,026.9	77.0944	19,026.9	82.995	19,026.9	79.4597	19,026.9	79.554	19,026.9	68.8838	19,026.9	72.0412	19,026.9	80.4063	19,026.9	68.9864	19,026.9	85.4457	19,026.9	72.3938	19,026.9	69.8552	19,026.9	68.5853	19,026.9	73.243	19,026.9	79.4294	19,026.9	60.4814	19,026.9	78.7025
19,697.8	92.3073	19,697.8	82.0095	19,697.8	95.7038	19,697.8	89.6272	19,697.8	91.7153	19,697.8	76.0949	19,697.8	86.2422	19,697.8	91.3189	19,697.8	76.693	19,697.8	93.1541	19,697.8	78.7051	19,697.8	82.2549	19,697.8	69.3439	19,697.8	83.7297	19,697.8	69.6905	19,697.8	85.6777	19,697.8	72.2684	19,697.8	69.2534	19,697.8	75.7913	19,697.8	82.7022	19,697.8	71.1806	19,697.8	75.857	19,697.8	80.6017	19,697.8	77.0267	19,697.8	66.0786	19,697.8	78.214	19,697.8	75.649	19,697.8	75.148	19,697.8	80.4689	19,697.8	78.788	19,697.8	75.5351	19,697.8	68.9781	19,697.8	74.212	19,697.8	85.0508	19,697.8	78.1814	19,697.8	73.8099
19,999.5	92.362	19,999.5	82.2928	19,999.5	95.1179	19,999.5	89.9055	19,999.5	90.6925	19,999.5	76.1852	19,999.5	85.7649	19,999.5	91.9318	19,999.5	78.1764	19,999.5	93.4356	19,999.5	81.4115	19,999.5	82.2126	19,999.5	79.049	19,999.5	85.1293	19,999.5	70.7215	19,999.5	85.9164	19,999.5	76.5561	19,999.5	70.1302	19,999.5	77.6005	19,999.5	83.2682	19,999.5	64.0707	19,999.5	76.6106	19,999.5	78.339	19,999.5	76.1562	19,999.5	71.8803	19,999.5	77.2191	19,999.5	66.8141	19,999.5	69.3938	19,999.5	76.0102	19,999.5	82.7799	19,999.5	75.0948	19,999.5	80.3186	19,999.5	75.082	19,999.5	79.7519	19,999.5	76.0879	19,999.5	75.0917
