"SPL Vertical"
"On-Axis"		"10°"		"-10°"		"20°"		"-20°"		"30°"		"-30°"		"40°"		"-40°"		"50°"		"-50°"		"60°"		"-60°"		"70°"		"-70°"		"80°"		"-80°"		"90°"		"-90°"		"100°"		"-100°"		"110°"		"-110°"		"120°"		"-120°"		"130°"		"-130°"		"140°"		"-140°"		"150°"		"-150°"		"160°"		"-160°"		"170°"		"-170°"		"180°"
"Frequency [Hz]"	"Sound Pessure Level [dB]  / [2.83V 1m] "	"Frequency [Hz]"	"Sound Pessure Level [dB]  / [2.83V 1m] "	"Frequency [Hz]"	"Sound Pessure Level [dB]  / [2.83V 1m] "	"Frequency [Hz]"	"Sound Pessure Level [dB]  / [2.83V 1m] "	"Frequency [Hz]"	"Sound Pessure Level [dB]  / [2.83V 1m] "	"Frequency [Hz]"	"Sound Pessure Level [dB]  / [2.83V 1m] "	"Frequency [Hz]"	"Sound Pessure Level [dB]  / [2.83V 1m] "	"Frequency [Hz]"	"Sound Pessure Level [dB]  / [2.83V 1m] "	"Frequency [Hz]"	"Sound Pessure Level [dB]  / [2.83V 1m] "	"Frequency [Hz]"	"Sound Pessure Level [dB]  / [2.83V 1m] "	"Frequency [Hz]"	"Sound Pessure Level [dB]  / [2.83V 1m] "	"Frequency [Hz]"	"Sound Pessure Level [dB]  / [2.83V 1m] "	"Frequency [Hz]"	"Sound Pessure Level [dB]  / [2.83V 1m] "	"Frequency [Hz]"	"Sound Pessure Level [dB]  / [2.83V 1m] "	"Frequency [Hz]"	"Sound Pessure Level [dB]  / [2.83V 1m] "	"Frequency [Hz]"	"Sound Pessure Level [dB]  / [2.83V 1m] "	"Frequency [Hz]"	"Sound Pessure Level [dB]  / [2.83V 1m] "	"Frequency [Hz]"	"Sound Pessure Level [dB]  / [2.83V 1m] "	"Frequency [Hz]"	"Sound Pessure Level [dB]  / [2.83V 1m] "	"Frequency [Hz]"	"Sound Pessure Level [dB]  / [2.83V 1m] "	"Frequency [Hz]"	"Sound Pessure Level [dB]  / [2.83V 1m] "	"Frequency [Hz]"	"Sound Pessure Level [dB]  / [2.83V 1m] "	"Frequency [Hz]"	"Sound Pessure Level [dB]  / [2.83V 1m] "	"Frequency [Hz]"	"Sound Pessure Level [dB]  / [2.83V 1m] "	"Frequency [Hz]"	"Sound Pessure Level [dB]  / [2.83V 1m] "	"Frequency [Hz]"	"Sound Pessure Level [dB]  / [2.83V 1m] "	"Frequency [Hz]"	"Sound Pessure Level [dB]  / [2.83V 1m] "	"Frequency [Hz]"	"Sound Pessure Level [dB]  / [2.83V 1m] "	"Frequency [Hz]"	"Sound Pessure Level [dB]  / [2.83V 1m] "	"Frequency [Hz]"	"Sound Pessure Level [dB]  / [2.83V 1m] "	"Frequency [Hz]"	"Sound Pessure Level [dB]  / [2.83V 1m] "	"Frequency [Hz]"	"Sound Pessure Level [dB]  / [2.83V 1m] "	"Frequency [Hz]"	"Sound Pessure Level [dB]  / [2.83V 1m] "	"Frequency [Hz]"	"Sound Pessure Level [dB]  / [2.83V 1m] "	"Frequency [Hz]"	"Sound Pessure Level [dB]  / [2.83V 1m] "	"Frequency [Hz]"	"Sound Pessure Level [dB]  / [2.83V 1m] "
20.5078	52.2456	20.5078	51.8587	20.5078	52.5341	20.5078	51.3996	20.5078	52.7076	20.5078	50.911	20.5078	52.7562	20.5078	50.4601	20.5078	52.6768	20.5078	50.1425	20.5078	52.4758	20.5078	50.067	20.5078	52.178	20.5078	50.312	20.5078	51.8393	20.5078	50.8777	20.5078	51.5625	20.5078	51.6849	20.5078	51.4914	20.5078	52.6202	20.5078	51.7553	20.5078	53.5819	20.5078	52.3768	20.5078	54.4963	20.5078	53.2483	20.5078	55.3148	20.5078	54.2083	20.5078	56.0056	20.5078	55.121	20.5078	56.5461	20.5078	55.9011	20.5078	56.9192	20.5078	56.5034	20.5078	57.1107	20.5078	56.908	20.5078	57.1096
21.9727	52.2274	21.9727	51.6169	21.9727	52.6342	21.9727	50.7867	21.9727	52.8441	21.9727	49.7135	21.9727	52.8545	21.9727	48.3782	21.9727	52.6534	21.9727	46.812	21.9727	52.2194	21.9727	45.2515	21.9727	51.522	21.9727	44.4115	21.9727	50.5267	21.9727	45.0817	21.9727	49.2193	21.9727	46.8728	21.9727	47.7028	21.9727	48.8899	21.9727	46.4638	21.9727	50.7119	21.9727	46.4703	21.9727	52.2402	21.9727	47.9357	21.9727	53.4723	21.9727	49.9176	21.9727	54.423	21.9727	51.7414	21.9727	55.1028	21.9727	53.2136	21.9727	55.5149	21.9727	54.3172	21.9727	55.6555	21.9727	55.0754	21.9727	55.5143
23.4375	51.1891	23.4375	50.5055	23.4375	51.6838	23.4375	49.6813	23.4375	51.9695	23.4375	48.8359	23.4375	52.0342	23.4375	48.2191	23.4375	51.868	23.4375	48.1826	23.4375	51.4661	23.4375	48.9148	23.4375	50.8466	23.4375	50.2242	23.4375	50.0984	23.4375	51.7632	23.4375	49.4748	23.4375	53.2903	23.4375	49.4309	23.4375	54.6937	23.4375	50.2901	23.4375	55.9326	23.4375	51.8195	23.4375	56.9946	23.4375	53.5398	23.4375	57.8756	23.4375	55.1448	23.4375	58.5726	23.4375	56.5148	23.4375	59.0803	23.4375	57.6187	23.4375	59.3912	23.4375	58.4573	23.4375	59.4959	23.4375	59.0413	23.4375	59.3832
24.9023	53.6609	24.9023	53.0886	24.9023	54.0593	24.9023	52.3705	24.9023	54.2697	24.9023	51.5705	24.9023	54.2808	24.9023	50.8282	24.9023	54.0815	24.9023	50.3886	24.9023	53.663	24.9023	50.5232	24.9023	53.0315	24.9023	51.3044	24.9023	52.2413	24.9023	52.5276	24.9023	51.4694	24.9023	53.9143	24.9023	51.0927	24.9023	55.2754	24.9023	51.5246	24.9023	56.5173	24.9023	52.7461	24.9023	57.6002	24.9023	54.3249	24.9023	58.5074	24.9023	55.8836	24.9023	59.23	24.9023	57.2445	24.9023	59.7606	24.9023	58.3498	24.9023	60.0907	24.9023	59.1902	24.9023	60.2104	24.9023	59.7725	24.9023	60.1084
26.3672	54.3141	26.3672	53.8279	26.3672	54.6717	26.3672	53.27	26.3672	54.8704	26.3672	52.7457	26.3672	54.8938	26.3672	52.4221	26.3672	54.7347	26.3672	52.491	26.3672	54.4004	26.3672	53.0516	26.3672	53.9306	26.3672	54.0268	26.3672	53.4361	26.3672	55.2322	26.3672	53.1418	26.3672	56.4976	26.3672	53.3445	26.3672	57.7144	26.3672	54.1841	26.3672	58.8248	26.3672	55.4849	26.3672	59.7998	26.3672	56.94	26.3672	60.6235	26.3672	58.3269	26.3672	61.2848	26.3672	59.5355	26.3672	61.7742	26.3672	60.5234	26.3672	62.0815	26.3672	61.2793	26.3672	62.1961	26.3672	61.8049	26.3672	62.1074
27.832	57.0047	27.832	56.574	27.832	57.3145	27.832	56.0597	27.832	57.4822	27.832	55.528	27.832	57.4949	27.832	55.0886	27.832	57.346	27.832	54.8904	27.832	57.0382	27.832	55.0685	27.832	56.5953	27.832	55.6574	27.832	56.0857	27.832	56.5631	27.832	55.657	27.832	57.6333	27.832	55.5404	27.832	58.7353	27.832	55.9402	27.832	59.7814	27.832	56.8484	27.832	60.7209	27.832	58.0474	27.832	61.5246	27.832	59.2958	27.832	62.174	27.832	60.4376	27.832	62.6553	27.832	61.3965	27.832	62.9562	27.832	62.1422	27.832	63.0653	27.832	62.6666	27.832	62.972
29.2969	57.0207	29.2969	56.5777	29.2969	57.3436	29.2969	56.0668	29.2969	57.5178	29.2969	55.5807	29.2969	57.5278	29.2969	55.2634	29.2969	57.3676	29.2969	55.2823	29.2969	57.0463	29.2969	55.7386	29.2969	56.6036	29.2969	56.5894	29.2969	56.1423	29.2969	57.6843	29.2969	55.8622	29.2969	58.8655	29.2969	56.0231	29.2969	60.0218	29.2969	56.7601	29.2969	61.089	29.2969	57.9405	29.2969	62.0325	29.2969	59.2955	29.2969	62.8326	29.2969	60.6109	29.2969	63.4764	29.2969	61.7713	29.2969	63.9528	29.2969	62.7273	29.2969	64.2514	29.2969	63.4628	29.2969	64.3617	29.2969	63.9763	29.2969	64.2732
30.7617	58.9819	30.7617	58.6793	30.7617	59.2185	30.7617	58.3629	30.7617	59.3577	30.7617	58.1098	30.7617	59.3832	30.7617	58.0177	30.7617	59.2926	30.7617	58.1782	30.7617	59.1015	30.7617	58.6336	30.7617	58.8548	30.7617	59.3516	30.7617	58.6423	30.7617	60.246	30.7617	58.6024	30.7617	61.2197	30.7617	58.8809	30.7617	62.1931	30.7617	59.539	30.7617	63.1113	30.7617	60.4996	30.7617	63.9382	30.7617	61.6045	30.7617	64.6497	30.7617	62.7057	30.7617	65.2279	30.7617	63.7045	30.7617	65.6586	30.7617	64.5465	30.7617	65.929	30.7617	65.2056	30.7617	66.0276	30.7617	65.6719	30.7617	65.9444
32.2266	60.604	32.2266	60.3231	32.2266	60.8176	32.2266	60.0166	32.2266	60.9381	32.2266	59.747	32.2266	60.9523	32.2266	59.5967	32.2266	60.8582	32.2266	59.6518	32.2266	60.669	32.2266	59.9688	32.2266	60.422	32.2266	60.5451	32.2266	60.1914	32.2266	61.3198	32.2266	60.0944	32.2266	62.2058	32.2266	60.2643	32.2266	63.1212	32.2266	60.7789	32.2266	64.0037	32.2266	61.5994	32.2266	64.8096	32.2266	62.5958	32.2266	65.509	32.2266	63.6254	32.2266	66.0805	32.2266	64.5818	32.2266	66.5068	32.2266	65.4011	32.2266	66.774	32.2266	66.0496	32.2266	66.87	32.2266	66.5123	32.2266	66.785
33.6914	61.5519	33.6914	61.313	33.6914	61.7429	33.6914	61.0703	33.6914	61.8582	33.6914	60.8862	33.6914	61.8835	33.6914	60.836	33.6914	61.8183	33.6914	60.9891	33.6914	61.6787	33.6914	61.3812	33.6914	61.5057	33.6914	61.9958	33.6914	61.3737	33.6914	62.7733	33.6914	61.3892	33.6914	63.6374	33.6914	61.6593	33.6914	64.5189	33.6914	62.2319	33.6914	65.3643	33.6914	63.0589	33.6914	66.1353	33.6914	64.0253	33.6914	66.8048	33.6914	65.0098	33.6914	67.3521	33.6914	65.9213	33.6914	67.7608	33.6914	66.7026	33.6914	68.0169	33.6914	67.3222	33.6914	68.1087	33.6914	67.7653	33.6914	68.0269
35.1562	63.4854	35.1562	63.2984	35.1562	63.639	35.1562	63.1144	35.1562	63.7355	35.1562	62.9826	35.1562	63.7628	35.1562	62.96	35.1562	63.7214	35.1562	63.0988	35.1562	63.6265	35.1562	63.4288	35.1562	63.5139	35.1562	63.9438	35.1562	63.4442	35.1562	64.605	35.1562	63.4992	35.1562	65.3554	35.1562	63.758	35.1562	66.1373	35.1562	64.258	35.1562	66.9016	35.1562	64.9689	35.1562	67.6099	35.1562	65.8069	35.1562	68.233	35.1562	66.6746	35.1562	68.7482	35.1562	67.4906	35.1562	69.137	35.1562	68.1988	35.1562	69.3843	35.1562	68.7649	35.1562	69.4778	35.1562	69.1706	35.1562	69.4082
36.6211	64.6009	36.6211	64.4257	36.6211	64.7485	36.6211	64.2573	36.6211	64.8458	36.6211	64.1415	36.6211	64.8816	36.6211	64.1305	36.6211	64.8564	36.6211	64.2715	36.6211	64.7853	36.6211	64.5913	36.6211	64.7019	36.6211	65.0848	36.6211	64.6618	36.6211	65.7171	36.6211	64.7379	36.6211	66.4365	36.6211	64.9997	36.6211	67.189	36.6211	65.4799	36.6211	67.9278	36.6211	66.1529	36.6211	68.6154	36.6211	66.9452	36.6211	69.2227	36.6211	67.7687	36.6211	69.7267	36.6211	68.5468	36.6211	70.1087	36.6211	69.2249	36.6211	70.3534	36.6211	69.7684	36.6211	70.4484	36.6211	70.1578	36.6211	70.3848
38.0859	65.9187	38.0859	65.7723	38.0859	66.0489	38.0859	65.6413	38.0859	66.1412	38.0859	65.5663	38.0859	66.1847	38.0859	65.5911	38.0859	66.1797	38.0859	65.7533	38.0859	66.1402	38.0859	66.0724	38.0859	66.0963	38.0859	66.5421	38.0859	66.0964	38.0859	67.1326	38.0859	66.2012	38.0859	67.8005	38.0859	66.4673	38.0859	68.4996	38.0859	66.9211	38.0859	69.188	38.0859	67.5423	38.0859	69.8313	38.0859	68.2709	38.0859	70.4014	38.0859	69.0316	38.0859	70.8758	38.0859	69.7557	38.0859	71.2357	38.0859	70.3915	38.0859	71.4659	38.0859	70.9045	38.0859	71.554	38.0859	71.2745	38.0859	71.4916
39.5508	67.2979	39.5508	67.1917	39.5508	67.3987	39.5508	67.1069	39.5508	67.4752	39.5508	67.0761	39.5508	67.5179	39.5508	67.1331	39.5508	67.5274	39.5508	67.306	39.5508	67.5162	39.5508	67.6091	39.5508	67.5113	39.5508	68.0379	39.5508	67.5532	39.5508	68.5705	39.5508	67.6912	39.5508	69.1731	39.5508	67.9686	39.5508	69.8082	39.5508	68.4046	39.5508	70.4394	39.5508	68.9815	39.5508	71.0349	39.5508	69.6502	39.5508	71.5676	39.5508	70.3474	39.5508	72.0148	39.5508	71.0132	39.5508	72.3573	39.5508	71.5999	39.5508	72.5791	39.5508	72.0744	39.5508	72.6677	39.5508	72.416	39.5508	72.6146
41.0156	68.6417	41.0156	68.5579	41.0156	68.7254	41.0156	68.4962	41.0156	68.7935	41.0156	68.4834	41.0156	68.8379	41.0156	68.5474	41.0156	68.86	41.0156	68.7113	41.0156	68.8708	41.0156	68.9879	41.0156	68.8934	41.0156	69.3753	41.0156	68.9614	41.0156	69.8568	41.0156	69.1143	41.0156	70.4051	41.0156	69.3863	41.0156	70.9878	41.0156	69.7923	41.0156	71.5722	41.0156	70.3184	41.0156	72.1282	41.0156	70.9248	41.0156	72.6295	41.0156	71.5585	41.0156	73.0532	41.0156	72.1666	41.0156	73.38	41.0156	72.7052	41.0156	73.5941	41.0156	73.1422	41.0156	73.6829	41.0156	73.4569	41.0156	73.6382
42.4805	70.0859	42.4805	70.0096	42.4805	70.1637	42.4805	69.9537	42.4805	70.2298	42.4805	69.9407	42.4805	70.2774	42.4805	69.9943	42.4805	70.3074	42.4805	70.1352	42.4805	70.3297	42.4805	70.3757	42.4805	70.3634	42.4805	70.7167	42.4805	70.437	42.4805	71.1464	42.4805	70.5835	42.4805	71.6428	42.4805	70.8321	42.4805	72.1776	42.4805	71.1968	42.4805	72.721	42.4805	71.6681	42.4805	73.2438	42.4805	72.2141	42.4805	73.7198	42.4805	72.7892	42.4805	74.1258	42.4805	73.3459	42.4805	74.4418	42.4805	73.8426	42.4805	74.6513	42.4805	74.2474	42.4805	74.7418	42.4805	74.539	42.4805	74.7052
43.9453	71.3788	43.9453	71.3141	43.9453	71.4485	43.9453	71.2707	43.9453	71.5117	43.9453	71.2679	43.9453	71.5625	43.9453	71.326	43.9453	71.6019	43.9453	71.4627	43.9453	71.6381	43.9453	71.689	43.9453	71.6877	43.9453	72.0061	43.9453	71.7744	43.9453	72.4046	43.9453	71.9257	43.9453	72.8659	43.9453	72.166	43.9453	73.3653	43.9453	72.5071	43.9453	73.8755	43.9453	72.9423	43.9453	74.3693	43.9453	73.4453	43.9453	74.8215	43.9453	73.977	43.9453	75.209	43.9453	74.4946	43.9453	75.5122	43.9453	74.9591	43.9453	75.7144	43.9453	75.3396	43.9453	75.803	43.9453	75.6143	43.9453	75.7703
45.4102	72.4838	45.4102	72.4248	45.4102	72.5503	45.4102	72.3878	45.4102	72.6142	45.4102	72.3899	45.4102	72.67	45.4102	72.4488	45.4102	72.7184	45.4102	72.58	45.4102	72.7666	45.4102	72.7935	45.4102	72.8288	45.4102	73.0909	45.4102	72.9258	45.4102	73.4645	45.4102	73.0811	45.4102	73.8982	45.4102	73.3157	45.4102	74.3699	45.4102	73.6402	45.4102	74.8544	45.4102	74.0489	45.4102	75.326	45.4102	74.5191	45.4102	75.7602	45.4102	75.0161	45.4102	76.1347	45.4102	75.5008	45.4102	76.4297	45.4102	75.9365	45.4102	76.6287	45.4102	76.2934	45.4102	76.7193	45.4102	76.5502	45.4102	76.6938
46.875	73.676	46.875	73.6267	46.875	73.7353	46.875	73.5991	46.875	73.7962	46.875	73.607	46.875	73.8544	46.875	73.6651	46.875	73.9103	46.875	73.7863	46.875	73.9697	46.875	73.9793	46.875	74.0441	46.875	74.2465	46.875	74.1498	46.875	74.5824	46.875	74.3056	46.875	74.9741	46.875	74.5283	46.875	75.4031	46.875	74.8265	46.875	75.8473	46.875	75.1961	46.875	76.2832	46.875	75.619	46.875	76.6877	46.875	76.0663	46.875	77.0393	46.875	76.5038	46.875	77.3187	46.875	76.8985	46.875	77.5096	46.875	77.2222	46.875	77.5998	46.875	77.4543	46.875	77.5819
48.3398	74.6706	48.3398	74.6232	48.3398	74.7283	48.3398	74.5976	48.3398	74.7885	48.3398	74.6071	48.3398	74.8472	48.3398	74.6655	48.3398	74.9052	48.3398	74.7851	48.3398	74.9684	48.3398	74.9736	48.3398	75.0476	48.3398	75.233	48.3398	75.1582	48.3398	75.5576	48.3398	75.3169	48.3398	75.9353	48.3398	75.5385	48.3398	76.3484	48.3398	75.8299	48.3398	76.7761	48.3398	76.1868	48.3398	77.1961	48.3398	76.5919	48.3398	77.5864	48.3398	77.0186	48.3398	77.9262	48.3398	77.4351	48.3398	78.197	48.3398	77.8103	48.3398	78.3829	48.3398	78.1179	48.3398	78.4722	48.3398	78.3378	48.3398	78.4577
51.2695	76.7659	51.2695	76.7364	51.2695	76.8122	51.2695	76.7312	51.2695	76.8695	51.2695	76.7589	51.2695	76.935	51.2695	76.8283	51.2695	77.0087	51.2695	76.9468	51.2695	77.0937	51.2695	77.1189	51.2695	77.1966	51.2695	77.3457	51.2695	77.3262	51.2695	77.6235	51.2695	77.4923	51.2695	77.9438	51.2695	77.7031	51.2695	78.2942	51.2695	77.9625	51.2695	78.659	51.2695	78.2672	51.2695	79.0203	51.2695	78.6057	51.2695	79.3596	51.2695	78.9591	51.2695	79.6584	51.2695	79.3038	51.2695	79.8995	51.2695	79.6152	51.2695	80.0683	51.2695	79.8707	51.2695	80.1535	51.2695	80.0524	51.2695	80.1485
52.7344	77.6096	52.7344	77.5832	52.7344	77.6529	52.7344	77.5799	52.7344	77.7082	52.7344	77.607	52.7344	77.773	52.7344	77.6718	52.7344	77.8471	52.7344	77.7805	52.7344	77.9331	52.7344	77.9374	52.7344	78.0361	52.7344	78.1434	52.7344	78.163	52.7344	78.3959	52.7344	78.3217	52.7344	78.688	52.7344	78.519	52.7344	79.009	52.7344	78.7581	52.7344	79.345	52.7344	79.0363	52.7344	79.68	52.7344	79.3441	52.7344	79.9965	52.7344	79.6654	52.7344	80.2769	52.7344	79.9792	52.7344	80.5048	52.7344	80.2633	52.7344	80.6658	52.7344	80.4966	52.7344	80.7489	52.7344	80.662	52.7344	80.7479
54.1992	78.3602	54.1992	78.3372	54.1992	78.4004	54.1992	78.3367	54.1992	78.4541	54.1992	78.3646	54.1992	78.5191	54.1992	78.427	54.1992	78.5953	54.1992	78.5292	54.1992	78.6845	54.1992	78.675	54.1992	78.7906	54.1992	78.8656	54.1992	78.9191	54.1992	79.0991	54.1992	79.0761	54.1992	79.3697	54.1992	79.2669	54.1992	79.6684	54.1992	79.4938	54.1992	79.9827	54.1992	79.7544	54.1992	80.2979	54.1992	80.0405	54.1992	80.5976	54.1992	80.3376	54.1992	80.865	54.1992	80.6273	54.1992	81.0842	54.1992	80.8891	54.1992	81.241	54.1992	81.1032	54.1992	81.3248	54.1992	81.2537	54.1992	81.3293
55.6641	79.0402	55.6641	79.0198	55.6641	79.0776	55.6641	79.0207	55.6641	79.1289	55.6641	79.0478	55.6641	79.192	55.6641	79.1061	55.6641	79.2668	55.6641	79.2003	55.6641	79.3546	55.6641	79.3336	55.6641	79.4585	55.6641	79.5075	55.6641	79.5827	55.6641	79.7206	55.6641	79.7323	55.6641	79.9684	55.6641	79.9117	55.6641	80.2431	55.6641	80.1228	55.6641	80.5339	55.6641	80.3637	55.6641	80.8273	55.6641	80.627	55.6641	81.108	55.6641	80.9003	55.6641	81.3602	55.6641	81.1667	55.6641	81.5683	55.6641	81.4074	55.6641	81.7187	55.6641	81.6041	55.6641	81.8009	55.6641	81.7415	55.6641	81.8088
58.5938	80.1307	58.5938	80.1134	58.5938	80.1665	58.5938	80.1174	58.5938	80.2187	58.5938	80.146	58.5938	80.2859	58.5938	80.2025	58.5938	80.3678	58.5938	80.29	58.5938	80.4648	58.5938	80.4107	58.5938	80.5783	58.5938	80.5655	58.5938	80.7101	58.5938	80.7534	58.5938	80.8623	58.5938	80.9708	58.5938	81.0365	58.5938	81.2119	58.5938	81.2326	58.5938	81.4678	58.5938	81.4481	58.5938	81.7275	58.5938	81.677	58.5938	81.9782	58.5938	81.9093	58.5938	82.2061	58.5938	82.1321	58.5938	82.3973	58.5938	82.3304	58.5938	82.5397	58.5938	82.4896	58.5938	82.6234	58.5938	82.5967	58.5938	82.6427
60.0586	80.6099	60.0586	80.5927	60.0586	80.646	60.0586	80.5967	60.0586	80.6994	60.0586	80.6245	60.0586	80.7687	60.0586	80.6785	60.0586	80.8535	60.0586	80.761	60.0586	80.9536	60.0586	80.8738	60.0586	81.0694	60.0586	81.0174	60.0586	81.2019	60.0586	81.191	60.0586	81.3518	60.0586	81.3916	60.0586	81.5197	60.0586	81.6141	60.0586	81.7049	60.0586	81.8511	60.0586	81.905	60.0586	82.0926	60.0586	82.1145	60.0586	82.3271	60.0586	82.325	60.0586	82.5419	60.0586	82.5253	60.0586	82.724	60.0586	82.7022	60.0586	82.8617	60.0586	82.8425	60.0586	82.9457	60.0586	82.9347	60.0586	82.9703
62.9883	81.3985	62.9883	81.3794	62.9883	81.4367	62.9883	81.3808	62.9883	81.4929	62.9883	81.4039	62.9883	81.566	62.9883	81.4499	62.9883	81.655	62.9883	81.52	62.9883	81.7587	62.9883	81.615	62.9883	81.8762	62.9883	81.7352	62.9883	82.0067	62.9883	81.88	62.9883	82.1491	62.9883	82.0475	62.9883	82.3024	62.9883	82.2342	62.9883	82.4652	62.9883	82.4347	62.9883	82.6347	62.9883	82.6414	62.9883	82.807	62.9883	82.845	62.9883	82.9758	62.9883	83.0347	62.9883	83.1328	62.9883	83.1994	62.9883	83.2683	62.9883	83.3286	62.9883	83.372	62.9883	83.4137	62.9883	83.4346	62.9883	83.4495
64.4531	81.6619	64.4531	81.6424	64.4531	81.7002	64.4531	81.6425	64.4531	81.7564	64.4531	81.6631	64.4531	81.8296	64.4531	81.7051	64.4531	81.9185	64.4531	81.7691	64.4531	82.022	64.4531	81.8557	64.4531	82.1385	64.4531	81.9651	64.4531	82.2667	64.4531	82.0969	64.4531	82.4049	64.4531	82.2496	64.4531	82.5514	64.4531	82.4202	64.4531	82.7043	64.4531	82.6042	64.4531	82.8609	64.4531	82.7951	64.4531	83.0174	64.4531	82.9844	64.4531	83.1686	64.4531	83.1624	64.4531	83.3072	64.4531	83.3188	64.4531	83.425	64.4531	83.4435	64.4531	83.5128	64.4531	83.5286	64.4531	83.5627	64.4531	83.5688
67.3828	82.0397	67.3828	82.0211	67.3828	82.0772	67.3828	82.0215	67.3828	82.1332	67.3828	82.0409	67.3828	82.2073	67.3828	82.0793	67.3828	82.2981	67.3828	82.1368	67.3828	82.4039	67.3828	82.2133	67.3828	82.5226	67.3828	82.3088	67.3828	82.6514	67.3828	82.4229	67.3828	82.7874	67.3828	82.5545	67.3828	82.9276	67.3828	82.7017	67.3828	83.069	67.3828	82.8611	67.3828	83.2087	67.3828	83.0277	67.3828	83.343	67.3828	83.1949	67.3828	83.468	67.3828	83.3545	67.3828	83.5782	67.3828	83.4977	67.3828	83.6677	67.3828	83.6158	67.3828	83.7297	67.3828	83.7013	67.3828	83.7584	67.3828	83.7495
68.8477	82.14	68.8477	82.1233	68.8477	82.1763	68.8477	82.1261	68.8477	82.2323	68.8477	82.1479	68.8477	82.3074	68.8477	82.1884	68.8477	82.4004	68.8477	82.2469	68.8477	82.5092	68.8477	82.3233	68.8477	82.6313	68.8477	82.4171	68.8477	82.7634	68.8477	82.5275	68.8477	82.9018	68.8477	82.6537	68.8477	83.043	68.8477	82.7938	68.8477	83.1832	68.8477	82.9448	68.8477	83.3191	68.8477	83.1023	68.8477	83.4471	68.8477	83.2606	68.8477	83.5634	68.8477	83.4123	68.8477	83.6634	68.8477	83.5494	68.8477	83.7421	68.8477	83.6639	68.8477	83.7941	68.8477	83.7489	68.8477	83.8145	68.8477	83.7998
71.7773	82.4417	71.7773	82.4269	71.7773	82.4777	71.7773	82.4325	71.7773	82.535	71.7773	82.4572	71.7773	82.6131	71.7773	82.4994	71.7773	82.7101	71.7773	82.5576	71.7773	82.8233	71.7773	82.6305	71.7773	82.949	71.7773	82.7167	71.7773	83.0828	71.7773	82.8154	71.7773	83.22	71.7773	82.9254	71.7773	83.3558	71.7773	83.0455	71.7773	83.4859	71.7773	83.1738	71.7773	83.6066	71.7773	83.3075	71.7773	83.7145	71.7773	83.4426	71.7773	83.807	71.7773	83.5737	71.7773	83.8811	71.7773	83.6949	71.7773	83.934	71.7773	83.7995	71.7773	83.9628	71.7773	83.8818	71.7773	83.9645	71.7773	83.9375
74.707	82.7498	74.707	82.7381	74.707	82.7821	74.707	82.7454	74.707	82.8355	74.707	82.7699	74.707	82.9096	74.707	82.8092	74.707	83.0025	74.707	82.8612	74.707	83.1113	74.707	82.924	74.707	83.232	74.707	82.996	74.707	83.3594	74.707	83.0761	74.707	83.4882	74.707	83.1636	74.707	83.6129	74.707	83.2578	74.707	83.7285	74.707	83.358	74.707	83.8308	74.707	83.463	74.707	83.9168	74.707	83.5706	74.707	83.9844	74.707	83.6775	74.707	84.0323	74.707	83.7795	74.707	84.0594	74.707	83.8719	74.707	84.0649	74.707	83.9499	74.707	84.0483	74.707	84.0095
77.6367	82.9036	77.6367	82.891	77.6367	82.9367	77.6367	82.897	77.6367	82.9912	77.6367	82.9193	77.6367	83.0667	77.6367	82.955	77.6367	83.1613	77.6367	83.0014	77.6367	83.2718	77.6367	83.0558	77.6367	83.3935	77.6367	83.1165	77.6367	83.5206	77.6367	83.1821	77.6367	83.6469	77.6367	83.2519	77.6367	83.766	77.6367	83.3259	77.6367	83.8722	77.6367	83.4043	77.6367	83.9608	77.6367	83.4873	77.6367	84.0289	77.6367	83.5744	77.6367	84.0748	77.6367	83.6643	77.6367	84.0984	77.6367	83.7543	77.6367	84.1002	77.6367	83.8412	77.6367	84.0816	77.6367	83.921	77.6367	84.0442	77.6367	83.9897
79.1016	82.9946	79.1016	82.981	79.1016	83.0281	79.1016	82.9854	79.1016	83.0824	79.1016	83.0049	79.1016	83.1573	79.1016	83.0366	79.1016	83.2509	79.1016	83.0775	79.1016	83.3598	79.1016	83.125	79.1016	83.4791	79.1016	83.1771	79.1016	83.603	79.1016	83.2326	79.1016	83.7247	79.1016	83.291	79.1016	83.8377	79.1016	83.3527	79.1016	83.9361	79.1016	83.4185	79.1016	84.0153	79.1016	83.4891	79.1016	84.0722	79.1016	83.5649	79.1016	84.1057	79.1016	83.6453	79.1016	84.1161	79.1016	83.7287	79.1016	84.1049	79.1016	83.8121	79.1016	84.0742	79.1016	83.8921	79.1016	84.0265	79.1016	83.9648
82.0312	83.2221	82.0312	83.203	82.0312	83.2603	82.0312	83.201	82.0312	83.3186	82.0312	83.2134	82.0312	83.3964	82.0312	83.2371	82.0312	83.4918	82.0312	83.269	82.0312	83.6013	82.0312	83.3064	82.0312	83.7198	82.0312	83.3474	82.0312	83.8411	82.0312	83.3906	82.0312	83.9586	82.0312	83.4359	82.0312	84.0653	82.0312	83.4839	82.0312	84.1552	82.0312	83.5358	82.0312	84.2233	82.0312	83.5931	82.0312	84.2665	82.0312	83.6573	82.0312	84.2839	82.0312	83.7288	82.0312	84.2763	82.0312	83.8069	82.0312	84.2461	82.0312	83.8898	82.0312	84.1967	82.0312	83.9743	82.0312	84.132	82.0312	84.0564
84.9609	83.2534	84.9609	83.2402	84.9609	83.2889	84.9609	83.2466	84.9609	83.3479	84.9609	83.2691	84.9609	83.43	84.9609	83.3036	84.9609	83.5331	84.9609	83.346	84.9609	83.653	84.9609	83.3927	84.9609	83.7843	84.9609	83.4409	84.9609	83.92	84.9609	83.4886	84.9609	84.0524	84.9609	83.5353	84.9609	84.1736	84.9609	83.5816	84.9609	84.2762	84.9609	83.6293	84.9609	84.3539	84.9609	83.6808	84.9609	84.4025	84.9609	83.7385	84.9609	84.4204	84.9609	83.8045	84.9609	84.4082	84.9609	83.8796	84.9609	84.369	84.9609	83.963	84.9609	84.3077	84.9609	84.0522	84.9609	84.2303	84.9609	84.1431
87.8906	83.0876	87.8906	83.085	87.8906	83.1138	87.8906	83.1028	87.8906	83.1657	87.8906	83.1366	87.8906	83.2436	87.8906	83.1819	87.8906	83.346	87.8906	83.234	87.8906	83.4696	87.8906	83.2887	87.8906	83.6089	87.8906	83.3429	87.8906	83.7566	87.8906	83.3946	87.8906	83.904	87.8906	83.4431	87.8906	84.0417	87.8906	83.4891	87.8906	84.1606	87.8906	83.5346	87.8906	84.2528	87.8906	83.5827	87.8906	84.3127	87.8906	83.6365	87.8906	84.3377	87.8906	83.6991	87.8906	84.328	87.8906	83.7722	87.8906	84.2873	87.8906	83.8559	87.8906	84.2213	87.8906	83.948	87.8906	84.1376	87.8906	84.044
90.8203	83.402	90.8203	83.3969	90.8203	83.4285	90.8203	83.4095	90.8203	83.4786	90.8203	83.4351	90.8203	83.5532	90.8203	83.4687	90.8203	83.6508	90.8203	83.5054	90.8203	83.7677	90.8203	83.5409	90.8203	83.8981	90.8203	83.5717	90.8203	84.0339	90.8203	83.5958	90.8203	84.1657	90.8203	83.613	90.8203	84.2837	90.8203	83.6247	90.8203	84.3784	90.8203	83.6342	90.8203	84.4421	90.8203	83.6461	90.8203	84.4696	90.8203	83.666	90.8203	84.4593	90.8203	83.6992	90.8203	84.4131	90.8203	83.7502	90.8203	84.3365	90.8203	83.8208	90.8203	84.2378	90.8203	83.9105	90.8203	84.1272	90.8203	84.015
95.2148	83.6603	95.2148	83.6491	95.2148	83.688	95.2148	83.651	95.2148	83.7352	95.2148	83.6615	95.2148	83.803	95.2148	83.6763	95.2148	83.8906	95.2148	83.6912	95.2148	83.995	95.2148	83.7027	95.2148	84.1108	95.2148	83.708	95.2148	84.2301	95.2148	83.7057	95.2148	84.3437	95.2148	83.6959	95.2148	84.4414	95.2148	83.6804	95.2148	84.5135	95.2148	83.6627	95.2148	84.5519	95.2148	83.6481	95.2148	84.5514	95.2148	83.6429	95.2148	84.5107	95.2148	83.6539	95.2148	84.4332	95.2148	83.6871	95.2148	84.3261	95.2148	83.7462	95.2148	84.2001	95.2148	83.8322	95.2148	84.0679	95.2148	83.9418
98.1445	83.7202	98.1445	83.7083	98.1445	83.7486	98.1445	83.7097	98.1445	83.7956	98.1445	83.7205	98.1445	83.8623	98.1445	83.7365	98.1445	83.9474	98.1445	83.7536	98.1445	84.0482	98.1445	83.7679	98.1445	84.1591	98.1445	83.7766	98.1445	84.2729	98.1445	83.7776	98.1445	84.3808	98.1445	83.7707	98.1445	84.4732	98.1445	83.7571	98.1445	84.5408	98.1445	83.7403	98.1445	84.5759	98.1445	83.7251	98.1445	84.5739	98.1445	83.7178	98.1445	84.5335	98.1445	83.7252	98.1445	84.458	98.1445	83.7535	98.1445	84.3547	98.1445	83.8068	98.1445	84.234	98.1445	83.8861	98.1445	84.108	98.1445	83.9887
101.074	83.6982	101.074	83.6796	101.074	83.7354	101.074	83.6764	101.074	83.7929	101.074	83.6847	101.074	83.8707	101.074	83.6998	101.074	83.9665	101.074	83.7171	101.074	84.0762	101.074	83.7324	101.074	84.1936	101.074	83.742	101.074	84.3108	101.074	83.7436	101.074	84.4188	101.074	83.7365	101.074	84.5083	101.074	83.7219	101.074	84.5707	101.074	83.7031	101.074	84.599	101.074	83.6854	101.074	84.589	101.074	83.6755	101.074	84.5401	101.074	83.681	101.074	84.4558	101.074	83.7086	101.074	84.3437	101.074	83.7632	101.074	84.2144	101.074	83.846	101.074	84.0804	101.074	83.9541
105.469	83.9002	105.469	83.8785	105.469	83.9414	105.469	83.874	105.469	84.0029	105.469	83.8829	105.469	84.0836	105.469	83.9001	105.469	84.1807	105.469	83.9201	105.469	84.2898	105.469	83.9376	105.469	84.4049	105.469	83.948	105.469	84.5185	105.469	83.948	105.469	84.6219	105.469	83.9364	105.469	84.7057	105.469	83.9142	105.469	84.7612	105.469	83.885	105.469	84.7808	105.469	83.8545	105.469	84.7604	105.469	83.8306	105.469	84.6995	105.469	83.8219	105.469	84.6022	105.469	83.8366	105.469	84.4773	105.469	83.8811	105.469	84.3369	105.469	83.9578	105.469	84.1948	105.469	84.0647
108.398	84.0821	108.398	84.0639	108.398	84.11	108.398	84.0528	108.398	84.1495	108.398	84.0452	108.398	84.2015	108.398	84.0372	108.398	84.2655	108.398	84.0247	108.398	84.3392	108.398	84.004	108.398	84.4189	108.398	83.9723	108.398	84.4985	108.398	83.9281	108.398	84.5704	108.398	83.8719	108.398	84.6258	108.398	83.8062	108.398	84.6559	108.398	83.7359	108.398	84.6529	108.398	83.6685	108.398	84.6116	108.398	83.6132	108.398	84.5307	108.398	83.5799	108.398	84.4138	108.398	83.5781	108.398	84.2693	108.398	83.6145	108.398	84.1097	108.398	83.6918	108.398	83.9503	108.398	83.8066
112.793	84.2359	112.793	84.2255	112.793	84.2602	112.793	84.2254	112.793	84.3003	112.793	84.2312	112.793	84.3564	112.793	84.2375	112.793	84.427	112.793	84.2388	112.793	84.5084	112.793	84.2298	112.793	84.5952	112.793	84.2061	112.793	84.6802	112.793	84.1648	112.793	84.7545	112.793	84.1054	112.793	84.8085	112.793	84.0298	112.793	84.8329	112.793	83.9431	112.793	84.8197	112.793	83.8534	112.793	84.764	112.793	83.7718	112.793	84.6653	112.793	83.7108	112.793	84.5286	112.793	83.6827	112.793	84.3645	112.793	83.6976	112.793	84.1881	112.793	83.7606	112.793	84.0174	112.793	83.87
117.188	84.3745	117.188	84.3564	117.188	84.4005	117.188	84.3433	117.188	84.4362	117.188	84.3315	117.188	84.4824	117.188	84.3168	117.188	84.5386	117.188	84.2945	117.188	84.6031	117.188	84.2604	117.188	84.6725	117.188	84.2115	117.188	84.7415	117.188	84.1462	117.188	84.803	117.188	84.0651	117.188	84.848	117.188	83.9718	117.188	84.8671	117.188	83.8723	117.188	84.8518	117.188	83.7759	117.188	84.796	117.188	83.6939	117.188	84.6975	117.188	83.6388	117.188	84.5596	117.188	83.6222	117.188	84.3913	117.188	83.6528	117.188	84.2069	117.188	83.7336	117.188	84.0239	117.188	83.8609
120.117	84.4867	120.117	84.4695	120.117	84.5092	120.117	84.4546	120.117	84.539	120.117	84.4381	120.117	84.5769	120.117	84.4157	120.117	84.6224	120.117	84.3825	120.117	84.6737	120.117	84.3342	120.117	84.7271	120.117	84.2675	120.117	84.7771	120.117	84.1808	120.117	84.8161	120.117	84.0746	120.117	84.8352	120.117	83.9525	120.117	84.8253	120.117	83.821	120.117	84.7785	120.117	83.6902	120.117	84.6895	120.117	83.5727	120.117	84.5578	120.117	83.483	120.117	84.3884	120.117	83.4351	120.117	84.1926	120.117	83.4403	120.117	83.9867	120.117	83.5041	120.117	83.7906	120.117	83.6242
124.512	84.5158	124.512	84.4864	124.512	84.5517	124.512	84.4607	124.512	84.5955	124.512	84.4354	124.512	84.6477	124.512	84.4063	124.512	84.7075	124.512	84.3685	124.512	84.7723	124.512	84.3175	124.512	84.8378	124.512	84.2494	124.512	84.8974	124.512	84.162	124.512	84.9426	124.512	84.0551	124.512	84.9636	124.512	83.9316	124.512	84.9504	124.512	83.7978	124.512	84.8948	124.512	83.6633	124.512	84.7916	124.512	83.5415	124.512	84.6411	124.512	83.4475	124.512	84.4495	124.512	83.397	124.512	84.2299	124.512	83.4026	124.512	84.0009	124.512	83.4714	124.512	83.7844	124.512	83.602
128.906	84.3511	128.906	84.3271	128.906	84.3832	128.906	84.3083	128.906	84.4257	128.906	84.2906	128.906	84.4795	128.906	84.2697	128.906	84.5441	128.906	84.2407	128.906	84.6169	128.906	84.1991	128.906	84.6934	128.906	84.1412	128.906	84.7665	128.906	84.0646	128.906	84.8269	128.906	83.9689	128.906	84.8639	128.906	83.8566	128.906	84.8666	128.906	83.7333	128.906	84.8254	128.906	83.6084	128.906	84.7347	128.906	83.4944	128.906	84.5938	128.906	83.4064	128.906	84.409	128.906	83.3597	128.906	84.1937	128.906	83.3677	128.906	83.9668	128.906	83.4377	128.906	83.7511	128.906	83.5688
133.301	84.2872	133.301	84.2507	133.301	84.3369	133.301	84.2256	133.301	84.4008	133.301	84.2085	133.301	84.478	133.301	84.195	133.301	84.5665	133.301	84.18	133.301	84.6625	133.301	84.1584	133.301	84.7604	133.301	84.1251	133.301	84.8529	133.301	84.0763	133.301	84.9308	133.301	84.0104	133.301	84.9835	133.301	83.9283	133.301	85.0003	133.301	83.8343	133.301	84.9721	133.301	83.7365	133.301	84.8931	133.301	83.6467	133.301	84.7631	133.301	83.5788	133.301	84.5884	133.301	83.5479	133.301	84.3821	133.301	83.5666	133.301	84.1632	133.301	83.6421	133.301	83.9534	133.301	83.7742
139.16	84.4012	139.16	84.3539	139.16	84.4581	139.16	84.3154	139.16	84.5239	139.16	84.2837	139.16	84.5967	139.16	84.2549	139.16	84.6743	139.16	84.2242	139.16	84.7537	139.16	84.1863	139.16	84.8312	139.16	84.1362	139.16	84.9018	139.16	84.0701	139.16	84.9584	139.16	83.9866	139.16	84.992	139.16	83.887	139.16	84.9927	139.16	83.7765	139.16	84.9511	139.16	83.6639	139.16	84.8607	139.16	83.5616	139.16	84.72	139.16	83.4847	139.16	84.5348	139.16	83.4482	139.16	84.3177	139.16	83.4653	139.16	84.088	139.16	83.543	139.16	83.8682	139.16	83.6806
143.555	84.5129	143.555	84.4729	143.555	84.5584	143.555	84.4375	143.555	84.6089	143.555	84.4044	143.555	84.6634	143.555	84.3698	143.555	84.7204	143.555	84.3285	143.555	84.7785	143.555	84.2752	143.555	84.8354	143.555	84.2052	143.555	84.8871	143.555	84.1153	143.555	84.9273	143.555	84.0048	143.555	84.9473	143.555	83.8766	143.555	84.9368	143.555	83.7373	143.555	84.8856	143.555	83.5977	143.555	84.7866	143.555	83.4718	143.555	84.6377	143.555	83.3763	143.555	84.444	143.555	83.3272	143.555	84.2181	143.555	83.3379	143.555	83.9793	143.555	83.415	143.555	83.751	143.555	83.5565
147.949	84.4745	147.949	84.4196	147.949	84.53	147.949	84.3657	147.949	84.5855	147.949	84.3121	147.949	84.6407	147.949	84.257	147.949	84.6957	147.949	84.197	147.949	84.7506	147.949	84.128	147.949	84.8045	147.949	84.0457	147.949	84.8539	147.949	83.9468	147.949	84.892	147.949	83.83	147.949	84.9088	147.949	83.6973	147.949	84.8923	147.949	83.554	147.949	84.831	147.949	83.4101	147.949	84.717	147.949	83.2795	147.949	84.5486	147.949	83.1789	147.949	84.3321	147.949	83.1258	147.949	84.0822	147.949	83.1349	147.949	83.8206	147.949	83.2147	147.949	83.573	147.949	83.3644
153.809	84.1547	153.809	84.1051	153.809	84.2033	153.809	84.0544	153.809	84.2522	153.809	84.002	153.809	84.3032	153.809	83.9471	153.809	84.3595	153.809	83.8876	153.809	84.4236	153.809	83.8212	153.809	84.4966	153.809	83.7451	153.809	84.5759	153.809	83.6578	153.809	84.6544	153.809	83.5593	153.809	84.7206	153.809	83.4523	153.809	84.7596	153.809	83.343	153.809	84.7569	153.809	83.2411	153.809	84.7004	153.809	83.1591	153.809	84.5846	153.809	83.1117	153.809	84.4119	153.809	83.1127	153.809	84.1936	153.809	83.1726	153.809	83.9486	153.809	83.2955	153.809	83.7012	153.809	83.4763
159.668	84.3429	159.668	84.2935	159.668	84.3949	159.668	84.2458	159.668	84.4499	159.668	84.1988	159.668	84.5088	159.668	84.1504	159.668	84.5728	159.668	84.0972	159.668	84.6423	159.668	84.0352	159.668	84.7163	159.668	83.96	159.668	84.791	159.668	83.8683	159.668	84.8589	159.668	83.7589	159.668	84.9089	159.668	83.6343	159.668	84.9273	159.668	83.5009	159.668	84.9007	159.668	83.3702	159.668	84.8187	159.668	83.2576	159.668	84.6772	159.668	83.1806	159.668	84.4801	159.668	83.1563	159.668	84.2401	159.668	83.1977	159.668	83.9777	159.668	83.3099	159.668	83.7183	159.668	83.4883
165.527	84.3517	165.527	84.302	165.527	84.4026	165.527	84.2551	165.527	84.4526	165.527	84.2113	165.527	84.5006	165.527	84.169	165.527	84.5467	165.527	84.1246	165.527	84.5923	165.527	84.0733	165.527	84.6386	165.527	84.0098	165.527	84.6851	165.527	83.9298	165.527	84.7282	165.527	83.8316	165.527	84.7595	165.527	83.7168	165.527	84.7678	165.527	83.5917	165.527	84.7402	165.527	83.4665	165.527	84.6665	165.527	83.3556	165.527	84.5417	165.527	83.2752	165.527	84.3683	165.527	83.2413	165.527	84.1574	165.527	83.266	165.527	83.9276	165.527	83.3549	165.527	83.702	165.527	83.5044
171.387	84.2648	171.387	84.2046	171.387	84.3232	171.387	84.1449	171.387	84.3779	171.387	84.087	171.387	84.4281	171.387	84.03	171.387	84.4745	171.387	83.9713	171.387	84.5193	171.387	83.9063	171.387	84.5641	171.387	83.8302	171.387	84.6083	171.387	83.7386	171.387	84.6478	171.387	83.6301	171.387	84.6733	171.387	83.5065	171.387	84.6728	171.387	83.3743	171.387	84.6331	171.387	83.2444	171.387	84.5444	171.387	83.1315	171.387	84.4028	171.387	83.052	171.387	84.2126	171.387	83.0216	171.387	83.9865	171.387	83.0516	171.387	83.744	171.387	83.1467	171.387	83.5085	171.387	83.303
177.246	84.3443	177.246	84.2555	177.246	84.4244	177.246	84.1619	177.246	84.4919	177.246	84.0669	177.246	84.5444	177.246	83.9723	177.246	84.5812	177.246	83.8778	177.246	84.6037	177.246	83.7818	177.246	84.6144	177.246	83.682	177.246	84.6154	177.246	83.5763	177.246	84.607	177.246	83.4642	177.246	84.586	177.246	83.3477	177.246	84.5463	177.246	83.2318	177.246	84.4797	177.246	83.1247	177.246	84.3789	177.246	83.0371	177.246	84.2398	177.246	82.9811	177.246	84.0644	177.246	82.9684	177.246	83.861	177.246	83.0074	177.246	83.6445	177.246	83.1014	177.246	83.4333	177.246	83.2469
183.105	84.2938	183.105	84.2259	183.105	84.3523	183.105	84.1506	183.105	84.3999	183.105	84.0691	183.105	84.4365	183.105	83.9811	183.105	84.4633	183.105	83.8844	183.105	84.4826	183.105	83.7755	183.105	84.4958	183.105	83.6509	183.105	84.5016	183.105	83.5085	183.105	84.4947	183.105	83.3492	183.105	84.4658	183.105	83.1779	183.105	84.4037	183.105	83.0041	183.105	84.299	183.105	82.8407	183.105	84.1468	183.105	82.7031	183.105	83.9498	183.105	82.6063	183.105	83.7183	183.105	82.5629	183.105	83.4684	183.105	82.5804	183.105	83.2197	183.105	82.6609	183.105	82.9915	183.105	82.8008
188.965	84.0568	188.965	84.0084	188.965	84.0903	188.965	83.946	188.965	84.1096	188.965	83.8703	188.965	84.1178	188.965	83.7815	188.965	84.1212	188.965	83.6789	188.965	84.1284	188.965	83.5613	188.965	84.1476	188.965	83.4282	188.965	84.1827	188.965	83.2804	188.965	84.2297	188.965	83.1211	188.965	84.2757	188.965	82.9567	188.965	84.3011	188.965	82.7969	188.965	84.2847	188.965	82.654	188.965	84.2097	188.965	82.5422	188.965	84.0686	188.965	82.4757	188.965	83.8652	188.965	82.4667	188.965	83.6151	188.965	82.523	188.965	83.3419	188.965	82.6473	188.965	83.0732	188.965	82.8349
196.289	84.1812	196.289	84.1098	196.289	84.2355	196.289	84.0249	196.289	84.2703	196.289	83.9295	196.289	84.2849	196.289	83.8252	196.289	84.2813	196.289	83.7119	196.289	84.2646	196.289	83.5883	196.289	84.2408	196.289	83.4528	196.289	84.2157	196.289	83.3047	196.289	84.1916	196.289	83.146	196.289	84.1656	196.289	82.9821	196.289	84.1296	196.289	82.8225	196.289	84.0721	196.289	82.6801	196.289	83.9822	196.289	82.5695	196.289	83.8524	196.289	82.5044	196.289	83.6822	196.289	82.4956	196.289	83.4784	196.289	82.5484	196.289	83.2551	196.289	82.6615	196.289	83.0312	196.289	82.8271
203.613	84.2473	203.613	84.1641	203.613	84.3033	203.613	84.0579	203.613	84.3284	203.613	83.9324	203.613	84.322	203.613	83.7899	203.613	84.2868	203.613	83.6306	203.613	84.2293	203.613	83.4545	203.613	84.1573	203.613	83.2621	203.613	84.0776	203.613	83.0563	203.613	83.9929	203.613	82.8435	203.613	83.9011	203.613	82.6344	203.613	83.7962	203.613	82.4426	203.613	83.6715	203.613	82.2834	203.613	83.5233	203.613	82.1706	203.613	83.3525	203.613	82.1132	203.613	83.1646	203.613	82.1144	203.613	82.968	203.613	82.1708	203.613	82.7717	203.613	82.2746	203.613	82.5848	203.613	82.4159
210.938	84.0278	210.938	83.9606	210.938	84.0714	210.938	83.8732	210.938	84.0896	210.938	83.7685	210.938	84.0835	210.938	83.6484	210.938	84.0572	210.938	83.5128	210.938	84.0177	210.938	83.3606	210.938	83.9727	210.938	83.1901	210.938	83.9274	210.938	83.0012	210.938	83.8816	210.938	82.7972	210.938	83.8282	210.938	82.5857	210.938	83.7552	210.938	82.3794	210.938	83.6499	210.938	82.1946	210.938	83.5033	210.938	82.0487	210.938	83.3148	210.938	81.9562	210.938	83.0926	210.938	81.926	210.938	82.8521	210.938	81.9596	210.938	82.6119	210.938	82.0533	210.938	82.3896	210.938	82.1997
218.262	83.7033	218.262	83.6326	218.262	83.7529	218.262	83.5456	218.262	83.7786	218.262	83.4468	218.262	83.7808	218.262	83.3387	218.262	83.7645	218.262	83.2219	218.262	83.7386	218.262	83.0953	218.262	83.7132	218.262	82.9575	218.262	83.6957	218.262	82.8082	218.262	83.6869	218.262	82.65	218.262	83.6794	218.262	82.4889	218.262	83.6592	218.262	82.3347	218.262	83.6106	218.262	82.2	218.262	83.5211	218.262	82.0984	218.262	83.3857	218.262	82.0421	218.262	83.2079	218.262	82.0398	218.262	82.9994	218.262	82.0948	218.262	82.7768	218.262	82.2049	218.262	82.5588	218.262	82.3632
225.586	83.8266	225.586	83.7313	225.586	83.8891	225.586	83.6109	225.586	83.9136	225.586	83.4734	225.586	83.8998	225.586	83.3253	225.586	83.8528	225.586	83.1705	225.586	83.7829	225.586	83.0103	225.586	83.7032	225.586	82.8446	225.586	83.6254	225.586	82.6738	225.586	83.5558	225.586	82.5007	225.586	83.4921	225.586	82.3319	225.586	83.4254	225.586	82.1781	225.586	83.3438	225.586	82.0524	225.586	83.2383	225.586	81.9678	225.586	83.1062	225.586	81.9335	225.586	82.9512	225.586	81.9526	225.586	82.7813	225.586	82.0215	225.586	82.6057	225.586	82.1315	225.586	82.4331	225.586	82.2721
232.91	83.8827	232.91	83.7888	232.91	83.9401	232.91	83.6652	232.91	83.9548	232.91	83.5181	232.91	83.9243	232.91	83.3518	232.91	83.8508	232.91	83.1683	232.91	83.7416	232.91	82.9691	232.91	83.6087	232.91	82.7566	232.91	83.4658	232.91	82.5362	232.91	83.324	232.91	82.3175	232.91	83.1887	232.91	82.1133	232.91	83.0583	232.91	81.938	232.91	82.9265	232.91	81.8041	232.91	82.7871	232.91	81.7193	232.91	82.6381	232.91	81.685	232.91	82.483	232.91	81.697	232.91	82.3287	232.91	81.7473	232.91	82.1821	232.91	81.8271	232.91	82.0479	232.91	81.9288
241.699	83.6021	241.699	83.4753	241.699	83.6928	241.699	83.3203	241.699	83.7415	241.699	83.1452	241.699	83.7461	241.699	82.956	241.699	83.7089	241.699	82.7559	241.699	83.6357	241.699	82.5456	241.699	83.5347	241.699	82.3259	241.699	83.4127	241.699	82.0992	241.699	83.2733	241.699	81.8723	241.699	83.1157	241.699	81.6566	241.699	82.9365	241.699	81.4673	241.699	82.7345	241.699	81.3192	241.699	82.514	241.699	81.2233	241.699	82.2864	241.699	81.183	241.699	82.0662	241.699	81.1934	241.699	81.8664	241.699	81.2443	241.699	81.6939	241.699	81.3244	241.699	81.5484	241.699	81.4263
250.488	83.743	250.488	83.5774	250.488	83.8635	250.488	83.3784	250.488	83.9296	250.488	83.1574	250.488	83.9369	250.488	82.9221	250.488	83.8882	250.488	82.6761	250.488	83.7932	250.488	82.4186	250.488	83.6664	250.488	82.147	250.488	83.5229	250.488	81.8605	250.488	83.3733	250.488	81.5639	250.488	83.2193	250.488	81.2708	250.488	83.0546	250.488	81.0038	250.488	82.869	250.488	80.7905	250.488	82.6549	250.488	80.6553	250.488	82.412	250.488	80.6106	250.488	82.1481	250.488	80.6526	250.488	81.8763	250.488	80.7656	250.488	81.61	250.488	80.9302	250.488	81.3595	250.488	81.1312
259.277	83.6641	259.277	83.4894	259.277	83.7903	259.277	83.277	259.277	83.8614	259.277	83.0392	259.277	83.8761	259.277	82.7873	259.277	83.8391	259.277	82.5303	259.277	83.7603	259.277	82.2739	259.277	83.6519	259.277	82.0222	259.277	83.5242	259.277	81.7788	259.277	83.3811	259.277	81.5491	259.277	83.2189	259.277	81.3405	259.277	83.0286	259.277	81.1622	259.277	82.8032	259.277	81.024	259.277	82.545	259.277	80.9338	259.277	82.2684	259.277	80.8963	259.277	81.9952	259.277	80.9109	259.277	81.7457	259.277	80.9717	259.277	81.5304	259.277	81.0695	259.277	81.349	259.277	81.1964
268.066	83.4699	268.066	83.3029	268.066	83.5809	268.066	83.0852	268.066	83.6333	268.066	82.8234	268.066	83.629	268.066	82.5249	268.066	83.5764	268.066	82.1985	268.066	83.4902	268.066	81.8559	268.066	83.3881	268.066	81.5128	268.066	83.2844	268.066	81.1894	268.066	83.182	268.066	80.9071	268.066	83.0694	268.066	80.6846	268.066	82.9248	268.066	80.5324	268.066	82.7284	268.066	80.4504	268.066	82.4742	268.066	80.4306	268.066	82.1761	268.066	80.4612	268.066	81.8633	268.066	80.5311	268.066	81.5672	268.066	80.6322	268.066	81.3085	268.066	80.7593	268.066	81.0918	268.066	80.9112
276.855	83.4591	276.855	83.3431	276.855	83.5201	276.855	83.1793	276.855	83.5209	276.855	82.974	276.855	83.4625	276.855	82.7286	276.855	83.3535	276.855	82.4398	276.855	83.2107	276.855	82.102	276.855	83.056	276.855	81.7137	276.855	82.9121	276.855	81.2848	276.855	82.7943	276.855	80.8446	276.855	82.7032	276.855	80.4434	276.855	82.6217	276.855	80.1418	276.855	82.5214	276.855	79.9863	276.855	82.376	276.855	79.9856	276.855	82.1744	276.855	80.1075	276.855	81.9262	276.855	80.3	276.855	81.6578	276.855	80.5174	276.855	81.3976	276.855	80.7336	276.855	81.1609	276.855	80.9444
287.109	83.2224	287.109	83.0981	287.109	83.2895	287.109	82.9296	287.109	83.2925	287.109	82.7317	287.109	83.2327	287.109	82.5157	287.109	83.1188	287.109	82.2844	287.109	82.9657	287.109	82.0306	287.109	82.7913	287.109	81.7411	287.109	82.6128	287.109	81.4051	287.109	82.4435	287.109	81.0245	287.109	82.2909	287.109	80.6248	287.109	82.157	287.109	80.2581	287.109	82.0401	287.109	79.994	287.109	81.935	287.109	79.8903	287.109	81.8332	287.109	79.9615	287.109	81.7241	287.109	80.1701	287.109	81.5964	287.109	80.4516	287.109	81.4407	287.109	80.7467	287.109	81.2496	287.109	81.0179
297.363	83.4601	297.363	83.2961	297.363	83.5449	297.363	83.0641	297.363	83.5428	297.363	82.7764	297.363	83.453	297.363	82.4455	297.363	83.284	297.363	82.0849	297.363	83.0545	297.363	81.7085	297.363	82.7897	297.363	81.3302	297.363	82.5145	297.363	80.9627	297.363	82.2464	297.363	80.6172	297.363	81.992	297.363	80.305	297.363	81.7504	297.363	80.0401	297.363	81.5206	297.363	79.8404	297.363	81.3062	297.363	79.7247	297.363	81.1112	297.363	79.7039	297.363	80.9338	297.363	79.7718	297.363	80.7662	297.363	79.905	297.363	80.5995	297.363	80.0733	297.363	80.4286	297.363	80.2521
307.617	83.2845	307.617	83.1157	307.617	83.3968	307.617	82.908	307.617	83.4355	307.617	82.6743	307.617	83.3904	307.617	82.4185	307.617	83.2621	307.617	82.1366	307.617	83.0644	307.617	81.82	307.617	82.8227	307.617	81.4615	307.617	82.5663	307.617	81.0614	307.617	82.3158	307.617	80.6327	307.617	82.0727	307.617	80.2054	307.617	81.8219	307.617	79.8245	307.617	81.5481	307.617	79.5405	307.617	81.2569	307.617	79.391	307.617	80.9782	307.617	79.3845	307.617	80.747	307.617	79.4974	307.617	80.5728	307.617	79.6859	307.617	80.4317	307.617	79.9028	307.617	80.2858	307.617	80.1099
319.336	82.9511	319.336	82.745	319.336	83.0883	319.336	82.4903	319.336	83.143	319.336	82.2092	319.336	83.1114	319.336	81.9193	319.336	82.998	319.336	81.6282	319.336	82.8142	319.336	81.3327	319.336	82.5742	319.336	81.0228	319.336	82.2938	319.336	80.6911	319.336	81.9882	319.336	80.3438	319.336	81.671	319.336	80.0071	319.336	81.3535	319.336	79.7257	319.336	81.0476	319.336	79.5473	319.336	80.7706	319.336	79.4988	319.336	80.5453	319.336	79.5703	319.336	80.3904	319.336	79.7203	319.336	80.3053	319.336	79.8961	319.336	80.265	319.336	80.0532	319.336	80.2303	319.336	80.1658
329.59	82.5757	329.59	82.4136	329.59	82.681	329.59	82.2135	329.59	82.7154	329.59	81.9926	329.59	82.6728	329.59	81.761	329.59	82.557	329.59	81.5169	329.59	82.3818	329.59	81.2471	329.59	82.1669	329.59	80.9334	329.59	81.9306	329.59	80.5623	329.59	81.6811	329.59	80.1363	329.59	81.4112	329.59	79.6835	329.59	81.1055	329.59	79.2614	329.59	80.7572	329.59	78.9476	329.59	80.3878	329.59	78.8095	329.59	80.0522	329.59	78.8643	329.59	79.8166	329.59	79.0634	329.59	79.7123	329.59	79.3177	329.59	79.7059	329.59	79.5406	329.59	79.7195	329.59	79.6774
341.309	82.7458	341.309	82.5423	341.309	82.8619	341.309	82.268	341.309	82.8833	341.309	81.9433	341.309	82.8148	341.309	81.5878	341.309	82.6748	341.309	81.2154	341.309	82.4913	341.309	80.8326	341.309	82.2933	341.309	80.4401	341.309	82.0993	341.309	80.039	341.309	81.9072	341.309	79.6384	341.309	81.6944	341.309	79.2599	341.309	81.4306	341.309	78.9383	341.309	81.1001	341.309	78.7149	341.309	80.719	341.309	78.6236	341.309	80.337	341.309	78.6742	341.309	80.017	341.309	78.841	341.309	79.7986	341.309	79.0683	341.309	79.6709	341.309	79.2916	341.309	79.5799	341.309	79.4649
353.027	82.4717	353.027	82.2685	353.027	82.5841	353.027	81.9948	353.027	82.5958	353.027	81.6742	353.027	82.5118	353.027	81.3253	353.027	82.3527	353.027	80.9573	353.027	82.1502	353.027	80.5686	353.027	81.9395	353.027	80.1515	353.027	81.7462	353.027	79.7017	353.027	81.5705	353.027	79.2296	353.027	81.38	353.027	78.7706	353.027	81.1235	353.027	78.386	353.027	80.7621	353.027	78.1447	353.027	80.3038	353.027	78.0906	353.027	79.8205	353.027	78.2148	353.027	79.4267	353.027	78.457	353.027	79.2066	353.027	78.7328	353.027	79.1451	353.027	78.9644	353.027	79.1448	353.027	79.1027
366.211	82.6643	366.211	82.405	366.211	82.836	366.211	82.0835	366.211	82.8989	366.211	81.7243	366.211	82.8382	366.211	81.3441	366.211	82.6466	366.211	80.9459	366.211	82.3291	366.211	80.5198	366.211	81.9122	366.211	80.05	366.211	81.4516	366.211	79.5274	366.211	81.0256	366.211	78.9654	366.211	80.7002	366.211	78.4097	366.211	80.4855	366.211	77.9358	366.211	80.3272	366.211	77.6218	366.211	80.1466	366.211	77.507	366.211	79.891	366.211	77.5696	366.211	79.5589	366.211	77.745	366.211	79.1956	366.211	77.9635	366.211	78.8629	366.211	78.1786	366.211	78.5955	366.211	78.3805
379.395	82.4312	379.395	82.1809	379.395	82.6193	379.395	81.8942	379.395	82.7233	379.395	81.5938	379.395	82.7279	379.395	81.2894	379.395	82.6258	379.395	80.9724	379.395	82.4184	379.395	80.6198	379.395	82.1176	379.395	80.207	379.395	81.744	379.395	79.7245	379.395	81.3195	379.395	79.1915	379.395	80.8594	379.395	78.6632	379.395	80.3729	379.395	78.2234	379.395	79.8807	379.395	77.9563	379.395	79.4368	379.395	77.9053	379.395	79.1249	379.395	78.0502	379.395	79.0035	379.395	78.3222	379.395	79.0427	379.395	78.6367	379.395	79.1371	379.395	78.9176	379.395	79.179	379.395	79.1084
392.578	82.2156	392.578	81.9632	392.578	82.3815	392.578	81.6473	392.578	82.443	392.578	81.2943	392.578	82.3894	392.578	80.9286	392.578	82.2221	392.578	80.5627	392.578	81.9605	392.578	80.1891	392.578	81.6417	392.578	79.7817	392.578	81.3085	392.578	79.3092	392.578	80.9876	392.578	78.7572	392.578	80.6739	392.578	78.1529	392.578	80.3341	392.578	77.5816	392.578	79.9309	392.578	77.1723	392.578	79.4538	392.578	77.0303	392.578	78.9446	392.578	77.1571	392.578	78.4982	392.578	77.4489	392.578	78.2168	392.578	77.7695	392.578	78.1256	392.578	78.0137	392.578	78.1397	392.578	78.1316
405.762	81.9643	405.762	81.7533	405.762	82.0623	405.762	81.4588	405.762	82.0261	405.762	81.1091	405.762	81.8532	405.762	80.7235	405.762	81.5701	405.762	80.3068	405.762	81.2364	405.762	79.8487	405.762	80.9334	405.762	79.3309	405.762	80.7297	405.762	78.7403	405.762	80.6343	405.762	78.0858	405.762	80.5764	405.762	77.4158	405.762	80.4429	405.762	76.8302	405.762	80.1478	405.762	76.466	405.762	79.6859	405.762	76.4283	405.762	79.146	405.762	76.7034	405.762	78.6752	405.762	77.158	405.762	78.3888	405.762	77.6269	405.762	78.2872	405.762	77.9895	405.762	78.2655	405.762	78.1953
420.41	81.9995	420.41	81.7846	420.41	82.1	420.41	81.4805	420.41	82.0775	420.41	81.122	420.41	81.9431	420.41	80.7433	420.41	81.7244	420.41	80.3672	420.41	81.4556	420.41	79.9971	420.41	81.1666	420.41	79.6149	420.41	80.877	420.41	79.1887	420.41	80.5935	420.41	78.6902	420.41	80.3039	420.41	78.1189	420.41	79.9772	420.41	77.5249	420.41	79.5836	420.41	77.0183	420.41	79.1321	420.41	76.7373	420.41	78.6943	420.41	76.7628	420.41	78.3769	420.41	77.0491	420.41	78.2373	420.41	77.4552	420.41	78.2221	420.41	77.835	420.41	78.2096	420.41	78.095
435.059	81.7444	435.059	81.5107	435.059	81.8764	435.059	81.202	435.059	81.8901	435.059	80.8471	435.059	81.7831	435.059	80.4662	435.059	81.5669	435.059	80.0633	435.059	81.2678	435.059	79.6282	435.059	80.929	435.059	79.1484	435.059	80.6044	435.059	78.6264	435.059	80.3268	435.059	78.0927	435.059	80.0734	435.059	77.608	435.059	79.773	435.059	77.248	435.059	79.3605	435.059	77.073	435.059	78.8377	435.059	77.099	435.059	78.3096	435.059	77.291	435.059	77.9529	435.059	77.5802	435.059	77.8776	435.059	77.884	435.059	78.0109	435.059	78.121	435.059	78.1734	435.059	78.2258
451.172	81.9621	451.172	81.6633	451.172	82.1402	451.172	81.2741	451.172	82.1742	451.172	80.8304	451.172	82.0455	451.172	80.3622	451.172	81.7455	451.172	79.8744	451.172	81.2878	451.172	79.3373	451.172	80.7247	451.172	78.6994	451.172	80.1547	451.172	77.9155	451.172	79.6957	451.172	76.9754	451.172	79.4041	451.172	75.9436	451.172	79.2004	451.172	75.0191	451.172	78.9046	451.172	74.5343	451.172	78.3588	451.172	74.7085	451.172	77.5437	451.172	75.3741	451.172	76.6735	451.172	76.1608	451.172	76.1713	451.172	76.7868	451.172	76.2745	451.172	77.1051	451.172	76.7111	451.172	77.0633
465.82	82.0704	465.82	81.775	465.82	82.2324	465.82	81.3789	465.82	82.2379	465.82	80.9143	465.82	82.0833	465.82	80.4051	465.82	81.7882	465.82	79.8632	465.82	81.3893	465.82	79.2895	465.82	80.9282	465.82	78.6783	465.82	80.4412	465.82	78.0212	465.82	79.9584	465.82	77.3125	465.82	79.5088	465.82	76.5643	465.82	79.1222	465.82	75.8439	465.82	78.812	465.82	75.3147	465.82	78.5502	465.82	75.1965	465.82	78.2783	465.82	75.5717	465.82	77.9737	465.82	76.2538	465.82	77.7098	465.82	76.9431	465.82	77.5976	465.82	77.4252	465.82	77.6269	465.82	77.6295
483.398	82.0797	483.398	81.8595	483.398	82.1656	483.398	81.5273	483.398	82.1115	483.398	81.1202	483.398	81.9257	483.398	80.6796	483.398	81.6265	483.398	80.2331	483.398	81.2453	483.398	79.7782	483.398	80.8329	483.398	79.2773	483.398	80.4615	483.398	78.6701	483.398	80.1964	483.398	77.9001	483.398	80.0353	483.398	76.9532	483.398	79.8837	483.398	75.9055	483.398	79.6173	483.398	74.9727	483.398	79.1727	483.398	74.4904	483.398	78.5964	483.398	74.6824	483.398	78.0389	483.398	75.3978	483.398	77.6721	483.398	76.2572	483.398	77.5424	483.398	76.9571	483.398	77.5117	483.398	77.3669
499.512	82.817	499.512	82.455	499.512	83.0144	499.512	81.968	499.512	83.0326	499.512	81.421	499.512	82.8774	499.512	80.89	499.512	82.5682	499.512	80.4267	499.512	82.1308	499.512	80.0228	499.512	81.5916	499.512	79.608	499.512	80.984	499.512	79.0845	499.512	80.3673	499.512	78.3732	499.512	79.8312	499.512	77.4575	499.512	79.4507	499.512	76.4409	499.512	79.2218	499.512	75.5987	499.512	79.0574	499.512	75.284	499.512	78.8614	499.512	75.6033	499.512	78.6102	499.512	76.3012	499.512	78.3715	499.512	77.0465	499.512	78.2241	499.512	77.6327	499.512	78.1399	499.512	77.9849
517.09	82.1775	517.09	81.8178	517.09	82.3458	517.09	81.3249	517.09	82.3123	517.09	80.7988	517.09	82.1082	517.09	80.348	517.09	81.7892	517.09	80.0343	517.09	81.417	517.09	79.8322	517.09	81.0479	517.09	79.6417	517.09	80.7265	517.09	79.3322	517.09	80.4607	517.09	78.7849	517.09	80.1956	517.09	77.9255	517.09	79.8249	517.09	76.7653	517.09	79.2479	517.09	75.5019	517.09	78.4626	517.09	74.6827	517.09	77.6878	517.09	74.9484	517.09	77.3596	517.09	76.1248	517.09	77.696	517.09	77.4538	517.09	78.3547	517.09	78.4425	517.09	78.8533	517.09	78.9152
536.133	82.5735	536.133	82.0701	536.133	82.7934	536.133	81.3285	536.133	82.7178	536.133	80.4437	536.133	82.3578	536.133	79.5703	536.133	81.7442	536.133	78.8927	536.133	80.9383	536.133	78.5231	536.133	80.0701	536.133	78.3993	536.133	79.3785	536.133	78.3172	536.133	79.1118	536.133	78.0646	536.133	79.2605	536.133	77.5197	536.133	79.5255	536.133	76.6935	536.133	79.5823	536.133	75.7712	536.133	79.2421	536.133	75.1458	536.133	78.507	536.133	75.2276	536.133	77.6652	536.133	75.9859	536.133	77.254	536.133	76.9626	536.133	77.4832	536.133	77.7285	536.133	77.9128	536.133	78.0581
555.176	82.6523	555.176	82.1969	555.176	82.8447	555.176	81.4871	555.176	82.7969	555.176	80.5795	555.176	82.5431	555.176	79.5946	555.176	82.1045	555.176	78.7153	555.176	81.4771	555.176	78.1162	555.176	80.6491	555.176	77.8256	555.176	79.6422	555.176	77.6771	555.176	78.5735	555.176	77.43	555.176	77.7248	555.176	76.9029	555.176	77.4481	555.176	76.0387	555.176	77.738	555.176	74.9677	555.176	78.1113	555.176	74.11	555.176	78.1044	555.176	74.0447	555.176	77.611	555.176	74.8409	555.176	76.9694	555.176	75.925	555.176	76.7408	555.176	76.7564	555.176	76.9579	555.176	77.089
574.219	82.7868	574.219	82.2544	574.219	83.0708	574.219	81.5073	574.219	83.0957	574.219	80.6055	574.219	82.8614	574.219	79.6318	574.219	82.3678	574.219	78.6892	574.219	81.6243	574.219	77.8946	574.219	80.6866	574.219	77.3337	574.219	79.6876	574.219	76.978	574.219	78.8038	574.219	76.6629	574.219	78.1343	574.219	76.1683	574.219	77.6219	574.219	75.3045	574.219	77.1553	574.219	74.0201	574.219	76.7256	574.219	72.7383	574.219	76.4216	574.219	72.6619	574.219	76.3066	574.219	74.1025	574.219	76.4066	574.219	75.7768	574.219	76.7345	574.219	76.8884	574.219	77.1428	574.219	77.297
594.727	83.9242	594.727	83.4631	594.727	84.0932	594.727	82.7159	594.727	83.9904	594.727	81.7282	594.727	83.6395	594.727	80.5898	594.727	83.0436	594.727	79.4258	594.727	82.186	594.727	78.3634	594.727	81.0839	594.727	77.4872	594.727	79.885	594.727	76.8156	594.727	78.9077	594.727	76.3049	594.727	78.4076	594.727	75.8487	594.727	78.2028	594.727	75.2738	594.727	77.794	594.727	74.3654	594.727	76.748	594.727	72.9549	594.727	74.8905	594.727	71.2299	594.727	72.7619	594.727	70.4521	594.727	72.2136	594.727	71.6626	594.727	73.3706	594.727	73.3609	594.727	74.3224	594.727	74.3387
615.234	83.4727	615.234	83.0592	615.234	83.6906	615.234	82.4777	615.234	83.6975	615.234	81.7691	615.234	83.484	615.234	80.9702	615.234	83.0462	615.234	80.0943	615.234	82.3864	615.234	79.1463	615.234	81.5191	615.234	78.1837	615.234	80.5049	615.234	77.349	615.234	79.4886	615.234	76.7846	615.234	78.6817	615.234	76.4797	615.234	78.2691	615.234	76.2531	615.234	78.2631	615.234	75.8902	615.234	78.3929	615.234	75.274	615.234	78.2351	615.234	74.4686	615.234	77.4908	615.234	73.7757	615.234	76.2085	615.234	73.5738	615.234	74.9477	615.234	73.8304	615.234	74.3334	615.234	74.1225
637.207	82.4282	637.207	81.8812	637.207	82.8098	637.207	81.225	637.207	83.0144	637.207	80.5391	637.207	83.0505	637.207	79.8782	637.207	82.8911	637.207	79.2344	637.207	82.4544	637.207	78.5586	637.207	81.6724	637.207	77.8364	637.207	80.5975	637.207	77.1362	637.207	79.4388	637.207	76.5478	637.207	78.4667	637.207	76.0594	637.207	77.839	637.207	75.5537	637.207	77.5	637.207	74.9549	637.207	77.2825	637.207	74.3727	637.207	77.0686	637.207	74.1057	637.207	76.8144	637.207	74.3825	637.207	76.5451	637.207	75.0491	637.207	76.3565	637.207	75.7181	637.207	76.2735	637.207	76.1265
659.18	81.7928	659.18	81.3519	659.18	82.033	659.18	80.7634	659.18	82.0507	659.18	80.1005	659.18	81.8548	659.18	79.4406	659.18	81.4694	659.18	78.8502	659.18	80.9263	659.18	78.3566	659.18	80.2845	659.18	77.9138	659.18	79.6498	659.18	77.4094	659.18	79.1372	659.18	76.7501	659.18	78.7917	659.18	75.9937	659.18	78.5546	659.18	75.3803	659.18	78.2865	659.18	75.0753	659.18	77.8093	659.18	74.9362	659.18	77.0503	659.18	74.8117	659.18	76.3081	659.18	74.8811	659.18	76.1768	659.18	75.4216	659.18	76.6429	659.18	76.2589	659.18	77.0294	659.18	76.9028
682.617	81.9837	682.617	81.1932	682.617	82.4491	682.617	80.1489	682.617	82.5854	682.617	79.0141	682.617	82.4207	682.617	78.0316	682.617	81.9659	682.617	77.3925	682.617	81.2034	682.617	77.0639	682.617	80.2021	682.617	76.8476	682.617	79.3074	682.617	76.581	682.617	79.0315	682.617	76.201	682.617	79.3376	682.617	75.7132	682.617	79.5834	682.617	75.2292	682.617	79.39	682.617	75.0193	682.617	78.9009	682.617	75.3142	682.617	78.4216	682.617	76.0229	682.617	78.0376	682.617	76.8893	682.617	77.8177	682.617	77.7335	682.617	78.007	682.617	78.397	682.617	78.4644	682.617	78.6752
707.52	83.16	707.52	82.5254	707.52	83.5266	707.52	81.6477	707.52	83.6383	707.52	80.6312	707.52	83.4855	707.52	79.6574	707.52	83.0084	707.52	78.9201	707.52	82.1446	707.52	78.5043	707.52	80.925	707.52	78.2947	707.52	79.5494	707.52	78.0267	707.52	78.3791	707.52	77.4337	707.52	77.7538	707.52	76.3736	707.52	77.5563	707.52	74.9241	707.52	77.194	707.52	73.49	707.52	76.2062	707.52	72.8241	707.52	74.6875	707.52	73.4453	707.52	73.7913	707.52	74.953	707.52	74.8419	707.52	76.5898	707.52	76.6763	707.52	77.8159	707.52	77.9503	707.52	78.3224
732.422	82.8834	732.422	82.3971	732.422	83.1178	732.422	81.6795	732.422	83.1076	732.422	80.8012	732.422	82.8488	732.422	79.8964	732.422	82.2918	732.422	79.1364	732.422	81.382	732.422	78.6097	732.422	80.1631	732.422	78.2053	732.422	78.8119	732.422	77.7176	732.422	77.5732	732.422	77.0594	732.422	76.7894	732.422	76.2942	732.422	76.8257	732.422	75.506	732.422	77.416	732.422	74.7435	732.422	77.6697	732.422	74.1736	732.422	76.8675	732.422	74.1625	732.422	74.9976	732.422	74.8858	732.422	73.9867	732.422	76.0107	732.422	75.4321	732.422	77.0034	732.422	76.9331	732.422	77.4197
757.324	83.2518	757.324	82.7215	757.324	83.5272	757.324	81.9488	757.324	83.5749	757.324	81.0056	757.324	83.4008	757.324	80.0122	757.324	82.9322	757.324	79.1123	757.324	82.0471	757.324	78.3771	757.324	80.7254	757.324	77.6762	757.324	79.2462	757.324	76.8059	757.324	78.2156	757.324	75.7724	757.324	77.9879	757.324	74.8361	757.324	78.1086	757.324	74.1975	757.324	78.103	757.324	73.7297	757.324	77.9355	757.324	73.3706	757.324	77.4931	757.324	73.5761	757.324	76.4887	757.324	74.7355	757.324	75.2932	757.324	76.2932	757.324	75.4527	757.324	77.4166	757.324	76.7899	757.324	77.6263
785.156	83.25	785.156	82.8245	785.156	83.4364	785.156	82.1684	785.156	83.3855	785.156	81.3135	785.156	83.077	785.156	80.3723	785.156	82.4588	785.156	79.5926	785.156	81.522	785.156	79.1628	785.156	80.3387	785.156	78.9031	785.156	78.9395	785.156	78.4405	785.156	77.4628	785.156	77.5639	785.156	76.6767	785.156	76.3115	785.156	77.0053	785.156	74.8715	785.156	77.5009	785.156	73.4296	785.156	77.2796	785.156	72.2233	785.156	75.9068	785.156	71.8977	785.156	73.2936	785.156	72.9543	785.156	71.3094	785.156	74.6229	785.156	73.1299	785.156	75.903	785.156	75.3672	785.156	76.2592
811.523	83.2834	811.523	82.9573	811.523	83.3487	811.523	82.2716	811.523	83.2551	811.523	81.1807	811.523	83.0528	811.523	79.7811	811.523	82.6814	811.523	78.4753	811.523	81.9497	811.523	77.8461	811.523	80.6302	811.523	77.7653	811.523	78.652	811.523	77.4665	811.523	76.3016	811.523	76.6069	811.523	74.7463	811.523	75.4281	811.523	75.6116	811.523	74.3702	811.523	77.3959	811.523	73.6349	811.523	78.1756	811.523	73.0551	811.523	77.3497	811.523	72.7839	811.523	74.6651	811.523	73.6224	811.523	71.5593	811.523	75.3168	811.523	73.3808	811.523	76.6833	811.523	76.0332	811.523	77.0472
840.82	83.9331	840.82	83.6467	840.82	83.8701	840.82	83.0115	840.82	83.5814	840.82	82.1282	840.82	83.1942	840.82	81.0756	840.82	82.6859	840.82	79.8441	840.82	81.9333	840.82	78.4537	840.82	80.9309	840.82	77.1463	840.82	79.7417	840.82	76.2732	840.82	78.1727	840.82	75.8646	840.82	76.116	840.82	75.5187	840.82	74.5025	840.82	74.8176	840.82	74.6078	840.82	73.9266	840.82	75.6295	840.82	73.4813	840.82	76.1526	840.82	73.6835	840.82	75.3366	840.82	74.4312	840.82	73.2743	840.82	75.6471	840.82	73.2399	840.82	76.7491	840.82	75.631	840.82	76.9297
870.117	83.9474	870.117	83.8296	870.117	83.6258	870.117	83.2021	870.117	83.057	870.117	82.0489	870.117	82.4685	870.117	80.3105	870.117	81.9618	870.117	78.1141	870.117	81.4416	870.117	76.4592	870.117	80.6389	870.117	76.2474	870.117	79.1521	870.117	76.5368	870.117	76.7414	870.117	76.5586	870.117	74.5247	870.117	76.0441	870.117	74.9495	870.117	74.8059	870.117	76.4484	870.117	72.9058	870.117	77.1706	870.117	70.8262	870.117	76.6645	870.117	69.8888	870.117	74.553	870.117	71.3154	870.117	71.5306	870.117	73.7632	870.117	72.6881	870.117	75.665	870.117	75.4073	870.117	76.3544
900.879	84.1062	900.879	83.8963	900.879	84.0049	900.879	83.3643	900.879	83.6458	900.879	82.4513	900.879	83.1117	900.879	80.9616	900.879	82.4771	900.879	78.7183	900.879	81.7545	900.879	76.0059	900.879	80.8641	900.879	74.1017	900.879	79.6171	900.879	73.9926	900.879	77.6794	900.879	74.5645	900.879	74.7227	900.879	74.6907	900.879	71.9569	900.879	74.3371	900.879	73.4785	900.879	74.096	900.879	76.2514	900.879	74.1423	900.879	77.5089	900.879	74.0111	900.879	76.7759	900.879	74.0382	900.879	73.6212	900.879	75.1317	900.879	70.7167	900.879	76.3865	900.879	74.1204	900.879	76.3524
933.105	83.8712	933.105	83.7169	933.105	83.5916	933.105	83.1954	933.105	83.0001	933.105	82.293	933.105	82.3508	933.105	80.7875	933.105	81.644	933.105	78.5069	933.105	80.7838	933.105	75.8836	933.105	80.042	933.105	74.0142	933.105	79.5903	933.105	73.0918	933.105	78.7946	933.105	72.3965	933.105	76.9751	933.105	71.7613	933.105	74.7247	933.105	71.4292	933.105	74.4103	933.105	71.1986	933.105	75.702	933.105	70.8078	933.105	76.2113	933.105	70.8288	933.105	75.1168	933.105	72.415	933.105	72.3617	933.105	74.9255	933.105	71.0066	933.105	76.634	933.105	74.3598	933.105	76.6001
965.332	83.5165	965.332	83.607	965.332	83.2689	965.332	83.3464	965.332	82.9007	965.332	82.51	965.332	82.2705	965.332	80.8764	965.332	81.507	965.332	78.3794	965.332	81.017	965.332	75.4494	965.332	80.5965	965.332	73.6257	965.332	79.488	965.332	74.1852	965.332	77.4437	965.332	75.4055	965.332	74.7748	965.332	75.2325	965.332	72.1741	965.332	73.0409	965.332	72.9808	965.332	70.4325	965.332	75.8241	965.332	71.2147	965.332	77.1462	965.332	72.5563	965.332	76.2713	965.332	72.4426	965.332	72.7552	965.332	72.3547	965.332	70.393	965.332	73.9428	965.332	73.7615	965.332	75.0322
1,000.49	83.0174	1,000.49	83.0133	1,000.49	82.8296	1,000.49	82.8029	1,000.49	82.385	1,000.49	82.1368	1,000.49	81.7399	1,000.49	80.6118	1,000.49	81.066	1,000.49	77.9172	1,000.49	80.4521	1,000.49	74.2743	1,000.49	79.8106	1,000.49	71.731	1,000.49	79.0015	1,000.49	73.1945	1,000.49	77.8093	1,000.49	75.2252	1,000.49	75.6166	1,000.49	75.1173	1,000.49	72.4667	1,000.49	72.3559	1,000.49	72.7605	1,000.49	66.8809	1,000.49	74.8829	1,000.49	66.3269	1,000.49	75.33	1,000.49	70.8554	1,000.49	73.9924	1,000.49	73.3742	1,000.49	70.0242	1,000.49	75.1839	1,000.49	65.0052	1,000.49	76.528	1,000.49	72.6729	1,000.49	76.1783
1,035.64	82.171	1,035.64	82.3856	1,035.64	82.0207	1,035.64	82.3735	1,035.64	81.94	1,035.64	81.838	1,035.64	81.532	1,035.64	80.5069	1,035.64	80.7039	1,035.64	78.1427	1,035.64	80.0288	1,035.64	74.579	1,035.64	79.7098	1,035.64	69.936	1,035.64	79.0979	1,035.64	67.7862	1,035.64	78.0604	1,035.64	70.2828	1,035.64	76.7161	1,035.64	71.9601	1,035.64	73.964	1,035.64	71.7466	1,035.64	69.9728	1,035.64	69.6383	1,035.64	74.7333	1,035.64	67.0654	1,035.64	78.0922	1,035.64	68.0844	1,035.64	78.4096	1,035.64	70.9664	1,035.64	75.5884	1,035.64	73.2818	1,035.64	67.147	1,035.64	74.558	1,035.64	68.5462	1,035.64	73.8081
1,072.27	82.1982	1,072.27	81.7871	1,072.27	82.6259	1,072.27	81.6515	1,072.27	82.7261	1,072.27	81.4751	1,072.27	82.3088	1,072.27	80.5341	1,072.27	81.3653	1,072.27	78.5153	1,072.27	80.1552	1,072.27	75.9539	1,072.27	78.9624	1,072.27	73.1164	1,072.27	77.7478	1,072.27	68.9865	1,072.27	76.5854	1,072.27	68.8344	1,072.27	75.6841	1,072.27	71.6838	1,072.27	74.21	1,072.27	72.1733	1,072.27	71.4429	1,072.27	70.1587	1,072.27	72.3612	1,072.27	60.8138	1,072.27	75.4894	1,072.27	64.4753	1,072.27	76.5224	1,072.27	71.3095	1,072.27	75.1356	1,072.27	72.8402	1,072.27	70.7107	1,072.27	72.3065	1,072.27	65.8276	1,072.27	70.1481
1,108.89	82.4564	1,108.89	81.8478	1,108.89	82.9521	1,108.89	81.2447	1,108.89	83.1955	1,108.89	80.8076	1,108.89	82.7838	1,108.89	80.0471	1,108.89	81.6523	1,108.89	78.3059	1,108.89	80.5107	1,108.89	76.0424	1,108.89	79.53	1,108.89	74.2055	1,108.89	77.8992	1,108.89	73.226	1,108.89	75.9615	1,108.89	72.3399	1,108.89	75.1952	1,108.89	71.7552	1,108.89	74.709	1,108.89	72.1981	1,108.89	71.258	1,108.89	71.87	1,108.89	68.2551	1,108.89	69.1003	1,108.89	74.8488	1,108.89	64.7703	1,108.89	77.7686	1,108.89	65.4837	1,108.89	76.8473	1,108.89	68.3633	1,108.89	72.0818	1,108.89	70.1676	1,108.89	67.2395	1,108.89	69.7527
1,148.44	82.6448	1,148.44	82.2828	1,148.44	82.7883	1,148.44	81.5111	1,148.44	82.7917	1,148.44	80.2994	1,148.44	82.5559	1,148.44	78.9831	1,148.44	81.9394	1,148.44	77.7635	1,148.44	80.9801	1,148.44	76.6124	1,148.44	79.6185	1,148.44	74.8623	1,148.44	77.5598	1,148.44	73.416	1,148.44	75.2329	1,148.44	73.3941	1,148.44	73.7997	1,148.44	72.459	1,148.44	72.3776	1,148.44	71.7366	1,148.44	70.0171	1,148.44	71.7932	1,148.44	72.132	1,148.44	69.8524	1,148.44	75.1853	1,148.44	62.3702	1,148.44	76.3841	1,148.44	67.3711	1,148.44	76.4583	1,148.44	71.9911	1,148.44	74.2309	1,148.44	72.3141	1,148.44	69.5297	1,148.44	70.0334
1,189.45	82.5653	1,189.45	81.8092	1,189.45	83.1278	1,189.45	80.8513	1,189.45	83.2868	1,189.45	79.5412	1,189.45	82.7942	1,189.45	77.7611	1,189.45	81.7523	1,189.45	76.3121	1,189.45	80.5066	1,189.45	75.8075	1,189.45	79.0968	1,189.45	74.4766	1,189.45	77.6257	1,189.45	72.0574	1,189.45	76.2898	1,189.45	72.3312	1,189.45	74.77	1,189.45	73.798	1,189.45	72.9945	1,189.45	74.5711	1,189.45	69.2483	1,189.45	73.8197	1,189.45	62.4575	1,189.45	70.7289	1,189.45	70.111	1,189.45	62.6311	1,189.45	75.1694	1,189.45	60.3882	1,189.45	75.6722	1,189.45	68.0377	1,189.45	72.7091	1,189.45	70.1071	1,189.45	69.3517	1,189.45	69.8377
1,230.47	83.4091	1,230.47	82.785	1,230.47	83.9376	1,230.47	81.8986	1,230.47	83.8617	1,230.47	80.1634	1,230.47	82.7587	1,230.47	77.7611	1,230.47	81.0554	1,230.47	76.4957	1,230.47	79.9278	1,230.47	76.6731	1,230.47	79.6258	1,230.47	75.47	1,230.47	78.7323	1,230.47	71.08	1,230.47	76.0158	1,230.47	67.4104	1,230.47	72.5941	1,230.47	70.1784	1,230.47	71.6788	1,230.47	72.831	1,230.47	69.482	1,230.47	73.3547	1,230.47	67.9187	1,230.47	71.6559	1,230.47	72.9807	1,230.47	67.1206	1,230.47	75.4189	1,230.47	61.85	1,230.47	75.0795	1,230.47	67.8392	1,230.47	72.2574	1,230.47	70.3758	1,230.47	69.7155	1,230.47	70.2651
1,274.41	84.0897	1,274.41	83.3987	1,274.41	84.3329	1,274.41	82.1942	1,274.41	83.9127	1,274.41	80.1423	1,274.41	82.9246	1,274.41	77.5581	1,274.41	81.7177	1,274.41	76.3808	1,274.41	80.4541	1,274.41	76.6584	1,274.41	79.3939	1,274.41	75.3476	1,274.41	78.4398	1,274.41	71.6462	1,274.41	76.0979	1,274.41	68.3117	1,274.41	73.1718	1,274.41	66.7797	1,274.41	71.8475	1,274.41	68.5397	1,274.41	68.7479	1,274.41	72.1345	1,274.41	68.0407	1,274.41	72.4241	1,274.41	71.3538	1,274.41	69.1897	1,274.41	72.1156	1,274.41	60.2352	1,274.41	73.3613	1,274.41	65.7159	1,274.41	72.1818	1,274.41	69.6991	1,274.41	69.2606	1,274.41	69.8064
1,319.82	84.4192	1,319.82	83.8971	1,319.82	84.4502	1,319.82	82.2199	1,319.82	84.2725	1,319.82	79.3888	1,319.82	83.666	1,319.82	76.8773	1,319.82	82.3426	1,319.82	75.5296	1,319.82	80.3128	1,319.82	73.9128	1,319.82	78.1886	1,319.82	71.8743	1,319.82	76.6187	1,319.82	69.5018	1,319.82	75.0004	1,319.82	70.1633	1,319.82	72.2969	1,319.82	69.9797	1,319.82	67.7171	1,319.82	67.1906	1,319.82	67.3463	1,319.82	68.7246	1,319.82	63.6783	1,319.82	72.0504	1,319.82	66.9325	1,319.82	72.715	1,319.82	73.4742	1,319.82	67.9894	1,319.82	75.176	1,319.82	64.2645	1,319.82	73.8835	1,319.82	70.275	1,319.82	71.7319	1,319.82	71.3055
1,366.7	84.3484	1,366.7	83.89	1,366.7	84.5877	1,366.7	82.1531	1,366.7	84.5985	1,366.7	79.1875	1,366.7	83.7383	1,366.7	77.7037	1,366.7	82.073	1,366.7	77.0921	1,366.7	79.6589	1,366.7	73.2827	1,366.7	77.3264	1,366.7	68.629	1,366.7	76.7582	1,366.7	67.8611	1,366.7	75.6813	1,366.7	70.3526	1,366.7	72.7511	1,366.7	71.9042	1,366.7	70.9425	1,366.7	69.2705	1,366.7	67.8707	1,366.7	65.0889	1,366.7	52.6666	1,366.7	70.6021	1,366.7	69.4732	1,366.7	72.1507	1,366.7	72.4383	1,366.7	69.067	1,366.7	72.6269	1,366.7	63.1056	1,366.7	73.65	1,366.7	65.707	1,366.7	71.7835	1,366.7	69.0932
1,413.57	83.5219	1,413.57	82.7165	1,413.57	84.0534	1,413.57	81.1415	1,413.57	84.2544	1,413.57	78.863	1,413.57	83.536	1,413.57	76.8641	1,413.57	81.5195	1,413.57	75.9262	1,413.57	78.7723	1,413.57	73.7623	1,413.57	77.0714	1,413.57	65.6251	1,413.57	75.8528	1,413.57	61.9842	1,413.57	74.1805	1,413.57	70.1925	1,413.57	73.2332	1,413.57	69.4335	1,413.57	70.371	1,413.57	65.3622	1,413.57	63.7314	1,413.57	64.1493	1,413.57	68.6371	1,413.57	69.0637	1,413.57	67.1921	1,413.57	70.9977	1,413.57	67.6744	1,413.57	68.1429	1,413.57	74.3127	1,413.57	64.5638	1,413.57	73.6494	1,413.57	67.1832	1,413.57	70.5193	1,413.57	69.2045
1,463.38	83.5076	1,463.38	82.4102	1,463.38	83.9192	1,463.38	80.0079	1,463.38	84.0987	1,463.38	78.2622	1,463.38	83.6545	1,463.38	78.1237	1,463.38	82.099	1,463.38	75.918	1,463.38	79.1764	1,463.38	72.046	1,463.38	76.3946	1,463.38	70.0331	1,463.38	74.5723	1,463.38	70.0433	1,463.38	72.5582	1,463.38	68.4038	1,463.38	70.2884	1,463.38	67.9855	1,463.38	67.4938	1,463.38	67.5148	1,463.38	66.262	1,463.38	63.2494	1,463.38	65.0553	1,463.38	65.8303	1,463.38	64.4084	1,463.38	68.6711	1,463.38	69.3415	1,463.38	68.4274	1,463.38	72.1083	1,463.38	65.2104	1,463.38	72.5241	1,463.38	64.7727	1,463.38	71.601	1,463.38	68.5965
1,516.11	82.1802	1,516.11	80.621	1,516.11	83.2077	1,516.11	78.7974	1,516.11	83.7164	1,516.11	77.479	1,516.11	83.2722	1,516.11	76.0382	1,516.11	81.7859	1,516.11	73.5077	1,516.11	79.6626	1,516.11	69.9336	1,516.11	76.5741	1,516.11	71.2574	1,516.11	73.0435	1,516.11	71.3298	1,516.11	71.9797	1,516.11	69.8201	1,516.11	71.5038	1,516.11	70.0355	1,516.11	68.1237	1,516.11	71.4591	1,516.11	65.0367	1,516.11	68.0173	1,516.11	64.4981	1,516.11	62.1414	1,516.11	66.15	1,516.11	66.873	1,516.11	68.1134	1,516.11	64.3407	1,516.11	70.6475	1,516.11	57.022	1,516.11	71.4218	1,516.11	57.9446	1,516.11	69.0029	1,516.11	63.922
1,568.85	81.8623	1,568.85	78.5799	1,568.85	82.9264	1,568.85	76.5358	1,568.85	82.3802	1,568.85	77.0794	1,568.85	81.8191	1,568.85	74.4448	1,568.85	81.2821	1,568.85	69.5544	1,568.85	79.2297	1,568.85	68.9098	1,568.85	76.0674	1,568.85	70.1733	1,568.85	72.153	1,568.85	69.0568	1,568.85	68.8752	1,568.85	68.5275	1,568.85	67.8486	1,568.85	71.3646	1,568.85	63.3534	1,568.85	73.2187	1,568.85	65.2294	1,568.85	70.1311	1,568.85	54.7796	1,568.85	61.5625	1,568.85	66.6043	1,568.85	63.4404	1,568.85	69.2511	1,568.85	67.3898	1,568.85	68.4206	1,568.85	64.1662	1,568.85	69.2949	1,568.85	56.9012	1,568.85	70.0999	1,568.85	65.2731
1,624.51	81.7475	1,624.51	77.9463	1,624.51	83.0935	1,624.51	74.6046	1,624.51	82.3936	1,624.51	73.547	1,624.51	81.04	1,624.51	72.0147	1,624.51	79.9109	1,624.51	70.2252	1,624.51	77.4303	1,624.51	70.3211	1,624.51	73.4586	1,624.51	71.9286	1,624.51	70.7601	1,624.51	70.3286	1,624.51	67.1562	1,624.51	65.9037	1,624.51	64.0416	1,624.51	68.3547	1,624.51	61.0601	1,624.51	70.2752	1,624.51	63.7026	1,624.51	71.1132	1,624.51	52.7183	1,624.51	69.4451	1,624.51	67.5165	1,624.51	65.3173	1,624.51	67.428	1,624.51	67.1319	1,624.51	65.8584	1,624.51	66.2284	1,624.51	69.428	1,624.51	57.4974	1,624.51	68.7368	1,624.51	60.8355
1,681.64	81.4562	1,681.64	78.7385	1,681.64	83.2564	1,681.64	75.5875	1,681.64	82.7212	1,681.64	69.3968	1,681.64	80.9101	1,681.64	68.5402	1,681.64	79.2503	1,681.64	66.9919	1,681.64	76.1269	1,681.64	71.589	1,681.64	72.1234	1,681.64	69.4912	1,681.64	66.5701	1,681.64	67.212	1,681.64	65.9587	1,681.64	70.8657	1,681.64	63.0917	1,681.64	69.7935	1,681.64	57.2234	1,681.64	67.4689	1,681.64	53.9453	1,681.64	65.7733	1,681.64	60.5701	1,681.64	68.1843	1,681.64	66.363	1,681.64	67.8364	1,681.64	67.0499	1,681.64	62.4102	1,681.64	68.338	1,681.64	52.5268	1,681.64	70.2222	1,681.64	60.9849	1,681.64	67.4482	1,681.64	64.8657
1,741.7	81.6241	1,741.7	78.8174	1,741.7	83.4415	1,741.7	74.6023	1,741.7	83.1755	1,741.7	61.7149	1,741.7	81.6644	1,741.7	62.7045	1,741.7	78.7908	1,741.7	68.4842	1,741.7	73.7753	1,741.7	71.6534	1,741.7	66.3976	1,741.7	69.9369	1,741.7	63.9849	1,741.7	71.2576	1,741.7	63.0829	1,741.7	71.1123	1,741.7	66.5197	1,741.7	66.7168	1,741.7	65.0113	1,741.7	65.2068	1,741.7	50.5029	1,741.7	67.4375	1,741.7	60.0108	1,741.7	69.9874	1,741.7	61.3934	1,741.7	66.5257	1,741.7	67.3927	1,741.7	59.3453	1,741.7	65.3945	1,741.7	55.0114	1,741.7	68.2907	1,741.7	55.3525	1,741.7	70.1276	1,741.7	65.4373
1,803.22	81.6953	1,803.22	78.6909	1,803.22	83.1269	1,803.22	74.0826	1,803.22	82.7693	1,803.22	64.8607	1,803.22	81.5936	1,803.22	55.3365	1,803.22	77.5014	1,803.22	71.2375	1,803.22	69.4688	1,803.22	72.859	1,803.22	63.3448	1,803.22	70.5956	1,803.22	67.7369	1,803.22	69.4747	1,803.22	68.6507	1,803.22	66.7331	1,803.22	67.4592	1,803.22	69.952	1,803.22	66.0602	1,803.22	70.8544	1,803.22	64.3681	1,803.22	68.7205	1,803.22	66.249	1,803.22	66.9249	1,803.22	65.4146	1,803.22	62.4662	1,803.22	63.8398	1,803.22	63.038	1,803.22	67.4616	1,803.22	60.5693	1,803.22	67.6121	1,803.22	44.4444	1,803.22	70.7093	1,803.22	68.4662
1,866.21	81.2768	1,866.21	79.1016	1,866.21	82.1953	1,866.21	73.5457	1,866.21	82.4553	1,866.21	63.4307	1,866.21	80.2138	1,866.21	63.5299	1,866.21	75.6639	1,866.21	68.9559	1,866.21	70.9945	1,866.21	70.6291	1,866.21	60.878	1,866.21	71.9879	1,866.21	44.6916	1,866.21	71.57	1,866.21	60.7675	1,866.21	71.734	1,866.21	67.6675	1,866.21	70.6482	1,866.21	68.0093	1,866.21	69.5002	1,866.21	60.0753	1,866.21	66.3701	1,866.21	58.2121	1,866.21	67.1546	1,866.21	55.1246	1,866.21	67.103	1,866.21	60.7312	1,866.21	66.5853	1,866.21	62.7817	1,866.21	57.8282	1,866.21	67.462	1,866.21	47.7664	1,866.21	69.1171	1,866.21	63.5444
1,932.13	81.7296	1,932.13	79.2135	1,932.13	82.4102	1,932.13	73.9875	1,932.13	82.0863	1,932.13	65.7409	1,932.13	80.2141	1,932.13	63.7491	1,932.13	76.1682	1,932.13	70.1187	1,932.13	67.2798	1,932.13	71.3973	1,932.13	54.0087	1,932.13	72.2646	1,932.13	59.9381	1,932.13	69.438	1,932.13	62.0997	1,932.13	69.5778	1,932.13	68.9371	1,932.13	69.2863	1,932.13	69.5849	1,932.13	69.3818	1,932.13	66.8986	1,932.13	67.2571	1,932.13	62.2064	1,932.13	68.0448	1,932.13	53.1793	1,932.13	67.2031	1,932.13	52.9162	1,932.13	64.2949	1,932.13	60.3862	1,932.13	60.6907	1,932.13	67.6954	1,932.13	50.7826	1,932.13	69.2261	1,932.13	63.8773
1,999.51	83.0198	1,999.51	79.8474	1,999.51	83.1713	1,999.51	74.2692	1,999.51	82.3899	1,999.51	67.8509	1,999.51	80.7721	1,999.51	64.4011	1,999.51	76.3913	1,999.51	73.5469	1,999.51	66.3162	1,999.51	74.9662	1,999.51	55.1347	1,999.51	74.8341	1,999.51	62.8122	1,999.51	73.9625	1,999.51	65.5267	1,999.51	72.6491	1,999.51	65.3984	1,999.51	71.3946	1,999.51	67.0152	1,999.51	71.496	1,999.51	70.8797	1,999.51	68.3002	1,999.51	67.2637	1,999.51	67.4529	1,999.51	61.1339	1,999.51	67.8312	1,999.51	40.7586	1,999.51	63.5803	1,999.51	60.9501	1,999.51	60.2804	1,999.51	68.1764	1,999.51	59.5824	1,999.51	70.6856	1,999.51	67.4275
2,069.82	84.1582	2,069.82	80.7206	2,069.82	84.3722	2,069.82	74.5865	2,069.82	82.4145	2,069.82	60.5686	2,069.82	78.8026	2,069.82	69.629	2,069.82	74.1707	2,069.82	73.6256	2,069.82	66.108	2,069.82	75.148	2,069.82	63.0158	2,069.82	73.2999	2,069.82	66.2997	2,069.82	72.785	2,069.82	69.1178	2,069.82	74.7736	2,069.82	70.2324	2,069.82	70.9038	2,069.82	70.2626	2,069.82	69.5593	2,069.82	70.2196	2,069.82	71.4552	2,069.82	68.8096	2,069.82	66.7113	2,069.82	64.0898	2,069.82	70.0717	2,069.82	57.3863	2,069.82	63.2041	2,069.82	59.3424	2,069.82	58.3757	2,069.82	69.0471	2,069.82	61.6674	2,069.82	72.6254	2,069.82	69.1851
2,143.07	84.0538	2,143.07	81.3084	2,143.07	84.8349	2,143.07	76.1136	2,143.07	83.0676	2,143.07	59.4909	2,143.07	78.8524	2,143.07	71.4854	2,143.07	72.567	2,143.07	73.2549	2,143.07	67.6101	2,143.07	75.0515	2,143.07	67.888	2,143.07	75.5674	2,143.07	69.6825	2,143.07	74.0859	2,143.07	70.9103	2,143.07	69.2134	2,143.07	72.5667	2,143.07	71.6505	2,143.07	73.1236	2,143.07	68.7217	2,143.07	70.2726	2,143.07	70.9823	2,143.07	70.4291	2,143.07	68.7706	2,143.07	66.2741	2,143.07	68.8144	2,143.07	53.7724	2,143.07	66.0554	2,143.07	60.1411	2,143.07	60.6534	2,143.07	69.8583	2,143.07	62.9828	2,143.07	73.3382	2,143.07	69.2152
2,219.24	82.991	2,219.24	80.8806	2,219.24	84.087	2,219.24	75.4	2,219.24	83.133	2,219.24	68.8829	2,219.24	79.6542	2,219.24	72.1122	2,219.24	70.013	2,219.24	73.8972	2,219.24	66.962	2,219.24	76.9547	2,219.24	70.1662	2,219.24	75.9016	2,219.24	68.6989	2,219.24	74.4229	2,219.24	66.8532	2,219.24	74.082	2,219.24	73.4542	2,219.24	73.3684	2,219.24	72.9414	2,219.24	70.7318	2,219.24	72.4979	2,219.24	69.8289	2,219.24	71.0075	2,219.24	70.3365	2,219.24	67.4485	2,219.24	68.95	2,219.24	51.1178	2,219.24	68.0284	2,219.24	56.5778	2,219.24	55.6291	2,219.24	68.4025	2,219.24	61.4074	2,219.24	72.9539	2,219.24	69.6724
2,296.88	82.5549	2,296.88	80.5896	2,296.88	82.9058	2,296.88	74.7863	2,296.88	82.3831	2,296.88	71.3048	2,296.88	79.9238	2,296.88	72.1668	2,296.88	72.0768	2,296.88	77.2073	2,296.88	68.7329	2,296.88	78.3276	2,296.88	71.322	2,296.88	78.8929	2,296.88	71.2895	2,296.88	77.5501	2,296.88	68.2865	2,296.88	75.8686	2,296.88	70.9753	2,296.88	75.2086	2,296.88	70.1237	2,296.88	71.5815	2,296.88	71.5724	2,296.88	69.4941	2,296.88	70.4487	2,296.88	72.681	2,296.88	65.9899	2,296.88	69.8431	2,296.88	58.2512	2,296.88	68.9773	2,296.88	55.2103	2,296.88	50.1448	2,296.88	66.0408	2,296.88	62.2945	2,296.88	70.6775	2,296.88	66.9771
2,378.91	83.88	2,378.91	80.5272	2,378.91	83.2361	2,378.91	74.5694	2,378.91	80.244	2,378.91	67.7226	2,378.91	76.9259	2,378.91	75.7786	2,378.91	72.612	2,378.91	78.1644	2,378.91	70.9793	2,378.91	78.782	2,378.91	74.999	2,378.91	78.0469	2,378.91	74.9901	2,378.91	74.7303	2,378.91	73.2014	2,378.91	74.9564	2,378.91	73.5622	2,378.91	71.8933	2,378.91	73.0294	2,378.91	73.8247	2,378.91	69.1517	2,378.91	69.0165	2,378.91	68.4521	2,378.91	71.9833	2,378.91	67.5	2,378.91	70.0997	2,378.91	52.2719	2,378.91	69.5402	2,378.91	59.3134	2,378.91	56.6709	2,378.91	57.3524	2,378.91	66.0293	2,378.91	70.3059	2,378.91	69.0926
2,462.4	85.4031	2,462.4	82.3779	2,462.4	84.8259	2,462.4	77.8552	2,462.4	81.1707	2,462.4	70.2562	2,462.4	73.5952	2,462.4	77.9418	2,462.4	72.6264	2,462.4	79.0767	2,462.4	72.1655	2,462.4	78.0786	2,462.4	75.7118	2,462.4	76.8929	2,462.4	75.5991	2,462.4	78.0498	2,462.4	70.7223	2,462.4	73.7447	2,462.4	71.8684	2,462.4	73.8732	2,462.4	73.8026	2,462.4	72.524	2,462.4	73.2871	2,462.4	70.5514	2,462.4	64.5525	2,462.4	70.1203	2,462.4	71.865	2,462.4	71.929	2,462.4	59.635	2,462.4	69.9391	2,462.4	57.0009	2,462.4	64.2334	2,462.4	62.6738	2,462.4	65.7716	2,462.4	71.9672	2,462.4	71.0909
2,548.83	85.171	2,548.83	83.2162	2,548.83	85.6615	2,548.83	77.9903	2,548.83	82.7647	2,548.83	75.0102	2,548.83	73.7291	2,548.83	77.8715	2,548.83	70.7732	2,548.83	78.9223	2,548.83	74.3087	2,548.83	78.2195	2,548.83	74.927	2,548.83	78.0098	2,548.83	74.5036	2,548.83	76.3832	2,548.83	74.0937	2,548.83	75.2267	2,548.83	74.5232	2,548.83	73.6519	2,548.83	75.7851	2,548.83	72.5984	2,548.83	72.1938	2,548.83	71.3794	2,548.83	72.7741	2,548.83	69.4872	2,548.83	70.8713	2,548.83	71.8227	2,548.83	67.3656	2,548.83	69.3189	2,548.83	42.1643	2,548.83	67.0977	2,548.83	62.0596	2,548.83	66.6736	2,548.83	72.6995	2,548.83	71.3083
2,639.65	83.7522	2,639.65	82.117	2,639.65	84.543	2,639.65	76.1498	2,639.65	82.0854	2,639.65	77.5519	2,639.65	75.9015	2,639.65	78.4046	2,639.65	69.8019	2,639.65	80.6324	2,639.65	77.6439	2,639.65	79.7918	2,639.65	77.0481	2,639.65	80.4779	2,639.65	77.6961	2,639.65	78.1449	2,639.65	75.5553	2,639.65	75.5455	2,639.65	74.5966	2,639.65	74.3056	2,639.65	75.994	2,639.65	71.5607	2,639.65	70.4449	2,639.65	71.2342	2,639.65	73.9796	2,639.65	70.0511	2,639.65	67.9723	2,639.65	72.2928	2,639.65	66.2666	2,639.65	69.9291	2,639.65	57.9442	2,639.65	65.9088	2,639.65	62.2384	2,639.65	67.5029	2,639.65	73.496	2,639.65	68.7069
2,731.93	83.1931	2,731.93	80.4682	2,731.93	83.7603	2,731.93	75.458	2,731.93	80.932	2,731.93	76.0841	2,731.93	75.192	2,731.93	79.7599	2,731.93	71.9478	2,731.93	80.6549	2,731.93	78.1485	2,731.93	80.704	2,731.93	77.6211	2,731.93	77.9437	2,731.93	76.6953	2,731.93	76.3574	2,731.93	75.1668	2,731.93	75.0425	2,731.93	74.2068	2,731.93	70.9541	2,731.93	74.2285	2,731.93	72.6101	2,731.93	73.4152	2,731.93	70.2041	2,731.93	74.2926	2,731.93	71.2458	2,731.93	71.1018	2,731.93	71.2074	2,731.93	66.8706	2,731.93	70.9252	2,731.93	60.8742	2,731.93	67.5338	2,731.93	61.37	2,731.93	64.6648	2,731.93	71.5469	2,731.93	67.3369
2,828.61	84.1012	2,828.61	81.3816	2,828.61	84.0218	2,828.61	77.8465	2,828.61	81.3331	2,828.61	74.9902	2,828.61	74.0869	2,828.61	80.2619	2,828.61	75.0226	2,828.61	81.6059	2,828.61	78.2865	2,828.61	81.4345	2,828.61	78.6058	2,828.61	78.4469	2,828.61	76.3976	2,828.61	75.9232	2,828.61	78.6278	2,828.61	73.6468	2,828.61	75.353	2,828.61	73.7444	2,828.61	67.1096	2,828.61	73.1357	2,828.61	69.4812	2,828.61	70.2672	2,828.61	76.1192	2,828.61	70.2636	2,828.61	68.2117	2,828.61	70.9444	2,828.61	70.176	2,828.61	69.2059	2,828.61	54.7882	2,828.61	65.1955	2,828.61	63.7188	2,828.61	66.8224	2,828.61	70.78	2,828.61	65.9717
2,928.22	84.3911	2,928.22	82.4601	2,928.22	83.9603	2,928.22	79.3102	2,928.22	82.0912	2,928.22	77.5376	2,928.22	74.6611	2,928.22	81.4254	2,928.22	77.074	2,928.22	82.6509	2,928.22	79.2596	2,928.22	80.864	2,928.22	80.2822	2,928.22	78.1336	2,928.22	78.6781	2,928.22	78.0173	2,928.22	78.7417	2,928.22	75.5603	2,928.22	71.1912	2,928.22	72.4004	2,928.22	64.7954	2,928.22	69.746	2,928.22	69.0885	2,928.22	69.0528	2,928.22	74.1664	2,928.22	68.3753	2,928.22	69.5258	2,928.22	70.3282	2,928.22	69.7664	2,928.22	70.0412	2,928.22	49.9892	2,928.22	68.394	2,928.22	62.3683	2,928.22	68.6123	2,928.22	71.0758	2,928.22	69.8611
3,030.76	84.2446	3,030.76	82.5609	3,030.76	84.04	3,030.76	78.38	3,030.76	81.7113	3,030.76	79.0978	3,030.76	73.0843	3,030.76	81.4979	3,030.76	77.4958	3,030.76	82.1196	3,030.76	81.6235	3,030.76	79.7449	3,030.76	81.5877	3,030.76	79.0456	3,030.76	80.6397	3,030.76	75.4183	3,030.76	79.659	3,030.76	72.1935	3,030.76	60.6656	3,030.76	68.6569	3,030.76	66.8777	3,030.76	71.3778	3,030.76	74.884	3,030.76	68.4586	3,030.76	71.458	3,030.76	66.8401	3,030.76	72.5136	3,030.76	69.6299	3,030.76	68.5838	3,030.76	68.5481	3,030.76	51.6221	3,030.76	67.8449	3,030.76	63.6954	3,030.76	68.6354	3,030.76	72.2548	3,030.76	68.1321
3,137.7	83.7166	3,137.7	82.1002	3,137.7	84.1521	3,137.7	77.3715	3,137.7	81.4745	3,137.7	80.4316	3,137.7	75.2556	3,137.7	82.4899	3,137.7	76.6456	3,137.7	81.9821	3,137.7	83.3702	3,137.7	80.4883	3,137.7	81.0067	3,137.7	77.556	3,137.7	80.6699	3,137.7	72.8031	3,137.7	78.3256	3,137.7	74.6104	3,137.7	64.7022	3,137.7	71.8376	3,137.7	62.6132	3,137.7	71.6246	3,137.7	71.267	3,137.7	68.4859	3,137.7	73.0507	3,137.7	69.5363	3,137.7	72.3886	3,137.7	68.0807	3,137.7	69.0062	3,137.7	66.5111	3,137.7	50.6307	3,137.7	68.4624	3,137.7	65.9981	3,137.7	69.0575	3,137.7	73.1823	3,137.7	68.5219
3,249.02	82.8125	3,249.02	82.4123	3,249.02	83.8154	3,249.02	75.0102	3,249.02	81.7519	3,249.02	81.6219	3,249.02	77.6777	3,249.02	83.2705	3,249.02	79.1479	3,249.02	81.4795	3,249.02	83.1627	3,249.02	79.7499	3,249.02	81.7242	3,249.02	76.7582	3,249.02	81.6887	3,249.02	78.4056	3,249.02	77.3604	3,249.02	75.8094	3,249.02	72.3206	3,249.02	72.4933	3,249.02	66.7602	3,249.02	69.4668	3,249.02	69.9558	3,249.02	68.5485	3,249.02	70.5249	3,249.02	66.6101	3,249.02	74.5061	3,249.02	68.836	3,249.02	70.1977	3,249.02	68.739	3,249.02	46.8749	3,249.02	66.5063	3,249.02	65.9111	3,249.02	67.7887	3,249.02	72.4185	3,249.02	69.8701
3,363.28	83.9996	3,363.28	81.2812	3,363.28	82.5838	3,363.28	78.3579	3,363.28	81.7535	3,363.28	81.938	3,363.28	78.5246	3,363.28	82.4385	3,363.28	80.1473	3,363.28	81.1506	3,363.28	82.7129	3,363.28	80.0066	3,363.28	82.8159	3,363.28	79.5694	3,363.28	83.6023	3,363.28	77.1859	3,363.28	76.8716	3,363.28	71.77	3,363.28	76.8263	3,363.28	72.5863	3,363.28	75.8147	3,363.28	71.4456	3,363.28	64.3025	3,363.28	71.4397	3,363.28	66.6084	3,363.28	67.4545	3,363.28	73.8043	3,363.28	68.3989	3,363.28	71.1575	3,363.28	67.1324	3,363.28	57.5325	3,363.28	68.5686	3,363.28	67.2915	3,363.28	63.4295	3,363.28	69.4031	3,363.28	68.5555
3,481.93	83.9358	3,481.93	81.9733	3,481.93	82.1276	3,481.93	80.3042	3,481.93	81.3885	3,481.93	82.2547	3,481.93	79.2301	3,481.93	82.7232	3,481.93	80.6947	3,481.93	82.5744	3,481.93	82.2261	3,481.93	80.8056	3,481.93	83.3678	3,481.93	79.3778	3,481.93	84.9502	3,481.93	75.4561	3,481.93	75.2176	3,481.93	76.9306	3,481.93	78.5134	3,481.93	72.8523	3,481.93	75.4823	3,481.93	71.2924	3,481.93	67.1266	3,481.93	69.9919	3,481.93	56.9055	3,481.93	68.6441	3,481.93	71.9525	3,481.93	68.9764	3,481.93	68.4218	3,481.93	67.3012	3,481.93	57.9093	3,481.93	67.8825	3,481.93	65.4032	3,481.93	67.0279	3,481.93	67.398	3,481.93	68.482
3,604.98	84.0544	3,604.98	81.2946	3,604.98	82.4085	3,604.98	80.6685	3,604.98	79.2589	3,604.98	82.0213	3,604.98	81.2546	3,604.98	81.6573	3,604.98	81.8444	3,604.98	81.8279	3,604.98	80.4761	3,604.98	81.0102	3,604.98	85.8735	3,604.98	78.8054	3,604.98	83.4135	3,604.98	78.603	3,604.98	79.7495	3,604.98	74.1271	3,604.98	79.9452	3,604.98	72.1698	3,604.98	76.6899	3,604.98	72.466	3,604.98	70.9024	3,604.98	70.2635	3,604.98	67.5617	3,604.98	67.5167	3,604.98	69.2782	3,604.98	68.707	3,604.98	66.1595	3,604.98	69.3978	3,604.98	56.6229	3,604.98	65.9658	3,604.98	60.4005	3,604.98	67.6099	3,604.98	65.9891	3,604.98	68.7714
3,732.42	84.556	3,732.42	81.1903	3,732.42	84.0409	3,732.42	79.7153	3,732.42	78.3114	3,732.42	81.2755	3,732.42	80.5109	3,732.42	83.4161	3,732.42	81.2278	3,732.42	83.182	3,732.42	79.9518	3,732.42	80.6506	3,732.42	85.5504	3,732.42	80.2307	3,732.42	82.9308	3,732.42	76.753	3,732.42	80.2044	3,732.42	74.6188	3,732.42	77.8117	3,732.42	73.8331	3,732.42	76.0611	3,732.42	69.9061	3,732.42	72.9399	3,732.42	70.9077	3,732.42	69.5306	3,732.42	68.3208	3,732.42	67.6893	3,732.42	69.694	3,732.42	61.4719	3,732.42	69.5378	3,732.42	57.8983	3,732.42	65.7226	3,732.42	64.2133	3,732.42	68.7957	3,732.42	65.7348	3,732.42	70.2044
3,864.26	83.7627	3,864.26	80.8535	3,864.26	83.8701	3,864.26	79.8538	3,864.26	79.5694	3,864.26	82.6014	3,864.26	80.9645	3,864.26	84.0935	3,864.26	82.1331	3,864.26	82.7456	3,864.26	81.8151	3,864.26	82.3649	3,864.26	85.4302	3,864.26	79.3656	3,864.26	80.6363	3,864.26	78.5596	3,864.26	78.9014	3,864.26	76.6272	3,864.26	73.9838	3,864.26	73.2385	3,864.26	72.8417	3,864.26	71.5156	3,864.26	73.4985	3,864.26	69.9297	3,864.26	68.1291	3,864.26	69.1398	3,864.26	69.2976	3,864.26	70.3465	3,864.26	56.687	3,864.26	69.2788	3,864.26	65.9339	3,864.26	64.7603	3,864.26	63.2457	3,864.26	67.1777	3,864.26	63.1618	3,864.26	70.2203
4,000.49	83.4415	4,000.49	80.7794	4,000.49	83.3214	4,000.49	79.4764	4,000.49	79.3826	4,000.49	82.6288	4,000.49	80.9342	4,000.49	83.2112	4,000.49	81.1369	4,000.49	83.5798	4,000.49	83.3433	4,000.49	81.9247	4,000.49	83.3207	4,000.49	80.3065	4,000.49	78.6336	4,000.49	79.736	4,000.49	77.4234	4,000.49	74.3333	4,000.49	78.3977	4,000.49	73.5291	4,000.49	70.9463	4,000.49	70.9244	4,000.49	68.837	4,000.49	69.5115	4,000.49	68.2098	4,000.49	65.8015	4,000.49	68.7428	4,000.49	68.6248	4,000.49	56.951	4,000.49	69.2098	4,000.49	66.6701	4,000.49	66.8499	4,000.49	56.5315	4,000.49	66.1386	4,000.49	62.9886	4,000.49	68.3474
4,141.11	83.9431	4,141.11	82.084	4,141.11	84.2432	4,141.11	78.9805	4,141.11	80.2606	4,141.11	82.5133	4,141.11	81.5249	4,141.11	84.3041	4,141.11	82.1602	4,141.11	83.1761	4,141.11	83.4862	4,141.11	81.21	4,141.11	81.5849	4,141.11	79.6906	4,141.11	78.2044	4,141.11	73.6086	4,141.11	76.5326	4,141.11	74.9951	4,141.11	78.8613	4,141.11	71.1349	4,141.11	65.199	4,141.11	68.8096	4,141.11	59.3759	4,141.11	67.6414	4,141.11	66.5752	4,141.11	63.9672	4,141.11	67.4736	4,141.11	66.8493	4,141.11	62.0164	4,141.11	68.26	4,141.11	66.3985	4,141.11	65.7939	4,141.11	53.3026	4,141.11	65.9497	4,141.11	65.464	4,141.11	68.2735
4,287.6	84.3315	4,287.6	79.8291	4,287.6	83.752	4,287.6	80.3075	4,287.6	81.5592	4,287.6	84.3272	4,287.6	81.096	4,287.6	83.4589	4,287.6	83.6034	4,287.6	82.3901	4,287.6	82.7951	4,287.6	81.1633	4,287.6	82.0822	4,287.6	76.9697	4,287.6	78.8618	4,287.6	78.006	4,287.6	78.5862	4,287.6	72.8392	4,287.6	75.7411	4,287.6	69.2448	4,287.6	66.8657	4,287.6	70.2974	4,287.6	64.0183	4,287.6	67.8416	4,287.6	68.759	4,287.6	66.4322	4,287.6	66.8006	4,287.6	64.0904	4,287.6	66.843	4,287.6	67.7243	4,287.6	65.6908	4,287.6	60.863	4,287.6	56.6894	4,287.6	63.8018	4,287.6	64.6568	4,287.6	69.3323
4,438.48	85.4769	4,438.48	80.0734	4,438.48	83.5655	4,438.48	82.0011	4,438.48	81.7572	4,438.48	83.1234	4,438.48	80.2591	4,438.48	83.1986	4,438.48	83.2441	4,438.48	82.253	4,438.48	83.4614	4,438.48	79.033	4,438.48	82.3335	4,438.48	79.9557	4,438.48	81.4617	4,438.48	73.2516	4,438.48	77.8323	4,438.48	76.5463	4,438.48	69.8808	4,438.48	72.1275	4,438.48	73.0136	4,438.48	68.5522	4,438.48	64.8844	4,438.48	67.1397	4,438.48	70.0075	4,438.48	64.4813	4,438.48	67.7508	4,438.48	65.8935	4,438.48	67.1099	4,438.48	66.9938	4,438.48	61.6536	4,438.48	63.9912	4,438.48	60.8556	4,438.48	65.517	4,438.48	60.0277	4,438.48	69.4146
4,595.21	84.2266	4,595.21	81.4623	4,595.21	83.61	4,595.21	81.197	4,595.21	81.8193	4,595.21	84.0153	4,595.21	82.0388	4,595.21	83.3984	4,595.21	83.557	4,595.21	81.322	4,595.21	82.2689	4,595.21	79.885	4,595.21	81.3162	4,595.21	76.6804	4,595.21	81.3843	4,595.21	78.3993	4,595.21	78.3451	4,595.21	72.9739	4,595.21	68.3834	4,595.21	70.3035	4,595.21	70.3057	4,595.21	70.2697	4,595.21	68.5168	4,595.21	66.4557	4,595.21	71.655	4,595.21	68.1673	4,595.21	70.0384	4,595.21	65.2396	4,595.21	61.9401	4,595.21	61.8814	4,595.21	61.9627	4,595.21	61.3444	4,595.21	61.9959	4,595.21	63.4198	4,595.21	53.9716	4,595.21	67.7121
4,756.35	85.3823	4,756.35	80.4505	4,756.35	83.1754	4,756.35	82.7556	4,756.35	81.1787	4,756.35	85.0316	4,756.35	83.0716	4,756.35	81.368	4,756.35	81.8043	4,756.35	81.185	4,756.35	78.9059	4,756.35	80.319	4,756.35	80.3439	4,756.35	79.697	4,756.35	80.2645	4,756.35	74.5118	4,756.35	76.6611	4,756.35	71.863	4,756.35	76.2377	4,756.35	70.1202	4,756.35	64.5787	4,756.35	67.0062	4,756.35	64.9261	4,756.35	66.4698	4,756.35	68.4853	4,756.35	66.9959	4,756.35	68.3893	4,756.35	62.8634	4,756.35	60.672	4,756.35	64.3201	4,756.35	60.2165	4,756.35	64.2991	4,756.35	58.9419	4,756.35	61.1298	4,756.35	53.4837	4,756.35	65.7212
4,924.8	85.9931	4,924.8	81.987	4,924.8	84.3509	4,924.8	84.5339	4,924.8	78.9664	4,924.8	84.1346	4,924.8	82.9593	4,924.8	82.5727	4,924.8	81.33	4,924.8	82.2719	4,924.8	76.8747	4,924.8	78.7546	4,924.8	79.8989	4,924.8	75.1575	4,924.8	77.9027	4,924.8	75.509	4,924.8	71.6072	4,924.8	73.0254	4,924.8	76.1215	4,924.8	69.7856	4,924.8	68.9197	4,924.8	66.9253	4,924.8	59.8198	4,924.8	64.7489	4,924.8	69.1688	4,924.8	64.8167	4,924.8	69.286	4,924.8	59.8644	4,924.8	63.8485	4,924.8	60.5321	4,924.8	62.3466	4,924.8	60.1403	4,924.8	55.7273	4,924.8	65.0266	4,924.8	58.9956	4,924.8	65.8082
5,097.66	84.6028	5,097.66	80.7384	5,097.66	83.4256	5,097.66	84.5204	5,097.66	77.9995	5,097.66	84.9006	5,097.66	85.418	5,097.66	83.7261	5,097.66	83.5758	5,097.66	82.4507	5,097.66	80.5098	5,097.66	78.8725	5,097.66	78.5583	5,097.66	78.2283	5,097.66	77.6661	5,097.66	73.4253	5,097.66	74.8306	5,097.66	72.3867	5,097.66	77.1606	5,097.66	70.7636	5,097.66	68.6417	5,097.66	69.9002	5,097.66	47.55	5,097.66	67.111	5,097.66	68.838	5,097.66	66.6237	5,097.66	68.0267	5,097.66	63.2526	5,097.66	61.6318	5,097.66	60.7506	5,097.66	64.0386	5,097.66	63.0746	5,097.66	47.3274	5,097.66	58.8856	5,097.66	58.1104	5,097.66	59.296
5,277.83	83.792	5,277.83	80.243	5,277.83	84.2103	5,277.83	83.3581	5,277.83	80.6488	5,277.83	84.33	5,277.83	87.1203	5,277.83	83.8965	5,277.83	85.0083	5,277.83	82.3861	5,277.83	80.3397	5,277.83	80.2415	5,277.83	76.0723	5,277.83	78.6252	5,277.83	77.6098	5,277.83	78.2007	5,277.83	77.3391	5,277.83	74.8879	5,277.83	75.0722	5,277.83	72.5945	5,277.83	67.3436	5,277.83	69.1291	5,277.83	61.3329	5,277.83	69.5721	5,277.83	63.7995	5,277.83	67.7125	5,277.83	64.9619	5,277.83	64.4197	5,277.83	60.8853	5,277.83	63.4257	5,277.83	59.4942	5,277.83	66.3585	5,277.83	57.7393	5,277.83	57.5751	5,277.83	56.8501	5,277.83	63.8888
5,463.87	84.6745	5,463.87	81.2991	5,463.87	85.7523	5,463.87	83.3803	5,463.87	80.8679	5,463.87	84.1044	5,463.87	86.144	5,463.87	83.3861	5,463.87	85.0062	5,463.87	81.29	5,463.87	78.2383	5,463.87	80.2551	5,463.87	74.7025	5,463.87	79.4159	5,463.87	78.3312	5,463.87	75.1326	5,463.87	76.0763	5,463.87	75.0683	5,463.87	75.4633	5,463.87	71.7778	5,463.87	58.3985	5,463.87	70.6873	5,463.87	47.1353	5,463.87	68.5539	5,463.87	66.4694	5,463.87	68.5044	5,463.87	63.8936	5,463.87	65.3625	5,463.87	57.3497	5,463.87	64.8132	5,463.87	58.7729	5,463.87	63.3149	5,463.87	54.9205	5,463.87	61.6225	5,463.87	59.9063	5,463.87	63.436
5,657.23	85.1746	5,657.23	81.6081	5,657.23	86.1253	5,657.23	83.4049	5,657.23	80.093	5,657.23	84.5728	5,657.23	84.4646	5,657.23	82.4183	5,657.23	84.6075	5,657.23	81.941	5,657.23	77.8662	5,657.23	79.8167	5,657.23	74.9419	5,657.23	78.819	5,657.23	79.7962	5,657.23	76.8263	5,657.23	78.9032	5,657.23	73.2343	5,657.23	72.6627	5,657.23	70.9151	5,657.23	61.2848	5,657.23	68.146	5,657.23	64.9412	5,657.23	68.5656	5,657.23	68.3573	5,657.23	68.493	5,657.23	64.2145	5,657.23	64.4698	5,657.23	55.0049	5,657.23	65.0334	5,657.23	57.7453	5,657.23	62.5132	5,657.23	55.8943	5,657.23	64.2209	5,657.23	53.6331	5,657.23	64.4394
5,856.45	84.7731	5,856.45	81.7955	5,856.45	85.013	5,856.45	84.1682	5,856.45	79.0313	5,856.45	84.5096	5,856.45	83.468	5,856.45	81.6236	5,856.45	83.4387	5,856.45	81.8379	5,856.45	77.671	5,856.45	79.6445	5,856.45	78.4125	5,856.45	78.1497	5,856.45	80.9329	5,856.45	75.5358	5,856.45	78.244	5,856.45	73.9526	5,856.45	71.2631	5,856.45	71.5983	5,856.45	67.6256	5,856.45	67.4285	5,856.45	61.7301	5,856.45	67.7377	5,856.45	69.4127	5,856.45	67.6006	5,856.45	61.4524	5,856.45	65.071	5,856.45	61.3462	5,856.45	64.7918	5,856.45	59.3535	5,856.45	62.2904	5,856.45	63.4621	5,856.45	52.3985	5,856.45	56.544	5,856.45	63.6124
6,062.99	85.4891	6,062.99	82.2657	6,062.99	86.2367	6,062.99	85.2359	6,062.99	81.3773	6,062.99	83.9947	6,062.99	83.6812	6,062.99	81.7586	6,062.99	83.3817	6,062.99	81.2295	6,062.99	74.6377	6,062.99	80.2562	6,062.99	79.526	6,062.99	78.5091	6,062.99	80.6916	6,062.99	76.429	6,062.99	76.2539	6,062.99	72.9049	6,062.99	69.1013	6,062.99	71.4507	6,062.99	62.3459	6,062.99	67.6319	6,062.99	65.6942	6,062.99	66.9548	6,062.99	63.7459	6,062.99	67.2573	6,062.99	55.4287	6,062.99	65.3077	6,062.99	65.0675	6,062.99	63.9011	6,062.99	58.7691	6,062.99	61.0475	6,062.99	63.3281	6,062.99	62.8989	6,062.99	60.9929	6,062.99	63.4301
6,276.86	85.2038	6,276.86	82.5379	6,276.86	85.8371	6,276.86	85.3284	6,276.86	83.3953	6,276.86	83.3604	6,276.86	83.4166	6,276.86	81.8323	6,276.86	82.5681	6,276.86	80.7883	6,276.86	72.0532	6,276.86	80.182	6,276.86	79.5806	6,276.86	77.7516	6,276.86	80.2966	6,276.86	75.4646	6,276.86	73.6169	6,276.86	72.2822	6,276.86	72.5628	6,276.86	69.3365	6,276.86	65.1765	6,276.86	65.8531	6,276.86	64.5041	6,276.86	66.9375	6,276.86	61.983	6,276.86	67.8264	6,276.86	61.0105	6,276.86	64.8841	6,276.86	64.1527	6,276.86	62.6613	6,276.86	51.469	6,276.86	59.1322	6,276.86	61.1349	6,276.86	61.9202	6,276.86	61.9873	6,276.86	59.9056
6,498.05	85.4896	6,498.05	83.9768	6,498.05	84.225	6,498.05	85.8921	6,498.05	82.0145	6,498.05	82.9076	6,498.05	83.6909	6,498.05	81.37	6,498.05	78.8812	6,498.05	81.0799	6,498.05	76.1391	6,498.05	79.5226	6,498.05	78.2818	6,498.05	77.2043	6,498.05	78.7143	6,498.05	73.5595	6,498.05	73.9765	6,498.05	71.3731	6,498.05	72.2132	6,498.05	69.8736	6,498.05	64.2638	6,498.05	66.2281	6,498.05	60.0173	6,498.05	65.4917	6,498.05	61.5285	6,498.05	64.0107	6,498.05	60.2661	6,498.05	64.3716	6,498.05	61.5752	6,498.05	62.5593	6,498.05	44.8361	6,498.05	59.477	6,498.05	61.8271	6,498.05	62.2669	6,498.05	56.606	6,498.05	61.2155
6,726.56	85.7969	6,726.56	84.2602	6,726.56	85.2779	6,726.56	85.466	6,726.56	80.0373	6,726.56	82.4094	6,726.56	83.6422	6,726.56	80.2449	6,726.56	74.5636	6,726.56	81.2534	6,726.56	79.2464	6,726.56	77.8701	6,726.56	77.1177	6,726.56	76.5046	6,726.56	76.7252	6,726.56	72.9741	6,726.56	76.2825	6,726.56	69.9641	6,726.56	72.0773	6,726.56	65.9898	6,726.56	70.0912	6,726.56	65.5244	6,726.56	55.9901	6,726.56	63.3959	6,726.56	58.0485	6,726.56	62.4945	6,726.56	49.5109	6,726.56	63.4563	6,726.56	51.3389	6,726.56	60.3054	6,726.56	53.0955	6,726.56	58.4192	6,726.56	59.9362	6,726.56	60.8874	6,726.56	48.0502	6,726.56	60.9916
6,963.87	85.253	6,963.87	84.338	6,963.87	86.2288	6,963.87	85.3252	6,963.87	84.0458	6,963.87	81.3475	6,963.87	81.691	6,963.87	81.4572	6,963.87	78.8384	6,963.87	80.3157	6,963.87	81.0093	6,963.87	77.6018	6,963.87	76.3919	6,963.87	74.5889	6,963.87	75.1631	6,963.87	71.6452	6,963.87	77.4969	6,963.87	68.2143	6,963.87	74.4994	6,963.87	66.1938	6,963.87	67.9044	6,963.87	64.0616	6,963.87	52.7803	6,963.87	63.9079	6,963.87	60.3323	6,963.87	63.5457	6,963.87	45.0731	6,963.87	61.924	6,963.87	54.6496	6,963.87	58.5669	6,963.87	48.2627	6,963.87	60.482	6,963.87	61.5402	6,963.87	57.7927	6,963.87	49.6505	6,963.87	58.5916
7,209.96	85.2037	7,209.96	85.4009	7,209.96	85.3179	7,209.96	84.9711	7,209.96	83.7672	7,209.96	81.3355	7,209.96	81.0334	7,209.96	81.0718	7,209.96	82.9265	7,209.96	79.7451	7,209.96	81.8522	7,209.96	76.4318	7,209.96	74.2957	7,209.96	73.9322	7,209.96	77.987	7,209.96	70.796	7,209.96	77.2905	7,209.96	69.0005	7,209.96	70.8187	7,209.96	66.0881	7,209.96	66.2655	7,209.96	64.2078	7,209.96	47.3535	7,209.96	63.381	7,209.96	58.1649	7,209.96	60.4319	7,209.96	58.2848	7,209.96	61.9324	7,209.96	59.0463	7,209.96	62.684	7,209.96	54.24	7,209.96	59.6729	7,209.96	53.9471	7,209.96	53.6051	7,209.96	52.8313	7,209.96	55.5142
7,464.84	85.1238	7,464.84	84.7676	7,464.84	84.4758	7,464.84	83.8494	7,464.84	82.7827	7,464.84	82.1452	7,464.84	82.9617	7,464.84	80.8278	7,464.84	84.6014	7,464.84	79.0591	7,464.84	80.792	7,464.84	76.927	7,464.84	76.4516	7,464.84	74.58	7,464.84	75.9268	7,464.84	72.0819	7,464.84	75.9329	7,464.84	66.2651	7,464.84	69.363	7,464.84	67.1353	7,464.84	70.0898	7,464.84	60.2418	7,464.84	54.9225	7,464.84	63.4743	7,464.84	59.1433	7,464.84	61.0208	7,464.84	54.2087	7,464.84	62.1995	7,464.84	56.0008	7,464.84	60.9677	7,464.84	53.1457	7,464.84	58.6782	7,464.84	57.0154	7,464.84	36.3695	7,464.84	43.0462	7,464.84	53.2303
7,727.05	85.4935	7,727.05	85.3295	7,727.05	85.1982	7,727.05	84.3837	7,727.05	82.5167	7,727.05	82.3857	7,727.05	84.4074	7,727.05	79.5425	7,727.05	84.5809	7,727.05	79.032	7,727.05	80.0352	7,727.05	76.5646	7,727.05	75.1237	7,727.05	73.7258	7,727.05	75.8705	7,727.05	71.7884	7,727.05	71.6994	7,727.05	68.6158	7,727.05	69.6108	7,727.05	65.5885	7,727.05	67.9942	7,727.05	59.8435	7,727.05	54.2758	7,727.05	62.8327	7,727.05	58.5661	7,727.05	59.4296	7,727.05	59.6673	7,727.05	61.6916	7,727.05	49.3995	7,727.05	60.9128	7,727.05	50.6653	7,727.05	57.0439	7,727.05	59.762	7,727.05	53.7169	7,727.05	47.7942	7,727.05	55.7218
7,999.51	85.0819	7,999.51	84.3173	7,999.51	84.6877	7,999.51	84.107	7,999.51	82.7353	7,999.51	81.3403	7,999.51	84.0236	7,999.51	79.7188	7,999.51	83.1157	7,999.51	78.6901	7,999.51	79.9008	7,999.51	76.4096	7,999.51	74.4127	7,999.51	74.1482	7,999.51	73.2108	7,999.51	70.6083	7,999.51	65.221	7,999.51	67.4298	7,999.51	64.8928	7,999.51	65.769	7,999.51	62.1532	7,999.51	59.9246	7,999.51	59.3188	7,999.51	60.9152	7,999.51	37.1448	7,999.51	60.5647	7,999.51	58.8971	7,999.51	61.8182	7,999.51	54.4872	7,999.51	59.6464	7,999.51	40.8708	7,999.51	55.9302	7,999.51	55.6839	7,999.51	52.0386	7,999.51	54.8717	7,999.51	56.6178
8,282.23	84.8864	8,282.23	84.9082	8,282.23	84.0992	8,282.23	84.1598	8,282.23	82.7857	8,282.23	81.1731	8,282.23	82.3633	8,282.23	79.4639	8,282.23	79.4048	8,282.23	78.0983	8,282.23	80.2015	8,282.23	76.6546	8,282.23	74.8789	8,282.23	73.1137	8,282.23	73.1014	8,282.23	70.7643	8,282.23	65.9949	8,282.23	67.8877	8,282.23	67.5969	8,282.23	62.7882	8,282.23	67.5977	8,282.23	62.292	8,282.23	53.8181	8,282.23	62.0819	8,282.23	49.5785	8,282.23	58.67	8,282.23	55.3085	8,282.23	61.2604	8,282.23	45.516	8,282.23	61.4558	8,282.23	52.7352	8,282.23	57.4782	8,282.23	58.2368	8,282.23	54.339	8,282.23	51.5588	8,282.23	58.772
8,573.73	84.8442	8,573.73	84.3583	8,573.73	84.5072	8,573.73	83.3198	8,573.73	81.0675	8,573.73	81.1502	8,573.73	80.9125	8,573.73	78.9641	8,573.73	76.6464	8,573.73	77.8514	8,573.73	79.6944	8,573.73	75.8073	8,573.73	69.0556	8,573.73	73.7727	8,573.73	72.828	8,573.73	70.8404	8,573.73	72.8616	8,573.73	67.4816	8,573.73	70.2533	8,573.73	64.276	8,573.73	61.4308	8,573.73	59.6187	8,573.73	52.674	8,573.73	60.0218	8,573.73	48.899	8,573.73	60.0533	8,573.73	56.2421	8,573.73	59.7683	8,573.73	54.7334	8,573.73	60.0756	8,573.73	52.9043	8,573.73	54.4666	8,573.73	57.2178	8,573.73	53.7883	8,573.73	45.6799	8,573.73	55.485
8,876.95	84.2763	8,876.95	84.0667	8,876.95	84.2611	8,876.95	83.0155	8,876.95	83.2909	8,876.95	81.2999	8,876.95	81.2417	8,876.95	77.786	8,876.95	78.3014	8,876.95	77.5139	8,876.95	77.8398	8,876.95	75.2729	8,876.95	65.6603	8,876.95	72.0853	8,876.95	72.9671	8,876.95	68.7603	8,876.95	71.7479	8,876.95	64.4078	8,876.95	67.0823	8,876.95	61.4624	8,876.95	60.7087	8,876.95	58.781	8,876.95	37.9971	8,876.95	59.0894	8,876.95	52.9945	8,876.95	56.3021	8,876.95	57.775	8,876.95	58.332	8,876.95	53.4711	8,876.95	58.3416	8,876.95	53.9341	8,876.95	55.9053	8,876.95	59.1986	8,876.95	48.3005	8,876.95	45.497	8,876.95	54.9449
9,188.96	83.592	9,188.96	84.0305	9,188.96	84.4221	9,188.96	82.6961	9,188.96	82.9179	9,188.96	80.3264	9,188.96	82.6011	9,188.96	77.8324	9,188.96	78.8711	9,188.96	76.4836	9,188.96	76.5901	9,188.96	74.5254	9,188.96	66.2409	9,188.96	69.908	9,188.96	73.8148	9,188.96	68.3319	9,188.96	71.1076	9,188.96	62.0125	9,188.96	67.185	9,188.96	60.6307	9,188.96	56.17	9,188.96	56.501	9,188.96	53.9012	9,188.96	58.6965	9,188.96	53.4214	9,188.96	56.1768	9,188.96	53.1737	9,188.96	57.5799	9,188.96	43.8329	9,188.96	57.2481	9,188.96	51.2934	9,188.96	54.094	9,188.96	54.1395	9,188.96	43.4379	9,188.96	50.8656	9,188.96	53.8969
9,514.16	83.1372	9,514.16	83.7274	9,514.16	84.1219	9,514.16	81.9601	9,514.16	81.579	9,514.16	79.9023	9,514.16	82.9194	9,514.16	77.591	9,514.16	79.8135	9,514.16	75.8883	9,514.16	75.2581	9,514.16	73.5037	9,514.16	73.7148	9,514.16	69.797	9,514.16	72.5192	9,514.16	65.3371	9,514.16	68.1001	9,514.16	61.9123	9,514.16	65.4376	9,514.16	56.9233	9,514.16	62.0859	9,514.16	48.5453	9,514.16	60.2737	9,514.16	50.0981	9,514.16	50.3333	9,514.16	56.5167	9,514.16	55.4296	9,514.16	57.1706	9,514.16	46.4186	9,514.16	51.9291	9,514.16	50.1544	9,514.16	44.8584	9,514.16	56.3715	9,514.16	50.9948	9,514.16	48.2313	9,514.16	53.4108
9,849.61	83.0796	9,849.61	83.0415	9,849.61	84.5487	9,849.61	81.0655	9,849.61	82.2326	9,849.61	79.9316	9,849.61	81.1135	9,849.61	77.2103	9,849.61	80.236	9,849.61	75.1188	9,849.61	73.5958	9,849.61	72.8728	9,849.61	75.5793	9,849.61	66.2219	9,849.61	70.4039	9,849.61	60.6458	9,849.61	68.8821	9,849.61	58.9285	9,849.61	64.3109	9,849.61	48.7974	9,849.61	62.6772	9,849.61	54.9918	9,849.61	59.6125	9,849.61	50.8675	9,849.61	47.7739	9,849.61	51.9572	9,849.61	51.2181	9,849.61	53.3944	9,849.61	48.1413	9,849.61	48.1124	9,849.61	50.0519	9,849.61	45.4297	9,849.61	52.0116	9,849.61	52.2012	9,849.61	42.872	9,849.61	51.1783
10,196.8	83.1758	10,196.8	83.0248	10,196.8	84.4621	10,196.8	81.4032	10,196.8	82.7114	10,196.8	79.3387	10,196.8	78.4502	10,196.8	77.734	10,196.8	79.1818	10,196.8	74.5004	10,196.8	74.422	10,196.8	72.0917	10,196.8	75.822	10,196.8	64.7322	10,196.8	67.6747	10,196.8	61.6577	10,196.8	69.4477	10,196.8	58.5353	10,196.8	61.6382	10,196.8	53.6821	10,196.8	62.7745	10,196.8	55.2485	10,196.8	59.5087	10,196.8	53.612	10,196.8	48.5006	10,196.8	54.6455	10,196.8	54.1925	10,196.8	49.7679	10,196.8	49.7301	10,196.8	51.4289	10,196.8	45.9789	10,196.8	54.8538	10,196.8	49.9342	10,196.8	53.8605	10,196.8	51.0768	10,196.8	52.3414
10,555.7	83.197	10,555.7	82.9684	10,555.7	84.2693	10,555.7	81.8273	10,555.7	83.1427	10,555.7	79.2128	10,555.7	79.2003	10,555.7	77.8422	10,555.7	76.5641	10,555.7	74.3758	10,555.7	76.4683	10,555.7	70.9011	10,555.7	73.9446	10,555.7	66.7494	10,555.7	68.1651	10,555.7	63.3984	10,555.7	69.4375	10,555.7	62.6234	10,555.7	63.4642	10,555.7	55.2558	10,555.7	59.6658	10,555.7	54.8264	10,555.7	52.8871	10,555.7	50.0285	10,555.7	42.8375	10,555.7	53.6162	10,555.7	48.3847	10,555.7	53.8358	10,555.7	50.389	10,555.7	53.272	10,555.7	44.5499	10,555.7	55.2666	10,555.7	42.4564	10,555.7	53.9707	10,555.7	49.4239	10,555.7	49.6283
10,927.7	83.0774	10,927.7	82.9137	10,927.7	83.8204	10,927.7	81.8228	10,927.7	82.6616	10,927.7	79.4375	10,927.7	80.9401	10,927.7	77.5319	10,927.7	74.8219	10,927.7	74.0056	10,927.7	78.5986	10,927.7	70.7186	10,927.7	71.7283	10,927.7	68.1908	10,927.7	71.2801	10,927.7	65.505	10,927.7	67.5367	10,927.7	62.4622	10,927.7	60.1348	10,927.7	57.9733	10,927.7	60.8417	10,927.7	57.7216	10,927.7	54.0047	10,927.7	53.4011	10,927.7	55.5115	10,927.7	55.06	10,927.7	38.4006	10,927.7	54.709	10,927.7	53.0165	10,927.7	55.0443	10,927.7	48.6763	10,927.7	56.0503	10,927.7	37.2083	10,927.7	52.3339	10,927.7	41.2933	10,927.7	53.8354
11,313	83.432	11,313	83.0109	11,313	83.8909	11,313	81.8768	11,313	81.448	11,313	79.7156	11,313	80.8616	11,313	77.0703	11,313	76.7235	11,313	72.3647	11,313	78.8883	11,313	71.2219	11,313	71.867	11,313	67.6876	11,313	68.4842	11,313	64.4697	11,313	66.1979	11,313	60.8334	11,313	60.4226	11,313	56.4133	11,313	61.4888	11,313	52.3206	11,313	58.1257	11,313	54.3275	11,313	56.3587	11,313	55.7856	11,313	52.2882	11,313	54.2588	11,313	50.4144	11,313	53.3691	11,313	49.8357	11,313	52.9231	11,313	50.0013	11,313	46.0316	11,313	46.6918	11,313	48.692
11,712.9	83.6759	11,712.9	83.2555	11,712.9	84.4182	11,712.9	82.0208	11,712.9	82.1955	11,712.9	79.6464	11,712.9	78.7472	11,712.9	76.0579	11,712.9	78.7686	11,712.9	71.6712	11,712.9	77.0443	11,712.9	70.1805	11,712.9	72.3755	11,712.9	66.9892	11,712.9	59.806	11,712.9	62.9686	11,712.9	66.5443	11,712.9	60.0449	11,712.9	57.186	11,712.9	55.6697	11,712.9	59.7165	11,712.9	48.8394	11,712.9	56.0175	11,712.9	50.7825	11,712.9	52.1997	11,712.9	53.9223	11,712.9	51.6614	11,712.9	52.4096	11,712.9	52.1202	11,712.9	52.0224	11,712.9	46.7718	11,712.9	51.3627	11,712.9	36.8976	11,712.9	45.3343	11,712.9	34.0661	11,712.9	45.2927
12,126	84.1118	12,126	83.6439	12,126	84.6325	12,126	81.94	12,126	82.7954	12,126	79.5734	12,126	80.0692	12,126	75.1576	12,126	79.0496	12,126	70.9027	12,126	73.8001	12,126	69.8993	12,126	70.3945	12,126	64.9451	12,126	61.2137	12,126	60.4378	12,126	65.2638	12,126	58.0391	12,126	56.937	12,126	52.9106	12,126	56.3802	12,126	52.6228	12,126	57.4025	12,126	50.7858	12,126	46.9361	12,126	52.0259	12,126	44.7334	12,126	49.4996	12,126	40.3606	12,126	50.2033	12,126	43.0512	12,126	46.6866	12,126	45.2281	12,126	41.995	12,126	36.0235	12,126	44.5652
12,553.7	84.4676	12,553.7	83.82	12,553.7	84.6293	12,553.7	82.1412	12,553.7	82.9733	12,553.7	79.1313	12,553.7	80.9198	12,553.7	74.6808	12,553.7	77.1284	12,553.7	70.1257	12,553.7	71.6445	12,553.7	69.0853	12,553.7	70.2716	12,553.7	62.9492	12,553.7	63.6782	12,553.7	57.3617	12,553.7	66.586	12,553.7	52.6819	12,553.7	60.322	12,553.7	47.0772	12,553.7	56.9511	12,553.7	48.7737	12,553.7	54.2707	12,553.7	47.842	12,553.7	46.1849	12,553.7	48.9463	12,553.7	40.3894	12,553.7	46.1094	12,553.7	40.5046	12,553.7	47.2511	12,553.7	44.9	12,553.7	48.5045	12,553.7	43.9208	12,553.7	37.2883	12,553.7	34.4854	12,553.7	43.6977
12,996.1	84.5986	12,996.1	84.0373	12,996.1	84.196	12,996.1	82.3751	12,996.1	82.5615	12,996.1	78.4029	12,996.1	79.8448	12,996.1	74.3271	12,996.1	74.454	12,996.1	70.0462	12,996.1	73.143	12,996.1	67.2568	12,996.1	69.1302	12,996.1	60.6096	12,996.1	62.7962	12,996.1	55.4777	12,996.1	64.2441	12,996.1	54.4079	12,996.1	55.7109	12,996.1	48.5358	12,996.1	55.9554	12,996.1	40.4143	12,996.1	53.3433	12,996.1	45.5507	12,996.1	45.115	12,996.1	49.6373	12,996.1	29.7354	12,996.1	46.7863	12,996.1	39.1414	12,996.1	47.4167	12,996.1	43.6143	12,996.1	48.7102	12,996.1	46.1881	12,996.1	26.4264	12,996.1	39.9618	12,996.1	44.3821
13,454.6	84.4876	13,454.6	83.7467	13,454.6	83.7011	13,454.6	82.2403	13,454.6	81.775	13,454.6	77.4209	13,454.6	78.7117	13,454.6	73.861	13,454.6	73.7903	13,454.6	69.1562	13,454.6	72.5131	13,454.6	64.9481	13,454.6	69.7776	13,454.6	60.2192	13,454.6	59.0134	13,454.6	56.4263	13,454.6	59.2055	13,454.6	53.7708	13,454.6	55.7799	13,454.6	47.8885	13,454.6	57.2844	13,454.6	42.1425	13,454.6	51.003	13,454.6	46.4226	13,454.6	43.219	13,454.6	49.816	13,454.6	44.0244	13,454.6	45.1998	13,454.6	45.5739	13,454.6	47.853	13,454.6	41.6566	13,454.6	48.4686	13,454.6	45.7754	13,454.6	29.8079	13,454.6	42.9275	13,454.6	43.5188
13,929.2	84.4208	13,929.2	83.3862	13,929.2	83.5762	13,929.2	81.6588	13,929.2	82.4374	13,929.2	76.5261	13,929.2	79.1711	13,929.2	73.136	13,929.2	75.2342	13,929.2	67.1819	13,929.2	70.8044	13,929.2	63.6953	13,929.2	67.3232	13,929.2	59.3368	13,929.2	59.6044	13,929.2	57.0289	13,929.2	57.4276	13,929.2	54.4386	13,929.2	54.306	13,929.2	48.6795	13,929.2	54.6408	13,929.2	46.0075	13,929.2	51.7229	13,929.2	48.9367	13,929.2	40.4932	13,929.2	48.4643	13,929.2	41.5521	13,929.2	43.0825	13,929.2	44.3028	13,929.2	46.8741	13,929.2	40.2053	13,929.2	48.8096	13,929.2	42.8564	13,929.2	30.6661	13,929.2	34.7989	13,929.2	42.412
14,419.9	84.1806	14,419.9	83.111	14,419.9	83.5371	14,419.9	80.8009	14,419.9	81.7499	14,419.9	75.2893	14,419.9	79.1692	14,419.9	71.8121	14,419.9	74.4254	14,419.9	64.7131	14,419.9	70.4827	14,419.9	62.6981	14,419.9	65.8268	14,419.9	59.6551	14,419.9	57.6432	14,419.9	57.2638	14,419.9	54.8432	14,419.9	54.0773	14,419.9	48.8624	14,419.9	47.5491	14,419.9	54.75	14,419.9	46.7614	14,419.9	53.5742	14,419.9	47.7359	14,419.9	44.1535	14,419.9	47.3298	14,419.9	30.4541	14,419.9	44.1713	14,419.9	43.3465	14,419.9	44.9164	14,419.9	36.8985	14,419.9	46.7203	14,419.9	38.4235	14,419.9	8.40768	14,419.9	35.164	14,419.9	39.4221
14,928.2	83.763	14,928.2	82.805	14,928.2	83.5358	14,928.2	79.925	14,928.2	81.8904	14,928.2	73.6351	14,928.2	77.643	14,928.2	70.7975	14,928.2	73.9927	14,928.2	62.9569	14,928.2	69.6804	14,928.2	63.4125	14,928.2	61.6006	14,928.2	61.2855	14,928.2	60.2178	14,928.2	57.7604	14,928.2	52.6363	14,928.2	54.2626	14,928.2	41.9932	14,928.2	48.1023	14,928.2	51.1033	14,928.2	45.5392	14,928.2	52.0046	14,928.2	46.2265	14,928.2	46.4008	14,928.2	47.4965	14,928.2	37.4334	14,928.2	41.7558	14,928.2	43.1315	14,928.2	45.6985	14,928.2	41.4959	14,928.2	45.1718	14,928.2	42.5891	14,928.2	32.7723	14,928.2	36.809	14,928.2	40.247
15,455.6	83.5669	15,455.6	82.5035	15,455.6	83.5002	15,455.6	79.2348	15,455.6	81.6741	15,455.6	72.9717	15,455.6	78.1657	15,455.6	68.9958	15,455.6	71.147	15,455.6	62.6943	15,455.6	66.8056	15,455.6	63.732	15,455.6	58.0609	15,455.6	61.0949	15,455.6	56.9377	15,455.6	57.1511	15,455.6	49.1053	15,455.6	53.9128	15,455.6	48.3633	15,455.6	47.6474	15,455.6	51.6724	15,455.6	44.305	15,455.6	51.5938	15,455.6	43.6678	15,455.6	44.5402	15,455.6	46.7009	15,455.6	40.7458	15,455.6	41.546	15,455.6	41.8915	15,455.6	45.0945	15,455.6	40.6995	15,455.6	43.0124	15,455.6	39.5375	15,455.6	36.3453	15,455.6	36.469	15,455.6	41.099
16,000.5	83.5915	16,000.5	82.3368	16,000.5	83.5791	16,000.5	78.8453	16,000.5	81.2853	16,000.5	72.6005	16,000.5	77.3894	16,000.5	67.2295	16,000.5	69.8167	16,000.5	62.3904	16,000.5	65.0704	16,000.5	62.6201	16,000.5	56.4767	16,000.5	60.0727	16,000.5	54.3515	16,000.5	55.6985	16,000.5	48.4356	16,000.5	51.8037	16,000.5	47.7585	16,000.5	43.1277	16,000.5	50.5362	16,000.5	43.1304	16,000.5	52.5344	16,000.5	43.2868	16,000.5	37.3125	16,000.5	45.2619	16,000.5	35.5321	16,000.5	35.8303	16,000.5	40.3585	16,000.5	42.2896	16,000.5	37.0034	16,000.5	37.1375	16,000.5	27.4998	16,000.5	36.8032	16,000.5	39.3442	16,000.5	42.0949
16,564.5	83.4297	16,564.5	82.105	16,564.5	83.2793	16,564.5	78.3561	16,564.5	80.6431	16,564.5	72.2211	16,564.5	76.5694	16,564.5	65.8172	16,564.5	69.2213	16,564.5	61.839	16,564.5	62.1641	16,564.5	61.7567	16,564.5	52.4979	16,564.5	57.768	16,564.5	57.0903	16,564.5	53.3852	16,564.5	47.2612	16,564.5	48.626	16,564.5	39.0889	16,564.5	39.1601	16,564.5	49.871	16,564.5	39.9229	16,564.5	52.616	16,564.5	41.3524	16,564.5	40.4525	16,564.5	41.14	16,564.5	34.1006	16,564.5	26.278	16,564.5	39.4214	16,564.5	36.8523	16,564.5	19.4219	16,564.5	36.0817	16,564.5	37.5501	16,564.5	33.692	16,564.5	37.9966	16,564.5	33.8962
17,148.9	83.1657	17,148.9	81.7623	17,148.9	82.7295	17,148.9	77.8904	17,148.9	79.634	17,148.9	71.2931	17,148.9	75.3071	17,148.9	64.1281	17,148.9	66.0868	17,148.9	61.1313	17,148.9	58.4433	17,148.9	61.1064	17,148.9	51.8368	17,148.9	55.3221	17,148.9	54.6817	17,148.9	50.487	17,148.9	48.0446	17,148.9	44.374	17,148.9	42.6645	17,148.9	39.975	17,148.9	46.7117	17,148.9	33.8825	17,148.9	52.1042	17,148.9	35.4851	17,148.9	36.109	17,148.9	34.2374	17,148.9	37.1383	17,148.9	18.8766	17,148.9	37.6627	17,148.9	25.9059	17,148.9	28.7822	17,148.9	29.5031	17,148.9	36.6228	17,148.9	33.2943	17,148.9	36.0701	17,148.9	27.167
17,752.4	82.6997	17,752.4	80.9618	17,752.4	82.1074	17,752.4	76.8986	17,752.4	78.5962	17,752.4	69.6617	17,752.4	72.8792	17,752.4	64.4103	17,752.4	61.6634	17,752.4	61.1233	17,752.4	57.3682	17,752.4	60.8078	17,752.4	58.7114	17,752.4	53.786	17,752.4	51.9708	17,752.4	50.5549	17,752.4	50.4343	17,752.4	44.8943	17,752.4	38.9289	17,752.4	41.0543	17,752.4	50.4681	17,752.4	33.8035	17,752.4	50.7676	17,752.4	33.6394	17,752.4	36.1259	17,752.4	27.4596	17,752.4	15.0708	17,752.4	31.5843	17,752.4	30.3944	17,752.4	23.1333	17,752.4	36.437	17,752.4	24.4659	17,752.4	35.1973	17,752.4	33.5604	17,752.4	30.7412	17,752.4	18.2237
18,379.4	82.0233	18,379.4	80.1118	18,379.4	81.233	18,379.4	75.8069	18,379.4	77.6138	18,379.4	67.1466	18,379.4	71.0386	18,379.4	64.1667	18,379.4	59.0255	18,379.4	60.9586	18,379.4	57.6951	18,379.4	59.7182	18,379.4	58.0961	18,379.4	54.2914	18,379.4	55.2937	18,379.4	50.1705	18,379.4	43.4438	18,379.4	46.0073	18,379.4	33.3726	18,379.4	38.8498	18,379.4	52.491	18,379.4	36.0477	18,379.4	50.5503	18,379.4	35.1872	18,379.4	33.5661	18,379.4	33.0836	18,379.4	32.8642	18,379.4	31.0304	18,379.4	24.1386	18,379.4	32.1884	18,379.4	33.0456	18,379.4	21.2876	18,379.4	33.7708	18,379.4	33.3417	18,379.4	28.7136	18,379.4	17.9681
19,026.9	81.1185	19,026.9	79.0541	19,026.9	80.2417	19,026.9	74.2179	19,026.9	76.1482	19,026.9	65.1393	19,026.9	69.3118	19,026.9	64.1166	19,026.9	59.3591	19,026.9	60.408	19,026.9	58.1381	19,026.9	58.4802	19,026.9	56.6418	19,026.9	53.4331	19,026.9	52.7251	19,026.9	48.3577	19,026.9	44.4013	19,026.9	42.6583	19,026.9	30.4455	19,026.9	33.2361	19,026.9	51.0505	19,026.9	34.4693	19,026.9	50.8094	19,026.9	28.2246	19,026.9	29.7125	19,026.9	33.0437	19,026.9	27.1991	19,026.9	21.3441	19,026.9	29.8866	19,026.9	32.118	19,026.9	21.8257	19,026.9	24.8593	19,026.9	28.9261	19,026.9	32.2132	19,026.9	15.3795	19,026.9	33.0947
19,697.8	79.94	19,697.8	77.7913	19,697.8	79.0616	19,697.8	72.5921	19,697.8	74.4649	19,697.8	63.428	19,697.8	66.6122	19,697.8	63.7121	19,697.8	59.471	19,697.8	59.6426	19,697.8	58.3462	19,697.8	57.0441	19,697.8	55.8176	19,697.8	50.5785	19,697.8	47.9786	19,697.8	44.7196	19,697.8	42.9958	19,697.8	38.4457	19,697.8	20.6769	19,697.8	29.7234	19,697.8	51.528	19,697.8	26.2179	19,697.8	50.7263	19,697.8	25.5074	19,697.8	35.0429	19,697.8	26.3712	19,697.8	30.4396	19,697.8	15.2314	19,697.8	33.6965	19,697.8	26.0422	19,697.8	27.5646	19,697.8	19.0128	19,697.8	30.2476	19,697.8	28.8544	19,697.8	28.8378	19,697.8	40.765
19,999.5	79.3288	19,999.5	77.0576	19,999.5	78.59	19,999.5	71.9093	19,999.5	73.3674	19,999.5	63.4351	19,999.5	66.4879	19,999.5	63.3672	19,999.5	58.1556	19,999.5	60.208	19,999.5	58.171	19,999.5	56.4437	19,999.5	51.8724	19,999.5	48.4845	19,999.5	48.9801	19,999.5	44.834	19,999.5	39.618	19,999.5	39.7365	19,999.5	40.131	19,999.5	25.3464	19,999.5	54.1378	19,999.5	40.4689	19,999.5	52.3397	19,999.5	35.9105	19,999.5	42.7591	19,999.5	42.3865	19,999.5	32.5475	19,999.5	42.5928	19,999.5	41.9285	19,999.5	42.3106	19,999.5	44.8741	19,999.5	38.7304	19,999.5	34.2717	19,999.5	33.5755	19,999.5	32.4089	19,999.5	27.8998
