"SPL Horizontal"
"On-Axis"		"10°"		"-10°"		"20°"		"-20°"		"30°"		"-30°"		"40°"		"-40°"		"50°"		"-50°"		"60°"		"-60°"		"70°"		"-70°"		"80°"		"-80°"		"90°"		"-90°"		"100°"		"-100°"		"110°"		"-110°"		"120°"		"-120°"		"130°"		"-130°"		"140°"		"-140°"		"150°"		"-150°"		"160°"		"-160°"		"170°"		"-170°"		"180°"
"Frequency [Hz]"	"Sound Pessure Level [dB]  / [2.83V 1m] "	"Frequency [Hz]"	"Sound Pessure Level [dB]  / [2.83V 1m] "	"Frequency [Hz]"	"Sound Pessure Level [dB]  / [2.83V 1m] "	"Frequency [Hz]"	"Sound Pessure Level [dB]  / [2.83V 1m] "	"Frequency [Hz]"	"Sound Pessure Level [dB]  / [2.83V 1m] "	"Frequency [Hz]"	"Sound Pessure Level [dB]  / [2.83V 1m] "	"Frequency [Hz]"	"Sound Pessure Level [dB]  / [2.83V 1m] "	"Frequency [Hz]"	"Sound Pessure Level [dB]  / [2.83V 1m] "	"Frequency [Hz]"	"Sound Pessure Level [dB]  / [2.83V 1m] "	"Frequency [Hz]"	"Sound Pessure Level [dB]  / [2.83V 1m] "	"Frequency [Hz]"	"Sound Pessure Level [dB]  / [2.83V 1m] "	"Frequency [Hz]"	"Sound Pessure Level [dB]  / [2.83V 1m] "	"Frequency [Hz]"	"Sound Pessure Level [dB]  / [2.83V 1m] "	"Frequency [Hz]"	"Sound Pessure Level [dB]  / [2.83V 1m] "	"Frequency [Hz]"	"Sound Pessure Level [dB]  / [2.83V 1m] "	"Frequency [Hz]"	"Sound Pessure Level [dB]  / [2.83V 1m] "	"Frequency [Hz]"	"Sound Pessure Level [dB]  / [2.83V 1m] "	"Frequency [Hz]"	"Sound Pessure Level [dB]  / [2.83V 1m] "	"Frequency [Hz]"	"Sound Pessure Level [dB]  / [2.83V 1m] "	"Frequency [Hz]"	"Sound Pessure Level [dB]  / [2.83V 1m] "	"Frequency [Hz]"	"Sound Pessure Level [dB]  / [2.83V 1m] "	"Frequency [Hz]"	"Sound Pessure Level [dB]  / [2.83V 1m] "	"Frequency [Hz]"	"Sound Pessure Level [dB]  / [2.83V 1m] "	"Frequency [Hz]"	"Sound Pessure Level [dB]  / [2.83V 1m] "	"Frequency [Hz]"	"Sound Pessure Level [dB]  / [2.83V 1m] "	"Frequency [Hz]"	"Sound Pessure Level [dB]  / [2.83V 1m] "	"Frequency [Hz]"	"Sound Pessure Level [dB]  / [2.83V 1m] "	"Frequency [Hz]"	"Sound Pessure Level [dB]  / [2.83V 1m] "	"Frequency [Hz]"	"Sound Pessure Level [dB]  / [2.83V 1m] "	"Frequency [Hz]"	"Sound Pessure Level [dB]  / [2.83V 1m] "	"Frequency [Hz]"	"Sound Pessure Level [dB]  / [2.83V 1m] "	"Frequency [Hz]"	"Sound Pessure Level [dB]  / [2.83V 1m] "	"Frequency [Hz]"	"Sound Pessure Level [dB]  / [2.83V 1m] "	"Frequency [Hz]"	"Sound Pessure Level [dB]  / [2.83V 1m] "	"Frequency [Hz]"	"Sound Pessure Level [dB]  / [2.83V 1m] "	"Frequency [Hz]"	"Sound Pessure Level [dB]  / [2.83V 1m] "
20.5078	52.2456	20.5078	52.0467	20.5078	52.349	20.5078	51.7586	20.5078	52.358	20.5078	51.3989	20.5078	52.2796	20.5078	51.0053	20.5078	52.1287	20.5078	50.6472	20.5078	51.9306	20.5078	50.4322	20.5078	51.7242	20.5078	50.4864	20.5078	51.5648	20.5078	50.8937	20.5078	51.5211	20.5078	51.6339	20.5078	51.6607	20.5078	52.5916	20.5078	52.0249	20.5078	53.6253	20.5078	52.6063	20.5078	54.6197	20.5078	53.3485	20.5078	55.4988	20.5078	54.1691	20.5078	56.2167	20.5078	54.9863	20.5078	56.747	20.5078	55.7326	20.5078	57.0753	20.5078	56.3575	20.5078	57.1958	20.5078	56.8248	20.5078	57.1096
21.9727	52.2274	21.9727	52.0981	21.9727	52.1699	21.9727	51.7758	21.9727	51.924	21.9727	51.246	21.9727	51.4799	21.9727	50.4874	21.9727	50.819	21.9727	49.4778	21.9727	49.9143	21.9727	48.2193	21.9727	48.7363	21.9727	46.8233	21.9727	47.2829	21.9727	45.7194	21.9727	45.6971	21.9727	45.7078	21.9727	44.5668	21.9727	47.0318	21.9727	44.882	21.9727	48.9511	21.9727	46.6153	21.9727	50.8223	21.9727	48.7578	21.9727	52.4122	21.9727	50.7202	21.9727	53.672	21.9727	52.3486	21.9727	54.6035	21.9727	53.6293	21.9727	55.2168	21.9727	54.5757	21.9727	55.5193	21.9727	55.2012	21.9727	55.5143
23.4375	51.1891	23.4375	50.8454	23.4375	51.3298	23.4375	50.291	23.4375	51.2805	23.4375	49.5374	23.4375	51.059	23.4375	48.6561	23.4375	50.6955	23.4375	47.87	23.4375	50.2496	23.4375	47.6276	23.4375	49.8371	23.4375	48.3361	23.4375	49.6477	23.4375	49.8479	23.4375	49.8938	23.4375	51.6628	23.4375	50.6655	23.4375	53.4277	23.4375	51.8447	23.4375	54.9977	23.4375	53.2122	23.4375	56.3309	23.4375	54.5849	23.4375	57.4217	23.4375	55.8536	23.4375	58.2742	23.4375	56.9616	23.4375	58.8933	23.4375	57.8808	23.4375	59.2829	23.4375	58.5962	23.4375	59.4455	23.4375	59.0989	23.4375	59.3832
24.9023	53.6609	24.9023	53.4376	24.9023	53.706	24.9023	53.0396	24.9023	53.5735	24.9023	52.4822	24.9023	53.2663	24.9023	51.8123	24.9023	52.7952	24.9023	51.1483	24.9023	52.192	24.9023	50.7222	24.9023	51.5388	24.9023	50.8322	24.9023	51.0097	24.9023	51.6114	24.9023	50.8753	24.9023	52.8779	24.9023	51.3587	24.9023	54.3265	24.9023	52.4174	24.9023	55.7369	24.9023	53.7865	24.9023	56.9989	24.9023	55.2074	24.9023	58.0664	24.9023	56.5268	24.9023	58.9212	24.9023	57.6726	24.9023	59.5561	24.9023	58.6139	24.9023	59.9672	24.9023	59.3373	24.9023	60.1518	24.9023	59.8365	24.9023	60.1084
26.3672	54.3141	26.3672	54.0944	26.3672	54.3804	26.3672	53.7326	26.3672	54.2954	26.3672	53.2648	26.3672	54.0733	26.3672	52.775	26.3672	53.7468	26.3672	52.423	26.3672	53.3813	26.3672	52.4331	26.3672	53.0932	26.3672	52.9737	26.3672	53.0484	26.3672	54.0067	26.3672	53.4017	26.3672	55.323	26.3672	54.1888	26.3672	56.7068	26.3672	55.2951	26.3672	58.0186	26.3672	56.5443	26.3672	59.1866	26.3672	57.7905	26.3672	60.1771	26.3672	58.942	26.3672	60.974	26.3672	59.9479	26.3672	61.5693	26.3672	60.7804	26.3672	61.9581	26.3672	61.4238	26.3672	62.1378	26.3672	61.8682	26.3672	62.1074
27.832	57.0047	27.832	56.8891	27.832	56.9885	27.832	56.6514	27.832	56.8395	27.832	56.3149	27.832	56.5647	27.832	55.9277	27.832	56.1846	27.832	55.5781	27.832	55.7441	27.832	55.4008	27.832	55.3291	27.832	55.5438	27.832	55.0774	27.832	56.0838	27.832	55.1508	27.832	56.9636	27.832	55.6464	27.832	58.0347	27.832	56.5186	27.832	59.1471	27.832	57.6139	27.832	60.1947	27.832	58.7703	27.832	61.1146	27.832	59.872	27.832	61.8715	27.832	60.8501	27.832	62.4453	27.832	61.6664	27.832	62.8242	27.832	62.2996	27.832	63.0009	27.832	62.7371	27.832	62.972
29.2969	57.0207	29.2969	56.8405	29.2969	57.0593	29.2969	56.5271	29.2969	56.9603	29.2969	56.1086	29.2969	56.74	29.2969	55.6503	29.2969	56.4339	29.2969	55.2773	29.2969	56.1086	29.2969	55.1771	29.2969	55.8748	29.2969	55.5252	29.2969	55.8783	29.2969	56.3522	29.2969	56.243	29.2969	57.5125	29.2969	56.988	29.2969	58.8038	29.2969	58.0116	29.2969	60.0711	29.2969	59.1633	29.2969	61.2246	29.2969	60.3149	29.2969	62.2182	29.2969	61.3822	29.2969	63.0288	29.2969	62.3154	29.2969	63.6446	29.2969	63.0857	29.2969	64.059	29.2969	63.6757	29.2969	64.2688	29.2969	64.074	29.2969	64.2732
30.7617	58.9819	30.7617	58.8621	30.7617	59.0082	30.7617	58.6644	30.7617	58.9414	30.7617	58.4252	30.7617	58.7968	30.7617	58.21	30.7617	58.6077	30.7617	58.1161	30.7617	58.4313	30.7617	58.2533	30.7617	58.3505	30.7617	58.6957	30.7617	58.4616	30.7617	59.4336	30.7617	58.8382	30.7617	60.3789	30.7617	59.4905	30.7617	61.4152	30.7617	60.3568	30.7617	62.4435	30.7617	61.3379	30.7617	63.3952	30.7617	62.3375	30.7617	64.2273	30.7617	63.2825	30.7617	64.9134	30.7617	64.123	30.7617	65.437	30.7617	64.8267	30.7617	65.7873	30.7617	65.3729	30.7617	65.9575	30.7617	65.7482	30.7617	65.9444
32.2266	60.604	32.2266	60.5277	32.2266	60.5938	32.2266	60.3765	32.2266	60.4977	32.2266	60.1778	32.2266	60.329	32.2266	59.9802	32.2266	60.1167	32.2266	59.8569	32.2266	59.9109	32.2266	59.8982	32.2266	59.7857	32.2266	60.1826	32.2266	59.8306	32.2266	60.736	32.2266	60.1213	32.2266	61.5138	32.2266	60.6801	32.2266	62.4248	32.2266	61.4598	32.2266	63.3717	32.2266	62.3693	32.2266	64.2759	32.2266	63.3131	32.2266	65.0827	32.2266	64.2154	32.2266	65.7564	32.2266	65.0235	32.2266	66.2747	32.2266	65.7032	32.2266	66.6233	32.2266	66.2322	32.2266	66.7944	32.2266	66.5959	32.2266	66.785
33.6914	61.5519	33.6914	61.4549	33.6914	61.5781	33.6914	61.2995	33.6914	61.5348	33.6914	61.1156	33.6914	61.437	33.6914	60.9541	33.6914	61.3151	33.6914	60.8879	33.6914	61.2178	33.6914	61.0001	33.6914	61.2111	33.6914	61.3534	33.6914	61.3659	33.6914	61.9569	33.6914	61.7335	33.6914	62.7584	33.6914	62.3194	33.6914	63.6713	33.6914	63.0785	33.6914	64.6081	33.6914	63.9365	33.6914	65.4993	33.6914	64.8163	33.6914	66.2955	33.6914	65.6549	33.6914	66.9637	33.6914	66.4061	33.6914	67.4821	33.6914	67.038	33.6914	67.8366	33.6914	67.5282	33.6914	68.0192	33.6914	67.8613	33.6914	68.0269
35.1562	63.4854	35.1562	63.4184	35.1562	63.4995	35.1562	63.3102	35.1562	63.4611	35.1562	63.1865	35.1562	63.3828	35.1562	63.0888	35.1562	63.2904	35.1562	63.0733	35.1562	63.2239	35.1562	63.2013	35.1562	63.236	35.1562	63.5194	35.1562	63.3825	35.1562	64.0378	35.1562	63.705	35.1562	64.7232	35.1562	64.2119	35.1562	65.5125	35.1562	64.8726	35.1562	66.3349	35.1562	65.6301	35.1562	67.1285	35.1562	66.4197	35.1562	67.8456	35.1562	67.1839	35.1562	68.4518	35.1562	67.8774	35.1562	68.9238	35.1562	68.4671	35.1562	69.2457	35.1562	68.929	35.1562	69.4084	35.1562	69.2464	35.1562	69.4082
36.6211	64.6009	36.6211	64.5383	36.6211	64.6178	36.6211	64.441	36.6211	64.5896	36.6211	64.3328	36.6211	64.5283	36.6211	64.2521	36.6211	64.4583	36.6211	64.2493	36.6211	64.4167	36.6211	64.3795	36.6211	64.4508	36.6211	64.6845	36.6211	64.6101	36.6211	65.1749	36.6211	64.9304	36.6211	65.8231	36.6211	65.419	36.6211	66.5733	36.6211	66.0493	36.6211	67.361	36.6211	66.7707	36.6211	68.1274	36.6211	67.5243	36.6211	68.8254	36.6211	68.256	36.6211	69.4202	36.6211	68.9219	36.6211	69.8871	36.6211	69.4886	36.6211	70.2094	36.6211	69.932	36.6211	70.3767	36.6211	70.2345	36.6211	70.3848
38.0859	65.9187	38.0859	65.8729	38.0859	65.9313	38.0859	65.8044	38.0859	65.9106	38.0859	65.7354	38.0859	65.8672	38.0859	65.6995	38.0859	65.8225	38.0859	65.7395	38.0859	65.8088	38.0859	65.8995	38.0859	65.8665	38.0859	66.2115	38.0859	66.0367	38.0859	66.6816	38.0859	66.3493	38.0859	67.2861	38.0859	66.8105	38.0859	67.9785	38.0859	67.3987	38.0859	68.7038	38.0859	68.071	38.0859	69.4103	38.0859	68.7757	38.0859	70.0554	38.0859	69.4633	38.0859	70.6062	38.0859	70.0924	38.0859	71.0388	38.0859	70.6307	38.0859	71.3365	38.0859	71.0538	38.0859	71.4891	38.0859	71.3445	38.0859	71.4916
39.5508	67.2979	39.5508	67.2698	39.5508	67.3042	39.5508	67.2288	39.5508	67.2892	39.5508	67.1936	39.5508	67.2628	39.5508	67.1922	39.5508	67.2442	39.5508	67.2592	39.5508	67.2609	39.5508	67.4296	39.5508	67.3463	39.5508	67.7287	39.5508	67.5327	39.5508	68.1619	39.5508	67.8424	39.5508	68.7113	39.5508	68.2791	39.5508	69.3403	39.5508	68.8246	39.5508	70.0029	39.5508	69.4436	39.5508	70.6537	39.5508	70.0926	39.5508	71.2529	39.5508	70.7282	39.5508	71.7688	39.5508	71.3123	39.5508	72.1772	39.5508	71.8138	39.5508	72.4608	39.5508	72.2087	39.5508	72.6085	39.5508	72.4795	39.5508	72.6146
41.0156	68.6417	41.0156	68.618	41.0156	68.6526	41.0156	68.5897	41.0156	68.6503	41.0156	68.5735	41.0156	68.643	41.0156	68.5935	41.0156	68.6464	41.0156	68.6783	41.0156	68.6831	41.0156	68.8558	41.0156	68.7798	41.0156	69.1453	41.0156	68.963	41.0156	69.55	41.0156	69.2509	41.0156	70.0545	41.0156	69.6477	41.0156	70.6281	41.0156	70.1402	41.0156	71.232	41.0156	70.7005	41.0156	71.827	41.0156	71.2918	41.0156	72.3774	41.0156	71.8756	41.0156	72.8538	41.0156	72.4165	41.0156	73.2326	41.0156	72.8841	41.0156	73.4965	41.0156	73.2546	41.0156	73.6337	41.0156	73.5098	41.0156	73.6382
42.4805	70.0859	42.4805	70.0692	42.4805	70.0937	42.4805	70.0504	42.4805	70.0923	42.4805	70.0435	42.4805	70.0886	42.4805	70.0682	42.4805	70.096	42.4805	70.1484	42.4805	70.1338	42.4805	70.3078	42.4805	70.225	42.4805	70.5639	42.4805	70.3926	42.4805	70.9219	42.4805	70.6533	42.4805	71.3721	42.4805	71.0119	42.4805	71.8903	42.4805	71.4587	42.4805	72.4433	42.4805	71.97	42.4805	72.9946	42.4805	72.5135	42.4805	73.5098	42.4805	73.0539	42.4805	73.959	42.4805	73.5577	42.4805	74.3181	42.4805	73.9956	42.4805	74.5691	42.4805	74.3438	42.4805	74.7001	42.4805	74.5844	42.4805	74.7052
43.9453	71.3788	43.9453	71.378	43.9453	71.3754	43.9453	71.3788	43.9453	71.3677	43.9453	71.3929	43.9453	71.3619	43.9453	71.4369	43.9453	71.3701	43.9453	71.5303	43.9453	71.4095	43.9453	71.6926	43.9453	71.5004	43.9453	71.9381	43.9453	71.6628	43.9453	72.2718	43.9453	71.9113	43.9453	72.686	43.9453	72.2506	43.9453	73.1614	43.9453	72.6719	43.9453	73.6697	43.9453	73.1546	43.9453	74.1789	43.9453	73.6691	43.9453	74.6572	43.9453	74.1829	43.9453	75.0761	43.9453	74.6639	43.9453	75.4121	43.9453	75.0838	43.9453	75.6471	43.9453	75.4191	43.9453	75.7686	43.9453	75.6519	43.9453	75.7703
45.4102	72.4838	45.4102	72.4841	45.4102	72.4827	45.4102	72.4886	45.4102	72.481	45.4102	72.5076	45.4102	72.4843	45.4102	72.5553	45.4102	72.5033	45.4102	72.6489	45.4102	72.5529	45.4102	72.8055	45.4102	72.6506	45.4102	73.0382	45.4102	72.8135	45.4102	73.3521	45.4102	73.054	45.4102	73.7416	45.4102	73.3759	45.4102	74.1898	45.4102	73.772	45.4102	74.6715	45.4102	74.2243	45.4102	75.1567	45.4102	74.707	45.4102	75.6149	45.4102	75.1903	45.4102	76.0182	45.4102	75.6444	45.4102	76.3431	45.4102	76.0422	45.4102	76.5712	45.4102	76.3606	45.4102	76.6902	45.4102	76.5819	45.4102	76.6938
46.875	73.676	46.875	73.6788	46.875	73.6763	46.875	73.6888	46.875	73.6802	46.875	73.7142	46.875	73.6923	46.875	73.7668	46.875	73.7215	46.875	73.8606	46.875	73.7799	46.875	74.0096	46.875	73.8816	46.875	74.2249	46.875	74.0401	46.875	74.5111	46.875	74.2653	46.875	74.8639	46.875	74.5604	46.875	75.2699	46.875	74.9198	46.875	75.7077	46.875	75.3289	46.875	76.1513	46.875	75.766	46.875	76.573	46.875	76.2051	46.875	76.9467	46.875	76.6195	46.875	77.2495	46.875	76.984	46.875	77.4636	46.875	77.2766	46.875	77.5765	46.875	77.4799	46.875	77.5819
48.3398	74.6706	48.3398	74.6718	48.3398	74.674	48.3398	74.6816	48.3398	74.6824	48.3398	74.7078	48.3398	74.7	48.3398	74.7611	48.3398	74.7347	48.3398	74.8546	48.3398	74.7976	48.3398	75.0008	48.3398	74.9015	48.3398	75.2098	48.3398	75.0587	48.3398	75.4857	48.3398	75.2781	48.3398	75.8247	48.3398	75.5628	48.3398	76.2145	48.3398	75.9076	48.3398	76.6353	48.3398	76.2992	48.3398	77.0626	48.3398	76.7175	48.3398	77.4702	48.3398	77.1382	48.3398	77.8327	48.3398	77.5358	48.3398	78.1278	48.3398	77.8858	48.3398	78.3376	48.3398	78.1667	48.3398	78.4497	48.3398	78.3613	48.3398	78.4577
51.2695	76.7659	51.2695	76.7778	51.2695	76.7665	51.2695	76.8049	51.2695	76.7792	51.2695	76.8524	51.2695	76.8065	51.2695	76.9276	51.2695	76.8536	51.2695	77.0383	51.2695	76.9272	51.2695	77.1921	51.2695	77.0355	51.2695	77.3942	51.2695	77.186	51.2695	77.6463	51.2695	77.3845	51.2695	77.9446	51.2695	77.6329	51.2695	78.2796	51.2695	77.9281	51.2695	78.6366	51.2695	78.2611	51.2695	78.9968	51.2695	78.6173	51.2695	79.3392	51.2695	78.9781	51.2695	79.6431	51.2695	79.3226	51.2695	79.8893	51.2695	79.6295	51.2695	80.0621	51.2695	79.8794	51.2695	80.1505	51.2695	80.0562	51.2695	80.1485
52.7344	77.6096	52.7344	77.6266	52.7344	77.6059	52.7344	77.6589	52.7344	77.6154	52.7344	77.7104	52.7344	77.6405	52.7344	77.787	52.7344	77.6854	52.7344	77.8948	52.7344	77.756	52.7344	78.0401	52.7344	77.859	52.7344	78.2274	52.7344	78.0006	52.7344	78.4582	52.7344	78.1856	52.7344	78.7298	52.7344	78.4156	52.7344	79.0343	52.7344	78.6878	52.7344	79.3592	52.7344	78.9945	52.7344	79.6881	52.7344	79.3229	52.7344	80.0021	52.7344	79.6564	52.7344	80.2818	52.7344	79.9759	52.7344	80.5092	52.7344	80.2616	52.7344	80.6692	52.7344	80.4951	52.7344	80.7507	52.7344	80.6609	52.7344	80.7479
54.1992	78.3602	54.1992	78.3775	54.1992	78.3571	54.1992	78.4109	54.1992	78.3685	54.1992	78.4637	54.1992	78.3962	54.1992	78.5403	54.1992	78.4436	54.1992	78.646	54.1992	78.5155	54.1992	78.7858	54.1992	78.6174	54.1992	78.9634	54.1992	78.7546	54.1992	79.18	54.1992	78.9309	54.1992	79.4334	54.1992	79.1478	54.1992	79.717	54.1992	79.4029	54.1992	80.0198	54.1992	79.6894	54.1992	80.327	54.1992	79.9961	54.1992	80.6214	54.1992	80.3077	54.1992	80.8848	54.1992	80.6067	54.1992	81.0999	54.1992	80.8743	54.1992	81.252	54.1992	81.0932	54.1992	81.3304	54.1992	81.2484	54.1992	81.3293
55.6641	79.0402	55.6641	79.0575	55.6641	79.0375	55.6641	79.0907	55.6641	79.0494	55.6641	79.1423	55.6641	79.0777	55.6641	79.216	55.6641	79.1253	55.6641	79.316	55.6641	79.1961	55.6641	79.4464	55.6641	79.2947	55.6641	79.6106	55.6641	79.4255	55.6641	79.8098	55.6641	79.5915	55.6641	80.0422	55.6641	79.7939	55.6641	80.3024	55.6641	80.0305	55.6641	80.5811	55.6641	80.2954	55.6641	80.8651	55.6641	80.5785	55.6641	81.1386	55.6641	80.8662	55.6641	81.3848	55.6641	81.1425	55.6641	81.5873	55.6641	81.39	55.6641	81.7317	55.6641	81.5923	55.6641	81.8075	55.6641	81.7353	55.6641	81.8088
58.5938	80.1307	58.5938	80.1464	58.5938	80.132	58.5938	80.1799	58.5938	80.1504	58.5938	80.2325	58.5938	80.1869	58.5938	80.3065	58.5938	80.2432	58.5938	80.4044	58.5938	80.3216	58.5938	80.5286	58.5938	80.4245	58.5938	80.6809	58.5938	80.5542	58.5938	80.8618	58.5938	80.712	58.5938	81.0696	58.5938	80.898	58.5938	81.2999	58.5938	81.1098	58.5938	81.5453	58.5938	81.3427	58.5938	81.7952	58.5938	81.5887	58.5938	82.0367	58.5938	81.837	58.5938	82.2553	58.5938	82.0745	58.5938	82.4365	58.5938	82.2869	58.5938	82.5672	58.5938	82.4602	58.5938	82.6377	58.5938	82.5819	58.5938	82.6427
60.0586	80.6099	60.0586	80.6274	60.0586	80.6101	60.0586	80.6633	60.0586	80.6283	60.0586	80.7185	60.0586	80.665	60.0586	80.7946	60.0586	80.7214	60.0586	80.8932	60.0586	80.7989	60.0586	81.0157	60.0586	80.8992	60.0586	81.1633	60.0586	81.0237	60.0586	81.3359	60.0586	81.1734	60.0586	81.5315	60.0586	81.3478	60.0586	81.7461	60.0586	81.5449	60.0586	81.9732	60.0586	81.7604	60.0586	82.2033	60.0586	81.9875	60.0586	82.4248	60.0586	82.2167	60.0586	82.6246	60.0586	82.4365	60.0586	82.7893	60.0586	82.6339	60.0586	82.9071	60.0586	82.7959	60.0586	82.969	60.0586	82.911	60.0586	82.9703
62.9883	81.3985	62.9883	81.4182	62.9883	81.3974	62.9883	81.4566	62.9883	81.415	62.9883	81.5136	62.9883	81.4515	62.9883	81.5896	62.9883	81.5071	62.9883	81.6846	62.9883	81.5822	62.9883	81.7988	62.9883	81.677	62.9883	81.9319	62.9883	81.7916	62.9883	82.0831	62.9883	81.9258	62.9883	82.2507	62.9883	82.0788	62.9883	82.4317	62.9883	82.2485	62.9883	82.621	62.9883	82.4317	62.9883	82.812	62.9883	82.623	62.9883	82.9955	62.9883	82.8155	62.9883	83.1613	62.9883	82.9999	62.9883	83.2984	62.9883	83.1658	62.9883	83.3967	62.9883	83.3023	62.9883	83.4485	62.9883	83.3994	62.9883	83.4495
64.4531	81.6619	64.4531	81.6815	64.4531	81.6608	64.4531	81.7194	64.4531	81.6785	64.4531	81.7753	64.4531	81.715	64.4531	81.8489	64.4531	81.7703	64.4531	81.9398	64.4531	81.8442	64.4531	82.0478	64.4531	81.9365	64.4531	82.1722	64.4531	82.0468	64.4531	82.3123	64.4531	82.1744	64.4531	82.4665	64.4531	82.318	64.4531	82.6322	64.4531	82.4756	64.4531	82.8052	64.4531	82.6443	64.4531	82.9796	64.4531	82.8195	64.4531	83.1476	64.4531	82.995	64.4531	83.2998	64.4531	83.1627	64.4531	83.4262	64.4531	83.3132	64.4531	83.5175	64.4531	83.4369	64.4531	83.5665	64.4531	83.5244	64.4531	83.5688
67.3828	82.0397	67.3828	82.0537	67.3828	82.0449	67.3828	82.0867	67.3828	82.0695	67.3828	82.1379	67.3828	82.113	67.3828	82.2062	67.3828	82.1746	67.3828	82.2907	67.3828	82.2532	67.3828	82.3902	67.3828	82.3474	67.3828	82.5035	67.3828	82.4557	67.3828	82.6295	67.3828	82.5764	67.3828	82.7665	67.3828	82.7079	67.3828	82.9123	67.3828	82.848	67.3828	83.0636	67.3828	82.9941	67.3828	83.2158	67.3828	83.1429	67.3828	83.3626	67.3828	83.2896	67.3828	83.4965	67.3828	83.4281	67.3828	83.6092	67.3828	83.551	67.3828	83.6927	67.3828	83.6503	67.3828	83.7408	67.3828	83.7183	67.3828	83.7495
68.8477	82.14	68.8477	82.1518	68.8477	82.1485	68.8477	82.1836	68.8477	82.1772	68.8477	82.2346	68.8477	82.2253	68.8477	82.3035	68.8477	82.2915	68.8477	82.389	68.8477	82.3741	68.8477	82.4894	68.8477	82.4713	68.8477	82.6031	68.8477	82.5809	68.8477	82.7282	68.8477	82.7012	68.8477	82.8628	68.8477	82.8299	68.8477	83.0043	68.8477	82.9652	68.8477	83.1497	68.8477	83.1045	68.8477	83.2944	68.8477	83.2446	68.8477	83.433	68.8477	83.3814	68.8477	83.5589	68.8477	83.5094	68.8477	83.6648	68.8477	83.622	68.8477	83.7436	68.8477	83.7121	68.8477	83.7898	68.8477	83.773	68.8477	83.7998
71.7773	82.4417	71.7773	82.459	71.7773	82.4466	71.7773	82.4978	71.7773	82.4735	71.7773	82.5565	71.7773	82.5214	71.7773	82.6329	71.7773	82.5885	71.7773	82.7243	71.7773	82.6723	71.7773	82.8278	71.7773	82.7699	71.7773	82.9404	71.7773	82.8783	71.7773	83.0594	71.7773	82.9946	71.7773	83.1823	71.7773	83.1159	71.7773	83.3064	71.7773	83.2394	71.7773	83.4292	71.7773	83.3629	71.7773	83.5477	71.7773	83.4834	71.7773	83.6582	71.7773	83.598	71.7773	83.7565	71.7773	83.7029	71.7773	83.8378	71.7773	83.7939	71.7773	83.8975	71.7773	83.8661	71.7773	83.9315	71.7773	83.9152	71.7773	83.9375
74.707	82.7498	74.707	82.7683	74.707	82.753	74.707	82.8074	74.707	82.7778	74.707	82.8651	74.707	82.8231	74.707	82.9388	74.707	82.8869	74.707	83.0253	74.707	82.9663	74.707	83.121	74.707	83.058	74.707	83.2226	74.707	83.1583	74.707	83.3271	74.707	83.2635	74.707	83.4315	74.707	83.3702	74.707	83.5335	74.707	83.4754	74.707	83.6313	74.707	83.5766	74.707	83.7228	74.707	83.6719	74.707	83.8061	74.707	83.7596	74.707	83.8789	74.707	83.8379	74.707	83.9383	74.707	83.9047	74.707	83.9814	74.707	83.9573	74.707	84.0056	74.707	83.993	74.707	84.0095
77.6367	82.9036	77.6367	82.9225	77.6367	82.9065	77.6367	82.962	77.6367	82.9312	77.6367	83.0198	77.6367	82.9762	77.6367	83.0928	77.6367	83.0393	77.6367	83.1769	77.6367	83.117	77.6367	83.2682	77.6367	83.2055	77.6367	83.3625	77.6367	83.3006	77.6367	83.4562	77.6367	83.3981	77.6367	83.5464	77.6367	83.4943	77.6367	83.6309	77.6367	83.586	77.6367	83.7085	77.6367	83.6711	77.6367	83.7784	77.6367	83.7478	77.6367	83.8401	77.6367	83.8154	77.6367	83.8929	77.6367	83.8732	77.6367	83.9358	77.6367	83.9205	77.6367	83.9671	77.6367	83.9564	77.6367	83.9854	77.6367	83.9799	77.6367	83.9897
79.1016	82.9946	79.1016	83.0115	79.1016	82.9988	79.1016	83.0484	79.1016	83.024	79.1016	83.1028	79.1016	83.0689	79.1016	83.1715	79.1016	83.131	79.1016	83.2504	79.1016	83.2068	79.1016	83.3353	79.1016	83.2922	79.1016	83.4221	79.1016	83.3829	79.1016	83.5072	79.1016	83.4745	79.1016	83.5878	79.1016	83.5631	79.1016	83.6618	79.1016	83.6456	79.1016	83.7283	79.1016	83.7198	79.1016	83.787	79.1016	83.7845	79.1016	83.838	79.1016	83.8391	79.1016	83.8812	79.1016	83.8839	79.1016	83.9163	79.1016	83.9191	79.1016	83.9425	79.1016	83.9445	79.1016	83.9589	79.1016	83.9599	79.1016	83.9648
82.0312	83.2221	82.0312	83.2406	82.0312	83.2241	82.0312	83.2782	82.0312	83.2465	82.0312	83.3323	82.0312	83.2882	82.0312	83.3994	82.0312	83.3464	82.0312	83.4755	82.0312	83.4176	82.0312	83.5559	82.0312	83.4975	82.0312	83.6365	82.0312	83.5815	82.0312	83.7135	82.0312	83.6652	82.0312	83.7838	82.0312	83.7446	82.0312	83.8456	82.0312	83.8164	82.0312	83.898	82.0312	83.8788	82.0312	83.9415	82.0312	83.9308	82.0312	83.9767	82.0312	83.9725	82.0312	84.0049	82.0312	84.0047	82.0312	84.0267	82.0312	84.0284	82.0312	84.0427	82.0312	84.0446	82.0312	84.0527	82.0312	84.0538	82.0312	84.0564
84.9609	83.2534	84.9609	83.271	84.9609	83.2601	84.9609	83.3111	84.9609	83.2909	84.9609	83.3708	84.9609	83.344	84.9609	83.4456	84.9609	83.4163	84.9609	83.5306	84.9609	83.5031	84.9609	83.6201	84.9609	83.5992	84.9609	83.7089	84.9609	83.6988	84.9609	83.7923	84.9609	83.7963	84.9609	83.8669	84.9609	83.8868	84.9609	83.9305	84.9609	83.9663	84.9609	83.9823	84.9609	84.0322	84.9609	84.0232	84.9609	84.0832	84.9609	84.055	84.9609	84.1195	84.9609	84.0798	84.9609	84.1423	84.9609	84.0999	84.9609	84.1537	84.9609	84.1167	84.9609	84.1561	84.9609	84.1311	84.9609	84.1519	84.9609	84.1431
87.8906	83.0876	87.8906	83.0929	87.8906	83.1092	87.8906	83.124	87.8906	83.1571	87.8906	83.1782	87.8906	83.2285	87.8906	83.2514	87.8906	83.3196	87.8906	83.3381	87.8906	83.4249	87.8906	83.4326	87.8906	83.5383	87.8906	83.5289	87.8906	83.6532	87.8906	83.6214	87.8906	83.7632	87.8906	83.7059	87.8906	83.8625	87.8906	83.7792	87.8906	83.9467	87.8906	83.8402	87.8906	84.0126	87.8906	83.8891	87.8906	84.0588	87.8906	83.9275	87.8906	84.086	87.8906	83.9577	87.8906	84.0963	87.8906	83.9823	87.8906	84.0932	87.8906	84.0037	87.8906	84.081	87.8906	84.0239	87.8906	84.0636	87.8906	84.044
90.8203	83.402	90.8203	83.4163	90.8203	83.4113	90.8203	83.4526	90.8203	83.4441	90.8203	83.5078	90.8203	83.4983	90.8203	83.5774	90.8203	83.5705	90.8203	83.6563	90.8203	83.6553	90.8203	83.7387	90.8203	83.7468	90.8203	83.8191	90.8203	83.8381	90.8203	83.8922	90.8203	83.9229	90.8203	83.9538	90.8203	83.9953	90.8203	84.001	90.8203	84.051	90.8203	84.0322	90.8203	84.0875	90.8203	84.0478	90.8203	84.1046	90.8203	84.0501	90.8203	84.1043	90.8203	84.0427	90.8203	84.0906	90.8203	84.0307	90.8203	84.0691	90.8203	84.0192	90.8203	84.0459	90.8203	84.0128	90.8203	84.0265	90.8203	84.015
95.2148	83.6603	95.2148	83.692	95.2148	83.6493	95.2148	83.7429	95.2148	83.659	95.2148	83.8095	95.2148	83.6878	95.2148	83.8873	95.2148	83.7324	95.2148	83.9704	95.2148	83.7882	95.2148	84.0525	95.2148	83.8498	95.2148	84.1271	95.2148	83.9112	95.2148	84.188	95.2148	83.9667	95.2148	84.2301	95.2148	84.0112	95.2148	84.2496	95.2148	84.041	95.2148	84.2453	95.2148	84.054	95.2148	84.2185	95.2148	84.0506	95.2148	84.1734	95.2148	84.0331	95.2148	84.1169	95.2148	84.0063	95.2148	84.0576	95.2148	83.9768	95.2148	84.0042	95.2148	83.9519	95.2148	83.9641	95.2148	83.9385	95.2148	83.9418
98.1445	83.7202	98.1445	83.747	98.1445	83.7131	98.1445	83.7918	98.1445	83.7261	98.1445	83.8512	98.1445	83.758	98.1445	83.9209	98.1445	83.8058	98.1445	83.9952	98.1445	83.8655	98.1445	84.0682	98.1445	83.9318	98.1445	84.1336	98.1445	83.9987	98.1445	84.1855	98.1445	84.0603	98.1445	84.2193	98.1445	84.1109	98.1445	84.232	98.1445	84.1463	98.1445	84.2229	98.1445	84.1636	98.1445	84.1944	98.1445	84.162	98.1445	84.1513	98.1445	84.1432	98.1445	84.1012	98.1445	84.1113	98.1445	84.0527	98.1445	84.0725	98.1445	84.0142	98.1445	84.0343	98.1445	83.9919	98.1445	84.0042	98.1445	83.9887
101.074	83.6982	101.074	83.736	101.074	83.6806	101.074	83.7918	101.074	83.6837	101.074	83.862	101.074	83.7065	101.074	83.9417	101.074	83.7465	101.074	84.0248	101.074	83.8	101.074	84.1044	101.074	83.8623	101.074	84.1737	101.074	83.9276	101.074	84.2262	101.074	83.9902	101.074	84.2571	101.074	84.0441	101.074	84.2635	101.074	84.0843	101.074	84.2456	101.074	84.107	101.074	84.2063	101.074	84.1107	101.074	84.1521	101.074	84.0965	101.074	84.0913	101.074	84.0681	101.074	84.0337	101.074	84.0319	101.074	83.988	101.074	83.9956	101.074	83.9606	101.074	83.9673	101.074	83.9541
105.469	83.9002	105.469	83.9337	105.469	83.8868	105.469	83.9848	105.469	83.895	105.469	84.0494	105.469	83.9239	105.469	84.1225	105.469	83.9713	105.469	84.1982	105.469	84.0329	105.469	84.2701	105.469	84.1029	105.469	84.332	105.469	84.1742	105.469	84.3781	105.469	84.2394	105.469	84.4039	105.469	84.2912	105.469	84.4066	105.469	84.3237	105.469	84.3859	105.469	84.333	105.469	84.3444	105.469	84.3182	105.469	84.2873	105.469	84.2822	105.469	84.2224	105.469	84.2309	105.469	84.159	105.469	84.1735	105.469	84.1066	105.469	84.1204	105.469	84.0734	105.469	84.0816	105.469	84.0647
108.398	84.0821	108.398	84.1105	108.398	84.0677	108.398	84.151	108.398	84.0683	108.398	84.2	108.398	84.083	108.398	84.2528	108.398	84.1097	108.398	84.3038	108.398	84.1451	108.398	84.347	108.398	84.1845	108.398	84.3763	108.398	84.2222	108.398	84.3868	108.398	84.2521	108.398	84.3749	108.398	84.2682	108.398	84.3391	108.398	84.2653	108.398	84.2803	108.398	84.2403	108.398	84.2023	108.398	84.1927	108.398	84.1116	108.398	84.1256	108.398	84.0169	108.398	84.0453	108.398	83.929	108.398	83.9617	108.398	83.8588	108.398	83.8866	108.398	83.8159	108.398	83.8317	108.398	83.8066
112.793	84.2359	112.793	84.2515	112.793	84.2352	112.793	84.2811	112.793	84.2486	112.793	84.3228	112.793	84.2743	112.793	84.3726	112.793	84.3097	112.793	84.4252	112.793	84.3507	112.793	84.474	112.793	84.3929	112.793	84.5116	112.793	84.4307	112.793	84.5307	112.793	84.4581	112.793	84.5253	112.793	84.4691	112.793	84.4913	112.793	84.4586	112.793	84.4281	112.793	84.4229	112.793	84.3389	112.793	84.3616	112.793	84.2311	112.793	84.2774	112.793	84.1166	112.793	84.1776	112.793	84.0097	112.793	84.0731	112.793	83.9255	112.793	83.9779	112.793	83.8765	112.793	83.9061	112.793	83.87
117.188	84.3745	117.188	84.3884	117.188	84.3693	117.188	84.4095	117.188	84.3735	117.188	84.4353	117.188	84.3868	117.188	84.4625	117.188	84.4077	117.188	84.487	117.188	84.434	117.188	84.5041	117.188	84.4621	117.188	84.509	117.188	84.4873	117.188	84.4968	117.188	84.5045	117.188	84.4639	117.188	84.5082	117.188	84.4082	117.188	84.4932	117.188	84.3304	117.188	84.4558	117.188	84.2346	117.188	84.3945	117.188	84.1286	117.188	84.311	117.188	84.0238	117.188	84.2108	117.188	83.9335	117.188	84.1032	117.188	83.8707	117.188	84.0003	117.188	83.8451	117.188	83.9154	117.188	83.8609
120.117	84.4867	120.117	84.4989	120.117	84.4823	120.117	84.5176	120.117	84.4856	120.117	84.5403	120.117	84.4955	120.117	84.5629	120.117	84.5096	120.117	84.5806	120.117	84.5245	120.117	84.5876	120.117	84.5362	120.117	84.5782	120.117	84.5398	120.117	84.5472	120.117	84.5301	120.117	84.4905	120.117	84.5023	120.117	84.4065	120.117	84.4522	120.117	84.2965	120.117	84.3775	120.117	84.1654	120.117	84.2784	120.117	84.0228	120.117	84.1589	120.117	83.8817	120.117	84.0264	120.117	83.7578	120.117	83.8925	120.117	83.6666	120.117	83.7712	120.117	83.62	120.117	83.6774	120.117	83.6242
124.512	84.5158	124.512	84.5206	124.512	84.5209	124.512	84.5341	124.512	84.5356	124.512	84.5535	124.512	84.5579	124.512	84.5747	124.512	84.5847	124.512	84.5923	124.512	84.6115	124.512	84.6003	124.512	84.6329	124.512	84.5921	124.512	84.6427	124.512	84.5621	124.512	84.6348	124.512	84.5055	124.512	84.6038	124.512	84.4201	124.512	84.5454	124.512	84.307	124.512	84.4579	124.512	84.1712	124.512	84.3426	124.512	84.0223	124.512	84.2045	124.512	83.8741	124.512	84.0531	124.512	83.7433	124.512	83.9015	124.512	83.6463	124.512	83.7654	124.512	83.5969	124.512	83.661	124.512	83.602
128.906	84.3511	128.906	84.3828	128.906	84.3332	128.906	84.4254	128.906	84.3304	128.906	84.4744	128.906	84.3422	128.906	84.5238	128.906	84.3661	128.906	84.5672	128.906	84.3973	128.906	84.5972	128.906	84.4295	128.906	84.6067	128.906	84.4549	128.906	84.5894	128.906	84.4654	128.906	84.5409	128.906	84.4533	128.906	84.4589	128.906	84.4128	128.906	84.3451	128.906	84.3412	128.906	84.2049	128.906	84.2397	128.906	84.0486	128.906	84.1138	128.906	83.8906	128.906	83.9736	128.906	83.7481	128.906	83.833	128.906	83.6387	128.906	83.7082	128.906	83.5764	128.906	83.6155	128.906	83.5688
133.301	84.2872	133.301	84.3265	133.301	84.2636	133.301	84.3796	133.301	84.2565	133.301	84.4426	133.301	84.2652	133.301	84.5103	133.301	84.2873	133.301	84.576	133.301	84.3189	133.301	84.6319	133.301	84.3544	133.301	84.6696	133.301	84.387	133.301	84.6816	133.301	84.409	133.301	84.6618	133.301	84.4131	133.301	84.607	133.301	84.3933	133.301	84.5177	133.301	84.3465	133.301	84.3987	133.301	84.2731	133.301	84.2595	133.301	84.1776	133.301	84.1137	133.301	84.069	133.301	83.9776	133.301	83.9599	133.301	83.8675	133.301	83.865	133.301	83.7971	133.301	83.799	133.301	83.7742
139.16	84.4012	139.16	84.4266	139.16	84.3863	139.16	84.4613	139.16	84.382	139.16	84.5033	139.16	84.3878	139.16	84.5492	139.16	84.402	139.16	84.5944	139.16	84.4218	139.16	84.6327	139.16	84.4427	139.16	84.657	139.16	84.4589	139.16	84.66	139.16	84.4636	139.16	84.6349	139.16	84.4498	139.16	84.577	139.16	84.4115	139.16	84.485	139.16	84.3452	139.16	84.3622	139.16	84.2513	139.16	84.2167	139.16	84.1351	139.16	84.0619	139.16	84.0068	139.16	83.9144	139.16	83.8811	139.16	83.7922	139.16	83.7747	139.16	83.7109	139.16	83.7038	139.16	83.6806
143.555	84.5129	143.555	84.5245	143.555	84.5086	143.555	84.543	143.555	84.5108	143.555	84.5672	143.555	84.5185	143.555	84.5942	143.555	84.5296	143.555	84.62	143.555	84.5414	143.555	84.6386	143.555	84.55	143.555	84.6433	143.555	84.5503	143.555	84.6269	143.555	84.5361	143.555	84.5833	143.555	84.5011	143.555	84.508	143.555	84.4401	143.555	84.4003	143.555	84.3501	143.555	84.2638	143.555	84.232	143.555	84.1072	143.555	84.0918	143.555	83.9439	143.555	83.9406	143.555	83.7906	143.555	83.7942	143.555	83.6652	143.555	83.6707	143.555	83.5835	143.555	83.5872	143.555	83.5565
147.949	84.4745	147.949	84.486	147.949	84.4706	147.949	84.5053	147.949	84.4735	147.949	84.5308	147.949	84.4815	147.949	84.5595	147.949	84.4921	147.949	84.586	147.949	84.5022	147.949	84.6036	147.949	84.5072	147.949	84.6043	147.949	84.5017	147.949	84.5804	147.949	84.4791	147.949	84.5255	147.949	84.4329	147.949	84.4358	147.949	84.3577	147.949	84.3116	147.949	84.2507	147.949	84.1573	147.949	84.1136	147.949	83.9827	147.949	83.9533	147.949	83.8017	147.949	83.7826	147.949	83.6319	147.949	83.6193	147.949	83.4917	147.949	83.4837	147.949	83.3985	147.949	83.3943	147.949	83.3644
153.809	84.1547	153.809	84.1605	153.809	84.1561	153.809	84.1749	153.809	84.1636	153.809	84.1979	153.809	84.1756	153.809	84.2284	153.809	84.1909	153.809	84.2624	153.809	84.2077	153.809	84.2935	153.809	84.2229	153.809	84.3135	153.809	84.2327	153.809	84.3135	153.809	84.2317	153.809	84.286	153.809	84.2146	153.809	84.2268	153.809	84.1763	153.809	84.1363	153.809	84.1138	153.809	84.0202	153.809	84.0273	153.809	83.8889	153.809	83.9207	153.809	83.7559	153.809	83.8027	153.809	83.636	153.809	83.6855	153.809	83.5429	153.809	83.5833	153.809	83.4875	153.809	83.51	153.809	83.4763
159.668	84.3429	159.668	84.3425	159.668	84.3479	159.668	84.3473	159.668	84.3565	159.668	84.3575	159.668	84.3681	159.668	84.372	159.668	84.3817	159.668	84.3881	159.668	84.3955	159.668	84.4005	159.668	84.4067	159.668	84.4022	159.668	84.4111	159.668	84.3853	159.668	84.4038	159.668	84.3426	159.668	84.3794	159.668	84.2693	159.668	84.3332	159.668	84.1651	159.668	84.2622	159.668	84.0353	159.668	84.1659	159.668	83.8903	159.668	84.0472	159.668	83.7453	159.668	83.9133	159.668	83.6181	159.668	83.7753	159.668	83.5254	159.668	83.648	159.668	83.4801	159.668	83.5475	159.668	83.4883
165.527	84.3517	165.527	84.3549	165.527	84.3509	165.527	84.3593	165.527	84.3536	165.527	84.3643	165.527	84.361	165.527	84.369	165.527	84.3734	165.527	84.3718	165.527	84.3899	165.527	84.3694	165.527	84.4075	165.527	84.3571	165.527	84.4214	165.527	84.3286	165.527	84.4254	165.527	84.2778	165.527	84.4126	165.527	84.2005	165.527	84.3767	165.527	84.0961	165.527	84.3137	165.527	83.9694	165.527	84.2225	165.527	83.8309	165.527	84.1059	165.527	83.6958	165.527	83.9708	165.527	83.5819	165.527	83.8282	165.527	83.5055	165.527	83.6925	165.527	83.4783	165.527	83.5795	165.527	83.5044
171.387	84.2648	171.387	84.2579	171.387	84.2731	171.387	84.2525	171.387	84.2828	171.387	84.2488	171.387	84.2942	171.387	84.2466	171.387	84.307	171.387	84.2447	171.387	84.3198	171.387	84.2404	171.387	84.3297	171.387	84.2289	171.387	84.3317	171.387	84.2041	171.387	84.3192	171.387	84.1599	171.387	84.2848	171.387	84.091	171.387	84.2224	171.387	83.9957	171.387	84.1287	171.387	83.8766	171.387	84.0054	171.387	83.7417	171.387	83.8597	171.387	83.6032	171.387	83.7042	171.387	83.4762	171.387	83.5552	171.387	83.3758	171.387	83.4296	171.387	83.3152	171.387	83.3423	171.387	83.303
177.246	84.3443	177.246	84.3548	177.246	84.3244	177.246	84.3542	177.246	84.2978	177.246	84.342	177.246	84.2683	177.246	84.3184	177.246	84.24	177.246	84.2834	177.246	84.2161	177.246	84.2367	177.246	84.1982	177.246	84.1766	177.246	84.1845	177.246	84.1007	177.246	84.1704	177.246	84.0063	177.246	84.1483	177.246	83.8927	177.246	84.1102	177.246	83.7619	177.246	84.0492	177.246	83.6208	177.246	83.9623	177.246	83.4804	177.246	83.8509	177.246	83.3551	177.246	83.7212	177.246	83.2599	177.246	83.5832	177.246	83.2069	177.246	83.4492	177.246	83.2027	177.246	83.3327	177.246	83.2469
183.105	84.2938	183.105	84.3157	183.105	84.265	183.105	84.3304	183.105	84.2297	183.105	84.3375	183.105	84.1885	183.105	84.3354	183.105	84.1423	183.105	84.3216	183.105	84.0917	183.105	84.2924	183.105	84.0359	183.105	84.2435	183.105	83.9725	183.105	84.1707	183.105	83.8974	183.105	84.0703	183.105	83.8057	183.105	83.9405	183.105	83.6936	183.105	83.7826	183.105	83.5605	183.105	83.6024	183.105	83.4108	183.105	83.4106	183.105	83.254	183.105	83.2224	183.105	83.1032	183.105	83.0547	183.105	82.9724	183.105	82.9227	183.105	82.8733	183.105	82.8367	183.105	82.8142	183.105	82.8008
188.965	84.0568	188.965	84.0699	188.965	84.0376	188.965	84.0795	188.965	84.011	188.965	84.0875	188.965	83.9766	188.965	84.0948	188.965	83.9355	188.965	84.0992	188.965	83.8896	188.965	84.096	188.965	83.8403	188.965	84.0787	188.965	83.788	188.965	84.04	188.965	83.7312	188.965	83.9742	188.965	83.6664	188.965	83.8784	188.965	83.5889	188.965	83.7534	188.965	83.4943	188.965	83.6039	188.965	83.3813	188.965	83.4384	188.965	83.2536	188.965	83.2687	188.965	83.1208	188.965	83.1091	188.965	82.9974	188.965	82.975	188.965	82.8998	188.965	82.8804	188.965	82.8425	188.965	82.8349
196.289	84.1812	196.289	84.161	196.289	84.1854	196.289	84.1279	196.289	84.1724	196.289	84.0861	196.289	84.1424	196.289	84.04	196.289	84.0969	196.289	83.9927	196.289	84.0375	196.289	83.9446	196.289	83.9657	196.289	83.8931	196.289	83.8819	196.289	83.8326	196.289	83.7858	196.289	83.757	196.289	83.677	196.289	83.6619	196.289	83.556	196.289	83.547	196.289	83.4247	196.289	83.4173	196.289	83.2879	196.289	83.2818	196.289	83.1529	196.289	83.1508	196.289	83.0294	196.289	83.0335	196.289	82.9278	196.289	82.9369	196.289	82.8572	196.289	82.8665	196.289	82.8232	196.289	82.8271
203.613	84.2473	203.613	84.23	203.613	84.2454	203.613	84.1939	203.613	84.2244	203.613	84.1398	203.613	84.1852	203.613	84.0687	203.613	84.1292	203.613	83.9808	203.613	84.058	203.613	83.8757	203.613	83.9723	203.613	83.7526	203.613	83.872	203.613	83.611	203.613	83.7554	203.613	83.4522	203.613	83.6203	203.613	83.2811	203.613	83.4654	203.613	83.106	203.613	83.2922	203.613	82.9377	203.613	83.1068	203.613	82.7868	203.613	82.9197	203.613	82.66	203.613	82.7455	203.613	82.5596	203.613	82.5993	203.613	82.4848	203.613	82.4933	203.613	82.4356	203.613	82.4328	203.613	82.4159
210.938	84.0278	210.938	83.9917	210.938	84.0451	210.938	83.9384	210.938	84.0431	210.938	83.8702	210.938	84.0217	210.938	83.7901	210.938	83.9819	210.938	83.7009	210.938	83.9249	210.938	83.6042	210.938	83.8519	210.938	83.4988	210.938	83.7629	210.938	83.3805	210.938	83.6563	210.938	83.2436	210.938	83.5284	210.938	83.0849	210.938	83.376	210.938	82.9082	210.938	83.1989	210.938	82.7255	210.938	83.0021	210.938	82.5549	210.938	82.7978	210.938	82.4131	210.938	82.603	210.938	82.3083	210.938	82.4358	210.938	82.2399	210.938	82.3105	210.938	82.2039	210.938	82.2327	210.938	82.1997
218.262	83.7033	218.262	83.6962	218.262	83.6988	218.262	83.6761	218.262	83.6842	218.262	83.6422	218.262	83.661	218.262	83.5931	218.262	83.63	218.262	83.5279	218.262	83.5909	218.262	83.4457	218.262	83.5427	218.262	83.346	218.262	83.4843	218.262	83.2295	218.262	83.4152	218.262	83.0975	218.262	83.3354	218.262	82.9525	218.262	83.2454	218.262	82.7996	218.262	83.1452	218.262	82.648	218.262	83.0345	218.262	82.5108	218.262	82.9143	218.262	82.4023	218.262	82.7875	218.262	82.3327	218.262	82.6603	218.262	82.305	218.262	82.5415	218.262	82.3167	218.262	82.4399	218.262	82.3632
225.586	83.8266	225.586	83.8569	225.586	83.771	225.586	83.8629	225.586	83.6914	225.586	83.8469	225.586	83.5924	225.586	83.811	225.586	83.4811	225.586	83.7567	225.586	83.3656	225.586	83.6844	225.586	83.2518	225.586	83.5935	225.586	83.1419	225.586	83.4831	225.586	83.0329	225.586	83.3524	225.586	82.9195	225.586	83.2018	225.586	82.7974	225.586	83.035	225.586	82.667	225.586	82.8612	225.586	82.5355	225.586	82.6949	225.586	82.4152	225.586	82.5519	225.586	82.3204	225.586	82.442	225.586	82.2611	225.586	82.3646	225.586	82.2385	225.586	82.3111	225.586	82.2457	225.586	82.2721
232.91	83.8827	232.91	83.8562	232.91	83.8735	232.91	83.8019	232.91	83.8229	232.91	83.7282	232.91	83.7291	232.91	83.6421	232.91	83.5945	232.91	83.5479	232.91	83.4264	232.91	83.4464	232.91	83.2355	232.91	83.336	232.91	83.0345	232.91	83.2143	232.91	82.8353	232.91	83.0791	232.91	82.647	232.91	82.9299	232.91	82.475	232.91	82.7677	232.91	82.3212	232.91	82.5967	232.91	82.1867	232.91	82.4261	232.91	82.0734	232.91	82.2695	232.91	81.9853	232.91	82.1399	232.91	81.9269	232.91	82.0426	232.91	81.9004	232.91	81.9745	232.91	81.9029	232.91	81.9288
241.699	83.6021	241.699	83.5407	241.699	83.6335	241.699	83.4545	241.699	83.6317	241.699	83.3495	241.699	83.5949	241.699	83.2323	241.699	83.5234	241.699	83.1081	241.699	83.4184	241.699	82.98	241.699	83.2813	241.699	82.8472	241.699	83.1134	241.699	82.7062	241.699	82.9162	241.699	82.5539	241.699	82.6943	241.699	82.3899	241.699	82.457	241.699	82.2189	241.699	82.2189	241.699	82.048	241.699	81.9967	241.699	81.885	241.699	81.8048	241.699	81.7375	241.699	81.6518	241.699	81.6127	241.699	81.54	241.699	81.5173	241.699	81.4673	241.699	81.455	241.699	81.4302	241.699	81.4263
250.488	83.743	250.488	83.71	250.488	83.7352	250.488	83.6373	250.488	83.6872	250.488	83.5276	250.488	83.6014	250.488	83.3843	250.488	83.4825	250.488	83.212	250.488	83.3367	250.488	83.0154	250.488	83.1708	250.488	82.799	250.488	82.99	250.488	82.5668	250.488	82.7967	250.488	82.3219	250.488	82.5927	250.488	82.0679	250.488	82.3824	250.488	81.811	250.488	82.1755	250.488	81.5635	250.488	81.9833	250.488	81.3437	250.488	81.8126	250.488	81.1721	250.488	81.6611	250.488	81.0641	250.488	81.5194	250.488	81.0256	250.488	81.3805	250.488	81.0519	250.488	81.2467	250.488	81.1312
259.277	83.6641	259.277	83.6246	259.277	83.6642	259.277	83.549	259.277	83.6228	259.277	83.4408	259.277	83.5401	259.277	83.3038	259.277	83.4192	259.277	83.1419	259.277	83.2664	259.277	82.9594	259.277	83.0887	259.277	82.7595	259.277	82.891	259.277	82.5451	259.277	82.6744	259.277	82.3212	259.277	82.4378	259.277	82.0971	259.277	82.183	259.277	81.8852	259.277	81.9208	259.277	81.6962	259.277	81.6737	259.277	81.5351	259.277	81.4698	259.277	81.4028	259.277	81.3294	259.277	81.3017	259.277	81.252	259.277	81.2351	259.277	81.2177	259.277	81.2029	259.277	81.203	259.277	81.1964
268.066	83.4699	268.066	83.3917	268.066	83.5037	268.066	83.2731	268.066	83.4907	268.066	83.1187	268.066	83.4313	268.066	82.9335	268.066	83.3281	268.066	82.7247	268.066	83.1858	268.066	82.5036	268.066	83.0099	268.066	82.2857	268.066	82.8051	268.066	82.0868	268.066	82.5728	268.066	81.917	268.066	82.3099	268.066	81.7778	268.066	82.0128	268.066	81.6639	268.066	81.6854	268.066	81.5667	268.066	81.3491	268.066	81.4754	268.066	81.0461	268.066	81.3795	268.066	80.8263	268.066	81.2726	268.066	80.7213	268.066	81.1552	268.066	80.7249	268.066	81.0327	268.066	80.8009	268.066	80.9112
276.855	83.4591	276.855	83.4546	276.855	83.4274	276.855	83.408	276.855	83.3674	276.855	83.3158	276.855	83.2872	276.855	83.174	276.855	83.1913	276.855	82.9761	276.855	83.0767	276.855	82.7135	276.855	82.9342	276.855	82.3809	276.855	82.7559	276.855	81.9858	276.855	82.5449	276.855	81.557	276.855	82.3195	276.855	81.1485	276.855	82.104	276.855	80.8294	276.855	81.9104	276.855	80.6562	276.855	81.7284	276.855	80.6384	276.855	81.5377	276.855	80.728	276.855	81.3338	276.855	80.8475	276.855	81.1419	276.855	80.932	276.855	81.0038	276.855	80.9573	276.855	80.9435	276.855	80.9444
287.109	83.2224	287.109	83.1931	287.109	83.2032	287.109	83.1253	287.109	83.1327	287.109	83.033	287.109	83.0167	287.109	82.9305	287.109	82.8684	287.109	82.827	287.109	82.7026	287.109	82.7196	287.109	82.5255	287.109	82.588	287.109	82.3254	287.109	82.3979	287.109	82.0743	287.109	82.1173	287.109	81.7451	287.109	81.7417	287.109	81.34	287.109	81.3189	287.109	80.9092	287.109	80.9542	287.109	80.5428	287.109	80.7637	287.109	80.3261	287.109	80.7837	287.109	80.2897	287.109	80.9312	287.109	80.4024	287.109	81.0715	287.109	80.6038	287.109	81.1087	287.109	80.8302	287.109	81.0179
297.363	83.4601	297.363	83.3823	297.363	83.4754	297.363	83.2464	297.363	83.4228	297.363	83.0544	297.363	83.2984	297.363	82.8095	297.363	83.102	297.363	82.5249	297.363	82.8382	297.363	82.2341	297.363	82.5196	297.363	81.9903	297.363	82.1704	297.363	81.8426	297.363	81.8243	297.363	81.7927	297.363	81.5073	297.363	81.7751	297.363	81.2188	297.363	81.69	297.363	80.9361	297.363	81.4665	297.363	80.6508	297.363	81.1093	297.363	80.3991	297.363	80.7079	297.363	80.2412	297.363	80.3906	297.363	80.1999	297.363	80.2359	297.363	80.231	297.363	80.2188	297.363	80.2622	297.363	80.2521
307.617	83.2845	307.617	83.3155	307.617	83.2151	307.617	83.2935	307.617	83.1201	307.617	83.2068	307.617	83.008	307.617	83.0479	307.617	82.883	307.617	82.8113	307.617	82.7452	307.617	82.4893	307.617	82.5893	307.617	82.0762	307.617	82.4034	307.617	81.5843	307.617	82.173	307.617	81.0657	307.617	81.8895	307.617	80.6151	307.617	81.557	307.617	80.3277	307.617	81.1909	307.617	80.2301	307.617	80.8141	307.617	80.2626	307.617	80.4586	307.617	80.3313	307.617	80.1688	307.617	80.3647	307.617	79.9891	307.617	80.3318	307.617	79.9375	307.617	80.2374	307.617	79.9931	307.617	80.1099
319.336	82.9511	319.336	82.8503	319.336	82.9843	319.336	82.6912	319.336	82.9488	319.336	82.4855	319.336	82.8537	319.336	82.2406	319.336	82.7133	319.336	81.9568	319.336	82.5378	319.336	81.6288	319.336	82.3253	319.336	81.2488	319.336	82.0634	319.336	80.8137	319.336	81.743	319.336	80.3385	319.336	81.3724	319.336	79.8781	319.336	80.9828	319.336	79.5298	319.336	80.6177	319.336	79.3854	319.336	80.3162	319.336	79.4535	319.336	80.105	319.336	79.6496	319.336	79.9973	319.336	79.8682	319.336	79.9883	319.336	80.0417	319.336	80.0474	319.336	80.1425	319.336	80.1234	319.336	80.1658
329.59	82.5757	329.59	82.4583	329.59	82.6718	329.59	82.3468	329.59	82.7147	329.59	82.2531	329.59	82.6815	329.59	82.1693	329.59	82.569	329.59	82.0699	329.59	82.3923	329.59	81.9184	329.59	82.1729	329.59	81.6783	329.59	81.9224	329.59	81.3232	329.59	81.635	329.59	80.8467	329.59	81.2941	329.59	80.2763	329.59	80.8907	329.59	79.6928	329.59	80.4404	329.59	79.2346	329.59	79.9904	329.59	79.0344	329.59	79.6093	329.59	79.1095	329.59	79.3649	329.59	79.3406	329.59	79.2953	329.59	79.5719	329.59	79.3818	329.59	79.6963	329.59	79.5446	329.59	79.6774
341.309	82.7458	341.309	82.7298	341.309	82.6778	341.309	82.6297	341.309	82.5292	341.309	82.4494	341.309	82.3078	341.309	82.2018	341.309	82.0255	341.309	81.914	341.309	81.6964	341.309	81.6211	341.309	81.3344	341.309	81.3442	341.309	80.953	341.309	81.0694	341.309	80.5691	341.309	80.7522	341.309	80.2112	341.309	80.3503	341.309	79.9188	341.309	79.8598	341.309	79.7289	341.309	79.3375	341.309	79.6552	341.309	78.8962	341.309	79.6774	341.309	78.6586	341.309	79.7452	341.309	78.6764	341.309	79.7968	341.309	78.8912	341.309	79.7807	341.309	79.1868	341.309	79.6704	341.309	79.4649
353.027	82.4717	353.027	82.4115	353.027	82.482	353.027	82.3068	353.027	82.4389	353.027	82.1586	353.027	82.3438	353.027	81.9595	353.027	82.2013	353.027	81.7004	353.027	82.0132	353.027	81.3832	353.027	81.7714	353.027	81.0283	353.027	81.4526	353.027	80.6649	353.027	81.0214	353.027	80.3097	353.027	80.4468	353.027	79.9618	353.027	79.7306	353.027	79.6275	353.027	78.9375	353.027	79.3489	353.027	78.2112	353.027	79.1864	353.027	77.7403	353.027	79.1609	353.027	77.6538	353.027	79.2212	353.027	77.9182	353.027	79.2795	353.027	78.3604	353.027	79.2576	353.027	78.7931	353.027	79.1027
366.211	82.6643	366.211	82.5365	366.211	82.7238	366.211	82.3353	366.211	82.7216	366.211	82.0634	366.211	82.658	366.211	81.7303	366.211	82.5247	366.211	81.3463	366.211	82.3141	366.211	80.9156	366.211	82.0325	366.211	80.4387	366.211	81.7015	366.211	79.9238	366.211	81.3379	366.211	79.4056	366.211	80.9265	366.211	78.9481	366.211	80.4235	366.211	78.6134	366.211	79.8054	366.211	78.4195	366.211	79.128	366.211	78.3392	366.211	78.5348	366.211	78.3378	366.211	78.1694	366.211	78.3862	366.211	78.0587	366.211	78.4417	366.211	78.1194	366.211	78.4499	366.211	78.252	366.211	78.3805
379.395	82.4312	379.395	82.3825	379.395	82.4214	379.395	82.2791	379.395	82.363	379.395	82.1307	379.395	82.2761	379.395	81.9387	379.395	82.1767	379.395	81.6856	379.395	82.0606	379.395	81.3393	379.395	81.8995	379.395	80.8722	379.395	81.6574	379.395	80.2784	379.395	81.3148	379.395	79.5824	379.395	80.8801	379.395	78.8524	379.395	80.3808	379.395	78.2243	379.395	79.847	379.395	77.8825	379.395	79.3185	379.395	77.9246	379.395	78.8735	379.395	78.246	379.395	78.6201	379.395	78.6374	379.395	78.6111	379.395	78.9444	379.395	78.7767	379.395	79.104	379.395	78.9798	379.395	79.1084
392.578	82.2156	392.578	82.1442	392.578	82.2253	392.578	82.0249	392.578	82.1615	392.578	81.868	392.578	82.0215	392.578	81.6801	392.578	81.8154	392.578	81.4617	392.578	81.562	392.578	81.2011	392.578	81.2738	392.578	80.8725	392.578	80.9448	392.578	80.4487	392.578	80.5578	392.578	79.9222	392.578	80.1109	392.578	79.3171	392.578	79.6326	392.578	78.6872	392.578	79.167	392.578	78.1156	392.578	78.7462	392.578	77.7102	392.578	78.3925	392.578	77.5575	392.578	78.1427	392.578	77.6418	392.578	78.0363	392.578	77.8448	392.578	78.0583	392.578	78.0344	392.578	78.1227	392.578	78.1316
405.762	81.9643	405.762	81.821	405.762	82.0263	405.762	81.6221	405.762	81.9892	405.762	81.3959	405.762	81.8462	405.762	81.1667	405.762	81.6036	405.762	80.9441	405.762	81.2813	405.762	80.7113	405.762	80.9085	405.762	80.4249	405.762	80.5089	405.762	80.0385	405.762	80.0817	405.762	79.5374	405.762	79.602	405.762	78.9643	405.762	79.0546	405.762	78.4167	405.762	78.4813	405.762	78.0123	405.762	77.9901	405.762	77.8286	405.762	77.6926	405.762	77.8509	405.762	77.6237	405.762	77.985	405.762	77.7298	405.762	78.1257	405.762	77.9158	405.762	78.2055	405.762	78.091	405.762	78.1953
420.41	81.9995	420.41	81.928	420.41	82.0115	420.41	81.7942	420.41	81.9674	420.41	81.594	420.41	81.8731	420.41	81.3225	420.41	81.737	420.41	80.9797	420.41	81.5607	420.41	80.5826	420.41	81.3248	420.41	80.1593	420.41	80.9865	420.41	79.7097	420.41	80.5012	420.41	79.1783	420.41	79.8501	420.41	78.5084	420.41	79.0521	420.41	77.7639	420.41	78.1603	420.41	77.2021	420.41	77.272	420.41	77.0978	420.41	76.5716	420.41	77.4103	420.41	76.3065	420.41	77.8442	420.41	76.5627	420.41	78.1593	420.41	77.1255	420.41	78.2523	420.41	77.6969	420.41	78.095
435.059	81.7444	435.059	81.6718	435.059	81.7415	435.059	81.5301	435.059	81.6712	435.059	81.3357	435.059	81.5456	435.059	81.0954	435.059	81.3711	435.059	80.787	435.059	81.1505	435.059	80.3649	435.059	80.8869	435.059	79.7925	435.059	80.5714	435.059	79.0776	435.059	80.1634	435.059	78.2786	435.059	79.6007	435.059	77.4788	435.059	78.8569	435.059	76.7762	435.059	78.0186	435.059	76.3207	435.059	77.3118	435.059	76.2875	435.059	76.9656	435.059	76.6952	435.059	76.9998	435.059	77.3219	435.059	77.2645	435.059	77.886	435.059	77.6286	435.059	78.2066	435.059	77.9921	435.059	78.2258
451.172	81.9621	451.172	81.8168	451.172	81.9989	451.172	81.5813	451.172	81.9386	451.172	81.2946	451.172	81.8147	451.172	80.9978	451.172	81.6615	451.172	80.7137	451.172	81.4918	451.172	80.4271	451.172	81.2961	451.172	80.0707	451.172	81.061	451.172	79.5408	451.172	80.7729	451.172	78.7569	451.172	80.3875	451.172	77.7495	451.172	79.8084	451.172	76.7315	451.172	78.9353	451.172	76.0441	451.172	77.7907	451.172	75.9008	451.172	76.6646	451.172	76.214	451.172	76.0181	451.172	76.7139	451.172	75.984	451.172	77.1167	451.172	76.2906	451.172	77.2403	451.172	76.6976	451.172	77.0633
465.82	82.0704	465.82	82.0617	465.82	82.0237	465.82	81.9916	465.82	81.9209	465.82	81.8518	465.82	81.7637	465.82	81.6393	465.82	81.5661	465.82	81.3534	465.82	81.3438	465.82	80.982	465.82	81.0853	465.82	80.4963	465.82	80.745	465.82	79.8672	465.82	80.289	465.82	79.0845	465.82	79.7439	465.82	78.1631	465.82	79.1681	465.82	77.1692	465.82	78.5426	465.82	76.2846	465.82	77.7673	465.82	75.7939	465.82	76.8911	465.82	75.8425	465.82	76.3379	465.82	76.2714	465.82	76.5193	465.82	76.8264	465.82	77.1283	465.82	77.3283	465.82	77.5801	465.82	77.6295
483.398	82.0797	483.398	81.8959	483.398	82.1804	483.398	81.674	483.398	82.1778	483.398	81.4714	483.398	82.0704	483.398	81.3194	483.398	81.8762	483.398	81.2008	483.398	81.6364	483.398	81.0744	483.398	81.395	483.398	80.9019	483.398	81.1509	483.398	80.6262	483.398	80.8352	483.398	80.1385	483.398	80.3511	483.398	79.309	483.398	79.6343	483.398	78.0911	483.398	78.685	483.398	76.6992	483.398	77.5804	483.398	75.7614	483.398	76.514	483.398	75.7999	483.398	75.833	483.398	76.4395	483.398	75.8332	483.398	77.0613	483.398	76.3676	483.398	77.3932	483.398	76.9869	483.398	77.3669
499.512	82.817	499.512	82.5867	499.512	82.9011	499.512	82.2502	499.512	82.8378	499.512	81.8537	499.512	82.659	499.512	81.4211	499.512	82.3942	499.512	80.9608	499.512	82.0566	499.512	80.4827	499.512	81.6668	499.512	80.0009	499.512	81.2598	499.512	79.5315	499.512	80.8401	499.512	79.0887	499.512	80.3575	499.512	78.6524	499.512	79.7703	499.512	78.1541	499.512	79.1207	499.512	77.5745	499.512	78.4968	499.512	77.1066	499.512	77.9157	499.512	77.0756	499.512	77.3679	499.512	77.4888	499.512	77.0077	499.512	77.9664	499.512	77.0765	499.512	78.1688	499.512	77.5198	499.512	77.9849
517.09	82.1775	517.09	82.2173	517.09	82.0474	517.09	82.1132	517.09	81.8984	517.09	81.8728	517.09	81.7771	517.09	81.5664	517.09	81.6798	517.09	81.2553	517.09	81.5572	517.09	80.9078	517.09	81.3631	517.09	80.4051	517.09	81.108	517.09	79.6386	517.09	80.8298	517.09	78.6105	517.09	80.4804	517.09	77.4694	517.09	79.887	517.09	76.4475	517.09	78.9014	517.09	75.759	517.09	77.648	517.09	75.5935	517.09	76.7044	517.09	76.0751	517.09	76.6421	517.09	77.0434	517.09	77.2353	517.09	78.0673	517.09	77.9756	517.09	78.7514	517.09	78.5986	517.09	78.9152
536.133	82.5735	536.133	82.3429	536.133	82.6386	536.133	81.9831	536.133	82.5281	536.133	81.5544	536.133	82.2464	536.133	81.1199	536.133	81.819	536.133	80.7321	536.133	81.3078	536.133	80.4243	536.133	80.7813	536.133	80.1555	536.133	80.2496	536.133	79.7657	536.133	79.6653	536.133	79.0468	536.133	78.9996	536.133	77.8804	536.133	78.2543	536.133	76.408	536.133	77.3846	536.133	75.2833	536.133	76.3423	536.133	75.3029	536.133	75.4068	536.133	76.1472	536.133	75.3273	536.133	77.0163	536.133	76.2012	536.133	77.621	536.133	77.2032	536.133	77.9651	536.133	77.8357	536.133	78.0581
555.176	82.6523	555.176	82.6114	555.176	82.6253	555.176	82.4888	555.176	82.5541	555.176	82.2617	555.176	82.4605	555.176	81.9068	555.176	82.3268	555.176	81.4357	555.176	82.1207	555.176	80.8933	555.176	81.8644	555.176	80.2986	555.176	81.6204	555.176	79.6055	555.176	81.3794	555.176	78.719	555.176	81.0079	555.176	77.5175	555.176	80.3274	555.176	75.8783	555.176	79.1985	555.176	73.8805	555.176	77.5363	555.176	72.5298	555.176	75.3815	555.176	73.3354	555.176	73.4559	555.176	75.1937	555.176	73.4841	555.176	76.5804	555.176	75.0342	555.176	77.1776	555.176	76.3822	555.176	77.089
574.219	82.7868	574.219	82.5275	574.219	82.8375	574.219	82.1038	574.219	82.6414	574.219	81.5929	574.219	82.2088	574.219	81.1461	574.219	81.6493	574.219	80.903	574.219	81.1488	574.219	80.8294	574.219	80.8369	574.219	80.7436	574.219	80.6841	574.219	80.4859	574.219	80.5635	574.219	79.9706	574.219	80.3253	574.219	79.1054	574.219	79.8064	574.219	77.7417	574.219	78.8859	574.219	75.8	574.219	77.5736	574.219	73.8065	574.219	76.0128	574.219	73.474	574.219	74.4495	574.219	74.9572	574.219	73.6072	574.219	76.5138	574.219	74.4829	574.219	77.3763	574.219	76.1911	574.219	77.297
594.727	83.9242	594.727	83.7737	594.727	83.8776	594.727	83.387	594.727	83.6594	594.727	82.7269	594.727	83.2637	594.727	81.7752	594.727	82.6541	594.727	80.5972	594.727	81.8001	594.727	79.4559	594.727	80.7512	594.727	78.7371	594.727	79.725	594.727	78.4908	594.727	79.0667	594.727	78.3579	594.727	78.8894	594.727	78.0482	594.727	78.8284	594.727	77.4457	594.727	78.3759	594.727	76.4205	594.727	77.1977	594.727	74.8547	594.727	75.2344	594.727	73.176	594.727	73.1071	594.727	72.7671	594.727	72.3664	594.727	73.6121	594.727	73.0633	594.727	74.285	594.727	73.8841	594.727	74.3387
615.234	83.4727	615.234	83.3968	615.234	83.4742	615.234	83.2378	615.234	83.4113	615.234	82.979	615.234	83.2593	615.234	82.5693	615.234	82.9435	615.234	81.9339	615.234	82.3881	615.234	81.0175	615.234	81.5646	615.234	79.8246	615.234	80.4709	615.234	78.4432	615.234	79.1143	615.234	77.0286	615.234	77.6073	615.234	75.7223	615.234	76.2841	615.234	74.605	615.234	75.5096	615.234	73.8145	615.234	75.223	615.234	73.5182	615.234	75.0445	615.234	73.5694	615.234	74.7589	615.234	73.6568	615.234	74.4194	615.234	73.7265	615.234	74.218	615.234	73.8998	615.234	74.1986	615.234	74.1225
637.207	82.4282	637.207	82.3467	637.207	82.5004	637.207	82.301	637.207	82.473	637.207	82.2276	637.207	82.3259	637.207	82.019	637.207	82.1101	637.207	81.6247	637.207	81.8563	637.207	81.0878	637.207	81.5531	637.207	80.4644	637.207	81.1709	637.207	79.6665	637.207	80.6121	637.207	78.4698	637.207	79.6985	637.207	76.8156	637.207	78.3376	637.207	75.143	637.207	76.7113	637.207	74.0833	637.207	75.1664	637.207	73.6439	637.207	73.9749	637.207	73.7986	637.207	73.5082	637.207	74.6799	637.207	74.0125	637.207	75.6824	637.207	74.9406	637.207	76.1802	637.207	75.6931	637.207	76.1265
659.18	81.7928	659.18	81.7408	659.18	81.7259	659.18	81.5958	659.18	81.6213	659.18	81.4556	659.18	81.5818	659.18	81.3803	659.18	81.6326	659.18	81.3321	659.18	81.7038	659.18	81.1835	659.18	81.6783	659.18	80.772	659.18	81.4449	659.18	79.9649	659.18	80.9329	659.18	78.6805	659.18	80.1165	659.18	76.8588	659.18	78.954	659.18	74.5072	659.18	77.2704	659.18	72.3675	659.18	74.8223	659.18	72.4746	659.18	72.2176	659.18	74.2086	659.18	71.9983	659.18	75.6843	659.18	73.6831	659.18	76.5917	659.18	75.2018	659.18	77.0071	659.18	76.2741	659.18	76.9028
682.617	81.9837	682.617	81.7996	682.617	82.0247	682.617	81.4849	682.617	81.9611	682.617	81.2443	682.617	81.7553	682.617	81.2638	682.617	81.4119	682.617	81.4285	682.617	81.1354	682.617	81.5357	682.617	81.1525	682.617	81.5008	682.617	81.3497	682.617	81.1926	682.617	81.3916	682.617	80.3608	682.617	81.026	682.617	78.7946	682.617	80.0774	682.617	76.4311	682.617	78.3427	682.617	73.6044	682.617	75.6662	682.617	72.3476	682.617	72.6289	682.617	74.2799	682.617	72.1229	682.617	76.5527	682.617	74.4121	682.617	77.9619	682.617	76.6537	682.617	78.6251	682.617	78.0708	682.617	78.6752
707.52	83.16	707.52	82.8651	707.52	83.2399	707.52	82.4618	707.52	83.0265	707.52	81.9253	707.52	82.6486	707.52	81.3008	707.52	82.2886	707.52	80.8999	707.52	81.9442	707.52	80.8783	707.52	81.5901	707.52	80.9267	707.52	81.3834	707.52	80.7711	707.52	81.3618	707.52	80.3372	707.52	81.2043	707.52	79.4577	707.52	80.5873	707.52	77.7484	707.52	79.3221	707.52	74.8361	707.52	77.093	707.52	71.6535	707.52	73.3968	707.52	72.1623	707.52	69.6022	707.52	74.7731	707.52	71.7487	707.52	76.9056	707.52	75.126	707.52	78.1749	707.52	77.2885	707.52	78.3224
732.422	82.8834	732.422	82.8591	732.422	82.7543	732.422	82.5551	732.422	82.5314	732.422	81.9796	732.422	82.1508	732.422	81.3104	732.422	81.5886	732.422	80.7541	732.422	81.0041	732.422	80.4758	732.422	80.6834	732.422	80.5103	732.422	80.7772	732.422	80.5767	732.422	81.1225	732.422	80.1816	732.422	81.3673	732.422	78.8799	732.422	81.1714	732.422	76.3561	732.422	80.2723	732.422	72.5567	732.422	78.4118	732.422	69.7688	732.422	75.1831	732.422	72.1577	732.422	70.3218	732.422	75.2845	732.422	69.407	732.422	77.2214	732.422	73.3097	732.422	77.8984	732.422	75.9356	732.422	77.4197
757.324	83.2518	757.324	82.9506	757.324	83.3044	757.324	82.4239	757.324	83.1264	757.324	81.7624	757.324	82.7166	757.324	81.0834	757.324	82.0573	757.324	80.516	757.324	81.2123	757.324	80.2439	757.324	80.4339	757.324	80.377	757.324	80.0667	757.324	80.633	757.324	80.1687	757.324	80.4395	757.324	80.4106	757.324	79.3576	757.324	80.3726	757.324	77.0676	757.324	79.6868	757.324	72.8876	757.324	78.0187	757.324	66.4898	757.324	75.0192	757.324	70.1448	757.324	70.6707	757.324	74.8502	757.324	69.4406	757.324	77.2291	757.324	73.1169	757.324	78.0682	757.324	76.008	757.324	77.6263
785.156	83.25	785.156	82.9631	785.156	83.329	785.156	82.4838	785.156	83.1487	785.156	81.7865	785.156	82.7033	785.156	80.9548	785.156	82.0587	785.156	80.174	785.156	81.334	785.156	79.6895	785.156	80.7101	785.156	79.6898	785.156	80.4038	785.156	79.9281	785.156	80.4421	785.156	79.964	785.156	80.5051	785.156	79.4894	785.156	80.2187	785.156	78.1118	785.156	79.4296	785.156	74.9501	785.156	77.9821	785.156	68.0909	785.156	75.2079	785.156	67.7814	785.156	69.391	785.156	72.7404	785.156	65.2553	785.156	74.512	785.156	72.4901	785.156	75.5707	785.156	75.6043	785.156	76.2592
811.523	83.2834	811.523	83.0364	811.523	83.3029	811.523	82.5341	811.523	83.0466	811.523	81.755	811.523	82.4893	811.523	80.7486	811.523	81.7633	811.523	79.7668	811.523	80.9702	811.523	79.3493	811.523	80.1415	811.523	79.7263	811.523	79.7004	811.523	80.479	811.523	80.0749	811.523	80.8107	811.523	80.7406	811.523	80.1248	811.523	81.0738	811.523	78.203	811.523	80.7991	811.523	74.8592	811.523	79.5674	811.523	69.4602	811.523	76.8278	811.523	64.501	811.523	71.7125	811.523	71.9348	811.523	66.1768	811.523	76.0881	811.523	72.0586	811.523	77.3968	811.523	75.5604	811.523	77.0472
840.82	83.9331	840.82	83.7028	840.82	83.91	840.82	83.2321	840.82	83.7031	840.82	82.5065	840.82	83.3105	840.82	81.3783	840.82	82.5796	840.82	79.7722	840.82	81.4555	840.82	78.2269	840.82	80.1743	840.82	77.791	840.82	79.0903	840.82	78.1947	840.82	78.6288	840.82	78.9255	840.82	79.1806	840.82	79.6097	840.82	80.0439	840.82	79.2374	840.82	80.1145	840.82	76.8415	840.82	78.912	840.82	70.9465	840.82	76.2284	840.82	65.7697	840.82	71.516	840.82	71.337	840.82	66.7028	840.82	74.4587	840.82	71.5185	840.82	76.4434	840.82	75.3895	840.82	76.9297
870.117	83.9474	870.117	83.9252	870.117	84.0387	870.117	83.6887	870.117	83.9589	870.117	82.8764	870.117	83.4755	870.117	81.7007	870.117	82.7093	870.117	80.589	870.117	81.7737	870.117	79.3325	870.117	80.5217	870.117	78.0577	870.117	79.1781	870.117	78.4022	870.117	78.6959	870.117	79.5052	870.117	79.0093	870.117	79.3547	870.117	79.4146	870.117	77.8018	870.117	79.6385	870.117	75.2016	870.117	79.1841	870.117	70.3125	870.117	77.1207	870.117	58.3988	870.117	72.3466	870.117	70.0114	870.117	64.8616	870.117	74.8051	870.117	70.0311	870.117	76.3998	870.117	74.6421	870.117	76.3544
900.879	84.1062	900.879	83.9379	900.879	83.9171	900.879	83.495	900.879	83.8398	900.879	83.1837	900.879	83.8534	900.879	82.5865	900.879	83.5017	900.879	81.074	900.879	82.6667	900.879	79.1558	900.879	81.441	900.879	78.0872	900.879	79.8795	900.879	77.754	900.879	78.6347	900.879	78.1324	900.879	78.7621	900.879	79.3043	900.879	79.4741	900.879	79.6825	900.879	79.5675	900.879	77.9174	900.879	78.5585	900.879	73.2273	900.879	76.1001	900.879	62.7651	900.879	71.0668	900.879	67.7081	900.879	62.9734	900.879	74.2079	900.879	71.3199	900.879	76.4232	900.879	74.9365	900.879	76.3524
933.105	83.8712	933.105	83.6895	933.105	84.0908	933.105	83.6152	933.105	83.7739	933.105	82.9214	933.105	83.2047	933.105	81.8162	933.105	82.656	933.105	80.9859	933.105	81.6782	933.105	79.6291	933.105	80.2981	933.105	77.4138	933.105	78.9337	933.105	77.4296	933.105	77.5692	933.105	79.2618	933.105	77.2867	933.105	80.0449	933.105	78.7032	933.105	79.4828	933.105	79.8821	933.105	77.8448	933.105	79.721	933.105	73.5601	933.105	77.7591	933.105	59.7159	933.105	72.76	933.105	68.1896	933.105	61.3139	933.105	72.7968	933.105	68.1287	933.105	75.6354	933.105	74.3892	933.105	76.6001
965.332	83.5165	965.332	83.5273	965.332	83.3003	965.332	83.2765	965.332	83.2976	965.332	83.0982	965.332	83.201	965.332	82.4992	965.332	82.8022	965.332	80.9344	965.332	82.2124	965.332	79.1329	965.332	80.9085	965.332	78.0514	965.332	78.6994	965.332	77.3524	965.332	77.0609	965.332	77.4985	965.332	77.1365	965.332	78.3739	965.332	78.1586	965.332	78.6719	965.332	78.9	965.332	77.4053	965.332	78.405	965.332	73.5098	965.332	76.1814	965.332	62.8369	965.332	72.2866	965.332	65.9398	965.332	61.4718	965.332	72.8089	965.332	68.393	965.332	74.4782	965.332	74.3554	965.332	75.0322
1,000.49	83.0174	1,000.49	83.0138	1,000.49	82.9557	1,000.49	82.7349	1,000.49	82.8575	1,000.49	82.2077	1,000.49	82.7442	1,000.49	81.8348	1,000.49	82.4385	1,000.49	81.2546	1,000.49	81.6328	1,000.49	79.5105	1,000.49	80.6763	1,000.49	76.3927	1,000.49	79.3705	1,000.49	75.2234	1,000.49	76.5015	1,000.49	77.7373	1,000.49	74.0042	1,000.49	79.852	1,000.49	75.8563	1,000.49	80.0829	1,000.49	77.8684	1,000.49	78.4921	1,000.49	78.5959	1,000.49	75.4905	1,000.49	77.7342	1,000.49	68.8213	1,000.49	73.6841	1,000.49	61.3634	1,000.49	61.8564	1,000.49	73.1456	1,000.49	66.0963	1,000.49	76.1969	1,000.49	73.1966	1,000.49	76.1783
1,035.64	82.171	1,035.64	81.9997	1,035.64	82.3022	1,035.64	82.1144	1,035.64	82.1893	1,035.64	82.1772	1,035.64	81.834	1,035.64	81.6912	1,035.64	81.3958	1,035.64	80.8301	1,035.64	80.9962	1,035.64	79.6719	1,035.64	80.3492	1,035.64	77.9225	1,035.64	78.8302	1,035.64	75.5543	1,035.64	76.3639	1,035.64	74.503	1,035.64	73.9631	1,035.64	76.5313	1,035.64	74.6766	1,035.64	77.8406	1,035.64	76.7334	1,035.64	77.8572	1,035.64	77.444	1,035.64	74.947	1,035.64	77.0971	1,035.64	66.7383	1,035.64	75.19	1,035.64	57.6925	1,035.64	68.7712	1,035.64	70.3144	1,035.64	62.7974	1,035.64	73.8009	1,035.64	71.2728	1,035.64	73.8081
1,072.27	82.1982	1,072.27	82.0471	1,072.27	81.915	1,072.27	81.6846	1,072.27	81.5762	1,072.27	81.2523	1,072.27	81.6648	1,072.27	80.8772	1,072.27	81.6059	1,072.27	80.6221	1,072.27	80.9588	1,072.27	79.7909	1,072.27	80.2732	1,072.27	77.4046	1,072.27	79.5168	1,072.27	73.4508	1,072.27	77.7588	1,072.27	72.4184	1,072.27	74.8399	1,072.27	75.5517	1,072.27	73.0337	1,072.27	77.6177	1,072.27	74.6995	1,072.27	77.2667	1,072.27	76.83	1,072.27	75.0223	1,072.27	77.1332	1,072.27	70.4143	1,072.27	75.2653	1,072.27	53.4387	1,072.27	70.4756	1,072.27	67.8082	1,072.27	58.6118	1,072.27	70.6702	1,072.27	64.7494	1,072.27	70.1481
1,108.89	82.4564	1,108.89	82.195	1,108.89	82.6861	1,108.89	81.8547	1,108.89	82.5516	1,108.89	81.2269	1,108.89	81.6672	1,108.89	80.517	1,108.89	80.5411	1,108.89	80.0523	1,108.89	80.1657	1,108.89	79.1324	1,108.89	79.8417	1,108.89	77.3932	1,108.89	78.5962	1,108.89	75.6413	1,108.89	76.6528	1,108.89	74.2558	1,108.89	74.5899	1,108.89	74.8323	1,108.89	72.9782	1,108.89	76.4693	1,108.89	73.5287	1,108.89	76.6557	1,108.89	75.1216	1,108.89	74.4746	1,108.89	75.6915	1,108.89	68.9655	1,108.89	74.3952	1,108.89	53.5536	1,108.89	70.7616	1,108.89	66.3501	1,108.89	59.0155	1,108.89	69.8631	1,108.89	66.1302	1,108.89	69.7527
1,148.44	82.6448	1,148.44	82.1971	1,148.44	82.9646	1,148.44	81.8412	1,148.44	82.3897	1,148.44	81.1673	1,148.44	81.6578	1,148.44	80.7193	1,148.44	81.426	1,148.44	80.2966	1,148.44	80.8303	1,148.44	79.3463	1,148.44	80.2941	1,148.44	77.9932	1,148.44	80.0559	1,148.44	75.672	1,148.44	78.448	1,148.44	72.5248	1,148.44	75.7221	1,148.44	73.1083	1,148.44	73.9608	1,148.44	76.1929	1,148.44	72.6778	1,148.44	77.0234	1,148.44	74.712	1,148.44	74.3828	1,148.44	76.0871	1,148.44	69.3539	1,148.44	74.2957	1,148.44	58.8513	1,148.44	69.7707	1,148.44	66.8359	1,148.44	56.376	1,148.44	70.2649	1,148.44	65.2977	1,148.44	70.0334
1,189.45	82.5653	1,189.45	82.4087	1,189.45	82.6721	1,189.45	81.8905	1,189.45	82.6105	1,189.45	81.012	1,189.45	82.2598	1,189.45	80.1032	1,189.45	81.6102	1,189.45	79.5294	1,189.45	80.6295	1,189.45	78.9666	1,189.45	79.9651	1,189.45	77.6209	1,189.45	79.4984	1,189.45	75.4444	1,189.45	78.2318	1,189.45	72.2078	1,189.45	76.4625	1,189.45	73.0487	1,189.45	74.2311	1,189.45	75.4152	1,189.45	72.8621	1,189.45	76.1703	1,189.45	75.4505	1,189.45	74.6361	1,189.45	76.6527	1,189.45	70.4684	1,189.45	74.6945	1,189.45	57.7076	1,189.45	70.1347	1,189.45	65.4486	1,189.45	61.7881	1,189.45	70.1978	1,189.45	62.3338	1,189.45	69.8377
1,230.47	83.4091	1,230.47	82.9175	1,230.47	83.4672	1,230.47	82.2681	1,230.47	83.0875	1,230.47	81.4679	1,230.47	82.5716	1,230.47	80.5161	1,230.47	82.003	1,230.47	79.7072	1,230.47	81.2037	1,230.47	79.2317	1,230.47	80.3961	1,230.47	78.5267	1,230.47	79.9053	1,230.47	76.416	1,230.47	79.1009	1,230.47	73.4833	1,230.47	77.4214	1,230.47	73.4343	1,230.47	75.2482	1,230.47	74.9817	1,230.47	74.3734	1,230.47	75.4253	1,230.47	75.1245	1,230.47	74.5011	1,230.47	76.1597	1,230.47	71.2231	1,230.47	75.3784	1,230.47	61.294	1,230.47	71.009	1,230.47	64.608	1,230.47	58.9077	1,230.47	70.0758	1,230.47	64.8965	1,230.47	70.2651
1,274.41	84.0897	1,274.41	83.6927	1,274.41	84.2199	1,274.41	82.9292	1,274.41	84.0029	1,274.41	81.9389	1,274.41	83.2	1,274.41	80.9293	1,274.41	82.0632	1,274.41	79.934	1,274.41	81.1198	1,274.41	79.1453	1,274.41	80.5381	1,274.41	78.5303	1,274.41	79.9993	1,274.41	77.2661	1,274.41	78.9073	1,274.41	74.7826	1,274.41	77.423	1,274.41	71.7339	1,274.41	75.5222	1,274.41	72.4008	1,274.41	73.0535	1,274.41	75.6288	1,274.41	74.5747	1,274.41	75.7303	1,274.41	76.2129	1,274.41	72.1365	1,274.41	75.4528	1,274.41	62.0088	1,274.41	72.1951	1,274.41	65.2432	1,274.41	63.4758	1,274.41	69.0246	1,274.41	66.7846	1,274.41	69.8064
1,319.82	84.4192	1,319.82	84.1791	1,319.82	84.4098	1,319.82	83.6432	1,319.82	83.9724	1,319.82	82.7427	1,319.82	83.5141	1,319.82	81.4513	1,319.82	82.608	1,319.82	80.5264	1,319.82	81.3472	1,319.82	79.9667	1,319.82	80.3454	1,319.82	79.0976	1,319.82	79.2872	1,319.82	78.3095	1,319.82	78.6797	1,319.82	76.0813	1,319.82	77.4068	1,319.82	71.969	1,319.82	75.262	1,319.82	71.9001	1,319.82	73.8627	1,319.82	74.2482	1,319.82	74.411	1,319.82	73.7457	1,319.82	75.6165	1,319.82	70.0143	1,319.82	74.943	1,319.82	62.6606	1,319.82	70.4312	1,319.82	65.2188	1,319.82	59.8645	1,319.82	71.4554	1,319.82	65.5488	1,319.82	71.3055
1,366.7	84.3484	1,366.7	83.7718	1,366.7	83.8225	1,366.7	83.0371	1,366.7	83.5605	1,366.7	82.1074	1,366.7	83.0243	1,366.7	80.8213	1,366.7	81.7591	1,366.7	80.0448	1,366.7	80.8167	1,366.7	79.095	1,366.7	79.5987	1,366.7	78.1485	1,366.7	78.5411	1,366.7	76.0826	1,366.7	77.8459	1,366.7	74.4777	1,366.7	76.9494	1,366.7	73.3397	1,366.7	76.0488	1,366.7	73.1179	1,366.7	74.9805	1,366.7	74.6465	1,366.7	74.4239	1,366.7	74.4127	1,366.7	75.0394	1,366.7	71.4375	1,366.7	74.2207	1,366.7	61.8955	1,366.7	70.1854	1,366.7	64.5055	1,366.7	59.3731	1,366.7	69.4648	1,366.7	65.5355	1,366.7	69.0932
1,413.57	83.5219	1,413.57	83.6492	1,413.57	83.7394	1,413.57	83.2149	1,413.57	83.7084	1,413.57	81.9552	1,413.57	82.707	1,413.57	80.7044	1,413.57	81.9207	1,413.57	79.6281	1,413.57	80.839	1,413.57	78.1878	1,413.57	79.1186	1,413.57	77.7324	1,413.57	77.6523	1,413.57	76.3725	1,413.57	76.9245	1,413.57	74.0963	1,413.57	76.1449	1,413.57	73.0341	1,413.57	73.7636	1,413.57	72.919	1,413.57	71.3068	1,413.57	75.2388	1,413.57	72.8721	1,413.57	74.5341	1,413.57	73.5914	1,413.57	71.6065	1,413.57	74.2315	1,413.57	62.7272	1,413.57	72.229	1,413.57	62.4539	1,413.57	61.5877	1,413.57	68.4339	1,413.57	64.0256	1,413.57	69.2045
1,463.38	83.5076	1,463.38	83.0193	1,463.38	83.4401	1,463.38	82.3215	1,463.38	82.9696	1,463.38	81.5931	1,463.38	82.1299	1,463.38	80.2544	1,463.38	81.4195	1,463.38	79.0305	1,463.38	80.3432	1,463.38	77.906	1,463.38	78.6629	1,463.38	76.5694	1,463.38	77.7351	1,463.38	76.9748	1,463.38	76.4953	1,463.38	75.9165	1,463.38	75.6018	1,463.38	71.8589	1,463.38	73.0488	1,463.38	71.8694	1,463.38	69.811	1,463.38	73.6955	1,463.38	70.7909	1,463.38	74.0455	1,463.38	73.6027	1,463.38	70.8536	1,463.38	74.2843	1,463.38	63.3572	1,463.38	71.0968	1,463.38	59.6705	1,463.38	63.7725	1,463.38	68.1061	1,463.38	48.0467	1,463.38	68.5965
1,516.11	82.1802	1,516.11	81.8039	1,516.11	82.0754	1,516.11	81.1711	1,516.11	81.6777	1,516.11	80.0117	1,516.11	81.2636	1,516.11	79.149	1,516.11	80.1139	1,516.11	77.9564	1,516.11	79.037	1,516.11	76.3705	1,516.11	78.138	1,516.11	75.2112	1,516.11	76.9314	1,516.11	75.3595	1,516.11	76.2974	1,516.11	74.2794	1,516.11	74.7585	1,516.11	71.534	1,516.11	72.3665	1,516.11	70.8499	1,516.11	70.1132	1,516.11	69.9286	1,516.11	67.5086	1,516.11	72.2006	1,516.11	71.7966	1,516.11	70.2606	1,516.11	72.8584	1,516.11	64.4447	1,516.11	70.8696	1,516.11	59.0285	1,516.11	66.466	1,516.11	65.0349	1,516.11	55.3005	1,516.11	63.922
1,568.85	81.8623	1,568.85	81.3894	1,568.85	81.625	1,568.85	80.6867	1,568.85	81.4008	1,568.85	79.3667	1,568.85	80.8024	1,568.85	78.0006	1,568.85	79.7046	1,568.85	76.472	1,568.85	78.4508	1,568.85	74.7357	1,568.85	76.8149	1,568.85	73.3699	1,568.85	75.105	1,568.85	74.1933	1,568.85	74.0847	1,568.85	72.6526	1,568.85	73.8804	1,568.85	70.7888	1,568.85	72.8844	1,568.85	69.2987	1,568.85	70.3615	1,568.85	71.7878	1,568.85	70.0119	1,568.85	72.1086	1,568.85	69.9245	1,568.85	70.1915	1,568.85	72.1378	1,568.85	66.4499	1,568.85	69.9725	1,568.85	61.0492	1,568.85	66.4671	1,568.85	65.6322	1,568.85	63.2406	1,568.85	65.2731
1,624.51	81.7475	1,624.51	81.5433	1,624.51	81.7379	1,624.51	80.3202	1,624.51	81.4403	1,624.51	79.8449	1,624.51	80.7303	1,624.51	78.3056	1,624.51	80.6152	1,624.51	76.8343	1,624.51	78.8248	1,624.51	74.7406	1,624.51	77.3124	1,624.51	74.182	1,624.51	75.4947	1,624.51	73.8929	1,624.51	74.6124	1,624.51	72.8495	1,624.51	74.7516	1,624.51	70.9069	1,624.51	72.2025	1,624.51	68.5553	1,624.51	72.1467	1,624.51	71.118	1,624.51	71.1096	1,624.51	71.5948	1,624.51	70.2055	1,624.51	71.0366	1,624.51	70.9867	1,624.51	65.9849	1,624.51	71.8341	1,624.51	58.9625	1,624.51	64.7782	1,624.51	65.3102	1,624.51	62.6486	1,624.51	60.8355
1,681.64	81.4562	1,681.64	81.2189	1,681.64	81.4583	1,681.64	80.8357	1,681.64	81.329	1,681.64	80.2414	1,681.64	80.3445	1,681.64	79.2108	1,681.64	80.1582	1,681.64	78.008	1,681.64	78.6381	1,681.64	76.1779	1,681.64	77.9043	1,681.64	75.8116	1,681.64	76.7157	1,681.64	74.5811	1,681.64	75.4661	1,681.64	75.4283	1,681.64	74.3085	1,681.64	72.301	1,681.64	72.59	1,681.64	67.3391	1,681.64	69.6769	1,681.64	69.6822	1,681.64	68.8929	1,681.64	72.4293	1,681.64	70.9123	1,681.64	72.2766	1,681.64	71.4428	1,681.64	66.2488	1,681.64	68.4405	1,681.64	56.3375	1,681.64	61.9483	1,681.64	62.1118	1,681.64	59.9059	1,681.64	64.8657
1,741.7	81.6241	1,741.7	81.7864	1,741.7	81.5975	1,741.7	81.6127	1,741.7	81.2533	1,741.7	80.5694	1,741.7	80.696	1,741.7	79.5507	1,741.7	79.7394	1,741.7	78.5055	1,741.7	78.3672	1,741.7	77.5051	1,741.7	77.0753	1,741.7	75.5769	1,741.7	76.8603	1,741.7	75.2157	1,741.7	75.4273	1,741.7	75.7044	1,741.7	74.3353	1,741.7	72.0367	1,741.7	73.3999	1,741.7	69.8312	1,741.7	70.77	1,741.7	70.8441	1,741.7	69.4958	1,741.7	73.3687	1,741.7	70.4082	1,741.7	73.5893	1,741.7	72.1831	1,741.7	69.1896	1,741.7	73.1021	1,741.7	64.5455	1,741.7	66.5314	1,741.7	65.1782	1,741.7	57.0425	1,741.7	65.4373
1,803.22	81.6953	1,803.22	81.9588	1,803.22	81.2712	1,803.22	81.5368	1,803.22	80.9859	1,803.22	80.1749	1,803.22	80.2928	1,803.22	79.9749	1,803.22	79.1674	1,803.22	78.9427	1,803.22	79.3834	1,803.22	77.8653	1,803.22	77.417	1,803.22	75.9528	1,803.22	76.6954	1,803.22	74.2328	1,803.22	74.9872	1,803.22	74.1089	1,803.22	74.3998	1,803.22	72.4593	1,803.22	74.9794	1,803.22	70.6698	1,803.22	72.7714	1,803.22	69.9714	1,803.22	67.8165	1,803.22	71.9809	1,803.22	68.2458	1,803.22	72.4021	1,803.22	73.3852	1,803.22	69.2985	1,803.22	71.2027	1,803.22	66.3549	1,803.22	69.8002	1,803.22	68.777	1,803.22	59.9339	1,803.22	68.4662
1,866.21	81.2768	1,866.21	80.8388	1,866.21	81.0817	1,866.21	80.2027	1,866.21	80.7108	1,866.21	79.8681	1,866.21	80.0481	1,866.21	79.2712	1,866.21	79.2659	1,866.21	78.4627	1,866.21	78.3929	1,866.21	77.0926	1,866.21	77.491	1,866.21	75.9814	1,866.21	76.2256	1,866.21	74.6388	1,866.21	74.4821	1,866.21	73.9792	1,866.21	73.8539	1,866.21	73.3588	1,866.21	72.4359	1,866.21	70.5794	1,866.21	72.544	1,866.21	69.7201	1,866.21	69.669	1,866.21	72.0589	1,866.21	65.8099	1,866.21	71.9151	1,866.21	70.9358	1,866.21	68.5899	1,866.21	71.8013	1,866.21	63.146	1,866.21	68.7615	1,866.21	66.812	1,866.21	57.0261	1,866.21	63.5444
1,932.13	81.7296	1,932.13	81.1223	1,932.13	81.6051	1,932.13	80.6776	1,932.13	81.4141	1,932.13	79.7318	1,932.13	80.9867	1,932.13	78.6701	1,932.13	79.849	1,932.13	77.8593	1,932.13	79.0012	1,932.13	77.1531	1,932.13	78.0817	1,932.13	75.7134	1,932.13	77.5588	1,932.13	73.9925	1,932.13	76.2444	1,932.13	72.9939	1,932.13	74.1158	1,932.13	73.084	1,932.13	73.1474	1,932.13	70.7972	1,932.13	72.7915	1,932.13	68.7658	1,932.13	70.8626	1,932.13	70.9467	1,932.13	69.2975	1,932.13	70.983	1,932.13	70.071	1,932.13	67.1051	1,932.13	71.7681	1,932.13	63.6382	1,932.13	70.0258	1,932.13	65.4651	1,932.13	62.5431	1,932.13	63.8773
1,999.51	83.0198	1,999.51	82.7918	1,999.51	83.2199	1,999.51	81.8685	1,999.51	82.8734	1,999.51	80.8473	1,999.51	82.5022	1,999.51	80.0355	1,999.51	81.7121	1,999.51	78.5385	1,999.51	80.6538	1,999.51	76.7773	1,999.51	79.6346	1,999.51	75.8665	1,999.51	78.3773	1,999.51	74.4656	1,999.51	77.1877	1,999.51	73.3421	1,999.51	76.3545	1,999.51	71.18	1,999.51	75.0891	1,999.51	70.404	1,999.51	73.3232	1,999.51	67.848	1,999.51	73.2874	1,999.51	70.7568	1,999.51	69.9297	1,999.51	72.4303	1,999.51	70.4187	1,999.51	69.2206	1,999.51	71.8086	1,999.51	64.5977	1,999.51	69.8804	1,999.51	66.1865	1,999.51	66.4678	1,999.51	67.4275
2,069.82	84.1582	2,069.82	83.6092	2,069.82	84.1918	2,069.82	82.9867	2,069.82	83.9619	2,069.82	82.0094	2,069.82	83.2925	2,069.82	81.0849	2,069.82	82.4791	2,069.82	79.9368	2,069.82	81.466	2,069.82	78.056	2,069.82	80.4552	2,069.82	75.9974	2,069.82	78.8809	2,069.82	75.2997	2,069.82	77.7315	2,069.82	74.1494	2,069.82	76.8597	2,069.82	72.8604	2,069.82	74.8822	2,069.82	71.794	2,069.82	74.5013	2,069.82	70.5118	2,069.82	72.8547	2,069.82	69.7702	2,069.82	71.5603	2,069.82	71.186	2,069.82	71.2194	2,069.82	68.2182	2,069.82	72.4209	2,069.82	65.4812	2,069.82	70.2845	2,069.82	69.4381	2,069.82	66.7485	2,069.82	69.1851
2,143.07	84.0538	2,143.07	83.6769	2,143.07	83.9876	2,143.07	83.2572	2,143.07	83.7148	2,143.07	82.4181	2,143.07	82.9922	2,143.07	81.2935	2,143.07	82.0474	2,143.07	80.5659	2,143.07	80.9957	2,143.07	79.2425	2,143.07	79.9611	2,143.07	77.1792	2,143.07	78.9889	2,143.07	74.9261	2,143.07	77.059	2,143.07	74.6863	2,143.07	75.1684	2,143.07	73.5993	2,143.07	74.7469	2,143.07	71.604	2,143.07	73.3186	2,143.07	69.7588	2,143.07	71.4509	2,143.07	71.6118	2,143.07	71.2403	2,143.07	70.9291	2,143.07	70.2658	2,143.07	68.3122	2,143.07	70.7854	2,143.07	66.2723	2,143.07	69.0902	2,143.07	68.0202	2,143.07	66.0207	2,143.07	69.2152
2,219.24	82.991	2,219.24	83.1071	2,219.24	82.944	2,219.24	82.5102	2,219.24	82.5156	2,219.24	81.6553	2,219.24	81.7986	2,219.24	80.6032	2,219.24	80.9706	2,219.24	79.6574	2,219.24	79.8796	2,219.24	79.5946	2,219.24	78.786	2,219.24	77.4353	2,219.24	77.9921	2,219.24	76.1131	2,219.24	75.8235	2,219.24	74.5765	2,219.24	74.7286	2,219.24	72.547	2,219.24	73.9809	2,219.24	71.2383	2,219.24	71.719	2,219.24	69.7636	2,219.24	71.5521	2,219.24	70.4443	2,219.24	69.0723	2,219.24	71.9262	2,219.24	68.9719	2,219.24	70.8561	2,219.24	70.7755	2,219.24	64.921	2,219.24	68.5946	2,219.24	69.6686	2,219.24	60.94	2,219.24	69.6724
2,296.88	82.5549	2,296.88	82.1148	2,296.88	82.6055	2,296.88	81.872	2,296.88	82.2744	2,296.88	80.847	2,296.88	82.2168	2,296.88	80.2102	2,296.88	81.2471	2,296.88	79.2381	2,296.88	80.2996	2,296.88	78.0646	2,296.88	79.405	2,296.88	76.8728	2,296.88	78.2861	2,296.88	75.3499	2,296.88	76.7585	2,296.88	74.1648	2,296.88	75.0573	2,296.88	72.4743	2,296.88	74.0922	2,296.88	71.2487	2,296.88	72.975	2,296.88	70.0413	2,296.88	72.0282	2,296.88	69.1688	2,296.88	69.5283	2,296.88	71.271	2,296.88	70.3122	2,296.88	69.3799	2,296.88	71.15	2,296.88	66.0795	2,296.88	70.7677	2,296.88	68.714	2,296.88	63.5021	2,296.88	66.9771
2,378.91	83.88	2,378.91	83.47	2,378.91	83.8772	2,378.91	82.803	2,378.91	83.9918	2,378.91	82.1233	2,378.91	83.3976	2,378.91	80.8781	2,378.91	83.1316	2,378.91	78.9928	2,378.91	81.9643	2,378.91	78.3388	2,378.91	80.726	2,378.91	77.1174	2,378.91	79.5232	2,378.91	74.3724	2,378.91	78.7423	2,378.91	72.8258	2,378.91	76.9874	2,378.91	72.1838	2,378.91	74.7499	2,378.91	70.5708	2,378.91	74.0785	2,378.91	69.8823	2,378.91	71.3091	2,378.91	69.6675	2,378.91	72.115	2,378.91	71.1577	2,378.91	71.3223	2,378.91	66.244	2,378.91	72.2893	2,378.91	63.465	2,378.91	69.7636	2,378.91	69.134	2,378.91	64.536	2,378.91	69.0926
2,462.4	85.4031	2,462.4	85.0649	2,462.4	85.2951	2,462.4	84.313	2,462.4	85.1036	2,462.4	83.8323	2,462.4	84.8099	2,462.4	82.7039	2,462.4	84.0516	2,462.4	80.9145	2,462.4	83.3166	2,462.4	79.4573	2,462.4	81.91	2,462.4	78.7281	2,462.4	80.6556	2,462.4	75.9191	2,462.4	79.4413	2,462.4	74.7533	2,462.4	77.3799	2,462.4	73.6448	2,462.4	75.9581	2,462.4	71.9157	2,462.4	74.4219	2,462.4	70.1839	2,462.4	72.5015	2,462.4	69.5501	2,462.4	71.514	2,462.4	73.0526	2,462.4	71.3073	2,462.4	71.6678	2,462.4	72.9357	2,462.4	65.0663	2,462.4	71.3307	2,462.4	69.5794	2,462.4	66.2962	2,462.4	71.0909
2,548.83	85.171	2,548.83	84.8934	2,548.83	85.2275	2,548.83	84.5363	2,548.83	84.7896	2,548.83	83.9826	2,548.83	84.4335	2,548.83	83.2405	2,548.83	83.5908	2,548.83	81.8276	2,548.83	83.0093	2,548.83	79.8312	2,548.83	81.5035	2,548.83	78.7365	2,548.83	79.7587	2,548.83	77.4467	2,548.83	78.7891	2,548.83	75.3299	2,548.83	76.5061	2,548.83	74.6566	2,548.83	75.138	2,548.83	73.5338	2,548.83	74.4471	2,548.83	71.4018	2,548.83	71.2743	2,548.83	70.7494	2,548.83	69.9847	2,548.83	72.443	2,548.83	68.7723	2,548.83	72.1081	2,548.83	71.3892	2,548.83	69.1796	2,548.83	71.2186	2,548.83	70.291	2,548.83	64.9129	2,548.83	71.3083
2,639.65	83.7522	2,639.65	83.492	2,639.65	83.9005	2,639.65	83.2836	2,639.65	83.4266	2,639.65	82.9192	2,639.65	83.235	2,639.65	82.4277	2,639.65	82.6861	2,639.65	81.5181	2,639.65	82.0428	2,639.65	80.0288	2,639.65	80.8801	2,639.65	78.6881	2,639.65	79.3404	2,639.65	77.9587	2,639.65	78.2858	2,639.65	75.0554	2,639.65	76.9488	2,639.65	73.7303	2,639.65	73.8925	2,639.65	73.1184	2,639.65	73.5032	2,639.65	70.7084	2,639.65	72.4061	2,639.65	69.7587	2,639.65	70.6268	2,639.65	71.3958	2,639.65	69.2188	2,639.65	70.2375	2,639.65	70.5811	2,639.65	65.1113	2,639.65	70.5338	2,639.65	70.2573	2,639.65	63.7968	2,639.65	68.7069
2,731.93	83.1931	2,731.93	83.3958	2,731.93	83.7675	2,731.93	82.7969	2,731.93	83.4815	2,731.93	82.4105	2,731.93	83.3186	2,731.93	81.6405	2,731.93	82.978	2,731.93	81.3268	2,731.93	82.3006	2,731.93	79.2561	2,731.93	81.178	2,731.93	78.2639	2,731.93	79.8817	2,731.93	77.7888	2,731.93	78.6534	2,731.93	75.3561	2,731.93	77.1397	2,731.93	74.0706	2,731.93	74.3906	2,731.93	70.2989	2,731.93	74.0075	2,731.93	70.9151	2,731.93	72.4739	2,731.93	68.4084	2,731.93	70.9294	2,731.93	69.631	2,731.93	71.1296	2,731.93	71.7748	2,731.93	71.0711	2,731.93	67.0493	2,731.93	72.3147	2,731.93	69.5193	2,731.93	67.6455	2,731.93	67.3369
2,828.61	84.1012	2,828.61	84.1888	2,828.61	83.7598	2,828.61	83.8583	2,828.61	84.3513	2,828.61	83.6625	2,828.61	83.9768	2,828.61	82.7411	2,828.61	83.5982	2,828.61	81.1328	2,828.61	82.6851	2,828.61	80.2336	2,828.61	82.3004	2,828.61	78.8612	2,828.61	80.7429	2,828.61	76.9813	2,828.61	78.869	2,828.61	75.2424	2,828.61	77.0448	2,828.61	73.5527	2,828.61	75.2027	2,828.61	69.9059	2,828.61	74.8181	2,828.61	71.2808	2,828.61	72.0778	2,828.61	69.0189	2,828.61	72.0345	2,828.61	69.2951	2,828.61	70.5225	2,828.61	70.3948	2,828.61	70.9857	2,828.61	66.1418	2,828.61	73.3187	2,828.61	69.3536	2,828.61	67.5602	2,828.61	65.9717
2,928.22	84.3911	2,928.22	84.4878	2,928.22	84.2502	2,928.22	84.3344	2,928.22	84.4871	2,928.22	84.2018	2,928.22	84.3844	2,928.22	83.3565	2,928.22	84.256	2,928.22	82.1257	2,928.22	83.6731	2,928.22	80.8236	2,928.22	82.5676	2,928.22	79.2179	2,928.22	81.0853	2,928.22	76.6583	2,928.22	79.4418	2,928.22	75.3255	2,928.22	78.4635	2,928.22	74.2923	2,928.22	75.785	2,928.22	73.0944	2,928.22	73.3841	2,928.22	71.5385	2,928.22	71.4898	2,928.22	72.3564	2,928.22	71.0616	2,928.22	70.0797	2,928.22	70.0844	2,928.22	70.9445	2,928.22	70.3475	2,928.22	69.5362	2,928.22	72.195	2,928.22	71.494	2,928.22	68.4136	2,928.22	69.8611
3,030.76	84.2446	3,030.76	84.304	3,030.76	83.9088	3,030.76	84.5637	3,030.76	84.292	3,030.76	84.6403	3,030.76	84.464	3,030.76	84.0202	3,030.76	84.2426	3,030.76	82.4437	3,030.76	83.7967	3,030.76	81.3509	3,030.76	83.0059	3,030.76	78.319	3,030.76	81.127	3,030.76	77.275	3,030.76	79.3075	3,030.76	76.1523	3,030.76	77.4512	3,030.76	74.2786	3,030.76	76.1587	3,030.76	73.3045	3,030.76	73.2519	3,030.76	69.9126	3,030.76	72.9396	3,030.76	70.4748	3,030.76	70.3052	3,030.76	69.4681	3,030.76	71.3073	3,030.76	70.7716	3,030.76	70.1366	3,030.76	68.2191	3,030.76	71.8926	3,030.76	65.9014	3,030.76	68.7406	3,030.76	68.1321
3,137.7	83.7166	3,137.7	83.6711	3,137.7	84.2813	3,137.7	84.0454	3,137.7	83.733	3,137.7	84.3802	3,137.7	84.287	3,137.7	83.757	3,137.7	84.113	3,137.7	82.7818	3,137.7	83.8881	3,137.7	81.322	3,137.7	82.5384	3,137.7	78.8956	3,137.7	81.1097	3,137.7	77.7461	3,137.7	79.4904	3,137.7	76.3727	3,137.7	77.2135	3,137.7	74.8052	3,137.7	76.1431	3,137.7	73.8761	3,137.7	73.981	3,137.7	70.5244	3,137.7	74.1197	3,137.7	71.3319	3,137.7	70.2306	3,137.7	70.332	3,137.7	71.3181	3,137.7	70.4169	3,137.7	68.2804	3,137.7	66.8539	3,137.7	71.3037	3,137.7	69.6851	3,137.7	67.5461	3,137.7	68.5219
3,249.02	82.8125	3,249.02	83.4715	3,249.02	83.2293	3,249.02	83.8553	3,249.02	83.5539	3,249.02	83.6905	3,249.02	84.0841	3,249.02	83.5977	3,249.02	83.9254	3,249.02	82.8687	3,249.02	83.6024	3,249.02	81.4678	3,249.02	82.7256	3,249.02	79.1788	3,249.02	81.7454	3,249.02	77.2022	3,249.02	80.1929	3,249.02	76.1145	3,249.02	77.5822	3,249.02	73.8953	3,249.02	76.262	3,249.02	72.9882	3,249.02	73.3413	3,249.02	70.1488	3,249.02	73.2962	3,249.02	71.1766	3,249.02	70.9535	3,249.02	69.704	3,249.02	72.1287	3,249.02	70.8155	3,249.02	69.3939	3,249.02	65.6867	3,249.02	71.2196	3,249.02	68.7932	3,249.02	70.132	3,249.02	69.8701
3,363.28	83.9996	3,363.28	83.7816	3,363.28	84.8637	3,363.28	83.9863	3,363.28	84.2615	3,363.28	83.6595	3,363.28	84.2096	3,363.28	82.351	3,363.28	84.01	3,363.28	81.8634	3,363.28	83.3097	3,363.28	80.3632	3,363.28	82.0936	3,363.28	79.0116	3,363.28	80.8467	3,363.28	76.8496	3,363.28	79.5327	3,363.28	74.0742	3,363.28	77.7954	3,363.28	72.3866	3,363.28	75.4252	3,363.28	72.2642	3,363.28	72.8626	3,363.28	68.858	3,363.28	71.3365	3,363.28	70.1044	3,363.28	70.5594	3,363.28	68.0821	3,363.28	72.3921	3,363.28	70.1343	3,363.28	70.3532	3,363.28	67.8469	3,363.28	71.8675	3,363.28	69.7456	3,363.28	71.3699	3,363.28	68.5555
3,481.93	83.9358	3,481.93	84.8504	3,481.93	83.23	3,481.93	84.6396	3,481.93	84.9498	3,481.93	84.1677	3,481.93	84.7103	3,481.93	83.9428	3,481.93	84.4591	3,481.93	82.5814	3,481.93	82.9772	3,481.93	80.8821	3,481.93	81.756	3,481.93	79.3315	3,481.93	80.1034	3,481.93	76.8051	3,481.93	78.4312	3,481.93	75.0277	3,481.93	76.6968	3,481.93	72.6534	3,481.93	75.3398	3,481.93	72.1195	3,481.93	73.2648	3,481.93	69.9665	3,481.93	71.7953	3,481.93	70.1633	3,481.93	68.3622	3,481.93	68.2335	3,481.93	69.9358	3,481.93	71.4007	3,481.93	69.0874	3,481.93	68.9278	3,481.93	70.5429	3,481.93	69.069	3,481.93	68.9908	3,481.93	68.482
3,604.98	84.0544	3,604.98	84.491	3,604.98	83.7749	3,604.98	84.9399	3,604.98	84.7749	3,604.98	84.2569	3,604.98	84.9863	3,604.98	83.7649	3,604.98	84.8347	3,604.98	81.551	3,604.98	83.9587	3,604.98	79.8089	3,604.98	83.0112	3,604.98	78.8707	3,604.98	81.3134	3,604.98	76.9986	3,604.98	78.6938	3,604.98	74.3594	3,604.98	77.2792	3,604.98	71.0847	3,604.98	75.4896	3,604.98	71.1098	3,604.98	73.967	3,604.98	68.6688	3,604.98	72.2486	3,604.98	71.2631	3,604.98	70.5267	3,604.98	68.1153	3,604.98	70.1745	3,604.98	70.7152	3,604.98	70.37	3,604.98	67.1988	3,604.98	70.3697	3,604.98	68.6656	3,604.98	69.1561	3,604.98	68.7714
3,732.42	84.556	3,732.42	85.0374	3,732.42	84.7033	3,732.42	85.3232	3,732.42	84.9419	3,732.42	85.3577	3,732.42	85.3045	3,732.42	84.59	3,732.42	84.42	3,732.42	82.173	3,732.42	83.4325	3,732.42	79.7899	3,732.42	82.7332	3,732.42	78.2069	3,732.42	80.542	3,732.42	76.8501	3,732.42	78.6948	3,732.42	73.9181	3,732.42	76.2229	3,732.42	72.3055	3,732.42	74.3381	3,732.42	71.2535	3,732.42	72.8959	3,732.42	68.7444	3,732.42	69.6392	3,732.42	70.2992	3,732.42	69.3886	3,732.42	70.7199	3,732.42	68.7624	3,732.42	69.7339	3,732.42	69.4649	3,732.42	68.3799	3,732.42	69.9418	3,732.42	70.1457	3,732.42	68.7078	3,732.42	70.2044
3,864.26	83.7627	3,864.26	83.4508	3,864.26	84.1931	3,864.26	83.5673	3,864.26	83.473	3,864.26	84.1265	3,864.26	83.7485	3,864.26	82.6763	3,864.26	84.0722	3,864.26	81.4285	3,864.26	83.8151	3,864.26	79.7537	3,864.26	82.4546	3,864.26	78.4879	3,864.26	80.0829	3,864.26	77.1133	3,864.26	78.1353	3,864.26	73.8869	3,864.26	76.9319	3,864.26	73.4322	3,864.26	73.9133	3,864.26	71.2183	3,864.26	73.7029	3,864.26	69.499	3,864.26	71.2128	3,864.26	70.4907	3,864.26	67.6602	3,864.26	70.8482	3,864.26	66.9607	3,864.26	70.8296	3,864.26	70.4948	3,864.26	69.704	3,864.26	67.7595	3,864.26	70.4655	3,864.26	68.9075	3,864.26	70.2203
4,000.49	83.4415	4,000.49	83.0192	4,000.49	84.015	4,000.49	83.8063	4,000.49	84.0264	4,000.49	83.6641	4,000.49	84.5473	4,000.49	82.3115	4,000.49	84.4681	4,000.49	82.0501	4,000.49	84.0582	4,000.49	79.9521	4,000.49	82.4041	4,000.49	78.9563	4,000.49	80.3102	4,000.49	77.8512	4,000.49	79.9243	4,000.49	75.1632	4,000.49	78.3801	4,000.49	73.1414	4,000.49	75.3819	4,000.49	69.6938	4,000.49	73.7275	4,000.49	70.0975	4,000.49	71.9163	4,000.49	67.5012	4,000.49	71.0513	4,000.49	70.7263	4,000.49	68.329	4,000.49	70.8563	4,000.49	72.6425	4,000.49	68.7553	4,000.49	68.8499	4,000.49	68.4064	4,000.49	70.2717	4,000.49	68.3474
4,141.11	83.9431	4,141.11	84.6668	4,141.11	83.216	4,141.11	83.9217	4,141.11	84.595	4,141.11	84.0586	4,141.11	84.7942	4,141.11	84.3338	4,141.11	85.1553	4,141.11	83.1699	4,141.11	84.7431	4,141.11	81.5661	4,141.11	82.6352	4,141.11	80.2316	4,141.11	80.5055	4,141.11	77.1249	4,141.11	80.0239	4,141.11	76.0243	4,141.11	77.605	4,141.11	73.2989	4,141.11	76.0699	4,141.11	71.984	4,141.11	72.5186	4,141.11	70.1099	4,141.11	72.8353	4,141.11	68.526	4,141.11	70.5235	4,141.11	72.433	4,141.11	64.9611	4,141.11	70.4407	4,141.11	71.7761	4,141.11	69.5066	4,141.11	69.8765	4,141.11	68.8662	4,141.11	69.4853	4,141.11	68.2735
4,287.6	84.3315	4,287.6	84.5026	4,287.6	84.3241	4,287.6	84.1358	4,287.6	84.4617	4,287.6	84.0886	4,287.6	85.0425	4,287.6	84.4131	4,287.6	84.3166	4,287.6	83.2159	4,287.6	84.0127	4,287.6	81.2364	4,287.6	82.9029	4,287.6	79.5522	4,287.6	82.0977	4,287.6	77.2372	4,287.6	80.6642	4,287.6	76.975	4,287.6	78.3724	4,287.6	74.6767	4,287.6	77.0564	4,287.6	69.9948	4,287.6	73.79	4,287.6	69.9262	4,287.6	71.2971	4,287.6	65.1359	4,287.6	70.8618	4,287.6	70.7179	4,287.6	68.7583	4,287.6	70.9658	4,287.6	69.8985	4,287.6	68.7636	4,287.6	71.2296	4,287.6	70.0234	4,287.6	70.3966	4,287.6	69.3323
4,438.48	85.4769	4,438.48	84.5888	4,438.48	85.3219	4,438.48	85.7657	4,438.48	83.9859	4,438.48	84.7042	4,438.48	84.0644	4,438.48	83.8649	4,438.48	84.0213	4,438.48	82.5732	4,438.48	82.7293	4,438.48	81.7672	4,438.48	83.0869	4,438.48	79.6836	4,438.48	82.6265	4,438.48	77.2818	4,438.48	79.3732	4,438.48	74.9973	4,438.48	78.4365	4,438.48	72.6678	4,438.48	75.8733	4,438.48	69.3978	4,438.48	73.3615	4,438.48	69.5564	4,438.48	71.4353	4,438.48	66.3127	4,438.48	71.243	4,438.48	68.2661	4,438.48	68.6236	4,438.48	70.1543	4,438.48	69.8073	4,438.48	68.0905	4,438.48	70.0687	4,438.48	69.2631	4,438.48	71.5308	4,438.48	69.4146
4,595.21	84.2266	4,595.21	84.0664	4,595.21	83.8462	4,595.21	83.0282	4,595.21	84.1736	4,595.21	82.9108	4,595.21	82.8966	4,595.21	81.4715	4,595.21	83.8693	4,595.21	80.5294	4,595.21	84.37	4,595.21	80.5351	4,595.21	82.6047	4,595.21	79.953	4,595.21	81.9198	4,595.21	75.9786	4,595.21	80.7504	4,595.21	75.7916	4,595.21	77.6599	4,595.21	69.6459	4,595.21	75.0732	4,595.21	70.9369	4,595.21	73.0001	4,595.21	70.9211	4,595.21	72.6431	4,595.21	67.1445	4,595.21	68.6802	4,595.21	68.4282	4,595.21	66.0538	4,595.21	68.4197	4,595.21	69.092	4,595.21	68.1325	4,595.21	67.9488	4,595.21	67.315	4,595.21	70.6429	4,595.21	67.7121
4,756.35	85.3823	4,756.35	84.7849	4,756.35	86.1133	4,756.35	83.1792	4,756.35	85.3523	4,756.35	82.6076	4,756.35	84.5831	4,756.35	82.507	4,756.35	84.1045	4,756.35	81.8558	4,756.35	83.4921	4,756.35	80.1233	4,756.35	83.5735	4,756.35	76.6806	4,756.35	82.185	4,756.35	75.5581	4,756.35	79.3642	4,756.35	75.048	4,756.35	79.1106	4,756.35	74.138	4,756.35	76.5666	4,756.35	68.1179	4,756.35	75.3518	4,756.35	68.5373	4,756.35	71.3803	4,756.35	68.0014	4,756.35	70.0018	4,756.35	68.7337	4,756.35	68.4372	4,756.35	66.2012	4,756.35	69.6168	4,756.35	67.1766	4,756.35	70.2127	4,756.35	66.4614	4,756.35	70.5026	4,756.35	65.7212
4,924.8	85.9931	4,924.8	84.6336	4,924.8	86.3049	4,924.8	84.6572	4,924.8	84.5054	4,924.8	82.9247	4,924.8	84.2554	4,924.8	83.9092	4,924.8	82.8165	4,924.8	82.9259	4,924.8	82.3784	4,924.8	81.9638	4,924.8	82.1776	4,924.8	78.6052	4,924.8	81.7125	4,924.8	77.8187	4,924.8	79.4134	4,924.8	74.09	4,924.8	78.5507	4,924.8	75.3731	4,924.8	75.8439	4,924.8	71.5247	4,924.8	72.9832	4,924.8	67.9921	4,924.8	72.0102	4,924.8	60.5958	4,924.8	70.7117	4,924.8	68.4838	4,924.8	67.031	4,924.8	68.3273	4,924.8	68.1493	4,924.8	70.35	4,924.8	69.129	4,924.8	66.5007	4,924.8	69.6568	4,924.8	65.8082
5,097.66	84.6028	5,097.66	84.2917	5,097.66	83.9832	5,097.66	83.8043	5,097.66	84.9392	5,097.66	83.901	5,097.66	84.0694	5,097.66	82.5208	5,097.66	84.7272	5,097.66	81.4983	5,097.66	84.4298	5,097.66	80.0748	5,097.66	82.7955	5,097.66	77.1955	5,097.66	80.4171	5,097.66	76.2289	5,097.66	79.878	5,097.66	72.0175	5,097.66	76.6665	5,097.66	70.9107	5,097.66	74.9283	5,097.66	69.7465	5,097.66	72.003	5,097.66	67.5149	5,097.66	69.5492	5,097.66	64.3377	5,097.66	67.6553	5,097.66	61.8867	5,097.66	62.9861	5,097.66	62.3672	5,097.66	64.5521	5,097.66	68.5324	5,097.66	65.1735	5,097.66	60.3182	5,097.66	67.8063	5,097.66	59.296
5,277.83	83.792	5,277.83	84.1792	5,277.83	83.9997	5,277.83	83.5643	5,277.83	84.0884	5,277.83	83.6712	5,277.83	84.7926	5,277.83	82.3938	5,277.83	84.6568	5,277.83	81.5145	5,277.83	83.9632	5,277.83	79.6365	5,277.83	82.7434	5,277.83	78.6989	5,277.83	80.6047	5,277.83	73.9221	5,277.83	78.068	5,277.83	72.4036	5,277.83	75.2723	5,277.83	66.9561	5,277.83	73.2311	5,277.83	65.4576	5,277.83	71.5243	5,277.83	60.829	5,277.83	67.9064	5,277.83	62.6925	5,277.83	65.6967	5,277.83	64.5214	5,277.83	62.835	5,277.83	63.6061	5,277.83	64.3322	5,277.83	66.195	5,277.83	64.0571	5,277.83	63.9936	5,277.83	67.3616	5,277.83	63.8888
5,463.87	84.6745	5,463.87	84.2396	5,463.87	85.271	5,463.87	83.4872	5,463.87	84.6906	5,463.87	82.4031	5,463.87	85.178	5,463.87	82.3064	5,463.87	84.0999	5,463.87	80.507	5,463.87	82.9095	5,463.87	78.6803	5,463.87	82.5125	5,463.87	77.1067	5,463.87	80.9351	5,463.87	75.4072	5,463.87	77.1757	5,463.87	72.972	5,463.87	76.6784	5,463.87	72.7067	5,463.87	73.6096	5,463.87	68.7154	5,463.87	70.6499	5,463.87	63.1962	5,463.87	69.3396	5,463.87	59.44	5,463.87	67.0325	5,463.87	66.3721	5,463.87	64.3219	5,463.87	61.8714	5,463.87	65.4626	5,463.87	66.41	5,463.87	66.8303	5,463.87	66.0459	5,463.87	68.1544	5,463.87	63.436
5,657.23	85.1746	5,657.23	84.2783	5,657.23	84.5662	5,657.23	83.608	5,657.23	84.9942	5,657.23	82.8116	5,657.23	83.0086	5,657.23	82.4753	5,657.23	83.4957	5,657.23	80.7371	5,657.23	83.1897	5,657.23	79.7269	5,657.23	81.9239	5,657.23	76.267	5,657.23	79.915	5,657.23	74.9039	5,657.23	79.9134	5,657.23	70.0493	5,657.23	76.6562	5,657.23	69.6023	5,657.23	73.619	5,657.23	64.1605	5,657.23	71.819	5,657.23	64.2251	5,657.23	69.0434	5,657.23	61.9945	5,657.23	68.5588	5,657.23	54.5245	5,657.23	62.0702	5,657.23	62.5898	5,657.23	62.4174	5,657.23	65.8971	5,657.23	65.9123	5,657.23	62.3777	5,657.23	64.3053	5,657.23	64.4394
5,856.45	84.7731	5,856.45	83.4677	5,856.45	85.5211	5,856.45	82.0827	5,856.45	84.3143	5,856.45	81.495	5,856.45	84.0234	5,856.45	80.7132	5,856.45	82.6759	5,856.45	80.6196	5,856.45	82.8698	5,856.45	79.1009	5,856.45	82.2844	5,856.45	79.2095	5,856.45	82.0987	5,856.45	75.3015	5,856.45	79.1731	5,856.45	73.6379	5,856.45	76.7096	5,856.45	68.3939	5,856.45	74.084	5,856.45	66.188	5,856.45	72.2624	5,856.45	65.5858	5,856.45	69.4828	5,856.45	62.5884	5,856.45	66.2561	5,856.45	60.5776	5,856.45	65.193	5,856.45	66.4382	5,856.45	60.3399	5,856.45	61.1958	5,856.45	64.8575	5,856.45	60.5885	5,856.45	66.5852	5,856.45	63.6124
6,062.99	85.4891	6,062.99	84.3434	6,062.99	85.6317	6,062.99	83.2834	6,062.99	84.3142	6,062.99	82.3006	6,062.99	83.3936	6,062.99	82.2657	6,062.99	83.0834	6,062.99	81.2881	6,062.99	82.0718	6,062.99	79.0593	6,062.99	82.2537	6,062.99	78.003	6,062.99	80.6861	6,062.99	73.1408	6,062.99	78.9992	6,062.99	71.1912	6,062.99	77.0363	6,062.99	68.3093	6,062.99	74.2356	6,062.99	66.3422	6,062.99	71.6315	6,062.99	66.7545	6,062.99	70.7394	6,062.99	57.8378	6,062.99	67.009	6,062.99	58.2864	6,062.99	66.515	6,062.99	63.2506	6,062.99	61.551	6,062.99	64.2278	6,062.99	63.7018	6,062.99	60.5411	6,062.99	67.6801	6,062.99	63.4301
6,276.86	85.2038	6,276.86	83.8337	6,276.86	84.7494	6,276.86	82.5761	6,276.86	84.5266	6,276.86	81.6528	6,276.86	82.3277	6,276.86	81.9037	6,276.86	83.2678	6,276.86	80.4268	6,276.86	83.2632	6,276.86	79.0958	6,276.86	81.5778	6,276.86	73.8308	6,276.86	79.6074	6,276.86	74.0043	6,276.86	78.8486	6,276.86	70.8781	6,276.86	76.1002	6,276.86	71.1651	6,276.86	72.5238	6,276.86	69.7946	6,276.86	71.2252	6,276.86	64.7405	6,276.86	68.6229	6,276.86	64.9736	6,276.86	63.2316	6,276.86	60.4992	6,276.86	63.248	6,276.86	62.53	6,276.86	59.7719	6,276.86	66.2985	6,276.86	62.7363	6,276.86	57.3509	6,276.86	65.8977	6,276.86	59.9056
6,498.05	85.4896	6,498.05	84.0065	6,498.05	85.909	6,498.05	83.1362	6,498.05	84.3701	6,498.05	83.0231	6,498.05	84.0393	6,498.05	82.2085	6,498.05	82.7409	6,498.05	81.9627	6,498.05	82.8357	6,498.05	79.5179	6,498.05	82.677	6,498.05	76.5455	6,498.05	81.2724	6,498.05	73.8288	6,498.05	78.9238	6,498.05	71.5129	6,498.05	75.5524	6,498.05	68.5604	6,498.05	74.0874	6,498.05	69.2259	6,498.05	71.141	6,498.05	65.9208	6,498.05	66.5871	6,498.05	66.3555	6,498.05	63.4993	6,498.05	59.8432	6,498.05	64.4889	6,498.05	58.9134	6,498.05	56.3041	6,498.05	62.7773	6,498.05	57.3943	6,498.05	57.2465	6,498.05	65.3743	6,498.05	61.2155
6,726.56	85.7969	6,726.56	84.4307	6,726.56	85.3	6,726.56	83.8973	6,726.56	84.8306	6,726.56	82.8087	6,726.56	83.7148	6,726.56	82.7939	6,726.56	83.4147	6,726.56	81.2496	6,726.56	82.5592	6,726.56	79.1472	6,726.56	81.7497	6,726.56	76.7066	6,726.56	79.7514	6,726.56	75.4057	6,726.56	77.8458	6,726.56	72.3242	6,726.56	74.5805	6,726.56	70.4071	6,726.56	72.426	6,726.56	68.319	6,726.56	68.881	6,726.56	61.4349	6,726.56	67.3094	6,726.56	65.8331	6,726.56	63.9333	6,726.56	59.0833	6,726.56	65.2233	6,726.56	60.7032	6,726.56	60.4854	6,726.56	63.0337	6,726.56	63.5629	6,726.56	61.8153	6,726.56	62.5801	6,726.56	60.9916
6,963.87	85.253	6,963.87	84.4787	6,963.87	85.4842	6,963.87	83.4501	6,963.87	85.1505	6,963.87	82.5459	6,963.87	83.4931	6,963.87	81.8422	6,963.87	82.8646	6,963.87	79.0407	6,963.87	82.9622	6,963.87	78.9043	6,963.87	81.0516	6,963.87	75.6904	6,963.87	79.3141	6,963.87	72.9135	6,963.87	75.9872	6,963.87	69.9071	6,963.87	73.2522	6,963.87	66.8578	6,963.87	69.9712	6,963.87	65.4031	6,963.87	67.5834	6,963.87	65.8807	6,963.87	65.3773	6,963.87	60.2508	6,963.87	62.3	6,963.87	59.0286	6,963.87	59.6967	6,963.87	60.8438	6,963.87	55.1772	6,963.87	63.9418	6,963.87	56.6161	6,963.87	56.0189	6,963.87	61.8997	6,963.87	58.5916
7,209.96	85.2037	7,209.96	84.4617	7,209.96	86.0653	7,209.96	83.371	7,209.96	84.969	7,209.96	82.2649	7,209.96	84.6264	7,209.96	81.4469	7,209.96	83.0946	7,209.96	80.448	7,209.96	82.0156	7,209.96	77.5824	7,209.96	81.4755	7,209.96	75.8329	7,209.96	80.3906	7,209.96	73.6269	7,209.96	76.155	7,209.96	71.2999	7,209.96	73.921	7,209.96	65.8111	7,209.96	71.4525	7,209.96	66.8516	7,209.96	69.2584	7,209.96	59.7444	7,209.96	65.0864	7,209.96	59.4077	7,209.96	63.9388	7,209.96	50.6777	7,209.96	63.246	7,209.96	52.6012	7,209.96	59.2847	7,209.96	61.7037	7,209.96	60.8825	7,209.96	55.1218	7,209.96	60.6127	7,209.96	55.5142
7,464.84	85.1238	7,464.84	83.9753	7,464.84	85.1018	7,464.84	82.9616	7,464.84	84.2402	7,464.84	82.3092	7,464.84	83.0538	7,464.84	81.3669	7,464.84	82.6738	7,464.84	79.5938	7,464.84	81.3848	7,464.84	77.2178	7,464.84	80.3745	7,464.84	76.2484	7,464.84	77.438	7,464.84	72.4544	7,464.84	75.3454	7,464.84	71.0719	7,464.84	72.8389	7,464.84	65.9193	7,464.84	69.7622	7,464.84	63.2732	7,464.84	66.6982	7,464.84	59.8272	7,464.84	66.8988	7,464.84	58.2391	7,464.84	63.6824	7,464.84	53.3178	7,464.84	57.7848	7,464.84	55.7256	7,464.84	54.1914	7,464.84	61.8361	7,464.84	60.1608	7,464.84	57.8389	7,464.84	59.4158	7,464.84	53.2303
7,727.05	85.4935	7,727.05	84.4234	7,727.05	85.8411	7,727.05	83.5182	7,727.05	84.7159	7,727.05	82.2449	7,727.05	83.7736	7,727.05	80.5453	7,727.05	82.5088	7,727.05	79.454	7,727.05	81.627	7,727.05	77.3283	7,727.05	80.0499	7,727.05	75.9359	7,727.05	79.1574	7,727.05	72.3395	7,727.05	76.017	7,727.05	68.4144	7,727.05	73.6321	7,727.05	65.0671	7,727.05	70.2234	7,727.05	64.146	7,727.05	68.9762	7,727.05	58.6295	7,727.05	66.512	7,727.05	60.4222	7,727.05	60.557	7,727.05	55.5677	7,727.05	61.1763	7,727.05	51.2395	7,727.05	57.7127	7,727.05	60.7958	7,727.05	55.9902	7,727.05	53.0916	7,727.05	59.3151	7,727.05	55.7218
7,999.51	85.0819	7,999.51	84.3406	7,999.51	85.1669	7,999.51	83.0622	7,999.51	84.7934	7,999.51	81.8199	7,999.51	83.8801	7,999.51	80.562	7,999.51	82.3832	7,999.51	79.6506	7,999.51	80.8236	7,999.51	77.4007	7,999.51	79.4417	7,999.51	75.3802	7,999.51	77.5278	7,999.51	73.1556	7,999.51	76.9034	7,999.51	68.4897	7,999.51	72.7423	7,999.51	68.295	7,999.51	69.9335	7,999.51	64.413	7,999.51	67.7239	7,999.51	62.6495	7,999.51	64.9837	7,999.51	60.9609	7,999.51	64.1646	7,999.51	55.0927	7,999.51	57.9217	7,999.51	57.8108	7,999.51	59.5466	7,999.51	58.8976	7,999.51	58.0495	7,999.51	56.4092	7,999.51	60.735	7,999.51	56.6178
8,282.23	84.8864	8,282.23	84.649	8,282.23	85.0316	8,282.23	83.6211	8,282.23	84.9079	8,282.23	82.0751	8,282.23	83.7809	8,282.23	81.097	8,282.23	82.5731	8,282.23	79.6387	8,282.23	81.0704	8,282.23	78.3669	8,282.23	79.6096	8,282.23	74.7092	8,282.23	78.2763	8,282.23	72.3969	8,282.23	75.2122	8,282.23	69.5519	8,282.23	72.2914	8,282.23	67.7656	8,282.23	69.4481	8,282.23	63.5944	8,282.23	67.8538	8,282.23	63.5386	8,282.23	66.3747	8,282.23	61.9432	8,282.23	59.6352	8,282.23	55.6317	8,282.23	60.1328	8,282.23	54.5125	8,282.23	57.321	8,282.23	59.5892	8,282.23	52.0322	8,282.23	52.5069	8,282.23	60.4154	8,282.23	58.772
8,573.73	84.8442	8,573.73	84.4716	8,573.73	84.5022	8,573.73	83.7803	8,573.73	84.2968	8,573.73	82.2081	8,573.73	83.263	8,573.73	81.2829	8,573.73	82.1049	8,573.73	79.8906	8,573.73	80.1546	8,573.73	77.9566	8,573.73	79.1302	8,573.73	75.7062	8,573.73	76.9328	8,573.73	72.9135	8,573.73	74.8618	8,573.73	69.0176	8,573.73	71.6128	8,573.73	68.4551	8,573.73	68.1175	8,573.73	64.9244	8,573.73	66.9232	8,573.73	64.4194	8,573.73	62.1545	8,573.73	60.7236	8,573.73	60.5084	8,573.73	55.8116	8,573.73	59.1126	8,573.73	52.7858	8,573.73	59.1888	8,573.73	56.028	8,573.73	57.2546	8,573.73	55.1543	8,573.73	58.9295	8,573.73	55.485
8,876.95	84.2763	8,876.95	84.5013	8,876.95	84.2186	8,876.95	83.5188	8,876.95	84.4638	8,876.95	81.5812	8,876.95	82.9352	8,876.95	80.68	8,876.95	81.3231	8,876.95	79.4633	8,876.95	80.3389	8,876.95	78.1636	8,876.95	78.8152	8,876.95	75.2594	8,876.95	77.0922	8,876.95	72.6011	8,876.95	73.9934	8,876.95	71.2596	8,876.95	71.7452	8,876.95	67.7647	8,876.95	68.862	8,876.95	66.1128	8,876.95	66.4703	8,876.95	63.6352	8,876.95	64.0433	8,876.95	60.7523	8,876.95	60.4747	8,876.95	51.8584	8,876.95	60.2972	8,876.95	53.4957	8,876.95	57.703	8,876.95	58.5554	8,876.95	56.007	8,876.95	53.612	8,876.95	55.4485	8,876.95	54.9449
9,188.96	83.592	9,188.96	84.0669	9,188.96	83.6545	9,188.96	82.7336	9,188.96	83.7731	9,188.96	81.2954	9,188.96	82.4782	9,188.96	80.6904	9,188.96	80.8469	9,188.96	79.7776	9,188.96	79.322	9,188.96	77.9545	9,188.96	77.8982	9,188.96	75.7049	9,188.96	75.939	9,188.96	73.2591	9,188.96	74.4195	9,188.96	70.4125	9,188.96	71.3679	9,188.96	67.3024	9,188.96	68.1553	9,188.96	66.568	9,188.96	65.7074	9,188.96	63.8104	9,188.96	62.8848	9,188.96	61.3574	9,188.96	59.6498	9,188.96	56.6155	9,188.96	58.857	9,188.96	55.8512	9,188.96	59.7843	9,188.96	56.2511	9,188.96	53.6473	9,188.96	54.5767	9,188.96	54.2522	9,188.96	53.8969
9,514.16	83.1372	9,514.16	83.8026	9,514.16	83.1034	9,514.16	82.8776	9,514.16	83.5146	9,514.16	81.56	9,514.16	82.293	9,514.16	80.4747	9,514.16	80.6486	9,514.16	78.8853	9,514.16	79.4031	9,514.16	77.6102	9,514.16	77.8104	9,514.16	74.8707	9,514.16	76.3507	9,514.16	72.4086	9,514.16	74.5053	9,514.16	68.8906	9,514.16	71.4162	9,514.16	67.5042	9,514.16	68.8788	9,514.16	65.471	9,514.16	65.2498	9,514.16	62.181	9,514.16	62.0919	9,514.16	61.5661	9,514.16	61.2705	9,514.16	57.5664	9,514.16	59.5384	9,514.16	54.7599	9,514.16	58.0011	9,514.16	55.1974	9,514.16	53.277	9,514.16	51.4156	9,514.16	52.6394	9,514.16	53.4108
9,849.61	83.0796	9,849.61	83.2881	9,849.61	83.0164	9,849.61	82.764	9,849.61	83.1091	9,849.61	81.0614	9,849.61	82.3016	9,849.61	79.9175	9,849.61	80.444	9,849.61	78.7383	9,849.61	78.7608	9,849.61	76.8556	9,849.61	77.7113	9,849.61	74.5706	9,849.61	75.5779	9,849.61	72.7115	9,849.61	74.5576	9,849.61	69.5272	9,849.61	70.8698	9,849.61	66.6953	9,849.61	68.3923	9,849.61	64.5704	9,849.61	65.012	9,849.61	60.7316	9,849.61	62.8848	9,849.61	60.5059	9,849.61	57.3064	9,849.61	57.6901	9,849.61	58.8468	9,849.61	53.5335	9,849.61	57.5295	9,849.61	55.7603	9,849.61	52.7249	9,849.61	49.0944	9,849.61	55.4651	9,849.61	51.1783
10,196.8	83.1758	10,196.8	83.1373	10,196.8	83.2792	10,196.8	82.4233	10,196.8	82.8727	10,196.8	80.8044	10,196.8	81.8746	10,196.8	79.2737	10,196.8	79.9485	10,196.8	77.9667	10,196.8	78.6001	10,196.8	76.5985	10,196.8	77.5591	10,196.8	74.7603	10,196.8	75.8924	10,196.8	71.0999	10,196.8	73.315	10,196.8	68.8515	10,196.8	70.6907	10,196.8	64.6643	10,196.8	66.8189	10,196.8	63.9194	10,196.8	64.3815	10,196.8	59.5375	10,196.8	61.0667	10,196.8	59.2776	10,196.8	56.864	10,196.8	56.5361	10,196.8	56.616	10,196.8	52.37	10,196.8	50.4249	10,196.8	56.0511	10,196.8	46.8219	10,196.8	50.0686	10,196.8	51.1195	10,196.8	52.3414
10,555.7	83.197	10,555.7	82.8899	10,555.7	83.3142	10,555.7	82.0321	10,555.7	82.6631	10,555.7	80.5061	10,555.7	81.5041	10,555.7	79.201	10,555.7	79.936	10,555.7	78.0235	10,555.7	78.1546	10,555.7	75.7157	10,555.7	76.6643	10,555.7	73.4172	10,555.7	74.6911	10,555.7	69.8108	10,555.7	72.4241	10,555.7	67.0829	10,555.7	68.0596	10,555.7	61.2474	10,555.7	65.2556	10,555.7	62.7811	10,555.7	62.6887	10,555.7	58.8781	10,555.7	59.4383	10,555.7	57.5546	10,555.7	57.9968	10,555.7	53.3771	10,555.7	55.8381	10,555.7	44.6594	10,555.7	53.578	10,555.7	54.3031	10,555.7	46.0688	10,555.7	51.948	10,555.7	52.0106	10,555.7	49.6283
10,927.7	83.0774	10,927.7	82.7825	10,927.7	83.1741	10,927.7	82.0994	10,927.7	82.4126	10,927.7	80.6921	10,927.7	81.145	10,927.7	79.5856	10,927.7	79.4812	10,927.7	77.3467	10,927.7	77.3884	10,927.7	75.4172	10,927.7	75.7002	10,927.7	72.0172	10,927.7	73.3609	10,927.7	69.2888	10,927.7	70.0175	10,927.7	64.4921	10,927.7	66.4694	10,927.7	61.9761	10,927.7	62.2963	10,927.7	59.8186	10,927.7	61.4957	10,927.7	58.7446	10,927.7	59.3639	10,927.7	59.9431	10,927.7	48.5392	10,927.7	56.1421	10,927.7	54.0925	10,927.7	42.8123	10,927.7	50.3741	10,927.7	54.5105	10,927.7	39.1415	10,927.7	54.5269	10,927.7	47.3189	10,927.7	53.8354
11,313	83.432	11,313	82.3195	11,313	83.5078	11,313	82.1316	11,313	82.0285	11,313	79.8456	11,313	81.0581	11,313	78.9374	11,313	79.0971	11,313	77.2824	11,313	77.9641	11,313	74.6409	11,313	75.735	11,313	71.7853	11,313	73.0566	11,313	68.8523	11,313	69.8673	11,313	65.8139	11,313	66.3554	11,313	62.227	11,313	63.0778	11,313	60.804	11,313	58.4112	11,313	58.2868	11,313	56.0233	11,313	57.6505	11,313	50.6034	11,313	53.7621	11,313	55.0844	11,313	47.9873	11,313	52.2901	11,313	51.3774	11,313	36.7293	11,313	51.8211	11,313	49.7827	11,313	48.692
11,712.9	83.6759	11,712.9	82.7161	11,712.9	83.6034	11,712.9	82.071	11,712.9	82.1614	11,712.9	80.3962	11,712.9	81.1639	11,712.9	78.9941	11,712.9	79.3829	11,712.9	76.8949	11,712.9	77.6477	11,712.9	75.0794	11,712.9	75.21	11,712.9	72.5133	11,712.9	72.7477	11,712.9	69.4381	11,712.9	69.476	11,712.9	65.3597	11,712.9	65.36	11,712.9	62.9112	11,712.9	62.0429	11,712.9	61.1423	11,712.9	59.7624	11,712.9	58.5964	11,712.9	57.7889	11,712.9	57.2651	11,712.9	53.682	11,712.9	53.5961	11,712.9	53.4287	11,712.9	47.0355	11,712.9	48.1967	11,712.9	51.2414	11,712.9	44.9987	11,712.9	52.2921	11,712.9	47.6432	11,712.9	45.2927
12,126	84.1118	12,126	82.7199	12,126	84.0663	12,126	82.1721	12,126	82.7699	12,126	80.5881	12,126	81.2022	12,126	78.808	12,126	79.5938	12,126	76.8156	12,126	77.0731	12,126	74.86	12,126	74.7579	12,126	72.4318	12,126	72.6383	12,126	69.1091	12,126	69.1396	12,126	66.1203	12,126	65.5778	12,126	63.4633	12,126	60.0088	12,126	60.4206	12,126	60.8089	12,126	58.1169	12,126	57.1761	12,126	57.8618	12,126	53.4717	12,126	53.1679	12,126	53.2802	12,126	43.4335	12,126	50.308	12,126	49.8162	12,126	39.5847	12,126	48.3855	12,126	47.2355	12,126	44.5652
12,553.7	84.4676	12,553.7	83.0408	12,553.7	84.2244	12,553.7	82.2642	12,553.7	83.0854	12,553.7	80.3204	12,553.7	81.7165	12,553.7	78.034	12,553.7	79.9715	12,553.7	76.3428	12,553.7	76.5831	12,553.7	74.3497	12,553.7	73.8771	12,553.7	71.9927	12,553.7	71.2013	12,553.7	69.1996	12,553.7	68.1862	12,553.7	65.0343	12,553.7	64.6264	12,553.7	61.9209	12,553.7	60.1622	12,553.7	59.815	12,553.7	59.2951	12,553.7	56.8071	12,553.7	54.0435	12,553.7	56.9816	12,553.7	52.1897	12,553.7	54.0503	12,553.7	50.6415	12,553.7	46.5794	12,553.7	48.8493	12,553.7	50.5559	12,553.7	43.1604	12,553.7	46.5722	12,553.7	45.8752	12,553.7	43.6977
12,996.1	84.5986	12,996.1	83.283	12,996.1	84.4089	12,996.1	82.099	12,996.1	83.2316	12,996.1	80.2075	12,996.1	81.499	12,996.1	77.1669	12,996.1	79.5507	12,996.1	75.3125	12,996.1	76.0904	12,996.1	73.2798	12,996.1	73.4777	12,996.1	70.8761	12,996.1	70.7177	12,996.1	67.2675	12,996.1	67.6325	12,996.1	64.0542	12,996.1	63.2014	12,996.1	61.1367	12,996.1	59.8206	12,996.1	58.6081	12,996.1	57.6471	12,996.1	56.8077	12,996.1	52.977	12,996.1	55.5167	12,996.1	52.4979	12,996.1	50.6507	12,996.1	48.314	12,996.1	37.799	12,996.1	44.163	12,996.1	50.1008	12,996.1	42.4357	12,996.1	43.9742	12,996.1	48.2869	12,996.1	44.3821
13,454.6	84.4876	13,454.6	83.1877	13,454.6	84.5036	13,454.6	81.576	13,454.6	83.1624	13,454.6	79.4687	13,454.6	81.3847	13,454.6	76.0756	13,454.6	79.183	13,454.6	74.4725	13,454.6	75.3406	13,454.6	72.1463	13,454.6	73.1852	13,454.6	69.7392	13,454.6	69.974	13,454.6	65.8739	13,454.6	66.8256	13,454.6	63.2685	13,454.6	63.1908	13,454.6	60.4516	13,454.6	60.0289	13,454.6	58.4615	13,454.6	58.404	13,454.6	55.5145	13,454.6	53.497	13,454.6	53.5464	13,454.6	51.7896	13,454.6	48.7866	13,454.6	49.1879	13,454.6	39.9086	13,454.6	45.6561	13,454.6	50.2428	13,454.6	44.0377	13,454.6	45.8691	13,454.6	49.5339	13,454.6	43.5188
13,929.2	84.4208	13,929.2	83.0268	13,929.2	84.3692	13,929.2	81.182	13,929.2	83.1647	13,929.2	78.6934	13,929.2	81.4181	13,929.2	75.4868	13,929.2	78.6713	13,929.2	73.3873	13,929.2	75.379	13,929.2	70.9708	13,929.2	72.739	13,929.2	68.7147	13,929.2	68.9244	13,929.2	65.4208	13,929.2	66.3425	13,929.2	62.4568	13,929.2	63.5858	13,929.2	59.1432	13,929.2	60.8616	13,929.2	57.479	13,929.2	57.7205	13,929.2	54.2155	13,929.2	53.1781	13,929.2	53.4476	13,929.2	51.5947	13,929.2	47.2584	13,929.2	49.9241	13,929.2	34.2251	13,929.2	46.5906	13,929.2	46.7552	13,929.2	47.0165	13,929.2	46.0445	13,929.2	49.0373	13,929.2	42.412
14,419.9	84.1806	14,419.9	82.7364	14,419.9	84.2078	14,419.9	80.848	14,419.9	83.3389	14,419.9	77.7832	14,419.9	81.4096	14,419.9	74.8182	14,419.9	78.4436	14,419.9	72.4078	14,419.9	75.4062	14,419.9	69.7735	14,419.9	71.9929	14,419.9	67.746	14,419.9	68.3733	14,419.9	64.6089	14,419.9	66.7817	14,419.9	62.1466	14,419.9	63.9526	14,419.9	58.387	14,419.9	61.4619	14,419.9	56.2423	14,419.9	57.7703	14,419.9	52.6474	14,419.9	53.7964	14,419.9	50.6705	14,419.9	51.1246	14,419.9	46.0024	14,419.9	48.0587	14,419.9	34.8186	14,419.9	46.5768	14,419.9	44.586	14,419.9	47.202	14,419.9	43.0537	14,419.9	46.7704	14,419.9	39.4221
14,928.2	83.763	14,928.2	82.4504	14,928.2	83.9525	14,928.2	80.1282	14,928.2	83.2265	14,928.2	76.7377	14,928.2	80.8912	14,928.2	73.6706	14,928.2	77.957	14,928.2	70.5302	14,928.2	74.3427	14,928.2	68.3968	14,928.2	70.088	14,928.2	67.1889	14,928.2	67.9129	14,928.2	64.1191	14,928.2	67.0206	14,928.2	61.5535	14,928.2	63.9307	14,928.2	58.1179	14,928.2	60.9966	14,928.2	55.5152	14,928.2	57.9881	14,928.2	52.5433	14,928.2	52.8988	14,928.2	48.1244	14,928.2	49.9822	14,928.2	46.5203	14,928.2	47.5047	14,928.2	29.4084	14,928.2	46.7319	14,928.2	42.2646	14,928.2	44.0913	14,928.2	45.0882	14,928.2	44.9974	14,928.2	40.247
15,455.6	83.5669	15,455.6	82.2647	15,455.6	83.8031	15,455.6	79.3606	15,455.6	83.1139	15,455.6	76.2003	15,455.6	80.42	15,455.6	72.2439	15,455.6	77.3587	15,455.6	68.2134	15,455.6	72.6065	15,455.6	67.8522	15,455.6	68.4015	15,455.6	66.4816	15,455.6	67.1413	15,455.6	63.5554	15,455.6	66.0774	15,455.6	60.5039	15,455.6	62.6208	15,455.6	56.8773	15,455.6	59.7658	15,455.6	53.9837	15,455.6	56.4564	15,455.6	51.2665	15,455.6	51.618	15,455.6	46.3607	15,455.6	47.9821	15,455.6	44.0239	15,455.6	45.7747	15,455.6	23.0648	15,455.6	46.6368	15,455.6	38.192	15,455.6	39.6694	15,455.6	43.9169	15,455.6	44.859	15,455.6	41.099
16,000.5	83.5915	16,000.5	82.06	16,000.5	83.848	16,000.5	78.7358	16,000.5	82.9671	16,000.5	75.3971	16,000.5	80.0032	16,000.5	70.3471	16,000.5	76.5952	16,000.5	67.0615	16,000.5	70.5564	16,000.5	66.8462	16,000.5	67.2395	16,000.5	65.1157	16,000.5	65.8266	16,000.5	62.0436	16,000.5	64.2079	16,000.5	58.4649	16,000.5	60.7689	16,000.5	54.9315	16,000.5	58.5269	16,000.5	52.7791	16,000.5	54.7061	16,000.5	49.3222	16,000.5	50.6396	16,000.5	46.3749	16,000.5	49.4916	16,000.5	42.8892	16,000.5	46.9224	16,000.5	32.1192	16,000.5	45.2689	16,000.5	37.514	16,000.5	30.3927	16,000.5	39.7275	16,000.5	45.1834	16,000.5	42.0949
16,564.5	83.4297	16,564.5	81.5272	16,564.5	83.7973	16,564.5	78.0748	16,564.5	82.5808	16,564.5	73.9366	16,564.5	79.3753	16,564.5	68.1938	16,564.5	75.2248	16,564.5	65.2834	16,564.5	68.8203	16,564.5	64.1309	16,564.5	65.4161	16,564.5	61.8495	16,564.5	63.3068	16,564.5	59.4562	16,564.5	62.8732	16,564.5	55.1639	16,564.5	59.9141	16,564.5	52.9818	16,564.5	57.3392	16,564.5	51.5084	16,564.5	53.4253	16,564.5	48.0147	16,564.5	51.7566	16,564.5	45.7514	16,564.5	49.638	16,564.5	41.0486	16,564.5	45.7581	16,564.5	31.6951	16,564.5	44.1419	16,564.5	34.2087	16,564.5	25.1587	16,564.5	30.2917	16,564.5	43.5509	16,564.5	33.8962
17,148.9	83.1657	17,148.9	81.0674	17,148.9	83.4707	17,148.9	77.2383	17,148.9	81.9308	17,148.9	71.8003	17,148.9	78.3283	17,148.9	65.6552	17,148.9	73.3756	17,148.9	61.8519	17,148.9	67.019	17,148.9	60.3546	17,148.9	63.058	17,148.9	57.8001	17,148.9	62.8585	17,148.9	57.5775	17,148.9	62.1474	17,148.9	52.1941	17,148.9	59.4683	17,148.9	50.1143	17,148.9	56.3794	17,148.9	46.87	17,148.9	51.192	17,148.9	44.5501	17,148.9	50.525	17,148.9	43.3625	17,148.9	46.7474	17,148.9	39.1377	17,148.9	44.3857	17,148.9	33.2984	17,148.9	41.7615	17,148.9	25.253	17,148.9	29.7607	17,148.9	33.67	17,148.9	41.9591	17,148.9	27.167
17,752.4	82.6997	17,752.4	80.3305	17,752.4	82.9647	17,752.4	75.9829	17,752.4	81.194	17,752.4	70.0259	17,752.4	77.264	17,752.4	64.1236	17,752.4	71.3079	17,752.4	59.9225	17,752.4	64.9824	17,752.4	59.5501	17,752.4	62.4635	17,752.4	56.5128	17,752.4	64.0196	17,752.4	55.5362	17,752.4	62.1584	17,752.4	50.8663	17,752.4	58.52	17,752.4	46.7714	17,752.4	54.8178	17,752.4	44.7608	17,752.4	49.3836	17,752.4	43.3357	17,752.4	49.4756	17,752.4	41.1677	17,752.4	47.6551	17,752.4	38.245	17,752.4	43.4943	17,752.4	36.6094	17,752.4	39.9303	17,752.4	29.5956	17,752.4	31.2255	17,752.4	33.707	17,752.4	37.8395	17,752.4	18.2237
18,379.4	82.0233	18,379.4	79.4779	18,379.4	82.215	18,379.4	74.59	18,379.4	80.1704	18,379.4	67.8021	18,379.4	75.4586	18,379.4	62.7012	18,379.4	69.2396	18,379.4	61.1987	18,379.4	63.7331	18,379.4	59.6267	18,379.4	63.0457	18,379.4	55.7615	18,379.4	63.9446	18,379.4	52.8609	18,379.4	61.2264	18,379.4	48.3132	18,379.4	57.1027	18,379.4	44.3296	18,379.4	52.772	18,379.4	43.9697	18,379.4	48.6842	18,379.4	36.9513	18,379.4	47.2048	18,379.4	40.4706	18,379.4	45.5492	18,379.4	36.8456	18,379.4	42.2417	18,379.4	30.7054	18,379.4	36.7743	18,379.4	24.2014	18,379.4	39.4403	18,379.4	32.8766	18,379.4	32.664	18,379.4	17.9681
19,026.9	81.1185	19,026.9	78.2624	19,026.9	81.2816	19,026.9	72.8835	19,026.9	79.0597	19,026.9	66.2853	19,026.9	73.523	19,026.9	62.5243	19,026.9	67.1525	19,026.9	61.3358	19,026.9	63.4644	19,026.9	57.8386	19,026.9	63.4623	19,026.9	52.5987	19,026.9	63.2386	19,026.9	49.8875	19,026.9	59.7572	19,026.9	42.3105	19,026.9	55.1034	19,026.9	43.7201	19,026.9	50.0914	19,026.9	40.4761	19,026.9	46.2029	19,026.9	31.5547	19,026.9	44.7083	19,026.9	38.1734	19,026.9	42.5711	19,026.9	32.957	19,026.9	39.2769	19,026.9	26.6023	19,026.9	34.6051	19,026.9	27.2789	19,026.9	39.703	19,026.9	27.2269	19,026.9	28.3178	19,026.9	33.0947
19,697.8	79.94	19,697.8	76.9285	19,697.8	80.0463	19,697.8	70.9771	19,697.8	77.5378	19,697.8	64.549	19,697.8	71.5466	19,697.8	62.5144	19,697.8	65.2849	19,697.8	60.387	19,697.8	63.7581	19,697.8	55.3729	19,697.8	62.9325	19,697.8	47.8605	19,697.8	61.1572	19,697.8	44.9035	19,697.8	57.8869	19,697.8	35.9766	19,697.8	52.3937	19,697.8	39.4302	19,697.8	48.491	19,697.8	36.2646	19,697.8	43.3482	19,697.8	29.5196	19,697.8	42.329	19,697.8	34.4689	19,697.8	39.7719	19,697.8	29.2155	19,697.8	37.1567	19,697.8	28.9707	19,697.8	30.9507	19,697.8	32.3745	19,697.8	39.3301	19,697.8	38.0338	19,697.8	29.0754	19,697.8	40.765
19,999.5	79.3288	19,999.5	76.3678	19,999.5	79.4322	19,999.5	70.2273	19,999.5	76.8607	19,999.5	64.2294	19,999.5	70.5394	19,999.5	62.5237	19,999.5	64.422	19,999.5	59.6057	19,999.5	63.9784	19,999.5	55.6732	19,999.5	62.7094	19,999.5	41.2443	19,999.5	60.1762	19,999.5	42.8504	19,999.5	56.6448	19,999.5	36.2833	19,999.5	52.655	19,999.5	33.3934	19,999.5	46.791	19,999.5	33.807	19,999.5	40.9007	19,999.5	40.9319	19,999.5	49.3361	19,999.5	43.9113	19,999.5	42.2789	19,999.5	40.992	19,999.5	39.1576	19,999.5	42.3687	19,999.5	38.451	19,999.5	45.4746	19,999.5	41.587	19,999.5	40.0274	19,999.5	28.5702	19,999.5	27.8998
