"SPL Horizontal"
"On-Axis"		"10°"		"-10°"		"20°"		"-20°"		"30°"		"-30°"		"40°"		"-40°"		"50°"		"-50°"		"60°"		"-60°"		"70°"		"-70°"		"80°"		"-80°"		"90°"		"-90°"		"100°"		"-100°"		"110°"		"-110°"		"120°"		"-120°"		"130°"		"-130°"		"140°"		"-140°"		"150°"		"-150°"		"160°"		"-160°"		"170°"		"-170°"		"180°"
"Frequency [Hz]"	"Sound Pessure Level [dB]  / [2.83V 1m] "	"Frequency [Hz]"	"Sound Pessure Level [dB]  / [2.83V 1m] "	"Frequency [Hz]"	"Sound Pessure Level [dB]  / [2.83V 1m] "	"Frequency [Hz]"	"Sound Pessure Level [dB]  / [2.83V 1m] "	"Frequency [Hz]"	"Sound Pessure Level [dB]  / [2.83V 1m] "	"Frequency [Hz]"	"Sound Pessure Level [dB]  / [2.83V 1m] "	"Frequency [Hz]"	"Sound Pessure Level [dB]  / [2.83V 1m] "	"Frequency [Hz]"	"Sound Pessure Level [dB]  / [2.83V 1m] "	"Frequency [Hz]"	"Sound Pessure Level [dB]  / [2.83V 1m] "	"Frequency [Hz]"	"Sound Pessure Level [dB]  / [2.83V 1m] "	"Frequency [Hz]"	"Sound Pessure Level [dB]  / [2.83V 1m] "	"Frequency [Hz]"	"Sound Pessure Level [dB]  / [2.83V 1m] "	"Frequency [Hz]"	"Sound Pessure Level [dB]  / [2.83V 1m] "	"Frequency [Hz]"	"Sound Pessure Level [dB]  / [2.83V 1m] "	"Frequency [Hz]"	"Sound Pessure Level [dB]  / [2.83V 1m] "	"Frequency [Hz]"	"Sound Pessure Level [dB]  / [2.83V 1m] "	"Frequency [Hz]"	"Sound Pessure Level [dB]  / [2.83V 1m] "	"Frequency [Hz]"	"Sound Pessure Level [dB]  / [2.83V 1m] "	"Frequency [Hz]"	"Sound Pessure Level [dB]  / [2.83V 1m] "	"Frequency [Hz]"	"Sound Pessure Level [dB]  / [2.83V 1m] "	"Frequency [Hz]"	"Sound Pessure Level [dB]  / [2.83V 1m] "	"Frequency [Hz]"	"Sound Pessure Level [dB]  / [2.83V 1m] "	"Frequency [Hz]"	"Sound Pessure Level [dB]  / [2.83V 1m] "	"Frequency [Hz]"	"Sound Pessure Level [dB]  / [2.83V 1m] "	"Frequency [Hz]"	"Sound Pessure Level [dB]  / [2.83V 1m] "	"Frequency [Hz]"	"Sound Pessure Level [dB]  / [2.83V 1m] "	"Frequency [Hz]"	"Sound Pessure Level [dB]  / [2.83V 1m] "	"Frequency [Hz]"	"Sound Pessure Level [dB]  / [2.83V 1m] "	"Frequency [Hz]"	"Sound Pessure Level [dB]  / [2.83V 1m] "	"Frequency [Hz]"	"Sound Pessure Level [dB]  / [2.83V 1m] "	"Frequency [Hz]"	"Sound Pessure Level [dB]  / [2.83V 1m] "	"Frequency [Hz]"	"Sound Pessure Level [dB]  / [2.83V 1m] "	"Frequency [Hz]"	"Sound Pessure Level [dB]  / [2.83V 1m] "	"Frequency [Hz]"	"Sound Pessure Level [dB]  / [2.83V 1m] "	"Frequency [Hz]"	"Sound Pessure Level [dB]  / [2.83V 1m] "	"Frequency [Hz]"	"Sound Pessure Level [dB]  / [2.83V 1m] "
20.5078	66.651	20.5078	66.6061	20.5078	66.6378	20.5078	66.5191	20.5078	66.5682	20.5078	66.4253	20.5078	66.4616	20.5078	66.3822	20.5078	66.3595	20.5078	66.4675	20.5078	66.3283	20.5078	66.7618	20.5078	66.454	20.5078	67.3168	20.5078	66.8181	20.5078	68.1257	20.5078	67.4594	20.5078	69.1249	20.5078	68.35	20.5078	70.2248	20.5078	69.4094	20.5078	71.3397	20.5078	70.542	20.5078	72.4015	20.5078	71.6638	20.5078	73.3603	20.5078	72.7114	20.5078	74.1789	20.5078	73.6386	20.5078	74.8287	20.5078	74.4113	20.5078	75.2878	20.5078	75.0037	20.5078	75.5404	20.5078	75.3966	20.5078	75.5773
21.9727	67.6356	21.9727	67.5995	21.9727	67.6287	21.9727	67.5388	21.9727	67.5833	21.9727	67.4968	21.9727	67.5271	21.9727	67.5424	21.9727	67.5122	21.9727	67.7609	21.9727	67.6133	21.9727	68.2253	21.9727	67.912	21.9727	68.9603	21.9727	68.4658	21.9727	69.9252	21.9727	69.277	21.9727	71.0358	21.9727	70.2897	21.9727	72.2005	21.9727	71.4178	21.9727	73.3436	21.9727	72.5759	21.9727	74.4093	21.9727	73.6955	21.9727	75.3579	21.9727	74.7264	21.9727	76.1601	21.9727	75.6316	21.9727	76.7926	21.9727	76.3828	21.9727	77.2372	21.9727	76.9575	21.9727	77.4806	21.9727	77.3388	21.9727	77.5149
23.4375	71.7136	23.4375	71.7169	23.4375	71.7007	23.4375	71.722	23.4375	71.6796	23.4375	71.7527	23.4375	71.6647	23.4375	71.844	23.4375	71.6838	23.4375	72.0372	23.4375	71.7763	23.4375	72.3703	23.4375	71.9873	23.4375	72.8652	23.4375	72.3556	23.4375	73.5176	23.4375	72.8989	23.4375	74.2965	23.4375	73.6048	23.4375	75.1541	23.4375	74.4332	23.4375	76.0371	23.4375	75.3292	23.4375	76.8957	23.4375	76.2357	23.4375	77.6865	23.4375	77.1016	23.4375	78.3732	23.4375	77.8834	23.4375	78.9255	23.4375	78.5456	23.4375	79.3189	23.4375	79.0598	23.4375	79.5355	23.4375	79.4042	23.4375	79.5648
24.9023	74.2106	24.9023	74.2022	24.9023	74.215	24.9023	74.1988	24.9023	74.2175	24.9023	74.2196	24.9023	74.2307	24.9023	74.2937	24.9023	74.2778	24.9023	74.456	24.9023	74.3902	24.9023	74.74	24.9023	74.603	24.9023	75.1681	24.9023	74.9457	24.9023	75.7417	24.9023	75.4326	24.9023	76.4394	24.9023	76.0558	24.9023	77.2217	24.9023	76.7865	24.9023	78.0409	24.9023	77.5818	24.9023	78.849	24.9023	78.3945	24.9023	79.602	24.9023	79.1787	24.9023	80.2623	24.9023	79.8934	24.9023	80.7977	24.9023	80.5028	24.9023	81.183	24.9023	80.9774	24.9023	81.3996	24.9023	81.294	24.9023	81.4372
26.3672	76.801	26.3672	76.8244	26.3672	76.8007	26.3672	76.8755	26.3672	76.8263	26.3672	76.9658	26.3672	76.8878	26.3672	77.1124	26.3672	77.0006	26.3672	77.3352	26.3672	77.1838	26.3672	77.6524	26.3672	77.4557	26.3672	78.0745	26.3672	77.829	26.3672	78.6003	26.3672	78.3065	26.3672	79.2154	26.3672	78.8788	26.3672	79.8936	26.3672	79.5253	26.3672	80.6017	26.3672	80.2172	26.3672	81.3035	26.3672	80.9214	26.3672	81.9631	26.3672	81.6035	26.3672	82.5468	26.3672	82.2296	26.3672	83.0245	26.3672	82.7681	26.3672	83.3708	26.3672	83.1905	26.3672	83.5669	26.3672	83.4738	26.3672	83.6018
27.832	79.4936	27.832	79.5049	27.832	79.5035	27.832	79.5406	27.832	79.5361	27.832	79.6085	27.832	79.5975	27.832	79.7201	27.832	79.6972	27.832	79.8891	27.832	79.8475	27.832	80.129	27.832	80.0606	27.832	80.4496	27.832	80.3467	27.832	80.8537	27.832	80.7111	27.832	81.3353	27.832	81.1515	27.832	81.8786	27.832	81.6578	27.832	82.46	27.832	82.2118	27.832	83.0503	27.832	82.7889	27.832	83.6176	27.832	83.3604	27.832	84.1297	27.832	83.8949	27.832	84.5559	27.832	84.3613	27.832	84.8698	27.832	84.7306	27.832	85.051	27.832	84.9785	27.832	85.088
29.2969	81.2707	29.2969	81.2864	29.2969	81.2773	29.2969	81.3266	29.2969	81.3073	29.2969	81.3969	29.2969	81.3654	29.2969	81.5057	29.2969	81.4589	29.2969	81.6629	29.2969	81.597	29.2969	81.8785	29.2969	81.7893	29.2969	82.1603	29.2969	82.0438	29.2969	82.5115	29.2969	82.3647	29.2969	82.9289	29.2969	82.7511	29.2969	83.4018	29.2969	83.1952	29.2969	83.9121	29.2969	83.6831	29.2969	84.4356	29.2969	84.1945	29.2969	84.9441	29.2969	84.7048	29.2969	85.4071	29.2969	85.1863	29.2969	85.7952	29.2969	85.6101	29.2969	86.0819	29.2969	85.9483	29.2969	86.2473	29.2969	86.1772	29.2969	86.2797
30.7617	82.5151	30.7617	82.5292	30.7617	82.5265	30.7617	82.5704	30.7617	82.564	30.7617	82.6422	30.7617	82.6302	30.7617	82.7499	30.7617	82.7294	30.7617	82.8999	30.7617	82.8672	30.7617	83.0985	30.7617	83.049	30.7617	83.3507	30.7617	83.2797	30.7617	83.6585	30.7617	83.5617	30.7617	84.0194	30.7617	83.8939	30.7617	84.4256	30.7617	84.2709	30.7617	84.8631	30.7617	84.6829	30.7617	85.3127	30.7617	85.1149	30.7617	85.7508	30.7617	85.548	30.7617	86.1514	30.7617	85.9593	30.7617	86.4882	30.7617	86.3242	30.7617	86.7376	30.7617	86.6177	30.7617	86.8813	30.7617	86.8179	30.7617	86.9084
32.2266	82.7455	32.2266	82.7703	32.2266	82.7469	32.2266	82.822	32.2266	82.7748	32.2266	82.9031	32.2266	82.8314	32.2266	83.0171	32.2266	82.9198	32.2266	83.1683	32.2266	83.0441	32.2266	83.361	32.2266	83.2085	32.2266	83.5987	32.2266	83.4166	32.2266	83.8827	32.2266	83.6707	32.2266	84.2112	32.2266	83.9705	32.2266	84.5778	32.2266	84.3125	32.2266	84.9715	32.2266	84.6891	32.2266	85.3763	32.2266	85.0882	32.2266	85.7717	32.2266	85.4927	32.2266	86.1342	32.2266	85.8814	32.2266	86.4393	32.2266	86.2302	32.2266	86.664	32.2266	86.5144	32.2266	86.79	32.2266	86.712	32.2266	86.8065
33.6914	83.1342	33.6914	83.1521	33.6914	83.1452	33.6914	83.1993	33.6914	83.1855	33.6914	83.2768	33.6914	83.2564	33.6914	83.3867	33.6914	83.3596	33.6914	83.5314	33.6914	83.497	33.6914	83.7134	33.6914	83.6707	33.6914	83.9346	33.6914	83.8818	33.6914	84.1957	33.6914	84.1305	33.6914	84.4948	33.6914	84.4153	33.6914	84.8272	33.6914	84.7322	33.6914	85.1841	33.6914	85.0743	33.6914	85.5523	33.6914	85.4311	33.6914	85.9145	33.6914	85.7885	33.6914	86.2498	33.6914	86.1286	33.6914	86.5361	33.6914	86.4308	33.6914	86.7517	33.6914	86.6737	33.6914	86.8795	33.6914	86.8379	33.6914	86.9089
35.1562	83.3257	35.1562	83.3391	35.1562	83.3405	35.1562	83.3813	35.1562	83.3838	35.1562	83.453	35.1562	83.4557	35.1562	83.5554	35.1562	83.5569	35.1562	83.6898	35.1562	83.6882	35.1562	83.8575	35.1562	83.8502	35.1562	84.0593	35.1562	84.0433	35.1562	84.2951	35.1562	84.2671	35.1562	84.563	35.1562	84.5203	35.1562	84.8589	35.1562	84.7995	35.1562	85.1756	35.1562	85.0994	35.1562	85.5022	35.1562	85.4118	35.1562	85.8239	35.1562	85.7248	35.1562	86.1227	35.1562	86.0236	35.1562	86.3786	35.1562	86.2901	35.1562	86.572	35.1562	86.5052	35.1562	86.6869	35.1562	86.651	35.1562	86.7138
36.6211	83.4973	36.6211	83.5105	36.6211	83.5119	36.6211	83.5518	36.6211	83.5541	36.6211	83.6213	36.6211	83.6238	36.6211	83.7196	36.6211	83.7208	36.6211	83.8469	36.6211	83.845	36.6211	84.0035	36.6211	83.9965	36.6211	84.1894	36.6211	84.1747	36.6211	84.4039	36.6211	84.379	36.6211	84.6453	36.6211	84.6077	36.6211	84.9101	36.6211	84.8582	36.6211	85.1924	36.6211	85.1258	36.6211	85.4831	36.6211	85.4038	36.6211	85.7697	36.6211	85.6823	36.6211	86.0363	36.6211	85.9483	36.6211	86.2652	36.6211	86.1862	36.6211	86.4386	36.6211	86.3787	36.6211	86.5418	36.6211	86.5094	36.6211	86.5659
38.0859	83.6253	38.0859	83.6406	38.0859	83.6369	38.0859	83.6829	38.0859	83.6753	38.0859	83.7521	38.0859	83.74	38.0859	83.8478	38.0859	83.8305	38.0859	83.9697	38.0859	83.9462	38.0859	84.1172	38.0859	84.0863	38.0859	84.2894	38.0859	84.2498	38.0859	84.4851	38.0859	84.4356	38.0859	84.7023	38.0859	84.642	38.0859	84.9378	38.0859	84.8662	38.0859	85.1868	38.0859	85.1046	38.0859	85.4417	38.0859	85.3512	38.0859	85.6922	38.0859	85.5979	38.0859	85.925	38.0859	85.8336	38.0859	86.1247	38.0859	86.0448	38.0859	86.2758	38.0859	86.2162	38.0859	86.3653	38.0859	86.3333	38.0859	86.3849
39.5508	83.7285	39.5508	83.745	39.5508	83.7377	39.5508	83.7875	39.5508	83.7725	39.5508	83.8555	39.5508	83.832	39.5508	83.9486	39.5508	83.9156	39.5508	84.0658	39.5508	84.022	39.5508	84.206	39.5508	84.1503	39.5508	84.3677	39.5508	84.2993	39.5508	84.5491	39.5508	84.4675	39.5508	84.7477	39.5508	84.6535	39.5508	84.9604	39.5508	84.8547	39.5508	85.1826	39.5508	85.0681	39.5508	85.4081	39.5508	85.2886	39.5508	85.6281	39.5508	85.5094	39.5508	85.8314	39.5508	85.7208	39.5508	86.005	39.5508	85.911	39.5508	86.1354	39.5508	86.0665	39.5508	86.2109	39.5508	86.1744	39.5508	86.2243
41.0156	83.9274	41.0156	83.9383	41.0156	83.9404	41.0156	83.9734	41.0156	83.9766	41.0156	84.0324	41.0156	84.035	41.0156	84.1149	41.0156	84.1144	41.0156	84.2198	41.0156	84.2131	41.0156	84.3459	41.0156	84.3299	41.0156	84.4918	41.0156	84.463	41.0156	84.6558	41.0156	84.6112	41.0156	84.8355	41.0156	84.7727	41.0156	85.028	41.0156	84.9458	41.0156	85.2287	41.0156	85.1279	41.0156	85.4312	41.0156	85.3156	41.0156	85.6269	41.0156	85.5035	41.0156	85.8055	41.0156	85.6845	41.0156	85.9554	41.0156	85.849	41.0156	86.065	41.0156	85.9856	41.0156	86.1254	41.0156	86.0829	41.0156	86.1313
42.4805	84.1228	42.4805	84.1535	42.4805	84.1143	42.4805	84.2056	42.4805	84.128	42.4805	84.2785	42.4805	84.1635	42.4805	84.3708	42.4805	84.2203	42.4805	84.4808	42.4805	84.2973	42.4805	84.6068	42.4805	84.3934	42.4805	84.7466	42.4805	84.5072	42.4805	84.8979	42.4805	84.6374	42.4805	85.0583	42.4805	84.7825	42.4805	85.225	42.4805	84.9407	42.4805	85.3944	42.4805	85.1097	42.4805	85.562	42.4805	85.2861	42.4805	85.7215	42.4805	85.465	42.4805	85.8651	42.4805	85.6395	42.4805	85.9835	42.4805	85.8006	42.4805	86.0668	42.4805	85.9376	42.4805	86.1065	42.4805	86.0395	42.4805	86.0975
43.9453	84.2506	43.9453	84.2891	43.9453	84.2337	43.9453	84.3481	43.9453	84.2391	43.9453	84.4262	43.9453	84.2668	43.9453	84.5213	43.9453	84.3163	43.9453	84.6312	43.9453	84.3866	43.9453	84.7534	43.9453	84.4762	43.9453	84.8856	43.9453	84.5834	43.9453	85.0252	43.9453	84.7064	43.9453	85.17	43.9453	84.843	43.9453	85.3177	43.9453	84.991	43.9453	85.4657	43.9453	85.148	43.9453	85.6107	43.9453	85.3109	43.9453	85.7478	43.9453	85.4752	43.9453	85.8708	43.9453	85.6352	43.9453	85.9716	43.9453	85.7831	43.9453	86.0415	43.9453	85.9095	43.9453	86.0728	43.9453	86.0046	43.9453	86.0605
45.4102	84.6331	45.4102	84.6698	45.4102	84.6165	45.4102	84.726	45.4102	84.6204	45.4102	84.8001	45.4102	84.6446	45.4102	84.8904	45.4102	84.6883	45.4102	84.9944	45.4102	84.7504	45.4102	85.1095	45.4102	84.8296	45.4102	85.233	45.4102	84.9244	45.4102	85.3621	45.4102	85.0331	45.4102	85.4944	45.4102	85.1541	45.4102	85.6277	45.4102	85.2858	45.4102	85.7596	45.4102	85.426	45.4102	85.8872	45.4102	85.5722	45.4102	86.0067	45.4102	85.7208	45.4102	86.1128	45.4102	85.8666	45.4102	86.1986	45.4102	86.0024	45.4102	86.2566	45.4102	86.1196	45.4102	86.2798	45.4102	86.2093	45.4102	86.2641
46.875	84.874	46.875	84.9141	46.875	84.8554	46.875	84.9749	46.875	84.8587	46.875	85.0547	46.875	84.8831	46.875	85.1513	46.875	84.9279	46.875	85.2618	46.875	84.9913	46.875	85.3827	46.875	85.0718	46.875	85.5105	46.875	85.1674	46.875	85.6419	46.875	85.2761	46.875	85.7736	46.875	85.3958	46.875	85.9028	46.875	85.5244	46.875	86.027	46.875	85.6598	46.875	86.1434	46.875	85.7992	46.875	86.249	46.875	85.9391	46.875	86.3395	46.875	86.075	46.875	86.4099	46.875	86.2009	46.875	86.4546	46.875	86.3097	46.875	86.4684	46.875	86.3942	46.875	86.4483
48.3398	85.1255	48.3398	85.1571	48.3398	85.1147	48.3398	85.2088	48.3398	85.1248	48.3398	85.2788	48.3398	85.1552	48.3398	85.3649	48.3398	85.2047	48.3398	85.4641	48.3398	85.2715	48.3398	85.5732	48.3398	85.3534	48.3398	85.6884	48.3398	85.4478	48.3398	85.8065	48.3398	85.552	48.3398	85.9241	48.3398	85.6636	48.3398	86.0386	48.3398	85.7798	48.3398	86.1475	48.3398	85.8983	48.3398	86.2488	48.3398	86.0166	48.3398	86.3401	48.3398	86.1321	48.3398	86.4184	48.3398	86.2414	48.3398	86.4801	48.3398	86.3404	48.3398	86.521	48.3398	86.4242	48.3398	86.5371	48.3398	86.4875	48.3398	86.526
51.2695	85.6523	51.2695	85.6787	51.2695	85.6436	51.2695	85.722	51.2695	85.6525	51.2695	85.7807	51.2695	85.6785	51.2695	85.8528	51.2695	85.7204	51.2695	85.9357	51.2695	85.7765	51.2695	86.0265	51.2695	85.8444	51.2695	86.1217	51.2695	85.9215	51.2695	86.2179	51.2695	86.0051	51.2695	86.3119	51.2695	86.0924	51.2695	86.4008	51.2695	86.181	51.2695	86.4824	51.2695	86.2687	51.2695	86.5548	51.2695	86.3537	51.2695	86.6165	51.2695	86.4346	51.2695	86.6662	51.2695	86.51	51.2695	86.7023	51.2695	86.5781	51.2695	86.7232	51.2695	86.6366	51.2695	86.7272	51.2695	86.6827	51.2695	86.7135
52.7344	85.9288	52.7344	85.9609	52.7344	85.912	52.7344	86.0076	52.7344	85.911	52.7344	86.0675	52.7344	85.9253	52.7344	86.1384	52.7344	85.9541	52.7344	86.2178	52.7344	85.9958	52.7344	86.3023	52.7344	86.0487	52.7344	86.3886	52.7344	86.1102	52.7344	86.473	52.7344	86.1778	52.7344	86.5523	52.7344	86.2491	52.7344	86.6236	52.7344	86.3216	52.7344	86.6849	52.7344	86.3933	52.7344	86.7349	52.7344	86.4629	52.7344	86.7731	52.7344	86.5293	52.7344	86.7994	52.7344	86.5919	52.7344	86.8135	52.7344	86.6499	52.7344	86.8153	52.7344	86.7021	52.7344	86.8046	52.7344	86.7466	52.7344	86.7813
54.1992	86.3039	54.1992	86.3425	54.1992	86.278	54.1992	86.3929	54.1992	86.2652	54.1992	86.4534	54.1992	86.2655	54.1992	86.5219	54.1992	86.2783	54.1992	86.5958	54.1992	86.3024	54.1992	86.6717	54.1992	86.3363	54.1992	86.7462	54.1992	86.378	54.1992	86.8157	54.1992	86.4254	54.1992	86.877	54.1992	86.4762	54.1992	86.9276	54.1992	86.5287	54.1992	86.9659	54.1992	86.5814	54.1992	86.9913	54.1992	86.6334	54.1992	87.0042	54.1992	86.6844	54.1992	87.0055	54.1992	86.7345	54.1992	86.9964	54.1992	86.7836	54.1992	86.978	54.1992	86.8313	54.1992	86.9511	54.1992	86.8762	54.1992	86.9167
55.6641	86.5995	55.6641	86.6321	55.6641	86.5791	55.6641	86.6762	55.6641	86.5711	55.6641	86.7305	55.6641	86.5751	55.6641	86.7931	55.6641	86.5903	55.6641	86.8612	55.6641	86.6155	55.6641	86.9316	55.6641	86.6491	55.6641	87.0006	55.6641	86.689	55.6641	87.0645	55.6641	86.7331	55.6641	87.1198	55.6641	86.7792	55.6641	87.1639	55.6641	86.8252	55.6641	87.1952	55.6641	86.8698	55.6641	87.2134	55.6641	86.9121	55.6641	87.2191	55.6641	86.9519	55.6641	87.2143	55.6641	86.9896	55.6641	87.2008	55.6641	87.0257	55.6641	87.1806	55.6641	87.0607	55.6641	87.1553	55.6641	87.0944	55.6641	87.1263
58.5938	87.1442	58.5938	87.1599	58.5938	87.14	58.5938	87.1869	58.5938	87.1467	58.5938	87.2246	58.5938	87.1635	58.5938	87.2716	58.5938	87.1891	58.5938	87.3258	58.5938	87.2216	58.5938	87.3839	58.5938	87.2589	58.5938	87.4424	58.5938	87.2983	58.5938	87.497	58.5938	87.337	58.5938	87.5435	58.5938	87.3724	58.5938	87.5785	58.5938	87.4021	58.5938	87.5996	58.5938	87.4247	58.5938	87.6062	58.5938	87.4398	58.5938	87.5992	58.5938	87.4483	58.5938	87.5814	58.5938	87.4523	58.5938	87.5566	58.5938	87.4549	58.5938	87.5294	58.5938	87.4592	58.5938	87.5038	58.5938	87.468	58.5938	87.4828
60.0586	87.3311	60.0586	87.3393	60.0586	87.3344	60.0586	87.3589	60.0586	87.3485	60.0586	87.3893	60.0586	87.3725	60.0586	87.4294	60.0586	87.4049	60.0586	87.477	60.0586	87.4437	60.0586	87.5294	60.0586	87.4864	60.0586	87.5827	60.0586	87.53	60.0586	87.6329	60.0586	87.5715	60.0586	87.6759	60.0586	87.6077	60.0586	87.708	60.0586	87.636	60.0586	87.7269	60.0586	87.6546	60.0586	87.7319	60.0586	87.6631	60.0586	87.7241	60.0586	87.6624	60.0586	87.7067	60.0586	87.6549	60.0586	87.6842	60.0586	87.6441	60.0586	87.6614	60.0586	87.6344	60.0586	87.643	60.0586	87.6294	60.0586	87.632
62.9883	87.8155	62.9883	87.8152	62.9883	87.8243	62.9883	87.8237	62.9883	87.8411	62.9883	87.8408	62.9883	87.8651	62.9883	87.8657	62.9883	87.8951	62.9883	87.897	62.9883	87.9294	62.9883	87.9323	62.9883	87.9657	62.9883	87.9681	62.9883	88.0013	62.9883	88.0007	62.9883	88.033	62.9883	88.0261	62.9883	88.0577	62.9883	88.0408	62.9883	88.0722	62.9883	88.0425	62.9883	88.0745	62.9883	88.0308	62.9883	88.0638	62.9883	88.0077	62.9883	88.0412	62.9883	87.9772	62.9883	88.0096	62.9883	87.9452	62.9883	87.9738	62.9883	87.9182	62.9883	87.9398	62.9883	87.902	62.9883	87.9137	62.9883	87.9003
64.4531	88.015	64.4531	88.0105	64.4531	88.0263	64.4531	88.0132	64.4531	88.0438	64.4531	88.0232	64.4531	88.0668	64.4531	88.04	64.4531	88.0941	64.4531	88.0624	64.4531	88.1243	64.4531	88.0884	64.4531	88.1553	64.4531	88.1148	64.4531	88.1844	64.4531	88.1379	64.4531	88.2087	64.4531	88.1538	64.4531	88.2248	64.4531	88.1591	64.4531	88.2298	64.4531	88.1515	64.4531	88.2216	64.4531	88.1307	64.4531	88.1994	64.4531	88.0988	64.4531	88.1644	64.4531	88.0604	64.4531	88.1202	64.4531	88.0219	64.4531	88.0722	64.4531	87.9906	64.4531	88.0272	64.4531	87.9731	64.4531	87.9925	64.4531	87.9735
67.3828	88.4266	67.3828	88.4132	67.3828	88.443	67.3828	88.4035	67.3828	88.4618	67.3828	88.3978	67.3828	88.4821	67.3828	88.3963	67.3828	88.5032	67.3828	88.3983	67.3828	88.5237	67.3828	88.4023	67.3828	88.5419	67.3828	88.4056	67.3828	88.5555	67.3828	88.405	67.3828	88.5617	67.3828	88.3969	67.3828	88.5574	67.3828	88.3782	67.3828	88.5399	67.3828	88.3471	67.3828	88.5074	67.3828	88.3039	67.3828	88.4594	67.3828	88.2515	67.3828	88.3975	67.3828	88.1956	67.3828	88.326	67.3828	88.144	67.3828	88.2515	67.3828	88.1053	67.3828	88.1825	67.3828	88.0873	67.3828	88.1277	67.3828	88.0947
68.8477	88.6601	68.8477	88.6387	68.8477	88.6827	68.8477	88.6194	68.8477	88.7058	68.8477	88.6029	68.8477	88.7287	68.8477	88.5897	68.8477	88.7508	68.8477	88.5795	68.8477	88.7708	68.8477	88.5714	68.8477	88.7874	68.8477	88.5632	68.8477	88.7984	68.8477	88.552	68.8477	88.8011	68.8477	88.5346	68.8477	88.7925	68.8477	88.508	68.8477	88.7697	68.8477	88.4709	68.8477	88.7306	68.8477	88.4235	68.8477	88.6747	68.8477	88.369	68.8477	88.6034	68.8477	88.3133	68.8477	88.521	68.8477	88.2645	68.8477	88.4343	68.8477	88.2314	68.8477	88.3523	68.8477	88.2216	68.8477	88.2846	68.8477	88.2395
71.7773	89.1842	71.7773	89.1452	71.7773	89.2191	71.7773	89.103	71.7773	89.2496	71.7773	89.0586	71.7773	89.2752	71.7773	89.0129	71.7773	89.2957	71.7773	88.9666	71.7773	89.3102	71.7773	88.9199	71.7773	89.3175	71.7773	88.8719	71.7773	89.3155	71.7773	88.8212	71.7773	89.3017	71.7773	88.7662	71.7773	89.2729	71.7773	88.7055	71.7773	89.2262	71.7773	88.6388	71.7773	89.1593	71.7773	88.5678	71.7773	89.0717	71.7773	88.4967	71.7773	88.965	71.7773	88.4323	71.7773	88.8443	71.7773	88.3833	71.7773	88.7175	71.7773	88.3592	71.7773	88.5954	71.7773	88.3674	71.7773	88.4899	71.7773	88.4115
74.707	89.6733	74.707	89.6359	74.707	89.7044	74.707	89.5923	74.707	89.7293	74.707	89.5428	74.707	89.7483	74.707	89.4878	74.707	89.7614	74.707	89.4277	74.707	89.7681	74.707	89.3625	74.707	89.7671	74.707	89.2916	74.707	89.7563	74.707	89.2142	74.707	89.7327	74.707	89.1298	74.707	89.6929	74.707	89.0382	74.707	89.6334	74.707	88.941	74.707	89.5516	74.707	88.8418	74.707	89.4464	74.707	88.7465	74.707	89.3195	74.707	88.664	74.707	89.176	74.707	88.6045	74.707	89.0247	74.707	88.5782	74.707	88.8777	74.707	88.5927	74.707	88.7488	74.707	88.6507
77.6367	89.9858	77.6367	89.9785	77.6367	89.9854	77.6367	89.9628	77.6367	89.9782	77.6367	89.9385	77.6367	89.9655	77.6367	89.9057	77.6367	89.9487	77.6367	89.8644	77.6367	89.9284	77.6367	89.8143	77.6367	89.9044	77.6367	89.7547	77.6367	89.8755	77.6367	89.6845	77.6367	89.8394	77.6367	89.6026	77.6367	89.7927	77.6367	89.5088	77.6367	89.7318	77.6367	89.4039	77.6367	89.6541	77.6367	89.2912	77.6367	89.5582	77.6367	89.1767	77.6367	89.4457	77.6367	89.0691	77.6367	89.3215	77.6367	88.9794	77.6367	89.1943	77.6367	88.9187	77.6367	89.0759	77.6367	88.8965	77.6367	88.9797	77.6367	88.9173
79.1016	90.034	79.1016	90.0337	79.1016	90.0257	79.1016	90.0245	79.1016	90.0099	79.1016	90.0064	79.1016	89.9879	79.1016	89.9796	79.1016	89.9612	79.1016	89.9443	79.1016	89.9308	79.1016	89.9	79.1016	89.8971	79.1016	89.846	79.1016	89.8596	79.1016	89.7806	79.1016	89.8163	79.1016	89.7027	79.1016	89.7647	79.1016	89.6112	79.1016	89.7014	79.1016	89.5068	79.1016	89.624	79.1016	89.3924	79.1016	89.5314	79.1016	89.2736	79.1016	89.4248	79.1016	89.1591	79.1016	89.3091	79.1016	89.0597	79.1016	89.1928	79.1016	88.9872	79.1016	89.0872	79.1016	88.9513	79.1016	89.0051	79.1016	88.9575
82.0312	90.2306	82.0312	90.2177	82.0312	90.2333	82.0312	90.1954	82.0312	90.2259	82.0312	90.1649	82.0312	90.2093	82.0312	90.1276	82.0312	90.1847	82.0312	90.0847	82.0312	90.1532	82.0312	90.0364	82.0312	90.1158	82.0312	89.9823	82.0312	90.0725	82.0312	89.9209	82.0312	90.0226	82.0312	89.8502	82.0312	89.9643	82.0312	89.7688	82.0312	89.8957	82.0312	89.6763	82.0312	89.8149	82.0312	89.5745	82.0312	89.7213	82.0312	89.468	82.0312	89.6165	82.0312	89.3643	82.0312	89.505	82.0312	89.2733	82.0312	89.3947	82.0312	89.2061	82.0312	89.2958	82.0312	89.1721	82.0312	89.2198	82.0312	89.1767
84.9609	90.4387	84.9609	90.4293	84.9609	90.4352	84.9609	90.4071	84.9609	90.4196	84.9609	90.3732	84.9609	90.3936	84.9609	90.3291	84.9609	90.3591	84.9609	90.2765	84.9609	90.3183	84.9609	90.2166	84.9609	90.2726	84.9609	90.1498	84.9609	90.2223	84.9609	90.0761	84.9609	90.1671	84.9609	89.9944	84.9609	90.1053	84.9609	89.9041	84.9609	90.0347	84.9609	89.8056	84.9609	89.9535	84.9609	89.7007	84.9609	89.8607	84.9609	89.594	84.9609	89.7577	84.9609	89.4927	84.9609	89.6484	84.9609	89.4058	84.9609	89.5401	84.9609	89.3434	84.9609	89.4425	84.9609	89.3138	84.9609	89.3666	84.9609	89.3217
87.8906	90.4289	87.8906	90.4347	87.8906	90.4059	87.8906	90.4231	87.8906	90.3667	87.8906	90.3951	87.8906	90.3135	87.8906	90.3521	87.8906	90.2492	87.8906	90.296	87.8906	90.1767	87.8906	90.228	87.8906	90.0988	87.8906	90.149	87.8906	90.0174	87.8906	90.0589	87.8906	89.9333	87.8906	89.9575	87.8906	89.8461	87.8906	89.8449	87.8906	89.7547	87.8906	89.7221	87.8906	89.658	87.8906	89.5921	87.8906	89.5556	87.8906	89.4599	87.8906	89.4489	87.8906	89.3333	87.8906	89.3418	87.8906	89.2219	87.8906	89.2413	87.8906	89.1359	87.8906	89.1562	87.8906	89.0838	87.8906	89.0965	87.8906	89.0707
90.8203	90.2748	90.8203	90.2757	90.8203	90.2563	90.8203	90.2593	90.8203	90.2211	90.8203	90.2269	90.8203	90.1719	90.8203	90.1809	90.8203	90.1119	90.8203	90.1236	90.8203	90.0449	90.8203	90.0571	90.8203	89.9746	90.8203	89.9825	90.8203	89.9035	90.8203	89.9003	90.8203	89.8329	90.8203	89.8103	90.8203	89.7623	90.8203	89.7124	90.8203	89.6903	90.8203	89.6076	90.8203	89.6147	90.8203	89.4985	90.8203	89.5338	90.8203	89.3898	90.8203	89.4477	90.8203	89.2883	90.8203	89.3587	90.8203	89.202	90.8203	89.2722	90.8203	89.1392	90.8203	89.1955	90.8203	89.1061	90.8203	89.1375	90.8203	89.106
95.2148	90.4788	95.2148	90.4939	95.2148	90.429	95.2148	90.4758	95.2148	90.3449	95.2148	90.427	95.2148	90.2291	95.2148	90.3515	95.2148	90.0858	95.2148	90.2532	95.2148	89.9209	95.2148	90.1358	95.2148	89.7415	95.2148	90.0022	95.2148	89.5552	95.2148	89.8547	95.2148	89.3695	95.2148	89.695	95.2148	89.1908	95.2148	89.5252	95.2148	89.0242	95.2148	89.3482	95.2148	88.8729	95.2148	89.1684	95.2148	88.7392	95.2148	88.9919	95.2148	88.6245	95.2148	88.8262	95.2148	88.5303	95.2148	88.6794	95.2148	88.4592	95.2148	88.5589	95.2148	88.4141	95.2148	88.4705	95.2148	88.399	95.2148	88.4171
98.1445	90.8308	98.1445	90.8308	98.1445	90.7904	98.1445	90.7933	98.1445	90.7083	98.1445	90.7224	98.1445	90.585	98.1445	90.6227	98.1445	90.4229	98.1445	90.4991	98.1445	90.2262	98.1445	90.3556	98.1445	90.0012	98.1445	90.1953	98.1445	89.7558	98.1445	90.0203	98.1445	89.4992	98.1445	89.8322	98.1445	89.2417	98.1445	89.6328	98.1445	88.9937	98.1445	89.4247	98.1445	88.7652	98.1445	89.2122	98.1445	88.5651	98.1445	89.001	98.1445	88.4005	98.1445	88.7984	98.1445	88.2767	98.1445	88.6124	98.1445	88.1968	98.1445	88.4508	98.1445	88.1622	98.1445	88.3202	98.1445	88.1724	98.1445	88.2261
101.074	90.4028	101.074	90.3832	101.074	90.3836	101.074	90.3277	101.074	90.3244	101.074	90.2404	101.074	90.2259	101.074	90.1263	101.074	90.0901	101.074	89.9906	101.074	89.9209	101.074	89.8376	101.074	89.7233	101.074	89.6709	101.074	89.5036	101.074	89.4929	101.074	89.2688	101.074	89.3052	101.074	89.0266	101.074	89.1097	101.074	88.7853	101.074	88.909	101.074	88.5533	101.074	88.7069	101.074	88.3392	101.074	88.5091	101.074	88.1515	101.074	88.3223	101.074	87.9981	101.074	88.154	101.074	87.886	101.074	88.0113	101.074	87.8198	101.074	87.9012	101.074	87.8013	101.074	87.8295
105.469	90.6058	105.469	90.5426	105.469	90.6208	105.469	90.4305	105.469	90.5894	105.469	90.2712	105.469	90.5147	105.469	90.0682	105.469	90.3998	105.469	89.8278	105.469	90.2479	105.469	89.5581	105.469	90.0619	105.469	89.2687	105.469	89.845	105.469	88.9702	105.469	89.6006	105.469	88.6733	105.469	89.3337	105.469	88.3887	105.469	89.0512	105.469	88.1264	105.469	88.7625	105.469	87.8955	105.469	88.479	105.469	87.7033	105.469	88.2127	105.469	87.5553	105.469	87.9747	105.469	87.4541	105.469	87.7736	105.469	87.3996	105.469	87.614	105.469	87.3897	105.469	87.4972	105.469	87.4226
108.398	91.0235	108.398	91.0145	108.398	90.9814	108.398	90.9529	108.398	90.8915	108.398	90.8392	108.398	90.7588	108.398	90.6762	108.398	90.5893	108.398	90.4685	108.398	90.389	108.398	90.2223	108.398	90.1641	108.398	89.9453	108.398	89.9196	108.398	89.6468	108.398	89.6602	108.398	89.3373	108.398	89.3904	108.398	89.0285	108.398	89.1155	108.398	88.7328	108.398	88.8425	108.398	88.4621	108.398	88.5802	108.398	88.2269	108.398	88.339	108.398	88.0344	108.398	88.1291	108.398	87.8882	108.398	87.9591	108.398	87.7885	108.398	87.8342	108.398	87.7339	108.398	87.7559	108.398	87.7229
112.793	91.2291	112.793	91.2069	112.793	91.1932	112.793	91.1284	112.793	91.0989	112.793	90.9967	112.793	90.9478	112.793	90.816	112.793	90.7433	112.793	90.5909	112.793	90.4906	112.793	90.326	112.793	90.1969	112.793	90.0269	112.793	89.8711	112.793	89.7001	112.793	89.524	112.793	89.354	112.793	89.1681	112.793	89.0003	112.793	88.8172	112.793	88.6536	112.793	88.4859	112.793	88.3306	112.793	88.188	112.793	88.0474	112.793	87.935	112.793	87.8164	112.793	87.7342	112.793	87.6428	112.793	87.5873	112.793	87.5248	112.793	87.4912	112.793	87.4558	112.793	87.4401	112.793	87.4288
117.188	91.2329	117.188	91.207	117.188	91.2031	117.188	91.1273	117.188	91.117	117.188	90.997	117.188	90.9752	117.188	90.8198	117.188	90.7801	117.188	90.5994	117.188	90.5352	117.188	90.3394	117.188	90.2453	117.188	90.0429	117.188	89.9169	117.188	89.7137	117.188	89.5578	117.188	89.3573	117.188	89.1783	117.188	88.9825	117.188	88.791	117.188	88.6025	117.188	88.4115	117.188	88.2351	117.188	88.0574	117.188	87.9002	117.188	87.7463	117.188	87.616	117.188	87.4923	117.188	87.3943	117.188	87.3033	117.188	87.2382	117.188	87.1792	117.188	87.1434	117.188	87.1145	117.188	87.1033
120.117	91.3415	120.117	91.3124	120.117	91.3191	120.117	91.2339	120.117	91.244	120.117	91.1089	120.117	91.1161	120.117	90.941	120.117	90.936	120.117	90.7336	120.117	90.7052	120.117	90.4904	120.117	90.4262	120.117	90.2143	120.117	90.1028	120.117	89.9084	120.117	89.7406	120.117	89.5765	120.117	89.3482	120.117	89.2245	120.117	88.9378	120.117	88.8619	120.117	88.5263	120.117	88.5024	120.117	88.1354	120.117	88.1624	120.117	87.7888	120.117	87.8588	120.117	87.5085	120.117	87.6046	120.117	87.3083	120.117	87.4062	120.117	87.1917	120.117	87.2646	120.117	87.152	120.117	87.1789
124.512	91.3768	124.512	91.3087	124.512	91.3996	124.512	91.1965	124.512	91.3762	124.512	91.0428	124.512	91.3068	124.512	90.8508	124.512	91.1913	124.512	90.6239	124.512	91.0302	124.512	90.3665	124.512	90.8234	124.512	90.0828	124.512	90.5714	124.512	89.7779	124.512	90.275	124.512	89.4582	124.512	89.9374	124.512	89.1317	124.512	89.565	124.512	88.8089	124.512	89.1696	124.512	88.502	124.512	88.7696	124.512	88.2232	124.512	88.3892	124.512	87.9831	124.512	88.0555	124.512	87.7883	124.512	87.7922	124.512	87.6413	124.512	87.6131	124.512	87.5438	124.512	87.5188	124.512	87.4998
128.906	91.5493	128.906	91.4738	128.906	91.5745	128.906	91.348	128.906	91.5509	128.906	91.1726	128.906	91.4804	128.906	90.9497	128.906	91.3655	128.906	90.6819	128.906	91.2086	128.906	90.3725	128.906	91.0116	128.906	90.0257	128.906	90.7759	128.906	89.648	128.906	90.5024	128.906	89.2486	128.906	90.1927	128.906	88.8417	128.906	89.8501	128.906	88.4468	128.906	89.4812	128.906	88.0872	128.906	89.0975	128.906	87.7862	128.906	88.7155	128.906	87.5616	128.906	88.3556	128.906	87.4205	128.906	88.0376	128.906	87.3594	128.906	87.7763	128.906	87.3695	128.906	87.5782	128.906	87.4432
133.301	91.4072	133.301	91.3994	133.301	91.3715	133.301	91.3472	133.301	91.2949	133.301	91.2504	133.301	91.181	133.301	91.1098	133.301	91.0343	133.301	90.926	133.301	90.8594	133.301	90.6993	133.301	90.6607	133.301	90.4302	133.301	90.4414	133.301	90.1202	133.301	90.2039	133.301	89.7738	133.301	89.9498	133.301	89.4004	133.301	89.6811	133.301	89.0164	133.301	89.4012	133.301	88.6457	133.301	89.1164	133.301	88.3165	133.301	88.8357	133.301	88.0553	133.301	88.5704	133.301	87.8798	133.301	88.3316	133.301	87.7936	133.301	88.128	133.301	87.7882	133.301	87.9656	133.301	87.8497
139.16	91.0026	139.16	91.0074	139.16	90.9493	139.16	90.9673	139.16	90.8464	139.16	90.8878	139.16	90.6953	139.16	90.7751	139.16	90.4997	139.16	90.6345	139.16	90.265	139.16	90.4695	139.16	89.9983	139.16	90.281	139.16	89.7079	139.16	90.0682	139.16	89.4034	139.16	89.83	139.16	89.0961	139.16	89.5679	139.16	88.7991	139.16	89.288	139.16	88.5265	139.16	89.0023	139.16	88.2926	139.16	88.7275	139.16	88.1088	139.16	88.4816	139.16	87.9812	139.16	88.2785	139.16	87.9087	139.16	88.1234	139.16	87.8835	139.16	88.0129	139.16	87.8959	139.16	87.9391
143.555	90.7826	143.555	90.731	143.555	90.7743	143.555	90.6242	143.555	90.7046	143.555	90.47	143.555	90.5754	143.555	90.2788	143.555	90.391	143.555	90.0619	143.555	90.1572	143.555	89.8302	143.555	89.8815	143.555	89.5931	143.555	89.5719	143.555	89.3575	143.555	89.2381	143.555	89.1287	143.555	88.8922	143.555	88.9106	143.555	88.5495	143.555	88.7073	143.555	88.2301	143.555	88.5227	143.555	87.9568	143.555	88.36	143.555	87.7517	143.555	88.2199	143.555	87.629	143.555	88.0991	143.555	87.589	143.555	87.9909	143.555	87.6174	143.555	87.8877	143.555	87.6907	143.555	87.7859
147.949	90.6788	147.949	90.5898	147.949	90.6965	147.949	90.4326	147.949	90.6427	147.949	90.2133	147.949	90.5203	147.949	89.9405	147.949	90.3344	147.949	89.6249	147.949	90.0924	147.949	89.2791	147.949	89.8031	147.949	88.9174	147.949	89.4771	147.949	88.5567	147.949	89.1266	147.949	88.2163	147.949	88.7652	147.949	87.9171	147.949	88.4093	147.949	87.6783	147.949	88.0776	147.949	87.5124	147.949	87.7909	147.949	87.4196	147.949	87.5686	147.949	87.3868	147.949	87.423	147.949	87.3907	147.949	87.353	147.949	87.4051	147.949	87.3426	147.949	87.4092	147.949	87.3655	147.949	87.3941
153.809	90.9624	153.809	90.8997	153.809	90.9413	153.809	90.7545	153.809	90.8368	153.809	90.5299	153.809	90.6515	153.809	90.23	153.809	90.3892	153.809	89.8599	153.809	90.0556	153.809	89.4249	153.809	89.6584	153.809	88.9328	153.809	89.2084	153.809	88.3967	153.809	88.7209	153.809	87.8399	153.809	88.2181	153.809	87.2997	153.809	87.7296	153.809	86.8275	153.809	87.2916	153.809	86.4773	153.809	86.9409	153.809	86.2844	153.809	86.704	153.809	86.2454	153.809	86.5852	153.809	86.317	153.809	86.5611	153.809	86.436	153.809	86.5878	153.809	86.545	153.809	86.6164	153.809	86.608
159.668	91.8805	159.668	91.8405	159.668	91.8443	159.668	91.7252	159.668	91.7327	159.668	91.537	159.668	91.547	159.668	91.279	159.668	91.2889	159.668	90.9545	159.668	90.96	159.668	90.5657	159.668	90.562	159.668	90.1149	159.668	90.0976	159.668	89.6055	159.668	89.5727	159.668	89.0468	159.668	88.9991	159.668	88.458	159.668	88.3979	159.668	87.8726	159.668	87.8031	159.668	87.3376	159.668	87.2602	159.668	86.9028	159.668	86.8188	159.668	86.6015	159.668	86.5149	159.668	86.4332	159.668	86.3523	159.668	86.3627	159.668	86.2993	159.668	86.3401	159.668	86.3052	159.668	86.3252
165.527	92.0963	165.527	92.0838	165.527	92.03	165.527	91.9947	165.527	91.8844	165.527	91.8322	165.527	91.6605	165.527	91.6	165.527	91.3607	165.527	91.3004	165.527	90.9884	165.527	90.9337	165.527	90.5488	165.527	90.4985	165.527	90.0494	165.527	89.994	165.527	89.5021	165.527	89.4251	165.527	88.9248	165.527	88.8088	165.527	88.3438	165.527	88.1808	165.527	87.7951	165.527	87.597	165.527	87.3211	165.527	87.1226	165.527	86.9614	165.527	86.806	165.527	86.7369	165.527	86.6511	165.527	86.637	165.527	86.6144	165.527	86.6216	165.527	86.6306	165.527	86.6384	165.527	86.646
171.387	91.8373	171.387	91.7482	171.387	91.8643	171.387	91.6029	171.387	91.8248	171.387	91.4093	171.387	91.7152	171.387	91.177	171.387	91.5317	171.387	90.9154	171.387	91.2699	171.387	90.6324	171.387	90.9247	171.387	90.3325	171.387	90.4925	171.387	90.017	171.387	89.9729	171.387	89.6854	171.387	89.3735	171.387	89.3389	171.387	88.7154	171.387	88.9832	171.387	88.0403	171.387	88.6306	171.387	87.4145	171.387	88.2976	171.387	86.9201	171.387	87.9988	171.387	86.6258	171.387	87.739	171.387	86.5492	171.387	87.5092	171.387	86.6459	171.387	87.2903	171.387	86.8403	171.387	87.0665
177.246	91.6879	177.246	91.5942	177.246	91.7102	177.246	91.4249	177.246	91.6671	177.246	91.1784	177.246	91.5648	177.246	90.8559	177.246	91.4084	177.246	90.4618	177.246	91.2016	177.246	90.0042	177.246	90.9458	177.246	89.4967	177.246	90.6415	177.246	88.9619	177.246	90.2899	177.246	88.4354	177.246	89.8956	177.246	87.9658	177.246	89.4697	177.246	87.6073	177.246	89.034	177.246	87.4006	177.246	88.6219	177.246	87.3515	177.246	88.2739	177.246	87.4253	177.246	88.025	177.246	87.5617	177.246	87.8876	177.246	87.7002	177.246	87.8421	177.246	87.7985	177.246	87.8437	177.246	87.8418
183.105	91.3456	183.105	91.3218	183.105	91.2879	183.105	91.2161	183.105	91.1514	183.105	91.0301	183.105	90.9403	183.105	90.767	183.105	90.66	183.105	90.431	183.105	90.3169	183.105	90.0269	183.105	89.9192	183.105	89.5616	183.105	89.4786	183.105	89.0479	183.105	89.0121	183.105	88.5102	183.105	88.5453	183.105	87.9899	183.105	88.1127	183.105	87.5454	183.105	87.7552	183.105	87.2387	183.105	87.511	183.105	87.1083	183.105	87.3998	183.105	87.1444	183.105	87.4105	183.105	87.2911	183.105	87.5011	183.105	87.4728	183.105	87.6137	183.105	87.6233	183.105	87.693	183.105	87.701
188.965	91.9724	188.965	91.9126	188.965	91.9344	188.965	91.7566	188.965	91.7977	188.965	91.507	188.965	91.5613	188.965	91.1665	188.965	91.2237	188.965	90.7381	188.965	90.7825	188.965	90.2244	188.965	90.2355	188.965	89.6304	188.965	89.5838	188.965	88.9696	188.965	88.8374	188.965	88.2731	188.965	88.0256	188.965	87.6009	188.965	87.2114	188.965	87.042	188.965	86.5022	188.965	86.6895	188.965	86.0328	188.965	86.5896	188.965	85.8981	188.965	86.7052	188.965	86.0767	188.965	86.935	188.965	86.4395	188.965	87.165	188.965	86.8327	188.965	87.3063	188.965	87.1416	188.965	87.305
196.289	93.2132	196.289	93.1627	196.289	93.1739	196.289	93.021	196.289	93.0474	196.289	92.7881	196.289	92.8365	196.289	92.4645	196.289	92.5428	196.289	92.0499	196.289	92.1656	196.289	91.5409	196.289	91.7021	196.289	90.9319	196.289	91.1486	196.289	90.2184	196.289	90.5032	196.289	89.407	196.289	89.7707	196.289	88.5306	196.289	88.9721	196.289	87.6656	196.289	88.1563	196.289	86.936	196.289	87.4105	196.289	86.472	196.289	86.848	196.289	86.3256	196.289	86.5555	196.289	86.4246	196.289	86.5248	196.289	86.625	196.289	86.65	196.289	86.7951	196.289	86.7946	196.289	86.8574
203.613	92.9631	203.613	92.8975	203.613	92.9459	203.613	92.7509	203.613	92.8455	203.613	92.5274	203.613	92.6618	203.613	92.233	203.613	92.3931	203.613	91.874	203.613	92.0358	203.613	91.4543	203.613	91.5844	203.613	90.974	203.613	91.033	203.613	90.4313	203.613	90.3787	203.613	89.8281	203.613	89.6278	203.613	89.1811	203.613	88.805	203.613	88.5325	203.613	87.9683	203.613	87.953	203.613	87.2197	203.613	87.5233	203.613	86.6901	203.613	87.2911	203.613	86.4736	203.613	87.234	203.613	86.5497	203.613	87.2675	203.613	86.7911	203.613	87.2905	203.613	87.05	203.613	87.2273
210.938	92.4896	210.938	92.3997	210.938	92.4904	210.938	92.216	210.938	92.4074	210.938	91.9363	210.938	92.2454	210.938	91.5619	210.938	92.0068	210.938	91.098	210.938	91.6906	210.938	90.5542	210.938	91.293	210.938	89.9466	210.938	90.8084	210.938	89.3011	210.938	90.2334	210.938	88.6597	210.938	89.5741	210.938	88.0844	210.938	88.8571	210.938	87.6516	210.938	88.1451	210.938	87.4268	210.938	87.5461	210.938	87.4277	210.938	87.1881	210.938	87.6046	210.938	87.1433	210.938	87.8612	210.938	87.3615	210.938	88.0942	210.938	87.6994	210.938	88.2221	210.938	88.01	210.938	88.197
218.262	92.841	218.262	92.8016	218.262	92.7922	218.262	92.6695	218.262	92.6592	218.262	92.4399	218.262	92.4455	218.262	92.1073	218.262	92.1536	218.262	91.6646	218.262	91.7838	218.262	91.1028	218.262	91.3338	218.262	90.4124	218.262	90.7979	218.262	89.5902	218.262	90.1676	218.262	88.6528	218.262	89.4363	218.262	87.6612	218.262	88.6093	218.262	86.7478	218.262	87.7236	218.262	86.1049	218.262	86.8749	218.262	85.8786	218.262	86.2251	218.262	86.0349	218.262	85.9353	218.262	86.3836	218.262	86.0285	218.262	86.7213	218.262	86.3508	218.262	86.9148	218.262	86.6932	218.262	86.9045
225.586	92.8638	225.586	92.8334	225.586	92.8072	225.586	92.721	225.586	92.6577	225.586	92.5291	225.586	92.4101	225.586	92.2563	225.586	92.0619	225.586	91.8962	225.586	91.6142	225.586	91.4375	225.586	91.073	225.586	90.8656	225.586	90.4504	225.586	90.1678	225.586	89.7671	225.586	89.3444	225.586	89.055	225.586	88.4269	225.586	88.3604	225.586	87.5018	225.586	87.7452	225.586	86.721	225.586	87.2793	225.586	86.2551	225.586	87.0163	225.586	86.178	225.586	86.9595	225.586	86.3984	225.586	87.0483	225.586	86.7378	225.586	87.1827	225.586	87.0426	225.586	87.2645	225.586	87.2263
232.91	92.4834	232.91	92.418	232.91	92.4621	232.91	92.2728	232.91	92.3455	232.91	92.0522	232.91	92.1245	232.91	91.7577	232.91	91.7898	232.91	91.3867	232.91	91.3316	232.91	90.9323	232.91	90.7386	232.91	90.3834	232.91	89.9993	232.91	89.7308	232.91	89.1074	232.91	88.9809	232.91	88.077	232.91	88.1787	232.91	86.9734	232.91	87.4318	232.91	85.962	232.91	86.9034	232.91	85.3213	232.91	86.7291	232.91	85.2859	232.91	86.9019	232.91	85.792	232.91	87.2697	232.91	86.5307	232.91	87.6466	232.91	87.2178	232.91	87.8926	232.91	87.7002	232.91	87.9242
241.699	92.5444	241.699	92.4505	241.699	92.5811	241.699	92.3028	241.699	92.5536	241.699	92.1011	241.699	92.4526	241.699	91.8413	241.699	92.2659	241.699	91.5148	241.699	91.9779	241.699	91.1066	241.699	91.5673	241.699	90.5952	241.699	91.0069	241.699	89.9558	241.699	90.2648	241.699	89.1724	241.699	89.3095	241.699	88.2582	241.699	88.1216	241.699	87.2874	241.699	86.7269	241.699	86.4205	241.699	85.28	241.699	85.868	241.699	84.1814	241.699	85.7454	241.699	83.9237	241.699	85.9543	241.699	84.4832	241.699	86.2634	241.699	85.3248	241.699	86.4587	241.699	86.0188	241.699	86.4005
250.488	92.1412	250.488	92.0257	250.488	92.1903	250.488	91.8434	250.488	92.1747	250.488	91.5954	250.488	92.0969	250.488	91.2845	250.488	91.9597	250.488	90.9127	250.488	91.764	250.488	90.4776	250.488	91.5039	250.488	89.9691	250.488	91.163	250.488	89.3728	250.488	90.7135	250.488	88.6827	250.488	90.1205	250.488	87.9249	250.488	89.3537	250.488	87.1873	250.488	88.4106	250.488	86.626	250.488	87.3605	250.488	86.396	250.488	86.4058	250.488	86.5201	250.488	85.8672	250.488	86.8521	250.488	85.9293	250.488	87.1862	250.488	86.403	250.488	87.3597	250.488	86.9334	250.488	87.281
259.277	92.7987	259.277	92.7543	259.277	92.747	259.277	92.614	259.277	92.6014	259.277	92.3799	259.277	92.3657	259.277	92.054	259.277	92.0445	259.277	91.634	259.277	91.6404	259.277	91.1079	259.277	91.1503	259.277	90.4517	259.277	90.5638	259.277	89.6338	259.277	89.8658	259.277	88.6336	259.277	89.042	259.277	87.4783	259.277	88.095	259.277	86.3091	259.277	87.0769	259.277	85.4334	259.277	86.1414	259.277	85.1898	259.277	85.5594	259.277	85.5917	259.277	85.5546	259.277	86.2984	259.277	86.0437	259.277	86.9609	259.277	86.7001	259.277	87.3811	259.277	87.2301	259.277	87.4753
268.066	92.681	268.066	92.6205	268.066	92.661	268.066	92.4864	268.066	92.5577	268.066	92.2879	268.066	92.3747	268.066	92.0343	268.066	92.1218	268.066	91.7299	268.066	91.8108	268.066	91.3658	268.066	91.4478	268.066	90.9128	268.066	91.0256	268.066	90.3233	268.066	90.5223	268.066	89.5454	268.066	89.9056	268.066	88.5506	268.066	89.1452	268.066	87.3767	268.066	88.2351	268.066	86.1899	268.066	87.2301	268.066	85.3097	268.066	86.2932	268.066	85.0329	268.066	85.6856	268.066	85.3133	268.066	85.581	268.066	85.8089	268.066	85.8518	268.066	86.2043	268.066	86.1865	268.066	86.3385
276.855	91.5746	276.855	91.5192	276.855	91.5511	276.855	91.3885	276.855	91.4451	276.855	91.188	276.855	91.2549	276.855	90.9286	276.855	90.9822	276.855	90.6255	276.855	90.6307	276.855	90.2899	276.855	90.2011	276.855	89.9176	276.855	89.6874	276.855	89.4837	276.855	89.0765	276.855	88.9526	276.855	88.3524	276.855	88.3048	276.855	87.5117	276.855	87.5757	276.855	86.6002	276.855	86.892	276.855	85.7718	276.855	86.4558	276.855	85.307	276.855	86.4173	276.855	85.4306	276.855	86.7235	276.855	86.032	276.855	87.1551	276.855	86.7571	276.855	87.4844	276.855	87.3118	276.855	87.5597
287.109	91.7075	287.109	91.6452	287.109	91.6737	287.109	91.4886	287.109	91.5452	287.109	91.2432	287.109	91.3285	287.109	90.92	287.109	91.0368	287.109	90.5334	287.109	90.6864	287.109	90.0917	287.109	90.2883	287.109	89.5832	287.109	89.8401	287.109	88.9717	287.109	89.32	287.109	88.21	287.109	88.6903	287.109	87.2751	287.109	87.9132	287.109	86.2245	287.109	86.9847	287.109	85.2651	287.109	85.9919	287.109	84.7422	287.109	85.1828	287.109	84.8782	287.109	84.9096	287.109	85.4968	287.109	85.28	287.109	86.2075	287.109	85.9716	287.109	86.7076	287.109	86.5722	287.109	86.8424
297.363	91.3422	297.363	91.2916	297.363	91.2918	297.363	91.1459	297.363	91.1381	297.363	90.9144	297.363	90.8819	297.363	90.6078	297.363	90.5282	297.363	90.2343	297.363	90.0871	297.363	89.7923	297.363	89.5731	297.363	89.2663	297.363	88.9999	297.363	88.6269	297.363	88.3739	297.363	87.8417	297.363	87.691	297.363	86.8993	297.363	86.9483	297.363	85.8533	297.363	86.1742	297.363	84.8823	297.363	85.4662	297.363	84.2888	297.363	84.9936	297.363	84.2843	297.363	84.8975	297.363	84.7371	297.363	85.1428	297.363	85.3121	297.363	85.5282	297.363	85.7493	297.363	85.8373	297.363	85.9304
307.617	91.7717	307.617	91.5972	307.617	91.8411	307.617	91.324	307.617	91.8077	307.617	90.9668	307.617	91.6789	307.617	90.5465	307.617	91.4608	307.617	90.0852	307.617	91.1527	307.617	89.5997	307.617	90.7438	307.617	89.0939	307.617	90.2145	307.617	88.5533	307.617	89.5396	307.617	87.9468	307.617	88.6889	307.617	87.2401	307.617	87.6329	307.617	86.4237	307.617	86.3624	307.617	85.5591	307.617	84.9499	307.617	84.8208	307.617	83.6671	307.617	84.4418	307.617	82.9994	307.617	84.4953	307.617	83.1921	307.617	84.7775	307.617	83.8765	307.617	84.9926	307.617	84.5474	307.617	84.9399
319.336	90.8512	319.336	90.7797	319.336	90.8089	319.336	90.5877	319.336	90.6654	319.336	90.2728	319.336	90.4403	319.336	89.8359	319.336	90.1603	319.336	89.2806	319.336	89.853	319.336	88.6102	319.336	89.5316	319.336	87.8268	319.336	89.1785	319.336	86.9327	319.336	88.7429	319.336	85.9444	319.336	88.1583	319.336	84.9268	319.336	87.3722	319.336	84.0471	319.336	86.3817	319.336	83.57	319.336	85.2833	319.336	83.6686	319.336	84.3311	319.336	84.2102	319.336	83.8844	319.336	84.8798	319.336	84.0894	319.336	85.4208	319.336	84.6815	319.336	85.6954	319.336	85.2793	319.336	85.647
329.59	91.3257	329.59	91.306	329.59	91.2291	329.59	91.1757	329.59	91.0184	329.59	90.9455	329.59	90.7047	329.59	90.6277	329.59	90.3115	329.59	90.2291	329.59	89.8743	329.59	89.7443	329.59	89.4333	329.59	89.1503	329.59	89.0149	329.59	88.4057	329.59	88.6092	329.59	87.4554	329.59	88.1644	329.59	86.2488	329.59	87.606	329.59	84.7922	329.59	86.8733	329.59	83.2811	329.59	85.9641	329.59	82.2585	329.59	84.9925	329.59	82.2647	329.59	84.2217	329.59	83.033	329.59	83.9295	329.59	83.8872	329.59	84.1063	329.59	84.4467	329.59	84.4406	329.59	84.614
341.309	90.7921	341.309	90.6997	341.309	90.7454	341.309	90.4904	341.309	90.5518	341.309	90.2003	341.309	90.2179	341.309	89.8759	341.309	89.7655	341.309	89.5619	341.309	89.2301	341.309	89.2796	341.309	88.6566	341.309	89.0068	341.309	88.0873	341.309	88.6767	341.309	87.5448	341.309	88.1998	341.309	87.0223	341.309	87.497	341.309	86.4985	341.309	86.5445	341.309	85.976	341.309	85.4473	341.309	85.5192	341.309	84.5293	341.309	85.2489	341.309	84.2207	341.309	85.2553	341.309	84.5848	341.309	85.4972	341.309	85.2272	341.309	85.8164	341.309	85.7685	341.309	86.0403	341.309	86.0452
353.027	92.0419	353.027	91.8587	353.027	92.0442	353.027	91.4947	353.027	91.872	353.027	90.9588	353.027	91.5371	353.027	90.271	353.027	91.0553	353.027	89.465	353.027	90.4445	353.027	88.5871	353.027	89.7223	353.027	87.6842	353.027	88.899	353.027	86.7812	353.027	87.9666	353.027	85.8636	353.027	86.8826	353.027	84.8992	353.027	85.5682	353.027	83.9185	353.027	83.9545	353.027	83.135	353.027	82.1807	353.027	82.942	353.027	81.0434	353.027	83.5095	353.027	81.5761	353.027	84.487	353.027	83.1638	353.027	85.4005	353.027	84.6599	353.027	85.9701	353.027	85.6469	353.027	86.0725
366.211	92.05	366.211	91.9099	366.211	92.0388	366.211	91.6209	366.211	91.8777	366.211	91.1917	366.211	91.5719	366.211	90.6392	366.211	91.1323	366.211	89.9905	366.211	90.5782	366.211	89.2838	366.211	89.9387	366.211	88.5623	366.211	89.2491	366.211	87.8519	366.211	88.5377	366.211	87.1276	366.211	87.8041	366.211	86.3039	366.211	86.9995	366.211	85.2723	366.211	86.0295	366.211	83.9794	366.211	84.7897	366.211	82.541	366.211	83.2439	366.211	81.3584	366.211	81.5873	366.211	80.9153	366.211	80.4396	366.211	81.134	366.211	80.3675	366.211	81.4412	366.211	80.9439	366.211	81.4075
379.395	91.7774	379.395	91.7295	379.395	91.6862	379.395	91.5466	379.395	91.4602	379.395	91.2368	379.395	91.1147	379.395	90.8087	379.395	90.6757	379.395	90.2685	379.395	90.1744	379.395	89.613	379.395	89.6367	379.395	88.8233	379.395	89.0677	379.395	87.8626	379.395	88.4394	379.395	86.6841	379.395	87.6927	379.395	85.2537	379.395	86.7592	379.395	83.606	379.395	85.6001	379.395	81.9893	379.395	84.2586	379.395	81.0141	379.395	82.9276	379.395	81.1498	379.395	81.9658	379.395	81.9425	379.395	81.68	379.395	82.6779	379.395	81.9922	379.395	83.0267	379.395	82.5291	379.395	82.9448
392.578	90.9353	392.578	90.7812	392.578	90.9467	392.578	90.503	392.578	90.8009	392.578	90.1241	392.578	90.4886	392.578	89.6744	392.578	90.0097	392.578	89.1907	392.578	89.3804	392.578	88.708	392.578	88.6417	392.578	88.2378	392.578	87.8661	392.578	87.7408	392.578	87.1448	392.578	87.1244	392.578	86.5435	392.578	86.2791	392.578	86.0484	392.578	85.1373	392.578	85.5746	392.578	83.7619	392.578	85.0496	392.578	82.4905	392.578	84.5047	392.578	81.9352	392.578	84.0933	392.578	82.3322	392.578	83.9696	392.578	83.163	392.578	84.1018	392.578	83.874	392.578	84.2711	392.578	84.2422
405.762	91.5835	405.762	91.4568	405.762	91.5828	405.762	91.1913	405.762	91.4617	405.762	90.7819	405.762	91.2178	405.762	90.2418	405.762	90.843	405.762	89.6102	405.762	90.3303	405.762	88.9487	405.762	89.6825	405.762	88.3179	405.762	88.9145	405.762	87.7361	405.762	88.0441	405.762	87.1477	405.762	87.0709	405.762	86.4354	405.762	85.9552	405.762	85.4723	405.762	84.6357	405.762	84.1993	405.762	83.1379	405.762	82.7743	405.762	81.8117	405.762	81.7741	405.762	81.3716	405.762	81.8237	405.762	81.9777	405.762	82.6089	405.762	82.9006	405.762	83.3685	405.762	83.5473	405.762	83.7132
420.41	91.4566	420.41	91.3394	420.41	91.4072	420.41	91.0502	420.41	91.2048	420.41	90.5889	420.41	90.8708	420.41	89.9547	420.41	90.4258	420.41	89.1407	420.41	89.8773	420.41	88.1362	420.41	89.2148	420.41	86.9452	420.41	88.4188	420.41	85.6235	420.41	87.4791	420.41	84.3113	420.41	86.4035	420.41	83.1984	420.41	85.2037	420.41	82.4056	420.41	83.8662	420.41	81.9494	420.41	82.3749	420.41	81.8664	420.41	80.9156	420.41	82.2127	420.41	80.2071	420.41	82.8698	420.41	80.862	420.41	83.541	420.41	82.1937	420.41	83.9452	420.41	83.3128	420.41	83.9014
435.059	91.2652	435.059	91.1106	435.059	91.2491	435.059	90.7965	435.059	91.0624	435.059	90.3438	435.059	90.7213	435.059	89.786	435.059	90.2667	435.059	89.1703	435.059	89.7634	435.059	88.5497	435.059	89.278	435.059	87.956	435.059	88.8283	435.059	87.3669	435.059	88.3493	435.059	86.6957	435.059	87.7193	435.059	85.8228	435.059	86.8272	435.059	84.6625	435.059	85.6333	435.059	83.2756	435.059	84.2097	435.059	82.0299	435.059	82.7774	435.059	81.5402	435.059	81.7391	435.059	81.9562	435.059	81.5232	435.059	82.7097	435.059	82.0801	435.059	83.2421	435.059	82.8393	435.059	83.2952
451.172	92.0011	451.172	91.9474	451.172	91.8878	451.172	91.7392	451.172	91.6071	451.172	91.3984	451.172	91.1699	451.172	90.9503	451.172	90.5977	451.172	90.4181	451.172	89.9254	451.172	89.8188	451.172	89.2084	451.172	89.1553	451.172	88.5205	451.172	88.4002	451.172	87.92	451.172	87.4807	451.172	87.3867	451.172	86.2876	451.172	86.7908	451.172	84.7339	451.172	85.9573	451.172	82.9469	451.172	84.8114	451.172	81.6888	451.172	83.5781	451.172	81.9572	451.172	82.877	451.172	83.1878	451.172	83.1125	451.172	84.2807	451.172	83.8583	451.172	84.8568	451.172	84.5473	451.172	84.9177
465.82	92.5708	465.82	92.3515	465.82	92.5849	465.82	91.9427	465.82	92.3881	465.82	91.3696	465.82	91.9868	465.82	90.6705	465.82	91.4044	465.82	89.904	465.82	90.6883	465.82	89.1493	465.82	89.9128	465.82	88.4787	465.82	89.1615	465.82	87.8943	465.82	88.4753	465.82	87.278	465.82	87.7965	465.82	86.4092	465.82	86.9551	465.82	85.0247	465.82	85.6929	465.82	82.8845	465.82	83.6896	465.82	80.0465	465.82	80.724	465.82	78.2474	465.82	78.1203	465.82	79.7524	465.82	79.4393	465.82	82.0261	465.82	81.9776	465.82	83.4746	465.82	83.5028	465.82	83.966
483.398	91.5271	483.398	91.3801	483.398	91.4973	483.398	91.0368	483.398	91.2966	483.398	90.475	483.398	90.9163	483.398	89.6864	483.398	90.3391	483.398	88.6946	483.398	89.5474	483.398	87.5777	483.398	88.5355	483.398	86.4926	483.398	87.3533	483.398	85.6448	483.398	86.193	483.398	85.1164	483.398	85.3912	483.398	84.7219	483.398	85.0989	483.398	84.1699	483.398	84.9979	483.398	83.3279	483.398	84.6325	483.398	82.3772	483.398	83.7659	483.398	81.853	483.398	82.4991	483.398	82.1736	483.398	81.4778	483.398	82.9589	483.398	81.6124	483.398	83.5021	483.398	82.6014	483.398	83.394
499.512	92.1634	499.512	92.1117	499.512	92.0718	499.512	91.9069	499.512	91.8488	499.512	91.5446	499.512	91.5022	499.512	91.0229	499.512	91.0308	499.512	90.3374	499.512	90.4278	499.512	89.4876	499.512	89.6907	499.512	88.5072	499.512	88.8365	499.512	87.4907	499.512	87.9059	499.512	86.5297	499.512	86.9325	499.512	85.5422	499.512	85.8836	499.512	84.2155	499.512	84.6335	499.512	82.1549	499.512	83.0085	499.512	79.1774	499.512	80.9105	499.512	76.7409	499.512	78.7186	499.512	78.0088	499.512	77.9988	499.512	80.3439	499.512	79.3763	499.512	81.6751	499.512	81.0172	499.512	81.8671
517.09	91.1353	517.09	90.9601	517.09	91.115	517.09	90.5956	517.09	90.9095	517.09	90.0611	517.09	90.5417	517.09	89.3872	517.09	90.0385	517.09	88.631	517.09	89.4262	517.09	87.8963	517.09	88.7363	517.09	87.2971	517.09	88.0184	517.09	86.8537	517.09	87.3458	517.09	86.4609	517.09	86.7779	517.09	85.9834	517.09	86.2754	517.09	85.3244	517.09	85.6653	517.09	84.4113	517.09	84.7288	517.09	83.2222	517.09	83.3503	517.09	81.9907	517.09	81.7376	517.09	81.3696	517.09	80.6973	517.09	81.6542	517.09	80.9138	517.09	82.1607	517.09	81.7202	517.09	82.2353
536.133	92.2055	536.133	92.1099	536.133	92.1293	536.133	91.8248	536.133	91.8796	536.133	91.3309	536.133	91.4392	536.133	90.6248	536.133	90.7925	536.133	89.7082	536.133	89.9371	536.133	88.5675	536.133	88.8836	536.133	87.196	536.133	87.6626	536.133	85.6889	536.133	86.3509	536.133	84.3407	536.133	85.0976	536.133	83.4786	536.133	84.0616	536.133	83.0288	536.133	83.2369	536.133	82.6254	536.133	82.4385	536.133	82.2072	536.133	81.64	536.133	82.1996	536.133	81.3332	536.133	82.8729	536.133	82.0319	536.133	83.8137	536.133	83.2591	536.133	84.5004	536.133	84.2485	536.133	84.6749
555.176	92.5351	555.176	92.4257	555.176	92.5141	555.176	92.163	555.176	92.3654	555.176	91.7179	555.176	92.067	555.176	91.0779	555.176	91.5818	555.176	90.2681	555.176	90.8876	555.176	89.3492	555.176	90.0211	555.176	88.3898	555.176	89.0862	555.176	87.4332	555.176	88.1769	555.176	86.4543	555.176	87.2646	555.176	85.2968	555.176	86.195	555.176	83.6389	555.176	84.7598	555.176	81.0443	555.176	82.6944	555.176	77.4729	555.176	79.7194	555.176	76.5386	555.176	76.6777	555.176	79.7021	555.176	77.4317	555.176	82.1525	555.176	80.1659	555.176	83.2118	555.176	82.1179	555.176	83.1351
574.219	92.5192	574.219	92.33	574.219	92.4557	574.219	91.9363	574.219	92.146	574.219	91.4102	574.219	91.6469	574.219	90.7945	574.219	91.0278	574.219	90.0718	574.219	90.3145	574.219	89.2037	574.219	89.4632	574.219	88.2216	574.219	88.4203	574.219	87.267	574.219	87.2718	574.219	86.4541	574.219	86.3469	574.219	85.6517	574.219	85.8993	574.219	84.4978	574.219	85.6005	574.219	82.6085	574.219	84.8123	574.219	79.8904	574.219	83.0078	574.219	77.8964	574.219	79.8632	574.219	79.356	574.219	76.936	574.219	81.7766	574.219	79.0352	574.219	83.2179	574.219	81.9863	574.219	83.3529
594.727	92.0728	594.727	91.9529	594.727	92.0012	594.727	91.6422	594.727	91.7268	594.727	91.1241	594.727	91.2371	594.727	90.3831	594.727	90.5317	594.727	89.4362	594.727	89.6406	594.727	88.3483	594.727	88.6385	594.727	87.2207	594.727	87.6401	594.727	86.175	594.727	86.756	594.727	85.3114	594.727	86.0163	594.727	84.6192	594.727	85.3341	594.727	83.9075	594.727	84.5269	594.727	82.8381	594.727	83.3309	594.727	81.0607	594.727	81.4629	594.727	78.7949	594.727	78.9871	594.727	78.4439	594.727	77.7073	594.727	80.5773	594.727	79.4635	594.727	82.2549	594.727	81.6036	594.727	82.6052
615.234	91.455	615.234	91.3529	615.234	91.363	615.234	91.0514	615.234	91.1078	615.234	90.5759	615.234	90.7285	615.234	89.9617	615.234	90.2533	615.234	89.2272	615.234	89.6751	615.234	88.3704	615.234	88.9365	615.234	87.3735	615.234	87.9479	615.234	86.226	615.234	86.6553	615.234	84.9995	615.234	85.1574	615.234	83.8539	615.234	83.8132	615.234	82.7833	615.234	83.0179	615.234	81.4422	615.234	82.5636	615.234	79.4417	615.234	81.7451	615.234	77.1201	615.234	80.1176	615.234	76.8058	615.234	78.2314	615.234	78.7571	615.234	78.1548	615.234	80.3234	615.234	79.6728	615.234	80.6338
637.207	92.1434	637.207	91.8999	637.207	92.1305	637.207	91.4209	637.207	91.8458	637.207	90.7294	637.207	91.2944	637.207	89.8705	637.207	90.5138	637.207	88.9145	637.207	89.5809	637.207	87.9009	637.207	88.5895	637.207	86.8252	637.207	87.5836	637.207	85.7645	637.207	86.5618	637.207	84.944	637.207	85.6375	637.207	84.4531	637.207	85.0249	637.207	83.9664	637.207	84.6143	637.207	82.9837	637.207	83.9207	637.207	81.1753	637.207	82.5077	637.207	78.9378	637.207	80.2616	637.207	78.4818	637.207	78.3656	637.207	80.1216	637.207	79.1433	637.207	81.4367	637.207	80.8488	637.207	81.6895
659.18	92.2553	659.18	92.0855	659.18	92.1743	659.18	91.6982	659.18	91.8717	659.18	91.1591	659.18	91.4008	659.18	90.5015	659.18	90.7887	659.18	89.7115	659.18	90.0359	659.18	88.76	659.18	89.1524	659.18	87.6111	659.18	88.1569	659.18	86.2426	659.18	87.0369	659.18	84.7426	659.18	85.7941	659.18	83.3539	659.18	84.5927	659.18	82.1668	659.18	83.6484	659.18	80.7826	659.18	82.6852	659.18	78.9871	659.18	80.9722	659.18	78.5856	659.18	78.3988	659.18	80.7894	659.18	77.7326	659.18	82.9802	659.18	80.2414	659.18	84.0554	659.18	82.6215	659.18	83.9257
682.617	92.201	682.617	91.9981	682.617	92.1339	682.617	91.5351	682.617	91.797	682.617	90.8466	682.617	91.2121	682.617	89.9934	682.617	90.4436	682.617	89.0255	682.617	89.5614	682.617	87.9291	682.617	88.5462	682.617	86.6359	682.617	87.282	682.617	85.1795	682.617	85.7233	682.617	83.9795	682.617	84.117	682.617	83.6263	682.617	83.0391	682.617	83.7398	682.617	82.7973	682.617	83.1545	682.617	82.7355	682.617	80.8791	682.617	81.8181	682.617	76.1578	682.617	79.2853	682.617	74.2289	682.617	76.0968	682.617	78.8435	682.617	78.0802	682.617	81.5219	682.617	81.1529	682.617	82.26
707.52	91.4738	707.52	91.2807	707.52	91.4217	707.52	90.8605	707.52	91.1654	707.52	90.2852	707.52	90.7583	707.52	89.6614	707.52	90.2067	707.52	89.0673	707.52	89.4976	707.52	88.4403	707.52	88.6963	707.52	87.5825	707.52	87.9383	707.52	86.344	707.52	87.2065	707.52	84.778	707.52	86.1922	707.52	83.1994	707.52	84.6271	707.52	82.0166	707.52	82.8718	707.52	80.9575	707.52	81.6889	707.52	78.9416	707.52	80.6299	707.52	74.8702	707.52	78.5331	707.52	73.6622	707.52	75.1736	707.52	78.5936	707.52	75.0843	707.52	81.057	707.52	78.7996	707.52	81.0198
732.422	92.4111	732.422	92.1652	732.422	92.3434	732.422	91.5816	732.422	91.9619	732.422	90.6753	732.422	91.2307	732.422	89.549	732.422	90.1727	732.422	88.3611	732.422	88.9992	732.422	87.2235	732.422	88.0123	732.422	86.1568	732.422	87.1933	732.422	85.0996	732.422	86.1752	732.422	83.9657	732.422	84.7715	732.422	82.8274	732.422	83.291	732.422	81.7665	732.422	82.2262	732.422	80.577	732.422	81.6078	732.422	79.1878	732.422	81.003	732.422	77.8632	732.422	79.8198	732.422	77.0951	732.422	78.0064	732.422	77.8215	732.422	77.4522	732.422	79.2059	732.422	78.7528	732.422	79.6236
757.324	92.722	757.324	92.4716	757.324	92.6894	757.324	91.964	757.324	92.366	757.324	91.2107	757.324	91.7871	757.324	90.2143	757.324	91.0012	757.324	89.0278	757.324	90.0215	757.324	87.8222	757.324	88.853	757.324	86.7929	757.324	87.5736	757.324	85.9158	757.324	86.3225	757.324	84.911	757.324	85.1936	757.324	83.6323	757.324	84.265	757.324	82.411	757.324	83.4961	757.324	81.2869	757.324	82.3623	757.324	79.4616	757.324	80.1568	757.324	77.4379	757.324	77.2001	757.324	78.3007	757.324	76.8366	757.324	80.4695	757.324	79.3735	757.324	81.9486	757.324	81.5624	757.324	82.4159
785.156	92.8971	785.156	92.5898	785.156	92.8137	785.156	91.9544	785.156	92.3274	785.156	91.0706	785.156	91.4582	785.156	90.0295	785.156	90.2842	785.156	88.9686	785.156	89.0399	785.156	87.9828	785.156	88.0024	785.156	86.9259	785.156	87.1382	785.156	85.5001	785.156	86.1421	785.156	83.7055	785.156	84.8375	785.156	82.1773	785.156	83.3536	785.156	81.7767	785.156	82.3137	785.156	81.881	785.156	82.317	785.156	80.3883	785.156	82.1936	785.156	75.0987	785.156	80.2023	785.156	74.6299	785.156	75.1104	785.156	80.4306	785.156	74.6681	785.156	82.5141	785.156	79.9505	785.156	82.3054
811.523	91.639	811.523	91.4855	811.523	91.4835	811.523	90.9932	811.523	91.0528	811.523	90.1505	811.523	90.431	811.523	89.0298	811.523	89.6973	811.523	87.8121	811.523	88.7826	811.523	86.7801	811.523	87.5816	811.523	86.0609	811.523	86.3571	811.523	85.3586	811.523	85.573	811.523	84.2808	811.523	84.8968	811.523	82.7798	811.523	83.4958	811.523	81.3842	811.523	81.3914	811.523	80.3991	811.523	79.8562	811.523	79.1073	811.523	78.9066	811.523	76.8121	811.523	77.0447	811.523	73.5275	811.523	74.3239	811.523	75.6569	811.523	75.1575	811.523	79.6231	811.523	78.6078	811.523	80.4606
840.82	92.0411	840.82	91.8164	840.82	92.0433	840.82	91.3488	840.82	91.8222	840.82	90.6454	840.82	91.2552	840.82	89.6942	840.82	90.2146	840.82	88.4993	840.82	88.8506	840.82	87.129	840.82	87.5824	840.82	85.6814	840.82	86.4474	840.82	84.2656	840.82	84.9865	840.82	82.9133	840.82	83.3277	840.82	81.6803	840.82	82.5184	840.82	80.9658	840.82	82.3922	840.82	80.5495	840.82	81.9519	840.82	79.4789	840.82	80.8416	840.82	77.1114	840.82	78.6754	840.82	75.5506	840.82	75.4069	840.82	77.4752	840.82	76.177	840.82	79.5049	840.82	79.6008	840.82	80.5597
870.117	92.0099	870.117	91.7085	870.117	91.9421	870.117	91.1645	870.117	91.3789	870.117	90.3424	870.117	90.4154	870.117	89.19	870.117	89.3358	870.117	87.859	870.117	88.2467	870.117	86.7073	870.117	86.9672	870.117	85.8331	870.117	85.583	870.117	84.7548	870.117	84.5402	870.117	83.0652	870.117	83.5826	870.117	81.2595	870.117	81.909	870.117	80.5724	870.117	80.0704	870.117	80.7001	870.117	80.1931	870.117	80.0217	870.117	80.7627	870.117	77.259	870.117	79.2893	870.117	74.385	870.117	75.1628	870.117	78.1968	870.117	74.2917	870.117	80.6463	870.117	78.0714	870.117	80.3462
900.879	91.4981	900.879	91.3091	900.879	91.2944	900.879	90.8001	900.879	90.8318	900.879	90.0312	900.879	90.2537	900.879	88.945	900.879	89.3737	900.879	87.5904	900.879	87.9282	900.879	86.1395	900.879	86.1269	900.879	84.7937	900.879	84.7853	900.879	83.72	900.879	84.1467	900.879	82.3977	900.879	83.0893	900.879	80.1667	900.879	80.9672	900.879	78.2923	900.879	78.4789	900.879	79.1327	900.879	78.2057	900.879	79.3963	900.879	79.6686	900.879	76.8838	900.879	79.3675	900.879	70.0285	900.879	75.4532	900.879	73.786	900.879	69.8348	900.879	79.423	900.879	77.1303	900.879	80.3499
933.105	91.7213	933.105	91.4359	933.105	91.7112	933.105	90.7986	933.105	91.2681	933.105	89.8226	933.105	90.2706	933.105	88.6651	933.105	89.0065	933.105	87.3542	933.105	87.987	933.105	85.8963	933.105	87.0683	933.105	84.6279	933.105	85.6324	933.105	83.9207	933.105	84.0736	933.105	83.5495	933.105	83.4476	933.105	82.4367	933.105	82.6074	933.105	79.6769	933.105	80.1236	933.105	77.3892	933.105	76.5464	933.105	77.8016	933.105	75.4093	933.105	77.0602	933.105	76.7895	933.105	75.3924	933.105	77.511	933.105	76.4452	933.105	77.6861	933.105	77.7968	933.105	78.2017	933.105	78.4016
965.332	91.6879	965.332	91.3865	965.332	91.4912	965.332	90.7925	965.332	90.9108	965.332	89.9614	965.332	90.2464	965.332	88.7396	965.332	89.4637	965.332	87.3204	965.332	88.2692	965.332	86.1497	965.332	86.7323	965.332	85.1979	965.332	85.5079	965.332	84.0728	965.332	84.6745	965.332	82.5412	965.332	83.3132	965.332	80.3416	965.332	81.3843	965.332	78.275	965.332	79.7201	965.332	78.8007	965.332	79.0752	965.332	79.8725	965.332	79.6982	965.332	78.5705	965.332	79.3236	965.332	74.509	965.332	75.5543	965.332	77.604	965.332	73.1159	965.332	80.7229	965.332	78.2383	965.332	80.6993
1,000.49	91.6821	1,000.49	91.5863	1,000.49	91.5176	1,000.49	91.0909	1,000.49	91.1829	1,000.49	90.2605	1,000.49	90.6218	1,000.49	89.3545	1,000.49	89.707	1,000.49	88.2962	1,000.49	88.4546	1,000.49	86.6732	1,000.49	86.9911	1,000.49	84.6025	1,000.49	85.2937	1,000.49	83.5312	1,000.49	83.361	1,000.49	83.3357	1,000.49	82.0546	1,000.49	81.6963	1,000.49	81.6954	1,000.49	78.9954	1,000.49	80.8496	1,000.49	77.5734	1,000.49	79.1826	1,000.49	76.55	1,000.49	77.8438	1,000.49	73.772	1,000.49	75.5326	1,000.49	73.3633	1,000.49	70.6758	1,000.49	79.069	1,000.49	74.423	1,000.49	82.3678	1,000.49	80.1443	1,000.49	82.7788
1,035.64	91.5346	1,035.64	91.0777	1,035.64	91.5621	1,035.64	90.3901	1,035.64	91.1402	1,035.64	89.6247	1,035.64	90.3034	1,035.64	88.7361	1,035.64	89.1431	1,035.64	87.5571	1,035.64	88.0031	1,035.64	85.9212	1,035.64	86.9662	1,035.64	84.3912	1,035.64	85.6156	1,035.64	83.5522	1,035.64	83.9995	1,035.64	82.3322	1,035.64	83.0017	1,035.64	80.8422	1,035.64	82.6132	1,035.64	79.4746	1,035.64	81.6557	1,035.64	78.0825	1,035.64	78.9485	1,035.64	78.282	1,035.64	76.3644	1,035.64	76.7518	1,035.64	77.2067	1,035.64	70.5566	1,035.64	75.3128	1,035.64	70.9219	1,035.64	69.5379	1,035.64	76.6378	1,035.64	75.1184	1,035.64	77.9247
1,072.27	90.3971	1,072.27	90.2798	1,072.27	90.2704	1,072.27	89.8958	1,072.27	89.6798	1,072.27	89.0425	1,072.27	88.8656	1,072.27	87.7683	1,072.27	88.276	1,072.27	86.4158	1,072.27	87.4919	1,072.27	85.3054	1,072.27	86.1484	1,072.27	84.3182	1,072.27	84.8128	1,072.27	82.998	1,072.27	83.8814	1,072.27	82.008	1,072.27	82.9368	1,072.27	81.7941	1,072.27	82.1455	1,072.27	80.2341	1,072.27	80.7557	1,072.27	77.609	1,072.27	77.959	1,072.27	77.2203	1,072.27	77.4147	1,072.27	76.2282	1,072.27	77.5762	1,072.27	70.7296	1,072.27	75.003	1,072.27	73.9421	1,072.27	71.8042	1,072.27	78.5681	1,072.27	76.7208	1,072.27	79.194
1,108.89	91.0548	1,108.89	90.984	1,108.89	90.8603	1,108.89	90.4553	1,108.89	90.5647	1,108.89	89.6116	1,108.89	90.0288	1,108.89	88.7991	1,108.89	89.1451	1,108.89	87.9145	1,108.89	87.9479	1,108.89	86.5126	1,108.89	86.5456	1,108.89	84.6802	1,108.89	85.269	1,108.89	83.087	1,108.89	83.7707	1,108.89	82.0083	1,108.89	82.0615	1,108.89	80.4353	1,108.89	81.5204	1,108.89	78.1338	1,108.89	81.1361	1,108.89	77.7149	1,108.89	79.5516	1,108.89	78.1638	1,108.89	77.5236	1,108.89	76.2038	1,108.89	77.3495	1,108.89	70.4135	1,108.89	74.2045	1,108.89	74.9448	1,108.89	68.7604	1,108.89	80.0277	1,108.89	77.1231	1,108.89	80.5049
1,148.44	90.98	1,148.44	90.689	1,148.44	90.9375	1,148.44	89.916	1,148.44	90.7315	1,148.44	89.123	1,148.44	90.2142	1,148.44	88.65	1,148.44	89.2354	1,148.44	87.7849	1,148.44	88.1249	1,148.44	86.0663	1,148.44	87.2202	1,148.44	84.2713	1,148.44	85.9072	1,148.44	83.1588	1,148.44	84.1815	1,148.44	82.1969	1,148.44	83.033	1,148.44	81.2192	1,148.44	82.3363	1,148.44	79.362	1,148.44	81.0618	1,148.44	75.9771	1,148.44	77.8079	1,148.44	77.6737	1,148.44	76.4061	1,148.44	78.0006	1,148.44	78.8016	1,148.44	72.923	1,148.44	77.9391	1,148.44	60.1023	1,148.44	70.1876	1,148.44	75.0036	1,148.44	73.0776	1,148.44	77.3007
1,189.45	91.5416	1,189.45	91.1447	1,189.45	91.4663	1,189.45	90.527	1,189.45	90.8779	1,189.45	89.8169	1,189.45	89.8795	1,189.45	88.8963	1,189.45	88.9312	1,189.45	87.8186	1,189.45	88.1246	1,189.45	86.5085	1,189.45	87.0277	1,189.45	84.7606	1,189.45	85.7985	1,189.45	82.7592	1,189.45	84.7332	1,189.45	81.1847	1,189.45	83.4261	1,189.45	81.3235	1,189.45	82.2447	1,189.45	80.446	1,189.45	80.5099	1,189.45	76.5603	1,189.45	77.0239	1,189.45	76.4602	1,189.45	76.3769	1,189.45	77.5318	1,189.45	78.1832	1,189.45	74.0534	1,189.45	76.6746	1,189.45	73.7322	1,189.45	72.9397	1,189.45	79.0668	1,189.45	77.3037	1,189.45	80.0489
1,230.47	91.1351	1,230.47	90.8934	1,230.47	91.1601	1,230.47	90.7103	1,230.47	90.5676	1,230.47	90.0828	1,230.47	89.9635	1,230.47	89.1097	1,230.47	89.5222	1,230.47	88.0695	1,230.47	88.7372	1,230.47	87.0671	1,230.47	87.4712	1,230.47	86.1831	1,230.47	86.0395	1,230.47	84.9237	1,230.47	84.5228	1,230.47	83.2185	1,230.47	82.7526	1,230.47	81.5951	1,230.47	81.3385	1,230.47	80.0418	1,230.47	81.1391	1,230.47	77.7949	1,230.47	79.3031	1,230.47	78.4638	1,230.47	76.3508	1,230.47	79.2662	1,230.47	77.9898	1,230.47	74.0708	1,230.47	77.1848	1,230.47	71.0662	1,230.47	67.1818	1,230.47	78.8026	1,230.47	75.4531	1,230.47	79.7401
1,274.41	90.6035	1,274.41	90.6107	1,274.41	90.5096	1,274.41	90.3879	1,274.41	90.3456	1,274.41	89.9546	1,274.41	90.2314	1,274.41	89.2848	1,274.41	89.8833	1,274.41	88.2547	1,274.41	88.9566	1,274.41	87.0056	1,274.41	87.9796	1,274.41	85.996	1,274.41	86.9648	1,274.41	84.8595	1,274.41	85.3745	1,274.41	82.9215	1,274.41	83.488	1,274.41	81.7376	1,274.41	81.9395	1,274.41	81.1122	1,274.41	81.0429	1,274.41	77.3942	1,274.41	78.9498	1,274.41	77.0728	1,274.41	75.4856	1,274.41	79.2943	1,274.41	78.6202	1,274.41	77.154	1,274.41	78.9277	1,274.41	69.4309	1,274.41	73.9985	1,274.41	75.3668	1,274.41	74.2235	1,274.41	77.9337
1,319.82	91.579	1,319.82	91.549	1,319.82	91.2961	1,319.82	91.1933	1,319.82	90.9582	1,319.82	90.6197	1,319.82	90.7277	1,319.82	90.0267	1,319.82	90.2759	1,319.82	89.1562	1,319.82	89.4423	1,319.82	88.0424	1,319.82	88.2747	1,319.82	86.8052	1,319.82	86.7295	1,319.82	84.9459	1,319.82	85.1678	1,319.82	82.8162	1,319.82	83.6498	1,319.82	82.4579	1,319.82	81.5888	1,319.82	81.003	1,319.82	80.8807	1,319.82	76.9043	1,319.82	79.6016	1,319.82	77.0961	1,319.82	75.6158	1,319.82	79.2603	1,319.82	77.8561	1,319.82	76.2215	1,319.82	78.7336	1,319.82	75.5595	1,319.82	71.1208	1,319.82	81.0629	1,319.82	75.6079	1,319.82	80.9433
1,366.7	90.4614	1,366.7	90.4454	1,366.7	90.2571	1,366.7	90.0065	1,366.7	90.2957	1,366.7	89.7213	1,366.7	90.1207	1,366.7	89.5203	1,366.7	89.5624	1,366.7	89.0316	1,366.7	89.0057	1,366.7	88.1034	1,366.7	88.4146	1,366.7	86.4251	1,366.7	87.2549	1,366.7	84.3959	1,366.7	85.8168	1,366.7	83.1245	1,366.7	84.2884	1,366.7	81.3871	1,366.7	82.341	1,366.7	80.2972	1,366.7	80.9256	1,366.7	79.1987	1,366.7	79.6654	1,366.7	77.2852	1,366.7	76.5462	1,366.7	77.9803	1,366.7	76.1363	1,366.7	73.4433	1,366.7	77.9728	1,366.7	67.795	1,366.7	72.2366	1,366.7	78.7156	1,366.7	73.1648	1,366.7	80.347
1,413.57	90.7962	1,413.57	90.7827	1,413.57	90.7776	1,413.57	90.5511	1,413.57	90.7024	1,413.57	90.2728	1,413.57	90.3681	1,413.57	89.821	1,413.57	89.8891	1,413.57	88.9828	1,413.57	89.4043	1,413.57	87.9163	1,413.57	88.487	1,413.57	86.4788	1,413.57	87.2153	1,413.57	84.785	1,413.57	85.8343	1,413.57	82.6861	1,413.57	83.7135	1,413.57	80.6168	1,413.57	81.7603	1,413.57	79.6379	1,413.57	80.6087	1,413.57	78.3328	1,413.57	79.8753	1,413.57	75.7801	1,413.57	77.3946	1,413.57	78.9522	1,413.57	77.1592	1,413.57	78.6657	1,413.57	77.3716	1,413.57	74.679	1,413.57	71.7841	1,413.57	77.6488	1,413.57	71.5309	1,413.57	77.9933
1,463.38	89.9125	1,463.38	89.9808	1,463.38	89.7875	1,463.38	89.6702	1,463.38	90.0509	1,463.38	89.5171	1,463.38	90.2307	1,463.38	89.3205	1,463.38	89.9161	1,463.38	88.6959	1,463.38	89.262	1,463.38	87.7794	1,463.38	88.327	1,463.38	86.6107	1,463.38	87.0445	1,463.38	85.2463	1,463.38	85.5951	1,463.38	83.9365	1,463.38	84.7129	1,463.38	80.8897	1,463.38	83.1344	1,463.38	80.1925	1,463.38	80.4937	1,463.38	79.774	1,463.38	80.3484	1,463.38	76.095	1,463.38	79.0177	1,463.38	78.7876	1,463.38	76.6452	1,463.38	74.9041	1,463.38	78.5811	1,463.38	69.7872	1,463.38	75.1823	1,463.38	77.6743	1,463.38	63.3718	1,463.38	77.7683
1,516.11	90.7831	1,516.11	90.82	1,516.11	90.8313	1,516.11	90.9573	1,516.11	90.8558	1,516.11	90.8082	1,516.11	90.767	1,516.11	90.3254	1,516.11	90.4594	1,516.11	89.4412	1,516.11	89.7079	1,516.11	88.1822	1,516.11	88.8741	1,516.11	86.7107	1,516.11	87.6738	1,516.11	85.0788	1,516.11	86.163	1,516.11	83.5554	1,516.11	84.4734	1,516.11	80.7164	1,516.11	82.6978	1,516.11	79.3237	1,516.11	80.7534	1,516.11	78.2063	1,516.11	79.0797	1,516.11	75.0474	1,516.11	77.1974	1,516.11	77.0779	1,516.11	77.2332	1,516.11	77.8999	1,516.11	78.6451	1,516.11	74.4872	1,516.11	74.6424	1,516.11	77.8355	1,516.11	73.2813	1,516.11	78.3501
1,568.85	90.0883	1,568.85	90.3418	1,568.85	90.1958	1,568.85	90.6169	1,568.85	90.7597	1,568.85	90.8911	1,568.85	90.8374	1,568.85	90.7928	1,568.85	90.521	1,568.85	90.0484	1,568.85	90.0332	1,568.85	88.2608	1,568.85	89.1516	1,568.85	86.1849	1,568.85	87.8111	1,568.85	84.839	1,568.85	86.0207	1,568.85	83.5374	1,568.85	84.3873	1,568.85	81.9855	1,568.85	83.1901	1,568.85	80.2598	1,568.85	81.4515	1,568.85	78.2268	1,568.85	80.2006	1,568.85	75.8492	1,568.85	78.6849	1,568.85	79.0162	1,568.85	76.0055	1,568.85	76.1213	1,568.85	78.2861	1,568.85	59.7625	1,568.85	73.0826	1,568.85	77.7164	1,568.85	71.3256	1,568.85	79.6907
1,624.51	90.4962	1,624.51	91.0861	1,624.51	90.3704	1,624.51	91.2866	1,624.51	90.942	1,624.51	91.1729	1,624.51	91.2611	1,624.51	90.3957	1,624.51	90.7206	1,624.51	89.5597	1,624.51	90.3029	1,624.51	88.6313	1,624.51	88.5791	1,624.51	87.1507	1,624.51	86.7799	1,624.51	84.6087	1,624.51	85.5282	1,624.51	84.1512	1,624.51	83.1562	1,624.51	80.7203	1,624.51	80.6617	1,624.51	79.7533	1,624.51	81.658	1,624.51	80.0338	1,624.51	77.1093	1,624.51	71.5844	1,624.51	77.5725	1,624.51	79.7187	1,624.51	77.4191	1,624.51	81.5547	1,624.51	74.0745	1,624.51	71.4136	1,624.51	79.8432	1,624.51	75.2867	1,624.51	78.6542	1,624.51	80.4295
1,681.64	89.8867	1,681.64	90.0855	1,681.64	90.1815	1,681.64	90.4534	1,681.64	90.5665	1,681.64	90.5591	1,681.64	90.5726	1,681.64	90.5215	1,681.64	90.7849	1,681.64	89.709	1,681.64	89.7393	1,681.64	88.1376	1,681.64	88.4537	1,681.64	86.0844	1,681.64	87.1905	1,681.64	85.0206	1,681.64	85.611	1,681.64	82.3417	1,681.64	82.9302	1,681.64	81.6856	1,681.64	82.84	1,681.64	80.193	1,681.64	79.4591	1,681.64	77.4274	1,681.64	78.9371	1,681.64	79.217	1,681.64	78.1992	1,681.64	77.7764	1,681.64	72.8483	1,681.64	76.9324	1,681.64	80.2457	1,681.64	79.0417	1,681.64	71.2113	1,681.64	78.9565	1,681.64	72.4954	1,681.64	78.4309
1,741.7	89.3521	1,741.7	89.9622	1,741.7	89.3836	1,741.7	90.5923	1,741.7	89.8155	1,741.7	90.9545	1,741.7	90.7424	1,741.7	90.3902	1,741.7	90.464	1,741.7	88.9973	1,741.7	89.8222	1,741.7	87.0405	1,741.7	88.6106	1,741.7	85.8129	1,741.7	86.3935	1,741.7	83.2602	1,741.7	83.5577	1,741.7	81.6031	1,741.7	83.4232	1,741.7	80.7093	1,741.7	79.3108	1,741.7	77.5429	1,741.7	78.9778	1,741.7	79.5619	1,741.7	78.2997	1,741.7	73.3703	1,741.7	75.5715	1,741.7	77.5315	1,741.7	76.4818	1,741.7	80.6157	1,741.7	74.7979	1,741.7	68.4005	1,741.7	79.5939	1,741.7	72.8893	1,741.7	78.0468	1,741.7	78.4373
1,803.22	89.4583	1,803.22	90.0126	1,803.22	89.4715	1,803.22	90.3466	1,803.22	90.5304	1,803.22	90.5048	1,803.22	90.7019	1,803.22	89.9931	1,803.22	90.6016	1,803.22	89.0802	1,803.22	90.0882	1,803.22	87.6838	1,803.22	88.5594	1,803.22	84.4526	1,803.22	86.7045	1,803.22	83.3311	1,803.22	85.9747	1,803.22	81.6973	1,803.22	82.0127	1,803.22	78.4038	1,803.22	81.4079	1,803.22	78.7861	1,803.22	80.3359	1,803.22	74.8653	1,803.22	76.4274	1,803.22	77.289	1,803.22	79.5837	1,803.22	71.9992	1,803.22	71.3017	1,803.22	77.9155	1,803.22	77.7674	1,803.22	78.6994	1,803.22	71.4578	1,803.22	79.8464	1,803.22	75.2432	1,803.22	80.8468
1,866.21	90.28	1,866.21	90.5595	1,866.21	90.8318	1,866.21	91.2031	1,866.21	90.686	1,866.21	91.2133	1,866.21	91.2356	1,866.21	90.5552	1,866.21	91.2018	1,866.21	89.2952	1,866.21	90.1773	1,866.21	87.2228	1,866.21	88.6476	1,866.21	85.5514	1,866.21	87.1189	1,866.21	83.1772	1,866.21	83.2156	1,866.21	80.5189	1,866.21	83.4451	1,866.21	79.0984	1,866.21	80.3814	1,866.21	75.8362	1,866.21	77.8519	1,866.21	77.2112	1,866.21	78.5028	1,866.21	73.7788	1,866.21	74.766	1,866.21	77.2491	1,866.21	77.7273	1,866.21	77.5692	1,866.21	73.6904	1,866.21	69.4007	1,866.21	79.6115	1,866.21	70.7131	1,866.21	75.3968	1,866.21	72.5384
1,932.13	90.3613	1,932.13	90.7587	1,932.13	90.3581	1,932.13	91.1218	1,932.13	91.1962	1,932.13	91.1013	1,932.13	91.4302	1,932.13	90.5725	1,932.13	90.8486	1,932.13	89.1735	1,932.13	89.6971	1,932.13	88.1544	1,932.13	88.472	1,932.13	85.5793	1,932.13	85.8984	1,932.13	82.9239	1,932.13	84.8909	1,932.13	81.7504	1,932.13	81.4386	1,932.13	78.2837	1,932.13	80.3498	1,932.13	79.033	1,932.13	79.2294	1,932.13	74.2583	1,932.13	75.2262	1,932.13	77.7024	1,932.13	77.6994	1,932.13	65.4164	1,932.13	72.9399	1,932.13	78.6317	1,932.13	75.5775	1,932.13	76.3119	1,932.13	70.2257	1,932.13	77.5739	1,932.13	77.2287	1,932.13	80.7664
1,999.51	89.7126	1,999.51	90.2002	1,999.51	89.8272	1,999.51	90.8702	1,999.51	90.4336	1,999.51	91.2782	1,999.51	90.78	1,999.51	90.4099	1,999.51	90.4656	1,999.51	89.1936	1,999.51	89.718	1,999.51	87.0016	1,999.51	87.8723	1,999.51	85.5858	1,999.51	86.4703	1,999.51	83.5816	1,999.51	82.8328	1,999.51	80.98	1,999.51	81.6541	1,999.51	80.7291	1,999.51	79.5455	1,999.51	75.3441	1,999.51	76.4688	1,999.51	77.8668	1,999.51	77.0936	1,999.51	74.6517	1,999.51	73.2844	1,999.51	75.9576	1,999.51	75.7591	1,999.51	66.7603	1,999.51	70.5645	1,999.51	77.233	1,999.51	77.9202	1,999.51	75.5669	1,999.51	69.5111	1,999.51	74.2338
2,069.82	90.3251	2,069.82	90.9056	2,069.82	90.5558	2,069.82	91.0751	2,069.82	90.7514	2,069.82	90.6342	2,069.82	90.8528	2,069.82	89.8436	2,069.82	90.4808	2,069.82	88.1235	2,069.82	88.8103	2,069.82	86.4609	2,069.82	87.1414	2,069.82	84.1348	2,069.82	85.1959	2,069.82	81.637	2,069.82	84.3763	2,069.82	80.9429	2,069.82	80.796	2,069.82	77.0606	2,069.82	79.4054	2,069.82	78.9779	2,069.82	77.5798	2,069.82	73.2277	2,069.82	75.4649	2,069.82	76.9414	2,069.82	76.3163	2,069.82	73.0523	2,069.82	75.1544	2,069.82	79.2586	2,069.82	75.0396	2,069.82	64.0832	2,069.82	74.9471	2,069.82	70.7629	2,069.82	76.8556	2,069.82	75.1406
2,143.07	90.2183	2,143.07	90.3896	2,143.07	90.5056	2,143.07	90.9636	2,143.07	90.8804	2,143.07	90.9891	2,143.07	91.2695	2,143.07	90.3491	2,143.07	90.9364	2,143.07	88.6829	2,143.07	90.1123	2,143.07	86.6182	2,143.07	88.5726	2,143.07	85.1298	2,143.07	86.5586	2,143.07	82.2044	2,143.07	83.2595	2,143.07	80.5549	2,143.07	82.2137	2,143.07	77.9697	2,143.07	80.2211	2,143.07	75.3952	2,143.07	78.9377	2,143.07	76.0081	2,143.07	77.3476	2,143.07	77.7548	2,143.07	76.4436	2,143.07	73.4481	2,143.07	76.3702	2,143.07	76.2787	2,143.07	75.0489	2,143.07	78.9978	2,143.07	75.7545	2,143.07	75.7382	2,143.07	77.5141	2,143.07	78.2625
2,219.24	90.8983	2,219.24	91.4575	2,219.24	90.9731	2,219.24	91.9287	2,219.24	91.8209	2,219.24	91.6842	2,219.24	92.2017	2,219.24	90.9261	2,219.24	91.6498	2,219.24	89.6586	2,219.24	90.4685	2,219.24	87.6271	2,219.24	88.3676	2,219.24	85.1276	2,219.24	86.5347	2,219.24	83.6614	2,219.24	85.3087	2,219.24	79.8002	2,219.24	82.1222	2,219.24	81.0239	2,219.24	81.2335	2,219.24	75.3592	2,219.24	77.1237	2,219.24	77.2672	2,219.24	77.6668	2,219.24	73.9642	2,219.24	73.3405	2,219.24	77.2787	2,219.24	77.3585	2,219.24	71.4576	2,219.24	70.8253	2,219.24	74.9366	2,219.24	78.6228	2,219.24	74.0578	2,219.24	62.6896	2,219.24	74.2214
2,296.88	91.1684	2,296.88	91.0215	2,296.88	91.1954	2,296.88	91.5446	2,296.88	91.3704	2,296.88	92.0305	2,296.88	91.2513	2,296.88	91.0475	2,296.88	91.1186	2,296.88	89.2821	2,296.88	89.8221	2,296.88	87.5661	2,296.88	88.1904	2,296.88	85.7641	2,296.88	85.8846	2,296.88	83.1198	2,296.88	84.0915	2,296.88	81.4314	2,296.88	82.0169	2,296.88	78.6678	2,296.88	78.6308	2,296.88	80.1772	2,296.88	78.9449	2,296.88	73.7095	2,296.88	75.7358	2,296.88	77.2532	2,296.88	77.7096	2,296.88	73.5621	2,296.88	75.9989	2,296.88	78.3175	2,296.88	76.0428	2,296.88	65.9884	2,296.88	75.357	2,296.88	72.9272	2,296.88	76.2159	2,296.88	70.804
2,378.91	90.4481	2,378.91	91.1948	2,378.91	90.4077	2,378.91	91.2076	2,378.91	90.3581	2,378.91	89.9652	2,378.91	90.8091	2,378.91	89.5578	2,378.91	89.805	2,378.91	88.4976	2,378.91	88.6262	2,378.91	86.4443	2,378.91	87.2039	2,378.91	83.9194	2,378.91	85.2516	2,378.91	82.7441	2,378.91	82.2532	2,378.91	80.8094	2,378.91	79.8204	2,378.91	78.1905	2,378.91	79.4498	2,378.91	74.9268	2,378.91	76.0513	2,378.91	77.7627	2,378.91	77.0112	2,378.91	74.9404	2,378.91	74.232	2,378.91	74.9752	2,378.91	75.963	2,378.91	76.1619	2,378.91	75.1978	2,378.91	78.3246	2,378.91	72.7542	2,378.91	65.1628	2,378.91	77.4125	2,378.91	76.1532
2,462.4	89.9301	2,462.4	89.4451	2,462.4	90.0127	2,462.4	90.0627	2,462.4	90.3847	2,462.4	90.5583	2,462.4	89.8556	2,462.4	89.267	2,462.4	89.9922	2,462.4	87.7628	2,462.4	89.4892	2,462.4	86.4488	2,462.4	87.7017	2,462.4	84.0208	2,462.4	85.9329	2,462.4	81.652	2,462.4	84.2213	2,462.4	79.3571	2,462.4	82.2888	2,462.4	78.0477	2,462.4	79.3844	2,462.4	74.1528	2,462.4	78.3273	2,462.4	76.4966	2,462.4	74.1738	2,462.4	75.4852	2,462.4	74.773	2,462.4	76.2053	2,462.4	74.705	2,462.4	74.2881	2,462.4	73.4172	2,462.4	74.786	2,462.4	76.7747	2,462.4	60.9929	2,462.4	70.6601	2,462.4	54.0366
2,548.83	92.0678	2,548.83	92.0723	2,548.83	91.8611	2,548.83	91.5194	2,548.83	91.7757	2,548.83	90.9985	2,548.83	92.1234	2,548.83	90.5462	2,548.83	91.3265	2,548.83	89.2189	2,548.83	89.84	2,548.83	86.9693	2,548.83	88.2989	2,548.83	85.3819	2,548.83	86.5496	2,548.83	82.3804	2,548.83	84.2015	2,548.83	80.1244	2,548.83	81.8175	2,548.83	77.705	2,548.83	79.8809	2,548.83	78.9873	2,548.83	77.6799	2,548.83	74.4201	2,548.83	77.2142	2,548.83	75.3376	2,548.83	77.0576	2,548.83	75.6083	2,548.83	76.2573	2,548.83	75.0807	2,548.83	75.7638	2,548.83	72.9181	2,548.83	76.2435	2,548.83	65.5835	2,548.83	72.9333	2,548.83	67.1401
2,639.65	91.3704	2,639.65	90.9461	2,639.65	91.6218	2,639.65	91.559	2,639.65	91.1045	2,639.65	91.3439	2,639.65	90.4765	2,639.65	90.5344	2,639.65	90.3078	2,639.65	89.4003	2,639.65	89.8711	2,639.65	88.0019	2,639.65	88.4564	2,639.65	85.3861	2,639.65	86.3983	2,639.65	83.3068	2,639.65	84.1657	2,639.65	82.1657	2,639.65	81.2413	2,639.65	78.6826	2,639.65	80.0658	2,639.65	75.5027	2,639.65	77.6129	2,639.65	75.317	2,639.65	77.4554	2,639.65	74.3854	2,639.65	76.0964	2,639.65	76.8152	2,639.65	75.6382	2,639.65	74.4483	2,639.65	76.5796	2,639.65	75.5906	2,639.65	76.1831	2,639.65	69.3181	2,639.65	73.6318	2,639.65	65.1318
2,731.93	91.9732	2,731.93	91.5761	2,731.93	91.4085	2,731.93	90.3607	2,731.93	91.2946	2,731.93	90.2697	2,731.93	90.9981	2,731.93	90.4759	2,731.93	90.424	2,731.93	89.4545	2,731.93	89.7098	2,731.93	87.6392	2,731.93	88.864	2,731.93	85.6688	2,731.93	86.7116	2,731.93	83.51	2,731.93	84.6411	2,731.93	80.0536	2,731.93	82.6274	2,731.93	79.2864	2,731.93	79.6963	2,731.93	76.7915	2,731.93	77.9766	2,731.93	77.3548	2,731.93	74.8977	2,731.93	76.1832	2,731.93	75.7557	2,731.93	76.6536	2,731.93	75.7312	2,731.93	74.3464	2,731.93	75.9861	2,731.93	77.3398	2,731.93	75.018	2,731.93	63.1886	2,731.93	73.5253	2,731.93	64.9598
2,828.61	90.7237	2,828.61	90.3892	2,828.61	90.6902	2,828.61	90.8081	2,828.61	89.4606	2,828.61	89.778	2,828.61	89.6157	2,828.61	88.9763	2,828.61	90.1162	2,828.61	89.0559	2,828.61	89.8454	2,828.61	87.2321	2,828.61	87.9348	2,828.61	85.1459	2,828.61	86.4092	2,828.61	82.023	2,828.61	83.061	2,828.61	80.1147	2,828.61	80.1596	2,828.61	77.5163	2,828.61	78.7198	2,828.61	78.2572	2,828.61	75.8653	2,828.61	74.9129	2,828.61	76.2012	2,828.61	75.2076	2,828.61	75.5881	2,828.61	75.6135	2,828.61	75.1879	2,828.61	76.8718	2,828.61	76.2041	2,828.61	75.5973	2,828.61	75.7265	2,828.61	62.7592	2,828.61	74.3667	2,828.61	66.1206
2,928.22	91.2144	2,928.22	89.7065	2,928.22	90.9533	2,928.22	88.1813	2,928.22	90.4376	2,928.22	90.2364	2,928.22	89.3086	2,928.22	90.0795	2,928.22	89.0164	2,928.22	88.7798	2,928.22	89.3148	2,928.22	87.4339	2,928.22	88.659	2,928.22	84.4489	2,928.22	86.6675	2,928.22	82.9873	2,928.22	84.7694	2,928.22	81.0061	2,928.22	82.7913	2,928.22	78.7068	2,928.22	79.5648	2,928.22	73.6264	2,928.22	77.0597	2,928.22	73.9507	2,928.22	77.0495	2,928.22	75.5497	2,928.22	74.8799	2,928.22	77.8074	2,928.22	73.2747	2,928.22	72.2527	2,928.22	76.5435	2,928.22	74.5656	2,928.22	75.6795	2,928.22	66.8675	2,928.22	73.1603	2,928.22	68.6581
3,030.76	92.4228	3,030.76	91.6214	3,030.76	91.8835	3,030.76	90.5376	3,030.76	90.4546	3,030.76	89.3153	3,030.76	90.6503	3,030.76	90.658	3,030.76	91.0548	3,030.76	89.9006	3,030.76	90.462	3,030.76	88.2426	3,030.76	89.4798	3,030.76	86.0461	3,030.76	86.6223	3,030.76	82.9842	3,030.76	84.0285	3,030.76	77.8079	3,030.76	80.1998	3,030.76	77.1306	3,030.76	79.0188	3,030.76	77.4267	3,030.76	78.8713	3,030.76	75.1354	3,030.76	75.2859	3,030.76	73.3853	3,030.76	78.3896	3,030.76	71.8183	3,030.76	76.8511	3,030.76	74.4205	3,030.76	77.8228	3,030.76	77.4079	3,030.76	74.614	3,030.76	55.6447	3,030.76	74.4782	3,030.76	57.8168
3,137.7	91.0511	3,137.7	90.2723	3,137.7	90.9925	3,137.7	90.2235	3,137.7	89.5679	3,137.7	90.7612	3,137.7	89.1771	3,137.7	90.4093	3,137.7	90.3588	3,137.7	90.2304	3,137.7	90.4034	3,137.7	88.4145	3,137.7	88.6795	3,137.7	85.5804	3,137.7	87.6112	3,137.7	83.4338	3,137.7	85.0043	3,137.7	82.2871	3,137.7	82.6522	3,137.7	78.4373	3,137.7	79.6186	3,137.7	76.0709	3,137.7	74.7071	3,137.7	76.8916	3,137.7	75.873	3,137.7	77.2828	3,137.7	69.4272	3,137.7	77.4998	3,137.7	73.8355	3,137.7	77.0648	3,137.7	75.0436	3,137.7	73.4472	3,137.7	76.0448	3,137.7	64.4309	3,137.7	75.9694	3,137.7	65.4002
3,249.02	92.0945	3,249.02	89.5953	3,249.02	91.2109	3,249.02	87.9871	3,249.02	89.8485	3,249.02	89.7135	3,249.02	88.5346	3,249.02	89.4517	3,249.02	89.3904	3,249.02	88.9745	3,249.02	89.8423	3,249.02	86.8585	3,249.02	88.0461	3,249.02	85.0868	3,249.02	85.3005	3,249.02	81.3779	3,249.02	81.8664	3,249.02	79.1122	3,249.02	80.4248	3,249.02	78.1008	3,249.02	77.3828	3,249.02	74.3874	3,249.02	77.5099	3,249.02	73.0781	3,249.02	75.4903	3,249.02	75.955	3,249.02	77.0424	3,249.02	75.9028	3,249.02	75.4034	3,249.02	73.533	3,249.02	77.4882	3,249.02	76.3349	3,249.02	74.4411	3,249.02	69.0112	3,249.02	73.3468	3,249.02	60.1854
3,363.28	90.6863	3,363.28	90.5184	3,363.28	90.6859	3,363.28	88.6939	3,363.28	89.3585	3,363.28	88.181	3,363.28	89.4659	3,363.28	90.0419	3,363.28	88.7592	3,363.28	88.104	3,363.28	88.1032	3,363.28	86.1645	3,363.28	87.827	3,363.28	82.5547	3,363.28	85.3984	3,363.28	80.5319	3,363.28	83.5828	3,363.28	77.0404	3,363.28	79.9246	3,363.28	73.3593	3,363.28	77.196	3,363.28	74.9438	3,363.28	74.8404	3,363.28	74.5733	3,363.28	72.4595	3,363.28	70.2797	3,363.28	74.2728	3,363.28	69.1894	3,363.28	74.543	3,363.28	75.6136	3,363.28	71.8712	3,363.28	74.6748	3,363.28	72.5844	3,363.28	54.9507	3,363.28	72.7519	3,363.28	57.0018
3,481.93	90.8832	3,481.93	89.5155	3,481.93	89.8486	3,481.93	88.9335	3,481.93	88.5826	3,481.93	88.7684	3,481.93	87.7989	3,481.93	88.0177	3,481.93	89.8226	3,481.93	87.4861	3,481.93	88.6019	3,481.93	86.5306	3,481.93	86.7561	3,481.93	84.3597	3,481.93	83.796	3,481.93	81.8932	3,481.93	81.6842	3,481.93	80.31	3,481.93	80.2176	3,481.93	77.721	3,481.93	76.4555	3,481.93	72.6342	3,481.93	73.778	3,481.93	71.885	3,481.93	73.9774	3,481.93	75.4886	3,481.93	72.0115	3,481.93	75.1129	3,481.93	72.3721	3,481.93	72.3461	3,481.93	75.4993	3,481.93	70.1474	3,481.93	72.536	3,481.93	67.7031	3,481.93	73.3137	3,481.93	59.9117
3,604.98	90.2326	3,604.98	89.4389	3,604.98	90.689	3,604.98	88.6757	3,604.98	88.6509	3,604.98	88.3345	3,604.98	88.0178	3,604.98	89.1561	3,604.98	86.8957	3,604.98	88.2566	3,604.98	88.1801	3,604.98	85.3384	3,604.98	85.9946	3,604.98	82.755	3,604.98	85.4717	3,604.98	80.4955	3,604.98	83.2448	3,604.98	76.3595	3,604.98	78.7654	3,604.98	74.5386	3,604.98	77.4942	3,604.98	74.9541	3,604.98	76.4229	3,604.98	73.0437	3,604.98	73.6572	3,604.98	70.2586	3,604.98	75.5929	3,604.98	71.0459	3,604.98	75.2188	3,604.98	75.9138	3,604.98	72.4192	3,604.98	75.0319	3,604.98	72.5998	3,604.98	60.8345	3,604.98	71.5385	3,604.98	59.3129
3,732.42	91.4979	3,732.42	89.7352	3,732.42	90.7749	3,732.42	88.6597	3,732.42	90.3688	3,732.42	89.0161	3,732.42	88.7987	3,732.42	87.2203	3,732.42	89.4119	3,732.42	87.6638	3,732.42	88.5576	3,732.42	85.9905	3,732.42	87.3423	3,732.42	84.1999	3,732.42	85.4521	3,732.42	81.9961	3,732.42	82.4693	3,732.42	80.2	3,732.42	81.2402	3,732.42	76.2401	3,732.42	76.6861	3,732.42	72.3653	3,732.42	73.8469	3,732.42	73.1242	3,732.42	73.1654	3,732.42	74.3238	3,732.42	68.8329	3,732.42	74.2192	3,732.42	70.9631	3,732.42	73.8632	3,732.42	74.2574	3,732.42	71.7521	3,732.42	73.2988	3,732.42	57.0568	3,732.42	72.5014	3,732.42	63.6782
3,864.26	89.698	3,864.26	90.1245	3,864.26	90.2627	3,864.26	88.4418	3,864.26	89.0121	3,864.26	87.7314	3,864.26	87.8137	3,864.26	88.6314	3,864.26	85.9784	3,864.26	87.7706	3,864.26	86.8165	3,864.26	85.9246	3,864.26	85.8433	3,864.26	84.4218	3,864.26	84.2241	3,864.26	80.4534	3,864.26	81.6064	3,864.26	76.3104	3,864.26	77.7753	3,864.26	75.6956	3,864.26	76.865	3,864.26	74.1733	3,864.26	74.7749	3,864.26	69.937	3,864.26	72.9869	3,864.26	71.8638	3,864.26	73.8539	3,864.26	74.1459	3,864.26	73.7159	3,864.26	73.4754	3,864.26	71.347	3,864.26	71.4613	3,864.26	71.6473	3,864.26	60.4643	3,864.26	70.0672	3,864.26	54.7484
4,000.49	89.7576	4,000.49	89.5635	4,000.49	89.4164	4,000.49	88.6711	4,000.49	89.9454	4,000.49	86.9496	4,000.49	88.4468	4,000.49	86.1375	4,000.49	88.476	4,000.49	86.4325	4,000.49	87.0939	4,000.49	85.2039	4,000.49	87.2803	4,000.49	82.606	4,000.49	85.1312	4,000.49	81.1121	4,000.49	82.2694	4,000.49	79.4986	4,000.49	80.455	4,000.49	75.066	4,000.49	75.8471	4,000.49	72.8317	4,000.49	73.798	4,000.49	74.309	4,000.49	71.9286	4,000.49	72.0684	4,000.49	69.1467	4,000.49	71.8033	4,000.49	69.3897	4,000.49	74.9966	4,000.49	72.3552	4,000.49	71.9419	4,000.49	73.6936	4,000.49	60.4458	4,000.49	71.3465	4,000.49	66.3827
4,141.11	90.0611	4,141.11	90.8555	4,141.11	90.8881	4,141.11	89.571	4,141.11	89.6608	4,141.11	87.4846	4,141.11	88.1407	4,141.11	88.3718	4,141.11	86.9103	4,141.11	88.4555	4,141.11	87.476	4,141.11	86.6011	4,141.11	86.9601	4,141.11	84.6906	4,141.11	84.7456	4,141.11	80.9407	4,141.11	82.0042	4,141.11	75.7227	4,141.11	78.1594	4,141.11	74.0897	4,141.11	77.2538	4,141.11	72.337	4,141.11	73.7806	4,141.11	67.7193	4,141.11	73.3453	4,141.11	72.6865	4,141.11	72.4721	4,141.11	74.3369	4,141.11	73.8113	4,141.11	70.7108	4,141.11	72.7888	4,141.11	67.2964	4,141.11	72.0256	4,141.11	63.7939	4,141.11	69.3706	4,141.11	62.9302
4,287.6	89.0254	4,287.6	89.3164	4,287.6	89.0417	4,287.6	88.823	4,287.6	89.8451	4,287.6	86.5169	4,287.6	87.6453	4,287.6	86.6031	4,287.6	86.5876	4,287.6	86.5607	4,287.6	87.0251	4,287.6	85.8788	4,287.6	86.6278	4,287.6	82.6205	4,287.6	84.9329	4,287.6	80.7337	4,287.6	81.3084	4,287.6	78.6927	4,287.6	79.5674	4,287.6	75.1762	4,287.6	74.5401	4,287.6	73.3393	4,287.6	72.4727	4,287.6	73.9944	4,287.6	69.8959	4,287.6	71.166	4,287.6	69.464	4,287.6	71.823	4,287.6	68.6445	4,287.6	74.4411	4,287.6	71.8959	4,287.6	70.3149	4,287.6	72.714	4,287.6	56.815	4,287.6	68.6427	4,287.6	66.048
4,438.48	89.9872	4,438.48	90.3925	4,438.48	90.5652	4,438.48	88.9729	4,438.48	89.9153	4,438.48	87.0211	4,438.48	87.4914	4,438.48	86.959	4,438.48	87.0051	4,438.48	87.7982	4,438.48	86.9258	4,438.48	85.0724	4,438.48	86.1814	4,438.48	82.5877	4,438.48	84.084	4,438.48	78.9609	4,438.48	81.7729	4,438.48	74.5073	4,438.48	77.5355	4,438.48	73.1235	4,438.48	76.9013	4,438.48	70.1137	4,438.48	72.9657	4,438.48	68.1472	4,438.48	71.584	4,438.48	71.6607	4,438.48	71.1829	4,438.48	72.9065	4,438.48	72.3374	4,438.48	69.2322	4,438.48	72.5386	4,438.48	66.5007	4,438.48	71.8794	4,438.48	60.5299	4,438.48	67.625	4,438.48	61.5548
4,595.21	90.0052	4,595.21	90.565	4,595.21	90.5365	4,595.21	89.3126	4,595.21	90.5536	4,595.21	87.1361	4,595.21	88.5341	4,595.21	87.6415	4,595.21	87.0005	4,595.21	86.8749	4,595.21	87.6826	4,595.21	86.5232	4,595.21	86.9861	4,595.21	83.7957	4,595.21	84.6702	4,595.21	80.5628	4,595.21	81.5479	4,595.21	78.6441	4,595.21	79.3421	4,595.21	74.5707	4,595.21	74.8219	4,595.21	72.608	4,595.21	72.8341	4,595.21	72.0959	4,595.21	70.2633	4,595.21	69.8503	4,595.21	70.1742	4,595.21	70.8704	4,595.21	70.0401	4,595.21	72.94	4,595.21	72.0298	4,595.21	65.4738	4,595.21	72.4485	4,595.21	56.3922	4,595.21	66.7387	4,595.21	66.3271
4,756.35	89.787	4,756.35	90.0276	4,756.35	90.0129	4,756.35	88.592	4,756.35	90.0196	4,756.35	87.4454	4,756.35	87.2584	4,756.35	86.216	4,756.35	86.6793	4,756.35	87.2985	4,756.35	86.3899	4,756.35	84.7966	4,756.35	85.6188	4,756.35	81.9171	4,756.35	84.235	4,756.35	79.7885	4,756.35	81.6902	4,756.35	76.1157	4,756.35	78.1289	4,756.35	74.9533	4,756.35	75.8455	4,756.35	71.3811	4,756.35	73.3683	4,756.35	69.7959	4,756.35	70.4474	4,756.35	71.6354	4,756.35	69.1907	4,756.35	72.038	4,756.35	71.4674	4,756.35	70.306	4,756.35	72.9614	4,756.35	67.7241	4,756.35	71.5402	4,756.35	50.985	4,756.35	66.3136	4,756.35	64.8281
4,924.8	90.0714	4,924.8	89.9485	4,924.8	90.2802	4,924.8	89.1597	4,924.8	89.422	4,924.8	87.1833	4,924.8	88.8528	4,924.8	86.9764	4,924.8	87.0513	4,924.8	86.4395	4,924.8	86.7948	4,924.8	85.2954	4,924.8	86.1101	4,924.8	83.9762	4,924.8	83.9628	4,924.8	79.9093	4,924.8	81.3236	4,924.8	77.7841	4,924.8	79.53	4,924.8	73.508	4,924.8	75.4683	4,924.8	71.2983	4,924.8	71.8513	4,924.8	70.546	4,924.8	70.4875	4,924.8	70.118	4,924.8	70.5329	4,924.8	71.7227	4,924.8	70.0886	4,924.8	72.2766	4,924.8	72.6113	4,924.8	64.653	4,924.8	72.9108	4,924.8	56.8368	4,924.8	62.4147	4,924.8	67.448
5,097.66	90.2477	5,097.66	90.232	5,097.66	90.4025	5,097.66	89.3609	5,097.66	90.321	5,097.66	88.0442	5,097.66	88.953	5,097.66	86.5365	5,097.66	87.2599	5,097.66	86.6409	5,097.66	86.9994	5,097.66	85.8064	5,097.66	86.835	5,097.66	82.9698	5,097.66	85.7541	5,097.66	80.6456	5,097.66	82.8613	5,097.66	76.6502	5,097.66	79.5095	5,097.66	74.9963	5,097.66	76.0088	5,097.66	71.3281	5,097.66	74.1899	5,097.66	70.2694	5,097.66	70.9022	5,097.66	69.3586	5,097.66	69.9982	5,097.66	69.3373	5,097.66	71.6074	5,097.66	70.767	5,097.66	71.975	5,097.66	65.7835	5,097.66	68.7131	5,097.66	41.9264	5,097.66	64.6376	5,097.66	64.1795
5,277.83	91.0611	5,277.83	90.0576	5,277.83	90.4791	5,277.83	90.1826	5,277.83	90.1949	5,277.83	88.9753	5,277.83	89.3622	5,277.83	87.3807	5,277.83	87.3836	5,277.83	87.597	5,277.83	87.348	5,277.83	86.8274	5,277.83	87.0621	5,277.83	84.7984	5,277.83	85.5923	5,277.83	81.1582	5,277.83	82.5971	5,277.83	77.5021	5,277.83	78.2266	5,277.83	73.2802	5,277.83	76.0191	5,277.83	71.7325	5,277.83	72.1103	5,277.83	69.8276	5,277.83	70.7581	5,277.83	71.2643	5,277.83	68.5534	5,277.83	71.8338	5,277.83	70.5425	5,277.83	72.3755	5,277.83	73.3164	5,277.83	66.7221	5,277.83	72.041	5,277.83	56.5223	5,277.83	56.8648	5,277.83	67.1679
5,463.87	90.8071	5,463.87	89.5405	5,463.87	90.093	5,463.87	90.1708	5,463.87	89.5483	5,463.87	88.5154	5,463.87	90.4459	5,463.87	87.0235	5,463.87	87.9894	5,463.87	87.3806	5,463.87	87.3276	5,463.87	85.9855	5,463.87	87.4549	5,463.87	83.1727	5,463.87	85.4238	5,463.87	80.0424	5,463.87	81.6808	5,463.87	77.1327	5,463.87	79.0937	5,463.87	74.5528	5,463.87	75.6466	5,463.87	71.7844	5,463.87	71.5955	5,463.87	70.341	5,463.87	71.783	5,463.87	68.1996	5,463.87	69.6344	5,463.87	71.7568	5,463.87	71.5312	5,463.87	70.4301	5,463.87	70.3296	5,463.87	64.8231	5,463.87	69.0414	5,463.87	39.5068	5,463.87	64.3972	5,463.87	64.0099
5,657.23	91.2617	5,657.23	90.8646	5,657.23	90.6094	5,657.23	91.1531	5,657.23	90.8621	5,657.23	89.8417	5,657.23	90.6013	5,657.23	87.8223	5,657.23	88.9735	5,657.23	87.9569	5,657.23	88.1045	5,657.23	86.8119	5,657.23	87.8916	5,657.23	83.8726	5,657.23	85.2517	5,657.23	80.4876	5,657.23	81.8002	5,657.23	76.6195	5,657.23	79.0767	5,657.23	74.1794	5,657.23	73.838	5,657.23	68.6023	5,657.23	72.777	5,657.23	68.1378	5,657.23	66.8003	5,657.23	69.2654	5,657.23	69.4829	5,657.23	70.8619	5,657.23	69.3266	5,657.23	70.8448	5,657.23	72.3406	5,657.23	64.1315	5,657.23	68.5952	5,657.23	57.0253	5,657.23	53.8356	5,657.23	67.1423
5,856.45	91.0104	5,856.45	90.2407	5,856.45	90.2702	5,856.45	90.8645	5,856.45	90.4979	5,856.45	89.3161	5,856.45	90.6124	5,856.45	87.5033	5,856.45	88.8887	5,856.45	87.5014	5,856.45	87.914	5,856.45	85.4306	5,856.45	86.6148	5,856.45	82.914	5,856.45	84.8209	5,856.45	79.8407	5,856.45	82.149	5,856.45	76.8297	5,856.45	77.4341	5,856.45	73.0287	5,856.45	75.3393	5,856.45	70.9243	5,856.45	70.4888	5,856.45	69.0963	5,856.45	71.5065	5,856.45	70.5553	5,856.45	68.2033	5,856.45	71.8678	5,856.45	69.4951	5,856.45	72.0816	5,856.45	70.8186	5,856.45	67.0184	5,856.45	69.4581	5,856.45	61.0129	5,856.45	59.7695	5,856.45	65.7141
6,062.99	90.7827	6,062.99	89.9864	6,062.99	90.1895	6,062.99	90.8916	6,062.99	90.2164	6,062.99	89.4171	6,062.99	90.4777	6,062.99	87.6637	6,062.99	88.8063	6,062.99	86.5563	6,062.99	87.2895	6,062.99	85.2431	6,062.99	86.3203	6,062.99	83.3141	6,062.99	84.3843	6,062.99	80.3862	6,062.99	81.0411	6,062.99	76.7452	6,062.99	78.3604	6,062.99	73.2118	6,062.99	76.1782	6,062.99	71.1495	6,062.99	72.2611	6,062.99	67.721	6,062.99	71.459	6,062.99	66.5125	6,062.99	67.2987	6,062.99	70.54	6,062.99	69.4758	6,062.99	69.8248	6,062.99	70.2744	6,062.99	61.578	6,062.99	69.0746	6,062.99	62.082	6,062.99	58.5864	6,062.99	59.8404
6,276.86	89.9547	6,276.86	90.4681	6,276.86	89.8154	6,276.86	90.3892	6,276.86	89.9655	6,276.86	89.9138	6,276.86	90.4373	6,276.86	87.1952	6,276.86	89.0163	6,276.86	85.8875	6,276.86	86.7951	6,276.86	85.0884	6,276.86	85.447	6,276.86	82.9847	6,276.86	84.9016	6,276.86	79.7369	6,276.86	82.3004	6,276.86	76.76	6,276.86	79.0336	6,276.86	73.5659	6,276.86	75.0215	6,276.86	70.2656	6,276.86	71.6166	6,276.86	67.1011	6,276.86	68.8937	6,276.86	68.2288	6,276.86	67.3145	6,276.86	71.095	6,276.86	67.5434	6,276.86	71.4856	6,276.86	70.7322	6,276.86	64.8622	6,276.86	68.2581	6,276.86	63.8785	6,276.86	50.7829	6,276.86	65.883
6,498.05	89.1086	6,498.05	90.0037	6,498.05	89.4057	6,498.05	89.8277	6,498.05	89.7068	6,498.05	89.6313	6,498.05	90.2373	6,498.05	86.655	6,498.05	88.2725	6,498.05	86.0243	6,498.05	86.373	6,498.05	85.5164	6,498.05	86.0491	6,498.05	82.9073	6,498.05	85.2099	6,498.05	79.6825	6,498.05	82.0368	6,498.05	75.8748	6,498.05	78.323	6,498.05	72.6929	6,498.05	75.0049	6,498.05	68.087	6,498.05	71.544	6,498.05	66.273	6,498.05	68.3869	6,498.05	69.3456	6,498.05	67.5714	6,498.05	71.014	6,498.05	68.8111	6,498.05	69.9233	6,498.05	70.705	6,498.05	62.2582	6,498.05	69.8129	6,498.05	63.5593	6,498.05	59.8057	6,498.05	66.3946
6,726.56	88.8464	6,726.56	89.8449	6,726.56	89.6817	6,726.56	89.9175	6,726.56	89.6959	6,726.56	89.8272	6,726.56	89.8571	6,726.56	86.8261	6,726.56	88.6945	6,726.56	86.3395	6,726.56	86.0271	6,726.56	85.7996	6,726.56	86.6972	6,726.56	83.5442	6,726.56	85.5972	6,726.56	80.0102	6,726.56	82.7268	6,726.56	75.8665	6,726.56	78.3443	6,726.56	72.0077	6,726.56	75.0437	6,726.56	68.4504	6,726.56	72.4272	6,726.56	67.7636	6,726.56	69.1552	6,726.56	68.1539	6,726.56	66.537	6,726.56	69.9537	6,726.56	68.9668	6,726.56	70.3453	6,726.56	70.3012	6,726.56	61.1456	6,726.56	69.8314	6,726.56	65.0937	6,726.56	55.744	6,726.56	63.1963
6,963.87	87.5371	6,963.87	89.3551	6,963.87	88.325	6,963.87	88.7075	6,963.87	88.5615	6,963.87	89.0482	6,963.87	89.3042	6,963.87	86.8816	6,963.87	87.806	6,963.87	86.3417	6,963.87	86.5054	6,963.87	84.7939	6,963.87	85.9399	6,963.87	82.2833	6,963.87	84.6337	6,963.87	79.4645	6,963.87	81.4295	6,963.87	75.6363	6,963.87	77.6426	6,963.87	72.1754	6,963.87	74.7537	6,963.87	69.3496	6,963.87	70.3168	6,963.87	66.4588	6,963.87	68.5057	6,963.87	67.2948	6,963.87	65.2957	6,963.87	69.9446	6,963.87	67.9308	6,963.87	69.778	6,963.87	69.386	6,963.87	62.4565	6,963.87	66.9718	6,963.87	65.8876	6,963.87	48.7873	6,963.87	54.548
7,209.96	88.3823	7,209.96	88.9772	7,209.96	89.1559	7,209.96	89.5202	7,209.96	89.1394	7,209.96	89.5564	7,209.96	89.389	7,209.96	87.6486	7,209.96	88.8686	7,209.96	86.7062	7,209.96	87.131	7,209.96	85.7282	7,209.96	86.4174	7,209.96	83.7114	7,209.96	84.9707	7,209.96	80.1978	7,209.96	81.6491	7,209.96	76.2043	7,209.96	77.8626	7,209.96	72.5523	7,209.96	74.6719	7,209.96	69.6713	7,209.96	70.6924	7,209.96	64.9658	7,209.96	68.2116	7,209.96	66.996	7,209.96	66.3225	7,209.96	69.3336	7,209.96	68.399	7,209.96	69.0576	7,209.96	69.8992	7,209.96	56.2833	7,209.96	67.7844	7,209.96	65.4383	7,209.96	57.3298	7,209.96	60.3283
7,464.84	87.6359	7,464.84	88.5752	7,464.84	87.5782	7,464.84	88.6313	7,464.84	88.5456	7,464.84	88.8575	7,464.84	88.8767	7,464.84	87.1667	7,464.84	88.154	7,464.84	85.7463	7,464.84	86.6209	7,464.84	84.6465	7,464.84	85.2996	7,464.84	82.5541	7,464.84	84.1531	7,464.84	78.6767	7,464.84	80.6715	7,464.84	74.8177	7,464.84	76.8795	7,464.84	71.5436	7,464.84	72.9342	7,464.84	68.3241	7,464.84	69.6967	7,464.84	64.8337	7,464.84	66.7123	7,464.84	65.1637	7,464.84	64.8147	7,464.84	67.618	7,464.84	65.988	7,464.84	68.4488	7,464.84	68.5564	7,464.84	53.6035	7,464.84	67.5273	7,464.84	63.3764	7,464.84	59.2896	7,464.84	59.0868
7,727.05	88.6355	7,727.05	88.8697	7,727.05	88.6245	7,727.05	89.0937	7,727.05	89.1967	7,727.05	89.0989	7,727.05	88.4722	7,727.05	87.1167	7,727.05	88.6582	7,727.05	85.5874	7,727.05	86.576	7,727.05	84.5869	7,727.05	85.13	7,727.05	82.277	7,727.05	83.8334	7,727.05	78.4562	7,727.05	80.9034	7,727.05	74.3811	7,727.05	76.394	7,727.05	70.3533	7,727.05	72.674	7,727.05	67.4684	7,727.05	68.5938	7,727.05	64.8183	7,727.05	64.8573	7,727.05	64.7899	7,727.05	64.0139	7,727.05	67.7581	7,727.05	65.7355	7,727.05	66.9111	7,727.05	68.1822	7,727.05	56.1488	7,727.05	66.9954	7,727.05	63.3051	7,727.05	57.8948	7,727.05	58.8812
7,999.51	89.9558	7,999.51	89.6953	7,999.51	89.545	7,999.51	88.8912	7,999.51	89.7977	7,999.51	88.3103	7,999.51	88.3455	7,999.51	86.7582	7,999.51	88.064	7,999.51	85.0928	7,999.51	85.6389	7,999.51	84.0735	7,999.51	84.7781	7,999.51	81.4282	7,999.51	83.0948	7,999.51	77.8135	7,999.51	80.11	7,999.51	73.6397	7,999.51	75.9813	7,999.51	69.9844	7,999.51	71.981	7,999.51	66.3066	7,999.51	68.2313	7,999.51	64.5742	7,999.51	64.7582	7,999.51	64.1684	7,999.51	61.6109	7,999.51	67.4065	7,999.51	64.4953	7,999.51	65.9603	7,999.51	66.8716	7,999.51	56.7508	7,999.51	65.69	7,999.51	65.4173	7,999.51	51.7029	7,999.51	59.3149
8,282.23	90.2118	8,282.23	89.8708	8,282.23	89.7437	8,282.23	88.9992	8,282.23	89.6477	8,282.23	88.5192	8,282.23	88.2307	8,282.23	87.0202	8,282.23	87.9122	8,282.23	85.5716	8,282.23	86.3334	8,282.23	83.8537	8,282.23	84.6507	8,282.23	81.41	8,282.23	82.7811	8,282.23	77.1793	8,282.23	79.4138	8,282.23	72.8479	8,282.23	75.4834	8,282.23	69.3863	8,282.23	71.3626	8,282.23	65.9551	8,282.23	68.4424	8,282.23	63.6759	8,282.23	63.7099	8,282.23	63.7702	8,282.23	60.4797	8,282.23	65.9991	8,282.23	63.7261	8,282.23	65.8667	8,282.23	67.0395	8,282.23	55.0359	8,282.23	65.7043	8,282.23	66.6731	8,282.23	56.9435	8,282.23	57.3458
8,573.73	89.9849	8,573.73	89.4989	8,573.73	89.8529	8,573.73	88.8616	8,573.73	89.2469	8,573.73	88.274	8,573.73	88.2571	8,573.73	87.2173	8,573.73	88.1705	8,573.73	85.2666	8,573.73	86.6949	8,573.73	83.0996	8,573.73	84.2007	8,573.73	80.7829	8,573.73	82.5237	8,573.73	76.4627	8,573.73	79.1771	8,573.73	72.2325	8,573.73	75.2315	8,573.73	67.895	8,573.73	70.8082	8,573.73	65.6114	8,573.73	66.8607	8,573.73	61.452	8,573.73	62.6291	8,573.73	61.9373	8,573.73	58.6487	8,573.73	65.5576	8,573.73	62.3887	8,573.73	65.9609	8,573.73	66.5202	8,573.73	48.4281	8,573.73	64.902	8,573.73	65.0576	8,573.73	59.888	8,573.73	56.4341
8,876.95	89.6769	8,876.95	89.0467	8,876.95	89.683	8,876.95	88.9327	8,876.95	88.8507	8,876.95	88.3623	8,876.95	88.4013	8,876.95	87.3132	8,876.95	88.0353	8,876.95	84.7617	8,876.95	86.2166	8,876.95	82.94	8,876.95	83.3898	8,876.95	80.0728	8,876.95	81.8122	8,876.95	76.4985	8,876.95	78.3497	8,876.95	71.4846	8,876.95	74.6696	8,876.95	68.0823	8,876.95	70.2243	8,876.95	64.1973	8,876.95	66.9163	8,876.95	60.7837	8,876.95	63.5328	8,876.95	57.9289	8,876.95	56.7188	8,876.95	65.2676	8,876.95	62.691	8,876.95	66.3554	8,876.95	66.424	8,876.95	46.2293	8,876.95	64.6665	8,876.95	64.7209	8,876.95	58.6179	8,876.95	56.0683
9,188.96	90.0059	9,188.96	89.3355	9,188.96	89.9559	9,188.96	89.5005	9,188.96	89.2781	9,188.96	88.5129	9,188.96	89.0477	9,188.96	87.4622	9,188.96	88.3383	9,188.96	84.6595	9,188.96	86.1018	9,188.96	82.8903	9,188.96	83.7841	9,188.96	80.159	9,188.96	81.8037	9,188.96	76.462	9,188.96	78.7751	9,188.96	72.3083	9,188.96	74.2907	9,188.96	67.6983	9,188.96	71.1593	9,188.96	64.0242	9,188.96	67.1233	9,188.96	57.2141	9,188.96	62.8711	9,188.96	52.4952	9,188.96	52.8721	9,188.96	64.7204	9,188.96	60.1072	9,188.96	65.3973	9,188.96	66.191	9,188.96	49.3692	9,188.96	64.0797	9,188.96	64.2478	9,188.96	58.0555	9,188.96	50.7211
9,514.16	89.9705	9,514.16	89.3259	9,514.16	89.928	9,514.16	89.398	9,514.16	89.1133	9,514.16	88.6443	9,514.16	88.9557	9,514.16	86.906	9,514.16	88.0441	9,514.16	84.3562	9,514.16	85.6916	9,514.16	82.2818	9,514.16	83.5075	9,514.16	80.2421	9,514.16	81.5622	9,514.16	77.3041	9,514.16	79.1865	9,514.16	72.4234	9,514.16	74.86	9,514.16	67.9617	9,514.16	70.8157	9,514.16	65.2387	9,514.16	67.7694	9,514.16	59.432	9,514.16	64.2505	9,514.16	54.1271	9,514.16	56.2346	9,514.16	63.4146	9,514.16	56.4712	9,514.16	64.9231	9,514.16	64.9272	9,514.16	49.6353	9,514.16	62.669	9,514.16	63.085	9,514.16	55.3754	9,514.16	48.9367
9,849.61	90.1678	9,849.61	89.2847	9,849.61	89.8697	9,849.61	89.3733	9,849.61	89.0561	9,849.61	88.9899	9,849.61	89.017	9,849.61	87.073	9,849.61	87.9691	9,849.61	84.5192	9,849.61	85.6299	9,849.61	82.8429	9,849.61	82.8901	9,849.61	80.93	9,849.61	81.7636	9,849.61	77.4309	9,849.61	78.6422	9,849.61	73.3088	9,849.61	74.6235	9,849.61	68.948	9,849.61	70.9261	9,849.61	65.4672	9,849.61	66.8329	9,849.61	60.962	9,849.61	64.3488	9,849.61	57.1747	9,849.61	57.8616	9,849.61	63.5547	9,849.61	54.2412	9,849.61	65.1601	9,849.61	65.3543	9,849.61	51.535	9,849.61	62.0297	9,849.61	61.5258	9,849.61	56.6517	9,849.61	52.6841
10,196.8	90.1097	10,196.8	89.5005	10,196.8	89.8409	10,196.8	89.4131	10,196.8	89.2793	10,196.8	88.8219	10,196.8	89.342	10,196.8	86.8678	10,196.8	87.6187	10,196.8	84.2789	10,196.8	85.5557	10,196.8	82.7039	10,196.8	82.583	10,196.8	80.4195	10,196.8	81.5563	10,196.8	77.0892	10,196.8	78.0728	10,196.8	72.2852	10,196.8	74.1871	10,196.8	68.7922	10,196.8	70.211	10,196.8	64.4567	10,196.8	65.8782	10,196.8	59.3802	10,196.8	62.5095	10,196.8	56.6332	10,196.8	57.6523	10,196.8	62.6586	10,196.8	52.1288	10,196.8	63.1151	10,196.8	62.8979	10,196.8	54.9533	10,196.8	61.2581	10,196.8	58.6411	10,196.8	58.2705	10,196.8	53.746
10,555.7	89.8397	10,555.7	89.3667	10,555.7	89.4622	10,555.7	89.2679	10,555.7	89.0275	10,555.7	88.3213	10,555.7	89.1227	10,555.7	86.1255	10,555.7	86.8607	10,555.7	83.3761	10,555.7	85.2253	10,555.7	82.4697	10,555.7	82.7206	10,555.7	80.3725	10,555.7	81.3537	10,555.7	76.8947	10,555.7	78.6489	10,555.7	71.4916	10,555.7	74.1936	10,555.7	67.2106	10,555.7	69.6773	10,555.7	63.981	10,555.7	65.1027	10,555.7	58.0761	10,555.7	63.1771	10,555.7	57.3094	10,555.7	57.9802	10,555.7	62.3165	10,555.7	48.98	10,555.7	60.8613	10,555.7	61.7616	10,555.7	52.737	10,555.7	59.5421	10,555.7	57.3616	10,555.7	58.504	10,555.7	52.3798
10,927.7	89.3232	10,927.7	89.0416	10,927.7	89.0041	10,927.7	89.0255	10,927.7	88.6431	10,927.7	88.0818	10,927.7	88.7909	10,927.7	86.0157	10,927.7	86.8828	10,927.7	83.7409	10,927.7	85.2672	10,927.7	81.7667	10,927.7	82.5461	10,927.7	79.8031	10,927.7	81.4928	10,927.7	76.1829	10,927.7	78.2605	10,927.7	70.3219	10,927.7	73.0626	10,927.7	66.7014	10,927.7	67.957	10,927.7	63.0276	10,927.7	63.216	10,927.7	56.196	10,927.7	62.8918	10,927.7	53.3084	10,927.7	56.5051	10,927.7	61.971	10,927.7	48.7392	10,927.7	59.8026	10,927.7	60.1163	10,927.7	54.1142	10,927.7	54.0822	10,927.7	57.8087	10,927.7	60.1397	10,927.7	40.8486
11,313	89.3183	11,313	89.2387	11,313	89.1147	11,313	88.9445	11,313	89.1883	11,313	88.1547	11,313	88.5282	11,313	85.8963	11,313	86.8908	11,313	84.029	11,313	85.4239	11,313	81.9576	11,313	82.0015	11,313	78.1231	11,313	80.6473	11,313	74.4886	11,313	75.5519	11,313	69.3154	11,313	71.0253	11,313	64.1486	11,313	68.2243	11,313	60.096	11,313	62.7545	11,313	57.6141	11,313	61.1484	11,313	50.0201	11,313	56.1387	11,313	60.0133	11,313	39.7462	11,313	59.069	11,313	60.8427	11,313	53.1091	11,313	56.1175	11,313	58.0879	11,313	58.1794	11,313	46.8018
11,712.9	89.6194	11,712.9	89.6784	11,712.9	89.682	11,712.9	88.9366	11,712.9	89.3326	11,712.9	87.7799	11,712.9	88.1984	11,712.9	86.3271	11,712.9	86.7256	11,712.9	84.1038	11,712.9	85.6995	11,712.9	81.1855	11,712.9	82.5806	11,712.9	77.8015	11,712.9	79.6601	11,712.9	72.8783	11,712.9	75.2072	11,712.9	68.6267	11,712.9	71.0213	11,712.9	64.8179	11,712.9	66.3529	11,712.9	58.9782	11,712.9	63.2709	11,712.9	57.9697	11,712.9	59.0696	11,712.9	51.5735	11,712.9	55.105	11,712.9	56.9148	11,712.9	42.0374	11,712.9	56.756	11,712.9	60.4819	11,712.9	44.2309	11,712.9	55.0236	11,712.9	54.5516	11,712.9	52.2131	11,712.9	50.0294
12,126	90.1644	12,126	89.9511	12,126	90.0922	12,126	88.8274	12,126	89.4635	12,126	87.7654	12,126	88.0785	12,126	86.6802	12,126	86.9759	12,126	84.1904	12,126	85.8374	12,126	80.1859	12,126	81.8065	12,126	76.4454	12,126	78.9897	12,126	72.826	12,126	75.54	12,126	69.1107	12,126	71.3003	12,126	62.3086	12,126	65.8543	12,126	58.5799	12,126	63.1555	12,126	59.3248	12,126	60.3085	12,126	52.1407	12,126	55.9821	12,126	57.391	12,126	52.3287	12,126	55.8252	12,126	57.1706	12,126	41.54	12,126	54.5971	12,126	55.6654	12,126	55.7104	12,126	47.137
12,553.7	90.2902	12,553.7	90.3349	12,553.7	90.5541	12,553.7	88.5516	12,553.7	89.2419	12,553.7	87.5801	12,553.7	87.6368	12,553.7	86.916	12,553.7	87.2365	12,553.7	83.8044	12,553.7	85.5891	12,553.7	79.1913	12,553.7	80.6429	12,553.7	77.3765	12,553.7	79.1319	12,553.7	73.0453	12,553.7	76.4121	12,553.7	70.1344	12,553.7	72.0734	12,553.7	64.833	12,553.7	67.9096	12,553.7	61.6099	12,553.7	65.7334	12,553.7	62.337	12,553.7	61.1529	12,553.7	53.7806	12,553.7	61.6303	12,553.7	54.6005	12,553.7	56.6837	12,553.7	57.464	12,553.7	56.1757	12,553.7	51.0898	12,553.7	54.6285	12,553.7	54.3621	12,553.7	55.6511	12,553.7	53.5293
12,996.1	90.5393	12,996.1	90.4841	12,996.1	90.6037	12,996.1	88.4583	12,996.1	89.2196	12,996.1	87.7127	12,996.1	87.5447	12,996.1	86.8377	12,996.1	87.2638	12,996.1	83.0577	12,996.1	85.346	12,996.1	79.68	12,996.1	80.6734	12,996.1	78.2899	12,996.1	79.7588	12,996.1	74.4464	12,996.1	77.2082	12,996.1	70.3513	12,996.1	72.7894	12,996.1	64.6431	12,996.1	67.8619	12,996.1	60.6652	12,996.1	64.6722	12,996.1	61.4557	12,996.1	61.1989	12,996.1	57.9952	12,996.1	59.8425	12,996.1	55.9948	12,996.1	51.8004	12,996.1	56.4102	12,996.1	55.3169	12,996.1	46.6631	12,996.1	52.9667	12,996.1	51.7602	12,996.1	54.5972	12,996.1	49.384
13,454.6	90.596	13,454.6	90.0805	13,454.6	90.445	13,454.6	88.1342	13,454.6	88.924	13,454.6	87.4367	13,454.6	87.767	13,454.6	86.5219	13,454.6	86.9122	13,454.6	82.6218	13,454.6	84.0339	13,454.6	79.6796	13,454.6	80.8344	13,454.6	78.7937	13,454.6	79.9064	13,454.6	73.8667	13,454.6	76.9395	13,454.6	69.8084	13,454.6	71.6115	13,454.6	64.7599	13,454.6	65.7178	13,454.6	59.4019	13,454.6	63.9146	13,454.6	61.5226	13,454.6	59.3601	13,454.6	55.5218	13,454.6	56.5765	13,454.6	52.8472	13,454.6	50.1702	13,454.6	50.0381	13,454.6	54.6722	13,454.6	46.4608	13,454.6	53.7897	13,454.6	51.5761	13,454.6	47.2431	13,454.6	52.8039
13,929.2	90.6543	13,929.2	89.7198	13,929.2	90.4373	13,929.2	88.0201	13,929.2	88.3204	13,929.2	87.4435	13,929.2	87.7088	13,929.2	85.5859	13,929.2	86.6659	13,929.2	82.6215	13,929.2	83.8405	13,929.2	80.1214	13,929.2	81.1623	13,929.2	77.7081	13,929.2	79.4389	13,929.2	71.7185	13,929.2	75.67	13,929.2	67.7706	13,929.2	69.151	13,929.2	63.3337	13,929.2	64.311	13,929.2	59.1846	13,929.2	63.1208	13,929.2	58.1144	13,929.2	55.8552	13,929.2	52.1637	13,929.2	56.0647	13,929.2	52.2004	13,929.2	47.3548	13,929.2	48.5056	13,929.2	51.9216	13,929.2	40.5414	13,929.2	52.429	13,929.2	51.1024	13,929.2	52.027	13,929.2	51.1173
14,419.9	90.8004	14,419.9	89.4655	14,419.9	90.2298	14,419.9	88.3966	14,419.9	88.555	14,419.9	87.5958	14,419.9	87.9006	14,419.9	85.0414	14,419.9	86.2932	14,419.9	83.6277	14,419.9	84.2831	14,419.9	80.373	14,419.9	82.2118	14,419.9	77.0169	14,419.9	78.8325	14,419.9	70.8234	14,419.9	74.1871	14,419.9	67.8896	14,419.9	70.167	14,419.9	62.0938	14,419.9	63.7965	14,419.9	56.7995	14,419.9	62.1683	14,419.9	56.4285	14,419.9	54.491	14,419.9	52.7585	14,419.9	52.4852	14,419.9	49.8113	14,419.9	40.4494	14,419.9	52.1046	14,419.9	50.8709	14,419.9	44.2456	14,419.9	54.78	14,419.9	52.9151	14,419.9	33.6163	14,419.9	52.0609
14,928.2	91.0355	14,928.2	89.6004	14,928.2	90.4007	14,928.2	88.6429	14,928.2	89.1684	14,928.2	87.2607	14,928.2	88.2085	14,928.2	85.2197	14,928.2	85.9727	14,928.2	83.9335	14,928.2	84.9295	14,928.2	79.5065	14,928.2	82.2244	14,928.2	76.5214	14,928.2	77.9958	14,928.2	71.9416	14,928.2	75.3805	14,928.2	66.9063	14,928.2	71.4371	14,928.2	63.7791	14,928.2	65.7817	14,928.2	59.7832	14,928.2	62.3017	14,928.2	55.4131	14,928.2	59.0726	14,928.2	47.1233	14,928.2	57.0901	14,928.2	51.2347	14,928.2	53.6767	14,928.2	50.6461	14,928.2	38.53	14,928.2	47.5535	14,928.2	58.554	14,928.2	49.5686	14,928.2	49.5159	14,928.2	54.6619
15,455.6	91.1454	15,455.6	89.869	15,455.6	90.6621	15,455.6	88.8408	15,455.6	89.5944	15,455.6	86.6785	15,455.6	88.128	15,455.6	85.3481	15,455.6	86.0401	15,455.6	83.7884	15,455.6	85.4854	15,455.6	79.1911	15,455.6	81.3231	15,455.6	76.9104	15,455.6	78.2487	15,455.6	73.4621	15,455.6	77.0706	15,455.6	68.4643	15,455.6	72.0546	15,455.6	62.922	15,455.6	67.3507	15,455.6	61.9247	15,455.6	61.2118	15,455.6	56.2047	15,455.6	60.1609	15,455.6	46.36	15,455.6	59.6593	15,455.6	45.944	15,455.6	54.388	15,455.6	51.4682	15,455.6	43.3874	15,455.6	49.2464	15,455.6	55.1736	15,455.6	52.9389	15,455.6	43.0421	15,455.6	45.4841
16,000.5	90.8387	16,000.5	89.7539	16,000.5	90.5062	16,000.5	88.7585	16,000.5	89.5081	16,000.5	86.1327	16,000.5	87.412	16,000.5	85.5189	16,000.5	85.6894	16,000.5	83.2149	16,000.5	84.9477	16,000.5	78.9114	16,000.5	80.9358	16,000.5	77.7462	16,000.5	78.6027	16,000.5	73.4494	16,000.5	76.664	16,000.5	67.864	16,000.5	71.0788	16,000.5	63.8427	16,000.5	66.0027	16,000.5	61.2823	16,000.5	62.2073	16,000.5	56.3467	16,000.5	58.2535	16,000.5	44.3467	16,000.5	60.9163	16,000.5	47.8267	16,000.5	53.0888	16,000.5	50.5289	16,000.5	51.0098	16,000.5	47.6268	16,000.5	51.8429	16,000.5	45.368	16,000.5	48.6049	16,000.5	46.8181
16,564.5	90.176	16,564.5	89.4695	16,564.5	90.1715	16,564.5	88.1347	16,564.5	89.1051	16,564.5	85.0307	16,564.5	86.5434	16,564.5	84.7269	16,564.5	85.2721	16,564.5	81.9622	16,564.5	83.5773	16,564.5	78.7698	16,564.5	80.2327	16,564.5	77.0693	16,564.5	77.7477	16,564.5	73.2898	16,564.5	75.4264	16,564.5	67.6306	16,564.5	69.4212	16,564.5	61.8769	16,564.5	65.7484	16,564.5	61.2866	16,564.5	60.5258	16,564.5	57.3327	16,564.5	58.654	16,564.5	44.1121	16,564.5	56.622	16,564.5	43.9915	16,564.5	44.8006	16,564.5	50.1108	16,564.5	50.5329	16,564.5	49.7572	16,564.5	51.2923	16,564.5	42.3607	16,564.5	50.7056	16,564.5	47.9494
17,148.9	89.4627	17,148.9	89.2947	17,148.9	89.9049	17,148.9	87.305	17,148.9	88.6616	17,148.9	84.1988	17,148.9	85.5199	17,148.9	83.3656	17,148.9	84.3689	17,148.9	80.9738	17,148.9	81.8752	17,148.9	78.0133	17,148.9	79.3627	17,148.9	75.9596	17,148.9	76.3788	17,148.9	70.832	17,148.9	73.2932	17,148.9	66.2883	17,148.9	67.7667	17,148.9	59.5266	17,148.9	64.0739	17,148.9	58.158	17,148.9	59.1936	17,148.9	53.2297	17,148.9	58.3739	17,148.9	40.0558	17,148.9	36.2577	17,148.9	43.1951	17,148.9	45.8197	17,148.9	48.8804	17,148.9	50.6961	17,148.9	45.3544	17,148.9	48.3241	17,148.9	46.7192	17,148.9	50.4096	17,148.9	49.1578
17,752.4	89.3814	17,752.4	89.1093	17,752.4	89.7704	17,752.4	86.7809	17,752.4	88.4547	17,752.4	83.9713	17,752.4	85.2605	17,752.4	81.8742	17,752.4	83.3363	17,752.4	80.0731	17,752.4	80.6171	17,752.4	76.8158	17,752.4	78.416	17,752.4	73.9443	17,752.4	74.5658	17,752.4	69.1998	17,752.4	71.4343	17,752.4	64.6322	17,752.4	67.5795	17,752.4	58.3223	17,752.4	62.8004	17,752.4	58.6075	17,752.4	56.1413	17,752.4	51.5507	17,752.4	57.3406	17,752.4	39.1201	17,752.4	54.4357	17,752.4	40.5051	17,752.4	49.9942	17,752.4	46.4139	17,752.4	51.1634	17,752.4	37.3569	17,752.4	47.2398	17,752.4	46.1669	17,752.4	48.3546	17,752.4	48.0126
18,379.4	89.5321	18,379.4	88.9388	18,379.4	89.8109	18,379.4	86.4159	18,379.4	88.1952	18,379.4	83.408	18,379.4	85.283	18,379.4	80.4971	18,379.4	82.0397	18,379.4	78.8882	18,379.4	79.5605	18,379.4	74.9091	18,379.4	76.7395	18,379.4	72.4625	18,379.4	72.777	18,379.4	68.4208	18,379.4	71.1462	18,379.4	63.4856	18,379.4	67.7501	18,379.4	57.8085	18,379.4	61.5447	18,379.4	57.3763	18,379.4	54.1183	18,379.4	54.7733	18,379.4	55.8875	18,379.4	36.55	18,379.4	55.5054	18,379.4	44.1454	18,379.4	48.714	18,379.4	44.4311	18,379.4	52.43	18,379.4	21.4006	18,379.4	47.6681	18,379.4	44.5656	18,379.4	45.393	18,379.4	48.7486
19,026.9	89.5705	19,026.9	88.6011	19,026.9	89.4506	19,026.9	86.0508	19,026.9	87.8223	19,026.9	82.2505	19,026.9	84.4242	19,026.9	78.5231	19,026.9	80.3842	19,026.9	76.3497	19,026.9	77.8584	19,026.9	72.0879	19,026.9	74.1334	19,026.9	70.8922	19,026.9	71.7195	19,026.9	67.8717	19,026.9	70.0329	19,026.9	61.0301	19,026.9	65.6723	19,026.9	55.7766	19,026.9	59.4797	19,026.9	54.3361	19,026.9	53.159	19,026.9	56.3733	19,026.9	53.0046	19,026.9	36.2344	19,026.9	55.0266	19,026.9	29.5062	19,026.9	35.5494	19,026.9	44.6173	19,026.9	47.2698	19,026.9	38.8296	19,026.9	48.4654	19,026.9	42.3146	19,026.9	44.3726	19,026.9	45.8818
19,697.8	89.1247	19,697.8	87.7224	19,697.8	88.7786	19,697.8	84.9624	19,697.8	86.6762	19,697.8	80.0045	19,697.8	83.164	19,697.8	76.7498	19,697.8	78.6514	19,697.8	73.0175	19,697.8	75.3904	19,697.8	69.6381	19,697.8	72.5946	19,697.8	69.2001	19,697.8	70.6525	19,697.8	65.4084	19,697.8	68.2404	19,697.8	59.7136	19,697.8	63.2603	19,697.8	58.3734	19,697.8	59.0294	19,697.8	52.9814	19,697.8	54.9623	19,697.8	56.1865	19,697.8	54.1098	19,697.8	46.1328	19,697.8	50.2937	19,697.8	37.7393	19,697.8	43.5119	19,697.8	42.2356	19,697.8	44.4393	19,697.8	42.025	19,697.8	44.7007	19,697.8	40.5621	19,697.8	37.4276	19,697.8	45.7641
19,999.5	88.7644	19,999.5	86.7051	19,999.5	88.7924	19,999.5	85.0216	19,999.5	85.2742	19,999.5	79.1517	19,999.5	82.0532	19,999.5	76.0606	19,999.5	78.7532	19,999.5	72.8001	19,999.5	74.274	19,999.5	67.5636	19,999.5	71.6089	19,999.5	65.0227	19,999.5	70.0698	19,999.5	64.8892	19,999.5	68.7134	19,999.5	59.8733	19,999.5	65.1282	19,999.5	61.7664	19,999.5	60.5632	19,999.5	58.0581	19,999.5	57.9078	19,999.5	56.1882	19,999.5	50.4117	19,999.5	53.9133	19,999.5	57.9863	19,999.5	41.7487	19,999.5	53.3937	19,999.5	40.9833	19,999.5	49.3973	19,999.5	46.1277	19,999.5	44.103	19,999.5	47.3778	19,999.5	45.7401	19,999.5	47.3093
