"SPL Vertical"
"On-Axis"		"10°"		"-10°"		"20°"		"-20°"		"30°"		"-30°"		"40°"		"-40°"		"50°"		"-50°"		"60°"		"-60°"		"70°"		"-70°"		"80°"		"-80°"		"90°"		"-90°"		"100°"		"-100°"		"110°"		"-110°"		"120°"		"-120°"		"130°"		"-130°"		"140°"		"-140°"		"150°"		"-150°"		"160°"		"-160°"		"170°"		"-170°"		"180°"
"Frequency [Hz]"	"Sound Pessure Level [dB]  / [2.83V 1m] "	"Frequency [Hz]"	"Sound Pessure Level [dB]  / [2.83V 1m] "	"Frequency [Hz]"	"Sound Pessure Level [dB]  / [2.83V 1m] "	"Frequency [Hz]"	"Sound Pessure Level [dB]  / [2.83V 1m] "	"Frequency [Hz]"	"Sound Pessure Level [dB]  / [2.83V 1m] "	"Frequency [Hz]"	"Sound Pessure Level [dB]  / [2.83V 1m] "	"Frequency [Hz]"	"Sound Pessure Level [dB]  / [2.83V 1m] "	"Frequency [Hz]"	"Sound Pessure Level [dB]  / [2.83V 1m] "	"Frequency [Hz]"	"Sound Pessure Level [dB]  / [2.83V 1m] "	"Frequency [Hz]"	"Sound Pessure Level [dB]  / [2.83V 1m] "	"Frequency [Hz]"	"Sound Pessure Level [dB]  / [2.83V 1m] "	"Frequency [Hz]"	"Sound Pessure Level [dB]  / [2.83V 1m] "	"Frequency [Hz]"	"Sound Pessure Level [dB]  / [2.83V 1m] "	"Frequency [Hz]"	"Sound Pessure Level [dB]  / [2.83V 1m] "	"Frequency [Hz]"	"Sound Pessure Level [dB]  / [2.83V 1m] "	"Frequency [Hz]"	"Sound Pessure Level [dB]  / [2.83V 1m] "	"Frequency [Hz]"	"Sound Pessure Level [dB]  / [2.83V 1m] "	"Frequency [Hz]"	"Sound Pessure Level [dB]  / [2.83V 1m] "	"Frequency [Hz]"	"Sound Pessure Level [dB]  / [2.83V 1m] "	"Frequency [Hz]"	"Sound Pessure Level [dB]  / [2.83V 1m] "	"Frequency [Hz]"	"Sound Pessure Level [dB]  / [2.83V 1m] "	"Frequency [Hz]"	"Sound Pessure Level [dB]  / [2.83V 1m] "	"Frequency [Hz]"	"Sound Pessure Level [dB]  / [2.83V 1m] "	"Frequency [Hz]"	"Sound Pessure Level [dB]  / [2.83V 1m] "	"Frequency [Hz]"	"Sound Pessure Level [dB]  / [2.83V 1m] "	"Frequency [Hz]"	"Sound Pessure Level [dB]  / [2.83V 1m] "	"Frequency [Hz]"	"Sound Pessure Level [dB]  / [2.83V 1m] "	"Frequency [Hz]"	"Sound Pessure Level [dB]  / [2.83V 1m] "	"Frequency [Hz]"	"Sound Pessure Level [dB]  / [2.83V 1m] "	"Frequency [Hz]"	"Sound Pessure Level [dB]  / [2.83V 1m] "	"Frequency [Hz]"	"Sound Pessure Level [dB]  / [2.83V 1m] "	"Frequency [Hz]"	"Sound Pessure Level [dB]  / [2.83V 1m] "	"Frequency [Hz]"	"Sound Pessure Level [dB]  / [2.83V 1m] "	"Frequency [Hz]"	"Sound Pessure Level [dB]  / [2.83V 1m] "	"Frequency [Hz]"	"Sound Pessure Level [dB]  / [2.83V 1m] "	"Frequency [Hz]"	"Sound Pessure Level [dB]  / [2.83V 1m] "
20.5078	66.651	20.5078	66.3923	20.5078	66.8998	20.5078	66.1388	20.5078	67.1277	20.5078	65.9088	20.5078	67.33	20.5078	65.7241	20.5078	67.517	20.5078	65.6102	20.5078	67.7354	20.5078	65.5947	20.5078	68.1247	20.5078	65.7052	20.5078	69.0149	20.5078	65.9645	20.5078	70.8808	20.5078	66.3864	20.5078	73.6112	20.5078	66.973	20.5078	76.347	20.5078	67.7146	20.5078	78.4589	20.5078	68.5934	20.5078	79.704	20.5078	69.5879	20.5078	80.0836	20.5078	70.6763	20.5078	79.7842	20.5078	71.8385	20.5078	79.0307	20.5078	73.056	20.5078	78.0031	20.5078	74.31	20.5078	76.8252	20.5078	75.5773
21.9727	67.6356	21.9727	67.3966	21.9727	67.8719	21.9727	67.175	21.9727	68.0902	21.9727	66.9943	21.9727	68.2823	21.9727	66.8809	21.9727	68.4574	21.9727	66.8633	21.9727	68.6715	21.9727	66.9682	21.9727	69.1092	21.9727	67.2172	21.9727	70.201	21.9727	67.622	21.9727	72.3694	21.9727	68.1824	21.9727	75.2746	21.9727	68.8876	21.9727	78.0635	21.9727	69.7193	21.9727	80.1752	21.9727	70.6564	21.9727	81.407	21.9727	71.6788	21.9727	81.7897	21.9727	72.7688	21.9727	81.5151	21.9727	73.9117	21.9727	80.8028	21.9727	75.094	21.9727	79.8268	21.9727	76.3014	21.9727	78.7056	21.9727	77.5149
23.4375	71.7136	23.4375	71.5225	23.4375	71.9163	23.4375	71.3513	23.4375	72.1281	23.4375	71.2115	23.4375	72.3576	23.4375	71.1169	23.4375	72.6334	23.4375	71.0827	23.4375	73.021	23.4375	71.1246	23.4375	73.6403	23.4375	71.2576	23.4375	74.6645	23.4375	71.4948	23.4375	76.2426	23.4375	71.8454	23.4375	78.3173	23.4375	72.3142	23.4375	80.503	23.4375	72.9009	23.4375	82.3077	23.4375	73.6006	23.4375	83.4052	23.4375	74.4049	23.4375	83.7319	23.4375	75.3032	23.4375	83.4381	23.4375	76.2836	23.4375	82.7295	23.4375	77.3324	23.4375	81.7758	23.4375	78.4333	23.4375	80.6952	23.4375	79.5648
24.9023	74.2106	24.9023	73.983	24.9023	74.4577	24.9023	73.7804	24.9023	74.7239	24.9023	73.6114	24.9023	75.0161	24.9023	73.4871	24.9023	75.3536	24.9023	73.421	24.9023	75.7791	24.9023	73.4274	24.9023	76.3784	24.9023	73.5211	24.9023	77.3044	24.9023	73.7156	24.9023	78.7454	24.9023	74.0214	24.9023	80.6889	24.9023	74.4451	24.9023	82.7328	24.9023	74.9881	24.9023	84.3831	24.9023	75.6471	24.9023	85.3493	24.9023	76.4144	24.9023	85.597	24.9023	77.2797	24.9023	85.2698	24.9023	78.2304	24.9023	84.5554	24.9023	79.2523	24.9023	83.6109	24.9023	80.3285	24.9023	82.547	24.9023	81.4372
26.3672	76.801	26.3672	76.5703	26.3672	77.0717	26.3672	76.3819	26.3672	77.3843	26.3672	76.2406	26.3672	77.7472	26.3672	76.1529	26.3672	78.1813	26.3672	76.1269	26.3672	78.7285	26.3672	76.171	26.3672	79.4601	26.3672	76.294	26.3672	80.4653	26.3672	76.5035	26.3672	81.7955	26.3672	76.8061	26.3672	83.4095	26.3672	77.2059	26.3672	85.0942	26.3672	77.7047	26.3672	86.5181	26.3672	78.3016	26.3672	87.3806	26.3672	78.9934	26.3672	87.5911	26.3672	79.7746	26.3672	87.2616	26.3672	80.6377	26.3672	86.5671	26.3672	81.573	26.3672	85.6597	26.3672	82.5673	26.3672	84.6476	26.3672	83.6018
27.832	79.4936	27.832	79.24	27.832	79.7888	27.832	79.029	27.832	80.1283	27.832	78.8635	27.832	80.5199	27.832	78.7477	27.832	80.9789	27.832	78.6871	27.832	81.5308	27.832	78.6879	27.832	82.2122	27.832	78.7564	27.832	83.0654	27.832	78.8991	27.832	84.1363	27.832	79.1222	27.832	85.4501	27.832	79.431	27.832	86.8449	27.832	79.8298	27.832	88.0444	27.832	80.3213	27.832	88.781	27.832	80.9063	27.832	88.9472	27.832	81.5836	27.832	88.6148	27.832	82.3496	27.832	87.9365	27.832	83.1976	27.832	87.057	27.832	84.1164	27.832	86.0835	27.832	85.088
29.2969	81.2707	29.2969	81.0182	29.2969	81.5658	29.2969	80.808	29.2969	81.9062	29.2969	80.6416	29.2969	82.2974	29.2969	80.5219	29.2969	82.7492	29.2969	80.453	29.2969	83.2775	29.2969	80.4394	29.2969	83.912	29.2969	80.4868	29.2969	84.7051	29.2969	80.6007	29.2969	85.7144	29.2969	80.7873	29.2969	86.9177	29.2969	81.0521	29.2969	88.1589	29.2969	81.4006	29.2969	89.2199	29.2969	81.8368	29.2969	89.8892	29.2969	82.3636	29.2969	90.0348	29.2969	82.9821	29.2969	89.7017	29.2969	83.6906	29.2969	89.0356	29.2969	84.4841	29.2969	88.1788	29.2969	85.3528	29.2969	87.2367	29.2969	86.2797
30.7617	82.5151	30.7617	82.2285	30.7617	82.851	30.7617	81.9902	30.7617	83.2386	30.7617	81.8005	30.7617	83.6827	30.7617	81.6607	30.7617	84.1908	30.7617	81.5733	30.7617	84.7739	30.7617	81.5413	30.7617	85.4468	30.7617	81.5687	30.7617	86.2247	30.7617	81.6599	30.7617	87.12	30.7617	81.8198	30.7617	88.1169	30.7617	82.0536	30.7617	89.151	30.7617	82.3659	30.7617	90.0428	30.7617	82.7611	30.7617	90.5705	30.7617	83.2426	30.7617	90.6224	30.7617	83.8123	30.7617	90.2462	30.7617	84.4697	30.7617	89.5736	30.7617	85.2113	30.7617	88.7338	30.7617	86.0292	30.7617	87.8237	30.7617	86.9084
32.2266	82.7455	32.2266	82.4468	32.2266	83.0957	32.2266	82.1987	32.2266	83.4993	32.2266	82.0012	32.2266	83.9591	32.2266	81.8553	32.2266	84.479	32.2266	81.7626	32.2266	85.0629	32.2266	81.7254	32.2266	85.7139	32.2266	81.7467	32.2266	86.4354	32.2266	81.8298	32.2266	87.2459	32.2266	81.9788	32.2266	88.1543	32.2266	82.1977	32.2266	89.0808	32.2266	82.491	32.2266	89.8733	32.2266	82.8626	32.2266	90.3513	32.2266	83.316	32.2266	90.396	32.2266	83.8537	32.2266	90.0328	32.2266	84.4763	32.2266	89.3819	32.2266	85.1815	32.2266	88.5686	32.2266	85.9627	32.2266	87.6886	32.2266	86.8065
33.6914	83.1342	33.6914	82.8351	33.6914	83.4879	33.6914	82.5897	33.6914	83.8976	33.6914	82.3973	33.6914	84.3649	33.6914	82.258	33.6914	84.8917	33.6914	82.1723	33.6914	85.4795	33.6914	82.141	33.6914	86.1276	33.6914	82.1659	33.6914	86.8316	33.6914	82.249	33.6914	87.5868	33.6914	82.393	33.6914	88.3877	33.6914	82.6011	33.6914	89.1957	33.6914	82.8769	33.6914	89.9052	33.6914	83.224	33.6914	90.3382	33.6914	83.6459	33.6914	90.362	33.6914	84.1457	33.6914	89.9986	33.6914	84.7248	33.6914	89.3654	33.6914	85.3827	33.6914	88.5835	33.6914	86.1144	33.6914	87.7444	33.6914	86.9089
35.1562	83.3257	35.1562	83.0136	35.1562	83.6934	35.1562	82.7564	35.1562	84.1175	35.1562	82.5535	35.1562	84.5981	35.1562	82.4045	35.1562	85.1344	35.1562	82.3092	35.1562	85.7239	35.1562	82.2679	35.1562	86.3602	35.1562	82.2815	35.1562	87.0334	35.1562	82.3514	35.1562	87.7379	35.1562	82.4795	35.1562	88.4678	35.1562	82.6683	35.1562	89.1889	35.1562	82.9211	35.1562	89.8061	35.1562	83.2413	35.1562	90.1583	35.1562	83.6325	35.1562	90.1285	35.1562	84.0981	35.1562	89.7402	35.1562	84.6406	35.1562	89.104	35.1562	85.2605	35.1562	88.3345	35.1562	85.9547	35.1562	87.5187	35.1562	86.7138
36.6211	83.4973	36.6211	83.1777	36.6211	83.8732	36.6211	82.9139	36.6211	84.3053	36.6211	82.7051	36.6211	84.7927	36.6211	82.5506	36.6211	85.3329	36.6211	82.4498	36.6211	85.9208	36.6211	82.4025	36.6211	86.5467	36.6211	82.4087	36.6211	87.1953	36.6211	82.4693	36.6211	87.8538	36.6211	82.5855	36.6211	88.5153	36.6211	82.7594	36.6211	89.1554	36.6211	82.9936	36.6211	89.6921	36.6211	83.2912	36.6211	89.9805	36.6211	83.6559	36.6211	89.9126	36.6211	84.0913	36.6211	89.5105	36.6211	84.6004	36.6211	88.879	36.6211	85.1846	36.6211	88.1274	36.6211	85.8423	36.6211	87.3383	36.6211	86.5659
38.0859	83.6253	38.0859	83.2959	38.0859	84.0116	38.0859	83.0233	38.0859	84.4542	38.0859	82.8067	38.0859	84.9512	38.0859	82.645	38.0859	85.4982	38.0859	82.5372	38.0859	86.0875	38.0859	82.4824	38.0859	86.7048	38.0859	82.4804	38.0859	87.3286	38.0859	82.5311	38.0859	87.9402	38.0859	82.6354	38.0859	88.535	38.0859	82.7948	38.0859	89.0975	38.0859	83.0113	38.0859	89.5561	38.0859	83.288	38.0859	89.7808	38.0859	83.6284	38.0859	89.6752	38.0859	84.0363	38.0859	89.2594	38.0859	84.5152	38.0859	88.6313	38.0859	85.0675	38.0859	87.8948	38.0859	85.6927	38.0859	87.1288	38.0859	86.3849
39.5508	83.7285	39.5508	83.3912	39.5508	84.1228	39.5508	83.1113	39.5508	84.5726	39.5508	82.8882	39.5508	85.0741	39.5508	82.7207	39.5508	85.6203	39.5508	82.6075	39.5508	86.1999	39.5508	82.5473	39.5508	86.7965	39.5508	82.5392	39.5508	87.3926	39.5508	82.5826	39.5508	87.9729	39.5508	82.6776	39.5508	88.5239	39.5508	82.8252	39.5508	89.0381	39.5508	83.027	39.5508	89.4512	39.5508	83.2857	39.5508	89.6311	39.5508	83.6046	39.5508	89.4889	39.5508	83.9878	39.5508	89.0536	39.5508	84.4394	39.5508	88.4219	39.5508	84.9629	39.5508	87.6938	39.5508	85.5592	39.5508	86.945	39.5508	86.2243
41.0156	83.9274	41.0156	83.5856	41.0156	84.3251	41.0156	83.3003	41.0156	84.7764	41.0156	83.071	41.0156	85.2768	41.0156	82.8966	41.0156	85.8185	41.0156	82.7756	41.0156	86.3885	41.0156	82.7065	41.0156	86.9679	41.0156	82.6882	41.0156	87.5334	41.0156	82.7198	41.0156	88.0678	41.0156	82.8012	41.0156	88.5636	41.0156	82.9331	41.0156	89.0086	41.0156	83.117	41.0156	89.335	41.0156	83.3555	41.0156	89.4484	41.0156	83.6518	41.0156	89.2818	41.0156	84.0103	41.0156	88.8525	41.0156	84.4351	41.0156	88.2416	41.0156	84.9302	41.0156	87.5406	41.0156	85.4968	41.0156	86.8215	41.0156	86.1313
42.4805	84.1228	42.4805	83.7621	42.4805	84.54	42.4805	83.4588	42.4805	85.0108	42.4805	83.213	42.4805	85.5299	42.4805	83.0236	42.4805	86.0887	42.4805	82.8892	42.4805	86.6733	42.4805	82.8082	42.4805	87.2616	42.4805	82.7791	42.4805	87.8222	42.4805	82.8009	42.4805	88.3264	42.4805	82.873	42.4805	88.7682	42.4805	82.9956	42.4805	89.1586	42.4805	83.1699	42.4805	89.4463	42.4805	83.3979	42.4805	89.5214	42.4805	83.6828	42.4805	89.3117	42.4805	84.0286	42.4805	88.8461	42.4805	84.4398	42.4805	88.212	42.4805	84.9208	42.4805	87.5005	42.4805	85.474	42.4805	86.781	42.4805	86.0975
43.9453	84.2506	43.9453	83.8881	43.9453	84.6692	43.9453	83.5831	43.9453	85.1406	43.9453	83.3355	43.9453	85.6587	43.9453	83.1443	43.9453	86.2134	43.9453	83.0078	43.9453	86.7891	43.9453	82.9243	43.9453	87.362	43.9453	82.892	43.9453	87.9021	43.9453	82.9095	43.9453	88.3876	43.9453	82.9762	43.9453	88.808	43.9453	83.0918	43.9453	89.1527	43.9453	83.2573	43.9453	89.3842	43.9453	83.4744	43.9453	89.4188	43.9453	83.7462	43.9453	89.1922	43.9453	84.0765	43.9453	88.7282	43.9453	84.4697	43.9453	88.1074	43.9453	84.9303	43.9453	87.4159	43.9453	85.461	43.9453	86.7197	43.9453	86.0605
45.4102	84.6331	45.4102	84.2596	45.4102	85.0635	45.4102	83.9448	45.4102	85.5473	45.4102	83.6886	45.4102	86.0777	45.4102	83.4899	45.4102	86.644	45.4102	83.347	45.4102	87.229	45.4102	83.2577	45.4102	87.8058	45.4102	83.22	45.4102	88.339	45.4102	83.2324	45.4102	88.7981	45.4102	83.2935	45.4102	89.1635	45.4102	83.4031	45.4102	89.4369	45.4102	83.5615	45.4102	89.602	45.4102	83.7703	45.4102	89.5914	45.4102	84.032	45.4102	89.3417	45.4102	84.3502	45.4102	88.8716	45.4102	84.7291	45.4102	88.257	45.4102	85.1731	45.4102	87.5799	45.4102	85.685	45.4102	86.9025	45.4102	86.2641
46.875	84.874	46.875	84.4954	46.875	85.31	46.875	84.1765	46.875	85.7989	46.875	83.9177	46.875	86.3326	46.875	83.7182	46.875	86.8992	46.875	83.5762	46.875	87.4808	46.875	83.4892	46.875	88.0528	46.875	83.455	46.875	88.5858	46.875	83.4713	46.875	89.0475	46.875	83.5363	46.875	89.4114	46.875	83.649	46.875	89.6752	46.875	83.8092	46.875	89.8249	46.875	84.0177	46.875	89.7881	46.875	84.2765	46.875	89.5116	46.875	84.5886	46.875	89.025	46.875	84.9581	46.875	88.4063	46.875	85.3893	46.875	87.7352	46.875	85.8858	46.875	87.0706	46.875	86.4483
48.3398	85.1255	48.3398	84.7441	48.3398	85.5634	48.3398	84.4218	48.3398	86.0528	48.3398	84.1592	48.3398	86.5857	48.3398	83.9555	48.3398	87.1498	48.3398	83.809	48.3398	87.7274	48.3398	83.7173	48.3398	88.2934	48.3398	83.678	48.3398	88.8151	48.3398	83.6886	48.3398	89.2548	48.3398	83.7471	48.3398	89.5854	48.3398	83.8522	48.3398	89.8116	48.3398	84.0034	48.3398	89.9203	48.3398	84.2012	48.3398	89.8476	48.3398	84.4473	48.3398	89.5478	48.3398	84.7445	48.3398	89.0516	48.3398	85.0969	48.3398	88.4354	48.3398	85.509	48.3398	87.7756	48.3398	85.9848	48.3398	87.1281	48.3398	86.526
51.2695	85.6523	51.2695	85.2667	51.2695	86.092	51.2695	84.9383	51.2695	86.5796	51.2695	84.6685	51.2695	87.1055	51.2695	84.4569	51.2695	87.6556	51.2695	84.3017	51.2695	88.2094	51.2695	84.2007	51.2695	88.738	51.2695	84.1511	51.2695	89.2076	51.2695	84.1503	51.2695	89.5908	51.2695	84.1957	51.2695	89.8763	51.2695	84.2856	51.2695	90.0589	51.2695	84.4189	51.2695	90.1135	51.2695	84.5955	51.2695	89.9834	51.2695	84.8167	51.2695	89.6437	51.2695	85.0848	51.2695	89.1331	51.2695	85.4038	51.2695	88.5246	51.2695	85.7785	51.2695	87.8888	51.2695	86.2139	51.2695	87.2757	51.2695	86.7135
52.7344	85.9288	52.7344	85.5412	52.7344	86.3688	52.7344	85.2099	52.7344	86.8546	52.7344	84.9362	52.7344	87.3762	52.7344	84.7199	52.7344	87.9186	52.7344	84.5593	52.7344	88.4606	52.7344	84.4523	52.7344	88.9732	52.7344	84.3959	52.7344	89.422	52.7344	84.3873	52.7344	89.7772	52.7344	84.4239	52.7344	90.0218	52.7344	84.5036	52.7344	90.1548	52.7344	84.6252	52.7344	90.1618	52.7344	84.7884	52.7344	89.9977	52.7344	84.994	52.7344	89.6406	52.7344	85.2444	52.7344	89.1274	52.7344	85.5433	52.7344	88.5281	52.7344	85.8956	52.7344	87.9096	52.7344	86.3069	52.7344	87.3188	52.7344	86.7813
54.1992	86.3039	54.1992	85.9116	54.1992	86.747	54.1992	85.5741	54.1992	87.2338	54.1992	85.2932	54.1992	87.7537	54.1992	85.0689	54.1992	88.2909	54.1992	84.8996	54.1992	88.8228	54.1992	84.7832	54.1992	89.3184	54.1992	84.7169	54.1992	89.7415	54.1992	84.6977	54.1992	90.0594	54.1992	84.723	54.1992	90.2517	54.1992	84.7905	54.1992	90.3236	54.1992	84.8987	54.1992	90.2786	54.1992	85.0471	54.1992	90.08	54.1992	85.2364	54.1992	89.7059	54.1992	85.4687	54.1992	89.1908	54.1992	85.7477	54.1992	88.6009	54.1992	86.0783	54.1992	87.9994	54.1992	86.4664	54.1992	87.4303	54.1992	86.9167
55.6641	86.5995	55.6641	86.2068	55.6641	87.043	55.6641	85.8691	55.6641	87.53	55.6641	85.5883	55.6641	88.0493	55.6641	85.3643	55.6641	88.5845	55.6641	85.1956	55.6641	89.1123	55.6641	85.0797	55.6641	89.6	55.6641	85.0138	55.6641	90.0087	55.6641	84.9945	55.6641	90.304	55.6641	85.0191	55.6641	90.4667	55.6641	85.0848	55.6641	90.5073	55.6641	85.1901	55.6641	90.4374	55.6641	85.3339	55.6641	90.2264	55.6641	85.5167	55.6641	89.8494	55.6641	85.7402	55.6641	89.3375	55.6641	86.0076	55.6641	88.757	55.6641	86.324	55.6641	88.1705	55.6641	86.695	55.6641	87.62	55.6641	87.1263
58.5938	87.1442	58.5938	86.7424	58.5938	87.5973	58.5938	86.3967	58.5938	88.0931	58.5938	86.1094	58.5938	88.6197	58.5938	85.8807	58.5938	89.1601	58.5938	85.7089	58.5938	89.6914	58.5938	85.5911	58.5938	90.1818	58.5938	85.5237	58.5938	90.5902	58.5938	85.5031	58.5938	90.8729	58.5938	85.5254	58.5938	91.0022	58.5938	85.5874	58.5938	90.9857	58.5938	85.6864	58.5938	90.846	58.5938	85.8211	58.5938	90.5766	58.5938	85.9911	58.5938	90.1629	58.5938	86.1978	58.5938	89.6345	58.5938	86.4444	58.5938	89.0536	58.5938	86.7361	58.5938	88.4795	58.5938	87.0798	58.5938	87.9502	58.5938	87.4828
60.0586	87.3311	60.0586	86.9216	60.0586	87.7927	60.0586	86.5694	60.0586	88.2978	60.0586	86.2768	60.0586	88.8339	60.0586	86.0438	60.0586	89.3839	60.0586	85.8687	60.0586	89.9247	60.0586	85.7486	60.0586	90.4259	60.0586	85.6796	60.0586	90.8498	60.0586	85.6579	60.0586	91.1533	60.0586	85.6794	60.0586	91.2981	60.0586	85.7408	60.0586	91.2832	60.0586	85.8393	60.0586	91.1269	60.0586	85.9734	60.0586	90.8217	60.0586	86.1428	60.0586	90.369	60.0586	86.3488	60.0586	89.8123	60.0586	86.5947	60.0586	89.2151	60.0586	86.8857	60.0586	88.6329	60.0586	87.229	60.0586	88.1003	60.0586	87.632
62.9883	87.8155	62.9883	87.3926	62.9883	88.2885	62.9883	87.0263	62.9883	88.8018	62.9883	86.7201	62.9883	89.3416	62.9883	86.4747	62.9883	89.8896	62.9883	86.2887	62.9883	90.4221	62.9883	86.1595	62.9883	90.9076	62.9883	86.0831	62.9883	91.3063	62.9883	86.0553	62.9883	91.5761	62.9883	86.0716	62.9883	91.6861	62.9883	86.1282	62.9883	91.6281	62.9883	86.2216	62.9883	91.4108	62.9883	86.3495	62.9883	91.0456	62.9883	86.5107	62.9883	90.5542	62.9883	86.7057	62.9883	89.9845	62.9883	86.9367	62.9883	89.3964	62.9883	87.2082	62.9883	88.8381	62.9883	87.5267	62.9883	88.3365	62.9883	87.9003
64.4531	88.015	64.4531	87.5848	64.4531	88.4943	64.4531	87.211	64.4531	89.0121	64.4531	86.8976	64.4531	89.5539	64.4531	86.6458	64.4531	90.101	64.4531	86.4545	64.4531	90.629	64.4531	86.321	64.4531	91.1063	64.4531	86.2413	64.4531	91.4918	64.4531	86.2108	64.4531	91.7426	64.4531	86.2248	64.4531	91.8281	64.4531	86.2789	64.4531	91.7387	64.4531	86.3692	64.4531	91.4862	64.4531	86.4929	64.4531	91.0914	64.4531	86.6484	64.4531	90.5818	64.4531	86.8355	64.4531	90.0061	64.4531	87.0562	64.4531	89.4224	64.4531	87.3147	64.4531	88.8762	64.4531	87.6176	64.4531	88.3913	64.4531	87.9735
67.3828	88.4266	67.3828	87.9884	67.3828	88.9102	67.3828	87.6037	67.3828	89.4275	67.3828	87.2776	67.3828	89.9631	67.3828	87.0124	67.3828	90.4976	67.3828	86.8076	67.3828	91.0061	67.3828	86.6611	67.3828	91.4558	67.3828	86.5689	67.3828	91.8053	67.3828	86.5265	67.3828	92.0124	67.3828	86.5288	67.3828	92.0491	67.3828	86.5708	67.3828	91.906	67.3828	86.6482	67.3828	91.5961	67.3828	86.7574	67.3828	91.154	67.3828	86.8962	67.3828	90.6188	67.3828	87.0639	67.3828	90.0379	67.3828	87.2621	67.3828	89.4645	67.3828	87.4949	67.3828	88.9394	67.3828	87.7692	67.3828	88.4821	67.3828	88.0947
68.8477	88.6601	68.8477	88.2151	68.8477	89.1487	68.8477	87.8228	68.8477	89.6687	68.8477	87.4887	68.8477	90.204	68.8477	87.2156	68.8477	90.7347	68.8477	87.0036	68.8477	91.2357	68.8477	86.8507	68.8477	91.675	68.8477	86.7531	68.8477	92.0125	68.8477	86.7063	68.8477	92.2084	68.8477	86.705	68.8477	92.2361	68.8477	86.7443	68.8477	92.0823	68.8477	86.8194	68.8477	91.7543	68.8477	86.9266	68.8477	91.2918	68.8477	87.0634	68.8477	90.7423	68.8477	87.2288	68.8477	90.156	68.8477	87.4239	68.8477	89.5849	68.8477	87.6525	68.8477	89.0668	68.8477	87.9212	68.8477	88.6184	68.8477	88.2395
71.7773	89.1842	71.7773	88.7264	71.7773	89.6807	71.7773	88.3175	71.7773	90.2027	71.7773	87.9644	71.7773	90.7337	71.7773	87.6708	71.7773	91.2535	71.7773	87.438	71.7773	91.7369	71.7773	87.2647	71.7773	92.1521	71.7773	87.1478	71.7773	92.4581	71.7773	87.0827	71.7773	92.6158	71.7773	87.0644	71.7773	92.6015	71.7773	87.0874	71.7773	92.394	71.7773	87.1467	71.7773	91.995	71.7773	87.2377	71.7773	91.4636	71.7773	87.3572	71.7773	90.8661	71.7773	87.5036	71.7773	90.2572	71.7773	87.6773	71.7773	89.6858	71.7773	87.8815	71.7773	89.1837	71.7773	88.1228	71.7773	88.7609	71.7773	88.4115
74.707	89.6733	74.707	89.2145	74.707	90.1676	74.707	88.8016	74.707	90.6841	74.707	88.4418	74.707	91.2058	74.707	88.1395	74.707	91.7126	74.707	87.8961	74.707	92.1789	74.707	87.7109	74.707	92.5725	74.707	87.5812	74.707	92.8526	74.707	87.5027	74.707	92.9803	74.707	87.4705	74.707	92.9323	74.707	87.4791	74.707	92.6872	74.707	87.5234	74.707	92.2464	74.707	87.5987	74.707	91.6758	74.707	87.7015	74.707	91.0525	74.707	87.8299	74.707	90.4342	74.707	87.984	74.707	89.8673	74.707	88.1669	74.707	89.3795	74.707	88.3855	74.707	88.977	74.707	88.6507
77.6367	89.9858	77.6367	89.5147	77.6367	90.4933	77.6367	89.091	77.6367	91.0227	77.6367	88.7225	77.6367	91.5562	77.6367	88.4137	77.6367	92.0725	77.6367	88.1663	77.6367	92.5456	77.6367	87.9791	77.6367	92.9418	77.6367	87.8491	77.6367	93.2169	77.6367	87.7716	77.6367	93.3286	77.6367	87.7411	77.6367	93.2578	77.6367	87.752	77.6367	92.9883	77.6367	87.7986	77.6367	92.5222	77.6367	87.876	77.6367	91.9286	77.6367	87.9804	77.6367	91.2904	77.6367	88.1095	77.6367	90.6676	77.6367	88.2632	77.6367	90.1052	77.6367	88.4441	77.6367	89.6268	77.6367	88.6586	77.6367	89.2347	77.6367	88.9173
79.1016	90.034	79.1016	89.5546	79.1016	90.5494	79.1016	89.1232	79.1016	91.0855	79.1016	88.7481	79.1016	91.624	79.1016	88.4345	79.1016	92.1424	79.1016	88.1842	79.1016	92.6141	79.1016	87.9963	79.1016	93.0044	79.1016	87.8675	79.1016	93.2681	79.1016	87.7929	79.1016	93.3647	79.1016	87.7667	79.1016	93.2785	79.1016	87.7826	79.1016	92.9947	79.1016	87.8346	79.1016	92.5153	79.1016	87.9173	79.1016	91.9114	79.1016	88.0263	79.1016	91.2713	79.1016	88.159	79.1016	90.6557	79.1016	88.3144	79.1016	90.1062	79.1016	88.4948	79.1016	89.6427	79.1016	88.7058	79.1016	89.2642	79.1016	88.9575
82.0312	90.2306	82.0312	89.7503	82.0312	90.7438	82.0312	89.3163	82.0312	91.2733	82.0312	88.9387	82.0312	91.7996	82.0312	88.6239	82.0312	92.3001	82.0312	88.3746	82.0312	92.7492	82.0312	88.1905	82.0312	93.1163	82.0312	88.0683	82.0312	93.3615	82.0312	88.0029	82.0312	93.444	82.0312	87.9877	82.0312	93.3378	82.0312	88.0157	82.0312	93.0264	82.0312	88.0797	82.0312	92.5235	82.0312	88.1731	82.0312	91.9131	82.0312	88.2904	82.0312	91.2886	82.0312	88.4275	82.0312	90.7065	82.0312	88.5822	82.0312	90.2011	82.0312	88.755	82.0312	89.7843	82.0312	88.9502	82.0312	89.4486	82.0312	89.1767
84.9609	90.4387	84.9609	89.9607	84.9609	90.9439	84.9609	89.5243	84.9609	91.4594	84.9609	89.1407	84.9609	91.9657	84.9609	88.8179	84.9609	92.4415	84.9609	88.5602	84.9609	92.863	84.9609	88.3686	84.9609	93.2029	84.9609	88.2409	84.9609	93.4252	84.9609	88.1725	84.9609	93.4938	84.9609	88.1569	84.9609	93.391	84.9609	88.1867	84.9609	93.0965	84.9609	88.2541	84.9609	92.6058	84.9609	88.3515	84.9609	91.9946	84.9609	88.4722	84.9609	91.362	84.9609	88.6107	84.9609	90.7774	84.9609	88.7635	84.9609	90.2815	84.9609	88.9299	84.9609	89.8839	84.9609	89.113	84.9609	89.5715	84.9609	89.3217
87.8906	90.4289	87.8906	89.9459	87.8906	90.9368	87.8906	89.5021	87.8906	91.4521	87.8906	89.1086	87.8906	91.9553	87.8906	88.7734	87.8906	92.4249	87.8906	88.5004	87.8906	92.8388	87.8906	88.2907	87.8906	93.1742	87.8906	88.1422	87.8906	93.4102	87.8906	88.0508	87.8906	93.535	87.8906	88.0104	87.8906	93.5299	87.8906	88.0147	87.8906	93.3276	87.8906	88.0567	87.8906	92.8627	87.8906	88.1302	87.8906	92.1936	87.8906	88.2296	87.8906	91.4596	87.8906	88.351	87.8906	90.7699	87.8906	88.4924	87.8906	90.1833	87.8906	88.655	87.8906	89.7156	87.8906	88.8441	87.8906	89.3531	87.8906	89.0707
90.8203	90.2748	90.8203	89.7635	90.8203	90.8153	90.8203	89.2988	90.8203	91.3641	90.8203	88.8942	90.8203	91.8985	90.8203	88.5588	90.8203	92.3938	90.8203	88.297	90.8203	92.8239	90.8203	88.1085	90.8203	93.159	90.8203	87.9893	90.8203	93.3655	90.8203	87.9327	90.8203	93.4256	90.8203	87.93	90.8203	93.3441	90.8203	87.972	90.8203	93.0779	90.8203	88.0494	90.8203	92.5716	90.8203	88.1539	90.8203	91.9034	90.8203	88.2782	90.8203	91.2134	90.8203	88.417	90.8203	90.5883	90.8203	88.5669	90.8203	90.0693	90.8203	88.728	90.8203	89.6627	90.8203	88.9043	90.8203	89.3506	90.8203	89.106
95.2148	90.4788	95.2148	89.9373	95.2148	91.0269	95.2148	89.4231	95.2148	91.5596	95.2148	88.9544	95.2148	92.054	95.2148	88.5462	95.2148	92.4872	95.2148	88.2089	95.2148	92.8365	95.2148	87.9482	95.2148	93.0816	95.2148	87.7642	95.2148	93.2061	95.2148	87.6522	95.2148	93.1992	95.2148	87.6035	95.2148	93.0376	95.2148	87.6075	95.2148	92.6641	95.2148	87.6522	95.2148	92.0445	95.2148	87.7262	95.2148	91.269	95.2148	87.8191	95.2148	90.4874	95.2148	87.923	95.2148	89.8042	95.2148	88.0328	95.2148	89.2679	95.2148	88.1472	95.2148	88.8791	95.2148	88.2711	95.2148	88.6085	95.2148	88.4171
98.1445	90.8308	98.1445	90.3137	98.1445	91.3461	98.1445	89.8139	98.1445	91.8391	98.1445	89.3483	98.1445	92.2885	98.1445	88.9311	98.1445	92.6736	98.1445	88.5726	98.1445	92.9763	98.1445	88.279	98.1445	93.1827	98.1445	88.0522	98.1445	93.2808	98.1445	87.8899	98.1445	93.259	98.1445	87.7863	98.1445	93.0941	98.1445	87.7332	98.1445	92.7145	98.1445	87.7212	98.1445	92.0598	98.1445	87.7407	98.1445	91.2315	98.1445	87.7831	98.1445	90.4024	98.1445	87.8415	98.1445	89.6788	98.1445	87.9117	98.1445	89.109	98.1445	87.9938	98.1445	88.6968	98.1445	88.0938	98.1445	88.4154	98.1445	88.2261
101.074	90.4028	101.074	89.858	101.074	90.9468	101.074	89.3347	101.074	91.4663	101.074	88.8524	101.074	91.9372	101.074	88.4268	101.074	92.3369	101.074	88.0686	101.074	92.646	101.074	87.7832	101.074	92.8507	101.074	87.5703	101.074	92.9397	101.074	87.4252	101.074	92.9073	101.074	87.3393	101.074	92.743	101.074	87.3025	101.074	92.3762	101.074	87.3038	101.074	91.7356	101.074	87.3328	101.074	90.9167	101.074	87.3809	101.074	90.087	101.074	87.4416	101.074	89.3498	101.074	87.5118	101.074	88.7589	101.074	87.5931	101.074	88.3256	101.074	87.6935	101.074	88.0282	101.074	87.8295
105.469	90.6058	105.469	90.0166	105.469	91.1682	105.469	89.4266	105.469	91.6773	105.469	88.8607	105.469	92.1069	105.469	88.3415	105.469	92.4321	105.469	87.8877	105.469	92.6306	105.469	87.5128	105.469	92.6858	105.469	87.223	105.469	92.5912	105.469	87.0176	105.469	92.3697	105.469	86.8896	105.469	92.0699	105.469	86.8274	105.469	91.6681	105.469	86.8174	105.469	91.0847	105.469	86.8456	105.469	90.3583	105.469	86.9001	105.469	89.6097	105.469	86.9718	105.469	88.929	105.469	87.0558	105.469	88.3678	105.469	87.1526	105.469	87.9415	105.469	87.2696	105.469	87.6362	105.469	87.4226
108.398	91.0235	108.398	90.4355	108.398	91.5755	108.398	89.8364	108.398	92.0661	108.398	89.2507	108.398	92.4696	108.398	88.7015	108.398	92.761	108.398	88.2093	108.398	92.9163	108.398	87.7906	108.398	92.9148	108.398	87.4563	108.398	92.747	108.398	87.2102	108.398	92.4423	108.398	87.0496	108.398	92.0678	108.398	86.9657	108.398	91.625	108.398	86.9464	108.398	91.0556	108.398	86.9777	108.398	90.3947	108.398	87.0467	108.398	89.7347	108.398	87.1423	108.398	89.1391	108.398	87.2574	108.398	88.6421	108.398	87.3893	108.398	88.2507	108.398	87.5412	108.398	87.9519	108.398	87.7229
112.793	91.2291	112.793	90.6648	112.793	91.7507	112.793	90.0811	112.793	92.2057	112.793	89.5001	112.793	92.5695	112.793	88.9429	112.793	92.8177	112.793	88.4285	112.793	92.9278	112.793	87.9732	112.793	92.8823	112.793	87.5894	112.793	92.6773	112.793	87.2842	112.793	92.3439	112.793	87.0593	112.793	91.9405	112.793	86.9109	112.793	91.4641	112.793	86.8312	112.793	90.8512	112.793	86.81	112.793	90.1413	112.793	86.8359	112.793	89.4446	112.793	86.899	112.793	88.8319	112.793	86.9914	112.793	88.3324	112.793	87.109	112.793	87.9456	112.793	87.2524	112.793	87.6526	112.793	87.4288
117.188	91.2329	117.188	90.683	117.188	91.7381	117.188	90.112	117.188	92.1735	117.188	89.5425	117.188	92.5134	117.188	88.9953	117.188	92.7318	117.188	88.489	117.188	92.8034	117.188	88.039	117.188	92.7069	117.188	87.6563	117.188	92.4328	117.188	87.3471	117.188	92.0104	117.188	87.1121	117.188	91.502	117.188	86.947	117.188	90.9072	117.188	86.844	117.188	90.1901	117.188	86.7929	117.188	89.4351	117.188	86.7828	117.188	88.7551	117.188	86.8038	117.188	88.1975	117.188	86.8482	117.188	87.7725	117.188	86.9115	117.188	87.4666	117.188	86.9943	117.188	87.2531	117.188	87.1033
120.117	91.3415	120.117	90.7856	120.117	91.8518	120.117	90.2083	120.117	92.291	120.117	89.6321	120.117	92.6323	120.117	89.0779	120.117	92.8477	120.117	88.5643	120.117	92.9094	120.117	88.1067	120.117	92.7931	120.117	87.7167	120.117	92.4878	120.117	87.4006	120.117	92.0251	120.117	87.1597	120.117	91.4845	120.117	86.9904	120.117	90.8888	120.117	86.8852	120.117	90.1935	120.117	86.834	120.117	89.4604	120.117	86.826	120.117	88.7987	120.117	86.8514	120.117	88.2574	120.117	86.9018	120.117	87.8449	120.117	86.9726	120.117	87.5457	120.117	87.0631	120.117	87.3328	120.117	87.1789
124.512	91.3768	124.512	90.8386	124.512	91.8757	124.512	90.2852	124.512	92.3091	124.512	89.7388	124.512	92.6497	124.512	89.2193	124.512	92.8695	124.512	88.7438	124.512	92.9412	124.512	88.3258	124.512	92.8413	124.512	87.9747	124.512	92.5533	124.512	87.6948	124.512	92.0892	124.512	87.4858	124.512	91.5048	124.512	87.3427	124.512	90.8349	124.512	87.2576	124.512	90.0832	124.512	87.2202	124.512	89.3471	124.512	87.2198	124.512	88.7386	124.512	87.2464	124.512	88.2838	124.512	87.2916	124.512	87.9654	124.512	87.3495	124.512	87.7505	124.512	87.418	124.512	87.6045	124.512	87.4998
128.906	91.5493	128.906	91.0113	128.906	92.0459	128.906	90.4575	128.906	92.4742	128.906	89.9114	128.906	92.8065	128.906	89.3942	128.906	93.0157	128.906	88.9242	128.906	93.0777	128.906	88.515	128.906	92.9734	128.906	88.1757	128.906	92.6888	128.906	87.9095	128.906	92.2252	128.906	87.7138	128.906	91.6055	128.906	87.5813	128.906	90.8298	128.906	87.5013	128.906	89.9216	128.906	87.4608	128.906	89.0396	128.906	87.4467	128.906	88.3432	128.906	87.4468	128.906	87.8776	128.906	87.4511	128.906	87.6137	128.906	87.4527	128.906	87.4906	128.906	87.4489	128.906	87.4483	128.906	87.4432
133.301	91.4072	133.301	90.8963	133.301	91.8815	133.301	90.3742	133.301	92.2932	133.301	89.8643	133.301	92.6164	133.301	89.3878	133.301	92.8277	133.301	88.9622	133.301	92.9087	133.301	88.6009	133.301	92.8476	133.301	88.3116	133.301	92.6319	133.301	88.0961	133.301	92.2546	133.301	87.9505	133.301	91.7225	133.301	87.8659	133.301	91.0039	133.301	87.8301	133.301	90.1073	133.301	87.8287	133.301	89.2252	133.301	87.8472	133.301	88.5405	133.301	87.8719	133.301	88.102	133.301	87.8908	133.301	87.8807	133.301	87.8953	133.301	87.8086	133.301	87.8807	133.301	87.8156	133.301	87.8497
139.16	91.0026	139.16	90.5082	139.16	91.4489	139.16	89.9944	139.16	91.819	139.16	89.489	139.16	92.0871	139.16	89.0179	139.16	92.2339	139.16	88.6028	139.16	92.2515	139.16	88.2605	139.16	92.1478	139.16	88.0002	139.16	91.9386	139.16	87.8238	139.16	91.6466	139.16	87.7253	139.16	91.2766	139.16	87.693	139.16	90.7246	139.16	87.7111	139.16	89.9322	139.16	87.7621	139.16	89.1028	139.16	87.8286	139.16	88.4563	139.16	87.8947	139.16	88.0587	139.16	87.9467	139.16	87.8822	139.16	87.9744	139.16	87.8515	139.16	87.9716	139.16	87.889	139.16	87.9391
143.555	90.7826	143.555	90.277	143.555	91.231	143.555	89.7456	143.555	91.5917	143.555	89.22	143.555	91.8384	143.555	88.7296	143.555	91.9525	143.555	88.3002	143.555	91.9312	143.555	87.9513	143.555	91.7927	143.555	87.6939	143.555	91.5678	143.555	87.5297	143.555	91.2881	143.555	87.4511	143.555	90.9491	143.555	87.4437	143.555	90.4216	143.555	87.4884	143.555	89.6287	143.555	87.565	143.555	88.795	143.555	87.6536	143.555	88.1604	143.555	87.7367	143.555	87.7913	143.555	87.7998	143.555	87.6516	143.555	87.8322	143.555	87.6553	143.555	87.8274	143.555	87.7188	143.555	87.7859
147.949	90.6788	147.949	90.1356	147.949	91.1517	147.949	89.5587	147.949	91.5197	147.949	88.9849	147.949	91.753	147.949	88.4496	147.949	91.8322	147.949	87.9841	147.949	91.7574	147.949	87.6119	147.949	91.5574	147.949	87.3463	147.949	91.2817	147.949	87.1881	147.949	90.9814	147.949	87.1268	147.949	90.645	147.949	87.1432	147.949	90.0847	147.949	87.2133	147.949	89.1825	147.949	87.3119	147.949	88.2104	147.949	87.4149	147.949	87.4785	147.949	87.5011	147.949	87.0851	147.949	87.553	147.949	86.9907	147.949	87.5567	147.949	87.0807	147.949	87.504	147.949	87.2404	147.949	87.3941
153.809	90.9624	153.809	90.3431	153.809	91.4668	153.809	89.6526	153.809	91.8156	153.809	88.9376	153.809	91.9737	153.809	88.2472	153.809	91.9176	153.809	87.6294	153.809	91.6479	153.809	87.1264	153.809	91.2044	153.809	86.7662	153.809	90.6701	153.809	86.5566	153.809	90.1755	153.809	86.4837	153.809	89.7871	153.809	86.5172	153.809	89.2269	153.809	86.6188	153.809	88.2397	153.809	86.7496	153.809	87.1305	153.809	86.8748	153.809	86.2925	153.809	86.9652	153.809	85.863	153.809	86.9977	153.809	85.8188	153.809	86.9545	153.809	86.0239	153.809	86.8248	153.809	86.323	153.809	86.608
159.668	91.8805	159.668	91.2456	159.668	92.3662	159.668	90.5009	159.668	92.6645	159.668	89.6871	159.668	92.7396	159.668	88.8481	159.668	92.5635	159.668	88.0322	159.668	92.1261	159.668	87.2915	159.668	91.4461	159.668	86.6777	159.668	90.5802	159.668	86.2316	159.668	89.6854	159.668	85.971	159.668	88.9939	159.668	85.8844	159.668	88.4012	159.668	85.9341	159.668	87.6076	159.668	86.0687	159.668	86.7781	159.668	86.2358	159.668	86.1791	159.668	86.3899	159.668	85.856	159.668	86.4953	159.668	85.7879	159.668	86.5265	159.668	85.9089	159.668	86.4694	159.668	86.1188	159.668	86.3252
165.527	92.0963	165.527	91.5336	165.527	92.5055	165.527	90.8545	165.527	92.724	165.527	90.0953	165.527	92.7173	165.527	89.293	165.527	92.46	165.527	88.4863	165.527	91.9455	165.527	87.7173	165.527	91.1931	165.527	87.0312	165.527	90.2487	165.527	86.4721	165.527	89.254	165.527	86.0749	165.527	88.4618	165.527	85.8544	165.527	87.8469	165.527	85.7994	165.527	87.1876	165.527	85.8758	165.527	86.6089	165.527	86.0365	165.527	86.2719	165.527	86.2332	165.527	86.1709	165.527	86.4228	165.527	86.2457	165.527	86.5705	165.527	86.4037	165.527	86.6503	165.527	86.5561	165.527	86.646
171.387	91.8373	171.387	91.3562	171.387	92.178	171.387	90.7688	171.387	92.3446	171.387	90.1085	171.387	92.3072	171.387	89.4084	171.387	92.0469	171.387	88.7025	171.387	91.5648	171.387	88.0269	171.387	90.882	171.387	87.4191	171.387	90.0262	171.387	86.9156	171.387	89.105	171.387	86.5463	171.387	88.365	171.387	86.3262	171.387	87.816	171.387	86.2508	171.387	87.2807	171.387	86.2962	171.387	86.8948	171.387	86.426	171.387	86.7333	171.387	86.5995	171.387	86.7211	171.387	86.7787	171.387	86.8044	171.387	86.9317	171.387	86.9256	171.387	87.0333	171.387	87.026	171.387	87.0665
177.246	91.6879	177.246	91.2538	177.246	91.9682	177.246	90.6998	177.246	92.0628	177.246	90.0599	177.246	91.9464	177.246	89.3687	177.246	91.6092	177.246	88.6628	177.246	91.0698	177.246	87.9818	177.246	90.3764	177.246	87.3684	177.246	89.5785	177.246	86.8667	177.246	88.7697	177.246	86.515	177.246	88.1471	177.246	86.3367	177.246	87.6877	177.246	86.331	177.246	87.2559	177.246	86.4716	177.246	87.0495	177.246	86.7143	177.246	87.1035	177.246	87.008	177.246	87.2848	177.246	87.3046	177.246	87.5075	177.246	87.5628	177.246	87.7051	177.246	87.7498	177.246	87.8257	177.246	87.8418
183.105	91.3456	183.105	90.8997	183.105	91.624	183.105	90.3254	183.105	91.697	183.105	89.6611	183.105	91.5325	183.105	88.9451	183.105	91.1147	183.105	88.2165	183.105	90.4596	183.105	87.5158	183.105	89.6211	183.105	86.8847	183.105	88.6653	183.105	86.3644	183.105	87.7264	183.105	85.9907	183.105	87.0591	183.105	85.787	183.105	86.5942	183.105	85.7577	183.105	86.1817	183.105	85.8862	183.105	86.1788	183.105	86.139	183.105	86.57	183.105	86.4727	183.105	87.0436	183.105	86.8407	183.105	87.4368	183.105	87.1968	183.105	87.6867	183.105	87.4972	183.105	87.7726	183.105	87.701
188.965	91.9724	188.965	91.4849	188.965	92.2472	188.965	90.8319	188.965	92.2619	188.965	90.0592	188.965	91.9735	188.965	89.2129	188.965	91.3561	188.965	88.3414	188.965	90.4222	188.965	87.497	188.965	89.2415	188.965	86.7367	188.965	87.9206	188.965	86.1183	188.965	86.6412	188.965	85.69	188.965	85.6827	188.965	85.4757	188.965	84.9186	188.965	85.4658	188.965	84.2715	188.965	85.6212	188.965	84.3866	188.965	85.8888	188.965	85.1525	188.965	86.2164	188.965	86.0118	188.965	86.5598	188.965	86.6944	188.965	86.8813	188.965	87.1266	188.965	87.1437	188.965	87.3164	188.965	87.305
196.289	93.2132	196.289	92.7003	196.289	93.4874	196.289	92.0001	196.289	93.4671	196.289	91.1588	196.289	93.097	196.289	90.2182	196.289	92.3357	196.289	89.2172	196.289	91.1828	196.289	88.1962	196.289	89.706	196.289	87.2029	196.289	88.0126	196.289	86.3008	196.289	86.3232	196.289	85.5711	196.289	85.1451	196.289	85.0966	196.289	84.4477	196.289	84.9244	196.289	83.7979	196.289	85.0337	196.289	83.6712	196.289	85.3431	196.289	84.2368	196.289	85.7504	196.289	85.0699	196.289	86.1658	196.289	85.8456	196.289	86.5218	196.289	86.4197	196.289	86.7668	196.289	86.7529	196.289	86.8574
203.613	92.9631	203.613	92.5385	203.613	93.1494	203.613	91.9313	203.613	93.0354	203.613	91.1891	203.613	92.5595	203.613	90.3519	203.613	91.6793	203.613	89.4526	203.613	90.4106	203.613	88.5203	203.613	88.8698	203.613	87.5862	203.613	87.2247	203.613	86.6933	203.613	85.6754	203.613	85.9066	203.613	84.5332	203.613	85.3128	203.613	83.6031	203.613	84.9954	203.613	82.8402	203.613	84.9893	203.613	83.1961	203.613	85.252	203.613	84.3384	203.613	85.6855	203.613	85.4832	203.613	86.1814	203.613	86.3727	203.613	86.649	203.613	86.9503	203.613	87.0175	203.613	87.2223	203.613	87.2273
210.938	92.4896	210.938	92.1712	210.938	92.5794	210.938	91.6789	210.938	92.3767	210.938	91.0584	210.938	91.8141	210.938	90.3471	210.938	90.837	210.938	89.575	210.938	89.445	210.938	88.7666	210.938	87.7461	210.938	87.9457	210.938	85.9058	210.938	87.1425	210.938	84.0439	210.938	86.404	210.938	82.3654	210.938	85.8004	210.938	80.9245	210.938	85.4168	210.938	81.1298	210.938	85.3205	210.938	83.5972	210.938	85.5202	210.938	85.8736	210.938	85.9561	210.938	87.356	210.938	86.5311	210.938	88.1827	210.938	87.1482	210.938	88.5173	210.938	87.7268	210.938	88.4881	210.938	88.197
218.262	92.841	218.262	92.485	218.262	92.93	218.262	91.9253	218.262	92.6786	218.262	91.2159	218.262	92.0076	218.262	90.4015	218.262	90.8475	218.262	89.5179	218.262	89.1858	218.262	88.5926	218.262	87.1566	218.262	87.6472	218.262	85.0539	218.262	86.7057	218.262	83.0976	218.262	85.8078	218.262	81.2681	218.262	85.0256	218.262	78.2887	218.262	84.4681	218.262	69.9705	218.262	84.249	218.262	72.7934	218.262	84.4128	218.262	80.0188	218.262	84.8861	218.262	83.4356	218.262	85.5155	218.262	85.3367	218.262	86.1418	218.262	86.3825	218.262	86.6376	218.262	86.854	218.262	86.9045
225.586	92.8638	225.586	92.4877	225.586	92.947	225.586	91.9032	225.586	92.6327	225.586	91.1798	225.586	91.7896	225.586	90.375	225.586	90.2595	225.586	89.5336	225.586	87.8837	225.586	88.6862	225.586	84.6439	225.586	87.8486	225.586	81.0825	225.586	87.0273	225.586	78.6497	225.586	86.2297	225.586	78.5607	225.586	85.4811	225.586	78.708	225.586	84.8421	225.586	76.2579	225.586	84.4175	225.586	73.9944	225.586	84.328	225.586	79.0267	225.586	84.6322	225.586	83.1956	225.586	85.2575	225.586	85.6043	225.586	86.0274	225.586	86.8576	225.586	86.7422	225.586	87.3217	225.586	87.2263
232.91	92.4834	232.91	92.1535	232.91	92.5027	232.91	91.6105	232.91	92.0864	232.91	90.9349	232.91	91.0659	232.91	90.1941	232.91	89.2098	232.91	89.4408	232.91	86.2206	232.91	88.7087	232.91	81.956	232.91	88.0123	232.91	77.9158	232.91	87.3516	232.91	77.539	232.91	86.7234	232.91	79.4624	232.91	86.1317	232.91	79.6427	232.91	85.6017	232.91	74.7593	232.91	85.1931	232.91	70.814	232.91	85.0075	232.91	80.2948	232.91	85.1554	232.91	84.671	232.91	85.6703	232.91	86.9198	232.91	86.4435	232.91	87.9671	232.91	87.2675	232.91	88.2207	232.91	87.9242
241.699	92.5444	241.699	92.2515	241.699	92.5014	241.699	91.7399	241.699	91.9691	241.699	91.1036	241.699	90.7341	241.699	90.4158	241.699	88.4823	241.699	89.7256	241.699	84.7354	241.699	89.0569	241.699	78.9613	241.699	88.413	241.699	73.3687	241.699	87.7893	241.699	74.4275	241.699	87.1854	241.699	78.0529	241.699	86.6098	241.699	79.352	241.699	86.079	241.699	75.6566	241.699	85.617	241.699	59.361	241.699	85.2639	241.699	76.7455	241.699	85.0863	241.699	82.2348	241.699	85.1586	241.699	84.8615	241.699	85.4927	241.699	86.1141	241.699	85.9767	241.699	86.5268	241.699	86.4005
250.488	92.1412	250.488	91.8459	250.488	92.1033	250.488	91.3407	250.488	91.5619	250.488	90.7218	250.488	90.2602	250.488	90.0644	250.488	87.7673	250.488	89.4208	250.488	83.2175	250.488	88.8201	250.488	74.2609	250.488	88.2737	250.488	69.3634	250.488	87.7866	250.488	74.0802	250.488	87.3647	250.488	76.4922	250.488	87.0126	250.488	77.654	250.488	86.7279	250.488	75.0575	250.488	86.5042	250.488	67.3811	250.488	86.3486	250.488	75.3649	250.488	86.2993	250.488	81.5312	250.488	86.4114	250.488	84.7315	250.488	86.6939	250.488	86.4138	250.488	87.0489	250.488	87.1544	250.488	87.281
259.277	92.7987	259.277	92.4165	259.277	92.8159	259.277	91.7974	259.277	92.2918	259.277	91.0419	259.277	90.956	259.277	90.2282	259.277	88.3401	259.277	89.4082	259.277	83.4318	259.277	88.6077	259.277	72.641	259.277	87.8411	259.277	71.6555	259.277	87.1358	259.277	76.8896	259.277	86.545	259.277	79.3801	259.277	86.1277	259.277	80.0349	259.277	85.9032	259.277	77.0295	259.277	85.8306	259.277	71.6697	259.277	85.8519	259.277	77.3623	259.277	85.9549	259.277	82.6382	259.277	86.1875	259.277	85.5097	259.277	86.5872	259.277	86.9708	259.277	87.0815	259.277	87.5233	259.277	87.4753
268.066	92.681	268.066	92.2377	268.066	92.8018	268.066	91.6199	268.066	92.3968	268.066	90.9348	268.066	91.1712	268.066	90.2483	268.066	88.6631	268.066	89.5802	268.066	84.087	268.066	88.9127	268.066	76.8074	268.066	88.2157	268.066	74.2557	268.066	87.4785	268.066	75.4996	268.066	86.7321	268.066	78.9978	268.066	86.0508	268.066	81.2412	268.066	85.521	268.066	79.974	268.066	85.1951	268.066	76.1284	268.066	85.0767	268.066	72.8944	268.066	85.1555	268.066	78.1285	268.066	85.4243	268.066	82.3784	268.066	85.8282	268.066	84.7597	268.066	86.2114	268.066	85.9491	268.066	86.3385
276.855	91.5746	276.855	91.2995	276.855	91.57	276.855	90.8737	276.855	91.0638	276.855	90.371	276.855	89.6912	276.855	89.8299	276.855	86.8637	276.855	89.261	276.855	81.8517	276.855	88.6543	276.855	78.0442	276.855	87.9964	276.855	79.1324	276.855	87.2938	276.855	78.4884	276.855	86.5888	276.855	79.9422	276.855	85.9483	276.855	81.8465	276.855	85.4279	276.855	80.6458	276.855	85.0489	276.855	77.1127	276.855	84.8426	276.855	74.3618	276.855	84.9221	276.855	79.142	276.855	85.4193	276.855	83.5456	276.855	86.2575	276.855	86.1005	276.855	87.1002	276.855	87.3205	276.855	87.5597
287.109	91.7075	287.109	91.4941	287.109	91.6203	287.109	91.0975	287.109	91.0301	287.109	90.5944	287.109	89.5916	287.109	90.0377	287.109	86.8174	287.109	89.4494	287.109	82.9019	287.109	88.8205	287.109	81.9911	287.109	88.133	287.109	82.5806	287.109	87.396	287.109	81.0861	287.109	86.6713	287.109	80.7144	287.109	86.0537	287.109	82.0062	287.109	85.5917	287.109	81.347	287.109	85.2164	287.109	78.7562	287.109	84.7965	287.109	74.9171	287.109	84.3181	287.109	79.5666	287.109	84.0856	287.109	84.3122	287.109	84.5853	287.109	86.6008	287.109	85.738	287.109	87.2752	287.109	86.8424
297.363	91.3422	297.363	91.3477	297.363	90.8843	297.363	90.9922	297.363	89.8666	297.363	90.3641	297.363	88.1475	297.363	89.5551	297.363	85.5555	297.363	88.6619	297.363	82.1684	297.363	87.7818	297.363	79.9892	297.363	87.0047	297.363	81.3544	297.363	86.4031	297.363	83.1788	297.363	86.0223	297.363	83.9902	297.363	85.8741	297.363	83.8535	297.363	85.935	297.363	83.1009	297.363	86.1489	297.363	82.208	297.363	86.4354	297.363	81.7142	297.363	86.7019	297.363	81.9435	297.363	86.8564	297.363	82.8017	297.363	86.8174	297.363	83.9426	297.363	86.5213	297.363	85.0469	297.363	85.9304
307.617	91.7717	307.617	91.602	307.617	91.521	307.617	91.0869	307.617	90.7682	307.617	90.3021	307.617	89.4186	307.617	89.3276	307.617	87.3793	307.617	88.2476	307.617	84.7151	307.617	87.1445	307.617	82.3424	307.617	86.0927	307.617	82.1014	307.617	85.1578	307.617	83.1791	307.617	84.4111	307.617	83.8032	307.617	83.9464	307.617	83.555	307.617	83.8601	307.617	82.6032	307.617	84.1672	307.617	81.3784	307.617	84.7363	307.617	80.4548	307.617	85.346	307.617	80.3062	307.617	85.7892	307.617	81.0621	307.617	85.9201	307.617	82.4009	307.617	85.6504	307.617	83.8099	307.617	84.9399
319.336	90.8512	319.336	90.9245	319.336	90.3407	319.336	90.6292	319.336	89.3384	319.336	90.0397	319.336	87.8418	319.336	89.2342	319.336	86.0493	319.336	88.2914	319.336	84.6624	319.336	87.2874	319.336	84.5199	319.336	86.2934	319.336	85.193	319.336	85.3792	319.336	85.6739	319.336	84.6255	319.336	85.4948	319.336	84.1381	319.336	84.6049	319.336	84.0303	319.336	83.2146	319.336	84.3402	319.336	81.7911	319.336	84.9536	319.336	80.9049	319.336	85.6464	319.336	80.9007	319.336	86.1957	319.336	81.7751	319.336	86.4388	319.336	83.1663	319.336	86.2735	319.336	84.5686	319.336	85.647
329.59	91.3257	329.59	91.2997	329.59	90.8654	329.59	90.8798	329.59	89.8455	329.59	90.1705	329.59	88.2642	329.59	89.2865	329.59	86.4037	329.59	88.3441	329.59	85.1892	329.59	87.4407	329.59	85.3651	329.59	86.6311	329.59	86.0627	329.59	85.914	329.59	86.2581	329.59	85.2441	329.59	85.5907	329.59	84.5751	329.59	84.0561	329.59	83.9282	329.59	81.8971	329.59	83.4579	329.59	79.6738	329.59	83.4072	329.59	78.2356	329.59	83.8464	329.59	78.3216	329.59	84.5118	329.59	79.8064	329.59	85.0249	329.59	81.7737	329.59	85.1099	329.59	83.4802	329.59	84.614
341.309	90.7921	341.309	90.7529	341.309	90.3089	341.309	90.275	341.309	89.2553	341.309	89.4658	341.309	87.6994	341.309	88.4583	341.309	86.0821	341.309	87.4045	341.309	85.3779	341.309	86.4475	341.309	85.8878	341.309	85.6784	341.309	86.633	341.309	85.1095	341.309	86.8541	341.309	84.6985	341.309	86.3379	341.309	84.4138	341.309	85.151	341.309	84.2958	341.309	83.5589	341.309	84.4506	341.309	81.9989	341.309	84.9321	341.309	80.9805	341.309	85.621	341.309	80.9335	341.309	86.2733	341.309	81.9198	341.309	86.6562	341.309	83.4609	341.309	86.6094	341.309	84.9548	341.309	86.0452
353.027	92.0419	353.027	91.9531	353.027	91.5661	353.027	91.37	353.027	90.4718	353.027	90.3726	353.027	88.7821	353.027	89.0584	353.027	86.8217	353.027	87.5541	353.027	85.5324	353.027	86.0235	353.027	85.5607	353.027	84.6545	353.027	86.0388	353.027	83.6079	353.027	86.0666	353.027	82.9387	353.027	85.4338	353.027	82.5723	353.027	84.3674	353.027	82.397	353.027	83.3426	353.027	82.4031	353.027	82.7623	353.027	82.7202	353.027	82.7177	353.027	83.4462	353.027	83.1574	353.027	84.431	353.027	83.973	353.027	85.3557	353.027	84.922	353.027	85.9504	353.027	85.6977	353.027	86.0725
366.211	92.05	366.211	91.9392	366.211	91.7254	366.211	91.4316	366.211	90.9767	366.211	90.5968	366.211	89.9127	366.211	89.5308	366.211	88.7956	366.211	88.3528	366.211	87.9602	366.211	87.1927	366.211	87.4656	366.211	86.1626	366.211	86.9526	366.211	85.3192	366.211	85.9962	366.211	84.648	366.211	84.4574	366.211	84.0978	366.211	82.7807	366.211	83.6542	366.211	81.8345	366.211	83.3889	366.211	81.4983	366.211	83.3937	366.211	80.9043	366.211	83.6116	366.211	79.7905	366.211	83.789	366.211	78.5598	366.211	83.6165	366.211	78.2389	366.211	82.8551	366.211	79.5267	366.211	81.4075
379.395	91.7774	379.395	91.4922	379.395	91.6171	379.395	90.8121	379.395	91.039	379.395	89.8373	379.395	90.2095	379.395	88.7031	379.395	89.4723	379.395	87.5573	379.395	89.1371	379.395	86.5161	379.395	89.0867	379.395	85.6195	379.395	88.8552	379.395	84.8196	379.395	87.9974	379.395	84.0038	379.395	86.2269	379.395	83.042	379.395	83.5682	379.395	81.889	379.395	80.876	379.395	80.8218	379.395	79.3803	379.395	80.6086	379.395	78.4229	379.395	81.5804	379.395	77.2499	379.395	82.9014	379.395	76.9313	379.395	83.7629	379.395	78.67	379.395	83.8214	379.395	81.1179	379.395	82.9448
392.578	90.9353	392.578	90.9734	392.578	90.5851	392.578	90.6787	392.578	90.0687	392.578	90.1072	392.578	89.6612	392.578	89.3592	392.578	89.5811	392.578	88.5569	392.578	89.7318	392.578	87.8188	392.578	89.7821	392.578	87.224	392.578	89.4173	392.578	86.7727	392.578	88.4333	392.578	86.3676	392.578	86.8166	392.578	85.8382	392.578	84.9433	392.578	84.9994	392.578	83.4066	392.578	83.7515	392.578	82.0744	392.578	82.3319	392.578	80.3573	392.578	81.6978	392.578	78.561	392.578	82.5359	392.578	78.5181	392.578	83.8264	392.578	80.6501	392.578	84.5218	392.578	82.897	392.578	84.2422
405.762	91.5835	405.762	91.5678	405.762	91.0193	405.762	90.9672	405.762	90.0799	405.762	89.8596	405.762	89.3327	405.762	88.3761	405.762	89.362	405.762	86.7081	405.762	89.8963	405.762	85.1099	405.762	90.1651	405.762	83.8658	405.762	89.602	405.762	83.2197	405.762	87.8148	405.762	83.2359	405.762	84.6756	405.762	83.6484	405.762	81.7697	405.762	83.9975	405.762	81.5762	405.762	83.9205	405.762	81.3219	405.762	83.3003	405.762	79.4205	405.762	82.4293	405.762	76.8467	405.762	82.145	405.762	77.2409	405.762	82.8471	405.762	80.2382	405.762	83.6613	405.762	82.6104	405.762	83.7132
420.41	91.4566	420.41	91.2269	420.41	91.1238	420.41	90.5201	420.41	90.2938	420.41	89.4971	420.41	89.3586	420.41	88.3579	420.41	89.0203	420.41	87.28	420.41	89.4313	420.41	86.3406	420.41	89.8701	420.41	85.5122	420.41	89.6345	420.41	84.7601	420.41	88.2808	420.41	84.1353	420.41	85.4561	420.41	83.7296	420.41	81.0361	420.41	83.5127	420.41	76.5463	420.41	83.2922	420.41	74.965	420.41	82.9046	420.41	74.8447	420.41	82.4533	420.41	76.1166	420.41	82.3777	420.41	78.787	420.41	82.94	420.41	81.4441	420.41	83.6737	420.41	83.21	420.41	83.9014
435.059	91.2652	435.059	91.0139	435.059	90.9968	435.059	90.3697	435.059	90.1912	435.059	89.5054	435.059	89.0821	435.059	88.5912	435.059	88.295	435.059	87.7477	435.059	88.3279	435.059	87.024	435.059	88.7311	435.059	86.4095	435.059	88.73	435.059	85.8617	435.059	87.8804	435.059	85.3394	435.059	86.0993	435.059	84.8362	435.059	83.8824	435.059	84.3895	435.059	82.3679	435.059	84.0428	435.059	81.8284	435.059	83.7932	435.059	81.5551	435.059	83.5994	435.059	81.383	435.059	83.4529	435.059	81.5753	435.059	83.3937	435.059	82.2001	435.059	83.3986	435.059	82.8891	435.059	83.2952
451.172	92.0011	451.172	91.6731	451.172	91.9234	451.172	90.9743	451.172	91.4538	451.172	89.9803	451.172	90.6682	451.172	88.8031	451.172	89.7047	451.172	87.584	451.172	88.7125	451.172	86.4748	451.172	87.761	451.172	85.6012	451.172	86.8311	451.172	85.0089	451.172	85.9504	451.172	84.6256	451.172	85.3397	451.172	84.2908	451.172	85.2747	451.172	83.8562	451.172	85.624	451.172	83.3204	451.172	85.9106	451.172	82.9523	451.172	85.8197	451.172	83.1503	451.172	85.3515	451.172	83.8816	451.172	84.7647	451.172	84.6372	451.172	84.4506	451.172	85.0086	451.172	84.591	451.172	84.9177
465.82	92.5708	465.82	91.9995	465.82	92.8665	465.82	91.1681	465.82	92.906	465.82	90.1434	465.82	92.7052	465.82	89.0333	465.82	92.2359	465.82	87.9474	465.82	91.4117	465.82	86.9489	465.82	90.0997	465.82	86.04	465.82	88.1441	465.82	85.2094	465.82	85.5393	465.82	84.5074	465.82	83.3382	465.82	84.0373	465.82	83.4211	465.82	83.7886	465.82	84.3238	465.82	83.5217	465.82	84.534	465.82	82.9413	465.82	84.2612	465.82	82.0175	465.82	84.0302	465.82	81.3495	465.82	84.0244	465.82	81.8156	465.82	84.1973	465.82	83.0209	465.82	84.3011	465.82	83.966
483.398	91.5271	483.398	91.3709	483.398	91.5766	483.398	90.9246	483.398	91.7178	483.398	90.1393	483.398	91.939	483.398	89.095	483.398	91.9939	483.398	87.9614	483.398	91.6096	483.398	86.9428	483.398	90.6143	483.398	86.2013	483.398	88.9371	483.398	85.7769	483.398	86.6586	483.398	85.5623	483.398	84.3759	483.398	85.3601	483.398	83.167	483.398	84.9684	483.398	82.734	483.398	84.2499	483.398	82.1113	483.398	83.2275	483.398	81.3127	483.398	82.2916	483.398	80.666	483.398	82.1665	483.398	80.4713	483.398	82.866	483.398	81.1815	483.398	83.4925	483.398	82.468	483.398	83.394
499.512	92.1634	499.512	91.9508	499.512	92.0251	499.512	91.2034	499.512	91.944	499.512	89.9768	499.512	92.1856	499.512	88.513	499.512	92.4588	499.512	87.1354	499.512	92.2178	499.512	86.0351	499.512	91.0531	499.512	85.1585	499.512	88.667	499.512	84.3413	499.512	85.0442	499.512	83.478	499.512	83.2545	499.512	82.6731	499.512	85.223	499.512	82.3108	499.512	86.0345	499.512	82.6045	499.512	84.9238	499.512	83.1173	499.512	83.0753	499.512	83.2788	499.512	82.175	499.512	82.9001	499.512	82.0651	499.512	82.2487	499.512	82.0169	499.512	81.8553	499.512	81.9638	499.512	81.8671
517.09	91.1353	517.09	90.9468	517.09	90.7465	517.09	90.2478	517.09	90.1078	517.09	89.2915	517.09	89.9818	517.09	88.3592	517.09	90.5827	517.09	87.6076	517.09	91.1098	517.09	87.0252	517.09	90.8676	517.09	86.4981	517.09	89.4688	517.09	85.8642	517.09	86.3454	517.09	84.9805	517.09	81.5329	517.09	83.8651	517.09	82.3302	517.09	82.8515	517.09	84.3144	517.09	82.3863	517.09	82.8808	517.09	82.3668	517.09	78.2688	517.09	82.3137	517.09	72.2285	517.09	82.1822	517.09	67.8284	517.09	82.3622	517.09	74.6211	517.09	82.6944	517.09	79.9578	517.09	82.2353
536.133	92.2055	536.133	91.6972	536.133	92.2435	536.133	90.9138	536.133	91.7181	536.133	89.989	536.133	90.8225	536.133	88.9271	536.133	90.114	536.133	87.7199	536.133	89.93	536.133	86.5394	536.133	89.7115	536.133	85.7676	536.133	88.4561	536.133	85.6286	536.133	84.8883	536.133	85.8436	536.133	77.5686	536.133	85.9414	536.133	79.7756	536.133	85.6342	536.133	82.5673	536.133	84.9162	536.133	82.1025	536.133	84.1028	536.133	81.2237	536.133	83.6738	536.133	81.3238	536.133	83.738	536.133	82.2444	536.133	84.0232	536.133	83.608	536.133	84.3824	536.133	84.5186	536.133	84.6749
555.176	92.5351	555.176	92.1622	555.176	92.7125	555.176	91.528	555.176	92.6749	555.176	90.5818	555.176	92.308	555.176	89.3602	555.176	91.51	555.176	87.9777	555.176	90.3164	555.176	86.5524	555.176	88.9325	555.176	85.153	555.176	87.503	555.176	83.8731	555.176	85.7116	555.176	82.9407	555.176	82.6821	555.176	82.5814	555.176	77.4199	555.176	82.7282	555.176	78.3153	555.176	83.0888	555.176	83.0679	555.176	83.3909	555.176	84.9474	555.176	83.4517	555.176	85.0273	555.176	83.2076	555.176	84.4706	555.176	82.8274	555.176	84.0494	555.176	82.7342	555.176	83.6729	555.176	83.1351
574.219	92.5192	574.219	92.3218	574.219	92.739	574.219	91.8411	574.219	93.2091	574.219	91.0194	574.219	93.6543	574.219	89.9706	574.219	93.5707	574.219	88.7972	574.219	92.6311	574.219	87.5285	574.219	90.7197	574.219	86.2456	574.219	87.9605	574.219	85.17	574.219	85.1087	574.219	84.4452	574.219	83.4507	574.219	83.8793	574.219	82.7063	574.219	83.1373	574.219	82.7095	574.219	82.1674	574.219	83.9025	574.219	81.654	574.219	84.9413	574.219	82.463	574.219	85.3263	574.219	83.8354	574.219	85.1472	574.219	84.5843	574.219	84.2264	574.219	84.304	574.219	83.143	574.219	83.3529
594.727	92.0728	594.727	92.0119	594.727	91.483	594.727	91.2891	594.727	90.8046	594.727	90.169	594.727	90.9291	594.727	88.9746	594.727	91.6529	594.727	87.8498	594.727	91.9814	594.727	86.7163	594.727	91.3127	594.727	85.4881	594.727	89.2255	594.727	84.2302	594.727	84.9458	594.727	83.1489	594.727	78.8048	594.727	82.5405	594.727	81.0999	594.727	82.6225	594.727	82.8806	594.727	83.104	594.727	81.5664	594.727	83.2538	594.727	78.0873	594.727	82.4697	594.727	73.467	594.727	80.8317	594.727	70.695	594.727	80.3681	594.727	76.174	594.727	81.9332	594.727	80.9121	594.727	82.6052
615.234	91.455	615.234	91.3897	615.234	91.3026	615.234	91.0242	615.234	91.0981	615.234	90.3863	615.234	90.9788	615.234	89.5606	615.234	90.9451	615.234	88.5925	615.234	90.8494	615.234	87.4359	615.234	90.4184	615.234	86.029	615.234	89.2211	615.234	84.5114	615.234	86.5742	615.234	83.4005	615.234	81.2951	615.234	83.0599	615.234	72.951	615.234	82.9602	615.234	76.4885	615.234	82.4323	615.234	79.0132	615.234	81.6135	615.234	78.8875	615.234	81.6361	615.234	77.8832	615.234	82.6378	615.234	78.5877	615.234	83.1436	615.234	79.713	615.234	82.3335	615.234	79.8401	615.234	80.6338
637.207	92.1434	637.207	91.6586	637.207	92.0992	637.207	90.7581	637.207	91.6305	637.207	89.6901	637.207	91.0366	637.207	88.659	637.207	90.5647	637.207	87.6726	637.207	90.109	637.207	86.5859	637.207	89.3476	637.207	85.2543	637.207	88.0418	637.207	83.7112	637.207	86.1571	637.207	82.4304	637.207	83.9804	637.207	82.1187	637.207	82.0939	637.207	82.5082	637.207	81.4036	637.207	82.6856	637.207	81.9736	637.207	82.265	637.207	82.1759	637.207	81.5645	637.207	81.1799	637.207	81.4159	637.207	79.503	637.207	81.9492	637.207	78.9853	637.207	82.2502	637.207	80.2866	637.207	81.6895
659.18	92.2553	659.18	92.1362	659.18	92.0328	659.18	91.5214	659.18	92.0028	659.18	90.5979	659.18	92.4195	659.18	89.652	659.18	92.7258	659.18	88.8234	659.18	92.2605	659.18	88.0366	659.18	90.6551	659.18	87.1081	659.18	87.7384	659.18	85.8013	659.18	84.4193	659.18	83.8307	659.18	83.9482	659.18	81.1191	659.18	84.6187	659.18	79.0559	659.18	84.2433	659.18	79.8239	659.18	84.1202	659.18	81.1948	659.18	84.5759	659.18	81.5214	659.18	84.3507	659.18	81.452	659.18	83.4375	659.18	82.3757	659.18	82.8848	659.18	83.6133	659.18	83.3437	659.18	83.9257
682.617	92.201	682.617	91.8287	682.617	92.1481	682.617	91.1883	682.617	91.7027	682.617	90.4613	682.617	91.2428	682.617	89.7493	682.617	91.2161	682.617	89.0515	682.617	91.443	682.617	88.3609	682.617	91.2184	682.617	87.7266	682.617	89.5363	682.617	87.0716	682.617	84.2781	682.617	86.0814	682.617	78.3558	682.617	84.4835	682.617	85.5887	682.617	82.418	682.617	86.2159	682.617	80.7769	682.617	82.5972	682.617	80.1039	682.617	76.0106	682.617	79.3098	682.617	75.2203	682.617	78.8662	682.617	78.8812	682.617	80.4252	682.617	80.8087	682.617	81.9678	682.617	81.7266	682.617	82.26
707.52	91.4738	707.52	91.6248	707.52	91.0407	707.52	91.2625	707.52	90.6416	707.52	90.4339	707.52	90.2622	707.52	89.3377	707.52	89.7399	707.52	88.1141	707.52	89.2865	707.52	86.7889	707.52	89.2104	707.52	85.5217	707.52	89.0018	707.52	84.7925	707.52	87.2256	707.52	84.7555	707.52	81.5096	707.52	84.7237	707.52	72.2973	707.52	83.9785	707.52	80.5301	707.52	82.395	707.52	82.0818	707.52	80.9821	707.52	81.0326	707.52	80.9895	707.52	78.1893	707.52	81.2229	707.52	77.0948	707.52	80.6818	707.52	79.9377	707.52	80.3001	707.52	81.373	707.52	81.0198
732.422	92.4111	732.422	92.1221	732.422	92.1482	732.422	91.2584	732.422	91.6915	732.422	90.123	732.422	91.348	732.422	89.0384	732.422	90.9765	732.422	88.0412	732.422	90.2219	732.422	87.0008	732.422	88.947	732.422	85.8322	732.422	87.4585	732.422	84.6506	732.422	85.8683	732.422	83.9813	732.422	82.985	732.422	84.2058	732.422	77.1248	732.422	84.5967	732.422	78.124	732.422	84.1049	732.422	81.5774	732.422	82.3196	732.422	81.6791	732.422	80.4258	732.422	79.9631	732.422	80.7911	732.422	77.7522	732.422	81.5973	732.422	76.8139	732.422	81.1115	732.422	77.9334	732.422	79.6236
757.324	92.722	757.324	92.2325	757.324	92.5883	757.324	91.5169	757.324	91.8814	757.324	90.7357	757.324	91.5155	757.324	89.7268	757.324	92.0222	757.324	88.4544	757.324	92.3943	757.324	87.08	757.324	91.5783	757.324	85.7149	757.324	88.8728	757.324	84.486	757.324	84.1925	757.324	83.5917	757.324	81.5943	757.324	83.0902	757.324	80.6337	757.324	83.1626	757.324	80.2725	757.324	83.6793	757.324	83.7045	757.324	83.8105	757.324	84.2245	757.324	82.8678	757.324	81.963	757.324	81.3115	757.324	79.2708	757.324	81.5039	757.324	78.715	757.324	82.6688	757.324	80.5635	757.324	82.4159
785.156	92.8971	785.156	92.4491	785.156	93.0886	785.156	91.7174	785.156	92.7144	785.156	90.9024	785.156	91.4226	785.156	90.3642	785.156	89.6826	785.156	89.869	785.156	89.182	785.156	88.8197	785.156	89.8849	785.156	86.826	785.156	89.7364	785.156	84.1263	785.156	87.2541	785.156	82.3729	785.156	80.3701	785.156	82.7382	785.156	75.43	785.156	83.419	785.156	75.3068	785.156	83.1228	785.156	75.0785	785.156	82.2378	785.156	72.6286	785.156	82.3993	785.156	66.1784	785.156	82.8358	785.156	73.6726	785.156	81.8662	785.156	80.824	785.156	80.8171	785.156	83.1626	785.156	82.3054
811.523	91.639	811.523	91.9531	811.523	91.131	811.523	91.7053	811.523	91.1418	811.523	91.3252	811.523	91.2078	811.523	90.9576	811.523	90.4992	811.523	90.2338	811.523	88.7332	811.523	88.9261	811.523	87.1857	811.523	86.9816	811.523	87.6059	811.523	84.4123	811.523	87.1391	811.523	81.2943	811.523	82.3248	811.523	78.9049	811.523	74.8895	811.523	79.4532	811.523	75.6784	811.523	80.9801	811.523	75.6062	811.523	82.0511	811.523	78.7232	811.523	82.2954	811.523	79.554	811.523	81.6651	811.523	75.489	811.523	81.1952	811.523	76.5317	811.523	81.2989	811.523	78.7898	811.523	80.4606
840.82	92.0411	840.82	91.9261	840.82	91.5646	840.82	91.3849	840.82	91.2758	840.82	90.8759	840.82	91.7089	840.82	90.1154	840.82	92.0707	840.82	88.745	840.82	91.5677	840.82	87.2265	840.82	90.0212	840.82	86.3331	840.82	87.8139	840.82	85.6934	840.82	85.5283	840.82	83.8989	840.82	83.1998	840.82	79.8797	840.82	82.8451	840.82	78.4539	840.82	84.025	840.82	81.9095	840.82	83.2962	840.82	83.2237	840.82	82.7756	840.82	82.8422	840.82	81.3497	840.82	81.8444	840.82	77.1458	840.82	80.7374	840.82	75.573	840.82	80.4721	840.82	78.6083	840.82	80.5597
870.117	92.0099	870.117	91.9697	870.117	91.8447	870.117	91.6911	870.117	91.0139	870.117	90.9897	870.117	89.4566	870.117	89.9669	870.117	88.6398	870.117	88.737	870.117	89.6353	870.117	87.1661	870.117	90.437	870.117	85.3078	870.117	89.6831	870.117	84.1198	870.117	85.6254	870.117	84.0994	870.117	78.6387	870.117	83.5818	870.117	86.6707	870.117	80.6855	870.117	86.2536	870.117	76.232	870.117	81.5854	870.117	78.339	870.117	73.3933	870.117	79.4055	870.117	68.8555	870.117	78.146	870.117	75.9671	870.117	79.0428	870.117	79.2897	870.117	80.589	870.117	79.9616	870.117	80.3462
900.879	91.4981	900.879	91.7243	900.879	91.595	900.879	92.103	900.879	91.6147	900.879	92.0056	900.879	91.1124	900.879	91.1612	900.879	89.8246	900.879	89.977	900.879	87.7205	900.879	89.0128	900.879	86.9312	900.879	88.1687	900.879	88.6112	900.879	86.648	900.879	88.399	900.879	83.7935	900.879	80.188	900.879	81.1364	900.879	81.4495	900.879	81.1607	900.879	82.7622	900.879	80.8129	900.879	75.746	900.879	78.2298	900.879	81.1074	900.879	78.3389	900.879	82.7426	900.879	80.6434	900.879	79.6072	900.879	81.0425	900.879	81.835	900.879	80.7696	900.879	81.5302	900.879	80.3499
933.105	91.7213	933.105	92.0983	933.105	91.3229	933.105	92.2951	933.105	90.7881	933.105	91.8388	933.105	90.6705	933.105	90.7453	933.105	91.2026	933.105	89.4149	933.105	91.3205	933.105	88.0972	933.105	90.1918	933.105	86.9004	933.105	88.2269	933.105	85.5523	933.105	86.9093	933.105	83.5004	933.105	84.0294	933.105	81.613	933.105	73.8175	933.105	82.7495	933.105	74.8084	933.105	84.0838	933.105	79.4624	933.105	82.9978	933.105	82.382	933.105	80.8483	933.105	82.8645	933.105	80.539	933.105	76.0354	933.105	80.4409	933.105	56.7966	933.105	80.139	933.105	70.0362	933.105	78.4016
965.332	91.6879	965.332	92.6179	965.332	90.5894	965.332	92.8143	965.332	89.7356	965.332	92.343	965.332	88.998	965.332	91.3752	965.332	88.987	965.332	89.7813	965.332	90.1229	965.332	87.6239	965.332	90.9796	965.332	85.4047	965.332	90.2843	965.332	83.6929	965.332	86.8414	965.332	83.241	965.332	81.2151	965.332	83.6917	965.332	81.26	965.332	83.3814	965.332	79.6129	965.332	81.6752	965.332	81.9558	965.332	80.1219	965.332	77.3169	965.332	80.5531	965.332	68.6009	965.332	80.8591	965.332	73.438	965.332	80.9351	965.332	76.7023	965.332	81.4395	965.332	78.6328	965.332	80.6993
1,000.49	91.6821	1,000.49	92.8521	1,000.49	90.3148	1,000.49	93.0851	1,000.49	90.3793	1,000.49	92.6531	1,000.49	91.4158	1,000.49	91.6887	1,000.49	91.7805	1,000.49	90.0581	1,000.49	90.4493	1,000.49	87.8534	1,000.49	89.1323	1,000.49	85.9614	1,000.49	90.0979	1,000.49	85.4019	1,000.49	89.9021	1,000.49	84.6427	1,000.49	82.2786	1,000.49	80.2438	1,000.49	81.429	1,000.49	75.297	1,000.49	78.5487	1,000.49	81.4613	1,000.49	72.3047	1,000.49	81.8337	1,000.49	82.5386	1,000.49	82.0488	1,000.49	84.7083	1,000.49	83.766	1,000.49	79.7597	1,000.49	82.2783	1,000.49	76.4341	1,000.49	80.958	1,000.49	80.8418	1,000.49	82.7788
1,035.64	91.5346	1,035.64	92.4841	1,035.64	90.7427	1,035.64	92.8258	1,035.64	90.37	1,035.64	92.2441	1,035.64	90.2599	1,035.64	90.9558	1,035.64	90.3335	1,035.64	89.6629	1,035.64	90.5445	1,035.64	88.647	1,035.64	90.9118	1,035.64	86.9732	1,035.64	90.7906	1,035.64	84.1686	1,035.64	88.06	1,035.64	83.7615	1,035.64	81.2626	1,035.64	84.649	1,035.64	84.6525	1,035.64	82.9813	1,035.64	83.7065	1,035.64	79.9896	1,035.64	78.3887	1,035.64	81.9331	1,035.64	80.5465	1,035.64	82.4671	1,035.64	81.8489	1,035.64	80.1356	1,035.64	77.061	1,035.64	81.3324	1,035.64	71.6642	1,035.64	81.6507	1,035.64	74.5026	1,035.64	77.9247
1,072.27	90.3971	1,072.27	91.7682	1,072.27	88.996	1,072.27	92.1893	1,072.27	88.2233	1,072.27	91.6106	1,072.27	87.6826	1,072.27	90.5825	1,072.27	87.4584	1,072.27	89.2223	1,072.27	88.5241	1,072.27	87.4879	1,072.27	89.8967	1,072.27	85.8498	1,072.27	90.1712	1,072.27	84.4995	1,072.27	87.993	1,072.27	82.5613	1,072.27	79.486	1,072.27	78.0101	1,072.27	74.8956	1,072.27	74.2167	1,072.27	78.6671	1,072.27	77.1473	1,072.27	74.134	1,072.27	76.1138	1,072.27	73.4377	1,072.27	77.3293	1,072.27	65.9836	1,072.27	80.628	1,072.27	65.518	1,072.27	80.6812	1,072.27	69.2189	1,072.27	80.0562	1,072.27	74.7144	1,072.27	79.194
1,108.89	91.0548	1,108.89	92.028	1,108.89	89.8829	1,108.89	92.3867	1,108.89	89.1416	1,108.89	91.8999	1,108.89	89.4695	1,108.89	90.7003	1,108.89	90.5554	1,108.89	89.2886	1,108.89	91.2484	1,108.89	87.9517	1,108.89	90.8777	1,108.89	86.3597	1,108.89	89.7868	1,108.89	84.7806	1,108.89	88.6511	1,108.89	83.3667	1,108.89	85.4614	1,108.89	80.1708	1,108.89	71.1799	1,108.89	74.8536	1,108.89	74.3273	1,108.89	76.6547	1,108.89	74.2498	1,108.89	77.7498	1,108.89	79.0537	1,108.89	77.8862	1,108.89	82.659	1,108.89	81.4984	1,108.89	81.3855	1,108.89	82.4361	1,108.89	77.1817	1,108.89	80.8325	1,108.89	78.2606	1,108.89	80.5049
1,148.44	90.98	1,148.44	92.4226	1,148.44	88.7821	1,148.44	91.933	1,148.44	88.8234	1,148.44	90.7249	1,148.44	89.4785	1,148.44	89.8803	1,148.44	88.6572	1,148.44	89.0597	1,148.44	88.4955	1,148.44	87.734	1,148.44	90.5011	1,148.44	85.7382	1,148.44	90.7407	1,148.44	83.964	1,148.44	86.3568	1,148.44	83.4746	1,148.44	80.9324	1,148.44	82.9236	1,148.44	80.4686	1,148.44	81.178	1,148.44	73.6257	1,148.44	77.9751	1,148.44	76.1053	1,148.44	77.565	1,148.44	69.3674	1,148.44	80.414	1,148.44	70.9568	1,148.44	79.4874	1,148.44	71.1387	1,148.44	78.4603	1,148.44	70.8128	1,148.44	79.7889	1,148.44	72.9427	1,148.44	77.3007
1,189.45	91.5416	1,189.45	92.2317	1,189.45	90.1391	1,189.45	91.6301	1,189.45	89.9402	1,189.45	90.8505	1,189.45	90.6878	1,189.45	90.1605	1,189.45	90.6302	1,189.45	88.6658	1,189.45	89.5512	1,189.45	86.3237	1,189.45	89.0878	1,189.45	83.7985	1,189.45	89.2335	1,189.45	81.5259	1,189.45	87.5692	1,189.45	78.9134	1,189.45	79.0967	1,189.45	75.8259	1,189.45	75.4783	1,189.45	77.0173	1,189.45	67.3937	1,189.45	78.8163	1,189.45	68.4565	1,189.45	78.8113	1,189.45	78.9642	1,189.45	77.6246	1,189.45	81.3089	1,189.45	76.9715	1,189.45	76.3728	1,189.45	79.1763	1,189.45	70.9628	1,189.45	80.3837	1,189.45	75.9366	1,189.45	80.0489
1,230.47	91.1351	1,230.47	92.0856	1,230.47	89.7614	1,230.47	91.9301	1,230.47	89.4435	1,230.47	91.704	1,230.47	89.048	1,230.47	90.7572	1,230.47	88.1687	1,230.47	88.4156	1,230.47	89.6199	1,230.47	86.8689	1,230.47	91.0272	1,230.47	85.9361	1,230.47	90.0253	1,230.47	82.752	1,230.47	86.8244	1,230.47	79.5882	1,230.47	81.3642	1,230.47	80.2215	1,230.47	76.2771	1,230.47	79.6233	1,230.47	80.272	1,230.47	76.8819	1,230.47	79.3446	1,230.47	76.6279	1,230.47	74.2578	1,230.47	80.037	1,230.47	78.6214	1,230.47	80.7984	1,230.47	77.3029	1,230.47	81.7001	1,230.47	77.8983	1,230.47	82.4513	1,230.47	76.8428	1,230.47	79.7401
1,274.41	90.6035	1,274.41	91.4522	1,274.41	89.2285	1,274.41	92.2587	1,274.41	88.4415	1,274.41	92.132	1,274.41	89.8419	1,274.41	90.7288	1,274.41	90.642	1,274.41	89.568	1,274.41	89.5817	1,274.41	88.1478	1,274.41	89.594	1,274.41	85.4821	1,274.41	90.3875	1,274.41	83.7632	1,274.41	88.5268	1,274.41	82.1549	1,274.41	82.796	1,274.41	75.2066	1,274.41	81.7876	1,274.41	74.4455	1,274.41	77.853	1,274.41	78.6847	1,274.41	73.8006	1,274.41	77.3522	1,274.41	78.5045	1,274.41	78.3042	1,274.41	80.6394	1,274.41	78.8174	1,274.41	75.9176	1,274.41	76.8571	1,274.41	53.1026	1,274.41	78.8337	1,274.41	64.1962	1,274.41	77.9337
1,319.82	91.579	1,319.82	92.3111	1,319.82	90.0856	1,319.82	92.133	1,319.82	88.9097	1,319.82	91.5297	1,319.82	89.3921	1,319.82	90.9236	1,319.82	90.3312	1,319.82	89.7038	1,319.82	90.553	1,319.82	87.5264	1,319.82	90.1174	1,319.82	84.8183	1,319.82	89.5004	1,319.82	80.7943	1,319.82	88.149	1,319.82	76.3003	1,319.82	81.7178	1,319.82	76.916	1,319.82	77.4271	1,319.82	75.0186	1,319.82	77.2383	1,319.82	72.7659	1,319.82	79.116	1,319.82	76.2382	1,319.82	73.3335	1,319.82	77.6083	1,319.82	79.0158	1,319.82	79.8769	1,319.82	77.7732	1,319.82	81.4114	1,319.82	79.1286	1,319.82	81.5553	1,319.82	79.4401	1,319.82	80.9433
1,366.7	90.4614	1,366.7	91.3118	1,366.7	88.4362	1,366.7	91.7547	1,366.7	86.841	1,366.7	91.5568	1,366.7	89.5215	1,366.7	90.973	1,366.7	91.3181	1,366.7	89.4285	1,366.7	89.9508	1,366.7	86.432	1,366.7	89.5654	1,366.7	84.745	1,366.7	90.54	1,366.7	85.3049	1,366.7	87.3163	1,366.7	86.464	1,366.7	79.6392	1,366.7	86.4946	1,366.7	81.1794	1,366.7	82.0215	1,366.7	81.3792	1,366.7	62.0196	1,366.7	75.1402	1,366.7	78.5025	1,366.7	75.9247	1,366.7	76.083	1,366.7	79.9906	1,366.7	77.4586	1,366.7	73.8434	1,366.7	79.3022	1,366.7	69.0648	1,366.7	79.1894	1,366.7	73.3884	1,366.7	80.347
1,413.57	90.7962	1,413.57	91.1994	1,413.57	89.997	1,413.57	91.0826	1,413.57	88.8746	1,413.57	90.3506	1,413.57	88.4701	1,413.57	89.205	1,413.57	90.1093	1,413.57	88.291	1,413.57	90.6315	1,413.57	87.6006	1,413.57	89.5803	1,413.57	85.1378	1,413.57	87.9802	1,413.57	80.6529	1,413.57	86.5351	1,413.57	71.9444	1,413.57	80.6626	1,413.57	64.5419	1,413.57	76.5633	1,413.57	79.1989	1,413.57	74.748	1,413.57	81.3099	1,413.57	79.649	1,413.57	77.6939	1,413.57	80.1322	1,413.57	77.7407	1,413.57	78.8156	1,413.57	76.7931	1,413.57	77.2197	1,413.57	79.6848	1,413.57	78.0376	1,413.57	80.0766	1,413.57	77.7705	1,413.57	77.9933
1,463.38	89.9125	1,463.38	90.4302	1,463.38	89.3904	1,463.38	91.15	1,463.38	87.6671	1,463.38	90.7158	1,463.38	87.9977	1,463.38	89.1607	1,463.38	89.9092	1,463.38	87.425	1,463.38	89.8721	1,463.38	85.9775	1,463.38	88.937	1,463.38	85.0978	1,463.38	89.4169	1,463.38	83.6852	1,463.38	86.7551	1,463.38	82.0647	1,463.38	76.9587	1,463.38	78.6285	1,463.38	80.9953	1,463.38	66.6386	1,463.38	81.4195	1,463.38	76.0859	1,463.38	73.1323	1,463.38	72.7237	1,463.38	75.8232	1,463.38	74.0676	1,463.38	77.4747	1,463.38	78.0862	1,463.38	69.1005	1,463.38	80.1438	1,463.38	73.172	1,463.38	80.0778	1,463.38	76.1318	1,463.38	77.7683
1,516.11	90.7831	1,516.11	90.2645	1,516.11	90.9892	1,516.11	90.0883	1,516.11	89.6109	1,516.11	89.4473	1,516.11	86.6147	1,516.11	88.2742	1,516.11	87.5044	1,516.11	87.8173	1,516.11	88.6111	1,516.11	86.9737	1,516.11	88.1591	1,516.11	85.1305	1,516.11	88.0552	1,516.11	83.8838	1,516.11	87.1275	1,516.11	79.6738	1,516.11	79.2444	1,516.11	78.6179	1,516.11	82.357	1,516.11	79.3909	1,516.11	78.2615	1,516.11	71.7487	1,516.11	76.2959	1,516.11	79.2903	1,516.11	74.9007	1,516.11	79.9107	1,516.11	74.3528	1,516.11	76.1334	1,516.11	77.6185	1,516.11	76.7189	1,516.11	75.5534	1,516.11	77.5963	1,516.11	74.5992	1,516.11	78.3501
1,568.85	90.0883	1,568.85	90.8794	1,568.85	89.99	1,568.85	90.1868	1,568.85	89.3577	1,568.85	88.0912	1,568.85	87.1919	1,568.85	87.9079	1,568.85	87.462	1,568.85	87.497	1,568.85	88.7463	1,568.85	85.3317	1,568.85	89.0353	1,568.85	83.1804	1,568.85	89.2976	1,568.85	81.4534	1,568.85	86.6939	1,568.85	82.4657	1,568.85	72.9683	1,568.85	80.6987	1,568.85	79.0807	1,568.85	73.8854	1,568.85	81.3425	1,568.85	76.121	1,568.85	72.8291	1,568.85	72.3486	1,568.85	74.3271	1,568.85	74.2054	1,568.85	77.0211	1,568.85	73.1538	1,568.85	76.7639	1,568.85	76.9804	1,568.85	73.7593	1,568.85	78.7889	1,568.85	78.4058	1,568.85	79.6907
1,624.51	90.4962	1,624.51	90.6859	1,624.51	90.4463	1,624.51	89.8144	1,624.51	90.2336	1,624.51	88.9354	1,624.51	85.8813	1,624.51	88.0365	1,624.51	85.2398	1,624.51	86.9005	1,624.51	86.3815	1,624.51	83.4358	1,624.51	87.3724	1,624.51	81.7612	1,624.51	87.769	1,624.51	81.1923	1,624.51	86.333	1,624.51	78.9537	1,624.51	82.6425	1,624.51	78.7271	1,624.51	74.0006	1,624.51	72.192	1,624.51	77.0759	1,624.51	75.2264	1,624.51	66.9884	1,624.51	77.0691	1,624.51	77.9455	1,624.51	77.4339	1,624.51	72.2139	1,624.51	71.727	1,624.51	79.1683	1,624.51	78.5891	1,624.51	75.2449	1,624.51	82.3	1,624.51	71.4549	1,624.51	80.4295
1,681.64	89.8867	1,681.64	89.8803	1,681.64	88.6546	1,681.64	88.8806	1,681.64	87.6595	1,681.64	88.3662	1,681.64	86.3897	1,681.64	87.9417	1,681.64	86.8839	1,681.64	86.3046	1,681.64	87.4637	1,681.64	84.964	1,681.64	89.4871	1,681.64	80.9838	1,681.64	87.8015	1,681.64	82.1932	1,681.64	89.1351	1,681.64	81.2368	1,681.64	78.1906	1,681.64	73.1225	1,681.64	75.7401	1,681.64	75.6207	1,681.64	72.1128	1,681.64	72.6723	1,681.64	68.6044	1,681.64	60.6233	1,681.64	75.6531	1,681.64	76.3581	1,681.64	74.2854	1,681.64	80.4673	1,681.64	72.3962	1,681.64	76.4761	1,681.64	69.6238	1,681.64	65.6978	1,681.64	80.5465	1,681.64	78.4309
1,741.7	89.3521	1,741.7	89.9764	1,741.7	89.3958	1,741.7	88.9204	1,741.7	87.8031	1,741.7	88.002	1,741.7	85.5269	1,741.7	87.2196	1,741.7	84.6593	1,741.7	85.0047	1,741.7	87.1634	1,741.7	83.5646	1,741.7	86.1238	1,741.7	83.7843	1,741.7	89.7724	1,741.7	80.4467	1,741.7	85.0851	1,741.7	76.2797	1,741.7	77.9769	1,741.7	75.2372	1,741.7	80.1618	1,741.7	72.8339	1,741.7	73.5321	1,741.7	73.0938	1,741.7	73.3242	1,741.7	77.5507	1,741.7	66.1211	1,741.7	76.0542	1,741.7	68.0902	1,741.7	63.5525	1,741.7	73.0533	1,741.7	78.0084	1,741.7	78.1489	1,741.7	80.9716	1,741.7	50.2446	1,741.7	78.4373
1,803.22	89.4583	1,803.22	88.5975	1,803.22	88.4227	1,803.22	88.0839	1,803.22	86.0158	1,803.22	88.041	1,803.22	83.223	1,803.22	86.4403	1,803.22	84.1985	1,803.22	84.3401	1,803.22	85.866	1,803.22	82.9133	1,803.22	88.2375	1,803.22	79.176	1,803.22	87.6569	1,803.22	74.283	1,803.22	87.6334	1,803.22	71.5978	1,803.22	84.3726	1,803.22	74.15	1,803.22	70.9209	1,803.22	75.2841	1,803.22	76.3018	1,803.22	72.506	1,803.22	69.7634	1,803.22	62.9535	1,803.22	75.6052	1,803.22	76.4993	1,803.22	74.2995	1,803.22	79.5551	1,803.22	76.5877	1,803.22	73.7245	1,803.22	68.6624	1,803.22	72.9733	1,803.22	79.5531	1,803.22	80.8468
1,866.21	90.28	1,866.21	89.112	1,866.21	89.7154	1,866.21	87.7386	1,866.21	87.5167	1,866.21	85.6421	1,866.21	82.7062	1,866.21	82.9677	1,866.21	82.8153	1,866.21	82.7876	1,866.21	86.166	1,866.21	79.7986	1,866.21	86.6424	1,866.21	77.4214	1,866.21	87.7515	1,866.21	74.7808	1,866.21	89.0073	1,866.21	73.5267	1,866.21	69.7294	1,866.21	73.6067	1,866.21	78.0599	1,866.21	70.7773	1,866.21	79.1149	1,866.21	74.3715	1,866.21	70.6154	1,866.21	76.1172	1,866.21	72.6427	1,866.21	73.2907	1,866.21	72.4566	1,866.21	71.7199	1,866.21	69.6645	1,866.21	78.9414	1,866.21	76.191	1,866.21	79.7489	1,866.21	70.0418	1,866.21	72.5384
1,932.13	90.3613	1,932.13	89.3123	1,932.13	88.9674	1,932.13	87.6652	1,932.13	86.0016	1,932.13	84.8252	1,932.13	82.6624	1,932.13	82.2843	1,932.13	81.7683	1,932.13	80.96	1,932.13	86.5281	1,932.13	80.2479	1,932.13	86.211	1,932.13	79.7867	1,932.13	89.2935	1,932.13	80.3587	1,932.13	86.0798	1,932.13	80.5294	1,932.13	83.5451	1,932.13	72.9298	1,932.13	74.5473	1,932.13	73.9532	1,932.13	74.7741	1,932.13	72.4918	1,932.13	74.8635	1,932.13	72.5769	1,932.13	69.0795	1,932.13	77.7217	1,932.13	65.0819	1,932.13	78.6775	1,932.13	70.9498	1,932.13	66.4565	1,932.13	75.963	1,932.13	75.155	1,932.13	76.5908	1,932.13	80.7664
1,999.51	89.7126	1,999.51	89.9478	1,999.51	87.33	1,999.51	88.0252	1,999.51	83.8476	1,999.51	82.4699	1,999.51	81.5785	1,999.51	78.5962	1,999.51	83.4326	1,999.51	78.9657	1,999.51	85.1624	1,999.51	79.8271	1,999.51	88.5463	1,999.51	81.1575	1,999.51	86.5681	1,999.51	82.3552	1,999.51	90.1038	1,999.51	81.4791	1,999.51	80.5633	1,999.51	80.8412	1,999.51	74.8907	1,999.51	73.3283	1,999.51	78.9098	1,999.51	74.3583	1,999.51	62.3147	1,999.51	75.2819	1,999.51	71.4768	1,999.51	66.5686	1,999.51	68.4528	1,999.51	75.4765	1,999.51	66.6233	1,999.51	79.2086	1,999.51	68.3868	1,999.51	71.6763	1,999.51	75.2931	1,999.51	74.2338
2,069.82	90.3251	2,069.82	90.6739	2,069.82	88.2701	2,069.82	88.6681	2,069.82	83.0539	2,069.82	82.25	2,069.82	77.7528	2,069.82	71.758	2,069.82	82.6599	2,069.82	78.8895	2,069.82	86.7002	2,069.82	81.0557	2,069.82	87.5448	2,069.82	80.5991	2,069.82	90.2805	2,069.82	76.9773	2,069.82	88.4683	2,069.82	73.509	2,069.82	79.8364	2,069.82	77.7846	2,069.82	80.7552	2,069.82	79.0283	2,069.82	74.6141	2,069.82	74.5147	2,069.82	71.5358	2,069.82	74.9056	2,069.82	69.9842	2,069.82	78.319	2,069.82	66.8385	2,069.82	73.3233	2,069.82	72.3822	2,069.82	69.1846	2,069.82	75.12	2,069.82	77.8233	2,069.82	69.5515	2,069.82	75.1406
2,143.07	90.2183	2,143.07	90.6028	2,143.07	87.6753	2,143.07	88.3355	2,143.07	80.7819	2,143.07	82.0313	2,143.07	80.782	2,143.07	70.2371	2,143.07	83.1947	2,143.07	79.6463	2,143.07	86.4438	2,143.07	82.7575	2,143.07	89.3878	2,143.07	80.9392	2,143.07	88.7592	2,143.07	80.5019	2,143.07	90.2988	2,143.07	79.9676	2,143.07	82.4671	2,143.07	74.8887	2,143.07	67.5339	2,143.07	73.6871	2,143.07	69.5424	2,143.07	78.2734	2,143.07	57.8614	2,143.07	70.788	2,143.07	72.9108	2,143.07	76.0057	2,143.07	70.6381	2,143.07	79.7976	2,143.07	69.0209	2,143.07	76.256	2,143.07	66.5178	2,143.07	65.4059	2,143.07	75.4509	2,143.07	78.2625
2,219.24	90.8983	2,219.24	91.2683	2,219.24	88.8802	2,219.24	88.1391	2,219.24	83.4973	2,219.24	79.8145	2,219.24	79.9309	2,219.24	68.0493	2,219.24	84.2588	2,219.24	79.3692	2,219.24	85.1174	2,219.24	83.6758	2,219.24	87.9122	2,219.24	82.7103	2,219.24	88.8521	2,219.24	85.7493	2,219.24	88.4069	2,219.24	84.8295	2,219.24	72.7927	2,219.24	83.1786	2,219.24	79.4247	2,219.24	76.4162	2,219.24	73.8557	2,219.24	72.9783	2,219.24	76.603	2,219.24	75.896	2,219.24	74.0706	2,219.24	72.4538	2,219.24	66.7322	2,219.24	74.4164	2,219.24	64.3468	2,219.24	78.8788	2,219.24	66.9925	2,219.24	73.8327	2,219.24	70.783	2,219.24	74.2214
2,296.88	91.1684	2,296.88	91.5812	2,296.88	88.6274	2,296.88	88.134	2,296.88	82.9893	2,296.88	80.8282	2,296.88	78.8958	2,296.88	74.8079	2,296.88	83.7603	2,296.88	84.2593	2,296.88	86.8119	2,296.88	83.7284	2,296.88	88.1891	2,296.88	84.5999	2,296.88	89.8422	2,296.88	84.2989	2,296.88	86.808	2,296.88	81.1983	2,296.88	84.1289	2,296.88	80.9607	2,296.88	78.894	2,296.88	79.8963	2,296.88	69.3548	2,296.88	75.8739	2,296.88	73.7604	2,296.88	74.9333	2,296.88	68.8171	2,296.88	77.9496	2,296.88	67.1078	2,296.88	74.032	2,296.88	71.047	2,296.88	71.7763	2,296.88	73.3993	2,296.88	74.8772	2,296.88	74.0179	2,296.88	70.804
2,378.91	90.4481	2,378.91	90.6247	2,378.91	87.6388	2,378.91	87.7973	2,378.91	80.7656	2,378.91	81.9603	2,378.91	77.0161	2,378.91	79.6761	2,378.91	86.2636	2,378.91	83.4798	2,378.91	85.9754	2,378.91	85.4995	2,378.91	88.8126	2,378.91	84.063	2,378.91	86.3331	2,378.91	77.0426	2,378.91	91.1934	2,378.91	76.1782	2,378.91	77.6005	2,378.91	71.5983	2,378.91	76.9115	2,378.91	75.037	2,378.91	75.3633	2,378.91	74.9255	2,378.91	72.0492	2,378.91	73.6159	2,378.91	74.3494	2,378.91	73.4271	2,378.91	54.7823	2,378.91	78.2674	2,378.91	71.914	2,378.91	74.6305	2,378.91	71.9443	2,378.91	50.1981	2,378.91	77.0392	2,378.91	76.1532
2,462.4	89.9301	2,462.4	90.7634	2,462.4	85.8536	2,462.4	87.6353	2,462.4	78.3988	2,462.4	81.4638	2,462.4	76.9447	2,462.4	83.7497	2,462.4	86.5777	2,462.4	84.5591	2,462.4	87.8189	2,462.4	84.9519	2,462.4	87.774	2,462.4	81.7937	2,462.4	90.0205	2,462.4	83.9172	2,462.4	86.5264	2,462.4	84.1132	2,462.4	81.1417	2,462.4	81.6634	2,462.4	77.6469	2,462.4	76.7817	2,462.4	67.6931	2,462.4	74.2119	2,462.4	74.732	2,462.4	71.9881	2,462.4	66.2517	2,462.4	71.6267	2,462.4	71.2799	2,462.4	74.4692	2,462.4	61.4756	2,462.4	74.1692	2,462.4	72.5365	2,462.4	66.5227	2,462.4	70.5579	2,462.4	54.0366
2,548.83	92.0678	2,548.83	91.4167	2,548.83	88.5536	2,548.83	89.0705	2,548.83	81.0454	2,548.83	84.5265	2,548.83	80.7906	2,548.83	85.0091	2,548.83	87.1002	2,548.83	86.3795	2,548.83	86.798	2,548.83	85.2224	2,548.83	89.0671	2,548.83	84.1008	2,548.83	86.2079	2,548.83	85.3999	2,548.83	90.5479	2,548.83	82.2215	2,548.83	75.1458	2,548.83	81.5389	2,548.83	67.7338	2,548.83	77.7476	2,548.83	68.7517	2,548.83	77.2024	2,548.83	67.251	2,548.83	73.0229	2,548.83	73.5247	2,548.83	75.183	2,548.83	67.3281	2,548.83	73.8358	2,548.83	63.2868	2,548.83	76.1036	2,548.83	72.2338	2,548.83	67.6401	2,548.83	74.6638	2,548.83	67.1401
2,639.65	91.3704	2,639.65	91.4189	2,639.65	88.6151	2,639.65	89.0058	2,639.65	84.2159	2,639.65	84.8586	2,639.65	81.5557	2,639.65	85.2964	2,639.65	88.4946	2,639.65	86.6085	2,639.65	88.7285	2,639.65	85.0918	2,639.65	87.5397	2,639.65	86.0386	2,639.65	89.1634	2,639.65	77.5494	2,639.65	86.9869	2,639.65	77.7018	2,639.65	81.5523	2,639.65	76.2213	2,639.65	77.354	2,639.65	78.4116	2,639.65	55.4516	2,639.65	72.0478	2,639.65	74.6269	2,639.65	75.2789	2,639.65	70.1923	2,639.65	71.8334	2,639.65	71.8462	2,639.65	75.8651	2,639.65	54.9675	2,639.65	74.238	2,639.65	74.2742	2,639.65	71.5013	2,639.65	73.438	2,639.65	65.1318
2,731.93	91.9732	2,731.93	92.1264	2,731.93	89.1933	2,731.93	89.5489	2,731.93	86.397	2,731.93	86.8942	2,731.93	86.3424	2,731.93	87.4555	2,731.93	87.8253	2,731.93	86.3473	2,731.93	88.7332	2,731.93	86.4593	2,731.93	88.0636	2,731.93	83.2672	2,731.93	86.0086	2,731.93	84.1473	2,731.93	89.0678	2,731.93	83.5309	2,731.93	79.2295	2,731.93	80.6542	2,731.93	68.4376	2,731.93	78.4647	2,731.93	73.7198	2,731.93	78.5402	2,731.93	68.554	2,731.93	75.1162	2,731.93	73.2188	2,731.93	73.904	2,731.93	66.5166	2,731.93	76.5686	2,731.93	61.0423	2,731.93	72.8224	2,731.93	73.1532	2,731.93	66.3911	2,731.93	73.9639	2,731.93	64.9598
2,828.61	90.7237	2,828.61	90.8044	2,828.61	88.0244	2,828.61	89.3328	2,828.61	86.7452	2,828.61	88.5628	2,828.61	88.0713	2,828.61	87.9628	2,828.61	88.2197	2,828.61	86.7049	2,828.61	88.2862	2,828.61	87.129	2,828.61	87.6909	2,828.61	84.8224	2,828.61	88.3096	2,828.61	86.0781	2,828.61	86.756	2,828.61	81.3485	2,828.61	75.9205	2,828.61	82.5529	2,828.61	74.0177	2,828.61	73.7299	2,828.61	69.1548	2,828.61	77.7601	2,828.61	73.2982	2,828.61	71.7568	2,828.61	70.7468	2,828.61	73.8785	2,828.61	69.7875	2,828.61	74.9119	2,828.61	61.4145	2,828.61	75.2409	2,828.61	74.2935	2,828.61	64.3859	2,828.61	74.6741	2,828.61	66.1206
2,928.22	91.2144	2,928.22	92.3483	2,928.22	89.6631	2,928.22	90.5832	2,928.22	87.6947	2,928.22	88.2279	2,928.22	88.8496	2,928.22	86.7078	2,928.22	88.0677	2,928.22	89.1413	2,928.22	87.1107	2,928.22	84.905	2,928.22	86.191	2,928.22	86.597	2,928.22	86.7057	2,928.22	76.2625	2,928.22	88.1533	2,928.22	79.9296	2,928.22	73.6454	2,928.22	73.9913	2,928.22	67.5851	2,928.22	82.5378	2,928.22	74.7926	2,928.22	69.1299	2,928.22	68.8788	2,928.22	76.853	2,928.22	71.654	2,928.22	71.8207	2,928.22	71.3112	2,928.22	74.6097	2,928.22	61.4252	2,928.22	76.0503	2,928.22	75.2023	2,928.22	72.4891	2,928.22	72.0061	2,928.22	68.6581
3,030.76	92.4228	3,030.76	91.9431	3,030.76	89.6399	3,030.76	90.46	3,030.76	89.23	3,030.76	87.9011	3,030.76	90.2873	3,030.76	88.6184	3,030.76	89.3251	3,030.76	86.9358	3,030.76	86.6377	3,030.76	87.4163	3,030.76	85.5434	3,030.76	82.0391	3,030.76	86.1352	3,030.76	85.8556	3,030.76	85.6096	3,030.76	83.2972	3,030.76	82.4038	3,030.76	81.9311	3,030.76	70.4438	3,030.76	70.1447	3,030.76	71.3031	3,030.76	78.3773	3,030.76	69.6745	3,030.76	73.0527	3,030.76	68.9262	3,030.76	72.3732	3,030.76	72.7048	3,030.76	76.45	3,030.76	59.2629	3,030.76	74.3316	3,030.76	72.9114	3,030.76	68.558	3,030.76	72.4055	3,030.76	57.8168
3,137.7	91.0511	3,137.7	92.8076	3,137.7	89.7929	3,137.7	91.5382	3,137.7	90.2766	3,137.7	89.4145	3,137.7	90.7891	3,137.7	88.5231	3,137.7	88.2781	3,137.7	87.6913	3,137.7	86.3666	3,137.7	86.498	3,137.7	84.2931	3,137.7	85.9426	3,137.7	83.903	3,137.7	83.0744	3,137.7	88.8259	3,137.7	79.6864	3,137.7	78.1206	3,137.7	80.8357	3,137.7	63.0663	3,137.7	80.9853	3,137.7	68.6176	3,137.7	72.9728	3,137.7	65.3367	3,137.7	72.8512	3,137.7	71.9804	3,137.7	72.3895	3,137.7	72.1015	3,137.7	74.4135	3,137.7	57.6235	3,137.7	76.1278	3,137.7	74.9841	3,137.7	67.9323	3,137.7	70.5108	3,137.7	65.4002
3,249.02	92.0945	3,249.02	92.3618	3,249.02	89.9404	3,249.02	91.6122	3,249.02	90.2082	3,249.02	89.0021	3,249.02	91.1953	3,249.02	87.7573	3,249.02	87.2386	3,249.02	88.6412	3,249.02	86.0709	3,249.02	85.787	3,249.02	83.7338	3,249.02	84.6898	3,249.02	86.4074	3,249.02	80.9375	3,249.02	87.1224	3,249.02	81.1002	3,249.02	84.5	3,249.02	75.9816	3,249.02	68.9295	3,249.02	77.1345	3,249.02	70.1583	3,249.02	73.2546	3,249.02	69.3691	3,249.02	73.2133	3,249.02	68.1381	3,249.02	71.3077	3,249.02	70.3155	3,249.02	73.1963	3,249.02	61.6889	3,249.02	75.8585	3,249.02	72.8968	3,249.02	71.4642	3,249.02	73.6253	3,249.02	60.1854
3,363.28	90.6863	3,363.28	91.4925	3,363.28	89.2081	3,363.28	89.5367	3,363.28	91.2889	3,363.28	88.1416	3,363.28	91.5912	3,363.28	89.2889	3,363.28	86.6037	3,363.28	86.879	3,363.28	85.8143	3,363.28	86.3776	3,363.28	82.6852	3,363.28	80.6535	3,363.28	85.8412	3,363.28	84.6948	3,363.28	88.3767	3,363.28	79.6557	3,363.28	84.4104	3,363.28	82.4512	3,363.28	72.1826	3,363.28	76.8375	3,363.28	72.7435	3,363.28	75.424	3,363.28	67.9315	3,363.28	70.9757	3,363.28	67.2199	3,363.28	71.7523	3,363.28	71.7118	3,363.28	74.3428	3,363.28	62.86	3,363.28	72.9298	3,363.28	72.9959	3,363.28	69.383	3,363.28	69.841	3,363.28	57.0018
3,481.93	90.8832	3,481.93	92.5252	3,481.93	88.4729	3,481.93	90.2404	3,481.93	91.5888	3,481.93	88.3103	3,481.93	91.6464	3,481.93	88.4535	3,481.93	86.7935	3,481.93	88.047	3,481.93	85.5891	3,481.93	83.5615	3,481.93	80.4128	3,481.93	85.3415	3,481.93	87.4977	3,481.93	75.9865	3,481.93	84.3374	3,481.93	79.2681	3,481.93	85.0983	3,481.93	71.2126	3,481.93	73.1327	3,481.93	77.7971	3,481.93	69.349	3,481.93	71.5937	3,481.93	70.8305	3,481.93	72.5463	3,481.93	66.9373	3,481.93	72.262	3,481.93	70.8039	3,481.93	72.4248	3,481.93	63.8353	3,481.93	74.9742	3,481.93	72.9423	3,481.93	70.109	3,481.93	70.2963	3,481.93	59.9117
3,604.98	90.2326	3,604.98	92.1186	3,604.98	88.6167	3,604.98	90.261	3,604.98	90.5025	3,604.98	88.251	3,604.98	91.0732	3,604.98	88.1155	3,604.98	86.4966	3,604.98	86.8534	3,604.98	83.8887	3,604.98	86.1635	3,604.98	81.6861	3,604.98	78.2618	3,604.98	83.9597	3,604.98	83.4616	3,604.98	86.9265	3,604.98	79.1215	3,604.98	76.9253	3,604.98	80.3197	3,604.98	72.2403	3,604.98	73.3501	3,604.98	69.1083	3,604.98	73.0994	3,604.98	67.1394	3,604.98	70.0806	3,604.98	68.319	3,604.98	71.0382	3,604.98	70.5939	3,604.98	70.554	3,604.98	61.0713	3,604.98	74.8371	3,604.98	69.2029	3,604.98	73.5825	3,604.98	71.009	3,604.98	59.3129
3,732.42	91.4979	3,732.42	91.4874	3,732.42	89.1892	3,732.42	88.5104	3,732.42	90.9995	3,732.42	88.2669	3,732.42	90.3763	3,732.42	88.7053	3,732.42	86.6521	3,732.42	85.5401	3,732.42	84.0831	3,732.42	83.6379	3,732.42	80.765	3,732.42	84.1772	3,732.42	85.5281	3,732.42	77.0002	3,732.42	81.8969	3,732.42	78.1313	3,732.42	80.7452	3,732.42	73.4476	3,732.42	69.6586	3,732.42	75.7002	3,732.42	52.9571	3,732.42	72.458	3,732.42	65.7576	3,732.42	68.6687	3,732.42	63.4435	3,732.42	70.8685	3,732.42	68.7512	3,732.42	72.194	3,732.42	64.8891	3,732.42	73.1795	3,732.42	71.0422	3,732.42	70.0467	3,732.42	67.8416	3,732.42	63.6782
3,864.26	89.698	3,864.26	90.7768	3,864.26	88.176	3,864.26	89.2746	3,864.26	91.4265	3,864.26	87.8647	3,864.26	90.2464	3,864.26	86.9596	3,864.26	86.6139	3,864.26	86.6649	3,864.26	82.1463	3,864.26	84.308	3,864.26	80.5715	3,864.26	77.8197	3,864.26	84.4617	3,864.26	82.5081	3,864.26	82.5367	3,864.26	78.0373	3,864.26	78.9888	3,864.26	78.987	3,864.26	71.8963	3,864.26	72.4085	3,864.26	56.3636	3,864.26	70.1965	3,864.26	67.7143	3,864.26	71.5321	3,864.26	68.5978	3,864.26	69.1306	3,864.26	69.3158	3,864.26	70.4022	3,864.26	64.3128	3,864.26	74.4724	3,864.26	67.1511	3,864.26	71.7099	3,864.26	69.5165	3,864.26	54.7484
4,000.49	89.7576	4,000.49	89.5034	4,000.49	87.2042	4,000.49	88.0709	4,000.49	89.8888	4,000.49	88.1853	4,000.49	90.3333	4,000.49	87.3201	4,000.49	86.2237	4,000.49	84.4465	4,000.49	82.9533	4,000.49	83.315	4,000.49	83.0742	4,000.49	83.4564	4,000.49	83.5205	4,000.49	77.5423	4,000.49	85.1375	4,000.49	77.0893	4,000.49	75.9166	4,000.49	76.0227	4,000.49	67.5904	4,000.49	76.3424	4,000.49	67.6845	4,000.49	71.9291	4,000.49	68.2219	4,000.49	67.52	4,000.49	66.4895	4,000.49	71.0602	4,000.49	68.5478	4,000.49	69.4052	4,000.49	62.1	4,000.49	72.4238	4,000.49	70.9707	4,000.49	70.9579	4,000.49	66.6549	4,000.49	66.3827
4,141.11	90.0611	4,141.11	90.7722	4,141.11	87.8502	4,141.11	88.5174	4,141.11	89.9115	4,141.11	87.5084	4,141.11	89.4742	4,141.11	86.9049	4,141.11	87.0613	4,141.11	85.9346	4,141.11	83.2846	4,141.11	83.8497	4,141.11	81.331	4,141.11	79.4418	4,141.11	80.4059	4,141.11	83.1803	4,141.11	81.1111	4,141.11	78.8755	4,141.11	77.1688	4,141.11	79.1993	4,141.11	65.0308	4,141.11	70.7887	4,141.11	56.7769	4,141.11	72.1652	4,141.11	64.6273	4,141.11	72.0429	4,141.11	66.7387	4,141.11	66.5929	4,141.11	62.8158	4,141.11	70.179	4,141.11	65.4883	4,141.11	73.9761	4,141.11	64.2358	4,141.11	71.3417	4,141.11	64.2273	4,141.11	62.9302
4,287.6	89.0254	4,287.6	89.0032	4,287.6	88.6123	4,287.6	88.3771	4,287.6	89.4849	4,287.6	86.535	4,287.6	88.4556	4,287.6	86.7572	4,287.6	87.4308	4,287.6	84.7441	4,287.6	82.4506	4,287.6	83.6446	4,287.6	83.2352	4,287.6	83.8188	4,287.6	77.4546	4,287.6	77.0975	4,287.6	77.3647	4,287.6	76.8477	4,287.6	78.883	4,287.6	71.8695	4,287.6	70.8155	4,287.6	75.84	4,287.6	52.7096	4,287.6	67.828	4,287.6	68.4496	4,287.6	68.278	4,287.6	64.2222	4,287.6	71.8861	4,287.6	68.1565	4,287.6	65.9766	4,287.6	59.9883	4,287.6	71.5543	4,287.6	67.7222	4,287.6	71.5918	4,287.6	68.2821	4,287.6	66.048
4,438.48	89.9872	4,438.48	89.834	4,438.48	87.5412	4,438.48	87.3541	4,438.48	89.3499	4,438.48	86.7068	4,438.48	88.2907	4,438.48	86.2773	4,438.48	86.0998	4,438.48	85.1597	4,438.48	84.2401	4,438.48	84.3441	4,438.48	84.5192	4,438.48	78.7355	4,438.48	75.4158	4,438.48	80.4874	4,438.48	77.8354	4,438.48	75.4952	4,438.48	78.883	4,438.48	78.4886	4,438.48	61.7939	4,438.48	69.9196	4,438.48	61.7836	4,438.48	71.2299	4,438.48	65.7039	4,438.48	68.1093	4,438.48	59.7588	4,438.48	64.8942	4,438.48	63.2865	4,438.48	68.4017	4,438.48	65.3274	4,438.48	72.6238	4,438.48	63.1439	4,438.48	69.7166	4,438.48	66.2588	4,438.48	61.5548
4,595.21	90.0052	4,595.21	89.8209	4,595.21	88.5294	4,595.21	87.8447	4,595.21	88.9429	4,595.21	87.0639	4,595.21	88.7987	4,595.21	86.4798	4,595.21	86.0296	4,595.21	85.5914	4,595.21	84.2819	4,595.21	82.1044	4,595.21	82.1413	4,595.21	81.5827	4,595.21	78.3652	4,595.21	75.7339	4,595.21	79.9468	4,595.21	77.4688	4,595.21	77.4946	4,595.21	72.9611	4,595.21	60.431	4,595.21	73.0788	4,595.21	58.1283	4,595.21	69.8566	4,595.21	62.599	4,595.21	67.9383	4,595.21	69.5682	4,595.21	70.1479	4,595.21	66.5245	4,595.21	63.4126	4,595.21	64.211	4,595.21	68.0618	4,595.21	65.533	4,595.21	71.0148	4,595.21	65.6119	4,595.21	66.3271
4,756.35	89.787	4,756.35	89.7381	4,756.35	89.1283	4,756.35	86.4858	4,756.35	88.4694	4,756.35	86.5266	4,756.35	87.4215	4,756.35	87.0915	4,756.35	86.3044	4,756.35	85.313	4,756.35	83.787	4,756.35	83.1889	4,756.35	83.4565	4,756.35	80.5798	4,756.35	77.4395	4,756.35	80.6846	4,756.35	82.2149	4,756.35	76.588	4,756.35	77.8384	4,756.35	76.8513	4,756.35	54.7245	4,756.35	72.0129	4,756.35	65.9072	4,756.35	69.1298	4,756.35	58.4893	4,756.35	68.7062	4,756.35	62.8042	4,756.35	68.9472	4,756.35	62.8184	4,756.35	65.931	4,756.35	61.402	4,756.35	72.005	4,756.35	65.7122	4,756.35	70.8243	4,756.35	61.3771	4,756.35	64.8281
4,924.8	90.0714	4,924.8	90.181	4,924.8	89.3847	4,924.8	87.6705	4,924.8	89.0348	4,924.8	86.9659	4,924.8	87.1446	4,924.8	86.9637	4,924.8	86.729	4,924.8	84.5251	4,924.8	83.6273	4,924.8	83.4486	4,924.8	83.1055	4,924.8	82.0195	4,924.8	76.8021	4,924.8	79.0208	4,924.8	84.256	4,924.8	77.8557	4,924.8	78.1862	4,924.8	76.2633	4,924.8	55.2146	4,924.8	74.3083	4,924.8	63.3243	4,924.8	70.4327	4,924.8	64.4688	4,924.8	65.2626	4,924.8	66.1853	4,924.8	69.5363	4,924.8	63.1742	4,924.8	66.1837	4,924.8	65.456	4,924.8	67.2471	4,924.8	57.8332	4,924.8	70.1126	4,924.8	65.2645	4,924.8	67.448
5,097.66	90.2477	5,097.66	90.0726	5,097.66	89.6069	5,097.66	86.9574	5,097.66	88.2786	5,097.66	86.6063	5,097.66	87.9677	5,097.66	87.1141	5,097.66	86.0234	5,097.66	84.6553	5,097.66	83.1723	5,097.66	84.049	5,097.66	84.5605	5,097.66	82.1165	5,097.66	80.7915	5,097.66	79.2056	5,097.66	83.0868	5,097.66	76.5977	5,097.66	79.8381	5,097.66	75.1747	5,097.66	64.3756	5,097.66	71.6164	5,097.66	56.4363	5,097.66	69.8353	5,097.66	64.3901	5,097.66	68.9231	5,097.66	67.8776	5,097.66	65.0574	5,097.66	55.9346	5,097.66	64.6718	5,097.66	61.1867	5,097.66	70.292	5,097.66	65.3492	5,097.66	69.8102	5,097.66	65.0675	5,097.66	64.1795
5,277.83	91.0611	5,277.83	90.6665	5,277.83	90.739	5,277.83	87.9731	5,277.83	89.0678	5,277.83	87.8858	5,277.83	87.8856	5,277.83	86.1587	5,277.83	86.6343	5,277.83	85.2836	5,277.83	83.3844	5,277.83	84.1549	5,277.83	83.9976	5,277.83	80.9678	5,277.83	82.2323	5,277.83	78.8703	5,277.83	82.8159	5,277.83	77.2706	5,277.83	79.8889	5,277.83	76.0726	5,277.83	51.584	5,277.83	71.1111	5,277.83	67.5123	5,277.83	67.9363	5,277.83	59.4353	5,277.83	69.3097	5,277.83	64.2753	5,277.83	67.5828	5,277.83	59.8807	5,277.83	61.9975	5,277.83	63.0556	5,277.83	65.535	5,277.83	59.064	5,277.83	66.4984	5,277.83	62.3825	5,277.83	67.1679
5,463.87	90.8071	5,463.87	89.9599	5,463.87	89.7003	5,463.87	87.604	5,463.87	89.0425	5,463.87	88.0002	5,463.87	87.0522	5,463.87	86.1192	5,463.87	87.3531	5,463.87	85.9886	5,463.87	83.9749	5,463.87	83.8351	5,463.87	84.5089	5,463.87	81.1663	5,463.87	82.1978	5,463.87	78.3138	5,463.87	80.0279	5,463.87	76.4942	5,463.87	80.647	5,463.87	74.8127	5,463.87	55.2891	5,463.87	72.8518	5,463.87	57.5983	5,463.87	67.9329	5,463.87	65.0282	5,463.87	64.0526	5,463.87	68.1861	5,463.87	68.7328	5,463.87	63.4217	5,463.87	67.1296	5,463.87	64.7739	5,463.87	65.9671	5,463.87	53.6886	5,463.87	67.7083	5,463.87	63.0835	5,463.87	64.0099
5,657.23	91.2617	5,657.23	91.3365	5,657.23	90.0688	5,657.23	88.3654	5,657.23	88.3091	5,657.23	87.9075	5,657.23	87.7266	5,657.23	86.9284	5,657.23	86.6078	5,657.23	85.5504	5,657.23	84.0019	5,657.23	83.7464	5,657.23	83.891	5,657.23	80.4559	5,657.23	79.7239	5,657.23	78.7771	5,657.23	81.1265	5,657.23	75.9546	5,657.23	78.3953	5,657.23	74.3921	5,657.23	67.5785	5,657.23	72.3721	5,657.23	46.7279	5,657.23	68.8242	5,657.23	65.8236	5,657.23	66.069	5,657.23	64.7281	5,657.23	67.0262	5,657.23	64.6403	5,657.23	64.9208	5,657.23	59.1009	5,657.23	66.3849	5,657.23	55.6924	5,657.23	67.8968	5,657.23	44.4007	5,657.23	67.1423
5,856.45	91.0104	5,856.45	90.6164	5,856.45	90.1313	5,856.45	88.9025	5,856.45	89.4625	5,856.45	87.8012	5,856.45	86.1947	5,856.45	86.7367	5,856.45	86.9792	5,856.45	85.8903	5,856.45	83.6444	5,856.45	83.4709	5,856.45	83.9526	5,856.45	80.6561	5,856.45	79.3181	5,856.45	77.5568	5,856.45	79.633	5,856.45	76.4123	5,856.45	76.4514	5,856.45	74.057	5,856.45	69.9561	5,856.45	72.5279	5,856.45	59.1591	5,856.45	66.8187	5,856.45	61.8827	5,856.45	66.148	5,856.45	59.8397	5,856.45	66.7995	5,856.45	56.865	5,856.45	66.5673	5,856.45	60.781	5,856.45	57.9255	5,856.45	54.3506	5,856.45	64.3859	5,856.45	60.4389	5,856.45	65.7141
6,062.99	90.7827	6,062.99	90.5691	6,062.99	89.7353	6,062.99	89.3823	6,062.99	89.5327	6,062.99	87.3851	6,062.99	86.963	6,062.99	87.6654	6,062.99	86.8928	6,062.99	85.4488	6,062.99	83.946	6,062.99	83.7175	6,062.99	83.1539	6,062.99	79.8664	6,062.99	82.355	6,062.99	75.9964	6,062.99	78.3457	6,062.99	78.2226	6,062.99	77.5568	6,062.99	73.0139	6,062.99	64.7331	6,062.99	72.4729	6,062.99	60.4393	6,062.99	67.6505	6,062.99	61.509	6,062.99	63.4503	6,062.99	61.7179	6,062.99	67.7957	6,062.99	49.2253	6,062.99	68.0008	6,062.99	58.2162	6,062.99	66.0922	6,062.99	57.5882	6,062.99	65.9812	6,062.99	59.6606	6,062.99	59.8404
6,276.86	89.9547	6,276.86	90.2371	6,276.86	89.7451	6,276.86	89.3128	6,276.86	89.6309	6,276.86	88.476	6,276.86	87.2353	6,276.86	87.0194	6,276.86	86.7559	6,276.86	85.8551	6,276.86	84.1813	6,276.86	83.1365	6,276.86	83.3763	6,276.86	80.9342	6,276.86	83.5966	6,276.86	77.911	6,276.86	79.4733	6,276.86	76.4894	6,276.86	79.1608	6,276.86	72.9241	6,276.86	68.9953	6,276.86	71.4207	6,276.86	62.2203	6,276.86	67.9004	6,276.86	66.1338	6,276.86	65.9653	6,276.86	64.4702	6,276.86	66.4251	6,276.86	52.5198	6,276.86	67.7458	6,276.86	61.5324	6,276.86	61.5575	6,276.86	47.4979	6,276.86	66.5595	6,276.86	50.124	6,276.86	65.883
6,498.05	89.1086	6,498.05	90.0389	6,498.05	89.0077	6,498.05	88.3986	6,498.05	89.7677	6,498.05	88.3584	6,498.05	86.9585	6,498.05	87.2809	6,498.05	87.2154	6,498.05	85.4977	6,498.05	84.6169	6,498.05	83.2169	6,498.05	82.3017	6,498.05	80.2988	6,498.05	82.9857	6,498.05	79.28	6,498.05	78.8575	6,498.05	75.2112	6,498.05	77.9179	6,498.05	73.6515	6,498.05	67.5824	6,498.05	70.755	6,498.05	61.0482	6,498.05	67.0865	6,498.05	62.2572	6,498.05	66.4246	6,498.05	62.8853	6,498.05	66.3363	6,498.05	55.4351	6,498.05	68.3682	6,498.05	60.6308	6,498.05	60.9699	6,498.05	50.8507	6,498.05	65.1493	6,498.05	51.19	6,498.05	66.3946
6,726.56	88.8464	6,726.56	90.2199	6,726.56	89.4922	6,726.56	88.697	6,726.56	88.7193	6,726.56	88.0247	6,726.56	87.8766	6,726.56	86.8765	6,726.56	87.0835	6,726.56	85.574	6,726.56	85.038	6,726.56	83.415	6,726.56	82.1217	6,726.56	81.157	6,726.56	81.1309	6,726.56	78.856	6,726.56	74.7701	6,726.56	75.3324	6,726.56	59.1455	6,726.56	74.3004	6,726.56	64.2636	6,726.56	70.3336	6,726.56	58.5257	6,726.56	66.5366	6,726.56	57.3464	6,726.56	65.5679	6,726.56	54.9462	6,726.56	66.6257	6,726.56	55.6791	6,726.56	66.9972	6,726.56	55.295	6,726.56	65.7793	6,726.56	50.229	6,726.56	59.304	6,726.56	55.3234	6,726.56	63.1963
6,963.87	87.5371	6,963.87	89.3504	6,963.87	89.2028	6,963.87	88.7171	6,963.87	88.9846	6,963.87	87.5736	6,963.87	87.7187	6,963.87	86.8292	6,963.87	87.3181	6,963.87	85.2676	6,963.87	85.6272	6,963.87	83.5902	6,963.87	79.4384	6,963.87	81.4353	6,963.87	81.1884	6,963.87	77.353	6,963.87	74.3984	6,963.87	74.8874	6,963.87	74.9269	6,963.87	72.6809	6,963.87	54.0484	6,963.87	70.0035	6,963.87	50.1875	6,963.87	66.0185	6,963.87	55.8879	6,963.87	64.6325	6,963.87	59.8976	6,963.87	65.3971	6,963.87	51.5439	6,963.87	67.8619	6,963.87	51.7432	6,963.87	60.6325	6,963.87	54.3615	6,963.87	62.3763	6,963.87	59.4549	6,963.87	54.548
7,209.96	88.3823	7,209.96	89.4378	7,209.96	90.0806	7,209.96	89.0956	7,209.96	88.0764	7,209.96	87.4777	7,209.96	88.4299	7,209.96	86.3607	7,209.96	87.2689	7,209.96	85.0092	7,209.96	85.7864	7,209.96	83.6177	7,209.96	78.6149	7,209.96	80.5035	7,209.96	79.2211	7,209.96	76.5057	7,209.96	75.4842	7,209.96	74.1363	7,209.96	73.1225	7,209.96	72.0381	7,209.96	62.8694	7,209.96	70.3814	7,209.96	58.9505	7,209.96	64.4903	7,209.96	63.6809	7,209.96	63.7177	7,209.96	57.1935	7,209.96	64.5007	7,209.96	46.3374	7,209.96	67.4128	7,209.96	52.7761	7,209.96	62.0444	7,209.96	51.8054	7,209.96	66.4337	7,209.96	59.8508	7,209.96	60.3283
7,464.84	87.6359	7,464.84	89.0245	7,464.84	90.0112	7,464.84	88.9489	7,464.84	88.2214	7,464.84	87.6773	7,464.84	88.5208	7,464.84	86.4028	7,464.84	87.6119	7,464.84	85.1238	7,464.84	86.2076	7,464.84	82.8963	7,464.84	75.7798	7,464.84	79.8413	7,464.84	77.5273	7,464.84	76.6491	7,464.84	76.8238	7,464.84	73.9334	7,464.84	70.07	7,464.84	71.694	7,464.84	57.6081	7,464.84	70.4498	7,464.84	54.3369	7,464.84	62.9014	7,464.84	64.3438	7,464.84	63.5979	7,464.84	62.6563	7,464.84	63.3115	7,464.84	47.2844	7,464.84	65.2172	7,464.84	49.9563	7,464.84	65.4887	7,464.84	48.5918	7,464.84	63.7022	7,464.84	59.2197	7,464.84	59.0868
7,727.05	88.6355	7,727.05	89.479	7,727.05	90.5533	7,727.05	88.9936	7,727.05	87.6063	7,727.05	88.4343	7,727.05	89.5283	7,727.05	85.7171	7,727.05	86.6122	7,727.05	86.0217	7,727.05	86.1383	7,727.05	82.3065	7,727.05	78.218	7,727.05	79.3718	7,727.05	77.6999	7,727.05	74.9081	7,727.05	79.6152	7,727.05	72.3099	7,727.05	74.5746	7,727.05	71.6014	7,727.05	51.1308	7,727.05	69.2036	7,727.05	55.4366	7,727.05	63.9389	7,727.05	59.9123	7,727.05	63.2718	7,727.05	61.0503	7,727.05	63.615	7,727.05	48.4564	7,727.05	64.7438	7,727.05	51.2211	7,727.05	62.9192	7,727.05	47.085	7,727.05	62.2871	7,727.05	60.1689	7,727.05	58.8812
7,999.51	89.9558	7,999.51	88.6907	7,999.51	89.7248	7,999.51	89.6287	7,999.51	88.8345	7,999.51	87.8327	7,999.51	89.306	7,999.51	86.5492	7,999.51	85.5879	7,999.51	85.462	7,999.51	85.5158	7,999.51	81.6377	7,999.51	77.6938	7,999.51	79.2155	7,999.51	80.8622	7,999.51	75.7518	7,999.51	79.092	7,999.51	72.2581	7,999.51	76.5102	7,999.51	71.1257	7,999.51	60.5502	7,999.51	70.161	7,999.51	46.0826	7,999.51	63.3837	7,999.51	60.552	7,999.51	63.7586	7,999.51	60.8716	7,999.51	63.488	7,999.51	49.376	7,999.51	62.958	7,999.51	50.7421	7,999.51	63.1485	7,999.51	50.2681	7,999.51	64.4438	7,999.51	61.2307	7,999.51	59.3149
8,282.23	90.2118	8,282.23	89.0913	8,282.23	89.3258	8,282.23	89.6842	8,282.23	89.4844	8,282.23	88.0259	8,282.23	89.2203	8,282.23	87.26	8,282.23	85.5353	8,282.23	84.6074	8,282.23	85.2437	8,282.23	81.3064	8,282.23	79.5618	8,282.23	79.9081	8,282.23	79.5272	8,282.23	76.2208	8,282.23	76.9087	8,282.23	73.379	8,282.23	73.5858	8,282.23	71.3504	8,282.23	54.4315	8,282.23	68.0964	8,282.23	56.084	8,282.23	63.9013	8,282.23	61.5448	8,282.23	63.9728	8,282.23	55.6313	8,282.23	62.8783	8,282.23	56.3194	8,282.23	64.7872	8,282.23	42.6638	8,282.23	64.1451	8,282.23	57.1123	8,282.23	65.3144	8,282.23	58.318	8,282.23	57.3458
8,573.73	89.9849	8,573.73	89.9635	8,573.73	89.3383	8,573.73	89.5741	8,573.73	89.8955	8,573.73	88.5474	8,573.73	88.663	8,573.73	86.8003	8,573.73	85.0899	8,573.73	84.6014	8,573.73	85.0897	8,573.73	81.4283	8,573.73	79.191	8,573.73	79.3062	8,573.73	75.6127	8,573.73	75.3009	8,573.73	71.1632	8,573.73	73.6028	8,573.73	68.8653	8,573.73	71.9433	8,573.73	61.7736	8,573.73	67.5153	8,573.73	57.3905	8,573.73	62.2754	8,573.73	61.0563	8,573.73	63.7837	8,573.73	59.1885	8,573.73	64.0032	8,573.73	51.9585	8,573.73	63.0501	8,573.73	46.4585	8,573.73	64.8562	8,573.73	60.6337	8,573.73	65.4387	8,573.73	58.1001	8,573.73	56.4341
8,876.95	89.6769	8,876.95	89.7997	8,876.95	89.5727	8,876.95	89.4586	8,876.95	89.661	8,876.95	88.9674	8,876.95	88.3934	8,876.95	86.5287	8,876.95	85.6542	8,876.95	84.2051	8,876.95	85.1418	8,876.95	81.2017	8,876.95	80.3469	8,876.95	79.3282	8,876.95	75.594	8,876.95	76.2786	8,876.95	68.9876	8,876.95	73.5393	8,876.95	67.9309	8,876.95	70.9517	8,876.95	51.3349	8,876.95	67.9052	8,876.95	56.9634	8,876.95	61.4615	8,876.95	59.7799	8,876.95	63.6602	8,876.95	58.9933	8,876.95	63.1144	8,876.95	46.0515	8,876.95	62.0457	8,876.95	54.903	8,876.95	64.0923	8,876.95	62.3532	8,876.95	65.6831	8,876.95	56.5722	8,876.95	56.0683
9,188.96	90.0059	9,188.96	89.9575	9,188.96	89.6782	9,188.96	89.6202	9,188.96	89.7191	9,188.96	89.1022	9,188.96	87.8588	9,188.96	86.4683	9,188.96	85.924	9,188.96	84.2117	9,188.96	85.2183	9,188.96	80.8784	9,188.96	79.8867	9,188.96	79.3045	9,188.96	72.3299	9,188.96	74.6334	9,188.96	70.5475	9,188.96	71.8255	9,188.96	72.1581	9,188.96	70.9449	9,188.96	43.4323	9,188.96	66.0838	9,188.96	43.595	9,188.96	60.7337	9,188.96	64.3154	9,188.96	61.617	9,188.96	56.0598	9,188.96	62.085	9,188.96	29.0436	9,188.96	62.4545	9,188.96	55.6777	9,188.96	63.2182	9,188.96	62.1371	9,188.96	65.2302	9,188.96	46.6966	9,188.96	50.7211
9,514.16	89.9705	9,514.16	89.5858	9,514.16	89.8473	9,514.16	89.4949	9,514.16	89.7901	9,514.16	89.0709	9,514.16	87.8886	9,514.16	86.123	9,514.16	86.1212	9,514.16	84.3689	9,514.16	85.0233	9,514.16	80.8211	9,514.16	81.536	9,514.16	78.7389	9,514.16	74.8525	9,514.16	73.1968	9,514.16	73.1159	9,514.16	69.9853	9,514.16	70.307	9,514.16	69.1152	9,514.16	60.4868	9,514.16	64.5761	9,514.16	49.5102	9,514.16	60.2185	9,514.16	56.5266	9,514.16	60.9056	9,514.16	53.6339	9,514.16	62.1098	9,514.16	31.8253	9,514.16	62.3022	9,514.16	56.3606	9,514.16	60.4951	9,514.16	60.2653	9,514.16	63.9014	9,514.16	42.5832	9,514.16	48.9367
9,849.61	90.1678	9,849.61	89.412	9,849.61	90.0064	9,849.61	89.4945	9,849.61	89.8871	9,849.61	88.764	9,849.61	88.284	9,849.61	86.137	9,849.61	85.791	9,849.61	84.4747	9,849.61	84.3984	9,849.61	80.5938	9,849.61	80.0454	9,849.61	76.9902	9,849.61	71.9069	9,849.61	71.1778	9,849.61	73.9939	9,849.61	71.5676	9,849.61	68.7727	9,849.61	68.8674	9,849.61	53.5877	9,849.61	63.9604	9,849.61	52.0718	9,849.61	58.6638	9,849.61	59.9403	9,849.61	60.6704	9,849.61	53.9147	9,849.61	62.2099	9,849.61	44.9097	9,849.61	62.0032	9,849.61	57.653	9,849.61	58.9431	9,849.61	56.9921	9,849.61	62.2541	9,849.61	47.8765	9,849.61	52.6841
10,196.8	90.1097	10,196.8	89.5216	10,196.8	90.0632	10,196.8	89.5303	10,196.8	90.1392	10,196.8	88.4374	10,196.8	88.5149	10,196.8	86.4818	10,196.8	85.9217	10,196.8	84.5836	10,196.8	83.2291	10,196.8	79.9609	10,196.8	80.7057	10,196.8	76.7788	10,196.8	73.1304	10,196.8	73.8736	10,196.8	73.4069	10,196.8	70.5797	10,196.8	70.1781	10,196.8	69.885	10,196.8	51.6088	10,196.8	64.2623	10,196.8	52.14	10,196.8	59.6706	10,196.8	58.3794	10,196.8	60.507	10,196.8	43.9085	10,196.8	62.1591	10,196.8	43.9663	10,196.8	61.4285	10,196.8	57.1277	10,196.8	58.508	10,196.8	57.8752	10,196.8	62.2018	10,196.8	51.9778	10,196.8	53.746
10,555.7	89.8397	10,555.7	89.2977	10,555.7	89.8667	10,555.7	89.5695	10,555.7	89.971	10,555.7	88.4816	10,555.7	88.7917	10,555.7	86.3764	10,555.7	86.6095	10,555.7	84.9285	10,555.7	82.6656	10,555.7	79.44	10,555.7	80.479	10,555.7	77.4394	10,555.7	73.5879	10,555.7	73.6874	10,555.7	74.6613	10,555.7	70.0197	10,555.7	63.4748	10,555.7	70.1619	10,555.7	50.3823	10,555.7	64.8077	10,555.7	46.6167	10,555.7	58.8687	10,555.7	55.9484	10,555.7	60.6109	10,555.7	43.5277	10,555.7	63.8117	10,555.7	55.4885	10,555.7	62.1762	10,555.7	59.8692	10,555.7	60.8012	10,555.7	57.6591	10,555.7	60.8169	10,555.7	54.7218	10,555.7	52.3798
10,927.7	89.3232	10,927.7	89.5895	10,927.7	90.0725	10,927.7	89.1112	10,927.7	89.3458	10,927.7	88.5799	10,927.7	88.9868	10,927.7	86.6115	10,927.7	86.4767	10,927.7	84.0982	10,927.7	83.2067	10,927.7	80.3082	10,927.7	80.2664	10,927.7	78.0935	10,927.7	72.0479	10,927.7	73.6079	10,927.7	72.6664	10,927.7	72.5746	10,927.7	63.8655	10,927.7	68.6893	10,927.7	57.5708	10,927.7	64.8817	10,927.7	47.5014	10,927.7	58.9003	10,927.7	57.7554	10,927.7	59.9747	10,927.7	48.5971	10,927.7	61.792	10,927.7	52.8718	10,927.7	59.6324	10,927.7	59.5909	10,927.7	60.5732	10,927.7	57.4473	10,927.7	59.9524	10,927.7	50.0116	10,927.7	40.8486
11,313	89.3183	11,313	89.9314	11,313	89.9085	11,313	89.1128	11,313	88.8024	11,313	88.4062	11,313	88.405	11,313	86.7228	11,313	85.9478	11,313	83.9242	11,313	83.4609	11,313	80.6453	11,313	81.1214	11,313	77.7773	11,313	76.9412	11,313	73.2292	11,313	68.3261	11,313	68.687	11,313	56.2941	11,313	68.1279	11,313	56.2939	11,313	62.3959	11,313	52.0052	11,313	59.2362	11,313	58.6791	11,313	60.1183	11,313	53.0267	11,313	60.3229	11,313	53.2352	11,313	60.8247	11,313	58.6914	11,313	61.6597	11,313	55.0377	11,313	61.8724	11,313	48.8397	11,313	46.8018
11,712.9	89.6194	11,712.9	90.0015	11,712.9	89.9519	11,712.9	89.1785	11,712.9	88.9671	11,712.9	88.6815	11,712.9	87.8862	11,712.9	86.1758	11,712.9	86.2019	11,712.9	84.0605	11,712.9	83.7587	11,712.9	81.2478	11,712.9	80.2386	11,712.9	77.2972	11,712.9	75.7566	11,712.9	72.7589	11,712.9	70.7562	11,712.9	70.1174	11,712.9	60.1335	11,712.9	67.1979	11,712.9	58.4914	11,712.9	62.7786	11,712.9	54.1484	11,712.9	58.6954	11,712.9	58.5133	11,712.9	58.276	11,712.9	46.9516	11,712.9	60.9968	11,712.9	55.477	11,712.9	60.3839	11,712.9	57.5475	11,712.9	62.2625	11,712.9	54.5251	11,712.9	63.4465	11,712.9	45.5769	11,712.9	50.0294
12,126	90.1644	12,126	90.369	12,126	90.1541	12,126	88.9255	12,126	89.1817	12,126	88.7805	12,126	87.6884	12,126	86.5104	12,126	86.7131	12,126	84.4793	12,126	83.4114	12,126	80.6974	12,126	79.9913	12,126	76.7548	12,126	74.6835	12,126	72.7206	12,126	73.0561	12,126	69.205	12,126	58.7016	12,126	67.1779	12,126	58.4548	12,126	62.0968	12,126	50.9428	12,126	57.5894	12,126	58.3281	12,126	60.208	12,126	44.8657	12,126	61.513	12,126	50.0338	12,126	61.3982	12,126	58.5989	12,126	62.7403	12,126	52.9591	12,126	63.631	12,126	48.9654	12,126	47.137
12,553.7	90.2902	12,553.7	90.2873	12,553.7	90.4249	12,553.7	88.7859	12,553.7	89.2908	12,553.7	88.5564	12,553.7	87.6567	12,553.7	86.6341	12,553.7	85.8955	12,553.7	84.8117	12,553.7	83.5019	12,553.7	80.6858	12,553.7	80.1813	12,553.7	76.6785	12,553.7	74.7394	12,553.7	72.632	12,553.7	72.062	12,553.7	68.0906	12,553.7	57.0383	12,553.7	66.3288	12,553.7	54.4607	12,553.7	60.9021	12,553.7	52.3767	12,553.7	56.9767	12,553.7	56.4236	12,553.7	59.0088	12,553.7	49.7521	12,553.7	58.6391	12,553.7	44.7803	12,553.7	61.4646	12,553.7	53.9831	12,553.7	60.9715	12,553.7	49.3424	12,553.7	62.9764	12,553.7	38.8092	12,553.7	53.5293
12,996.1	90.5393	12,996.1	90.1649	12,996.1	90.3599	12,996.1	88.7733	12,996.1	89.521	12,996.1	88.1202	12,996.1	87.8346	12,996.1	86.7542	12,996.1	85.6845	12,996.1	84.2796	12,996.1	83.1099	12,996.1	80.0721	12,996.1	78.9091	12,996.1	75.642	12,996.1	74.6786	12,996.1	71.5866	12,996.1	67.108	12,996.1	66.9733	12,996.1	58.4615	12,996.1	65.2439	12,996.1	55.3023	12,996.1	59.4553	12,996.1	48.8021	12,996.1	55.1073	12,996.1	52.5603	12,996.1	59.5235	12,996.1	49.274	12,996.1	58.2429	12,996.1	46.4956	12,996.1	60.3958	12,996.1	46.3709	12,996.1	58.9297	12,996.1	38.8593	12,996.1	59.2724	12,996.1	34.6468	12,996.1	49.384
13,454.6	90.596	13,454.6	89.8384	13,454.6	90.134	13,454.6	88.7497	13,454.6	89.2772	13,454.6	87.8654	13,454.6	87.9843	13,454.6	86.5894	13,454.6	85.4579	13,454.6	83.7072	13,454.6	82.5745	13,454.6	79.4871	13,454.6	78.1813	13,454.6	74.4885	13,454.6	73.9235	13,454.6	71.5394	13,454.6	65.2747	13,454.6	67.7323	13,454.6	57.3787	13,454.6	64.6572	13,454.6	54.8699	13,454.6	58.6777	13,454.6	46.7823	13,454.6	55.6001	13,454.6	56.3575	13,454.6	58.9855	13,454.6	53.3257	13,454.6	57.7589	13,454.6	49.7314	13,454.6	58.5875	13,454.6	43.094	13,454.6	58.5667	13,454.6	46.5158	13,454.6	59.2601	13,454.6	48.6014	13,454.6	52.8039
13,929.2	90.6543	13,929.2	89.3515	13,929.2	89.9061	13,929.2	88.659	13,929.2	88.5107	13,929.2	87.834	13,929.2	87.8855	13,929.2	86.5137	13,929.2	85.2304	13,929.2	83.2573	13,929.2	81.8155	13,929.2	79.2889	13,929.2	78.4829	13,929.2	74.1659	13,929.2	73.7025	13,929.2	72.1576	13,929.2	67.9856	13,929.2	67.9647	13,929.2	43.8998	13,929.2	65.3002	13,929.2	57.2964	13,929.2	58.6349	13,929.2	48.2662	13,929.2	55.3432	13,929.2	54.6749	13,929.2	57.3819	13,929.2	54.1632	13,929.2	58.5596	13,929.2	49.7569	13,929.2	59.1497	13,929.2	43.2144	13,929.2	59.4361	13,929.2	47.4439	13,929.2	55.2475	13,929.2	47.6016	13,929.2	51.1173
14,419.9	90.8004	14,419.9	89.8294	14,419.9	89.5937	14,419.9	88.4937	14,419.9	88.2199	14,419.9	88.0399	14,419.9	87.743	14,419.9	86.463	14,419.9	85.1465	14,419.9	82.6953	14,419.9	81.0907	14,419.9	79.3304	14,419.9	78.2164	14,419.9	74.6344	14,419.9	74.1173	14,419.9	72.7643	14,419.9	69.4256	14,419.9	67.4845	14,419.9	53.5479	14,419.9	65.3934	14,419.9	54.7161	14,419.9	57.0705	14,419.9	53.7055	14,419.9	52.6353	14,419.9	39.1604	14,419.9	58.8132	14,419.9	51.7481	14,419.9	56.8246	14,419.9	45.0027	14,419.9	58.734	14,419.9	40.2479	14,419.9	59.2303	14,419.9	46.5392	14,419.9	58.5994	14,419.9	49.7283	14,419.9	52.0609
14,928.2	91.0355	14,928.2	90.2851	14,928.2	89.547	14,928.2	88.5869	14,928.2	88.0771	14,928.2	88.0161	14,928.2	87.2341	14,928.2	86.1977	14,928.2	84.6782	14,928.2	82.228	14,928.2	80.411	14,928.2	78.6046	14,928.2	76.8956	14,928.2	74.6823	14,928.2	75.2238	14,928.2	72.0478	14,928.2	65.9964	14,928.2	66.5506	14,928.2	53.4494	14,928.2	63.8151	14,928.2	48.562	14,928.2	55.4925	14,928.2	51.1547	14,928.2	52.6896	14,928.2	52.8086	14,928.2	56.2684	14,928.2	53.5102	14,928.2	57.1956	14,928.2	50.2824	14,928.2	58.9217	14,928.2	42.4491	14,928.2	59.5024	14,928.2	46.8721	14,928.2	57.8599	14,928.2	50.2997	14,928.2	54.6619
15,455.6	91.1454	15,455.6	90.492	15,455.6	89.8575	15,455.6	88.9414	15,455.6	88.3044	15,455.6	88.0539	15,455.6	86.4513	15,455.6	85.2337	15,455.6	83.8293	15,455.6	81.1394	15,455.6	79.7648	15,455.6	77.4431	15,455.6	75.9759	15,455.6	72.8282	15,455.6	71.9806	15,455.6	69.1313	15,455.6	65.8022	15,455.6	63.7491	15,455.6	57.2556	15,455.6	60.1928	15,455.6	47.6411	15,455.6	53.3049	15,455.6	50.976	15,455.6	48.6449	15,455.6	53.6421	15,455.6	54.527	15,455.6	50.3149	15,455.6	53.6724	15,455.6	48.7862	15,455.6	56.2945	15,455.6	45.723	15,455.6	55.6397	15,455.6	43.4432	15,455.6	56.8757	15,455.6	46.624	15,455.6	45.4841
16,000.5	90.8387	16,000.5	90.4027	16,000.5	90.1787	16,000.5	89.0724	16,000.5	88.576	16,000.5	87.6851	16,000.5	85.7221	16,000.5	84.1104	16,000.5	82.6806	16,000.5	79.3866	16,000.5	78.9238	16,000.5	75.6649	16,000.5	74.436	16,000.5	68.8631	16,000.5	70.6458	16,000.5	63.4863	16,000.5	60.7012	16,000.5	57.5463	16,000.5	54.5945	16,000.5	56.9789	16,000.5	52.6314	16,000.5	50.7097	16,000.5	49.6622	16,000.5	47.9061	16,000.5	56.0909	16,000.5	49.6485	16,000.5	50.1588	16,000.5	52.1751	16,000.5	45.4451	16,000.5	51.905	16,000.5	50.8788	16,000.5	52.8298	16,000.5	41.6124	16,000.5	55.3522	16,000.5	19.0878	16,000.5	46.8181
16,564.5	90.176	16,564.5	90.0303	16,564.5	89.901	16,564.5	88.5719	16,564.5	88.385	16,564.5	86.3518	16,564.5	85.1472	16,564.5	83.1357	16,564.5	81.3536	16,564.5	77.8537	16,564.5	77.0857	16,564.5	73.2883	16,564.5	71.7257	16,564.5	61.1451	16,564.5	66.4288	16,564.5	60.8076	16,564.5	55.2952	16,564.5	55.9127	16,564.5	54.4562	16,564.5	56.2091	16,564.5	51.9529	16,564.5	50.5989	16,564.5	48.977	16,564.5	45.1794	16,564.5	55.6226	16,564.5	51.097	16,564.5	46.9952	16,564.5	52.2888	16,564.5	44.1188	16,564.5	49.441	16,564.5	48.3333	16,564.5	48.3652	16,564.5	38.7994	16,564.5	52.4338	16,564.5	34.7301	16,564.5	47.9494
17,148.9	89.4627	17,148.9	89.9543	17,148.9	89.5571	17,148.9	88.1578	17,148.9	87.8161	17,148.9	85.1931	17,148.9	84.2072	17,148.9	81.4165	17,148.9	80.2294	17,148.9	75.8612	17,148.9	74.7358	17,148.9	67.97	17,148.9	69.1374	17,148.9	61.7145	17,148.9	63.5234	17,148.9	61.9071	17,148.9	57.974	17,148.9	57.9038	17,148.9	43.9563	17,148.9	56.9437	17,148.9	51.1351	17,148.9	49.9614	17,148.9	43.7962	17,148.9	48.6184	17,148.9	53.2471	17,148.9	50.0845	17,148.9	44.7482	17,148.9	53.4882	17,148.9	49.3472	17,148.9	49.5477	17,148.9	41.4586	17,148.9	50.909	17,148.9	34.3006	17,148.9	46.1452	17,148.9	30.9021	17,148.9	49.1578
17,752.4	89.3814	17,752.4	90.0028	17,752.4	89.2258	17,752.4	87.8479	17,752.4	86.9162	17,752.4	84.4241	17,752.4	83.0113	17,752.4	79.637	17,752.4	78.6622	17,752.4	72.3473	17,752.4	71.9791	17,752.4	62.3917	17,752.4	68.1688	17,752.4	65.2153	17,752.4	66.5245	17,752.4	61.8795	17,752.4	55.7009	17,752.4	57.6774	17,752.4	45.1652	17,752.4	55.4545	17,752.4	52.6368	17,752.4	47.1141	17,752.4	47.4677	17,752.4	48.3719	17,752.4	53.5352	17,752.4	46.0527	17,752.4	43.2922	17,752.4	46.5705	17,752.4	46.2061	17,752.4	46.9392	17,752.4	45.6665	17,752.4	51.6216	17,752.4	37.8197	17,752.4	37.8218	17,752.4	42.2672	17,752.4	48.0126
18,379.4	89.5321	18,379.4	89.8281	18,379.4	89.1311	18,379.4	86.84	18,379.4	85.6601	18,379.4	83.5323	18,379.4	81.5004	18,379.4	77.9782	18,379.4	76.459	18,379.4	67.2124	18,379.4	69.1307	18,379.4	65.3347	18,379.4	66.2984	18,379.4	64.7357	18,379.4	63.7864	18,379.4	60.4332	18,379.4	58.3928	18,379.4	55.6484	18,379.4	52.7376	18,379.4	54.845	18,379.4	51.7016	18,379.4	46.8495	18,379.4	46.6288	18,379.4	45.8598	18,379.4	54.5595	18,379.4	47.0948	18,379.4	46.0085	18,379.4	46.3567	18,379.4	48.1751	18,379.4	45.8153	18,379.4	38.026	18,379.4	51.5603	18,379.4	44.1066	18,379.4	43.1074	18,379.4	38.6832	18,379.4	48.7486
19,026.9	89.5705	19,026.9	89.2648	19,026.9	88.828	19,026.9	85.4507	19,026.9	84.84	19,026.9	81.8736	19,026.9	80.2079	19,026.9	74.7279	19,026.9	73.2906	19,026.9	58.7077	19,026.9	65.1597	19,026.9	61.5403	19,026.9	60.7548	19,026.9	62.08	19,026.9	59.2314	19,026.9	58.2341	19,026.9	56.1005	19,026.9	54.9699	19,026.9	52.0791	19,026.9	51.903	19,026.9	52.2352	19,026.9	43.8779	19,026.9	48.0777	19,026.9	44.7563	19,026.9	48.2519	19,026.9	50.3809	19,026.9	43.6102	19,026.9	45.0317	19,026.9	49.2515	19,026.9	43.0901	19,026.9	42.8517	19,026.9	49.5256	19,026.9	40.0955	19,026.9	45.7896	19,026.9	28.7405	19,026.9	45.8818
19,697.8	89.1247	19,697.8	88.3752	19,697.8	88.0883	19,697.8	83.8422	19,697.8	83.7907	19,697.8	79.1971	19,697.8	77.276	19,697.8	70.4014	19,697.8	69.1869	19,697.8	58.7433	19,697.8	60.9757	19,697.8	62.6779	19,697.8	61.3035	19,697.8	61.7469	19,697.8	59.5063	19,697.8	56.9875	19,697.8	53.6735	19,697.8	51.874	19,697.8	50.0567	19,697.8	48.9249	19,697.8	47.1074	19,697.8	40.8923	19,697.8	47.5254	19,697.8	45.3981	19,697.8	47.0969	19,697.8	45.1124	19,697.8	41.4826	19,697.8	40.6764	19,697.8	44.5757	19,697.8	43.5743	19,697.8	37.493	19,697.8	46.1703	19,697.8	45.3551	19,697.8	43.7769	19,697.8	31.6212	19,697.8	45.7641
19,999.5	88.7644	19,999.5	88.066	19,999.5	87.4609	19,999.5	82.3572	19,999.5	83.3615	19,999.5	77.6291	19,999.5	75.6283	19,999.5	70.2312	19,999.5	69.8867	19,999.5	62.9561	19,999.5	63.2287	19,999.5	63.4563	19,999.5	65.6813	19,999.5	60.413	19,999.5	62.4309	19,999.5	59.4374	19,999.5	57.6428	19,999.5	52.3582	19,999.5	47.3214	19,999.5	42.8019	19,999.5	43.1758	19,999.5	57.2611	19,999.5	44.1459	19,999.5	53.3537	19,999.5	46.6587	19,999.5	55.2558	19,999.5	46.0283	19,999.5	51.4395	19,999.5	51.1982	19,999.5	40.7603	19,999.5	41.6959	19,999.5	52.3404	19,999.5	50.7634	19,999.5	51.6627	19,999.5	47.671	19,999.5	47.3093
