"SPL Horizontal"
"On-Axis"		"10°"		"-10°"		"20°"		"-20°"		"30°"		"-30°"		"40°"		"-40°"		"50°"		"-50°"		"60°"		"-60°"		"70°"		"-70°"		"80°"		"-80°"		"90°"		"-90°"		"100°"		"-100°"		"110°"		"-110°"		"120°"		"-120°"		"130°"		"-130°"		"140°"		"-140°"		"150°"		"-150°"		"160°"		"-160°"		"170°"		"-170°"		"180°"
"Frequency / Hz"	"Sound Pressure Level / dB (re 20 µPa/V)  [2.83  V @ 1. m]"	"Frequency / Hz"	"Sound Pressure Level / dB (re 20 µPa/V)  [2.83  V @ 1. m]"	"Frequency / Hz"	"Sound Pressure Level / dB (re 20 µPa/V)  [2.83  V @ 1. m]"	"Frequency / Hz"	"Sound Pressure Level / dB (re 20 µPa/V)  [2.83  V @ 1. m]"	"Frequency / Hz"	"Sound Pressure Level / dB (re 20 µPa/V)  [2.83  V @ 1. m]"	"Frequency / Hz"	"Sound Pressure Level / dB (re 20 µPa/V)  [2.83  V @ 1. m]"	"Frequency / Hz"	"Sound Pressure Level / dB (re 20 µPa/V)  [2.83  V @ 1. m]"	"Frequency / Hz"	"Sound Pressure Level / dB (re 20 µPa/V)  [2.83  V @ 1. m]"	"Frequency / Hz"	"Sound Pressure Level / dB (re 20 µPa/V)  [2.83  V @ 1. m]"	"Frequency / Hz"	"Sound Pressure Level / dB (re 20 µPa/V)  [2.83  V @ 1. m]"	"Frequency / Hz"	"Sound Pressure Level / dB (re 20 µPa/V)  [2.83  V @ 1. m]"	"Frequency / Hz"	"Sound Pressure Level / dB (re 20 µPa/V)  [2.83  V @ 1. m]"	"Frequency / Hz"	"Sound Pressure Level / dB (re 20 µPa/V)  [2.83  V @ 1. m]"	"Frequency / Hz"	"Sound Pressure Level / dB (re 20 µPa/V)  [2.83  V @ 1. m]"	"Frequency / Hz"	"Sound Pressure Level / dB (re 20 µPa/V)  [2.83  V @ 1. m]"	"Frequency / Hz"	"Sound Pressure Level / dB (re 20 µPa/V)  [2.83  V @ 1. m]"	"Frequency / Hz"	"Sound Pressure Level / dB (re 20 µPa/V)  [2.83  V @ 1. m]"	"Frequency / Hz"	"Sound Pressure Level / dB (re 20 µPa/V)  [2.83  V @ 1. m]"	"Frequency / Hz"	"Sound Pressure Level / dB (re 20 µPa/V)  [2.83  V @ 1. m]"	"Frequency / Hz"	"Sound Pressure Level / dB (re 20 µPa/V)  [2.83  V @ 1. m]"	"Frequency / Hz"	"Sound Pressure Level / dB (re 20 µPa/V)  [2.83  V @ 1. m]"	"Frequency / Hz"	"Sound Pressure Level / dB (re 20 µPa/V)  [2.83  V @ 1. m]"	"Frequency / Hz"	"Sound Pressure Level / dB (re 20 µPa/V)  [2.83  V @ 1. m]"	"Frequency / Hz"	"Sound Pressure Level / dB (re 20 µPa/V)  [2.83  V @ 1. m]"	"Frequency / Hz"	"Sound Pressure Level / dB (re 20 µPa/V)  [2.83  V @ 1. m]"	"Frequency / Hz"	"Sound Pressure Level / dB (re 20 µPa/V)  [2.83  V @ 1. m]"	"Frequency / Hz"	"Sound Pressure Level / dB (re 20 µPa/V)  [2.83  V @ 1. m]"	"Frequency / Hz"	"Sound Pressure Level / dB (re 20 µPa/V)  [2.83  V @ 1. m]"	"Frequency / Hz"	"Sound Pressure Level / dB (re 20 µPa/V)  [2.83  V @ 1. m]"	"Frequency / Hz"	"Sound Pressure Level / dB (re 20 µPa/V)  [2.83  V @ 1. m]"	"Frequency / Hz"	"Sound Pressure Level / dB (re 20 µPa/V)  [2.83  V @ 1. m]"	"Frequency / Hz"	"Sound Pressure Level / dB (re 20 µPa/V)  [2.83  V @ 1. m]"	"Frequency / Hz"	"Sound Pressure Level / dB (re 20 µPa/V)  [2.83  V @ 1. m]"	"Frequency / Hz"	"Sound Pressure Level / dB (re 20 µPa/V)  [2.83  V @ 1. m]"	"Frequency / Hz"	"Sound Pressure Level / dB (re 20 µPa/V)  [2.83  V @ 1. m]"	"Frequency / Hz"	"Sound Pressure Level / dB (re 20 µPa/V)  [2.83  V @ 1. m]"
20.5078	53.2152	20.5078	53.1665	20.5078	53.2613	20.5078	53.1157	20.5078	53.303	20.5078	53.0619	20.5078	53.3373	20.5078	53.0033	20.5078	53.36	20.5078	52.9379	20.5078	53.3669	20.5078	52.8639	20.5078	53.3538	20.5078	52.7807	20.5078	53.3177	20.5078	52.6892	20.5078	53.2569	20.5078	52.5917	20.5078	53.1719	20.5078	52.4923	20.5078	53.0655	20.5078	52.3958	20.5078	52.9426	20.5078	52.3074	20.5078	52.8098	20.5078	52.2323	20.5078	52.6742	20.5078	52.1748	20.5078	52.5431	20.5078	52.1384	20.5078	52.423	20.5078	52.1255	20.5078	52.319	20.5078	52.1373	20.5078	52.2352	20.5078	52.174
21.9727	55.3486	21.9727	55.2833	21.9727	55.4108	21.9727	55.2165	21.9727	55.4672	21.9727	55.149	21.9727	55.5148	21.9727	55.0811	21.9727	55.5503	21.9727	55.0128	21.9727	55.5705	21.9727	54.9439	21.9727	55.5727	21.9727	54.875	21.9727	55.5551	21.9727	54.8073	21.9727	55.5173	21.9727	54.7427	21.9727	55.4601	21.9727	54.684	21.9727	55.3862	21.9727	54.6339	21.9727	55.2991	21.9727	54.5953	21.9727	55.2033	21.9727	54.5704	21.9727	55.1037	21.9727	54.5608	21.9727	55.0047	21.9727	54.5672	21.9727	54.91	21.9727	54.5896	21.9727	54.8229	21.9727	54.6275	21.9727	54.7456	21.9727	54.6799
23.4375	54.8287	23.4375	54.7866	23.4375	54.8634	23.4375	54.7373	23.4375	54.8896	23.4375	54.6805	23.4375	54.9054	23.4375	54.6154	23.4375	54.9089	23.4375	54.5416	23.4375	54.8976	23.4375	54.4592	23.4375	54.87	23.4375	54.3694	23.4375	54.8253	23.4375	54.2743	23.4375	54.7638	23.4375	54.1777	23.4375	54.6872	23.4375	54.084	23.4375	54.5983	23.4375	53.9981	23.4375	54.5008	23.4375	53.9249	23.4375	54.3984	23.4375	53.8681	23.4375	54.2953	23.4375	53.8305	23.4375	54.195	23.4375	53.8136	23.4375	54.101	23.4375	53.8176	23.4375	54.016	23.4375	53.8416	23.4375	53.9429	23.4375	53.884
24.9023	55.6474	24.9023	55.6187	24.9023	55.664	24.9023	55.5781	24.9023	55.6677	24.9023	55.5256	24.9023	55.6569	24.9023	55.4605	24.9023	55.6301	24.9023	55.3825	24.9023	55.5858	24.9023	55.2915	24.9023	55.5234	24.9023	55.1886	24.9023	55.443	24.9023	55.0759	24.9023	55.346	24.9023	54.9571	24.9023	55.2352	24.9023	54.8366	24.9023	55.1146	24.9023	54.7196	24.9023	54.9888	24.9023	54.6115	24.9023	54.8631	24.9023	54.5171	24.9023	54.7425	24.9023	54.4405	24.9023	54.6317	24.9023	54.3847	24.9023	54.5348	24.9023	54.3518	24.9023	54.4552	24.9023	54.3427	24.9023	54.3954	24.9023	54.3574
26.3672	56.3893	26.3672	56.3801	26.3672	56.3883	26.3672	56.3602	26.3672	56.3771	26.3672	56.3284	26.3672	56.3548	26.3672	56.2835	26.3672	56.3203	26.3672	56.2243	26.3672	56.2724	26.3672	56.1505	26.3672	56.2102	26.3672	56.0628	26.3672	56.1338	26.3672	55.9631	26.3672	56.0444	26.3672	55.855	26.3672	55.9442	26.3672	55.7429	26.3672	55.8368	26.3672	55.6316	26.3672	55.7265	26.3672	55.5265	26.3672	55.618	26.3672	55.4322	26.3672	55.516	26.3672	55.3525	26.3672	55.4246	26.3672	55.2903	26.3672	55.3475	26.3672	55.2478	26.3672	55.2874	26.3672	55.2261	26.3672	55.2463	26.3672	55.2256
27.832	56.7081	27.832	56.6899	27.832	56.7112	27.832	56.6568	27.832	56.6987	27.832	56.6087	27.832	56.6701	27.832	56.5457	27.832	56.6248	27.832	56.4683	27.832	56.5628	27.832	56.3775	27.832	56.4848	27.832	56.2754	27.832	56.3923	27.832	56.165	27.832	56.2883	27.832	56.0503	27.832	56.1765	27.832	55.9359	27.832	56.0615	27.832	55.8265	27.832	55.9478	27.832	55.7264	27.832	55.84	27.832	55.6395	27.832	55.7415	27.832	55.5684	27.832	55.6554	27.832	55.515	27.832	55.5836	27.832	55.4802	27.832	55.5277	27.832	55.4644	27.832	55.4886	27.832	55.4674
29.2969	57.4358	29.2969	57.4081	29.2969	57.4468	29.2969	57.3643	29.2969	57.4406	29.2969	57.3047	29.2969	57.4165	29.2969	57.2298	29.2969	57.3741	29.2969	57.1405	29.2969	57.3131	29.2969	57.0385	29.2969	57.2343	29.2969	56.9263	29.2969	57.1394	29.2969	56.8074	29.2969	57.0309	29.2969	56.686	29.2969	56.9127	29.2969	56.5667	29.2969	56.789	29.2969	56.4539	29.2969	56.6648	29.2969	56.3519	29.2969	56.5446	29.2969	56.264	29.2969	56.4328	29.2969	56.1928	29.2969	56.333	29.2969	56.1402	29.2969	56.2483	29.2969	56.1074	29.2969	56.1808	29.2969	56.095	29.2969	56.1321	29.2969	56.1033
30.7617	57.7637	30.7617	57.7414	30.7617	57.7684	30.7617	57.7019	30.7617	57.7553	30.7617	57.6455	30.7617	57.7238	30.7617	57.5728	30.7617	57.6737	30.7617	57.485	30.7617	57.6052	30.7617	57.3837	30.7617	57.519	30.7617	57.2716	30.7617	57.4172	30.7617	57.1523	30.7617	57.3026	30.7617	57.0299	30.7617	57.1793	30.7617	56.9089	30.7617	57.052	30.7617	56.7935	30.7617	56.9256	30.7617	56.6878	30.7617	56.8049	30.7617	56.5949	30.7617	56.6944	30.7617	56.5173	30.7617	56.5976	30.7617	56.4572	30.7617	56.5175	30.7617	56.416	30.7617	56.456	30.7617	56.3947	30.7617	56.4147	30.7617	56.3942
32.2266	58.3124	32.2266	58.2947	32.2266	58.3114	32.2266	58.2586	32.2266	58.2914	32.2266	58.2044	32.2266	58.252	32.2266	58.1328	32.2266	58.1931	32.2266	58.0448	32.2266	58.1154	32.2266	57.9423	32.2266	58.0201	32.2266	57.828	32.2266	57.9098	32.2266	57.7056	32.2266	57.788	32.2266	57.5795	32.2266	57.6595	32.2266	57.4545	32.2266	57.5292	32.2266	57.335	32.2266	57.4024	32.2266	57.2253	32.2266	57.2839	32.2266	57.1287	32.2266	57.1776	32.2266	57.0477	32.2266	57.0866	32.2266	56.9841	32.2266	57.013	32.2266	56.9391	32.2266	56.9582	32.2266	56.9137	32.2266	56.9232	32.2266	56.9084
33.6914	58.96	33.6914	58.94	33.6914	58.9593	33.6914	58.9	33.6914	58.9376	33.6914	58.8405	33.6914	58.8944	33.6914	58.7624	33.6914	58.8298	33.6914	58.667	33.6914	58.7444	33.6914	58.5566	33.6914	58.64	33.6914	58.4343	33.6914	58.5194	33.6914	58.3043	33.6914	58.3869	33.6914	58.1712	33.6914	58.2477	33.6914	58.04	33.6914	58.1075	33.6914	57.9154	33.6914	57.9721	33.6914	57.8013	33.6914	57.8468	33.6914	57.701	33.6914	57.7355	33.6914	57.6167	33.6914	57.6415	33.6914	57.55	33.6914	57.5666	33.6914	57.502	33.6914	57.5121	33.6914	57.4737	33.6914	57.4784	33.6914	57.4657
35.1562	59.816	35.1562	59.7975	35.1562	59.8109	35.1562	59.7555	35.1562	59.7817	35.1562	59.6908	35.1562	59.7285	35.1562	59.6043	35.1562	59.6517	35.1562	59.4975	35.1562	59.5523	35.1562	59.3728	35.1562	59.4324	35.1562	59.2337	35.1562	59.2951	35.1562	59.0845	35.1562	59.1449	35.1562	58.9304	35.1562	58.987	35.1562	58.7769	35.1562	58.8275	35.1562	58.6294	35.1562	58.6725	35.1562	58.4929	35.1562	58.5278	35.1562	58.3714	35.1562	58.3983	35.1562	58.2682	35.1562	58.2877	35.1562	58.1857	35.1562	58.199	35.1562	58.1259	35.1562	58.134	35.1562	58.0902	35.1562	58.094	35.1562	58.0794
36.6211	60.3769	36.6211	60.3579	36.6211	60.3728	36.6211	60.3163	36.6211	60.3456	36.6211	60.2525	36.6211	60.2954	36.6211	60.1674	36.6211	60.2225	36.6211	60.0628	36.6211	60.1279	36.6211	59.941	36.6211	60.0138	36.6211	59.8056	36.6211	59.883	36.6211	59.6609	36.6211	59.7398	36.6211	59.5121	36.6211	59.5892	36.6211	59.3644	36.6211	59.4368	36.6211	59.2231	36.6211	59.2882	36.6211	59.0926	36.6211	59.1488	36.6211	58.9768	36.6211	59.023	36.6211	58.8786	36.6211	58.9147	36.6211	58.8004	36.6211	58.8268	36.6211	58.7443	36.6211	58.7614	36.6211	58.7116	36.6211	58.72	36.6211	58.7034
38.0859	60.7042	38.0859	60.6843	38.0859	60.6995	38.0859	60.6403	38.0859	60.6704	38.0859	60.5727	38.0859	60.617	38.0859	60.4827	38.0859	60.5402	38.0859	60.3723	38.0859	60.4415	38.0859	60.2443	38.0859	60.3236	38.0859	60.1027	38.0859	60.1898	38.0859	59.9524	38.0859	60.0448	38.0859	59.7991	38.0859	59.894	38.0859	59.6484	38.0859	59.7428	38.0859	59.5059	38.0859	59.5968	38.0859	59.3762	38.0859	59.4606	38.0859	59.2631	38.0859	59.3382	38.0859	59.1692	38.0859	59.2326	38.0859	59.0966	38.0859	59.1461	38.0859	59.0465	38.0859	59.0804	38.0859	59.0197	38.0859	59.037	38.0859	59.0166
39.5508	61.0317	39.5508	61.0113	39.5508	61.0258	39.5508	60.965	39.5508	60.9933	39.5508	60.8936	39.5508	60.9349	39.5508	60.7987	39.5508	60.8514	39.5508	60.6828	39.5508	60.7448	39.5508	60.5491	39.5508	60.6178	39.5508	60.4021	39.5508	60.4744	39.5508	60.2468	39.5508	60.3198	39.5508	60.0892	39.5508	60.1598	39.5508	59.9348	39.5508	60.0003	39.5508	59.7889	39.5508	59.8472	39.5508	59.6557	39.5508	59.7054	39.5508	59.5386	39.5508	59.5792	39.5508	59.4401	39.5508	59.4717	39.5508	59.3622	39.5508	59.3851	39.5508	59.3063	39.5508	59.3211	39.5508	59.2736	39.5508	59.2809	39.5508	59.265
41.0156	61.7119	41.0156	61.7168	41.0156	61.6796	41.0156	61.6945	41.0156	61.62	41.0156	61.6455	41.0156	61.5337	41.0156	61.571	41.0156	61.422	41.0156	61.4728	41.0156	61.2871	41.0156	61.3535	41.0156	61.1324	41.0156	61.2168	41.0156	60.9626	41.0156	61.0669	41.0156	60.7838	41.0156	60.909	41.0156	60.6029	41.0156	60.7481	41.0156	60.4276	41.0156	60.5892	41.0156	60.265	41.0156	60.4367	41.0156	60.1216	41.0156	60.2943	41.0156	60.0024	41.0156	60.1652	41.0156	59.9106	41.0156	60.0523	41.0156	59.8482	41.0156	59.9581	41.0156	59.8155	41.0156	59.8851	41.0156	59.8118	41.0156	59.8356
42.4805	62.3468	42.4805	62.3267	42.4805	62.338	42.4805	62.2781	42.4805	62.3004	42.4805	62.2018	42.4805	62.2347	42.4805	62.0995	42.4805	62.1423	42.4805	61.9739	42.4805	62.0254	42.4805	61.8288	42.4805	61.8873	42.4805	61.6692	42.4805	61.7328	42.4805	61.5013	42.4805	61.5672	42.4805	61.3316	42.4805	61.397	42.4805	61.1666	42.4805	61.2285	42.4805	61.0121	42.4805	61.0677	42.4805	60.8726	42.4805	60.9198	42.4805	60.7512	42.4805	60.7891	42.4805	60.65	42.4805	60.6785	42.4805	60.5705	42.4805	60.5903	42.4805	60.5136	42.4805	60.5258	42.4805	60.4801	42.4805	60.4859	42.4805	60.4707
43.9453	62.7115	43.9453	62.6937	43.9453	62.6991	43.9453	62.6459	43.9453	62.6563	43.9453	62.5693	43.9453	62.5838	43.9453	62.4657	43.9453	62.4831	43.9453	62.3378	43.9453	62.3566	43.9453	62.1896	43.9453	62.208	43.9453	62.0263	43.9453	62.0425	43.9453	61.854	43.9453	61.8661	43.9453	61.6794	43.9453	61.686	43.9453	61.509	43.9453	61.509	43.9453	61.3484	43.9453	61.3418	43.9453	61.2022	43.9453	61.1897	43.9453	61.0735	43.9453	61.0569	43.9453	60.9646	43.9453	60.9464	43.9453	60.8772	43.9453	60.8601	43.9453	60.8124	43.9453	60.7992	43.9453	60.7714	43.9453	60.7642	43.9453	60.7551
45.4102	63.2609	45.4102	63.2386	45.4102	63.2508	45.4102	63.1847	45.4102	63.2085	45.4102	63.1005	45.4102	63.1348	45.4102	62.9884	45.4102	63.0317	45.4102	62.852	45.4102	62.902	45.4102	62.6961	45.4102	62.75	45.4102	62.5264	45.4102	62.5811	45.4102	62.3497	45.4102	62.4019	45.4102	62.1728	45.4102	62.2195	45.4102	62.002	45.4102	62.0409	45.4102	61.8427	45.4102	61.8725	45.4102	61.699	45.4102	61.7194	45.4102	61.5736	45.4102	61.5856	45.4102	61.4683	45.4102	61.4737	45.4102	61.3846	45.4102	61.3857	45.4102	61.3234	45.4102	61.3226	45.4102	61.2858	45.4102	61.2849	45.4102	61.2728
46.875	63.4545	46.875	63.4244	46.875	63.4497	46.875	63.36	46.875	63.4101	46.875	63.2633	46.875	63.3366	46.875	63.1371	46.875	63.2313	46.875	62.9857	46.875	63.0974	46.875	62.8144	46.875	62.9396	46.875	62.6301	46.875	62.7638	46.875	62.4401	46.875	62.5769	46.875	62.2521	46.875	62.3864	46.875	62.073	46.875	62.1998	46.875	61.9084	46.875	62.0235	46.875	61.7624	46.875	61.8627	46.875	61.6373	46.875	61.7211	46.875	61.5349	46.875	61.6013	46.875	61.456	46.875	61.5052	46.875	61.4013	46.875	61.4336	46.875	61.3713	46.875	61.3873	46.875	61.3665
48.3398	62.6486	48.3398	62.6093	48.3398	62.6364	48.3398	62.5199	48.3398	62.5728	48.3398	62.3834	48.3398	62.4597	48.3398	62.2046	48.3398	62.3006	48.3398	61.9904	48.3398	62.1013	48.3398	61.7496	48.3398	61.8696	48.3398	61.4928	48.3398	61.6155	48.3398	61.2313	48.3398	61.3506	48.3398	60.9763	48.3398	61.0865	48.3398	60.7368	48.3398	60.8337	48.3398	60.5191	48.3398	60.6004	48.3398	60.3268	48.3398	60.3919	48.3398	60.1614	48.3398	60.2111	48.3398	60.0234	48.3398	60.0598	48.3398	59.914	48.3398	59.9391	48.3398	59.8348	48.3398	59.8504	48.3398	59.7876	48.3398	59.795	48.3398	59.7741
51.2695	63.492	51.2695	63.4628	51.2695	63.4613	51.2695	63.3748	51.2695	63.3713	51.2695	63.2308	51.2695	63.2244	51.2695	63.0359	51.2695	63.0251	51.2695	62.7974	51.2695	62.7802	51.2695	62.5255	51.2695	62.499	51.2695	62.2324	51.2695	62.1936	51.2695	61.9315	51.2695	61.8778	51.2695	61.636	51.2695	61.5658	51.2695	61.3565	51.2695	61.2701	51.2695	61.1001	51.2695	61.0004	51.2695	60.8706	51.2695	60.7629	51.2695	60.669	51.2695	60.5609	51.2695	60.4959	51.2695	60.3958	51.2695	60.3527	51.2695	60.2689	51.2695	60.2419	51.2695	60.1816	51.2695	60.1668	51.2695	60.1353	51.2695	60.1306
52.7344	63.964	52.7344	63.9283	52.7344	63.9353	52.7344	63.8295	52.7344	63.8429	52.7344	63.6706	52.7344	63.6895	52.7344	63.457	52.7344	63.4797	52.7344	63.1969	52.7344	63.2212	52.7344	62.901	52.7344	62.9241	52.7344	62.5831	52.7344	62.6017	52.7344	62.2581	52.7344	62.269	52.7344	61.9407	52.7344	61.9414	52.7344	61.643	52.7344	61.632	52.7344	61.373	52.7344	61.3506	52.7344	61.1345	52.7344	61.1028	52.7344	60.9282	52.7344	60.891	52.7344	60.7541	52.7344	60.7161	52.7344	60.6129	52.7344	60.579	52.7344	60.5066	52.7344	60.4813	52.7344	60.4381	52.7344	60.4246	52.7344	60.4103
54.1992	64.0947	54.1992	64.0606	54.1992	64.058	54.1992	63.9574	54.1992	63.9507	54.1992	63.7889	54.1992	63.7751	54.1992	63.5612	54.1992	63.5359	54.1992	63.2831	54.1992	63.241	54.1992	62.9663	54.1992	62.9016	54.1992	62.6251	54.1992	62.5327	54.1992	62.2752	54.1992	62.1515	54.1992	61.9316	54.1992	61.7762	54.1992	61.6064	54.1992	61.423	54.1992	61.3074	54.1992	61.1042	54.1992	61.0379	54.1992	60.8268	54.1992	60.799	54.1992	60.5939	54.1992	60.5911	54.1992	60.4065	54.1992	60.4161	54.1992	60.265	54.1992	60.2776	54.1992	60.1707	54.1992	60.1803	54.1992	60.1249	54.1992	60.1284
55.6641	64.4034	55.6641	64.3594	55.6641	64.3672	55.6641	64.237	55.6641	64.2507	55.6641	64.0402	55.6641	64.0559	55.6641	63.7755	55.6641	63.7872	55.6641	63.4524	55.6641	63.4523	55.6641	63.0839	55.6641	63.0625	55.6641	62.686	55.6641	62.6333	55.6641	62.277	55.6641	62.1839	55.6641	61.8744	55.6641	61.7355	55.6641	61.4932	55.6641	61.3087	55.6641	61.1429	55.6641	60.9203	55.6641	60.828	55.6641	60.5817	55.6641	60.5493	55.6641	60.2991	55.6641	60.3072	55.6641	60.0747	55.6641	60.1032	55.6641	59.9088	55.6641	59.941	55.6641	59.8015	55.6641	59.8254	55.6641	59.7526	55.6641	59.7613
58.5938	64.6591	58.5938	64.6234	58.5938	64.6096	58.5938	64.504	58.5938	64.4759	58.5938	64.3053	58.5938	64.2613	58.5938	64.0348	58.5938	63.9724	58.5938	63.7038	58.5938	63.6191	58.5938	63.3277	58.5938	63.2153	58.5938	62.9253	58.5938	62.7785	58.5938	62.5166	58.5938	62.329	58.5938	62.1199	58.5938	61.887	58.5938	61.7478	58.5938	61.4697	58.5938	61.4057	58.5938	61.0892	58.5938	61.0928	58.5938	60.7526	58.5938	60.8063	58.5938	60.4636	58.5938	60.545	58.5938	60.2255	58.5938	60.3128	58.5938	60.0431	58.5938	60.1182	58.5938	59.9228	58.5938	59.9728	58.5938	59.8701	58.5938	59.8875
60.0586	64.5569	60.0586	64.5019	60.0586	64.5115	60.0586	64.3482	60.0586	64.3667	60.0586	64.1001	60.0586	64.1259	60.0586	63.7658	60.0586	63.7961	60.0586	63.3583	60.0586	63.3882	60.0586	62.8959	60.0586	62.918	60.0586	62.4028	60.0586	62.4071	60.0586	61.9063	60.0586	61.8811	60.0586	61.4326	60.0586	61.3668	60.0586	61.0012	60.0586	60.8876	60.0586	60.6205	60.0586	60.4593	60.0586	60.2888	60.0586	60.0891	60.0586	59.9988	60.0586	59.7781	60.0586	59.7444	60.0586	59.5254	60.0586	59.5247	60.0586	59.3322	60.0586	59.3448	60.0586	59.2016	60.0586	59.2143	60.0586	59.1379	60.0586	59.143
62.9883	64.635	62.9883	64.5626	62.9883	64.5783	62.9883	64.3627	62.9883	64.3924	62.9883	64.0385	62.9883	64.0789	62.9883	63.5966	62.9883	63.6421	62.9883	63.0478	62.9883	63.09	62.9883	62.41	62.9883	62.4371	62.9883	61.7095	62.9883	61.7062	62.9883	60.981	62.9883	60.9296	62.9883	60.2641	62.9883	60.1472	62.9883	59.595	62.9883	59.4015	62.9883	58.9977	62.9883	58.7285	62.9883	58.4796	62.9883	58.1507	62.9883	58.0351	62.9883	57.6763	62.9883	57.655	62.9883	57.3038	62.9883	57.3346	62.9883	57.0298	62.9883	57.0768	62.9883	56.8525	62.9883	56.8904	62.9883	56.7716	62.9883	56.7858
64.4531	64.7089	64.4531	64.6216	64.4531	64.6536	64.4531	64.3929	64.4531	64.4554	64.4531	64.0251	64.4531	64.1145	64.4531	63.5229	64.4531	63.6328	64.4531	62.8955	64.4531	63.0148	64.4531	62.159	64.4531	62.2705	64.4531	61.3397	64.4531	61.4172	64.4531	60.4746	64.4531	60.483	64.4531	59.6092	64.4531	59.5072	64.4531	58.7883	64.4531	58.5386	64.4531	58.0439	64.4531	57.628	64.4531	57.3871	64.4531	56.8193	64.4531	56.811	64.4531	56.1421	64.4531	56.3034	64.4531	55.6121	64.4531	55.8584	64.4531	55.235	64.4531	55.4817	64.4531	55.0112	64.4531	55.189	64.4531	54.9363	64.4531	55.0007
67.3828	65.2382	67.3828	65.1073	67.3828	65.197	67.3828	64.8016	67.3828	64.9845	67.3828	64.3168	67.3828	64.5993	67.3828	63.6474	67.3828	64.0391	67.3828	62.7883	67.3828	63.3008	67.3828	61.7373	67.3828	62.3822	67.3828	60.4998	67.3828	61.2842	67.3828	59.0968	67.3828	60.0139	67.3828	57.5754	67.3828	58.5881	67.3828	56.0202	67.3828	57.039	67.3828	54.5517	67.3828	55.4204	67.3828	53.2952	67.3828	53.8154	67.3828	52.323	67.3828	52.3431	67.3828	51.6203	67.3828	51.148	67.3828	51.1125	67.3828	50.3514	67.3828	50.7192	67.3828	49.9791	67.3828	50.3896	67.3828	49.9448	67.3828	50.116
68.8477	65.7734	68.8477	65.651	68.8477	65.7129	68.8477	65.3421	68.8477	65.4697	68.8477	64.8403	68.8477	65.0409	68.8477	64.1356	68.8477	64.4209	68.8477	63.2149	68.8477	63.6014	68.8477	62.0618	68.8477	62.5718	68.8477	60.6577	68.8477	61.3197	68.8477	58.9826	68.8477	59.8309	68.8477	57.0181	68.8477	58.0892	68.8477	54.7564	68.8477	56.0757	68.8477	52.2249	68.8477	53.7686	68.8477	49.5604	68.8477	51.1563	68.8477	47.1569	68.8477	48.3031	68.8477	45.6545	68.8477	45.5768	68.8477	45.2571	68.8477	43.92	68.8477	45.3949	68.8477	43.8866	68.8477	45.4758	68.8477	44.6073	68.8477	45.2259
71.7773	67.011	71.7773	66.8841	71.7773	66.9427	71.7773	66.5584	71.7773	66.6786	71.7773	66.0263	71.7773	66.2142	71.7773	65.2754	71.7773	65.5413	71.7773	64.2874	71.7773	64.6469	71.7773	63.0373	71.7773	63.5135	71.7773	61.4897	71.7773	62.1172	71.7773	59.5948	71.7773	60.4267	71.7773	57.2805	71.7773	58.4018	71.7773	54.4473	71.7773	55.9987	71.7773	51.0226	71.7773	53.2169	71.7773	47.4658	71.7773	50.3253	71.7773	46.1864	71.7773	48.4202	71.7773	47.8879	71.7773	48.6364	71.7773	49.8631	71.7773	49.9576	71.7773	51.2354	71.7773	51.1775	71.7773	51.9998	71.7773	51.949	71.7773	52.226
74.707	68.4476	74.707	68.3237	74.707	68.3796	74.707	68.0052	74.707	68.12	74.707	67.4867	74.707	67.6666	74.707	66.7607	74.707	67.0157	74.707	65.8185	74.707	66.163	74.707	64.6534	74.707	65.1068	74.707	63.2681	74.707	63.854	74.707	61.6924	74.707	62.4334	74.707	60.023	74.707	60.9225	74.707	58.4866	74.707	59.4874	74.707	57.4496	74.707	58.3973	74.707	57.1849	74.707	57.9026	74.707	57.5701	74.707	58.0095	74.707	58.2426	74.707	58.4751	74.707	58.9177	74.707	59.0301	74.707	59.4528	74.707	59.5031	74.707	59.7897	74.707	59.8086	74.707	59.9088
77.6367	71.5994	77.6367	71.5156	77.6367	71.5244	77.6367	71.2743	77.6367	71.2933	77.6367	70.8816	77.6367	70.9135	77.6367	70.3507	77.6367	70.4002	77.6367	69.7059	77.6367	69.7808	77.6367	68.9895	77.6367	69.1006	77.6367	68.2677	77.6367	68.4274	77.6367	67.6304	77.6367	67.8481	77.6367	67.1737	77.6367	67.4491	77.6367	66.964	77.6367	67.2824	77.6367	67.0065	77.6367	67.3422	77.6367	67.2462	77.6367	67.5721	77.6367	67.6009	77.6367	67.895	77.6367	67.992	77.6367	68.2394	77.6367	68.3582	77.6367	68.5497	77.6367	68.6568	77.6367	68.7869	77.6367	68.8597	77.6367	68.9253	77.6367	68.951
79.1016	72.7	79.1016	72.6197	79.1016	72.6349	79.1016	72.396	79.1016	72.4273	79.1016	72.0368	79.1016	72.0863	79.1016	71.558	79.1016	71.6293	79.1016	70.9871	79.1016	71.0856	79.1016	70.3676	79.1016	70.5006	79.1016	69.7618	79.1016	69.9366	79.1016	69.2462	79.1016	69.4668	79.1016	68.8945	79.1016	69.1573	79.1016	68.7512	79.1016	69.0431	79.1016	68.8133	79.1016	69.1147	79.1016	69.0358	79.1016	69.3261	79.1016	69.3538	79.1016	69.6161	79.1016	69.7038	79.1016	69.9254	79.1016	70.0335	79.1016	70.2059	79.1016	70.304	79.1016	70.4216	79.1016	70.4887	79.1016	70.5482	79.1016	70.572
82.0312	74.8636	82.0312	74.8008	82.0312	74.8015	82.0312	74.6162	82.0312	74.6177	82.0312	74.3195	82.0312	74.322	82.0312	73.9284	82.0312	73.9332	82.0312	73.4704	82.0312	73.4804	82.0312	72.9852	82.0312	73.0052	82.0312	72.5232	82.0312	72.5599	82.0312	72.1401	82.0312	72.2	82.0312	71.8839	82.0312	71.9712	82.0312	71.7815	82.0312	71.895	82.0312	71.8297	82.0312	71.9629	82.0312	71.9995	82.0312	72.1419	82.0312	72.2473	82.0312	72.387	82.0312	72.5262	82.0312	72.6522	82.0312	72.7941	82.0312	72.8969	82.0312	73.0163	82.0312	73.0888	82.0312	73.1677	82.0312	73.2051	82.0312	73.2326
84.9609	76.8462	84.9609	76.7954	84.9609	76.7859	84.9609	76.636	84.9609	76.6185	84.9609	76.3772	84.9609	76.3548	84.9609	76.0357	84.9609	76.0135	84.9609	75.6366	84.9609	75.6224	84.9609	75.2145	84.9609	75.2184	84.9609	74.8118	84.9609	74.8446	84.9609	74.4733	84.9609	74.5441	84.9609	74.238	84.9609	74.3504	84.9609	74.1291	84.9609	74.2789	84.9609	74.1476	84.9609	74.3238	84.9609	74.2742	84.9609	74.4613	84.9609	74.4755	84.9609	74.6572	84.9609	74.7122	84.9609	74.8741	84.9609	74.9464	84.9609	75.077	84.9609	75.1454	84.9609	75.2366	84.9609	75.2847	84.9609	75.3315	84.9609	75.3487
87.8906	78.372	87.8906	78.3137	87.8906	78.325	87.8906	78.1525	87.8906	78.1766	87.8906	77.8982	87.8906	77.9379	87.8906	77.568	87.8906	77.6276	87.8906	77.1876	87.8906	77.2725	87.8906	76.7914	87.8906	76.9071	87.8906	76.42	87.8906	76.5709	87.8906	76.1151	87.8906	76.302	87.8906	75.9111	87.8906	76.1297	87.8906	75.8269	87.8906	76.0676	87.8906	75.8617	87.8906	76.1109	87.8906	75.9963	87.8906	76.2392	87.8906	76.1993	87.8906	76.4218	87.8906	76.4343	87.8906	76.6247	87.8906	76.6654	87.8906	76.815	87.8906	76.8617	87.8906	76.9644	87.8906	76.9999	87.8906	77.0521	87.8906	77.0651
90.8203	79.6523	90.8203	79.6026	90.8203	79.6087	90.8203	79.4625	90.8203	79.4758	90.8203	79.2419	90.8203	79.2644	90.8203	78.9579	90.8203	78.9927	90.8203	78.635	90.8203	78.6863	90.8203	78.3045	90.8203	78.3766	90.8203	78.0012	90.8203	78.098	90.8203	77.7595	90.8203	77.8825	90.8203	77.6064	90.8203	77.7539	90.8203	77.5559	90.8203	77.7224	90.8203	77.6067	90.8203	77.7831	90.8203	77.7426	90.8203	77.9183	90.8203	77.9373	90.8203	78.1012	90.8203	78.1588	90.8203	78.3013	90.8203	78.3752	90.8203	78.4884	90.8203	78.5579	90.8203	78.6362	90.8203	78.6849	90.8203	78.7249	90.8203	78.7424
95.2148	81.1802	95.2148	81.1315	95.2148	81.1429	95.2148	80.9996	95.2148	81.0237	95.2148	80.7936	95.2148	80.8329	95.2148	80.5297	95.2148	80.5879	95.2148	80.2304	95.2148	80.312	95.2148	79.924	95.2148	80.0335	95.2148	79.6417	95.2148	79.7826	95.2148	79.4142	95.2148	79.5872	95.2148	79.2662	95.2148	79.4683	95.2148	79.2119	95.2148	79.4357	95.2148	79.2521	95.2148	79.4863	95.2148	79.3742	95.2148	79.6057	95.2148	79.555	95.2148	79.7703	95.2148	79.7652	95.2148	79.9519	95.2148	79.9739	95.2148	80.1222	95.2148	80.1531	95.2148	80.2557	95.2148	80.2806	95.2148	80.333	95.2148	80.3425
98.1445	81.9363	98.1445	81.8879	98.1445	81.9019	98.1445	81.7591	98.1445	81.7884	98.1445	81.5591	98.1445	81.6064	98.1445	81.3035	98.1445	81.3725	98.1445	81.0141	98.1445	81.1094	98.1445	80.7182	98.1445	80.8441	98.1445	80.4457	98.1445	80.6052	98.1445	80.2259	98.1445	80.4193	98.1445	80.0825	98.1445	80.3061	98.1445	80.0297	98.1445	80.2754	98.1445	80.0688	98.1445	80.3248	98.1445	80.1885	98.1445	80.4408	98.1445	80.3666	98.1445	80.6008	98.1445	80.5746	98.1445	80.7776	98.1445	80.782	98.1445	80.9431	98.1445	80.961	98.1445	81.0724	98.1445	81.0893	98.1445	81.1462	98.1445	81.153
101.074	82.588	101.074	82.5373	101.074	82.5575	101.074	82.4079	101.074	82.4497	101.074	82.209	101.074	82.2747	101.074	81.9559	101.074	82.049	101.074	81.6701	101.074	81.7944	101.074	81.3782	101.074	81.5373	101.074	81.1093	101.074	81.3054	101.074	80.8919	101.074	81.1244	101.074	80.7494	101.074	81.0138	101.074	80.6959	101.074	80.9836	101.074	80.7336	101.074	81.0319	101.074	80.8518	101.074	81.1455	101.074	81.0295	101.074	81.3025	101.074	81.2384	101.074	81.4755	101.074	81.4481	101.074	81.6368	101.074	81.6305	101.074	81.7613	101.074	81.7633	101.074	81.8302	101.074	81.8318
105.469	83.1937	105.469	83.1501	105.469	83.1561	105.469	83.0281	105.469	83.0409	105.469	82.8371	105.469	82.858	105.469	82.5927	105.469	82.6239	105.469	82.3162	105.469	82.3608	105.469	82.0337	105.469	82.0951	105.469	81.7734	105.469	81.8552	105.469	81.5626	105.469	81.6677	105.469	81.4237	105.469	81.553	105.469	81.3702	105.469	81.5219	105.469	81.4042	105.469	81.5731	105.469	81.5155	105.469	81.6931	105.469	81.6839	105.469	81.8588	105.469	81.8822	105.469	82.042	105.469	82.0811	105.469	82.2134	105.469	82.2531	105.469	82.3477	105.469	82.3762	105.469	82.4255	105.469	82.4358
108.398	83.6891	108.398	83.6452	108.398	83.6516	108.398	83.5229	108.398	83.5365	108.398	83.3316	108.398	83.3537	108.398	83.087	108.398	83.1196	108.398	82.8104	108.398	82.8564	108.398	82.528	108.398	82.5906	108.398	82.2682	108.398	82.3504	108.398	82.0586	108.398	82.1626	108.398	81.9222	108.398	82.0481	108.398	81.8727	108.398	82.0179	108.398	81.9125	108.398	82.0713	108.398	82.0311	108.398	82.1952	108.398	82.2073	108.398	82.3664	108.398	82.4128	108.398	82.5561	108.398	82.6172	108.398	82.7347	108.398	82.7925	108.398	82.8758	108.398	82.9163	108.398	82.9595	108.398	82.974
112.793	84.2945	112.793	84.2516	112.793	84.2548	112.793	84.1287	112.793	84.1363	112.793	83.9348	112.793	83.9496	112.793	83.6856	112.793	83.7114	112.793	83.4026	112.793	83.444	112.793	83.1119	112.793	83.1739	112.793	82.8424	112.793	82.9294	112.793	82.6222	112.793	82.7368	112.793	82.4751	112.793	82.617	112.793	82.4159	112.793	82.5815	112.793	82.448	112.793	82.6295	112.793	82.5617	112.793	82.7485	112.793	82.7357	112.793	82.9157	112.793	82.9415	112.793	83.1022	112.793	83.1478	112.793	83.2784	112.793	83.3256	112.793	83.4175	112.793	83.452	112.793	83.4994	112.793	83.512
117.188	85.4918	117.188	85.4513	117.188	85.4388	117.188	85.3201	117.188	85.2967	117.188	85.1084	117.188	85.0774	117.188	84.8337	117.188	84.8004	117.188	84.5206	117.188	84.4914	117.188	84.1989	117.188	84.1818	117.188	83.9018	117.188	83.9048	117.188	83.6619	117.188	83.6919	117.188	83.5063	117.188	83.5679	117.188	83.452	117.188	83.5456	117.188	83.5025	117.188	83.6236	117.188	83.6457	117.188	83.7853	117.188	83.8567	117.188	84.0022	117.188	84.1016	117.188	84.239	117.188	84.3441	117.188	84.4602	117.188	84.5508	117.188	84.6347	117.188	84.6954	117.188	84.7393	117.188	84.7606
120.117	85.7799	120.117	85.7387	120.117	85.7257	120.117	85.605	120.117	85.581	120.117	85.3893	120.117	85.3578	120.117	85.1094	120.117	85.076	120.117	84.7902	120.117	84.7619	120.117	84.4625	120.117	84.4474	120.117	84.1601	120.117	84.1664	120.117	83.9164	120.117	83.9509	120.117	83.7594	120.117	83.8259	120.117	83.7064	120.117	83.8047	120.117	83.7605	120.117	83.8857	120.117	83.9093	120.117	84.0521	120.117	84.1268	120.117	84.2746	120.117	84.3782	120.117	84.5173	120.117	84.6264	120.117	84.7437	120.117	84.8376	120.117	84.9223	120.117	84.9851	120.117	85.0294	120.117	85.0514
124.512	86.1326	124.512	86.0891	124.512	86.0786	124.512	85.9509	124.512	85.9319	124.512	85.7286	124.512	85.7052	124.512	85.4409	124.512	85.4189	124.512	85.1134	124.512	85.1002	124.512	84.7779	124.512	84.7821	124.512	84.4696	124.512	84.4994	124.512	84.2233	124.512	84.2851	124.512	84.0679	124.512	84.1648	124.512	84.0215	124.512	84.1517	124.512	84.0869	124.512	84.2435	124.512	84.2503	124.512	84.4221	124.512	84.4841	124.512	84.6567	124.512	84.7514	124.512	84.9103	124.512	85.0136	124.512	85.1454	124.512	85.2358	124.512	85.3298	124.512	85.3909	124.512	85.4397	124.512	85.4612
128.906	86.4831	128.906	86.4432	128.906	86.4225	128.906	86.3057	128.906	86.2663	128.906	86.0816	128.906	86.0279	128.906	85.7901	128.906	85.7283	128.906	85.4576	128.906	85.396	128.906	85.117	128.906	85.0652	128.906	84.8045	128.906	84.7725	128.906	84.5557	128.906	84.5524	128.906	84.4005	128.906	84.4318	128.906	84.3573	128.906	84.4246	128.906	84.4287	128.906	84.528	128.906	84.6004	128.906	84.7227	128.906	84.8434	128.906	84.9758	128.906	85.1198	128.906	85.2478	128.906	85.3896	128.906	85.4995	128.906	85.6171	128.906	85.6973	128.906	85.7744	128.906	85.8166	128.906	85.8434
133.301	86.859	133.301	86.8195	133.301	86.7955	133.301	86.6799	133.301	86.6341	133.301	86.4516	133.301	86.3886	133.301	86.1539	133.301	86.0806	133.301	85.8142	133.301	85.7393	133.301	85.466	133.301	85.3999	133.301	85.1468	133.301	85.1	133.301	84.8934	133.301	84.8752	133.301	84.7369	133.301	84.7534	133.301	84.6962	133.301	84.749	133.301	84.7741	133.301	84.8592	133.301	84.955	133.301	85.0636	133.301	85.2084	133.301	85.328	133.301	85.4947	133.301	85.6116	133.301	85.7729	133.301	85.8737	133.301	86.0062	133.301	86.08	133.301	86.1664	133.301	86.2053	133.301	86.2353
139.16	87.3288	139.16	87.2889	139.16	87.26	139.16	87.1434	139.16	87.0883	139.16	86.9036	139.16	86.828	139.16	86.5899	139.16	86.5019	139.16	86.2306	139.16	86.1407	139.16	85.8615	139.16	85.7815	139.16	85.5224	139.16	85.4643	139.16	85.2532	139.16	85.2272	139.16	85.0878	139.16	85.1001	139.16	85.0469	139.16	85.0982	139.16	85.1331	139.16	85.2185	139.16	85.3293	139.16	85.4386	139.16	85.6018	139.16	85.7217	139.16	85.9077	139.16	86.0241	139.16	86.2032	139.16	86.303	139.16	86.4498	139.16	86.5224	139.16	86.6181	139.16	86.6562	139.16	86.6894
143.555	87.6609	143.555	87.6198	143.555	87.589	143.555	87.4685	143.555	87.4098	143.555	87.2189	143.555	87.1382	143.555	86.8917	143.555	86.7978	143.555	86.5167	143.555	86.4206	143.555	86.1307	143.555	86.045	143.555	85.7756	143.555	85.7132	143.555	85.4935	143.555	85.4652	143.555	85.3201	143.555	85.3326	143.555	85.2774	143.555	85.3316	143.555	85.3684	143.555	85.4587	143.555	85.5745	143.555	85.69	143.555	85.8601	143.555	85.9864	143.555	86.1799	143.555	86.302	143.555	86.488	143.555	86.5924	143.555	86.7446	143.555	86.8204	143.555	86.9195	143.555	86.9592	143.555	86.9935
147.949	87.9792	147.949	87.9379	147.949	87.9015	147.949	87.7808	147.949	87.7109	147.949	87.5201	147.949	87.4227	147.949	87.1774	147.949	87.0613	147.949	86.7833	147.949	86.6601	147.949	86.3763	147.949	86.2596	147.949	86.0005	147.949	85.9045	147.949	85.7003	147.949	85.6377	147.949	85.5136	147.949	85.4936	147.949	85.4643	147.949	85.4897	147.949	85.5556	147.949	85.6222	147.949	85.7683	147.949	85.8653	147.949	86.0644	147.949	86.177	147.949	86.3963	147.949	86.5088	147.949	86.7157	147.949	86.8136	147.949	86.9812	147.949	87.053	147.949	87.1614	147.949	87.1993	147.949	87.2368
153.809	88.3104	153.809	88.2707	153.809	88.2238	153.809	88.1084	153.809	88.0171	153.809	87.8364	153.809	87.7061	153.809	87.4778	153.809	87.3167	153.809	87.065	153.809	86.8845	153.809	86.6389	153.809	86.4533	153.809	86.2462	153.809	86.0714	153.809	85.9337	153.809	85.7862	153.809	85.7416	153.809	85.6351	153.809	85.6945	153.809	85.6373	153.809	85.7952	153.809	85.7881	153.809	86.0227	153.809	86.0583	153.809	86.3364	153.809	86.4013	153.809	86.6862	153.809	86.7638	153.809	87.0214	153.809	87.0958	153.809	87.2987	153.809	87.3563	153.809	87.4855	153.809	87.5167	153.809	87.5609
159.668	88.6436	159.668	88.6019	159.668	88.553	159.668	88.4315	159.668	88.3365	159.668	88.1466	159.668	88.0106	159.668	87.7713	159.668	87.6026	159.668	87.3405	159.668	87.15	159.668	86.8981	159.668	86.6993	159.668	86.4941	159.668	86.302	159.668	86.1787	159.668	86.0086	159.668	85.9942	159.668	85.8596	159.668	85.9652	159.668	85.8756	159.668	86.0922	159.668	86.0508	159.668	86.3499	159.668	86.3528	159.668	86.6938	159.668	86.7306	159.668	87.0704	159.668	87.1263	159.668	87.4272	159.668	87.4866	159.668	87.72	159.668	87.7684	159.668	87.9154	159.668	87.9425	159.668	87.9926
165.527	89.0498	165.527	89.0029	165.527	88.9565	165.527	88.8196	165.527	88.7298	165.527	88.514	165.527	88.3872	165.527	88.1116	165.527	87.957	165.527	87.6489	165.527	87.4784	165.527	87.1725	165.527	86.9999	165.527	86.7367	165.527	86.5761	165.527	86.3965	165.527	86.2602	165.527	86.1992	165.527	86.0957	165.527	86.1723	165.527	86.1054	165.527	86.3156	165.527	86.2843	165.527	86.5997	165.527	86.5988	165.527	86.9742	165.527	86.9956	165.527	87.3795	165.527	87.4135	165.527	87.7593	165.527	87.7959	165.527	88.0671	165.527	88.0974	165.527	88.2693	165.527	88.2863	165.527	88.3451
171.387	89.3206	171.387	89.2687	171.387	89.2241	171.387	89.0721	171.387	88.9864	171.387	88.7453	171.387	88.6259	171.387	88.3144	171.387	88.172	171.387	87.8174	171.387	87.666	171.387	87.3032	171.387	87.1593	171.387	86.8296	171.387	86.7097	171.387	86.4563	171.387	86.3747	171.387	86.2355	171.387	86.2006	171.387	86.1989	171.387	86.2116	171.387	86.3477	171.387	86.4015	171.387	86.6505	171.387	86.7334	171.387	87.0521	171.387	87.1498	171.387	87.488	171.387	87.586	171.387	87.897	171.387	87.9828	171.387	88.2298	171.387	88.293	171.387	88.4508	171.387	88.4843	171.387	88.5384
177.246	89.5316	177.246	89.4882	177.246	89.4176	177.246	89.2911	177.246	89.1537	177.246	88.9553	177.246	88.759	177.246	88.5077	177.246	88.2647	177.246	87.9877	177.246	87.715	177.246	87.4463	177.246	87.1651	177.246	86.944	177.246	86.6783	177.246	86.5444	177.246	86.3173	177.246	86.3034	177.246	86.1328	177.246	86.2558	177.246	86.1505	177.246	86.4043	177.246	86.3619	177.246	86.7163	177.246	86.725	177.246	87.1332	177.246	87.1763	177.246	87.5866	177.246	87.646	177.246	88.0118	177.246	88.0715	177.246	88.3567	177.246	88.404	177.246	88.5842	177.246	88.6101	177.246	88.6717
183.105	89.6505	183.105	89.6083	183.105	89.5266	183.105	89.4042	183.105	89.2442	183.105	89.054	183.105	88.8231	183.105	88.5863	183.105	88.2961	183.105	88.0425	183.105	87.7097	183.105	87.4771	183.105	87.1229	183.105	86.9543	183.105	86.6036	183.105	86.5417	183.105	86.22	183.105	86.2985	183.105	86.0277	183.105	86.2609	183.105	86.0547	183.105	86.4297	183.105	86.2912	183.105	86.7684	183.105	86.6905	183.105	87.2136	183.105	87.1827	183.105	87.6927	183.105	87.6925	183.105	88.1384	183.105	88.1533	183.105	88.4968	183.105	88.5142	183.105	88.7296	183.105	88.7406	183.105	88.8139
188.965	89.8018	188.965	89.7497	188.965	89.6781	188.965	89.5259	188.965	89.3861	188.965	89.1471	188.965	88.9459	188.965	88.6429	188.965	88.3914	188.965	88.0569	188.965	87.7707	188.965	87.4468	188.965	87.1458	188.965	86.8819	188.965	86.5891	188.965	86.4362	188.965	86.1745	188.965	86.1753	188.965	85.9634	188.965	86.1392	188.965	85.9875	188.965	86.3282	188.965	86.2368	188.965	86.7004	188.965	86.6605	188.965	87.1854	188.965	87.1826	188.965	87.7036	188.965	87.7223	188.965	88.1827	188.965	88.2093	188.965	88.5662	188.965	88.5899	188.965	88.8147	188.965	88.8284	188.965	88.905
196.289	90.0359	196.289	89.9817	196.289	89.9021	196.289	89.7436	196.289	89.5888	196.289	89.3381	196.289	89.1173	196.289	88.7955	196.289	88.5231	196.289	88.161	196.289	87.857	196.289	87.4956	196.289	87.1844	196.289	86.8733	196.289	86.5823	196.289	86.375	196.289	86.1298	196.289	86.0738	196.289	85.8933	196.289	86.0158	196.289	85.9084	196.289	86.2033	196.289	86.1652	196.289	86.5917	196.289	86.6093	196.289	87.1038	196.289	87.1583	196.289	87.6534	196.289	87.7249	196.289	88.1631	196.289	88.2338	196.289	88.573	196.289	88.6285	196.289	88.8417	196.289	88.872	196.289	88.9446
203.613	90.2031	203.613	90.1447	203.613	90.0599	203.613	89.8885	203.613	89.7241	203.613	89.4516	203.613	89.2186	203.613	88.8661	203.613	88.5813	203.613	88.1803	203.613	87.8663	203.613	87.46	203.613	87.1442	203.613	86.7859	203.613	86.4981	203.613	86.2463	203.613	86.0135	203.613	85.9206	203.613	85.7621	203.613	85.8579	203.613	85.7806	203.613	86.0584	203.613	86.056	203.613	86.4713	203.613	86.5273	203.613	87.013	203.613	87.1052	203.613	87.5918	203.613	87.6975	203.613	88.1273	203.613	88.2261	203.613	88.558	203.613	88.6334	203.613	88.8416	203.613	88.8822	203.613	88.9531
210.938	90.2145	210.938	90.1535	210.938	90.0637	210.938	89.8848	210.938	89.7102	210.938	89.4261	210.938	89.1772	210.938	88.8104	210.938	88.5037	210.938	88.0879	210.938	87.7464	210.938	87.3275	210.938	86.9802	210.938	86.6154	210.938	86.2952	210.938	86.0476	210.938	85.7861	210.938	85.7122	210.938	85.5326	210.938	85.6648	210.938	85.5749	210.938	85.9049	210.938	85.8952	210.938	86.3735	210.938	86.4225	210.938	86.9749	210.938	87.0571	210.938	87.6075	210.938	87.6996	210.938	88.1849	210.938	88.2688	210.938	88.6436	210.938	88.7064	210.938	88.9417	210.938	88.975	210.938	89.0551
218.262	90.0553	218.262	89.9964	218.262	89.889	218.262	89.7172	218.262	89.5063	218.262	89.2371	218.262	88.9306	218.262	88.5913	218.262	88.2027	218.262	87.8335	218.262	87.3829	218.262	87.0376	218.262	86.5532	218.262	86.2965	218.262	85.8144	218.262	85.7141	218.262	85.2752	218.262	85.3856	218.262	85.0286	218.262	85.3697	218.262	85.1202	218.262	85.6632	218.262	85.5259	218.262	86.199	218.262	86.1578	218.262	86.8715	218.262	86.8978	218.262	87.5709	218.262	87.6335	218.262	88.2051	218.262	88.2766	218.262	88.707	218.262	88.7664	218.262	89.0324	218.262	89.0655	218.262	89.1554
225.586	90.1628	225.586	90.105	225.586	89.9821	225.586	89.814	225.586	89.5715	225.586	89.3098	225.586	88.9547	225.586	88.6286	225.586	88.1728	225.586	87.8258	225.586	87.2878	225.586	86.9785	225.586	86.3846	225.586	86.1846	225.586	85.5702	225.586	85.5552	225.586	84.9637	225.586	85.1945	225.586	84.672	225.586	85.1683	225.586	84.7536	225.586	85.4746	225.586	85.1867	225.586	86.0405	225.586	85.8738	225.586	86.7514	225.586	86.6815	225.586	87.4893	225.586	87.4836	225.586	88.1568	225.586	88.1835	225.586	88.6833	225.586	88.7164	225.586	89.0223	225.586	89.0434	225.586	89.1463
232.91	90.1897	232.91	90.1161	232.91	90.0089	232.91	89.7933	232.91	89.5825	232.91	89.2408	232.91	88.9343	232.91	88.4953	232.91	88.1053	232.91	87.6145	232.91	87.1574	232.91	86.6803	232.91	86.1776	232.91	85.8002	232.91	85.2771	232.91	85.099	232.91	84.5836	232.91	84.6957	232.91	84.218	232.91	84.664	232.91	84.2535	232.91	84.9979	232.91	84.6771	232.91	85.6112	232.91	85.3877	232.91	86.3749	232.91	86.24	232.91	87.161	232.91	87.0946	232.91	87.8672	232.91	87.8449	232.91	88.4202	232.91	88.4195	232.91	88.7721	232.91	88.7763	232.91	88.8949
241.699	90.0112	241.699	89.9365	241.699	89.8117	241.699	89.5925	241.699	89.3474	241.699	88.9983	241.699	88.6427	241.699	88.1907	241.699	87.7406	241.699	87.2283	241.699	86.7069	241.699	86.1975	241.699	85.6352	241.699	85.2152	241.699	84.6474	241.699	84.4241	241.699	83.8849	241.699	83.9658	241.699	83.482	241.699	83.931	241.699	83.52	241.699	84.3116	241.699	83.9832	241.699	85.0007	241.699	84.7576	241.699	85.8458	241.699	85.6822	241.699	86.7033	241.699	86.6057	241.699	87.4642	241.699	87.4142	241.699	88.054	241.699	88.0333	241.699	88.4255	241.699	88.4192	241.699	88.5511
250.488	89.9888	250.488	89.9175	250.488	89.7679	250.488	89.558	250.488	89.2636	250.488	88.928	250.488	88.4992	250.488	88.0615	250.488	87.5164	250.488	87.0147	250.488	86.3809	250.488	85.8727	250.488	85.1896	250.488	84.7566	250.488	84.0741	250.488	83.8225	250.488	83.1957	250.488	83.24	250.488	82.7169	250.488	83.1356	250.488	82.7438	250.488	83.5226	250.488	83.2612	250.488	84.2836	250.488	84.1297	250.488	85.2341	250.488	85.157	250.488	86.2001	250.488	86.1716	250.488	87.0541	250.488	87.0519	250.488	87.7134	250.488	87.7211	250.488	88.1285	250.488	88.1352	250.488	88.2726
259.277	89.9775	259.277	89.9129	259.277	89.7384	259.277	89.5499	259.277	89.2038	259.277	88.9076	259.277	88.3969	259.277	88.0227	259.277	87.3604	259.277	86.9547	259.277	86.1625	259.277	85.7929	259.277	84.9049	259.277	84.6626	259.277	83.7262	259.277	83.7232	259.277	82.7942	259.277	83.1459	259.277	82.2781	259.277	83.0576	259.277	82.2912	259.277	83.4701	259.277	82.8252	259.277	84.2614	259.277	83.7403	259.277	85.2398	259.277	84.8347	259.277	86.2257	259.277	85.9247	259.277	87.0883	259.277	86.8783	259.277	87.7442	259.277	87.6126	259.277	88.1434	259.277	88.0804	259.277	88.259
268.066	89.8537	268.066	89.7527	268.066	89.6269	268.066	89.3311	268.066	89.0789	268.066	88.6108	268.066	88.2325	268.066	87.6311	268.066	87.1319	268.066	86.4545	268.066	85.8504	268.066	85.1746	268.066	84.4996	268.066	83.9247	268.066	83.2342	268.066	82.8783	268.066	82.2436	268.066	82.2278	268.066	81.7163	268.066	82.122	268.066	81.7699	268.066	82.5793	268.066	82.3746	268.066	83.4612	268.066	83.3586	268.066	84.5498	268.066	84.5018	268.066	85.6443	268.066	85.6198	268.066	86.6017	268.066	86.5865	268.066	87.3332	268.066	87.3232	268.066	87.788	268.066	87.7828	268.066	87.9404
276.855	90.0474	276.855	89.9625	276.855	89.798	276.855	89.5464	276.855	89.2237	276.855	88.8153	276.855	88.3473	276.855	87.8035	276.855	87.2094	276.855	86.5704	276.855	85.8739	276.855	85.2121	276.855	84.4367	276.855	83.8724	276.855	83.0322	276.855	82.7439	276.855	81.8402	276.855	82.0377	276.855	81.0805	276.855	81.9066	276.855	80.957	276.855	82.3567	276.855	81.519	276.855	83.2347	276.855	82.5827	276.855	84.3157	276.855	83.8548	276.855	85.3983	276.855	85.0927	276.855	86.3411	276.855	86.1485	276.855	87.0562	276.855	86.9442	276.855	87.4932	276.855	87.4418	276.855	87.6254
287.109	89.7005	287.109	89.5662	287.109	89.4701	287.109	89.0729	287.109	88.8847	287.109	88.2422	287.109	87.9715	287.109	87.1159	287.109	86.7803	287.109	85.7631	287.109	85.392	287.109	84.2924	287.109	83.9293	287.109	82.8646	287.109	82.5614	287.109	81.6979	287.109	81.492	287.109	81.0393	287.109	80.9203	287.109	81.0658	287.109	80.9758	287.109	81.7582	287.109	81.6471	287.109	82.8979	287.109	82.7645	287.109	84.2082	287.109	84.08	287.109	85.4708	287.109	85.3702	287.109	86.5473	287.109	86.4805	287.109	87.3575	287.109	87.3199	287.109	87.8566	287.109	87.8403	287.109	88.0206
297.363	89.8488	297.363	89.7192	297.363	89.5893	297.363	89.2054	297.363	88.9475	297.363	88.3255	297.363	87.9449	297.363	87.1139	297.363	86.6236	297.363	85.6296	297.363	85.0566	297.363	83.9712	297.363	83.3642	297.363	82.3001	297.363	81.7315	297.363	80.8655	297.363	80.4184	297.363	79.9924	297.363	79.7288	297.363	79.9531	297.363	79.8799	297.363	80.7486	297.363	80.8151	297.363	82.0857	297.363	82.2225	297.363	83.6053	297.363	83.7605	297.363	85.0479	297.363	85.1929	297.363	86.2651	297.363	86.3851	297.363	87.1791	297.363	87.2648	297.363	87.7499	297.363	87.7946	297.363	87.9575
307.617	89.8885	307.617	89.7268	307.617	89.6447	307.617	89.1614	307.617	89.0043	307.617	88.2052	307.617	87.9879	307.617	86.8875	307.617	86.6329	307.617	85.2632	307.617	85.0037	307.617	83.4303	307.617	83.2079	307.617	81.5557	307.617	81.4141	307.617	79.9009	307.617	79.861	307.617	78.8141	307.617	78.8481	307.617	78.6162	307.617	78.6751	307.617	79.366	307.617	79.4421	307.617	80.7703	307.617	80.8817	307.617	82.4161	307.617	82.5599	307.617	83.9942	307.617	84.1477	307.617	85.3296	307.617	85.4677	307.617	86.3332	307.617	86.4361	307.617	86.9609	307.617	87.0155	307.617	87.1911
319.336	89.1835	319.336	88.9978	319.336	88.9289	319.336	88.3718	319.336	88.2438	319.336	87.3174	319.336	87.1505	319.336	85.8631	319.336	85.69	319.336	84.0667	319.336	83.935	319.336	82.0368	319.336	82.0112	319.336	79.9697	319.336	80.117	319.336	78.1898	319.336	78.5267	319.336	77.1388	319.336	77.5657	319.336	77.1834	319.336	77.5372	319.336	78.2848	319.336	78.5086	319.336	80.0077	319.336	80.1563	319.336	81.8894	319.336	82.0132	319.336	83.6343	319.336	83.7461	319.336	85.0865	319.336	85.1806	319.336	86.1669	319.336	86.2348	319.336	86.8355	319.336	86.8709	319.336	87.0724
329.59	89.2129	329.59	89.0411	329.59	88.9294	329.59	88.4148	329.59	88.1983	329.59	87.3432	329.59	87.0397	329.59	85.8458	329.59	85.4945	329.59	83.9615	329.59	83.6397	329.59	81.7667	329.59	81.6108	329.59	79.4143	329.59	79.6241	329.59	77.201	329.59	77.9729	329.59	75.6467	329.59	76.9834	329.59	75.3924	329.59	76.9284	329.59	76.5842	329.59	77.8551	329.59	78.5992	329.59	79.4635	329.59	80.7568	329.59	81.3091	329.59	82.6981	329.59	83.0546	329.59	84.2779	329.59	84.5109	329.59	85.439	329.59	85.5837	329.59	86.157	329.59	86.2272	329.59	86.4206
341.309	89.0639	341.309	88.8757	341.309	88.7597	341.309	88.1997	341.309	87.9662	341.309	87.0488	341.309	86.6957	341.309	85.4495	341.309	84.9774	341.309	83.4528	341.309	82.8743	341.309	81.1588	341.309	80.5184	341.309	78.7583	341.309	78.1618	341.309	76.5875	341.309	76.212	341.309	75.1436	341.309	75.1798	341.309	74.9482	341.309	75.4517	341.309	76.1239	341.309	76.9047	341.309	78.156	341.309	78.9554	341.309	80.3891	341.309	81.0702	341.309	82.4278	341.309	82.9585	341.309	84.0993	341.309	84.4859	341.309	85.3357	341.309	85.589	341.309	86.11	341.309	86.2357	341.309	86.4109
353.027	89.2967	353.027	89.0915	353.027	88.9825	353.027	88.3685	353.027	88.154	353.027	87.136	353.027	86.8261	353.027	85.412	353.027	85.0318	353.027	83.2326	353.027	82.8393	353.027	80.6745	353.027	80.3846	353.027	77.9018	353.027	77.9069	353.027	75.2496	353.027	75.7496	353.027	73.3213	353.027	74.3413	353.027	72.9226	353.027	74.2221	353.027	74.3377	353.027	75.6102	353.027	76.7821	353.027	77.8635	353.027	79.3608	353.027	80.2072	353.027	81.6394	353.027	82.2614	353.027	83.4675	353.027	83.8952	353.027	84.7995	353.027	85.0647	353.027	85.6237	353.027	85.75	353.027	85.9391
366.211	89.2332	366.211	88.9849	366.211	88.9158	366.211	88.1664	366.211	88.0404	366.211	86.776	366.211	86.6205	366.211	84.8189	366.211	84.6816	366.211	82.3174	366.211	82.2771	366.211	79.3435	366.211	79.5237	366.211	76.0986	366.211	76.6664	366.211	73.0769	366.211	74.1553	366.211	71.214	366.211	72.6729	366.211	71.4391	366.211	72.9112	366.211	73.4818	366.211	74.7681	366.211	76.2066	366.211	77.2999	366.211	78.8525	366.211	79.7668	366.211	81.1271	366.211	81.8654	366.211	82.9396	366.211	83.4998	366.211	84.2658	366.211	84.6434	366.211	85.1004	366.211	85.2908	366.211	85.4425
379.395	89.1694	379.395	88.9287	379.395	88.8202	379.395	88.0954	379.395	87.8827	379.395	86.6642	379.395	86.3591	379.395	84.6253	379.395	84.2551	379.395	81.9648	379.395	81.5922	379.395	78.6772	379.395	78.444	379.395	74.8219	379.395	75.0222	379.395	70.7239	379.395	71.7962	379.395	67.6001	379.395	69.5687	379.395	67.9221	379.395	69.6231	379.395	71.2844	379.395	72.258	379.395	75.0771	379.395	75.6924	379.395	78.3662	379.395	78.8	379.395	81.0191	379.395	81.3305	379.395	83.0533	379.395	83.2693	379.395	84.4974	379.395	84.6339	379.395	85.3702	379.395	85.4364	379.395	85.6819
392.578	88.8945	392.578	88.6741	392.578	88.5014	392.578	87.8352	392.578	87.4945	392.578	86.3655	392.578	85.8685	392.578	84.2416	392.578	83.6131	392.578	81.4229	392.578	80.7217	392.578	77.8482	392.578	77.2262	392.578	73.4602	392.578	73.3102	392.578	68.3718	392.578	69.5262	392.578	63.6603	392.578	66.9237	392.578	63.3298	392.578	67.1889	392.578	67.83	392.578	70.519	392.578	72.6051	392.578	74.443	392.578	76.5117	392.578	77.8076	392.578	79.5625	392.578	80.4723	392.578	81.865	392.578	82.4795	392.578	83.4934	392.578	83.8716	392.578	84.4897	392.578	84.6694	392.578	84.8773
405.762	88.8316	405.762	88.549	405.762	88.4419	405.762	87.5853	405.762	87.3773	405.762	85.9193	405.762	85.623	405.762	83.5116	405.762	83.1485	405.762	80.2947	405.762	79.9052	405.762	76.1612	405.762	75.8418	405.762	70.9877	405.762	71.0068	405.762	64.9662	405.762	65.9172	405.762	60.4916	405.762	62.2715	405.762	62.3956	405.762	63.7959	405.762	67.6319	405.762	68.9621	405.762	72.4686	405.762	73.6747	405.762	76.342	405.762	77.3873	405.762	79.3597	405.762	80.2377	405.762	81.651	405.762	82.3462	405.762	83.2938	405.762	83.7802	405.762	84.3243	405.762	84.5755	405.762	84.7528
420.41	89.3161	420.41	89.0209	420.41	88.8678	420.41	87.9735	420.41	87.6629	420.41	86.1394	420.41	85.6602	420.41	83.4412	420.41	82.7703	420.41	79.7137	420.41	78.8029	420.41	74.5759	420.41	73.3202	420.41	67.0119	420.41	65.0613	420.41	57.3639	420.41	47.8675	420.41	61.7915	420.41	55.3076	420.41	65.0351	420.41	61.0517	420.41	68.537	420.41	67.5835	420.41	72.6954	420.41	72.7981	420.41	76.4309	420.41	76.6785	420.41	79.4109	420.41	79.5946	420.41	81.6531	420.41	81.7608	420.41	83.2178	420.41	83.2741	420.41	84.1469	420.41	84.171	420.41	84.4619
435.059	89.0351	435.059	88.6668	435.059	88.5929	435.059	87.4671	435.059	87.3244	435.059	85.3688	435.059	85.1666	435.059	82.2181	435.059	81.9643	435.059	77.6628	435.059	77.3259	435.059	70.8916	435.059	70.0045	435.059	64.1749	435.059	54.3231	435.059	67.682	435.059	64.3238	435.059	69.6324	435.059	67.1692	435.059	69.7122	435.059	66.9478	435.059	69.5407	435.059	67.3024	435.059	71.4253	435.059	71.241	435.059	74.9164	435.059	75.5397	435.059	78.1697	435.059	78.8236	435.059	80.6754	435.059	81.1722	435.059	82.4273	435.059	82.7442	435.059	83.4807	435.059	83.6323	435.059	83.876
451.172	89.6111	451.172	89.247	451.172	89.0636	451.172	87.9396	451.172	87.5615	451.172	85.5592	451.172	84.9537	451.172	81.764	451.172	80.8365	451.172	75.497	451.172	73.8541	451.172	61.1591	451.172	52.0103	451.172	69.2786	451.172	69.8348	451.172	73.71	451.172	73.5778	451.172	74.834	451.172	74.3243	451.172	74.4297	451.172	73.582	451.172	73.2076	451.172	72.167	451.172	72.4276	451.172	71.9808	451.172	73.8156	451.172	74.3146	451.172	76.4937	451.172	77.2206	451.172	78.9282	451.172	79.5372	451.172	80.7025	451.172	81.1172	451.172	81.7912	451.172	81.999	451.172	82.2195
465.82	89.612	465.82	89.2254	465.82	89.0003	465.82	87.7935	465.82	87.3327	465.82	85.1277	465.82	84.3916	465.82	80.6821	465.82	79.5199	465.82	72.2482	465.82	69.7686	465.82	62.4375	465.82	66.7906	465.82	73.9832	465.82	74.8454	465.82	77.0119	465.82	77.3466	465.82	77.8779	465.82	77.9277	465.82	77.5255	465.82	77.2392	465.82	76.1622	465.82	75.2865	465.82	74.0204	465.82	72.111	465.82	73.2451	465.82	71.6501	465.82	76.1541	465.82	76.0587	465.82	79.5309	465.82	79.76	465.82	81.9246	465.82	82.1286	465.82	83.3189	465.82	83.4276	465.82	83.8089
483.398	89.5414	483.398	89.2103	483.398	88.8262	483.398	87.7895	483.398	86.9861	483.398	85.0749	483.398	83.7434	483.398	80.4547	483.398	78.2554	483.398	71.6242	483.398	68.4314	483.398	69.505	483.398	73.0365	483.398	76.4437	483.398	77.6546	483.398	79.0098	483.398	79.462	483.398	79.8314	483.398	79.8368	483.398	79.5669	483.398	79.1021	483.398	78.3066	483.398	77.0833	483.398	75.8511	483.398	73.0964	483.398	72.7724	483.398	69.5079	483.398	74.4479	483.398	75.3428	483.398	78.8554	483.398	80.0107	483.398	81.9816	483.398	82.7495	483.398	83.7917	483.398	84.1644	483.398	84.4941
499.512	89.5712	499.512	89.1431	499.512	88.9358	499.512	87.5993	499.512	87.162	499.512	84.7179	499.512	83.9777	499.512	79.8514	499.512	78.5989	499.512	70.9357	499.512	69.9313	499.512	70.963	499.512	73.7849	499.512	76.6029	499.512	77.9696	499.512	78.8209	499.512	79.6192	499.512	79.5202	499.512	79.925	499.512	79.2408	499.512	79.2164	499.512	77.973	499.512	77.3184	499.512	75.2306	499.512	73.323	499.512	70.4333	499.512	67.0912	499.512	72.4509	499.512	74.2958	499.512	78.446	499.512	79.8843	499.512	82.1075	499.512	82.9828	499.512	84.1354	499.512	84.5521	499.512	84.9132
517.09	88.8627	517.09	88.4194	517.09	88.1403	517.09	86.7462	517.09	86.1554	517.09	83.5539	517.09	82.5426	517.09	77.8961	517.09	76.1113	517.09	65.9272	517.09	67.1229	517.09	72.473	517.09	74.7308	517.09	77.3349	517.09	78.3179	517.09	79.175	517.09	79.713	517.09	79.6901	517.09	79.9788	517.09	79.3414	517.09	79.3828	517.09	78.145	517.09	77.7695	517.09	75.7117	517.09	74.4293	517.09	71.0177	517.09	67.6488	517.09	68.9327	517.09	71.0678	517.09	75.8915	517.09	77.7595	517.09	80.2554	517.09	81.3233	517.09	82.6093	517.09	83.0999	517.09	83.5043
536.133	88.5418	536.133	88.0956	536.133	87.7047	536.133	86.3132	536.133	85.4507	536.133	82.8873	536.133	81.3203	536.133	76.8001	536.133	73.9192	536.133	66.9548	536.133	69.4659	536.133	73.5811	536.133	75.4518	536.133	77.3232	536.133	77.8779	536.133	78.7334	536.133	78.6358	536.133	79.09	536.133	78.575	536.133	78.7872	536.133	77.9833	536.133	77.7454	536.133	76.7147	536.133	75.3701	536.133	73.9639	536.133	70.0201	536.133	66.706	536.133	68.5284	536.133	68.0215	536.133	76.7024	536.133	77.1001	536.133	81.0787	536.133	81.3624	536.133	83.3375	536.133	83.4842	536.133	84.0936
555.176	88.472	555.176	87.9914	555.176	87.5967	555.176	86.0752	555.176	85.2185	555.176	82.3208	555.176	80.7635	555.176	75.2713	555.176	72.2072	555.176	65.8609	555.176	70.9131	555.176	74.6855	555.176	76.9801	555.176	77.8294	555.176	79.256	555.176	78.8841	555.176	79.9607	555.176	79.0366	555.176	79.8321	555.176	78.7132	555.176	79.1003	555.176	77.9097	555.176	77.6067	555.176	76.1739	555.176	74.5551	555.176	72.4912	555.176	66.9987	555.176	69.3744	555.176	69.6218	555.176	75.9909	555.176	77.8905	555.176	80.7623	555.176	81.9015	555.176	83.3305	555.176	83.8584	555.176	84.302
574.219	87.8727	574.219	87.3711	574.219	86.8751	574.219	85.2768	574.219	84.1702	574.219	81.0451	574.219	78.9355	574.219	72.2861	574.219	68.7546	574.219	68.1254	574.219	73.3777	574.219	76.0277	574.219	77.8094	574.219	78.4788	574.219	79.3363	574.219	79.1422	574.219	79.6317	574.219	79.001	574.219	79.3479	574.219	78.4809	574.219	78.7349	574.219	77.6517	574.219	77.6342	574.219	76.1351	574.219	75.2852	574.219	72.9482	574.219	69.5136	574.219	68.4676	574.219	68.33	574.219	74.3965	574.219	77.2366	574.219	79.8007	574.219	81.5358	574.219	82.7261	574.219	83.5437	574.219	83.9011
594.727	88.3286	594.727	87.7778	594.727	87.3398	594.727	85.5934	594.727	84.6408	594.727	81.2872	594.727	79.6303	594.727	73.3449	594.727	71.9955	594.727	70.9135	594.727	74.1137	594.727	76.2157	594.727	77.5208	594.727	78.1195	594.727	78.6767	594.727	78.5409	594.727	78.766	594.727	78.3503	594.727	78.4582	594.727	77.9536	594.727	78.0805	594.727	77.4039	594.727	77.5467	594.727	76.3679	594.727	76.3325	594.727	74.0513	594.727	73.4006	594.727	69.1071	594.727	67.3569	594.727	69.6465	594.727	71.7801	594.727	76.2464	594.727	77.6735	594.727	79.7247	594.727	80.3943	594.727	80.9992
615.234	88.5166	615.234	87.9901	615.234	87.3893	615.234	85.7003	615.234	84.3615	615.234	80.9834	615.234	78.3804	615.234	70.4586	615.234	66.7321	615.234	70.3986	615.234	74.4772	615.234	76.7241	615.234	77.9594	615.234	78.3177	615.234	78.6495	615.234	78.2358	615.234	78.0934	615.234	77.5161	615.234	77.1163	615.234	76.8788	615.234	76.3511	615.234	76.5645	615.234	75.7995	615.234	75.9164	615.234	74.5962	615.234	73.5382	615.234	71.0031	615.234	65.5267	615.234	53.1791	615.234	68.5171	615.234	71.48	615.234	77.0783	615.234	78.1548	615.234	80.6428	615.234	81.077	615.234	81.8254
637.207	87.4305	637.207	86.8167	637.207	86.1853	637.207	84.1606	637.207	82.7572	637.207	78.3748	637.207	75.5825	637.207	62.5424	637.207	68.3987	637.207	73.9591	637.207	76.4547	637.207	77.9849	637.207	79.0648	637.207	78.9455	637.207	79.5748	637.207	78.6585	637.207	79.1395	637.207	77.8632	637.207	78.4287	637.207	77.0578	637.207	77.8589	637.207	76.4931	637.207	77.3151	637.207	75.8472	637.207	76.0321	637.207	74.1313	637.207	72.4284	637.207	69.5578	637.207	61.6368	637.207	67.9219	637.207	72.6001	637.207	75.7637	637.207	78.6127	637.207	79.8185	637.207	81.0938	637.207	81.4304
659.18	87.1414	659.18	86.3279	659.18	85.9077	659.18	83.2373	659.18	82.2598	659.18	76.4426	659.18	74.2853	659.18	62.2452	659.18	68.1915	659.18	74.6053	659.18	76.0752	659.18	77.5945	659.18	78.2553	659.18	78.133	659.18	78.4503	659.18	77.7176	659.18	77.6756	659.18	77.0777	659.18	76.5169	659.18	76.6421	659.18	75.5874	659.18	76.4243	659.18	75.1293	659.18	75.9674	659.18	74.4654	659.18	74.3545	659.18	72.2177	659.18	69.4222	659.18	65.605	659.18	64.5494	659.18	69.8614	659.18	75.386	659.18	77.2474	659.18	79.8433	659.18	80.5498	659.18	81.3419
682.617	86.8516	682.617	86.0631	682.617	85.3778	682.617	82.6962	682.617	81.1663	682.617	74.6845	682.617	72.295	682.617	69.1121	682.617	73.9922	682.617	77.0798	682.617	78.6533	682.617	79.049	682.617	79.9088	682.617	78.9781	682.617	79.5281	682.617	78.0161	682.617	78.3089	682.617	76.866	682.617	77.038	682.617	76.147	682.617	76.5491	682.617	76.114	682.617	76.7173	682.617	76.1844	682.617	76.4295	682.617	75.1675	682.617	74.4441	682.617	70.9545	682.617	68.3839	682.617	59.5562	682.617	68.5916	682.617	74.6609	682.617	76.9907	682.617	79.7019	682.617	80.5482	682.617	81.3612
707.52	86.7535	707.52	85.9606	707.52	85.1461	707.52	82.553	707.52	80.7195	707.52	75.9387	707.52	74.231	707.52	74.9499	707.52	77.0171	707.52	78.5027	707.52	79.7575	707.52	79.399	707.52	80.3088	707.52	78.6742	707.52	79.6169	707.52	77.076	707.52	78.1747	707.52	75.5283	707.52	76.476	707.52	75.1267	707.52	75.428	707.52	75.5836	707.52	75.4283	707.52	75.7105	707.52	75.2694	707.52	74.629	707.52	73.3872	707.52	71.2715	707.52	67.0525	707.52	60.9939	707.52	61.1115	707.52	65.8803	707.52	72.6062	707.52	73.4781	707.52	75.9362	707.52	76.116
732.422	89.4537	732.422	88.9933	732.422	87.903	732.422	86.4452	732.422	84.0789	732.422	81.201	732.422	77.977	732.422	72.8027	732.422	76.5329	732.422	75.1903	732.422	78.7867	732.422	77.7956	732.422	79.1766	732.422	77.6441	732.422	78.3681	732.422	75.9812	732.422	77.2175	732.422	73.8816	732.422	76.3295	732.422	72.8098	732.422	75.8584	732.422	73.0428	732.422	75.5154	732.422	73.0746	732.422	74.7916	732.422	71.193	732.422	73.0313	732.422	62.8316	732.422	69.5349	732.422	66.2642	732.422	68.3397	732.422	75.1379	732.422	73.6838	732.422	78.3309	732.422	77.3769	732.422	78.8904
757.324	90.0903	757.324	88.8644	757.324	89.0126	757.324	84.9844	757.324	85.451	757.324	76.5977	757.324	78.7851	757.324	68.8262	757.324	74.3895	757.324	76.3638	757.324	77.0046	757.324	77.6423	757.324	77.0865	757.324	76.846	757.324	75.1622	757.324	75.182	757.324	72.5386	757.324	73.5248	757.324	72.1415	757.324	73.211	757.324	74.3908	757.324	74.5174	757.324	76.5102	757.324	75.5711	757.324	77.5165	757.324	74.7856	757.324	77.1402	757.324	70.3642	757.324	74.7904	757.324	68.9166	757.324	67.4644	757.324	76.8331	757.324	67.7335	757.324	80.0589	757.324	76.927	757.324	80.0873
785.156	89.6222	785.156	88.203	785.156	88.4538	785.156	83.4905	785.156	84.3164	785.156	69.2292	785.156	74.0468	785.156	75.7904	785.156	70.9765	785.156	80.1973	785.156	77.8312	785.156	80.0943	785.156	78.5831	785.156	77.8416	785.156	77.1291	785.156	74.4344	785.156	74.4556	785.156	71.6437	785.156	71.7278	785.156	71.5594	785.156	71.1805	785.156	72.9573	785.156	73.1521	785.156	74.4109	785.156	75.0651	785.156	75.1863	785.156	75.228	785.156	74.4338	785.156	72.25	785.156	71.1197	785.156	60.151	785.156	65.901	785.156	68.6475	785.156	70.6423	785.156	73.8248	785.156	74.0646
811.523	88.663	811.523	87.5273	811.523	86.9575	811.523	82.8913	811.523	81.5393	811.523	68.0299	811.523	59.7292	811.523	75.9598	811.523	77.0446	811.523	80.1857	811.523	80.432	811.523	80.233	811.523	80.0563	811.523	78.2145	811.523	77.5241	811.523	74.577	811.523	73.3631	811.523	70.738	811.523	70.0797	811.523	72.0975	811.523	72.954	811.523	75.4354	811.523	76.4637	811.523	77.6835	811.523	78.2819	811.523	78.5737	811.523	78.1502	811.523	77.561	811.523	75.0209	811.523	72.6302	811.523	62.6683	811.523	61.4441	811.523	73.7667	811.523	76.1844	811.523	79.0502	811.523	79.6585
840.82	86.4244	840.82	85.0915	840.82	84.421	840.82	79.5455	840.82	77.4053	840.82	57.5507	840.82	67.5361	840.82	76.9079	840.82	78.4708	840.82	79.7195	840.82	80.2847	840.82	78.9772	840.82	79.366	840.82	75.9776	840.82	76.7189	840.82	70.9283	840.82	72.2717	840.82	63.9198	840.82	65.4678	840.82	67.0426	840.82	66.9996	840.82	72.6187	840.82	72.7186	840.82	75.658	840.82	75.9351	840.82	76.8236	840.82	76.8999	840.82	75.6926	840.82	74.4378	840.82	69.0384	840.82	59.4637	840.82	69.468	840.82	75.7459	840.82	79.0483	840.82	81.0824	840.82	81.9082
870.117	87.0175	870.117	85.6816	870.117	85.0731	870.117	80.3237	870.117	78.2012	870.117	66.3143	870.117	67.0001	870.117	77.6425	870.117	78.7504	870.117	80.3477	870.117	80.6162	870.117	79.5253	870.117	79.5518	870.117	76.5341	870.117	76.4706	870.117	71.8546	870.117	71.4901	870.117	65.9102	870.117	65.4177	870.117	63.65	870.117	66.4099	870.117	68.3192	870.117	71.2784	870.117	72.7465	870.117	74.6598	870.117	75.1263	870.117	75.9535	870.117	74.4206	870.117	74.0101	870.117	66.537	870.117	61.4116	870.117	70.325	870.117	72.7822	870.117	78.5565	870.117	79.2535	870.117	80.734
900.879	86.0324	900.879	84.8353	900.879	83.5418	900.879	78.9017	900.879	74.9135	900.879	64.7053	900.879	71.9222	900.879	77.7506	900.879	79.3915	900.879	79.7018	900.879	80.2797	900.879	78.4611	900.879	78.4189	900.879	75.1293	900.879	74.6104	900.879	69.634	900.879	68.6118	900.879	58.4874	900.879	57.3152	900.879	61.4558	900.879	65.0387	900.879	70.5831	900.879	71.7977	900.879	74.7167	900.879	75.4476	900.879	76.4404	900.879	76.7312	900.879	75.6669	900.879	74.5793	900.879	69.0264	900.879	59.332	900.879	69.3414	900.879	74.6213	900.879	79.0035	900.879	80.4443	900.879	81.5831
933.105	87.5424	933.105	86.1579	933.105	85.2951	933.105	80.1029	933.105	77.3616	933.105	69.9917	933.105	75.0012	933.105	79.8345	933.105	80.7449	933.105	81.3241	933.105	80.8605	933.105	79.5068	933.105	78.3709	933.105	75.449	933.105	73.8302	933.105	69.2648	933.105	66.7952	933.105	58.8929	933.105	59.2402	933.105	55.8312	933.105	64.7455	933.105	66.9938	933.105	70.9646	933.105	72.1785	933.105	74.9794	933.105	74.6873	933.105	76.2548	933.105	74.2101	933.105	73.8254	933.105	67.3128	933.105	60.5819	933.105	70.9981	933.105	73.0068	933.105	78.6499	933.105	79.016	933.105	80.5828
965.332	85.6718	965.332	84.2981	965.332	83.1664	965.332	78.0923	965.332	73.7391	965.332	66.645	965.332	74.2915	965.332	78.0662	965.332	79.8382	965.332	79.6537	965.332	79.8975	965.332	77.475	965.332	77.1241	965.332	72.1648	965.332	71.0657	965.332	63.1987	965.332	57.8978	965.332	51.6737	965.332	55.6142	965.332	62.0974	965.332	61.9746	965.332	68.0271	965.332	68.6496	965.332	72.2192	965.332	73.5445	965.332	74.6404	965.332	75.4298	965.332	74.562	965.332	73.4232	965.332	69.9335	965.332	61.2617	965.332	59.9002	965.332	71.6657	965.332	74.518	965.332	77.1985	965.332	77.8948
1,000.49	85.7969	1,000.49	84.4255	1,000.49	83.5461	1,000.49	78.3177	1,000.49	75.8286	1,000.49	71.0006	1,000.49	77.6152	1,000.49	79.4273	1,000.49	81.4565	1,000.49	80.5479	1,000.49	80.5721	1,000.49	78.2916	1,000.49	76.9131	1,000.49	73.8716	1,000.49	70.555	1,000.49	67.8829	1,000.49	60.2021	1,000.49	61.7295	1,000.49	61.1262	1,000.49	64.1146	1,000.49	65.653	1,000.49	68.7773	1,000.49	70.8214	1,000.49	73.0726	1,000.49	74.9922	1,000.49	75.515	1,000.49	75.9052	1,000.49	74.6876	1,000.49	71.0807	1,000.49	68.463	1,000.49	64.9032	1,000.49	71.1268	1,000.49	77.0945	1,000.49	78.136	1,000.49	80.6101	1,000.49	80.882
1,035.64	85.9087	1,035.64	84.6122	1,035.64	84.4088	1,035.64	79.4458	1,035.64	78.5373	1,035.64	68.8808	1,035.64	74.6495	1,035.64	79.6584	1,035.64	80.6348	1,035.64	81.3536	1,035.64	80.8612	1,035.64	78.9647	1,035.64	77.3139	1,035.64	73.2963	1,035.64	68.9026	1,035.64	62.3767	1,035.64	62.6917	1,035.64	60.0893	1,035.64	67.9848	1,035.64	64.6133	1,035.64	68.4595	1,035.64	68.976	1,035.64	70.4113	1,035.64	73.5657	1,035.64	74.9971	1,035.64	76.523	1,035.64	76.2569	1,035.64	75.3872	1,035.64	71.3021	1,035.64	67.2347	1,035.64	71.5191	1,035.64	72.6703	1,035.64	77.3731	1,035.64	77.8675	1,035.64	79.2918	1,035.64	79.734
1,072.27	86.6831	1,072.27	85.6937	1,072.27	84.6517	1,072.27	80.8674	1,072.27	77.5914	1,072.27	60.1036	1,072.27	72.9938	1,072.27	80.6147	1,072.27	82.4351	1,072.27	83.5442	1,072.27	83.1359	1,072.27	81.5202	1,072.27	79.3298	1,072.27	74.6599	1,072.27	70.0076	1,072.27	65.5875	1,072.27	72.2437	1,072.27	71.57	1,072.27	74.866	1,072.27	71.7311	1,072.27	73.6082	1,072.27	70.4279	1,072.27	71.46	1,072.27	74.0295	1,072.27	75.2057	1,072.27	76.5879	1,072.27	77.6525	1,072.27	72.4382	1,072.27	70.7465	1,072.27	72.6261	1,072.27	75.0862	1,072.27	78.0944	1,072.27	78.9746	1,072.27	78.4931	1,072.27	79.2704	1,072.27	80.7422
1,108.89	89.8323	1,108.89	88.1739	1,108.89	85.5315	1,108.89	80.621	1,108.89	76.047	1,108.89	76.1824	1,108.89	73.8496	1,108.89	81.4199	1,108.89	82.2601	1,108.89	83.1827	1,108.89	83.5198	1,108.89	79.7346	1,108.89	78.6176	1,108.89	65.9299	1,108.89	72.1251	1,108.89	76.9455	1,108.89	78.7231	1,108.89	79.9855	1,108.89	80.9888	1,108.89	79.0466	1,108.89	80.4216	1,108.89	75.5192	1,108.89	76.5785	1,108.89	72.7547	1,108.89	71.7299	1,108.89	75.5332	1,108.89	74.8271	1,108.89	68.7989	1,108.89	62.7379	1,108.89	76.3583	1,108.89	79.7294	1,108.89	79.1471	1,108.89	78.778	1,108.89	76.02	1,108.89	76.2635	1,108.89	82.8091
1,148.44	90.9237	1,148.44	88.1478	1,148.44	85.7485	1,148.44	74.0178	1,148.44	67.4596	1,148.44	79.7444	1,148.44	79.2058	1,148.44	78.8867	1,148.44	76.8068	1,148.44	77.4638	1,148.44	77.3054	1,148.44	71.1855	1,148.44	71.6602	1,148.44	69.5458	1,148.44	70.893	1,148.44	77.1144	1,148.44	77.8616	1,148.44	78.8237	1,148.44	79.08	1,148.44	77.9436	1,148.44	78.4049	1,148.44	74.8822	1,148.44	75.5605	1,148.44	69.7838	1,148.44	67.5007	1,148.44	72.3206	1,148.44	68.9224	1,148.44	69.4472	1,148.44	67.9874	1,148.44	75.344	1,148.44	78.5741	1,148.44	76.118	1,148.44	73.4244	1,148.44	74.5902	1,148.44	79.5006	1,148.44	83.6174
1,189.45	90.1175	1,189.45	86.8643	1,189.45	85.475	1,189.45	62.636	1,189.45	63.2298	1,189.45	79.6004	1,189.45	78.2217	1,189.45	75.9164	1,189.45	72.3647	1,189.45	67.5444	1,189.45	64.6979	1,189.45	58.0957	1,189.45	59.9036	1,189.45	71.9819	1,189.45	72.9683	1,189.45	75.181	1,189.45	76.2643	1,189.45	76.2714	1,189.45	77.02	1,189.45	76.0913	1,189.45	76.7566	1,189.45	73.7906	1,189.45	73.9395	1,189.45	67.5674	1,189.45	61.0617	1,189.45	65.3256	1,189.45	69.222	1,189.45	67.8436	1,189.45	69.6185	1,189.45	74.0163	1,189.45	74.9137	1,189.45	72.2078	1,189.45	69.6544	1,189.45	75.1535	1,189.45	77.1648	1,189.45	82.2261
1,230.47	89.5953	1,230.47	86.1246	1,230.47	84.6897	1,230.47	58.3653	1,230.47	68.6332	1,230.47	80.481	1,230.47	79.8737	1,230.47	77.005	1,230.47	74.729	1,230.47	65.8581	1,230.47	60.7074	1,230.47	62.4457	1,230.47	66.5394	1,230.47	71.8092	1,230.47	72.5889	1,230.47	74.6316	1,230.47	75.2471	1,230.47	74.2401	1,230.47	75.6131	1,230.47	73.5083	1,230.47	74.4495	1,230.47	71.4769	1,230.47	71.4553	1,230.47	64.1666	1,230.47	60.2253	1,230.47	66.7317	1,230.47	69.3933	1,230.47	70.6551	1,230.47	70.3235	1,230.47	72.879	1,230.47	73.6823	1,230.47	69.3596	1,230.47	62.5928	1,230.47	76.1294	1,230.47	78.9138	1,230.47	82.644
1,274.41	89.779	1,274.41	86.4811	1,274.41	84.4162	1,274.41	66.4941	1,274.41	72.6075	1,274.41	79.9415	1,274.41	80.7046	1,274.41	76.2846	1,274.41	75.1415	1,274.41	66.4852	1,274.41	68.7364	1,274.41	68.109	1,274.41	69.4303	1,274.41	70.8909	1,274.41	71.4115	1,274.41	71.9366	1,274.41	72.5273	1,274.41	70.9005	1,274.41	71.7547	1,274.41	69.8664	1,274.41	71.7251	1,274.41	69.1459	1,274.41	70.5811	1,274.41	64.6457	1,274.41	62.2025	1,274.41	61.369	1,274.41	64.8766	1,274.41	64.9148	1,274.41	68.414	1,274.41	68.146	1,274.41	70.4813	1,274.41	60.1166	1,274.41	56.4887	1,274.41	76.8233	1,274.41	78.035	1,274.41	82.115
1,319.82	89.902	1,319.82	86.6891	1,319.82	84.3115	1,319.82	63.5704	1,319.82	73.7388	1,319.82	79.7074	1,319.82	80.0529	1,319.82	75.949	1,319.82	72.9839	1,319.82	70.8295	1,319.82	65.621	1,319.82	70.7629	1,319.82	66.5252	1,319.82	70.5969	1,319.82	67.731	1,319.82	70.3523	1,319.82	68.1211	1,319.82	67.4489	1,319.82	68.2007	1,319.82	66.504	1,319.82	69.6949	1,319.82	67.4402	1,319.82	69.8823	1,319.82	63.7228	1,319.82	62.6782	1,319.82	61.9981	1,319.82	65.0253	1,319.82	68.671	1,319.82	70.5458	1,319.82	70.3531	1,319.82	72.8818	1,319.82	66.2779	1,319.82	58.3132	1,319.82	75.6876	1,319.82	78.7162	1,319.82	82.2275
1,366.7	89.4914	1,366.7	86.3275	1,366.7	83.6545	1,366.7	58.1434	1,366.7	73.1506	1,366.7	79.9552	1,366.7	78.6896	1,366.7	77.3788	1,366.7	71.8559	1,366.7	75.466	1,366.7	73.0449	1,366.7	74.5199	1,366.7	71.7666	1,366.7	71.2567	1,366.7	67.3582	1,366.7	67.4639	1,366.7	61.1512	1,366.7	64.4468	1,366.7	57.1803	1,366.7	63.3706	1,366.7	58.8727	1,366.7	61.6396	1,366.7	63.176	1,366.7	50.8037	1,366.7	63.1801	1,366.7	62.4623	1,366.7	61.9641	1,366.7	71.506	1,366.7	70.0094	1,366.7	72.1993	1,366.7	72.5853	1,366.7	65.8068	1,366.7	60.379	1,366.7	74.0501	1,366.7	76.7064	1,366.7	80.8772
1,413.57	90.1227	1,413.57	87.1301	1,413.57	84.4158	1,413.57	60.0743	1,413.57	69.6816	1,413.57	79.4387	1,413.57	76.8787	1,413.57	77.8095	1,413.57	72.642	1,413.57	75.937	1,413.57	75.3348	1,413.57	75.1237	1,413.57	74.5563	1,413.57	73.5256	1,413.57	72.8963	1,413.57	71.303	1,413.57	70.1246	1,413.57	68.3379	1,413.57	66.0439	1,413.57	64.449	1,413.57	64.4513	1,413.57	62.6526	1,413.57	65.5673	1,413.57	61.388	1,413.57	65.0044	1,413.57	49.7899	1,413.57	59.8334	1,413.57	68.8877	1,413.57	70.534	1,413.57	71.9139	1,413.57	73.5802	1,413.57	64.9019	1,413.57	59.0481	1,413.57	75.3221	1,413.57	77.4314	1,413.57	81.2439
1,463.38	89.458	1,463.38	86.1482	1,463.38	83.0501	1,463.38	62.1506	1,463.38	72.4196	1,463.38	78.5031	1,463.38	76.3819	1,463.38	74.5515	1,463.38	73.2439	1,463.38	73.8201	1,463.38	75.4369	1,463.38	73.1095	1,463.38	73.1774	1,463.38	69.6646	1,463.38	70.1489	1,463.38	68.6098	1,463.38	63.9364	1,463.38	67.5993	1,463.38	50.415	1,463.38	65.4908	1,463.38	55.5331	1,463.38	63.04	1,463.38	62.5497	1,463.38	61.9892	1,463.38	67.242	1,463.38	60.0141	1,463.38	62.7247	1,463.38	54.0744	1,463.38	63.984	1,463.38	68.7122	1,463.38	71.8979	1,463.38	65.791	1,463.38	63.7747	1,463.38	73.649	1,463.38	74.9839	1,463.38	79.6551
1,516.11	89.1166	1,516.11	85.3091	1,516.11	83.0005	1,516.11	68.4404	1,516.11	71.0353	1,516.11	78.2316	1,516.11	77.8721	1,516.11	73.9228	1,516.11	78.5136	1,516.11	73.4741	1,516.11	78.7152	1,516.11	74.025	1,516.11	76.9374	1,516.11	75.9347	1,516.11	75.4569	1,516.11	74.1315	1,516.11	74.2738	1,516.11	72.4271	1,516.11	71.2656	1,516.11	73.4308	1,516.11	64.6409	1,516.11	73.1452	1,516.11	67.7271	1,516.11	70.9346	1,516.11	70.05	1,516.11	69.8682	1,516.11	69.4588	1,516.11	70.9496	1,516.11	65.6014	1,516.11	66.1804	1,516.11	65.9498	1,516.11	57.7691	1,516.11	56.9806	1,516.11	76.3569	1,516.11	77.4862	1,516.11	81.8165
1,568.85	87.8001	1,568.85	83.5185	1,568.85	82.1127	1,568.85	72.8622	1,568.85	72.2403	1,568.85	78.5758	1,568.85	78.9031	1,568.85	74.1309	1,568.85	79.039	1,568.85	73.9878	1,568.85	78.4203	1,568.85	71.3871	1,568.85	74.6103	1,568.85	73.1889	1,568.85	74.7634	1,568.85	72.1411	1,568.85	72.9716	1,568.85	64.6497	1,568.85	69.1282	1,568.85	69.2861	1,568.85	62.343	1,568.85	72.0514	1,568.85	64.7885	1,568.85	71.659	1,568.85	69.7611	1,568.85	71.6173	1,568.85	71.4296	1,568.85	72.9361	1,568.85	65.7537	1,568.85	72.8734	1,568.85	64.4313	1,568.85	68.1563	1,568.85	60.6587	1,568.85	75.0623	1,568.85	74.6537	1,568.85	80.4464
1,624.51	87.5322	1,624.51	82.6918	1,624.51	81.6355	1,624.51	72.3166	1,624.51	72.7843	1,624.51	77.1243	1,624.51	75.7356	1,624.51	73.3	1,624.51	78.5172	1,624.51	74.6765	1,624.51	78.7752	1,624.51	70.2376	1,624.51	74.9236	1,624.51	72.8428	1,624.51	74.504	1,624.51	73.713	1,624.51	75.2848	1,624.51	70.6509	1,624.51	73.2307	1,624.51	69.1099	1,624.51	72.2543	1,624.51	70.1143	1,624.51	73.3726	1,624.51	71.907	1,624.51	73.2926	1,624.51	70.9702	1,624.51	74.0185	1,624.51	71.2432	1,624.51	69.4766	1,624.51	71.6441	1,624.51	61.3125	1,624.51	68.0671	1,624.51	47.7095	1,624.51	74.4832	1,624.51	74.3753	1,624.51	79.8026
1,681.64	88.3542	1,681.64	82.3608	1,681.64	81.9071	1,681.64	76.3855	1,681.64	76.9175	1,681.64	76.7828	1,681.64	76.1672	1,681.64	76.0667	1,681.64	80.8861	1,681.64	78.168	1,681.64	82.6563	1,681.64	74.7661	1,681.64	79.1319	1,681.64	77.024	1,681.64	77.7979	1,681.64	76.619	1,681.64	79.1805	1,681.64	74.2894	1,681.64	78.7753	1,681.64	71.6021	1,681.64	77.6794	1,681.64	73.036	1,681.64	76.6133	1,681.64	74.0418	1,681.64	76.5362	1,681.64	74.9692	1,681.64	77.1855	1,681.64	74.9307	1,681.64	73.2849	1,681.64	75.3688	1,681.64	69.5591	1,681.64	75.1258	1,681.64	67.6062	1,681.64	78.1914	1,681.64	77.5673	1,681.64	80.6577
1,741.7	88.7637	1,741.7	83.4959	1,741.7	78.5837	1,741.7	74.1807	1,741.7	78.3427	1,741.7	70.8596	1,741.7	78.8669	1,741.7	70.8964	1,741.7	82.1583	1,741.7	72.9611	1,741.7	82.1688	1,741.7	70.8385	1,741.7	79.9975	1,741.7	71.1396	1,741.7	75.5401	1,741.7	71.6719	1,741.7	76.5531	1,741.7	68.6992	1,741.7	77.0853	1,741.7	69.8353	1,741.7	76.8141	1,741.7	74.1633	1,741.7	77.7444	1,741.7	74.7274	1,741.7	77.7637	1,741.7	76.1858	1,741.7	74.7546	1,741.7	76.97	1,741.7	69.2992	1,741.7	75.4078	1,741.7	61.9752	1,741.7	76.6374	1,741.7	70.2615	1,741.7	78.2158	1,741.7	74.9646	1,741.7	78.8252
1,803.22	88.5713	1,803.22	84.3939	1,803.22	76.892	1,803.22	66.8445	1,803.22	77.9285	1,803.22	59.7648	1,803.22	80.5825	1,803.22	74.7376	1,803.22	82.829	1,803.22	69.5175	1,803.22	82.1769	1,803.22	55.3662	1,803.22	80.2068	1,803.22	67.0277	1,803.22	76.8	1,803.22	57.8588	1,803.22	73.1334	1,803.22	58.0989	1,803.22	68.7523	1,803.22	54.8038	1,803.22	68.1869	1,803.22	64.9099	1,803.22	74.1068	1,803.22	70.3845	1,803.22	75.4432	1,803.22	72.0824	1,803.22	73.1866	1,803.22	72.8635	1,803.22	68.2572	1,803.22	74.5757	1,803.22	69.6265	1,803.22	76.3144	1,803.22	74.382	1,803.22	76.8552	1,803.22	75.588	1,803.22	79.1501
1,866.21	88.9912	1,866.21	85.2449	1,866.21	79.1521	1,866.21	73.0593	1,866.21	75.7982	1,866.21	78.2671	1,866.21	80.2035	1,866.21	80.3134	1,866.21	81.1378	1,866.21	78.2262	1,866.21	80.4454	1,866.21	71.9757	1,866.21	79.2298	1,866.21	64.5963	1,866.21	77.055	1,866.21	71.0855	1,866.21	77.0064	1,866.21	73.5031	1,866.21	74.466	1,866.21	68.8719	1,866.21	71.9693	1,866.21	69.0188	1,866.21	64.1042	1,866.21	71.597	1,866.21	64.9147	1,866.21	71.7309	1,866.21	63.9695	1,866.21	71.2431	1,866.21	55.6155	1,866.21	73.0962	1,866.21	71.0391	1,866.21	73.5654	1,866.21	73.2038	1,866.21	74.0188	1,866.21	72.6442	1,866.21	78.0511
1,932.13	88.6646	1,932.13	82.5841	1,932.13	79.1172	1,932.13	79.0363	1,932.13	76.818	1,932.13	81.5233	1,932.13	80.4865	1,932.13	81.3672	1,932.13	79.9979	1,932.13	79.7452	1,932.13	78.7758	1,932.13	76.1828	1,932.13	74.7747	1,932.13	73.3319	1,932.13	71.4874	1,932.13	76.7217	1,932.13	75.6146	1,932.13	77.0285	1,932.13	75.9909	1,932.13	74.2369	1,932.13	75.3522	1,932.13	73.1998	1,932.13	74.8495	1,932.13	74.0241	1,932.13	75.9297	1,932.13	74.6653	1,932.13	72.2849	1,932.13	73.9003	1,932.13	70.34	1,932.13	73.3053	1,932.13	57.7418	1,932.13	72.4727	1,932.13	68.1959	1,932.13	67.6583	1,932.13	64.9054	1,932.13	73.1048
1,999.51	89.569	1,999.51	81.9439	1,999.51	79.3569	1,999.51	77.5982	1,999.51	77.3699	1,999.51	82.2161	1,999.51	82.5952	1,999.51	80.47	1,999.51	81.0134	1,999.51	80.2913	1,999.51	80.4916	1,999.51	78.2403	1,999.51	77.738	1,999.51	75.0315	1,999.51	75.8574	1,999.51	74.8374	1,999.51	77.6521	1,999.51	75.1247	1,999.51	76.0135	1,999.51	73.1881	1,999.51	73.2038	1,999.51	72.9435	1,999.51	72.2234	1,999.51	73.8466	1,999.51	74.2609	1,999.51	74.1608	1,999.51	72.9093	1,999.51	71.8331	1,999.51	71.9814	1,999.51	69.2049	1,999.51	68.5167	1,999.51	70.193	1,999.51	68.2793	1,999.51	67.7629	1,999.51	69.5803	1,999.51	73.1548
2,069.82	90.262	2,069.82	84.0468	2,069.82	80.9255	2,069.82	75.2811	2,069.82	79.6111	2,069.82	84.0845	2,069.82	84.5272	2,069.82	80.3044	2,069.82	80.5559	2,069.82	80.6905	2,069.82	81.7187	2,069.82	80.2815	2,069.82	79.3972	2,069.82	76.3686	2,069.82	77.2788	2,069.82	76.1402	2,069.82	79.1542	2,069.82	76.7615	2,069.82	78.7225	2,069.82	74.1813	2,069.82	76.3019	2,069.82	71.532	2,069.82	73.5888	2,069.82	74.278	2,069.82	74.8345	2,069.82	73.4756	2,069.82	74.4249	2,069.82	70.78	2,069.82	72.7587	2,069.82	68.5919	2,069.82	67.4479	2,069.82	67.9616	2,069.82	67.1378	2,069.82	71.7153	2,069.82	70.3788	2,069.82	72.6582
2,143.07	89.9156	2,143.07	85.9038	2,143.07	82.1908	2,143.07	78.8825	2,143.07	81.7571	2,143.07	85.1248	2,143.07	85.2342	2,143.07	82.0679	2,143.07	80.1863	2,143.07	81.1988	2,143.07	81.6044	2,143.07	81.6916	2,143.07	79.5656	2,143.07	77.8548	2,143.07	75.8731	2,143.07	76.265	2,143.07	77.7145	2,143.07	77.9906	2,143.07	78.2144	2,143.07	76.2771	2,143.07	76.8142	2,143.07	73.8734	2,143.07	74.0747	2,143.07	71.812	2,143.07	73.456	2,143.07	73.8773	2,143.07	74.3409	2,143.07	69.8082	2,143.07	71.4686	2,143.07	69.9663	2,143.07	69.4753	2,143.07	67.8797	2,143.07	69.9885	2,143.07	72.9884	2,143.07	70.9436	2,143.07	72.2704
2,219.24	89.0054	2,219.24	85.6462	2,219.24	81.6745	2,219.24	82.0924	2,219.24	82.7425	2,219.24	85.1964	2,219.24	85.1215	2,219.24	82.2251	2,219.24	79.0315	2,219.24	80.5823	2,219.24	79.9955	2,219.24	80.3427	2,219.24	79.3637	2,219.24	77.2753	2,219.24	74.6689	2,219.24	75.6808	2,219.24	74.9155	2,219.24	77.2158	2,219.24	76.0147	2,219.24	76.2334	2,219.24	74.9436	2,219.24	75.009	2,219.24	73.9409	2,219.24	75.1454	2,219.24	71.0278	2,219.24	74.1238	2,219.24	71.4831	2,219.24	70.1441	2,219.24	68.1943	2,219.24	70.6152	2,219.24	66.6497	2,219.24	69.4678	2,219.24	71.1384	2,219.24	71.9101	2,219.24	70.7033	2,219.24	71.0428
2,296.88	88.7135	2,296.88	84.2243	2,296.88	81.833	2,296.88	82.9883	2,296.88	83.7704	2,296.88	84.7096	2,296.88	85.2749	2,296.88	80.8343	2,296.88	80.0881	2,296.88	79.8989	2,296.88	80.091	2,296.88	80.4058	2,296.88	81.0323	2,296.88	77.807	2,296.88	76.7279	2,296.88	75.625	2,296.88	73.3096	2,296.88	76.0819	2,296.88	74.2398	2,296.88	75.2165	2,296.88	74.1895	2,296.88	75.2531	2,296.88	73.1519	2,296.88	75.433	2,296.88	73.0454	2,296.88	73.8938	2,296.88	71.873	2,296.88	70.9655	2,296.88	68.2405	2,296.88	67.9777	2,296.88	66.8216	2,296.88	69.825	2,296.88	68.7754	2,296.88	70.2185	2,296.88	66.0489	2,296.88	66.6464
2,378.91	89.4343	2,378.91	83.9783	2,378.91	84.076	2,378.91	83.4558	2,378.91	84.7191	2,378.91	84.4065	2,378.91	85.5768	2,378.91	80.0615	2,378.91	81.5025	2,378.91	80.7418	2,378.91	81.7337	2,378.91	81.9779	2,378.91	82.4266	2,378.91	78.768	2,378.91	79.331	2,378.91	75.1922	2,378.91	76.4837	2,378.91	74.5293	2,378.91	76.5559	2,378.91	73.994	2,378.91	75.1547	2,378.91	72.1678	2,378.91	75.6077	2,378.91	73.3563	2,378.91	74.5118	2,378.91	72.1713	2,378.91	72.0344	2,378.91	69.7924	2,378.91	68.8895	2,378.91	69.1689	2,378.91	68.9729	2,378.91	68.9018	2,378.91	66.7292	2,378.91	67.9458	2,378.91	60.5617	2,378.91	68.6673
2,462.4	90.4053	2,462.4	85.7646	2,462.4	85.4288	2,462.4	85.2166	2,462.4	86.5253	2,462.4	86.4086	2,462.4	85.9841	2,462.4	82.5926	2,462.4	83.1589	2,462.4	83.6192	2,462.4	84.2314	2,462.4	84.5953	2,462.4	84.2196	2,462.4	81.6598	2,462.4	80.9636	2,462.4	77.3293	2,462.4	78.0874	2,462.4	75.038	2,462.4	76.2828	2,462.4	74.6062	2,462.4	76.2119	2,462.4	73.5063	2,462.4	76.0447	2,462.4	72.7272	2,462.4	75.9401	2,462.4	72.5992	2,462.4	72.7545	2,462.4	67.0158	2,462.4	71.9211	2,462.4	71.0853	2,462.4	71.2355	2,462.4	68.6255	2,462.4	69.1802	2,462.4	71.1139	2,462.4	68.396	2,462.4	70.341
2,548.83	90.4572	2,548.83	87.2073	2,548.83	85.343	2,548.83	86.4626	2,548.83	86.7588	2,548.83	86.8352	2,548.83	85.1996	2,548.83	84.3048	2,548.83	83.2777	2,548.83	84.4329	2,548.83	84.2911	2,548.83	84.8929	2,548.83	84.2831	2,548.83	83.4894	2,548.83	80.8304	2,548.83	79.7527	2,548.83	78.3003	2,548.83	76.8453	2,548.83	75.8175	2,548.83	74.4764	2,548.83	74.32	2,548.83	75.7259	2,548.83	74.6227	2,548.83	75.2457	2,548.83	75.2912	2,548.83	75.1171	2,548.83	73.114	2,548.83	69.4337	2,548.83	67.923	2,548.83	69.1165	2,548.83	71.1501	2,548.83	70.4779	2,548.83	68.9924	2,548.83	72.0941	2,548.83	69.6174	2,548.83	72.3377
2,639.65	90.0994	2,639.65	87.2203	2,639.65	84.8778	2,639.65	85.894	2,639.65	85.4175	2,639.65	85.2207	2,639.65	84.4341	2,639.65	83.5795	2,639.65	82.6004	2,639.65	84.3748	2,639.65	83.0295	2,639.65	84.4258	2,639.65	82.407	2,639.65	82.6676	2,639.65	80.9297	2,639.65	80.9138	2,639.65	78.0571	2,639.65	78.4006	2,639.65	76.8717	2,639.65	76.0391	2,639.65	74.1666	2,639.65	76.7746	2,639.65	73.1454	2,639.65	75.8006	2,639.65	73.3904	2,639.65	72.1093	2,639.65	71.508	2,639.65	69.5759	2,639.65	71.604	2,639.65	70.0599	2,639.65	68.528	2,639.65	70.3322	2,639.65	65.7585	2,639.65	72.3797	2,639.65	71.0457	2,639.65	68.4961
2,731.93	90.6206	2,731.93	86.0854	2,731.93	85.2847	2,731.93	84.9601	2,731.93	85.1855	2,731.93	84.4858	2,731.93	84.5397	2,731.93	82.4068	2,731.93	82.7644	2,731.93	84.1892	2,731.93	83.5923	2,731.93	83.1027	2,731.93	82.269	2,731.93	81.4647	2,731.93	80.4695	2,731.93	79.0642	2,731.93	77.8704	2,731.93	76.0358	2,731.93	76.232	2,731.93	75.8533	2,731.93	76.279	2,731.93	75.2412	2,731.93	74.3533	2,731.93	76.8921	2,731.93	74.6553	2,731.93	72.8906	2,731.93	69.6497	2,731.93	69.9036	2,731.93	72.5038	2,731.93	67.8252	2,731.93	69.7603	2,731.93	67.7132	2,731.93	60.5728	2,731.93	72.8394	2,731.93	71.3232	2,731.93	68.4839
2,828.61	91.6244	2,828.61	85.9373	2,828.61	85.6514	2,828.61	86.1035	2,828.61	86.3972	2,828.61	85.49	2,828.61	85.3393	2,828.61	84.0652	2,828.61	84.5779	2,828.61	84.9343	2,828.61	85.4903	2,828.61	83.193	2,828.61	83.5078	2,828.61	81.9012	2,828.61	81.4055	2,828.61	78.8755	2,828.61	78.2594	2,828.61	75.6074	2,828.61	74.9519	2,828.61	75.7139	2,828.61	77.209	2,828.61	75.6379	2,828.61	77.3801	2,828.61	75.4515	2,828.61	75.9417	2,828.61	70.3322	2,828.61	69.2539	2,828.61	70.1182	2,828.61	74.6756	2,828.61	69.7283	2,828.61	70.508	2,828.61	68.7059	2,828.61	66.5536	2,828.61	71.0777	2,828.61	70.1749	2,828.61	70.7808
2,928.22	92.1615	2,928.22	86.142	2,928.22	85.0019	2,928.22	86.9891	2,928.22	87.6292	2,928.22	86.1163	2,928.22	85.3417	2,928.22	85.8949	2,928.22	85.6012	2,928.22	85.8863	2,928.22	85.7758	2,928.22	84.8225	2,928.22	84.3443	2,928.22	83.2245	2,928.22	82.8575	2,928.22	81.4893	2,928.22	80.8627	2,928.22	77.1449	2,928.22	76.2933	2,928.22	75.0261	2,928.22	75.5111	2,928.22	76.4031	2,928.22	77.2417	2,928.22	77.5024	2,928.22	77.0463	2,928.22	73.1826	2,928.22	68.2993	2,928.22	65.1535	2,928.22	73.7593	2,928.22	73.4579	2,928.22	68.8093	2,928.22	64.7198	2,928.22	70.3785	2,928.22	70.5425	2,928.22	70.3607	2,928.22	70.0871
3,030.76	91.9762	3,030.76	86.07	3,030.76	85.5103	3,030.76	87.535	3,030.76	87.6629	3,030.76	85.8842	3,030.76	85.6468	3,030.76	86.321	3,030.76	86.0962	3,030.76	85.7145	3,030.76	85.5672	3,030.76	85.7306	3,030.76	85.4294	3,030.76	83.8854	3,030.76	83.8081	3,030.76	82.2956	3,030.76	81.9254	3,030.76	78.1547	3,030.76	78.0031	3,030.76	75.2241	3,030.76	74.1313	3,030.76	76.7711	3,030.76	77.246	3,030.76	75.8242	3,030.76	75.5475	3,030.76	75.5503	3,030.76	72.2915	3,030.76	68.9806	3,030.76	72.0345	3,030.76	73.227	3,030.76	71.5398	3,030.76	64.628	3,030.76	70.038	3,030.76	70.0799	3,030.76	70.6905	3,030.76	71.9224
3,137.7	91.9667	3,137.7	86.2186	3,137.7	85.438	3,137.7	88.0164	3,137.7	87.7773	3,137.7	85.4049	3,137.7	85.2009	3,137.7	86.3371	3,137.7	86.3925	3,137.7	84.7669	3,137.7	85.6317	3,137.7	85.7477	3,137.7	85.4338	3,137.7	84.5765	3,137.7	83.6654	3,137.7	81.608	3,137.7	81.1158	3,137.7	78.3461	3,137.7	77.1723	3,137.7	77.6254	3,137.7	77.8006	3,137.7	77.0716	3,137.7	77.1906	3,137.7	76.1497	3,137.7	75.1141	3,137.7	73.4147	3,137.7	72.3877	3,137.7	72.57	3,137.7	72.8994	3,137.7	74.3962	3,137.7	71.8292	3,137.7	65.7871	3,137.7	69.9971	3,137.7	68.6254	3,137.7	70.0031	3,137.7	72.1529
3,249.02	91.7083	3,249.02	86.6652	3,249.02	85.865	3,249.02	87.8193	3,249.02	88.5995	3,249.02	85.0682	3,249.02	84.9979	3,249.02	86.6966	3,249.02	86.2368	3,249.02	84.2457	3,249.02	84.3055	3,249.02	85.0763	3,249.02	85.0365	3,249.02	84.2304	3,249.02	83.3608	3,249.02	81.0627	3,249.02	81.0113	3,249.02	77.1244	3,249.02	76.7197	3,249.02	77.3858	3,249.02	77.8814	3,249.02	77.3747	3,249.02	77.2611	3,249.02	74.9327	3,249.02	74.7225	3,249.02	72.8054	3,249.02	69.4035	3,249.02	73.0428	3,249.02	74.4268	3,249.02	73.4744	3,249.02	70.988	3,249.02	67.5083	3,249.02	67.6664	3,249.02	68.7793	3,249.02	65.8781	3,249.02	72.0132
3,363.28	91.5757	3,363.28	88.7677	3,363.28	88.4196	3,363.28	88.3855	3,363.28	89.1534	3,363.28	85.8021	3,363.28	86.3135	3,363.28	86.3576	3,363.28	86.6566	3,363.28	84.4528	3,363.28	84.0279	3,363.28	85.1374	3,363.28	84.8702	3,363.28	83.8739	3,363.28	83.6692	3,363.28	82.0872	3,363.28	80.0581	3,363.28	77.0191	3,363.28	76.2911	3,363.28	76.0187	3,363.28	76.6184	3,363.28	77.5787	3,363.28	77.7861	3,363.28	73.2034	3,363.28	73.1076	3,363.28	72.0657	3,363.28	62.9454	3,363.28	73.1732	3,363.28	73.7581	3,363.28	69.7118	3,363.28	67.6069	3,363.28	66.1729	3,363.28	66.4066	3,363.28	66.0404	3,363.28	62.8373	3,363.28	70.517
3,481.93	91.2828	3,481.93	90.1048	3,481.93	89.5568	3,481.93	89.3282	3,481.93	89.5001	3,481.93	87.577	3,481.93	87.1535	3,481.93	86.6497	3,481.93	86.8149	3,481.93	84.2947	3,481.93	83.9325	3,481.93	84.4604	3,481.93	84.8208	3,481.93	84.7365	3,481.93	84.0737	3,481.93	81.8159	3,481.93	81.176	3,481.93	78.8785	3,481.93	77.3764	3,481.93	76.5468	3,481.93	75.4202	3,481.93	78.4439	3,481.93	76.6821	3,481.93	74.4155	3,481.93	73.7445	3,481.93	52.2635	3,481.93	58.3114	3,481.93	70.8962	3,481.93	73.2037	3,481.93	66.5468	3,481.93	68.658	3,481.93	67.3704	3,481.93	68.7386	3,481.93	67.8319	3,481.93	66.5274	3,481.93	66.9814
3,604.98	90.7389	3,604.98	90.4337	3,604.98	90.2905	3,604.98	89.9094	3,604.98	89.3962	3,604.98	87.9022	3,604.98	87.8357	3,604.98	87.06	3,604.98	87.075	3,604.98	84.5786	3,604.98	84.3966	3,604.98	84.5076	3,604.98	85.4609	3,604.98	84.7762	3,604.98	85.3685	3,604.98	82.4131	3,604.98	82.2979	3,604.98	78.869	3,604.98	79.7562	3,604.98	78.417	3,604.98	79.1053	3,604.98	79.539	3,604.98	78.6851	3,604.98	76.2799	3,604.98	75.3273	3,604.98	64.0131	3,604.98	67.4837	3,604.98	72.0756	3,604.98	71.8139	3,604.98	67.8697	3,604.98	70.2831	3,604.98	69.2551	3,604.98	71.685	3,604.98	65.5832	3,604.98	66.304	3,604.98	67.3465
3,732.42	91.4927	3,732.42	91.5026	3,732.42	91.7465	3,732.42	91.0355	3,732.42	89.9953	3,732.42	88.7692	3,732.42	89.0314	3,732.42	87.3408	3,732.42	86.5627	3,732.42	85.7923	3,732.42	85.6663	3,732.42	86.183	3,732.42	86.3259	3,732.42	85.5707	3,732.42	86.1474	3,732.42	83.619	3,732.42	82.6046	3,732.42	79.9648	3,732.42	80.8078	3,732.42	79.6451	3,732.42	78.7259	3,732.42	79.9531	3,732.42	79.3156	3,732.42	75.3675	3,732.42	73.2826	3,732.42	66.5523	3,732.42	69.2138	3,732.42	72.4168	3,732.42	70.5033	3,732.42	68.7538	3,732.42	71.9153	3,732.42	69.2602	3,732.42	70.9183	3,732.42	67.3102	3,732.42	68.4193	3,732.42	65.5421
3,864.26	90.7711	3,864.26	90.6095	3,864.26	91.6414	3,864.26	91.029	3,864.26	89.67	3,864.26	88.8765	3,864.26	88.9568	3,864.26	86.1801	3,864.26	85.7389	3,864.26	86.4049	3,864.26	85.976	3,864.26	86.729	3,864.26	85.62	3,864.26	85.4331	3,864.26	85.4879	3,864.26	83.7201	3,864.26	81.9373	3,864.26	81.3501	3,864.26	79.1513	3,864.26	79.5026	3,864.26	78.9198	3,864.26	80.4878	3,864.26	78.0368	3,864.26	75.5107	3,864.26	72.5812	3,864.26	68.4815	3,864.26	70.4951	3,864.26	71.9422	3,864.26	67.2141	3,864.26	70.8657	3,864.26	72.3548	3,864.26	70.576	3,864.26	68.3193	3,864.26	67.9075	3,864.26	68.6492	3,864.26	64.45
4,000.49	90.4485	4,000.49	89.9887	4,000.49	91.4228	4,000.49	91.4165	4,000.49	90.4862	4,000.49	88.3384	4,000.49	88.5715	4,000.49	85.0067	4,000.49	86.3416	4,000.49	86.2886	4,000.49	87.513	4,000.49	84.8745	4,000.49	85.7868	4,000.49	85.1233	4,000.49	85.0609	4,000.49	82.8674	4,000.49	83.7373	4,000.49	80.5435	4,000.49	80.4727	4,000.49	77.7216	4,000.49	79.5352	4,000.49	80.1017	4,000.49	79.0469	4,000.49	75.4503	4,000.49	73.085	4,000.49	70.739	4,000.49	73.0349	4,000.49	73.3993	4,000.49	68.8863	4,000.49	73.017	4,000.49	75.5531	4,000.49	70.7533	4,000.49	70.9501	4,000.49	68.4874	4,000.49	70.4708	4,000.49	57.4748
4,141.11	91.524	4,141.11	90.7446	4,141.11	91.4039	4,141.11	92.3559	4,141.11	91.6088	4,141.11	89.5747	4,141.11	89.3339	4,141.11	87.4816	4,141.11	87.4098	4,141.11	87.7305	4,141.11	87.574	4,141.11	83.8742	4,141.11	86.2232	4,141.11	85.5008	4,141.11	84.757	4,141.11	83.1929	4,141.11	84.0158	4,141.11	80.1188	4,141.11	80.6999	4,141.11	76.5721	4,141.11	79.152	4,141.11	78.079	4,141.11	79.6873	4,141.11	74.1468	4,141.11	69.8238	4,141.11	69.5988	4,141.11	74.9619	4,141.11	74.8782	4,141.11	69.699	4,141.11	74.548	4,141.11	76.4504	4,141.11	70.147	4,141.11	71.8502	4,141.11	66.5222	4,141.11	70.2271	4,141.11	59.4819
4,287.6	91.0712	4,287.6	90.7057	4,287.6	91.222	4,287.6	92.5513	4,287.6	91.6205	4,287.6	89.6661	4,287.6	89.4079	4,287.6	88.0086	4,287.6	87.4707	4,287.6	87.5505	4,287.6	86.9348	4,287.6	84.0549	4,287.6	85.1363	4,287.6	86.2045	4,287.6	85.4533	4,287.6	83.3498	4,287.6	83.3708	4,287.6	81.0498	4,287.6	81.5578	4,287.6	78.9593	4,287.6	79.6071	4,287.6	77.8739	4,287.6	77.8902	4,287.6	72.6825	4,287.6	64.7736	4,287.6	70.6914	4,287.6	74.3886	4,287.6	71.1102	4,287.6	69.059	4,287.6	73.4046	4,287.6	72.7201	4,287.6	68.4	4,287.6	73.0917	4,287.6	70.1529	4,287.6	66.1564	4,287.6	64.1204
4,438.48	90.9857	4,438.48	90.515	4,438.48	90.5126	4,438.48	92.3948	4,438.48	91.4149	4,438.48	90.1299	4,438.48	89.2244	4,438.48	88.2103	4,438.48	87.3498	4,438.48	87.2693	4,438.48	87.2588	4,438.48	83.8764	4,438.48	85.0453	4,438.48	86.6737	4,438.48	85.9326	4,438.48	83.009	4,438.48	82.4288	4,438.48	79.4961	4,438.48	80.655	4,438.48	77.3649	4,438.48	79.3493	4,438.48	79.122	4,438.48	79.5473	4,438.48	77.2009	4,438.48	64.7783	4,438.48	72.0677	4,438.48	73.8819	4,438.48	69.5483	4,438.48	69.0915	4,438.48	74.1093	4,438.48	72.2234	4,438.48	66.495	4,438.48	73.4976	4,438.48	69.6262	4,438.48	67.6907	4,438.48	60.7128
4,595.21	90.4928	4,595.21	89.5803	4,595.21	88.9731	4,595.21	91.2382	4,595.21	91.2697	4,595.21	89.6786	4,595.21	89.088	4,595.21	88.5992	4,595.21	87.2909	4,595.21	86.4804	4,595.21	85.8547	4,595.21	85.799	4,595.21	84.7875	4,595.21	86.1996	4,595.21	85.3552	4,595.21	83.6987	4,595.21	82.2953	4,595.21	80.3754	4,595.21	78.7653	4,595.21	79.497	4,595.21	78.6372	4,595.21	78.318	4,595.21	78.2896	4,595.21	71.1542	4,595.21	67.1652	4,595.21	74.1805	4,595.21	73.175	4,595.21	68.237	4,595.21	65.7313	4,595.21	74.5285	4,595.21	71.6382	4,595.21	67.1365	4,595.21	72.5406	4,595.21	65.0481	4,595.21	64.3395	4,595.21	64.3597
4,756.35	90.5443	4,756.35	90.1393	4,756.35	89.5285	4,756.35	90.3407	4,756.35	91.2527	4,756.35	90.0276	4,756.35	89.7062	4,756.35	89.5002	4,756.35	88.342	4,756.35	87.1137	4,756.35	86.2503	4,756.35	85.7387	4,756.35	86.0324	4,756.35	84.672	4,756.35	86.2824	4,756.35	82.3339	4,756.35	82.4346	4,756.35	79.0204	4,756.35	81.3936	4,756.35	80.0452	4,756.35	78.6745	4,756.35	78.8102	4,756.35	78.3326	4,756.35	70.973	4,756.35	65.1627	4,756.35	72.8414	4,756.35	74.4318	4,756.35	64.9226	4,756.35	67.0825	4,756.35	74.3573	4,756.35	71.0095	4,756.35	70.2071	4,756.35	72.619	4,756.35	67.1468	4,756.35	69.041	4,756.35	62.4448
4,924.8	89.3505	4,924.8	90.2159	4,924.8	89.8459	4,924.8	90.1353	4,924.8	90.4958	4,924.8	90.7241	4,924.8	89.4143	4,924.8	90.2954	4,924.8	88.2458	4,924.8	88.8961	4,924.8	86.3495	4,924.8	88.0223	4,924.8	86.2243	4,924.8	84.5351	4,924.8	85.8629	4,924.8	82.5029	4,924.8	79.6735	4,924.8	77.9141	4,924.8	77.9391	4,924.8	77.3809	4,924.8	76.5434	4,924.8	76.3465	4,924.8	77.7681	4,924.8	71.0098	4,924.8	70.318	4,924.8	69.6481	4,924.8	75.0427	4,924.8	67.7995	4,924.8	67.6311	4,924.8	73.1898	4,924.8	70.1653	4,924.8	70.6998	4,924.8	72.4528	4,924.8	67.6192	4,924.8	68.9993	4,924.8	63.8432
5,097.66	88.2543	5,097.66	89.1708	5,097.66	89.7735	5,097.66	88.9153	5,097.66	89.8562	5,097.66	89.5161	5,097.66	89.4618	5,097.66	87.3456	5,097.66	88.7163	5,097.66	87.0722	5,097.66	87.2177	5,097.66	86.5987	5,097.66	84.8784	5,097.66	81.687	5,097.66	82.9814	5,097.66	81.6021	5,097.66	78.5269	5,097.66	77.723	5,097.66	75.109	5,097.66	77.8062	5,097.66	73.8731	5,097.66	76.6732	5,097.66	77.2046	5,097.66	69.8511	5,097.66	67.3568	5,097.66	71.2892	5,097.66	73.2694	5,097.66	69.1733	5,097.66	71.8608	5,097.66	73.3684	5,097.66	71.0592	5,097.66	70.4525	5,097.66	69.0896	5,097.66	67.052	5,097.66	61.1621	5,097.66	65.9596
5,277.83	89.0088	5,277.83	89.982	5,277.83	90.5209	5,277.83	90.0578	5,277.83	89.9834	5,277.83	90.3278	5,277.83	90.7728	5,277.83	86.8796	5,277.83	88.6498	5,277.83	87.1359	5,277.83	88.4394	5,277.83	84.9004	5,277.83	84.835	5,277.83	83.8022	5,277.83	84.7016	5,277.83	83.0748	5,277.83	80.2176	5,277.83	78.298	5,277.83	76.8989	5,277.83	76.3737	5,277.83	79.9046	5,277.83	76.3866	5,277.83	76.1825	5,277.83	64.3869	5,277.83	67.0138	5,277.83	72.9554	5,277.83	69.7581	5,277.83	68.5374	5,277.83	72.4237	5,277.83	70.6319	5,277.83	67.9841	5,277.83	70.6757	5,277.83	71.5548	5,277.83	62.5705	5,277.83	63.7567	5,277.83	67.4858
5,463.87	89.0946	5,463.87	89.438	5,463.87	90.1767	5,463.87	90.1833	5,463.87	89.7014	5,463.87	90.4585	5,463.87	90.6737	5,463.87	87.5076	5,463.87	88.2466	5,463.87	86.9069	5,463.87	87.332	5,463.87	84.7386	5,463.87	86.7184	5,463.87	86.2679	5,463.87	85.2283	5,463.87	82.4951	5,463.87	80.9789	5,463.87	79.6501	5,463.87	77.3588	5,463.87	77.7673	5,463.87	78.4902	5,463.87	75.9211	5,463.87	75.7483	5,463.87	68.8963	5,463.87	67.147	5,463.87	71.3477	5,463.87	69.6845	5,463.87	64.3659	5,463.87	70.9206	5,463.87	70.6843	5,463.87	68.6575	5,463.87	70.6835	5,463.87	72.0112	5,463.87	59.223	5,463.87	67.3305	5,463.87	66.3246
5,657.23	89.2763	5,657.23	90.3953	5,657.23	89.8796	5,657.23	90.1752	5,657.23	90.3719	5,657.23	90.4148	5,657.23	90.4193	5,657.23	86.2948	5,657.23	87.2747	5,657.23	86.9878	5,657.23	86.4503	5,657.23	85.2626	5,657.23	86.6392	5,657.23	84.8837	5,657.23	83.4996	5,657.23	76.3193	5,657.23	81.9275	5,657.23	77.4633	5,657.23	77.2164	5,657.23	77.698	5,657.23	77.7894	5,657.23	75.6692	5,657.23	72.0588	5,657.23	69.3616	5,657.23	68.9088	5,657.23	69.3522	5,657.23	68.0876	5,657.23	63.9473	5,657.23	69.4096	5,657.23	69.6737	5,657.23	67.5211	5,657.23	69.0811	5,657.23	71.2739	5,657.23	61.0645	5,657.23	68.9713	5,657.23	65.9797
5,856.45	89.4002	5,856.45	90.3728	5,856.45	89.8374	5,856.45	89.0324	5,856.45	90.4209	5,856.45	91.0284	5,856.45	90.3754	5,856.45	87.6546	5,856.45	87.7447	5,856.45	88.8536	5,856.45	87.0516	5,856.45	85.2271	5,856.45	86.0279	5,856.45	83.9191	5,856.45	81.8537	5,856.45	79.0315	5,856.45	81.4068	5,856.45	77.2372	5,856.45	75.3497	5,856.45	78.0074	5,856.45	75.8414	5,856.45	71.2289	5,856.45	70.1006	5,856.45	71.0283	5,856.45	63.6034	5,856.45	70.1426	5,856.45	71.4492	5,856.45	61.4907	5,856.45	67.0747	5,856.45	67.9792	5,856.45	69.3382	5,856.45	69.5666	5,856.45	67.9341	5,856.45	64.4295	5,856.45	66.8199	5,856.45	60.7554
6,062.99	90.4611	6,062.99	90.8313	6,062.99	90.3361	6,062.99	89.875	6,062.99	90.9535	6,062.99	91.2461	6,062.99	90.2851	6,062.99	90.7089	6,062.99	89.2106	6,062.99	88.4924	6,062.99	87.4358	6,062.99	86.7346	6,062.99	84.8358	6,062.99	81.9872	6,062.99	81.9461	6,062.99	81.6932	6,062.99	77.9767	6,062.99	73.4901	6,062.99	75.4069	6,062.99	73.0629	6,062.99	74.4673	6,062.99	71.2747	6,062.99	72.2778	6,062.99	69.1776	6,062.99	72.2205	6,062.99	68.3738	6,062.99	71.8069	6,062.99	66.403	6,062.99	65.9086	6,062.99	68.0606	6,062.99	68.5598	6,062.99	69.76	6,062.99	65.5743	6,062.99	59.7941	6,062.99	65.2587	6,062.99	56.1487
6,276.86	89.9019	6,276.86	90.3743	6,276.86	89.6174	6,276.86	90.1423	6,276.86	89.5226	6,276.86	89.4788	6,276.86	89.9199	6,276.86	90.6387	6,276.86	89.3407	6,276.86	87.1418	6,276.86	88.0152	6,276.86	85.6718	6,276.86	82.659	6,276.86	83.383	6,276.86	82.8943	6,276.86	82.1208	6,276.86	75.8779	6,276.86	75.1176	6,276.86	75.0621	6,276.86	73.2336	6,276.86	72.963	6,276.86	70.2097	6,276.86	73.168	6,276.86	68.5073	6,276.86	67.6422	6,276.86	61.3824	6,276.86	69.9907	6,276.86	69.3862	6,276.86	67.8397	6,276.86	66.2385	6,276.86	65.3363	6,276.86	70.8954	6,276.86	68.6841	6,276.86	59.3123	6,276.86	63.9617	6,276.86	50.6115
6,498.05	90.1891	6,498.05	90.7337	6,498.05	90.6348	6,498.05	90.8635	6,498.05	88.5197	6,498.05	89.2169	6,498.05	90.2983	6,498.05	89.8872	6,498.05	88.7391	6,498.05	86.4895	6,498.05	88.234	6,498.05	85.4077	6,498.05	84.7274	6,498.05	85.1416	6,498.05	83.7558	6,498.05	81.3734	6,498.05	80.4606	6,498.05	72.8442	6,498.05	72.7073	6,498.05	73.0288	6,498.05	73.7417	6,498.05	71.9905	6,498.05	68.3814	6,498.05	70.0089	6,498.05	67.1734	6,498.05	66.3131	6,498.05	62.7782	6,498.05	67.1244	6,498.05	68.7584	6,498.05	63.8942	6,498.05	65.5361	6,498.05	66.6611	6,498.05	69.6915	6,498.05	62.5572	6,498.05	62.8245	6,498.05	53.0792
6,726.56	90.0871	6,726.56	91.1	6,726.56	91.299	6,726.56	90.556	6,726.56	89.4099	6,726.56	89.325	6,726.56	90.1961	6,726.56	88.6311	6,726.56	88.6336	6,726.56	86.5274	6,726.56	86.005	6,726.56	85.9313	6,726.56	86.0046	6,726.56	84.878	6,726.56	84.3331	6,726.56	79.4438	6,726.56	79.7255	6,726.56	74.2193	6,726.56	74.7468	6,726.56	72.8712	6,726.56	74.3197	6,726.56	69.38	6,726.56	67.4204	6,726.56	58.1542	6,726.56	63.6175	6,726.56	63.9675	6,726.56	69.5338	6,726.56	66.8376	6,726.56	66.7328	6,726.56	67.1432	6,726.56	67.99	6,726.56	64.4587	6,726.56	70.3988	6,726.56	62.5903	6,726.56	58.5988	6,726.56	47.8505
6,963.87	89.7089	6,963.87	91.6725	6,963.87	91.2433	6,963.87	90.1307	6,963.87	90.3569	6,963.87	89.8648	6,963.87	89.8908	6,963.87	89.0045	6,963.87	89.346	6,963.87	86.8374	6,963.87	84.7446	6,963.87	85.2918	6,963.87	85.7241	6,963.87	82.558	6,963.87	82.7504	6,963.87	74.3945	6,963.87	79.3416	6,963.87	71.1948	6,963.87	72.3291	6,963.87	71.7865	6,963.87	75.4486	6,963.87	67.7493	6,963.87	69.2681	6,963.87	60.0397	6,963.87	68.1024	6,963.87	67.0712	6,963.87	65.9178	6,963.87	65.6635	6,963.87	67.0472	6,963.87	66.9468	6,963.87	67.5	6,963.87	60.7595	6,963.87	66.4988	6,963.87	62.3968	6,963.87	66.6258	6,963.87	56.7928
7,209.96	90.1019	7,209.96	91.6766	7,209.96	91.4637	7,209.96	90.7645	7,209.96	90.9305	7,209.96	90.1272	7,209.96	90.0785	7,209.96	90.4777	7,209.96	90.0168	7,209.96	88.1258	7,209.96	87.076	7,209.96	85.6773	7,209.96	84.6782	7,209.96	83.8949	7,209.96	83.3659	7,209.96	81.3746	7,209.96	79.3795	7,209.96	75.2443	7,209.96	75.7633	7,209.96	71.7586	7,209.96	69.7805	7,209.96	71.3362	7,209.96	69.7848	7,209.96	69.0694	7,209.96	63.0241	7,209.96	68.5385	7,209.96	66.6075	7,209.96	65.8743	7,209.96	63.8159	7,209.96	68.7338	7,209.96	69.9912	7,209.96	66.5115	7,209.96	64.8536	7,209.96	57.7426	7,209.96	63.7138	7,209.96	60.029
7,464.84	90.0638	7,464.84	90.566	7,464.84	90.9072	7,464.84	90.8236	7,464.84	89.9275	7,464.84	89.938	7,464.84	89.3187	7,464.84	90.8588	7,464.84	89.6992	7,464.84	87.6853	7,464.84	86.879	7,464.84	84.6158	7,464.84	82.3167	7,464.84	83.1676	7,464.84	83.5483	7,464.84	82.2162	7,464.84	78.4526	7,464.84	73.2881	7,464.84	73.4633	7,464.84	72.4186	7,464.84	66.3543	7,464.84	67.9323	7,464.84	69.2714	7,464.84	70.117	7,464.84	64.1017	7,464.84	63.2885	7,464.84	66.4157	7,464.84	64.8522	7,464.84	66.7013	7,464.84	66.5689	7,464.84	68.4059	7,464.84	67.0977	7,464.84	63.0018	7,464.84	59.3285	7,464.84	65.1889	7,464.84	59.5258
7,727.05	91.046	7,727.05	90.3287	7,727.05	91.2539	7,727.05	90.4831	7,727.05	90.3659	7,727.05	89.215	7,727.05	89.7914	7,727.05	90.4954	7,727.05	89.626	7,727.05	85.8254	7,727.05	85.9783	7,727.05	85.103	7,727.05	83.5426	7,727.05	82.2991	7,727.05	83.2664	7,727.05	79.6519	7,727.05	77.1024	7,727.05	71.0201	7,727.05	74.54	7,727.05	72.9316	7,727.05	70.6322	7,727.05	63.854	7,727.05	70.8462	7,727.05	69.2117	7,727.05	54.6292	7,727.05	60.0446	7,727.05	69.3361	7,727.05	64.6347	7,727.05	64.2083	7,727.05	64.6104	7,727.05	65.3424	7,727.05	65.1002	7,727.05	61.8953	7,727.05	55.3247	7,727.05	61.659	7,727.05	60.7379
7,999.51	90.704	7,999.51	91.1498	7,999.51	91.2367	7,999.51	90.4223	7,999.51	90.8772	7,999.51	89.2449	7,999.51	89.812	7,999.51	89.7972	7,999.51	89.3121	7,999.51	84.6113	7,999.51	84.9023	7,999.51	84.3735	7,999.51	83.8295	7,999.51	83.4634	7,999.51	81.5523	7,999.51	79.5811	7,999.51	77.236	7,999.51	72.6861	7,999.51	72.8702	7,999.51	69.5644	7,999.51	72.0495	7,999.51	67.4888	7,999.51	67.6503	7,999.51	68.1594	7,999.51	54.4734	7,999.51	65.484	7,999.51	67.1769	7,999.51	64.7209	7,999.51	57.8259	7,999.51	63.8705	7,999.51	66.1158	7,999.51	63.2465	7,999.51	61.2855	7,999.51	56.8527	7,999.51	54.8125	7,999.51	50.4447
8,282.23	91.5824	8,282.23	92.1389	8,282.23	91.4577	8,282.23	91.5177	8,282.23	91.5731	8,282.23	89.875	8,282.23	89.195	8,282.23	88.9752	8,282.23	89.4416	8,282.23	85.6849	8,282.23	85.2619	8,282.23	84.3323	8,282.23	83.5397	8,282.23	83.0149	8,282.23	82.6845	8,282.23	79.0774	8,282.23	77.964	8,282.23	72.5315	8,282.23	69.3117	8,282.23	68.5789	8,282.23	70.8652	8,282.23	67.7736	8,282.23	68.5531	8,282.23	66.2398	8,282.23	63.9027	8,282.23	62.7545	8,282.23	66.1779	8,282.23	65.7451	8,282.23	57.9837	8,282.23	65.2338	8,282.23	64.7535	8,282.23	59.4941	8,282.23	60.8305	8,282.23	54.2393	8,282.23	54.5346	8,282.23	59.3546
8,573.73	92.1543	8,573.73	92.2784	8,573.73	91.9165	8,573.73	92.1755	8,573.73	91.2538	8,573.73	91.0621	8,573.73	89.6109	8,573.73	88.4629	8,573.73	88.0844	8,573.73	87.0511	8,573.73	85.1633	8,573.73	83.8748	8,573.73	84.1207	8,573.73	82.0369	8,573.73	81.0053	8,573.73	78.5962	8,573.73	76.9012	8,573.73	71.7509	8,573.73	68.2093	8,573.73	64.2702	8,573.73	70.3088	8,573.73	68.9277	8,573.73	69.9999	8,573.73	59.4621	8,573.73	64.718	8,573.73	63.128	8,573.73	65.6746	8,573.73	65.1543	8,573.73	63.9147	8,573.73	67.1303	8,573.73	64.5231	8,573.73	63.4616	8,573.73	55.8302	8,573.73	48.1143	8,573.73	58.7751	8,573.73	58.4258
8,876.95	92.1485	8,876.95	92.0444	8,876.95	92.6526	8,876.95	91.2866	8,876.95	90.6356	8,876.95	90.8762	8,876.95	90.3689	8,876.95	88.2066	8,876.95	87.9759	8,876.95	86.9111	8,876.95	85.1626	8,876.95	84.3045	8,876.95	83.4952	8,876.95	80.1985	8,876.95	79.6821	8,876.95	78.4069	8,876.95	76.778	8,876.95	71.3569	8,876.95	72.2771	8,876.95	67.4109	8,876.95	69.0982	8,876.95	66.8207	8,876.95	59.9967	8,876.95	55.866	8,876.95	59.4723	8,876.95	63.2974	8,876.95	62.4919	8,876.95	64.4345	8,876.95	59.1538	8,876.95	68.3672	8,876.95	63.3239	8,876.95	60.877	8,876.95	57.6979	8,876.95	57.7072	8,876.95	58.7873	8,876.95	56.0681
9,188.96	92.2801	9,188.96	92.1974	9,188.96	91.9813	9,188.96	91.1028	9,188.96	91.2051	9,188.96	89.2993	9,188.96	89.522	9,188.96	88.3638	9,188.96	89.0498	9,188.96	86.5275	9,188.96	84.2116	9,188.96	84.1674	9,188.96	81.3051	9,188.96	79.6818	9,188.96	79.0857	9,188.96	77.9503	9,188.96	76.9355	9,188.96	70.7265	9,188.96	71.5586	9,188.96	70.4402	9,188.96	66.8641	9,188.96	65.905	9,188.96	47.8267	9,188.96	59.01	9,188.96	54.8494	9,188.96	60.1003	9,188.96	51.833	9,188.96	59.2956	9,188.96	54.1181	9,188.96	65.5575	9,188.96	63.5668	9,188.96	53.9339	9,188.96	56.0968	9,188.96	59.017	9,188.96	54.1269	9,188.96	56.9451
9,514.16	92.8767	9,514.16	92.6825	9,514.16	92.3875	9,514.16	92.295	9,514.16	92.1302	9,514.16	89.6779	9,514.16	89.2306	9,514.16	87.9866	9,514.16	88.214	9,514.16	85.9134	9,514.16	84.2021	9,514.16	81.1726	9,514.16	79.5099	9,514.16	77.6501	9,514.16	79.2522	9,514.16	76.5773	9,514.16	75.1564	9,514.16	69.4849	9,514.16	66.4299	9,514.16	69.0146	9,514.16	61.2684	9,514.16	59.5256	9,514.16	59.4267	9,514.16	58.6621	9,514.16	58.209	9,514.16	57.2723	9,514.16	60.9122	9,514.16	59.2242	9,514.16	55.8606	9,514.16	63.5406	9,514.16	56.2535	9,514.16	56.7948	9,514.16	57.2893	9,514.16	55.0176	9,514.16	57.2545	9,514.16	57.6456
9,849.61	93.2083	9,849.61	93.0272	9,849.61	93.117	9,849.61	91.8403	9,849.61	92.0328	9,849.61	90.7983	9,849.61	89.5848	9,849.61	86.8546	9,849.61	86.7673	9,849.61	84.1644	9,849.61	84.3882	9,849.61	78.8421	9,849.61	79.5776	9,849.61	76.5821	9,849.61	76.0738	9,849.61	74.0744	9,849.61	71.1773	9,849.61	68.3936	9,849.61	55.2328	9,849.61	65.691	9,849.61	59.4898	9,849.61	61.4557	9,849.61	59.4288	9,849.61	59.8214	9,849.61	58.0433	9,849.61	54.5088	9,849.61	62.0789	9,849.61	57.0637	9,849.61	61.3003	9,849.61	62.1014	9,849.61	51.709	9,849.61	60.215	9,849.61	54.604	9,849.61	45.5747	9,849.61	58.141	9,849.61	55.1616
10,196.8	94.1491	10,196.8	93.8025	10,196.8	93.3616	10,196.8	91.8136	10,196.8	92.176	10,196.8	90.8682	10,196.8	89.8841	10,196.8	86.7049	10,196.8	87.247	10,196.8	83.4221	10,196.8	83.8735	10,196.8	79.4035	10,196.8	78.7858	10,196.8	75.6077	10,196.8	71.4815	10,196.8	72.2575	10,196.8	69.4479	10,196.8	67.9995	10,196.8	65.3003	10,196.8	63.2155	10,196.8	63.4607	10,196.8	62.3377	10,196.8	51.4164	10,196.8	58.3105	10,196.8	54.1525	10,196.8	54.471	10,196.8	63.2737	10,196.8	57.1266	10,196.8	57.5325	10,196.8	60.6576	10,196.8	51.9802	10,196.8	60.716	10,196.8	51.756	10,196.8	45.8418	10,196.8	53.9381	10,196.8	57.0848
10,555.7	94.8278	10,555.7	94.157	10,555.7	93.8273	10,555.7	92.365	10,555.7	92.2054	10,555.7	90.3635	10,555.7	89.395	10,555.7	87.1297	10,555.7	87.1441	10,555.7	83.4605	10,555.7	81.8653	10,555.7	77.9845	10,555.7	76.1458	10,555.7	72.2594	10,555.7	70.1786	10,555.7	72.8393	10,555.7	70.7692	10,555.7	68.4912	10,555.7	64.474	10,555.7	62.1274	10,555.7	63.1317	10,555.7	62.6818	10,555.7	56.3367	10,555.7	47.0326	10,555.7	53.711	10,555.7	58.1601	10,555.7	59.6209	10,555.7	54.8555	10,555.7	58.8666	10,555.7	62.8408	10,555.7	57.1194	10,555.7	59.1566	10,555.7	56.6805	10,555.7	54.0147	10,555.7	49.4517	10,555.7	58.6695
10,927.7	95.0096	10,927.7	94.2566	10,927.7	94.2378	10,927.7	92.9767	10,927.7	92.1257	10,927.7	90.2162	10,927.7	89.0916	10,927.7	85.9868	10,927.7	85.7044	10,927.7	82.2745	10,927.7	79.9986	10,927.7	74.3093	10,927.7	74.9849	10,927.7	68.0712	10,927.7	69.2681	10,927.7	73.8236	10,927.7	71.8853	10,927.7	66.3683	10,927.7	68.0039	10,927.7	62.8948	10,927.7	64.8791	10,927.7	62.7802	10,927.7	48.2315	10,927.7	56.8175	10,927.7	56.0142	10,927.7	56.914	10,927.7	61.4049	10,927.7	61.8268	10,927.7	52.5912	10,927.7	65.5647	10,927.7	57.2729	10,927.7	59.6391	10,927.7	57.2703	10,927.7	55.6494	10,927.7	56.3863	10,927.7	54.721
11,313	94.4701	11,313	94.4899	11,313	94.1588	11,313	92.7762	11,313	92.1125	11,313	89.9394	11,313	89.3545	11,313	84.7605	11,313	83.2075	11,313	79.7692	11,313	80.0726	11,313	74.1754	11,313	74.3614	11,313	76.5155	11,313	73.9827	11,313	74.4245	11,313	74.8766	11,313	71.1279	11,313	67.1706	11,313	63.5234	11,313	64.361	11,313	66.0958	11,313	63.5948	11,313	56.2019	11,313	60.4195	11,313	58.1118	11,313	60.5576	11,313	63.4732	11,313	57.4363	11,313	64.4756	11,313	59.101	11,313	59.195	11,313	57.2847	11,313	60.8876	11,313	64.6005	11,313	56.7404
11,712.9	93.7707	11,712.9	94.0523	11,712.9	93.7973	11,712.9	92.3823	11,712.9	92.1057	11,712.9	90.4033	11,712.9	88.4204	11,712.9	83.0571	11,712.9	83.2537	11,712.9	80.3125	11,712.9	75.4942	11,712.9	78.9397	11,712.9	74.1629	11,712.9	80.3347	11,712.9	77.2987	11,712.9	78.3448	11,712.9	78.3231	11,712.9	72.8776	11,712.9	72.3086	11,712.9	65.3261	11,712.9	67.3895	11,712.9	64.4757	11,712.9	63.8224	11,712.9	57.3886	11,712.9	51.8448	11,712.9	49.3352	11,712.9	58.0889	11,712.9	57.9625	11,712.9	63.0801	11,712.9	66.1979	11,712.9	61.7411	11,712.9	63.2801	11,712.9	59.8188	11,712.9	57.7416	11,712.9	62.8866	11,712.9	60.0843
12,126	93.0434	12,126	93.3495	12,126	93.4401	12,126	91.1356	12,126	91.5065	12,126	90.1247	12,126	88.7748	12,126	84.1991	12,126	82.8008	12,126	83.9193	12,126	82.4392	12,126	79.9394	12,126	79.203	12,126	82.0767	12,126	79.2624	12,126	80.0971	12,126	78.7894	12,126	75.1552	12,126	74.5771	12,126	66.6533	12,126	68.1903	12,126	69.1751	12,126	65.1584	12,126	63.3002	12,126	57.9	12,126	55.7324	12,126	63.1704	12,126	64.2907	12,126	64.5966	12,126	66.0062	12,126	61.0333	12,126	66.5806	12,126	59.7926	12,126	55.7483	12,126	63.896	12,126	62.0856
12,553.7	92.7749	12,553.7	91.9481	12,553.7	92.8025	12,553.7	90.9468	12,553.7	90.9748	12,553.7	89.9433	12,553.7	89.2206	12,553.7	85.4681	12,553.7	82.6922	12,553.7	87.287	12,553.7	83.1693	12,553.7	81.678	12,553.7	77.2971	12,553.7	82.2673	12,553.7	80.4411	12,553.7	81.1684	12,553.7	80.1359	12,553.7	71.2025	12,553.7	75.2627	12,553.7	69.7157	12,553.7	66.0246	12,553.7	68.2795	12,553.7	58.3432	12,553.7	58.805	12,553.7	58.1843	12,553.7	61.0549	12,553.7	63.9831	12,553.7	67.8791	12,553.7	59.5334	12,553.7	65.5725	12,553.7	61.709	12,553.7	66.2694	12,553.7	61.304	12,553.7	54.3371	12,553.7	64.9299	12,553.7	59.7236
12,996.1	92.6389	12,996.1	91.6671	12,996.1	91.9551	12,996.1	91.0134	12,996.1	91.374	12,996.1	90.9141	12,996.1	89.7312	12,996.1	86.1253	12,996.1	87.3126	12,996.1	86.5373	12,996.1	86.5965	12,996.1	84.4443	12,996.1	82.8253	12,996.1	84.3967	12,996.1	82.4322	12,996.1	81.6991	12,996.1	81.663	12,996.1	77.1352	12,996.1	76.9052	12,996.1	70.0089	12,996.1	67.9688	12,996.1	66.8589	12,996.1	69.463	12,996.1	63.5045	12,996.1	59.1689	12,996.1	60.8847	12,996.1	64.5548	12,996.1	66.9017	12,996.1	61.9261	12,996.1	65.3481	12,996.1	60.9881	12,996.1	62.6043	12,996.1	58.3917	12,996.1	58.6607	12,996.1	67.5271	12,996.1	61.1397
13,454.6	93.2299	13,454.6	92.7655	13,454.6	92.1184	13,454.6	90.6145	13,454.6	91.8359	13,454.6	90.7506	13,454.6	90.7862	13,454.6	90.3969	13,454.6	89.1293	13,454.6	88.4977	13,454.6	89.3626	13,454.6	85.5637	13,454.6	84.3493	13,454.6	83.8717	13,454.6	84.6172	13,454.6	83.159	13,454.6	81.8755	13,454.6	79.4858	13,454.6	75.529	13,454.6	73.9583	13,454.6	68.8985	13,454.6	69.8745	13,454.6	70.2061	13,454.6	62.948	13,454.6	59.1767	13,454.6	52.6227	13,454.6	65.9224	13,454.6	66.6711	13,454.6	66.7005	13,454.6	63.6726	13,454.6	67.1315	13,454.6	66.5694	13,454.6	64.933	13,454.6	58.2008	13,454.6	67.7492	13,454.6	66.3587
13,929.2	93.2252	13,929.2	92.4727	13,929.2	92.3815	13,929.2	93.1188	13,929.2	90.5296	13,929.2	90.9606	13,929.2	90.9814	13,929.2	92.8025	13,929.2	91.476	13,929.2	91.4047	13,929.2	91.5844	13,929.2	89.1245	13,929.2	87.7763	13,929.2	86.4356	13,929.2	85.2908	13,929.2	83.9954	13,929.2	83.5814	13,929.2	78.7188	13,929.2	77.3111	13,929.2	70.1185	13,929.2	69.2297	13,929.2	71.4814	13,929.2	69.701	13,929.2	65.4934	13,929.2	61.9114	13,929.2	62.6194	13,929.2	64.7428	13,929.2	70.909	13,929.2	67.0112	13,929.2	58.203	13,929.2	67.4331	13,929.2	66.1683	13,929.2	68.1354	13,929.2	60.145	13,929.2	67.1739	13,929.2	66.7442
14,419.9	94.1608	14,419.9	94.3844	14,419.9	92.4767	14,419.9	93.2025	14,419.9	93.2671	14,419.9	93.61	14,419.9	91.7275	14,419.9	93.2288	14,419.9	93.565	14,419.9	92.0836	14,419.9	92.3431	14,419.9	90.2476	14,419.9	88.8917	14,419.9	84.545	14,419.9	86.6162	14,419.9	84.3796	14,419.9	83.8195	14,419.9	80.861	14,419.9	80.0217	14,419.9	74.7466	14,419.9	68.3834	14,419.9	68.066	14,419.9	70.0848	14,419.9	66.4628	14,419.9	64.3366	14,419.9	42.7654	14,419.9	68.8488	14,419.9	68.8901	14,419.9	66.5335	14,419.9	64.7726	14,419.9	70.4613	14,419.9	60.6645	14,419.9	67.1271	14,419.9	66.1724	14,419.9	58.9682	14,419.9	63.8046
14,928.2	93.2662	14,928.2	92.3039	14,928.2	93.0125	14,928.2	93.3396	14,928.2	92.0395	14,928.2	91.9153	14,928.2	91.0226	14,928.2	93.1558	14,928.2	91.1441	14,928.2	91.1524	14,928.2	90.6329	14,928.2	89.1234	14,928.2	87.4788	14,928.2	83.1155	14,928.2	83.8381	14,928.2	82.1138	14,928.2	80.8717	14,928.2	78.5467	14,928.2	73.5429	14,928.2	72.7912	14,928.2	67.4395	14,928.2	66.6867	14,928.2	59.4201	14,928.2	57.9103	14,928.2	68.0496	14,928.2	58.3682	14,928.2	58.6438	14,928.2	65.6765	14,928.2	64.7143	14,928.2	60.4136	14,928.2	64.8742	14,928.2	60.8139	14,928.2	67.7239	14,928.2	61.1342	14,928.2	55.9585	14,928.2	58.7809
15,455.6	91.4549	15,455.6	92.1248	15,455.6	91.1105	15,455.6	90.6766	15,455.6	90.079	15,455.6	90.6711	15,455.6	88.4713	15,455.6	87.7242	15,455.6	88.3356	15,455.6	88.6076	15,455.6	85.8415	15,455.6	85.3498	15,455.6	82.4294	15,455.6	76.247	15,455.6	78.6863	15,455.6	76.9717	15,455.6	74.5269	15,455.6	73.2619	15,455.6	70.6034	15,455.6	64.6447	15,455.6	60.2875	15,455.6	57.6132	15,455.6	55.2966	15,455.6	55.9155	15,455.6	62.1268	15,455.6	55.968	15,455.6	51.6467	15,455.6	56.3256	15,455.6	63.1775	15,455.6	51.0798	15,455.6	63.3027	15,455.6	57.184	15,455.6	63.404	15,455.6	60.8405	15,455.6	54.0095	15,455.6	47.8814
16,000.5	89.843	16,000.5	90.3177	16,000.5	89.3417	16,000.5	88.8189	16,000.5	87.4684	16,000.5	87.557	16,000.5	85.0609	16,000.5	85.024	16,000.5	82.9174	16,000.5	82.7674	16,000.5	80.7741	16,000.5	80.3194	16,000.5	77.1933	16,000.5	71.6057	16,000.5	71.8025	16,000.5	69.6873	16,000.5	68.3696	16,000.5	65.2947	16,000.5	61.3321	16,000.5	61.8194	16,000.5	55.4696	16,000.5	51.3413	16,000.5	46.6629	16,000.5	50.7145	16,000.5	57.7594	16,000.5	50.2108	16,000.5	53.192	16,000.5	49.7646	16,000.5	51.5318	16,000.5	47.4211	16,000.5	50.6963	16,000.5	49.0785	16,000.5	55.6973	16,000.5	55.0237	16,000.5	53.9528	16,000.5	47.1719
16,564.5	89.2995	16,564.5	89.0161	16,564.5	88.5151	16,564.5	87.6176	16,564.5	86.0436	16,564.5	85.8333	16,564.5	82.576	16,564.5	81.6007	16,564.5	78.8999	16,564.5	78.3134	16,564.5	74.5665	16,564.5	74.6456	16,564.5	70.3246	16,564.5	62.1178	16,564.5	60.9079	16,564.5	59.7168	16,564.5	57.8186	16,564.5	61.9376	16,564.5	52.445	16,564.5	57.1161	16,564.5	42.8873	16,564.5	45.594	16,564.5	45.5365	16,564.5	30.0387	16,564.5	53.8697	16,564.5	43.6374	16,564.5	42.2876	16,564.5	44.9468	16,564.5	32.8596	16,564.5	41.6319	16,564.5	45.0317	16,564.5	43.1774	16,564.5	52.4266	16,564.5	45.7343	16,564.5	50.8132	16,564.5	46.6791
17,148.9	88.4985	17,148.9	88.3741	17,148.9	87.4213	17,148.9	86.1926	17,148.9	84.9342	17,148.9	83.2643	17,148.9	80.7406	17,148.9	76.9906	17,148.9	73.2217	17,148.9	72.0681	17,148.9	66.7555	17,148.9	65.8699	17,148.9	62.4706	17,148.9	54.1831	17,148.9	52.3742	17,148.9	48.2597	17,148.9	49.0155	17,148.9	51.5582	17,148.9	48.309	17,148.9	49.1865	17,148.9	37.4012	17,148.9	44.0598	17,148.9	33.981	17,148.9	45.7647	17,148.9	47.5951	17,148.9	43.9062	17,148.9	37.4324	17,148.9	39.0309	17,148.9	38.1312	17,148.9	39.391	17,148.9	44.6694	17,148.9	41.2897	17,148.9	48.2551	17,148.9	42.0006	17,148.9	44.7907	17,148.9	44.5
17,752.4	88.5073	17,752.4	87.7875	17,752.4	87.4743	17,752.4	85.3528	17,752.4	84.4171	17,752.4	81.4167	17,752.4	79.4746	17,752.4	73.5505	17,752.4	70.8487	17,752.4	62.98	17,752.4	62.385	17,752.4	54.5854	17,752.4	60.8745	17,752.4	55.3196	17,752.4	52.4167	17,752.4	44.1873	17,752.4	34.8189	17,752.4	34.457	17,752.4	35.5667	17,752.4	38.9942	17,752.4	41.5041	17,752.4	43.491	17,752.4	42.8433	17,752.4	42.8085	17,752.4	44.9847	17,752.4	45.0531	17,752.4	38.6549	17,752.4	45.3507	17,752.4	42.1824	17,752.4	42.3731	17,752.4	43.7902	17,752.4	32.6681	17,752.4	44.9416	17,752.4	37.8993	17,752.4	38.4069	17,752.4	48.6936
18,379.4	88.5371	18,379.4	87.4706	18,379.4	87.1738	18,379.4	84.0508	18,379.4	83.5583	18,379.4	78.8315	18,379.4	78.0634	18,379.4	70.1995	18,379.4	70.2152	18,379.4	60.925	18,379.4	63.5931	18,379.4	58.5713	18,379.4	58.9289	18,379.4	56.7975	18,379.4	50.1313	18,379.4	50.6858	18,379.4	33.9985	18,379.4	45.4215	18,379.4	36.1514	18,379.4	35.7238	18,379.4	33.658	18,379.4	46.0957	18,379.4	34.2178	18,379.4	38.3039	18,379.4	35.8996	18,379.4	45.791	18,379.4	44.6368	18,379.4	45.5112	18,379.4	46.2091	18,379.4	32.9753	18,379.4	48.0198	18,379.4	40.7412	18,379.4	47.4058	18,379.4	42.3683	18,379.4	41.7523	18,379.4	46.962
19,026.9	88.5768	19,026.9	87.5835	19,026.9	87.291	19,026.9	82.9631	19,026.9	83.1458	19,026.9	75.428	19,026.9	74.4546	19,026.9	61.8432	19,026.9	56.017	19,026.9	54.7859	19,026.9	56.6116	19,026.9	63.0875	19,026.9	63.3297	19,026.9	63.6252	19,026.9	62.3049	19,026.9	59.3986	19,026.9	60.7978	19,026.9	56.3375	19,026.9	50.5304	19,026.9	42.6462	19,026.9	37.4655	19,026.9	34.6165	19,026.9	30.0842	19,026.9	37.7429	19,026.9	37.274	19,026.9	29.8627	19,026.9	43.373	19,026.9	33.4047	19,026.9	44.6875	19,026.9	36.1155	19,026.9	45.9802	19,026.9	38.4817	19,026.9	48.4105	19,026.9	39.8372	19,026.9	45.2946	19,026.9	45.6371
19,697.8	88.05	19,697.8	86.6818	19,697.8	86.8831	19,697.8	81.8766	19,697.8	82.5433	19,697.8	74.7698	19,697.8	74.7832	19,697.8	66.7883	19,697.8	71.3121	19,697.8	56.7705	19,697.8	65.2714	19,697.8	70.6243	19,697.8	67.3608	19,697.8	69.7258	19,697.8	67.0059	19,697.8	66.1665	19,697.8	65.4342	19,697.8	61.7155	19,697.8	57.2983	19,697.8	52.2742	19,697.8	51.4469	19,697.8	46.2966	19,697.8	44.348	19,697.8	49.5491	19,697.8	46.0722	19,697.8	43.696	19,697.8	45.1161	19,697.8	44.8155	19,697.8	37.0912	19,697.8	37.8464	19,697.8	36.5141	19,697.8	36.5019	19,697.8	43.478	19,697.8	44.1004	19,697.8	43.2298	19,697.8	47.6398
19,999.5	87.6588	19,999.5	85.7611	19,999.5	86.1874	19,999.5	81.6001	19,999.5	82.165	19,999.5	76.1607	19,999.5	76.9738	19,999.5	71.493	19,999.5	73.7797	19,999.5	68.5959	19,999.5	64.339	19,999.5	73.3366	19,999.5	69.0167	19,999.5	71.8773	19,999.5	68.2617	19,999.5	70.1126	19,999.5	67.8302	19,999.5	62.8713	19,999.5	53.7042	19,999.5	45.1361	19,999.5	44.4743	19,999.5	55.9439	19,999.5	56.1802	19,999.5	57.9395	19,999.5	44.3082	19,999.5	46.4074	19,999.5	58.2812	19,999.5	50.9483	19,999.5	37.5441	19,999.5	48.5892	19,999.5	42.2441	19,999.5	50.3633	19,999.5	36.7538	19,999.5	44.5646	19,999.5	48.0875	19,999.5	47.1812
