"SPL Vertical"
"On-Axis"		"10°"		"-10°"		"20°"		"-20°"		"30°"		"-30°"		"40°"		"-40°"		"50°"		"-50°"		"60°"		"-60°"		"70°"		"-70°"		"80°"		"-80°"		"90°"		"-90°"		"100°"		"-100°"		"110°"		"-110°"		"120°"		"-120°"		"130°"		"-130°"		"140°"		"-140°"		"150°"		"-150°"		"160°"		"-160°"		"170°"		"-170°"		"180°"
"Frequency / Hz"	"Sound Pressure Level / dB (re 20 µPa/V)  [2.83V at 1m]"	"Frequency / Hz"	"Sound Pressure Level / dB (re 20 µPa/V)  [2.83V at 1m]"	"Frequency / Hz"	"Sound Pressure Level / dB (re 20 µPa/V)  [2.83V at 1m]"	"Frequency / Hz"	"Sound Pressure Level / dB (re 20 µPa/V)  [2.83V at 1m]"	"Frequency / Hz"	"Sound Pressure Level / dB (re 20 µPa/V)  [2.83V at 1m]"	"Frequency / Hz"	"Sound Pressure Level / dB (re 20 µPa/V)  [2.83V at 1m]"	"Frequency / Hz"	"Sound Pressure Level / dB (re 20 µPa/V)  [2.83V at 1m]"	"Frequency / Hz"	"Sound Pressure Level / dB (re 20 µPa/V)  [2.83V at 1m]"	"Frequency / Hz"	"Sound Pressure Level / dB (re 20 µPa/V)  [2.83V at 1m]"	"Frequency / Hz"	"Sound Pressure Level / dB (re 20 µPa/V)  [2.83V at 1m]"	"Frequency / Hz"	"Sound Pressure Level / dB (re 20 µPa/V)  [2.83V at 1m]"	"Frequency / Hz"	"Sound Pressure Level / dB (re 20 µPa/V)  [2.83V at 1m]"	"Frequency / Hz"	"Sound Pressure Level / dB (re 20 µPa/V)  [2.83V at 1m]"	"Frequency / Hz"	"Sound Pressure Level / dB (re 20 µPa/V)  [2.83V at 1m]"	"Frequency / Hz"	"Sound Pressure Level / dB (re 20 µPa/V)  [2.83V at 1m]"	"Frequency / Hz"	"Sound Pressure Level / dB (re 20 µPa/V)  [2.83V at 1m]"	"Frequency / Hz"	"Sound Pressure Level / dB (re 20 µPa/V)  [2.83V at 1m]"	"Frequency / Hz"	"Sound Pressure Level / dB (re 20 µPa/V)  [2.83V at 1m]"	"Frequency / Hz"	"Sound Pressure Level / dB (re 20 µPa/V)  [2.83V at 1m]"	"Frequency / Hz"	"Sound Pressure Level / dB (re 20 µPa/V)  [2.83V at 1m]"	"Frequency / Hz"	"Sound Pressure Level / dB (re 20 µPa/V)  [2.83V at 1m]"	"Frequency / Hz"	"Sound Pressure Level / dB (re 20 µPa/V)  [2.83V at 1m]"	"Frequency / Hz"	"Sound Pressure Level / dB (re 20 µPa/V)  [2.83V at 1m]"	"Frequency / Hz"	"Sound Pressure Level / dB (re 20 µPa/V)  [2.83V at 1m]"	"Frequency / Hz"	"Sound Pressure Level / dB (re 20 µPa/V)  [2.83V at 1m]"	"Frequency / Hz"	"Sound Pressure Level / dB (re 20 µPa/V)  [2.83V at 1m]"	"Frequency / Hz"	"Sound Pressure Level / dB (re 20 µPa/V)  [2.83V at 1m]"	"Frequency / Hz"	"Sound Pressure Level / dB (re 20 µPa/V)  [2.83V at 1m]"	"Frequency / Hz"	"Sound Pressure Level / dB (re 20 µPa/V)  [2.83V at 1m]"	"Frequency / Hz"	"Sound Pressure Level / dB (re 20 µPa/V)  [2.83V at 1m]"	"Frequency / Hz"	"Sound Pressure Level / dB (re 20 µPa/V)  [2.83V at 1m]"	"Frequency / Hz"	"Sound Pressure Level / dB (re 20 µPa/V)  [2.83V at 1m]"	"Frequency / Hz"	"Sound Pressure Level / dB (re 20 µPa/V)  [2.83V at 1m]"	"Frequency / Hz"	"Sound Pressure Level / dB (re 20 µPa/V)  [2.83V at 1m]"	"Frequency / Hz"	"Sound Pressure Level / dB (re 20 µPa/V)  [2.83V at 1m]"	"Frequency / Hz"	"Sound Pressure Level / dB (re 20 µPa/V)  [2.83V at 1m]"
20.5078	63.7015	20.5078	62.7815	20.5078	64.4088	20.5078	61.6263	20.5078	64.8946	20.5078	60.1737	20.5078	65.1202	20.5078	58.2984	20.5078	65.0115	20.5078	55.7452	20.5078	64.4418	20.5078	51.9003	20.5078	63.1837	20.5078	44.6797	20.5078	60.7541	20.5078	41.5569	20.5078	55.6855	20.5078	51.0103	20.5078	25.538	20.5078	55.8378	20.5078	56.423	20.5078	59.0712	20.5078	62.6435	20.5078	61.5269	20.5078	66.027	20.5078	63.5157	20.5078	68.0884	20.5078	65.1783	20.5078	69.3123	20.5078	66.581	20.5078	69.9341	20.5078	67.7526	20.5078	70.0987	20.5078	68.7027	20.5078	69.9068	20.5078	69.4274
21.9727	65.5381	21.9727	64.6662	21.9727	66.1973	21.9727	63.566	21.9727	66.6329	21.9727	62.1884	21.9727	66.8083	21.9727	60.432	21.9727	66.6556	21.9727	58.0943	21.9727	66.0589	21.9727	54.7211	21.9727	64.8108	21.9727	49.0234	21.9727	62.4809	21.9727	41.7074	21.9727	57.8407	21.9727	50.8669	21.9727	40.9004	21.9727	56.2649	21.9727	56.2309	21.9727	59.7301	21.9727	63.0259	21.9727	62.2843	21.9727	66.5648	21.9727	64.3048	21.9727	68.6889	21.9727	65.9631	21.9727	69.945	21.9727	67.3446	21.9727	70.5883	21.9727	68.4918	21.9727	70.7707	21.9727	69.4213	21.9727	70.5946	21.9727	70.1298
23.4375	67.12	23.4375	66.3401	23.4375	67.6991	23.4375	65.3502	23.4375	68.0638	23.4375	64.1157	23.4375	68.177	23.4375	62.5663	23.4375	67.9716	23.4375	60.5734	23.4375	67.334	23.4375	57.9016	23.4375	66.064	23.4375	54.165	23.4375	63.7589	23.4375	50.0357	23.4375	59.3802	23.4375	52.1538	23.4375	50.3697	23.4375	56.8081	23.4375	58.0712	23.4375	60.3176	23.4375	64.2595	23.4375	62.9688	23.4375	67.6816	23.4375	65.0734	23.4375	69.7599	23.4375	66.7998	23.4375	70.9923	23.4375	68.2365	23.4375	71.6213	23.4375	69.4278	23.4375	71.7928	23.4375	70.3911	23.4375	71.6048	23.4375	71.1237
24.9023	68.0166	24.9023	67.2532	24.9023	68.5788	24.9023	66.2821	24.9023	68.9254	24.9023	65.0751	24.9023	69.0194	24.9023	63.5767	24.9023	68.7949	24.9023	61.6988	24.9023	68.1419	24.9023	59.3325	24.9023	66.8733	24.9023	56.5478	24.9023	64.6497	24.9023	54.7117	24.9023	60.8945	24.9023	56.2846	24.9023	57.3002	24.9023	59.4142	24.9023	61.7315	24.9023	62.2436	24.9023	66.3341	24.9023	64.5696	24.9023	69.3034	24.9023	66.4934	24.9023	71.1869	24.9023	68.1091	24.9023	72.3142	24.9023	69.4763	24.9023	72.8782	24.9023	70.6264	24.9023	73.0074	24.9023	71.5698	24.9023	72.7931	24.9023	72.2998
26.3672	69.21	26.3672	68.5372	26.3672	69.692	26.3672	67.6742	26.3672	69.967	26.3672	66.6092	26.3672	69.9994	26.3672	65.3228	26.3672	69.7285	26.3672	63.8079	26.3672	69.0586	26.3672	62.1377	26.3672	67.8471	26.3672	60.6618	26.3672	65.9288	26.3672	60.2012	26.3672	63.5125	26.3672	61.2777	26.3672	62.9908	26.3672	63.2348	26.3672	65.9479	26.3672	65.3091	26.3672	69.1827	26.3672	67.2105	26.3672	71.5883	26.3672	68.886	26.3672	73.2221	26.3672	70.3461	26.3672	74.2387	26.3672	71.6082	26.3672	74.764	26.3672	72.6821	26.3672	74.8946	26.3672	73.5666	26.3672	74.7047	26.3672	74.2491
27.832	70.2682	27.832	69.6393	27.832	70.7327	27.832	68.8592	27.832	71.011	27.832	67.9389	27.832	71.0683	27.832	66.8998	27.832	70.8535	27.832	65.801	27.832	70.2997	27.832	64.7888	27.832	69.3424	27.832	64.1447	27.832	68.0233	27.832	64.1963	27.832	66.8783	27.832	65.021	27.832	67.2522	27.832	66.3546	27.832	69.3338	27.832	67.8734	27.832	71.7159	27.832	69.3806	27.832	73.657	27.832	70.7906	27.832	75.0378	27.832	72.0728	27.832	75.906	27.832	73.2165	27.832	76.3382	27.832	74.2142	27.832	76.4099	27.832	75.0553	27.832	76.1868	27.832	75.722
29.2969	71.9763	29.2969	71.4425	29.2969	72.3688	29.2969	70.7881	29.2969	72.5948	29.2969	70.0351	29.2969	72.6205	29.2969	69.2175	29.2969	72.4034	29.2969	68.3982	29.2969	71.8975	29.2969	67.6919	29.2969	71.0844	29.2969	67.2718	29.2969	70.0833	29.2969	67.3141	29.2969	69.4156	29.2969	67.8787	29.2969	69.9569	29.2969	68.8569	29.2969	71.706	29.2969	70.0631	29.2969	73.7395	29.2969	71.3419	29.2969	75.4711	29.2969	72.5987	29.2969	76.7421	29.2969	73.7828	29.2969	77.5562	29.2969	74.867	29.2969	77.9627	29.2969	75.8319	29.2969	78.0214	29.2969	76.6585	29.2969	77.7907	29.2969	77.3223
30.7617	72.6757	30.7617	72.2164	30.7617	73.0176	30.7617	71.6666	30.7617	73.2153	30.7617	71.0592	30.7617	73.2406	30.7617	70.4411	30.7617	73.0677	30.7617	69.8849	30.7617	72.6894	30.7617	69.4931	30.7617	72.1652	30.7617	69.3828	30.7617	71.723	30.7617	69.6371	30.7617	71.8228	30.7617	70.2551	30.7617	72.8148	30.7617	71.154	30.7617	74.4382	30.7617	72.2198	30.7617	76.1518	30.7617	73.3547	30.7617	77.6167	30.7617	74.4912	30.7617	78.7093	30.7617	75.5864	30.7617	79.4113	30.7617	76.6115	30.7617	79.748	30.7617	77.5427	30.7617	79.7627	30.7617	78.3556	30.7617	79.5045	30.7617	79.0213
32.2266	73.4925	32.2266	73.0752	32.2266	73.8064	32.2266	72.5811	32.2266	73.9994	32.2266	72.0514	32.2266	74.0621	32.2266	71.5479	32.2266	73.9992	32.2266	71.1583	32.2266	73.847	32.2266	70.9862	32.2266	73.7098	32.2266	71.1193	32.2266	73.7982	32.2266	71.5858	32.2266	74.3709	32.2266	72.3399	32.2266	75.5059	32.2266	73.2913	32.2266	76.9776	32.2266	74.3483	32.2266	78.4601	32.2266	75.4402	32.2266	79.7285	32.2266	76.5197	32.2266	80.68	32.2266	77.5558	32.2266	81.2889	32.2266	78.5262	32.2266	81.5708	32.2266	79.4107	32.2266	81.5599	32.2266	80.1868	32.2266	81.298	32.2266	80.8272
33.6914	76.4788	33.6914	76.1948	33.6914	76.7515	33.6914	75.9203	33.6914	76.9944	33.6914	75.6789	33.6914	77.1931	33.6914	75.4963	33.6914	77.3422	33.6914	75.3997	33.6914	77.4554	33.6914	75.4147	33.6914	77.5817	33.6914	75.5614	33.6914	77.8171	33.6914	75.8497	33.6914	78.2827	33.6914	76.2769	33.6914	79.045	33.6914	76.8278	33.6914	80.0382	33.6914	77.4786	33.6914	81.0931	33.6914	78.2011	33.6914	82.036	33.6914	78.9665	33.6914	82.7517	33.6914	79.7474	33.6914	83.1905	33.6914	80.5179	33.6914	83.3515	33.6914	81.253	33.6914	83.2634	33.6914	81.9265	33.6914	82.9682	33.6914	82.5095
35.1562	79.5966	35.1562	79.3557	35.1562	79.8235	35.1562	79.1162	35.1562	80.0235	35.1562	78.8964	35.1562	80.189	35.1562	78.7171	35.1562	80.321	35.1562	78.6009	35.1562	80.4375	35.1562	78.5708	35.1562	80.5831	35.1562	78.6475	35.1562	80.8323	35.1562	78.8456	35.1562	81.2686	35.1562	79.1704	35.1562	81.9316	35.1562	79.6165	35.1562	82.7701	35.1562	80.1683	35.1562	83.6595	35.1562	80.8031	35.1562	84.4636	35.1562	81.4942	35.1562	85.0831	35.1562	82.214	35.1562	85.4679	35.1562	82.9345	35.1562	85.6092	35.1562	83.6279	35.1562	85.5255	35.1562	84.2657	35.1562	85.2491	35.1562	84.8172
36.6211	81.3352	36.6211	81.1111	36.6211	81.5429	36.6211	80.8841	36.6211	81.7239	36.6211	80.6707	36.6211	81.8731	36.6211	80.4896	36.6211	81.9946	36.6211	80.3617	36.6211	82.1079	36.6211	80.3088	36.6211	82.254	36.6211	80.3514	36.6211	82.4965	36.6211	80.5052	36.6211	82.9035	36.6211	80.7787	36.6211	83.507	36.6211	81.1704	36.6211	84.2671	36.6211	81.6691	36.6211	85.0807	36.6211	82.2559	36.6211	85.8275	36.6211	82.9065	36.6211	86.412	36.6211	83.594	36.6211	86.7805	36.6211	84.2906	36.6211	86.9176	36.6211	84.9674	36.6211	86.8359	36.6211	85.594	36.6211	86.5642	36.6211	86.1379
38.0859	82.9816	38.0859	82.787	38.0859	83.1838	38.0859	82.6086	38.0859	83.3887	38.0859	82.4573	38.0859	83.596	38.0859	82.3459	38.0859	83.8122	38.0859	82.2884	38.0859	84.0528	38.0859	82.2985	38.0859	84.3433	38.0859	82.3888	38.0859	84.716	38.0859	82.5686	38.0859	85.1988	38.0859	82.8427	38.0859	85.796	38.0859	83.2104	38.0859	86.4732	38.0859	83.6648	38.0859	87.16	38.0859	84.1937	38.0859	87.7724	38.0859	84.7802	38.0859	88.2391	38.0859	85.4042	38.0859	88.5167	38.0859	86.0427	38.0859	88.5924	38.0859	86.6703	38.0859	88.4769	38.0859	87.259	38.0859	88.195	38.0859	87.778
39.5508	84.6737	39.5508	84.4665	39.5508	84.8954	39.5508	84.2818	39.5508	85.1257	39.5508	84.1289	39.5508	85.3614	39.5508	84.0182	39.5508	85.6033	39.5508	83.9608	39.5508	85.8593	39.5508	83.9677	39.5508	86.1464	39.5508	84.0489	39.5508	86.4906	39.5508	84.2119	39.5508	86.9193	39.5508	84.461	39.5508	87.4443	39.5508	84.796	39.5508	88.0438	39.5508	85.2119	39.5508	88.6592	39.5508	85.6991	39.5508	89.2129	39.5508	86.2435	39.5508	89.6342	39.5508	86.8274	39.5508	89.878	39.5508	87.43	39.5508	89.9292	39.5508	88.0274	39.5508	89.7983	39.5508	88.5931	39.5508	89.5106	39.5508	89.098
41.0156	85.5945	41.0156	85.4395	41.0156	85.7804	41.0156	85.3193	41.0156	85.9947	41.0156	85.2387	41.0156	86.2372	41.0156	85.203	41.0156	86.5114	41.0156	85.2174	41.0156	86.8254	41.0156	85.2869	41.0156	87.1912	41.0156	85.416	41.0156	87.6214	41.0156	85.608	41.0156	88.122	41.0156	85.8646	41.0156	88.6834	41.0156	86.1854	41.0156	89.2748	41.0156	86.5676	41.0156	89.8459	41.0156	87.0055	41.0156	90.3382	41.0156	87.4905	41.0156	90.6994	41.0156	88.0105	41.0156	90.8953	41.0156	88.5504	41.0156	90.9149	41.0156	89.0916	41.0156	90.7686	41.0156	89.6118	41.0156	90.4814	41.0156	90.085
42.4805	86.8659	42.4805	86.6897	42.4805	87.0732	42.4805	86.5471	42.4805	87.3099	42.4805	86.441	42.4805	87.5756	42.4805	86.3748	42.4805	87.8712	42.4805	86.3523	42.4805	88.1997	42.4805	86.3774	42.4805	88.5652	42.4805	86.4543	42.4805	88.9715	42.4805	86.5868	42.4805	89.4185	42.4805	86.7782	42.4805	89.8975	42.4805	87.0308	42.4805	90.3861	42.4805	87.345	42.4805	90.8472	42.4805	87.7188	42.4805	91.2347	42.4805	88.1471	42.4805	91.504	42.4805	88.6211	42.4805	91.6237	42.4805	89.1279	42.4805	91.5823	42.4805	89.6502	42.4805	91.3889	42.4805	90.1659	42.4805	91.0671	42.4805	90.6484
43.9453	87.5554	43.9453	87.3776	43.9453	87.7676	43.9453	87.2358	43.9453	88.0132	43.9453	87.1315	43.9453	88.2915	43.9453	87.067	43.9453	88.6017	43.9453	87.0446	43.9453	88.9431	43.9453	87.0671	43.9453	89.3141	43.9453	87.1374	43.9453	89.7126	43.9453	87.2584	43.9453	90.1338	43.9453	87.433	43.9453	90.5677	43.9453	87.6631	43.9453	90.9959	43.9453	87.9495	43.9453	91.3896	43.9453	88.2909	43.9453	91.712	43.9453	88.6836	43.9453	91.9262	43.9453	89.1204	43.9453	92.0056	43.9453	89.5901	43.9453	91.9403	43.9453	90.0772	43.9453	91.7384	43.9453	90.5618	43.9453	91.4217	43.9453	91.0194
45.4102	87.7945	45.4102	87.6208	45.4102	88.0065	45.4102	87.4859	45.4102	88.2564	45.4102	87.39	45.4102	88.5431	45.4102	87.334	45.4102	88.8642	45.4102	87.3188	45.4102	89.2161	45.4102	87.3457	45.4102	89.5935	45.4102	87.4162	45.4102	89.9894	45.4102	87.5322	45.4102	90.3953	45.4102	87.6955	45.4102	90.7996	45.4102	87.9078	45.4102	91.1858	45.4102	88.1701	45.4102	91.5302	45.4102	88.4823	45.4102	91.8031	45.4102	88.842	45.4102	91.9746	45.4102	89.2442	45.4102	92.0224	45.4102	89.6798	45.4102	91.9384	45.4102	90.1355	45.4102	91.7304	45.4102	90.5932	45.4102	91.4185	45.4102	91.0298
46.875	88.0384	46.875	87.8589	46.875	88.2581	46.875	87.7194	46.875	88.5173	46.875	87.6197	46.875	88.8143	46.875	87.5595	46.875	89.1451	46.875	87.5387	46.875	89.504	46.875	87.5575	46.875	89.8823	46.875	87.6165	46.875	90.27	46.875	87.7168	46.875	90.6557	46.875	87.8597	46.875	91.0268	46.875	88.0469	46.875	91.368	46.875	88.2799	46.875	91.6596	46.875	88.5591	46.875	91.8772	46.875	88.884	46.875	91.9965	46.875	89.2512	46.875	91.9996	46.875	89.6541	46.875	91.8814	46.875	90.0816	46.875	91.6512	46.875	90.5181	46.875	91.3294	46.875	90.9424
48.3398	88.2106	48.3398	88.0082	48.3398	88.4528	48.3398	87.8461	48.3398	88.7327	48.3398	87.7241	48.3398	89.0462	48.3398	87.6413	48.3398	89.3866	48.3398	87.5971	48.3398	89.7444	48.3398	87.5908	48.3398	90.1079	48.3398	87.6222	48.3398	90.4646	48.3398	87.6917	48.3398	90.8019	48.3398	87.8003	48.3398	91.1081	48.3398	87.9496	48.3398	91.3716	48.3398	88.1414	48.3398	91.5785	48.3398	88.3773	48.3398	91.7122	48.3398	88.6581	48.3398	91.756	48.3398	88.9825	48.3398	91.6973	48.3398	89.3459	48.3398	91.5342	48.3398	89.7398	48.3398	91.2762	48.3398	90.1504	48.3398	90.9429	48.3398	90.5592
51.2695	88.3561	51.2695	88.1389	51.2695	88.6063	51.2695	87.9564	51.2695	88.8856	51.2695	87.8094	51.2695	89.1885	51.2695	87.6977	51.2695	89.5067	51.2695	87.6206	51.2695	89.8301	51.2695	87.5774	51.2695	90.1468	51.2695	87.5678	51.2695	90.4447	51.2695	87.5916	51.2695	90.712	51.2695	87.6497	51.2695	90.938	51.2695	87.7435	51.2695	91.1125	51.2695	87.875	51.2695	91.2253	51.2695	88.0466	51.2695	91.2656	51.2695	88.2605	51.2695	91.2237	51.2695	88.5175	51.2695	91.0943	51.2695	88.8162	51.2695	90.8805	51.2695	89.1514	51.2695	90.5945	51.2695	89.5137	51.2695	90.2561	51.2695	89.8884
52.7344	88.318	52.7344	88.1015	52.7344	88.5672	52.7344	87.9197	52.7344	88.8454	52.7344	87.773	52.7344	89.147	52.7344	87.6612	52.7344	89.4639	52.7344	87.5832	52.7344	89.7857	52.7344	87.5382	52.7344	90.1	52.7344	87.5252	52.7344	90.3934	52.7344	87.5439	52.7344	90.6527	52.7344	87.5946	52.7344	90.8659	52.7344	87.6785	52.7344	91.0227	52.7344	87.7976	52.7344	91.1142	52.7344	87.9543	52.7344	91.1321	52.7344	88.1512	52.7344	91.0692	52.7344	88.39	52.7344	90.9224	52.7344	88.6702	52.7344	90.6959	52.7344	88.9883	52.7344	90.4029	52.7344	89.3362	52.7344	90.0635	52.7344	89.7006
54.1992	88.3061	54.1992	88.0912	54.1992	88.5542	54.1992	87.9114	54.1992	88.8317	54.1992	87.7669	54.1992	89.1327	54.1992	87.6572	54.1992	89.4487	54.1992	87.5812	54.1992	89.7687	54.1992	87.5372	54.1992	90.0795	54.1992	87.5242	54.1992	90.3665	54.1992	87.5412	54.1992	90.6154	54.1992	87.5881	54.1992	90.8136	54.1992	87.6657	54.1992	90.951	54.1992	87.7757	54.1992	91.02	54.1992	87.9203	54.1992	91.0146	54.1992	88.1023	54.1992	90.9311	54.1992	88.3236	54.1992	90.7694	54.1992	88.5849	54.1992	90.5356	54.1992	88.8834	54.1992	90.243	54.1992	89.2125	54.1992	89.9109	54.1992	89.5606
55.6641	88.2653	55.6641	88.0509	55.6641	88.5138	55.6641	87.8725	55.6641	88.7927	55.6641	87.7301	55.6641	89.0956	55.6641	87.623	55.6641	89.4134	55.6641	87.5495	55.6641	89.734	55.6641	87.5078	55.6641	90.043	55.6641	87.496	55.6641	90.3248	55.6641	87.5129	55.6641	90.5642	55.6641	87.558	55.6641	90.7485	55.6641	87.6314	55.6641	90.8679	55.6641	87.7345	55.6641	90.9162	55.6641	87.8693	55.6641	90.8898	55.6641	88.0386	55.6641	90.7876	55.6641	88.2446	55.6641	90.6121	55.6641	88.4885	55.6641	90.3712	55.6641	88.7689	55.6641	90.0785	55.6641	89.0806	55.6641	89.7524	55.6641	89.4135
58.5938	88.3825	58.5938	88.1497	58.5938	88.6482	58.5938	87.9529	58.5938	88.9412	58.5938	87.793	58.5938	89.2534	58.5938	87.6695	58.5938	89.5734	58.5938	87.5806	58.5938	89.8873	58.5938	87.524	58.5938	90.1792	58.5938	87.4973	58.5938	90.433	58.5938	87.4983	58.5938	90.6334	58.5938	87.5254	58.5938	90.7683	58.5938	87.578	58.5938	90.8298	58.5938	87.6564	58.5938	90.8141	58.5938	87.7623	58.5938	90.7221	58.5938	87.8982	58.5938	90.5586	58.5938	88.0672	58.5938	90.3324	58.5938	88.2719	58.5938	90.0561	58.5938	88.5136	58.5938	89.7457	58.5938	88.7904	58.5938	89.4197	58.5938	89.0961
60.0586	88.4795	60.0586	88.2368	60.0586	88.7528	60.0586	88.0284	60.0586	89.0504	60.0586	87.856	60.0586	89.3634	60.0586	87.7193	60.0586	89.6798	60.0586	87.617	60.0586	89.9855	60.0586	87.5469	60.0586	90.2642	60.0586	87.5065	60.0586	90.4996	60.0586	87.4934	60.0586	90.6768	60.0586	87.5057	60.0586	90.784	60.0586	87.5424	60.0586	90.8136	60.0586	87.6038	60.0586	90.7631	60.0586	87.691	60.0586	90.635	60.0586	87.8068	60.0586	90.4369	60.0586	87.9546	60.0586	90.1808	60.0586	88.1378	60.0586	89.8821	60.0586	88.3591	60.0586	89.5589	60.0586	88.6183	60.0586	89.2296	60.0586	88.9115
62.9883	88.8351	62.9883	88.5748	62.9883	89.121	62.9883	88.345	62.9883	89.4248	62.9883	88.1485	62.9883	89.7364	62.9883	87.986	62.9883	90.043	62.9883	87.8569	62.9883	90.3294	62.9883	87.7592	62.9883	90.5794	62.9883	87.6906	62.9883	90.7766	62.9883	87.6486	62.9883	90.9063	62.9883	87.631	62.9883	90.9575	62.9883	87.6363	62.9883	90.9239	62.9883	87.6641	62.9883	90.805	62.9883	87.7153	62.9883	90.6072	62.9883	87.7923	62.9883	90.3433	62.9883	87.8991	62.9883	90.0313	62.9883	88.0403	62.9883	89.692	62.9883	88.2208	62.9883	89.3467	62.9883	88.4441	62.9883	89.0144	62.9883	88.7101
64.4531	89.0417	64.4531	88.7736	64.4531	89.3311	64.4531	88.532	64.4531	89.6338	64.4531	88.3204	64.4531	89.9396	64.4531	88.14	64.4531	90.2357	64.4531	87.9908	64.4531	90.5074	64.4531	87.8714	64.4531	90.7383	64.4531	87.7797	64.4531	90.9122	64.4531	87.7136	64.4531	91.0144	64.4531	87.6708	64.4531	91.0335	64.4531	87.65	64.4531	90.9636	64.4531	87.6506	64.4531	90.805	64.4531	87.6737	64.4531	90.5655	64.4531	87.7219	64.4531	90.2602	64.4531	87.7998	64.4531	89.9102	64.4531	87.9133	64.4531	89.5398	64.4531	88.0691	64.4531	89.173	64.4531	88.273	64.4531	88.8306	64.4531	88.5276
67.3828	89.3612	67.3828	89.0969	67.3828	89.647	67.3828	88.8589	67.3828	89.9475	67.3828	88.6493	67.3828	90.2528	67.3828	88.4688	67.3828	90.5503	67.3828	88.3165	67.3828	90.8248	67.3828	88.1906	67.3828	91.0592	67.3828	88.0889	67.3828	91.2358	67.3828	88.0091	67.3828	91.3383	67.3828	87.9491	67.3828	91.3535	67.3828	87.9078	67.3828	91.274	67.3828	87.8854	67.3828	91.0997	67.3828	87.8837	67.3828	90.8386	67.3828	87.9066	67.3828	90.5069	67.3828	87.9605	67.3828	90.1273	67.3828	88.0536	67.3828	89.7263	67.3828	88.1948	67.3828	89.3312	67.3828	88.3922	67.3828	88.9664	67.3828	88.65
68.8477	89.432	68.8477	89.1687	68.8477	89.7185	68.8477	88.9333	68.8477	90.0209	68.8477	88.728	68.8477	90.3291	68.8477	88.5531	68.8477	90.63	68.8477	88.4073	68.8477	90.9081	68.8477	88.2885	68.8477	91.1463	68.8477	88.1938	68.8477	91.3268	68.8477	88.1204	68.8477	91.433	68.8477	88.0661	68.8477	91.4517	68.8477	88.0294	68.8477	91.3748	68.8477	88.0101	68.8477	91.2019	68.8477	88.0101	68.8477	90.9408	68.8477	88.0332	68.8477	90.6081	68.8477	88.0856	68.8477	90.2273	68.8477	88.1756	68.8477	89.826	68.8477	88.3126	68.8477	89.4321	68.8477	88.505	68.8477	89.0701	68.8477	88.7579
71.7773	89.6155	71.7773	89.3385	71.7773	89.9159	71.7773	89.0906	71.7773	90.2309	71.7773	88.8751	71.7773	90.5491	71.7773	88.6929	71.7773	90.8567	71.7773	88.5429	71.7773	91.1376	71.7773	88.4226	71.7773	91.3743	71.7773	88.3287	71.7773	91.5494	71.7773	88.2579	71.7773	91.6468	71.7773	88.2069	71.7773	91.6536	71.7773	88.1735	71.7773	91.5623	71.7773	88.1568	71.7773	91.3723	71.7773	88.1578	71.7773	91.0922	71.7773	88.1795	71.7773	90.7401	71.7773	88.2278	71.7773	90.3421	71.7773	88.3108	71.7773	89.9287	71.7773	88.4384	71.7773	89.5293	71.7773	88.6202	71.7773	89.1688	71.7773	88.8633
74.707	89.8471	74.707	89.5469	74.707	90.1666	74.707	89.2733	74.707	90.4956	74.707	89.0313	74.707	90.8217	74.707	88.8232	74.707	91.1307	74.707	88.6492	74.707	91.4066	74.707	88.5077	74.707	91.6329	74.707	88.3961	74.707	91.793	74.707	88.311	74.707	91.8724	74.707	88.2493	74.707	91.8594	74.707	88.2085	74.707	91.747	74.707	88.1871	74.707	91.5352	74.707	88.1855	74.707	91.2323	74.707	88.2062	74.707	90.857	74.707	88.2544	74.707	90.4362	74.707	88.3379	74.707	90.0018	74.707	88.4664	74.707	89.585	74.707	88.6504	74.707	89.2115	74.707	88.8979
77.6367	90.2247	77.6367	89.9275	77.6367	90.539	77.6367	89.6549	77.6367	90.8599	77.6367	89.412	77.6367	91.1747	77.6367	89.201	77.6367	91.4686	77.6367	89.0222	77.6367	91.7252	77.6367	88.8736	77.6367	91.9277	77.6367	88.7524	77.6367	92.0603	77.6367	88.6548	77.6367	92.1088	77.6367	88.5772	77.6367	92.0624	77.6367	88.5168	77.6367	91.9151	77.6367	88.4717	77.6367	91.6674	77.6367	88.442	77.6367	91.3295	77.6367	88.4304	77.6367	90.9222	77.6367	88.4425	77.6367	90.4758	77.6367	88.4874	77.6367	90.0253	77.6367	88.5772	77.6367	89.6039	77.6367	88.7255	77.6367	89.2382	77.6367	88.9439
79.1016	90.4496	79.1016	90.1494	79.1016	90.7663	79.1016	89.8739	79.1016	91.0886	79.1016	89.6283	79.1016	91.4031	79.1016	89.415	79.1016	91.6946	79.1016	89.2337	79.1016	91.9467	79.1016	89.0824	79.1016	92.1428	79.1016	88.9573	79.1016	92.2671	79.1016	88.8545	79.1016	92.3062	79.1016	88.7698	79.1016	92.2496	79.1016	88.7001	79.1016	92.0915	79.1016	88.6437	79.1016	91.8325	79.1016	88.6011	79.1016	91.4824	79.1016	88.5754	79.1016	91.0625	79.1016	88.5735	79.1016	90.6037	79.1016	88.6056	79.1016	90.1421	79.1016	88.6853	79.1016	89.7118	79.1016	88.8272	79.1016	89.3402	79.1016	89.0437
82.0312	90.7611	82.0312	90.4487	82.0312	91.0899	82.0312	90.1629	82.0312	91.4222	82.0312	89.9112	82.0312	91.7438	82.0312	89.6979	82.0312	92.0392	82.0312	89.5238	82.0312	92.2924	82.0312	89.3871	82.0312	92.4878	82.0312	89.2836	82.0312	92.6109	82.0312	89.208	82.0312	92.6496	82.0312	89.1547	82.0312	92.5946	82.0312	89.1187	82.0312	92.4408	82.0312	89.0966	82.0312	92.1895	82.0312	89.0868	82.0312	91.8509	82.0312	89.091	82.0312	91.4468	82.0312	89.1135	82.0312	91.0097	82.0312	89.1623	82.0312	90.5767	82.0312	89.248	82.0312	90.181	82.0312	89.3832	82.0312	89.8453	82.0312	89.5796
84.9609	91.0616	84.9609	90.7393	84.9609	91.3932	84.9609	90.4378	84.9609	91.721	84.9609	90.1666	84.9609	92.0311	84.9609	89.932	84.9609	92.3091	84.9609	89.7372	84.9609	92.5408	84.9609	89.5821	84.9609	92.7125	84.9609	89.4635	84.9609	92.8119	84.9609	89.3765	84.9609	92.8291	84.9609	89.3148	84.9609	92.7561	84.9609	89.2724	84.9609	92.5886	84.9609	89.2445	84.9609	92.3265	84.9609	89.2282	84.9609	91.9781	84.9609	89.2234	84.9609	91.5627	84.9609	89.2337	84.9609	91.1111	84.9609	89.2671	84.9609	90.6611	84.9609	89.3357	84.9609	90.25	84.9609	89.455	84.9609	89.9056	84.9609	89.6411
87.8906	91.5802	87.8906	91.2377	87.8906	91.9232	87.8906	90.9082	87.8906	92.2535	87.8906	90.6026	87.8906	92.5571	87.8906	90.3295	87.8906	92.8199	87.8906	90.0949	87.8906	93.0283	87.8906	89.9015	87.8906	93.1698	87.8906	89.7492	87.8906	93.2341	87.8906	89.6352	87.8906	93.2145	87.8906	89.5554	87.8906	93.1078	87.8906	89.5047	87.8906	92.9147	87.8906	89.4785	87.8906	92.64	87.8906	89.4735	87.8906	92.2945	87.8906	89.4888	87.8906	91.8968	87.8906	89.5263	87.8906	91.4729	87.8906	89.5915	87.8906	91.0523	87.8906	89.6934	87.8906	90.6626	87.8906	89.8431	87.8906	90.3251	87.8906	90.0514
90.8203	92.1035	90.8203	91.7605	90.8203	92.4426	90.8203	91.4257	90.8203	92.7646	90.8203	91.1096	90.8203	93.0558	90.8203	90.821	90.8203	93.302	90.8203	90.5659	90.8203	93.4895	90.8203	90.348	90.8203	93.6054	90.8203	90.168	90.8203	93.6395	90.8203	90.0246	90.8203	93.5854	90.8203	89.915	90.8203	93.4409	90.8203	89.8359	90.8203	93.2084	90.8203	89.784	90.8203	92.8956	90.8203	89.7571	90.8203	92.5168	90.8203	89.7545	90.8203	92.0946	90.8203	89.7781	90.8203	91.6574	90.8203	89.8326	90.8203	91.2348	90.8203	89.9252	90.8203	90.8518	90.8203	90.0656	90.8203	90.5253	90.8203	90.2634
95.2148	92.4531	95.2148	92.1116	95.2148	92.7919	95.2148	91.7808	95.2148	93.1137	95.2148	91.4725	95.2148	93.4037	95.2148	91.1957	95.2148	93.6477	95.2148	90.9565	95.2148	93.832	95.2148	90.7574	95.2148	93.945	95.2148	90.5977	95.2148	93.9779	95.2148	90.4744	95.2148	93.9256	95.2148	90.3829	95.2148	93.7864	95.2148	90.3181	95.2148	93.562	95.2148	90.2757	95.2148	93.2577	95.2148	90.2527	95.2148	92.8853	95.2148	90.2481	95.2148	92.466	95.2148	90.2639	95.2148	92.0295	95.2148	90.3049	95.2148	91.6086	95.2148	90.3795	95.2148	91.232	95.2148	90.4988	95.2148	90.9184	95.2148	90.6752
98.1445	92.5573	98.1445	92.1937	98.1445	92.9152	98.1445	91.8401	98.1445	93.2517	98.1445	91.5106	98.1445	93.5509	98.1445	91.2166	98.1445	93.7978	98.1445	90.9661	98.1445	93.9786	98.1445	90.763	98.1445	94.0822	98.1445	90.6069	98.1445	94.1011	98.1445	90.4941	98.1445	94.0327	98.1445	90.4188	98.1445	93.8787	98.1445	90.3744	98.1445	93.6442	98.1445	90.3548	98.1445	93.3378	98.1445	90.3553	98.1445	92.9724	98.1445	90.3733	98.1445	92.5685	98.1445	90.4093	98.1445	92.1527	98.1445	90.4669	98.1445	91.7535	98.1445	90.5535	98.1445	91.3951	98.1445	90.6795	98.1445	91.0941	98.1445	90.8565
101.074	92.7312	101.074	92.3551	101.074	93.0949	101.074	91.9831	101.074	93.43	101.074	91.6305	101.074	93.7207	101.074	91.3107	101.074	93.9525	101.074	91.0339	101.074	94.1125	101.074	90.8059	101.074	94.1905	101.074	90.628	101.074	94.1803	101.074	90.4974	101.074	94.0801	101.074	90.4087	101.074	93.8931	101.074	90.355	101.074	93.6255	101.074	90.3296	101.074	93.2875	101.074	90.3271	101.074	92.8957	101.074	90.344	101.074	92.4743	101.074	90.3799	101.074	92.0533	101.074	90.4374	101.074	91.661	101.074	90.5223	101.074	91.3179	101.074	90.6434	101.074	91.034	101.074	90.8109
105.469	92.8168	105.469	92.4028	105.469	93.2101	105.469	91.9869	105.469	93.5651	105.469	91.588	105.469	93.866	105.469	91.2242	105.469	94.0989	105.469	90.9099	105.469	94.2528	105.469	90.6548	105.469	94.32	105.469	90.462	105.469	94.2978	105.469	90.3292	105.469	94.1888	105.469	90.2493	105.469	93.9988	105.469	90.2131	105.469	93.7352	105.469	90.2111	105.469	93.4057	105.469	90.2354	105.469	93.0218	105.469	90.2806	105.469	92.6037	105.469	90.3447	105.469	92.1788	105.469	90.4294	105.469	91.7761	105.469	90.5398	105.469	91.4178	105.469	90.6844	105.469	91.1162	105.469	90.8735
108.398	92.8233	108.398	92.4064	108.398	93.2101	108.398	91.9779	108.398	93.5496	108.398	91.5573	108.398	93.8266	108.398	91.1636	108.398	94.0285	108.398	90.814	108.398	94.1464	108.398	90.5222	108.398	94.1762	108.398	90.2969	108.398	94.1198	108.398	90.1407	108.398	93.9851	108.398	90.051	108.398	93.7832	108.398	90.021	108.398	93.5249	108.398	90.0419	108.398	93.2194	108.398	90.1043	108.398	92.8776	108.398	90.2002	108.398	92.5171	108.398	90.3231	108.398	92.1607	108.398	90.4689	108.398	91.8279	108.398	90.6352	108.398	91.5292	108.398	90.822	108.398	91.2648	108.398	91.0307
112.793	92.6423	112.793	92.2131	112.793	93.0367	112.793	91.7694	112.793	93.378	112.793	91.3326	112.793	93.6507	112.793	90.9235	112.793	93.842	112.793	90.5603	112.793	93.9429	112.793	90.2568	112.793	93.9491	112.793	90.0208	112.793	93.8627	112.793	89.8544	112.793	93.6932	112.793	89.754	112.793	93.4548	112.793	89.7129	112.793	93.1613	112.793	89.7221	112.793	92.823	112.793	89.7724	112.793	92.4496	112.793	89.855	112.793	92.0574	112.793	89.9618	112.793	91.6712	112.793	90.0867	112.793	91.3172	112.793	90.226	112.793	91.0126	112.793	90.3799	112.793	90.7611	112.793	90.5546
117.188	92.5807	117.188	92.0791	117.188	93.0294	117.188	91.5489	117.188	93.4049	117.188	91.0178	117.188	93.6902	117.188	90.515	117.188	93.872	117.188	90.0682	117.188	93.9409	117.188	89.6996	117.188	93.8928	117.188	89.4221	117.188	93.7321	117.188	89.2379	117.188	93.4733	117.188	89.1397	117.188	93.1397	117.188	89.1138	117.188	92.7571	117.188	89.1444	117.188	92.3479	117.188	89.2166	117.188	91.931	117.188	89.318	117.188	91.5251	117.188	89.4398	117.188	91.1491	117.188	89.5764	117.188	90.8156	117.188	89.7258	117.188	90.5279	117.188	89.8894	117.188	90.2825	117.188	90.0725
120.117	93.4007	120.117	92.8685	120.117	93.8563	120.117	92.279	120.117	94.2197	120.117	91.6564	120.117	94.4784	120.117	91.0305	120.117	94.6219	120.117	90.4352	120.117	94.6425	120.117	89.9063	120.117	94.5368	120.117	89.476	120.117	94.3088	120.117	89.1662	120.117	93.9727	120.117	88.9838	120.117	93.5517	120.117	88.9197	120.117	93.0731	120.117	88.9528	120.117	92.563	120.117	89.0564	120.117	92.0476	120.117	89.204	120.117	91.5583	120.117	89.3736	120.117	91.1273	120.117	89.5499	120.117	90.7732	120.117	89.7247	120.117	90.4926	120.117	89.8973	120.117	90.2666	120.117	90.074
124.512	94.1863	124.512	93.7228	124.512	94.5839	124.512	93.2093	124.512	94.9012	124.512	92.6643	124.512	95.1254	124.512	92.1085	124.512	95.2449	124.512	91.5646	124.512	95.2501	124.512	91.0564	124.512	95.1353	124.512	90.6071	124.512	94.9031	124.512	90.2372	124.512	94.5682	124.512	89.9623	124.512	94.1576	124.512	89.791	124.512	93.7048	124.512	89.7243	124.512	93.2396	124.512	89.7553	124.512	92.7857	124.512	89.8698	124.512	92.3651	124.512	90.049	124.512	91.9985	124.512	90.271	124.512	91.6954	124.512	90.5141	124.512	91.4443	124.512	90.7596	124.512	91.2191	124.512	90.9951
128.906	94.0164	128.906	93.5194	128.906	94.4385	128.906	92.9628	128.906	94.7723	128.906	92.3649	128.906	95.0056	128.906	91.7474	128.906	95.1266	128.906	91.136	128.906	95.1248	128.906	90.5596	128.906	94.9924	128.906	90.0487	128.906	94.7288	128.906	89.6321	128.906	94.3456	128.906	89.3326	128.906	93.8689	128.906	89.1627	128.906	93.3359	128.906	89.1221	128.906	92.7864	128.906	89.198	128.906	92.2587	128.906	89.3677	128.906	91.7905	128.906	89.6024	128.906	91.4141	128.906	89.8705	128.906	91.1394	128.906	90.1414	128.906	90.9424	128.906	90.3899	128.906	90.7773	128.906	90.6012
133.301	94.5164	133.301	94.0384	133.301	94.9172	133.301	93.4947	133.301	95.2298	133.301	92.8982	133.301	95.4433	133.301	92.2635	133.301	95.5464	133.301	91.6075	133.301	95.5275	133.301	90.9499	133.301	95.3763	133.301	90.314	133.301	95.0873	133.301	89.7268	133.301	94.6638	133.301	89.2179	133.301	94.121	133.301	88.8165	133.301	93.4844	133.301	88.5461	133.301	92.7861	133.301	88.4184	133.301	92.0648	133.301	88.4277	133.301	91.3715	133.301	88.5512	133.301	90.7658	133.301	88.7529	133.301	90.2915	133.301	88.9928	133.301	89.9479	133.301	89.2367	133.301	89.6916	133.301	89.467
139.16	94.3184	139.16	93.8747	139.16	94.6986	139.16	93.3823	139.16	95.0014	139.16	92.8571	139.16	95.2138	139.16	92.315	139.16	95.324	139.16	91.7713	139.16	95.3218	139.16	91.2399	139.16	95.2002	139.16	90.7333	139.16	94.9578	139.16	90.2624	139.16	94.6019	139.16	89.838	139.16	94.1476	139.16	89.4714	139.16	93.6135	139.16	89.1755	139.16	93.0173	139.16	88.9641	139.16	92.3783	139.16	88.8482	139.16	91.7277	139.16	88.8324	139.16	91.1124	139.16	88.9101	139.16	90.5786	139.16	89.0641	139.16	90.1467	139.16	89.2723	139.16	89.803	139.16	89.5184
143.555	94.1463	143.555	93.6782	143.555	94.5362	143.555	93.15	143.555	94.8327	143.555	92.582	143.555	95.0232	143.555	91.997	143.555	95.0973	143.555	91.419	143.555	95.0478	143.555	90.8713	143.555	94.8718	143.555	90.3748	143.555	94.574	143.555	89.9456	143.555	94.169	143.555	89.5941	143.555	93.6808	143.555	89.3242	143.555	93.1361	143.555	89.1353	143.555	92.5565	143.555	89.0234	143.555	91.9593	143.555	88.9823	143.555	91.3684	143.555	89.0043	143.555	90.8212	143.555	89.0794	143.555	90.3574	143.555	89.1959	143.555	89.9959	143.555	89.3428	143.555	89.7252	143.555	89.5159
147.949	94.2036	147.949	93.7156	147.949	94.5963	147.949	93.1479	147.949	94.8811	147.949	92.5203	147.949	95.0484	147.949	91.8567	147.949	95.0906	147.949	91.1861	147.949	95.0026	147.949	90.5418	147.949	94.7839	147.949	89.9599	147.949	94.4419	147.949	89.4757	147.949	93.9961	147.949	89.117	147.949	93.4776	147.949	88.8983	147.949	92.9211	147.949	88.8161	147.949	92.3557	147.949	88.8509	147.949	91.805	147.949	88.9724	147.949	91.2955	147.949	89.1472	147.949	90.8568	147.949	89.3446	147.949	90.5092	147.949	89.5409	147.949	90.2503	147.949	89.7225	147.949	90.0549	147.949	89.8888
153.809	94.9022	153.809	94.4586	153.809	95.248	153.809	93.9264	153.809	95.4877	153.809	93.3158	153.809	95.6132	153.809	92.6378	153.809	95.617	153.809	91.9052	153.809	95.4923	153.809	91.1337	153.809	95.2356	153.809	90.3455	153.809	94.85	153.809	89.5741	153.809	94.3488	153.809	88.8707	153.809	93.7547	153.809	88.3055	153.809	93.0932	153.809	87.9542	153.809	92.3895	153.809	87.8659	153.809	91.6806	153.809	88.0308	153.809	91.0332	153.809	88.3778	153.809	90.5324	153.809	88.8072	153.809	90.2234	153.809	89.227	153.809	90.0657	153.809	89.5727	153.809	89.9606	153.809	89.8142
159.668	94.2357	159.668	93.8586	159.668	94.5309	159.668	93.4115	159.668	94.7337	159.668	92.9069	159.668	94.8355	159.668	92.3571	159.668	94.8314	159.668	91.7731	159.668	94.7223	159.668	91.1635	159.668	94.5195	159.668	90.5357	159.668	94.2481	159.668	89.8979	159.668	93.941	159.668	89.2633	159.668	93.6198	159.668	88.6561	159.668	93.2691	159.668	88.1172	159.668	92.8335	159.668	87.7032	159.668	92.2534	159.668	87.4724	159.668	91.5191	159.668	87.4548	159.668	90.7039	159.668	87.6276	159.668	89.9437	159.668	87.9213	159.668	89.3488	159.668	88.2559	159.668	88.9231	159.668	88.5845
165.527	94.1222	165.527	93.69	165.527	94.4449	165.527	93.1711	165.527	94.6357	165.527	92.5885	165.527	94.6737	165.527	91.9655	165.527	94.5416	165.527	91.3244	165.527	94.2324	165.527	90.6851	165.527	93.7609	165.527	90.065	165.527	93.1839	165.527	89.4794	165.527	92.6157	165.527	88.9443	165.527	92.1994	165.527	88.4801	165.527	92.0007	165.527	88.1136	165.527	91.9267	165.527	87.8752	165.527	91.8006	165.527	87.7893	165.527	91.4979	165.527	87.8592	165.527	91.0076	165.527	88.0585	165.527	90.4161	165.527	88.3392	165.527	89.8453	165.527	88.6553	165.527	89.3718	165.527	88.9905
171.387	94.4146	171.387	93.9239	171.387	94.7874	171.387	93.3379	171.387	95.0197	171.387	92.6785	171.387	95.0885	171.387	91.9665	171.387	94.9704	171.387	91.2202	171.387	94.6417	171.387	90.4552	171.387	94.0819	171.387	89.6842	171.387	93.2899	171.387	88.9193	171.387	92.3255	171.387	88.1782	171.387	91.3679	171.387	87.4929	171.387	90.6991	171.387	86.9177	171.387	90.4738	171.387	86.5264	171.387	90.5235	171.387	86.3853	171.387	90.5508	171.387	86.5106	171.387	90.3801	171.387	86.8492	171.387	89.9931	171.387	87.31	171.387	89.4662	171.387	87.8184	171.387	88.8974	171.387	88.3457
177.246	94.3348	177.246	93.8516	177.246	94.7187	177.246	93.2909	177.246	94.9838	177.246	92.6755	177.246	95.1121	177.246	92.0275	177.246	95.0839	177.246	91.3641	177.246	94.8737	177.246	90.6954	177.246	94.4482	177.246	90.0227	177.246	93.7734	177.246	89.3404	177.246	92.8421	177.246	88.6423	177.246	91.7315	177.246	87.9318	177.246	90.6695	177.246	87.2389	177.246	89.9771	177.246	86.6371	177.246	89.7777	177.246	86.244	177.246	89.8574	177.246	86.175	177.246	89.9276	177.246	86.4605	177.246	89.828	177.246	87.0148	177.246	89.5187	177.246	87.6999	177.246	89.0245	177.246	88.3972
183.105	93.9234	183.105	93.4301	183.105	94.324	183.105	92.8674	183.105	94.6143	183.105	92.2655	183.105	94.7802	183.105	91.6589	183.105	94.8068	183.105	91.0822	183.105	94.6742	183.105	90.5624	183.105	94.3545	183.105	90.111	183.105	93.8158	183.105	89.7205	183.105	93.0393	183.105	89.3666	183.105	92.0566	183.105	89.0179	183.105	91.0056	183.105	88.6486	183.105	90.1402	183.105	88.2524	183.105	89.6687	183.105	87.8561	183.105	89.5347	183.105	87.5271	183.105	89.4991	183.105	87.36	183.105	89.3752	183.105	87.4298	183.105	89.0968	183.105	87.7353	183.105	88.6803	183.105	88.1919
188.965	94.4652	188.965	93.9515	188.965	94.8611	188.965	93.338	188.965	95.1277	188.965	92.651	188.965	95.2568	188.965	91.9242	188.965	95.2398	188.965	91.197	188.965	95.0626	188.965	90.5106	188.965	94.7042	188.965	89.9033	188.965	94.1418	188.965	89.4059	188.965	93.3665	188.965	89.0373	188.965	92.4147	188.965	88.8032	188.965	91.4093	188.965	88.6965	188.965	90.5716	188.965	88.7013	188.965	90.116	188.965	88.7991	188.965	90.0602	188.965	88.9735	188.965	90.2147	188.965	89.2103	188.965	90.3688	188.965	89.4931	188.965	90.4062	188.965	89.7966	188.965	90.3015	188.965	90.0823
196.289	94.621	196.289	94.1364	196.289	94.9863	196.289	93.5415	196.289	95.2249	196.289	92.8503	196.289	95.3285	196.289	92.0844	196.289	95.2846	196.289	91.2745	196.289	95.0763	196.289	90.4592	196.289	94.6828	196.289	89.6818	196.289	94.0843	196.289	88.9849	196.289	93.2726	196.289	88.405	196.289	92.2753	196.289	87.9707	196.289	91.1891	196.289	87.7041	196.289	90.2004	196.289	87.6205	196.289	89.5273	196.289	87.7228	196.289	89.2711	196.289	87.9918	196.289	89.3382	196.289	88.381	196.289	89.5355	196.289	88.8213	196.289	89.6922	196.289	89.2345	196.289	89.707	196.289	89.5477
203.613	93.9747	203.613	93.4926	203.613	94.3334	203.613	92.9039	203.613	94.5555	203.613	92.2298	203.613	94.6301	203.613	91.4972	203.613	94.5477	203.613	90.7383	203.613	94.299	203.613	89.9897	203.613	93.8759	203.613	89.2901	203.613	93.2769	203.613	88.6767	203.613	92.5191	203.613	88.1821	203.613	91.6569	203.613	87.8327	203.613	90.7943	203.613	87.6485	203.613	90.0756	203.613	87.641	203.613	89.6353	203.613	87.8085	203.613	89.5152	203.613	88.1278	203.613	89.6247	203.613	88.5505	203.613	89.8064	203.613	89.0088	203.613	89.9282	203.613	89.4287	203.613	89.9162	203.613	89.7454
210.938	94.4545	210.938	93.925	210.938	94.8388	210.938	93.2639	210.938	95.0663	210.938	92.4887	210.938	95.1253	210.938	91.6221	210.938	95.0021	210.938	90.6933	210.938	94.6787	210.938	89.7372	210.938	94.1327	210.938	88.7937	210.938	93.3444	210.938	87.906	210.938	92.318	210.938	87.1225	210.938	91.1213	210.938	86.5054	210.938	89.9192	210.938	86.1401	210.938	88.9441	210.938	86.1208	210.938	88.3985	210.938	86.4917	210.938	88.3783	210.938	87.1876	210.938	88.8052	210.938	88.0487	210.938	89.4135	210.938	88.8961	210.938	89.9133	210.938	89.5853	210.938	90.1324	210.938	90.0174
218.262	94.7516	218.262	94.2874	218.262	95.0754	218.262	93.6943	218.262	95.252	218.262	92.9896	218.262	95.2766	218.262	92.1973	218.262	95.1442	218.262	91.3464	218.262	94.8444	218.262	90.4682	218.262	94.3565	218.262	89.5903	218.262	93.6494	218.262	88.7309	218.262	92.6994	218.262	87.8968	218.262	91.5328	218.262	87.089	218.262	90.2776	218.262	86.3184	218.262	89.1468	218.262	85.6296	218.262	88.2795	218.262	85.119	218.262	87.6338	218.262	84.9107	218.262	87.1447	218.262	85.0629	218.262	86.8413	218.262	85.4856	218.262	86.7126	218.262	85.9862	218.262	86.6145	218.262	86.3889
225.586	93.9262	225.586	93.5238	225.586	94.2165	225.586	93.0198	225.586	94.3868	225.586	92.4258	225.586	94.432	225.586	91.7549	225.586	94.3479	225.586	91.0222	225.586	94.1257	225.586	90.2463	225.586	93.7464	225.586	89.4523	225.586	93.1841	225.586	88.6749	225.586	92.4288	225.586	87.9606	225.586	91.5274	225.586	87.366	225.586	90.6171	225.586	86.9479	225.586	89.8911	225.586	86.7504	225.586	89.4675	225.586	86.7907	225.586	89.3078	225.586	87.0507	225.586	89.2942	225.586	87.476	225.586	89.3183	225.586	87.9836	225.586	89.2951	225.586	88.4807	225.586	89.1624	225.586	88.8889
232.91	93.7319	232.91	93.2571	232.91	94.0612	232.91	92.6526	232.91	94.2383	232.91	91.9453	232.91	94.2607	232.91	91.1703	232.91	94.1221	232.91	90.3658	232.91	93.8057	232.91	89.563	232.91	93.2827	232.91	88.7777	232.91	92.5184	232.91	88.0089	232.91	91.4924	232.91	87.2521	232.91	90.2435	232.91	86.5288	232.91	88.9625	232.91	85.9242	232.91	88.0602	232.91	85.6037	232.91	87.9029	232.91	85.7389	232.91	88.3523	232.91	86.3511	232.91	88.9873	232.91	87.2619	232.91	89.5317	232.91	88.2273	232.91	89.8616	232.91	89.0574	232.91	89.9079	232.91	89.6368
241.699	94.4361	241.699	94.0276	241.699	94.7084	241.699	93.4957	241.699	94.8307	241.699	92.8544	241.699	94.7861	241.699	92.1206	241.699	94.5539	241.699	91.3149	241.699	94.1079	241.699	90.4578	241.699	93.4162	241.699	89.5645	241.699	92.4465	241.699	88.6392	241.699	91.1967	241.699	87.6773	241.699	89.7692	241.699	86.6826	241.699	88.4482	241.699	85.7118	241.699	87.57	241.699	84.9478	241.699	87.1966	241.699	84.7166	241.699	87.2116	241.699	85.2403	241.699	87.6073	241.699	86.3197	241.699	88.2861	241.699	87.52	241.699	88.9296	241.699	88.5078	241.699	89.2464	241.699	89.108
250.488	94.8882	250.488	94.3922	250.488	95.205	250.488	93.7378	250.488	95.327	250.488	92.9499	250.488	95.2444	250.488	92.0571	250.488	94.9542	250.488	91.0914	250.488	94.4554	250.488	90.0884	250.488	93.7393	250.488	89.0867	250.488	92.7827	250.488	88.1246	250.488	91.5609	250.488	87.2337	250.488	90.0863	250.488	86.4326	250.488	88.4571	250.488	85.7255	250.488	86.8786	250.488	85.1105	250.488	85.6003	250.488	84.5979	250.488	84.7701	250.488	84.2292	250.488	84.3756	250.488	84.0705	250.488	84.3254	250.488	84.1492	250.488	84.4708	250.488	84.3767	250.488	84.6057	250.488	84.5754
259.277	94.877	259.277	94.4003	259.277	95.1679	259.277	93.7491	259.277	95.2727	259.277	92.9473	259.277	95.1999	259.277	92.0313	259.277	94.9593	259.277	91.0493	259.277	94.5451	259.277	90.0537	259.277	93.9161	259.277	89.0912	259.277	92.9892	259.277	88.1925	259.277	91.6747	259.277	87.3721	259.277	89.9842	259.277	86.6441	259.277	88.2407	259.277	86.0528	259.277	87.1452	259.277	85.7031	259.277	87.0252	259.277	85.7396	259.277	87.4147	259.277	86.2264	259.277	87.9094	259.277	87.0338	259.277	88.4073	259.277	87.9059	259.277	88.8387	259.277	88.6121	259.277	89.0787	259.277	89.0171
268.066	95.0487	268.066	94.5946	268.066	95.3391	268.066	93.9792	268.066	95.4717	268.066	93.2151	268.066	95.4551	268.066	92.3263	268.066	95.291	268.066	91.3499	268.066	94.9605	268.066	90.3357	268.066	94.4156	268.066	89.3368	268.066	93.5822	268.066	88.3903	268.066	92.3806	268.066	87.4979	268.066	90.7719	268.066	86.6273	268.066	88.8572	268.066	85.7486	268.066	87.0265	268.066	84.9019	268.066	85.8537	268.066	84.27	268.066	85.4753	268.066	84.132	268.066	85.5503	268.066	84.573	268.066	85.8342	268.066	85.3181	268.066	86.1904	268.066	85.9988	268.066	86.4329	268.066	86.3915
276.855	93.995	276.855	93.6308	276.855	94.2035	276.855	93.1274	276.855	94.2518	276.855	92.5126	276.855	94.1427	276.855	91.8194	276.855	93.8781	276.855	91.077	276.855	93.4484	276.855	90.3047	276.855	92.8256	276.855	89.5111	276.855	91.9667	276.855	88.695	276.855	90.8455	276.855	87.8476	276.855	89.5262	276.855	86.961	276.855	88.2468	276.855	86.0615	276.855	87.3588	276.855	85.2772	276.855	87.0692	276.855	84.8907	276.855	87.3253	276.855	85.1788	276.855	87.8885	276.855	86.0638	276.855	88.4634	276.855	87.1535	276.855	88.8529	276.855	88.0976	276.855	88.9588	276.855	88.7163
287.109	93.0988	287.109	92.6363	287.109	93.3448	287.109	91.9602	287.109	93.3868	287.109	91.0939	287.109	93.2517	287.109	90.0911	287.109	92.975	287.109	89.0448	287.109	92.5852	287.109	88.0786	287.109	92.076	287.109	87.3075	287.109	91.3846	287.109	86.7827	287.109	90.4104	287.109	86.4634	287.109	89.113	287.109	86.2414	287.109	87.6886	287.109	85.991	287.109	86.5915	287.109	85.6276	287.109	86.0385	287.109	85.1917	287.109	85.9166	287.109	84.9438	287.109	86.3371	287.109	85.2563	287.109	87.1957	287.109	86.1475	287.109	87.9471	287.109	87.1853	287.109	88.2236	287.109	87.9478
297.363	93.638	297.363	93.283	297.363	93.7897	297.363	92.728	297.363	93.7468	297.363	91.9896	297.363	93.5234	297.363	91.0953	297.363	93.1293	297.363	90.0803	297.363	92.5618	297.363	88.9853	297.363	91.8029	297.363	87.8555	297.363	90.8208	297.363	86.7424	297.363	89.5759	297.363	85.6988	297.363	88.0536	297.363	84.7591	297.363	86.3726	297.363	83.921	297.363	84.9528	297.363	83.1922	297.363	84.3817	297.363	82.7408	297.363	84.753	297.363	82.966	297.363	85.6485	297.363	84.0575	297.363	86.6659	297.363	85.5681	297.363	87.4974	297.363	86.8974	297.363	87.8963	297.363	87.7091
307.617	94.5972	307.617	94.2357	307.617	94.7431	307.617	93.6672	307.617	94.6767	307.617	92.9107	307.617	94.4139	307.617	91.9923	307.617	93.9758	307.617	90.944	307.617	93.3736	307.617	89.8021	307.617	92.5913	307.617	88.6028	307.617	91.5738	307.617	87.3733	307.617	90.2417	307.617	86.1216	307.617	88.5737	307.617	84.8342	307.617	86.7815	307.617	83.4921	307.617	85.3375	307.617	82.1291	307.617	84.3932	307.617	80.9662	307.617	83.5616	307.617	80.5084	307.617	82.7853	307.617	81.0692	307.617	82.5569	307.617	82.1729	307.617	82.9708	307.617	83.1278	307.617	83.4678	307.617	83.5785
319.336	92.6727	319.336	92.2705	319.336	92.9148	319.336	91.7131	319.336	92.9882	319.336	91.0116	319.336	92.8746	319.336	90.1899	319.336	92.5505	319.336	89.2863	319.336	91.9951	319.336	88.355	319.336	91.1942	319.336	87.4688	319.336	90.1304	319.336	86.7071	319.336	88.7713	319.336	86.1151	319.336	87.1141	319.336	85.6575	319.336	85.4291	319.336	85.2218	319.336	84.5642	319.336	84.6865	319.336	84.9987	319.336	84.0343	319.336	85.9037	319.336	83.4945	319.336	86.5829	319.336	83.5274	319.336	86.931	319.336	84.2936	319.336	87.0047	319.336	85.3574	319.336	86.7983	319.336	86.2523
329.59	93.4433	329.59	92.8499	329.59	93.7858	329.59	92.0743	329.59	93.8363	329.59	91.1961	329.59	93.5923	329.59	90.2871	329.59	93.0902	329.59	89.4003	329.59	92.3887	329.59	88.5695	329.59	91.5285	329.59	87.8196	329.59	90.4742	329.59	87.1731	329.59	89.0684	329.59	86.6417	329.59	87.0724	329.59	86.2062	329.59	84.5174	329.59	85.8093	329.59	82.7847	329.59	85.3873	329.59	83.3417	329.59	84.9464	329.59	84.4694	329.59	84.6482	329.59	85.2299	329.59	84.7646	329.59	85.8869	329.59	85.372	329.59	86.5228	329.59	86.1683	329.59	86.8762	329.59	86.7502
341.309	92.0607	341.309	91.5208	341.309	92.2973	341.309	90.6957	341.309	92.2536	341.309	89.6392	341.309	91.9872	341.309	88.4341	341.309	91.5651	341.309	87.1902	341.309	91.0232	341.309	86.0464	341.309	90.3397	341.309	85.1566	341.309	89.4315	341.309	84.6345	341.309	88.1516	341.309	84.4791	341.309	86.2994	341.309	84.5671	341.309	83.8315	341.309	84.729	341.309	81.979	341.309	84.8369	341.309	82.96	341.309	84.86	341.309	84.8978	341.309	84.8873	341.309	86.0378	341.309	85.0674	341.309	86.3652	341.309	85.437	341.309	86.3069	341.309	85.8397	341.309	86.2106	341.309	86.0988
353.027	92.6802	353.027	91.9599	353.027	93.0578	353.027	90.928	353.027	93.0914	353.027	89.6492	353.027	92.8096	353.027	88.22	353.027	92.2707	353.027	86.7546	353.027	91.5523	353.027	85.373	353.027	90.7217	353.027	84.2149	353.027	89.7855	353.027	83.4552	353.027	88.6151	353.027	83.2184	353.027	86.9007	353.027	83.4262	353.027	84.3179	353.027	83.8403	353.027	81.7859	353.027	84.2964	353.027	82.7808	353.027	84.8563	353.027	85.5847	353.027	85.7344	353.027	87.8272	353.027	86.9959	353.027	89.3865	353.027	88.3972	353.027	90.3277	353.027	89.6067	353.027	90.6585	353.027	90.3994
366.211	91.7366	366.211	91.3602	366.211	91.7032	366.211	90.5557	366.211	91.3541	366.211	89.3736	366.211	90.8367	366.211	87.9233	366.211	90.2754	366.211	86.3528	366.211	89.7001	366.211	84.8037	366.211	89.0849	366.211	83.3526	366.211	88.4248	366.211	82.0164	366.211	87.6701	366.211	80.8625	366.211	86.5594	366.211	80.1098	366.211	84.5773	366.211	79.9779	366.211	81.1004	366.211	80.4134	366.211	77.1129	366.211	81.2522	366.211	79.2236	366.211	82.492	366.211	82.9121	366.211	84.0883	366.211	85.3402	366.211	85.7205	366.211	86.8428	366.211	86.9932	366.211	87.608	366.211	87.655
379.395	94.2673	379.395	93.6925	379.395	94.5505	379.395	92.8223	379.395	94.5351	379.395	91.6628	379.395	94.1931	379.395	90.2417	379.395	93.4876	379.395	88.5978	379.395	92.4053	379.395	86.7536	379.395	91.0065	379.395	84.7039	379.395	89.4508	379.395	82.4789	379.395	87.8955	379.395	80.3885	379.395	86.2247	379.395	79.2603	379.395	83.8658	379.395	79.4453	379.395	80.6154	379.395	80.0157	379.395	80.6607	379.395	80.3409	379.395	84.1178	379.395	80.9411	379.395	86.6398	379.395	82.7434	379.395	88.1531	379.395	85.2181	379.395	88.976	379.395	87.3137	379.395	89.1626	379.395	88.6362
392.578	94.1197	392.578	93.558	392.578	94.2813	392.578	92.629	392.578	94.0568	392.578	91.4028	392.578	93.5061	392.578	89.9713	392.578	92.7199	392.578	88.4269	392.578	91.7919	392.578	86.8322	392.578	90.7897	392.578	85.1894	392.578	89.762	392.578	83.4424	392.578	88.8051	392.578	81.5788	392.578	87.9855	392.578	79.9157	392.578	86.9667	392.578	79.2243	392.578	84.9159	392.578	79.6168	392.578	80.4462	392.578	80.1755	392.578	66.8086	392.578	80.4543	392.578	75.7619	392.578	81.0319	392.578	82.3923	392.578	82.6304	392.578	85.2308	392.578	84.6105	392.578	86.2724	392.578	85.9794
405.762	94.2341	405.762	93.7221	405.762	94.4716	405.762	92.9892	405.762	94.4053	405.762	92.0848	405.762	94.0466	405.762	91.0334	405.762	93.4396	405.762	89.8346	405.762	92.6157	405.762	88.4809	405.762	91.5394	405.762	86.9738	405.762	90.1417	405.762	85.3214	405.762	88.4534	405.762	83.5296	405.762	86.6983	405.762	81.6699	405.762	85.2352	405.762	80.1718	405.762	84.4034	405.762	79.9095	405.762	84.068	405.762	80.868	405.762	83.4422	405.762	82.0403	405.762	82.2481	405.762	82.9716	405.762	81.7017	405.762	83.7724	405.762	82.8025	405.762	84.4718	405.762	84.1634	405.762	84.7306
420.41	94.2099	420.41	93.5847	420.41	94.4844	420.41	92.618	420.41	94.4312	420.41	91.3509	420.41	94.0981	420.41	89.8625	420.41	93.5229	420.41	88.2855	420.41	92.685	420.41	86.8103	420.41	91.5164	420.41	85.6107	420.41	90.0118	420.41	84.6728	420.41	88.3497	420.41	83.7422	420.41	86.8604	420.41	82.5205	420.41	85.5749	420.41	80.9278	420.41	83.9109	420.41	79.3602	420.41	81.5356	420.41	78.5933	420.41	79.9847	420.41	78.8267	420.41	80.8633	420.41	79.8965	420.41	82.5672	420.41	81.8234	420.41	84.2059	420.41	83.8769	420.41	85.2222	420.41	85.1389
435.059	95.0413	435.059	94.4236	435.059	95.1962	435.059	93.3299	435.059	94.9689	435.059	91.8461	435.059	94.45	435.059	90.1626	435.059	93.6784	435.059	88.5218	435.059	92.6368	435.059	87.0845	435.059	91.3114	435.059	85.8319	435.059	89.7766	435.059	84.6685	435.059	88.3043	435.059	83.6452	435.059	87.1735	435.059	82.9902	435.059	86.019	435.059	82.7135	435.059	84.3552	435.059	82.3285	435.059	83.2373	435.059	81.2195	435.059	83.4856	435.059	79.2514	435.059	84.1012	435.059	78.7055	435.059	85.2795	435.059	81.7127	435.059	86.5796	435.059	84.7476	435.059	87.1047	435.059	86.5336
451.172	94.367	451.172	93.7228	451.172	94.5844	451.172	92.6759	451.172	94.4543	451.172	91.3723	451.172	94.0828	451.172	90.0171	451.172	93.5165	451.172	88.7499	451.172	92.7229	451.172	87.5558	451.172	91.6894	451.172	86.2877	451.172	90.5516	451.172	84.7426	451.172	89.5959	451.172	82.7533	451.172	88.9366	451.172	80.585	451.172	87.9777	451.172	79.9144	451.172	85.7336	451.172	81.4952	451.172	81.8342	451.172	83.1061	451.172	78.8556	451.172	83.5507	451.172	79.0492	451.172	82.6071	451.172	80.0074	451.172	80.8032	451.172	81.4932	451.172	80.4006	451.172	82.3212	451.172	81.7312
465.82	94.6511	465.82	94.1319	465.82	94.8209	465.82	93.338	465.82	94.5803	465.82	92.2949	465.82	93.9746	465.82	90.9797	465.82	93.151	465.82	89.3888	465.82	92.1606	465.82	87.6557	465.82	90.8144	465.82	86.0768	465.82	88.9004	465.82	84.7927	465.82	86.6299	465.82	83.4484	465.82	85.0691	465.82	81.4727	465.82	84.9709	465.82	78.8192	465.82	85.4637	465.82	77.6413	465.82	85.7947	465.82	79.2797	465.82	85.3042	465.82	80.8307	465.82	83.1862	465.82	81.5095	465.82	79.4061	465.82	81.9763	465.82	79.1717	465.82	82.6808	465.82	81.9217	465.82	82.9913
483.398	93.4298	483.398	92.683	483.398	93.7694	483.398	91.5571	483.398	93.7648	483.398	90.1503	483.398	93.4988	483.398	88.5896	483.398	92.9473	483.398	87.0147	483.398	92.0172	483.398	85.5812	483.398	90.7138	483.398	84.392	483.398	89.0793	483.398	83.2953	483.398	87.2389	483.398	81.8502	483.398	85.7245	483.398	79.6607	483.398	84.0356	483.398	77.3697	483.398	81.3244	483.398	77.8237	483.398	82.3656	483.398	79.9423	483.398	84.6268	483.398	80.8942	483.398	84.554	483.398	79.9725	483.398	83.2405	483.398	77.389	483.398	82.4147	483.398	77.1227	483.398	81.883	483.398	80.1414
499.512	90.7267	499.512	90.1749	499.512	91.1164	499.512	89.5412	499.512	91.2915	499.512	88.8916	499.512	91.1817	499.512	88.2038	499.512	90.7609	499.512	87.4194	499.512	90.1208	499.512	86.548	499.512	89.2297	499.512	85.6999	499.512	87.9131	499.512	84.9622	499.512	86.5104	499.512	84.115	499.512	85.7421	499.512	82.554	499.512	84.7445	499.512	79.4134	499.512	81.435	499.512	74.9922	499.512	75.5944	499.512	78.2379	499.512	78.7914	499.512	82.6144	499.512	81.5613	499.512	84.6642	499.512	82.2197	499.512	84.995	499.512	82.1869	499.512	84.174	499.512	82.2786	499.512	82.9879
517.09	92.9915	517.09	92.6366	517.09	92.9414	517.09	91.8936	517.09	92.5423	517.09	90.7846	517.09	91.9767	517.09	89.3419	517.09	91.4093	517.09	87.6848	517.09	90.705	517.09	86.0537	517.09	89.5785	517.09	84.6531	517.09	87.9327	517.09	83.536	517.09	85.7654	517.09	82.795	517.09	83.2575	517.09	82.45	517.09	81.5861	517.09	81.9839	517.09	80.8294	517.09	80.5352	517.09	79.0192	517.09	77.5158	517.09	76.926	517.09	75.7886	517.09	78.2833	517.09	79.6067	517.09	81.3619	517.09	83.1182	517.09	83.8848	517.09	85.1719	517.09	85.4628	517.09	85.9311
536.133	93.576	536.133	93.1117	536.133	93.6048	536.133	92.2603	536.133	93.1867	536.133	91.0312	536.133	92.4688	536.133	89.4173	536.133	91.6118	536.133	87.4759	536.133	90.4706	536.133	85.4324	536.133	88.8787	536.133	83.6849	536.133	87.0521	536.133	82.4615	536.133	85.4609	536.133	81.5259	536.133	84.127	536.133	80.5857	536.133	82.7393	536.133	79.7579	536.133	82.5179	536.133	79.6958	536.133	82.5933	536.133	80.8578	536.133	81.8981	536.133	82.3616	536.133	81.7996	536.133	83.0968	536.133	81.9523	536.133	82.8456	536.133	82.7276	536.133	82.5822	536.133	83.4248	536.133	83.1416
555.176	91.3767	555.176	91.4929	555.176	91.1109	555.176	91.3697	555.176	90.9207	555.176	90.9232	555.176	90.9549	555.176	90.1008	555.176	90.9129	555.176	88.9643	555.176	90.466	555.176	87.6392	555.176	89.489	555.176	86.2252	555.176	87.9882	555.176	84.8193	555.176	86.5966	555.176	83.4193	555.176	85.9578	555.176	81.6035	555.176	84.58	555.176	78.6996	555.176	80.9315	555.176	76.4619	555.176	80.9166	555.176	79.5315	555.176	82.9441	555.176	82.4876	555.176	81.5962	555.176	83.2326	555.176	75.7289	555.176	81.5272	555.176	67.6789	555.176	77.0752	555.176	73.9121	555.176	73.7045
574.219	93.642	574.219	93.3917	574.219	93.6041	574.219	92.8199	574.219	93.3468	574.219	91.9694	574.219	92.8852	574.219	90.8644	574.219	92.2847	574.219	89.4863	574.219	91.6167	574.219	87.8486	574.219	90.6288	574.219	86.0252	574.219	88.9791	574.219	84.1738	574.219	86.9806	574.219	82.5577	574.219	85.5707	574.219	81.0489	574.219	84.0191	574.219	78.6201	574.219	80.8718	574.219	74.293	574.219	80.2963	574.219	76.2049	574.219	82.8861	574.219	81.254	574.219	83.9884	574.219	83.5755	574.219	83.3167	574.219	84.0322	574.219	82.8233	574.219	83.879	574.219	83.7335	574.219	84.039
594.727	93.5439	594.727	93.3271	594.727	93.6337	594.727	93.0032	594.727	93.501	594.727	92.3744	594.727	93.227	594.727	91.2355	594.727	92.7972	594.727	89.5699	594.727	91.8305	594.727	87.6486	594.727	90.006	594.727	86.0396	594.727	87.5955	594.727	85.0962	594.727	85.6931	594.727	84.4199	594.727	84.7862	594.727	83.3252	594.727	83.3316	594.727	81.2314	594.727	79.7054	594.727	77.408	594.727	77.5828	594.727	72.779	594.727	82.7885	594.727	77.4532	594.727	85.5413	594.727	81.8334	594.727	85.2648	594.727	83.7599	594.727	83.2236	594.727	83.9554	594.727	82.1243	594.727	83.034
615.234	93.6932	615.234	94.0718	615.234	93.2814	615.234	94.1101	615.234	93.0245	615.234	93.5073	615.234	92.8401	615.234	92.0543	615.234	92.3322	615.234	89.7757	615.234	91.0347	615.234	87.1403	615.234	88.7142	615.234	84.992	615.234	85.1512	615.234	83.7281	615.234	81.0044	615.234	83.251	615.234	83.0947	615.234	83.4631	615.234	85.1828	615.234	83.5227	615.234	83.6735	615.234	82.0276	615.234	79.572	615.234	77.5656	615.234	80.583	615.234	77.3191	615.234	83.5166	615.234	82.4083	615.234	82.7427	615.234	84.0085	615.234	80.0265	615.234	83.0494	615.234	79.7367	615.234	81.1388
637.207	95.7619	637.207	96.0004	637.207	95.3089	637.207	95.7232	637.207	94.809	637.207	94.735	637.207	94.1296	637.207	93.0112	637.207	93.0986	637.207	90.6865	637.207	91.8433	637.207	88.0321	637.207	90.3876	637.207	85.3848	637.207	88.1238	637.207	83.2007	637.207	84.5876	637.207	82.0313	637.207	82.1418	637.207	81.6542	637.207	82.0337	637.207	81.0514	637.207	80.7606	637.207	79.3119	637.207	77.724	637.207	76.7329	637.207	80.6769	637.207	79.1484	637.207	85.4043	637.207	83.1223	637.207	85.7048	637.207	84.5129	637.207	84.4801	637.207	84.0324	637.207	84.2532	637.207	83.7935
659.18	95.7613	659.18	95.356	659.18	95.6327	659.18	94.4216	659.18	94.9098	659.18	92.9549	659.18	93.6047	659.18	91.0608	659.18	91.833	659.18	88.8474	659.18	89.8157	659.18	86.2577	659.18	88.0868	659.18	83.3691	659.18	86.4029	659.18	80.7628	659.18	83.5755	659.18	78.6652	659.18	79.4884	659.18	77.0227	659.18	77.7641	659.18	77.2424	659.18	78.3244	659.18	78.6267	659.18	74.7476	659.18	78.6982	659.18	66.2928	659.18	77.0174	659.18	77.5326	659.18	75.2591	659.18	81.9519	659.18	77.1321	659.18	82.8298	659.18	80.2356	659.18	81.9236	659.18	81.5395
682.617	94.9075	682.617	94.9387	682.617	94.3117	682.617	94.237	682.617	93.3241	682.617	92.7686	682.617	91.8882	682.617	90.6307	682.617	89.7607	682.617	88.006	682.617	87.2925	682.617	85.1546	682.617	85.5368	682.617	82.4016	682.617	83.5832	682.617	79.8412	682.617	80.7616	682.617	77.2617	682.617	80.4074	682.617	75.1055	682.617	81.7505	682.617	74.0107	682.617	81.4065	682.617	72.5375	682.617	77.907	682.617	69.4774	682.617	74.189	682.617	76.2397	682.617	79.1502	682.617	81.8287	682.617	79.3197	682.617	83.4056	682.617	78.2057	682.617	81.5577	682.617	77.5243	682.617	78.0323
707.52	94.121	707.52	94.0688	707.52	93.4222	707.52	93.3609	707.52	91.8263	707.52	92.0263	707.52	89.1138	707.52	89.9953	707.52	85.1174	707.52	87.1566	707.52	82.975	707.52	83.5612	707.52	84.9799	707.52	79.6077	707.52	85.1517	707.52	76.4111	707.52	82.6697	707.52	75.7273	707.52	79.5005	707.52	75.3634	707.52	77.7909	707.52	73.633	707.52	78.794	707.52	72.9298	707.52	77.9669	707.52	71.9113	707.52	71.502	707.52	72.6902	707.52	76.2812	707.52	79.5485	707.52	78.0945	707.52	82.5598	707.52	78.4609	707.52	82.0797	707.52	79.9914	707.52	80.2789
732.422	94.5387	732.422	94.8091	732.422	93.4252	732.422	94.1676	732.422	91.3556	732.422	92.68	732.422	87.6194	732.422	90.5509	732.422	82.2716	732.422	87.9088	732.422	83.9678	732.422	84.7131	732.422	86.3544	732.422	80.9917	732.422	86.19	732.422	77.379	732.422	83.9884	732.422	75.0812	732.422	81.5391	732.422	73.8521	732.422	80.3058	732.422	73.1989	732.422	79.1963	732.422	74.2158	732.422	78.4142	732.422	73.3197	732.422	71.8959	732.422	69.0624	732.422	76.0062	732.422	78.6727	732.422	77.975	732.422	82.8022	732.422	75.1719	732.422	82.3095	732.422	75.4937	732.422	78.0929
757.324	94.346	757.324	94.7902	757.324	92.9734	757.324	94.2398	757.324	90.4577	757.324	92.6446	757.324	85.7163	757.324	90.1737	757.324	76.7761	757.324	87.3515	757.324	83.0119	757.324	84.6015	757.324	87.111	757.324	81.5042	757.324	87.0374	757.324	77.3964	757.324	84.5385	757.324	73.1677	757.324	82.2302	757.324	72.2367	757.324	79.4156	757.324	74.9391	757.324	78.4839	757.324	76.9369	757.324	79.8428	757.324	75.6468	757.324	77.5207	757.324	69.0015	757.324	66.2544	757.324	75.7419	757.324	74.3456	757.324	81.4968	757.324	78.4743	757.324	83.3934	757.324	80.9893	757.324	82.9261
785.156	94.4066	785.156	95.021	785.156	92.551	785.156	94.527	785.156	89.1401	785.156	93.1277	785.156	83.1023	785.156	91.0774	785.156	71.345	785.156	88.5044	785.156	82.9668	785.156	85.612	785.156	87.47	785.156	83.0968	785.156	88.0633	785.156	81.2744	785.156	85.9435	785.156	79.0487	785.156	83.5584	785.156	76.5961	785.156	81.7473	785.156	76.5789	785.156	78.4267	785.156	77.0684	785.156	79.0708	785.156	76.9155	785.156	70.7522	785.156	73.6781	785.156	72.0717	785.156	72.6022	785.156	71.1808	785.156	80.5639	785.156	74.0027	785.156	81.9724	785.156	79.5628	785.156	80.3498
811.523	94.478	811.523	95.2697	811.523	92.5007	811.523	95.0282	811.523	88.9677	811.523	93.9716	811.523	81.3859	811.523	92.3251	811.523	78.5683	811.523	90.2239	811.523	87.7741	811.523	87.7271	811.523	90.2346	811.523	85.0919	811.523	89.654	811.523	82.8525	811.523	86.4504	811.523	80.777	811.523	82.9746	811.523	77.6846	811.523	82.0828	811.523	76.042	811.523	80.7731	811.523	76.1367	811.523	81.3377	811.523	77.0075	811.523	81.7689	811.523	78.4197	811.523	74.4366	811.523	77.7336	811.523	68.7273	811.523	82.0106	811.523	73.9572	811.523	83.3842	811.523	75.5241	811.523	79.1547
840.82	94.0587	840.82	95.3432	840.82	91.305	840.82	95.2734	840.82	86.9837	840.82	94.0843	840.82	80.2682	840.82	92.0723	840.82	81.3194	840.82	89.6177	840.82	88.4572	840.82	87.1418	840.82	91.654	840.82	85.0472	840.82	91.6355	840.82	83.1097	840.82	88.173	840.82	81.1704	840.82	82.7686	840.82	80.528	840.82	81.7434	840.82	80.7567	840.82	81.1853	840.82	79.8504	840.82	81.025	840.82	79.2034	840.82	79.2221	840.82	79.1808	840.82	73.4443	840.82	76.3136	840.82	69.6546	840.82	79.4941	840.82	71.5138	840.82	81.69	840.82	76.3419	840.82	78.3779
870.117	94.4613	870.117	95.6876	870.117	92.1468	870.117	95.7235	870.117	88.7369	870.117	94.6541	870.117	83.5241	870.117	92.8619	870.117	84.9336	870.117	90.7391	870.117	90.7731	870.117	88.381	870.117	93.1619	870.117	85.9108	870.117	92.6688	870.117	83.6776	870.117	90.116	870.117	81.9895	870.117	86.9579	870.117	79.4189	870.117	84.5113	870.117	75.5256	870.117	80.8069	870.117	77.0011	870.117	80.8501	870.117	79.49	870.117	80.6655	870.117	80.7246	870.117	70.9581	870.117	80.2211	870.117	66.4415	870.117	82.6377	870.117	77.1151	870.117	83.6536	870.117	80.2923	870.117	79.9308
900.879	94.3773	900.879	95.9375	900.879	91.4999	900.879	95.8553	900.879	88.5675	900.879	94.6786	900.879	85.5421	900.879	92.8494	900.879	85.5118	900.879	90.3844	900.879	91.0311	900.879	87.9225	900.879	93.7472	900.879	86.5643	900.879	93.3226	900.879	85.569	900.879	89.8949	900.879	84.1918	900.879	85.6625	900.879	83.5723	900.879	85.2083	900.879	82.146	900.879	84.3014	900.879	78.7214	900.879	84.2834	900.879	73.64	900.879	81.7534	900.879	76.2968	900.879	70.9231	900.879	77.6226	900.879	72.6705	900.879	80.3731	900.879	65.3898	900.879	83.8138	900.879	69.604	900.879	79.7742
933.105	94.3639	933.105	95.5561	933.105	92.1016	933.105	95.5482	933.105	88.7291	933.105	94.5333	933.105	86.4647	933.105	93.0351	933.105	89.8022	933.105	91.0656	933.105	92.9744	933.105	88.2533	933.105	94.4824	933.105	85.0163	933.105	94.3183	933.105	81.7547	933.105	91.7698	933.105	77.7465	933.105	86.1992	933.105	77.1695	933.105	81.4829	933.105	80.0989	933.105	80.3257	933.105	82.0402	933.105	81.8067	933.105	80.1806	933.105	83.8976	933.105	76.5234	933.105	75.2337	933.105	81.012	933.105	62.8285	933.105	81.9519	933.105	75.2708	933.105	83.9375	933.105	75.4357	933.105	80.6028
965.332	94.0812	965.332	95.662	965.332	91.2409	965.332	95.583	965.332	89.7319	965.332	94.6495	965.332	89.4873	965.332	93.22	965.332	90.892	965.332	91.302	965.332	93.875	965.332	89.4169	965.332	94.9594	965.332	87.7841	965.332	94.0776	965.332	86.2864	965.332	92.0371	965.332	84.3057	965.332	88.5826	965.332	82.7362	965.332	85.7524	965.332	81.7434	965.332	84.4885	965.332	77.0727	965.332	83.4909	965.332	72.236	965.332	80.8926	965.332	77.6087	965.332	72.367	965.332	77.5569	965.332	68.3135	965.332	78.8942	965.332	63.8473	965.332	83.0481	965.332	69.9707	965.332	79.4113
1000.49	94.3386	1000.49	95.8353	1000.49	91.5792	1000.49	95.7269	1000.49	89.1701	1000.49	94.6046	1000.49	89.4779	1000.49	93.1199	1000.49	91.8532	1000.49	91.34	1000.49	94.3086	1000.49	89.4256	1000.49	95.828	1000.49	87.1989	1000.49	95.2989	1000.49	84.533	1000.49	91.9084	1000.49	82.7623	1000.49	86.2883	1000.49	80.9977	1000.49	85.8999	1000.49	82.4333	1000.49	85.3253	1000.49	83.835	1000.49	82.6962	1000.49	82.8215	1000.49	84.5234	1000.49	74.3914	1000.49	70.5128	1000.49	81.7217	1000.49	75.9054	1000.49	80.2186	1000.49	74.9989	1000.49	82.1493	1000.49	77.3643	1000.49	82.5382
1035.64	94.6623	1035.64	95.7831	1035.64	91.6304	1035.64	95.6027	1035.64	90.5653	1035.64	94.7629	1035.64	91.9172	1035.64	93.2371	1035.64	92.2246	1035.64	91.8889	1035.64	94.7629	1035.64	90.8387	1035.64	96.0832	1035.64	89.0451	1035.64	94.63	1035.64	86.5232	1035.64	92.3809	1035.64	84.8741	1035.64	87.6055	1035.64	83.0023	1035.64	83.192	1035.64	82.172	1035.64	84.0485	1035.64	80.8237	1035.64	83.8721	1035.64	76.6698	1035.64	82.543	1035.64	77.8245	1035.64	71.3892	1035.64	78.0364	1035.64	71.4948	1035.64	79.776	1035.64	79.2049	1035.64	83.1031	1035.64	76.0502	1035.64	79.5486
1072.27	94.8172	1072.27	95.7162	1072.27	92.6162	1072.27	95.9297	1072.27	90.985	1072.27	95.3475	1072.27	92.3082	1072.27	94.0136	1072.27	93.8584	1072.27	92.6751	1072.27	95.2071	1072.27	90.9069	1072.27	95.9825	1072.27	89.1455	1072.27	95.3689	1072.27	87.3393	1072.27	92.601	1072.27	84.8001	1072.27	88.2998	1072.27	83.4809	1072.27	86.1668	1072.27	82.5362	1072.27	85.4354	1072.27	83.3501	1072.27	83.7557	1072.27	83.446	1072.27	84.3458	1072.27	79.3191	1072.27	71.7038	1072.27	79.9031	1072.27	74.7102	1072.27	83.2156	1072.27	67.7421	1072.27	79.6465	1072.27	76.2526	1072.27	82.1823
1108.89	95.3863	1108.89	95.8665	1108.89	93.3911	1108.89	95.7171	1108.89	92.3119	1108.89	95.1847	1108.89	94.1129	1108.89	94.6343	1108.89	94.3753	1108.89	93.7991	1108.89	95.6922	1108.89	91.6218	1108.89	97.1333	1108.89	90.5581	1108.89	95.4744	1108.89	89.9861	1108.89	92.7051	1108.89	87.121	1108.89	85.5633	1108.89	85.0719	1108.89	83.5231	1108.89	83.9849	1108.89	86.5606	1108.89	82.9548	1108.89	83.6203	1108.89	79.8541	1108.89	82.5414	1108.89	81.5583	1108.89	64.4613	1108.89	77.5292	1108.89	79.2617	1108.89	80.9002	1108.89	77.3739	1108.89	82.5736	1108.89	75.3029	1108.89	84.426
1148.44	94.3623	1148.44	94.9908	1148.44	93.8708	1148.44	95.952	1148.44	93.003	1148.44	95.854	1148.44	94.2078	1148.44	94.7416	1148.44	95.6382	1148.44	93.1673	1148.44	96.2039	1148.44	92.5386	1148.44	96.585	1148.44	91.1773	1148.44	95.6274	1148.44	87.9963	1148.44	93.6117	1148.44	85.0788	1148.44	90.2642	1148.44	79.2729	1148.44	82.1724	1148.44	81.8219	1148.44	83.0965	1148.44	84.3825	1148.44	81.006	1148.44	84.6716	1148.44	80.0219	1148.44	83.8691	1148.44	75.0687	1148.44	75.4872	1148.44	78.6607	1148.44	85.019	1148.44	73.0841	1148.44	82.2644	1148.44	77.5586	1148.44	83.1407
1189.45	93.7172	1189.45	94.412	1189.45	93.5382	1189.45	96.0583	1189.45	93.1952	1189.45	96.3701	1189.45	95.2844	1189.45	95.4507	1189.45	95.5975	1189.45	93.6551	1189.45	95.5444	1189.45	92.0631	1189.45	97.8028	1189.45	90.9288	1189.45	96.0296	1189.45	90.0632	1189.45	91.7058	1189.45	88.0758	1189.45	87.6535	1189.45	86.4328	1189.45	87.1006	1189.45	83.7404	1189.45	85.4125	1189.45	84.1509	1189.45	85.0999	1189.45	82.4941	1189.45	80.9559	1189.45	79.4868	1189.45	74.9358	1189.45	78.996	1189.45	77.8736	1189.45	80.8651	1189.45	78.1092	1189.45	82.0847	1189.45	80.9149	1189.45	84.8736
1230.47	94.1045	1230.47	95.1234	1230.47	94.2608	1230.47	95.5321	1230.47	94.8114	1230.47	95.9125	1230.47	94.7868	1230.47	95.4891	1230.47	95.3106	1230.47	94.3301	1230.47	95.3528	1230.47	92.72	1230.47	96.0918	1230.47	89.1006	1230.47	95.5834	1230.47	88.3361	1230.47	92.5916	1230.47	87.5706	1230.47	88.8335	1230.47	83.4598	1230.47	80.2988	1230.47	78.0155	1230.47	85.0527	1230.47	81.5675	1230.47	83.0079	1230.47	82.2613	1230.47	73.0898	1230.47	83.0651	1230.47	78.2427	1230.47	81.6368	1230.47	78.2027	1230.47	79.5627	1230.47	71.6486	1230.47	83.3147	1230.47	78.9686	1230.47	82.3974
1274.41	92.6728	1274.41	93.9977	1274.41	94.0462	1274.41	95.1123	1274.41	95.3827	1274.41	95.7424	1274.41	95.388	1274.41	95.6743	1274.41	95.841	1274.41	94.2437	1274.41	94.9089	1274.41	92.2863	1274.41	96.2645	1274.41	90.7909	1274.41	95.8425	1274.41	88.9012	1274.41	90.7485	1274.41	86.628	1274.41	88.3084	1274.41	85.8255	1274.41	86.8615	1274.41	84.8728	1274.41	80.5068	1274.41	80.1549	1274.41	79.9427	1274.41	83.5522	1274.41	78.9483	1274.41	83.2103	1274.41	80.4767	1274.41	78.8067	1274.41	80.6566	1274.41	83.8021	1274.41	65.6522	1274.41	80.1125	1274.41	79.4121	1274.41	81.9026
1319.82	92.9158	1319.82	93.9902	1319.82	94.4959	1319.82	96.0692	1319.82	96.208	1319.82	96.4317	1319.82	96.6708	1319.82	95.9168	1319.82	96.1729	1319.82	94.9869	1319.82	95.938	1319.82	92.2675	1319.82	95.8645	1319.82	91.0797	1319.82	95.4287	1319.82	88.8903	1319.82	93.81	1319.82	86.7858	1319.82	88.0308	1319.82	86.4179	1319.82	80.7832	1319.82	83.6474	1319.82	85.5558	1319.82	81.0406	1319.82	85.2192	1319.82	84.7649	1319.82	79.8343	1319.82	81.2664	1319.82	81.4347	1319.82	81.1395	1319.82	81.4369	1319.82	81.8319	1319.82	60.6932	1319.82	76.1437	1319.82	78.5736	1319.82	83.0473
1366.7	94.6478	1366.7	94.9203	1366.7	96.6391	1366.7	96.3231	1366.7	97.6264	1366.7	96.8168	1366.7	96.6688	1366.7	95.6593	1366.7	96.324	1366.7	94.3878	1366.7	94.6811	1366.7	92.1693	1366.7	95.7647	1366.7	89.9367	1366.7	96.1154	1366.7	89.0806	1366.7	90.4292	1366.7	87.9161	1366.7	88.9727	1366.7	83.2524	1366.7	83.8497	1366.7	83.8582	1366.7	82.2875	1366.7	82.8035	1366.7	81.4898	1366.7	79.0499	1366.7	72.0158	1366.7	82.4858	1366.7	77.0921	1366.7	81.38	1366.7	80.5632	1366.7	77.1954	1366.7	76.8011	1366.7	83.2135	1366.7	80.2951	1366.7	79.3831
1413.57	94.6152	1413.57	95.3032	1413.57	95.8452	1413.57	96.1195	1413.57	97.4269	1413.57	96.5612	1413.57	97.2277	1413.57	96.7447	1413.57	95.1115	1413.57	95.0319	1413.57	94.1343	1413.57	93.1401	1413.57	96.0424	1413.57	91.5333	1413.57	96.4844	1413.57	89.6657	1413.57	94.287	1413.57	87.6796	1413.57	87.9202	1413.57	87.5101	1413.57	84.6284	1413.57	84.0596	1413.57	83.5456	1413.57	82.9196	1413.57	81.7492	1413.57	78.621	1413.57	81.017	1413.57	84.5356	1413.57	79.0447	1413.57	81.0258	1413.57	83.414	1413.57	83.0498	1413.57	68.3562	1413.57	83.4526	1413.57	74.5567	1413.57	79.3223
1463.38	94.0228	1463.38	94.3901	1463.38	96.3468	1463.38	95.9671	1463.38	97.4611	1463.38	96.1769	1463.38	97.2694	1463.38	95.4239	1463.38	95.6233	1463.38	94.7905	1463.38	93.3318	1463.38	92.426	1463.38	95.5824	1463.38	91.508	1463.38	96.5548	1463.38	90.8142	1463.38	92.6818	1463.38	88.4677	1463.38	87.0534	1463.38	85.3589	1463.38	87.1637	1463.38	81.0427	1463.38	78.9139	1463.38	84.2017	1463.38	82.0263	1463.38	84.6494	1463.38	76.7155	1463.38	81.1763	1463.38	81.007	1463.38	80.4834	1463.38	81.4578	1463.38	82.4547	1463.38	71.4326	1463.38	82.6809	1463.38	77.9161	1463.38	78.5202
1516.11	94.2895	1516.11	94.0594	1516.11	96.4588	1516.11	94.8196	1516.11	97.9956	1516.11	95.4857	1516.11	96.7827	1516.11	95.012	1516.11	94.8954	1516.11	93.4662	1516.11	93.4952	1516.11	92.184	1516.11	94.4653	1516.11	90.3045	1516.11	95.1108	1516.11	86.8776	1516.11	93.5296	1516.11	84.9835	1516.11	88.3727	1516.11	85.3539	1516.11	83.5605	1516.11	84.8795	1516.11	82.2246	1516.11	83.8408	1516.11	82.6312	1516.11	82.6414	1516.11	78.7311	1516.11	80.7963	1516.11	81.9751	1516.11	80.2102	1516.11	80.0776	1516.11	79.0797	1516.11	67.287	1516.11	79.2301	1516.11	71.8367	1516.11	82.9537
1568.85	93.9856	1568.85	92.4877	1568.85	96.0489	1568.85	93.1754	1568.85	96.973	1568.85	93.4293	1568.85	95.6574	1568.85	94.08	1568.85	92.8603	1568.85	93.4454	1568.85	91.7156	1568.85	92.2394	1568.85	92.616	1568.85	91.1813	1568.85	93.1027	1568.85	89.1281	1568.85	91.2405	1568.85	86.7337	1568.85	86.4429	1568.85	85.081	1568.85	77.9045	1568.85	81.4406	1568.85	81.4657	1568.85	79.5839	1568.85	82.1435	1568.85	80.9418	1568.85	77.4277	1568.85	79.6126	1568.85	73.3836	1568.85	80.7638	1568.85	81.4779	1568.85	77.7207	1568.85	64.3955	1568.85	78.7036	1568.85	67.5323	1568.85	78.4539
1624.51	93.5717	1624.51	91.6674	1624.51	95.5217	1624.51	92.6151	1624.51	96.2132	1624.51	93.6315	1624.51	94.3699	1624.51	93.1686	1624.51	90.9953	1624.51	93.0716	1624.51	89.6859	1624.51	91.7536	1624.51	91.0982	1624.51	89.1823	1624.51	93.0852	1624.51	87.822	1624.51	89.8632	1624.51	86.4357	1624.51	84.494	1624.51	83.3006	1624.51	85.8912	1624.51	79.8607	1624.51	77.1214	1624.51	78.1857	1624.51	75.1105	1624.51	80.8771	1624.51	70.9438	1624.51	78.3656	1624.51	74.4433	1624.51	81.4099	1624.51	75.7854	1624.51	79.1757	1624.51	67.6866	1624.51	80.579	1624.51	72.2749	1624.51	77.1751
1681.64	93.3972	1681.64	92.5064	1681.64	95.1452	1681.64	92.7013	1681.64	95.6476	1681.64	93.5339	1681.64	94.0031	1681.64	93.9886	1681.64	91.0639	1681.64	91.7142	1681.64	89.0865	1681.64	91.2482	1681.64	91.6142	1681.64	88.4716	1681.64	92.1079	1681.64	85.8146	1681.64	91.7534	1681.64	83.9851	1681.64	87.703	1681.64	82.0722	1681.64	77.4186	1681.64	76.9879	1681.64	77.9198	1681.64	78.5308	1681.64	70.36	1681.64	77.8895	1681.64	72.8199	1681.64	74.4078	1681.64	67.3899	1681.64	80.1448	1681.64	75.5317	1681.64	76.5275	1681.64	76.4499	1681.64	80.8632	1681.64	64.4468	1681.64	76.9344
1741.7	93.8202	1741.7	92.6123	1741.7	94.7641	1741.7	92.2813	1741.7	95.1637	1741.7	92.3508	1741.7	93.5558	1741.7	93.6014	1741.7	90.7705	1741.7	92.5601	1741.7	89.6903	1741.7	89.0765	1741.7	90.7799	1741.7	88.2745	1741.7	92.1859	1741.7	84.0539	1741.7	90.4912	1741.7	79.8215	1741.7	84.1701	1741.7	79.8799	1741.7	81.1049	1741.7	78.7139	1741.7	81.5715	1741.7	73.9457	1741.7	69.1452	1741.7	76.4798	1741.7	58.5754	1741.7	77.611	1741.7	64.6083	1741.7	76.2822	1741.7	78.5556	1741.7	75.0257	1741.7	66.387	1741.7	77.7651	1741.7	62.0829	1741.7	74.2349
1803.22	92.7208	1803.22	91.4465	1803.22	94.0912	1803.22	90.9372	1803.22	94.6318	1803.22	92.0735	1803.22	93.996	1803.22	91.7019	1803.22	92.2234	1803.22	91.0241	1803.22	90.4245	1803.22	88.5401	1803.22	90.6512	1803.22	86.2791	1803.22	91.5855	1803.22	84.0559	1803.22	88.987	1803.22	82.5937	1803.22	84.6482	1803.22	82.6884	1803.22	83.4833	1803.22	79.1384	1803.22	74.7496	1803.22	71.5553	1803.22	72.0809	1803.22	70.627	1803.22	75.5813	1803.22	77.2801	1803.22	61.6107	1803.22	72.6777	1803.22	74.8301	1803.22	78.1019	1803.22	70.3106	1803.22	72.3405	1803.22	54.3214	1803.22	76.4781
1866.21	92.6401	1866.21	91.0359	1866.21	93.3974	1866.21	90.4959	1866.21	93.0695	1866.21	91.9333	1866.21	91.9795	1866.21	91.2399	1866.21	90.7207	1866.21	90.1552	1866.21	88.6465	1866.21	88.6841	1866.21	89.5401	1866.21	86.5466	1866.21	88.9485	1866.21	84.6509	1866.21	88.9747	1866.21	82.5612	1866.21	83.6297	1866.21	80.416	1866.21	75.8	1866.21	75.8214	1866.21	77.1073	1866.21	77.1643	1866.21	78.2675	1866.21	56.463	1866.21	75.5393	1866.21	76.0339	1866.21	70.5677	1866.21	70.7351	1866.21	69.9941	1866.21	76.2463	1866.21	69.9954	1866.21	76.1636	1866.21	72.0347	1866.21	76.9074
1932.13	93.0162	1932.13	91.4292	1932.13	93.9836	1932.13	90.5795	1932.13	92.7856	1932.13	91.7635	1932.13	92.1896	1932.13	90.8634	1932.13	90.3221	1932.13	88.6239	1932.13	88.1119	1932.13	87.4073	1932.13	88.4137	1932.13	82.835	1932.13	88.829	1932.13	83.5282	1932.13	86.2658	1932.13	79.7619	1932.13	81.118	1932.13	81.9837	1932.13	77.5075	1932.13	76.4392	1932.13	75.3051	1932.13	75.3889	1932.13	71.59	1932.13	73.418	1932.13	71.14	1932.13	73.5331	1932.13	61.7437	1932.13	65.9944	1932.13	67.8831	1932.13	73.9338	1932.13	71.8413	1932.13	75.3448	1932.13	61.3877	1932.13	76.201
1999.51	93.0933	1999.51	91.7114	1999.51	94.1316	1999.51	90.9066	1999.51	92.8133	1999.51	89.9984	1999.51	91.4277	1999.51	89.6056	1999.51	90.9659	1999.51	88.5666	1999.51	88.4968	1999.51	84.6271	1999.51	88.0517	1999.51	84.044	1999.51	89.2244	1999.51	82.2151	1999.51	86.1601	1999.51	77.6004	1999.51	80.9562	1999.51	79.2081	1999.51	78.9856	1999.51	74.6595	1999.51	65.3008	1999.51	72.3797	1999.51	72.6949	1999.51	73.9501	1999.51	67.8545	1999.51	68.791	1999.51	67.5791	1999.51	73.0238	1999.51	71.404	1999.51	75.0639	1999.51	72.0184	1999.51	74.2426	1999.51	59.551	1999.51	70.7312
2069.82	92.9673	2069.82	91.7049	2069.82	93.8898	2069.82	90.2902	2069.82	93.2303	2069.82	89.4553	2069.82	92.0613	2069.82	89.2927	2069.82	90.5068	2069.82	87.4671	2069.82	88.5834	2069.82	85.9115	2069.82	86.9047	2069.82	81.9316	2069.82	85.4332	2069.82	80.1888	2069.82	84.7092	2069.82	78.9383	2069.82	81.1442	2069.82	75.1425	2069.82	74.095	2069.82	76.5122	2069.82	73.8782	2069.82	72.2509	2069.82	69.4125	2069.82	70.9532	2069.82	70.451	2069.82	68.3328	2069.82	68.6524	2069.82	67.7096	2069.82	67.3609	2069.82	60.5231	2069.82	68.5012	2069.82	69.8	2069.82	66.4617	2069.82	74.5522
2143.07	92.7772	2143.07	92.145	2143.07	93.3377	2143.07	90.7434	2143.07	92.4164	2143.07	89.6912	2143.07	90.6345	2143.07	88.7011	2143.07	89.6376	2143.07	87.4781	2143.07	85.138	2143.07	86.5124	2143.07	83.9866	2143.07	84.641	2143.07	84.6337	2143.07	81.8089	2143.07	82.7191	2143.07	79.0801	2143.07	73.9781	2143.07	76.3304	2143.07	75.6134	2143.07	75.3216	2143.07	72.1925	2143.07	74.5631	2143.07	67.0416	2143.07	66.6034	2143.07	59.1547	2143.07	72.9548	2143.07	67.4747	2143.07	68.6632	2143.07	70.6269	2143.07	73.8869	2143.07	69.8622	2143.07	72.3682	2143.07	59.0548	2143.07	69.2993
2219.24	93.444	2219.24	92.7047	2219.24	93.1249	2219.24	91.2439	2219.24	92.3097	2219.24	89.2902	2219.24	91.803	2219.24	87.7806	2219.24	90.5541	2219.24	87.0367	2219.24	87.1513	2219.24	85.8437	2219.24	83.8228	2219.24	82.5953	2219.24	84.2453	2219.24	80.0311	2219.24	83.5903	2219.24	77.8113	2219.24	80.8325	2219.24	73.8613	2219.24	68.098	2219.24	71.9371	2219.24	72.1436	2219.24	63.6321	2219.24	70.8097	2219.24	66.6852	2219.24	66.078	2219.24	68.8097	2219.24	64.9912	2219.24	65.9823	2219.24	69.6956	2219.24	69.9059	2219.24	65.5921	2219.24	71.0984	2219.24	59.9166	2219.24	72.3124
2296.88	93.4563	2296.88	92.9512	2296.88	93.375	2296.88	90.9377	2296.88	92.5552	2296.88	88.1853	2296.88	91.7737	2296.88	86.7249	2296.88	89.6556	2296.88	85.879	2296.88	84.4142	2296.88	83.3335	2296.88	83.4044	2296.88	80.0594	2296.88	85.0076	2296.88	78.263	2296.88	83.6509	2296.88	76.4611	2296.88	79.8137	2296.88	72.832	2296.88	73.4639	2296.88	70.6128	2296.88	71.3526	2296.88	68.8441	2296.88	70.4786	2296.88	61.2066	2296.88	63.3416	2296.88	64.2234	2296.88	65.3268	2296.88	64.0579	2296.88	59.824	2296.88	67.7456	2296.88	69.2324	2296.88	69.4257	2296.88	65.1249	2296.88	69.1746
2378.91	93.5173	2378.91	93.1185	2378.91	92.6611	2378.91	91.0947	2378.91	91.8087	2378.91	88.0495	2378.91	91.4938	2378.91	86.9887	2378.91	89.8139	2378.91	85.0431	2378.91	85.4266	2378.91	82.4304	2378.91	82.5795	2378.91	80.793	2378.91	84.149	2378.91	76.9418	2378.91	83.1114	2378.91	74.6791	2378.91	79.5193	2378.91	73.2042	2378.91	73.4725	2378.91	70.4207	2378.91	69.84	2378.91	68.0405	2378.91	69.3022	2378.91	64.8928	2378.91	63.5635	2378.91	57.0286	2378.91	65.2437	2378.91	64.5207	2378.91	64.3875	2378.91	67.6846	2378.91	64.856	2378.91	69.9543	2378.91	54.7332	2378.91	65.5582
2462.4	93.9953	2462.4	93.8069	2462.4	93.2651	2462.4	91.7478	2462.4	92.5755	2462.4	89.0515	2462.4	91.7154	2462.4	86.705	2462.4	89.9509	2462.4	84.0957	2462.4	86.9385	2462.4	82.6436	2462.4	82.1735	2462.4	79.2487	2462.4	84.6553	2462.4	75.2718	2462.4	83.1935	2462.4	73.301	2462.4	80.1401	2462.4	72.151	2462.4	69.1394	2462.4	68.2548	2462.4	67.1515	2462.4	67.1282	2462.4	66.8361	2462.4	54.4421	2462.4	68.5948	2462.4	62.2387	2462.4	61.9566	2462.4	60.5851	2462.4	61.4899	2462.4	69.4733	2462.4	67.6951	2462.4	70.5998	2462.4	65.1503	2462.4	68.2755
2548.83	93.9489	2548.83	93.7291	2548.83	93.0705	2548.83	91.7502	2548.83	91.9198	2548.83	88.954	2548.83	91.271	2548.83	85.8074	2548.83	90.0625	2548.83	83.6405	2548.83	87.1738	2548.83	80.0164	2548.83	82.8561	2548.83	77.7524	2548.83	84.7513	2548.83	76.547	2548.83	81.0877	2548.83	73.1684	2548.83	78.1852	2548.83	72.4667	2548.83	73.0598	2548.83	69.0746	2548.83	65.3726	2548.83	68.4126	2548.83	65.0931	2548.83	63.9046	2548.83	65.4243	2548.83	55.6145	2548.83	64.6498	2548.83	62.249	2548.83	65.0554	2548.83	66.2011	2548.83	67.6898	2548.83	68.9485	2548.83	62.4758	2548.83	67.1303
2639.65	93.8532	2639.65	93.7867	2639.65	92.6208	2639.65	92.0856	2639.65	91.837	2639.65	88.9194	2639.65	90.1426	2639.65	85.4964	2639.65	89.5833	2639.65	82.7648	2639.65	85.8084	2639.65	80.0288	2639.65	82.2102	2639.65	79.6044	2639.65	83.2522	2639.65	76.9569	2639.65	80.6729	2639.65	73.9057	2639.65	77.0405	2639.65	72.0982	2639.65	59.4376	2639.65	68.9617	2639.65	64.5387	2639.65	69.9638	2639.65	63.6076	2639.65	58.8076	2639.65	68.0969	2639.65	62.0924	2639.65	63.1915	2639.65	59.2366	2639.65	64.5173	2639.65	67.5386	2639.65	62.4854	2639.65	71.3008	2639.65	62.4503	2639.65	66.0811
2731.93	94.0269	2731.93	94.1012	2731.93	93.2673	2731.93	92.5058	2731.93	91.6719	2731.93	89.533	2731.93	90.2905	2731.93	85.8841	2731.93	89.5682	2731.93	83.075	2731.93	86.8394	2731.93	81.7962	2731.93	83.0608	2731.93	78.5089	2731.93	82.2323	2731.93	75.8121	2731.93	77.782	2731.93	73.9044	2731.93	72.6142	2731.93	72.3828	2731.93	70.7221	2731.93	66.25	2731.93	66.557	2731.93	66.6589	2731.93	59.0407	2731.93	64.0204	2731.93	62.2121	2731.93	51.1375	2731.93	61.6846	2731.93	65.7322	2731.93	55.8106	2731.93	68.2291	2731.93	65.0475	2731.93	69.4907	2731.93	64.8053	2731.93	65.4841
2828.61	93.8586	2828.61	94.449	2828.61	93.2381	2828.61	92.9137	2828.61	91.5431	2828.61	89.4153	2828.61	90.8422	2828.61	85.6693	2828.61	89.926	2828.61	83.5801	2828.61	87.3446	2828.61	81.1929	2828.61	81.5459	2828.61	77.7752	2828.61	80.2613	2828.61	76.3187	2828.61	77.1654	2828.61	73.443	2828.61	71.1946	2828.61	71.7904	2828.61	61.6991	2828.61	68.4499	2828.61	61.413	2828.61	69.4939	2828.61	61.0951	2828.61	65.2748	2828.61	53.7701	2828.61	55.7116	2828.61	63.3417	2828.61	55.1849	2828.61	60.3926	2828.61	64.984	2828.61	55.9233	2828.61	69.8112	2828.61	62.374	2828.61	64.6322
2928.22	94.4666	2928.22	94.2386	2928.22	94.015	2928.22	92.6668	2928.22	92.6708	2928.22	88.9989	2928.22	91.1537	2928.22	85.4226	2928.22	90.1011	2928.22	83.2051	2928.22	88.2564	2928.22	79.9203	2928.22	81.5556	2928.22	78.8105	2928.22	80.1945	2928.22	76.008	2928.22	76.6904	2928.22	73.9627	2928.22	73.2507	2928.22	71.5799	2928.22	64.2151	2928.22	70.7651	2928.22	62.3369	2928.22	68.0502	2928.22	46.9977	2928.22	65.9749	2928.22	57.2294	2928.22	62.598	2928.22	63.1555	2928.22	54.9992	2928.22	58.0256	2928.22	56.2829	2928.22	61.6301	2928.22	68.73	2928.22	62.3351	2928.22	65.4245
3030.76	94.9221	3030.76	94.437	3030.76	94.409	3030.76	92.661	3030.76	92.9256	3030.76	89.4534	3030.76	91.4669	3030.76	86.6639	3030.76	90.9094	3030.76	83.4825	3030.76	88.5052	3030.76	81.9687	3030.76	81.2664	3030.76	79.291	3030.76	79.2366	3030.76	76.5642	3030.76	80.174	3030.76	75.1678	3030.76	75.2639	3030.76	73.4675	3030.76	66.0716	3030.76	70.5215	3030.76	61.017	3030.76	67.1996	3030.76	59.1188	3030.76	67.6683	3030.76	54.9391	3030.76	63.1967	3030.76	62.0219	3030.76	58.9475	3030.76	65.3893	3030.76	58.0226	3030.76	59.3967	3030.76	67.3534	3030.76	61.295	3030.76	64.4631
3137.7	95.5006	3137.7	94.8162	3137.7	95.3235	3137.7	92.7935	3137.7	93.6571	3137.7	89.8973	3137.7	91.9518	3137.7	87.1578	3137.7	91.7078	3137.7	84.6398	3137.7	88.5393	3137.7	82.7507	3137.7	81.4677	3137.7	80.2584	3137.7	80.2112	3137.7	79.4416	3137.7	80.9287	3137.7	76.7753	3137.7	77.5267	3137.7	73.8294	3137.7	68.5246	3137.7	73.0356	3137.7	57.9942	3137.7	69.4074	3137.7	52.0899	3137.7	68.2175	3137.7	51.9765	3137.7	64.897	3137.7	60.5887	3137.7	59.7578	3137.7	62.0248	3137.7	58.7741	3137.7	60.2714	3137.7	64.5436	3137.7	61.9875	3137.7	67.4655
3249.02	95.284	3249.02	94.0902	3249.02	94.882	3249.02	91.9904	3249.02	93.3782	3249.02	88.6571	3249.02	90.8815	3249.02	86.8362	3249.02	91.6094	3249.02	85.7521	3249.02	87.4162	3249.02	84.1138	3249.02	81.8146	3249.02	82.4339	3249.02	80.1262	3249.02	79.5551	3249.02	81.793	3249.02	76.7261	3249.02	76.2917	3249.02	73.5953	3249.02	64.7166	3249.02	73.0134	3249.02	59.6053	3249.02	71.5393	3249.02	54.6744	3249.02	71.1217	3249.02	58.1209	3249.02	68.62	3249.02	61.4092	3249.02	66.2256	3249.02	62.8958	3249.02	54.8382	3249.02	62.6367	3249.02	64.2591	3249.02	55.0722	3249.02	64.0454
3363.28	95.7841	3363.28	94.7398	3363.28	95.719	3363.28	92.5074	3363.28	93.254	3363.28	89.8242	3363.28	90.2198	3363.28	88.4732	3363.28	90.0914	3363.28	87.034	3363.28	87.667	3363.28	85.3526	3363.28	81.9693	3363.28	81.7293	3363.28	81.981	3363.28	79.7893	3363.28	83.8587	3363.28	76.8729	3363.28	77.0867	3363.28	75.7736	3363.28	66.4552	3363.28	72.6638	3363.28	63.3323	3363.28	71.7063	3363.28	35.5218	3363.28	70.719	3363.28	57.9865	3363.28	69.6104	3363.28	60.658	3363.28	68.0983	3363.28	64.1302	3363.28	59.9888	3363.28	61.1962	3363.28	63.3482	3363.28	61.9879	3363.28	63.0354
3481.93	95.5779	3481.93	94.0527	3481.93	96.5369	3481.93	91.8585	3481.93	94.3852	3481.93	89.3251	3481.93	91.5197	3481.93	88.3033	3481.93	89.7961	3481.93	86.8195	3481.93	88.0405	3481.93	84.8009	3481.93	84.2503	3481.93	82.6932	3481.93	82.9705	3481.93	80.0331	3481.93	83.4355	3481.93	76.6884	3481.93	76.3991	3481.93	74.6729	3481.93	70.2839	3481.93	73.2065	3481.93	65.1462	3481.93	71.7234	3481.93	62.9837	3481.93	68.0236	3481.93	58.8682	3481.93	69.1641	3481.93	64.3512	3481.93	67.121	3481.93	65.0858	3481.93	60.8164	3481.93	42.6165	3481.93	64.1105	3481.93	56.3355	3481.93	66.2449
3604.98	94.6046	3604.98	93.1006	3604.98	95.5016	3604.98	91.361	3604.98	92.6125	3604.98	89.7288	3604.98	88.6324	3604.98	88.7589	3604.98	86.7926	3604.98	86.205	3604.98	86.1859	3604.98	84.7205	3604.98	83.7412	3604.98	81.437	3604.98	81.7046	3604.98	79.2605	3604.98	81.5729	3604.98	76.3281	3604.98	74.954	3604.98	72.9225	3604.98	64.3601	3604.98	70.2822	3604.98	64.2391	3604.98	67.4166	3604.98	61.4917	3604.98	66.0669	3604.98	56.9063	3604.98	66.9048	3604.98	59.835	3604.98	66.797	3604.98	61.3969	3604.98	61.7437	3604.98	50.3897	3604.98	59.8705	3604.98	60.8614	3604.98	62.0734
3732.42	94.3278	3732.42	92.3324	3732.42	95.5983	3732.42	91.349	3732.42	93.1967	3732.42	89.6467	3732.42	89.4998	3732.42	87.4372	3732.42	87.5351	3732.42	85.0779	3732.42	86.9408	3732.42	83.3781	3732.42	84.5315	3732.42	80.8143	3732.42	82.6967	3732.42	78.1936	3732.42	80.8932	3732.42	73.8561	3732.42	76.3301	3732.42	71.2166	3732.42	67.7823	3732.42	68.738	3732.42	58.7665	3732.42	65.3669	3732.42	61.5916	3732.42	64.5607	3732.42	57.804	3732.42	64.3989	3732.42	54.5664	3732.42	63.2047	3732.42	59.3678	3732.42	62.746	3732.42	55.6338	3732.42	64.8577	3732.42	49.9242	3732.42	66.0339
3864.26	93.3225	3864.26	91.5451	3864.26	94.9477	3864.26	91.0825	3864.26	93.0267	3864.26	89.3595	3864.26	87.7761	3864.26	86.7869	3864.26	86.1285	3864.26	84.7391	3864.26	86.6796	3864.26	82.5985	3864.26	82.6096	3864.26	79.3953	3864.26	80.0752	3864.26	75.4018	3864.26	79.6278	3864.26	70.8521	3864.26	74.4011	3864.26	67.7468	3864.26	64.7104	3864.26	65.6959	3864.26	57.345	3864.26	64.2821	3864.26	59.626	3864.26	61.677	3864.26	60.2328	3864.26	56.4512	3864.26	60.3045	3864.26	61.2751	3864.26	52.3575	3864.26	57.8625	3864.26	58.8353	3864.26	64.4687	3864.26	58.2483	3864.26	67.9311
4000.49	93.0935	4000.49	92.1826	4000.49	94.9864	4000.49	91.9444	4000.49	93.9097	4000.49	89.3998	4000.49	87.9358	4000.49	85.394	4000.49	87.4837	4000.49	83.128	4000.49	87.4547	4000.49	80.4669	4000.49	83.3538	4000.49	77.8212	4000.49	80.4869	4000.49	74.368	4000.49	80.6543	4000.49	69.9173	4000.49	75.3623	4000.49	67.6577	4000.49	65.3714	4000.49	65.0178	4000.49	53.8934	4000.49	62.1333	4000.49	59.1407	4000.49	59.3557	4000.49	55.2686	4000.49	58.8214	4000.49	51.0185	4000.49	57.6997	4000.49	56.8209	4000.49	55.8424	4000.49	55.587	4000.49	64.9682	4000.49	55.5957	4000.49	59.5103
4141.11	93.092	4141.11	93.1672	4141.11	95.1579	4141.11	92.7344	4141.11	94.5073	4141.11	89.0946	4141.11	87.5982	4141.11	84.5514	4141.11	85.7531	4141.11	80.7504	4141.11	88.2438	4141.11	80.0069	4141.11	84.9651	4141.11	78.309	4141.11	80.8165	4141.11	75.0724	4141.11	80.5886	4141.11	72.5932	4141.11	74.7926	4141.11	69.2	4141.11	65.098	4141.11	68.0588	4141.11	45.6401	4141.11	64.6155	4141.11	35.0771	4141.11	64.8541	4141.11	57.1208	4141.11	62.315	4141.11	47.9518	4141.11	64.9246	4141.11	63.9495	4141.11	49.7563	4141.11	60.0143	4141.11	64.0816	4141.11	61.8886	4141.11	58.2678
4287.6	93.3698	4287.6	94.4589	4287.6	95.3128	4287.6	93.0588	4287.6	95.4176	4287.6	88.3631	4287.6	88.2141	4287.6	80.4881	4287.6	86.6755	4287.6	78.6545	4287.6	88.898	4287.6	81.8338	4287.6	86.6354	4287.6	81.0412	4287.6	81.5545	4287.6	78.8949	4287.6	79.9953	4287.6	76.397	4287.6	74.9011	4287.6	73.7106	4287.6	66.3541	4287.6	72.3783	4287.6	49.1847	4287.6	70.2591	4287.6	45.9476	4287.6	67.6655	4287.6	52.7102	4287.6	67.1158	4287.6	60.7671	4287.6	68.829	4287.6	58.6088	4287.6	59.4442	4287.6	61.723	4287.6	65.8854	4287.6	54.3605	4287.6	56.5633
4438.48	93.8439	4438.48	95.4178	4438.48	94.8659	4438.48	92.9374	4438.48	95.5417	4438.48	86.2742	4438.48	89.5095	4438.48	73.5797	4438.48	83.3772	4438.48	82.4478	4438.48	88.0771	4438.48	85.1229	4438.48	87.2133	4438.48	83.5771	4438.48	81.7978	4438.48	80.779	4438.48	77.6818	4438.48	78.3183	4438.48	71.4297	4438.48	75.0819	4438.48	65.0054	4438.48	74.0925	4438.48	47.2586	4438.48	71.0998	4438.48	34.5215	4438.48	70.2344	4438.48	49.2992	4438.48	68.121	4438.48	58.5308	4438.48	68.8021	4438.48	59.3718	4438.48	63.4508	4438.48	49.9813	4438.48	68.6105	4438.48	41.6152	4438.48	58.9343
4595.21	95.0438	4595.21	96.029	4595.21	93.9926	4595.21	91.7031	4595.21	95.496	4595.21	80.5341	4595.21	90.9323	4595.21	77.225	4595.21	81.2983	4595.21	85.1465	4595.21	88.0916	4595.21	86.5056	4595.21	87.7597	4595.21	84.458	4595.21	81.5568	4595.21	81.5993	4595.21	74.4518	4595.21	78.5879	4595.21	70.0883	4595.21	75.7305	4595.21	64.3365	4595.21	74.3253	4595.21	61.1879	4595.21	72.6181	4595.21	45.4329	4595.21	71.9728	4595.21	58.2641	4595.21	69.2058	4595.21	46.1995	4595.21	70.9048	4595.21	57.3316	4595.21	68.1373	4595.21	53.9303	4595.21	66.5825	4595.21	62.8542	4595.21	53.9106
4756.35	95.1676	4756.35	95.5668	4756.35	90.6564	4756.35	88.4549	4756.35	93.9147	4756.35	71.7141	4756.35	90.7182	4756.35	83.2785	4756.35	72.1917	4756.35	87.8577	4756.35	87.5431	4756.35	87.4833	4756.35	86.9429	4756.35	84.3608	4756.35	78.0877	4756.35	80.8706	4756.35	70.1747	4756.35	77.549	4756.35	67.5301	4756.35	74.3265	4756.35	59.0883	4756.35	71.8437	4756.35	61.2795	4756.35	70.7596	4756.35	56.2419	4756.35	70.4087	4756.35	51.3149	4756.35	69.6627	4756.35	56.5739	4756.35	70.6532	4756.35	53.9589	4756.35	66.0031	4756.35	61.0565	4756.35	65.695	4756.35	62.4843	4756.35	65.1039
4924.8	95.7956	4924.8	94.3091	4924.8	87.7057	4924.8	80.5594	4924.8	93.4758	4924.8	79.4947	4924.8	91.0613	4924.8	86.4531	4924.8	74.0679	4924.8	88.2899	4924.8	87.1728	4924.8	85.9773	4924.8	86.2782	4924.8	83.1451	4924.8	78.6376	4924.8	79.0652	4924.8	67.0968	4924.8	75.6036	4924.8	56.3442	4924.8	72.5828	4924.8	53.9779	4924.8	70.2298	4924.8	60.4039	4924.8	68.3362	4924.8	60.9591	4924.8	67.9848	4924.8	31.7426	4924.8	67.8157	4924.8	37.6751	4924.8	68.8593	4924.8	54.9617	4924.8	66.1001	4924.8	57.319	4924.8	65.6498	4924.8	54.5012	4924.8	61.691
5097.66	95.7006	5097.66	92.0245	5097.66	84.6177	5097.66	68.7534	5097.66	92.7009	5097.66	86.3031	5097.66	90.123	5097.66	88.7134	5097.66	81.0024	5097.66	87.9051	5097.66	87.9611	5097.66	85.2742	5097.66	84.0194	5097.66	80.671	5097.66	76.4454	5097.66	76.441	5097.66	67.0966	5097.66	73.4711	5097.66	61.3534	5097.66	69.4228	5097.66	40.2758	5097.66	68.2929	5097.66	60.1271	5097.66	65.6981	5097.66	59.1413	5097.66	63.0427	5097.66	33.9484	5097.66	64.0676	5097.66	55.2095	5097.66	66.7476	5097.66	61.5626	5097.66	67.6014	5097.66	58.5195	5097.66	48.8021	5097.66	51.0806	5097.66	52.6952
5277.83	96.3085	5277.83	89.785	5277.83	87.5435	5277.83	81.9185	5277.83	90.3005	5277.83	86.853	5277.83	91.0209	5277.83	89.7272	5277.83	84.2681	5277.83	87.8467	5277.83	88.5726	5277.83	83.4507	5277.83	84.7785	5277.83	77.2464	5277.83	76.6309	5277.83	72.9864	5277.83	72.2959	5277.83	70.7154	5277.83	65.6814	5277.83	68.8649	5277.83	60.3978	5277.83	67.8156	5277.83	46.3052	5277.83	63.9166	5277.83	60.0412	5277.83	63.9496	5277.83	57.4792	5277.83	60.3841	5277.83	53.9096	5277.83	63.1273	5277.83	60.2561	5277.83	63.8986	5277.83	50.8833	5277.83	62.6091	5277.83	60.7062	5277.83	57.7563
5463.87	96.3663	5463.87	86.8854	5463.87	89.4403	5463.87	89.3347	5463.87	89.9822	5463.87	90.2087	5463.87	90.5787	5463.87	91.5675	5463.87	85.215	5463.87	88.3493	5463.87	88.6361	5463.87	82.3079	5463.87	83.0315	5463.87	79.5532	5463.87	77.0725	5463.87	77.1313	5463.87	75.2562	5463.87	74.7487	5463.87	70.7117	5463.87	72.3579	5463.87	58.1478	5463.87	71.2389	5463.87	61.0646	5463.87	68.8338	5463.87	62.8316	5463.87	68.4543	5463.87	64.0543	5463.87	62.5526	5463.87	49.8654	5463.87	63.9631	5463.87	60.3688	5463.87	70.9392	5463.87	57.0835	5463.87	57.4338	5463.87	62.54	5463.87	54.9084
5657.23	97.0729	5657.23	87.6016	5657.23	91.2757	5657.23	92.1709	5657.23	92.1655	5657.23	92.5594	5657.23	92.2869	5657.23	92.4977	5657.23	87.7966	5657.23	87.6391	5657.23	90.2903	5657.23	83.9292	5657.23	80.1378	5657.23	82.2721	5657.23	73.3629	5657.23	79.3967	5657.23	74.4019	5657.23	77.4451	5657.23	69.3124	5657.23	75.0886	5657.23	51.0128	5657.23	72.6768	5657.23	64.3561	5657.23	71.4069	5657.23	64.8729	5657.23	70.7471	5657.23	66.031	5657.23	64.8513	5657.23	49.6953	5657.23	64.5316	5657.23	66.029	5657.23	70.9203	5657.23	63.5833	5657.23	65.7129	5657.23	56.4935	5657.23	57.9344
5856.45	97.8821	5856.45	90.8902	5856.45	94.1533	5856.45	93.7125	5856.45	91.9884	5856.45	93.7451	5856.45	94.3682	5856.45	92.456	5856.45	88.8097	5856.45	87.5107	5856.45	91.9596	5856.45	85.3022	5856.45	82.3307	5856.45	84.2976	5856.45	78.0656	5856.45	80.216	5856.45	75.7995	5856.45	78.6286	5856.45	69.2568	5856.45	75.953	5856.45	60.5134	5856.45	73.7483	5856.45	68.0694	5856.45	72.0127	5856.45	65.8279	5856.45	71.9531	5856.45	68.7729	5856.45	67.5847	5856.45	57.5091	5856.45	66.8087	5856.45	68.4213	5856.45	72.0139	5856.45	67.2713	5856.45	61.9468	5856.45	67.1931	5856.45	51.0588
6062.99	98.005	6062.99	92.4404	6062.99	95.7595	6062.99	95.1376	6062.99	91.9337	6062.99	94.8111	6062.99	95.1032	6062.99	91.0118	6062.99	89.5196	6062.99	88.8991	6062.99	91.8234	6062.99	85.448	6062.99	85.4353	6062.99	84.5769	6062.99	79.0162	6062.99	80.7915	6062.99	74.9973	6062.99	77.8598	6062.99	69.6273	6062.99	74.287	6062.99	65.5391	6062.99	72.8371	6062.99	70.8241	6062.99	73.023	6062.99	70.9037	6062.99	69.9644	6062.99	69.5337	6062.99	67.5654	6062.99	65.4567	6062.99	71.2221	6062.99	70.4195	6062.99	68.4224	6062.99	64.6453	6062.99	60.9364	6062.99	69.3548	6062.99	58.0851
6276.86	97.8698	6276.86	93.4141	6276.86	97.3895	6276.86	96.9088	6276.86	92.3393	6276.86	95.2322	6276.86	95.8722	6276.86	89.571	6276.86	88.601	6276.86	90.0807	6276.86	93.1614	6276.86	85.5848	6276.86	86.9694	6276.86	84.9378	6276.86	81.0658	6276.86	80.5359	6276.86	76.7735	6276.86	78.115	6276.86	71.9685	6276.86	74.9366	6276.86	71.6383	6276.86	72.1969	6276.86	74.4868	6276.86	74.5611	6276.86	72.549	6276.86	71.4756	6276.86	72.1897	6276.86	66.9296	6276.86	68.6089	6276.86	68.6156	6276.86	68.2829	6276.86	72.6353	6276.86	67.9416	6276.86	66.1613	6276.86	69.9232	6276.86	56.5408
6498.05	96.1651	6498.05	94.8802	6498.05	97.6953	6498.05	97.2853	6498.05	92.1342	6498.05	93.9828	6498.05	95.2904	6498.05	89.4362	6498.05	87.6224	6498.05	90.4737	6498.05	92.9445	6498.05	86.0671	6498.05	87.193	6498.05	84.5848	6498.05	82.2381	6498.05	81.7119	6498.05	75.3026	6498.05	78.0171	6498.05	72.9769	6498.05	75.4837	6498.05	73.822	6498.05	73.4064	6498.05	75.6439	6498.05	72.9548	6498.05	72.07	6498.05	70.2231	6498.05	74.2527	6498.05	66.723	6498.05	68.8274	6498.05	73.1933	6498.05	69.3284	6498.05	69.4809	6498.05	69.1799	6498.05	59.6814	6498.05	70.4076	6498.05	64.2585
6726.56	94.4514	6726.56	96.3402	6726.56	98.1525	6726.56	96.7685	6726.56	91.6993	6726.56	91.8325	6726.56	95.0558	6726.56	89.8718	6726.56	87.3077	6726.56	89.4533	6726.56	92.0458	6726.56	87.1611	6726.56	88.0307	6726.56	83.6461	6726.56	82.4093	6726.56	81.1743	6726.56	70.9727	6726.56	76.7133	6726.56	74.3767	6726.56	75.2437	6726.56	75.7255	6726.56	70.7409	6726.56	74.124	6726.56	70.5365	6726.56	72.2108	6726.56	68.9528	6726.56	73.664	6726.56	68.6738	6726.56	68.2884	6726.56	68.5739	6726.56	70.4351	6726.56	71.0352	6726.56	64.7714	6726.56	65.953	6726.56	68.2575	6726.56	67.584
6963.87	92.1041	6963.87	97.6812	6963.87	97.6467	6963.87	95.3532	6963.87	92.5772	6963.87	90.8445	6963.87	94.1624	6963.87	89.3949	6963.87	86.771	6963.87	88.6305	6963.87	90.8135	6963.87	86.2218	6963.87	88.7279	6963.87	81.9073	6963.87	82.04	6963.87	79.3154	6963.87	63.331	6963.87	72.5369	6963.87	75.1382	6963.87	72.6212	6963.87	75.052	6963.87	70.1367	6963.87	72.0513	6963.87	70.4508	6963.87	72.3807	6963.87	60.8049	6963.87	71.0191	6963.87	61.9874	6963.87	68.6916	6963.87	68.9945	6963.87	70.7626	6963.87	62.4891	6963.87	66.4205	6963.87	56.4639	6963.87	63.7108	6963.87	46.8971
7209.96	91.538	7209.96	97.8068	7209.96	96.4602	7209.96	93.4521	7209.96	92.7992	7209.96	91.5067	7209.96	93.1285	7209.96	89.8785	7209.96	86.3239	7209.96	88.7672	7209.96	89.538	7209.96	84.1488	7209.96	88.0288	7209.96	77.1441	7209.96	80.3537	7209.96	75.5097	7209.96	69.15	7209.96	71.5048	7209.96	75.386	7209.96	73.0424	7209.96	72.2669	7209.96	67.9732	7209.96	69.3825	7209.96	66.6822	7209.96	72.3133	7209.96	63.8203	7209.96	70.7566	7209.96	60.6479	7209.96	68.538	7209.96	67.1968	7209.96	66.4558	7209.96	69.3527	7209.96	67.0589	7209.96	63.4613	7209.96	64.4611	7209.96	63.4678
7464.84	93.6944	7464.84	97.4327	7464.84	95.7108	7464.84	92.0817	7464.84	93.7485	7464.84	92.5549	7464.84	92.1762	7464.84	89.7078	7464.84	86.8589	7464.84	87.4852	7464.84	88.8843	7464.84	81.193	7464.84	86.3403	7464.84	77.1042	7464.84	78.4593	7464.84	77.4447	7464.84	75.4997	7464.84	74.1162	7464.84	73.1685	7464.84	73.0639	7464.84	67.7377	7464.84	68.0289	7464.84	69.6889	7464.84	68.6314	7464.84	72.1903	7464.84	67.3431	7464.84	73.2072	7464.84	60.4763	7464.84	69.7682	7464.84	66.5589	7464.84	64.6071	7464.84	65.8329	7464.84	64.0346	7464.84	61.2045	7464.84	64.3703	7464.84	57.5609
7727.05	94.3847	7727.05	96.3566	7727.05	94.6014	7727.05	91.4545	7727.05	93.151	7727.05	91.5968	7727.05	90.9938	7727.05	88.3027	7727.05	87.5042	7727.05	84.5956	7727.05	87.463	7727.05	82.5686	7727.05	85.3294	7727.05	77.9474	7727.05	78.3003	7727.05	77.0475	7727.05	78.9876	7727.05	74.563	7727.05	70.072	7727.05	73.3161	7727.05	66.3464	7727.05	68.806	7727.05	73.1212	7727.05	67.0143	7727.05	72.8385	7727.05	65.1375	7727.05	71.9084	7727.05	64.5431	7727.05	69.5559	7727.05	67.6735	7727.05	68.0911	7727.05	64.1953	7727.05	65.3792	7727.05	58.9966	7727.05	66.541	7727.05	59.8937
7999.51	94.601	7999.51	94.5039	7999.51	93.3252	7999.51	91.4299	7999.51	92.4509	7999.51	90.5581	7999.51	90.4856	7999.51	87.3078	7999.51	88.2537	7999.51	79.8596	7999.51	85.6862	7999.51	84.2407	7999.51	83.4044	7999.51	77.7579	7999.51	75.7514	7999.51	77.466	7999.51	79.7085	7999.51	74.8947	7999.51	68.4093	7999.51	72.1658	7999.51	67.4963	7999.51	70.0123	7999.51	73.1764	7999.51	67.9127	7999.51	73.6474	7999.51	64.3232	7999.51	73.3333	7999.51	64.6576	7999.51	70.7784	7999.51	67.895	7999.51	68.357	7999.51	65.3609	7999.51	64.249	7999.51	55.6503	7999.51	61.4129	7999.51	59.1409
8282.23	95.7678	8282.23	94.0821	8282.23	93.4343	8282.23	93.576	8282.23	92.9787	8282.23	91.0829	8282.23	89.7817	8282.23	87.061	8282.23	88.2304	8282.23	82.8105	8282.23	83.2556	8282.23	83.8561	8282.23	79.8016	8282.23	78.3846	8282.23	68.3184	8282.23	74.793	8282.23	79.1844	8282.23	73.4765	8282.23	60.7966	8282.23	69.6803	8282.23	62.8451	8282.23	68.9334	8282.23	71.7949	8282.23	63.4434	8282.23	73.7663	8282.23	61.7112	8282.23	73.1828	8282.23	66.4568	8282.23	70.8141	8282.23	66.8141	8282.23	68.4764	8282.23	57.9876	8282.23	61.1665	8282.23	52.8341	8282.23	60.9029	8282.23	58.193
8573.73	95.8349	8573.73	93.6756	8573.73	93.658	8573.73	94.3738	8573.73	92.551	8573.73	89.4986	8573.73	89.5282	8573.73	86.5246	8573.73	87.4399	8573.73	83.7437	8573.73	80.7687	8573.73	81.7258	8573.73	77.921	8573.73	77.3063	8573.73	77.3929	8573.73	72.7455	8573.73	77.2663	8573.73	71.9209	8573.73	57.3462	8573.73	68.6797	8573.73	51.7157	8573.73	68.3286	8573.73	69.4579	8573.73	60.9116	8573.73	70.2714	8573.73	63.5052	8573.73	71.652	8573.73	65.6603	8573.73	69.8095	8573.73	64.8206	8573.73	68.8772	8573.73	63.4859	8573.73	64.4075	8573.73	60.1622	8573.73	64.8689	8573.73	62.0104
8876.95	95.4668	8876.95	93.6506	8876.95	94.2611	8876.95	94.3443	8876.95	92.1894	8876.95	87.8916	8876.95	89.1345	8876.95	86.9141	8876.95	86.0591	8876.95	83.6397	8876.95	78.28	8876.95	78.8102	8876.95	76.0936	8876.95	76.4905	8876.95	80.1969	8876.95	74.1937	8876.95	76.44	8876.95	71.9922	8876.95	66.6027	8876.95	69.3216	8876.95	59.386	8876.95	67.7972	8876.95	65.7852	8876.95	62.4554	8876.95	67.7282	8876.95	64.2064	8876.95	69.4803	8876.95	64.1746	8876.95	66.041	8876.95	59.2575	8876.95	66.1145	8876.95	62.9231	8876.95	61.3584	8876.95	39.675	8876.95	49.2036	8876.95	61.0095
9188.96	95.4006	9188.96	93.9028	9188.96	94.5592	9188.96	93.7167	9188.96	91.2171	9188.96	87.3522	9188.96	89.1873	9188.96	86.6752	9188.96	84.3367	9188.96	82.3651	9188.96	77.124	9188.96	76.9918	9188.96	78.5563	9188.96	78.2278	9188.96	80.796	9188.96	75.7622	9188.96	76.5647	9188.96	73.2931	9188.96	67.8963	9188.96	70.393	9188.96	63.1689	9188.96	68.6145	9188.96	62.5155	9188.96	65.6234	9188.96	64.7516	9188.96	65.4074	9188.96	66.8975	9188.96	63.4565	9188.96	64.3031	9188.96	61.3405	9188.96	63.7606	9188.96	56.8893	9188.96	59.0793	9188.96	60.0292	9188.96	58.0706	9188.96	65.0278
9514.16	94.91	9514.16	94.7246	9514.16	94.5973	9514.16	92.4439	9514.16	90.3129	9514.16	89.229	9514.16	88.9136	9514.16	85.278	9514.16	82.8023	9514.16	82.5409	9514.16	80.7939	9514.16	76.9599	9514.16	79.0174	9514.16	79.8075	9514.16	79.48	9514.16	77.5871	9514.16	77.1805	9514.16	73.2986	9514.16	70.7638	9514.16	70.899	9514.16	65.064	9514.16	67.9933	9514.16	57.6947	9514.16	67.2279	9514.16	63.8074	9514.16	66.1795	9514.16	67.9352	9514.16	63.9696	9514.16	65.8637	9514.16	58.2424	9514.16	63.5503	9514.16	63.0006	9514.16	63.2536	9514.16	60.0204	9514.16	54.992	9514.16	64.0418
9849.61	95.0111	9849.61	95.1556	9849.61	94.4258	9849.61	90.9301	9849.61	90.6117	9849.61	90.474	9849.61	87.6865	9849.61	83.505	9849.61	79.8567	9849.61	81.2204	9849.61	80.8423	9849.61	81.4537	9849.61	76.561	9849.61	79.5771	9849.61	75.0873	9849.61	75.5499	9849.61	79.1408	9849.61	71.9009	9849.61	68.4886	9849.61	69.691	9849.61	64.2471	9849.61	67.2498	9849.61	58.0562	9849.61	66.3896	9849.61	65.5359	9849.61	64.5701	9849.61	67.4318	9849.61	62.0096	9849.61	65.4045	9849.61	59.1281	9849.61	62.8087	9849.61	60.6088	9849.61	56.7846	9849.61	60.354	9849.61	57.9361	9849.61	62.7774
10196.8	95.7157	10196.8	94.9754	10196.8	93.95	10196.8	91.7224	10196.8	91.5316	10196.8	90.0346	10196.8	86.2647	10196.8	83.1877	10196.8	80.7081	10196.8	81.4701	10196.8	82.0611	10196.8	83.6703	10196.8	78.8994	10196.8	78.0165	10196.8	76.9794	10196.8	77.6528	10196.8	82.4451	10196.8	74.633	10196.8	65.0536	10196.8	71.4512	10196.8	63.1092	10196.8	69.543	10196.8	60.3235	10196.8	68.273	10196.8	67.4043	10196.8	64.5651	10196.8	67.8204	10196.8	62.0004	10196.8	66.1841	10196.8	62.4118	10196.8	63.8969	10196.8	61.6038	10196.8	60.3175	10196.8	64.6985	10196.8	62.5447	10196.8	61.9592
10555.7	95.6839	10555.7	93.2566	10555.7	93.4387	10555.7	92.6275	10555.7	91.4667	10555.7	89.0572	10555.7	85.5881	10555.7	85.2039	10555.7	83.0337	10555.7	83.2885	10555.7	79.7838	10555.7	81.1841	10555.7	79.4484	10555.7	81.1569	10555.7	80.3257	10555.7	77.8373	10555.7	82.1623	10555.7	75.2362	10555.7	60.21	10555.7	71.6962	10555.7	60.3255	10555.7	70.0363	10555.7	56.1359	10555.7	66.1551	10555.7	63.5142	10555.7	64.5158	10555.7	65.3048	10555.7	62.4369	10555.7	61.3051	10555.7	63.4418	10555.7	63.3192	10555.7	61.6054	10555.7	59.105	10555.7	62.0445	10555.7	58.6572	10555.7	61.3882
10927.7	95.76	10927.7	94.0425	10927.7	94.2767	10927.7	93.5478	10927.7	91.7349	10927.7	88.887	10927.7	87.015	10927.7	86.3454	10927.7	82.3557	10927.7	79.393	10927.7	77.7924	10927.7	80.6391	10927.7	79.2771	10927.7	79.7345	10927.7	79.9854	10927.7	77.4768	10927.7	79.2251	10927.7	73.5822	10927.7	57.5145	10927.7	69.9373	10927.7	59.4237	10927.7	68.3947	10927.7	52.7494	10927.7	63.4841	10927.7	58.7438	10927.7	62.7005	10927.7	62.3952	10927.7	60.4545	10927.7	59.197	10927.7	60.9293	10927.7	60.9586	10927.7	59.9718	10927.7	60.2934	10927.7	62.3428	10927.7	58.3516	10927.7	56.0705
11313	95.478	11313	94.8922	11313	94.5177	11313	93.2227	11313	91.8333	11313	88.6138	11313	87.5386	11313	84.7995	11313	80.3074	11313	76.5584	11313	75.1094	11313	78.8523	11313	75.9434	11313	77.8743	11313	78.57	11313	74.1759	11313	74.8862	11313	69.6619	11313	64.8853	11313	67.1587	11313	58.0174	11313	63.645	11313	52.1023	11313	61.0469	11313	56.3951	11313	58.9548	11313	58.7407	11313	55.6607	11313	55.4162	11313	57.753	11313	51.8176	11313	55.9605	11313	58.061	11313	57.036	11313	59.3941	11313	50.536
11712.9	95.2205	11712.9	95.4482	11712.9	94.8242	11712.9	92.3941	11712.9	91.1159	11712.9	89.1841	11712.9	86.4867	11712.9	80.7255	11712.9	77.042	11712.9	78.2336	11712.9	74.3961	11712.9	76.5217	11712.9	73.5286	11712.9	75.983	11712.9	76.3775	11712.9	73.5888	11712.9	71.4483	11712.9	68.4997	11712.9	67.2792	11712.9	67.2894	11712.9	60.5139	11712.9	60.3508	11712.9	57.4275	11712.9	62.9652	11712.9	60.4821	11712.9	60.2448	11712.9	59.2288	11712.9	59.9215	11712.9	53.6798	11712.9	57.0596	11712.9	47.0377	11712.9	49.9053	11712.9	45.1067	11712.9	57.7203	11712.9	55.3878	11712.9	48.0769
12126	95.4472	12126	95.7688	12126	95.4355	12126	92.4302	12126	90.9666	12126	88.9909	12126	85.1491	12126	67.024	12126	67.2117	12126	74.9826	12126	75.4559	12126	79.173	12126	74.8297	12126	76.2643	12126	73.995	12126	73.4663	12126	75.7604	12126	70.1205	12126	63.0646	12126	67.0487	12126	58.9705	12126	62.256	12126	58.3783	12126	64.7604	12126	63.7292	12126	58.7624	12126	62.9268	12126	59.4102	12126	59.9581	12126	53.72	12126	58.5397	12126	47.87	12126	49.8667	12126	54.3199	12126	38.5652	12126	58.704
12553.7	96.6761	12553.7	95.7428	12553.7	95.569	12553.7	93.0045	12553.7	90.8337	12553.7	85.8119	12553.7	82.6084	12553.7	73.4136	12553.7	75.2523	12553.7	76.2989	12553.7	79.3387	12553.7	81.0224	12553.7	78.0481	12553.7	79.0367	12553.7	80.509	12553.7	74.2228	12553.7	77.85	12553.7	71.9144	12553.7	64.5063	12553.7	66.6256	12553.7	48.6902	12553.7	65.9914	12553.7	55.1476	12553.7	63.4621	12553.7	60.9551	12553.7	58.2714	12553.7	62.3603	12553.7	53.7551	12553.7	61.1192	12553.7	49.4367	12553.7	60.7973	12553.7	55.5133	12553.7	53.5701	12553.7	55.6793	12553.7	49.1728	12553.7	52.2178
12996.1	97.3182	12996.1	96.3191	12996.1	95.3742	12996.1	93.4034	12996.1	90.3971	12996.1	82.6792	12996.1	78.8831	12996.1	71.4558	12996.1	78.6329	12996.1	82.1738	12996.1	81.7642	12996.1	82.8209	12996.1	81.3546	12996.1	80.8756	12996.1	83.9719	12996.1	76.7113	12996.1	77.877	12996.1	72.1492	12996.1	67.591	12996.1	69.0314	12996.1	63.1585	12996.1	67.279	12996.1	56.1727	12996.1	62.1758	12996.1	56.9325	12996.1	61.4805	12996.1	61.6146	12996.1	58.5582	12996.1	59.3899	12996.1	58.1628	12996.1	58.6188	12996.1	60.0011	12996.1	58.434	12996.1	59.1428	12996.1	54.5185	12996.1	60.6934
13454.6	97.2673	13454.6	96.6628	13454.6	95.4387	13454.6	92.3003	13454.6	89.6081	13454.6	81.8547	13454.6	73.1871	13454.6	77.933	13454.6	81.7396	13454.6	84.9346	13454.6	83.204	13454.6	84.8024	13454.6	83.9149	13454.6	81.744	13454.6	81.6088	13454.6	78.7551	13454.6	75.5045	13454.6	73.8783	13454.6	64.6261	13454.6	70.4323	13454.6	61.3036	13454.6	67.4473	13454.6	58.6646	13454.6	65.1352	13454.6	60.1434	13454.6	63.927	13454.6	60.2155	13454.6	60.9945	13454.6	60.4107	13454.6	56.956	13454.6	55.2017	13454.6	56.5093	13454.6	52.6183	13454.6	57.0716	13454.6	48.717	13454.6	58.366
13929.2	96.9769	13929.2	96.6205	13929.2	95.4371	13929.2	91.0694	13929.2	89.4056	13929.2	79.3998	13929.2	70.5823	13929.2	82.6106	13929.2	81.5723	13929.2	84.1771	13929.2	85.8204	13929.2	83.9748	13929.2	83.3781	13929.2	81.4153	13929.2	79.3562	13929.2	76.1503	13929.2	77.8971	13929.2	72.2646	13929.2	63.4332	13929.2	67.8687	13929.2	52.0656	13929.2	65.8854	13929.2	52.8964	13929.2	63.3412	13929.2	56.5776	13929.2	61.2897	13929.2	58.0976	13929.2	57.9905	13929.2	57.2022	13929.2	47.5497	13929.2	48.1785	13929.2	49.7271	13929.2	50.7374	13929.2	51.555	13929.2	29.5361	13929.2	53.5013
14419.9	97.2569	14419.9	96.2566	14419.9	95.3255	14419.9	90.6348	14419.9	88.9973	14419.9	72.2936	14419.9	74.3885	14419.9	82.9398	14419.9	83.2125	14419.9	83.8525	14419.9	86.6572	14419.9	84.2393	14419.9	81.8187	14419.9	78.8663	14419.9	80.5804	14419.9	73.9763	14419.9	79.0779	14419.9	70.7426	14419.9	64.6686	14419.9	65.7773	14419.9	52.8503	14419.9	64.6009	14419.9	44.502	14419.9	63.1699	14419.9	47.1397	14419.9	60.9932	14419.9	53.5587	14419.9	56.0566	14419.9	49.4482	14419.9	50.3928	14419.9	50.3324	14419.9	55.781	14419.9	47.7402	14419.9	47.5451	14419.9	44.276	14419.9	45.4718
14928.2	97.5013	14928.2	95.2437	14928.2	94.8019	14928.2	88.9714	14928.2	87.1325	14928.2	70.4812	14928.2	78.8663	14928.2	84.5092	14928.2	84.7242	14928.2	86.276	14928.2	86.7429	14928.2	82.6385	14928.2	79.811	14928.2	79.4454	14928.2	83.0906	14928.2	75.3951	14928.2	78.6742	14928.2	70.961	14928.2	63.7334	14928.2	68.3371	14928.2	61.7338	14928.2	65.8405	14928.2	57.5104	14928.2	61.9078	14928.2	57.5977	14928.2	61.9407	14928.2	54.5811	14928.2	51.083	14928.2	50.7101	14928.2	55.9938	14928.2	48.7344	14928.2	61.9679	14928.2	46.0062	14928.2	50.3961	14928.2	49.9888	14928.2	59.5829
15455.6	96.9331	15455.6	94.7392	15455.6	94.1583	15455.6	86.0605	15455.6	84.0322	15455.6	80.7641	15455.6	82.5023	15455.6	87.9023	15455.6	87.3074	15455.6	86.3386	15455.6	85.6581	15455.6	83.6645	15455.6	83.907	15455.6	79.422	15455.6	82.8912	15455.6	76.2424	15455.6	75.8558	15455.6	72.1153	15455.6	51.0396	15455.6	69.1494	15455.6	60.0279	15455.6	65.0833	15455.6	59.4918	15455.6	62.7942	15455.6	54.7018	15455.6	62.3853	15455.6	58.9436	15455.6	51.814	15455.6	53.9518	15455.6	57.9094	15455.6	50.3536	15455.6	61.6461	15455.6	43.0125	15455.6	51.728	15455.6	47.3343	15455.6	59.1926
16000.5	95.9979	16000.5	94.1395	16000.5	93.547	16000.5	84.4096	16000.5	82.9719	16000.5	82.4103	16000.5	82.1612	16000.5	87.4241	16000.5	87.0589	16000.5	84.2365	16000.5	82.8148	16000.5	81.3272	16000.5	84.0784	16000.5	78.873	16000.5	77.1415	16000.5	75.2993	16000.5	75.226	16000.5	71.4918	16000.5	66.0372	16000.5	68.1124	16000.5	46.1908	16000.5	65.9372	16000.5	43.5241	16000.5	61.5545	16000.5	53.9431	16000.5	61.7427	16000.5	55.3789	16000.5	51.6116	16000.5	54.3311	16000.5	53.9258	16000.5	54.6254	16000.5	58.8763	16000.5	45.9591	16000.5	54.9155	16000.5	45.9429	16000.5	49.3006
16564.5	94.9775	16564.5	92.5874	16564.5	92.6506	16564.5	82.1029	16564.5	80.7711	16564.5	81.9598	16564.5	79.6814	16564.5	84.8971	16564.5	84.7685	16564.5	81.9022	16564.5	81.3471	16564.5	79.824	16564.5	80.6131	16564.5	78.4877	16564.5	74.2543	16564.5	75.2451	16564.5	78.4316	16564.5	70.927	16564.5	67.1147	16564.5	67.413	16564.5	52.5941	16564.5	65.4239	16564.5	46.2336	16564.5	57.8968	16564.5	57.4592	16564.5	57.2881	16564.5	51.1277	16564.5	43.738	16564.5	47.5283	16564.5	55.6512	16564.5	51.1142	16564.5	58.8685	16564.5	43.0528	16564.5	51.0987	16564.5	44.0114	16564.5	39.2786
17148.9	93.1509	17148.9	89.8138	17148.9	89.9299	17148.9	75.1536	17148.9	75.5183	17148.9	83.3861	17148.9	82.6384	17148.9	84.6169	17148.9	83.6945	17148.9	81.3643	17148.9	81.8703	17148.9	80.5892	17148.9	75.9801	17148.9	78.6943	17148.9	79.7984	17148.9	74.8431	17148.9	78.0495	17148.9	70.0803	17148.9	60.8008	17148.9	67.1308	17148.9	53.7221	17148.9	63.9411	17148.9	48.4328	17148.9	58.9831	17148.9	56.8324	17148.9	58.4463	17148.9	45.8543	17148.9	51.4134	17148.9	46.2784	17148.9	59.23	17148.9	44.1063	17148.9	63.5726	17148.9	55.162	17148.9	40.4194	17148.9	44.7222	17148.9	59.2607
17752.4	90.5828	17752.4	86.0852	17752.4	86.6434	17752.4	74.2264	17752.4	76.7651	17752.4	85.3977	17752.4	85.3211	17752.4	84.9664	17752.4	83.4999	17752.4	80.7348	17752.4	81.2019	17752.4	80.2324	17752.4	79.7235	17752.4	79.0436	17752.4	79.161	17752.4	75.4804	17752.4	70.7452	17752.4	70.8446	17752.4	57.184	17752.4	67.615	17752.4	48.5963	17752.4	63.7685	17752.4	54.0157	17752.4	60.9211	17752.4	45.9749	17752.4	59.3041	17752.4	47.192	17752.4	52.3383	17752.4	36.738	17752.4	59.9474	17752.4	45.9178	17752.4	63.1229	17752.4	38.3679	17752.4	29.2215	17752.4	47.8	17752.4	59.9369
18379.4	86.997	18379.4	82.6173	18379.4	81.4855	18379.4	78.0963	18379.4	80.8992	18379.4	85.7506	18379.4	86.0765	18379.4	84.5413	18379.4	84.6875	18379.4	81.613	18379.4	78.9079	18379.4	80.5754	18379.4	81.6129	18379.4	79.4134	18379.4	72.9883	18379.4	75.2139	18379.4	76.0988	18379.4	70.1881	18379.4	61.576	18379.4	66.9669	18379.4	46.3842	18379.4	63.4466	18379.4	54.4714	18379.4	59.5563	18379.4	51.7772	18379.4	59.6768	18379.4	47.6448	18379.4	52.8673	18379.4	47.2165	18379.4	60.5167	18379.4	48.0503	18379.4	57.7087	18379.4	43.0823	18379.4	53.5685	18379.4	38.4903	18379.4	56.5793
19026.9	82.2815	19026.9	76.8614	19026.9	67.5311	19026.9	81.1886	19026.9	82.7671	19026.9	85.5918	19026.9	86.1301	19026.9	85.0329	19026.9	83.6279	19026.9	79.9669	19026.9	78.1104	19026.9	77.9777	19026.9	74.3393	19026.9	77.1561	19026.9	78.3145	19026.9	72.2875	19026.9	75.1697	19026.9	67.7192	19026.9	56.9493	19026.9	64.2112	19026.9	48.8802	19026.9	62.0288	19026.9	50.9287	19026.9	56.32	19026.9	55.2388	19026.9	58.9726	19026.9	50.5741	19026.9	53.2373	19026.9	49.4584	19026.9	60.556	19026.9	56.5193	19026.9	53.3341	19026.9	50.5739	19026.9	53.1025	19026.9	48.5496	19026.9	56.3582
19697.8	82.6901	19697.8	80.1621	19697.8	75.6299	19697.8	83.9061	19697.8	84.7961	19697.8	86.4377	19697.8	85.681	19697.8	83.9289	19697.8	79.7127	19697.8	76.9983	19697.8	72.6312	19697.8	78.0634	19697.8	71.3857	19697.8	78.0195	19697.8	78.3653	19697.8	73.0663	19697.8	67.0506	19697.8	68.6258	19697.8	53.9343	19697.8	65.1432	19697.8	34.6387	19697.8	60.2269	19697.8	38.8356	19697.8	52.2835	19697.8	54.1426	19697.8	57.4591	19697.8	50.6277	19697.8	48.3372	19697.8	47.0761	19697.8	59.2984	19697.8	55.9841	19697.8	49.8132	19697.8	42.8659	19697.8	55.972	19697.8	38.5602	19697.8	53.9907
19999.5	81.2999	19999.5	78.0399	19999.5	73.4437	19999.5	83.5944	19999.5	84.0539	19999.5	85.9325	19999.5	84.3544	19999.5	83.1095	19999.5	77.2502	19999.5	76.7525	19999.5	71.8977	19999.5	78.2731	19999.5	73.8218	19999.5	78.3227	19999.5	74.618	19999.5	72.3874	19999.5	63.8289	19999.5	67.4665	19999.5	59.5635	19999.5	62.5328	19999.5	48.7023	19999.5	49.4505	19999.5	50.9679	19999.5	54.364	19999.5	42.8773	19999.5	52.9272	19999.5	36.148	19999.5	48.4646	19999.5	40.9699	19999.5	54.2845	19999.5	51.1788	19999.5	49.357	19999.5	42.4886	19999.5	54.1036	19999.5	47.0818	19999.5	50.8763
