"SPL Horizontal"
"On-Axis"		"10°"		"-10°"		"20°"		"-20°"		"30°"		"-30°"		"40°"		"-40°"		"50°"		"-50°"		"60°"		"-60°"		"70°"		"-70°"		"80°"		"-80°"		"90°"		"-90°"		"100°"		"-100°"		"110°"		"-110°"		"120°"		"-120°"		"130°"		"-130°"		"140°"		"-140°"		"150°"		"-150°"		"160°"		"-160°"		"170°"		"-170°"		"180°"
"Frequency / Hz"	"Sound Pressure Level / dB (re 20 µPa/V)  [2.83V at 1m]"	"Frequency / Hz"	"Sound Pressure Level / dB (re 20 µPa/V)  [2.83V at 1m]"	"Frequency / Hz"	"Sound Pressure Level / dB (re 20 µPa/V)  [2.83V at 1m]"	"Frequency / Hz"	"Sound Pressure Level / dB (re 20 µPa/V)  [2.83V at 1m]"	"Frequency / Hz"	"Sound Pressure Level / dB (re 20 µPa/V)  [2.83V at 1m]"	"Frequency / Hz"	"Sound Pressure Level / dB (re 20 µPa/V)  [2.83V at 1m]"	"Frequency / Hz"	"Sound Pressure Level / dB (re 20 µPa/V)  [2.83V at 1m]"	"Frequency / Hz"	"Sound Pressure Level / dB (re 20 µPa/V)  [2.83V at 1m]"	"Frequency / Hz"	"Sound Pressure Level / dB (re 20 µPa/V)  [2.83V at 1m]"	"Frequency / Hz"	"Sound Pressure Level / dB (re 20 µPa/V)  [2.83V at 1m]"	"Frequency / Hz"	"Sound Pressure Level / dB (re 20 µPa/V)  [2.83V at 1m]"	"Frequency / Hz"	"Sound Pressure Level / dB (re 20 µPa/V)  [2.83V at 1m]"	"Frequency / Hz"	"Sound Pressure Level / dB (re 20 µPa/V)  [2.83V at 1m]"	"Frequency / Hz"	"Sound Pressure Level / dB (re 20 µPa/V)  [2.83V at 1m]"	"Frequency / Hz"	"Sound Pressure Level / dB (re 20 µPa/V)  [2.83V at 1m]"	"Frequency / Hz"	"Sound Pressure Level / dB (re 20 µPa/V)  [2.83V at 1m]"	"Frequency / Hz"	"Sound Pressure Level / dB (re 20 µPa/V)  [2.83V at 1m]"	"Frequency / Hz"	"Sound Pressure Level / dB (re 20 µPa/V)  [2.83V at 1m]"	"Frequency / Hz"	"Sound Pressure Level / dB (re 20 µPa/V)  [2.83V at 1m]"	"Frequency / Hz"	"Sound Pressure Level / dB (re 20 µPa/V)  [2.83V at 1m]"	"Frequency / Hz"	"Sound Pressure Level / dB (re 20 µPa/V)  [2.83V at 1m]"	"Frequency / Hz"	"Sound Pressure Level / dB (re 20 µPa/V)  [2.83V at 1m]"	"Frequency / Hz"	"Sound Pressure Level / dB (re 20 µPa/V)  [2.83V at 1m]"	"Frequency / Hz"	"Sound Pressure Level / dB (re 20 µPa/V)  [2.83V at 1m]"	"Frequency / Hz"	"Sound Pressure Level / dB (re 20 µPa/V)  [2.83V at 1m]"	"Frequency / Hz"	"Sound Pressure Level / dB (re 20 µPa/V)  [2.83V at 1m]"	"Frequency / Hz"	"Sound Pressure Level / dB (re 20 µPa/V)  [2.83V at 1m]"	"Frequency / Hz"	"Sound Pressure Level / dB (re 20 µPa/V)  [2.83V at 1m]"	"Frequency / Hz"	"Sound Pressure Level / dB (re 20 µPa/V)  [2.83V at 1m]"	"Frequency / Hz"	"Sound Pressure Level / dB (re 20 µPa/V)  [2.83V at 1m]"	"Frequency / Hz"	"Sound Pressure Level / dB (re 20 µPa/V)  [2.83V at 1m]"	"Frequency / Hz"	"Sound Pressure Level / dB (re 20 µPa/V)  [2.83V at 1m]"	"Frequency / Hz"	"Sound Pressure Level / dB (re 20 µPa/V)  [2.83V at 1m]"	"Frequency / Hz"	"Sound Pressure Level / dB (re 20 µPa/V)  [2.83V at 1m]"	"Frequency / Hz"	"Sound Pressure Level / dB (re 20 µPa/V)  [2.83V at 1m]"	"Frequency / Hz"	"Sound Pressure Level / dB (re 20 µPa/V)  [2.83V at 1m]"
20.5078	63.7015	20.5078	63.5984	20.5078	63.5462	20.5078	63.2252	20.5078	63.12	20.5078	62.5425	20.5078	62.3812	20.5078	61.4706	20.5078	61.2439	20.5078	59.8539	20.5078	59.5377	20.5078	57.3586	20.5078	56.8883	20.5078	53.0669	20.5078	52.2147	20.5078	41.9204	20.5078	38.0304	20.5078	47.5266	20.5078	49.0605	20.5078	55.9037	20.5078	56.5373	20.5078	60.2344	20.5078	60.6181	20.5078	63.1368	20.5078	63.3935	20.5078	65.2532	20.5078	65.4268	20.5078	66.8338	20.5078	66.9463	20.5078	67.9951	20.5078	68.0621	20.5078	68.7961	20.5078	68.831	20.5078	69.268	20.5078	69.282	20.5078	69.4274
21.9727	65.5381	21.9727	65.4145	21.9727	65.4131	21.9727	65.0319	21.9727	65.028	21.9727	64.3559	21.9727	64.3468	21.9727	63.3163	21.9727	63.2967	21.9727	61.7792	21.9727	61.7383	21.9727	59.4681	21.9727	59.3812	21.9727	55.6877	21.9727	55.4801	21.9727	47.6911	21.9727	46.8562	21.9727	46.1848	21.9727	46.7984	21.9727	55.9696	21.9727	56.3218	21.9727	60.6661	21.9727	60.9147	21.9727	63.7113	21.9727	63.9029	21.9727	65.8916	21.9727	66.0412	21.9727	67.5013	21.9727	67.6152	21.9727	68.6762	21.9727	68.7579	21.9727	69.485	21.9727	69.5375	21.9727	69.9637	21.9727	69.9893	21.9727	70.1298
23.4375	67.12	23.4375	67.005	23.4375	66.9968	23.4375	66.6425	23.4375	66.6256	23.4375	66.0021	23.4375	65.9751	23.4375	65.0232	23.4375	64.9834	23.4375	63.5951	23.4375	63.5363	23.4375	61.505	23.4375	61.4142	23.4375	58.3016	23.4375	58.1492	23.4375	53.034	23.4375	52.7923	23.4375	50.3992	23.4375	50.7777	23.4375	57.0049	23.4375	57.3378	23.4375	61.572	23.4375	61.799	23.4375	64.637	23.4375	64.8063	23.4375	66.8426	23.4375	66.9723	23.4375	68.471	23.4375	68.569	23.4375	69.6584	23.4375	69.7286	23.4375	70.4749	23.4375	70.5202	23.4375	70.9574	23.4375	70.9796	23.4375	71.1237
24.9023	68.0166	24.9023	67.8777	24.9023	67.9183	24.9023	67.4911	24.9023	67.5751	24.9023	66.8269	24.9023	66.9601	24.9023	65.8279	24.9023	66.0204	24.9023	64.396	24.9023	64.6638	24.9023	62.3686	24.9023	62.736	24.9023	59.5322	24.9023	60.0159	24.9023	56.2956	24.9023	56.6883	24.9023	56.595	24.9023	56.2463	24.9023	60.4321	24.9023	59.9799	24.9023	63.856	24.9023	63.542	24.9023	66.4451	24.9023	66.2371	24.9023	68.4027	24.9023	68.2656	24.9023	69.8813	24.9023	69.7924	24.9023	70.9705	24.9023	70.9148	24.9023	71.7207	24.9023	71.6885	24.9023	72.1595	24.9023	72.1448	24.9023	72.2998
26.3672	69.21	26.3672	69.0983	26.3672	69.091	26.3672	68.7502	26.3672	68.7337	26.3672	68.1462	26.3672	68.1158	26.3672	67.2536	26.3672	67.1985	26.3672	66.031	26.3672	65.9271	26.3672	64.4618	26.3672	64.2555	26.3672	62.7108	26.3672	62.2975	26.3672	61.5768	26.3672	60.8916	26.3672	62.3137	26.3672	61.6421	26.3672	64.5063	26.3672	64.0776	26.3672	66.885	26.3672	66.6387	26.3672	68.9527	26.3672	68.8094	26.3672	70.6404	26.3672	70.5543	26.3672	71.9735	26.3672	71.9203	26.3672	72.9839	26.3672	72.9503	26.3672	73.6929	26.3672	73.6727	26.3672	74.1128	26.3672	74.1031	26.3672	74.2491
27.832	70.2682	27.832	70.1657	27.832	70.1701	27.832	69.8606	27.832	69.8669	27.832	69.3455	27.832	69.3484	27.832	68.6135	27.832	68.6031	27.832	67.6755	27.832	67.6344	27.832	66.6083	27.832	66.5106	27.832	65.6623	27.832	65.4839	27.832	65.3432	27.832	65.1073	27.832	66.064	27.832	65.8594	27.832	67.584	27.832	67.4665	27.832	69.3488	27.832	69.3079	27.832	71.0144	27.832	71.0214	27.832	72.4526	27.832	72.484	27.832	73.6297	27.832	73.6694	27.832	74.5422	27.832	74.5796	27.832	75.1932	27.832	75.2216	27.832	75.586	27.832	75.6012	27.832	75.722
29.2969	71.9763	29.2969	71.8784	29.2969	71.8954	29.2969	71.6022	29.2969	71.6328	29.2969	71.1479	29.2969	71.1848	29.2969	70.5223	29.2969	70.5531	29.2969	69.7561	29.2969	69.7621	29.2969	68.9429	29.2969	68.9004	29.2969	68.2981	29.2969	68.1918	29.2969	68.1609	29.2969	68.0138	29.2969	68.7689	29.2969	68.6453	29.2969	69.9874	29.2969	69.9329	29.2969	71.4641	29.2969	71.4774	29.2969	72.9235	29.2969	72.982	29.2969	74.2278	29.2969	74.308	29.2969	75.321	29.2969	75.4044	29.2969	76.1826	29.2969	76.2558	29.2969	76.8051	29.2969	76.8589	29.2969	77.1856	29.2969	77.2139	29.2969	77.3223
30.7617	72.6757	30.7617	72.5867	30.7617	72.6128	30.7617	72.35	30.7617	72.3979	30.7617	71.9776	30.7617	72.038	30.7617	71.4984	30.7617	71.5556	30.7617	70.9776	30.7617	71.0077	30.7617	70.5416	30.7617	70.5162	30.7617	70.3843	30.7617	70.2835	30.7617	70.6912	30.7617	70.5269	30.7617	71.4964	30.7617	71.3115	30.7617	72.6466	30.7617	72.4822	30.7617	73.9291	30.7617	73.803	30.7617	75.1823	30.7617	75.0937	30.7617	76.3124	30.7617	76.2533	30.7617	77.2705	30.7617	77.2323	30.7617	78.0314	30.7617	78.0074	30.7617	78.5814	30.7617	78.5671	30.7617	78.9126	30.7617	78.906	30.7617	79.0213
32.2266	73.4925	32.2266	73.4558	32.2266	73.3942	32.2266	73.2923	32.2266	73.1656	32.2266	73.0262	32.2266	72.8281	32.2266	72.7066	32.2266	72.4302	32.2266	72.4202	32.2266	72.0644	32.2266	72.2948	32.2266	71.877	32.2266	72.47	32.2266	72.035	32.2266	73.0232	32.2266	72.6302	32.2266	73.9129	32.2266	73.6038	32.2266	75.0094	32.2266	74.7934	32.2266	76.1721	32.2266	76.0361	32.2266	77.2957	32.2266	77.2193	32.2266	78.3138	32.2266	78.2775	32.2266	79.1866	32.2266	79.1745	32.2266	79.8891	32.2266	79.8893	32.2266	80.4043	32.2266	80.4085	32.2266	80.7198	32.2266	80.723	32.2266	80.8272
33.6914	76.4788	33.6914	76.4784	33.6914	76.4423	33.6914	76.4466	33.6914	76.3724	33.6914	76.3979	33.6914	76.2831	33.6914	76.3567	33.6914	76.2012	33.6914	76.3577	33.6914	76.1679	33.6914	76.4439	33.6914	76.2358	33.6914	76.6586	33.6914	76.4579	33.6914	77.0319	33.6914	76.8677	33.6914	77.5674	33.6914	77.4619	33.6914	78.2368	33.6914	78.1984	33.6914	78.9888	33.6914	79.0118	33.6914	79.7638	33.6914	79.8333	33.6914	80.5063	33.6914	80.6036	33.6914	81.1707	33.6914	81.2771	33.6914	81.7233	33.6914	81.8214	33.6914	82.1403	33.6914	82.2152	33.6914	82.4057	33.6914	82.4462	33.6914	82.5095
35.1562	79.5966	35.1562	79.5937	35.1562	79.5678	35.1562	79.5616	35.1562	79.5122	35.1562	79.5113	35.1562	79.4433	35.1562	79.4622	35.1562	79.3838	35.1562	79.4427	35.1562	79.3656	35.1562	79.4887	35.1562	79.4275	35.1562	79.6378	35.1562	79.6079	35.1562	79.9202	35.1562	79.9331	35.1562	80.3467	35.1562	80.4063	35.1562	80.9024	35.1562	81.0038	35.1562	81.5496	35.1562	81.6808	35.1562	82.2378	35.1562	82.3836	35.1562	82.9148	35.1562	83.0604	35.1562	83.5344	35.1562	83.6668	35.1562	84.0589	35.1562	84.1675	35.1562	84.4597	35.1562	84.5367	35.1562	84.7166	35.1562	84.7565	35.1562	84.8172
36.6211	81.3352	36.6211	81.3282	36.6211	81.3103	36.6211	81.2908	36.6211	81.2589	36.6211	81.2326	36.6211	81.1937	36.6211	81.1712	36.6211	81.1354	36.6211	81.1331	36.6211	81.1121	36.6211	81.1528	36.6211	81.1578	36.6211	81.2676	36.6211	81.3062	36.6211	81.5087	36.6211	81.5822	36.6211	81.8904	36.6211	81.9925	36.6211	82.4023	36.6211	82.5207	36.6211	83.0107	36.6211	83.1308	36.6211	83.6675	36.6211	83.7762	36.6211	84.3204	36.6211	84.4088	36.6211	84.921	36.6211	84.9856	36.6211	85.4291	36.6211	85.471	36.6211	85.8136	36.6211	85.8371	36.6211	86.0537	36.6211	86.0638	36.6211	86.1379
38.0859	82.9816	38.0859	82.9728	38.0859	82.9867	38.0859	82.963	38.0859	82.9914	38.0859	82.9601	38.0859	83.0044	38.0859	82.9777	38.0859	83.0396	38.0859	83.0334	38.0859	83.1152	38.0859	83.1476	38.0859	83.2515	38.0859	83.3397	38.0859	83.4672	38.0859	83.6239	38.0859	83.7746	38.0859	84.0043	38.0859	84.175	38.0859	84.4719	38.0859	84.656	38.0859	85.0052	38.0859	85.193	38.0859	85.5727	38.0859	85.7533	38.0859	86.1379	38.0859	86.3006	38.0859	86.6636	38.0859	86.7997	38.0859	87.1156	38.0859	87.2195	38.0859	87.465	38.0859	87.5342	38.0859	87.6902	38.0859	87.7245	38.0859	87.778
39.5508	84.6737	39.5508	84.6726	39.5508	84.6761	39.5508	84.6737	39.5508	84.6832	39.5508	84.6821	39.5508	84.7021	39.5508	84.7076	39.5508	84.7438	39.5508	84.764	39.5508	84.8224	39.5508	84.8683	39.5508	84.9535	39.5508	85.0383	39.5508	85.1515	39.5508	85.2888	39.5508	85.4265	39.5508	85.6267	39.5508	85.781	39.5508	86.0473	39.5508	86.2067	39.5508	86.5332	39.5508	86.6854	39.5508	87.056	39.5508	87.1905	39.5508	87.5811	39.5508	87.6905	39.5508	88.0719	39.5508	88.1533	39.5508	88.4939	39.5508	88.5486	39.5508	88.8183	39.5508	88.8505	39.5508	89.0237	39.5508	89.0382	39.5508	89.098
41.0156	85.5945	41.0156	85.5857	41.0156	85.6242	41.0156	85.6003	41.0156	85.6751	41.0156	85.6437	41.0156	85.75	41.0156	85.7236	41.0156	85.8543	41.0156	85.8496	41.0156	85.9952	41.0156	86.0312	41.0156	86.1805	41.0156	86.2765	41.0156	86.4174	41.0156	86.589	41.0156	86.7104	41.0156	86.9663	41.0156	87.0595	41.0156	87.3982	41.0156	87.4582	41.0156	87.8671	41.0156	87.8934	41.0156	88.3497	41.0156	88.3459	41.0156	88.8187	41.0156	88.792	41.0156	89.2459	41.0156	89.2058	41.0156	89.6051	41.0156	89.5621	41.0156	89.8741	41.0156	89.8385	41.0156	90.037	41.0156	90.0169	41.0156	90.085
42.4805	86.8659	42.4805	86.8715	42.4805	86.8811	42.4805	86.8993	42.4805	86.9173	42.4805	86.9526	42.4805	86.9765	42.4805	87.0356	42.4805	87.0625	42.4805	87.1536	42.4805	87.1804	42.4805	87.3123	42.4805	87.336	42.4805	87.5162	42.4805	87.5348	42.4805	87.7682	42.4805	87.7806	42.4805	88.0678	42.4805	88.0737	42.4805	88.4096	42.4805	88.4099	42.4805	88.7829	42.4805	88.7793	42.4805	89.1715	42.4805	89.166	42.4805	89.5551	42.4805	89.5497	42.4805	89.9109	42.4805	89.9069	42.4805	90.216	42.4805	90.214	42.4805	90.4503	42.4805	90.4499	42.4805	90.5979	42.4805	90.598	42.4805	90.6484
43.9453	87.5554	43.9453	87.5621	43.9453	87.573	43.9453	87.5941	43.9453	87.6153	43.9453	87.6529	43.9453	87.6833	43.9453	87.7409	43.9453	87.7789	43.9453	87.861	43.9453	87.9047	43.9453	88.0161	43.9453	88.0636	43.9453	88.2091	43.9453	88.2582	43.9453	88.4411	43.9453	88.49	43.9453	88.7114	43.9453	88.7586	43.9453	89.0157	43.9453	89.0603	43.9453	89.3459	43.9453	89.3874	43.9453	89.6891	43.9453	89.7275	43.9453	90.0288	43.9453	90.0639	43.9453	90.3457	43.9453	90.3768	43.9453	90.6198	43.9453	90.6458	43.9453	90.8326	43.9453	90.8517	43.9453	90.9692	43.9453	90.9793	43.9453	91.0194
45.4102	87.7945	45.4102	87.8079	45.4102	87.8092	45.4102	87.8494	45.4102	87.852	45.4102	87.9194	45.4102	87.9235	45.4102	88.0186	45.4102	88.0242	45.4102	88.1478	45.4102	88.1548	45.4102	88.3076	45.4102	88.3159	45.4102	88.4987	45.4102	88.508	45.4102	88.7205	45.4102	88.7306	45.4102	88.9716	45.4102	88.9822	45.4102	89.2482	45.4102	89.2594	45.4102	89.5439	45.4102	89.5556	45.4102	89.8491	45.4102	89.8611	45.4102	90.1504	45.4102	90.1625	45.4102	90.4319	45.4102	90.4434	45.4102	90.676	45.4102	90.686	45.4102	90.8658	45.4102	90.8732	45.4102	90.9869	45.4102	90.9909	45.4102	91.0298
46.875	88.0384	46.875	88.0544	46.875	88.0516	46.875	88.0991	46.875	88.094	46.875	88.172	46.875	88.1657	46.875	88.2725	46.875	88.2662	46.875	88.3998	46.875	88.3947	46.875	88.5532	46.875	88.5503	46.875	88.7318	46.875	88.7316	46.875	88.9344	46.875	88.9371	46.875	89.1592	46.875	89.1644	46.875	89.4031	46.875	89.4101	46.875	89.661	46.875	89.6689	46.875	89.9254	46.875	89.9333	46.875	90.1858	46.875	90.1927	46.875	90.4288	46.875	90.4342	46.875	90.6395	46.875	90.643	46.875	90.8029	46.875	90.8049	46.875	90.9067	46.875	90.9075	46.875	90.9424
48.3398	88.2106	48.3398	88.2183	48.3398	88.2299	48.3398	88.253	48.3398	88.2753	48.3398	88.314	48.3398	88.3453	48.3398	88.4002	48.3398	88.4379	48.3398	88.5098	48.3398	88.5507	48.3398	88.641	48.3398	88.6814	48.3398	88.7919	48.3398	88.8281	48.3398	88.9604	48.3398	88.9892	48.3398	89.1447	48.3398	89.1632	48.3398	89.3423	48.3398	89.3487	48.3398	89.5497	48.3398	89.5435	48.3398	89.7613	48.3398	89.7435	48.3398	89.9694	48.3398	89.9425	48.3398	90.1634	48.3398	90.1315	48.3398	90.3308	48.3398	90.2993	48.3398	90.4591	48.3398	90.4337	48.3398	90.5374	48.3398	90.5232	48.3398	90.5592
51.2695	88.3561	51.2695	88.3567	51.2695	88.3745	51.2695	88.3768	51.2695	88.4105	51.2695	88.4164	51.2695	88.4625	51.2695	88.4748	51.2695	88.5285	51.2695	88.5504	51.2695	88.6067	51.2695	88.6415	51.2695	88.6951	51.2695	88.7458	51.2695	88.7922	51.2695	88.861	51.2695	88.897	51.2695	88.9847	51.2695	89.0087	51.2695	89.1148	51.2695	89.1268	51.2695	89.2486	51.2695	89.2502	51.2695	89.3831	51.2695	89.377	51.2695	89.5139	51.2695	89.5033	51.2695	89.6352	51.2695	89.6233	51.2695	89.7402	51.2695	89.7294	51.2695	89.8214	51.2695	89.8135	51.2695	89.8723	51.2695	89.8681	51.2695	89.8884
52.7344	88.318	52.7344	88.3278	52.7344	88.3269	52.7344	88.3562	52.7344	88.3541	52.7344	88.4022	52.7344	88.3986	52.7344	88.4644	52.7344	88.4588	52.7344	88.5406	52.7344	88.5328	52.7344	88.6285	52.7344	88.6184	52.7344	88.7253	52.7344	88.7135	52.7344	88.8287	52.7344	88.8161	52.7344	88.9364	52.7344	88.9244	52.7344	89.0467	52.7344	89.0368	52.7344	89.158	52.7344	89.1517	52.7344	89.2685	52.7344	89.2669	52.7344	89.3759	52.7344	89.3791	52.7344	89.4765	52.7344	89.4835	52.7344	89.5652	52.7344	89.574	52.7344	89.636	52.7344	89.6439	52.7344	89.6827	52.7344	89.6874	52.7344	89.7006
54.1992	88.3061	54.1992	88.3161	54.1992	88.3149	54.1992	88.3443	54.1992	88.3423	54.1992	88.3895	54.1992	88.3873	54.1992	88.4498	54.1992	88.4485	54.1992	88.5229	54.1992	88.5237	54.1992	88.606	54.1992	88.6103	54.1992	88.6963	54.1992	88.7054	54.1992	88.791	54.1992	88.8063	54.1992	88.8878	54.1992	88.9104	54.1992	88.9851	54.1992	89.0153	54.1992	89.0816	54.1992	89.119	54.1992	89.1763	54.1992	89.2195	54.1992	89.268	54.1992	89.3142	54.1992	89.3543	54.1992	89.3998	54.1992	89.4316	54.1992	89.4717	54.1992	89.4951	54.1992	89.5252	54.1992	89.5396	54.1992	89.5557	54.1992	89.5606
55.6641	88.2653	55.6641	88.2698	55.6641	88.2798	55.6641	88.293	55.6641	88.313	55.6641	88.3335	55.6641	88.3637	55.6641	88.3895	55.6641	88.43	55.6641	88.4585	55.6641	88.5092	55.6641	88.5373	55.6641	88.5981	55.6641	88.623	55.6641	88.6935	55.6641	88.7123	55.6641	88.7917	55.6641	88.8027	55.6641	88.8898	55.6641	88.8922	55.6641	88.9853	55.6641	88.9795	55.6641	89.0761	55.6641	89.064	55.6641	89.1607	55.6641	89.1448	55.6641	89.2375	55.6641	89.2208	55.6641	89.3045	55.6641	89.2895	55.6641	89.3588	55.6641	89.3473	55.6641	89.397	55.6641	89.3899	55.6641	89.4159	55.6641	89.4135
58.5938	88.3825	58.5938	88.3893	58.5938	88.3915	58.5938	88.4115	58.5938	88.4162	58.5938	88.4475	58.5938	88.4554	58.5938	88.4954	58.5938	88.5071	58.5938	88.5524	58.5938	88.5687	58.5938	88.6153	58.5938	88.6367	58.5938	88.6809	58.5938	88.7074	58.5938	88.7458	58.5938	88.7772	58.5938	88.8072	58.5938	88.8426	58.5938	88.8632	58.5938	88.9013	58.5938	88.9127	58.5938	88.9517	58.5938	88.9556	58.5938	88.9936	58.5938	88.9925	58.5938	89.0275	58.5938	89.0242	58.5938	89.0543	58.5938	89.0511	58.5938	89.0748	58.5938	89.0727	58.5938	89.089	58.5938	89.0881	58.5938	89.0963	58.5938	89.0961
60.0586	88.4795	60.0586	88.4885	60.0586	88.4832	60.0586	88.5098	60.0586	88.4996	60.0586	88.5421	60.0586	88.5276	60.0586	88.5836	60.0586	88.5655	60.0586	88.6317	60.0586	88.611	60.0586	88.6833	60.0586	88.661	60.0586	88.7352	60.0586	88.7121	60.0586	88.7839	60.0586	88.7609	60.0586	88.8267	60.0586	88.8043	60.0586	88.8613	60.0586	88.84	60.0586	88.8867	60.0586	88.867	60.0586	88.9032	60.0586	88.8854	60.0586	88.9122	60.0586	88.8966	60.0586	88.9158	60.0586	88.9028	60.0586	88.9162	60.0586	88.906	60.0586	88.915	60.0586	88.908	60.0586	88.9133	60.0586	88.9097	60.0586	88.9115
62.9883	88.8351	62.9883	88.8256	62.9883	88.8516	62.9883	88.8231	62.9883	88.8744	62.9883	88.8272	62.9883	88.9022	62.9883	88.8365	62.9883	88.933	62.9883	88.8493	62.9883	88.9646	62.9883	88.8631	62.9883	88.994	62.9883	88.8752	62.9883	89.018	62.9883	88.8825	62.9883	89.0335	62.9883	88.8825	62.9883	89.0375	62.9883	88.8733	62.9883	89.0281	62.9883	88.8544	62.9883	89.0047	62.9883	88.827	62.9883	88.9683	62.9883	88.794	62.9883	88.9217	62.9883	88.76	62.9883	88.8695	62.9883	88.7302	62.9883	88.8172	62.9883	88.7096	62.9883	88.7702	62.9883	88.7023	62.9883	88.7333	62.9883	88.7101
64.4531	89.0417	64.4531	89.0334	64.4531	89.0523	64.4531	89.0274	64.4531	89.0645	64.4531	89.0232	64.4531	89.0775	64.4531	89.0199	64.4531	89.0897	64.4531	89.016	64.4531	89.0992	64.4531	89.0095	64.4531	89.1035	64.4531	88.998	64.4531	89.1001	64.4531	88.979	64.4531	89.086	64.4531	88.9502	64.4531	89.0589	64.4531	88.9102	64.4531	89.0172	64.4531	88.8588	64.4531	88.9607	64.4531	88.7978	64.4531	88.8915	64.4531	88.731	64.4531	88.8135	64.4531	88.6641	64.4531	88.7328	64.4531	88.6041	64.4531	88.657	64.4531	88.5577	64.4531	88.5936	64.4531	88.531	64.4531	88.549	64.4531	88.5276
67.3828	89.3612	67.3828	89.3739	67.3828	89.3499	67.3828	89.3877	67.3828	89.34	67.3828	89.4015	67.3828	89.3309	67.3828	89.4139	67.3828	89.3213	67.3828	89.4225	67.3828	89.3095	67.3828	89.4247	67.3828	89.2931	67.3828	89.4172	67.3828	89.2695	67.3828	89.3968	67.3828	89.2359	67.3828	89.3604	67.3828	89.1898	67.3828	89.3062	67.3828	89.13	67.3828	89.2338	67.3828	89.057	67.3828	89.1451	67.3828	88.9735	67.3828	89.0449	67.3828	88.885	67.3828	88.94	67.3828	88.7992	67.3828	88.8392	67.3828	88.725	67.3828	88.752	67.3828	88.6713	67.3828	88.6868	67.3828	88.645	67.3828	88.65
68.8477	89.432	68.8477	89.4391	68.8477	89.4268	68.8477	89.448	68.8477	89.4234	68.8477	89.4578	68.8477	89.421	68.8477	89.4672	68.8477	89.4186	68.8477	89.4743	68.8477	89.4142	68.8477	89.4763	68.8477	89.4056	68.8477	89.4702	68.8477	89.3897	68.8477	89.4525	68.8477	89.3635	68.8477	89.4198	68.8477	89.3242	68.8477	89.37	68.8477	89.27	68.8477	89.3024	68.8477	89.2009	68.8477	89.2187	68.8477	89.1191	68.8477	89.1231	68.8477	89.0297	68.8477	89.0228	68.8477	88.9401	68.8477	88.9268	68.8477	88.8596	68.8477	88.8451	68.8477	88.7976	68.8477	88.7866	68.8477	88.762	68.8477	88.7579
71.7773	89.6155	71.7773	89.6146	71.7773	89.6165	71.7773	89.6139	71.7773	89.6174	71.7773	89.6131	71.7773	89.6177	71.7773	89.6115	71.7773	89.6167	71.7773	89.6078	71.7773	89.613	71.7773	89.6	71.7773	89.6046	71.7773	89.5854	71.7773	89.5888	71.7773	89.5607	71.7773	89.5625	71.7773	89.5225	71.7773	89.5227	71.7773	89.4684	71.7773	89.4669	71.7773	89.3974	71.7773	89.3943	71.7773	89.3106	71.7773	89.3064	71.7773	89.2126	71.7773	89.2078	71.7773	89.1105	71.7773	89.1059	71.7773	89.0143	71.7773	89.0104	71.7773	88.9349	71.7773	88.9321	71.7773	88.8822	71.7773	88.8808	71.7773	88.8633
74.707	89.8471	74.707	89.8443	74.707	89.8461	74.707	89.8379	74.707	89.8414	74.707	89.8281	74.707	89.8329	74.707	89.8147	74.707	89.8205	74.707	89.7972	74.707	89.8036	74.707	89.7744	74.707	89.781	74.707	89.7441	74.707	89.7507	74.707	89.7037	74.707	89.7101	74.707	89.6501	74.707	89.6564	74.707	89.5811	74.707	89.5872	74.707	89.4955	74.707	89.5016	74.707	89.3948	74.707	89.4009	74.707	89.2833	74.707	89.2894	74.707	89.1687	74.707	89.1748	74.707	89.0617	74.707	89.0674	74.707	88.9741	74.707	88.9786	74.707	88.917	74.707	88.9195	74.707	88.8979
77.6367	90.2247	77.6367	90.221	77.6367	90.2213	77.6367	90.21	77.6367	90.2109	77.6367	90.192	77.6367	90.1934	77.6367	90.1666	77.6367	90.1688	77.6367	90.1334	77.6367	90.1367	77.6367	90.0913	77.6367	90.096	77.6367	90.0386	77.6367	90.0448	77.6367	89.9729	77.6367	89.9809	77.6367	89.8919	77.6367	89.9019	77.6367	89.7939	77.6367	89.8057	77.6367	89.6785	77.6367	89.692	77.6367	89.548	77.6367	89.5626	77.6367	89.4079	77.6367	89.423	77.6367	89.2671	77.6367	89.2817	77.6367	89.1377	77.6367	89.1506	77.6367	89.0331	77.6367	89.0428	77.6367	88.9656	77.6367	88.9709	77.6367	88.9439
79.1016	90.4496	79.1016	90.4441	79.1016	90.4469	79.1016	90.4305	79.1016	90.4362	79.1016	90.4089	79.1016	90.4175	79.1016	90.3792	79.1016	90.3906	79.1016	90.3409	79.1016	90.3552	79.1016	90.2931	79.1016	90.3102	79.1016	90.2339	79.1016	90.2536	79.1016	90.1611	79.1016	90.1832	79.1016	90.072	79.1016	90.0962	79.1016	89.9648	79.1016	89.9908	79.1016	89.8392	79.1016	89.8664	79.1016	89.6975	79.1016	89.7251	79.1016	89.5455	79.1016	89.5724	79.1016	89.3928	79.1016	89.4177	79.1016	89.2523	79.1016	89.2737	79.1016	89.1389	79.1016	89.1547	79.1016	89.0661	79.1016	89.0746	79.1016	89.0437
82.0312	90.7611	82.0312	90.7546	82.0312	90.7589	82.0312	90.7398	82.0312	90.7481	82.0312	90.7175	82.0312	90.7292	82.0312	90.6884	82.0312	90.7028	82.0312	90.653	82.0312	90.6694	82.0312	90.6112	82.0312	90.6289	82.0312	90.5617	82.0312	90.58	82.0312	90.5025	82.0312	90.521	82.0312	90.431	82.0312	90.4492	82.0312	90.345	82.0312	90.3625	82.0312	90.2434	82.0312	90.2599	82.0312	90.1276	82.0312	90.1428	82.0312	90.0022	82.0312	90.0156	82.0312	89.8752	82.0312	89.8866	82.0312	89.7576	82.0312	89.7668	82.0312	89.6621	82.0312	89.6686	82.0312	89.6	82.0312	89.6034	82.0312	89.5796
84.9609	91.0616	84.9609	91.0595	84.9609	91.0484	84.9609	91.0427	84.9609	91.0206	84.9609	91.0125	84.9609	90.9797	84.9609	90.9708	84.9609	90.9277	84.9609	90.9195	84.9609	90.8671	84.9609	90.8597	84.9609	90.7994	84.9609	90.7916	84.9609	90.7254	84.9609	90.7141	84.9609	90.6443	84.9609	90.6249	84.9609	90.5545	84.9609	90.5219	84.9609	90.4538	84.9609	90.4039	84.9609	90.3408	84.9609	90.2717	84.9609	90.2159	84.9609	90.1296	84.9609	90.083	84.9609	89.986	84.9609	89.9495	84.9609	89.8524	84.9609	89.8262	84.9609	89.7426	84.9609	89.7261	84.9609	89.6692	84.9609	89.6613	84.9609	89.6411
87.8906	91.5802	87.8906	91.5749	87.8906	91.5641	87.8906	91.5489	87.8906	91.5272	87.8906	91.5043	87.8906	91.4715	87.8906	91.4439	87.8906	91.4	87.8906	91.3707	87.8906	91.3161	87.8906	91.2876	87.8906	91.2234	87.8906	91.1964	87.8906	91.1248	87.8906	91.0978	87.8906	91.0218	87.8906	90.9913	87.8906	90.9149	87.8906	90.8761	87.8906	90.8035	87.8906	90.7519	87.8906	90.6871	87.8906	90.62	87.8906	90.5659	87.8906	90.4845	87.8906	90.4427	87.8906	90.3524	87.8906	90.3226	87.8906	90.2332	87.8906	90.2139	87.8906	90.1373	87.8906	90.1264	87.8906	90.0746	87.8906	90.0698	87.8906	90.0514
90.8203	92.1035	90.8203	92.0976	90.8203	92.0833	90.8203	92.0666	90.8203	92.037	90.8203	92.0131	90.8203	91.9665	90.8203	91.9403	90.8203	91.8747	90.8203	91.8517	90.8203	91.7653	90.8203	91.7507	90.8203	91.6423	90.8203	91.6395	90.8203	91.5095	90.8203	91.5193	90.8203	91.3698	90.8203	91.3903	90.8203	91.2256	90.8203	91.252	90.8203	91.0782	90.8203	91.1047	90.8203	90.9293	90.8203	90.9503	90.8203	90.7812	90.8203	90.793	90.8203	90.6384	90.8203	90.64	90.8203	90.507	90.8203	90.5007	90.8203	90.3953	90.8203	90.3855	90.8203	90.3125	90.8203	90.304	90.8203	90.2667	90.8203	90.2634
95.2148	92.4531	95.2148	92.4405	95.2148	92.4383	95.2148	92.4017	95.2148	92.3965	95.2148	92.34	95.2148	92.3301	95.2148	92.2597	95.2148	92.2427	95.2148	92.1657	95.2148	92.1389	95.2148	92.0626	95.2148	92.0231	95.2148	91.9539	95.2148	91.8992	95.2148	91.8409	95.2148	91.7698	95.2148	91.7236	95.2148	91.6361	95.2148	91.6003	95.2148	91.4983	95.2148	91.4696	95.2148	91.3566	95.2148	91.3311	95.2148	91.2127	95.2148	91.1871	95.2148	91.0701	95.2148	91.0436	95.2148	90.9359	95.2148	90.9096	95.2148	90.8193	95.2148	90.7962	95.2148	90.7311	95.2148	90.7151	95.2148	90.6809	95.2148	90.6752
98.1445	92.5573	98.1445	92.5358	98.1445	92.5463	98.1445	92.4835	98.1445	92.5034	98.1445	92.4041	98.1445	92.4317	98.1445	92.3032	98.1445	92.3356	98.1445	92.1872	98.1445	92.2213	98.1445	92.0628	98.1445	92.0952	98.1445	91.9356	98.1445	91.9629	98.1445	91.8097	98.1445	91.8292	98.1445	91.687	98.1445	91.6966	98.1445	91.5675	98.1445	91.5663	98.1445	91.4502	98.1445	91.4385	98.1445	91.3344	98.1445	91.3136	98.1445	91.2207	98.1445	91.1935	98.1445	91.1123	98.1445	91.0823	98.1445	91.0145	98.1445	90.9861	98.1445	90.9345	98.1445	90.9123	98.1445	90.8798	98.1445	90.8677	98.1445	90.8565
101.074	92.7312	101.074	92.7123	101.074	92.7111	101.074	92.6558	101.074	92.6532	101.074	92.5655	101.074	92.5609	101.074	92.4473	101.074	92.4398	101.074	92.3084	101.074	92.2971	101.074	92.1568	101.074	92.1405	101.074	91.9998	101.074	91.9778	101.074	91.8434	101.074	91.8152	101.074	91.6916	101.074	91.6575	101.074	91.5463	101.074	91.5075	101.074	91.4082	101.074	91.3663	101.074	91.2779	101.074	91.235	101.074	91.1568	101.074	91.1151	101.074	91.0475	101.074	91.0093	101.074	90.954	101.074	90.9219	101.074	90.8807	101.074	90.8573	101.074	90.8319	101.074	90.8195	101.074	90.8109
105.469	92.8168	105.469	92.7963	105.469	92.7915	105.469	92.7312	105.469	92.722	105.469	92.6259	105.469	92.6127	105.469	92.4872	105.469	92.4705	105.469	92.3241	105.469	92.3045	105.469	92.1465	105.469	92.125	105.469	91.9648	105.469	91.942	105.469	91.7878	105.469	91.7648	105.469	91.6223	105.469	91.6001	105.469	91.4722	105.469	91.4517	105.469	91.3387	105.469	91.3209	105.469	91.2219	105.469	91.2072	105.469	91.121	105.469	91.1096	105.469	91.0359	105.469	91.0276	105.469	90.9673	105.469	90.9615	105.469	90.9164	105.469	90.9128	105.469	90.8847	105.469	90.883	105.469	90.8735
108.398	92.8233	108.398	92.8052	108.398	92.7911	108.398	92.7386	108.398	92.7098	108.398	92.6286	108.398	92.5839	108.398	92.483	108.398	92.4209	108.398	92.3117	108.398	92.2313	108.398	92.1263	108.398	92.0272	108.398	91.9387	108.398	91.8221	108.398	91.7597	108.398	91.6283	108.398	91.5978	108.398	91.4559	108.398	91.4583	108.398	91.3118	108.398	91.3432	108.398	91.1986	108.398	91.2519	108.398	91.1159	108.398	91.182	108.398	91.0607	108.398	91.1302	108.398	91.0286	108.398	91.0927	108.398	91.0143	108.398	91.0657	108.398	91.0128	108.398	91.0459	108.398	91.0193	108.398	91.0307
112.793	92.6423	112.793	92.6099	112.793	92.6102	112.793	92.5159	112.793	92.5145	112.793	92.3667	112.793	92.3601	112.793	92.1725	112.793	92.1554	112.793	91.9468	112.793	91.9125	112.793	91.7057	112.793	91.6469	112.793	91.4664	112.793	91.3763	112.793	91.245	112.793	91.1189	112.793	91.0545	112.793	90.8913	112.793	90.9029	112.793	90.7059	112.793	90.7918	112.793	90.5689	112.793	90.7174	112.793	90.4805	112.793	90.6717	112.793	90.436	112.793	90.6448	112.793	90.4271	112.793	90.6268	112.793	90.4441	112.793	90.6092	112.793	90.4771	112.793	90.5859	112.793	90.5166	112.793	90.5546
117.188	92.5807	117.188	92.4771	117.188	92.6042	117.188	92.2955	117.188	92.549	117.188	92.0423	117.188	92.4201	117.188	91.7282	117.188	92.226	117.188	91.3696	117.188	91.9787	117.188	90.9882	117.188	91.694	117.188	90.6115	117.188	91.3909	117.188	90.2698	117.188	91.09	117.188	89.9918	117.188	90.8118	117.188	89.7984	117.188	90.5733	117.188	89.6966	117.188	90.3855	117.188	89.6779	117.188	90.2516	117.188	89.7214	117.188	90.1673	117.188	89.8007	117.188	90.1226	117.188	89.8905	117.188	90.1043	117.188	89.9719	117.188	90.0983	117.188	90.0337	117.188	90.0914	117.188	90.0725
120.117	93.4007	120.117	93.3335	120.117	93.3792	120.117	93.1774	120.117	93.2714	120.117	92.9344	120.117	93.0826	120.117	92.6094	120.117	92.8213	120.117	92.2104	120.117	92.5001	120.117	91.7509	120.117	92.1369	120.117	91.2507	120.117	91.7547	120.117	90.7386	120.117	91.381	120.117	90.2523	120.117	91.0441	120.117	89.8357	120.117	90.7683	120.117	89.53	120.117	90.567	120.117	89.3612	120.117	90.4391	120.117	89.3297	120.117	90.3697	120.117	89.4102	120.117	90.3342	120.117	89.5623	120.117	90.3064	120.117	89.7442	120.117	90.263	120.117	89.9223	120.117	90.1881	120.117	90.074
124.512	94.1863	124.512	94.1598	124.512	94.1316	124.512	94.0533	124.512	93.9964	124.512	93.87	124.512	93.7834	124.512	93.6156	124.512	93.4984	124.512	93.2984	124.512	93.1503	124.512	92.9303	124.512	92.753	124.512	92.5275	124.512	92.3261	124.512	92.1109	124.512	91.8962	124.512	91.7065	124.512	91.4955	124.512	91.3433	124.512	91.1589	124.512	91.0499	124.512	90.9156	124.512	90.848	124.512	90.7806	124.512	90.7458	124.512	90.7474	124.512	90.734	124.512	90.7895	124.512	90.7869	124.512	90.8689	124.512	90.8701	124.512	90.9471	124.512	90.9487	124.512	90.9945	124.512	90.9951
128.906	94.0164	128.906	93.9623	128.906	93.9798	128.906	93.8191	128.906	93.8522	128.906	93.5899	128.906	93.6352	128.906	93.2798	128.906	93.3328	128.906	92.8966	128.906	92.9522	128.906	92.4523	128.906	92.5058	128.906	91.9647	128.906	92.0133	128.906	91.4595	128.906	91.5038	128.906	90.9723	128.906	91.017	128.906	90.5463	128.906	90.6001	128.906	90.2259	128.906	90.2982	128.906	90.0437	128.906	90.1396	128.906	90.006	128.906	90.1218	128.906	90.0874	128.906	90.2108	128.906	90.2393	128.906	90.3529	128.906	90.4055	128.906	90.4922	128.906	90.5371	128.906	90.5839	128.906	90.6012
133.301	94.5164	133.301	94.4634	133.301	94.4798	133.301	94.3221	133.301	94.3521	133.301	94.0941	133.301	94.1322	133.301	93.7815	133.301	93.8194	133.301	93.3871	133.301	93.4148	133.301	92.9158	133.301	92.9221	133.301	92.3765	133.301	92.3506	133.301	91.7843	133.301	91.7181	133.301	91.1643	133.301	91.0556	133.301	90.5551	133.301	90.4109	133.301	90.0086	133.301	89.8471	133.301	89.5815	133.301	89.429	133.301	89.316	133.301	89.1968	133.301	89.2173	133.301	89.143	133.301	89.2476	133.301	89.2132	133.301	89.341	133.301	89.3316	133.301	89.4304	133.301	89.4303	133.301	89.467
139.16	94.3184	139.16	94.2551	139.16	94.3014	139.16	94.1124	139.16	94.2039	139.16	93.8929	139.16	94.0271	139.16	93.6004	139.16	93.773	139.16	93.2405	139.16	93.4448	139.16	92.8211	139.16	93.047	139.16	92.3531	139.16	92.5868	139.16	91.8514	139.16	92.075	139.16	91.3369	139.16	91.5291	139.16	90.8369	139.16	90.9752	139.16	90.385	139.16	90.4499	139.16	90.0157	139.16	89.9976	139.16	89.7546	139.16	89.66	139.16	89.6065	139.16	89.4601	139.16	89.5496	139.16	89.3891	139.16	89.5428	139.16	89.4084	139.16	89.5423	139.16	89.4663	139.16	89.5184
143.555	94.1463	143.555	94.0668	143.555	94.1347	143.555	93.8967	143.555	94.0333	143.555	93.6377	143.555	93.8447	143.555	93.2937	143.555	93.5733	143.555	92.8714	143.555	93.2258	143.555	92.3813	143.555	92.8117	143.555	91.8399	143.555	92.3444	143.555	91.2715	143.555	91.842	143.555	90.7095	143.555	91.3286	143.555	90.1952	143.555	90.8339	143.555	89.7719	143.555	90.3907	143.555	89.4737	143.555	90.0295	143.555	89.3125	143.555	89.7704	143.555	89.2725	143.555	89.6154	143.555	89.3154	143.555	89.5465	143.555	89.3945	143.555	89.5308	143.555	89.4693	143.555	89.531	143.555	89.5159
147.949	94.2036	147.949	94.1269	147.949	94.1791	147.949	93.9484	147.949	94.055	147.949	93.6684	147.949	93.8348	147.949	93.2892	147.949	93.5235	147.949	92.8156	147.949	93.1296	147.949	92.257	147.949	92.6656	147.949	91.6312	147.949	92.1508	147.949	90.9685	147.949	91.613	147.949	90.3167	147.949	91.089	147.949	89.7404	147.949	90.6222	147.949	89.3103	147.949	90.2538	147.949	89.0764	147.949	90.0099	147.949	89.0427	147.949	89.8902	147.949	89.1637	147.949	89.8676	147.949	89.3676	147.949	89.8981	147.949	89.5857	147.949	89.9355	147.949	89.7682	147.949	89.9409	147.949	89.8888
153.809	94.9022	153.809	94.8544	153.809	94.8493	153.809	94.7049	153.809	94.6958	153.809	94.4513	153.809	94.4406	153.809	94.0902	153.809	94.0826	153.809	93.6172	153.809	93.6213	153.809	93.0288	153.809	93.0593	153.809	92.325	153.809	92.4054	153.809	91.515	153.809	91.6812	153.809	90.6281	153.809	90.9296	153.809	89.7297	153.809	90.2228	153.809	88.9357	153.809	89.6579	153.809	88.3973	153.809	89.3248	153.809	88.2256	153.809	89.2524	153.809	88.4027	153.809	89.3819	153.809	88.7908	153.809	89.5996	153.809	89.2263	153.809	89.7921	153.809	89.5892	153.809	89.8783	153.809	89.8142
159.668	94.2357	159.668	94.2236	159.668	94.1626	159.668	94.1252	159.668	94.0054	159.668	93.9388	159.668	93.7649	159.668	93.6626	159.668	93.4421	159.668	93.2939	159.668	93.0381	159.668	92.8299	159.668	92.5551	159.668	92.2692	159.668	91.9975	159.668	91.6138	159.668	91.375	159.668	90.8756	159.668	90.7074	159.668	90.0845	159.668	90.0312	159.668	89.3003	159.668	89.4035	159.668	88.6183	159.668	88.8968	159.668	88.1486	159.668	88.5735	159.668	87.9592	159.668	88.4493	159.668	88.0214	159.668	88.4757	159.668	88.224	159.668	88.5627	159.668	88.4412	159.668	88.6193	159.668	88.5845
165.527	94.1222	165.527	94.0853	165.527	94.0537	165.527	93.9423	165.527	93.8808	165.527	93.6934	165.527	93.6058	165.527	93.3395	165.527	93.2325	165.527	92.8825	165.527	92.7667	165.527	92.3265	165.527	92.2178	165.527	91.6794	165.527	91.6009	165.527	90.9573	165.527	90.9403	165.527	90.1902	165.527	90.2742	165.527	89.43	165.527	89.6572	165.527	88.7557	165.527	89.1558	165.527	88.2626	165.527	88.8289	165.527	88.0257	165.527	88.6988	165.527	88.0512	165.527	88.733	165.527	88.2659	165.527	88.8563	165.527	88.5563	165.527	88.9826	165.527	88.82	165.527	89.0415	165.527	88.9905
171.387	94.4146	171.387	94.4296	171.387	94.2964	171.387	94.3403	171.387	94.0751	171.387	94.1437	171.387	93.7493	171.387	93.8355	171.387	93.3175	171.387	93.4105	171.387	92.7788	171.387	92.8633	171.387	92.1352	171.387	92.1905	171.387	91.396	171.387	91.3945	171.387	90.5843	171.387	90.4907	171.387	89.7474	171.387	89.52	171.387	88.9654	171.387	88.5657	171.387	88.3463	171.387	87.7621	171.387	87.9862	171.387	87.262	171.387	87.9079	171.387	87.1454	171.387	88.0366	171.387	87.3497	171.387	88.244	171.387	87.7148	171.387	88.4107	171.387	88.0818	171.387	88.4568	171.387	88.3457
177.246	94.3348	177.246	94.3381	177.246	94.2422	177.246	94.2529	177.246	94.0572	177.246	94.0781	177.246	93.7749	177.246	93.8098	177.246	93.3884	177.246	93.4415	177.246	92.8888	177.246	92.965	177.246	92.2657	177.246	92.3726	177.246	91.5101	177.246	91.6615	177.246	90.6206	177.246	90.8415	177.246	89.618	177.246	89.9482	177.246	88.5718	177.246	89.059	177.246	87.6319	177.246	88.2983	177.246	87.0169	177.246	87.8052	177.246	86.8823	177.246	87.6505	177.246	87.1634	177.246	87.7766	177.246	87.6284	177.246	88.0365	177.246	88.0582	177.246	88.2796	177.246	88.3284	177.246	88.3972
183.105	93.9234	183.105	93.9314	183.105	93.8321	183.105	93.8572	183.105	93.6569	183.105	93.7018	183.105	93.3984	183.105	93.4653	183.105	93.0581	183.105	93.1457	183.105	92.6381	183.105	92.7388	183.105	92.1411	183.105	92.24	183.105	91.5707	183.105	91.6468	183.105	90.9333	183.105	90.9651	183.105	90.2427	183.105	90.2178	183.105	89.527	183.105	89.4563	183.105	88.8379	183.105	88.7659	183.105	88.2536	183.105	88.2501	183.105	87.8614	183.105	87.9807	183.105	87.7114	183.105	87.9441	183.105	87.7735	183.105	88.0435	183.105	87.9464	183.105	88.1566	183.105	88.1133	183.105	88.1919
188.965	94.4652	188.965	94.421	188.965	94.3986	188.965	94.2705	188.965	94.2176	188.965	94.0193	188.965	93.9198	188.965	93.6728	188.965	93.504	188.965	93.2367	188.965	92.9707	188.965	92.717	188.965	92.3241	188.965	92.1216	188.965	91.5764	188.965	91.4652	188.965	90.7569	188.965	90.7764	188.965	89.9254	188.965	90.1066	188.965	89.1854	188.965	89.5348	188.965	88.6731	188.965	89.1532	188.965	88.4963	188.965	89.0254	188.965	88.6528	188.965	89.1404	188.965	89.0237	188.965	89.4112	188.965	89.4516	188.965	89.7207	188.965	89.812	188.965	89.967	188.965	90.032	188.965	90.0823
196.289	94.621	196.289	94.5725	196.289	94.5631	196.289	94.4206	196.289	94.394	196.289	94.1663	196.289	94.1071	196.289	93.8083	196.289	93.6945	196.289	93.3431	196.289	93.1468	196.289	92.7664	196.289	92.4547	196.289	92.0765	196.289	91.6123	196.289	91.2806	196.289	90.6257	196.289	90.4072	196.289	89.5321	196.289	89.5226	196.289	88.435	196.289	88.7449	196.289	87.5392	196.289	88.2269	196.289	87.1049	196.289	88.0784	196.289	87.2475	196.289	88.2777	196.289	87.8014	196.289	88.6795	196.289	88.4779	196.289	89.1084	196.289	89.0573	196.289	89.4267	196.289	89.4269	196.289	89.5477
203.613	93.9747	203.613	93.9061	203.613	93.9292	203.613	93.7273	203.613	93.766	203.613	93.4415	203.613	93.4813	203.613	93.0512	203.613	93.0708	203.613	92.5574	203.613	92.5306	203.613	91.9604	203.613	91.8577	203.613	91.2626	203.613	91.0545	203.613	90.4768	203.613	90.1385	203.613	89.6421	203.613	89.1602	203.613	88.8461	203.613	88.231	203.613	88.2342	203.613	87.5345	203.613	87.9618	203.613	87.262	203.613	88.0813	203.613	87.4638	203.613	88.4839	203.613	87.9924	203.613	88.9823	203.613	88.6245	203.613	89.4164	203.613	89.1854	203.613	89.6872	203.613	89.5744	203.613	89.7454
210.938	94.4545	210.938	94.3769	210.938	94.4126	210.938	94.1834	210.938	94.2443	210.938	93.8734	210.938	93.9392	210.938	93.4414	210.938	93.4825	210.938	92.8759	210.938	92.8535	210.938	92.1575	210.938	92.0241	210.938	91.26	210.938	90.9574	210.938	90.1547	210.938	89.6113	210.938	88.8282	210.938	87.9627	210.938	87.3382	210.938	86.1036	210.938	85.9486	210.938	84.5171	210.938	85.2419	210.938	84.1876	210.938	85.6566	210.938	85.3205	210.938	86.8171	210.938	86.933	210.938	88.0776	210.938	88.3337	210.938	89.0935	210.938	89.3239	210.938	89.7506	210.938	89.8803	210.938	90.0174
218.262	94.7516	218.262	94.7025	218.262	94.7068	218.262	94.5617	218.262	94.5641	218.262	94.3286	218.262	94.3176	218.262	93.9993	218.262	93.9586	218.262	93.565	218.262	93.4743	218.262	93.0113	218.262	92.8467	218.262	92.3189	218.262	92.0512	218.262	91.4642	218.262	91.0557	218.262	90.4241	218.262	89.8237	218.262	89.1875	218.262	88.326	218.262	87.7848	218.262	86.5838	218.262	86.3559	218.262	84.7958	218.262	85.2313	218.262	83.5389	218.262	84.8142	218.262	83.4688	218.262	85.1283	218.262	84.3402	218.262	85.7458	218.262	85.3685	218.262	86.2418	218.262	86.0977	218.262	86.3889
225.586	93.9262	225.586	93.835	225.586	93.9304	225.586	93.6642	225.586	93.8409	225.586	93.4205	225.586	93.6517	225.586	93.1076	225.586	93.3559	225.586	92.7232	225.586	92.9439	225.586	92.2581	225.586	92.4015	225.586	91.6979	225.586	91.7088	225.586	91.0302	225.586	90.8413	225.586	90.2581	225.586	89.7786	225.586	89.4213	225.586	88.5313	225.586	88.6214	225.586	87.2076	225.586	88.0234	225.586	86.1192	225.586	87.7826	225.586	85.7327	225.586	87.9172	225.586	86.1888	225.586	88.2783	225.586	87.0813	225.586	88.66	225.586	87.9535	225.586	88.8979	225.586	88.5778	225.586	88.8889
232.91	93.7319	232.91	93.5574	232.91	93.7794	232.91	93.2603	232.91	93.6983	232.91	92.8471	232.91	93.4895	232.91	92.3235	232.91	93.1553	232.91	91.6903	232.91	92.6967	232.91	90.9387	232.91	92.1117	232.91	90.0502	232.91	91.3919	232.91	89.0065	232.91	90.5199	232.91	87.8244	232.91	89.4713	232.91	86.6362	232.91	88.2335	232.91	85.7936	232.91	86.8713	232.91	85.7404	232.91	85.6799	232.91	86.4912	232.91	85.2562	232.91	87.5802	232.91	85.913	232.91	88.5857	232.91	87.1477	232.91	89.3067	232.91	88.3375	232.91	89.668	232.91	89.1929	232.91	89.6368
241.699	94.4361	241.699	94.309	241.699	94.4489	241.699	94.0675	241.699	94.345	241.699	93.7089	241.699	94.1183	241.699	93.2279	241.699	93.7567	241.699	92.6152	241.699	93.2401	241.699	91.8562	241.699	92.5371	241.699	90.9285	241.699	91.6002	241.699	89.801	241.699	90.3609	241.699	88.44	241.699	88.725	241.699	86.8437	241.699	86.5857	241.699	85.1657	241.699	83.9735	241.699	83.9784	241.699	81.8283	241.699	84.1006	241.699	82.3174	241.699	85.3713	241.699	84.5793	241.699	86.8773	241.699	86.6422	241.699	88.0873	241.699	88.0608	241.699	88.843	241.699	88.861	241.699	89.108
250.488	94.8882	250.488	94.797	250.488	94.8349	250.488	94.5645	250.488	94.6357	250.488	94.1953	250.488	94.29	250.488	93.6929	250.488	93.7974	250.488	93.0571	250.488	93.1564	250.488	92.2772	250.488	92.365	250.488	91.3256	250.488	91.4227	250.488	90.1501	250.488	90.336	250.488	88.6687	250.488	89.1241	250.488	86.7733	250.488	87.8221	250.488	84.3759	250.488	86.4727	250.488	81.6886	250.488	85.1222	250.488	80.0757	250.488	83.8643	250.488	80.9311	250.488	82.9535	250.488	82.6723	250.488	82.7576	250.488	83.9695	250.488	83.2876	250.488	84.5883	250.488	84.0552	250.488	84.5754
259.277	94.877	259.277	94.78	259.277	94.8751	259.277	94.5832	259.277	94.7707	259.277	94.2805	259.277	94.5566	259.277	93.8586	259.277	94.2205	259.277	93.2955	259.277	93.7423	259.277	92.5595	259.277	93.0897	259.277	91.6085	259.277	92.214	259.277	90.3909	259.277	91.0445	259.277	88.8498	259.277	89.4886	259.277	86.9536	259.277	87.4563	259.277	84.8367	259.277	85.0204	259.277	83.2193	259.277	83.0545	259.277	83.3304	259.277	83.2992	259.277	84.882	259.277	85.1362	259.277	86.5938	259.277	86.9101	259.277	87.904	259.277	88.1466	259.277	88.7098	259.277	88.8349	259.277	89.0171
268.066	95.0487	268.066	95.0076	268.066	95.0113	268.066	94.8843	268.066	94.8967	268.066	94.6719	268.066	94.7025	268.066	94.3595	268.066	94.4204	268.066	93.9301	268.066	94.0344	268.066	93.3596	268.066	93.5193	268.066	92.614	268.066	92.8388	268.066	91.6458	268.066	91.9437	268.066	90.3857	268.066	90.766	268.066	88.7326	268.066	89.2135	268.066	86.5512	268.066	87.1726	268.066	83.753	268.066	84.5967	268.066	80.918	268.066	82.0388	268.066	80.5223	268.066	81.5201	268.066	82.6278	268.066	83.2394	268.066	84.6621	268.066	85.0268	268.066	85.9203	268.066	86.0989	268.066	86.3915
276.855	93.995	276.855	93.9478	276.855	93.9659	276.855	93.8224	276.855	93.8628	276.855	93.6161	276.855	93.6858	276.855	93.322	276.855	93.429	276.855	92.9243	276.855	93.0765	276.855	92.3941	276.855	92.5993	276.855	91.6886	276.855	91.9552	276.855	90.7522	276.855	91.0899	276.855	89.5222	276.855	89.9438	276.855	87.947	276.855	88.4712	276.855	86.0639	276.855	86.7105	276.855	84.2646	276.855	85.0007	276.855	83.5972	276.855	84.2285	276.855	84.5808	276.855	84.9512	276.855	86.1896	276.855	86.3773	276.855	87.5561	276.855	87.6525	276.855	88.4147	276.855	88.4576	276.855	88.7163
287.109	93.0988	287.109	93.0594	287.109	93.0404	287.109	92.9223	287.109	92.8914	287.109	92.6921	287.109	92.6644	287.109	92.3702	287.109	92.3704	287.109	91.9457	287.109	92.0116	287.109	91.3915	287.109	91.5763	287.109	90.6656	287.109	91.0373	287.109	89.7173	287.109	90.3522	287.109	88.4921	287.109	89.4614	287.109	86.9352	287.109	88.2895	287.109	85.0234	287.109	86.7741	287.109	82.9641	287.109	85.0067	287.109	81.7769	287.109	83.6388	287.109	82.6824	287.109	83.8141	287.109	84.6744	287.109	85.265	287.109	86.4213	287.109	86.7456	287.109	87.5294	287.109	87.681	287.109	87.9478
297.363	93.638	297.363	93.6144	297.363	93.5663	297.363	93.4991	297.363	93.3972	297.363	93.2944	297.363	93.1308	297.363	92.9965	297.363	92.7681	297.363	92.5898	297.363	92.3068	297.363	92.0412	297.363	91.7321	297.363	91.2967	297.363	91.007	297.363	90.276	297.363	90.0619	297.363	88.859	297.363	88.7867	297.363	86.8488	297.363	87.0241	297.363	83.8799	297.363	84.5827	297.363	79.2405	297.363	81.5049	297.363	74.4088	297.363	79.7158	297.363	78.9831	297.363	81.719	297.363	83.3089	297.363	84.4719	297.363	85.8348	297.363	86.394	297.363	87.2054	297.363	87.4435	297.363	87.7091
307.617	94.5972	307.617	94.5275	307.617	94.5417	307.617	94.3353	307.617	94.3596	307.617	94.0247	307.617	94.0521	307.617	93.6003	307.617	93.6215	307.617	93.0665	307.617	93.0668	307.617	92.4259	307.617	92.3785	307.617	91.6749	307.617	91.5324	307.617	90.7943	307.617	90.4857	307.617	89.737	307.617	89.1744	307.617	88.411	307.617	87.5107	307.617	86.6603	307.617	85.3859	307.617	84.2359	307.617	82.7368	307.617	80.8062	307.617	79.9846	307.617	76.8642	307.617	79.0413	307.617	77.2521	307.617	80.5905	307.617	80.5002	307.617	82.4026	307.617	82.6576	307.617	83.4583	307.617	83.5785
319.336	92.6727	319.336	92.6645	319.336	92.5926	319.336	92.5753	319.336	92.4232	319.336	92.4141	319.336	92.1695	319.336	92.184	319.336	91.8376	319.336	91.8737	319.336	91.426	319.336	91.4514	319.336	90.9157	319.336	90.8655	319.336	90.2625	319.336	90.0477	319.336	89.3933	319.336	88.9151	319.336	88.2037	319.336	87.371	319.336	86.5571	319.336	85.3202	319.336	84.3135	319.336	82.8027	319.336	81.5853	319.336	80.6282	319.336	79.8764	319.336	80.7357	319.336	81.1765	319.336	82.6615	319.336	83.4664	319.336	84.5195	319.336	85.1625	319.336	85.7342	319.336	86.0735	319.336	86.2523
329.59	93.4433	329.59	93.3516	329.59	93.4384	329.59	93.1738	329.59	93.3351	329.59	92.9263	329.59	93.1386	329.59	92.6235	329.59	92.8564	329.59	92.2663	329.59	92.4917	329.59	91.835	329.59	92.036	329.59	91.2891	329.59	91.4598	329.59	90.5739	329.59	90.7037	329.59	89.6251	329.59	89.6707	329.59	88.3666	329.59	88.2234	329.59	86.7061	329.59	86.1924	329.59	84.5737	329.59	83.4842	329.59	82.2228	329.59	80.8602	329.59	81.1292	329.59	81.0458	329.59	82.5303	329.59	83.4202	329.59	84.619	329.59	85.4276	329.59	86.1053	329.59	86.5334	329.59	86.7502
341.309	92.0607	341.309	91.9539	341.309	92.0479	341.309	91.7416	341.309	91.9162	341.309	91.452	341.309	91.6781	341.309	91.1171	341.309	91.3496	341.309	90.7569	341.309	90.9407	341.309	90.3629	341.309	90.4464	341.309	89.8942	341.309	89.8428	341.309	89.2855	341.309	89.0861	341.309	88.4568	341.309	88.1127	341.309	87.326	341.309	86.842	341.309	85.8408	341.309	85.1957	341.309	84.0868	341.309	83.2155	341.309	82.5671	341.309	81.5058	341.309	82.2631	341.309	81.4708	341.309	83.3123	341.309	83.0446	341.309	84.7009	341.309	84.7118	341.309	85.7137	341.309	85.7718	341.309	86.0988
353.027	92.6802	353.027	92.4328	353.027	92.7423	353.027	92.011	353.027	92.6355	353.027	91.4596	353.027	92.3933	353.027	90.8498	353.027	92.0535	353.027	90.2471	353.027	91.6409	353.027	89.6651	353.027	91.15	353.027	89.0402	353.027	90.5336	353.027	88.2421	353.027	89.7018	353.027	87.0969	353.027	88.525	353.027	85.421	353.027	86.836	353.027	83.1899	353.027	84.4856	353.027	81.4062	353.027	81.881	353.027	82.4145	353.027	81.6301	353.027	85.1201	353.027	84.3507	353.027	87.4962	353.027	87.0655	353.027	89.1495	353.027	88.9472	353.027	90.1051	353.027	90.0292	353.027	90.3994
366.211	91.7366	366.211	91.5992	366.211	91.6117	366.211	91.21	366.211	91.249	366.211	90.6217	366.211	90.7025	366.211	89.9329	366.211	90.048	366.211	89.2703	366.211	89.3642	366.211	88.7282	366.211	88.6978	366.211	88.2827	366.211	88.0246	366.211	87.7599	366.211	87.2313	366.211	86.8771	366.211	86.1203	366.211	85.2609	366.211	84.3994	366.211	82.293	366.211	81.5655	366.211	76.1959	366.211	76.3656	366.211	65.8174	366.211	68.3267	366.211	78.8236	366.211	77.2829	366.211	83.6941	366.211	82.5294	366.211	86.1919	366.211	85.4269	366.211	87.4032	366.211	87.0247	366.211	87.655
379.395	94.2673	379.395	94.1721	379.395	94.1373	379.395	93.8652	379.395	93.7839	379.395	93.3674	379.395	93.2347	379.395	92.7068	379.395	92.5458	379.395	91.9213	379.395	91.7875	379.395	91.0523	379.395	91.0103	379.395	90.1201	379.395	90.2021	379.395	89.087	379.395	89.2614	379.395	87.8218	379.395	87.9936	379.395	86.0546	379.395	86.0959	379.395	83.2368	379.395	83.0397	379.395	77.8145	379.395	77.5426	379.395	47.0639	379.395	70.9583	379.395	78.1195	379.395	79.2229	379.395	83.9017	379.395	84.0173	379.395	86.7887	379.395	86.6899	379.395	88.2287	379.395	88.1374	379.395	88.6362
392.578	94.1197	392.578	93.9293	392.578	94.0441	392.578	93.4623	392.578	93.7373	392.578	92.7451	392.578	93.2479	392.578	91.8608	392.578	92.6294	392.578	90.9596	392.578	91.9317	392.578	90.2219	392.578	91.194	392.578	89.7407	392.578	90.4343	392.578	89.4144	392.578	89.6295	392.578	88.9848	392.578	88.6907	392.578	88.1463	392.578	87.4388	392.578	86.57	392.578	85.5599	392.578	83.754	392.578	82.4354	392.578	78.3213	392.578	76.1753	392.578	59.8763	392.578	61.255	392.578	77.2654	392.578	78.4281	392.578	82.7721	392.578	83.2353	392.578	85.2004	392.578	85.3899	392.578	85.9794
405.762	94.2341	405.762	94.1553	405.762	94.1228	405.762	93.8827	405.762	93.8507	405.762	93.4352	405.762	93.4671	405.762	92.8494	405.762	93.025	405.762	92.1724	405.762	92.5583	405.762	91.4497	405.762	92.0629	405.762	90.708	405.762	91.4941	405.762	89.9453	405.762	90.7776	405.762	89.1265	405.762	89.8172	405.762	88.1654	405.762	88.4815	405.762	86.8789	405.762	86.5556	405.762	84.906	405.762	83.6294	405.762	81.4964	405.762	78.8669	405.762	74.4685	405.762	73.6617	405.762	71.4668	405.762	78.5587	405.762	79.9348	405.762	82.5816	405.762	83.4418	405.762	84.4475	405.762	84.7306
420.41	94.2099	420.41	94.0981	420.41	93.9968	420.41	93.6378	420.41	93.4855	420.41	92.8162	420.41	92.7139	420.41	91.6506	420.41	91.7503	420.41	90.2162	420.41	90.7173	420.41	88.672	420.41	89.7872	420.41	87.2485	420.41	89.0966	420.41	86.1502	420.41	88.6043	420.41	85.3935	420.41	88.0502	420.41	84.7289	420.41	87.058	420.41	83.7158	420.41	85.1837	420.41	81.7682	420.41	81.6893	420.41	77.8665	420.41	73.9979	420.41	70.0624	420.41	67.7392	420.41	75.2759	420.41	79.3125	420.41	81.1512	420.41	83.2508	420.41	84.0002	420.41	84.9222	420.41	85.1389
435.059	95.0413	435.059	94.8661	435.059	94.91	435.059	94.3812	435.059	94.4912	435.059	93.6075	435.059	93.8212	435.059	92.6113	435.059	92.9613	435.059	91.5303	435.059	92.0095	435.059	90.5617	435.059	91.0978	435.059	89.8543	435.059	90.3412	435.059	89.3592	435.059	89.739	435.059	88.8139	435.059	89.1205	435.059	87.8636	435.059	88.1972	435.059	86.1222	435.059	86.6088	435.059	83.0089	435.059	83.7887	435.059	76.8296	435.059	78.1694	435.059	65.9653	435.059	39.9629	435.059	78.9307	435.059	78.2634	435.059	83.6627	435.059	83.5475	435.059	85.8614	435.059	85.8553	435.059	86.5336
451.172	94.367	451.172	94.2755	451.172	94.185	451.172	93.8904	451.172	93.7703	451.172	93.2248	451.172	93.1785	451.172	92.3377	451.172	92.477	451.172	91.3328	451.172	91.7325	451.172	90.3264	451.172	90.9819	451.172	89.3838	451.172	90.2049	451.172	88.4636	451.172	89.3318	451.172	87.4239	451.172	88.2856	451.172	86.084	451.172	87.0161	451.172	84.2606	451.172	85.4609	451.172	81.661	451.172	83.3941	451.172	77.4509	451.172	80.144	451.172	67.84	451.172	73.5858	451.172	69.8667	451.172	65.4904	451.172	77.7907	451.172	76.8434	451.172	80.8775	451.172	80.6433	451.172	81.7312
465.82	94.6511	465.82	94.4706	465.82	94.5481	465.82	94.0107	465.82	94.171	465.82	93.2972	465.82	93.5462	465.82	92.4008	465.82	92.7252	465.82	91.4591	465.82	91.783	465.82	90.6573	465.82	90.8122	465.82	90.119	465.82	89.9181	465.82	89.7711	465.82	89.1815	465.82	89.3503	465.82	88.5491	465.82	88.547	465.82	87.7763	465.82	87.0964	465.82	86.5148	465.82	84.6963	465.82	84.357	465.82	80.6441	465.82	80.6048	465.82	72.197	465.82	72.7469	465.82	71.6586	465.82	66.9238	465.82	79.466	465.82	77.9514	465.82	82.3802	465.82	81.7065	465.82	82.9913
483.398	93.4298	483.398	93.2874	483.398	93.2981	483.398	92.8835	483.398	92.9106	483.398	92.2538	483.398	92.322	483.398	91.46	483.398	91.6172	483.398	90.5921	483.398	90.885	483.398	89.7523	483.398	90.1788	483.398	89.0152	483.398	89.4797	483.398	88.4003	483.398	88.6803	483.398	87.8611	483.398	87.6191	483.398	87.2473	483.398	86.152	483.398	86.2922	483.398	84.1792	483.398	84.6486	483.398	81.5135	483.398	81.834	483.398	77.4245	483.398	76.7524	483.398	68.4493	483.398	64.7466	483.398	67.9512	483.398	72.9046	483.398	76.7058	483.398	78.3339	483.398	79.6914	483.398	80.1414
499.512	90.7267	499.512	90.5432	499.512	90.6036	499.512	90.0379	499.512	90.2346	499.512	89.273	499.512	89.7386	499.512	88.452	499.512	89.2961	499.512	87.9042	499.512	89.0749	499.512	87.8657	499.512	89.0989	499.512	88.2458	499.512	89.2037	499.512	88.715	499.512	89.1456	499.512	88.9539	499.512	88.7309	499.512	88.7437	499.512	87.8412	499.512	87.9056	499.512	86.3649	499.512	86.1936	499.512	84.1088	499.512	83.1336	499.512	80.7831	499.512	77.6427	499.512	76.7211	499.512	72.6241	499.512	76.6527	499.512	78.6603	499.512	80.0387	499.512	81.9842	499.512	82.2989	499.512	82.9879
517.09	92.9915	517.09	92.7162	517.09	92.7609	517.09	91.8969	517.09	92.0437	517.09	90.4702	517.09	90.8424	517.09	88.3298	517.09	89.154	517.09	85.3287	517.09	87.0579	517.09	81.6095	517.09	85.0828	517.09	79.7544	517.09	84.5618	517.09	82.0912	517.09	85.7729	517.09	84.7246	517.09	87.3041	517.09	86.2632	517.09	88.2845	517.09	86.6086	517.09	88.3834	517.09	85.6362	517.09	87.2894	517.09	82.8847	517.09	84.3417	517.09	76.7703	517.09	77.0451	517.09	72.6691	517.09	70.16	517.09	80.9687	517.09	81.8113	517.09	84.6609	517.09	85.2086	517.09	85.9311
536.133	93.576	536.133	93.4024	536.133	93.4011	536.133	92.8409	536.133	92.8998	536.133	91.8427	536.133	92.1162	536.133	90.4293	536.133	91.1277	536.133	88.7884	536.133	89.992	536.133	87.2518	536.133	88.6894	536.133	86.0809	536.133	87.1541	536.133	85.2163	536.133	85.4415	536.133	84.2761	536.133	83.9806	536.133	83.0109	536.133	83.3006	536.133	81.8064	536.133	83.0003	536.133	80.9969	536.133	81.9978	536.133	79.4744	536.133	79.199	536.133	75.5886	536.133	73.1249	536.133	73.6206	536.133	73.3902	536.133	79.0937	536.133	79.449	536.133	82.2111	536.133	82.3052	536.133	83.1416
555.176	91.3767	555.176	91.3078	555.176	91.1539	555.176	90.9299	555.176	90.6989	555.176	90.3	555.176	90.0783	555.176	89.5431	555.176	89.3359	555.176	88.7574	555.176	88.4619	555.176	87.8671	555.176	87.3686	555.176	86.6507	555.176	85.9291	555.176	85.0666	555.176	84.1317	555.176	83.6793	555.176	82.3788	555.176	83.2505	555.176	81.5937	555.176	83.3545	555.176	81.9365	555.176	83.0098	555.176	82.2729	555.176	81.5613	555.176	81.6613	555.176	78.3181	555.176	79.5078	555.176	71.4985	555.176	74.7427	555.176	64.674	555.176	62.8005	555.176	72.4586	555.176	69.7361	555.176	73.7045
574.219	93.642	574.219	93.5585	574.219	93.3985	574.219	93.116	574.219	92.8983	574.219	92.3459	574.219	92.2266	574.219	91.3693	574.219	91.425	574.219	90.3358	574.219	90.4295	574.219	89.2345	574.219	89.109	574.219	87.9099	574.219	87.4669	574.219	86.5362	574.219	85.9454	574.219	85.7363	574.219	85.2011	574.219	85.3972	574.219	84.9636	574.219	84.627	574.219	84.2483	574.219	82.8456	574.219	82.208	574.219	79.6516	574.219	77.7064	574.219	73.3416	574.219	66.5504	574.219	65.2404	574.219	75.2289	574.219	77.8084	574.219	81.2205	574.219	82.34	574.219	83.7006	574.219	84.039
594.727	93.5439	594.727	93.5344	594.727	93.2729	594.727	93.1648	594.727	92.8093	594.727	92.4385	594.727	92.1892	594.727	91.4863	594.727	91.3994	594.727	90.5425	594.727	90.4232	594.727	89.8173	594.727	89.2554	594.727	89.3159	594.727	87.8977	594.727	88.7546	594.727	86.3934	594.727	87.7908	594.727	84.9202	594.727	86.4121	594.727	83.8532	594.727	84.9704	594.727	83.382	594.727	83.3904	594.727	82.909	594.727	80.5974	594.727	81.4323	594.727	74.5598	594.727	78.3436	594.727	70.9922	594.727	76.7847	594.727	78.442	594.727	80.1002	594.727	81.8362	594.727	82.4982	594.727	83.034
615.234	93.6932	615.234	93.3664	615.234	93.6933	615.234	92.7452	615.234	93.4137	615.234	91.9985	615.234	92.939	615.234	91.3919	615.234	92.3453	615.234	91.0348	615.234	91.6335	615.234	90.6875	615.234	90.746	615.234	89.9858	615.234	89.6871	615.234	88.8767	615.234	88.5489	615.234	87.8444	615.234	87.4112	615.234	87.3395	615.234	86.3588	615.234	86.9411	615.234	85.4427	615.234	85.9361	615.234	84.2396	615.234	83.8545	615.234	81.6567	615.234	80.1366	615.234	75.6483	615.234	74.5579	615.234	64.8735	615.234	76.1213	615.234	76.2684	615.234	79.9759	615.234	80.0791	615.234	81.1388
637.207	95.7619	637.207	95.5463	637.207	95.5801	637.207	94.8618	637.207	95.0977	637.207	93.7182	637.207	94.4247	637.207	92.2685	637.207	93.6465	637.207	90.781	637.207	92.7306	637.207	89.6548	637.207	91.4906	637.207	89.2483	637.207	89.7326	637.207	89.1769	637.207	87.6758	637.207	89.0062	637.207	86.5935	637.207	89.0806	637.207	87.3204	637.207	89.6074	637.207	88.3043	637.207	89.876	637.207	88.2065	637.207	88.9666	637.207	86.3735	637.207	86.1481	637.207	81.6889	637.207	79.8932	637.207	73.1056	637.207	57.7915	637.207	80.5912	637.207	79.8141	637.207	84.0468	637.207	83.7935
659.18	95.7613	659.18	95.6907	659.18	95.516	659.18	95.3072	659.18	95.006	659.18	94.6641	659.18	94.3155	659.18	93.797	659.18	93.4995	659.18	92.578	659.18	92.5295	659.18	90.7255	659.18	91.3175	659.18	88.1904	659.18	89.7938	659.18	85.8923	659.18	87.9727	659.18	85.24	659.18	86.0109	659.18	85.577	659.18	84.4117	659.18	85.9295	659.18	83.9284	659.18	86.2021	659.18	84.1913	659.18	85.7666	659.18	83.8228	659.18	83.4875	659.18	81.5749	659.18	77.3782	659.18	75.5031	659.18	71.197	659.18	72.8361	659.18	79.4967	659.18	79.7284	659.18	81.5395
682.617	94.9075	682.617	94.9247	682.617	94.5286	682.617	94.559	682.617	93.8651	682.617	93.9001	682.617	93.0347	682.617	93.0562	682.617	92.2221	682.617	91.954	682.617	91.5497	682.617	90.4041	682.617	90.8716	682.617	88.4083	682.617	89.8819	682.617	86.2837	682.617	88.4416	682.617	84.4319	682.617	86.7234	682.617	83.1799	682.617	85.1718	682.617	83.2497	682.617	84.3576	682.617	84.4886	682.617	84.2904	682.617	85.1982	682.617	83.9928	682.617	84.2006	682.617	82.2194	682.617	80.7047	682.617	77.2092	682.617	74.0693	682.617	66.643	682.617	75.2728	682.617	75.8834	682.617	78.0323
707.52	94.121	707.52	94.0647	707.52	93.8542	707.52	93.7636	707.52	93.3021	707.52	93.3027	707.52	92.6197	707.52	92.6435	707.52	91.9189	707.52	91.6313	707.52	91.1307	707.52	90.1727	707.52	90.1362	707.52	88.3817	707.52	88.9121	707.52	86.686	707.52	87.4606	707.52	85.49	707.52	85.7106	707.52	84.2188	707.52	83.7199	707.52	82.6454	707.52	82.4203	707.52	82.082	707.52	82.7192	707.52	81.7825	707.52	82.9285	707.52	79.0328	707.52	81.2565	707.52	69.7824	707.52	75.851	707.52	74.4213	707.52	65.1166	707.52	79.7006	707.52	77.0238	707.52	80.2789
732.422	94.5387	732.422	94.4861	732.422	94.1119	732.422	93.973	732.422	93.2868	732.422	93.0446	732.422	92.2886	732.422	91.8151	732.422	91.3689	732.422	90.5527	732.422	90.6289	732.422	89.5058	732.422	89.9758	732.422	88.539	732.422	89.2127	732.422	87.3021	732.422	88.1911	732.422	85.8356	732.422	86.8452	732.422	84.4512	732.422	85.2304	732.422	83.1188	732.422	83.926	732.422	82.0771	732.422	83.4913	732.422	81.8645	732.422	83.1087	732.422	81.2913	732.422	81.4011	732.422	78.6456	732.422	76.5452	732.422	73.8313	732.422	70.229	732.422	75.3927	732.422	76.6999	732.422	78.0929
757.324	94.346	757.324	94.3885	757.324	93.9562	757.324	93.9059	757.324	93.4105	757.324	92.9564	757.324	92.7919	757.324	91.9026	757.324	92.0842	757.324	90.8895	757.324	91.2376	757.324	89.57	757.324	90.1192	757.324	87.4489	757.324	88.5355	757.324	84.216	757.324	86.688	757.324	81.0101	757.324	85.41	757.324	80.8449	757.324	84.8163	757.324	83.3821	757.324	83.95	757.324	84.2186	757.324	82.485	757.324	83.1724	757.324	80.8429	757.324	80.9352	757.324	78.5706	757.324	75.6939	757.324	76.9011	757.324	71.3757	757.324	80.1016	757.324	80.0132	757.324	82.7481	757.324	82.9261
785.156	94.4066	785.156	94.3343	785.156	93.8391	785.156	93.6284	785.156	92.8825	785.156	92.5733	785.156	91.8991	785.156	91.3212	785.156	91.0825	785.156	89.5703	785.156	90.244	785.156	87.143	785.156	89.2125	785.156	85.011	785.156	88.2115	785.156	84.8092	785.156	87.3118	785.156	85.7088	785.156	85.7974	785.156	85.1043	785.156	82.7902	785.156	82.26	785.156	79.6851	785.156	80.4671	785.156	80.3876	785.156	81.3399	785.156	81.1978	785.156	80.4768	785.156	79.7019	785.156	75.2551	785.156	74.0461	785.156	66.4319	785.156	71.0687	785.156	77.7533	785.156	78.6471	785.156	80.3498
811.523	94.478	811.523	94.4613	811.523	93.8413	811.523	93.874	811.523	92.8199	811.523	92.98	811.523	91.8148	811.523	91.7507	811.523	90.9126	811.523	89.8757	811.523	90.0042	811.523	87.8262	811.523	89.1858	811.523	86.6262	811.523	88.5731	811.523	85.2532	811.523	88.0309	811.523	83.3161	811.523	87.2417	811.523	82.0462	811.523	85.6673	811.523	80.9299	811.523	82.8043	811.523	81.0225	811.523	79.9465	811.523	82.2949	811.523	79.9357	811.523	82.1353	811.523	79.9782	811.523	79.4917	811.523	77.72	811.523	75.0143	811.523	74.4493	811.523	76.9127	811.523	77.514	811.523	79.1547
840.82	94.0587	840.82	93.6862	840.82	93.9246	840.82	92.9113	840.82	93.3411	840.82	92.0182	840.82	92.3943	840.82	91.2079	840.82	91.2361	840.82	90.5542	840.82	89.995	840.82	89.9256	840.82	88.7925	840.82	88.69	840.82	87.8687	840.82	86.4491	840.82	87.291	840.82	83.8811	840.82	86.8731	840.82	82.6384	840.82	85.9397	840.82	82.2853	840.82	83.7817	840.82	80.9676	840.82	81.7922	840.82	80.007	840.82	82.3235	840.82	80.3863	840.82	82.2019	840.82	78.0393	840.82	78.9581	840.82	70.4681	840.82	69.3354	840.82	76.0783	840.82	74.6673	840.82	78.3779
870.117	94.4613	870.117	94.3522	870.117	93.9323	870.117	93.5891	870.117	93.0922	870.117	92.5965	870.117	92.094	870.117	91.7416	870.117	90.9143	870.117	90.7506	870.117	89.6848	870.117	89.352	870.117	88.2474	870.117	87.9522	870.117	86.4375	870.117	86.7239	870.117	85.3859	870.117	84.7183	870.117	85.5254	870.117	81.469	870.117	85.4962	870.117	79.7218	870.117	84.2718	870.117	79.594	870.117	81.7779	870.117	79.4728	870.117	80.5615	870.117	79.4991	870.117	80.2985	870.117	76.6544	870.117	76.9835	870.117	72.3545	870.117	70.8808	870.117	78.055	870.117	77.0393	870.117	79.9308
900.879	94.3773	900.879	94.0934	900.879	94.2603	900.879	93.3512	900.879	93.8112	900.879	92.3063	900.879	93.0963	900.879	91.0838	900.879	92.1987	900.879	89.6786	900.879	91.05	900.879	88.5736	900.879	89.5796	900.879	88.1926	900.879	87.674	900.879	87.8478	900.879	84.9439	900.879	86.8918	900.879	82.1115	900.879	85.2832	900.879	82.3936	900.879	82.7579	900.879	83.2627	900.879	79.7605	900.879	82.9575	900.879	78.5091	900.879	82.3847	900.879	79.5272	900.879	81.9272	900.879	78.5094	900.879	80.8977	900.879	74.8902	900.879	77.8878	900.879	78.1257	900.879	77.4223	900.879	79.7742
933.105	94.3639	933.105	93.9013	933.105	94.3533	933.105	93.4254	933.105	93.7673	933.105	93.1276	933.105	92.7002	933.105	92.2368	933.105	91.4572	933.105	90.4767	933.105	90.3985	933.105	88.9127	933.105	89.6039	933.105	87.5535	933.105	88.9126	933.105	86.3677	933.105	88.0173	933.105	85.5537	933.105	86.3423	933.105	84.646	933.105	83.2383	933.105	83.3984	933.105	79.374	933.105	81.4658	933.105	78.6139	933.105	78.8367	933.105	80.2512	933.105	79.1678	933.105	81.319	933.105	79.4469	933.105	78.9745	933.105	75.2424	933.105	76.0823	933.105	77.109	933.105	79.8286	933.105	80.6028
965.332	94.0812	965.332	93.7559	965.332	94.1426	965.332	93.4932	965.332	93.8998	965.332	93.2377	965.332	93.4331	965.332	92.5122	965.332	92.4185	965.332	91.4374	965.332	90.9487	965.332	90.3467	965.332	89.6422	965.332	88.1567	965.332	88.5529	965.332	84.4891	965.332	87.3722	965.332	83.414	965.332	86.5236	965.332	83.6415	965.332	85.5974	965.332	82.2672	965.332	83.0637	965.332	82.8903	965.332	80.423	965.332	82.3474	965.332	80.4004	965.332	80.9404	965.332	81.2303	965.332	79.8193	965.332	79.7018	965.332	73.8893	965.332	71.4013	965.332	75.2872	965.332	77.0096	965.332	79.4113
1000.49	94.3386	1000.49	94.2171	1000.49	94.0532	1000.49	93.625	1000.49	93.5984	1000.49	92.7155	1000.49	92.9728	1000.49	91.7278	1000.49	92.2524	1000.49	90.9523	1000.49	91.552	1000.49	90.2767	1000.49	90.2532	1000.49	89.3509	1000.49	88.2528	1000.49	87.8088	1000.49	86.5848	1000.49	85.7798	1000.49	85.4613	1000.49	84.6024	1000.49	84.875	1000.49	80.9308	1000.49	84.4585	1000.49	76.6528	1000.49	81.2704	1000.49	80.3258	1000.49	77.5154	1000.49	80.0306	1000.49	81.2192	1000.49	78.7411	1000.49	80.8921	1000.49	75.6604	1000.49	76.535	1000.49	80.1843	1000.49	79.7898	1000.49	82.5382
1035.64	94.6623	1035.64	94.7824	1035.64	94.1852	1035.64	94.4238	1035.64	93.9259	1035.64	93.5718	1035.64	93.7436	1035.64	92.0397	1035.64	93.0885	1035.64	90.621	1035.64	92.0824	1035.64	90.2041	1035.64	90.591	1035.64	89.8097	1035.64	88.5807	1035.64	87.6894	1035.64	86.384	1035.64	83.8926	1035.64	84.1944	1035.64	83.6312	1035.64	83.9668	1035.64	84.4677	1035.64	84.7572	1035.64	80.3054	1035.64	83.4194	1035.64	77.8985	1035.64	80.7347	1035.64	80.5702	1035.64	80.8462	1035.64	78.989	1035.64	78.8954	1035.64	76.9595	1035.64	72.8411	1035.64	78.2708	1035.64	77.117	1035.64	79.5486
1072.27	94.8172	1072.27	95.1995	1072.27	94.4352	1072.27	95.0269	1072.27	94.1555	1072.27	94.0443	1072.27	93.6854	1072.27	92.8555	1072.27	93.1141	1072.27	92.2146	1072.27	92.1689	1072.27	90.9368	1072.27	90.8453	1072.27	88.0342	1072.27	89.5422	1072.27	85.861	1072.27	88.6554	1072.27	85.3678	1072.27	87.7716	1072.27	83.7161	1072.27	84.8672	1072.27	83.3835	1072.27	80.7452	1072.27	83.4677	1072.27	80.2283	1072.27	79.2397	1072.27	80.1655	1072.27	78.0649	1072.27	80.935	1072.27	78.0426	1072.27	77.7808	1072.27	67.2	1072.27	72.6326	1072.27	77.6555	1072.27	80.5382	1072.27	82.1823
1108.89	95.3863	1108.89	95.5472	1108.89	94.5543	1108.89	94.9264	1108.89	93.7904	1108.89	94.3085	1108.89	93.5978	1108.89	93.7546	1108.89	93.6083	1108.89	92.7404	1108.89	92.9038	1108.89	90.8685	1108.89	90.9719	1108.89	87.7251	1108.89	87.949	1108.89	84.6955	1108.89	85.7312	1108.89	82.0553	1108.89	84.6149	1108.89	80.6805	1108.89	84.5815	1108.89	83.4358	1108.89	83.9107	1108.89	82.3685	1108.89	80.2539	1108.89	78.7251	1108.89	79.324	1108.89	77.7639	1108.89	81.2932	1108.89	80.9494	1108.89	80.1383	1108.89	81.3964	1108.89	73.8661	1108.89	82.9126	1108.89	81.5646	1108.89	84.426
1148.44	94.3623	1148.44	94.0672	1148.44	94.5277	1148.44	94.0729	1148.44	94.3353	1148.44	93.9984	1148.44	93.8961	1148.44	93.3148	1148.44	93.3077	1148.44	91.7073	1148.44	92.4508	1148.44	89.6754	1148.44	90.8083	1148.44	89.0668	1148.44	88.7381	1148.44	88.4937	1148.44	86.8757	1148.44	85.7148	1148.44	85.0412	1148.44	81.8341	1148.44	82.6853	1148.44	78.5599	1148.44	80.5364	1148.44	80.3247	1148.44	77.5881	1148.44	79.6648	1148.44	72.9681	1148.44	78.3066	1148.44	78.0961	1148.44	77.7152	1148.44	78.2301	1148.44	73.1137	1148.44	73.6765	1148.44	79.769	1148.44	79.9399	1148.44	83.1407
1189.45	93.7172	1189.45	93.7763	1189.45	94.2863	1189.45	94.2894	1189.45	94.5968	1189.45	94.2663	1189.45	94.166	1189.45	93.0551	1189.45	93.5472	1189.45	91.5708	1189.45	92.6839	1189.45	90.7503	1189.45	90.8653	1189.45	89.9418	1189.45	88.9937	1189.45	88.6824	1189.45	87.9651	1189.45	86.2314	1189.45	85.4817	1189.45	83.0282	1189.45	81.4076	1189.45	80.2605	1189.45	80.4744	1189.45	76.7974	1189.45	80.3729	1189.45	75.5113	1189.45	74.5339	1189.45	74.0122	1189.45	71.7838	1189.45	75.1822	1189.45	76.2898	1189.45	69.0953	1189.45	70.1088	1189.45	82.5679	1189.45	81.034	1189.45	84.8736
1230.47	94.1045	1230.47	94.1438	1230.47	93.6315	1230.47	93.5691	1230.47	93.2862	1230.47	92.7731	1230.47	93.2523	1230.47	92.6591	1230.47	92.948	1230.47	92.3418	1230.47	91.687	1230.47	89.5731	1230.47	90.3014	1230.47	86.8123	1230.47	88.7569	1230.47	87.7615	1230.47	86.5662	1230.47	87.586	1230.47	86.0666	1230.47	85.0218	1230.47	85.9368	1230.47	83.2688	1230.47	82.5845	1230.47	80.4282	1230.47	76.7495	1230.47	76.7931	1230.47	74.2938	1230.47	71.6567	1230.47	66.6246	1230.47	72.3254	1230.47	75.3347	1230.47	73.5846	1230.47	63.5772	1230.47	76.208	1230.47	79.0673	1230.47	82.3974
1274.41	92.6728	1274.41	93.5856	1274.41	92.5526	1274.41	94.0146	1274.41	93.4326	1274.41	93.9811	1274.41	94.2026	1274.41	93.6785	1274.41	94.2907	1274.41	92.3639	1274.41	93.1267	1274.41	90.9527	1274.41	90.5372	1274.41	89.7091	1274.41	87.1658	1274.41	85.8407	1274.41	84.7945	1274.41	81.6257	1274.41	83.5795	1274.41	81.718	1274.41	82.1275	1274.41	81.8984	1274.41	84.5052	1274.41	81.4335	1274.41	84.0916	1274.41	78.4109	1274.41	78.7299	1274.41	78.4734	1274.41	64.6334	1274.41	78.6777	1274.41	78.2109	1274.41	74.4636	1274.41	75.4136	1274.41	73.4967	1274.41	77.7028	1274.41	81.9026
1319.82	92.9158	1319.82	93.7954	1319.82	92.8333	1319.82	94.5229	1319.82	93.7434	1319.82	95.1466	1319.82	94.644	1319.82	94.7523	1319.82	94.7444	1319.82	93.0437	1319.82	93.5217	1319.82	90.6493	1319.82	91.3695	1319.82	88.7641	1319.82	89.0895	1319.82	88.0647	1319.82	86.8618	1319.82	85.6464	1319.82	85.4349	1319.82	83.1376	1319.82	83.5313	1319.82	81.28	1319.82	81.1707	1319.82	78.3552	1319.82	80.7612	1319.82	78.345	1319.82	78.5551	1319.82	78.2725	1319.82	73.3371	1319.82	76.7331	1319.82	77.2874	1319.82	71.0161	1319.82	76.153	1319.82	78.7853	1319.82	81.0136	1319.82	83.0473
1366.7	94.6478	1366.7	94.9027	1366.7	94.7484	1366.7	95.7482	1366.7	94.689	1366.7	95.8799	1366.7	94.4157	1366.7	95.0684	1366.7	93.6602	1366.7	93.994	1366.7	92.8852	1366.7	92.0388	1366.7	91.4252	1366.7	89.6902	1366.7	87.19	1366.7	86.6876	1366.7	82.5827	1366.7	83.0453	1366.7	82.6707	1366.7	83.1133	1366.7	85.1686	1366.7	82.0904	1366.7	84.5169	1366.7	81.4751	1366.7	81.7818	1366.7	76.1694	1366.7	80.5842	1366.7	74.7042	1366.7	73.9545	1366.7	72.8248	1366.7	69.5511	1366.7	77.0736	1366.7	56.5414	1366.7	76.5183	1366.7	74.1086	1366.7	79.3831
1413.57	94.6152	1413.57	94.7829	1413.57	94.8667	1413.57	95.5098	1413.57	94.4637	1413.57	95.7831	1413.57	93.7994	1413.57	94.524	1413.57	93.3806	1413.57	92.4281	1413.57	91.7082	1413.57	91.4519	1413.57	89.2907	1413.57	88.2127	1413.57	87.762	1413.57	83.1886	1413.57	85.6272	1413.57	83.2612	1413.57	81.0222	1413.57	81.669	1413.57	78.3051	1413.57	81.2954	1413.57	79.6857	1413.57	82.9625	1413.57	83.0237	1413.57	80.8812	1413.57	78.1638	1413.57	76.1232	1413.57	68.874	1413.57	75.2206	1413.57	56.514	1413.57	59.6837	1413.57	53.573	1413.57	75.0253	1413.57	75.1776	1413.57	79.3223
1463.38	94.0228	1463.38	94.1252	1463.38	94.8081	1463.38	95.2223	1463.38	95.1165	1463.38	95.133	1463.38	94.6887	1463.38	93.5396	1463.38	93.34	1463.38	91.6792	1463.38	91.1147	1463.38	89.2818	1463.38	88.8166	1463.38	87.6612	1463.38	86.8303	1463.38	86.5442	1463.38	84.1313	1463.38	83.8011	1463.38	83.2343	1463.38	77.0206	1463.38	82.5823	1463.38	76.1949	1463.38	78.8786	1463.38	78.9572	1463.38	77.3386	1463.38	77.0958	1463.38	80.7885	1463.38	71.2481	1463.38	75.3688	1463.38	74.3095	1463.38	66.0965	1463.38	72.6969	1463.38	70.582	1463.38	74.8787	1463.38	72.0602	1463.38	78.5202
1516.11	94.2895	1516.11	94.9918	1516.11	94.0625	1516.11	94.6647	1516.11	94.9036	1516.11	94.0671	1516.11	94.4181	1516.11	93.1348	1516.11	92.6481	1516.11	92.1574	1516.11	90.9692	1516.11	89.7583	1516.11	88.5351	1516.11	84.0567	1516.11	84.9663	1516.11	83.1104	1516.11	82.2823	1516.11	85.0766	1516.11	76.7065	1516.11	84.2559	1516.11	79.6244	1516.11	75.3493	1516.11	82.1241	1516.11	75.6917	1516.11	77.7828	1516.11	75.9107	1516.11	77.4971	1516.11	70.272	1516.11	69.8261	1516.11	73.6454	1516.11	69.9326	1516.11	73.2259	1516.11	70.9247	1516.11	79.7605	1516.11	69.4199	1516.11	82.9537
1568.85	93.9856	1568.85	94.1218	1568.85	94.3938	1568.85	94.8344	1568.85	94.1822	1568.85	94.0721	1568.85	93.7316	1568.85	91.836	1568.85	92.6762	1568.85	90.283	1568.85	90.6913	1568.85	86.3887	1568.85	87.604	1568.85	85.7499	1568.85	85.1535	1568.85	84.6381	1568.85	83.1153	1568.85	81.2541	1568.85	80.7251	1568.85	80.4747	1568.85	77.5678	1568.85	77.6175	1568.85	63.119	1568.85	71.5435	1568.85	79.7217	1568.85	78.3075	1568.85	79.188	1568.85	75.0544	1568.85	75.8717	1568.85	73.0638	1568.85	76.5068	1568.85	74.9534	1568.85	69.7395	1568.85	74.4064	1568.85	73.8014	1568.85	78.4539
1624.51	93.5717	1624.51	93.4616	1624.51	94.0892	1624.51	93.8083	1624.51	93.8565	1624.51	93.0593	1624.51	93.2091	1624.51	92.2878	1624.51	91.4908	1624.51	89.595	1624.51	89.4815	1624.51	87.1726	1624.51	86.2146	1624.51	86.472	1624.51	84.476	1624.51	82.5499	1624.51	81.186	1624.51	80.5668	1624.51	76.9536	1624.51	79.0704	1624.51	80.9517	1624.51	76.7982	1624.51	81.3577	1624.51	63.3225	1624.51	67.2272	1624.51	76.39	1624.51	76.0551	1624.51	78.6969	1624.51	76.2492	1624.51	61.8884	1624.51	69.8378	1624.51	72.9833	1624.51	68.4564	1624.51	60.5775	1624.51	72.2173	1624.51	77.1751
1681.64	93.3972	1681.64	93.533	1681.64	93.372	1681.64	93.7857	1681.64	93.3705	1681.64	93.3089	1681.64	92.3951	1681.64	90.8331	1681.64	90.9172	1681.64	87.571	1681.64	89.2808	1681.64	87.0909	1681.64	86.1881	1681.64	84.9948	1681.64	84.614	1681.64	82.5634	1681.64	82.8005	1681.64	81.8358	1681.64	78.8695	1681.64	82.0724	1681.64	75.3664	1681.64	82.0463	1681.64	70.8594	1681.64	81.2114	1681.64	76.3662	1681.64	66.6066	1681.64	75.3685	1681.64	75.2603	1681.64	73.0609	1681.64	70.0383	1681.64	64.8068	1681.64	66.7126	1681.64	70.8147	1681.64	73.1871	1681.64	69.1352	1681.64	76.9344
1741.7	93.8202	1741.7	93.2814	1741.7	93.4347	1741.7	92.7542	1741.7	92.643	1741.7	91.7976	1741.7	91.3736	1741.7	89.4646	1741.7	89.8238	1741.7	87.149	1741.7	87.1483	1741.7	84.3813	1741.7	84.6796	1741.7	83.4413	1741.7	84.0602	1741.7	76.36	1741.7	81.8007	1741.7	78.0831	1741.7	78.3797	1741.7	75.3846	1741.7	78.4484	1741.7	77.1054	1741.7	79.0981	1741.7	78.7327	1741.7	73.3647	1741.7	75.8682	1741.7	58.2177	1741.7	75.5906	1741.7	73.0545	1741.7	71.1433	1741.7	73.8207	1741.7	73.6606	1741.7	73.8159	1741.7	52.2117	1741.7	60.1343	1741.7	74.2349
1803.22	92.7208	1803.22	92.9838	1803.22	93.1028	1803.22	93.0653	1803.22	92.2996	1803.22	90.4386	1803.22	90.9911	1803.22	88.901	1803.22	89.0758	1803.22	86.9617	1803.22	87.1784	1803.22	86.5772	1803.22	84.4768	1803.22	80.1448	1803.22	83.5731	1803.22	79.8431	1803.22	83.8149	1803.22	78.9367	1803.22	81.1118	1803.22	76.8813	1803.22	73.2638	1803.22	70.7615	1803.22	71.7188	1803.22	71.1744	1803.22	76.8044	1803.22	64.8327	1803.22	75.6504	1803.22	67.9403	1803.22	63.1885	1803.22	66.7904	1803.22	70.2379	1803.22	59.7441	1803.22	71.0151	1803.22	65.0808	1803.22	63.033	1803.22	76.4781
1866.21	92.6401	1866.21	92.8463	1866.21	92.8816	1866.21	92.8073	1866.21	92.7689	1866.21	91.417	1866.21	90.7606	1866.21	88.9018	1866.21	88.6371	1866.21	86.3723	1866.21	87.6755	1866.21	84.2538	1866.21	83.6304	1866.21	82.8696	1866.21	82.6061	1866.21	84.4338	1866.21	82.0373	1866.21	82.1246	1866.21	81.1696	1866.21	78.5624	1866.21	81.0963	1866.21	76.196	1866.21	79.0782	1866.21	74.0144	1866.21	73.1244	1866.21	75.7827	1866.21	71.2839	1866.21	73.8305	1866.21	72.1928	1866.21	69.6308	1866.21	69.7775	1866.21	70.3666	1866.21	74.2701	1866.21	72.5253	1866.21	69.2555	1866.21	76.9074
1932.13	93.0162	1932.13	92.3424	1932.13	93.1338	1932.13	92.1125	1932.13	92.1389	1932.13	90.8896	1932.13	90.53	1932.13	87.9567	1932.13	88.3622	1932.13	86.1186	1932.13	85.5809	1932.13	83.5987	1932.13	83.8066	1932.13	84.7276	1932.13	82.6936	1932.13	84.1422	1932.13	83.2137	1932.13	78.8593	1932.13	81.2895	1932.13	80.7206	1932.13	74.9028	1932.13	80.0211	1932.13	76.5479	1932.13	73.6679	1932.13	80.0159	1932.13	77.4952	1932.13	76.4204	1932.13	74.4516	1932.13	68.1722	1932.13	70.4598	1932.13	72.2905	1932.13	61.2532	1932.13	62.3591	1932.13	59.5901	1932.13	70.5133	1932.13	76.201
1999.51	93.0933	1999.51	92.9484	1999.51	92.7336	1999.51	91.4652	1999.51	91.1933	1999.51	89.77	1999.51	89.6201	1999.51	87.2941	1999.51	88.0041	1999.51	86.754	1999.51	87.0516	1999.51	85.8148	1999.51	86.1106	1999.51	81.7915	1999.51	82.0525	1999.51	81.018	1999.51	80.6187	1999.51	74.0881	1999.51	79.0892	1999.51	80.1876	1999.51	77.6112	1999.51	77.9001	1999.51	78.603	1999.51	78.2445	1999.51	74.6077	1999.51	68.3225	1999.51	73.9448	1999.51	78.1697	1999.51	73.349	1999.51	75.6615	1999.51	58.6733	1999.51	65.9535	1999.51	74.5227	1999.51	45.1333	1999.51	67.5396	1999.51	70.7312
2069.82	92.9673	2069.82	92.7573	2069.82	92.5422	2069.82	91.5135	2069.82	90.7321	2069.82	89.3138	2069.82	89.5853	2069.82	88.0247	2069.82	88.0808	2069.82	88.2423	2069.82	87.3649	2069.82	85.712	2069.82	83.6007	2069.82	84.887	2069.82	83.2638	2069.82	79.5375	2069.82	82.6524	2069.82	80.0317	2069.82	81.1925	2069.82	71.0121	2069.82	77.2424	2069.82	69.2265	2069.82	70.1413	2069.82	69.0793	2069.82	74.5858	2069.82	70.8753	2069.82	73.8868	2069.82	70.9233	2069.82	72.8382	2069.82	69.0012	2069.82	73.0707	2069.82	60.5753	2069.82	64.878	2069.82	52.0656	2069.82	65.8412	2069.82	74.5522
2143.07	92.7772	2143.07	92.6843	2143.07	92.1126	2143.07	91.9966	2143.07	91.0769	2143.07	89.2029	2143.07	89.409	2143.07	88.6926	2143.07	88.1542	2143.07	86.6925	2143.07	85.8223	2143.07	85.7927	2143.07	84.6191	2143.07	81.7384	2143.07	82.4935	2143.07	79.155	2143.07	81.2993	2143.07	77.7512	2143.07	78.1287	2143.07	73.9696	2143.07	76.464	2143.07	76.8345	2143.07	75.2287	2143.07	72.2142	2143.07	73.355	2143.07	71.5346	2143.07	74.4568	2143.07	69.0798	2143.07	70.8443	2143.07	72.0037	2143.07	69.237	2143.07	67.897	2143.07	65.6326	2143.07	54.8723	2143.07	57.7596	2143.07	69.2993
2219.24	93.444	2219.24	92.6779	2219.24	92.7951	2219.24	91.1351	2219.24	90.3327	2219.24	90.2404	2219.24	88.4223	2219.24	87.6741	2219.24	88.035	2219.24	86.5768	2219.24	85.805	2219.24	85.1107	2219.24	83.7399	2219.24	82.412	2219.24	82.0597	2219.24	82.0456	2219.24	73.6693	2219.24	77.9163	2219.24	75.6667	2219.24	76.0838	2219.24	69.764	2219.24	66.8854	2219.24	67.6952	2219.24	68.723	2219.24	70.1163	2219.24	70.7307	2219.24	73.1745	2219.24	71.156	2219.24	70.5947	2219.24	69.8055	2219.24	67.557	2219.24	66.9522	2219.24	64.07	2219.24	62.3767	2219.24	66.969	2219.24	72.3124
2296.88	93.4563	2296.88	92.918	2296.88	92.8479	2296.88	90.0881	2296.88	91.0184	2296.88	89.569	2296.88	88.9117	2296.88	88.0952	2296.88	88.3384	2296.88	86.7858	2296.88	85.3831	2296.88	84.2464	2296.88	83.3164	2296.88	81.7439	2296.88	79.6988	2296.88	75.7828	2296.88	79.1417	2296.88	71.405	2296.88	75.3805	2296.88	70.3535	2296.88	71.3613	2296.88	75.03	2296.88	69.4724	2296.88	68.6652	2296.88	68.884	2296.88	70.4043	2296.88	72.0518	2296.88	69.2921	2296.88	69.6624	2296.88	67.4549	2296.88	68.077	2296.88	44.4765	2296.88	62.7448	2296.88	56.2952	2296.88	51.6884	2296.88	69.1746
2378.91	93.5173	2378.91	93.0167	2378.91	92.4456	2378.91	91.7177	2378.91	89.8016	2378.91	88.9489	2378.91	88.7025	2378.91	87.814	2378.91	87.9746	2378.91	86.5265	2378.91	85.3998	2378.91	83.7658	2378.91	82.2491	2378.91	80.3034	2378.91	78.6956	2378.91	78.9634	2378.91	77.1234	2378.91	78.3939	2378.91	75.5444	2378.91	76.8368	2378.91	76.9835	2378.91	68.9092	2378.91	68.5576	2378.91	69.7387	2378.91	71.3802	2378.91	67.7018	2378.91	70.9408	2378.91	69.4488	2378.91	68.0505	2378.91	70.0901	2378.91	68.603	2378.91	58.1171	2378.91	51.4551	2378.91	55.097	2378.91	43.84	2378.91	65.5582
2462.4	93.9953	2462.4	92.9787	2462.4	93.0345	2462.4	91.3818	2462.4	90.5396	2462.4	89.7946	2462.4	88.7322	2462.4	88.0489	2462.4	88.2368	2462.4	86.3029	2462.4	85.4014	2462.4	82.7294	2462.4	83.0068	2462.4	81.8613	2462.4	79.5101	2462.4	78.0077	2462.4	76.7678	2462.4	74.0611	2462.4	76.3265	2462.4	73.0606	2462.4	76.329	2462.4	73.909	2462.4	73.1902	2462.4	70.0875	2462.4	70.2703	2462.4	63.751	2462.4	67.1489	2462.4	70.1738	2462.4	68.8295	2462.4	69.7245	2462.4	66.3943	2462.4	59.1499	2462.4	53.8384	2462.4	61.2454	2462.4	50.0701	2462.4	68.2755
2548.83	93.9489	2548.83	93.1862	2548.83	93.6343	2548.83	90.924	2548.83	91.97	2548.83	89.8197	2548.83	89.174	2548.83	88.5212	2548.83	88.2011	2548.83	85.9314	2548.83	85.9198	2548.83	84.9195	2548.83	82.8381	2548.83	79.716	2548.83	80.4319	2548.83	79.2334	2548.83	78.5368	2548.83	77.8525	2548.83	75.5014	2548.83	76.0472	2548.83	73.8208	2548.83	68.9303	2548.83	72.6946	2548.83	70.5055	2548.83	70.7546	2548.83	66.2047	2548.83	69.1067	2548.83	68.6179	2548.83	64.2916	2548.83	65.125	2548.83	67.1516	2548.83	62.8656	2548.83	57.9434	2548.83	54.0527	2548.83	63.1989	2548.83	67.1303
2639.65	93.8532	2639.65	92.7655	2639.65	91.9692	2639.65	90.886	2639.65	90.3921	2639.65	89.1777	2639.65	89.8338	2639.65	88.3719	2639.65	87.8555	2639.65	86.4737	2639.65	85.7495	2639.65	82.7201	2639.65	83.1591	2639.65	82.6431	2639.65	80.0418	2639.65	78.5917	2639.65	78.9203	2639.65	73.846	2639.65	76.2218	2639.65	72.6865	2639.65	77.1932	2639.65	71.4002	2639.65	70.3973	2639.65	71.1629	2639.65	72.4889	2639.65	65.7898	2639.65	65.8483	2639.65	70.3122	2639.65	68.1143	2639.65	68.4902	2639.65	66.2314	2639.65	63.2683	2639.65	57.7004	2639.65	62.2075	2639.65	58.4423	2639.65	66.0811
2731.93	94.0269	2731.93	93.0965	2731.93	92.9436	2731.93	91.3541	2731.93	90.7815	2731.93	90.1096	2731.93	89.5154	2731.93	87.7948	2731.93	88.2217	2731.93	86.5226	2731.93	84.4067	2731.93	83.6374	2731.93	83.4566	2731.93	81.0169	2731.93	79.3802	2731.93	78.6415	2731.93	78.9233	2731.93	77.1636	2731.93	77.2479	2731.93	74.1587	2731.93	75.2655	2731.93	75.6109	2731.93	74.4752	2731.93	71.2859	2731.93	71.1139	2731.93	70.149	2731.93	68.274	2731.93	66.7561	2731.93	69.3502	2731.93	65.9598	2731.93	67.3619	2731.93	67.3033	2731.93	62.9232	2731.93	61.2973	2731.93	61.4974	2731.93	65.4841
2828.61	93.8586	2828.61	92.9435	2828.61	93.3251	2828.61	90.9615	2828.61	92.2787	2828.61	90.2347	2828.61	89.6096	2828.61	88.3919	2828.61	88.1219	2828.61	86.3752	2828.61	86.4802	2828.61	84.4454	2828.61	84.1364	2828.61	82.4584	2828.61	81.7433	2828.61	79.0846	2828.61	76.9112	2828.61	76.8401	2828.61	76.3886	2828.61	76.8991	2828.61	74.1113	2828.61	67.1187	2828.61	71.9452	2828.61	69.9547	2828.61	67.3748	2828.61	66.1149	2828.61	70.9087	2828.61	69.189	2828.61	65.8662	2828.61	67.3287	2828.61	65.807	2828.61	67.2007	2828.61	63.1831	2828.61	63.3503	2828.61	54.0382	2828.61	64.6322
2928.22	94.4666	2928.22	93.9023	2928.22	93.1573	2928.22	92.0632	2928.22	91.9557	2928.22	90.4282	2928.22	90.571	2928.22	88.7332	2928.22	88.3272	2928.22	86.7527	2928.22	87.2772	2928.22	85.912	2928.22	85.0018	2928.22	81.6703	2928.22	81.8492	2928.22	80.7742	2928.22	80.2453	2928.22	76.2087	2928.22	77.7751	2928.22	70.2214	2928.22	76.2339	2928.22	71.1363	2928.22	67.0961	2928.22	70.0366	2928.22	71.1992	2928.22	68.8965	2928.22	71.285	2928.22	68.2713	2928.22	66.5438	2928.22	64.6507	2928.22	67.4441	2928.22	66.5717	2928.22	66.7575	2928.22	57.0821	2928.22	52.9827	2928.22	65.4245
3030.76	94.9221	3030.76	93.9852	3030.76	94.0865	3030.76	92.7313	3030.76	92.1701	3030.76	91.2391	3030.76	91.227	3030.76	89.3039	3030.76	89.0159	3030.76	88.2081	3030.76	87.7461	3030.76	84.8658	3030.76	85.5943	3030.76	84.047	3030.76	81.5218	3030.76	77.2451	3030.76	79.3103	3030.76	72.8897	3030.76	77.3911	3030.76	75.2742	3030.76	74.257	3030.76	72.7874	3030.76	75.311	3030.76	71.6092	3030.76	66.6091	3030.76	64.3033	3030.76	69.7954	3030.76	69.5396	3030.76	70.96	3030.76	66.3786	3030.76	65.2801	3030.76	67.6391	3030.76	67.4201	3030.76	57.9702	3030.76	51.8693	3030.76	64.4631
3137.7	95.5006	3137.7	94.5477	3137.7	94.7678	3137.7	93.0355	3137.7	92.8103	3137.7	91.3624	3137.7	90.7944	3137.7	89.4071	3137.7	89.5081	3137.7	88.2909	3137.7	88.4849	3137.7	86.3514	3137.7	84.2362	3137.7	81.035	3137.7	81.7876	3137.7	79.3746	3137.7	79.9016	3137.7	78.3818	3137.7	76.6664	3137.7	76.7918	3137.7	73.1549	3137.7	69.0554	3137.7	72.6931	3137.7	69.1847	3137.7	70.0285	3137.7	68.5811	3137.7	67.1131	3137.7	68.2028	3137.7	70.3737	3137.7	65.7308	3137.7	67.6339	3137.7	68.1752	3137.7	64.5643	3137.7	53.4539	3137.7	57.8992	3137.7	67.4655
3249.02	95.284	3249.02	94.7418	3249.02	94.4275	3249.02	93.7565	3249.02	93.0065	3249.02	91.4471	3249.02	91.4746	3249.02	90.0638	3249.02	89.7177	3249.02	88.7645	3249.02	88.8904	3249.02	85.5934	3249.02	84.2121	3249.02	82.6714	3249.02	82.5385	3249.02	78.189	3249.02	80.5948	3249.02	75.0169	3249.02	77.8754	3249.02	67.0666	3249.02	75.2383	3249.02	73.0986	3249.02	70.8521	3249.02	69.3094	3249.02	69.9639	3249.02	66.3592	3249.02	65.8808	3249.02	69.5372	3249.02	67.2795	3249.02	68.3241	3249.02	67.2666	3249.02	66.3523	3249.02	68.0433	3249.02	56.5599	3249.02	59.2653	3249.02	64.0454
3363.28	95.7841	3363.28	95.1465	3363.28	95.1443	3363.28	94.1899	3363.28	93.5169	3363.28	91.7652	3363.28	91.7573	3363.28	90.7692	3363.28	90.6478	3363.28	89.427	3363.28	89.4779	3363.28	86.0676	3363.28	84.7584	3363.28	82.4057	3363.28	83.1104	3363.28	79.5057	3363.28	80.2233	3363.28	76.7007	3363.28	76.5713	3363.28	76.2084	3363.28	67.7247	3363.28	69.8057	3363.28	72.1827	3363.28	70.8854	3363.28	71.0789	3363.28	69.1993	3363.28	68.5325	3363.28	69.9589	3363.28	70.0829	3363.28	68.0466	3363.28	68.2577	3363.28	68.0211	3363.28	66.8512	3363.28	58.8982	3363.28	59.2955	3363.28	63.0354
3481.93	95.5779	3481.93	95.8203	3481.93	95.4664	3481.93	94.0644	3481.93	93.6089	3481.93	91.7735	3481.93	90.9335	3481.93	91.0007	3481.93	91.1641	3481.93	89.6106	3481.93	88.4625	3481.93	86.0839	3481.93	84.3995	3481.93	82.6712	3481.93	83.7883	3481.93	79.0478	3481.93	79.4702	3481.93	77.358	3481.93	74.3693	3481.93	72.2334	3481.93	69.5313	3481.93	74.4632	3481.93	66.0079	3481.93	70.2318	3481.93	58.7786	3481.93	70.1027	3481.93	70.4393	3481.93	71.2438	3481.93	68.6682	3481.93	71.4507	3481.93	66.183	3481.93	66.9633	3481.93	66.7631	3481.93	50.0817	3481.93	48.9446	3481.93	66.2449
3604.98	94.6046	3604.98	94.8167	3604.98	95.4586	3604.98	93.6563	3604.98	93.4469	3604.98	91.222	3604.98	90.685	3604.98	90.7197	3604.98	91.1598	3604.98	89.1992	3604.98	87.7738	3604.98	85.5247	3604.98	85.5678	3604.98	83.6495	3604.98	84.5882	3604.98	80.7315	3604.98	78.9196	3604.98	75.7404	3604.98	74.6381	3604.98	76.186	3604.98	69.6497	3604.98	72.5972	3604.98	65.0355	3604.98	72.6773	3604.98	63.4508	3604.98	69.6377	3604.98	69.2966	3604.98	71.3204	3604.98	70.6344	3604.98	68.8737	3604.98	71.9266	3604.98	68.4064	3604.98	66.6176	3604.98	62.0307	3604.98	61.3296	3604.98	62.0734
3732.42	94.3278	3732.42	94.8769	3732.42	94.7512	3732.42	92.6292	3732.42	92.847	3732.42	90.8572	3732.42	90.4738	3732.42	90.1771	3732.42	90.8974	3732.42	87.8493	3732.42	85.6353	3732.42	85.564	3732.42	86.903	3732.42	83.3106	3732.42	84.7732	3732.42	81.571	3732.42	79.788	3732.42	79.2161	3732.42	73.5371	3732.42	76.8306	3732.42	72.8904	3732.42	70.2061	3732.42	72.0085	3732.42	69.1597	3732.42	66.7007	3732.42	70.1664	3732.42	68.9409	3732.42	70.9717	3732.42	72.8465	3732.42	71.7306	3732.42	71.3597	3732.42	68.4417	3732.42	68.1953	3732.42	56.866	3732.42	60.3936	3732.42	66.0339
3864.26	93.3225	3864.26	93.7337	3864.26	94.6307	3864.26	92.3487	3864.26	92.1278	3864.26	90.5143	3864.26	90.1914	3864.26	89.2875	3864.26	89.8869	3864.26	87.3136	3864.26	85.2457	3864.26	86.1775	3864.26	87.5532	3864.26	84.5237	3864.26	83.593	3864.26	79.3601	3864.26	78.3026	3864.26	79.0376	3864.26	74.4274	3864.26	70.8263	3864.26	71.752	3864.26	73.1048	3864.26	71.8576	3864.26	67.9276	3864.26	69.5793	3864.26	68.1306	3864.26	66.8994	3864.26	70.4801	3864.26	69.1848	3864.26	66.9932	3864.26	68.9722	3864.26	66.0011	3864.26	64.5258	3864.26	64.217	3864.26	56.0995	3864.26	67.9311
4000.49	93.0935	4000.49	93.8032	4000.49	93.387	4000.49	92.0659	4000.49	91.5118	4000.49	90.803	4000.49	90.6596	4000.49	88.2787	4000.49	88.2132	4000.49	87.0657	4000.49	86.3275	4000.49	86.5732	4000.49	88.0367	4000.49	83.765	4000.49	83.2115	4000.49	80.5919	4000.49	78.4385	4000.49	74.5867	4000.49	74.3132	4000.49	73.2041	4000.49	71.3869	4000.49	71.5902	4000.49	71.1659	4000.49	69.9198	4000.49	73.1309	4000.49	68.4893	4000.49	58.4395	4000.49	68.5395	4000.49	70.5138	4000.49	69.8602	4000.49	70.1167	4000.49	66.4762	4000.49	62.7855	4000.49	65.5836	4000.49	61.5706	4000.49	59.5103
4141.11	93.092	4141.11	93.2616	4141.11	93.8735	4141.11	92.1655	4141.11	91.8163	4141.11	90.5745	4141.11	90.3617	4141.11	87.7414	4141.11	86.2279	4141.11	87.3148	4141.11	87.8222	4141.11	86.1496	4141.11	87.2791	4141.11	83.1892	4141.11	83.4372	4141.11	79.3441	4141.11	78.4287	4141.11	75.217	4141.11	76.1086	4141.11	73.8996	4141.11	74.4567	4141.11	69.9123	4141.11	68.1781	4141.11	68.3553	4141.11	72.6871	4141.11	68.5224	4141.11	64.0418	4141.11	68.5275	4141.11	69.3717	4141.11	66.6887	4141.11	68.9816	4141.11	64.8819	4141.11	64.3978	4141.11	64.3438	4141.11	62.2807	4141.11	58.2678
4287.6	93.3698	4287.6	94.0409	4287.6	93.4481	4287.6	92.2657	4287.6	91.7388	4287.6	90.399	4287.6	90.1554	4287.6	87.3008	4287.6	85.36	4287.6	87.6157	4287.6	88.5462	4287.6	86.2212	4287.6	86.618	4287.6	81.5709	4287.6	82.42	4287.6	78.7226	4287.6	77.8936	4287.6	76.962	4287.6	76.0856	4287.6	71.6189	4287.6	77.7299	4287.6	71.5877	4287.6	74.897	4287.6	67.8332	4287.6	71.8127	4287.6	67.7969	4287.6	70.3854	4287.6	63.7187	4287.6	69.0535	4287.6	65.4109	4287.6	62.4801	4287.6	63.9223	4287.6	65.4984	4287.6	68.7318	4287.6	60.4608	4287.6	56.5633
4438.48	93.8439	4438.48	93.9131	4438.48	94.1465	4438.48	92.6916	4438.48	91.9734	4438.48	90.3341	4438.48	88.9377	4438.48	86.402	4438.48	85.0901	4438.48	86.7169	4438.48	87.8292	4438.48	83.9767	4438.48	84.5737	4438.48	80.5861	4438.48	80.7581	4438.48	76.2642	4438.48	77.8427	4438.48	74.3861	4438.48	77.9286	4438.48	69.8605	4438.48	74.1883	4438.48	68.956	4438.48	75.782	4438.48	67.694	4438.48	73.17	4438.48	68.65	4438.48	68.5201	4438.48	62.4339	4438.48	67.6972	4438.48	63.0977	4438.48	61.4566	4438.48	61.6504	4438.48	59.7394	4438.48	57.711	4438.48	64.1373	4438.48	58.9343
4595.21	95.0438	4595.21	94.7431	4595.21	94.1273	4595.21	92.9884	4595.21	92.1253	4595.21	89.7226	4595.21	87.8227	4595.21	85.5383	4595.21	85.0767	4595.21	84.7567	4595.21	85.1053	4595.21	80.5312	4595.21	81.3518	4595.21	76.4389	4595.21	77.6649	4595.21	74.6293	4595.21	77.4511	4595.21	70.543	4595.21	75.6159	4595.21	68.5717	4595.21	69.8943	4595.21	67.2606	4595.21	65.4561	4595.21	64.5066	4595.21	64.9934	4595.21	64.5948	4595.21	70.1597	4595.21	59.0593	4595.21	58.8279	4595.21	51.5911	4595.21	54.3842	4595.21	56.8142	4595.21	53.1844	4595.21	66.8332	4595.21	66.163	4595.21	53.9106
4756.35	95.1676	4756.35	94.5601	4756.35	94.5697	4756.35	92.7882	4756.35	92.7219	4756.35	89.2363	4756.35	87.8693	4756.35	85.4596	4756.35	84.3473	4756.35	82.111	4756.35	81.8659	4756.35	75.8658	4756.35	77.2911	4756.35	71.502	4756.35	74.9486	4756.35	68.2851	4756.35	73.6663	4756.35	64.2638	4756.35	67.1134	4756.35	65.2334	4756.35	62.8818	4756.35	55.9895	4756.35	59.9366	4756.35	59.1931	4756.35	54.4592	4756.35	58.9903	4756.35	68.4635	4756.35	51.6742	4756.35	64.9748	4756.35	53.8119	4756.35	61.6491	4756.35	40.7247	4756.35	63.198	4756.35	67.2405	4756.35	65.108	4756.35	65.1039
4924.8	95.7956	4924.8	95.2822	4924.8	95.2085	4924.8	93.4288	4924.8	92.5823	4924.8	89.5333	4924.8	88.6013	4924.8	85.1255	4924.8	84.4518	4924.8	80.2934	4924.8	81.2454	4924.8	69.1387	4924.8	68.0815	4924.8	58.2887	4924.8	71.5679	4924.8	59.626	4924.8	66.8475	4924.8	58.0566	4924.8	57.0082	4924.8	57.6202	4924.8	56.5232	4924.8	59.2649	4924.8	61.8103	4924.8	57.402	4924.8	62.7384	4924.8	58.6261	4924.8	54.9629	4924.8	60.4638	4924.8	67.4186	4924.8	57.12	4924.8	62.1995	4924.8	51.9612	4924.8	59.7785	4924.8	62.459	4924.8	60.0559	4924.8	61.691
5097.66	95.7006	5097.66	95.5702	5097.66	95.294	5097.66	93.4253	5097.66	93.1225	5097.66	90.1776	5097.66	89.1054	5097.66	86.5024	5097.66	86.5225	5097.66	81.3762	5097.66	81.6045	5097.66	70.4296	5097.66	56.7218	5097.66	57.4994	5097.66	63.247	5097.66	62.234	5097.66	58.3196	5097.66	55.3425	5097.66	64.0651	5097.66	45.0661	5097.66	60.9934	5097.66	52.5786	5097.66	49.8682	5097.66	58.3905	5097.66	60.0625	5097.66	57.6779	5097.66	50.5844	5097.66	63.9806	5097.66	66.5467	5097.66	57.1834	5097.66	63.714	5097.66	35.8205	5097.66	57.6461	5097.66	63.3461	5097.66	61.7958	5097.66	52.6952
5277.83	96.3085	5277.83	95.9672	5277.83	96.0299	5277.83	93.9344	5277.83	93.5382	5277.83	91.1949	5277.83	89.5806	5277.83	88.0378	5277.83	89.1814	5277.83	82.7143	5277.83	83.7	5277.83	75.4013	5277.83	66.0459	5277.83	69.3975	5277.83	64.617	5277.83	64.5805	5277.83	66.2316	5277.83	62.6124	5277.83	65.2609	5277.83	58.2856	5277.83	60.0142	5277.83	51.7636	5277.83	54.9328	5277.83	49.712	5277.83	55.7574	5277.83	58.8605	5277.83	52.7955	5277.83	65.353	5277.83	69.0779	5277.83	61.9748	5277.83	68.2408	5277.83	57.2676	5277.83	56.5292	5277.83	62.1686	5277.83	63.3102	5277.83	57.7563
5463.87	96.3663	5463.87	96.3022	5463.87	96.2513	5463.87	94.5425	5463.87	93.9636	5463.87	91.6777	5463.87	89.9559	5463.87	89.6147	5463.87	91.6688	5463.87	83.9728	5463.87	85.3948	5463.87	79.7884	5463.87	75.4042	5463.87	76.3536	5463.87	73.4702	5463.87	73.0563	5463.87	73.5494	5463.87	67.6788	5463.87	70.2906	5463.87	63.795	5463.87	62.2529	5463.87	57.7371	5463.87	57.4663	5463.87	56.4031	5463.87	60.6478	5463.87	62.7908	5463.87	67.347	5463.87	65.5031	5463.87	68.8165	5463.87	64.6454	5463.87	68.2714	5463.87	59.1165	5463.87	64.2289	5463.87	65.0136	5463.87	60.6349	5463.87	54.9084
5657.23	97.0729	5657.23	96.8968	5657.23	97.2717	5657.23	95.2745	5657.23	94.9926	5657.23	92.584	5657.23	92.059	5657.23	91.1323	5657.23	93.4418	5657.23	85.5438	5657.23	85.4034	5657.23	82.9396	5657.23	80.5669	5657.23	79.9751	5657.23	78.5157	5657.23	75.9814	5657.23	77.0149	5657.23	72.6227	5657.23	71.5492	5657.23	66.1881	5657.23	62.5213	5657.23	62.4027	5657.23	62.7785	5657.23	62.659	5657.23	65.7334	5657.23	65.5614	5657.23	62.7685	5657.23	63.3564	5657.23	69.9407	5657.23	61.9045	5657.23	66.1791	5657.23	53.3451	5657.23	56.0778	5657.23	58.9986	5657.23	61.2869	5657.23	57.9344
5856.45	97.8821	5856.45	97.1615	5856.45	96.907	5856.45	96.1994	5856.45	96.9214	5856.45	93.9669	5856.45	94.816	5856.45	92.0827	5856.45	94.8834	5856.45	88.1759	5856.45	87.5198	5856.45	85.315	5856.45	83.3379	5856.45	82.0208	5856.45	80.5976	5856.45	77.4647	5856.45	78.4257	5856.45	73.6155	5856.45	69.2691	5856.45	67.6382	5856.45	67.9267	5856.45	63.7187	5856.45	63.6182	5856.45	64.1946	5856.45	67.1327	5856.45	65.785	5856.45	66.6941	5856.45	65.0837	5856.45	66.9346	5856.45	68.0182	5856.45	66.8334	5856.45	60.7279	5856.45	59.1705	5856.45	66.2657	5856.45	68.7968	5856.45	51.0588
6062.99	98.005	6062.99	97.3984	6062.99	97.8218	6062.99	96.529	6062.99	98.0815	6062.99	94.9352	6062.99	96.0271	6062.99	92.7527	6062.99	95.7167	6062.99	89.917	6062.99	88.2805	6062.99	86.4648	6062.99	85.8455	6062.99	83.6511	6062.99	81.9374	6062.99	79.5348	6062.99	80.6802	6062.99	75.4365	6062.99	71.5258	6062.99	69.6717	6062.99	69.4286	6062.99	68.5943	6062.99	70.5964	6062.99	65.5351	6062.99	67.3375	6062.99	64.7523	6062.99	69.303	6062.99	64.2035	6062.99	65.9568	6062.99	64.6814	6062.99	68.4109	6062.99	62.8515	6062.99	68.5731	6062.99	67.1412	6062.99	66.9317	6062.99	58.0851
6276.86	97.8698	6276.86	97.1634	6276.86	97.9812	6276.86	96.488	6276.86	97.8839	6276.86	95.5777	6276.86	97.0802	6276.86	92.9134	6276.86	95.6558	6276.86	91.2898	6276.86	89.7223	6276.86	87.1981	6276.86	85.9993	6276.86	85.7014	6276.86	84.9713	6276.86	81.7325	6276.86	82.4867	6276.86	77.3297	6276.86	78.462	6276.86	72.1717	6276.86	73.0294	6276.86	71.2662	6276.86	71.1484	6276.86	68.678	6276.86	68.5255	6276.86	66.4232	6276.86	60.6999	6276.86	65.7986	6276.86	68.674	6276.86	66.3538	6276.86	73.2095	6276.86	64.5102	6276.86	71.1867	6276.86	68.7077	6276.86	65.4027	6276.86	56.5408
6498.05	96.1651	6498.05	96.0493	6498.05	96.1342	6498.05	95.0945	6498.05	95.9113	6498.05	94.3963	6498.05	96.4354	6498.05	92.7876	6498.05	94.6558	6498.05	90.536	6498.05	89.7854	6498.05	88.0457	6498.05	86.7812	6498.05	86.6069	6498.05	86.8788	6498.05	82.5863	6498.05	83.0523	6498.05	77.3988	6498.05	79.0282	6498.05	75.041	6498.05	73.4138	6498.05	72.2263	6498.05	71.5394	6498.05	66.6815	6498.05	65.0504	6498.05	64.2444	6498.05	65.9089	6498.05	67.2506	6498.05	67.6609	6498.05	66.4393	6498.05	68.9324	6498.05	66.6213	6498.05	71.5102	6498.05	68.9415	6498.05	70.6879	6498.05	64.2585
6726.56	94.4514	6726.56	94.0215	6726.56	94.6788	6726.56	93.5239	6726.56	93.8822	6726.56	92.9122	6726.56	95.1097	6726.56	92.6928	6726.56	93.5212	6726.56	89.7705	6726.56	89.1897	6726.56	89.0006	6726.56	88.1964	6726.56	86.2185	6726.56	87.7877	6726.56	81.8995	6726.56	82.6586	6726.56	77.9377	6726.56	78.6696	6726.56	73.2731	6726.56	73.895	6726.56	69.4226	6726.56	68.5466	6726.56	64.2048	6726.56	68.7382	6726.56	62.0581	6726.56	61.5432	6726.56	65.2094	6726.56	66.5126	6726.56	66.7287	6726.56	66.5052	6726.56	65.5205	6726.56	71.661	6726.56	67.4945	6726.56	67.2277	6726.56	67.584
6963.87	92.1041	6963.87	90.8672	6963.87	92.5414	6963.87	91.2908	6963.87	91.5196	6963.87	90.4003	6963.87	93.0341	6963.87	91.7797	6963.87	91.9064	6963.87	89.5019	6963.87	88.616	6963.87	88.578	6963.87	88.5747	6963.87	85.4755	6963.87	86.3824	6963.87	80.966	6963.87	81.4721	6963.87	78.0955	6963.87	76.1421	6963.87	73.949	6963.87	71.7332	6963.87	69.2672	6963.87	68.275	6963.87	66.1852	6963.87	61.9048	6963.87	62.5383	6963.87	51.2105	6963.87	64.216	6963.87	54.3968	6963.87	62.9935	6963.87	65.5977	6963.87	60.2305	6963.87	69.9373	6963.87	59.0201	6963.87	57.6894	6963.87	46.8971
7209.96	91.538	7209.96	91.2697	7209.96	90.2846	7209.96	91.4871	7209.96	91.2456	7209.96	88.9811	7209.96	89.1803	7209.96	90.533	7209.96	90.3518	7209.96	89.1213	7209.96	87.2417	7209.96	87.3231	7209.96	87.6597	7209.96	85.4951	7209.96	86.0939	7209.96	81.4595	7209.96	80.9493	7209.96	77.5511	7209.96	74.7847	7209.96	72.5699	7209.96	71.1321	7209.96	70.6044	7209.96	70.7	7209.96	64.8767	7209.96	61.3122	7209.96	63.7374	7209.96	63.7152	7209.96	61.6893	7209.96	60.3542	7209.96	57.9237	7209.96	60.4463	7209.96	61.4927	7209.96	65.896	7209.96	61.9373	7209.96	66.2692	7209.96	63.4678
7464.84	93.6944	7464.84	92.978	7464.84	92.6336	7464.84	92.9194	7464.84	91.8027	7464.84	89.5724	7464.84	87.69	7464.84	89.7056	7464.84	89.801	7464.84	88.9261	7464.84	86.5717	7464.84	85.997	7464.84	87.0599	7464.84	85.9194	7464.84	86.3546	7464.84	80.8587	7464.84	77.6326	7464.84	76.8392	7464.84	74.0909	7464.84	70.2898	7464.84	71.136	7464.84	71.0957	7464.84	69.0992	7464.84	59.9632	7464.84	66.0748	7464.84	63.825	7464.84	66.2002	7464.84	56.7376	7464.84	59.5616	7464.84	56.1984	7464.84	61.5839	7464.84	61.5234	7464.84	70.6283	7464.84	55.0898	7464.84	52.4973	7464.84	57.5609
7727.05	94.3847	7727.05	93.9377	7727.05	93.637	7727.05	93.2579	7727.05	91.6618	7727.05	90.2621	7727.05	88.6295	7727.05	88.891	7727.05	88.0086	7727.05	87.6665	7727.05	85.4781	7727.05	85.4275	7727.05	87.3772	7727.05	83.6444	7727.05	82.6981	7727.05	78.7281	7727.05	74.187	7727.05	74.4466	7727.05	72.423	7727.05	71.8156	7727.05	70.1835	7727.05	67.6427	7727.05	68.9063	7727.05	62.0535	7727.05	59.9479	7727.05	61.4712	7727.05	56.864	7727.05	56.0521	7727.05	60.9223	7727.05	58.5497	7727.05	61.0426	7727.05	64.1561	7727.05	62.6168	7727.05	64.7433	7727.05	60.1073	7727.05	59.8937
7999.51	94.601	7999.51	93.4553	7999.51	93.4155	7999.51	91.103	7999.51	90.9509	7999.51	85.7522	7999.51	85.4148	7999.51	80.4167	7999.51	79.8676	7999.51	77.3443	7999.51	76.3708	7999.51	75.9556	7999.51	78.9634	7999.51	71.3109	7999.51	70.1894	7999.51	65.2855	7999.51	66.8227	7999.51	60.5521	7999.51	64.3546	7999.51	59.1093	7999.51	62.3554	7999.51	51.1986	7999.51	54.3382	7999.51	53.4134	7999.51	43.7728	7999.51	54.9095	7999.51	51.9514	7999.51	49.4848	7999.51	52.1919	7999.51	53.7444	7999.51	48.7932	7999.51	57.6195	7999.51	62.3278	7999.51	58.0136	7999.51	56.8319	7999.51	59.1409
8282.23	95.7678	8282.23	95.02	8282.23	95.1083	8282.23	92.7719	8282.23	92.9701	8282.23	88.8495	8282.23	88.2782	8282.23	84.4515	8282.23	84.6364	8282.23	81.4338	8282.23	81.3002	8282.23	78.2587	8282.23	81.7782	8282.23	79.1178	8282.23	78.043	8282.23	75.4158	8282.23	76.7825	8282.23	71.1535	8282.23	73.4382	8282.23	67.1348	8282.23	68.4598	8282.23	64.1113	8282.23	65.8865	8282.23	59.3923	8282.23	54.4199	8282.23	52.0491	8282.23	56.4399	8282.23	58.7814	8282.23	62.0406	8282.23	60.2713	8282.23	58.5393	8282.23	56.4007	8282.23	60.374	8282.23	65.562	8282.23	58.6702	8282.23	58.193
8573.73	95.8349	8573.73	95.6718	8573.73	95.6074	8573.73	93.8425	8573.73	93.9703	8573.73	91.2032	8573.73	91.0061	8573.73	87.4809	8573.73	87.1947	8573.73	84.8441	8573.73	84.4134	8573.73	81.6467	8573.73	82.5219	8573.73	81.186	8573.73	77.8429	8573.73	74.8057	8573.73	76.9578	8573.73	70.5426	8573.73	71.9184	8573.73	66.0894	8573.73	64.5999	8573.73	63.6214	8573.73	61.3166	8573.73	49.5138	8573.73	52.7782	8573.73	53.4488	8573.73	46.7163	8573.73	60.7161	8573.73	55.618	8573.73	58.7443	8573.73	60.9884	8573.73	56.7459	8573.73	52.4317	8573.73	60.2198	8573.73	64.6133	8573.73	62.0104
8876.95	95.4668	8876.95	95.5791	8876.95	95.3402	8876.95	93.8972	8876.95	93.6645	8876.95	91.8647	8876.95	91.3656	8876.95	88.4147	8876.95	87.5206	8876.95	85.7973	8876.95	85.7179	8876.95	83.5863	8876.95	82.1486	8876.95	80.3903	8876.95	77.6408	8876.95	76.5458	8876.95	77.5539	8876.95	71.3822	8876.95	69.5983	8876.95	68.4967	8876.95	66.8457	8876.95	64.7449	8876.95	62.639	8876.95	54.03	8876.95	55.0471	8876.95	51.5938	8876.95	57.1945	8876.95	58.5801	8876.95	63.6506	8876.95	51.8564	8876.95	57.2771	8876.95	54.1823	8876.95	46.4858	8876.95	50.6674	8876.95	34.806	8876.95	61.0095
9188.96	95.4006	9188.96	95.0525	9188.96	94.9825	9188.96	93.6877	9188.96	93.1698	9188.96	91.8656	9188.96	91.4158	9188.96	88.9656	9188.96	87.7991	9188.96	86.8173	9188.96	87.0031	9188.96	83.4913	9188.96	78.6365	9188.96	81.8589	9188.96	81.7157	9188.96	77.7241	9188.96	77.8494	9188.96	71.768	9188.96	69.3684	9188.96	67.2444	9188.96	66.0201	9188.96	62.9095	9188.96	61.7184	9188.96	50.8391	9188.96	50.8383	9188.96	50.0643	9188.96	58.1293	9188.96	61.1233	9188.96	64.7051	9188.96	61.7195	9188.96	59.3401	9188.96	57.9375	9188.96	43.6421	9188.96	58.4443	9188.96	62.2996	9188.96	65.0278
9514.16	94.91	9514.16	94.7049	9514.16	94.0159	9514.16	93.575	9514.16	92.1182	9514.16	91.8594	9514.16	89.8633	9514.16	89.136	9514.16	86.8643	9514.16	87.6258	9514.16	86.6683	9514.16	84.2932	9514.16	78.2866	9514.16	82.4355	9514.16	81.2606	9514.16	76.4523	9514.16	69.9387	9514.16	71.6237	9514.16	66.924	9514.16	66.3469	9514.16	62.4074	9514.16	61.7568	9514.16	54.4221	9514.16	54.6493	9514.16	57.4529	9514.16	44.4715	9514.16	52.2933	9514.16	55.0472	9514.16	40.4333	9514.16	56.6989	9514.16	52.5762	9514.16	54.9547	9514.16	60.8062	9514.16	57.8199	9514.16	49.3792	9514.16	64.0418
9849.61	95.0111	9849.61	94.8024	9849.61	93.6473	9849.61	94.0421	9849.61	91.8129	9849.61	91.7503	9849.61	88.4168	9849.61	89.2193	9849.61	86.2137	9849.61	87.1946	9849.61	84.4311	9849.61	84.4093	9849.61	80.739	9849.61	81.1859	9849.61	77.7434	9849.61	77.3268	9849.61	74.9164	9849.61	71.4733	9849.61	67.7509	9849.61	67.7441	9849.61	64.1425	9849.61	60.5606	9849.61	54.1582	9849.61	53.5453	9849.61	58.6213	9849.61	55.4652	9849.61	57.2059	9849.61	55.9296	9849.61	52.8959	9849.61	41.1307	9849.61	52.2908	9849.61	56.0287	9849.61	56.2076	9849.61	51.8527	9849.61	49.0573	9849.61	62.7774
10196.8	95.7157	10196.8	94.9262	10196.8	94.3739	10196.8	93.8332	10196.8	92.5146	10196.8	90.3557	10196.8	88.5438	10196.8	87.4902	10196.8	86.2937	10196.8	84.5863	10196.8	82.4391	10196.8	81.2343	10196.8	80.7729	10196.8	78.9017	10196.8	78.918	10196.8	76.9197	10196.8	75.6509	10196.8	69.6511	10196.8	65.7978	10196.8	65.7973	10196.8	64.931	10196.8	59.9116	10196.8	57.7856	10196.8	49.4464	10196.8	49.469	10196.8	55.5318	10196.8	54.1834	10196.8	55.2854	10196.8	52.1417	10196.8	53.9039	10196.8	57.9846	10196.8	59.1705	10196.8	57.1449	10196.8	54.8545	10196.8	50.4427	10196.8	61.9592
10555.7	95.6839	10555.7	94.6475	10555.7	94.7255	10555.7	93.3195	10555.7	93.3804	10555.7	89.6985	10555.7	89.5586	10555.7	86.1284	10555.7	88.0313	10555.7	82.7667	10555.7	82.5	10555.7	78.326	10555.7	81.9933	10555.7	77.9813	10555.7	79.0939	10555.7	71.9385	10555.7	74.5112	10555.7	68.5158	10555.7	70.477	10555.7	60.6348	10555.7	64.4214	10555.7	52.234	10555.7	50.2254	10555.7	46.5386	10555.7	50.3487	10555.7	49.4192	10555.7	51.117	10555.7	53.3416	10555.7	52.9998	10555.7	49.6521	10555.7	50.9475	10555.7	54.2884	10555.7	56.2451	10555.7	51.9107	10555.7	53.8666	10555.7	61.3882
10927.7	95.76	10927.7	94.858	10927.7	95.094	10927.7	93.7883	10927.7	93.8133	10927.7	90.3735	10927.7	90.2824	10927.7	87.0016	10927.7	88.9873	10927.7	83.4114	10927.7	81.3531	10927.7	80.1734	10927.7	82.0113	10927.7	77.61	10927.7	78.8841	10927.7	76.5112	10927.7	75.3913	10927.7	69.7171	10927.7	72.1043	10927.7	64.9603	10927.7	67.8495	10927.7	53.8934	10927.7	40.5177	10927.7	42.557	10927.7	50.4628	10927.7	55.6385	10927.7	53.2894	10927.7	53.979	10927.7	47.1962	10927.7	54.8302	10927.7	60.184	10927.7	54.569	10927.7	53.4235	10927.7	58.1854	10927.7	54.1365	10927.7	56.0705
11313	95.478	11313	94.8942	11313	95.1554	11313	93.6637	11313	93.5433	11313	90.5364	11313	90.9757	11313	87.3173	11313	89.2449	11313	83.6493	11313	81.6716	11313	79.8946	11313	79.8637	11313	78.9298	11313	78.7933	11313	73.4748	11313	68.7481	11313	67.1846	11313	68.7648	11313	60.3209	11313	60.1474	11313	44.2371	11313	48.682	11313	52.1592	11313	48.3516	11313	55.4664	11313	31.8848	11313	55.3189	11313	57.6461	11313	54.5179	11313	55.0432	11313	51.1317	11313	58.8715	11313	58.3192	11313	53.3207	11313	50.536
11712.9	95.2205	11712.9	94.9921	11712.9	94.9793	11712.9	93.2923	11712.9	93.2841	11712.9	90.6726	11712.9	91.0994	11712.9	87.6267	11712.9	88.8733	11712.9	83.4321	11712.9	82.0852	11712.9	81.0799	11712.9	80.1163	11712.9	77.1504	11712.9	75.771	11712.9	74.7086	11712.9	73.5664	11712.9	68.3893	11712.9	69.3736	11712.9	62.8593	11712.9	59.11	11712.9	51.9796	11712.9	54.9412	11712.9	54.3902	11712.9	56.2359	11712.9	51.8068	11712.9	49.2979	11712.9	52.6312	11712.9	53.3754	11712.9	48.6698	11712.9	51.5983	11712.9	46.6666	11712.9	52.7324	11712.9	48.4837	11712.9	51.0404	11712.9	48.0769
12126	95.4472	12126	95.5426	12126	95.5726	12126	93.2094	12126	92.9634	12126	90.2763	12126	90.9166	12126	87.3936	12126	87.4439	12126	83.5784	12126	82.8124	12126	80.291	12126	79.9972	12126	77.7187	12126	75.9805	12126	72.8809	12126	72.5161	12126	65.2929	12126	63.0676	12126	59.3347	12126	54.0989	12126	48.8648	12126	52.7696	12126	47.2976	12126	46.5191	12126	46.4317	12126	50.9351	12126	48.1017	12126	45.5721	12126	54.739	12126	54.7228	12126	54.6736	12126	61.2433	12126	45.5713	12126	45.9736	12126	58.704
12553.7	96.6761	12553.7	95.8437	12553.7	95.8066	12553.7	93.4801	12553.7	93.018	12553.7	90.2126	12553.7	90.6766	12553.7	87.3189	12553.7	86.0388	12553.7	83.587	12553.7	83.3447	12553.7	80.1958	12553.7	79.0736	12553.7	76.6255	12553.7	75.8373	12553.7	73.2261	12553.7	72.9726	12553.7	67.9751	12553.7	65.6496	12553.7	61.7914	12553.7	61.6381	12553.7	55.3846	12553.7	55.7599	12553.7	51.8431	12553.7	48.4427	12553.7	37.8641	12553.7	53.5095	12553.7	46.7298	12553.7	56.1329	12553.7	48.2305	12553.7	54.3276	12553.7	52.9685	12553.7	54.2393	12553.7	51.7607	12553.7	42.8516	12553.7	52.2178
12996.1	97.3182	12996.1	95.9994	12996.1	96.177	12996.1	93.5554	12996.1	93.3105	12996.1	90.3365	12996.1	89.6997	12996.1	87.0775	12996.1	85.5609	12996.1	83.4298	12996.1	83.3896	12996.1	80.0992	12996.1	77.2073	12996.1	77.3386	12996.1	78.3788	12996.1	74.5458	12996.1	72.1781	12996.1	64.6658	12996.1	67.3632	12996.1	58.4858	12996.1	57.4069	12996.1	52.4217	12996.1	49.7153	12996.1	45.8983	12996.1	47.5809	12996.1	42.3325	12996.1	29.7081	12996.1	52.755	12996.1	46.2896	12996.1	50.7695	12996.1	50.2076	12996.1	50.2544	12996.1	57.7507	12996.1	54.0356	12996.1	53.8969	12996.1	60.6934
13454.6	97.2673	13454.6	96.1076	13454.6	96.1136	13454.6	93.719	13454.6	93.1383	13454.6	90.7018	13454.6	89.5202	13454.6	87.0743	13454.6	86.0197	13454.6	83.789	13454.6	83.6823	13454.6	80.2926	13454.6	76.6085	13454.6	77.4218	13454.6	78.5097	13454.6	74.8337	13454.6	74.2978	13454.6	68.7786	13454.6	71.0315	13454.6	61.9986	13454.6	58.4104	13454.6	50.778	13454.6	54.7093	13454.6	53.2301	13454.6	47.5691	13454.6	43.6325	13454.6	51.192	13454.6	55.3149	13454.6	48.318	13454.6	50.7601	13454.6	52.5427	13454.6	50.9492	13454.6	55.8471	13454.6	54.5351	13454.6	28.1167	13454.6	58.366
13929.2	96.9769	13929.2	96.302	13929.2	96.3512	13929.2	93.8125	13929.2	93.2632	13929.2	91.3008	13929.2	90.1413	13929.2	88.0419	13929.2	86.874	13929.2	83.9024	13929.2	84.3847	13929.2	81.3054	13929.2	79.2097	13929.2	78.0403	13929.2	79.5552	13929.2	75.2281	13929.2	72.6731	13929.2	67.0198	13929.2	64.1198	13929.2	60.9663	13929.2	52.5059	13929.2	49.8062	13929.2	57.6838	13929.2	50.8821	13929.2	49.6717	13929.2	50.0661	13929.2	50.839	13929.2	56.9795	13929.2	49.2895	13929.2	54.6386	13929.2	47.2171	13929.2	51.8106	13929.2	60.0029	13929.2	53.658	13929.2	43.9546	13929.2	53.5013
14419.9	97.2569	14419.9	96.4969	14419.9	96.2504	14419.9	94.2523	14419.9	93.3471	14419.9	91.4317	14419.9	91.0831	14419.9	88.0811	14419.9	87.539	14419.9	84.3991	14419.9	85.0036	14419.9	81.0827	14419.9	81.5696	14419.9	77.6462	14419.9	79.0945	14419.9	75.1915	14419.9	76.4197	14419.9	69.4399	14419.9	69.8977	14419.9	62.1824	14419.9	60.9185	14419.9	53.5418	14419.9	57.9764	14419.9	49.8213	14419.9	49.5426	14419.9	47.3749	14419.9	45.372	14419.9	55.8307	14419.9	47.3873	14419.9	52.8496	14419.9	50.7346	14419.9	53.1589	14419.9	58.8211	14419.9	51.7205	14419.9	48.1314	14419.9	45.4718
14928.2	97.5013	14928.2	95.9034	14928.2	95.9544	14928.2	93.8362	14928.2	93.2825	14928.2	90.4492	14928.2	90.7498	14928.2	87.3301	14928.2	87.9288	14928.2	83.1534	14928.2	83.4878	14928.2	80.459	14928.2	82.3835	14928.2	78.1394	14928.2	78.4748	14928.2	72.4006	14928.2	75.3426	14928.2	65.9195	14928.2	68.7296	14928.2	58.9918	14928.2	60.7802	14928.2	45.481	14928.2	44.3651	14928.2	50.3169	14928.2	46.9001	14928.2	49.6443	14928.2	44.0567	14928.2	50.6831	14928.2	52.0753	14928.2	49.3534	14928.2	56.4314	14928.2	54.3896	14928.2	56.0965	14928.2	46.4648	14928.2	50.8308	14928.2	59.5829
15455.6	96.9331	15455.6	95.2292	15455.6	95.2162	15455.6	92.9655	15455.6	92.2683	15455.6	89.64	15455.6	88.7761	15455.6	86.6568	15455.6	86.5639	15455.6	83.2573	15455.6	79.8792	15455.6	81.5754	15455.6	82.2783	15455.6	78.0816	15455.6	75.6426	15455.6	75.564	15455.6	75.6455	15455.6	68.1001	15455.6	65.4347	15455.6	59.5048	15455.6	49.7607	15455.6	50.8075	15455.6	57.9464	15455.6	45.0067	15455.6	38.9761	15455.6	51.2094	15455.6	33.9656	15455.6	48.6718	15455.6	55.1232	15455.6	46.3119	15455.6	53.4034	15455.6	55.1776	15455.6	56.4764	15455.6	45.5269	15455.6	49.3545	15455.6	59.1926
16000.5	95.9979	16000.5	94.663	16000.5	94.2211	16000.5	92.06	16000.5	91.0325	16000.5	88.7778	16000.5	87.3953	16000.5	86.7885	16000.5	87.1423	16000.5	83.7157	16000.5	83.4582	16000.5	81.9278	16000.5	82.4104	16000.5	79.2635	16000.5	78.7506	16000.5	72.8186	16000.5	72.1212	16000.5	68.4942	16000.5	67.8507	16000.5	57.2568	16000.5	59.5895	16000.5	44.4497	16000.5	51.8525	16000.5	44.2732	16000.5	39.8526	16000.5	53.5212	16000.5	46.9372	16000.5	43.0998	16000.5	45.4884	16000.5	47.1278	16000.5	54.5133	16000.5	52.0549	16000.5	51.2561	16000.5	42.9077	16000.5	43.7917	16000.5	49.3006
16564.5	94.9775	16564.5	93.6326	16564.5	93.1731	16564.5	91.9381	16564.5	90.6985	16564.5	90.142	16564.5	89.2223	16564.5	88.1889	16564.5	89.7347	16564.5	85.2997	16564.5	87.0332	16564.5	83.1814	16564.5	82.4248	16564.5	78.914	16564.5	81.1641	16564.5	75.2514	16564.5	73.0777	16564.5	67.3624	16564.5	68.016	16564.5	55.9915	16564.5	53.0736	16564.5	35.7695	16564.5	33.9698	16564.5	47.5962	16564.5	43.7886	16564.5	54.0489	16564.5	47.2826	16564.5	49.4665	16564.5	39.4594	16564.5	55.5285	16564.5	54.7641	16564.5	51.175	16564.5	56.3076	16564.5	48.2886	16564.5	47.6961	16564.5	39.2786
17148.9	93.1509	17148.9	91.4729	17148.9	91.3732	17148.9	91.2822	17148.9	91.2922	17148.9	89.6905	17148.9	90.8917	17148.9	88.2474	17148.9	89.4228	17148.9	85.6047	17148.9	87.9268	17148.9	82.2289	17148.9	81.8313	17148.9	78.3919	17148.9	80.5816	17148.9	74.7287	17148.9	76.496	17148.9	69.6819	17148.9	69.6811	17148.9	58.867	17148.9	51.5812	17148.9	51.3323	17148.9	44.579	17148.9	53.2329	17148.9	41.4462	17148.9	56.0569	17148.9	57.599	17148.9	50.4541	17148.9	53.2978	17148.9	54.5925	17148.9	56.1553	17148.9	53.2069	17148.9	61.7069	17148.9	54.0312	17148.9	50.5527	17148.9	59.2607
17752.4	90.5828	17752.4	88.9884	17752.4	89.3882	17752.4	90.3976	17752.4	90.755	17752.4	89.7675	17752.4	91.173	17752.4	88.4369	17752.4	88.8035	17752.4	85.0307	17752.4	87.3985	17752.4	80.993	17752.4	81.7354	17752.4	78.24	17752.4	78.953	17752.4	71.783	17752.4	74.8792	17752.4	67.0996	17752.4	62.1967	17752.4	56.7181	17752.4	53.7718	17752.4	51.1795	17752.4	52.7085	17752.4	52.0853	17752.4	44.0561	17752.4	55.6903	17752.4	56.192	17752.4	50.9828	17752.4	52.7286	17752.4	54.5489	17752.4	55.8731	17752.4	49.9065	17752.4	59.3978	17752.4	55.0821	17752.4	55.4137	17752.4	59.9369
18379.4	86.997	18379.4	87.8637	18379.4	87.999	18379.4	89.3161	18379.4	89.6553	18379.4	88.4156	18379.4	90.2186	18379.4	87.9476	18379.4	88.0362	18379.4	83.8338	18379.4	85.369	18379.4	79.3231	18379.4	80.0216	18379.4	76.1466	18379.4	75.4902	18379.4	71.1466	18379.4	72.688	18379.4	64.2687	18379.4	59.6463	18379.4	53.1008	18379.4	51.3738	18379.4	48.0974	18379.4	46.2243	18379.4	52.4698	18379.4	43.699	18379.4	53.4993	18379.4	47.2298	18379.4	50.0199	18379.4	42.2896	18379.4	49.7973	18379.4	46.6898	18379.4	47.0576	18379.4	52.9687	18379.4	49.4995	18379.4	48.9081	18379.4	56.5793
19026.9	82.2815	19026.9	86.0931	19026.9	86.4246	19026.9	88.3062	19026.9	88.9262	19026.9	88.3166	19026.9	88.7566	19026.9	87.754	19026.9	87.8498	19026.9	83.1278	19026.9	82.1292	19026.9	78.4489	19026.9	78.973	19026.9	75.3692	19026.9	72.1789	19026.9	70.3987	19026.9	70.2144	19026.9	65.389	19026.9	61.1319	19026.9	51.5663	19026.9	52.9581	19026.9	39.5162	19026.9	28.9794	19026.9	48.4767	19026.9	42.5468	19026.9	51.2878	19026.9	44.9027	19026.9	49.5449	19026.9	52.6374	19026.9	42.6418	19026.9	45.2956	19026.9	54.008	19026.9	45.062	19026.9	44.8661	19026.9	39.3488	19026.9	56.3582
19697.8	82.6901	19697.8	84.7248	19697.8	85.9666	19697.8	87.4206	19697.8	87.267	19697.8	87.401	19697.8	87.094	19697.8	86.9542	19697.8	85.9929	19697.8	82.1867	19697.8	79.0045	19697.8	77.3514	19697.8	75.95	19697.8	74.124	19697.8	70.5784	19697.8	68.5293	19697.8	66.624	19697.8	63.4829	19697.8	60.6858	19697.8	48.577	19697.8	43.2483	19697.8	41.204	19697.8	35.3969	19697.8	46.4026	19697.8	43.6644	19697.8	50.6643	19697.8	45.9218	19697.8	47.8926	19697.8	43.6631	19697.8	50.4595	19697.8	39.4002	19697.8	48.1043	19697.8	38.5611	19697.8	48.3845	19697.8	42.7824	19697.8	53.9907
19999.5	81.2999	19999.5	83.1621	19999.5	85.8588	19999.5	86.0881	19999.5	86.1143	19999.5	87.1397	19999.5	86.438	19999.5	86.4441	19999.5	85.0541	19999.5	82.1049	19999.5	79.1525	19999.5	76.9899	19999.5	73.6202	19999.5	72.9631	19999.5	69.2761	19999.5	69.7896	19999.5	68.6847	19999.5	64.7508	19999.5	53.4667	19999.5	48.1516	19999.5	51.0876	19999.5	35.158	19999.5	48.5034	19999.5	38.9486	19999.5	29.745	19999.5	50.0611	19999.5	41.5712	19999.5	38.1808	19999.5	46.4816	19999.5	42.993	19999.5	44.8669	19999.5	37.5542	19999.5	48.0785	19999.5	45.4962	19999.5	47.4295	19999.5	50.8763
