"SPL Vertical"
"On-Axis"		"10°"		"-10°"		"20°"		"-20°"		"30°"		"-30°"		"40°"		"-40°"		"50°"		"-50°"		"60°"		"-60°"		"70°"		"-70°"		"80°"		"-80°"		"90°"		"-90°"		"100°"		"-100°"		"110°"		"-110°"		"120°"		"-120°"		"130°"		"-130°"		"140°"		"-140°"		"150°"		"-150°"		"160°"		"-160°"		"170°"		"-170°"		"180°"
"Frequency / Hz"	"Sound Pressure Level / dB (re 20 µPa/V)  [2.83V at 1m]"	"Frequency / Hz"	"Sound Pressure Level / dB (re 20 µPa/V)  [2.83V at 1m]"	"Frequency / Hz"	"Sound Pressure Level / dB (re 20 µPa/V)  [2.83V at 1m]"	"Frequency / Hz"	"Sound Pressure Level / dB (re 20 µPa/V)  [2.83V at 1m]"	"Frequency / Hz"	"Sound Pressure Level / dB (re 20 µPa/V)  [2.83V at 1m]"	"Frequency / Hz"	"Sound Pressure Level / dB (re 20 µPa/V)  [2.83V at 1m]"	"Frequency / Hz"	"Sound Pressure Level / dB (re 20 µPa/V)  [2.83V at 1m]"	"Frequency / Hz"	"Sound Pressure Level / dB (re 20 µPa/V)  [2.83V at 1m]"	"Frequency / Hz"	"Sound Pressure Level / dB (re 20 µPa/V)  [2.83V at 1m]"	"Frequency / Hz"	"Sound Pressure Level / dB (re 20 µPa/V)  [2.83V at 1m]"	"Frequency / Hz"	"Sound Pressure Level / dB (re 20 µPa/V)  [2.83V at 1m]"	"Frequency / Hz"	"Sound Pressure Level / dB (re 20 µPa/V)  [2.83V at 1m]"	"Frequency / Hz"	"Sound Pressure Level / dB (re 20 µPa/V)  [2.83V at 1m]"	"Frequency / Hz"	"Sound Pressure Level / dB (re 20 µPa/V)  [2.83V at 1m]"	"Frequency / Hz"	"Sound Pressure Level / dB (re 20 µPa/V)  [2.83V at 1m]"	"Frequency / Hz"	"Sound Pressure Level / dB (re 20 µPa/V)  [2.83V at 1m]"	"Frequency / Hz"	"Sound Pressure Level / dB (re 20 µPa/V)  [2.83V at 1m]"	"Frequency / Hz"	"Sound Pressure Level / dB (re 20 µPa/V)  [2.83V at 1m]"	"Frequency / Hz"	"Sound Pressure Level / dB (re 20 µPa/V)  [2.83V at 1m]"	"Frequency / Hz"	"Sound Pressure Level / dB (re 20 µPa/V)  [2.83V at 1m]"	"Frequency / Hz"	"Sound Pressure Level / dB (re 20 µPa/V)  [2.83V at 1m]"	"Frequency / Hz"	"Sound Pressure Level / dB (re 20 µPa/V)  [2.83V at 1m]"	"Frequency / Hz"	"Sound Pressure Level / dB (re 20 µPa/V)  [2.83V at 1m]"	"Frequency / Hz"	"Sound Pressure Level / dB (re 20 µPa/V)  [2.83V at 1m]"	"Frequency / Hz"	"Sound Pressure Level / dB (re 20 µPa/V)  [2.83V at 1m]"	"Frequency / Hz"	"Sound Pressure Level / dB (re 20 µPa/V)  [2.83V at 1m]"	"Frequency / Hz"	"Sound Pressure Level / dB (re 20 µPa/V)  [2.83V at 1m]"	"Frequency / Hz"	"Sound Pressure Level / dB (re 20 µPa/V)  [2.83V at 1m]"	"Frequency / Hz"	"Sound Pressure Level / dB (re 20 µPa/V)  [2.83V at 1m]"	"Frequency / Hz"	"Sound Pressure Level / dB (re 20 µPa/V)  [2.83V at 1m]"	"Frequency / Hz"	"Sound Pressure Level / dB (re 20 µPa/V)  [2.83V at 1m]"	"Frequency / Hz"	"Sound Pressure Level / dB (re 20 µPa/V)  [2.83V at 1m]"	"Frequency / Hz"	"Sound Pressure Level / dB (re 20 µPa/V)  [2.83V at 1m]"	"Frequency / Hz"	"Sound Pressure Level / dB (re 20 µPa/V)  [2.83V at 1m]"	"Frequency / Hz"	"Sound Pressure Level / dB (re 20 µPa/V)  [2.83V at 1m]"	"Frequency / Hz"	"Sound Pressure Level / dB (re 20 µPa/V)  [2.83V at 1m]"
20.5078	56.1459	20.5078	55.9041	20.5078	56.0838	20.5078	55.3549	20.5078	55.6925	20.5078	54.4644	20.5078	54.911	20.5078	53.1584	20.5078	53.6232	20.5078	51.3019	20.5078	51.6191	20.5078	48.6907	20.5078	48.5711	20.5078	45.4106	20.5078	45.0207	20.5078	44.4732	20.5078	46.7022	20.5078	48.0478	20.5078	51.3529	20.5078	51.782	20.5078	54.9573	20.5078	54.6962	20.5078	57.607	20.5078	56.9735	20.5078	59.5908	20.5078	58.7886	20.5078	61.0767	20.5078	60.2463	20.5078	62.1596	20.5078	61.4059	20.5078	62.8957	20.5078	62.2988	20.5078	63.3205	20.5078	62.9386	20.5078	63.4586	20.5078	63.3273
21.9727	58.1405	21.9727	57.9631	21.9727	58.0601	21.9727	57.5303	21.9727	57.7003	21.9727	56.8259	21.9727	57.016	21.9727	55.8131	21.9727	55.9301	21.9727	54.4326	21.9727	54.3222	21.9727	52.619	21.9727	52.0563	21.9727	50.4339	21.9727	49.4031	21.9727	48.6984	21.9727	48.8608	21.9727	49.3572	21.9727	51.8544	21.9727	51.9842	21.9727	55.1959	21.9727	54.7278	21.9727	57.8516	21.9727	57.0463	21.9727	59.8752	21.9727	58.9347	21.9727	61.3951	21.9727	60.4588	21.9727	62.501	21.9727	61.6707	21.9727	63.2503	21.9727	62.6023	21.9727	63.6802	21.9727	63.2692	21.9727	63.8161	21.9727	63.6753
23.4375	59.4491	23.4375	59.2663	23.4375	59.3755	23.4375	58.8289	23.4375	59.0251	23.4375	58.1197	23.4375	58.3547	23.4375	57.1	23.4375	57.2903	23.4375	55.7063	23.4375	55.7178	23.4375	53.8596	23.4375	53.5094	23.4375	51.5802	23.4375	50.9047	23.4375	49.6243	23.4375	50.1879	23.4375	50.1368	23.4375	52.9814	23.4375	52.8447	23.4375	56.2812	23.4375	55.6786	23.4375	58.9341	23.4375	58.0506	23.4375	60.9588	23.4375	59.9689	23.4375	62.4786	23.4375	61.5099	23.4375	63.5831	23.4375	62.7315	23.4375	64.3302	23.4375	63.6688	23.4375	64.7576	23.4375	64.3393	23.4375	64.8911	23.4375	64.748
24.9023	61.6458	24.9023	61.498	24.9023	61.5797	24.9023	61.1396	24.9023	61.285	24.9023	60.5638	24.9023	60.735	24.9023	59.7533	24.9023	59.8913	24.9023	58.6845	24.9023	58.7118	24.9023	57.3425	24.9023	57.196	24.9023	55.7845	24.9023	55.575	24.9023	54.3361	24.9023	54.7436	24.9023	53.8394	24.9023	55.7407	24.9023	54.9145	24.9023	57.9005	24.9023	56.8975	24.9023	60.1032	24.9023	58.9566	24.9023	61.953	24.9023	60.7749	24.9023	63.3997	24.9023	62.2932	24.9023	64.4703	24.9023	63.5197	24.9023	65.199	24.9023	64.4707	24.9023	65.6137	24.9023	65.1566	24.9023	65.7354	24.9023	65.5796
26.3672	61.4729	26.3672	61.3327	26.3672	61.3963	26.3672	60.9837	26.3672	61.0908	26.3672	60.4326	26.3672	60.5439	26.3672	59.6932	26.3672	59.7582	26.3672	58.8096	26.3672	58.7997	26.3672	57.9068	26.3672	57.9149	26.3672	57.2635	26.3672	57.6449	26.3672	57.2754	26.3672	58.4666	26.3672	58.1227	26.3672	60.1217	26.3672	59.5462	26.3672	61.9963	26.3672	61.157	26.3672	63.7256	26.3672	62.7126	26.3672	65.1848	26.3672	64.1107	26.3672	66.3488	26.3672	65.3172	26.3672	67.2232	26.3672	66.3226	26.3672	67.8209	26.3672	67.1232	26.3672	68.156	26.3672	67.7149	26.3672	68.2417	26.3672	68.0909
27.832	63.4519	27.832	63.354	27.832	63.3906	27.832	63.1059	27.832	63.167	27.832	62.7232	27.832	62.7891	27.832	62.2351	27.832	62.2924	27.832	61.6981	27.832	61.771	27.832	61.2151	27.832	61.4157	27.832	60.9445	27.832	61.4917	27.832	61.0579	27.832	62.163	27.832	61.6334	27.832	63.3195	27.832	62.5899	27.832	64.6868	27.832	63.7541	27.832	66.0329	27.832	64.9665	27.832	67.2282	27.832	66.1226	27.832	68.2149	27.832	67.1639	27.832	68.9713	27.832	68.0586	27.832	69.4924	27.832	68.7874	27.832	69.7811	27.832	69.3362	27.832	69.8446	27.832	69.6925
29.2969	65.3555	29.2969	65.2703	29.2969	65.319	29.2969	65.0707	29.2969	65.1619	29.2969	64.7728	29.2969	64.8985	29.2969	64.4053	29.2969	64.5678	29.2969	64.0172	29.2969	64.2498	29.2969	63.6866	29.2969	64.0777	29.2969	63.5198	29.2969	64.2115	29.2969	63.6251	29.2969	64.7478	29.2969	64.0599	29.2969	65.6383	29.2969	64.7925	29.2969	66.724	29.2969	65.7228	29.2969	67.8378	29.2969	66.7358	29.2969	68.8616	29.2969	67.7388	29.2969	69.7276	29.2969	68.6688	29.2969	70.4014	29.2969	69.4856	29.2969	70.8681	29.2969	70.1621	29.2969	71.1239	29.2969	70.6788	29.2969	71.1719	29.2969	71.0199
30.7617	67.3261	30.7617	67.2467	30.7617	67.3155	30.7617	67.0835	30.7617	67.218	30.7617	66.851	30.7617	67.0493	30.7617	66.5749	30.7617	66.8442	30.7617	66.2957	30.7617	66.6648	30.7617	66.0716	30.7617	66.6024	30.7617	65.9755	30.7617	66.7574	30.7617	66.0786	30.7617	67.1925	30.7617	66.4224	30.7617	67.8891	30.7617	66.9966	30.7617	68.7543	30.7617	67.7436	30.7617	69.671	30.7617	68.5843	30.7617	70.5396	30.7617	69.4437	30.7617	71.2917	30.7617	70.2621	30.7617	71.8862	30.7617	70.9963	30.7617	72.3008	30.7617	71.6146	30.7617	72.5263	30.7617	72.0935	30.7617	72.562	30.7617	72.4142
32.2266	69.1985	32.2266	69.1269	32.2266	69.2002	32.2266	68.9904	32.2266	69.1356	32.2266	68.8022	32.2266	69.0192	32.2266	68.5843	32.2266	68.8812	32.2266	68.3702	32.2266	68.7714	32.2266	68.2056	32.2266	68.7585	32.2266	68.1447	32.2266	68.9155	32.2266	68.2402	32.2266	69.2894	32.2266	68.5252	32.2266	69.8726	32.2266	68.9986	32.2266	70.6026	32.2266	69.6241	32.2266	71.3905	32.2266	70.3443	32.2266	72.1518	32.2266	71.0977	32.2266	72.8217	32.2266	71.8302	32.2266	73.3571	32.2266	72.4984	32.2266	73.7322	32.2266	73.069	32.2266	73.9347	32.2266	73.516	32.2266	73.962	32.2266	73.8188
33.6914	70.8867	33.6914	70.8198	33.6914	70.9008	33.6914	70.7045	33.6914	70.866	33.6914	70.552	33.6914	70.7959	33.6914	70.3816	33.6914	70.7162	33.6914	70.2212	33.6914	70.6675	33.6914	70.1071	33.6914	70.7022	33.6914	70.0811	33.6914	70.8736	33.6914	70.1826	33.6914	71.2157	33.6914	70.437	33.6914	71.7244	33.6914	70.8462	33.6914	72.3552	33.6914	71.386	33.6914	73.0401	33.6914	72.014	33.6914	73.7093	33.6914	72.6806	33.6914	74.3043	33.6914	73.3386	33.6914	74.7832	33.6914	73.9473	33.6914	75.1193	33.6914	74.4734	33.6914	75.2982	33.6914	74.8902	33.6914	75.3159	33.6914	75.1764
35.1562	72.5315	35.1562	72.4681	35.1562	72.5559	35.1562	72.3692	35.1562	72.545	35.1562	72.2445	35.1562	72.5107	35.1562	72.1104	35.1562	72.475	35.1562	71.9901	35.1562	72.4705	35.1562	71.9126	35.1562	72.5376	35.1562	71.9105	35.1562	72.7163	35.1562	72.0142	35.1562	73.0319	35.1562	72.2439	35.1562	73.482	35.1562	72.6026	35.1562	74.0339	35.1562	73.074	35.1562	74.6345	35.1562	73.6263	35.1562	75.2255	35.1562	74.2194	35.1562	75.7551	35.1562	74.8125	35.1562	76.1836	35.1562	75.368	35.1562	76.4839	35.1562	75.8537	35.1562	76.641	35.1562	76.2427	35.1562	76.6497	35.1562	76.5135
36.6211	74.0586	36.6211	73.9972	36.6211	74.0918	36.6211	73.9104	36.6211	74.0999	36.6211	73.8064	36.6211	74.0935	36.6211	73.6993	36.6211	74.0909	36.6211	73.6083	36.6211	74.1186	36.6211	73.5571	36.6211	74.2083	36.6211	73.5717	36.6211	74.3906	36.6211	73.6761	36.6211	74.6849	36.6211	73.8868	36.6211	75.0895	36.6211	74.2071	36.6211	75.5793	36.6211	74.6257	36.6211	76.1119	36.6211	75.1179	36.6211	76.6381	36.6211	75.651	36.6211	77.112	36.6211	76.1895	36.6211	77.4964	36.6211	76.6992	36.6211	77.7651	36.6211	77.1493	36.6211	77.9027	36.6211	77.5135	36.6211	77.9035	36.6211	77.7703
38.0859	75.6717	38.0859	75.6137	38.0859	75.7095	38.0859	75.5378	38.0859	75.7301	38.0859	75.4509	38.0859	75.7419	38.0859	75.3644	38.0859	75.7598	38.0859	75.2937	38.0859	75.8048	38.0859	75.2577	38.0859	75.9014	38.0859	75.277	38.0859	76.0735	38.0859	75.3708	38.0859	76.3362	38.0859	75.553	38.0859	76.6894	38.0859	75.828	38.0859	77.1146	38.0859	76.1887	38.0859	77.5783	38.0859	76.6171	38.0859	78.0394	38.0859	77.0869	38.0859	78.4573	38.0859	77.5678	38.0859	78.7977	38.0859	78.0287	38.0859	79.0349	38.0859	78.4406	38.0859	79.1534	38.0859	78.7776	38.0859	79.1472	38.0859	79.0186
39.5508	76.9554	39.5508	76.8973	39.5508	77	39.5508	76.8277	39.5508	77.0338	39.5508	76.7526	39.5508	77.0641	39.5508	76.6817	39.5508	77.1035	39.5508	76.6282	39.5508	77.1692	39.5508	76.6081	39.5508	77.2811	39.5508	76.6382	39.5508	77.4578	39.5508	76.7346	39.5508	77.7109	39.5508	76.9085	39.5508	78.0396	39.5508	77.1639	39.5508	78.4285	39.5508	77.4953	39.5508	78.8491	39.5508	77.8879	39.5508	79.2664	39.5508	78.3195	39.5508	79.6442	39.5508	78.7635	39.5508	79.9511	39.5508	79.1917	39.5508	80.1634	39.5508	79.5773	39.5508	80.2658	39.5508	79.8956	39.5508	80.2525	39.5508	80.1259
41.0156	78.2732	41.0156	78.2161	41.0156	78.3229	41.0156	78.1534	41.0156	78.3675	41.0156	78.0898	41.0156	78.413	41.0156	78.0337	41.0156	78.4695	41.0156	77.9957	41.0156	78.5507	41.0156	77.9887	41.0156	78.672	41.0156	78.0265	41.0156	78.8475	41.0156	78.1217	41.0156	79.086	41.0156	78.2837	41.0156	79.3864	41.0156	78.5159	41.0156	79.7361	41.0156	78.8144	41.0156	80.1118	41.0156	79.1677	41.0156	80.4836	41.0156	79.5575	41.0156	80.82	41.0156	79.9609	41.0156	81.0927	41.0156	80.3531	41.0156	81.2795	41.0156	80.7091	41.0156	81.3661	41.0156	81.0059	41.0156	81.3467	41.0156	81.2235
42.4805	79.4583	42.4805	79.4013	42.4805	79.5125	42.4805	79.3427	42.4805	79.5653	42.4805	79.2868	42.4805	79.6217	42.4805	79.2404	42.4805	79.69	42.4805	79.2124	42.4805	79.7809	42.4805	79.2136	42.4805	79.9067	42.4805	79.2551	42.4805	80.0783	42.4805	79.3475	42.4805	80.3026	42.4805	79.4984	42.4805	80.5784	42.4805	79.7111	42.4805	80.8952	42.4805	79.9827	42.4805	81.2334	42.4805	80.3039	42.4805	81.5673	42.4805	80.6593	42.4805	81.8691	42.4805	81.0292	42.4805	82.113	42.4805	81.3911	42.4805	82.2784	42.4805	81.7222	42.4805	82.3516	42.4805	82.0005	42.4805	82.3271	42.4805	82.2071
43.9453	80.5104	43.9453	80.4545	43.9453	80.5678	43.9453	80.4013	43.9453	80.6279	43.9453	80.3542	43.9453	80.6947	43.9453	80.3187	43.9453	80.7746	43.9453	80.3023	43.9453	80.8759	43.9453	80.3133	43.9453	81.0081	43.9453	80.3608	43.9453	81.1793	43.9453	80.4532	43.9453	81.3942	43.9453	80.5967	43.9453	81.6514	43.9453	80.794	43.9453	81.9417	43.9453	81.0429	43.9453	82.2484	43.9453	81.3361	43.9453	82.5493	43.9453	81.6606	43.9453	82.8199	43.9453	81.9995	43.9453	83.0372	43.9453	82.333	43.9453	83.1824	43.9453	82.6401	43.9453	83.2428	43.9453	82.9006	43.9453	83.2134	43.9453	83.0964
45.4102	81.455	45.4102	81.3984	45.4102	81.516	45.4102	81.3473	45.4102	81.5824	45.4102	81.3046	45.4102	81.6571	45.4102	81.2748	45.4102	81.7448	45.4102	81.2637	45.4102	81.8519	45.4102	81.2783	45.4102	81.9852	45.4102	81.3257	45.4102	82.1509	45.4102	81.4127	45.4102	82.352	45.4102	81.5445	45.4102	82.5871	45.4102	81.7235	45.4102	82.8482	45.4102	81.9482	45.4102	83.1215	45.4102	82.2127	45.4102	83.3878	45.4102	82.5065	45.4102	83.6258	45.4102	82.815	45.4102	83.8151	45.4102	83.1208	45.4102	83.9387	45.4102	83.4048	45.4102	83.985	45.4102	83.6484	45.4102	83.9495	45.4102	83.8344
46.875	82.7706	46.875	82.72	46.875	82.8271	46.875	82.6762	46.875	82.8905	46.875	82.642	46.875	82.9636	46.875	82.6217	46.875	83.0508	46.875	82.6208	46.875	83.1579	46.875	82.646	46.875	83.291	46.875	82.7038	46.875	83.4553	46.875	82.8004	46.875	83.653	46.875	82.9401	46.875	83.8822	46.875	83.1245	46.875	84.1356	46.875	83.3512	46.875	84.4001	46.875	83.6137	46.875	84.6585	46.875	83.9011	46.875	84.8915	46.875	84.1988	46.875	85.08	46.875	84.4898	46.875	85.2081	46.875	84.7561	46.875	85.2644	46.875	84.9802	46.875	85.2436	46.875	85.1466
48.3398	83.4667	48.3398	83.4145	48.3398	83.5261	48.3398	83.3702	48.3398	83.5931	48.3398	83.3362	48.3398	83.6699	48.3398	83.316	48.3398	83.7597	48.3398	83.3142	48.3398	83.8667	48.3398	83.3361	48.3398	83.9954	48.3398	83.3871	48.3398	84.1496	48.3398	83.4726	48.3398	84.3307	48.3398	83.5963	48.3398	84.537	48.3398	83.7599	48.3398	84.7623	48.3398	83.9618	48.3398	84.9955	48.3398	84.197	48.3398	85.2221	48.3398	84.4563	48.3398	85.425	48.3398	84.7272	48.3398	85.5875	48.3398	84.9946	48.3398	85.6949	48.3398	85.2418	48.3398	85.7371	48.3398	85.4525	48.3398	85.7091	48.3398	85.612
51.2695	84.4694	51.2695	84.4152	51.2695	84.5324	51.2695	84.3705	51.2695	84.6043	51.2695	84.337	51.2695	84.686	51.2695	84.3172	51.2695	84.7791	51.2695	84.3141	51.2695	84.8857	51.2695	84.3314	51.2695	85.0081	51.2695	84.3731	51.2695	85.1479	51.2695	84.4427	51.2695	85.3054	51.2695	84.5435	51.2695	85.4788	51.2695	84.6769	51.2695	85.6631	51.2695	84.8423	51.2695	85.8501	51.2695	85.0366	51.2695	86.0287	51.2695	85.2533	51.2695	86.1857	51.2695	85.4827	51.2695	86.3076	51.2695	85.7127	51.2695	86.3827	51.2695	85.9294	51.2695	86.4025	51.2695	86.1183	51.2695	86.3633	51.2695	86.2665
52.7344	84.8461	52.7344	84.7903	52.7344	84.9116	52.7344	84.7448	52.7344	84.9864	52.7344	84.7113	52.7344	85.0709	52.7344	84.6916	52.7344	85.1661	52.7344	84.6883	52.7344	85.2731	52.7344	84.7045	52.7344	85.3932	52.7344	84.7432	52.7344	85.5272	52.7344	84.8075	52.7344	85.675	52.7344	84.9	52.7344	85.8347	52.7344	85.0221	52.7344	86.0018	52.7344	85.1733	52.7344	86.1693	52.7344	85.3512	52.7344	86.3273	52.7344	85.5501	52.7344	86.4645	52.7344	85.7619	52.7344	86.569	52.7344	85.9756	52.7344	86.63	52.7344	86.1785	52.7344	86.6403	52.7344	86.3575	52.7344	86.5965	52.7344	86.5001
54.1992	85.1384	54.1992	85.0823	54.1992	85.2052	54.1992	85.0377	54.1992	85.2822	54.1992	85.0057	54.1992	85.3695	54.1992	84.9881	54.1992	85.4672	54.1992	84.9867	54.1992	85.5758	54.1992	85.004	54.1992	85.6958	54.1992	85.0422	54.1992	85.8272	54.1992	85.1039	54.1992	85.9692	54.1992	85.1911	54.1992	86.1198	54.1992	85.3049	54.1992	86.2748	54.1992	85.4452	54.1992	86.4277	54.1992	85.6096	54.1992	86.5699	54.1992	85.7938	54.1992	86.6913	54.1992	85.9904	54.1992	86.7813	54.1992	86.19	54.1992	86.8306	54.1992	86.3809	54.1992	86.8327	54.1992	86.5511	54.1992	86.7848	54.1992	86.6889
55.6641	85.401	55.6641	85.3447	55.6641	85.4687	55.6641	85.3007	55.6641	85.5474	55.6641	85.2699	55.6641	85.6366	55.6641	85.2536	55.6641	85.7359	55.6641	85.2532	55.6641	85.8451	55.6641	85.2704	55.6641	85.9639	55.6641	85.3069	55.6641	86.0915	55.6641	85.3647	55.6641	86.2267	55.6641	85.4452	55.6641	86.367	55.6641	85.5495	55.6641	86.5086	55.6641	85.6774	55.6641	86.6458	55.6641	85.8274	55.6641	86.7709	55.6641	85.9956	55.6641	86.8753	55.6641	86.1761	55.6641	86.9497	55.6641	86.3606	55.6641	86.9864	55.6641	86.5387	55.6641	86.9796	55.6641	86.6994	55.6641	86.9274	55.6641	86.832
58.5938	85.87	58.5938	85.8093	58.5938	85.9429	58.5938	85.7617	58.5938	86.027	58.5938	85.7278	58.5938	86.1211	58.5938	85.7085	58.5938	86.2238	58.5938	85.7043	58.5938	86.3335	58.5938	85.7159	58.5938	86.4486	58.5938	85.7443	58.5938	86.5671	58.5938	85.7904	58.5938	86.6868	58.5938	85.855	58.5938	86.805	58.5938	85.9389	58.5938	86.9182	58.5938	86.0423	58.5938	87.0221	58.5938	86.1645	58.5938	87.1113	58.5938	86.3031	58.5938	87.1795	58.5938	86.4541	58.5938	87.2205	58.5938	86.6116	58.5938	87.2288	58.5938	86.7676	58.5938	87.2012	58.5938	86.9131	58.5938	87.1369	58.5938	87.039
60.0586	86.0788	60.0586	86.0125	60.0586	86.1574	60.0586	85.9595	60.0586	86.247	60.0586	85.9207	60.0586	86.3459	60.0586	85.8965	60.0586	86.4524	60.0586	85.8875	60.0586	86.5641	60.0586	85.894	60.0586	86.6788	60.0586	85.9167	60.0586	86.794	60.0586	85.956	60.0586	86.9071	60.0586	86.0129	60.0586	87.0153	60.0586	86.0877	60.0586	87.1152	60.0586	86.1809	60.0586	87.203	60.0586	86.292	60.0586	87.2743	60.0586	86.4192	60.0586	87.324	60.0586	86.5594	60.0586	87.3473	60.0586	86.7074	60.0586	87.3399	60.0586	86.8564	60.0586	87.2996	60.0586	86.9982	60.0586	87.2266	60.0586	87.1242
62.9883	86.4895	62.9883	86.4193	62.9883	86.5709	62.9883	86.3617	62.9883	86.6619	62.9883	86.3176	62.9883	86.76	62.9883	86.2873	62.9883	86.8627	62.9883	86.271	62.9883	86.967	62.9883	86.2688	62.9883	87.0697	62.9883	86.2805	62.9883	87.1677	62.9883	86.3062	62.9883	87.2583	62.9883	86.3462	62.9883	87.3388	62.9883	86.4006	62.9883	87.4066	62.9883	86.4698	62.9883	87.4594	62.9883	86.5537	62.9883	87.4947	62.9883	86.6515	62.9883	87.51	62.9883	86.7615	62.9883	87.503	62.9883	86.8806	62.9883	87.472	62.9883	87.0039	62.9883	87.4164	62.9883	87.1255	62.9883	87.3376	62.9883	87.2389
64.4531	86.5996	64.4531	86.5366	64.4531	86.6727	64.4531	86.4849	64.4531	86.754	64.4531	86.4451	64.4531	86.8414	64.4531	86.4175	64.4531	86.9319	64.4531	86.4021	64.4531	87.0228	64.4531	86.3985	64.4531	87.1109	64.4531	86.4064	64.4531	87.1931	64.4531	86.4256	64.4531	87.267	64.4531	86.456	64.4531	87.33	64.4531	86.4977	64.4531	87.3804	64.4531	86.5511	64.4531	87.4165	64.4531	86.6162	64.4531	87.4369	64.4531	86.693	64.4531	87.4399	64.4531	86.7805	64.4531	87.4245	64.4531	86.8765	64.4531	87.3896	64.4531	86.9778	64.4531	87.3354	64.4531	87.0796	64.4531	87.2633	64.4531	87.1765
67.3828	87.0471	67.3828	86.9921	67.3828	87.1127	67.3828	86.9488	67.3828	87.1873	67.3828	86.9173	67.3828	87.2686	67.3828	86.8974	67.3828	87.3538	67.3828	86.8883	67.3828	87.4394	67.3828	86.889	67.3828	87.5219	67.3828	86.8984	67.3828	87.5979	67.3828	86.9157	67.3828	87.6641	67.3828	86.9403	67.3828	87.718	67.3828	86.972	67.3828	87.7574	67.3828	87.0111	67.3828	87.7811	67.3828	87.0582	67.3828	87.788	67.3828	87.1139	67.3828	87.778	67.3828	87.1785	67.3828	87.7509	67.3828	87.2516	67.3828	87.7076	67.3828	87.3315	67.3828	87.6493	67.3828	87.4154	67.3828	87.5787	67.3828	87.4993
68.8477	87.231	68.8477	87.1728	68.8477	87.3006	68.8477	87.127	68.8477	87.3797	68.8477	87.0938	68.8477	87.4658	68.8477	87.0728	68.8477	87.5556	68.8477	87.0631	68.8477	87.6455	68.8477	87.0634	68.8477	87.7315	68.8477	87.0726	68.8477	87.8096	68.8477	87.0893	68.8477	87.8764	68.8477	87.1129	68.8477	87.9288	68.8477	87.1429	68.8477	87.9647	68.8477	87.1795	68.8477	87.9827	68.8477	87.2233	68.8477	87.9822	68.8477	87.2751	68.8477	87.9635	68.8477	87.3358	68.8477	87.9272	68.8477	87.4052	68.8477	87.8751	68.8477	87.4824	68.8477	87.8092	68.8477	87.5652	68.8477	87.7329	68.8477	87.6501
71.7773	87.6054	71.7773	87.5429	71.7773	87.6793	71.7773	87.4929	71.7773	87.7624	71.7773	87.4557	71.7773	87.8518	71.7773	87.4309	71.7773	87.9438	71.7773	87.4173	71.7773	88.0342	71.7773	87.4136	71.7773	88.1185	71.7773	87.418	71.7773	88.1922	71.7773	87.4291	71.7773	88.2515	71.7773	87.4455	71.7773	88.2931	71.7773	87.4668	71.7773	88.3149	71.7773	87.4927	71.7773	88.3158	71.7773	87.5242	71.7773	88.2962	71.7773	87.5624	71.7773	88.2574	71.7773	87.6088	71.7773	88.2019	71.7773	87.6645	71.7773	88.1329	71.7773	87.73	71.7773	88.0542	71.7773	87.8044	71.7773	87.9703	71.7773	87.8857
74.707	87.94	74.707	87.8766	74.707	88.0145	74.707	87.8255	74.707	88.0978	74.707	87.7873	74.707	88.1867	74.707	87.7612	74.707	88.2772	74.707	87.7463	74.707	88.3648	74.707	87.7406	74.707	88.4448	74.707	87.7424	74.707	88.5124	74.707	87.7496	74.707	88.5635	74.707	87.7607	74.707	88.5946	74.707	87.7748	74.707	88.6039	74.707	87.7915	74.707	88.5905	74.707	87.8116	74.707	88.5556	74.707	87.8366	74.707	88.5016	74.707	87.8686	74.707	88.4321	74.707	87.9096	74.707	88.3519	74.707	87.9613	74.707	88.2661	74.707	88.0244	74.707	88.1799	74.707	88.0981
77.6367	88.6285	77.6367	88.5761	77.6367	88.6937	77.6367	88.5374	77.6367	88.7694	77.6367	88.5126	77.6367	88.8522	77.6367	88.5004	77.6367	88.938	77.6367	88.4991	77.6367	89.022	77.6367	88.5061	77.6367	89.099	77.6367	88.5187	77.6367	89.1641	77.6367	88.5342	77.6367	89.213	77.6367	88.5505	77.6367	89.2423	77.6367	88.566	77.6367	89.25	77.6367	88.5803	77.6367	89.2359	77.6367	88.5942	77.6367	89.2015	77.6367	88.6094	77.6367	89.1496	77.6367	88.6285	77.6367	89.0847	77.6367	88.6546	77.6367	89.0115	77.6367	88.6901	77.6367	88.9356	77.6367	88.7367	77.6367	88.8617	77.6367	88.7944
79.1016	88.7639	79.1016	88.7107	79.1016	88.8296	79.1016	88.6711	79.1016	88.9053	79.1016	88.6451	79.1016	88.9879	79.1016	88.6317	79.1016	89.0729	79.1016	88.629	79.1016	89.1555	79.1016	88.6343	79.1016	89.2306	79.1016	88.645	79.1016	89.2931	79.1016	88.6581	79.1016	89.3385	79.1016	88.6714	79.1016	89.3635	79.1016	88.6834	79.1016	89.3662	79.1016	88.6934	79.1016	89.3463	79.1016	88.7024	79.1016	89.3055	79.1016	88.7121	79.1016	89.2472	79.1016	88.7255	79.1016	89.1761	79.1016	88.7458	79.1016	89.0977	79.1016	88.7764	79.1016	89.0179	79.1016	88.8192	79.1016	88.9421	79.1016	88.8748
82.0312	89.04	82.0312	88.9832	82.0312	89.1085	82.0312	88.9394	82.0312	89.1861	82.0312	88.9089	82.0312	89.2694	82.0312	88.8907	82.0312	89.354	82.0312	88.8831	82.0312	89.435	82.0312	88.8836	82.0312	89.5073	82.0312	88.8892	82.0312	89.5657	82.0312	88.8973	82.0312	89.6058	82.0312	88.9051	82.0312	89.624	82.0312	88.9112	82.0312	89.6186	82.0312	88.9148	82.0312	89.5893	82.0312	88.9167	82.0312	89.538	82.0312	88.919	82.0312	89.4685	82.0312	88.925	82.0312	89.3863	82.0312	88.9387	82.0312	89.2978	82.0312	88.9637	82.0312	89.2097	82.0312	89.0032	82.0312	89.1282	82.0312	89.0584
84.9609	89.3033	84.9609	89.2441	84.9609	89.3734	84.9609	89.1972	84.9609	89.4518	84.9609	89.1628	84.9609	89.5351	84.9609	89.1402	84.9609	89.619	84.9609	89.1277	84.9609	89.6987	84.9609	89.1228	84.9609	89.769	84.9609	89.1229	84.9609	89.8247	84.9609	89.1249	84.9609	89.8613	84.9609	89.1265	84.9609	89.8751	84.9609	89.1259	84.9609	89.8639	84.9609	89.1227	84.9609	89.8276	84.9609	89.1177	84.9609	89.768	84.9609	89.1133	84.9609	89.6891	84.9609	89.1131	84.9609	89.5968	84.9609	89.1217	84.9609	89.4984	84.9609	89.1434	84.9609	89.4014	84.9609	89.1819	84.9609	89.313	84.9609	89.2387
87.8906	89.6907	87.8906	89.6409	87.8906	89.7495	87.8906	89.6013	87.8906	89.8151	87.8906	89.5722	87.8906	89.8844	87.8906	89.5528	87.8906	89.9535	87.8906	89.5413	87.8906	90.0179	87.8906	89.5353	87.8906	90.0729	87.8906	89.532	87.8906	90.1137	87.8906	89.5285	87.8906	90.1359	87.8906	89.5224	87.8906	90.1363	87.8906	89.5117	87.8906	90.1131	87.8906	89.4961	87.8906	90.0661	87.8906	89.4765	87.8906	89.9978	87.8906	89.4553	87.8906	89.9127	87.8906	89.4366	87.8906	89.8173	87.8906	89.4256	87.8906	89.7196	87.8906	89.4276	87.8906	89.6275	87.8906	89.4472	87.8906	89.5483	87.8906	89.4874
90.8203	90.3535	90.8203	90.299	90.8203	90.4153	90.8203	90.2533	90.8203	90.4816	90.8203	90.2168	90.8203	90.5492	90.8203	90.1891	90.8203	90.6137	90.8203	90.1684	90.8203	90.6705	90.8203	90.1525	90.8203	90.7146	90.8203	90.1383	90.8203	90.7412	90.8203	90.1229	90.8203	90.7458	90.8203	90.1033	90.8203	90.7253	90.8203	90.0777	90.8203	90.6783	90.8203	90.0452	90.8203	90.6054	90.8203	90.0069	90.8203	90.5101	90.8203	89.9655	90.8203	90.3985	90.8203	89.9257	90.8203	90.279	90.8203	89.8938	90.8203	90.1616	90.8203	89.8769	90.8203	90.0561	90.8203	89.8814	90.8203	89.9711	90.8203	89.9122
95.2148	90.7144	95.2148	90.6542	95.2148	90.7809	95.2148	90.6019	95.2148	90.8511	95.2148	90.5582	95.2148	90.9216	95.2148	90.5228	95.2148	90.9884	95.2148	90.4942	95.2148	91.0467	95.2148	90.4703	95.2148	91.0916	95.2148	90.4484	95.2148	91.1182	95.2148	90.4256	95.2148	91.1218	95.2148	90.3991	95.2148	91.0989	95.2148	90.3671	95.2148	91.0477	95.2148	90.3288	95.2148	90.9684	95.2148	90.2854	95.2148	90.8644	95.2148	90.2397	95.2148	90.7418	95.2148	90.197	95.2148	90.6097	95.2148	90.164	95.2148	90.4786	95.2148	90.1481	95.2148	90.3597	95.2148	90.1565	95.2148	90.2627	95.2148	90.1941
98.1445	90.9067	98.1445	90.8503	98.1445	90.9677	98.1445	90.7999	98.1445	91.0307	98.1445	90.7564	98.1445	91.0927	98.1445	90.7195	98.1445	91.1499	98.1445	90.6879	98.1445	91.1981	98.1445	90.6598	98.1445	91.2326	98.1445	90.6324	98.1445	91.249	98.1445	90.603	98.1445	91.2428	98.1445	90.569	98.1445	91.2108	98.1445	90.5285	98.1445	91.1513	98.1445	90.4809	98.1445	91.0646	98.1445	90.4274	98.1445	90.9541	98.1445	90.3712	98.1445	90.8262	98.1445	90.3177	98.1445	90.6901	98.1445	90.274	98.1445	90.5567	98.1445	90.2482	98.1445	90.4377	98.1445	90.2479	98.1445	90.3428	98.1445	90.2787
101.074	91.1213	101.074	91.0653	101.074	91.1794	101.074	91.0131	101.074	91.2374	101.074	90.9657	101.074	91.2922	101.074	90.9228	101.074	91.3404	101.074	90.8837	101.074	91.3781	101.074	90.8464	101.074	91.401	101.074	90.8087	101.074	91.4049	101.074	90.7679	101.074	91.3859	101.074	90.7215	101.074	91.3407	101.074	90.6679	101.074	91.2679	101.074	90.6068	101.074	91.168	101.074	90.5395	101.074	91.0448	101.074	90.4696	101.074	90.905	101.074	90.4031	101.074	90.7582	101.074	90.3475	101.074	90.6162	101.074	90.3117	101.074	90.4912	101.074	90.3039	101.074	90.3936	101.074	90.3304
105.469	91.4723	105.469	91.4191	105.469	91.5256	105.469	91.3678	105.469	91.5766	105.469	91.3195	105.469	91.6223	105.469	91.274	105.469	91.6591	105.469	91.2305	105.469	91.6832	105.469	91.187	105.469	91.6905	105.469	91.1411	105.469	91.677	105.469	91.0897	105.469	91.639	105.469	91.0304	105.469	91.5738	105.469	90.9613	105.469	91.4804	105.469	90.8822	105.469	91.3601	105.469	90.7947	105.469	91.2172	105.469	90.7029	105.469	91.0598	105.469	90.6134	105.469	90.8985	105.469	90.5351	105.469	90.7465	105.469	90.4782	105.469	90.6169	105.469	90.4524	105.469	90.5208	105.469	90.4654
108.398	91.5618	108.398	91.5097	108.398	91.6153	108.398	91.461	108.398	91.6676	108.398	91.4166	108.398	91.7156	108.398	91.3766	108.398	91.7556	108.398	91.3401	108.398	91.7839	108.398	91.305	108.398	91.7964	108.398	91.2685	108.398	91.7889	108.398	91.2273	108.398	91.7576	108.398	91.1784	108.398	91.6996	108.398	91.1196	108.398	91.6138	108.398	91.05	108.398	91.5013	108.398	90.9709	108.398	91.3663	108.398	90.886	108.398	91.2165	108.398	90.8016	108.398	91.0627	108.398	90.7263	108.398	90.9178	108.398	90.6702	108.398	90.7946	108.398	90.6433	108.398	90.7043	108.398	90.6533
112.793	91.5974	112.793	91.5364	112.793	91.6598	112.793	91.4792	112.793	91.7204	112.793	91.4277	112.793	91.776	112.793	91.3829	112.793	91.8231	112.793	91.3444	112.793	91.8581	112.793	91.3106	112.793	91.8771	112.793	91.2789	112.793	91.8761	112.793	91.2461	112.793	91.8517	112.793	91.2087	112.793	91.8008	112.793	91.1636	112.793	91.7221	112.793	91.1093	112.793	91.6163	112.793	91.0461	112.793	91.4876	112.793	90.9766	112.793	91.3433	112.793	90.9063	112.793	91.1941	112.793	90.8431	112.793	91.0526	112.793	90.7965	112.793	90.9318	112.793	90.7761	112.793	90.8421	112.793	90.7899
117.188	91.3477	117.188	91.2559	117.188	91.434	117.188	91.1618	117.188	91.5117	117.188	91.0688	117.188	91.5784	117.188	90.98	117.188	91.6318	117.188	90.8978	117.188	91.6698	117.188	90.8238	117.188	91.69	117.188	90.7583	117.188	91.6901	117.188	90.7006	117.188	91.6674	117.188	90.6491	117.188	91.6195	117.188	90.6019	117.188	91.5446	117.188	90.5575	117.188	91.4428	117.188	90.5154	117.188	91.3164	117.188	90.4768	117.188	91.1709	117.188	90.4452	117.188	91.0149	117.188	90.4257	117.188	90.8594	117.188	90.4252	117.188	90.7164	117.188	90.4505	117.188	90.5965	117.188	90.507
120.117	91.6192	120.117	91.5535	120.117	91.6702	120.117	91.4757	120.117	91.7041	120.117	91.3885	120.117	91.7192	120.117	91.2948	120.117	91.7145	120.117	91.1969	120.117	91.6893	120.117	91.0967	120.117	91.6436	120.117	90.9955	120.117	91.5777	120.117	90.8942	120.117	91.4924	120.117	90.7934	120.117	91.389	120.117	90.6939	120.117	91.2696	120.117	90.5972	120.117	91.1369	120.117	90.5055	120.117	90.9951	120.117	90.4225	120.117	90.8496	120.117	90.3526	120.117	90.7068	120.117	90.301	120.117	90.5741	120.117	90.2732	120.117	90.4587	120.117	90.2735	120.117	90.3673	120.117	90.3048
124.512	92.173	124.512	92.1012	124.512	92.2338	124.512	92.0217	124.512	92.2804	124.512	91.9378	124.512	92.3096	124.512	91.852	124.512	92.3188	124.512	91.7663	124.512	92.3056	124.512	91.6817	124.512	92.2677	124.512	91.5979	124.512	92.2036	124.512	91.5139	124.512	92.1123	124.512	91.4283	124.512	91.9941	124.512	91.3394	124.512	91.8512	124.512	91.2468	124.512	91.6881	124.512	91.1512	124.512	91.5123	124.512	91.0551	124.512	91.3338	124.512	90.9632	124.512	91.1645	124.512	90.8821	124.512	91.0162	124.512	90.8196	124.512	90.8992	124.512	90.784	124.512	90.8204	124.512	90.7825
128.906	92.0098	128.906	91.9226	128.906	92.0808	128.906	91.8229	128.906	92.1322	128.906	91.7148	128.906	92.1612	128.906	91.602	128.906	92.1654	128.906	91.4878	128.906	92.1429	128.906	91.3748	128.906	92.0924	128.906	91.2647	128.906	92.0135	128.906	91.1583	128.906	91.9062	128.906	91.0557	128.906	91.7723	128.906	90.9568	128.906	91.6152	128.906	90.8615	128.906	91.4404	128.906	90.7705	128.906	91.2559	128.906	90.6856	128.906	91.0719	128.906	90.61	128.906	90.8994	128.906	90.5479	128.906	90.7492	128.906	90.5048	128.906	90.6295	128.906	90.4865	128.906	90.5456	128.906	90.4986
133.301	91.9044	133.301	91.8211	133.301	91.9694	133.301	91.7231	133.301	92.013	133.301	91.6138	133.301	92.0319	133.301	91.4962	133.301	92.0235	133.301	91.3731	133.301	91.9851	133.301	91.246	133.301	91.9146	133.301	91.1162	133.301	91.8106	133.301	90.984	133.301	91.6725	133.301	90.8495	133.301	91.5015	133.301	90.7127	133.301	91.3012	133.301	90.5748	133.301	91.0788	133.301	90.4378	133.301	90.8445	133.301	90.3055	133.301	90.6121	133.301	90.1832	133.301	90.3969	133.301	90.0777	133.301	90.2133	133.301	89.9968	133.301	90.0729	133.301	89.9489	133.301	89.982	133.301	89.9418
139.16	91.3373	139.16	91.2473	139.16	91.4099	139.16	91.1438	139.16	91.4619	139.16	91.0311	139.16	91.4906	139.16	90.9132	139.16	91.4939	139.16	90.794	139.16	91.4704	139.16	90.6762	139.16	91.4186	139.16	90.5615	139.16	91.3376	139.16	90.4503	139.16	91.2267	139.16	90.3424	139.16	91.0865	139.16	90.2367	139.16	90.9191	139.16	90.1326	139.16	90.7292	139.16	90.0305	139.16	90.5249	139.16	89.9319	139.16	90.3176	139.16	89.8405	139.16	90.1209	139.16	89.7616	139.16	89.9488	139.16	89.7022	139.16	89.8131	139.16	89.6706	139.16	89.7211	139.16	89.6747
143.555	91.153	143.555	91.0633	143.555	91.2189	143.555	90.9538	143.555	91.2579	143.555	90.8296	143.555	91.2683	143.555	90.6959	143.555	91.2494	143.555	90.5581	143.555	91.2015	143.555	90.4212	143.555	91.1257	143.555	90.2889	143.555	91.0236	143.555	90.1639	143.555	90.8973	143.555	90.0476	143.555	90.7496	143.555	89.9403	143.555	90.584	143.555	89.8417	143.555	90.4055	143.555	89.7516	143.555	90.221	143.555	89.6703	143.555	90.0392	143.555	89.599	143.555	89.8704	143.555	89.5405	143.555	89.7245	143.555	89.4989	143.555	89.6097	143.555	89.4795	143.555	89.5309	143.555	89.4885
147.949	91.3141	147.949	91.2253	147.949	91.3712	147.949	91.1092	147.949	91.3933	147.949	90.971	147.949	91.3781	147.949	90.8164	147.949	91.3247	147.949	90.6515	147.949	91.2339	147.949	90.4821	147.949	91.1081	147.949	90.3139	147.949	90.9516	147.949	90.1521	147.949	90.7708	147.949	90.0011	147.949	90.5742	147.949	89.8649	147.949	90.3718	147.949	89.7462	147.949	90.1745	147.949	89.6472	147.949	89.9925	147.949	89.5685	147.949	89.8337	147.949	89.5101	147.949	89.7031	147.949	89.4705	147.949	89.6021	147.949	89.4484	147.949	89.5289	147.949	89.4424	147.949	89.4804	147.949	89.4525
153.809	91.3361	153.809	91.2262	153.809	91.4157	153.809	91.0902	153.809	91.461	153.809	90.9327	153.809	91.4688	153.809	90.7587	153.809	91.4361	153.809	90.5729	153.809	91.3607	153.809	90.3803	153.809	91.2411	153.809	90.1852	153.809	91.0773	153.809	89.9919	153.809	90.8711	153.809	89.8043	153.809	90.6281	153.809	89.6265	153.809	90.3577	153.809	89.4627	153.809	90.0742	153.809	89.3167	153.809	89.7955	153.809	89.1924	153.809	89.5406	153.809	89.0921	153.809	89.3257	153.809	89.0171	153.809	89.1601	153.809	88.9672	153.809	89.0452	153.809	88.9424	153.809	88.9758	153.809	88.9439
159.668	90.8319	159.668	90.7347	159.668	90.9016	159.668	90.6141	159.668	90.9405	159.668	90.4749	159.668	90.9459	159.668	90.322	159.668	90.9157	159.668	90.1604	159.668	90.8483	159.668	89.9945	159.668	90.7424	159.668	89.8279	159.668	90.5974	159.668	89.6634	159.668	90.4138	159.668	89.5031	159.668	90.1945	159.668	89.3484	159.668	89.946	159.668	89.201	159.668	89.6794	159.668	89.0627	159.668	89.4106	159.668	88.936	159.668	89.1583	159.668	88.8234	159.668	88.9411	159.668	88.728	159.668	88.7725	159.668	88.653	159.668	88.6585	159.668	88.6022	159.668	88.597	159.668	88.5811
165.527	90.3979	165.527	90.2786	165.527	90.476	165.527	90.1221	165.527	90.5112	165.527	89.9339	165.527	90.5032	165.527	89.7213	165.527	90.4538	165.527	89.4932	165.527	90.3661	165.527	89.2592	165.527	90.2442	165.527	89.0297	165.527	90.0927	165.527	88.8143	165.527	89.9159	165.527	88.6215	165.527	89.7178	165.527	88.4571	165.527	89.5024	165.527	88.3239	165.527	89.2747	165.527	88.2218	165.527	89.0418	165.527	88.1477	165.527	88.8136	165.527	88.0979	165.527	88.6022	165.527	88.0686	165.527	88.4196	165.527	88.0582	165.527	88.2746	165.527	88.0683	165.527	88.17	165.527	88.1033
171.387	90.7501	171.387	90.6847	171.387	90.7771	171.387	90.5859	171.387	90.7612	171.387	90.4584	171.387	90.6982	171.387	90.3071	171.387	90.585	171.387	90.1363	171.387	90.4198	171.387	89.9502	171.387	90.203	171.387	89.753	171.387	89.9385	171.387	89.5491	171.387	89.6354	171.387	89.3437	171.387	89.3091	171.387	89.1428	171.387	88.9819	171.387	88.9533	171.387	88.6807	171.387	88.7819	171.387	88.4318	171.387	88.6338	171.387	88.2531	171.387	88.5114	171.387	88.1491	171.387	88.4128	171.387	88.1103	171.387	88.3333	171.387	88.1188	171.387	88.2664	171.387	88.1558	171.387	88.2073
177.246	90.2291	177.246	90.1024	177.246	90.3179	177.246	89.9432	177.246	90.3654	177.246	89.7585	177.246	90.3694	177.246	89.5569	177.246	90.3291	177.246	89.3479	177.246	90.245	177.246	89.1419	177.246	90.1181	177.246	88.9486	177.246	89.9506	177.246	88.7763	177.246	89.7462	177.246	88.631	177.246	89.5114	177.246	88.5157	177.246	89.2563	177.246	88.43	177.246	88.996	177.246	88.3704	177.246	88.7495	177.246	88.3311	177.246	88.5371	177.246	88.3051	177.246	88.3751	177.246	88.2849	177.246	88.2705	177.246	88.265	177.246	88.2193	177.246	88.2428	177.246	88.2083	177.246	88.2209
183.105	90.462	183.105	90.3519	183.105	90.5225	183.105	90.1967	183.105	90.5304	183.105	90.0023	183.105	90.4843	183.105	89.7761	183.105	90.3842	183.105	89.5273	183.105	90.232	183.105	89.2668	183.105	90.0316	183.105	89.0069	183.105	89.7896	183.105	88.7608	183.105	89.5163	183.105	88.5418	183.105	89.2259	183.105	88.3614	183.105	88.937	183.105	88.2273	183.105	88.6709	183.105	88.1416	183.105	88.4479	183.105	88.0999	183.105	88.2826	183.105	88.092	183.105	88.1791	183.105	88.104	183.105	88.1298	183.105	88.1217	183.105	88.1185	183.105	88.1335	183.105	88.1256	183.105	88.1341
188.965	90.75	188.965	90.6326	188.965	90.8144	188.965	90.4669	188.965	90.822	188.965	90.2587	188.965	90.7699	188.965	90.0153	188.965	90.6565	188.965	89.7452	188.965	90.4816	188.965	89.459	188.965	90.2476	188.965	89.1697	188.965	89.9605	188.965	88.8921	188.965	89.632	188.965	88.6427	188.965	89.2809	188.965	88.437	188.965	88.934	188.965	88.2871	188.965	88.6233	188.965	88.1978	188.965	88.3793	188.965	88.1647	188.965	88.2209	188.965	88.1742	188.965	88.1486	188.965	88.2068	188.965	88.1444	188.965	88.2414	188.965	88.1794	188.965	88.2608	188.965	88.2237	188.965	88.2548
196.289	90.5891	196.289	90.4592	196.289	90.6653	196.289	90.2794	196.289	90.6856	196.289	90.0548	196.289	90.6487	196.289	89.7923	196.289	90.5543	196.289	89.5009	196.289	90.4026	196.289	89.1915	196.289	90.1949	196.289	88.8777	196.289	89.9338	196.289	88.5751	196.289	89.6249	196.289	88.3007	196.289	89.2794	196.289	88.0716	196.289	88.9164	196.289	87.9014	196.289	88.5644	196.289	87.7973	196.289	88.2583	196.289	87.7569	196.289	88.0295	196.289	87.7677	196.289	87.8942	196.289	87.8092	196.289	87.8445	196.289	87.8574	196.289	87.8518	196.289	87.8914	196.289	87.88	196.289	87.8987
203.613	90.4183	203.613	90.313	203.613	90.4581	203.613	90.1453	203.613	90.4311	203.613	89.92	203.613	90.3378	203.613	89.6437	203.613	90.1809	203.613	89.3254	203.613	89.9657	203.613	88.9772	203.613	89.7005	203.613	88.6152	203.613	89.3966	203.613	88.2595	203.613	89.0689	203.613	87.9342	203.613	88.736	203.613	87.6643	203.613	88.4192	203.613	87.4706	203.613	88.141	203.613	87.3644	203.613	87.9215	203.613	87.3421	203.613	87.773	203.613	87.3858	203.613	87.695	203.613	87.468	203.613	87.6725	203.613	87.559	203.613	87.6802	203.613	87.634	203.613	87.6897	203.613	87.6782
210.938	90.884	210.938	90.7825	210.938	90.9133	210.938	90.6139	210.938	90.8652	210.938	90.3835	210.938	90.7351	210.938	90.0971	210.938	90.5188	210.938	89.7617	210.938	90.2136	210.938	89.3862	210.938	89.8197	210.938	88.9831	210.938	89.343	210.938	88.5695	210.938	88.7993	210.938	88.1684	210.938	88.2199	210.938	87.8073	210.938	87.656	210.938	87.514	210.938	87.1756	210.938	87.3094	210.938	86.8451	210.938	87.1996	210.938	86.6993	210.938	87.172	210.938	86.7202	210.938	87.1976	210.938	86.8475	210.938	87.2393	210.938	87.0094	210.938	87.2611	210.938	87.1491	210.938	87.2353
218.262	91.1118	218.262	90.9927	218.262	91.1638	218.262	90.8116	218.262	91.1434	218.262	90.5741	218.262	91.0458	218.262	90.2858	218.262	90.8664	218.262	89.9536	218.262	90.6016	218.262	89.5861	218.262	90.25	218.262	89.195	218.262	89.814	218.262	88.7966	218.262	89.3035	218.262	88.4122	218.262	88.7401	218.262	88.0669	218.262	88.1627	218.262	87.7851	218.262	87.6284	218.262	87.5839	218.262	87.2036	218.262	87.4658	218.262	86.9413	218.262	87.4163	218.262	86.8544	218.262	87.4069	218.262	86.9081	218.262	87.4038	218.262	87.0394	218.262	87.3763	218.262	87.1861	218.262	87.3047
225.586	91.0164	225.586	90.8605	225.586	91.1111	225.586	90.6496	225.586	91.139	225.586	90.3905	225.586	91.0947	225.586	90.0908	225.586	90.9727	225.586	89.7593	225.586	90.7679	225.586	89.4065	225.586	90.4756	225.586	89.0458	225.586	90.0937	225.586	88.6945	225.586	89.626	225.586	88.3743	225.586	89.0888	225.586	88.1095	225.586	88.5196	225.586	87.9223	225.586	87.9824	225.586	87.8252	225.586	87.5604	225.586	87.8137	225.586	87.3254	225.586	87.8649	225.586	87.2958	225.586	87.9422	225.586	87.4237	225.586	88.005	225.586	87.6245	225.586	88.0177	225.586	87.8194	225.586	87.9573
232.91	90.852	232.91	90.6637	232.91	90.9529	232.91	90.3919	232.91	90.9625	232.91	90.0416	232.91	90.8776	232.91	89.6193	232.91	90.6957	232.91	89.1341	232.91	90.4154	232.91	88.6006	232.91	90.0376	232.91	88.0413	232.91	89.5677	232.91	87.4909	232.91	89.0193	232.91	86.9972	232.91	88.4187	232.91	86.6158	232.91	87.8119	232.91	86.3948	232.91	87.2661	232.91	86.3529	232.91	86.8602	232.91	86.4669	232.91	86.6541	232.91	86.6791	232.91	86.6529	232.91	86.9195	232.91	86.7987	232.91	87.1247	232.91	87.0009	232.91	87.2487	232.91	87.1755	232.91	87.2664
241.699	90.7502	241.699	90.5627	241.699	90.858	241.699	90.2997	241.699	90.882	241.699	89.966	241.699	90.818	241.699	89.5674	241.699	90.6609	241.699	89.1111	241.699	90.4036	241.699	88.6075	241.699	90.0366	241.699	88.0714	241.699	89.548	241.699	87.5247	241.699	88.9255	241.699	86.9983	241.699	88.1636	241.699	86.5316	241.699	87.2776	241.699	86.1671	241.699	86.3299	241.699	85.9368	241.699	85.4582	241.699	85.8477	241.699	84.862	241.699	85.8725	241.699	84.6866	241.699	85.9556	241.699	84.8864	241.699	86.0287	241.699	85.267	241.699	86.0276	241.699	85.6412	241.699	85.9046
250.488	91.3723	250.488	91.1822	250.488	91.4646	250.488	90.8956	250.488	91.4563	250.488	90.5131	250.488	91.344	250.488	90.0343	250.488	91.1234	250.488	89.459	250.488	90.7906	250.488	88.7889	250.488	90.3434	250.488	88.0308	250.488	89.7837	250.488	87.2034	250.488	89.121	250.488	86.3466	250.488	88.3766	250.488	85.5307	250.488	87.5881	250.488	84.8559	250.488	86.8118	250.488	84.4222	250.488	86.1187	250.488	84.2736	250.488	85.5798	250.488	84.3635	250.488	85.2393	250.488	84.5831	250.488	85.0897	250.488	84.8208	250.488	85.0704	250.488	84.9999	250.488	85.0958	250.488	85.0883
259.277	91.7521	259.277	91.6075	259.277	91.8253	259.277	91.3928	259.277	91.8232	259.277	91.1072	259.277	91.7398	259.277	90.7473	259.277	91.5669	259.277	90.3075	259.277	91.2933	259.277	89.7813	259.277	90.9055	259.277	89.1631	259.277	90.388	259.277	88.452	259.277	89.7254	259.277	87.6576	259.277	88.9072	259.277	86.808	259.277	87.9371	259.277	85.9578	259.277	86.8497	259.277	85.1891	259.277	85.7337	259.277	84.5914	259.277	84.7432	259.277	84.2186	259.277	84.0533	259.277	84.0527	259.277	83.743	259.277	84.0132	259.277	83.7281	259.277	84.0027	259.277	83.8416	259.277	83.9512
268.066	91.3839	268.066	91.2367	268.066	91.4786	268.066	91.0437	268.066	91.5131	268.066	90.8103	268.066	91.4789	268.066	90.54	268.066	91.3661	268.066	90.2341	268.066	91.1637	268.066	89.8918	268.066	90.8593	268.066	89.5115	268.066	90.4415	268.066	89.0941	268.066	89.9037	268.066	88.6462	268.066	89.2519	268.066	88.1846	268.066	88.5156	268.066	87.7383	268.066	87.7589	268.066	87.3457	268.066	87.0812	268.066	87.0429	268.066	86.5881	268.066	86.8475	268.066	86.3365	268.066	86.7475	268.066	86.2983	268.066	86.7049	268.066	86.3867	268.066	86.6726	268.066	86.5109	268.066	86.6127
276.855	90.6411	276.855	90.3721	276.855	90.8287	276.855	90.0251	276.855	90.9309	276.855	89.6036	276.855	90.9424	276.855	89.1118	276.855	90.8555	276.855	88.5551	276.855	90.6594	276.855	87.943	276.855	90.3396	276.855	87.2919	276.855	89.8784	276.855	86.6302	276.855	89.2575	276.855	86.0042	276.855	88.4654	276.855	85.4773	276.855	87.5121	276.855	85.1171	276.855	86.4576	276.855	84.9671	276.855	85.4483	276.855	85.018	276.855	84.7158	276.855	85.2065	276.855	84.45	276.855	85.4407	276.855	84.6187	276.855	85.6312	276.855	85.0009	276.855	85.708	276.855	85.3781	276.855	85.6273
287.109	90.4992	287.109	90.2839	287.109	90.6409	287.109	89.995	287.109	90.7123	287.109	89.6356	287.109	90.7183	287.109	89.2117	287.109	90.6631	287.109	88.7311	287.109	90.5472	287.109	88.2022	287.109	90.3634	287.109	87.6327	287.109	90.0957	287.109	87.0283	287.109	89.7192	287.109	86.3948	287.109	89.205	287.109	85.7415	287.109	88.5277	287.109	85.0886	287.109	87.6772	287.109	84.473	287.109	86.6768	287.109	83.9473	287.109	85.6052	287.109	83.5624	287.109	84.6065	287.109	83.3373	287.109	83.8482	287.109	83.2418	287.109	83.4152	287.109	83.2153	287.109	83.2473	287.109	83.2122
297.363	91.1551	297.363	90.9995	297.363	91.21	297.363	90.742	297.363	91.165	297.363	90.3812	297.363	91.0221	297.363	89.9162	297.363	90.7864	297.363	89.3494	297.363	90.467	297.363	88.6923	297.363	90.079	297.363	87.9737	297.363	89.6419	297.363	87.249	297.363	89.1773	297.363	86.6025	297.363	88.7044	297.363	86.129	297.363	88.2369	297.363	85.8874	297.363	87.7834	297.363	85.861	297.363	87.3534	297.363	85.9677	297.363	86.9629	297.363	86.1105	297.363	86.6361	297.363	86.2201	297.363	86.3976	297.363	86.2675	297.363	86.2597	297.363	86.2595	297.363	86.2129	297.363	86.227
307.617	91.2898	307.617	91.1432	307.617	91.3606	307.617	90.9224	307.617	91.3506	307.617	90.6253	307.617	91.2521	307.617	90.2462	307.617	91.0545	307.617	89.7767	307.617	90.746	307.617	89.2091	307.617	90.3154	307.617	88.5415	307.617	89.7578	307.617	87.7893	307.617	89.0856	307.617	87.0017	307.617	88.3477	307.617	86.2815	307.617	87.6487	307.617	85.7824	307.617	87.142	307.617	85.6439	307.617	86.9545	307.617	85.8842	307.617	87.0846	307.617	86.3776	307.617	87.4012	307.617	86.9499	307.617	87.7455	307.617	87.4666	307.617	88.0056	307.617	87.8523	307.617	88.1232	307.617	88.0741
319.336	90.3216	319.336	90.1617	319.336	90.4037	319.336	89.9275	319.336	90.4031	319.336	89.6196	319.336	90.3148	319.336	89.2344	319.336	90.1342	319.336	88.7638	319.336	89.8559	319.336	88.1963	319.336	89.4733	319.336	87.5217	319.336	88.9757	319.336	86.7394	319.336	88.3495	319.336	85.8745	319.336	87.5835	319.336	85.0009	319.336	86.6878	319.336	84.2624	319.336	85.7305	319.336	83.8453	319.336	84.8834	319.336	83.8626	319.336	84.397	319.336	84.2437	319.336	84.4126	319.336	84.7873	319.336	84.7971	319.336	85.2973	319.336	85.2742	319.336	85.6448	319.336	85.6304	319.336	85.7629
329.59	90.7896	329.59	90.5544	329.59	90.9478	329.59	90.2482	329.59	91.021	329.59	89.875	329.59	90.9997	329.59	89.4352	329.59	90.8714	329.59	88.925	329.59	90.6195	329.59	88.3375	329.59	90.2225	329.59	87.6675	329.59	89.6551	329.59	86.9214	329.59	88.8931	329.59	86.1333	329.59	87.9271	329.59	85.3836	329.59	86.7922	329.59	84.8003	329.59	85.6206	329.59	84.5133	329.59	84.6833	329.59	84.5639	329.59	84.2816	329.59	84.8658	329.59	84.4569	329.59	85.2679	329.59	84.9419	329.59	85.6348	329.59	85.4419	329.59	85.8761	329.59	85.7929	329.59	85.938
341.309	90.8748	341.309	90.6887	341.309	90.9663	341.309	90.409	341.309	90.9602	341.309	90.0343	341.309	90.8528	341.309	89.5602	341.309	90.6402	341.309	88.9794	341.309	90.3189	341.309	88.284	341.309	89.8866	341.309	87.4708	341.309	89.3447	341.309	86.5524	341.309	88.701	341.309	85.5767	341.309	87.9763	341.309	84.6548	341.309	87.2158	341.309	83.9724	341.309	86.5024	341.309	83.722	341.309	85.9566	341.309	83.9507	341.309	85.6895	341.309	84.5053	341.309	85.7203	341.309	85.1604	341.309	85.9456	341.309	85.7438	341.309	86.2081	341.309	86.1606	341.309	86.3765	341.309	86.3719
353.027	90.7402	353.027	90.5531	353.027	90.8352	353.027	90.2757	353.027	90.8343	353.027	89.906	353.027	90.7318	353.027	89.4362	353.027	90.5197	353.027	88.8517	353.027	90.186	353.027	88.1314	353.027	89.7115	353.027	87.2513	353.027	89.0667	353.027	86.1935	353.027	88.2113	353.027	84.9688	353.027	87.1009	353.027	83.6652	353.027	85.7147	353.027	82.5262	353.027	84.1416	353.027	81.9492	353.027	82.7647	353.027	82.1731	353.027	82.2712	353.027	82.9696	353.027	82.8573	353.027	83.9168	353.027	83.8854	353.027	84.7286	353.027	84.7787	353.027	85.2704	353.027	85.3225	353.027	85.4802
366.211	91.005	366.211	90.7942	366.211	91.1508	366.211	90.5185	366.211	91.2256	366.211	90.1712	366.211	91.2177	366.211	89.7372	366.211	91.108	366.211	89.1919	366.211	90.8687	366.211	88.5011	366.211	90.4605	366.211	87.6239	366.211	89.8329	366.211	86.5201	366.211	88.9264	366.211	85.1726	366.211	87.6839	366.211	83.6476	366.211	86.0865	366.211	82.2277	366.211	84.2632	366.211	81.4876	366.211	82.7194	366.211	81.801	366.211	82.2567	366.211	82.7815	366.211	82.9167	366.211	83.841	366.211	83.9231	366.211	84.6787	366.211	84.7511	366.211	85.2029	366.211	85.247	366.211	85.3946
379.395	90.1864	379.395	90.096	379.395	90.2251	379.395	89.9586	379.395	90.2041	379.395	89.7719	379.395	90.1144	379.395	89.5219	379.395	89.9462	379.395	89.1821	379.395	89.6871	379.395	88.7135	379.395	89.3183	379.395	88.0697	379.395	88.8108	379.395	87.2012	379.395	88.1211	379.395	86.0644	379.395	87.191	379.395	84.6386	379.395	85.9558	379.395	82.978	379.395	84.3814	379.395	81.3401	379.395	82.5848	379.395	80.315	379.395	81.0916	379.395	80.4034	379.395	80.7343	379.395	81.2746	379.395	81.469	379.395	82.255	379.395	82.427	379.395	82.9614	379.395	83.0703	379.395	83.2501
392.578	90.4315	392.578	90.2216	392.578	90.5881	392.578	89.9675	392.578	90.6794	392.578	89.6715	392.578	90.6922	392.578	89.324	392.578	90.6114	392.578	88.8983	392.578	90.4172	392.578	88.3502	392.578	90.0819	392.578	87.6194	392.578	89.5656	392.578	86.6352	392.578	88.813	392.578	85.3243	392.578	87.7507	392.578	83.6348	392.578	86.2879	392.578	81.6245	392.578	84.3335	392.578	79.7394	392.578	81.8984	392.578	79.029	392.578	79.5429	392.578	79.8599	392.578	78.8683	392.578	81.2138	392.578	80.1084	392.578	82.3226	392.578	81.6154	392.578	82.9593	392.578	82.6357	392.578	83.0737
405.762	90.2831	405.762	90.081	405.762	90.4906	405.762	89.897	405.762	90.6938	405.762	89.7409	405.762	90.8848	405.762	89.6091	405.762	91.0522	405.762	89.4757	405.762	91.173	405.762	89.2903	405.762	91.207	405.762	88.9848	405.762	91.0956	405.762	88.4835	405.762	90.7648	405.762	87.7111	405.762	90.1319	405.762	86.6001	405.762	89.1138	405.762	85.1088	405.762	87.6433	405.762	83.2877	405.762	85.7242	405.762	81.4761	405.762	83.6049	405.762	80.4922	405.762	82.0609	405.762	80.8414	405.762	81.8545	405.762	81.8396	405.762	82.4711	405.762	82.7038	405.762	83.0189	405.762	83.1203
420.41	89.5072	420.41	89.3325	420.41	89.6278	420.41	89.1198	420.41	89.6897	420.41	88.8921	420.41	89.6981	420.41	88.6683	420.41	89.6609	420.41	88.4485	420.41	89.5788	420.41	88.2046	420.41	89.4333	420.41	87.8821	420.41	89.1795	420.41	87.4119	420.41	88.7457	420.41	86.7246	420.41	88.0412	420.41	85.7654	420.41	86.9687	420.41	84.5173	420.41	85.4503	420.41	83.0602	420.41	83.5107	420.41	81.6917	420.41	81.5371	420.41	80.9584	420.41	80.5377	420.41	81.1546	420.41	80.9972	420.41	81.8729	420.41	81.9706	420.41	82.5432	420.41	82.6616	420.41	82.8486
435.059	89.6117	435.059	89.3894	435.059	89.7795	435.059	89.1275	435.059	89.8893	435.059	88.8513	435.059	89.9455	435.059	88.5862	435.059	89.9534	435.059	88.3416	435.059	89.9102	435.059	88.0975	435.059	89.7989	435.059	87.8028	435.059	89.5855	435.059	87.3899	435.059	89.2226	435.059	86.794	435.059	88.6564	435.059	85.9742	435.059	87.8384	435.059	84.9397	435.059	86.7444	435.059	83.7927	435.059	85.4157	435.059	82.7765	435.059	84.0379	435.059	82.2166	435.059	82.991	435.059	82.2416	435.059	82.6127	435.059	82.6208	435.059	82.7824	435.059	83.0093	435.059	83.075	435.059	83.183
451.172	88.9201	451.172	88.697	451.172	89.0192	451.172	88.3704	451.172	88.9983	451.172	87.9834	451.172	88.8858	451.172	87.5926	451.172	88.7301	451.172	87.2448	451.172	88.584	451.172	86.9473	451.172	88.4705	451.172	86.6514	451.172	88.3454	451.172	86.2664	451.172	88.0873	451.172	85.6913	451.172	87.5216	451.172	84.8519	451.172	86.4528	451.172	83.7522	451.172	84.6935	451.172	82.5821	451.172	82.1963	451.172	81.8321	451.172	79.8148	451.172	81.9925	451.172	79.9491	451.172	82.8732	451.172	81.9293	451.172	83.8716	451.172	83.6139	451.172	84.5894	451.172	84.5639	451.172	84.8536
465.82	90.5684	465.82	90.2562	465.82	90.7046	465.82	89.7764	465.82	90.6686	465.82	89.152	465.82	90.4768	465.82	88.4225	465.82	90.1598	465.82	87.6376	465.82	89.7639	465.82	86.8404	465.82	89.3426	465.82	86.0423	465.82	88.9304	465.82	85.2107	465.82	88.504	465.82	84.288	465.82	87.9584	465.82	83.2388	465.82	87.1195	465.82	82.1205	465.82	85.7744	465.82	81.1749	465.82	83.7057	465.82	80.8186	465.82	80.8639	465.82	81.2689	465.82	78.4381	465.82	82.2068	465.82	79.1582	465.82	83.1243	465.82	81.3506	465.82	83.675	465.82	82.9276	465.82	83.6598
483.398	90.4307	483.398	90.2933	483.398	90.4664	483.398	90.0413	483.398	90.4198	483.398	89.6708	483.398	90.3124	483.398	89.1876	483.398	90.1629	483.398	88.605	483.398	89.9823	483.398	87.9371	483.398	89.7695	483.398	87.1876	483.398	89.5069	483.398	86.3352	483.398	89.1525	483.398	85.3242	483.398	88.6312	483.398	84.068	483.398	87.8299	483.398	82.4768	483.398	86.6012	483.398	80.5502	483.398	84.7708	483.398	78.6537	483.398	82.1653	483.398	77.7946	483.398	78.8526	483.398	78.4137	483.398	76.4173	483.398	79.4684	483.398	77.2037	483.398	80.088	483.398	78.9464	483.398	79.9561
499.512	89.4845	499.512	89.4025	499.512	89.5085	499.512	89.2547	499.512	89.4906	499.512	89.0396	499.512	89.4506	499.512	88.756	499.512	89.4012	499.512	88.3963	499.512	89.3363	499.512	87.9407	499.512	89.2245	499.512	87.356	499.512	89.0141	499.512	86.5965	499.512	88.6431	499.512	85.6093	499.512	88.0515	499.512	84.346	499.512	87.1911	499.512	82.7953	499.512	86.0382	499.512	81.0789	499.512	84.6236	499.512	79.6389	499.512	83.0993	499.512	79.1652	499.512	81.8151	499.512	79.7209	499.512	81.1807	499.512	80.6065	499.512	81.2067	499.512	81.2787	499.512	81.4666	499.512	81.5564
517.09	88.7379	517.09	88.6124	517.09	88.7462	517.09	88.3929	517.09	88.6402	517.09	88.1218	517.09	88.4502	517.09	87.8445	517.09	88.2239	517.09	87.5888	517.09	88.0049	517.09	87.346	517.09	87.8055	517.09	87.0683	517.09	87.5898	517.09	86.6791	517.09	87.283	517.09	86.0906	517.09	86.7999	517.09	85.2166	517.09	86.0741	517.09	83.9872	517.09	85.0886	517.09	82.3918	517.09	83.9189	517.09	80.626	517.09	82.7935	517.09	79.3682	517.09	82.0672	517.09	79.4209	517.09	81.9258	517.09	80.4239	517.09	82.1343	517.09	81.4614	517.09	82.2875	517.09	82.103
536.133	88.8443	536.133	88.5401	536.133	89.0256	536.133	88.1455	536.133	89.0823	536.133	87.7238	536.133	89.0358	536.133	87.3558	536.133	88.9187	536.133	87.1059	536.133	88.7565	536.133	86.9825	536.133	88.5493	536.133	86.9246	536.133	88.2632	536.133	86.8295	536.133	87.8376	536.133	86.5909	536.133	87.2051	536.133	86.1232	536.133	86.3145	536.133	85.373	536.133	85.1623	536.133	84.3394	536.133	83.8488	536.133	83.1303	536.133	82.6579	536.133	82.0491	536.133	82.0012	536.133	81.5317	536.133	82.017	536.133	81.7048	536.133	82.3641	536.133	82.1926	536.133	82.6198	536.133	82.5656
555.176	88.8575	555.176	88.5084	555.176	88.9984	555.176	87.9629	555.176	88.9641	555.176	87.2871	555.176	88.8253	555.176	86.6128	555.176	88.6729	555.176	86.1149	555.176	88.5763	555.176	85.9143	555.176	88.5361	555.176	85.9695	555.176	88.4694	555.176	86.0994	555.176	88.241	555.176	86.1047	555.176	87.7057	555.176	85.8397	555.176	86.7371	555.176	85.2227	555.176	85.257	555.176	84.246	555.176	83.3334	555.176	83.049	555.176	81.4972	555.176	82.0549	555.176	80.8955	555.176	81.8398	555.176	81.7185	555.176	82.4135	555.176	82.8227	555.176	83.1682	555.176	83.5047	555.176	83.6041
574.219	90.2143	574.219	89.8629	574.219	90.2614	574.219	89.1888	574.219	90.0229	574.219	88.1729	574.219	89.5289	574.219	86.8097	574.219	88.8399	574.219	85.1566	574.219	88.064	574.219	83.4475	574.219	87.3478	574.219	82.1962	574.219	86.7998	574.219	81.8617	574.219	86.3822	574.219	82.2219	574.219	85.901	574.219	82.7033	574.219	85.1055	574.219	82.9679	574.219	83.7743	574.219	82.9535	574.219	81.784	574.219	82.7891	574.219	79.4553	574.219	82.7286	574.219	78.4999	574.219	82.9705	574.219	79.9799	574.219	83.4331	574.219	81.9171	574.219	83.8136	574.219	83.2253	574.219	83.8143
594.727	90.7716	594.727	90.5589	594.727	90.7958	594.727	90.1419	594.727	90.6526	594.727	89.5103	594.727	90.3677	594.727	88.6614	594.727	89.9713	594.727	87.6046	594.727	89.4926	594.727	86.3651	594.727	88.9505	594.727	84.985	594.727	88.3387	594.727	83.5134	594.727	87.613	594.727	81.9764	594.727	86.6864	594.727	80.3442	594.727	85.4309	594.727	78.5568	594.727	83.6796	594.727	76.7566	594.727	81.2306	594.727	75.8343	594.727	78.0002	594.727	76.793	594.727	75.3138	594.727	78.698	594.727	76.3968	594.727	80.3208	594.727	78.9181	594.727	81.2476	594.727	80.6334	594.727	81.3763
615.234	90.6923	615.234	90.5283	615.234	90.6486	615.234	90.1469	615.234	90.416	615.234	89.547	615.234	90.0271	615.234	88.7411	615.234	89.5333	615.234	87.7638	615.234	89.0031	615.234	86.6788	615.234	88.5016	615.234	85.5722	615.234	88.05	615.234	84.5166	615.234	87.5905	615.234	83.5119	615.234	86.9908	615.234	82.4493	615.234	86.0765	615.234	81.1372	615.234	84.6521	615.234	79.385	615.234	82.486	615.234	77.2458	615.234	79.3036	615.234	75.7701	615.234	75.3531	615.234	76.538	615.234	74.4805	615.234	78.3602	615.234	77.2079	615.234	79.66	615.234	79.2314	615.234	79.998
637.207	89.6725	637.207	89.522	637.207	89.6715	637.207	89.2095	637.207	89.5435	637.207	88.7402	637.207	89.3214	637.207	88.136	637.207	89.0407	637.207	87.4313	637.207	88.7315	637.207	86.6654	637.207	88.4104	637.207	85.8672	637.207	88.0731	637.207	85.0348	637.207	87.6851	637.207	84.1174	637.207	87.1766	637.207	83.0083	637.207	86.4429	637.207	81.5538	637.207	85.3499	637.207	79.5848	637.207	83.7361	637.207	77.0601	637.207	81.4098	637.207	74.7266	637.207	78.2169	637.207	74.555	637.207	74.7686	637.207	76.0114	637.207	74.1025	637.207	77.0655	637.207	75.8674	637.207	77.0527
659.18	89.461	659.18	89.334	659.18	89.3726	659.18	89.0006	659.18	89.0869	659.18	88.4931	659.18	88.6572	659.18	87.8645	659.18	88.1771	659.18	87.1828	659.18	87.7639	659.18	86.5141	659.18	87.5069	659.18	85.8954	659.18	87.4015	659.18	85.3068	659.18	87.3328	659.18	84.6617	659.18	87.1233	659.18	83.8194	659.18	86.5916	659.18	82.6043	659.18	85.5807	659.18	80.8166	659.18	83.9547	659.18	78.2769	659.18	81.6002	659.18	75.2316	659.18	78.5781	659.18	73.8457	659.18	75.9473	659.18	75.3773	659.18	75.819	659.18	77.0037	659.18	77.0082	659.18	77.5635
682.617	90.0698	682.617	89.77	682.617	89.9805	682.617	89.0874	682.617	89.502	682.617	88.0439	682.617	88.6568	682.617	86.7178	682.617	87.5465	682.617	85.3287	682.617	86.4585	682.617	84.3013	682.617	85.8858	682.617	84.0233	682.617	86.1012	682.617	84.3656	682.617	86.7496	682.617	84.823	682.617	87.2745	682.617	84.9758	682.617	87.3189	682.617	84.5769	682.617	86.6998	682.617	83.4748	682.617	85.3241	682.617	81.6352	682.617	83.2385	682.617	79.5672	682.617	81.073	682.617	79.0611	682.617	80.4762	682.617	80.5494	682.617	81.5483	682.617	82.0935	682.617	82.5828	682.617	82.8106
707.52	90.8134	707.52	90.5846	707.52	90.8051	707.52	90.1139	707.52	90.5512	707.52	89.3885	707.52	90.0298	707.52	88.3948	707.52	89.2103	707.52	87.1266	707.52	88.0637	707.52	85.6017	707.52	86.5913	707.52	83.9086	707.52	84.919	707.52	82.2996	707.52	83.4652	707.52	81.1704	707.52	82.7734	707.52	80.628	707.52	82.6841	707.52	80.1983	707.52	82.4022	707.52	79.2643	707.52	81.2626	707.52	77.4197	707.52	78.7014	707.52	74.8858	707.52	73.7527	707.52	74.1959	707.52	68.4248	707.52	76.4023	707.52	74.0616	707.52	78.296	707.52	77.601	707.52	78.7887
732.422	90.1645	732.422	89.9546	732.422	90.2142	732.422	89.5691	732.422	90.1052	732.422	88.9875	732.422	89.8204	732.422	88.1902	732.422	89.3268	732.422	87.1645	732.422	88.5871	732.422	85.9143	732.422	87.5821	732.422	84.4937	732.422	86.3539	732.422	83.0653	732.422	85.0735	732.422	81.8943	732.422	84.035	732.422	81.109	732.422	83.3833	732.422	80.4575	732.422	82.8367	732.422	79.5022	732.422	81.8921	732.422	77.9549	732.422	80.0874	732.422	76.0237	732.422	77.0145	732.422	75.0284	732.422	72.9859	732.422	75.8504	732.422	72.6758	732.422	76.8941	732.422	75.4296	732.422	76.9082
757.324	89.6922	757.324	89.6357	757.324	89.6066	757.324	89.4189	757.324	89.3985	757.324	89.0315	757.324	89.0811	757.324	88.474	757.324	88.6577	757.324	87.7578	757.324	88.1256	757.324	86.905	757.324	87.4909	757.324	85.9485	757.324	86.7836	757.324	84.9305	757.324	86.0619	757.324	83.8833	757.324	85.3777	757.324	82.7799	757.324	84.7055	757.324	81.4797	757.324	83.897	757.324	79.7146	757.324	82.7089	757.324	77.111	757.324	80.834	757.324	73.3359	757.324	77.8505	757.324	69.9042	757.324	73.0997	757.324	71.1555	757.324	67.7781	757.324	72.9907	757.324	70.3154	757.324	72.8616
785.156	89.1514	785.156	89.0781	785.156	89.0865	785.156	88.8597	785.156	88.9101	785.156	88.5121	785.156	88.6519	785.156	88.0641	785.156	88.3238	785.156	87.5432	785.156	87.9142	785.156	86.9662	785.156	87.4076	785.156	86.3367	785.156	86.8128	785.156	85.6412	785.156	86.1768	785.156	84.8317	785.156	85.5573	785.156	83.7994	785.156	84.9502	785.156	82.3526	785.156	84.2278	785.156	80.1937	785.156	83.1563	785.156	76.8587	785.156	81.4523	785.156	71.8919	785.156	78.8128	785.156	69.7346	785.156	75.1452	785.156	73.3374	785.156	72.5344	785.156	75.4044	785.156	73.9373	785.156	75.4927
811.523	89.4389	811.523	89.3165	811.523	89.3595	811.523	88.9917	811.523	89.0852	811.523	88.4718	811.523	88.6207	811.523	87.7721	811.523	87.9616	811.523	86.9246	811.523	87.1052	811.523	86.0132	811.523	86.0965	811.523	85.2126	811.523	85.1067	811.523	84.7283	811.523	84.4537	811.523	84.5783	811.523	84.3422	811.523	84.4964	811.523	84.5378	811.523	84.1197	811.523	84.5658	811.523	83.1381	811.523	84.0518	811.523	81.2709	811.523	82.7647	811.523	78.2353	811.523	80.5865	811.523	74.4104	811.523	77.8136	811.523	73.6639	811.523	76.1148	811.523	75.7863	811.523	76.505	811.523	76.8319
840.82	89.6891	840.82	89.7001	840.82	89.4811	840.82	89.5062	840.82	89.1173	840.82	89.1252	840.82	88.6577	840.82	88.5826	840.82	88.1467	840.82	87.8974	840.82	87.5879	840.82	87.0856	840.82	86.9573	840.82	86.1858	840.82	86.2503	840.82	85.2808	840.82	85.5212	840.82	84.4624	840.82	84.8732	840.82	83.7222	840.82	84.3453	840.82	82.8711	840.82	83.7644	840.82	81.5775	840.82	82.7662	840.82	79.4294	840.82	80.9163	840.82	76.0397	840.82	77.7399	840.82	72.7004	840.82	73.4117	840.82	74.2417	840.82	73.2181	840.82	76.7197	840.82	76.1616	840.82	77.418
870.117	89.483	870.117	89.4745	870.117	89.2163	870.117	89.1894	870.117	88.6987	870.117	88.643	870.117	87.9765	870.117	87.8603	870.117	87.1081	870.117	86.8826	870.117	86.1527	870.117	85.799	870.117	85.1814	870.117	84.7927	870.117	84.3236	870.117	84.104	870.117	83.797	870.117	83.8162	870.117	83.7642	870.117	83.7001	870.117	84.0651	870.117	83.3746	870.117	84.2705	870.117	82.4871	870.117	83.9636	870.117	80.7094	870.117	82.8139	870.117	77.6709	870.117	80.4642	870.117	73.3801	870.117	76.374	870.117	71.6105	870.117	70.7856	870.117	73.4342	870.117	71.291	870.117	73.6622
900.879	90.19	900.879	90.0084	900.879	90.0627	900.879	89.5284	900.879	89.6138	900.879	88.7625	900.879	88.8255	900.879	87.7288	900.879	87.6749	900.879	86.4687	900.879	86.1501	900.879	85.1034	900.879	84.32	900.879	83.9286	900.879	82.5674	900.879	83.3528	900.879	81.8173	900.879	83.4352	900.879	82.4691	900.879	83.7037	900.879	83.5383	900.879	83.6239	900.879	84.1543	900.879	82.8327	900.879	83.9925	900.879	81.0461	900.879	82.9113	900.879	78.0384	900.879	80.7898	900.879	74.7033	900.879	77.7954	900.879	75.0066	900.879	75.827	900.879	76.9929	900.879	76.6862	900.879	77.5887
933.105	88.7974	933.105	88.9151	933.105	88.577	933.105	88.8632	933.105	88.3126	933.105	88.574	933.105	88.0169	933.105	87.9633	933.105	87.6229	933.105	86.917	933.105	86.9864	933.105	85.3036	933.105	85.9055	933.105	83.0556	933.105	84.124	933.105	80.5061	933.105	81.3641	933.105	79.0525	933.105	77.9994	933.105	79.5778	933.105	77.4735	933.105	80.5286	933.105	79.7091	933.105	80.7031	933.105	80.9807	933.105	79.6352	933.105	80.5488	933.105	76.9948	933.105	78.1168	933.105	73.5336	933.105	73.1724	933.105	74.3597	933.105	71.5512	933.105	76.955	933.105	75.8286	933.105	77.605
965.332	88.9396	965.332	89.0794	965.332	88.549	965.332	88.9511	965.332	87.9813	965.332	88.5672	965.332	87.3653	965.332	87.939	965.332	86.8156	965.332	87.0513	965.332	86.3206	965.332	85.8556	965.332	85.7147	965.332	84.2928	965.332	84.7618	965.332	82.3748	965.332	83.23	965.332	80.4314	965.332	81.0379	965.332	79.3859	965.332	79.022	965.332	79.6216	965.332	79.1406	965.332	80.003	965.332	80.3444	965.332	79.5075	965.332	80.5913	965.332	77.7164	965.332	79.189	965.332	74.9255	965.332	75.6936	965.332	73.694	965.332	71.0012	965.332	74.7819	965.332	72.4788	965.332	74.8074
1000.49	87.9865	1000.49	88.1363	1000.49	87.5145	1000.49	87.9572	1000.49	86.7773	1000.49	87.4841	1000.49	85.9043	1000.49	86.7942	1000.49	85.1023	1000.49	85.9925	1000.49	84.5622	1000.49	85.1713	1000.49	84.2726	1000.49	84.3623	1000.49	83.9856	1000.49	83.5308	1000.49	83.4023	1000.49	82.6268	1000.49	82.3714	1000.49	81.6276	1000.49	81.1156	1000.49	80.4807	1000.49	80.3278	1000.49	78.9725	1000.49	80.2339	1000.49	76.6579	1000.49	79.9213	1000.49	72.9132	1000.49	78.3454	1000.49	68.8134	1000.49	74.4064	1000.49	70.8798	1000.49	65.7965	1000.49	73.3422	1000.49	68.4779	1000.49	72.9708
1035.64	88.8165	1035.64	88.8784	1035.64	88.4129	1035.64	88.562	1035.64	87.7298	1035.64	87.8578	1035.64	86.8463	1035.64	86.7768	1035.64	85.838	1035.64	85.3472	1035.64	84.7474	1035.64	83.6402	1035.64	83.5665	1035.64	81.8941	1035.64	82.2805	1035.64	80.6923	1035.64	81.0198	1035.64	80.5677	1035.64	80.2179	1035.64	81.1249	1035.64	80.2729	1035.64	81.5467	1035.64	80.8595	1035.64	81.2936	1035.64	81.2349	1035.64	79.9814	1035.64	80.7888	1035.64	77.168	1035.64	79.0161	1035.64	72.9223	1035.64	75.4583	1035.64	72.5003	1035.64	71.9955	1035.64	75.2433	1035.64	74.0856	1035.64	75.8995
1072.27	88.2632	1072.27	88.5453	1072.27	87.6971	1072.27	88.5053	1072.27	86.9131	1072.27	88.1148	1072.27	86.021	1072.27	87.3396	1072.27	85.1614	1072.27	86.1252	1072.27	84.4247	1072.27	84.387	1072.27	83.7358	1072.27	82.0203	1072.27	82.8425	1072.27	79.0651	1072.27	81.4377	1072.27	76.685	1072.27	79.3399	1072.27	77.2211	1072.27	77.1002	1072.27	79.0115	1072.27	76.9343	1072.27	79.9555	1072.27	78.5704	1072.27	79.6067	1072.27	79.4459	1072.27	77.8867	1072.27	78.6373	1072.27	75.0964	1072.27	75.6986	1072.27	73.2135	1072.27	70.4874	1072.27	73.4317	1072.27	69.8528	1072.27	72.8097
1108.89	88.5383	1108.89	88.7341	1108.89	87.9782	1108.89	88.5565	1108.89	87.0939	1108.89	88.0278	1108.89	85.9683	1108.89	87.1939	1108.89	84.7456	1108.89	86.0928	1108.89	83.6172	1108.89	84.7061	1108.89	82.6996	1108.89	82.9171	1108.89	81.8582	1108.89	80.477	1108.89	80.7174	1108.89	77.0842	1108.89	78.9274	1108.89	73.781	1108.89	76.8781	1108.89	74.6992	1108.89	76.7607	1108.89	76.8565	1108.89	78.4689	1108.89	77.3721	1108.89	79.3905	1108.89	76.057	1108.89	78.4911	1108.89	73.7156	1108.89	75.0497	1108.89	73.5662	1108.89	68.6041	1108.89	75.0325	1108.89	71.2	1108.89	74.7248
1148.44	87.9952	1148.44	88.2206	1148.44	87.3533	1148.44	87.9834	1148.44	86.4132	1148.44	87.3185	1148.44	85.3582	1148.44	86.3497	1148.44	84.3985	1148.44	85.2571	1148.44	83.6698	1148.44	84.1696	1148.44	83.1217	1148.44	83.0389	1148.44	82.5106	1148.44	81.625	1148.44	81.4834	1148.44	79.6427	1148.44	79.6336	1148.44	77.1236	1148.44	76.6338	1148.44	75.1237	1148.44	73.9171	1148.44	74.7296	1148.44	75.4357	1148.44	74.5716	1148.44	77.4891	1148.44	73.5395	1148.44	77.5839	1148.44	72.7624	1148.44	75.3413	1148.44	74.0276	1148.44	71.2698	1148.44	75.318	1148.44	71.9558	1148.44	74.7753
1189.45	87.9335	1189.45	87.9885	1189.45	87.4533	1189.45	87.6152	1189.45	86.5947	1189.45	86.8596	1189.45	85.4656	1189.45	85.8364	1189.45	84.2618	1189.45	84.7201	1189.45	83.2658	1189.45	83.6476	1189.45	82.7015	1189.45	82.5693	1189.45	82.4183	1189.45	81.2253	1189.45	81.8856	1189.45	79.3329	1189.45	80.5205	1189.45	77.0061	1189.45	77.7756	1189.45	75.3282	1189.45	73.7571	1189.45	74.859	1189.45	73.6651	1189.45	73.8629	1189.45	76.2922	1189.45	70.4727	1189.45	76.5606	1189.45	65.3508	1189.45	73.4491	1189.45	70.4643	1189.45	62.1069	1189.45	73.7455	1189.45	67.7842	1189.45	73.3525
1230.47	87.0592	1230.47	87.105	1230.47	86.6799	1230.47	86.7852	1230.47	85.9928	1230.47	86.0973	1230.47	85.0171	1230.47	85.127	1230.47	83.8095	1230.47	84.0887	1230.47	82.5891	1230.47	83.241	1230.47	81.8618	1230.47	82.6197	1230.47	81.9369	1230.47	81.8997	1230.47	82.2579	1230.47	80.6393	1230.47	82.0121	1230.47	78.6072	1230.47	80.5807	1230.47	76.1483	1230.47	77.3429	1230.47	74.3896	1230.47	72.5209	1230.47	73.4126	1230.47	72.4642	1230.47	71.6047	1230.47	74.2094	1230.47	68.2605	1230.47	73.0231	1230.47	67.2526	1230.47	67.942	1230.47	68.996	1230.47	62.5234	1230.47	67.9172
1274.41	86.3677	1274.41	86.7874	1274.41	85.6806	1274.41	86.7814	1274.41	84.8852	1274.41	86.2631	1274.41	84.0661	1274.41	85.2673	1274.41	83.1843	1274.41	83.9705	1274.41	82.0899	1274.41	82.6352	1274.41	80.6933	1274.41	81.4238	1274.41	79.2565	1274.41	80.2425	1274.41	78.3211	1274.41	78.9139	1274.41	77.9017	1274.41	77.5832	1274.41	77.3168	1274.41	76.7029	1274.41	76.1224	1274.41	76.1186	1274.41	74.9812	1274.41	74.8791	1274.41	74.9541	1274.41	71.887	1274.41	75.0069	1274.41	66.0997	1274.41	73.5566	1274.41	64.9022	1274.41	69.3371	1274.41	67.8372	1274.41	62.3875	1274.41	66.2689
1319.82	86.0414	1319.82	86.3128	1319.82	85.4265	1319.82	86.109	1319.82	84.594	1319.82	85.3725	1319.82	83.6011	1319.82	84.1896	1319.82	82.451	1319.82	82.829	1319.82	81.2085	1319.82	81.6471	1319.82	80.1411	1319.82	80.7556	1319.82	79.5707	1319.82	79.7804	1319.82	79.2927	1319.82	78.1785	1319.82	78.5641	1319.82	75.8498	1319.82	76.5819	1319.82	73.9431	1319.82	72.7958	1319.82	73.6915	1319.82	70.7969	1319.82	73.4017	1319.82	73.7662	1319.82	71.3551	1319.82	75.0706	1319.82	68.0183	1319.82	73.7056	1319.82	69.2597	1319.82	69.6057	1319.82	71.4774	1319.82	67.6449	1319.82	70.8206
1366.7	84.4253	1366.7	84.6144	1366.7	83.8886	1366.7	84.3899	1366.7	83.0919	1366.7	83.7358	1366.7	82.0845	1366.7	82.6768	1366.7	80.839	1366.7	81.276	1366.7	79.3172	1366.7	79.8047	1366.7	77.7982	1366.7	78.9304	1366.7	77.2425	1366.7	78.7747	1366.7	77.9604	1366.7	78.3666	1366.7	78.6706	1366.7	76.9625	1366.7	78.1842	1366.7	74.4198	1366.7	75.6623	1366.7	71.2338	1366.7	69.8735	1366.7	68.8149	1366.7	64.2989	1366.7	67.1321	1366.7	69.1914	1366.7	65.3946	1366.7	69.8641	1366.7	66.956	1366.7	66.6864	1366.7	69.1721	1366.7	65.2659	1366.7	68.6308
1413.57	83.491	1413.57	84.0478	1413.57	82.3987	1413.57	84.0917	1413.57	80.8705	1413.57	83.6968	1413.57	79.1141	1413.57	82.8813	1413.57	77.3309	1413.57	81.5476	1413.57	75.6301	1413.57	79.5545	1413.57	74.1256	1413.57	77.0088	1413.57	73.1437	1413.57	74.9281	1413.57	73.1989	1413.57	74.7509	1413.57	73.9491	1413.57	75.6323	1413.57	74.1612	1413.57	76.1823	1413.57	72.9836	1413.57	75.8577	1413.57	70.3087	1413.57	74.2532	1413.57	67.6438	1413.57	70.5957	1413.57	66.6593	1413.57	63.9651	1413.57	64.522	1413.57	65.0063	1413.57	55.3475	1413.57	68.0283	1413.57	59.4912	1413.57	66.7945
1463.38	88.7079	1463.38	89.5106	1463.38	87.3091	1463.38	89.7034	1463.38	85.5106	1463.38	89.3561	1463.38	83.811	1463.38	88.5592	1463.38	82.8465	1463.38	87.387	1463.38	82.5974	1463.38	85.8718	1463.38	82.1225	1463.38	83.9404	1463.38	80.5655	1463.38	81.2871	1463.38	78.5512	1463.38	77.354	1463.38	78.9503	1463.38	73.8112	1463.38	80.7454	1463.38	76.7299	1463.38	81.0741	1463.38	79.6192	1463.38	79.0969	1463.38	80.1383	1463.38	75.7656	1463.38	77.8999	1463.38	75.6694	1463.38	72.3555	1463.38	76.4068	1463.38	72.365	1463.38	73.5895	1463.38	74.6456	1463.38	60.5074	1463.38	71.2182
1516.11	92.5596	1516.11	93.1255	1516.11	91.5759	1516.11	93.2038	1516.11	90.3357	1516.11	92.7662	1516.11	89.0866	1516.11	91.8172	1516.11	88.0527	1516.11	90.4296	1516.11	87.4485	1516.11	88.7876	1516.11	87.2487	1516.11	87.1779	1516.11	86.8147	1516.11	85.7485	1516.11	85.5928	1516.11	84.0752	1516.11	83.7012	1516.11	81.3005	1516.11	82.5913	1516.11	77.3778	1516.11	83.0394	1516.11	77.4483	1516.11	82.8906	1516.11	79.5865	1516.11	81.93	1516.11	78.592	1516.11	82.0365	1516.11	73.3354	1516.11	82.2991	1516.11	73.8545	1516.11	79.9704	1516.11	76.6169	1516.11	71.48	1516.11	72.4674
1568.85	91.876	1568.85	92.2524	1568.85	91.211	1568.85	92.1692	1568.85	90.4839	1568.85	91.6269	1568.85	89.7711	1568.85	90.7771	1568.85	88.9162	1568.85	89.7533	1568.85	87.7551	1568.85	88.4914	1568.85	86.4589	1568.85	86.833	1568.85	85.5116	1568.85	84.8677	1568.85	85.0523	1568.85	82.9355	1568.85	84.6909	1568.85	81.056	1568.85	84.1065	1568.85	79.1216	1568.85	83.1528	1568.85	78.2944	1568.85	81.5827	1568.85	78.623	1568.85	80.0723	1568.85	77.307	1568.85	80.7341	1568.85	72.3326	1568.85	81.701	1568.85	71.0937	1568.85	80.2624	1568.85	74.1457	1568.85	75.1743	1568.85	72.1894
1624.51	91.2762	1624.51	91.5219	1624.51	90.647	1624.51	91.2783	1624.51	89.785	1624.51	90.572	1624.51	88.8016	1624.51	89.5215	1624.51	87.7815	1624.51	88.2143	1624.51	86.8133	1624.51	86.6305	1624.51	85.9967	1624.51	84.6733	1624.51	85.3203	1624.51	82.4252	1624.51	84.5375	1624.51	80.3264	1624.51	83.3771	1624.51	78.7238	1624.51	82.1913	1624.51	77.6907	1624.51	81.6531	1624.51	77.4624	1624.51	80.5833	1624.51	77.4343	1624.51	77.7388	1624.51	75.886	1624.51	75.8275	1624.51	71.3792	1624.51	77.3864	1624.51	70.6487	1624.51	76.8686	1624.51	73.8853	1624.51	73.4547	1624.51	73.1549
1681.64	90.8758	1681.64	90.8721	1681.64	90.5174	1681.64	90.5632	1681.64	89.7596	1681.64	89.9187	1681.64	88.6023	1681.64	88.7689	1681.64	87.0437	1681.64	86.9509	1681.64	85.2275	1681.64	84.6289	1681.64	83.7536	1681.64	82.5992	1681.64	83.1411	1681.64	81.5895	1681.64	82.874	1681.64	80.7703	1681.64	82.1729	1681.64	78.922	1681.64	81.1795	1681.64	77.1296	1681.64	80.6589	1681.64	77.9371	1681.64	79.9646	1681.64	78.4277	1681.64	78.1733	1681.64	76.3121	1681.64	76.08	1681.64	69.4083	1681.64	75.4223	1681.64	68.4439	1681.64	73.626	1681.64	73.4467	1681.64	69.1714	1681.64	72.0928
1741.7	89.6673	1741.7	89.8286	1741.7	89.3381	1741.7	89.6027	1741.7	88.8736	1741.7	88.7709	1741.7	88.099	1741.7	87.2844	1741.7	86.7757	1741.7	85.409	1741.7	84.8281	1741.7	83.854	1741.7	82.9355	1741.7	83.2855	1741.7	82.4524	1741.7	83.3144	1741.7	82.6283	1741.7	82.5362	1741.7	81.4835	1741.7	79.4741	1741.7	77.6828	1741.7	72.7075	1741.7	73.2028	1741.7	70.2726	1741.7	75.0263	1741.7	74.2019	1741.7	75.4119	1741.7	73.8614	1741.7	74.3565	1741.7	68.0371	1741.7	74.5321	1741.7	64.6012	1741.7	72.9965	1741.7	70.2381	1741.7	66.6599	1741.7	68.0186
1803.22	89.2011	1803.22	89.4976	1803.22	88.5388	1803.22	89.1855	1803.22	87.8058	1803.22	88.1766	1803.22	87.155	1803.22	86.6375	1803.22	86.3385	1803.22	84.9655	1803.22	84.8318	1803.22	83.3692	1803.22	82.4837	1803.22	81.437	1803.22	80.5193	1803.22	79.5643	1803.22	81.0025	1803.22	80.0745	1803.22	81.9936	1803.22	80.3161	1803.22	81.1036	1803.22	77.9741	1803.22	77.9713	1803.22	73.8558	1803.22	74.5515	1803.22	73.2738	1803.22	73.481	1803.22	73.8	1803.22	72.733	1803.22	69.2423	1803.22	73.1598	1803.22	61.4616	1803.22	72.9399	1803.22	69.2924	1803.22	67.9344	1803.22	66.4866
1866.21	88.9121	1866.21	88.9261	1866.21	88.5042	1866.21	88.4749	1866.21	87.7309	1866.21	87.4702	1866.21	86.6062	1866.21	85.9838	1866.21	85.1748	1866.21	84.4233	1866.21	83.5191	1866.21	83.0885	1866.21	81.7349	1866.21	81.4936	1866.21	80.1647	1866.21	78.6568	1866.21	80.1268	1866.21	74.3345	1866.21	80.9121	1866.21	70.4618	1866.21	80.1468	1866.21	68.5991	1866.21	76.7746	1866.21	69.4204	1866.21	73.209	1866.21	72.6306	1866.21	73.977	1866.21	73.7804	1866.21	73.7779	1866.21	69.9995	1866.21	73.0589	1866.21	57.245	1866.21	72.3676	1866.21	66.7576	1866.21	67.4279	1866.21	64.621
1932.13	88.8165	1932.13	88.5363	1932.13	88.5645	1932.13	87.8296	1932.13	87.6396	1932.13	86.7206	1932.13	86.0309	1932.13	85.2692	1932.13	83.9759	1932.13	83.6148	1932.13	81.9329	1932.13	81.6857	1932.13	80.2046	1932.13	78.8934	1932.13	78.482	1932.13	74.3862	1932.13	76.8917	1932.13	69.1134	1932.13	76.871	1932.13	69.1399	1932.13	77.1586	1932.13	71.038	1932.13	75.8259	1932.13	69.7218	1932.13	73.3798	1932.13	70.0701	1932.13	72.6143	1932.13	72.2006	1932.13	72.7735	1932.13	69.7478	1932.13	72.4055	1932.13	59.8095	1932.13	70.8041	1932.13	64.5395	1932.13	64.8039	1932.13	63.3763
1999.51	88.2336	1999.51	88.0481	1999.51	87.8655	1999.51	87.2565	1999.51	86.961	1999.51	85.8946	1999.51	85.4763	1999.51	84.2316	1999.51	83.3683	1999.51	82.6191	1999.51	80.902	1999.51	81.0906	1999.51	78.7653	1999.51	79.3745	1999.51	77.1754	1999.51	77.0091	1999.51	76.571	1999.51	74.0623	1999.51	77.9311	1999.51	70.9626	1999.51	78.9664	1999.51	68.4379	1999.51	77.7191	1999.51	65.7692	1999.51	73.5891	1999.51	66.1737	1999.51	70.4275	1999.51	68.3142	1999.51	71.9884	1999.51	66.6129	1999.51	71.7818	1999.51	62.24	1999.51	70.0996	1999.51	63.648	1999.51	65.1993	1999.51	61.533
2069.82	88.1851	2069.82	87.8488	2069.82	87.5806	2069.82	86.6899	2069.82	86.2075	2069.82	85.1734	2069.82	84.3183	2069.82	83.7497	2069.82	82.0024	2069.82	82.2609	2069.82	79.4733	2069.82	80.3747	2069.82	77.5335	2069.82	78.0948	2069.82	76.3281	2069.82	75.4548	2069.82	75.4351	2069.82	72.2393	2069.82	75.1896	2069.82	70.3002	2069.82	76.1276	2069.82	70.4374	2069.82	76.7601	2069.82	67.9947	2069.82	75.1578	2069.82	65.0854	2069.82	71.58	2069.82	65.4972	2069.82	71.5897	2069.82	62.9383	2069.82	72.4511	2069.82	60.4958	2069.82	70.8146	2069.82	63.6508	2069.82	66.3281	2069.82	62.2471
2143.07	88.6087	2143.07	88.0507	2143.07	87.9262	2143.07	86.7805	2143.07	85.8801	2143.07	85.3702	2143.07	82.7928	2143.07	83.7349	2143.07	79.3236	2143.07	81.3537	2143.07	76.5248	2143.07	78.1163	2143.07	75.6038	2143.07	75.0035	2143.07	75.5086	2143.07	72.8331	2143.07	75.6155	2143.07	69.9186	2143.07	75.3798	2143.07	67.3952	2143.07	75.3945	2143.07	67.9036	2143.07	76.2221	2143.07	64.6308	2143.07	75.2133	2143.07	56.0702	2143.07	70.9295	2143.07	63.3646	2143.07	69.4573	2143.07	62.1626	2143.07	71.2521	2143.07	56.089	2143.07	70.0263	2143.07	61.9723	2143.07	66.1249	2143.07	62.5034
2219.24	88.9555	2219.24	88.8663	2219.24	88.3004	2219.24	88.3869	2219.24	86.2282	2219.24	86.8555	2219.24	82.7136	2219.24	83.5722	2219.24	79.1181	2219.24	79.2064	2219.24	78.0166	2219.24	77.0132	2219.24	78.2724	2219.24	76.4861	2219.24	77.4402	2219.24	74.2597	2219.24	76.529	2219.24	68.8449	2219.24	76.5268	2219.24	59.311	2219.24	75.3551	2219.24	59.4023	2219.24	76.1557	2219.24	63.1483	2219.24	77.0402	2219.24	62.4492	2219.24	73.9924	2219.24	60.5434	2219.24	69.1525	2219.24	55.4227	2219.24	72.543	2219.24	57.6958	2219.24	71.4928	2219.24	64.2494	2219.24	67.3257	2219.24	65.3565
2296.88	89.4593	2296.88	89.5261	2296.88	88.6985	2296.88	88.7684	2296.88	86.9622	2296.88	86.7572	2296.88	84.1752	2296.88	83.497	2296.88	81.5814	2296.88	80.656	2296.88	81.0033	2296.88	78.9955	2296.88	81.1365	2296.88	76.5128	2296.88	80.6627	2296.88	71.386	2296.88	80.8093	2296.88	64.7754	2296.88	81.2794	2296.88	65.2667	2296.88	78.2271	2296.88	66.9245	2296.88	73.05	2296.88	62.8639	2296.88	76.6387	2296.88	61.4151	2296.88	76.4091	2296.88	64.0475	2296.88	70.7082	2296.88	59.1357	2296.88	72.0725	2296.88	58.5034	2296.88	71.2889	2296.88	66.1992	2296.88	67.4091	2296.88	67.0199
2378.91	90.9248	2378.91	90.2483	2378.91	90.2124	2378.91	88.3793	2378.91	87.731	2378.91	85.6555	2378.91	83.3471	2378.91	83.0086	2378.91	79.5305	2378.91	81.1731	2378.91	79.9765	2378.91	79.2437	2378.91	81.7472	2378.91	76.8605	2378.91	81.8627	2378.91	74.8302	2378.91	81.2447	2378.91	73.0633	2378.91	83.018	2378.91	70.6335	2378.91	82.086	2378.91	67.93	2378.91	77.0531	2378.91	65.1703	2378.91	74.048	2378.91	65.3053	2378.91	77.0813	2378.91	64.5276	2378.91	73.1646	2378.91	59.76	2378.91	68.9031	2378.91	63.4996	2378.91	69.0966	2378.91	65.7679	2378.91	63.3816	2378.91	62.6572
2462.4	91.1124	2462.4	90.6382	2462.4	90.1884	2462.4	88.7345	2462.4	87.4567	2462.4	85.6952	2462.4	82.6148	2462.4	82.7496	2462.4	79.7381	2462.4	80.4665	2462.4	81.422	2462.4	77.6757	2462.4	82.9014	2462.4	74.4019	2462.4	82.642	2462.4	72.1131	2462.4	79.6947	2462.4	69.5864	2462.4	78.3203	2462.4	67.399	2462.4	79.0504	2462.4	66.4445	2462.4	77.8203	2462.4	63.0445	2462.4	77.0867	2462.4	65.6934	2462.4	77.0433	2462.4	65.6561	2462.4	74.298	2462.4	59.8611	2462.4	72.6582	2462.4	66.5922	2462.4	70.4437	2462.4	65.8168	2462.4	67.2961	2462.4	62.3077
2548.83	90.2517	2548.83	90.0263	2548.83	88.8009	2548.83	88.2424	2548.83	85.742	2548.83	85.7025	2548.83	80.5639	2548.83	82.7163	2548.83	79.7178	2548.83	78.739	2548.83	82.9613	2548.83	74.232	2548.83	83.5329	2548.83	69.3733	2548.83	82.5939	2548.83	69.2917	2548.83	81.7842	2548.83	71.2045	2548.83	82.7319	2548.83	69.5907	2548.83	82.5827	2548.83	68.1091	2548.83	78.8945	2548.83	65.5383	2548.83	73.1564	2548.83	65.6183	2548.83	77.1095	2548.83	67.4169	2548.83	74.5624	2548.83	61.6594	2548.83	71.3527	2548.83	65.0915	2548.83	69.3134	2548.83	65.0092	2548.83	64.6142	2548.83	61.4996
2639.65	90.5433	2639.65	89.9607	2639.65	88.9273	2639.65	88.182	2639.65	84.1777	2639.65	85.4259	2639.65	75.9139	2639.65	80.5108	2639.65	79.6709	2639.65	70.8606	2639.65	84.1132	2639.65	51.6491	2639.65	85.4663	2639.65	57.7545	2639.65	83.3511	2639.65	66.3134	2639.65	77.4968	2639.65	68.7436	2639.65	78.8721	2639.65	65.202	2639.65	82.0691	2639.65	59.8253	2639.65	82.8503	2639.65	63.6005	2639.65	78.5762	2639.65	67.1124	2639.65	75.2111	2639.65	66.7054	2639.65	76.4196	2639.65	63.6509	2639.65	73.1806	2639.65	64.3229	2639.65	70.1447	2639.65	60.2198	2639.65	65.5881	2639.65	58.0478
2731.93	90.1086	2731.93	89.9614	2731.93	88.3502	2731.93	88.1597	2731.93	82.9799	2731.93	83.7803	2731.93	74.5523	2731.93	76.4995	2731.93	81.0699	2731.93	71.9233	2731.93	84.7976	2731.93	69.9523	2731.93	86.034	2731.93	68.6369	2731.93	84.2642	2731.93	68.6604	2731.93	79.1416	2731.93	67.7651	2731.93	73.8051	2731.93	66.902	2731.93	77.9696	2731.93	66.0424	2731.93	81.7125	2731.93	65.168	2731.93	80.155	2731.93	64.6066	2731.93	75.1204	2731.93	67.7741	2731.93	73.8472	2731.93	64.3945	2731.93	73.191	2731.93	65.5451	2731.93	70.1269	2731.93	65.4846	2731.93	67.0969	2731.93	59.0746
2828.61	89.6915	2828.61	89.6012	2828.61	87.5664	2828.61	87.3375	2828.61	81.98	2828.61	83.0223	2828.61	76.605	2828.61	78.0436	2828.61	82.7151	2828.61	72.5849	2828.61	85.0297	2828.61	68.1866	2828.61	85.4402	2828.61	69.4536	2828.61	83.706	2828.61	68.8929	2828.61	78.6211	2828.61	67.2754	2828.61	75.5958	2828.61	68.5382	2828.61	80.1325	2828.61	68.9217	2828.61	82.216	2828.61	67.6663	2828.61	80.5467	2828.61	66.954	2828.61	75.5914	2828.61	68.2394	2828.61	72.7495	2828.61	67.7074	2828.61	72.805	2828.61	66.2738	2828.61	67.3705	2828.61	62.8953	2828.61	65.1059	2828.61	57.3625
2928.22	89.4048	2928.22	89.0393	2928.22	87.1562	2928.22	86.4662	2928.22	80.709	2928.22	82.116	2928.22	74.255	2928.22	75.8102	2928.22	82.611	2928.22	64.5943	2928.22	85.2046	2928.22	67.6352	2928.22	85.3821	2928.22	71.7991	2928.22	82.9437	2928.22	73.5647	2928.22	77.4238	2928.22	73.7837	2928.22	73.1732	2928.22	73.2283	2928.22	77.7935	2928.22	72.0717	2928.22	81.5955	2928.22	69.3791	2928.22	80.6799	2928.22	67.9707	2928.22	75.641	2928.22	69.481	2928.22	72.1272	2928.22	67.4058	2928.22	72.4711	2928.22	68.7441	2928.22	68.1862	2928.22	67.2587	2928.22	66.7473	2928.22	55.2657
3030.76	89.8305	3030.76	89.4665	3030.76	87.2063	3030.76	86.8298	3030.76	79.486	3030.76	82.4448	3030.76	76.1159	3030.76	75.7408	3030.76	83.718	3030.76	59.5773	3030.76	86.1092	3030.76	69.3506	3030.76	85.9687	3030.76	74.7688	3030.76	83.3671	3030.76	75.4895	3030.76	80.3149	3030.76	73.5522	3030.76	77.7545	3030.76	69.5141	3030.76	78.5383	3030.76	68.6974	3030.76	80.1621	3030.76	69.47	3030.76	79.2363	3030.76	68.4175	3030.76	75.4026	3030.76	70.2596	3030.76	72.9785	3030.76	68.3762	3030.76	71.9491	3030.76	67.6594	3030.76	63.7833	3030.76	67.5501	3030.76	66.2891	3030.76	56.5657
3137.7	90.4219	3137.7	89.8512	3137.7	87.8948	3137.7	87.1659	3137.7	80.1069	3137.7	83.0116	3137.7	74.9433	3137.7	74.7701	3137.7	84.4411	3137.7	64.0617	3137.7	86.7756	3137.7	73.5573	3137.7	86.1685	3137.7	74.3118	3137.7	84.5998	3137.7	73.7795	3137.7	83.4594	3137.7	74.4313	3137.7	80.1919	3137.7	75.1376	3137.7	77.818	3137.7	74.3103	3137.7	78.268	3137.7	73.3037	3137.7	78.0602	3137.7	70.3961	3137.7	74.5383	3137.7	71.9951	3137.7	72.4557	3137.7	71.1466	3137.7	72.1787	3137.7	69.333	3137.7	63.3353	3137.7	69.3616	3137.7	65.8263	3137.7	56.1465
3249.02	90.7861	3249.02	89.9255	3249.02	88.101	3249.02	87.492	3249.02	77.9816	3249.02	82.8271	3249.02	76.9328	3249.02	69.8548	3249.02	84.6947	3249.02	74.0901	3249.02	87.2967	3249.02	76.8499	3249.02	87.0053	3249.02	78.4551	3249.02	85.1926	3249.02	79.3426	3249.02	83.1747	3249.02	78.8773	3249.02	79.8095	3249.02	76.7547	3249.02	78.656	3249.02	75.3238	3249.02	77.1273	3249.02	74.3654	3249.02	76.2443	3249.02	71.8566	3249.02	73.9206	3249.02	72.9221	3249.02	70.5502	3249.02	72.3879	3249.02	71.5825	3249.02	69.7198	3249.02	63.2711	3249.02	68.8348	3249.02	65.2985	3249.02	61.3095
3363.28	90.0509	3363.28	89.783	3363.28	88.2736	3363.28	88.2338	3363.28	79.7585	3363.28	82.5452	3363.28	78.2322	3363.28	74.3852	3363.28	85.9431	3363.28	75.7957	3363.28	87.9189	3363.28	78.8873	3363.28	86.8856	3363.28	81.1202	3363.28	84.0201	3363.28	80.3488	3363.28	81.7562	3363.28	77.8362	3363.28	77.2413	3363.28	75.2374	3363.28	78.5461	3363.28	73.4678	3363.28	76.8804	3363.28	73.8693	3363.28	73.7533	3363.28	72.7136	3363.28	72.664	3363.28	72.4691	3363.28	69.5025	3363.28	72.9853	3363.28	70.0456	3363.28	68.0608	3363.28	66.6635	3363.28	68.6084	3363.28	66.6289	3363.28	60.3368
3481.93	90.1358	3481.93	90.2857	3481.93	88.0524	3481.93	87.9981	3481.93	80.6302	3481.93	82.101	3481.93	79.4432	3481.93	77.0279	3481.93	86.3174	3481.93	78.4493	3481.93	88.1029	3481.93	80.77	3481.93	86.4038	3481.93	79.9946	3481.93	82.7533	3481.93	77.7875	3481.93	81.0043	3481.93	76.525	3481.93	72.2832	3481.93	76.1329	3481.93	74.066	3481.93	75.4792	3481.93	74.5992	3481.93	74.6236	3481.93	71.9723	3481.93	73.623	3481.93	71.3878	3481.93	72.8873	3481.93	67.5117	3481.93	73.8716	3481.93	69.4501	3481.93	68.9091	3481.93	65.2049	3481.93	69.2083	3481.93	67.4541	3481.93	60.7035
3604.98	89.3761	3604.98	90.019	3604.98	86.4834	3604.98	87.7395	3604.98	80.8052	3604.98	82.8955	3604.98	80.392	3604.98	79.2128	3604.98	86.2893	3604.98	80.4824	3604.98	87.8337	3604.98	81.1936	3604.98	85.232	3604.98	80.003	3604.98	81.2616	3604.98	79.3532	3604.98	79.9711	3604.98	79.0777	3604.98	73.6047	3604.98	77.2735	3604.98	70.3142	3604.98	75.857	3604.98	61.5183	3604.98	75.2414	3604.98	65.5832	3604.98	74.3481	3604.98	67.5462	3604.98	73.0364	3604.98	63.7745	3604.98	74.5099	3604.98	67.8264	3604.98	68.9302	3604.98	61.9856	3604.98	68.9902	3604.98	65.0603	3604.98	58.9032
3732.42	89.2267	3732.42	89.7869	3732.42	86.2288	3732.42	87.8121	3732.42	81.2532	3732.42	83.188	3732.42	83.0128	3732.42	79.6199	3732.42	85.8632	3732.42	81.5387	3732.42	86.7374	3732.42	81.3172	3732.42	84.5339	3732.42	81.5304	3732.42	82.4982	3732.42	80.7878	3732.42	81.328	3732.42	78.5326	3732.42	76.3256	3732.42	76.4951	3732.42	75.9685	3732.42	74.6556	3732.42	74.3849	3732.42	74.4831	3732.42	65.1285	3732.42	74.1231	3732.42	66.0217	3732.42	73.1008	3732.42	59.8826	3732.42	74.1544	3732.42	64.1776	3732.42	70.6311	3732.42	59.946	3732.42	68.0985	3732.42	63.4909	3732.42	61.8511
3864.26	88.366	3864.26	89.8635	3864.26	84.9591	3864.26	87.7934	3864.26	82.7252	3864.26	83.3944	3864.26	83.8142	3864.26	81.0242	3864.26	86.5097	3864.26	81.3689	3864.26	85.4566	3864.26	81.9437	3864.26	83.4643	3864.26	81.3367	3864.26	84.1723	3864.26	79.0412	3864.26	82.578	3864.26	77.6855	3864.26	76.8046	3864.26	76.5866	3864.26	76.5952	3864.26	75.0734	3864.26	79.6608	3864.26	74.595	3864.26	75.2146	3864.26	74.1968	3864.26	71.1623	3864.26	73.5215	3864.26	63.9637	3864.26	74.2216	3864.26	65.2511	3864.26	71.6641	3864.26	60.6569	3864.26	65.81	3864.26	64.8778	3864.26	58.726
4000.49	88.44	4000.49	89.4209	4000.49	83.9048	4000.49	87.8258	4000.49	83.8161	4000.49	83.5587	4000.49	85.6147	4000.49	80.4327	4000.49	86.7013	4000.49	81.7468	4000.49	86.4542	4000.49	82.4458	4000.49	85.064	4000.49	81.5158	4000.49	84.9239	4000.49	79.6551	4000.49	80.7906	4000.49	78.4831	4000.49	69.4548	4000.49	76.7458	4000.49	75.3232	4000.49	75.058	4000.49	78.2798	4000.49	74.5109	4000.49	73.6889	4000.49	73.5424	4000.49	68.9053	4000.49	73.6711	4000.49	62.2642	4000.49	73.8577	4000.49	66.9197	4000.49	72.1734	4000.49	62.0686	4000.49	64.4577	4000.49	66.2603	4000.49	59.2411
4141.11	87.5471	4141.11	89.4525	4141.11	82.885	4141.11	87.9282	4141.11	83.851	4141.11	82.8863	4141.11	87.0153	4141.11	81.9675	4141.11	87.4422	4141.11	83.1365	4141.11	86.5381	4141.11	83.1386	4141.11	85.9731	4141.11	82.3012	4141.11	84.7095	4141.11	80.8845	4141.11	79.1028	4141.11	79.2896	4141.11	74.0114	4141.11	76.293	4141.11	75.8318	4141.11	74.6488	4141.11	76.4911	4141.11	73.5564	4141.11	70.5952	4141.11	73.6751	4141.11	65.2687	4141.11	72.6003	4141.11	61.1602	4141.11	74.0457	4141.11	65.6336	4141.11	71.6497	4141.11	61.1335	4141.11	65.3085	4141.11	62.2838	4141.11	58.9383
4287.6	87.9354	4287.6	89.7781	4287.6	81.961	4287.6	87.7697	4287.6	84.5204	4287.6	82.8037	4287.6	87.5919	4287.6	81.7611	4287.6	87.7839	4287.6	83.4799	4287.6	85.2143	4287.6	83.7044	4287.6	84.1741	4287.6	82.2418	4287.6	83.6881	4287.6	78.8348	4287.6	78.8969	4287.6	76.463	4287.6	76.4416	4287.6	76.1289	4287.6	75.7943	4287.6	74.5567	4287.6	72.0087	4287.6	74.2299	4287.6	63.9902	4287.6	72.5551	4287.6	69.1369	4287.6	72.3339	4287.6	65.5974	4287.6	73.0842	4287.6	64.9057	4287.6	71.6734	4287.6	61.8334	4287.6	64.6449	4287.6	64.3642	4287.6	51.8523
4438.48	88.1641	4438.48	89.9806	4438.48	81.1302	4438.48	87.5258	4438.48	84.4393	4438.48	81.3443	4438.48	88.2703	4438.48	83.4069	4438.48	88.1152	4438.48	84.1253	4438.48	85.2163	4438.48	83.2178	4438.48	83.6572	4438.48	81.9212	4438.48	81.5181	4438.48	79.8391	4438.48	76.7091	4438.48	78.7834	4438.48	76.3012	4438.48	75.9438	4438.48	70.8504	4438.48	72.8076	4438.48	69.6193	4438.48	72.7901	4438.48	61.2962	4438.48	72.2978	4438.48	69.4495	4438.48	72.1951	4438.48	65.0774	4438.48	71.2053	4438.48	63.1354	4438.48	72.2946	4438.48	57.8795	4438.48	63.4587	4438.48	63.7835	4438.48	62.3475
4595.21	88.5206	4595.21	89.8713	4595.21	80.438	4595.21	86.1562	4595.21	84.9173	4595.21	81.775	4595.21	88.3747	4595.21	83.3559	4595.21	87.7031	4595.21	84.9096	4595.21	84.7215	4595.21	84.0446	4595.21	81.7778	4595.21	82.4858	4595.21	79.6038	4595.21	78.3915	4595.21	75.754	4595.21	74.9289	4595.21	69.0766	4595.21	74.7812	4595.21	71.9913	4595.21	73.578	4595.21	76.3999	4595.21	72.6098	4595.21	72.1363	4595.21	72.3134	4595.21	65.2363	4595.21	70.4035	4595.21	56.2177	4595.21	71.4196	4595.21	64.1806	4595.21	70.8765	4595.21	63.4673	4595.21	62.9146	4595.21	62.1494	4595.21	64.6519
4756.35	89.0237	4756.35	89.3896	4756.35	81.49	4756.35	85.3554	4756.35	84.0945	4756.35	81.9775	4756.35	88.6704	4756.35	84.9986	4756.35	87.5004	4756.35	84.8388	4756.35	84.4863	4756.35	83.3524	4756.35	80.1157	4756.35	80.9367	4756.35	77.4051	4756.35	78.194	4756.35	74.4454	4756.35	76.5612	4756.35	67.9271	4756.35	73.0077	4756.35	68.4307	4756.35	70.1036	4756.35	74.4644	4756.35	70.5039	4756.35	69.7825	4756.35	70.6085	4756.35	63.1682	4756.35	69.0425	4756.35	63.8688	4756.35	70.6583	4756.35	64.7699	4756.35	69.9359	4756.35	65.9902	4756.35	64.3944	4756.35	62.132	4756.35	61.9024
4924.8	89.1782	4924.8	88.9524	4924.8	81.9297	4924.8	85.3384	4924.8	83.2393	4924.8	83.5842	4924.8	88.4604	4924.8	85.8224	4924.8	87.9755	4924.8	85.6313	4924.8	83.8391	4924.8	83.4279	4924.8	79.483	4924.8	80.9608	4924.8	76.1354	4924.8	77.4928	4924.8	76.1448	4924.8	74.2053	4924.8	73.2359	4924.8	73.1105	4924.8	70.4597	4924.8	71.6075	4924.8	67.3522	4924.8	70.7535	4924.8	61.1579	4924.8	71.3358	4924.8	57.8931	4924.8	68.5985	4924.8	61.9478	4924.8	70.4339	4924.8	61.7362	4924.8	68.8508	4924.8	62.8266	4924.8	64.9116	4924.8	59.7727	4924.8	60.4071
5097.66	89.8141	5097.66	89.0414	5097.66	83.9087	5097.66	85.8332	5097.66	83.8842	5097.66	84.6618	5097.66	88.8866	5097.66	86.3125	5097.66	87.87	5097.66	84.4654	5097.66	83.4983	5097.66	82.4426	5097.66	79.7173	5097.66	79.5685	5097.66	75.716	5097.66	76.6301	5097.66	78.0052	5097.66	74.5716	5097.66	73.1431	5097.66	71.8427	5097.66	71.9157	5097.66	69.5448	5097.66	72.9717	5097.66	69.0477	5097.66	71.5697	5097.66	71.0853	5097.66	64.1927	5097.66	67.0151	5097.66	60.6667	5097.66	70.178	5097.66	58.0422	5097.66	68.6897	5097.66	62.5	5097.66	63.9098	5097.66	57.4416	5097.66	58.6658
5277.83	89.756	5277.83	89.341	5277.83	85.7162	5277.83	86.1507	5277.83	83.7098	5277.83	85.4283	5277.83	88.9823	5277.83	86.1537	5277.83	87.4665	5277.83	84.9473	5277.83	83.1556	5277.83	82.2063	5277.83	80.2691	5277.83	80.3921	5277.83	78.4382	5277.83	77.823	5277.83	77.9051	5277.83	75.2695	5277.83	74.3812	5277.83	73.4879	5277.83	69.4793	5277.83	71.8289	5277.83	73.8167	5277.83	68.8869	5277.83	69.3124	5277.83	71.7558	5277.83	63.6282	5277.83	67.7923	5277.83	64.5878	5277.83	70.0929	5277.83	59.158	5277.83	67.5005	5277.83	57.3125	5277.83	64.1143	5277.83	59.4214	5277.83	57.0405
5463.87	90.3599	5463.87	89.4931	5463.87	87.0232	5463.87	85.9727	5463.87	82.6236	5463.87	85.9604	5463.87	88.9228	5463.87	86.1499	5463.87	87.5569	5463.87	84.534	5463.87	82.4804	5463.87	83.0975	5463.87	79.9743	5463.87	80.7034	5463.87	79.93	5463.87	77.5938	5463.87	77.1215	5463.87	75.0105	5463.87	75.7879	5463.87	72.5063	5463.87	51.2831	5463.87	70.618	5463.87	72.8266	5463.87	69.8881	5463.87	70.9323	5463.87	71.3488	5463.87	68.2243	5463.87	68.642	5463.87	58.9268	5463.87	70.6678	5463.87	63.6693	5463.87	67.6643	5463.87	57.6729	5463.87	63.41	5463.87	56.8485	5463.87	60.4958
5657.23	90.1908	5657.23	89.421	5657.23	87.7284	5657.23	86.1033	5657.23	84.6068	5657.23	86.222	5657.23	89.1649	5657.23	86.0236	5657.23	87.5953	5657.23	84.9872	5657.23	82.2613	5657.23	82.8691	5657.23	80.2748	5657.23	79.978	5657.23	79.4609	5657.23	77.3188	5657.23	76.8689	5657.23	73.7636	5657.23	73.7736	5657.23	71.3696	5657.23	67.4562	5657.23	69.0973	5657.23	71.3015	5657.23	67.4465	5657.23	69.2178	5657.23	68.2708	5657.23	68.6233	5657.23	68.1263	5657.23	55.9178	5657.23	67.4463	5657.23	61.8336	5657.23	66.9813	5657.23	63.9118	5657.23	63.3614	5657.23	53.2135	5657.23	57.5427
5856.45	90.082	5856.45	89.271	5856.45	88.1857	5856.45	86.7759	5856.45	85.4628	5856.45	85.9002	5856.45	89.1464	5856.45	86.3307	5856.45	87.4617	5856.45	84.4544	5856.45	83.0383	5856.45	82.4308	5856.45	80.8199	5856.45	78.4693	5856.45	78.3243	5856.45	74.5357	5856.45	77.6353	5856.45	72.0835	5856.45	75.2451	5856.45	69.9383	5856.45	66.2786	5856.45	67.9064	5856.45	74.2445	5856.45	65.9127	5856.45	69.9333	5856.45	67.518	5856.45	65.2964	5856.45	67.7884	5856.45	59.9731	5856.45	66.1303	5856.45	61.7772	5856.45	65.8425	5856.45	61.8137	5856.45	61.7858	5856.45	55.8102	5856.45	56.2828
6062.99	90.3057	6062.99	89.4507	6062.99	88.3164	6062.99	86.9705	6062.99	86.0754	6062.99	85.6854	6062.99	88.5889	6062.99	86.3022	6062.99	87.3775	6062.99	84.281	6062.99	82.8439	6062.99	80.9872	6062.99	81.2044	6062.99	76.7489	6062.99	79.2529	6062.99	73.5485	6062.99	74.5219	6062.99	70.8288	6062.99	74.3573	6062.99	69.019	6062.99	72.2799	6062.99	67.5008	6062.99	61.3637	6062.99	64.0818	6062.99	62.6281	6062.99	66.5424	6062.99	64.3455	6062.99	67.7338	6062.99	60.0439	6062.99	65.3925	6062.99	54.3484	6062.99	65.7584	6062.99	59.7582	6062.99	60.3342	6062.99	55.1204	6062.99	50.34
6276.86	90.3021	6276.86	89.5803	6276.86	88.4314	6276.86	86.7715	6276.86	87.3103	6276.86	85.6653	6276.86	87.4475	6276.86	85.9716	6276.86	86.9413	6276.86	83.24	6276.86	82.7946	6276.86	79.496	6276.86	80.4717	6276.86	74.2653	6276.86	78.425	6276.86	71.7212	6276.86	71.381	6276.86	69.9398	6276.86	69.256	6276.86	68.0965	6276.86	71.4078	6276.86	66.8017	6276.86	58.732	6276.86	62.9763	6276.86	63.347	6276.86	65.9776	6276.86	62.558	6276.86	66.1701	6276.86	64.4847	6276.86	63.4516	6276.86	54.6061	6276.86	65.7212	6276.86	54.4306	6276.86	59.3027	6276.86	59.7684	6276.86	45.1665
6498.05	90.1831	6498.05	89.7012	6498.05	88.6584	6498.05	86.0935	6498.05	88.0406	6498.05	86.1237	6498.05	86.8464	6498.05	85.6604	6498.05	86.3814	6498.05	81.7263	6498.05	83.3121	6498.05	77.628	6498.05	80.3057	6498.05	74.3106	6498.05	76.598	6498.05	72.9624	6498.05	69.171	6498.05	70.5016	6498.05	69.4486	6498.05	68.4198	6498.05	69.582	6498.05	65.4188	6498.05	58.4478	6498.05	63.666	6498.05	66.7099	6498.05	65.8952	6498.05	57.797	6498.05	64.6933	6498.05	59.8554	6498.05	64.425	6498.05	58.4178	6498.05	66.5069	6498.05	58.1343	6498.05	58.0052	6498.05	55.8293	6498.05	55.6945
6726.56	90.3255	6726.56	89.7555	6726.56	88.2701	6726.56	86.0029	6726.56	89.0232	6726.56	86.8508	6726.56	86.5748	6726.56	85.407	6726.56	85.5035	6726.56	81.3491	6726.56	83.9221	6726.56	78.5365	6726.56	79.9588	6726.56	75.4578	6726.56	76.176	6726.56	74.375	6726.56	71.7284	6726.56	71.6719	6726.56	67.8019	6726.56	69.3921	6726.56	67.1311	6726.56	66.3444	6726.56	70.8454	6726.56	65.8202	6726.56	68.3953	6726.56	66.7455	6726.56	57.6493	6726.56	65.3906	6726.56	60.0806	6726.56	66.8863	6726.56	51.0074	6726.56	67.559	6726.56	56.2615	6726.56	58.2973	6726.56	44.2586	6726.56	55.9148
6963.87	90.334	6963.87	89.4098	6963.87	88.0308	6963.87	86.4594	6963.87	89.3116	6963.87	87.2559	6963.87	86.6208	6963.87	85.4945	6963.87	84.1392	6963.87	81.1856	6963.87	82.7051	6963.87	79.5101	6963.87	79.5974	6963.87	77.2114	6963.87	75.5717	6963.87	75.259	6963.87	72.8392	6963.87	72.0008	6963.87	63.6402	6963.87	69.5935	6963.87	66.8096	6963.87	67.0254	6963.87	72.3774	6963.87	66.1047	6963.87	64.803	6963.87	66.8295	6963.87	56.4446	6963.87	66.4967	6963.87	56.6663	6963.87	66.2332	6963.87	58.5336	6963.87	68.789	6963.87	49.195	6963.87	60.5042	6963.87	52.4557	6963.87	55.6692
7209.96	90.363	7209.96	88.9303	7209.96	87.6769	7209.96	87.2915	7209.96	89.1413	7209.96	87.3829	7209.96	86.214	7209.96	84.9535	7209.96	82.6856	7209.96	81.7493	7209.96	82.2878	7209.96	80.4709	7209.96	79.5338	7209.96	78.0632	7209.96	77.7587	7209.96	76.0853	7209.96	76.3254	7209.96	72.2721	7209.96	68.8484	7209.96	69.1723	7209.96	66.9581	7209.96	66.3588	7209.96	76.0082	7209.96	66.7593	7209.96	69.2144	7209.96	65.6787	7209.96	55.6643	7209.96	66.6329	7209.96	50.7711	7209.96	65.6479	7209.96	55.153	7209.96	67.8143	7209.96	52.3926	7209.96	61.9771	7209.96	50.4534	7209.96	52.6489
7464.84	90.7846	7464.84	89.3296	7464.84	87.5012	7464.84	87.9671	7464.84	89.062	7464.84	87.23	7464.84	86.1195	7464.84	84.7277	7464.84	81.3548	7464.84	82.94	7464.84	81.6347	7464.84	81.0727	7464.84	81.085	7464.84	78.11	7464.84	79.8441	7464.84	75.2428	7464.84	74.5597	7464.84	71.7143	7464.84	71.5612	7464.84	68.4096	7464.84	66.1906	7464.84	65.3062	7464.84	74.8067	7464.84	65.6746	7464.84	68.9419	7464.84	64.3529	7464.84	58.81	7464.84	65.503	7464.84	50.2295	7464.84	64.7283	7464.84	50.8788	7464.84	67.1387	7464.84	53.1157	7464.84	60.9091	7464.84	53.158	7464.84	53.3263
7727.05	91.6513	7727.05	90.0526	7727.05	88.3089	7727.05	88.3472	7727.05	89.1164	7727.05	86.5827	7727.05	86.264	7727.05	85.513	7727.05	82.2244	7727.05	83.1041	7727.05	82.179	7727.05	80.5664	7727.05	82.578	7727.05	76.9383	7727.05	80.591	7727.05	74.2489	7727.05	72.8253	7727.05	70.3807	7727.05	72.6609	7727.05	67.3713	7727.05	62.8719	7727.05	64.9971	7727.05	73.8673	7727.05	63.4689	7727.05	68.9815	7727.05	60.277	7727.05	56.4698	7727.05	66.1424	7727.05	47.7988	7727.05	64.4643	7727.05	49.7294	7727.05	65.7714	7727.05	47.7	7727.05	61.1376	7727.05	52.4977	7727.05	54.145
7999.51	91.9796	7999.51	90.4606	7999.51	89.4546	7999.51	88.0416	7999.51	89.4893	7999.51	87.0749	7999.51	86.8006	7999.51	86.2374	7999.51	83.6017	7999.51	82.7993	7999.51	82.6824	7999.51	79.7125	7999.51	83.6092	7999.51	76.3309	7999.51	79.0272	7999.51	73.4136	7999.51	72.7338	7999.51	69.9986	7999.51	70.7077	7999.51	67.7648	7999.51	43.6473	7999.51	65.1144	7999.51	70.1111	7999.51	63.1746	7999.51	65.6998	7999.51	58.0609	7999.51	52.4443	7999.51	66.9772	7999.51	48.9908	7999.51	63.8516	7999.51	51.0674	7999.51	63.6093	7999.51	48.8137	7999.51	61.1894	7999.51	49.7908	7999.51	58.7792
8282.23	92.2203	8282.23	90.6522	8282.23	90.3318	8282.23	88.0271	8282.23	89.9941	8282.23	87.9472	8282.23	87.3151	8282.23	86.2814	8282.23	83.5455	8282.23	82.4201	8282.23	83.4803	8282.23	78.714	8282.23	83.5711	8282.23	75.9026	8282.23	76.7751	8282.23	73.0976	8282.23	74.1645	8282.23	70.2872	8282.23	67.6422	8282.23	68.0065	8282.23	46.4273	8282.23	64.9736	8282.23	69.7219	8282.23	64.7433	8282.23	60.9369	8282.23	59.1828	8282.23	41.2405	8282.23	67.0966	8282.23	47.5816	8282.23	62.8654	8282.23	55.6697	8282.23	62.7792	8282.23	52.2473	8282.23	61.4498	8282.23	51.8126	8282.23	58.5979
8573.73	92.0628	8573.73	90.526	8573.73	90.8644	8573.73	88.4784	8573.73	89.8873	8573.73	88.62	8573.73	87.2864	8573.73	85.5069	8573.73	83.7098	8573.73	82.607	8573.73	83.36	8573.73	78.4455	8573.73	82.7252	8573.73	76.5985	8573.73	76.9492	8573.73	74.3204	8573.73	74.3557	8573.73	71.9918	8573.73	69.4044	8573.73	68.8771	8573.73	55.1825	8573.73	65.5674	8573.73	69.1038	8573.73	65.4638	8573.73	54.4617	8573.73	61.8469	8573.73	48.3077	8573.73	66.2875	8573.73	56.6492	8573.73	62.4245	8573.73	56.2276	8573.73	62.4904	8573.73	54.8022	8573.73	62.3592	8573.73	52.7632	8573.73	60.4013
8876.95	92.464	8876.95	90.911	8876.95	91.179	8876.95	89.3188	8876.95	90.2097	8876.95	88.6679	8876.95	87.2457	8876.95	84.98	8876.95	83.9788	8876.95	82.9041	8876.95	83.1265	8876.95	79.6158	8876.95	79.3317	8876.95	76.7313	8876.95	78.5148	8876.95	74.3623	8876.95	73.1232	8876.95	71.3695	8876.95	72.6905	8876.95	68.767	8876.95	46.7113	8876.95	66.1655	8876.95	70.3109	8876.95	65.4682	8876.95	64.0683	8876.95	62.7197	8876.95	57.3597	8876.95	65.0999	8876.95	41.6861	8876.95	62.0708	8876.95	56.6755	8876.95	65.9062	8876.95	59.1577	8876.95	61.2918	8876.95	47.5788	8876.95	55.2468
9188.96	92.7975	9188.96	91.0402	9188.96	91.1835	9188.96	89.5494	9188.96	89.4022	9188.96	87.7108	9188.96	87.2576	9188.96	85.6924	9188.96	84.5477	9188.96	83.7457	9188.96	81.7392	9188.96	81.0502	9188.96	79.8779	9188.96	78.9722	9188.96	80.9528	9188.96	75.412	9188.96	73.6221	9188.96	73.8354	9188.96	70.9738	9188.96	69.9277	9188.96	65.5832	9188.96	68.2985	9188.96	66.3927	9188.96	66.9923	9188.96	60.217	9188.96	63.2886	9188.96	59.498	9188.96	64.7978	9188.96	54.8795	9188.96	64.6771	9188.96	50.2273	9188.96	66.8982	9188.96	58.5047	9188.96	61.9955	9188.96	50.7185	9188.96	53.6835
9514.16	92.6617	9514.16	90.532	9514.16	90.6049	9514.16	89.0296	9514.16	88.8069	9514.16	86.4032	9514.16	86.691	9514.16	86.4391	9514.16	84.7607	9514.16	85.2189	9514.16	79.8489	9514.16	82.3443	9514.16	82.0302	9514.16	80.2812	9514.16	80.6858	9514.16	76.2608	9514.16	77.8921	9514.16	74.0989	9514.16	71.9566	9514.16	70.4002	9514.16	67.1217	9514.16	68.8347	9514.16	67.0852	9514.16	66.9659	9514.16	46.9344	9514.16	63.9455	9514.16	57.0807	9514.16	64.6464	9514.16	56.9947	9514.16	66.0252	9514.16	57.6141	9514.16	67.2047	9514.16	58.2079	9514.16	60.5797	9514.16	46.0385	9514.16	58.5218
9849.61	92.5231	9849.61	90.1364	9849.61	89.8144	9849.61	88.7794	9849.61	89.3115	9849.61	86.5729	9849.61	85.8593	9849.61	86.9289	9849.61	84.8997	9849.61	85.6548	9849.61	82.0882	9849.61	82.4174	9849.61	82.4938	9849.61	80.0358	9849.61	81.1355	9849.61	76.4236	9849.61	77.027	9849.61	74.1827	9849.61	74.256	9849.61	69.6239	9849.61	56.91	9849.61	68.7606	9849.61	58.1954	9849.61	65.4048	9849.61	45.9553	9849.61	63.4624	9849.61	52.5391	9849.61	63.0324	9849.61	58.5214	9849.61	66.4257	9849.61	52.6442	9849.61	65.8315	9849.61	58.9616	9849.61	61.1892	9849.61	52.1945	9849.61	59.1403
10196.8	92.2514	10196.8	90.5022	10196.8	89.7226	10196.8	88.7795	10196.8	90.2896	10196.8	87.5955	10196.8	86.6117	10196.8	87.046	10196.8	86.0712	10196.8	85.2423	10196.8	82.9958	10196.8	82.6251	10196.8	81.0665	10196.8	79.9093	10196.8	81.6423	10196.8	75.8167	10196.8	75.0229	10196.8	73.1941	10196.8	70.5627	10196.8	68.7614	10196.8	60.7033	10196.8	67.4339	10196.8	67.7878	10196.8	63.1839	10196.8	58.4842	10196.8	63.1134	10196.8	52.7403	10196.8	62.9593	10196.8	46.6558	10196.8	65.6815	10196.8	52.0724	10196.8	64.3536	10196.8	57.3714	10196.8	59.8138	10196.8	48.0127	10196.8	58.2868
10555.7	91.8761	10555.7	90.9602	10555.7	89.5922	10555.7	89.2236	10555.7	90.1951	10555.7	87.9176	10555.7	85.9293	10555.7	86.8476	10555.7	85.5783	10555.7	84.359	10555.7	81.1746	10555.7	82.2798	10555.7	79.6563	10555.7	78.0271	10555.7	78.4961	10555.7	73.8299	10555.7	73.535	10555.7	70.7836	10555.7	67.1309	10555.7	67.6223	10555.7	70.0442	10555.7	66.1367	10555.7	53.354	10555.7	61.0778	10555.7	52.5613	10555.7	60.9765	10555.7	49.4792	10555.7	59.1948	10555.7	46.5841	10555.7	63.2005	10555.7	43.9529	10555.7	61.2324	10555.7	49.9611	10555.7	57.8543	10555.7	52.099	10555.7	52.9755
10927.7	91.9319	10927.7	91.2663	10927.7	89.5735	10927.7	89.6613	10927.7	90.5017	10927.7	87.443	10927.7	85.8796	10927.7	86.0523	10927.7	84.4583	10927.7	83.5371	10927.7	81.1458	10927.7	79.9153	10927.7	78.8259	10927.7	75.8104	10927.7	75.1368	10927.7	70.4703	10927.7	74.3232	10927.7	68.1036	10927.7	67.5303	10927.7	64.6185	10927.7	66.1324	10927.7	62.7851	10927.7	65.1621	10927.7	56.1203	10927.7	58.2312	10927.7	57.7476	10927.7	51.4788	10927.7	51.9789	10927.7	46.0601	10927.7	59.9681	10927.7	46.5445	10927.7	58.7669	10927.7	44.5544	10927.7	56.943	10927.7	49.5382	10927.7	53.9608
11313	92.1859	11313	91.1654	11313	90.2076	11313	89.5836	11313	90.2378	11313	87.0754	11313	86.4013	11313	84.7622	11313	84.6958	11313	82.2091	11313	82.0603	11313	77.3443	11313	73.6317	11313	72.0951	11313	77.1485	11313	66.8334	11313	73.5936	11313	63.0211	11313	67.964	11313	61.2922	11313	64.2409	11313	58.6557	11313	66.8116	11313	54.6048	11313	45.7329	11313	56.0664	11313	51.2357	11313	45.2516	11313	39.07	11313	57.4442	11313	43.2269	11313	56.2014	11313	46.3702	11313	52.6093	11313	45.3388	11313	44.2629
11712.9	92.5145	11712.9	91.2304	11712.9	90.6688	11712.9	89.3095	11712.9	90.3535	11712.9	86.9234	11712.9	87.0722	11712.9	84.2244	11712.9	83.7611	11712.9	81.1274	11712.9	81.1125	11712.9	75.0415	11712.9	72.5107	11712.9	68.9147	11712.9	75.7597	11712.9	66.0071	11712.9	70.2392	11712.9	60.867	11712.9	64.4403	11712.9	61.0001	11712.9	61.2458	11712.9	58.0281	11712.9	53.3285	11712.9	54.1943	11712.9	50.6514	11712.9	55.3071	11712.9	42.6057	11712.9	44.057	11712.9	54.1446	11712.9	56.1815	11712.9	47.5093	11712.9	56.9825	11712.9	47.1931	11712.9	52.8913	11712.9	50.5625	11712.9	48.2308
12126	92.8835	12126	91.8819	12126	91.3356	12126	89.0706	12126	90.5814	12126	87.0975	12126	87.4203	12126	83.5017	12126	82.8595	12126	80.748	12126	80.2605	12126	74.6886	12126	72.191	12126	70.1734	12126	70.8438	12126	68.0042	12126	68.7208	12126	62.3656	12126	53.2203	12126	61.8571	12126	62.2967	12126	59.4554	12126	64.0109	12126	54.9737	12126	57.4888	12126	56.5965	12126	48.7253	12126	45.7126	12126	52.1189	12126	57.8469	12126	48.1197	12126	57.1527	12126	48.1318	12126	55.8587	12126	50.763	12126	51.1995
12553.7	93.4254	12553.7	92.411	12553.7	92.171	12553.7	88.8961	12553.7	91.0686	12553.7	86.7784	12553.7	87.2975	12553.7	82.937	12553.7	82.2589	12553.7	80.0956	12553.7	77.782	12553.7	74.3393	12553.7	63.7732	12553.7	70.1132	12553.7	65.0166	12553.7	67.1233	12553.7	64.1836	12553.7	61.8116	12553.7	43.7551	12553.7	61.2686	12553.7	61.8478	12553.7	55.7132	12553.7	67.1124	12553.7	54.5303	12553.7	57.9368	12553.7	52.9177	12553.7	42.3409	12553.7	44.0732	12553.7	45.0577	12553.7	56.068	12553.7	29.729	12553.7	54.6057	12553.7	51.8208	12553.7	53.8338	12553.7	48.4944	12553.7	49.9084
12996.1	93.8009	12996.1	92.6736	12996.1	92.8763	12996.1	88.8572	12996.1	91.2026	12996.1	86.5914	12996.1	87.1641	12996.1	82.3269	12996.1	81.9728	12996.1	78.6865	12996.1	76.8597	12996.1	73.4604	12996.1	64.9001	12996.1	68.7771	12996.1	62.5592	12996.1	64.7631	12996.1	61.9778	12996.1	58.8573	12996.1	58.0768	12996.1	57.2896	12996.1	55.4219	12996.1	52.0138	12996.1	68.6577	12996.1	51.0233	12996.1	59.4413	12996.1	46.968	12996.1	47.7206	12996.1	42.8047	12996.1	46.011	12996.1	52.2144	12996.1	43.4069	12996.1	50.7505	12996.1	52.5176	12996.1	52.231	12996.1	41.2721	12996.1	48.5758
13454.6	94.074	13454.6	92.9275	13454.6	93.2789	13454.6	88.838	13454.6	91.2323	13454.6	86.6913	13454.6	86.816	13454.6	81.2914	13454.6	81.3524	13454.6	76.3123	13454.6	73.5827	13454.6	70.6342	13454.6	55.852	13454.6	66.606	13454.6	69.1541	13454.6	61.9768	13454.6	66.0175	13454.6	58.3409	13454.6	61.3873	13454.6	53.6918	13454.6	61.229	13454.6	51.1756	13454.6	69.7206	13454.6	52.4628	13454.6	59.7633	13454.6	48.8425	13454.6	47.1762	13454.6	26.2734	13454.6	43.9602	13454.6	50.5655	13454.6	43.7912	13454.6	49.8632	13454.6	45.5536	13454.6	51.6235	13454.6	50.6815	13454.6	48.3954
13929.2	94.3976	13929.2	93.1019	13929.2	93.2781	13929.2	88.825	13929.2	91.297	13929.2	86.4725	13929.2	86.6088	13929.2	79.7654	13929.2	79.5872	13929.2	71.6758	13929.2	67.9386	13929.2	64.9493	13929.2	59.3418	13929.2	67.0646	13929.2	72.7763	13929.2	63.0726	13929.2	72.7685	13929.2	60.5341	13929.2	62.4217	13929.2	56.7849	13929.2	59.3778	13929.2	56.8623	13929.2	70.1249	13929.2	56.4534	13929.2	60.7728	13929.2	55.6205	13929.2	53.1315	13929.2	44.9742	13929.2	51.2726	13929.2	52.5435	13929.2	42.7323	13929.2	54.7673	13929.2	48.5609	13929.2	55.4822	13929.2	49.9052	13929.2	51.4895
14419.9	94.1838	14419.9	93.1085	14419.9	93.3954	14419.9	88.62	14419.9	91.2538	14419.9	86.3796	14419.9	86.6371	14419.9	79.3241	14419.9	80.0212	14419.9	67.0217	14419.9	71.5929	14419.9	62.5584	14419.9	68.4426	14419.9	67.0188	14419.9	72.454	14419.9	63.3086	14419.9	70.7857	14419.9	63.1785	14419.9	66.2529	14419.9	57.4058	14419.9	56.6407	14419.9	58.1609	14419.9	73.5326	14419.9	57.4867	14419.9	64.9039	14419.9	57.4114	14419.9	50.971	14419.9	46.3244	14419.9	47.3024	14419.9	54.7781	14419.9	44.9737	14419.9	57.2148	14419.9	49.2576	14419.9	53.5522	14419.9	51.4983	14419.9	48.9272
14928.2	93.8042	14928.2	92.9521	14928.2	93.3393	14928.2	88.3649	14928.2	91.014	14928.2	85.9311	14928.2	87.0965	14928.2	79.1429	14928.2	79.4049	14928.2	68.5217	14928.2	71.8601	14928.2	61.773	14928.2	67.3447	14928.2	65.0655	14928.2	71.9355	14928.2	63.2058	14928.2	68.6039	14928.2	62.2798	14928.2	64.7888	14928.2	54.5929	14928.2	59.6236	14928.2	57.9559	14928.2	67.8813	14928.2	54.8186	14928.2	61.1997	14928.2	54.4703	14928.2	50.7184	14928.2	45.2672	14928.2	47.3135	14928.2	52.8237	14928.2	43.1086	14928.2	54.1931	14928.2	51.12	14928.2	52.8817	14928.2	37.9485	14928.2	47.8426
15455.6	93.5508	15455.6	92.8433	15455.6	93.3227	15455.6	87.9479	15455.6	90.7781	15455.6	85.2413	15455.6	86.4083	15455.6	78.1219	15455.6	80.0697	15455.6	67.7481	15455.6	70.3032	15455.6	48.0476	15455.6	65.9611	15455.6	61.6267	15455.6	69.9397	15455.6	58.0021	15455.6	69.4594	15455.6	55.194	15455.6	62.7206	15455.6	52.8424	15455.6	54.1632	15455.6	54.8463	15455.6	71.1101	15455.6	50.1441	15455.6	61.01	15455.6	48.5585	15455.6	51.3493	15455.6	45.9973	15455.6	44.3912	15455.6	49.7579	15455.6	46.4343	15455.6	51.3699	15455.6	48.5332	15455.6	50.7866	15455.6	38.4882	15455.6	46.9343
16000.5	93.4049	16000.5	92.6919	16000.5	92.9638	16000.5	87.6647	16000.5	90.2529	16000.5	84.6454	16000.5	85.7735	16000.5	76.3154	16000.5	77.7122	16000.5	66.5618	16000.5	62.3936	16000.5	62.5686	16000.5	67.1359	16000.5	62.8672	16000.5	68.8776	16000.5	60.6969	16000.5	66.7323	16000.5	57.2367	16000.5	61.6316	16000.5	54.0004	16000.5	59.2163	16000.5	49.9732	16000.5	70.9263	16000.5	50.5621	16000.5	62.7335	16000.5	48.6371	16000.5	48.1616	16000.5	48.0151	16000.5	34.0183	16000.5	49.619	16000.5	45.4262	16000.5	47.0245	16000.5	46.8688	16000.5	49.8818	16000.5	32.3174	16000.5	44.3146
16564.5	93.4246	16564.5	92.5416	16564.5	92.7662	16564.5	87.2446	16564.5	89.3951	16564.5	83.3389	16564.5	84.3104	16564.5	73.6641	16564.5	74.8371	16564.5	66.4967	16564.5	50.7522	16564.5	67.0631	16564.5	64.1666	16564.5	64.8599	16564.5	65.1179	16564.5	61.566	16564.5	64.623	16564.5	56.9628	16564.5	58.924	16564.5	53.8383	16564.5	53.3752	16564.5	49.12	16564.5	68.4548	16564.5	50.9251	16564.5	58.2367	16564.5	48.9066	16564.5	40.6704	16564.5	49.0763	16564.5	22.0311	16564.5	48.4045	16564.5	47.8731	16564.5	47.479	16564.5	48.5628	16564.5	47.9518	16564.5	41.1613	16564.5	42.303
17148.9	93.5536	17148.9	92.438	17148.9	92.6983	17148.9	86.314	17148.9	88.5734	17148.9	81.4709	17148.9	82.2275	17148.9	68.6627	17148.9	70.8243	17148.9	67.7315	17148.9	50.9378	17148.9	69.2224	17148.9	62.3029	17148.9	64.6778	17148.9	62.9024	17148.9	61.3176	17148.9	58.519	17148.9	57.4628	17148.9	51.2128	17148.9	52.6015	17148.9	58.2947	17148.9	49.0701	17148.9	69.1216	17148.9	48.9967	17148.9	58.446	17148.9	48.5882	17148.9	15.7637	17148.9	48.5118	17148.9	36.8885	17148.9	48.0664	17148.9	47.0687	17148.9	47.101	17148.9	37.5911	17148.9	45.4374	17148.9	44.5351	17148.9	41.0019
17752.4	93.2866	17752.4	91.9721	17752.4	92.4036	17752.4	85.2992	17752.4	88.0709	17752.4	79.8565	17752.4	80.8453	17752.4	59.2307	17752.4	66.409	17752.4	67.5339	17752.4	51.3063	17752.4	68.2188	17752.4	62.9076	17752.4	63.3847	17752.4	60.2609	17752.4	58.7529	17752.4	60.0246	17752.4	56.3142	17752.4	45.5052	17752.4	49.7235	17752.4	58.2239	17752.4	43.7645	17752.4	67.2767	17752.4	46.1199	17752.4	56.1654	17752.4	45.9923	17752.4	42.2077	17752.4	46.5988	17752.4	20.5116	17752.4	45.6129	17752.4	42.3812	17752.4	45.2708	17752.4	39.4159	17752.4	43.9974	17752.4	41.3092	17752.4	36.9371
18379.4	92.6046	18379.4	91.1992	18379.4	91.6257	18379.4	84.4229	18379.4	87.3951	18379.4	78.5435	18379.4	80.0976	18379.4	54.5968	18379.4	65.8465	18379.4	65.4788	18379.4	57.1964	18379.4	64.7679	18379.4	61.6044	18379.4	60.12	18379.4	59.4356	18379.4	53.3568	18379.4	56.5683	18379.4	51.5049	18379.4	44.3432	18379.4	46.4673	18379.4	58.5669	18379.4	40.4761	18379.4	68.2831	18379.4	37.4749	18379.4	55.2058	18379.4	40.1718	18379.4	42.8177	18379.4	41.5242	18379.4	23.3549	18379.4	42.8742	18379.4	46.0271	18379.4	43.8021	18379.4	35.3334	18379.4	42.8618	18379.4	37.079	18379.4	36.9217
19026.9	92.1137	19026.9	90.6249	19026.9	91.0497	19026.9	83.3689	19026.9	86.3377	19026.9	77.549	19026.9	78.7064	19026.9	59.0146	19026.9	62.7082	19026.9	65.2929	19026.9	60.1703	19026.9	63.1904	19026.9	59.4813	19026.9	58.4774	19026.9	60.1651	19026.9	50.8926	19026.9	55.4079	19026.9	46.1998	19026.9	40.1661	19026.9	43.5773	19026.9	59.6749	19026.9	36.0882	19026.9	68.0088	19026.9	10.0049	19026.9	56.3364	19026.9	36.6225	19026.9	35.669	19026.9	36.5455	19026.9	31.5902	19026.9	41.5899	19026.9	46.9678	19026.9	42.5723	19026.9	23.2201	19026.9	44.2296	19026.9	25.6724	19026.9	41.8573
19697.8	92.0494	19697.8	90.4026	19697.8	90.8205	19697.8	82.2947	19697.8	85.6455	19697.8	75.6015	19697.8	76.5326	19697.8	64.1402	19697.8	65.1318	19697.8	65.4887	19697.8	64.9193	19697.8	64.897	19697.8	59.8083	19697.8	57.8035	19697.8	54.6231	19697.8	48.5155	19697.8	52.1382	19697.8	47.35	19697.8	39.9097	19697.8	46.0395	19697.8	59.7104	19697.8	39.0897	19697.8	67.6716	19697.8	31.8698	19697.8	52.6685	19697.8	38.1907	19697.8	38.1099	19697.8	36.0466	19697.8	22.345	19697.8	40.6685	19697.8	46.5015	19697.8	42.6151	19697.8	35.8837	19697.8	43.7075	19697.8	39.7476	19697.8	37.2994
19999.5	91.7416	19999.5	90.3446	19999.5	90.7012	19999.5	81.8604	19999.5	85.1264	19999.5	74.5552	19999.5	75.0212	19999.5	66.3697	19999.5	67.0135	19999.5	66.456	19999.5	64.3334	19999.5	64.6729	19999.5	63.6271	19999.5	57.416	19999.5	38.3034	19999.5	53.7701	19999.5	52.1924	19999.5	51.2278	19999.5	54.857	19999.5	41.4243	19999.5	56.3928	19999.5	43.1944	19999.5	66.0527	19999.5	33.7597	19999.5	34.2325	19999.5	41.5516	19999.5	41.5063	19999.5	39.8539	19999.5	47.5268	19999.5	42.8712	19999.5	47.6613	19999.5	45.7644	19999.5	43.9704	19999.5	46.522	19999.5	40.05	19999.5	45.3342
