"SPL Horizontal"
"On-Axis"		"10°"		"-10°"		"20°"		"-20°"		"30°"		"-30°"		"40°"		"-40°"		"50°"		"-50°"		"60°"		"-60°"		"70°"		"-70°"		"80°"		"-80°"		"90°"		"-90°"		"100°"		"-100°"		"110°"		"-110°"		"120°"		"-120°"		"130°"		"-130°"		"140°"		"-140°"		"150°"		"-150°"		"160°"		"-160°"		"170°"		"-170°"		"180°"
"Frequency / Hz"	"Sound Pressure Level / dB (re 20 µPa/V)  [2.83V at 1m]"	"Frequency / Hz"	"Sound Pressure Level / dB (re 20 µPa/V)  [2.83V at 1m]"	"Frequency / Hz"	"Sound Pressure Level / dB (re 20 µPa/V)  [2.83V at 1m]"	"Frequency / Hz"	"Sound Pressure Level / dB (re 20 µPa/V)  [2.83V at 1m]"	"Frequency / Hz"	"Sound Pressure Level / dB (re 20 µPa/V)  [2.83V at 1m]"	"Frequency / Hz"	"Sound Pressure Level / dB (re 20 µPa/V)  [2.83V at 1m]"	"Frequency / Hz"	"Sound Pressure Level / dB (re 20 µPa/V)  [2.83V at 1m]"	"Frequency / Hz"	"Sound Pressure Level / dB (re 20 µPa/V)  [2.83V at 1m]"	"Frequency / Hz"	"Sound Pressure Level / dB (re 20 µPa/V)  [2.83V at 1m]"	"Frequency / Hz"	"Sound Pressure Level / dB (re 20 µPa/V)  [2.83V at 1m]"	"Frequency / Hz"	"Sound Pressure Level / dB (re 20 µPa/V)  [2.83V at 1m]"	"Frequency / Hz"	"Sound Pressure Level / dB (re 20 µPa/V)  [2.83V at 1m]"	"Frequency / Hz"	"Sound Pressure Level / dB (re 20 µPa/V)  [2.83V at 1m]"	"Frequency / Hz"	"Sound Pressure Level / dB (re 20 µPa/V)  [2.83V at 1m]"	"Frequency / Hz"	"Sound Pressure Level / dB (re 20 µPa/V)  [2.83V at 1m]"	"Frequency / Hz"	"Sound Pressure Level / dB (re 20 µPa/V)  [2.83V at 1m]"	"Frequency / Hz"	"Sound Pressure Level / dB (re 20 µPa/V)  [2.83V at 1m]"	"Frequency / Hz"	"Sound Pressure Level / dB (re 20 µPa/V)  [2.83V at 1m]"	"Frequency / Hz"	"Sound Pressure Level / dB (re 20 µPa/V)  [2.83V at 1m]"	"Frequency / Hz"	"Sound Pressure Level / dB (re 20 µPa/V)  [2.83V at 1m]"	"Frequency / Hz"	"Sound Pressure Level / dB (re 20 µPa/V)  [2.83V at 1m]"	"Frequency / Hz"	"Sound Pressure Level / dB (re 20 µPa/V)  [2.83V at 1m]"	"Frequency / Hz"	"Sound Pressure Level / dB (re 20 µPa/V)  [2.83V at 1m]"	"Frequency / Hz"	"Sound Pressure Level / dB (re 20 µPa/V)  [2.83V at 1m]"	"Frequency / Hz"	"Sound Pressure Level / dB (re 20 µPa/V)  [2.83V at 1m]"	"Frequency / Hz"	"Sound Pressure Level / dB (re 20 µPa/V)  [2.83V at 1m]"	"Frequency / Hz"	"Sound Pressure Level / dB (re 20 µPa/V)  [2.83V at 1m]"	"Frequency / Hz"	"Sound Pressure Level / dB (re 20 µPa/V)  [2.83V at 1m]"	"Frequency / Hz"	"Sound Pressure Level / dB (re 20 µPa/V)  [2.83V at 1m]"	"Frequency / Hz"	"Sound Pressure Level / dB (re 20 µPa/V)  [2.83V at 1m]"	"Frequency / Hz"	"Sound Pressure Level / dB (re 20 µPa/V)  [2.83V at 1m]"	"Frequency / Hz"	"Sound Pressure Level / dB (re 20 µPa/V)  [2.83V at 1m]"	"Frequency / Hz"	"Sound Pressure Level / dB (re 20 µPa/V)  [2.83V at 1m]"	"Frequency / Hz"	"Sound Pressure Level / dB (re 20 µPa/V)  [2.83V at 1m]"	"Frequency / Hz"	"Sound Pressure Level / dB (re 20 µPa/V)  [2.83V at 1m]"	"Frequency / Hz"	"Sound Pressure Level / dB (re 20 µPa/V)  [2.83V at 1m]"
20.5078	56.1459	20.5078	56.023	20.5078	55.9724	20.5078	55.5882	20.5078	55.4858	20.5078	54.7924	20.5078	54.63	20.5078	53.5429	20.5078	53.2872	20.5078	51.6933	20.5078	51.2224	20.5078	49.1227	20.5078	47.9555	20.5078	46.6578	20.5078	43.047	20.5078	47.7892	20.5078	43.9038	20.5078	51.4206	20.5078	49.7039	20.5078	54.635	20.5078	53.7846	20.5078	57.1127	20.5078	56.6612	20.5078	59.0069	20.5078	58.7817	20.5078	60.452	20.5078	60.3684	20.5078	61.5401	20.5078	61.5433	20.5078	62.3348	20.5078	62.3815	20.5078	62.8807	20.5078	62.9349	20.5078	63.2068	20.5078	63.2414	20.5078	63.3273
21.9727	58.1405	21.9727	58.0412	21.9727	57.9909	21.9727	57.6833	21.9727	57.5801	21.9727	57.0341	21.9727	56.8694	21.9727	56.0344	21.9727	55.7858	21.9727	54.597	21.9727	54.2069	21.9727	52.644	21.9727	51.9608	21.9727	50.4053	21.9727	49.0869	21.9727	49.5014	21.9727	47.6852	21.9727	51.5378	21.9727	50.4823	21.9727	54.5142	21.9727	54.0673	21.9727	57.0804	21.9727	56.9125	21.9727	59.0921	21.9727	59.0633	21.9727	60.6327	21.9727	60.6789	21.9727	61.7899	21.9727	61.8729	21.9727	62.6311	21.9727	62.7223	21.9727	63.2058	21.9727	63.2819	21.9727	63.5479	21.9727	63.5908	21.9727	63.6753
23.4375	59.4491	23.4375	59.312	23.4375	59.3392	23.4375	58.9146	23.4375	58.9739	23.4375	58.2193	23.4375	58.3204	23.4375	57.1584	23.4375	57.3158	23.4375	55.627	23.4375	55.8564	23.4375	53.5077	23.4375	53.8035	23.4375	50.9839	23.4375	51.1804	23.4375	49.9697	23.4375	49.4907	23.4375	52.3748	23.4375	51.5097	23.4375	55.5911	23.4375	54.8983	23.4375	58.2454	23.4375	57.7453	23.4375	60.2856	23.4375	59.9277	23.4375	61.8297	23.4375	61.5765	23.4375	62.9769	23.4375	62.8027	23.4375	63.7991	23.4375	63.6851	23.4375	64.3473	23.4375	64.2797	23.4375	64.6569	23.4375	64.6257	23.4375	64.748
24.9023	61.6458	24.9023	61.4951	24.9023	61.5909	24.9023	61.1288	24.9023	61.3261	24.9023	60.5227	24.9023	60.8327	24.9023	59.6379	24.9023	60.0769	24.9023	58.4287	24.9023	59.0123	24.9023	56.8831	24.9023	57.6004	24.9023	55.2011	24.9023	55.9106	24.9023	54.2396	24.9023	54.4731	24.9023	55.1201	24.9023	54.5396	24.9023	57.2563	24.9023	56.351	24.9023	59.4705	24.9023	58.6394	24.9023	61.3351	24.9023	60.6674	24.9023	62.8011	24.9023	62.2894	24.9023	63.9072	24.9023	63.5285	24.9023	64.7018	24.9023	64.4357	24.9023	65.2268	24.9023	65.0577	24.9023	65.5131	24.9023	65.4311	24.9023	65.5796
26.3672	61.4729	26.3672	61.3564	26.3672	61.3761	26.3672	61.0249	26.3672	61.0609	26.3672	60.4739	26.3672	60.5159	26.3672	59.712	26.3672	59.7333	26.3672	58.8038	26.3672	58.7408	26.3672	57.9673	26.3672	57.6932	26.3672	57.6656	26.3672	57.0355	26.3672	58.336	26.3672	57.4012	26.3672	59.8198	26.3672	58.8383	26.3672	61.5786	26.3672	60.7196	26.3672	63.2427	26.3672	62.5412	26.3672	64.6689	26.3672	64.1106	26.3672	65.8245	26.3672	65.3884	26.3672	66.7176	26.3672	66.3862	26.3672	67.3693	26.3672	67.1301	26.3672	67.803	26.3672	67.6478	26.3672	68.039	26.3672	67.9626	26.3672	68.0909
27.832	63.4519	27.832	63.3741	27.832	63.3725	27.832	63.1431	27.832	63.1346	27.832	62.7708	27.832	62.7421	27.832	62.2899	27.832	62.2148	27.832	61.7811	27.832	61.6136	27.832	61.4058	27.832	61.0826	27.832	61.3982	27.832	60.8749	27.832	61.9328	27.832	61.246	27.832	62.955	27.832	62.2158	27.832	64.2281	27.832	63.5355	27.832	65.5207	27.832	64.9209	27.832	66.6924	27.832	66.1954	27.832	67.6795	27.832	67.2807	27.832	68.4625	27.832	68.154	27.832	69.0434	27.832	68.8181	27.832	69.4338	27.832	69.2863	27.832	69.6469	27.832	69.574	27.832	69.6925
29.2969	65.3555	29.2969	65.299	29.2969	65.2909	29.2969	65.1267	29.2969	65.106	29.2969	64.8536	29.2969	64.8098	29.2969	64.5139	29.2969	64.4275	29.2969	64.1756	29.2969	64.017	29.2969	63.9548	29.2969	63.6879	29.2969	64.001	29.2969	63.6032	29.2969	64.425	29.2969	63.9144	29.2969	65.2115	29.2969	64.648	29.2969	66.2243	29.2969	65.673	29.2969	67.298	29.2969	66.801	29.2969	68.3077	29.2969	67.883	29.2969	69.1817	29.2969	68.8334	29.2969	69.8882	29.2969	69.6147	29.2969	70.4192	29.2969	70.2174	29.2969	70.7791	29.2969	70.6462	29.2969	70.9768	29.2969	70.9109	29.2969	71.0199
30.7617	67.3261	30.7617	67.2949	30.7617	67.2666	30.7617	67.1784	30.7617	67.1189	30.7617	66.9909	30.7617	66.8942	30.7617	66.762	30.7617	66.6186	30.7617	66.5445	30.7617	66.3422	30.7617	66.4192	30.7617	66.1475	30.7617	66.4842	30.7617	66.1428	30.7617	66.8153	30.7617	66.4224	30.7617	67.4177	30.7617	67.0071	30.7617	68.2162	30.7617	67.8228	30.7617	69.0971	30.7617	68.7444	30.7617	69.9566	30.7617	69.6557	30.7617	70.7233	30.7617	70.4769	30.7617	71.3577	30.7617	71.1646	30.7617	71.8435	30.7617	71.7015	30.7617	72.1787	30.7617	72.0854	30.7617	72.3673	30.7617	72.3211	30.7617	72.4142
32.2266	69.1985	32.2266	69.1687	32.2266	69.1574	32.2266	69.0724	32.2266	69.0484	32.2266	68.9224	32.2266	68.8829	32.2266	68.7444	32.2266	68.6843	32.2266	68.5814	32.2266	68.4942	32.2266	68.4967	32.2266	68.375	32.2266	68.5646	32.2266	68.404	32.2266	68.8442	32.2266	68.648	32.2266	69.3465	32.2266	69.1267	32.2266	70.0222	32.2266	69.7961	32.2266	70.785	32.2266	70.5687	32.2266	71.5466	32.2266	71.3517	32.2266	72.2395	32.2266	72.073	32.2266	72.8223	32.2266	72.6875	32.2266	73.2745	32.2266	73.1729	32.2266	73.5901	32.2266	73.5223	32.2266	73.7705	32.2266	73.7366	32.2266	73.8188
33.6914	70.8867	33.6914	70.8634	33.6914	70.856	33.6914	70.7902	33.6914	70.7741	33.6914	70.6793	33.6914	70.6515	33.6914	70.553	33.6914	70.5089	33.6914	70.4473	33.6914	70.3807	33.6914	70.4117	33.6914	70.3159	33.6914	70.502	33.6914	70.3725	33.6914	70.7619	33.6914	70.5998	33.6914	71.201	33.6914	71.0144	33.6914	71.7849	33.6914	71.5873	33.6914	72.4483	33.6914	72.2542	33.6914	73.1193	33.6914	72.9404	33.6914	73.7382	33.6914	73.5825	33.6914	74.2647	33.6914	74.137	33.6914	74.6769	33.6914	74.5799	33.6914	74.9664	33.6914	74.9013	33.6914	75.1323	33.6914	75.0997	33.6914	75.1764
35.1562	72.5315	35.1562	72.5137	35.1562	72.5086	35.1562	72.4589	35.1562	72.4477	35.1562	72.3777	35.1562	72.3582	35.1562	72.2895	35.1562	72.2582	35.1562	72.2239	35.1562	72.176	35.1562	72.2201	35.1562	72.1506	35.1562	72.3213	35.1562	72.2263	35.1562	72.5612	35.1562	72.4404	35.1562	72.9484	35.1562	72.8065	35.1562	73.4585	35.1562	73.3046	35.1562	74.041	35.1562	73.8861	35.1562	74.6367	35.1562	74.4909	35.1562	75.1929	35.1562	75.0637	35.1562	75.6713	35.1562	75.564	35.1562	76.0494	35.1562	75.9671	35.1562	76.317	35.1562	76.2615	35.1562	76.4715	35.1562	76.4436	35.1562	76.5135
36.6211	74.0586	36.6211	74.0468	36.6211	74.04	36.6211	74.0079	36.6211	73.9934	36.6211	73.9513	36.6211	73.927	36.6211	73.8935	36.6211	73.8564	36.6211	73.859	36.6211	73.8053	36.6211	73.8794	36.6211	73.8054	36.6211	73.9885	36.6211	73.8916	36.6211	74.2129	36.6211	74.0934	36.6211	74.5599	36.6211	74.4222	36.6211	75.0114	36.6211	74.8635	36.6211	75.528	36.6211	75.3792	36.6211	76.0601	36.6211	75.9197	36.6211	76.5614	36.6211	76.4366	36.6211	76.9965	36.6211	76.8925	36.6211	77.3429	36.6211	77.263	36.6211	77.5894	36.6211	77.5353	36.6211	77.732	36.6211	77.7048	36.6211	77.7703
38.0859	75.6717	38.0859	75.6647	38.0859	75.6563	38.0859	75.638	38.0859	75.6204	38.0859	75.5995	38.0859	75.5712	38.0859	75.5627	38.0859	75.5213	38.0859	75.5471	38.0859	75.49	38.0859	75.5777	38.0859	75.5023	38.0859	75.6812	38.0859	75.5858	38.0859	75.8787	38.0859	75.7641	38.0859	76.1778	38.0859	76.0476	38.0859	76.5663	38.0859	76.427	38.0859	77.014	38.0859	76.8739	38.0859	77.4805	38.0859	77.3476	38.0859	77.9253	38.0859	77.8066	38.0859	78.3156	38.0859	78.2162	38.0859	78.6291	38.0859	78.5524	38.0859	78.8536	38.0859	78.8016	38.0859	78.9839	38.0859	78.9577	38.0859	79.0186
39.5508	76.9554	39.5508	76.9504	39.5508	76.9441	39.5508	76.9314	39.5508	76.9185	39.5508	76.9053	39.5508	76.8849	39.5508	76.8837	39.5508	76.8547	39.5508	76.8835	39.5508	76.8444	39.5508	76.9254	39.5508	76.8749	39.5508	77.0316	39.5508	76.969	39.5508	77.2198	39.5508	77.1453	39.5508	77.4964	39.5508	77.412	39.5508	77.8515	39.5508	77.7612	39.5508	78.2601	39.5508	78.1687	39.5508	78.6874	39.5508	78.6001	39.5508	79.0974	39.5508	79.0189	39.5508	79.4597	39.5508	79.3937	39.5508	79.7531	39.5508	79.702	39.5508	79.9651	39.5508	79.9304	39.5508	80.09	39.5508	80.0725	39.5508	80.1259
41.0156	78.2732	41.0156	78.2702	41.0156	78.2658	41.0156	78.2588	41.0156	78.2496	41.0156	78.2449	41.0156	78.23	41.0156	78.2382	41.0156	78.2165	41.0156	78.2527	41.0156	78.2226	41.0156	78.3053	41.0156	78.2653	41.0156	78.4135	41.0156	78.3626	41.0156	78.5915	41.0156	78.5293	41.0156	78.8441	41.0156	78.7722	41.0156	79.1639	41.0156	79.0851	41.0156	79.5303	41.0156	79.4489	41.0156	79.9141	41.0156	79.835	41.0156	80.2843	41.0156	80.212	41.0156	80.6133	41.0156	80.5517	41.0156	80.8813	41.0156	80.8331	41.0156	81.0758	41.0156	81.0428	41.0156	81.1906	41.0156	81.1739	41.0156	81.2235
42.4805	79.4583	42.4805	79.4574	42.4805	79.4529	42.4805	79.4517	42.4805	79.4425	42.4805	79.4465	42.4805	79.4317	42.4805	79.4499	42.4805	79.4285	42.4805	79.4735	42.4805	79.4442	42.4805	79.5313	42.4805	79.4929	42.4805	79.6377	42.4805	79.5893	42.4805	79.8042	42.4805	79.7457	42.4805	80.0352	42.4805	79.9677	42.4805	80.3247	42.4805	80.2508	42.4805	80.6557	42.4805	80.5793	42.4805	81.0036	42.4805	80.9291	42.4805	81.3408	42.4805	81.2726	42.4805	81.6424	42.4805	81.5842	42.4805	81.8895	42.4805	81.8439	42.4805	82.0697	42.4805	82.0386	42.4805	82.1765	42.4805	82.1608	42.4805	82.2071
43.9453	80.5104	43.9453	80.5121	43.9453	80.5064	43.9453	80.5129	43.9453	80.5012	43.9453	80.517	43.9453	80.4988	43.9453	80.5313	43.9453	80.5058	43.9453	80.5653	43.9453	80.5316	43.9453	80.6302	43.9453	80.5876	43.9453	80.7376	43.9453	80.6857	43.9453	80.8967	43.9453	80.8358	43.9453	81.111	43.9453	81.0424	43.9453	81.3756	43.9453	81.3018	43.9453	81.6765	43.9453	81.601	43.9453	81.9926	43.9453	81.9195	43.9453	82.2999	43.9453	82.2332	43.9453	82.5761	43.9453	82.5191	43.9453	82.8033	43.9453	82.7587	43.9453	82.9697	43.9453	82.9391	43.9453	83.0684	43.9453	83.0529	43.9453	83.0964
45.4102	81.455	45.4102	81.4578	45.4102	81.4523	45.4102	81.4622	45.4102	81.451	45.4102	81.4716	45.4102	81.454	45.4102	81.4916	45.4102	81.4671	45.4102	81.53	45.4102	81.4978	45.4102	81.596	45.4102	81.5553	45.4102	81.6988	45.4102	81.6495	45.4102	81.846	45.4102	81.7883	45.4102	82.0404	45.4102	81.9756	45.4102	82.2781	45.4102	82.2086	45.4102	82.5478	45.4102	82.4768	45.4102	82.8316	45.4102	82.7629	45.4102	83.1087	45.4102	83.0459	45.4102	83.359	45.4102	83.3054	45.4102	83.566	45.4102	83.524	45.4102	83.7182	45.4102	83.6895	45.4102	83.8088	45.4102	83.7943	45.4102	83.8344
46.875	82.7706	46.875	82.7729	46.875	82.7706	46.875	82.7785	46.875	82.7738	46.875	82.79	46.875	82.7832	46.875	82.8123	46.875	82.8035	46.875	82.852	46.875	82.8418	46.875	82.9174	46.875	82.9066	46.875	83.0173	46.875	83.0072	46.875	83.1593	46.875	83.1514	46.875	83.3472	46.875	83.3429	46.875	83.5782	46.875	83.5787	46.875	83.8421	46.875	83.8475	46.875	84.1217	46.875	84.1316	46.875	84.3968	46.875	84.4097	46.875	84.6472	46.875	84.6612	46.875	84.8568	46.875	84.8698	46.875	85.014	46.875	85.0239	46.875	85.1117	46.875	85.1171	46.875	85.1466
48.3398	83.4667	48.3398	83.4683	48.3398	83.4681	48.3398	83.4738	48.3398	83.4734	48.3398	83.4855	48.3398	83.4846	48.3398	83.5073	48.3398	83.5058	48.3398	83.5447	48.3398	83.5426	48.3398	83.6046	48.3398	83.6021	48.3398	83.6944	48.3398	83.6921	48.3398	83.8206	48.3398	83.8194	48.3398	83.9868	48.3398	83.9876	48.3398	84.1914	48.3398	84.1949	48.3398	84.4261	48.3398	84.4326	48.3398	84.6765	48.3398	84.6858	48.3398	84.9247	48.3398	84.9359	48.3398	85.1526	48.3398	85.1643	48.3398	85.3447	48.3398	85.3553	48.3398	85.4896	48.3398	85.4976	48.3398	85.58	48.3398	85.5843	48.3398	85.612
51.2695	84.4694	51.2695	84.4694	51.2695	84.473	51.2695	84.4737	51.2695	84.4808	51.2695	84.4841	51.2695	84.4943	51.2695	84.5033	51.2695	84.5163	51.2695	84.5354	51.2695	84.5507	51.2695	84.5853	51.2695	84.6027	51.2695	84.6587	51.2695	84.6779	51.2695	84.7606	51.2695	84.7815	51.2695	84.8943	51.2695	84.9169	51.2695	85.0594	51.2695	85.0835	51.2695	85.2507	51.2695	85.2757	51.2695	85.4576	51.2695	85.4827	51.2695	85.6662	51.2695	85.6901	51.2695	85.861	51.2695	85.8824	51.2695	86.028	51.2695	86.0454	51.2695	86.1558	51.2695	86.1681	51.2695	86.2368	51.2695	86.2432	51.2695	86.2665
52.7344	84.8461	52.7344	84.8459	52.7344	84.8502	52.7344	84.8501	52.7344	84.8585	52.7344	84.8602	52.7344	84.8723	52.7344	84.8787	52.7344	84.8941	52.7344	84.909	52.7344	84.9271	52.7344	84.9553	52.7344	84.9758	52.7344	85.0226	52.7344	85.0449	52.7344	85.1151	52.7344	85.139	52.7344	85.2361	52.7344	85.2612	52.7344	85.3854	52.7344	85.4114	52.7344	85.5589	52.7344	85.5852	52.7344	85.7477	52.7344	85.7734	52.7344	85.9393	52.7344	85.9633	52.7344	86.1198	52.7344	86.1408	52.7344	86.2756	52.7344	86.2925	52.7344	86.3956	52.7344	86.4075	52.7344	86.4721	52.7344	86.4782	52.7344	86.5001
54.1992	85.1384	54.1992	85.1381	54.1992	85.1431	54.1992	85.1427	54.1992	85.1524	54.1992	85.1535	54.1992	85.1675	54.1992	85.1725	54.1992	85.1904	54.1992	85.2027	54.1992	85.2238	54.1992	85.2477	54.1992	85.2714	54.1992	85.3116	54.1992	85.3372	54.1992	85.3982	54.1992	85.4252	54.1992	85.5102	54.1992	85.5381	54.1992	85.6478	54.1992	85.6761	54.1992	85.8076	54.1992	85.8355	54.1992	85.982	54.1992	86.0087	54.1992	86.1601	54.1992	86.1845	54.1992	86.3288	54.1992	86.3499	54.1992	86.4756	54.1992	86.4923	54.1992	86.5894	54.1992	86.6009	54.1992	86.6621	54.1992	86.668	54.1992	86.6889
55.6641	85.401	55.6641	85.3997	55.6641	85.4069	55.6641	85.4035	55.6641	85.4177	55.6641	85.4136	55.6641	85.4342	55.6641	85.4317	55.6641	85.4579	55.6641	85.4603	55.6641	85.4912	55.6641	85.5025	55.6641	85.5369	55.6641	85.5615	55.6641	85.5985	55.6641	85.6408	55.6641	85.6793	55.6641	85.7426	55.6641	85.7817	55.6641	85.8675	55.6641	85.9061	55.6641	86.0128	55.6641	86.0499	55.6641	86.1721	55.6641	86.2066	55.6641	86.3359	55.6641	86.3666	55.6641	86.4924	55.6641	86.5182	55.6641	86.6296	55.6641	86.6497	55.6641	86.7369	55.6641	86.7506	55.6641	86.8061	55.6641	86.813	55.6641	86.832
58.5938	85.87	58.5938	85.8684	58.5938	85.8757	58.5938	85.8713	58.5938	85.8855	58.5938	85.8796	58.5938	85.9001	58.5938	85.8947	58.5938	85.9204	58.5938	85.9182	58.5938	85.948	58.5938	85.9523	58.5938	85.9849	58.5938	85.9995	58.5938	86.0335	58.5938	86.062	58.5938	86.0964	58.5938	86.1421	58.5938	86.1756	58.5938	86.2404	58.5938	86.2722	58.5938	86.3557	58.5938	86.385	58.5938	86.4841	58.5938	86.5101	58.5938	86.6182	58.5938	86.6404	58.5938	86.7488	58.5938	86.7667	58.5938	86.8652	58.5938	86.8785	58.5938	86.9573	58.5938	86.9661	58.5938	87.017	58.5938	87.0214	58.5938	87.039
60.0586	86.0788	60.0586	86.0765	60.0586	86.0846	60.0586	86.0781	60.0586	86.0939	60.0586	86.0844	60.0586	86.1072	60.0586	86.0967	60.0586	86.1255	60.0586	86.1164	60.0586	86.1499	60.0586	86.1454	60.0586	86.1822	60.0586	86.1858	60.0586	86.2245	60.0586	86.2398	60.0586	86.279	60.0586	86.3092	60.0586	86.3478	60.0586	86.3953	60.0586	86.432	60.0586	86.4972	60.0586	86.5311	60.0586	86.6119	60.0586	86.642	60.0586	86.7333	60.0586	86.7589	60.0586	86.8528	60.0586	86.8734	60.0586	86.9606	60.0586	86.976	60.0586	87.0468	60.0586	87.0569	60.0586	87.1032	60.0586	87.1081	60.0586	87.1242
62.9883	86.4895	62.9883	86.4865	62.9883	86.4937	62.9883	86.485	62.9883	86.4991	62.9883	86.486	62.9883	86.5062	62.9883	86.4903	62.9883	86.5156	62.9883	86.4994	62.9883	86.5284	62.9883	86.5147	62.9883	86.5461	62.9883	86.5379	62.9883	86.5704	62.9883	86.5709	62.9883	86.6031	62.9883	86.6156	62.9883	86.6464	62.9883	86.6734	62.9883	86.702	62.9883	86.745	62.9883	86.7705	62.9883	86.8289	62.9883	86.8508	62.9883	86.9213	62.9883	86.9391	62.9883	87.0154	62.9883	87.0292	62.9883	87.1029	62.9883	87.1127	62.9883	87.1743	62.9883	87.1805	62.9883	87.2215	62.9883	87.2245	62.9883	87.2389
64.4531	86.5996	64.4531	86.5968	64.4531	86.602	64.4531	86.5939	64.4531	86.6039	64.4531	86.5917	64.4531	86.6058	64.4531	86.5911	64.4531	86.6086	64.4531	86.5935	64.4531	86.6133	64.4531	86.6002	64.4531	86.6212	64.4531	86.613	64.4531	86.6341	64.4531	86.6336	64.4531	86.6539	64.4531	86.664	64.4531	86.6826	64.4531	86.706	64.4531	86.7222	64.4531	86.7607	64.4531	86.774	64.4531	86.8276	64.4531	86.8377	64.4531	86.9036	64.4531	86.9106	64.4531	86.9833	64.4531	86.9875	64.4531	87.0587	64.4531	87.0608	64.4531	87.121	64.4531	87.1218	64.4531	87.1622	64.4531	87.1623	64.4531	87.1765
67.3828	87.0471	67.3828	87.0378	67.3828	87.0555	67.3828	87.0282	67.3828	87.0631	67.3828	87.0192	67.3828	87.0698	67.3828	87.0118	67.3828	87.0762	67.3828	87.0074	67.3828	87.083	67.3828	87.007	67.3828	87.0909	67.3828	87.0122	67.3828	87.101	67.3828	87.0244	67.3828	87.1148	67.3828	87.0453	67.3828	87.1339	67.3828	87.0767	67.3828	87.1605	67.3828	87.12	67.3828	87.1962	67.3828	87.1754	67.3828	87.2417	67.3828	87.2409	67.3828	87.296	67.3828	87.3119	67.3828	87.355	67.3828	87.3812	67.3828	87.4125	67.3828	87.4405	67.3828	87.4606	67.3828	87.4817	67.3828	87.4914	67.3828	87.4993
68.8477	87.231	68.8477	87.2237	68.8477	87.2374	68.8477	87.2158	68.8477	87.2426	68.8477	87.2083	68.8477	87.2468	68.8477	87.2022	68.8477	87.2506	68.8477	87.1988	68.8477	87.2546	68.8477	87.1992	68.8477	87.2597	68.8477	87.2045	68.8477	87.267	68.8477	87.2161	68.8477	87.2777	68.8477	87.2355	68.8477	87.2937	68.8477	87.2644	68.8477	87.3168	68.8477	87.304	68.8477	87.3491	68.8477	87.3548	68.8477	87.3914	68.8477	87.4151	68.8477	87.4431	68.8477	87.4807	68.8477	87.5005	68.8477	87.5448	68.8477	87.5576	68.8477	87.5992	68.8477	87.6066	68.8477	87.6362	68.8477	87.6394	68.8477	87.6501
71.7773	87.6054	71.7773	87.5992	71.7773	87.6091	71.7773	87.5909	71.7773	87.6101	71.7773	87.5815	71.7773	87.6086	71.7773	87.5722	71.7773	87.6055	71.7773	87.5642	71.7773	87.6015	71.7773	87.5589	71.7773	87.5977	71.7773	87.5573	71.7773	87.595	71.7773	87.5604	71.7773	87.5949	71.7773	87.5698	71.7773	87.5991	71.7773	87.5869	71.7773	87.6097	71.7773	87.6134	71.7773	87.6291	71.7773	87.6501	71.7773	87.6587	71.7773	87.6963	71.7773	87.6987	71.7773	87.7486	71.7773	87.7465	71.7773	87.8011	71.7773	87.7965	71.7773	87.8462	71.7773	87.8414	71.7773	87.8761	71.7773	87.8732	71.7773	87.8857
74.707	87.94	74.707	87.934	74.707	87.9415	74.707	87.924	74.707	87.9384	74.707	87.9113	74.707	87.9313	74.707	87.8971	74.707	87.9212	74.707	87.883	74.707	87.9093	74.707	87.8706	74.707	87.8969	74.707	87.8611	74.707	87.8852	74.707	87.8557	74.707	87.8758	74.707	87.8557	74.707	87.8703	74.707	87.8627	74.707	87.871	74.707	87.8785	74.707	87.8802	74.707	87.9043	74.707	87.8999	74.707	87.9399	74.707	87.9307	74.707	87.9825	74.707	87.9705	74.707	88.0268	74.707	88.0144	74.707	88.0655	74.707	88.0553	74.707	88.091	74.707	88.0853	74.707	88.0981
77.6367	88.6285	77.6367	88.62	77.6367	88.6316	77.6367	88.6066	77.6367	88.6292	77.6367	88.5897	77.6367	88.6219	77.6367	88.5712	77.6367	88.611	77.6367	88.5528	77.6367	88.5978	77.6367	88.5363	77.6367	88.5836	77.6367	88.523	77.6367	88.5697	77.6367	88.5143	77.6367	88.5573	77.6367	88.5115	77.6367	88.5482	77.6367	88.5166	77.6367	88.545	77.6367	88.532	77.6367	88.5509	77.6367	88.5597	77.6367	88.5691	77.6367	88.6001	77.6367	88.6012	77.6367	88.6504	77.6367	88.6455	77.6367	88.7042	77.6367	88.6962	77.6367	88.752	77.6367	88.7444	77.6367	88.7844	77.6367	88.7799	77.6367	88.7944
79.1016	88.7639	79.1016	88.7556	79.1016	88.7656	79.1016	88.7413	79.1016	88.7607	79.1016	88.7226	79.1016	88.75	79.1016	88.7014	79.1016	88.7348	79.1016	88.6798	79.1016	88.7168	79.1016	88.6597	79.1016	88.6975	79.1016	88.6426	79.1016	88.6782	79.1016	88.6298	79.1016	88.6606	79.1016	88.623	79.1016	88.6463	79.1016	88.6239	79.1016	88.6381	79.1016	88.6351	79.1016	88.6393	79.1016	88.6587	79.1016	88.6534	79.1016	88.6951	79.1016	88.6822	79.1016	88.7417	79.1016	88.7243	79.1016	88.7921	79.1016	88.7741	79.1016	88.8371	79.1016	88.8223	79.1016	88.867	79.1016	88.8587	79.1016	88.8748
82.0312	89.04	82.0312	89.0295	82.0312	89.0408	82.0312	89.0102	82.0312	89.0322	82.0312	88.984	82.0312	89.0152	82.0312	88.9534	82.0312	88.9918	82.0312	88.9213	82.0312	88.9642	82.0312	88.8902	82.0312	88.9346	82.0312	88.8626	82.0312	88.9051	82.0312	88.8402	82.0312	88.8776	82.0312	88.8252	82.0312	88.8543	82.0312	88.8195	82.0312	88.8381	82.0312	88.8257	82.0312	88.8326	82.0312	88.8459	82.0312	88.8413	82.0312	88.8803	82.0312	88.8663	82.0312	88.9261	82.0312	88.9063	82.0312	88.9763	82.0312	88.9553	82.0312	89.0213	82.0312	89.004	82.0312	89.051	82.0312	89.0413	82.0312	89.0584
84.9609	89.3033	84.9609	89.2831	84.9609	89.3104	84.9609	89.2507	84.9609	89.3044	84.9609	89.2089	84.9609	89.2869	84.9609	89.1609	84.9609	89.2602	84.9609	89.1106	84.9609	89.2272	84.9609	89.0617	84.9609	89.191	84.9609	89.0178	84.9609	89.1542	84.9609	88.9816	84.9609	89.1194	84.9609	88.956	84.9609	89.0891	84.9609	88.9436	84.9609	89.0665	84.9609	88.9471	84.9609	89.0553	84.9609	88.9686	84.9609	89.0589	84.9609	89.0082	84.9609	89.0792	84.9609	89.0622	84.9609	89.1144	84.9609	89.1228	84.9609	89.1584	84.9609	89.1794	84.9609	89.201	84.9609	89.2207	84.9609	89.2308	84.9609	89.2387
87.8906	89.6907	87.8906	89.6676	87.8906	89.6968	87.8906	89.6291	87.8906	89.6864	87.8906	89.578	87.8906	89.6612	87.8906	89.5183	87.8906	89.6241	87.8906	89.4546	87.8906	89.5787	87.8906	89.3914	87.8906	89.5287	87.8906	89.333	87.8906	89.4776	87.8906	89.2831	87.8906	89.4286	87.8906	89.2449	87.8906	89.3848	87.8906	89.2215	87.8906	89.3499	87.8906	89.216	87.8906	89.3279	87.8906	89.2304	87.8906	89.3229	87.8906	89.2647	87.8906	89.3367	87.8906	89.3151	87.8906	89.3675	87.8906	89.3735	87.8906	89.4089	87.8906	89.4289	87.8906	89.4502	87.8906	89.4696	87.8906	89.4795	87.8906	89.4874
90.8203	90.3535	90.8203	90.3295	90.8203	90.3578	90.8203	90.2872	90.8203	90.3427	90.8203	90.2298	90.8203	90.3099	90.8203	90.1615	90.8203	90.2626	90.8203	90.0872	90.8203	90.2046	90.8203	90.0119	90.8203	90.1399	90.8203	89.94	90.8203	90.0722	90.8203	89.8752	90.8203	90.0049	90.8203	89.8209	90.8203	89.9415	90.8203	89.7801	90.8203	89.8857	90.8203	89.756	90.8203	89.8421	90.8203	89.7507	90.8203	89.8152	90.8203	89.7648	90.8203	89.808	90.8203	89.7952	90.8203	89.8202	90.8203	89.8349	90.8203	89.8464	90.8203	89.8739	90.8203	89.8776	90.8203	89.9021	90.8203	89.9026	90.8203	89.9122
95.2148	90.7144	95.2148	90.6935	95.2148	90.7113	95.2148	90.6504	95.2148	90.6848	95.2148	90.5887	95.2148	90.6374	95.2148	90.5135	95.2148	90.5731	95.2148	90.4308	95.2148	90.4971	95.2148	90.3467	95.2148	90.4147	95.2148	90.2666	95.2148	90.331	95.2148	90.195	95.2148	90.2506	95.2148	90.1355	95.2148	90.1776	95.2148	90.0913	95.2148	90.1164	95.2148	90.0651	95.2148	90.0716	95.2148	90.0585	95.2148	90.0472	95.2148	90.0713	95.2148	90.0456	95.2148	90.0996	95.2148	90.0655	95.2148	90.1358	95.2148	90.1008	95.2148	90.1699	95.2148	90.1414	95.2148	90.1917	95.2148	90.1757	95.2148	90.1941
98.1445	90.9067	98.1445	90.8813	98.1445	90.9046	98.1445	90.8302	98.1445	90.8754	98.1445	90.7573	98.1445	90.8222	98.1445	90.6687	98.1445	90.7497	98.1445	90.5712	98.1445	90.6637	98.1445	90.4719	98.1445	90.5704	98.1445	90.3773	98.1445	90.4756	98.1445	90.2928	98.1445	90.3846	98.1445	90.2228	98.1445	90.3022	98.1445	90.1708	98.1445	90.2327	98.1445	90.1397	98.1445	90.1811	98.1445	90.1309	98.1445	90.1512	98.1445	90.1436	98.1445	90.1453	98.1445	90.1733	98.1445	90.1616	98.1445	90.212	98.1445	90.1939	98.1445	90.2488	98.1445	90.2317	98.1445	90.2734	98.1445	90.2632	98.1445	90.2787
101.074	91.1213	101.074	91.095	101.074	91.1153	101.074	91.0383	101.074	91.0781	101.074	90.9558	101.074	91.0129	101.074	90.854	101.074	90.9255	101.074	90.7407	101.074	90.8226	101.074	90.624	101.074	90.7116	101.074	90.5114	101.074	90.5993	101.074	90.4096	101.074	90.492	101.074	90.3238	101.074	90.3952	101.074	90.2582	101.074	90.3138	101.074	90.216	101.074	90.2527	101.074	90.1987	101.074	90.2158	101.074	90.2053	101.074	90.205	101.074	90.2308	101.074	90.2181	101.074	90.2666	101.074	90.2482	101.074	90.3017	101.074	90.2845	101.074	90.3254	101.074	90.3152	101.074	90.3304
105.469	91.4723	105.469	91.4444	105.469	91.4624	105.469	91.3808	105.469	91.4158	105.469	91.2866	105.469	91.3366	105.469	91.1692	105.469	91.231	105.469	91.0375	105.469	91.1071	105.469	90.9008	105.469	90.9733	105.469	90.7679	105.469	90.8377	105.469	90.6464	105.469	90.7077	105.469	90.5424	105.469	90.5896	105.469	90.4608	105.469	90.4894	105.469	90.4048	105.469	90.4124	105.469	90.376	105.469	90.3631	105.469	90.3729	105.469	90.3433	105.469	90.3901	105.469	90.3507	105.469	90.4186	105.469	90.3781	105.469	90.4471	105.469	90.4143	105.469	90.4651	105.469	90.4468	105.469	90.4654
108.398	91.5618	108.398	91.5312	108.398	91.5535	108.398	91.4639	108.398	91.5073	108.398	91.3654	108.398	91.4277	108.398	91.2439	108.398	91.3216	108.398	91.109	108.398	91.1977	108.398	90.9711	108.398	91.0652	108.398	90.8397	108.398	90.9327	108.398	90.7229	108.398	90.8082	108.398	90.6271	108.398	90.698	108.398	90.5568	108.398	90.6079	108.398	90.5149	108.398	90.5428	108.398	90.5016	108.398	90.5064	108.398	90.5143	108.398	90.4995	108.398	90.5463	108.398	90.5186	108.398	90.5873	108.398	90.5555	108.398	90.6256	108.398	90.5984	108.398	90.65	108.398	90.6345	108.398	90.6533
112.793	91.5974	112.793	91.5622	112.793	91.59	112.793	91.4871	112.793	91.5414	112.793	91.3784	112.793	91.4569	112.793	91.2458	112.793	91.3445	112.793	91.1007	112.793	91.2144	112.793	90.9552	112.793	91.0776	112.793	90.8206	112.793	90.9441	112.793	90.7065	112.793	90.8228	112.793	90.6198	112.793	90.7207	112.793	90.5647	112.793	90.6434	112.793	90.5428	112.793	90.5949	112.793	90.5526	112.793	90.5771	112.793	90.5888	112.793	90.5889	112.793	90.6421	112.793	90.625	112.793	90.7007	112.793	90.6756	112.793	90.7515	112.793	90.7282	112.793	90.7836	112.793	90.7697	112.793	90.7899
117.188	91.3477	117.188	91.3236	117.188	91.3163	117.188	91.2472	117.188	91.2315	117.188	91.1268	117.188	91.1004	117.188	90.9745	117.188	90.9344	117.188	90.8056	117.188	90.7481	117.188	90.6363	117.188	90.5578	117.188	90.4819	117.188	90.3794	117.188	90.3553	117.188	90.2271	117.188	90.2654	117.188	90.1122	117.188	90.2169	117.188	90.0422	117.188	90.2098	117.188	90.0201	117.188	90.239	117.188	90.0442	117.188	90.2953	117.188	90.107	117.188	90.3656	117.188	90.1961	117.188	90.4348	117.188	90.2959	117.188	90.4885	117.188	90.3899	117.188	90.5148	117.188	90.4637	117.188	90.507
120.117	91.6192	120.117	91.5716	120.117	91.6007	120.117	91.4614	120.117	91.5179	120.117	91.2977	120.117	91.3778	120.117	91.0941	120.117	91.1922	120.117	90.8676	120.117	90.976	120.117	90.6371	120.117	90.746	120.117	90.4211	120.117	90.5193	120.117	90.2362	120.117	90.3119	120.117	90.0953	120.117	90.138	120.117	90.0065	120.117	90.0093	120.117	89.9722	120.117	89.9336	120.117	89.9878	120.117	89.9137	120.117	90.0425	120.117	89.9448	120.117	90.1199	120.117	90.0145	120.117	90.201	120.117	90.1046	120.117	90.2676	120.117	90.1945	120.117	90.305	120.117	90.2658	120.117	90.3048
124.512	92.173	124.512	92.1254	124.512	92.1547	124.512	92.0152	124.512	92.0728	124.512	91.8511	124.512	91.9347	124.512	91.6465	124.512	91.7526	124.512	91.4181	124.512	91.5417	124.512	91.1845	124.512	91.3189	124.512	90.9637	124.512	91.1011	124.512	90.772	124.512	90.9035	124.512	90.622	124.512	90.7388	124.512	90.522	124.512	90.6165	124.512	90.4747	124.512	90.5424	124.512	90.4768	124.512	90.517	124.512	90.5187	124.512	90.535	124.512	90.5857	124.512	90.5849	124.512	90.6605	124.512	90.6507	124.512	90.7264	124.512	90.7152	124.512	90.7698	124.512	90.7627	124.512	90.7825
128.906	92.0098	128.906	91.963	128.906	91.982	128.906	91.8449	128.906	91.8824	128.906	91.6649	128.906	91.7195	128.906	91.4375	128.906	91.5069	128.906	91.1815	128.906	91.2621	128.906	90.9178	128.906	91.0044	128.906	90.668	128.906	90.7538	128.906	90.4516	128.906	90.5285	128.906	90.2847	128.906	90.344	128.906	90.1777	128.906	90.2121	128.906	90.1335	128.906	90.1392	128.906	90.147	128.906	90.125	128.906	90.2049	128.906	90.1615	128.906	90.2879	128.906	90.2334	128.906	90.3751	128.906	90.3212	128.906	90.4476	128.906	90.4051	128.906	90.4914	128.906	90.468	128.906	90.4986
133.301	91.9044	133.301	91.8588	133.301	91.8702	133.301	91.7367	133.301	91.7593	133.301	91.5475	133.301	91.581	133.301	91.3059	133.301	91.3494	133.301	91.0308	133.301	91.083	133.301	90.7432	133.301	90.8017	133.301	90.4644	133.301	90.5256	133.301	90.214	133.301	90.273	133.301	90.0079	133.301	90.0588	133.301	89.8575	133.301	89.8945	133.301	89.7677	133.301	89.7863	133.301	89.7357	133.301	89.7348	133.301	89.7508	133.301	89.7332	133.301	89.7963	133.301	89.7681	133.301	89.853	133.301	89.8223	133.301	89.9036	133.301	89.8782	133.301	89.9356	133.301	89.9212	133.301	89.9418
139.16	91.3373	139.16	91.2916	139.16	91.2976	139.16	91.1642	139.16	91.1761	139.16	90.9661	139.16	90.9837	139.16	90.7148	139.16	90.7376	139.16	90.4324	139.16	90.4594	139.16	90.1437	139.16	90.1733	139.16	89.8733	139.16	89.9028	139.16	89.6428	139.16	89.6685	139.16	89.4687	139.16	89.4862	139.16	89.3605	139.16	89.3655	139.16	89.3189	139.16	89.3085	139.16	89.3359	139.16	89.3101	139.16	89.3956	139.16	89.3576	139.16	89.4773	139.16	89.4332	139.16	89.5602	139.16	89.5177	139.16	89.6273	139.16	89.5939	139.16	89.6673	139.16	89.6489	139.16	89.6747
143.555	91.153	143.555	91.1049	143.555	91.1036	143.555	90.9639	143.555	90.9606	143.555	90.7425	143.555	90.7362	143.555	90.4606	143.555	90.4499	143.555	90.1439	143.555	90.1271	143.555	89.8211	143.555	89.7967	143.555	89.5214	143.555	89.4883	143.555	89.2705	143.555	89.2283	143.555	89.0883	143.555	89.0372	143.555	88.9855	143.555	88.927	143.555	88.9621	143.555	88.8988	143.555	89.007	143.555	88.9425	143.555	89.0996	143.555	89.0381	143.555	89.2147	143.555	89.1603	143.555	89.3276	143.555	89.2838	143.555	89.4186	143.555	89.3879	143.555	89.4745	143.555	89.4587	143.555	89.4885
147.949	91.3141	147.949	91.2579	147.949	91.2613	147.949	91.0975	147.949	91.103	147.949	90.846	147.949	90.8513	147.949	90.5243	147.949	90.5256	147.949	90.1592	147.949	90.1519	147.949	89.7823	147.949	89.7607	147.949	89.4265	147.949	89.3848	147.949	89.1231	147.949	89.0562	147.949	88.8988	147.949	88.8036	147.949	88.7708	147.949	88.6482	147.949	88.7435	147.949	88.5995	147.949	88.806	147.949	88.6508	147.949	88.9329	147.949	88.7797	147.949	89.0908	147.949	88.9524	147.949	89.2454	147.949	89.1327	147.949	89.3686	147.949	89.2894	147.949	89.4411	147.949	89.4003	147.949	89.4525
153.809	91.3361	153.809	91.2683	153.809	91.2922	153.809	91.0937	153.809	91.1402	153.809	90.8255	153.809	90.8918	153.809	90.4847	153.809	90.5663	153.809	90.0984	153.809	90.1891	153.809	89.6974	153.809	89.789	153.809	89.3139	153.809	89.3964	153.809	88.9777	153.809	89.0401	153.809	88.7138	153.809	88.7456	153.809	88.5393	153.809	88.5332	153.809	88.4605	153.809	88.4146	153.809	88.4698	153.809	88.3899	153.809	88.5465	153.809	88.4452	153.809	88.6606	153.809	88.5542	153.809	88.7804	153.809	88.6852	153.809	88.8787	153.809	88.8078	153.809	88.9366	153.809	88.8989	153.809	88.9439
159.668	90.8319	159.668	90.7595	159.668	90.7897	159.668	90.5781	159.668	90.6373	159.668	90.3028	159.668	90.3885	159.668	89.9572	159.668	90.0657	159.668	89.5715	159.668	89.6981	159.668	89.1797	159.668	89.3183	159.668	88.8155	159.668	88.959	159.668	88.508	159.668	88.6487	159.668	88.2789	159.668	88.4091	159.668	88.1393	159.668	88.2525	159.668	88.0888	159.668	88.1807	159.668	88.1148	159.668	88.1841	159.668	88.1949	159.668	88.2437	159.668	88.3021	159.668	88.3341	159.668	88.4106	159.668	88.4303	159.668	88.5005	159.668	88.5116	159.668	88.5594	159.668	88.5643	159.668	88.5811
165.527	90.3979	165.527	90.3276	165.527	90.3255	165.527	90.1207	165.527	90.1158	165.527	89.7948	165.527	89.7857	165.527	89.3785	165.527	89.3631	165.527	88.9104	165.527	88.8861	165.527	88.4367	165.527	88.4005	165.527	88.006	165.527	87.9556	165.527	87.663	165.527	87.5974	165.527	87.4398	165.527	87.36	165.527	87.3484	165.527	87.2578	165.527	87.3765	165.527	87.2806	165.527	87.4916	165.527	87.3965	165.527	87.6508	165.527	87.5622	165.527	87.813	165.527	87.7359	165.527	87.949	165.527	87.8873	165.527	88.0438	165.527	88.0008	165.527	88.0945	165.527	88.0723	165.527	88.1033
171.387	90.7501	171.387	90.661	171.387	90.6963	171.387	90.435	171.387	90.5043	171.387	90.0878	171.387	90.1886	171.387	89.6452	171.387	89.773	171.387	89.1408	171.387	89.2892	171.387	88.6149	171.387	88.7742	171.387	88.111	171.387	88.268	171.387	87.673	171.387	87.8108	171.387	87.3414	171.387	87.4419	171.387	87.1475	171.387	87.1957	171.387	87.1043	171.387	87.0949	171.387	87.1996	171.387	87.1401	171.387	87.3951	171.387	87.3041	171.387	87.6377	171.387	87.5375	171.387	87.8745	171.387	87.7845	171.387	88.0639	171.387	87.9977	171.387	88.1793	171.387	88.1446	171.387	88.2073
177.246	90.2291	177.246	90.1519	177.246	90.1609	177.246	89.9355	177.246	89.953	177.246	89.5977	177.246	89.6228	177.246	89.1672	177.246	89.199	177.246	88.6822	177.246	88.7202	177.246	88.1874	177.246	88.2319	177.246	87.7305	177.246	87.7821	177.246	87.3569	177.246	87.4153	177.246	87.104	177.246	87.1661	177.246	86.9943	177.246	87.053	177.246	87.0284	177.246	87.0734	177.246	87.1824	177.246	87.2046	177.246	87.4126	177.246	87.4083	177.246	87.668	177.246	87.6415	177.246	87.9025	177.246	87.8648	177.246	88.0835	177.246	88.048	177.246	88.192	177.246	88.1708	177.246	88.2209
183.105	90.462	183.105	90.3753	183.105	90.3894	183.105	90.136	183.105	90.1624	183.105	89.7625	183.105	89.7975	183.105	89.2841	183.105	89.3228	183.105	88.7398	183.105	88.7771	183.105	88.1762	183.105	88.208	183.105	87.6439	183.105	87.6692	183.105	87.1938	183.105	87.2153	183.105	86.8709	183.105	86.8957	183.105	86.707	183.105	86.7434	183.105	86.7107	183.105	86.7646	183.105	86.8615	183.105	86.9322	183.105	87.1133	183.105	87.1937	183.105	87.4079	183.105	87.4875	183.105	87.6908	183.105	87.7593	183.105	87.9211	183.105	87.9708	183.105	88.0732	183.105	88.0992	183.105	88.1341
188.965	90.75	188.965	90.6574	188.965	90.677	188.965	90.4058	188.965	90.4432	188.965	90.0131	188.965	90.0646	188.965	89.5081	188.965	89.5684	188.965	88.9296	188.965	88.992	188.965	88.3242	188.965	88.3816	188.965	87.7441	188.965	87.7904	188.965	87.2435	188.965	87.2752	188.965	86.8737	188.965	86.892	188.965	86.6749	188.965	86.6856	188.965	86.6635	188.965	86.675	188.965	86.822	188.965	86.8411	188.965	87.1008	188.965	87.1293	188.965	87.4333	188.965	87.4677	188.965	87.7555	188.965	87.7895	188.965	88.0185	188.965	88.0454	188.965	88.1905	188.965	88.2053	188.965	88.2548
196.289	90.5891	196.289	90.5111	196.289	90.4997	196.289	90.2735	196.289	90.2476	196.289	89.896	196.289	89.85	196.289	89.4098	196.289	89.3357	196.289	88.8561	196.289	88.7446	196.289	88.2828	196.289	88.1251	196.289	87.7408	196.289	87.5312	196.289	87.2788	196.289	87.0181	196.289	86.9378	196.289	86.6365	196.289	86.7452	196.289	86.4241	196.289	86.7084	196.289	86.3951	196.289	86.8107	196.289	86.5321	196.289	87.0136	196.289	86.7881	196.289	87.2666	196.289	87.1007	196.289	87.5189	196.289	87.4085	196.289	87.7276	196.289	87.6629	196.289	87.8609	196.289	87.8317	196.289	87.8987
203.613	90.4183	203.613	90.3148	203.613	90.3352	203.613	90.0334	203.613	90.0704	203.613	89.5965	203.613	89.6422	203.613	89.0401	203.613	89.0825	203.613	88.4124	203.613	88.4358	203.613	87.7714	203.613	87.7581	203.613	87.1795	203.613	87.1134	203.613	86.6964	203.613	86.5691	203.613	86.3696	203.613	86.1862	203.613	86.2254	203.613	86.0059	203.613	86.2606	203.613	86.0335	203.613	86.4415	203.613	86.2333	203.613	86.7131	203.613	86.5399	203.613	87.0145	203.613	86.8815	203.613	87.2926	203.613	87.1983	203.613	87.5096	203.613	87.4499	203.613	87.6421	203.613	87.6133	203.613	87.6782
210.938	90.884	210.938	90.7835	210.938	90.7793	210.938	90.4855	210.938	90.4743	210.938	90.011	210.938	89.9865	210.938	89.3944	210.938	89.3462	210.938	88.6839	210.938	88.5961	210.938	87.94	210.938	87.7909	210.938	87.2317	210.938	86.9965	210.938	86.6293	210.938	86.2869	210.938	86.1934	210.938	85.7389	210.938	85.9599	210.938	85.4173	210.938	85.9291	210.938	85.3519	210.938	86.0648	210.938	85.5185	210.938	86.3075	210.938	85.845	210.938	86.5929	210.938	86.24	210.938	86.8649	210.938	86.6221	210.938	87.081	210.938	86.9341	210.938	87.2111	210.938	87.143	210.938	87.2353
218.262	91.1118	218.262	90.9943	218.262	91.0153	218.262	90.6699	218.262	90.7107	218.262	90.1588	218.262	90.2167	218.262	89.4949	218.262	89.5652	218.262	88.7263	218.262	88.8014	218.262	87.915	218.262	87.9831	218.262	87.1346	218.262	87.1801	218.262	86.4649	218.262	86.4701	218.262	85.9802	218.262	85.9312	218.262	85.7306	218.262	85.6245	218.262	85.7215	218.262	85.5709	218.262	85.9092	218.262	85.7365	218.262	86.2167	218.262	86.0453	218.262	86.5624	218.262	86.41	218.262	86.8797	218.262	86.7577	218.262	87.124	218.262	87.0392	218.262	87.2696	218.262	87.2263	218.262	87.3047
225.586	91.0164	225.586	90.8963	225.586	90.9268	225.586	90.5738	225.586	90.6332	225.586	90.0697	225.586	90.1542	225.586	89.4188	225.586	89.5206	225.586	88.6705	225.586	88.7757	225.586	87.8874	225.586	87.9739	225.586	87.1438	225.586	87.1801	225.586	86.5185	225.586	86.4682	225.586	86.0838	225.586	85.9172	225.586	85.8872	225.586	85.5993	225.586	85.9345	225.586	85.5558	225.586	86.1852	225.586	85.7726	225.586	86.5666	225.586	86.1789	225.586	86.9964	225.586	86.674	225.586	87.4005	225.586	87.1608	225.586	87.7204	225.586	87.565	225.586	87.9145	225.586	87.8388	225.586	87.9573
232.91	90.852	232.91	90.736	232.91	90.7324	232.91	90.391	232.91	90.3833	232.91	89.8365	232.91	89.8237	232.91	89.1058	232.91	89.086	232.91	88.2468	232.91	88.2164	232.91	87.3226	232.91	87.2763	232.91	86.4124	232.91	86.3422	232.91	85.6099	232.91	85.5057	232.91	85.0162	232.91	84.867	232.91	84.7167	232.91	84.514	232.91	84.7441	232.91	84.4876	232.91	85.0545	232.91	84.7553	232.91	85.544	232.91	85.2247	232.91	86.0931	232.91	85.7836	232.91	86.6003	232.91	86.3327	232.91	86.9926	232.91	86.796	232.91	87.2229	232.91	87.1188	232.91	87.2664
241.699	90.7502	241.699	90.5964	241.699	90.6578	241.699	90.204	241.699	90.3269	241.699	89.5958	241.699	89.78	241.699	88.8116	241.699	89.055	241.699	87.9085	241.699	88.2046	241.699	86.9612	241.699	87.2951	241.699	86.0587	241.699	86.4013	241.699	85.2948	241.699	85.5993	241.699	84.7497	241.699	84.9554	241.699	84.4646	241.699	84.515	241.699	84.4259	241.699	84.2947	241.699	84.5748	241.699	84.2834	241.699	84.8376	241.699	84.4503	241.699	85.1506	241.699	84.7495	241.699	85.4628	241.699	85.1187	241.699	85.7253	241.699	85.4819	241.699	85.8868	241.699	85.7626	241.699	85.9046
250.488	91.3723	250.488	91.2344	250.488	91.2309	250.488	90.8255	250.488	90.8159	250.488	90.1687	250.488	90.1473	250.488	89.3034	250.488	89.261	250.488	88.2872	250.488	88.2108	250.488	87.197	250.488	87.0711	250.488	86.1259	250.488	85.9389	250.488	85.1749	250.488	84.9313	250.488	84.4368	250.488	84.1702	250.488	83.9728	250.488	83.7432	250.488	83.7923	250.488	83.6561	250.488	83.8496	250.488	83.8236	250.488	84.0632	250.488	84.1193	250.488	84.3468	250.488	84.4361	250.488	84.6308	250.488	84.7125	250.488	84.8675	250.488	84.9219	250.488	85.0258	250.488	85.0511	250.488	85.0883
259.277	91.7521	259.277	91.5845	259.277	91.6343	259.277	91.1383	259.277	91.2372	259.277	90.4346	259.277	90.5808	259.277	89.5105	259.277	89.699	259.277	88.4225	259.277	88.6418	259.277	87.2489	259.277	87.4763	259.277	86.0908	259.277	86.2872	259.277	85.0651	259.277	85.1743	259.277	84.2824	259.277	84.2442	259.277	83.8069	259.277	83.5891	259.277	83.6224	259.277	83.2507	259.277	83.6389	259.277	83.1924	259.277	83.7424	259.277	83.3147	259.277	83.8469	259.277	83.5069	259.277	83.9154	259.277	83.6901	259.277	83.949	259.277	83.8273	259.277	83.9602	259.277	83.9115	259.277	83.9512
268.066	91.3839	268.066	91.2353	268.066	91.2682	268.066	90.83	268.066	90.8957	268.066	90.1914	268.066	90.2891	268.066	89.3596	268.066	89.4867	268.066	88.3933	268.066	88.5431	268.066	87.3697	268.066	87.5285	268.066	86.3823	268.066	86.5284	268.066	85.5335	268.066	85.6391	268.066	84.9179	268.066	84.9595	268.066	84.5991	268.066	84.5715	268.066	84.5859	268.066	84.5065	268.066	84.8256	268.066	84.7217	268.066	85.2221	268.066	85.1134	268.066	85.6685	268.066	85.564	268.066	86.0754	268.066	85.9814	268.066	86.3844	268.066	86.3107	268.066	86.5663	268.066	86.5253	268.066	86.6127
276.855	90.6411	276.855	90.5026	276.855	90.4666	276.855	90.0599	276.855	89.9871	276.855	89.339	276.855	89.2273	276.855	88.3858	276.855	88.2314	276.855	87.2709	276.855	87.0656	276.855	86.0929	276.855	85.821	276.855	84.9778	276.855	84.6139	276.855	84.063	276.855	83.58	276.855	83.4604	276.855	82.8531	276.855	83.2128	276.855	82.5234	276.855	83.2812	276.855	82.5951	276.855	83.5757	276.855	82.9805	276.855	84.0004	276.855	83.5452	276.855	84.4751	276.855	84.1614	276.855	84.9331	276.855	84.7336	276.855	85.3126	276.855	85.1963	276.855	85.5577	276.855	85.504	276.855	85.6273
287.109	90.4992	287.109	90.3255	287.109	90.3219	287.109	89.8114	287.109	89.8043	287.109	88.9897	287.109	88.9809	287.109	87.9201	287.109	87.9164	287.109	86.6967	287.109	86.7112	287.109	85.4539	287.109	85.4992	287.109	84.3606	287.109	84.4251	287.109	83.5814	287.109	83.6006	287.109	83.2045	287.109	83.0644	287.109	83.1862	287.109	82.7815	287.109	83.3772	287.109	82.6771	287.109	83.6078	287.109	82.6755	287.109	83.7582	287.109	82.7203	287.109	83.7822	287.109	82.7812	287.109	83.696	287.109	82.8529	287.109	83.5464	287.109	82.9448	287.109	83.3769	287.109	83.0652	287.109	83.2122
297.363	91.1551	297.363	90.9231	297.363	91.0057	297.363	90.318	297.363	90.4756	297.363	89.3594	297.363	89.5752	297.363	88.0831	297.363	88.3278	297.363	86.5499	297.363	86.7793	297.363	84.8654	297.363	85.0228	297.363	83.2166	297.363	83.2501	297.363	81.9174	297.363	81.8128	297.363	81.3507	297.363	81.1412	297.363	81.6711	297.363	81.3727	297.363	82.6066	297.363	82.1935	297.363	83.7299	297.363	83.1981	297.363	84.7398	297.363	84.1382	297.363	85.4967	297.363	84.9062	297.363	85.9732	297.363	85.4739	297.363	86.2092	297.363	85.8567	297.363	86.2735	297.363	86.0939	297.363	86.227
307.617	91.2898	307.617	91.056	307.617	91.186	307.617	90.4903	307.617	90.7494	307.617	89.6107	307.617	89.9946	307.617	88.4525	307.617	88.9465	307.617	87.0754	307.617	87.6436	307.617	85.5752	307.617	86.1449	307.617	84.0955	307.617	84.5456	307.617	82.8264	307.617	83.0072	307.617	81.9724	307.617	81.7996	307.617	81.6862	307.617	81.2747	307.617	82.0103	307.617	81.6314	307.617	82.8592	307.617	82.6812	307.617	84.0386	307.617	84.0287	307.617	85.3077	307.617	85.3591	307.617	86.4554	307.617	86.4976	307.617	87.341	307.617	87.3572	307.617	87.89	307.617	87.8916	307.617	88.0741
319.336	90.3216	319.336	90.1314	319.336	90.1431	319.336	89.578	319.336	89.6041	319.336	88.6801	319.336	88.7285	319.336	87.4706	319.336	87.5586	319.336	86	319.336	86.1615	319.336	84.347	319.336	84.6389	319.336	82.6406	319.336	83.1417	319.336	81.0957	319.336	81.8751	319.336	80.0235	319.336	81.0604	319.336	79.7062	319.336	80.829	319.336	80.1565	319.336	81.1331	319.336	81.108	319.336	81.7945	319.336	82.2583	319.336	82.6294	319.336	83.4009	319.336	83.5091	319.336	84.4046	319.336	84.3447	319.336	85.1739	319.336	85.0544	319.336	85.6387	319.336	85.5525	319.336	85.7629
329.59	90.7896	329.59	90.6072	329.59	90.579	329.59	90.037	329.59	89.9861	329.59	89.1008	329.59	89.0382	329.59	87.8401	329.59	87.7803	329.59	86.3213	329.59	86.2793	329.59	84.6455	329.59	84.6301	329.59	82.9665	329.59	82.9699	329.59	81.5098	329.59	81.4989	329.59	80.5552	329.59	80.4877	329.59	80.3116	329.59	80.1937	329.59	80.7451	329.59	80.6651	329.59	81.6027	329.59	81.6663	329.59	82.6105	329.59	82.8621	329.59	83.5923	329.59	83.996	329.59	84.4617	329.59	84.9216	329.59	85.172	329.59	85.5682	329.59	85.6798	329.59	85.9076	329.59	85.938
341.309	90.8748	341.309	90.6405	341.309	90.6707	341.309	89.9746	341.309	90.0326	341.309	88.8973	341.309	88.9778	341.309	87.4475	341.309	87.5402	341.309	85.6968	341.309	85.78	341.309	83.7743	341.309	83.802	341.309	81.9023	341.309	81.7913	341.309	80.4056	341.309	80.0579	341.309	79.6105	341.309	79.0099	341.309	79.645	341.309	78.9152	341.309	80.3701	341.309	79.6497	341.309	81.5175	341.309	80.8509	341.309	82.8195	341.309	82.2029	341.309	84.0618	341.309	83.5082	341.309	85.0995	341.309	84.6457	341.309	85.8519	341.309	85.5342	341.309	86.2813	341.309	86.1196	341.309	86.3719
353.027	90.7402	353.027	90.5277	353.027	90.4909	353.027	89.8603	353.027	89.7819	353.027	88.7535	353.027	88.6246	353.027	87.2338	353.027	87.0441	353.027	85.345	353.027	85.0897	353.027	83.1656	353.027	82.8603	353.027	80.8541	353.027	80.5617	353.027	78.7461	353.027	78.5833	353.027	77.4171	353.027	77.4391	353.027	77.327	353.027	77.3693	353.027	78.2535	353.027	78.1142	353.027	79.6339	353.027	79.2847	353.027	81.1108	353.027	80.6369	353.027	82.5269	353.027	82.0306	353.027	83.7758	353.027	83.3387	353.027	84.7453	353.027	84.4244	353.027	85.3347	353.027	85.1657	353.027	85.4802
366.211	91.005	366.211	90.7476	366.211	90.8359	366.211	90.0717	366.211	90.2393	366.211	88.9947	366.211	89.2197	366.211	87.5492	366.211	87.7883	366.211	85.7932	366.211	85.9671	366.211	83.8297	366.211	83.8003	366.211	81.8342	366.211	81.3804	366.211	80.0642	366.211	78.9034	366.211	78.8002	366.211	76.7719	366.211	78.2273	366.211	75.6333	366.211	78.3982	366.211	75.9224	366.211	79.2755	366.211	77.2968	366.211	80.6782	366.211	79.1131	366.211	82.268	366.211	80.9595	366.211	83.7047	366.211	82.6264	366.211	84.7658	366.211	83.9826	366.211	85.3419	366.211	84.9287	366.211	85.3946
379.395	90.1864	379.395	89.9216	379.395	90.0178	379.395	89.2192	379.395	89.4309	379.395	88.0844	379.395	88.4502	379.395	86.5297	379.395	87.1076	379.395	84.5752	379.395	85.4428	379.395	82.265	379.395	83.5178	379.395	79.733	379.395	81.459	379.395	77.3789	379.395	79.5329	379.395	76.0108	379.395	78.1717	379.395	76.1417	379.395	77.7243	379.395	77.2019	379.395	78.0795	379.395	78.4503	379.395	78.8267	379.395	79.5875	379.395	79.67	379.395	80.6096	379.395	80.5304	379.395	81.5816	379.395	81.4224	379.395	82.4576	379.395	82.2895	379.395	83.0673	379.395	82.9605	379.395	83.2501
392.578	90.4315	392.578	90.2531	392.578	90.1326	392.578	89.6037	392.578	89.3622	392.578	88.4999	392.578	88.139	392.578	86.9634	392.578	86.4914	392.578	85.0204	392.578	84.452	392.578	82.7129	392.578	82.0608	392.578	80.1485	392.578	79.4057	392.578	77.6336	392.578	76.7873	392.578	75.8494	392.578	75.0295	392.578	75.5026	392.578	75.0268	392.578	76.392	392.578	76.3123	392.578	77.7731	392.578	77.8813	392.578	79.1785	392.578	79.2789	392.578	80.4405	392.578	80.433	392.578	81.5159	392.578	81.4033	392.578	82.3672	392.578	82.2221	392.578	82.9152	392.578	82.8192	392.578	83.0737
405.762	90.2831	405.762	89.9711	405.762	90.1079	405.762	89.1779	405.762	89.4618	405.762	87.9316	405.762	88.3803	405.762	86.2814	405.762	86.9128	405.762	84.2945	405.762	85.1147	405.762	82.0589	405.762	83.0414	405.762	79.7093	405.762	80.755	405.762	77.4897	405.762	78.3578	405.762	75.7978	405.762	76.0749	405.762	75.0338	405.762	74.4295	405.762	75.2656	405.762	74.2545	405.762	76.2136	405.762	75.707	405.762	77.5574	405.762	77.8442	405.762	79.0621	405.762	79.8577	405.762	80.5304	405.762	81.4377	405.762	81.7824	405.762	82.5108	405.762	82.6761	405.762	83.0703	405.762	83.1203
420.41	89.5072	420.41	89.2894	420.41	89.1798	420.41	88.5449	420.41	88.3044	420.41	87.3035	420.41	86.8975	420.41	85.6007	420.41	85.0032	420.41	83.4755	420.41	82.7109	420.41	80.9891	420.41	80.1924	420.41	78.3135	420.41	77.7499	420.41	75.9311	420.41	75.7961	420.41	74.6561	420.41	74.6582	420.41	74.7985	420.41	74.3862	420.41	75.7763	420.41	74.8281	420.41	77.0115	420.41	75.7812	420.41	78.2753	420.41	77.0709	420.41	79.5386	420.41	78.5688	420.41	80.7833	420.41	80.1227	420.41	81.8813	420.41	81.5011	420.41	82.628	420.41	82.4615	420.41	82.8486
435.059	89.6117	435.059	89.3255	435.059	89.3391	435.059	88.4951	435.059	88.511	435.059	87.1533	435.059	87.1458	435.059	85.3452	435.059	85.2703	435.059	83.1211	435.059	82.9131	435.059	80.5376	435.059	80.1142	435.059	77.7006	435.059	77.0081	435.059	74.9177	435.059	74.1212	435.059	72.9852	435.059	72.7006	435.059	72.9136	435.059	73.3881	435.059	74.5079	435.059	75.1363	435.059	76.6966	435.059	77.0115	435.059	78.7886	435.059	78.674	435.059	80.5131	435.059	80.0604	435.059	81.8023	435.059	81.2108	435.059	82.6682	435.059	82.1528	435.059	83.1289	435.059	82.8391	435.059	83.183
451.172	88.9201	451.172	88.5128	451.172	88.6781	451.172	87.4594	451.172	87.8101	451.172	85.7979	451.172	86.365	451.172	83.6174	451.172	84.4158	451.172	81.0812	451.172	82.0529	451.172	78.4427	451.172	79.3783	451.172	76.0738	451.172	76.5412	451.172	74.5001	451.172	73.8664	451.172	74.1344	451.172	71.9753	451.172	74.7991	451.172	71.4925	451.172	76.0215	451.172	72.4744	451.172	77.4934	451.172	74.4787	451.172	79.0854	451.172	76.9527	451.172	80.7414	451.172	79.438	451.172	82.3512	451.172	81.6285	451.172	83.7074	451.172	83.3334	451.172	84.5912	451.172	84.4312	451.172	84.8536
465.82	90.5684	465.82	90.1909	465.82	90.2357	465.82	89.0944	465.82	89.217	465.82	87.2824	465.82	87.5585	465.82	84.772	465.82	85.3303	465.82	81.5997	465.82	82.6103	465.82	77.838	465.82	79.4366	465.82	73.6735	465.82	75.78	465.82	69.8572	465.82	71.8167	465.82	68.5397	465.82	69.2534	465.82	70.262	465.82	70.2237	465.82	72.9056	465.82	72.5631	465.82	75.4814	465.82	74.7236	465.82	77.7522	465.82	76.5026	465.82	79.7076	465.82	78.0857	465.82	81.3963	465.82	79.7681	465.82	82.7533	465.82	81.5181	465.82	83.5748	465.82	82.9335	465.82	83.6598
483.398	90.4307	483.398	90.1089	483.398	90.0787	483.398	89.1389	483.398	89.0415	483.398	87.5555	483.398	87.324	483.398	85.3867	483.398	84.9478	483.398	82.6187	483.398	81.9519	483.398	79.1366	483.398	78.4053	483.398	74.6256	483.398	74.5144	483.398	68.4327	483.398	71.0802	483.398	62.3553	483.398	69.7134	483.398	65.8336	483.398	70.5035	483.398	69.5534	483.398	72.1619	483.398	72.238	483.398	74.0286	483.398	74.3857	483.398	75.7687	483.398	76.1132	483.398	77.1989	483.398	77.5173	483.398	78.3213	483.398	78.6849	483.398	79.2081	483.398	79.554	483.398	79.8091	483.398	79.9561
499.512	89.4845	499.512	89.1376	499.512	89.2233	499.512	88.1907	499.512	88.3528	499.512	86.6627	499.512	86.8775	499.512	84.5937	499.512	84.8094	499.512	82.0619	499.512	82.1751	499.512	79.2112	499.512	79.0333	499.512	76.2729	499.512	75.513	499.512	73.54	499.512	71.8813	499.512	71.2957	499.512	68.64	499.512	69.8327	499.512	66.6335	499.512	69.5533	499.512	66.8314	499.512	70.7716	499.512	69.1747	499.512	73.1666	499.512	72.4324	499.512	75.8944	499.512	75.5805	499.512	78.3036	499.512	78.1668	499.512	80.1037	499.512	80.043	499.512	81.1971	499.512	81.1734	499.512	81.5564
517.09	88.7379	517.09	88.3801	517.09	88.3843	517.09	87.3111	517.09	87.3213	517.09	85.5391	517.09	85.556	517.09	83.1035	517.09	83.1173	517.09	80.1363	517.09	80.1074	517.09	76.9836	517.09	76.8317	517.09	74.2257	517.09	73.9293	517.09	72.2035	517.09	71.9583	517.09	70.6998	517.09	70.7002	517.09	69.6159	517.09	69.7461	517.09	69.4501	517.09	69.1887	517.09	70.85	517.09	69.5388	517.09	73.5552	517.09	71.3809	517.09	76.5471	517.09	74.3842	517.09	79.0997	517.09	77.4319	517.09	80.9256	517.09	79.8417	517.09	81.9362	517.09	81.4087	517.09	82.103
536.133	88.8443	536.133	88.3708	536.133	88.5704	536.133	87.1452	536.133	87.5553	536.133	85.1701	536.133	85.8065	536.133	82.4767	536.133	83.3395	536.133	79.1787	536.133	80.1978	536.133	75.5714	536.133	76.5028	536.133	72.1193	536.133	72.5566	536.133	68.9961	536.133	68.9019	536.133	65.815	536.133	66.1003	536.133	62.5088	536.133	64.6955	536.133	59.9073	536.133	65.5394	536.133	60.4477	536.133	68.6308	536.133	66.894	536.133	72.5909	536.133	72.9311	536.133	76.26	536.133	77.23	536.133	79.1738	536.133	80.1175	536.133	81.2084	536.133	81.8484	536.133	82.3421	536.133	82.5656
555.176	88.8575	555.176	88.4408	555.176	88.396	555.176	87.1231	555.176	87.0671	555.176	84.861	555.176	84.8849	555.176	81.5977	555.176	81.9067	555.176	77.3892	555.176	78.352	555.176	73.1831	555.176	74.8418	555.176	71.4626	555.176	72.238	555.176	71.5021	555.176	70.4667	555.176	71.1771	555.176	68.6778	555.176	70.2487	555.176	66.4938	555.176	69.2761	555.176	64.2252	555.176	69.3982	555.176	63.4447	555.176	72.0334	555.176	67.5982	555.176	76.0423	555.176	73.2926	555.176	79.5462	555.176	77.7692	555.176	81.9926	555.176	80.8903	555.176	83.336	555.176	82.8024	555.176	83.6041
574.219	90.2143	574.219	89.7495	574.219	89.8372	574.219	88.4388	574.219	88.6032	574.219	86.2586	574.219	86.4702	574.219	83.1537	574.219	83.3463	574.219	79.0227	574.219	79.0555	574.219	73.8099	574.219	73.4999	574.219	68.6535	574.219	69.0043	574.219	67.2756	574.219	69.4806	574.219	67.8319	574.219	70.3122	574.219	68.0231	574.219	70.2007	574.219	68.2107	574.219	69.9047	574.219	69.06	574.219	70.0426	574.219	71.5412	574.219	71.2811	574.219	75.4442	574.219	74.449	574.219	79.1378	574.219	78.2368	574.219	81.8335	574.219	81.2397	574.219	83.3913	574.219	83.104	574.219	83.8143
594.727	90.7716	594.727	90.2942	594.727	90.4055	594.727	88.9684	594.727	89.1887	594.727	86.7765	594.727	87.098	594.727	83.6897	594.727	84.0874	594.727	79.6968	594.727	80.088	594.727	75.0319	594.727	75.1503	594.727	71.1301	594.727	70.5731	594.727	69.9722	594.727	69.4574	594.727	69.9752	594.727	70.0206	594.727	69.5828	594.727	70.1814	594.727	68.685	594.727	70.1013	594.727	67.8986	594.727	70.5133	594.727	68.957	594.727	72.0542	594.727	72.421	594.727	74.6172	594.727	76.1436	594.727	77.3773	594.727	78.9771	594.727	79.6143	594.727	80.7185	594.727	80.9896	594.727	81.3763
615.234	90.6923	615.234	90.1949	615.234	90.308	615.234	88.7963	615.234	89.0407	615.234	86.4487	615.234	86.865	615.234	83.0477	615.234	83.7114	615.234	78.3629	615.234	79.4192	615.234	72.0487	615.234	73.6828	615.234	66.8697	615.234	67.0693	615.234	68.6677	615.234	66.007	615.234	70.1724	615.234	67.5421	615.234	70.275	615.234	67.694	615.234	69.7326	615.234	67.0291	615.234	69.5042	615.234	66.6339	615.234	70.4619	615.234	67.7064	615.234	72.7519	615.234	70.7692	615.234	75.5827	615.234	74.4672	615.234	78.0108	615.234	77.4526	615.234	79.542	615.234	79.3121	615.234	79.998
637.207	89.6725	637.207	89.109	637.207	89.3563	637.207	87.6704	637.207	88.172	637.207	85.3805	637.207	86.1544	637.207	82.3001	637.207	83.374	637.207	78.5709	637.207	79.9391	637.207	74.5009	637.207	75.9413	637.207	70.6399	637.207	71.3064	637.207	67.6193	637.207	65.8442	637.207	65.7712	637.207	62.1185	637.207	65.0415	637.207	63.9517	637.207	65.2298	637.207	65.9429	637.207	66.3954	637.207	67.2044	637.207	68.4267	637.207	68.4942	637.207	70.7233	637.207	70.3489	637.207	72.936	637.207	72.7902	637.207	74.9299	637.207	75.1145	637.207	76.4168	637.207	76.6255	637.207	77.0527
659.18	89.461	659.18	89.108	659.18	88.8651	659.18	87.8077	659.18	87.3302	659.18	85.5667	659.18	84.8966	659.18	82.3938	659.18	81.683	659.18	78.2913	659.18	77.9834	659.18	73.2657	659.18	74.3191	659.18	67.7431	659.18	71.055	659.18	64.8084	659.18	67.8974	659.18	65.8678	659.18	64.8343	659.18	67.1229	659.18	63.773	659.18	67.8028	659.18	64.6532	659.18	68.4828	659.18	65.3354	659.18	69.9258	659.18	66.0786	659.18	72.2772	659.18	67.9406	659.18	74.8269	659.18	70.7988	659.18	76.7932	659.18	73.803	659.18	77.7577	659.18	76.1975	659.18	77.5635
682.617	90.0698	682.617	89.443	682.617	89.6065	682.617	87.7406	682.617	88.053	682.617	85.0218	682.617	85.4483	682.617	81.5078	682.617	81.983	682.617	77.7999	682.617	78.259	682.617	74.6713	682.617	75.2104	682.617	71.9738	682.617	72.8686	682.617	68.8967	682.617	70.3209	682.617	65.8943	682.617	67.1453	682.617	65.5561	682.617	64.4029	682.617	66.7852	682.617	63.7702	682.617	68.0573	682.617	64.8753	682.617	70.217	682.617	67.6529	682.617	73.5823	682.617	71.7513	682.617	77.3048	682.617	76.1087	682.617	80.3783	682.617	79.6701	682.617	82.2725	682.617	81.9434	682.617	82.8106
707.52	90.8134	707.52	90.2881	707.52	90.2349	707.52	88.6541	707.52	88.5474	707.52	85.9151	707.52	85.7501	707.52	82.1784	707.52	81.9489	707.52	78.0249	707.52	77.8271	707.52	74.9338	707.52	75.1803	707.52	73.2981	707.52	74.1651	707.52	71.4335	707.52	72.8757	707.52	68.1471	707.52	70.5386	707.52	64.103	707.52	67.9279	707.52	64.3687	707.52	67.3727	707.52	66.9065	707.52	68.6737	707.52	69.0198	707.52	70.1685	707.52	71.0506	707.52	71.5449	707.52	73.5235	707.52	73.4092	707.52	76.2044	707.52	75.917	707.52	78.1523	707.52	77.9764	707.52	78.7887
732.422	90.1645	732.422	89.5305	732.422	89.6772	732.422	87.7381	732.422	88.063	732.422	84.7	732.422	85.2798	732.422	80.3006	732.422	81.3078	732.422	74.8849	732.422	76.6491	732.422	71.7083	732.422	73.7373	732.422	71.9617	732.422	73.2354	732.422	71.6214	732.422	72.2697	732.422	69.5694	732.422	69.6602	732.422	65.6031	732.422	65.0923	732.422	62.6536	732.422	61.4703	732.422	66.0242	732.422	64.4144	732.422	69.7498	732.422	67.9542	732.422	72.5601	732.422	70.8032	732.422	74.618	732.422	73.0847	732.422	76.0306	732.422	74.9098	732.422	76.8203	732.422	76.241	732.422	76.9082
757.324	89.6922	757.324	89.1691	757.324	89.1458	757.324	87.5662	757.324	87.4928	757.324	84.8263	757.324	84.6231	757.324	80.8197	757.324	80.2852	757.324	75.338	757.324	74.0531	757.324	69.1493	757.324	68.1776	757.324	68.0638	757.324	69.6378	757.324	69.5749	757.324	70.923	757.324	69.7993	757.324	70.4777	757.324	68.8198	757.324	68.8138	757.324	67.4602	757.324	67.2391	757.324	67.4027	757.324	67.8509	757.324	68.9548	757.324	69.6053	757.324	70.6986	757.324	70.975	757.324	71.9772	757.324	71.7882	757.324	72.7186	757.324	72.2366	757.324	72.9772	757.324	72.564	757.324	72.8616
785.156	89.1514	785.156	88.5011	785.156	88.6893	785.156	86.7483	785.156	87.1064	785.156	83.9056	785.156	84.4041	785.156	80.0062	785.156	80.6364	785.156	75.2778	785.156	76.1076	785.156	71.1975	785.156	72.0745	785.156	70.4693	785.156	70.6099	785.156	71.28	785.156	70.9372	785.156	71.4214	785.156	71.1081	785.156	70.2678	785.156	70.2346	785.156	67.4917	785.156	67.8376	785.156	64.6428	785.156	64.5053	785.156	66.9507	785.156	65.8725	785.156	70.2926	785.156	69.8525	785.156	72.5761	785.156	72.6403	785.156	74.1263	785.156	74.3513	785.156	75.1025	785.156	75.2599	785.156	75.4927
811.523	89.4389	811.523	88.6766	811.523	88.9213	811.523	86.6946	811.523	87.0902	811.523	83.6403	811.523	83.9389	811.523	79.8816	811.523	79.5836	811.523	76.0725	811.523	74.6302	811.523	72.6853	811.523	70.6903	811.523	69.4932	811.523	68.6511	811.523	66.3785	811.523	67.3797	811.523	64.9703	811.523	66.4123	811.523	65.9515	811.523	65.8241	811.523	67.1883	811.523	64.9897	811.523	68.4913	811.523	64.0543	811.523	69.9505	811.523	65.0908	811.523	70.8064	811.523	67.4737	811.523	71.4095	811.523	70.5027	811.523	73.3542	811.523	73.8672	811.523	75.7278	811.523	76.1931	811.523	76.8319
840.82	89.6891	840.82	88.9585	840.82	88.9829	840.82	86.722	840.82	86.8631	840.82	82.8379	840.82	83.34	840.82	77.1061	840.82	78.4989	840.82	70.126	840.82	72.9685	840.82	67.516	840.82	69.4092	840.82	68.5366	840.82	69.0254	840.82	68.6689	840.82	68.9755	840.82	67.492	840.82	68.5278	840.82	65.4584	840.82	67.9969	840.82	63.37	840.82	67.077	840.82	61.2306	840.82	64.7904	840.82	59.454	840.82	60.3265	840.82	60.2743	840.82	57.5726	840.82	67.3848	840.82	65.7775	840.82	73.338	840.82	72.3064	840.82	76.5615	840.82	76.0463	840.82	77.418
870.117	89.483	870.117	88.7412	870.117	88.8671	870.117	86.6577	870.117	86.8743	870.117	83.2815	870.117	83.4871	870.117	78.8188	870.117	78.7985	870.117	74.0123	870.117	73.7465	870.117	70.4908	870.117	71.2849	870.117	68.8436	870.117	71.1135	870.117	67.7192	870.117	70.5844	870.117	66.21	870.117	69.0289	870.117	63.8308	870.117	66.42	870.117	59.7391	870.117	63.3103	870.117	55.2131	870.117	61.1867	870.117	59.0133	870.117	60.8322	870.117	62.5638	870.117	62.8505	870.117	65.8234	870.117	66.8384	870.117	69.6322	870.117	70.6359	870.117	72.4931	870.117	73.024	870.117	73.6622
900.879	90.19	900.879	89.45	900.879	89.4595	900.879	87.2002	900.879	87.2632	900.879	83.3732	900.879	83.592	900.879	77.976	900.879	78.5169	900.879	71.938	900.879	72.6249	900.879	69.2101	900.879	68.2395	900.879	69.6114	900.879	67.2189	900.879	69.6286	900.879	67.2555	900.879	68.3402	900.879	66.9554	900.879	65.7467	900.879	66.5777	900.879	62.8571	900.879	66.3932	900.879	60.9381	900.879	65.7449	900.879	60.4277	900.879	64.4707	900.879	64.0042	900.879	64.6197	900.879	70.0324	900.879	68.2201	900.879	74.6295	900.879	72.7919	900.879	77.1244	900.879	76.1073	900.879	77.5887
933.105	88.7974	933.105	88.0698	933.105	88.2143	933.105	86.0765	933.105	86.2812	933.105	82.916	933.105	82.9481	933.105	78.7947	933.105	78.1888	933.105	73.9574	933.105	72.2962	933.105	68.9013	933.105	67.632	933.105	66.8906	933.105	67.4469	933.105	68.1759	933.105	68.2395	933.105	68.6696	933.105	67.8678	933.105	67.7046	933.105	66.3639	933.105	66.0188	933.105	65.0631	933.105	65.2697	933.105	64.9692	933.105	65.4794	933.105	65.0292	933.105	65.8756	933.105	65.0825	933.105	68.5484	933.105	68.4398	933.105	73.1108	933.105	73.4679	933.105	76.3967	933.105	76.6519	933.105	77.605
965.332	88.9396	965.332	88.182	965.332	88.2275	965.332	85.9308	965.332	86.1245	965.332	82.2519	965.332	82.8307	965.332	77.5125	965.332	78.8199	965.332	72.8492	965.332	74.8919	965.332	69.9915	965.332	71.7783	965.332	69.173	965.332	70.0978	965.332	69.1813	965.332	69.9784	965.332	69.3714	965.332	69.9258	965.332	69.3893	965.332	68.5204	965.332	68.5957	965.332	65.3465	965.332	66.2796	965.332	62.8489	965.332	61.6497	965.332	63.6967	965.332	59.4675	965.332	64.5829	965.332	66.8748	965.332	66.1234	965.332	71.8926	965.332	69.6879	965.332	74.4356	965.332	73.1148	965.332	74.8074
1000.49	87.9865	1000.49	87.2508	1000.49	87.3813	1000.49	85.3077	1000.49	85.493	1000.49	82.5148	1000.49	82.6182	1000.49	79.4175	1000.49	79.3701	1000.49	76.4095	1000.49	76.435	1000.49	73.3276	1000.49	73.8739	1000.49	69.9889	1000.49	71.2188	1000.49	68.7032	1000.49	68.962	1000.49	70.4436	1000.49	68.5844	1000.49	71.2856	1000.49	68.9739	1000.49	69.7762	1000.49	68.6021	1000.49	65.8469	1000.49	67.7179	1000.49	63.8394	1000.49	66.9775	1000.49	66.0794	1000.49	66.1271	1000.49	67.7967	1000.49	66.0991	1000.49	69.6814	1000.49	68.9545	1000.49	71.9242	1000.49	71.9427	1000.49	72.9708
1035.64	88.8165	1035.64	87.8705	1035.64	88.0236	1035.64	85.2111	1035.64	85.6251	1035.64	81.1714	1035.64	82.0424	1035.64	76.8715	1035.64	78.2256	1035.64	74.062	1035.64	75.2555	1035.64	72.7856	1035.64	73.0822	1035.64	71.3643	1035.64	71.0385	1035.64	69.1275	1035.64	69.6818	1035.64	67.4166	1035.64	69.8004	1035.64	67.5864	1035.64	69.8914	1035.64	67.7708	1035.64	68.2947	1035.64	66.6731	1035.64	65.0768	1035.64	64.1581	1035.64	63.8513	1035.64	61.0175	1035.64	65.3587	1035.64	63.871	1035.64	68.0328	1035.64	70.4531	1035.64	71.7802	1035.64	74.5314	1035.64	74.8296	1035.64	75.8995
1072.27	88.2632	1072.27	87.3147	1072.27	87.6198	1072.27	84.882	1072.27	85.472	1072.27	81.4212	1072.27	82.1751	1072.27	77.9469	1072.27	78.5644	1072.27	75.4484	1072.27	75.6945	1072.27	73.6151	1072.27	73.703	1072.27	71.4936	1072.27	71.9173	1072.27	69.4796	1072.27	70.49	1072.27	69.737	1072.27	70.4469	1072.27	70.8583	1072.27	70.6814	1072.27	70.1093	1072.27	69.2167	1072.27	66.2771	1072.27	65.2241	1072.27	58.4977	1072.27	60.5291	1072.27	60.0354	1072.27	60.868	1072.27	65.3849	1072.27	64.045	1072.27	69.3484	1072.27	68.1639	1072.27	72.0197	1072.27	71.4526	1072.27	72.8097
1108.89	88.5383	1108.89	87.5884	1108.89	87.7864	1108.89	85.063	1108.89	85.4336	1108.89	81.4919	1108.89	81.9479	1108.89	78.071	1108.89	78.4812	1108.89	75.8878	1108.89	76.2644	1108.89	74.4291	1108.89	74.9165	1108.89	72.5415	1108.89	73.0693	1108.89	70.0382	1108.89	70.4843	1108.89	68.5604	1108.89	69.5934	1108.89	68.4723	1108.89	70.2405	1108.89	67.3112	1108.89	69.2978	1108.89	65.3009	1108.89	66.6911	1108.89	64.0815	1108.89	64.8208	1108.89	62.4296	1108.89	63.5615	1108.89	62.6684	1108.89	64.0278	1108.89	68.7672	1108.89	68.8458	1108.89	73.3113	1108.89	73.1396	1108.89	74.7248
1148.44	87.9952	1148.44	87.0612	1148.44	87.1633	1148.44	84.569	1148.44	84.7	1148.44	81.2891	1148.44	81.3604	1148.44	78.6956	1148.44	78.7925	1148.44	77.3939	1148.44	77.736	1148.44	76.091	1148.44	76.6454	1148.44	73.2921	1148.44	73.9431	1148.44	68.6087	1148.44	69.2871	1148.44	68.9666	1148.44	68.5732	1148.44	71.9445	1148.44	71.4489	1148.44	71.4423	1148.44	70.7945	1148.44	67.0934	1148.44	65.5108	1148.44	60.4633	1148.44	56.028	1148.44	61.4147	1148.44	60.4061	1148.44	63.6795	1148.44	64.9904	1148.44	66.2071	1148.44	67.8976	1148.44	72.4506	1148.44	72.8331	1148.44	74.7753
1189.45	87.9335	1189.45	87.045	1189.45	87.0065	1189.45	84.4013	1189.45	84.4049	1189.45	80.4734	1189.45	80.7234	1189.45	76.8378	1189.45	77.5454	1189.45	75.4706	1189.45	76.344	1189.45	75.4067	1189.45	76.0851	1189.45	74.4866	1189.45	75.1577	1189.45	71.1869	1189.45	72.3609	1189.45	62.0289	1189.45	66.3828	1189.45	68.3304	1189.45	69.655	1189.45	72.7457	1189.45	73.2318	1189.45	72.2087	1189.45	72.3783	1189.45	67.7397	1189.45	67.6152	1189.45	66.5666	1189.45	65.9442	1189.45	70.6892	1189.45	70.3375	1189.45	71.0027	1189.45	71.1508	1189.45	71.8973	1189.45	72.1152	1189.45	73.3525
1230.47	87.0592	1230.47	85.8191	1230.47	86.0846	1230.47	82.5387	1230.47	83.0932	1230.47	78.1884	1230.47	79.0772	1230.47	75.0634	1230.47	76.37	1230.47	74.1864	1230.47	75.934	1230.47	73.8263	1230.47	75.9382	1230.47	72.8717	1230.47	74.9503	1230.47	71.0842	1230.47	72.4766	1230.47	68.3504	1230.47	68.3398	1230.47	66.7878	1230.47	66.1764	1230.47	68.6641	1230.47	69.317	1230.47	69.4644	1230.47	70.419	1230.47	67.6376	1230.47	68.2809	1230.47	65.5374	1230.47	64.9264	1230.47	67.1527	1230.47	66.4199	1230.47	68.3224	1230.47	67.9893	1230.47	68.1693	1230.47	68.0949	1230.47	67.9172
1274.41	86.3677	1274.41	84.8985	1274.41	85.469	1274.41	81.3441	1274.41	82.2994	1274.41	76.9815	1274.41	77.778	1274.41	74.4722	1274.41	74.8322	1274.41	74.3605	1274.41	74.9964	1274.41	74.2204	1274.41	75.1883	1274.41	72.8225	1274.41	73.7585	1274.41	69.9971	1274.41	71.08	1274.41	65.2647	1274.41	68.4589	1274.41	63.8686	1274.41	67.5764	1274.41	68.4381	1274.41	68.1323	1274.41	69.7022	1274.41	68.152	1274.41	67.6749	1274.41	66.4344	1274.41	65.1399	1274.41	63.981	1274.41	65.6726	1274.41	64.7378	1274.41	65.87	1274.41	66.4951	1274.41	65.705	1274.41	66.9189	1274.41	66.2689
1319.82	86.0414	1319.82	84.5114	1319.82	85.0027	1319.82	80.7786	1319.82	81.5159	1319.82	76.5143	1319.82	76.7651	1319.82	74.649	1319.82	74.2192	1319.82	74.8275	1319.82	74.7794	1319.82	74.4034	1319.82	74.7108	1319.82	72.5914	1319.82	72.7272	1319.82	69.5718	1319.82	69.3543	1319.82	66.3304	1319.82	66.2287	1319.82	66.5905	1319.82	66.8701	1319.82	67.2732	1319.82	67.4798	1319.82	65.7282	1319.82	65.5939	1319.82	63.3409	1319.82	62.3488	1319.82	61.9351	1319.82	61.1571	1319.82	62.9685	1319.82	62.0907	1319.82	66.3686	1319.82	65.5106	1319.82	69.5778	1319.82	69.3552	1319.82	70.8206
1366.7	84.4253	1366.7	82.935	1366.7	83.0777	1366.7	79.0098	1366.7	79.1475	1366.7	74.6094	1366.7	74.2772	1366.7	72.9819	1366.7	72.6002	1366.7	73.7668	1366.7	73.8544	1366.7	73.9113	1366.7	73.938	1366.7	72.9106	1366.7	72.4376	1366.7	70.9555	1366.7	69.4534	1366.7	67.823	1366.7	65.5584	1366.7	64.8944	1366.7	66.9031	1366.7	64.7726	1366.7	68.1487	1366.7	62.0212	1366.7	64.8103	1366.7	50.777	1366.7	55.603	1366.7	57.785	1366.7	57.1728	1366.7	58.2912	1366.7	57.1945	1366.7	62.0692	1366.7	61.393	1366.7	66.7205	1366.7	66.758	1366.7	68.6308
1413.57	83.491	1413.57	82.3959	1413.57	82.1311	1413.57	79.7482	1413.57	78.9523	1413.57	76.5973	1413.57	75.3317	1413.57	74.0576	1413.57	70.9484	1413.57	74.5856	1413.57	70.1701	1413.57	75.0155	1413.57	71.3489	1413.57	73.6569	1413.57	70.5716	1413.57	70.5632	1413.57	67.9718	1413.57	65.2078	1413.57	63.342	1413.57	61.0255	1413.57	56.5077	1413.57	67.5842	1413.57	64.1307	1413.57	67.6846	1413.57	64.3657	1413.57	60.2183	1413.57	55.5508	1413.57	53.1641	1413.57	58.1078	1413.57	50.0075	1413.57	41.7382	1413.57	62.266	1413.57	61.094	1413.57	64.6791	1413.57	65.8322	1413.57	66.7945
1463.38	88.7079	1463.38	88.1275	1463.38	88.0788	1463.38	86.5603	1463.38	86.3506	1463.38	84.1365	1463.38	83.6779	1463.38	81.4202	1463.38	80.3695	1463.38	79.7408	1463.38	77.8239	1463.38	78.0201	1463.38	75.5596	1463.38	74.4176	1463.38	71.0524	1463.38	69.4463	1463.38	63.712	1463.38	67.4275	1463.38	58.1979	1463.38	64.682	1463.38	54.1369	1463.38	59.9703	1463.38	54.6799	1463.38	65.7103	1463.38	64.1663	1463.38	67.2793	1463.38	67.5642	1463.38	65.3614	1463.38	67.1258	1463.38	58.5112	1463.38	61.8845	1463.38	67.6564	1463.38	67.452	1463.38	70.8035	1463.38	70.5356	1463.38	71.2182
1516.11	92.5596	1516.11	91.7428	1516.11	91.8827	1516.11	89.5977	1516.11	89.9168	1516.11	86.6992	1516.11	87.1732	1516.11	84.085	1516.11	84.3857	1516.11	82.3593	1516.11	82.159	1516.11	80.1637	1516.11	79.8273	1516.11	76.1172	1516.11	76.4968	1516.11	69.5616	1516.11	71.7463	1516.11	60.7096	1516.11	66.2082	1516.11	57.3617	1516.11	63.9294	1516.11	59.1657	1516.11	59.7829	1516.11	67.9088	1516.11	68.586	1516.11	70.6319	1516.11	72.2008	1516.11	68.2152	1516.11	70.1036	1516.11	64.5267	1516.11	65.5565	1516.11	71.1202	1516.11	70.7523	1516.11	72.6329	1516.11	72.4691	1516.11	72.4674
1568.85	91.876	1568.85	90.8339	1568.85	91.2439	1568.85	88.383	1568.85	89.2422	1568.85	85.3452	1568.85	86.5571	1568.85	82.5574	1568.85	84.0051	1568.85	80.5286	1568.85	82.0704	1568.85	78.7636	1568.85	80.2131	1568.85	76.1035	1568.85	77.4021	1568.85	71.2914	1568.85	73.3684	1568.85	63.9709	1568.85	68.1787	1568.85	62.2008	1568.85	67.8475	1568.85	62.753	1568.85	68.6775	1568.85	61.4159	1568.85	65.1404	1568.85	71.5445	1568.85	71.0449	1568.85	71.5873	1568.85	72.1195	1568.85	65.3938	1568.85	67.8637	1568.85	67.7718	1568.85	68.3881	1568.85	71.1528	1568.85	71.1146	1568.85	72.1894
1624.51	91.2762	1624.51	90.1492	1624.51	90.586	1624.51	87.8395	1624.51	88.3637	1624.51	85.3305	1624.51	85.8295	1624.51	83.0472	1624.51	83.8743	1624.51	80.5738	1624.51	81.6477	1624.51	77.2821	1624.51	78.1998	1624.51	73.2427	1624.51	74.3338	1624.51	70.0355	1624.51	71.3076	1624.51	67.8182	1624.51	67.0316	1624.51	61.8085	1624.51	54.4576	1624.51	65.0307	1624.51	65.7209	1624.51	65.6822	1624.51	66.2089	1624.51	62.4426	1624.51	66.0621	1624.51	66.8095	1624.51	69.1956	1624.51	68.299	1624.51	67.8093	1624.51	69.8939	1624.51	68.1618	1624.51	72.2171	1624.51	71.3039	1624.51	73.1549
1681.64	90.8758	1681.64	89.8308	1681.64	89.805	1681.64	87.2731	1681.64	87.2306	1681.64	84.7773	1681.64	84.7665	1681.64	83.1135	1681.64	83.1572	1681.64	80.9105	1681.64	81.0523	1681.64	76.9911	1681.64	77.2367	1681.64	71.6385	1681.64	71.2783	1681.64	66.5466	1681.64	64.5385	1681.64	64.6033	1681.64	63.2321	1681.64	62.0308	1681.64	60.7144	1681.64	54.4362	1681.64	53.7364	1681.64	67.7599	1681.64	65.3768	1681.64	67.3229	1681.64	65.2092	1681.64	50.5536	1681.64	58.6199	1681.64	63.7594	1681.64	59.7745	1681.64	68.052	1681.64	66.8262	1681.64	70.7819	1681.64	70.8474	1681.64	72.0928
1741.7	89.6673	1741.7	88.5707	1741.7	88.5897	1741.7	86.0347	1741.7	85.8887	1741.7	83.6295	1741.7	83.2564	1741.7	81.9071	1741.7	81.6395	1741.7	79.665	1741.7	79.4801	1741.7	75.7313	1741.7	75.3009	1741.7	68.8326	1741.7	68.8202	1741.7	58.9044	1741.7	62.5079	1741.7	58.9778	1741.7	61.15	1741.7	60.002	1741.7	60.3728	1741.7	49.1044	1741.7	47.805	1741.7	64.1168	1741.7	64.0249	1741.7	66.5771	1741.7	68.2203	1741.7	60.8848	1741.7	63.4705	1741.7	50.7156	1741.7	57.8677	1741.7	63.4488	1741.7	65.5361	1741.7	67.0558	1741.7	67.5386	1741.7	68.0186
1803.22	89.2011	1803.22	87.9313	1803.22	88.2282	1803.22	85.238	1803.22	85.501	1803.22	82.7635	1803.22	82.7301	1803.22	81.0834	1803.22	81.0621	1803.22	78.4576	1803.22	78.6698	1803.22	73.0448	1803.22	73.416	1803.22	63.2343	1803.22	63.5076	1803.22	55.9317	1803.22	52.5364	1803.22	62.0063	1803.22	61.5604	1803.22	62.3768	1803.22	64.1677	1803.22	54.0409	1803.22	60.7842	1803.22	58.0914	1803.22	53.5276	1803.22	64.6131	1803.22	64.6698	1803.22	61.6328	1803.22	63.7988	1803.22	48.7538	1803.22	53.1247	1803.22	62.4324	1803.22	62.5939	1803.22	65.3668	1803.22	65.6352	1803.22	66.4866
1866.21	88.9121	1866.21	87.8813	1866.21	87.9381	1866.21	85.2863	1866.21	85.6074	1866.21	82.6753	1866.21	83.0306	1866.21	80.8231	1866.21	80.8403	1866.21	77.6067	1866.21	77.8067	1866.21	70.2791	1866.21	71.1338	1866.21	53.9981	1866.21	55.8538	1866.21	57.439	1866.21	59.052	1866.21	62.0132	1866.21	60.7756	1866.21	62.6799	1866.21	62.0236	1866.21	55.607	1866.21	57.4804	1866.21	58.0786	1866.21	52.0326	1866.21	65.0116	1866.21	60.2371	1866.21	62.1249	1866.21	59.4678	1866.21	30.856	1866.21	55.9702	1866.21	56.7634	1866.21	61.2619	1866.21	61.4619	1866.21	63.7263	1866.21	64.621
1932.13	88.8165	1932.13	87.7802	1932.13	87.6844	1932.13	85.2414	1932.13	85.1249	1932.13	82.9364	1932.13	82.7737	1932.13	81.2684	1932.13	80.9592	1932.13	77.8402	1932.13	77.3035	1932.13	69.6492	1932.13	68.0617	1932.13	51.6741	1932.13	56.3965	1932.13	60.1054	1932.13	61.155	1932.13	62.3161	1932.13	61.3889	1932.13	62.1782	1932.13	63.5368	1932.13	59.9227	1932.13	61.5532	1932.13	42.2534	1932.13	57.8775	1932.13	64.1114	1932.13	59.902	1932.13	63.4907	1932.13	60.0665	1932.13	52.081	1932.13	51.8738	1932.13	50.4338	1932.13	55.0724	1932.13	58.7746	1932.13	60.5482	1932.13	63.3763
1999.51	88.2336	1999.51	87.0203	1999.51	87.107	1999.51	84.3682	1999.51	84.5353	1999.51	82.316	1999.51	82.3033	1999.51	80.8168	1999.51	80.4892	1999.51	76.7994	1999.51	76.3216	1999.51	66.1015	1999.51	66.3353	1999.51	57.0168	1999.51	58.9295	1999.51	60.8855	1999.51	60.2481	1999.51	61.8661	1999.51	60.3048	1999.51	63.3015	1999.51	61.9156	1999.51	59.8738	1999.51	59.0526	1999.51	50.4707	1999.51	54.3092	1999.51	60.7932	1999.51	60.363	1999.51	62.0179	1999.51	59.2166	1999.51	56.9877	1999.51	52.1698	1999.51	50.4114	1999.51	35.4216	1999.51	57.1893	1999.51	55.4885	1999.51	61.533
2069.82	88.1851	2069.82	86.8637	2069.82	87.3138	2069.82	84.2456	2069.82	85.0779	2069.82	82.1245	2069.82	82.8874	2069.82	80.3294	2069.82	80.9144	2069.82	75.6109	2069.82	76.9158	2069.82	62.8079	2069.82	66.912	2069.82	61.2612	2069.82	56.7444	2069.82	62.6022	2069.82	59.9056	2069.82	62.2156	2069.82	58.6539	2069.82	61.4556	2069.82	60.9589	2069.82	61.667	2069.82	59.3485	2069.82	54.5784	2069.82	58.9407	2069.82	58.1927	2069.82	57.88	2069.82	59.6973	2069.82	59.0756	2069.82	55.9951	2069.82	52.8975	2069.82	55.104	2069.82	50.4333	2069.82	58.1974	2069.82	56.8739	2069.82	62.2471
2143.07	88.6087	2143.07	87.5573	2143.07	87.7799	2143.07	85.4416	2143.07	85.6499	2143.07	83.3904	2143.07	83.6879	2143.07	81.2612	2143.07	81.6654	2143.07	76.6667	2143.07	76.741	2143.07	65.0924	2143.07	64.4255	2143.07	64.2348	2143.07	66.3685	2143.07	64.6778	2143.07	66.8582	2143.07	55.1715	2143.07	62.3654	2143.07	58.9253	2143.07	62.2957	2143.07	60.0168	2143.07	60.0734	2143.07	58.7111	2143.07	58.7249	2143.07	54.6276	2143.07	54.1343	2143.07	58.3787	2143.07	54.0775	2143.07	57.9247	2143.07	53.4386	2143.07	59.0023	2143.07	55.026	2143.07	60.6831	2143.07	59.1318	2143.07	62.5034
2219.24	88.9555	2219.24	87.7846	2219.24	87.7846	2219.24	85.2351	2219.24	85.2351	2219.24	83.3725	2219.24	83.3725	2219.24	81.4232	2219.24	81.4232	2219.24	75.754	2219.24	75.754	2219.24	68.2313	2219.24	68.2313	2219.24	71.3402	2219.24	71.3402	2219.24	70.2486	2219.24	70.2486	2219.24	66.6287	2219.24	66.6287	2219.24	62.8659	2219.24	62.8659	2219.24	62.6196	2219.24	62.6196	2219.24	58.2943	2219.24	58.2943	2219.24	63.4558	2219.24	63.4558	2219.24	56.74	2219.24	56.74	2219.24	57.7644	2219.24	57.7644	2219.24	60.7942	2219.24	60.7942	2219.24	63.8395	2219.24	63.8395	2219.24	65.3565
2296.88	89.4593	2296.88	88.5572	2296.88	88.5572	2296.88	86.2622	2296.88	86.2622	2296.88	83.7984	2296.88	83.7984	2296.88	81.2281	2296.88	81.2281	2296.88	74.1996	2296.88	74.1996	2296.88	70.1422	2296.88	70.1422	2296.88	74.0928	2296.88	74.0928	2296.88	72.2058	2296.88	72.2058	2296.88	68.9472	2296.88	68.9472	2296.88	65.4079	2296.88	65.4079	2296.88	64.867	2296.88	64.867	2296.88	60.4489	2296.88	60.4489	2296.88	64.7576	2296.88	64.7576	2296.88	60.6575	2296.88	60.6575	2296.88	52.6195	2296.88	52.6195	2296.88	57.7117	2296.88	57.7117	2296.88	63.94	2296.88	63.94	2296.88	67.0199
2378.91	90.9248	2378.91	90.0197	2378.91	90.0197	2378.91	87.7393	2378.91	87.7393	2378.91	85.2211	2378.91	85.2211	2378.91	82.0281	2378.91	82.0281	2378.91	74.194	2378.91	74.194	2378.91	71.8396	2378.91	71.8396	2378.91	75.9497	2378.91	75.9497	2378.91	74.2142	2378.91	74.2142	2378.91	69.7522	2378.91	69.7522	2378.91	65.4196	2378.91	65.4196	2378.91	63.8328	2378.91	63.8328	2378.91	62.4011	2378.91	62.4011	2378.91	65.0606	2378.91	65.0606	2378.91	64.786	2378.91	64.786	2378.91	55.7697	2378.91	55.7697	2378.91	49.7643	2378.91	49.7643	2378.91	58.2277	2378.91	58.2277	2378.91	62.6572
2462.4	91.1124	2462.4	90.07	2462.4	90.07	2462.4	87.7375	2462.4	87.7375	2462.4	85.5011	2462.4	85.5011	2462.4	82.3911	2462.4	82.3911	2462.4	74.9354	2462.4	74.9354	2462.4	73.855	2462.4	73.855	2462.4	76.8952	2462.4	76.8952	2462.4	75.0427	2462.4	75.0427	2462.4	71.067	2462.4	71.067	2462.4	65.8227	2462.4	65.8227	2462.4	63.0079	2462.4	63.0079	2462.4	63.4256	2462.4	63.4256	2462.4	65.5547	2462.4	65.5547	2462.4	66.3726	2462.4	66.3726	2462.4	58.2864	2462.4	58.2864	2462.4	53.8805	2462.4	53.8805	2462.4	58.6004	2462.4	58.6004	2462.4	62.3077
2548.83	90.2517	2548.83	89.4447	2548.83	89.4447	2548.83	87.0235	2548.83	87.0235	2548.83	84.4318	2548.83	84.4318	2548.83	81.8484	2548.83	81.8484	2548.83	75.2355	2548.83	75.2355	2548.83	75.0209	2548.83	75.0209	2548.83	77.3735	2548.83	77.3735	2548.83	75.2736	2548.83	75.2736	2548.83	71.6338	2548.83	71.6338	2548.83	66.8571	2548.83	66.8571	2548.83	63.7384	2548.83	63.7384	2548.83	62.0304	2548.83	62.0304	2548.83	65.8116	2548.83	65.8116	2548.83	66.8034	2548.83	66.8034	2548.83	62.1429	2548.83	62.1429	2548.83	57.8113	2548.83	57.8113	2548.83	57.4117	2548.83	57.4117	2548.83	61.4996
2639.65	90.5433	2639.65	89.8801	2639.65	89.8801	2639.65	87.4683	2639.65	87.4683	2639.65	84.4475	2639.65	84.4475	2639.65	82.2407	2639.65	82.2407	2639.65	77.0547	2639.65	77.0547	2639.65	77.0115	2639.65	77.0115	2639.65	78.9965	2639.65	78.9965	2639.65	76.911	2639.65	76.911	2639.65	73.1867	2639.65	73.1867	2639.65	68.5445	2639.65	68.5445	2639.65	64.3064	2639.65	64.3064	2639.65	62.6344	2639.65	62.6344	2639.65	66.5224	2639.65	66.5224	2639.65	68.0104	2639.65	68.0104	2639.65	63.0966	2639.65	63.0966	2639.65	61.6139	2639.65	61.6139	2639.65	62.3582	2639.65	62.3582	2639.65	58.0478
2731.93	90.1086	2731.93	89.5277	2731.93	89.5277	2731.93	87.0159	2731.93	87.0159	2731.93	83.8969	2731.93	83.8969	2731.93	82.1169	2731.93	82.1169	2731.93	77.3857	2731.93	77.3857	2731.93	78.3879	2731.93	78.3879	2731.93	79.9967	2731.93	79.9967	2731.93	77.7275	2731.93	77.7275	2731.93	73.9345	2731.93	73.9345	2731.93	70.234	2731.93	70.234	2731.93	64.2169	2731.93	64.2169	2731.93	63.9478	2731.93	63.9478	2731.93	67.0764	2731.93	67.0764	2731.93	67.095	2731.93	67.095	2731.93	61.1539	2731.93	61.1539	2731.93	58.1883	2731.93	58.1883	2731.93	62.1991	2731.93	62.1991	2731.93	59.0746
2828.61	89.6915	2828.61	89.0262	2828.61	89.0262	2828.61	86.3195	2828.61	86.3195	2828.61	82.981	2828.61	82.981	2828.61	81.5778	2828.61	81.5778	2828.61	76.5584	2828.61	76.5584	2828.61	78.0266	2828.61	78.0266	2828.61	79.9942	2828.61	79.9942	2828.61	77.6906	2828.61	77.6906	2828.61	73.7063	2828.61	73.7063	2828.61	69.4684	2828.61	69.4684	2828.61	63.14	2828.61	63.14	2828.61	64.6548	2828.61	64.6548	2828.61	65.567	2828.61	65.567	2828.61	66.1335	2828.61	66.1335	2828.61	61.5243	2828.61	61.5243	2828.61	58.882	2828.61	58.882	2828.61	59.6668	2828.61	59.6668	2828.61	57.3625
2928.22	89.4048	2928.22	88.7124	2928.22	88.7124	2928.22	86.0698	2928.22	86.0698	2928.22	82.7395	2928.22	82.7395	2928.22	81.5157	2928.22	81.5157	2928.22	76.1988	2928.22	76.1988	2928.22	76.4514	2928.22	76.4514	2928.22	79.3529	2928.22	79.3529	2928.22	77.2519	2928.22	77.2519	2928.22	72.9741	2928.22	72.9741	2928.22	69.0676	2928.22	69.0676	2928.22	61.1313	2928.22	61.1313	2928.22	63.3359	2928.22	63.3359	2928.22	67.1348	2928.22	67.1348	2928.22	65.6569	2928.22	65.6569	2928.22	60.2393	2928.22	60.2393	2928.22	58.179	2928.22	58.179	2928.22	59.3531	2928.22	59.3531	2928.22	55.2657
3030.76	89.8305	3030.76	89.0798	3030.76	89.0798	3030.76	86.5806	3030.76	86.5806	3030.76	83.3346	3030.76	83.3346	3030.76	82.1592	3030.76	82.1592	3030.76	77.0842	3030.76	77.0842	3030.76	76.2304	3030.76	76.2304	3030.76	79.4953	3030.76	79.4953	3030.76	77.9713	3030.76	77.9713	3030.76	73.3745	3030.76	73.3745	3030.76	69.0429	3030.76	69.0429	3030.76	60.1357	3030.76	60.1357	3030.76	64.3459	3030.76	64.3459	3030.76	67.3629	3030.76	67.3629	3030.76	65.8297	3030.76	65.8297	3030.76	64.7803	3030.76	64.7803	3030.76	63.2666	3030.76	63.2666	3030.76	56.9715	3030.76	56.9715	3030.76	56.5657
3137.7	90.4219	3137.7	89.2872	3137.7	89.2872	3137.7	87.1623	3137.7	87.1623	3137.7	83.8143	3137.7	83.8143	3137.7	82.5408	3137.7	82.5408	3137.7	78.6596	3137.7	78.6596	3137.7	75.3444	3137.7	75.3444	3137.7	79.3875	3137.7	79.3875	3137.7	78.3245	3137.7	78.3245	3137.7	74.627	3137.7	74.627	3137.7	69.9383	3137.7	69.9383	3137.7	61.8849	3137.7	61.8849	3137.7	63.6163	3137.7	63.6163	3137.7	69.0112	3137.7	69.0112	3137.7	66.1211	3137.7	66.1211	3137.7	62.6439	3137.7	62.6439	3137.7	61.931	3137.7	61.931	3137.7	57.1548	3137.7	57.1548	3137.7	56.1465
3249.02	90.7861	3249.02	89.4318	3249.02	89.4318	3249.02	87.737	3249.02	87.737	3249.02	84.4496	3249.02	84.4496	3249.02	83.1688	3249.02	83.1688	3249.02	80.8814	3249.02	80.8814	3249.02	75.6689	3249.02	75.6689	3249.02	79.9521	3249.02	79.9521	3249.02	79.2412	3249.02	79.2412	3249.02	75.6531	3249.02	75.6531	3249.02	71.6847	3249.02	71.6847	3249.02	62.9223	3249.02	62.9223	3249.02	61.6108	3249.02	61.6108	3249.02	68.4223	3249.02	68.4223	3249.02	67.4043	3249.02	67.4043	3249.02	64.689	3249.02	64.689	3249.02	63.57	3249.02	63.57	3249.02	57.8978	3249.02	57.8978	3249.02	61.3095
3363.28	90.0509	3363.28	88.542	3363.28	88.542	3363.28	87.7692	3363.28	87.7692	3363.28	84.4827	3363.28	84.4827	3363.28	84.5148	3363.28	84.5148	3363.28	83.4247	3363.28	83.4247	3363.28	78.5861	3363.28	78.5861	3363.28	81.6319	3363.28	81.6319	3363.28	80.7508	3363.28	80.7508	3363.28	76.9928	3363.28	76.9928	3363.28	73.1511	3363.28	73.1511	3363.28	64.2746	3363.28	64.2746	3363.28	61.2224	3363.28	61.2224	3363.28	68.5104	3363.28	68.5104	3363.28	67.6583	3363.28	67.6583	3363.28	62.9595	3363.28	62.9595	3363.28	64.8442	3363.28	64.8442	3363.28	45.6231	3363.28	45.6231	3363.28	60.3368
3481.93	90.1358	3481.93	88.1613	3481.93	88.1613	3481.93	87.6762	3481.93	87.6762	3481.93	84.1828	3481.93	84.1828	3481.93	85.0919	3481.93	85.0919	3481.93	85.1243	3481.93	85.1243	3481.93	80.2735	3481.93	80.2735	3481.93	82.3305	3481.93	82.3305	3481.93	81.2579	3481.93	81.2579	3481.93	77.4464	3481.93	77.4464	3481.93	73.4922	3481.93	73.4922	3481.93	66.3709	3481.93	66.3709	3481.93	61.2858	3481.93	61.2858	3481.93	69.1633	3481.93	69.1633	3481.93	65.5233	3481.93	65.5233	3481.93	62.2334	3481.93	62.2334	3481.93	66.0497	3481.93	66.0497	3481.93	40.5737	3481.93	40.5737	3481.93	60.7035
3604.98	89.3761	3604.98	87.7489	3604.98	87.7489	3604.98	87.2248	3604.98	87.2248	3604.98	84.3411	3604.98	84.3411	3604.98	85.4895	3604.98	85.4895	3604.98	85.9332	3604.98	85.9332	3604.98	80.9179	3604.98	80.9179	3604.98	82.2243	3604.98	82.2243	3604.98	80.9417	3604.98	80.9417	3604.98	77.4417	3604.98	77.4417	3604.98	73.5427	3604.98	73.5427	3604.98	66.4463	3604.98	66.4463	3604.98	60.4547	3604.98	60.4547	3604.98	70.2365	3604.98	70.2365	3604.98	65.1089	3604.98	65.1089	3604.98	59.5793	3604.98	59.5793	3604.98	64.6459	3604.98	64.6459	3604.98	52.3317	3604.98	52.3317	3604.98	58.9032
3732.42	89.2267	3732.42	88.0094	3732.42	88.0094	3732.42	87.1921	3732.42	87.1921	3732.42	85.3606	3732.42	85.3606	3732.42	86.3307	3732.42	86.3307	3732.42	86.6324	3732.42	86.6324	3732.42	81.7382	3732.42	81.7382	3732.42	83.1929	3732.42	83.1929	3732.42	81.8215	3732.42	81.8215	3732.42	78.6496	3732.42	78.6496	3732.42	74.9224	3732.42	74.9224	3732.42	67.0985	3732.42	67.0985	3732.42	58.8805	3732.42	58.8805	3732.42	69.861	3732.42	69.861	3732.42	65.455	3732.42	65.455	3732.42	61.964	3732.42	61.964	3732.42	62.9966	3732.42	62.9966	3732.42	54.4725	3732.42	54.4725	3732.42	61.8511
3864.26	88.366	3864.26	87.6347	3864.26	87.6347	3864.26	86.3778	3864.26	86.3778	3864.26	85.6506	3864.26	85.6506	3864.26	86.0252	3864.26	86.0252	3864.26	86.7503	3864.26	86.7503	3864.26	82.5695	3864.26	82.5695	3864.26	83.6455	3864.26	83.6455	3864.26	82.0383	3864.26	82.0383	3864.26	78.7663	3864.26	78.7663	3864.26	74.9541	3864.26	74.9541	3864.26	68.4637	3864.26	68.4637	3864.26	60.1021	3864.26	60.1021	3864.26	69.0437	3864.26	69.0437	3864.26	62.633	3864.26	62.633	3864.26	61.3222	3864.26	61.3222	3864.26	61.0137	3864.26	61.0137	3864.26	60.5134	3864.26	60.5134	3864.26	58.726
4000.49	88.44	4000.49	88.3139	4000.49	88.3139	4000.49	86.6012	4000.49	86.6012	4000.49	86.6803	4000.49	86.6803	4000.49	85.896	4000.49	85.896	4000.49	87.3238	4000.49	87.3238	4000.49	83.715	4000.49	83.715	4000.49	83.9503	4000.49	83.9503	4000.49	82.2835	4000.49	82.2835	4000.49	78.5887	4000.49	78.5887	4000.49	75.1824	4000.49	75.1824	4000.49	68.0749	4000.49	68.0749	4000.49	62.3468	4000.49	62.3468	4000.49	70.2103	4000.49	70.2103	4000.49	57.7005	4000.49	57.7005	4000.49	62.5819	4000.49	62.5819	4000.49	59.7336	4000.49	59.7336	4000.49	64.1841	4000.49	64.1841	4000.49	59.2411
4141.11	87.5471	4141.11	87.7998	4141.11	87.7998	4141.11	86.4704	4141.11	86.4704	4141.11	86.6522	4141.11	86.6522	4141.11	85.3527	4141.11	85.3527	4141.11	87.7573	4141.11	87.7573	4141.11	84.0616	4141.11	84.0616	4141.11	83.7278	4141.11	83.7278	4141.11	81.8518	4141.11	81.8518	4141.11	78.0597	4141.11	78.0597	4141.11	74.3979	4141.11	74.3979	4141.11	67.5815	4141.11	67.5815	4141.11	62.937	4141.11	62.937	4141.11	68.8937	4141.11	68.8937	4141.11	57.8813	4141.11	57.8813	4141.11	61.6212	4141.11	61.6212	4141.11	57.973	4141.11	57.973	4141.11	63.4063	4141.11	63.4063	4141.11	58.9383
4287.6	87.9354	4287.6	87.9223	4287.6	87.9223	4287.6	86.4128	4287.6	86.4128	4287.6	86.4819	4287.6	86.4819	4287.6	85.3455	4287.6	85.3455	4287.6	87.7744	4287.6	87.7744	4287.6	84.2895	4287.6	84.2895	4287.6	83.5516	4287.6	83.5516	4287.6	82.0383	4287.6	82.0383	4287.6	78.3907	4287.6	78.3907	4287.6	74.744	4287.6	74.744	4287.6	68.4755	4287.6	68.4755	4287.6	61.5783	4287.6	61.5783	4287.6	68.5968	4287.6	68.5968	4287.6	59.9744	4287.6	59.9744	4287.6	53.7361	4287.6	53.7361	4287.6	55.7619	4287.6	55.7619	4287.6	62.4751	4287.6	62.4751	4287.6	51.8523
4438.48	88.1641	4438.48	87.9028	4438.48	87.9028	4438.48	86.7253	4438.48	86.7253	4438.48	86.193	4438.48	86.193	4438.48	85.3353	4438.48	85.3353	4438.48	87.4746	4438.48	87.4746	4438.48	84.5754	4438.48	84.5754	4438.48	84.149	4438.48	84.149	4438.48	82.1638	4438.48	82.1638	4438.48	78.4035	4438.48	78.4035	4438.48	75.5644	4438.48	75.5644	4438.48	70.11	4438.48	70.11	4438.48	62.0037	4438.48	62.0037	4438.48	65.7659	4438.48	65.7659	4438.48	59.6528	4438.48	59.6528	4438.48	56.1185	4438.48	56.1185	4438.48	56.9287	4438.48	56.9287	4438.48	62.251	4438.48	62.251	4438.48	62.3475
4595.21	88.5206	4595.21	87.4337	4595.21	87.4337	4595.21	85.9482	4595.21	85.9482	4595.21	84.8262	4595.21	84.8262	4595.21	84.0599	4595.21	84.0599	4595.21	86.3505	4595.21	86.3505	4595.21	84.44	4595.21	84.44	4595.21	83.939	4595.21	83.939	4595.21	82.0837	4595.21	82.0837	4595.21	78.4339	4595.21	78.4339	4595.21	75.3608	4595.21	75.3608	4595.21	69.4147	4595.21	69.4147	4595.21	61.1848	4595.21	61.1848	4595.21	67.6551	4595.21	67.6551	4595.21	56.8556	4595.21	56.8556	4595.21	32.6709	4595.21	32.6709	4595.21	57.9079	4595.21	57.9079	4595.21	61.0226	4595.21	61.0226	4595.21	64.6519
4756.35	89.0237	4756.35	87.9281	4756.35	87.9281	4756.35	85.9951	4756.35	85.9951	4756.35	85.23	4756.35	85.23	4756.35	83.6236	4756.35	83.6236	4756.35	86.6243	4756.35	86.6243	4756.35	85.6773	4756.35	85.6773	4756.35	84.1545	4756.35	84.1545	4756.35	82.2605	4756.35	82.2605	4756.35	77.886	4756.35	77.886	4756.35	74.2469	4756.35	74.2469	4756.35	66.942	4756.35	66.942	4756.35	61.2103	4756.35	61.2103	4756.35	66.6654	4756.35	66.6654	4756.35	55.1808	4756.35	55.1808	4756.35	54.3787	4756.35	54.3787	4756.35	54.635	4756.35	54.635	4756.35	60.6759	4756.35	60.6759	4756.35	61.9024
4924.8	89.1782	4924.8	88.2528	4924.8	88.2528	4924.8	85.4185	4924.8	85.4185	4924.8	84.4228	4924.8	84.4228	4924.8	82.9762	4924.8	82.9762	4924.8	85.9143	4924.8	85.9143	4924.8	85.5646	4924.8	85.5646	4924.8	83.9296	4924.8	83.9296	4924.8	82.4639	4924.8	82.4639	4924.8	78.2744	4924.8	78.2744	4924.8	75.7958	4924.8	75.7958	4924.8	69.2388	4924.8	69.2388	4924.8	64.6793	4924.8	64.6793	4924.8	66.7214	4924.8	66.7214	4924.8	57.5012	4924.8	57.5012	4924.8	58.136	4924.8	58.136	4924.8	58.6757	4924.8	58.6757	4924.8	57.9033	4924.8	57.9033	4924.8	60.4071
5097.66	89.8141	5097.66	88.5924	5097.66	88.5924	5097.66	85.7494	5097.66	85.7494	5097.66	84.697	5097.66	84.697	5097.66	83.6111	5097.66	83.6111	5097.66	86.3573	5097.66	86.3573	5097.66	85.8037	5097.66	85.8037	5097.66	85.4987	5097.66	85.4987	5097.66	83.7529	5097.66	83.7529	5097.66	79.2812	5097.66	79.2812	5097.66	76.618	5097.66	76.618	5097.66	67.774	5097.66	67.774	5097.66	65.0383	5097.66	65.0383	5097.66	66.3604	5097.66	66.3604	5097.66	49.1163	5097.66	49.1163	5097.66	60.0002	5097.66	60.0002	5097.66	56.1982	5097.66	56.1982	5097.66	60.0657	5097.66	60.0657	5097.66	58.6658
5277.83	89.756	5277.83	88.4786	5277.83	88.4786	5277.83	85.9657	5277.83	85.9657	5277.83	84.8849	5277.83	84.8849	5277.83	84.461	5277.83	84.461	5277.83	85.9699	5277.83	85.9699	5277.83	86.6962	5277.83	86.6962	5277.83	85.3129	5277.83	85.3129	5277.83	83.4953	5277.83	83.4953	5277.83	79.0048	5277.83	79.0048	5277.83	75.4301	5277.83	75.4301	5277.83	68.7954	5277.83	68.7954	5277.83	57.0544	5277.83	57.0544	5277.83	65.3306	5277.83	65.3306	5277.83	48.2998	5277.83	48.2998	5277.83	59.1543	5277.83	59.1543	5277.83	61.3841	5277.83	61.3841	5277.83	57.3045	5277.83	57.3045	5277.83	57.0405
5463.87	90.3599	5463.87	88.6576	5463.87	88.6576	5463.87	86.7426	5463.87	86.7426	5463.87	85.0843	5463.87	85.0843	5463.87	85.8352	5463.87	85.8352	5463.87	85.5235	5463.87	85.5235	5463.87	87.0003	5463.87	87.0003	5463.87	85.1708	5463.87	85.1708	5463.87	84.0657	5463.87	84.0657	5463.87	79.913	5463.87	79.913	5463.87	75.4651	5463.87	75.4651	5463.87	68.64	5463.87	68.64	5463.87	64.0592	5463.87	64.0592	5463.87	67.2318	5463.87	67.2318	5463.87	45.6963	5463.87	45.6963	5463.87	61.1366	5463.87	61.1366	5463.87	61.8413	5463.87	61.8413	5463.87	53.1962	5463.87	53.1962	5463.87	60.4958
5657.23	90.1908	5657.23	88.6762	5657.23	88.6762	5657.23	86.9322	5657.23	86.9322	5657.23	85.7817	5657.23	85.7817	5657.23	85.9664	5657.23	85.9664	5657.23	85.271	5657.23	85.271	5657.23	87.0814	5657.23	87.0814	5657.23	85.8372	5657.23	85.8372	5657.23	83.396	5657.23	83.396	5657.23	79.712	5657.23	79.712	5657.23	74.7685	5657.23	74.7685	5657.23	66.5169	5657.23	66.5169	5657.23	63.0575	5657.23	63.0575	5657.23	65.5976	5657.23	65.5976	5657.23	53.139	5657.23	53.139	5657.23	59.0577	5657.23	59.0577	5657.23	60.4027	5657.23	60.4027	5657.23	54.8868	5657.23	54.8868	5657.23	57.5427
5856.45	90.082	5856.45	89.2483	5856.45	89.2483	5856.45	87.0014	5856.45	87.0014	5856.45	86.4399	5856.45	86.4399	5856.45	86.1918	5856.45	86.1918	5856.45	85.3446	5856.45	85.3446	5856.45	87.5413	5856.45	87.5413	5856.45	85.3285	5856.45	85.3285	5856.45	83.3509	5856.45	83.3509	5856.45	78.5614	5856.45	78.5614	5856.45	72.8472	5856.45	72.8472	5856.45	66.6762	5856.45	66.6762	5856.45	61.5874	5856.45	61.5874	5856.45	65.6238	5856.45	65.6238	5856.45	60.0585	5856.45	60.0585	5856.45	58.279	5856.45	58.279	5856.45	60.9195	5856.45	60.9195	5856.45	51.2335	5856.45	51.2335	5856.45	56.2828
6062.99	90.3057	6062.99	89.5085	6062.99	89.5085	6062.99	87.9282	6062.99	87.9282	6062.99	86.3948	6062.99	86.3948	6062.99	86.7336	6062.99	86.7336	6062.99	85.1805	6062.99	85.1805	6062.99	87.1543	6062.99	87.1543	6062.99	85.1272	6062.99	85.1272	6062.99	83.9339	6062.99	83.9339	6062.99	79.0383	6062.99	79.0383	6062.99	73.593	6062.99	73.593	6062.99	67.2148	6062.99	67.2148	6062.99	64.5616	6062.99	64.5616	6062.99	62.2515	6062.99	62.2515	6062.99	60.5348	6062.99	60.5348	6062.99	57.81	6062.99	57.81	6062.99	60.1897	6062.99	60.1897	6062.99	52.0324	6062.99	52.0324	6062.99	50.34
6276.86	90.3021	6276.86	89.4371	6276.86	89.4371	6276.86	88.1863	6276.86	88.1863	6276.86	86.5824	6276.86	86.5824	6276.86	86.6647	6276.86	86.6647	6276.86	84.7493	6276.86	84.7493	6276.86	87.052	6276.86	87.052	6276.86	85.5269	6276.86	85.5269	6276.86	84.0728	6276.86	84.0728	6276.86	78.749	6276.86	78.749	6276.86	73.3918	6276.86	73.3918	6276.86	67.8508	6276.86	67.8508	6276.86	62.9603	6276.86	62.9603	6276.86	61.7292	6276.86	61.7292	6276.86	60.2106	6276.86	60.2106	6276.86	58.562	6276.86	58.562	6276.86	58.6883	6276.86	58.6883	6276.86	45.886	6276.86	45.886	6276.86	45.1665
6498.05	90.1831	6498.05	89.8165	6498.05	89.8165	6498.05	88.1803	6498.05	88.1803	6498.05	87.4553	6498.05	87.4553	6498.05	86.6975	6498.05	86.6975	6498.05	84.9452	6498.05	84.9452	6498.05	87.3641	6498.05	87.3641	6498.05	85.7032	6498.05	85.7032	6498.05	84.0103	6498.05	84.0103	6498.05	78.5923	6498.05	78.5923	6498.05	73.4401	6498.05	73.4401	6498.05	65.9688	6498.05	65.9688	6498.05	64.6503	6498.05	64.6503	6498.05	53.9761	6498.05	53.9761	6498.05	63.3961	6498.05	63.3961	6498.05	57.4455	6498.05	57.4455	6498.05	54.0811	6498.05	54.0811	6498.05	52.1955	6498.05	52.1955	6498.05	55.6945
6726.56	90.3255	6726.56	90.0883	6726.56	90.0883	6726.56	88.3348	6726.56	88.3348	6726.56	88.1378	6726.56	88.1378	6726.56	87.0233	6726.56	87.0233	6726.56	85.5772	6726.56	85.5772	6726.56	87.3961	6726.56	87.3961	6726.56	85.9919	6726.56	85.9919	6726.56	84.5001	6726.56	84.5001	6726.56	78.3383	6726.56	78.3383	6726.56	73.2196	6726.56	73.2196	6726.56	65.2839	6726.56	65.2839	6726.56	64.7772	6726.56	64.7772	6726.56	52.6697	6726.56	52.6697	6726.56	64.9639	6726.56	64.9639	6726.56	56.3292	6726.56	56.3292	6726.56	54.9442	6726.56	54.9442	6726.56	47.1078	6726.56	47.1078	6726.56	55.9148
6963.87	90.334	6963.87	90.0546	6963.87	90.0546	6963.87	88.0517	6963.87	88.0517	6963.87	88.4459	6963.87	88.4459	6963.87	87.1115	6963.87	87.1115	6963.87	86.2684	6963.87	86.2684	6963.87	87.101	6963.87	87.101	6963.87	85.8395	6963.87	85.8395	6963.87	83.5071	6963.87	83.5071	6963.87	77.2073	6963.87	77.2073	6963.87	72.1699	6963.87	72.1699	6963.87	63.5061	6963.87	63.5061	6963.87	64.1976	6963.87	64.1976	6963.87	56.1006	6963.87	56.1006	6963.87	64.6622	6963.87	64.6622	6963.87	55.4512	6963.87	55.4512	6963.87	53.8691	6963.87	53.8691	6963.87	50.854	6963.87	50.854	6963.87	55.6692
7209.96	90.363	7209.96	89.9736	7209.96	89.9736	7209.96	88.2102	7209.96	88.2102	7209.96	88.2598	7209.96	88.2598	7209.96	87.5798	7209.96	87.5798	7209.96	86.1186	7209.96	86.1186	7209.96	86.6554	7209.96	86.6554	7209.96	85.365	7209.96	85.365	7209.96	83.4944	7209.96	83.4944	7209.96	77.7569	7209.96	77.7569	7209.96	73.0083	7209.96	73.0083	7209.96	64.3241	7209.96	64.3241	7209.96	65.4722	7209.96	65.4722	7209.96	51.1854	7209.96	51.1854	7209.96	64.7012	7209.96	64.7012	7209.96	54.5968	7209.96	54.5968	7209.96	51.4919	7209.96	51.4919	7209.96	52.6442	7209.96	52.6442	7209.96	52.6489
7464.84	90.7846	7464.84	89.8958	7464.84	89.8958	7464.84	88.9403	7464.84	88.9403	7464.84	88.3076	7464.84	88.3076	7464.84	88.1434	7464.84	88.1434	7464.84	86.297	7464.84	86.297	7464.84	86.0162	7464.84	86.0162	7464.84	85.5532	7464.84	85.5532	7464.84	83.2399	7464.84	83.2399	7464.84	76.6086	7464.84	76.6086	7464.84	72.2848	7464.84	72.2848	7464.84	62.7687	7464.84	62.7687	7464.84	65.8826	7464.84	65.8826	7464.84	58.0514	7464.84	58.0514	7464.84	61.1733	7464.84	61.1733	7464.84	55.9499	7464.84	55.9499	7464.84	46.7558	7464.84	46.7558	7464.84	53.9684	7464.84	53.9684	7464.84	53.3263
7727.05	91.6513	7727.05	90.1252	7727.05	90.1252	7727.05	89.5443	7727.05	89.5443	7727.05	89.2437	7727.05	89.2437	7727.05	88.1272	7727.05	88.1272	7727.05	86.5057	7727.05	86.5057	7727.05	86.0703	7727.05	86.0703	7727.05	85.5257	7727.05	85.5257	7727.05	83.8448	7727.05	83.8448	7727.05	77.1923	7727.05	77.1923	7727.05	72.6545	7727.05	72.6545	7727.05	62.452	7727.05	62.452	7727.05	65.124	7727.05	65.124	7727.05	59.9882	7727.05	59.9882	7727.05	61.4611	7727.05	61.4611	7727.05	54.4838	7727.05	54.4838	7727.05	48.6975	7727.05	48.6975	7727.05	52.536	7727.05	52.536	7727.05	54.145
7999.51	91.9796	7999.51	90.9049	7999.51	90.9049	7999.51	90.1901	7999.51	90.1901	7999.51	89.6631	7999.51	89.6631	7999.51	88.5475	7999.51	88.5475	7999.51	86.7779	7999.51	86.7779	7999.51	85.8981	7999.51	85.8981	7999.51	85.9424	7999.51	85.9424	7999.51	84.3344	7999.51	84.3344	7999.51	77.3505	7999.51	77.3505	7999.51	72.5002	7999.51	72.5002	7999.51	63.6024	7999.51	63.6024	7999.51	64.216	7999.51	64.216	7999.51	61.1606	7999.51	61.1606	7999.51	61.4126	7999.51	61.4126	7999.51	45.0503	7999.51	45.0503	7999.51	48.6402	7999.51	48.6402	7999.51	54.0828	7999.51	54.0828	7999.51	58.7792
8282.23	92.2203	8282.23	91.376	8282.23	91.376	8282.23	91.0625	8282.23	91.0625	8282.23	89.9679	8282.23	89.9679	8282.23	88.5555	8282.23	88.5555	8282.23	86.9509	8282.23	86.9509	8282.23	86.0799	8282.23	86.0799	8282.23	85.8814	8282.23	85.8814	8282.23	84.5692	8282.23	84.5692	8282.23	78.0247	8282.23	78.0247	8282.23	73.286	8282.23	73.286	8282.23	62.8452	8282.23	62.8452	8282.23	64.8223	8282.23	64.8223	8282.23	59.3141	8282.23	59.3141	8282.23	61.9454	8282.23	61.9454	8282.23	50.0012	8282.23	50.0012	8282.23	52.006	8282.23	52.006	8282.23	54.1566	8282.23	54.1566	8282.23	58.5979
8573.73	92.0628	8573.73	92.0216	8573.73	92.0216	8573.73	91.49	8573.73	91.49	8573.73	90.1279	8573.73	90.1279	8573.73	89.106	8573.73	89.106	8573.73	86.7383	8573.73	86.7383	8573.73	85.8809	8573.73	85.8809	8573.73	86.3559	8573.73	86.3559	8573.73	84.7611	8573.73	84.7611	8573.73	78.1691	8573.73	78.1691	8573.73	72.5574	8573.73	72.5574	8573.73	62.0524	8573.73	62.0524	8573.73	65.4105	8573.73	65.4105	8573.73	58.215	8573.73	58.215	8573.73	60.2626	8573.73	60.2626	8573.73	50.6246	8573.73	50.6246	8573.73	52.9282	8573.73	52.9282	8573.73	53.8451	8573.73	53.8451	8573.73	60.4013
8876.95	92.464	8876.95	92.4548	8876.95	92.4548	8876.95	91.9944	8876.95	91.9944	8876.95	90.2185	8876.95	90.2185	8876.95	89.4554	8876.95	89.4554	8876.95	86.3546	8876.95	86.3546	8876.95	86.3086	8876.95	86.3086	8876.95	86.2371	8876.95	86.2371	8876.95	84.0701	8876.95	84.0701	8876.95	77.8332	8876.95	77.8332	8876.95	72.8791	8876.95	72.8791	8876.95	62.3567	8876.95	62.3567	8876.95	61.8705	8876.95	61.8705	8876.95	60.9273	8876.95	60.9273	8876.95	57.2768	8876.95	57.2768	8876.95	53.4781	8876.95	53.4781	8876.95	58.5928	8876.95	58.5928	8876.95	56.7394	8876.95	56.7394	8876.95	55.2468
9188.96	92.7975	9188.96	92.476	9188.96	92.476	9188.96	91.8786	9188.96	91.8786	9188.96	90.7238	9188.96	90.7238	9188.96	89.513	9188.96	89.513	9188.96	86.0403	9188.96	86.0403	9188.96	85.5699	9188.96	85.5699	9188.96	85.4574	9188.96	85.4574	9188.96	84.1493	9188.96	84.1493	9188.96	77.496	9188.96	77.496	9188.96	72.3112	9188.96	72.3112	9188.96	63.8187	9188.96	63.8187	9188.96	61.107	9188.96	61.107	9188.96	59.588	9188.96	59.588	9188.96	58.1117	9188.96	58.1117	9188.96	54.8025	9188.96	54.8025	9188.96	60.7252	9188.96	60.7252	9188.96	59.8925	9188.96	59.8925	9188.96	53.6835
9514.16	92.6617	9514.16	91.9627	9514.16	91.9627	9514.16	91.2667	9514.16	91.2667	9514.16	90.8048	9514.16	90.8048	9514.16	89.2036	9514.16	89.2036	9514.16	85.1844	9514.16	85.1844	9514.16	84.2837	9514.16	84.2837	9514.16	84.2331	9514.16	84.2331	9514.16	83.0502	9514.16	83.0502	9514.16	76.4798	9514.16	76.4798	9514.16	71.5305	9514.16	71.5305	9514.16	62.8458	9514.16	62.8458	9514.16	60.725	9514.16	60.725	9514.16	56.4161	9514.16	56.4161	9514.16	60.2662	9514.16	60.2662	9514.16	59.9292	9514.16	59.9292	9514.16	62.0257	9514.16	62.0257	9514.16	57.7425	9514.16	57.7425	9514.16	58.5218
9849.61	92.5231	9849.61	91.4579	9849.61	91.4579	9849.61	90.8581	9849.61	90.8581	9849.61	90.7629	9849.61	90.7629	9849.61	89.1914	9849.61	89.1914	9849.61	83.7059	9849.61	83.7059	9849.61	84.0798	9849.61	84.0798	9849.61	82.7711	9849.61	82.7711	9849.61	81.6865	9849.61	81.6865	9849.61	74.8042	9849.61	74.8042	9849.61	69.2086	9849.61	69.2086	9849.61	61.3713	9849.61	61.3713	9849.61	60.7241	9849.61	60.7241	9849.61	56.9276	9849.61	56.9276	9849.61	52.0627	9849.61	52.0627	9849.61	59.1892	9849.61	59.1892	9849.61	60.9144	9849.61	60.9144	9849.61	57.2757	9849.61	57.2757	9849.61	59.1403
10196.8	92.2514	10196.8	91.3735	10196.8	91.3735	10196.8	91.1355	10196.8	91.1355	10196.8	90.5308	10196.8	90.5308	10196.8	88.7152	10196.8	88.7152	10196.8	84.3011	10196.8	84.3011	10196.8	83.7268	10196.8	83.7268	10196.8	82.2848	10196.8	82.2848	10196.8	81.3289	10196.8	81.3289	10196.8	75.1766	10196.8	75.1766	10196.8	69.7586	10196.8	69.7586	10196.8	61.7507	10196.8	61.7507	10196.8	61.5705	10196.8	61.5705	10196.8	56.8512	10196.8	56.8512	10196.8	59.1579	10196.8	59.1579	10196.8	59.6398	10196.8	59.6398	10196.8	60.5161	10196.8	60.5161	10196.8	52.9647	10196.8	52.9647	10196.8	58.2868
10555.7	91.8761	10555.7	91.1046	10555.7	91.1046	10555.7	91.0657	10555.7	91.0657	10555.7	90.1992	10555.7	90.1992	10555.7	88.2066	10555.7	88.2066	10555.7	84.3603	10555.7	84.3603	10555.7	83.2076	10555.7	83.2076	10555.7	81.9923	10555.7	81.9923	10555.7	80.5923	10555.7	80.5923	10555.7	74.1895	10555.7	74.1895	10555.7	68.5784	10555.7	68.5784	10555.7	60.7188	10555.7	60.7188	10555.7	61.0469	10555.7	61.0469	10555.7	55.4444	10555.7	55.4444	10555.7	56.07	10555.7	56.07	10555.7	58.6546	10555.7	58.6546	10555.7	58.3157	10555.7	58.3157	10555.7	53.3983	10555.7	53.3983	10555.7	52.9755
10927.7	91.9319	10927.7	91.0222	10927.7	91.0222	10927.7	90.614	10927.7	90.614	10927.7	89.8044	10927.7	89.8044	10927.7	88.2099	10927.7	88.2099	10927.7	84.1084	10927.7	84.1084	10927.7	83.5172	10927.7	83.5172	10927.7	80.9229	10927.7	80.9229	10927.7	78.9421	10927.7	78.9421	10927.7	72.5449	10927.7	72.5449	10927.7	67.3122	10927.7	67.3122	10927.7	59.3637	10927.7	59.3637	10927.7	60.5593	10927.7	60.5593	10927.7	52.5541	10927.7	52.5541	10927.7	56.6332	10927.7	56.6332	10927.7	58.9805	10927.7	58.9805	10927.7	57.2921	10927.7	57.2921	10927.7	55.0682	10927.7	55.0682	10927.7	53.9608
11313	92.1859	11313	91.217	11313	91.217	11313	90.3814	11313	90.3814	11313	89.4919	11313	89.4919	11313	88.0813	11313	88.0813	11313	84.1218	11313	84.1218	11313	82.5396	11313	82.5396	11313	79.1377	11313	79.1377	11313	77.5955	11313	77.5955	11313	72.2103	11313	72.2103	11313	66.645	11313	66.645	11313	56.8462	11313	56.8462	11313	58.2355	11313	58.2355	11313	55.6716	11313	55.6716	11313	54.1931	11313	54.1931	11313	55.183	11313	55.183	11313	54.5141	11313	54.5141	11313	51.864	11313	51.864	11313	44.2629
11712.9	92.5145	11712.9	91.4405	11712.9	91.4405	11712.9	90.642	11712.9	90.642	11712.9	89.6054	11712.9	89.6054	11712.9	87.8066	11712.9	87.8066	11712.9	83.4997	11712.9	83.4997	11712.9	81.5187	11712.9	81.5187	11712.9	78.0578	11712.9	78.0578	11712.9	77.4239	11712.9	77.4239	11712.9	71.9796	11712.9	71.9796	11712.9	66.1572	11712.9	66.1572	11712.9	56.0002	11712.9	56.0002	11712.9	55.834	11712.9	55.834	11712.9	53.9874	11712.9	53.9874	11712.9	54.6836	11712.9	54.6836	11712.9	52.111	11712.9	52.111	11712.9	52.5704	11712.9	52.5704	11712.9	49.7884	11712.9	49.7884	11712.9	48.2308
12126	92.8835	12126	91.8748	12126	91.8748	12126	91.0836	12126	91.0836	12126	89.7698	12126	89.7698	12126	87.488	12126	87.488	12126	83.0277	12126	83.0277	12126	81.4821	12126	81.4821	12126	76.8194	12126	76.8194	12126	76.3992	12126	76.3992	12126	71.6524	12126	71.6524	12126	65.3175	12126	65.3175	12126	54.6131	12126	54.6131	12126	52.2192	12126	52.2192	12126	51.2899	12126	51.2899	12126	49.7659	12126	49.7659	12126	49.5297	12126	49.5297	12126	50.4359	12126	50.4359	12126	49.7575	12126	49.7575	12126	51.1995
12553.7	93.4254	12553.7	92.5092	12553.7	92.5092	12553.7	91.4998	12553.7	91.4998	12553.7	89.844	12553.7	89.844	12553.7	87.8975	12553.7	87.8975	12553.7	83.1721	12553.7	83.1721	12553.7	81.0259	12553.7	81.0259	12553.7	76.9084	12553.7	76.9084	12553.7	76.6571	12553.7	76.6571	12553.7	71.8767	12553.7	71.8767	12553.7	65.7032	12553.7	65.7032	12553.7	55.361	12553.7	55.361	12553.7	52.7388	12553.7	52.7388	12553.7	50.8704	12553.7	50.8704	12553.7	47.8227	12553.7	47.8227	12553.7	49.1981	12553.7	49.1981	12553.7	48.1779	12553.7	48.1779	12553.7	47.1006	12553.7	47.1006	12553.7	49.9084
12996.1	93.8009	12996.1	92.974	12996.1	92.974	12996.1	91.9077	12996.1	91.9077	12996.1	90.0163	12996.1	90.0163	12996.1	88.015	12996.1	88.015	12996.1	82.8633	12996.1	82.8633	12996.1	80.8305	12996.1	80.8305	12996.1	78.1268	12996.1	78.1268	12996.1	76.7185	12996.1	76.7185	12996.1	71.4431	12996.1	71.4431	12996.1	65.3616	12996.1	65.3616	12996.1	54.256	12996.1	54.256	12996.1	54.3206	12996.1	54.3206	12996.1	51.3551	12996.1	51.3551	12996.1	47.6782	12996.1	47.6782	12996.1	47.2339	12996.1	47.2339	12996.1	48.1323	12996.1	48.1323	12996.1	44.7829	12996.1	44.7829	12996.1	48.5758
13454.6	94.074	13454.6	93.2328	13454.6	93.2328	13454.6	92.0858	13454.6	92.0858	13454.6	90.0484	13454.6	90.0484	13454.6	87.8274	13454.6	87.8274	13454.6	82.1144	13454.6	82.1144	13454.6	81.6412	13454.6	81.6412	13454.6	78.608	13454.6	78.608	13454.6	78.3422	13454.6	78.3422	13454.6	72.6426	13454.6	72.6426	13454.6	66.3667	13454.6	66.3667	13454.6	53.927	13454.6	53.927	13454.6	54.7131	13454.6	54.7131	13454.6	49.4777	13454.6	49.4777	13454.6	44.7992	13454.6	44.7992	13454.6	31.1958	13454.6	31.1958	13454.6	45.6543	13454.6	45.6543	13454.6	38.955	13454.6	38.955	13454.6	48.3954
13929.2	94.3976	13929.2	93.625	13929.2	93.625	13929.2	92.3704	13929.2	92.3704	13929.2	90.2027	13929.2	90.2027	13929.2	87.7727	13929.2	87.7727	13929.2	82.0542	13929.2	82.0542	13929.2	81.307	13929.2	81.307	13929.2	79.2628	13929.2	79.2628	13929.2	78.6843	13929.2	78.6843	13929.2	72.4271	13929.2	72.4271	13929.2	66.2662	13929.2	66.2662	13929.2	53.2527	13929.2	53.2527	13929.2	54.3422	13929.2	54.3422	13929.2	39.3389	13929.2	39.3389	13929.2	47.1127	13929.2	47.1127	13929.2	40.5548	13929.2	40.5548	13929.2	42.9954	13929.2	42.9954	13929.2	44.3055	13929.2	44.3055	13929.2	51.4895
14419.9	94.1838	14419.9	93.2795	14419.9	93.2795	14419.9	92.1172	14419.9	92.1172	14419.9	89.9881	14419.9	89.9881	14419.9	87.5893	14419.9	87.5893	14419.9	81.9938	14419.9	81.9938	14419.9	80.8329	14419.9	80.8329	14419.9	78.2667	14419.9	78.2667	14419.9	77.4493	14419.9	77.4493	14419.9	71.39	14419.9	71.39	14419.9	64.8671	14419.9	64.8671	14419.9	53.37	14419.9	53.37	14419.9	52.9536	14419.9	52.9536	14419.9	43.1804	14419.9	43.1804	14419.9	47.0386	14419.9	47.0386	14419.9	40	14419.9	40	14419.9	48.6553	14419.9	48.6553	14419.9	52.0026	14419.9	52.0026	14419.9	48.9272
14928.2	93.8042	14928.2	93.0961	14928.2	93.0961	14928.2	91.8886	14928.2	91.8886	14928.2	89.6467	14928.2	89.6467	14928.2	87.1255	14928.2	87.1255	14928.2	81.125	14928.2	81.125	14928.2	79.58	14928.2	79.58	14928.2	76.961	14928.2	76.961	14928.2	75.698	14928.2	75.698	14928.2	69.8937	14928.2	69.8937	14928.2	62.5324	14928.2	62.5324	14928.2	51.5242	14928.2	51.5242	14928.2	50.4851	14928.2	50.4851	14928.2	43.3661	14928.2	43.3661	14928.2	43.2791	14928.2	43.2791	14928.2	28.1535	14928.2	28.1535	14928.2	40.0916	14928.2	40.0916	14928.2	48.382	14928.2	48.382	14928.2	47.8426
15455.6	93.5508	15455.6	92.9186	15455.6	92.9186	15455.6	91.6452	15455.6	91.6452	15455.6	89.118	15455.6	89.118	15455.6	86.683	15455.6	86.683	15455.6	80.2572	15455.6	80.2572	15455.6	78.1518	15455.6	78.1518	15455.6	75.4759	15455.6	75.4759	15455.6	73.3733	15455.6	73.3733	15455.6	68.1945	15455.6	68.1945	15455.6	60.1339	15455.6	60.1339	15455.6	49.7446	15455.6	49.7446	15455.6	44.7733	15455.6	44.7733	15455.6	42.8093	15455.6	42.8093	15455.6	42.6804	15455.6	42.6804	15455.6	36.3407	15455.6	36.3407	15455.6	34.5331	15455.6	34.5331	15455.6	41.9794	15455.6	41.9794	15455.6	46.9343
16000.5	93.4049	16000.5	92.8932	16000.5	92.8932	16000.5	91.5019	16000.5	91.5019	16000.5	88.7066	16000.5	88.7066	16000.5	85.8722	16000.5	85.8722	16000.5	78.6168	16000.5	78.6168	16000.5	76.5947	16000.5	76.5947	16000.5	72.7491	16000.5	72.7491	16000.5	70.6475	16000.5	70.6475	16000.5	65.3408	16000.5	65.3408	16000.5	57.8775	16000.5	57.8775	16000.5	48.3779	16000.5	48.3779	16000.5	38.9864	16000.5	38.9864	16000.5	34.4111	16000.5	34.4111	16000.5	36.521	16000.5	36.521	16000.5	39.1533	16000.5	39.1533	16000.5	41.3343	16000.5	41.3343	16000.5	36.0294	16000.5	36.0294	16000.5	44.3146
16564.5	93.4246	16564.5	92.8234	16564.5	92.8234	16564.5	91.2261	16564.5	91.2261	16564.5	88.1424	16564.5	88.1424	16564.5	84.7664	16564.5	84.7664	16564.5	76.3611	16564.5	76.3611	16564.5	73.0321	16564.5	73.0321	16564.5	69.1969	16564.5	69.1969	16564.5	68.3355	16564.5	68.3355	16564.5	64.1467	16564.5	64.1467	16564.5	55.4307	16564.5	55.4307	16564.5	48.4294	16564.5	48.4294	16564.5	41.392	16564.5	41.392	16564.5	35.6064	16564.5	35.6064	16564.5	39.4005	16564.5	39.4005	16564.5	33.9518	16564.5	33.9518	16564.5	41.5923	16564.5	41.5923	16564.5	40.7571	16564.5	40.7571	16564.5	42.303
17148.9	93.5536	17148.9	92.8915	17148.9	92.8915	17148.9	91.0661	17148.9	91.0661	17148.9	87.5924	17148.9	87.5924	17148.9	83.5176	17148.9	83.5176	17148.9	72.7067	17148.9	72.7067	17148.9	66.3349	17148.9	66.3349	17148.9	69.4394	17148.9	69.4394	17148.9	70.3235	17148.9	70.3235	17148.9	65.5026	17148.9	65.5026	17148.9	55.631	17148.9	55.631	17148.9	50.9591	17148.9	50.9591	17148.9	35.8316	17148.9	35.8316	17148.9	37.3041	17148.9	37.3041	17148.9	40.9608	17148.9	40.9608	17148.9	39.2648	17148.9	39.2648	17148.9	41.1544	17148.9	41.1544	17148.9	36.3696	17148.9	36.3696	17148.9	41.0019
17752.4	93.2866	17752.4	92.5785	17752.4	92.5785	17752.4	90.6008	17752.4	90.6008	17752.4	86.8661	17752.4	86.8661	17752.4	81.7142	17752.4	81.7142	17752.4	66.1168	17752.4	66.1168	17752.4	63.2645	17752.4	63.2645	17752.4	72.3664	17752.4	72.3664	17752.4	72.4747	17752.4	72.4747	17752.4	67.7369	17752.4	67.7369	17752.4	56.3558	17752.4	56.3558	17752.4	51.7677	17752.4	51.7677	17752.4	34.8148	17752.4	34.8148	17752.4	41.5375	17752.4	41.5375	17752.4	41.474	17752.4	41.474	17752.4	42.9939	17752.4	42.9939	17752.4	39.2573	17752.4	39.2573	17752.4	32.216	17752.4	32.216	17752.4	36.9371
18379.4	92.6046	18379.4	91.8984	18379.4	91.8984	18379.4	89.5949	18379.4	89.5949	18379.4	85.6044	18379.4	85.6044	18379.4	79.3999	18379.4	79.3999	18379.4	61.3849	18379.4	61.3849	18379.4	69.3592	18379.4	69.3592	18379.4	73.6159	18379.4	73.6159	18379.4	72.8204	18379.4	72.8204	18379.4	68.2095	18379.4	68.2095	18379.4	57.0822	18379.4	57.0822	18379.4	51.7862	18379.4	51.7862	18379.4	39.4698	18379.4	39.4698	18379.4	40.6806	18379.4	40.6806	18379.4	42.5465	18379.4	42.5465	18379.4	43.9375	18379.4	43.9375	18379.4	39.6233	18379.4	39.6233	18379.4	33.3471	18379.4	33.3471	18379.4	36.9217
19026.9	92.1137	19026.9	91.3966	19026.9	91.3966	19026.9	88.7766	19026.9	88.7766	19026.9	84.2607	19026.9	84.2607	19026.9	76.484	19026.9	76.484	19026.9	64.9144	19026.9	64.9144	19026.9	72.7905	19026.9	72.7905	19026.9	74.2312	19026.9	74.2312	19026.9	73.564	19026.9	73.564	19026.9	68.5008	19026.9	68.5008	19026.9	57.6758	19026.9	57.6758	19026.9	51.5494	19026.9	51.5494	19026.9	41.8861	19026.9	41.8861	19026.9	35.7251	19026.9	35.7251	19026.9	41.6276	19026.9	41.6276	19026.9	43.1308	19026.9	43.1308	19026.9	39.9511	19026.9	39.9511	19026.9	34.4131	19026.9	34.4131	19026.9	41.8573
19697.8	92.0494	19697.8	91.2935	19697.8	91.2935	19697.8	88.3529	19697.8	88.3529	19697.8	83.4557	19697.8	83.4557	19697.8	73.6737	19697.8	73.6737	19697.8	69.8586	19697.8	69.8586	19697.8	74.6845	19697.8	74.6845	19697.8	75.3025	19697.8	75.3025	19697.8	74.1807	19697.8	74.1807	19697.8	69.4859	19697.8	69.4859	19697.8	58.4181	19697.8	58.4181	19697.8	50.8008	19697.8	50.8008	19697.8	43.8203	19697.8	43.8203	19697.8	26.5153	19697.8	26.5153	19697.8	41.9828	19697.8	41.9828	19697.8	44.7446	19697.8	44.7446	19697.8	42.4719	19697.8	42.4719	19697.8	32.8591	19697.8	32.8591	19697.8	37.2994
19999.5	91.7416	19999.5	91.1468	19999.5	91.1468	19999.5	87.8271	19999.5	87.8271	19999.5	82.885	19999.5	82.885	19999.5	72.1674	19999.5	72.1674	19999.5	71.2223	19999.5	71.2223	19999.5	75.3224	19999.5	75.3224	19999.5	75.2758	19999.5	75.2758	19999.5	74.9902	19999.5	74.9902	19999.5	70.0933	19999.5	70.0933	19999.5	58.4644	19999.5	58.4644	19999.5	50.5981	19999.5	50.5981	19999.5	41.4281	19999.5	41.4281	19999.5	35.1603	19999.5	35.1603	19999.5	30.0856	19999.5	30.0856	19999.5	42.3523	19999.5	42.3523	19999.5	43.2173	19999.5	43.2173	19999.5	45.2513	19999.5	45.2513	19999.5	45.3342
