"SPL Vertical"
"On-Axis"		"10°"		"-10°"		"20°"		"-20°"		"30°"		"-30°"		"40°"		"-40°"		"50°"		"-50°"		"60°"		"-60°"		"70°"		"-70°"		"80°"		"-80°"		"90°"		"-90°"		"100°"		"-100°"		"110°"		"-110°"		"120°"		"-120°"		"130°"		"-130°"		"140°"		"-140°"		"150°"		"-150°"		"160°"		"-160°"		"170°"		"-170°"		"180°"
"Frequency [Hz]"	"Sound Pessure Level [dB]  / [2.83V 1m] "	"Frequency [Hz]"	"Sound Pessure Level [dB]  / [2.83V 1m] "	"Frequency [Hz]"	"Sound Pessure Level [dB]  / [2.83V 1m] "	"Frequency [Hz]"	"Sound Pessure Level [dB]  / [2.83V 1m] "	"Frequency [Hz]"	"Sound Pessure Level [dB]  / [2.83V 1m] "	"Frequency [Hz]"	"Sound Pessure Level [dB]  / [2.83V 1m] "	"Frequency [Hz]"	"Sound Pessure Level [dB]  / [2.83V 1m] "	"Frequency [Hz]"	"Sound Pessure Level [dB]  / [2.83V 1m] "	"Frequency [Hz]"	"Sound Pessure Level [dB]  / [2.83V 1m] "	"Frequency [Hz]"	"Sound Pessure Level [dB]  / [2.83V 1m] "	"Frequency [Hz]"	"Sound Pessure Level [dB]  / [2.83V 1m] "	"Frequency [Hz]"	"Sound Pessure Level [dB]  / [2.83V 1m] "	"Frequency [Hz]"	"Sound Pessure Level [dB]  / [2.83V 1m] "	"Frequency [Hz]"	"Sound Pessure Level [dB]  / [2.83V 1m] "	"Frequency [Hz]"	"Sound Pessure Level [dB]  / [2.83V 1m] "	"Frequency [Hz]"	"Sound Pessure Level [dB]  / [2.83V 1m] "	"Frequency [Hz]"	"Sound Pessure Level [dB]  / [2.83V 1m] "	"Frequency [Hz]"	"Sound Pessure Level [dB]  / [2.83V 1m] "	"Frequency [Hz]"	"Sound Pessure Level [dB]  / [2.83V 1m] "	"Frequency [Hz]"	"Sound Pessure Level [dB]  / [2.83V 1m] "	"Frequency [Hz]"	"Sound Pessure Level [dB]  / [2.83V 1m] "	"Frequency [Hz]"	"Sound Pessure Level [dB]  / [2.83V 1m] "	"Frequency [Hz]"	"Sound Pessure Level [dB]  / [2.83V 1m] "	"Frequency [Hz]"	"Sound Pessure Level [dB]  / [2.83V 1m] "	"Frequency [Hz]"	"Sound Pessure Level [dB]  / [2.83V 1m] "	"Frequency [Hz]"	"Sound Pessure Level [dB]  / [2.83V 1m] "	"Frequency [Hz]"	"Sound Pessure Level [dB]  / [2.83V 1m] "	"Frequency [Hz]"	"Sound Pessure Level [dB]  / [2.83V 1m] "	"Frequency [Hz]"	"Sound Pessure Level [dB]  / [2.83V 1m] "	"Frequency [Hz]"	"Sound Pessure Level [dB]  / [2.83V 1m] "	"Frequency [Hz]"	"Sound Pessure Level [dB]  / [2.83V 1m] "	"Frequency [Hz]"	"Sound Pessure Level [dB]  / [2.83V 1m] "	"Frequency [Hz]"	"Sound Pessure Level [dB]  / [2.83V 1m] "	"Frequency [Hz]"	"Sound Pessure Level [dB]  / [2.83V 1m] "	"Frequency [Hz]"	"Sound Pessure Level [dB]  / [2.83V 1m] "	"Frequency [Hz]"	"Sound Pessure Level [dB]  / [2.83V 1m] "
20.5078	60.4368	20.5078	60.2191	20.5078	60.6516	20.5078	60.006	20.5078	60.8562	20.5078	59.8042	20.5078	61.0432	20.5078	59.6195	20.5078	61.2057	20.5078	59.4566	20.5078	61.3372	20.5078	59.3188	20.5078	61.4314	20.5078	59.2085	20.5078	61.4835	20.5078	59.127	20.5078	61.4903	20.5078	59.075	20.5078	61.4509	20.5078	59.0528	20.5078	61.3674	20.5078	59.0603	20.5078	61.2446	20.5078	59.0971	20.5078	61.0892	20.5078	59.1628	20.5078	60.9086	20.5078	59.2566	20.5078	60.7104	20.5078	59.3774	20.5078	60.5017	20.5078	59.5232	20.5078	60.2894	20.5078	59.6915	20.5078	60.0797	20.5078	59.8785
21.9727	62.9819	21.9727	62.7945	21.9727	63.165	21.9727	62.6094	21.9727	63.3364	21.9727	62.4329	21.9727	63.4887	21.9727	62.27	21.9727	63.6147	21.9727	62.1249	21.9727	63.7079	21.9727	62.0009	21.9727	63.7632	21.9727	61.9005	21.9727	63.7774	21.9727	61.8252	21.9727	63.7493	21.9727	61.7761	21.9727	63.6809	21.9727	61.7533	21.9727	63.5767	21.9727	61.7564	21.9727	63.4438	21.9727	61.7843	21.9727	63.2908	21.9727	61.8352	21.9727	63.1268	21.9727	61.9069	21.9727	62.9596	21.9727	61.9966	21.9727	62.7953	21.9727	62.1018	21.9727	62.6377	21.9727	62.2199	21.9727	62.4887	21.9727	62.3492
23.4375	63.7734	23.4375	63.5704	23.4375	63.9714	23.4375	63.3692	23.4375	64.1573	23.4375	63.1762	23.4375	64.3235	23.4375	62.9965	23.4375	64.4627	23.4375	62.8348	23.4375	64.5676	23.4375	62.6946	23.4375	64.6324	23.4375	62.5785	23.4375	64.6526	23.4375	62.4883	23.4375	64.6263	23.4375	62.4251	23.4375	64.5543	23.4375	62.3893	23.4375	64.441	23.4375	62.3808	23.4375	64.2933	23.4375	62.3991	23.4375	64.1199	23.4375	62.4434	23.4375	63.9305	23.4375	62.5122	23.4375	63.7338	23.4375	62.6042	23.4375	63.5376	23.4375	62.7175	23.4375	63.3475	23.4375	62.8505	23.4375	63.1677	23.4375	63.0013
24.9023	64.6144	24.9023	64.4244	24.9023	64.7971	24.9023	64.2334	24.9023	64.9661	24.9023	64.047	24.9023	65.1146	24.9023	63.8703	24.9023	65.2359	24.9023	63.7074	24.9023	65.3239	24.9023	63.562	24.9023	65.3732	24.9023	63.4367	24.9023	65.3801	24.9023	63.3338	24.9023	65.3428	24.9023	63.2549	24.9023	65.2621	24.9023	63.2013	24.9023	65.1422	24.9023	63.1737	24.9023	64.9895	24.9023	63.1723	24.9023	64.8123	24.9023	63.1972	24.9023	64.6199	24.9023	63.2481	24.9023	64.421	24.9023	63.3242	24.9023	64.2231	24.9023	63.4244	24.9023	64.0326	24.9023	63.5474	24.9023	63.8541	24.9023	63.6914
26.3672	65.9222	26.3672	65.7387	26.3672	66.1046	26.3672	65.5595	26.3672	66.2797	26.3672	65.3894	26.3672	66.4412	26.3672	65.2326	26.3672	66.5821	26.3672	65.0923	26.3672	66.6959	26.3672	64.9715	26.3672	66.7764	26.3672	64.8724	26.3672	66.8185	26.3672	64.7966	26.3672	66.8194	26.3672	64.7454	26.3672	66.7787	26.3672	64.7198	26.3672	66.699	26.3672	64.7202	26.3672	66.5852	26.3672	64.7468	26.3672	66.4442	26.3672	64.7993	26.3672	66.2832	26.3672	64.8769	26.3672	66.1095	26.3672	64.9782	26.3672	65.9293	26.3672	65.1012	26.3672	65.748	26.3672	65.2431	26.3672	65.5704	26.3672	65.4008
27.832	66.591	27.832	66.3975	27.832	66.7839	27.832	66.2096	27.832	66.9695	27.832	66.0327	27.832	67.1401	27.832	65.8709	27.832	67.2881	27.832	65.7278	27.832	67.4061	27.832	65.6057	27.832	67.4873	27.832	65.5065	27.832	67.5266	27.832	65.4314	27.832	67.5211	27.832	65.3813	27.832	67.4706	27.832	65.3564	27.832	67.3781	27.832	65.3568	27.832	67.2493	27.832	65.382	27.832	67.0921	27.832	65.4315	27.832	66.9153	27.832	65.5044	27.832	66.7277	27.832	65.5996	27.832	66.537	27.832	65.7155	27.832	66.3495	27.832	65.8507	27.832	66.1703	27.832	66.003
29.2969	67.2613	29.2969	67.0793	29.2969	67.4397	29.2969	66.8993	29.2969	67.6083	29.2969	66.7262	29.2969	67.7606	29.2969	66.5644	29.2969	67.8897	29.2969	66.4174	29.2969	67.9889	29.2969	66.2884	29.2969	68.0522	29.2969	66.1797	29.2969	68.075	29.2969	66.0933	29.2969	68.055	29.2969	66.0308	29.2969	67.9925	29.2969	65.993	29.2969	67.8911	29.2969	65.9806	29.2969	67.757	29.2969	65.9936	29.2969	67.5982	29.2969	66.0316	29.2969	67.4236	29.2969	66.0939	29.2969	67.2413	29.2969	66.179	29.2969	67.0584	29.2969	66.2854	29.2969	66.8803	29.2969	66.411	29.2969	66.711	29.2969	66.5537
30.7617	68.4019	30.7617	68.2193	30.7617	68.5803	30.7617	68.0385	30.7617	68.7478	30.7617	67.8645	30.7617	68.897	30.7617	67.7015	30.7617	69.0202	30.7617	67.5529	30.7617	69.1102	30.7617	67.4215	30.7617	69.1607	30.7617	67.3092	30.7617	69.1674	30.7617	67.2176	30.7617	69.1284	30.7617	67.1477	30.7617	69.0449	30.7617	67.1003	30.7617	68.9216	30.7617	67.0757	30.7617	68.7658	30.7617	67.0739	30.7617	68.587	30.7617	67.0948	30.7617	68.3953	30.7617	67.138	30.7617	68.2005	30.7617	67.2029	30.7617	68.0107	30.7617	67.2891	30.7617	67.832	30.7617	67.3959	30.7617	67.6685	30.7617	67.5227
32.2266	69.0338	32.2266	68.8491	32.2266	69.2157	32.2266	68.6673	32.2266	69.3885	32.2266	68.4932	32.2266	69.5455	32.2266	68.3313	32.2266	69.68	32.2266	68.1849	32.2266	69.785	32.2266	68.0571	32.2266	69.8548	32.2266	67.9501	32.2266	69.8846	32.2266	67.8657	32.2266	69.8719	32.2266	67.8052	32.2266	69.8167	32.2266	67.7692	32.2266	69.7218	32.2266	67.7584	32.2266	69.5925	32.2266	67.7726	32.2266	69.436	32.2266	67.8118	32.2266	69.2603	32.2266	67.8754	32.2266	69.0736	32.2266	67.9626	32.2266	68.8834	32.2266	68.0722	32.2266	68.6964	32.2266	68.2028	32.2266	68.5179	32.2266	68.3522
33.6914	70.0192	33.6914	69.833	33.6914	70.2026	33.6914	69.6498	33.6914	70.3769	33.6914	69.4745	33.6914	70.5351	33.6914	69.3113	33.6914	70.6701	33.6914	69.1636	33.6914	70.7752	33.6914	69.0343	33.6914	70.8443	33.6914	68.9256	33.6914	70.8732	33.6914	68.8394	33.6914	70.8594	33.6914	68.7769	33.6914	70.8032	33.6914	68.7392	33.6914	70.7075	33.6914	68.7268	33.6914	70.5776	33.6914	68.7398	33.6914	70.4205	33.6914	68.7782	33.6914	70.2439	33.6914	68.8415	33.6914	70.0558	33.6914	68.9291	33.6914	69.8636	33.6914	69.0398	33.6914	69.6739	33.6914	69.1721	33.6914	69.4925	33.6914	69.324
35.1562	70.7137	35.1562	70.5387	35.1562	70.8844	35.1562	70.3648	35.1562	71.0449	35.1562	70.1966	35.1562	71.1892	35.1562	70.0384	35.1562	71.3109	35.1562	69.8936	35.1562	71.404	35.1562	69.7653	35.1562	71.4631	35.1562	69.6558	35.1562	71.4842	35.1562	69.5671	35.1562	71.4653	35.1562	69.5007	35.1562	71.4065	35.1562	69.4577	35.1562	71.3107	35.1562	69.4388	35.1562	71.1828	35.1562	69.4444	35.1562	71.0295	35.1562	69.4746	35.1562	70.8582	35.1562	69.5293	35.1562	70.6765	35.1562	69.608	35.1562	70.4915	35.1562	69.7097	35.1562	70.3096	35.1562	69.8331	35.1562	70.1364	35.1562	69.9763
36.6211	71.3758	36.6211	71.1984	36.6211	71.5498	36.6211	71.0233	36.6211	71.7147	36.6211	70.855	36.6211	71.8639	36.6211	70.6977	36.6211	71.9909	36.6211	70.5548	36.6211	72.0894	36.6211	70.4293	36.6211	72.1538	36.6211	70.3234	36.6211	72.1799	36.6211	70.239	36.6211	72.1656	36.6211	70.1775	36.6211	72.1109	36.6211	70.1398	36.6211	72.0188	36.6211	70.1267	36.6211	71.8942	36.6211	70.1382	36.6211	71.7439	36.6211	70.1743	36.6211	71.5751	36.6211	70.2346	36.6211	71.3955	36.6211	70.3182	36.6211	71.2121	36.6211	70.4243	36.6211	71.031	36.6211	70.551	36.6211	70.8576	36.6211	70.6964
38.0859	71.9937	38.0859	71.8135	38.0859	72.1724	38.0859	71.6373	38.0859	72.3433	38.0859	71.4701	38.0859	72.4995	38.0859	71.3159	38.0859	72.634	38.0859	71.1782	38.0859	72.7402	38.0859	71.0596	38.0859	72.8119	38.0859	70.9622	38.0859	72.8448	38.0859	70.8874	38.0859	72.8364	38.0859	70.8362	38.0859	72.787	38.0859	70.8091	38.0859	72.6993	38.0859	70.8061	38.0859	72.5784	38.0859	70.8271	38.0859	72.4312	38.0859	70.8714	38.0859	72.2655	38.0859	70.9381	38.0859	72.0891	38.0859	71.0261	38.0859	71.9091	38.0859	71.1341	38.0859	71.7317	38.0859	71.2607	38.0859	71.5621	38.0859	71.4041
39.5508	72.8005	39.5508	72.6196	39.5508	72.9791	39.5508	72.4422	39.5508	73.1492	39.5508	72.2734	39.5508	73.304	39.5508	72.1174	39.5508	73.4366	39.5508	71.9778	39.5508	73.5405	39.5508	71.8574	39.5508	73.61	39.5508	71.7587	39.5508	73.6411	39.5508	71.683	39.5508	73.6317	39.5508	71.6316	39.5508	73.5822	39.5508	71.6049	39.5508	73.4956	39.5508	71.603	39.5508	73.3768	39.5508	71.6255	39.5508	73.2325	39.5508	71.6716	39.5508	73.0699	39.5508	71.7405	39.5508	72.8963	39.5508	71.8308	39.5508	72.7187	39.5508	71.9412	39.5508	72.5427	39.5508	72.0698	39.5508	72.3734	39.5508	72.2147
41.0156	73.2411	41.0156	73.0592	41.0156	73.4209	41.0156	72.8813	41.0156	73.5914	41.0156	72.7129	41.0156	73.7456	41.0156	72.5589	41.0156	73.8762	41.0156	72.4233	41.0156	73.9765	41.0156	72.3092	41.0156	74.0412	41.0156	72.2192	41.0156	74.0671	41.0156	72.1548	41.0156	74.0533	41.0156	72.117	41.0156	74.0016	41.0156	72.1058	41.0156	73.9165	41.0156	72.1206	41.0156	73.8044	41.0156	72.1599	41.0156	73.6722	41.0156	72.2217	41.0156	73.5271	41.0156	72.3036	41.0156	73.3752	41.0156	72.4029	41.0156	73.2212	41.0156	72.5166	41.0156	73.0687	41.0156	72.6421	41.0156	72.92	41.0156	72.7773
42.4805	73.8992	42.4805	73.7147	42.4805	74.0788	42.4805	73.531	42.4805	74.2475	42.4805	73.3533	42.4805	74.3987	42.4805	73.1862	42.4805	74.5261	42.4805	73.0336	42.4805	74.6234	42.4805	72.8989	42.4805	74.6854	42.4805	72.785	42.4805	74.7083	42.4805	72.6941	42.4805	74.6902	42.4805	72.628	42.4805	74.6316	42.4805	72.5876	42.4805	74.5358	42.4805	72.5739	42.4805	74.4078	42.4805	72.5868	42.4805	74.2543	42.4805	72.6262	42.4805	74.0825	42.4805	72.6913	42.4805	73.8995	42.4805	72.781	42.4805	73.7121	42.4805	72.8937	42.4805	73.5263	42.4805	73.0275	42.4805	73.3473	42.4805	73.1798
43.9453	74.4123	43.9453	74.2319	43.9453	74.5876	43.9453	74.052	43.9453	74.752	43.9453	73.8775	43.9453	74.8989	43.9453	73.7129	43.9453	75.022	43.9453	73.5619	43.9453	75.1152	43.9453	73.4277	43.9453	75.173	43.9453	73.3132	43.9453	75.1917	43.9453	73.2203	43.9453	75.1692	43.9453	73.1508	43.9453	75.1062	43.9453	73.1058	43.9453	75.0058	43.9453	73.0861	43.9453	74.8731	43.9453	73.092	43.9453	74.7152	43.9453	73.1234	43.9453	74.5396	43.9453	73.1801	43.9453	74.3537	43.9453	73.2612	43.9453	74.1648	43.9453	73.3658	43.9453	73.9791	43.9453	73.4924	43.9453	73.8023	43.9453	73.6388
45.4102	75.0313	45.4102	74.8544	45.4102	75.2037	45.4102	74.6786	45.4102	75.3655	45.4102	74.5088	45.4102	75.5105	45.4102	74.3493	45.4102	75.632	45.4102	74.2038	45.4102	75.724	45.4102	74.0754	45.4102	75.7812	45.4102	73.9667	45.4102	75.8	45.4102	73.8798	45.4102	75.7788	45.4102	73.8163	45.4102	75.7183	45.4102	73.7771	45.4102	75.6219	45.4102	73.7628	45.4102	75.4949	45.4102	73.7734	45.4102	75.3443	45.4102	73.8088	45.4102	75.1772	45.4102	73.8682	45.4102	75.0009	45.4102	73.9506	45.4102	74.8219	45.4102	74.0546	45.4102	74.6457	45.4102	74.1786	45.4102	74.4772	45.4102	74.3204
46.875	75.6391	46.875	75.4659	46.875	75.8081	46.875	75.2935	46.875	75.9671	46.875	75.1264	46.875	76.1097	46.875	74.9685	46.875	76.2294	46.875	74.8229	46.875	76.3198	46.875	74.6926	46.875	76.3753	46.875	74.5799	46.875	76.3915	46.875	74.4868	46.875	76.3662	46.875	74.4149	46.875	76.2999	46.875	74.3655	46.875	76.1955	46.875	74.3394	46.875	76.0584	46.875	74.3371	46.875	75.8958	46.875	74.3589	46.875	75.7158	46.875	74.4049	46.875	75.5268	46.875	74.4749	46.875	75.3366	46.875	74.5684	46.875	75.1522	46.875	74.6847	46.875	74.9793	46.875	74.8224
48.3398	76.2541	48.3398	76.0786	48.3398	76.4242	48.3398	75.9032	48.3398	76.5829	48.3398	75.7326	48.3398	76.7239	48.3398	75.5712	48.3398	76.8407	48.3398	75.4225	48.3398	76.9273	48.3398	75.2897	48.3398	76.9783	48.3398	75.1752	48.3398	76.9903	48.3398	75.081	48.3398	76.9616	48.3398	75.0089	48.3398	76.8931	48.3398	74.9598	48.3398	76.788	48.3398	74.9344	48.3398	76.6517	48.3398	74.9332	48.3398	76.491	48.3398	74.9562	48.3398	76.3132	48.3398	75.0033	48.3398	76.1263	48.3398	75.0744	48.3398	75.9377	48.3398	75.1689	48.3398	75.7541	48.3398	75.2859	48.3398	75.5814	48.3398	75.4242
51.2695	77.173	51.2695	76.9957	51.2695	77.3453	51.2695	76.8187	51.2695	77.5063	51.2695	76.6473	51.2695	77.65	51.2695	76.4859	51.2695	77.77	51.2695	76.3383	51.2695	77.8603	51.2695	76.2078	51.2695	77.9159	51.2695	76.0971	51.2695	77.9332	51.2695	76.0081	51.2695	77.9105	51.2695	75.9423	51.2695	77.8482	51.2695	75.9004	51.2695	77.7493	51.2695	75.8829	51.2695	77.6187	51.2695	75.8896	51.2695	77.4629	51.2695	75.9202	51.2695	77.2893	51.2695	75.9741	51.2695	77.1056	51.2695	76.0508	51.2695	76.9194	51.2695	76.1494	51.2695	76.7376	51.2695	76.2691	51.2695	76.5658	51.2695	76.4086
52.7344	77.7168	52.7344	77.538	52.7344	77.8904	52.7344	77.3597	52.7344	78.0527	52.7344	77.1873	52.7344	78.1976	52.7344	77.0255	52.7344	78.3191	52.7344	76.8785	52.7344	78.4119	52.7344	76.7497	52.7344	78.4711	52.7344	76.6418	52.7344	78.4933	52.7344	76.5569	52.7344	78.4769	52.7344	76.4961	52.7344	78.4221	52.7344	76.4603	52.7344	78.3313	52.7344	76.4495	52.7344	78.2087	52.7344	76.4634	52.7344	78.0603	52.7344	76.5013	52.7344	77.8928	52.7344	76.5624	52.7344	77.7137	52.7344	76.6457	52.7344	77.5303	52.7344	76.7501	52.7344	77.3495	52.7344	76.8746	52.7344	77.1771	52.7344	77.0177
54.1992	78.2278	54.1992	78.0547	54.1992	78.3959	54.1992	77.882	54.1992	78.5531	54.1992	77.715	54.1992	78.6937	54.1992	77.5585	54.1992	78.812	54.1992	77.4166	54.1992	78.9031	54.1992	77.2928	54.1992	78.9624	54.1992	77.1899	54.1992	78.9868	54.1992	77.1096	54.1992	78.9747	54.1992	77.0534	54.1992	78.9264	54.1992	77.0218	54.1992	78.844	54.1992	77.0147	54.1992	78.7315	54.1992	77.0319	54.1992	78.5939	54.1992	77.0724	54.1992	78.4373	54.1992	77.1356	54.1992	78.268	54.1992	77.2204	54.1992	78.0928	54.1992	77.3257	54.1992	77.918	54.1992	77.4504	54.1992	77.7497	54.1992	77.5925
55.6641	78.7645	55.6641	78.5947	55.6641	78.9288	55.6641	78.4247	55.6641	79.0817	55.6641	78.2598	55.6641	79.2176	55.6641	78.1048	55.6641	79.331	55.6641	77.9641	55.6641	79.4166	55.6641	77.8411	55.6641	79.4704	55.6641	77.7388	55.6641	79.4893	55.6641	77.6594	55.6641	79.4723	55.6641	77.604	55.6641	79.4203	55.6641	77.5735	55.6641	79.3365	55.6641	77.5678	55.6641	79.2253	55.6641	77.5863	55.6641	79.0924	55.6641	77.6283	55.6641	78.9435	55.6641	77.6927	55.6641	78.7841	55.6641	77.7781	55.6641	78.6196	55.6641	77.8831	55.6641	78.455	55.6641	78.0059	55.6641	78.2951	55.6641	78.1442
58.5938	79.6701	58.5938	79.4939	58.5938	79.8385	58.5938	79.3156	58.5938	79.9934	58.5938	79.1402	58.5938	80.1287	58.5938	78.9724	58.5938	80.2383	58.5938	78.8165	58.5938	80.3166	58.5938	78.6762	58.5938	80.3591	58.5938	78.5547	58.5938	80.3628	58.5938	78.4548	58.5938	80.3266	58.5938	78.3786	58.5938	80.2524	58.5938	78.3277	58.5938	80.144	58.5938	78.303	58.5938	80.0076	58.5938	78.3049	58.5938	79.8504	58.5938	78.3332	58.5938	79.6794	58.5938	78.3872	58.5938	79.5016	58.5938	78.4654	58.5938	79.3229	58.5938	78.5663	58.5938	79.1481	58.5938	78.6877	58.5938	78.9816	58.5938	78.827
60.0586	80.1173	60.0586	79.9369	60.0586	80.2895	60.0586	79.7543	60.0586	80.4475	60.0586	79.575	60.0586	80.5852	60.0586	79.4041	60.0586	80.6967	60.0586	79.2463	60.0586	80.7763	60.0586	79.1055	60.0586	80.8195	60.0586	78.9852	60.0586	80.8233	60.0586	78.8881	60.0586	80.7869	60.0586	78.8159	60.0586	80.7122	60.0586	78.7701	60.0586	80.6034	60.0586	78.7511	60.0586	80.4668	60.0586	78.7588	60.0586	80.3099	60.0586	78.7925	60.0586	80.1401	60.0586	78.8511	60.0586	79.964	60.0586	78.9328	60.0586	79.7873	60.0586	79.0359	60.0586	79.6148	60.0586	79.1581	60.0586	79.4503	60.0586	79.2971
62.9883	80.9327	62.9883	80.7543	62.9883	81.1032	62.9883	80.5735	62.9883	81.2597	62.9883	80.3957	62.9883	81.396	62.9883	80.2255	62.9883	81.5059	62.9883	80.067	62.9883	81.5834	62.9883	79.924	62.9883	81.6236	62.9883	79.7994	62.9883	81.6229	62.9883	79.6955	62.9883	81.5802	62.9883	79.6142	62.9883	81.4966	62.9883	79.5568	62.9883	81.3763	62.9883	79.524	62.9883	81.2256	62.9883	79.5164	62.9883	81.0524	62.9883	79.5338	62.9883	80.8653	62.9883	79.576	62.9883	80.6727	62.9883	79.6425	62.9883	80.4821	62.9883	79.7324	62.9883	80.2998	62.9883	79.8447	62.9883	80.1306	62.9883	79.9781
64.4531	81.2662	64.4531	81.088	64.4531	81.4375	64.4531	80.9088	64.4531	81.596	64.4531	80.7336	64.4531	81.7353	64.4531	80.5672	64.4531	81.8489	64.4531	80.4135	64.4531	81.9308	64.4531	80.2762	64.4531	81.9757	64.4531	80.158	64.4531	81.9802	64.4531	80.0611	64.4531	81.943	64.4531	79.9872	64.4531	81.8654	64.4531	79.9371	64.4531	81.7514	64.4531	79.9116	64.4531	81.6071	64.4531	79.9106	64.4531	81.4402	64.4531	79.934	64.4531	81.2591	64.4531	79.9811	64.4531	81.0718	64.4531	80.0513	64.4531	80.8858	64.4531	80.1436	64.4531	80.7072	64.4531	80.2568	64.4531	80.5407	64.4531	80.3898
67.3828	81.8077	67.3828	81.627	67.3828	81.9823	67.3828	81.4463	67.3828	82.1446	67.3828	81.271	67.3828	82.2881	67.3828	81.1059	67.3828	82.4065	67.3828	80.9555	67.3828	82.4941	67.3828	80.8233	67.3828	82.5464	67.3828	80.7123	67.3828	82.5606	67.3828	80.6247	67.3828	82.536	67.3828	80.562	67.3828	82.4738	67.3828	80.5251	67.3828	82.3775	67.3828	80.5142	67.3828	82.2521	67.3828	80.5288	67.3828	82.1037	67.3828	80.5682	67.3828	81.9389	67.3828	80.6313	67.3828	81.7646	67.3828	80.7165	67.3828	81.5871	67.3828	80.8224	67.3828	81.4121	67.3828	80.9471	67.3828	81.2447	67.3828	81.0887
68.8477	82.0599	68.8477	81.8836	68.8477	82.2307	68.8477	81.7075	68.8477	82.39	68.8477	81.5371	68.8477	82.5315	68.8477	81.3772	68.8477	82.6493	68.8477	81.2321	68.8477	82.7378	68.8477	81.1054	68.8477	82.7927	68.8477	81.0002	68.8477	82.8113	68.8477	80.9185	68.8477	82.7927	68.8477	80.8618	68.8477	82.7381	68.8477	80.831	68.8477	82.6507	68.8477	80.8259	68.8477	82.5352	68.8477	80.8462	68.8477	82.3972	68.8477	80.8908	68.8477	82.2427	68.8477	80.9585	68.8477	82.0778	68.8477	81.0474	68.8477	81.9084	68.8477	81.1558	68.8477	81.7398	68.8477	81.2818	68.8477	81.5767	68.8477	81.4229
71.7773	82.7178	71.7773	82.5404	71.7773	82.8901	71.7773	82.364	71.7773	83.0508	71.7773	82.1942	71.7773	83.1932	71.7773	82.0362	71.7773	83.311	71.7773	81.8943	71.7773	83.3985	71.7773	81.7722	71.7773	83.4516	71.7773	81.6727	71.7773	83.4677	71.7773	81.5977	71.7773	83.4464	71.7773	81.5484	71.7773	83.3895	71.7773	81.5249	71.7773	83.3008	71.7773	81.527	71.7773	83.1855	71.7773	81.5534	71.7773	83.0495	71.7773	81.6025	71.7773	82.8992	71.7773	81.6726	71.7773	82.7406	71.7773	81.7616	71.7773	82.5792	71.7773	81.8674	71.7773	82.4199	71.7773	81.988	71.7773	82.2664	71.7773	82.1217
74.707	83.2681	74.707	83.0879	74.707	83.4422	74.707	82.908	74.707	83.6034	74.707	82.7346	74.707	83.7454	74.707	82.5731	74.707	83.8618	74.707	82.4283	74.707	83.9477	74.707	82.3041	74.707	83.9989	74.707	82.2034	74.707	84.0135	74.707	82.1282	74.707	83.9911	74.707	82.0795	74.707	83.9339	74.707	82.0575	74.707	83.8455	74.707	82.0614	74.707	83.7309	74.707	82.0898	74.707	83.5958	74.707	82.141	74.707	83.4463	74.707	82.2129	74.707	83.288	74.707	82.3033	74.707	83.1265	74.707	82.4103	74.707	82.9666	74.707	82.532	74.707	82.8123	74.707	82.6666
77.6367	83.738	77.6367	83.5549	77.6367	83.9154	77.6367	83.3727	77.6367	84.0802	77.6367	83.1976	77.6367	84.2256	77.6367	83.0354	77.6367	84.3452	77.6367	82.8908	77.6367	84.4335	77.6367	82.7678	77.6367	84.4865	77.6367	82.6695	77.6367	84.5018	77.6367	82.5977	77.6367	84.4796	77.6367	82.5533	77.6367	84.4221	77.6367	82.5362	77.6367	84.3336	77.6367	82.5454	77.6367	84.2194	77.6367	82.5792	77.6367	84.0857	77.6367	82.6355	77.6367	83.9384	77.6367	82.7118	77.6367	83.7831	77.6367	82.8058	77.6367	83.6251	77.6367	82.9153	77.6367	83.4684	77.6367	83.0381	77.6367	83.3166	77.6367	83.1725
79.1016	83.9942	79.1016	83.8078	79.1016	84.1735	79.1016	83.6211	79.1016	84.3386	79.1016	83.4407	79.1016	84.4824	79.1016	83.2726	79.1016	84.5985	79.1016	83.1219	79.1016	84.6817	79.1016	82.993	79.1016	84.7281	79.1016	82.8892	79.1016	84.7359	79.1016	82.8129	79.1016	84.7057	79.1016	82.7653	79.1016	84.6406	79.1016	82.7465	79.1016	84.5454	79.1016	82.7557	79.1016	84.4263	79.1016	82.7911	79.1016	84.2898	79.1016	82.8501	79.1016	84.1425	79.1016	82.9298	79.1016	83.9897	79.1016	83.0272	79.1016	83.8359	79.1016	83.1391	79.1016	83.6842	79.1016	83.2628	79.1016	83.5371	79.1016	83.3961
82.0312	84.2729	82.0312	84.0837	82.0312	84.4525	82.0312	83.892	82.0312	84.6155	82.0312	83.7048	82.0312	84.7549	82.0312	83.5283	82.0312	84.8646	82.0312	83.3683	82.0312	84.9394	82.0312	83.2298	82.0312	84.9762	82.0312	83.1168	82.0312	84.9737	82.0312	83.0323	82.0312	84.933	82.0312	82.978	82.0312	84.8575	82.0312	82.9543	82.0312	84.7526	82.0312	82.9604	82.0312	84.6249	82.0312	82.9945	82.0312	84.4818	82.0312	83.0535	82.0312	84.3302	82.0312	83.134	82.0312	84.176	82.0312	83.2319	82.0312	84.0235	82.0312	83.3436	82.0312	83.8753	82.0312	83.4657	82.0312	83.7326	82.0312	83.5959
84.9609	84.5302	84.9609	84.3508	84.9609	84.7002	84.9609	84.1682	84.9609	84.8542	84.9609	83.989	84.9609	84.9863	84.9609	83.8189	84.9609	85.0912	84.9609	83.6636	84.9609	85.1646	84.9609	83.5279	84.9609	85.2038	84.9609	83.4156	84.9609	85.2075	84.9609	83.33	84.9609	85.1762	84.9609	83.2728	84.9609	85.1118	84.9609	83.2449	84.9609	85.0179	84.9609	83.2458	84.9609	84.8992	84.9609	83.2739	84.9609	84.7611	84.9609	83.3267	84.9609	84.6099	84.9609	83.4011	84.9609	84.4519	84.9609	83.4935	84.9609	84.293	84.9609	83.6007	84.9609	84.1379	84.9609	83.7201	84.9609	83.9897	84.9609	83.8502
87.8906	84.7769	87.8906	84.6019	87.8906	84.9428	87.8906	84.4237	87.8906	85.0938	87.8906	84.2486	87.8906	85.2247	87.8906	84.0821	87.8906	85.3309	87.8906	83.9298	87.8906	85.4089	87.8906	83.7962	87.8906	85.4561	87.8906	83.6853	87.8906	85.4712	87.8906	83.6	87.8906	85.4542	87.8906	83.5422	87.8906	85.4063	87.8906	83.5129	87.8906	85.33	87.8906	83.5119	87.8906	85.2282	87.8906	83.5383	87.8906	85.1046	87.8906	83.5904	87.8906	84.963	87.8906	83.6662	87.8906	84.808	87.8906	83.7633	87.8906	84.6447	87.8906	83.8793	87.8906	84.4785	87.8906	84.0116	87.8906	84.3147	87.8906	84.1578
90.8203	84.974	90.8203	84.8015	90.8203	85.135	90.8203	84.6234	90.8203	85.2791	90.8203	84.4453	90.8203	85.4016	90.8203	84.2733	90.8203	85.4979	90.8203	84.113	90.8203	85.5648	90.8203	83.9697	90.8203	85.5997	90.8203	83.848	90.8203	85.602	90.8203	83.7518	90.8203	85.5725	90.8203	83.6841	90.8203	85.5138	90.8203	83.6466	90.8203	85.4296	90.8203	83.6399	90.8203	85.3241	90.8203	83.6634	90.8203	85.2012	90.8203	83.7156	90.8203	85.0646	90.8203	83.7938	90.8203	84.9178	90.8203	83.8949	90.8203	84.7642	90.8203	84.0151	90.8203	84.6072	90.8203	84.1503	90.8203	84.4501	90.8203	84.2966
95.2148	85.2637	95.2148	85.0772	95.2148	85.439	95.2148	84.8872	95.2148	85.5957	95.2148	84.7017	95.2148	85.7273	95.2148	84.5277	95.2148	85.8284	95.2148	84.3718	95.2148	85.8953	95.2148	84.2392	95.2148	85.9262	95.2148	84.1334	95.2148	85.9212	95.2148	84.0567	95.2148	85.8829	95.2148	84.0097	95.2148	85.8156	95.2148	83.9916	95.2148	85.7243	95.2148	84.0008	95.2148	85.6141	95.2148	84.0348	95.2148	85.4893	95.2148	84.0912	95.2148	85.3535	95.2148	84.1673	95.2148	85.2099	95.2148	84.2608	95.2148	85.0616	95.2148	84.3694	95.2148	84.9121	95.2148	84.4911	95.2148	84.7651	95.2148	84.6238
98.1445	85.327	98.1445	85.1449	98.1445	85.4976	98.1445	84.9587	98.1445	85.6493	98.1445	84.776	98.1445	85.7755	98.1445	84.6038	98.1445	85.8704	98.1445	84.4486	98.1445	85.9297	98.1445	84.316	98.1445	85.9514	98.1445	84.2104	98.1445	85.9362	98.1445	84.1345	98.1445	85.8878	98.1445	84.0895	98.1445	85.8121	98.1445	84.075	98.1445	85.7166	98.1445	84.0893	98.1445	85.6082	98.1445	84.1297	98.1445	85.4922	98.1445	84.1929	98.1445	85.3716	98.1445	84.2754	98.1445	85.2475	98.1445	84.3738	98.1445	85.1205	98.1445	84.4846	98.1445	84.9911	98.1445	84.6046	98.1445	84.8606	98.1445	84.7309
101.074	85.2683	101.074	85.0767	101.074	85.4493	101.074	84.8827	101.074	85.6116	101.074	84.6942	101.074	85.7472	101.074	84.5186	101.074	85.8493	101.074	84.3628	101.074	85.9124	101.074	84.2327	101.074	85.9337	101.074	84.1327	101.074	85.9136	101.074	84.0659	101.074	85.856	101.074	84.0333	101.074	85.7684	101.074	84.0343	101.074	85.6604	101.074	84.0665	101.074	85.5423	101.074	84.126	101.074	85.4229	101.074	84.2081	101.074	85.3073	101.074	84.3073	101.074	85.1974	101.074	84.4179	101.074	85.0916	101.074	84.5345	101.074	84.9867	101.074	84.6524	101.074	84.8795	101.074	84.7681
105.469	85.4345	105.469	85.234	105.469	85.6218	105.469	85.0295	105.469	85.7871	105.469	84.83	105.469	85.9222	105.469	84.6439	105.469	86.021	105.469	84.4783	105.469	86.0791	105.469	84.3394	105.469	86.0949	105.469	84.2313	105.469	86.0695	105.469	84.1567	105.469	86.0069	105.469	84.1161	105.469	85.9135	105.469	84.1084	105.469	85.797	105.469	84.1306	105.469	85.6656	105.469	84.1788	105.469	85.5268	105.469	84.2483	105.469	85.3867	105.469	84.3339	105.469	85.2497	105.469	84.431	105.469	85.1182	105.469	84.5356	105.469	84.9929	105.469	84.6449	105.469	84.8731	105.469	84.7574
108.398	85.561	108.398	85.3617	108.398	85.7423	108.398	85.1535	108.398	85.8973	108.398	84.9453	108.398	86.0189	108.398	84.7461	108.398	86.1012	108.398	84.564	108.398	86.1405	108.398	84.4063	108.398	86.1357	108.398	84.2788	108.398	86.0884	108.398	84.1855	108.398	86.0035	108.398	84.1282	108.398	85.8889	108.398	84.1066	108.398	85.7541	108.398	84.1184	108.398	85.6092	108.398	84.1595	108.398	85.4632	108.398	84.2249	108.398	85.3224	108.398	84.3087	108.398	85.1901	108.398	84.4052	108.398	85.0664	108.398	84.5094	108.398	84.9497	108.398	84.6174	108.398	84.8373	108.398	84.7269
112.793	85.4547	112.793	85.2522	112.793	85.6387	112.793	85.0405	112.793	85.7958	112.793	84.8291	112.793	85.9188	112.793	84.6276	112.793	86.0023	112.793	84.4448	112.793	86.043	112.793	84.2883	112.793	86.0399	112.793	84.1638	112.793	85.9952	112.793	84.075	112.793	85.9137	112.793	84.023	112.793	85.8026	112.793	84.0066	112.793	85.6708	112.793	84.0224	112.793	85.5272	112.793	84.0658	112.793	85.38	112.793	84.1312	112.793	85.2354	112.793	84.2131	112.793	85.0974	112.793	84.3063	112.793	84.9677	112.793	84.4067	112.793	84.8458	112.793	84.5115	112.793	84.7303	112.793	84.6193
117.188	85.4704	117.188	85.2638	117.188	85.6543	117.188	85.0431	117.188	85.8075	117.188	84.8176	117.188	85.9235	117.188	84.5966	117.188	85.997	117.188	84.3896	117.188	86.0248	117.188	84.2056	117.188	86.0067	117.188	84.0527	117.188	85.9451	117.188	83.9374	117.188	85.8462	117.188	83.8639	117.188	85.7193	117.188	83.8336	117.188	85.5759	117.188	83.845	117.188	85.4278	117.188	83.894	117.188	85.2846	117.188	83.9743	117.188	85.1519	117.188	84.0783	117.188	85.0308	117.188	84.1978	117.188	84.9179	117.188	84.3251	117.188	84.8079	117.188	84.4533	117.188	84.6956	117.188	84.5776
120.117	85.5735	120.117	85.3643	120.117	85.7597	120.117	85.141	120.117	85.9146	120.117	84.9124	120.117	86.031	120.117	84.6873	120.117	86.1028	120.117	84.4741	120.117	86.1257	120.117	84.2803	120.117	86.0978	120.117	84.1128	120.117	86.02	120.117	83.9769	120.117	85.8965	120.117	83.8765	120.117	85.7355	120.117	83.8134	120.117	85.5481	120.117	83.7874	120.117	85.3481	120.117	83.7962	120.117	85.1492	120.117	83.8356	120.117	84.9631	120.117	83.9003	120.117	84.7965	120.117	83.984	120.117	84.6506	120.117	84.0805	120.117	84.5217	120.117	84.1845	120.117	84.4041	120.117	84.2925
124.512	85.3743	124.512	85.1614	124.512	85.5651	124.512	84.9358	124.512	85.7257	124.512	84.7068	124.512	85.8491	124.512	84.4841	124.512	85.93	124.512	84.2767	124.512	85.9647	124.512	84.0923	124.512	85.9519	124.512	83.9375	124.512	85.8922	124.512	83.8167	124.512	85.7891	124.512	83.7323	124.512	85.6488	124.512	83.6845	124.512	85.4799	124.512	83.6713	124.512	85.2932	124.512	83.6894	124.512	85.1	124.512	83.7341	124.512	84.9112	124.512	83.8001	124.512	84.735	124.512	83.8825	124.512	84.5758	124.512	83.9766	124.512	84.4337	124.512	84.0791	124.512	84.3059	124.512	84.1887
128.906	85.1087	128.906	84.8926	128.906	85.3034	128.906	84.6647	128.906	85.4684	128.906	84.4353	128.906	85.5968	128.906	84.2149	128.906	85.6834	128.906	84.0135	128.906	85.7251	128.906	83.8398	128.906	85.7212	128.906	83.7006	128.906	85.6732	128.906	83.6003	128.906	85.5857	128.906	83.5405	128.906	85.4654	128.906	83.5199	128.906	85.3212	128.906	83.5352	128.906	85.1626	128.906	83.5813	128.906	84.9993	128.906	83.6522	128.906	84.8396	128.906	83.7416	128.906	84.6891	128.906	83.8436	128.906	84.5501	128.906	83.9534	128.906	84.4215	128.906	84.067	128.906	84.3001	128.906	84.1826
133.301	85.0142	133.301	84.7847	133.301	85.2214	133.301	84.543	133.301	85.3973	133.301	84.2996	133.301	85.5341	133.301	84.0654	133.301	85.6257	133.301	83.8512	133.301	85.6684	133.301	83.6666	133.301	85.6606	133.301	83.5195	133.301	85.6042	133.301	83.415	133.301	85.5041	133.301	83.3554	133.301	85.368	133.301	83.3397	133.301	85.2065	133.301	83.3638	133.301	85.0315	133.301	83.4216	133.301	84.8555	133.301	83.5056	133.301	84.6891	133.301	83.608	133.301	84.5391	133.301	83.7211	133.301	84.4069	133.301	83.8383	133.301	84.2885	133.301	83.9546	133.301	84.1775	133.301	84.0675
139.16	85.0126	139.16	84.7772	139.16	85.2223	139.16	84.5266	139.16	85.3974	139.16	84.2716	139.16	85.5307	139.16	84.0239	139.16	85.6174	139.16	83.7947	139.16	85.6552	139.16	83.5942	139.16	85.6443	139.16	83.4313	139.16	85.5874	139.16	83.3118	139.16	85.4889	139.16	83.2386	139.16	85.3548	139.16	83.2111	139.16	85.1924	139.16	83.2254	139.16	85.0103	139.16	83.2751	139.16	84.8187	139.16	83.3526	139.16	84.6286	139.16	83.4494	139.16	84.4502	139.16	83.558	139.16	84.2899	139.16	83.6719	139.16	84.1484	139.16	83.7872	139.16	84.0215	139.16	83.9029
143.555	84.9708	143.555	84.7399	143.555	85.1731	143.555	84.4907	143.555	85.338	143.555	84.2346	143.555	85.4589	143.555	83.9832	143.555	85.5318	143.555	83.748	143.555	85.5555	143.555	83.5396	143.555	85.5316	143.555	83.3667	143.555	85.4643	143.555	83.2358	143.555	85.3596	143.555	83.1501	143.555	85.2245	143.555	83.1099	143.555	85.0668	143.555	83.1122	143.555	84.8941	143.555	83.1518	143.555	84.7145	143.555	83.2221	143.555	84.5357	143.555	83.3155	143.555	84.3646	143.555	83.4248	143.555	84.2055	143.555	83.5434	143.555	84.0591	143.555	83.667	143.555	83.923	143.555	83.7933
147.949	84.761	147.949	84.5216	147.949	84.9706	147.949	84.2641	147.949	85.1411	147.949	84.0017	147.949	85.2659	147.949	83.7479	147.949	85.3419	147.949	83.516	147.949	85.3692	147.949	83.3173	147.949	85.3506	147.949	83.1603	147.949	85.2913	147.949	83.0498	147.949	85.1979	147.949	82.9866	147.949	85.077	147.949	82.968	147.949	84.935	147.949	82.9887	147.949	84.7779	147.949	83.0419	147.949	84.6116	147.949	83.1207	147.949	84.4426	147.949	83.2182	147.949	84.277	147.949	83.3289	147.949	84.1194	147.949	83.448	147.949	83.9717	147.949	83.5723	147.949	83.8329	147.949	83.7004
153.809	84.5989	153.809	84.3385	153.809	84.8208	153.809	84.0505	153.809	84.996	153.809	83.748	153.809	85.1193	153.809	83.4461	153.809	85.1887	153.809	83.1612	153.809	85.2052	153.809	82.9097	153.809	85.173	153.809	82.706	153.809	85.0988	153.809	82.5611	153.809	84.991	153.809	82.4805	153.809	84.8588	153.809	82.4636	153.809	84.7108	153.809	82.5041	153.809	84.5545	153.809	82.592	153.809	84.3955	153.809	82.7153	153.809	84.2384	153.809	82.862	153.809	84.0859	153.809	83.0212	153.809	83.9384	153.809	83.1843	153.809	83.7941	153.809	83.3452	153.809	83.6493	153.809	83.5003
159.668	84.5158	159.668	84.2677	159.668	84.7282	159.668	83.9945	159.668	84.8968	159.668	83.7089	159.668	85.0159	159.668	83.4246	159.668	85.0831	159.668	83.1561	159.668	85.0994	159.668	82.9175	159.668	85.0689	159.668	82.7212	159.668	84.9992	159.668	82.5767	159.668	84.9002	159.668	82.4897	159.668	84.7828	159.668	82.4612	159.668	84.6569	159.668	82.4879	159.668	84.529	159.668	82.5634	159.668	84.4021	159.668	82.679	159.668	84.2752	159.668	82.8251	159.668	84.1453	159.668	82.9921	159.668	84.0087	159.668	83.1709	159.668	83.8617	159.668	83.3533	159.668	83.7028	159.668	83.5323
165.527	84.3831	165.527	84.125	165.527	84.6044	165.527	83.8425	165.527	84.7788	165.527	83.5503	165.527	84.8993	165.527	83.2647	165.527	84.9623	165.527	83.0029	165.527	84.9678	165.527	82.7811	165.527	84.9201	165.527	82.6124	165.527	84.8274	165.527	82.5052	165.527	84.7014	165.527	82.4618	165.527	84.5561	165.527	82.478	165.527	84.406	165.527	82.545	165.527	84.2637	165.527	82.6516	165.527	84.1378	165.527	82.7857	165.527	84.0308	165.527	82.9366	165.527	83.9388	165.527	83.0946	165.527	83.8528	165.527	83.2521	165.527	83.7624	165.527	83.402	165.527	83.6591	165.527	83.5389
171.387	84.3174	171.387	84.0398	171.387	84.5529	171.387	83.7328	171.387	84.7362	171.387	83.4116	171.387	84.8608	171.387	83.0939	171.387	84.9231	171.387	82.7992	171.387	84.924	171.387	82.5468	171.387	84.8681	171.387	82.3535	171.387	84.7639	171.387	82.2311	171.387	84.6234	171.387	82.1839	171.387	84.4609	171.387	82.2078	171.387	84.2915	171.387	82.292	171.387	84.1291	171.387	82.4214	171.387	83.9844	171.387	82.5797	171.387	83.8626	171.387	82.7522	171.387	83.7618	171.387	82.9263	171.387	83.674	171.387	83.0928	171.387	83.5874	171.387	83.2448	171.387	83.4912	171.387	83.378
177.246	84.4579	177.246	84.1892	177.246	84.6807	177.246	83.8866	177.246	84.8482	177.246	83.5648	177.246	84.9541	177.246	83.2406	177.246	84.9955	177.246	82.9327	177.246	84.9725	177.246	82.6606	177.246	84.8885	177.246	82.4433	177.246	84.7497	177.246	82.2957	177.246	84.5661	177.246	82.2261	177.246	84.3523	177.246	82.2334	177.246	84.1275	177.246	82.3076	177.246	83.9146	177.246	82.4323	177.246	83.7355	177.246	82.5886	177.246	83.6043	177.246	82.7583	177.246	83.5212	177.246	82.9259	177.246	83.4715	177.246	83.0794	177.246	83.433	177.246	83.21	177.246	83.3845	177.246	83.312
183.105	84.2398	183.105	84.0033	183.105	84.4293	183.105	83.7275	183.105	84.5661	183.105	83.4223	183.105	84.6463	183.105	83.0996	183.105	84.6687	183.105	82.7742	183.105	84.6352	183.105	82.4636	183.105	84.5508	183.105	82.1879	183.105	84.4234	183.105	81.9673	183.105	84.2624	183.105	81.8183	183.105	84.0773	183.105	81.75	183.105	83.8783	183.105	81.7614	183.105	83.6771	183.105	81.8413	183.105	83.4876	183.105	81.9721	183.105	83.3231	183.105	82.1342	183.105	83.1899	183.105	82.3089	183.105	83.0834	183.105	82.4811	183.105	82.9896	183.105	82.6393	183.105	82.8916	183.105	82.7766
188.965	84.0615	188.965	83.8206	188.965	84.2552	188.965	83.5419	188.965	84.3936	188.965	83.2363	188.965	84.4714	188.965	82.9164	188.965	84.4864	188.965	82.5968	188.965	84.4411	188.965	82.2947	188.965	84.3429	188.965	82.0295	188.965	84.2036	188.965	81.821	188.965	84.0383	188.965	81.6863	188.965	83.8642	188.965	81.6357	188.965	83.6979	188.965	81.6695	188.965	83.5541	188.965	81.778	188.965	83.4419	188.965	81.9437	188.965	83.3617	188.965	82.1457	188.965	83.3036	188.965	82.3632	188.965	83.2498	188.965	82.5785	188.965	83.1809	188.965	82.7768	188.965	83.0821	188.965	82.947
196.289	84.1827	196.289	83.9202	196.289	84.3905	196.289	83.6147	196.289	84.535	196.289	83.2802	196.289	84.6108	196.289	82.9333	196.289	84.6163	196.289	82.5926	196.289	84.5543	196.289	82.2788	196.289	84.4318	196.289	82.0127	196.289	84.2597	196.289	81.8133	196.289	84.0522	196.289	81.6944	196.289	83.8259	196.289	81.6608	196.289	83.5999	196.289	81.7078	196.289	83.3951	196.289	81.8215	196.289	83.2315	196.289	81.9831	196.289	83.1207	196.289	82.172	196.289	83.0592	196.289	82.3689	196.289	83.0273	196.289	82.5569	196.289	82.9969	196.289	82.7218	196.289	82.9433	196.289	82.8525
203.613	84.2384	203.613	83.9824	203.613	84.4306	203.613	83.6732	203.613	84.5512	203.613	83.3235	203.613	84.5956	203.613	82.9483	203.613	84.5634	203.613	82.5652	203.613	84.4585	203.613	82.195	203.613	84.2894	203.613	81.8617	203.613	84.0684	203.613	81.5911	203.613	83.8108	203.613	81.4064	203.613	83.5344	203.613	81.3223	203.613	83.259	203.613	81.3398	203.613	83.0075	203.613	81.4451	203.613	82.8037	203.613	81.6135	203.613	82.6648	203.613	81.8156	203.613	82.5926	203.613	82.0233	203.613	82.5685	203.613	82.2132	203.613	82.5609	203.613	82.3678	203.613	82.5377	203.613	82.4765
210.938	83.936	210.938	83.7011	210.938	84.1144	210.938	83.4187	210.938	84.2305	210.938	83.1001	210.938	84.2813	210.938	82.7589	210.938	84.2665	210.938	82.4108	210.938	84.1883	210.938	82.0732	210.938	84.0516	210.938	81.7658	210.938	83.8651	210.938	81.5087	210.938	83.6409	210.938	81.3205	210.938	83.3951	210.938	81.2141	210.938	83.1466	210.938	81.1933	210.938	82.9154	210.938	81.2508	210.938	82.7192	210.938	81.3699	210.938	82.5687	210.938	81.5286	210.938	82.4628	210.938	81.704	210.938	82.3882	210.938	81.8761	210.938	82.3246	210.938	82.0296	210.938	82.2518	210.938	82.1555
218.262	83.7604	218.262	83.4937	218.262	83.9674	218.262	83.1792	218.262	84.1054	218.262	82.8318	218.262	84.1685	218.262	82.4694	218.262	84.1544	218.262	82.1125	218.262	84.0657	218.262	81.7844	218.262	83.9109	218.262	81.5088	218.262	83.7041	218.262	81.3077	218.262	83.4643	218.262	81.1963	218.262	83.2145	218.262	81.1797	218.262	82.9814	218.262	81.251	218.262	82.7932	218.262	81.3929	218.262	82.6719	218.262	81.5828	218.262	82.6222	218.262	81.7971	218.262	82.6255	218.262	82.0148	218.262	82.647	218.262	82.2183	218.262	82.6512	218.262	82.3932	218.262	82.6146	218.262	82.528
225.586	84.016	225.586	83.7482	225.586	84.2146	225.586	83.4235	225.586	84.3346	225.586	83.0574	225.586	84.3706	225.586	82.6674	225.586	84.321	225.586	82.2734	225.586	84.1889	225.586	81.8974	225.586	83.9817	225.586	81.5641	225.586	83.7115	225.586	81.2992	225.586	83.3958	225.586	81.1253	225.586	83.0595	225.586	81.0568	225.586	82.737	225.586	81.0943	225.586	82.4716	225.586	81.2239	225.586	82.3039	225.586	81.4204	225.586	82.2509	225.586	81.6537	225.586	82.2919	225.586	81.8941	225.586	82.3759	225.586	82.115	225.586	82.4471	225.586	82.2946	225.586	82.466	225.586	82.4152
232.91	84.0323	232.91	83.739	232.91	84.2534	232.91	83.3858	232.91	84.3939	232.91	82.989	232.91	84.4483	232.91	82.5694	232.91	84.4136	232.91	82.1515	232.91	84.2889	232.91	81.7627	232.91	84.0755	232.91	81.4309	232.91	83.778	232.91	81.1807	232.91	83.4064	232.91	81.0293	232.91	82.9821	232.91	80.982	232.91	82.547	232.91	81.0316	232.91	82.1672	232.91	81.1601	232.91	81.9173	232.91	81.3434	232.91	81.8387	232.91	81.5554	232.91	81.9061	232.91	81.7709	232.91	82.0426	232.91	81.9665	232.91	82.1679	232.91	82.1205	232.91	82.2308	232.91	82.2137
241.699	83.7397	241.699	83.4261	241.699	83.9861	241.699	83.0558	241.699	84.1587	241.699	82.6439	241.699	84.2541	241.699	82.2098	241.699	84.2715	241.699	81.7782	241.699	84.2118	241.699	81.377	241.699	84.0764	241.699	81.0361	241.699	83.8641	241.699	80.7816	241.699	83.5697	241.699	80.6304	241.699	83.187	241.699	80.585	241.699	82.7199	241.699	80.6335	241.699	82.2012	241.699	80.7537	241.699	81.7085	241.699	80.9189	241.699	81.3482	241.699	81.1027	241.699	81.1938	241.699	81.2799	241.699	81.2273	241.699	81.4267	241.699	81.3551	241.699	81.5198	241.699	81.479	241.699	81.5398
250.488	84.1114	250.488	83.7668	250.488	84.3625	250.488	83.3376	250.488	84.5152	250.488	82.8367	250.488	84.5686	250.488	82.283	250.488	84.5265	250.488	81.7025	250.488	84.3977	250.488	81.1307	250.488	84.1953	250.488	80.6122	250.488	83.9337	250.488	80.196	250.488	83.6249	250.488	79.9244	250.488	83.2766	250.488	79.8185	250.488	82.8968	250.488	79.8686	250.488	82.504	250.488	80.0391	250.488	82.1353	250.488	80.2828	250.488	81.8385	250.488	80.5545	250.488	81.6453	250.488	80.8189	250.488	81.5467	250.488	81.0519	250.488	81.4993	250.488	81.2383	250.488	81.4527	250.488	81.3711
259.277	83.9481	259.277	83.6342	259.277	84.1757	259.277	83.2396	259.277	84.3146	259.277	82.774	259.277	84.3665	259.277	82.2526	259.277	84.3368	259.277	81.7	259.277	84.235	259.277	81.1544	259.277	84.0725	259.277	80.6682	259.277	83.8587	259.277	80.3002	259.277	83.5961	259.277	80.0961	259.277	83.2787	259.277	80.0666	259.277	82.8999	259.277	80.1823	259.277	82.4715	259.277	80.3906	259.277	82.0433	259.277	80.6394	259.277	81.6981	259.277	80.8902	259.277	81.5053	259.277	81.1196	259.277	81.4648	259.277	81.3125	259.277	81.5068	259.277	81.4556	259.277	81.548	259.277	81.5362
268.066	83.8955	268.066	83.5862	268.066	84.1109	268.066	83.1888	268.066	84.2281	268.066	82.7097	268.066	84.2471	268.066	82.1554	268.066	84.1747	268.066	81.5376	268.066	84.026	268.066	80.8817	268.066	83.8244	268.066	80.2386	268.066	83.596	268.066	79.6915	268.066	83.3585	268.066	79.3391	268.066	83.109	268.066	79.2491	268.066	82.8252	268.066	79.4115	268.066	82.4864	268.066	79.7451	268.066	82.1051	268.066	80.1487	268.066	81.7444	268.066	80.5436	268.066	81.4907	268.066	80.8844	268.066	81.3874	268.066	81.1494	268.066	81.3955	268.066	81.3291	268.066	81.4302	268.066	81.4199
276.855	83.7284	276.855	83.4749	276.855	83.8996	276.855	83.15	276.855	83.9792	276.855	82.7631	276.855	83.9624	276.855	82.3194	276.855	83.8492	276.855	81.8198	276.855	83.6465	276.855	81.2665	276.855	83.3714	276.855	80.6744	276.855	83.0546	276.855	80.084	276.855	82.7402	276.855	79.5714	276.855	82.4726	276.855	79.2354	276.855	82.2754	276.855	79.1537	276.855	82.1362	276.855	79.3302	276.855	82.0189	276.855	79.6907	276.855	81.8953	276.855	80.1298	276.855	81.7655	276.855	80.5586	276.855	81.6506	276.855	80.9214	276.855	81.5623	276.855	81.1929	276.855	81.4829	276.855	81.3727
287.109	83.7245	287.109	83.4552	287.109	83.9153	287.109	83.118	287.109	84.0207	287.109	82.726	287.109	84.0369	287.109	82.2923	287.109	83.9613	287.109	81.8278	287.109	83.7917	287.109	81.3418	287.109	83.5278	287.109	80.8473	287.109	83.1737	287.109	80.3689	287.109	82.7439	287.109	79.9488	287.109	82.2743	287.109	79.6448	287.109	81.8325	287.109	79.5122	287.109	81.5088	287.109	79.5767	287.109	81.3711	287.109	79.8183	287.109	81.4121	287.109	80.1807	287.109	81.552	287.109	80.5947	287.109	81.6936	287.109	80.9977	287.109	81.7674	287.109	81.3419	287.109	81.7381	287.109	81.5948
297.363	84.1133	297.363	83.8136	297.363	84.3026	297.363	83.4123	297.363	84.3779	297.363	82.9239	297.363	84.3417	297.363	82.3666	297.363	84.2027	297.363	81.763	297.363	83.9756	297.363	81.1392	297.363	83.6774	297.363	80.5283	297.363	83.3203	297.363	79.9741	297.363	82.9028	297.363	79.5329	297.363	82.412	297.363	79.2628	297.363	81.8479	297.363	79.2003	297.363	81.2647	297.363	79.3373	297.363	80.7936	297.363	79.6225	297.363	80.5798	297.363	79.9854	297.363	80.6468	297.363	80.3603	297.363	80.8631	297.363	80.6974	297.363	81.0663	297.363	80.9606	297.363	81.1612	297.363	81.1226
307.617	84.0362	307.617	83.7479	307.617	84.2428	307.617	83.3909	307.617	84.3545	307.617	82.9757	307.617	84.3602	307.617	82.5089	307.617	84.2543	307.617	81.9941	307.617	84.04	307.617	81.4371	307.617	83.7329	307.617	80.8532	307.617	83.359	307.617	80.2749	307.617	82.9454	307.617	79.7579	307.617	82.5069	307.617	79.3737	307.617	82.0435	307.617	79.1858	307.617	81.5579	307.617	79.2155	307.617	81.0889	307.617	79.4271	307.617	80.7233	307.617	79.7471	307.617	80.5467	307.617	80.0966	307.617	80.5616	307.617	80.4112	307.617	80.6742	307.617	80.6443	307.617	80.7677	307.617	80.7662
319.336	84.0522	319.336	83.7433	319.336	84.2495	319.336	83.3377	319.336	84.3292	319.336	82.8587	319.336	84.2946	319.336	82.3352	319.336	84.1567	319.336	81.7972	319.336	83.932	319.336	81.2717	319.336	83.6366	319.336	80.7802	319.336	83.2782	319.336	80.3403	319.336	82.849	319.336	79.9712	319.336	82.3299	319.336	79.697	319.336	81.7145	319.336	79.5458	319.336	81.0552	319.336	79.5377	319.336	80.4969	319.336	79.671	319.336	80.2209	319.336	79.9149	319.336	80.2794	319.336	80.2168	319.336	80.5307	319.336	80.5174	319.336	80.7823	319.336	80.7623	319.336	80.9184	319.336	80.9072
329.59	83.8136	329.59	83.5024	329.59	84.0293	329.59	83.1135	329.59	84.1357	329.59	82.6642	329.59	84.1264	329.59	82.1687	329.59	84.0045	329.59	81.6376	329.59	83.7843	329.59	81.084	329.59	83.492	329.59	80.5335	329.59	83.161	329.59	80.0323	329.59	82.819	329.59	79.6436	329.59	82.4683	329.59	79.4243	329.59	82.0804	329.59	79.3957	329.59	81.623	329.59	79.5328	329.59	81.1155	329.59	79.7823	329.59	80.6676	329.59	80.0877	329.59	80.4331	329.59	80.3992	329.59	80.4686	329.59	80.6718	329.59	80.6645	329.59	80.8618	329.59	80.854	329.59	80.9293
341.309	84.3389	341.309	84.0359	341.309	84.5193	341.309	83.6233	341.309	84.5747	341.309	83.1216	341.309	84.5149	341.309	82.5534	341.309	84.3584	341.309	81.94	341.309	84.1295	341.309	81.302	341.309	83.8534	341.309	80.6658	341.309	83.5499	341.309	80.0736	341.309	83.221	341.309	79.5893	341.309	82.8444	341.309	79.286	341.309	82.3877	341.309	79.2141	341.309	81.8506	341.309	79.3718	341.309	81.313	341.309	79.7047	341.309	80.9311	341.309	80.1334	341.309	80.8295	341.309	80.5788	341.309	80.975	341.309	80.9733	341.309	81.2088	341.309	81.2616	341.309	81.3787	341.309	81.4029
353.027	84.3212	353.027	84.0318	353.027	84.47	353.027	83.6202	353.027	84.4752	353.027	83.1128	353.027	84.3504	353.027	82.536	353.027	84.1215	353.027	81.911	353.027	83.8205	353.027	81.254	353.027	83.4826	353.027	80.5829	353.027	83.141	353.027	79.9292	353.027	82.8134	353.027	79.3483	353.027	82.4845	353.027	78.9191	353.027	82.1077	353.027	78.7204	353.027	81.6455	353.027	78.7905	353.027	81.1297	353.027	79.0991	353.027	80.6923	353.027	79.5607	353.027	80.4956	353.027	80.0696	353.027	80.5762	353.027	80.5288	353.027	80.7991	353.027	80.8618	353.027	80.985	353.027	81.0188
366.211	85.0083	366.211	84.705	366.211	85.1854	366.211	84.2787	366.211	85.2362	366.211	83.7376	366.211	85.1569	366.211	83.0918	366.211	84.9361	366.211	82.3508	366.211	84.5639	366.211	81.5279	366.211	84.0531	366.211	80.6537	366.211	83.458	366.211	79.7966	366.211	82.8705	366.211	79.0717	366.211	82.3768	366.211	78.606	366.211	81.9964	366.211	78.4611	366.211	81.6738	366.211	78.5908	366.211	81.3504	366.211	78.8894	366.211	81.038	366.211	79.2627	366.211	80.8083	366.211	79.65	366.211	80.7025	366.211	80.0103	366.211	80.6745	366.211	80.3096	366.211	80.6355	366.211	80.5211
379.395	84.828	379.395	84.5665	379.395	85.0131	379.395	84.2351	379.395	85.1145	379.395	83.8397	379.395	85.1183	379.395	83.3804	379.395	85.0028	379.395	82.8457	379.395	84.747	379.395	82.2171	379.395	84.342	379.395	81.484	379.395	83.7966	379.395	80.6702	379.395	83.1326	379.395	79.8616	379.395	82.3802	379.395	79.2116	379.395	81.5892	379.395	78.8827	379.395	80.86	379.395	78.9372	379.395	80.3631	379.395	79.2954	379.395	80.2679	379.395	79.8158	379.395	80.5738	379.395	80.3809	379.395	81.0666	379.395	80.9134	379.395	81.4902	379.395	81.3522	379.395	81.6912	379.395	81.633
392.578	84.4549	392.578	84.1373	392.578	84.6706	392.578	83.7492	392.578	84.7573	392.578	83.3225	392.578	84.695	392.578	82.8819	392.578	84.4781	392.578	82.4316	392.578	84.1258	392.578	81.9487	392.578	83.6831	392.578	81.3922	392.578	83.2047	392.578	80.7295	392.578	82.7248	392.578	79.9755	392.578	82.2362	392.578	79.2359	392.578	81.7008	392.578	78.7174	392.578	81.095	392.578	78.6251	392.578	80.4644	392.578	78.9782	392.578	79.955	392.578	79.5912	392.578	79.7593	392.578	80.2381	392.578	79.9538	392.578	80.7583	392.578	80.3952	392.578	81.0563	392.578	80.8344	392.578	81.0818
405.762	85.0097	405.762	84.6908	405.762	85.1643	405.762	84.2322	405.762	85.1449	405.762	83.6707	405.762	84.9602	405.762	83.0513	405.762	84.6407	405.762	82.4177	405.762	84.2391	405.762	81.7958	405.762	83.822	405.762	81.1815	405.762	83.4483	405.762	80.5466	405.762	83.1326	405.762	79.8693	405.762	82.8166	405.762	79.1766	405.762	82.3914	405.762	78.5804	405.762	81.7773	405.762	78.2651	405.762	81.0216	405.762	78.3776	405.762	80.3503	405.762	78.8838	405.762	80.048	405.762	79.5803	405.762	80.1747	405.762	80.2396	405.762	80.5138	405.762	80.7032	405.762	80.8078	405.762	80.8941
420.41	84.872	420.41	84.6543	420.41	84.9586	420.41	84.3279	420.41	84.9109	420.41	83.921	420.41	84.7478	420.41	83.4544	420.41	84.4987	420.41	82.9366	420.41	84.1881	420.41	82.3709	420.41	83.8312	420.41	81.7682	420.41	83.4441	420.41	81.1551	420.41	83.047	420.41	80.5703	420.41	82.6432	420.41	80.0544	420.41	82.1966	420.41	79.6489	420.41	81.6604	420.41	79.4068	420.41	81.065	420.41	79.3901	420.41	80.5886	420.41	79.6274	420.41	80.4542	420.41	80.0623	420.41	80.6669	420.41	80.5611	420.41	80.9946	420.41	80.9785	420.41	81.2113	420.41	81.2109
435.059	85.1185	435.059	84.8425	435.059	85.2531	435.059	84.4352	435.059	85.2533	435.059	83.9239	435.059	85.1324	435.059	83.3459	435.059	84.8959	435.059	82.7384	435.059	84.5469	435.059	82.1291	435.059	84.1139	435.059	81.5317	435.059	83.6634	435.059	80.9506	435.059	83.2527	435.059	80.3994	435.059	82.8524	435.059	79.9219	435.059	82.3377	435.059	79.5967	435.059	81.5879	435.059	79.5084	435.059	80.6546	435.059	79.6928	435.059	79.9211	435.059	80.1006	435.059	79.8828	435.059	80.6162	435.059	80.4563	435.059	81.1103	435.059	81.1146	435.059	81.4769	435.059	81.5301	435.059	81.6378
451.172	85.046	451.172	84.7005	451.172	85.2482	451.172	84.2293	451.172	85.2968	451.172	83.6631	451.172	85.1771	451.172	83.0325	451.172	84.8678	451.172	82.3473	451.172	84.3565	451.172	81.5919	451.172	83.6637	451.172	80.7504	451.172	82.8651	451.172	79.8482	451.172	82.1063	451.172	78.9812	451.172	81.5663	451.172	78.3001	451.172	81.311	451.172	77.9358	451.172	81.1524	451.172	77.9269	451.172	80.7569	451.172	78.2283	451.172	79.9078	451.172	78.7568	451.172	78.7781	451.172	79.3923	451.172	78.1536	451.172	79.9672	451.172	78.6312	451.172	80.2877	451.172	79.5584	451.172	80.1786
465.82	85.0568	465.82	84.7235	465.82	85.1992	465.82	84.2381	465.82	85.1306	465.82	83.6446	465.82	84.8603	465.82	82.9772	465.82	84.4276	465.82	82.2442	465.82	83.89	465.82	81.4234	465.82	83.3113	465.82	80.4816	465.82	82.7498	465.82	79.4185	465.82	82.2321	465.82	78.3182	465.82	81.7363	465.82	77.3799	465.82	81.2368	465.82	76.8688	465.82	80.784	465.82	76.9486	465.82	80.4756	465.82	77.5499	465.82	80.2987	465.82	78.4428	465.82	80.1431	465.82	79.3752	465.82	80.0285	465.82	80.1362	465.82	80.1176	465.82	80.5782	465.82	80.408	465.82	80.6426
483.398	84.5914	483.398	84.4009	483.398	84.6047	483.398	84.0504	483.398	84.459	483.398	83.5868	483.398	84.1906	483.398	83.065	483.398	83.8236	483.398	82.5184	483.398	83.3696	483.398	81.9365	483.398	82.8705	483.398	81.2645	483.398	82.42	483.398	80.4285	483.398	82.0942	483.398	79.379	483.398	81.8469	483.398	78.1463	483.398	81.5201	483.398	76.916	483.398	80.9986	483.398	76.0774	483.398	80.3523	483.398	76.0244	483.398	79.8042	483.398	76.7214	483.398	79.5008	483.398	77.7436	483.398	79.4045	483.398	78.6894	483.398	79.4522	483.398	79.332	483.398	79.5758	483.398	79.6009
499.512	85.1553	499.512	84.7559	499.512	85.3457	499.512	84.194	499.512	85.3207	499.512	83.5554	499.512	85.0957	499.512	82.9352	499.512	84.6917	499.512	82.3863	499.512	84.1421	499.512	81.8915	499.512	83.5116	499.512	81.3848	499.512	82.8893	499.512	80.7997	499.512	82.3375	499.512	80.1005	499.512	81.837	499.512	79.2872	499.512	81.2961	499.512	78.3934	499.512	80.6446	499.512	77.5114	499.512	79.9573	499.512	76.8556	499.512	79.4775	499.512	76.7395	499.512	79.3894	499.512	77.2768	499.512	79.5771	499.512	78.1719	499.512	79.7822	499.512	79.0184	499.512	79.8207	499.512	79.5844
517.09	84.5347	517.09	84.1347	517.09	84.6602	517.09	83.5167	517.09	84.5158	517.09	82.8041	517.09	84.1457	517.09	82.162	517.09	83.6061	517.09	81.7164	517.09	82.9626	517.09	81.4613	517.09	82.3298	517.09	81.2605	517.09	81.8826	517.09	80.9498	517.09	81.7413	517.09	80.4282	517.09	81.8151	517.09	79.6889	517.09	81.8251	517.09	78.817	517.09	81.4772	517.09	77.9954	517.09	80.6012	517.09	77.5111	517.09	79.2793	517.09	77.6392	517.09	78.1101	517.09	78.3505	517.09	78.0343	517.09	79.2652	517.09	78.9184	517.09	79.9641	517.09	79.8028	517.09	80.1798
536.133	85.1526	536.133	84.6656	536.133	85.2796	536.133	83.8393	536.133	85.0703	536.133	82.7592	536.133	84.5544	536.133	81.5919	536.133	83.7194	536.133	80.5781	536.133	82.5276	536.133	79.9332	536.133	81.041	536.133	79.6738	536.133	79.5947	536.133	79.5937	536.133	78.8198	536.133	79.4413	536.133	79.0846	536.133	79.0667	536.133	79.9178	536.133	78.4534	536.133	80.6261	536.133	77.7156	536.133	80.857	536.133	77.1171	536.133	80.545	536.133	77.0146	536.133	79.8482	536.133	77.5354	536.133	79.1911	536.133	78.3606	536.133	79.0201	536.133	79.0473	536.133	79.2308	536.133	79.3387
555.176	84.7842	555.176	84.3794	555.176	84.8738	555.176	83.6336	555.176	84.7147	555.176	82.582	555.176	84.3651	555.176	81.3279	555.176	83.8277	555.176	80.0417	555.176	83.0659	555.176	78.9361	555.176	82.0748	555.176	78.1913	555.176	80.9109	555.176	77.8512	555.176	79.67	555.176	77.7961	555.176	78.5453	555.176	77.8329	555.176	77.9521	555.176	77.7994	555.176	78.2066	555.176	77.6256	555.176	78.9329	555.176	77.3929	555.176	79.4638	555.176	77.3651	555.176	79.485	555.176	77.7943	555.176	79.1826	555.176	78.5602	555.176	79.0737	555.176	79.2396	555.176	79.324	555.176	79.5007
574.219	84.3148	574.219	83.8183	574.219	84.5542	574.219	83.0956	574.219	84.5331	574.219	82.2207	574.219	84.2378	574.219	81.2794	574.219	83.6398	574.219	80.3219	574.219	82.7515	574.219	79.3559	574.219	81.6962	574.219	78.396	574.219	80.6898	574.219	77.513	574.219	79.8718	574.219	76.8028	574.219	79.1488	574.219	76.2924	574.219	78.3354	574.219	75.9089	574.219	77.5625	574.219	75.5781	574.219	77.3681	574.219	75.3872	574.219	77.7639	574.219	75.6307	574.219	78.0362	574.219	76.4586	574.219	77.89	574.219	77.5133	574.219	77.7701	574.219	78.2635	574.219	78.0794	574.219	78.4195
594.727	84.4073	594.727	83.8883	594.727	84.5463	594.727	82.9923	594.727	84.3463	594.727	81.7996	594.727	83.8474	594.727	80.4729	594.727	83.0686	594.727	79.2134	594.727	82.04	594.727	78.1539	594.727	80.8688	594.727	77.2778	594.727	79.7915	594.727	76.4899	594.727	79.143	594.727	75.7744	594.727	79.0853	594.727	75.2388	594.727	79.3052	594.727	74.9583	594.727	79.262	594.727	74.8046	594.727	78.5679	594.727	74.5587	594.727	77.1138	594.727	74.2528	594.727	75.4087	594.727	74.3501	594.727	74.9383	594.727	75.168	594.727	75.8921	594.727	76.2251	594.727	76.7589	594.727	76.8664
615.234	83.7527	615.234	83.2826	615.234	83.9445	615.234	82.5227	615.234	83.8782	615.234	81.5033	615.234	83.5526	615.234	80.3051	615.234	82.9429	615.234	79.0347	615.234	82.0229	615.234	77.795	615.234	80.8063	615.234	76.6716	615.234	79.397	615.234	75.7592	615.234	78.0163	615.234	75.2032	615.234	77.002	615.234	75.113	615.234	76.7192	615.234	75.3738	615.234	77.2936	615.234	75.681	615.234	78.3243	615.234	75.8137	615.234	79.091	615.234	75.8295	615.234	79.0954	615.234	76.0144	615.234	78.3447	615.234	76.5212	615.234	77.4874	615.234	77.0822	615.234	77.2508	615.234	77.319
637.207	83.5232	637.207	82.8928	637.207	83.8095	637.207	81.9726	637.207	83.7702	637.207	80.8621	637.207	83.4682	637.207	79.6504	637.207	82.925	637.207	78.3955	637.207	82.0764	637.207	77.183	637.207	80.8867	637.207	76.1546	637.207	79.5008	637.207	75.376	637.207	78.1654	637.207	74.7684	637.207	76.9711	637.207	74.2547	637.207	75.9184	637.207	73.8653	637.207	75.2651	637.207	73.7125	637.207	75.3858	637.207	73.8379	637.207	76.0094	637.207	74.1692	637.207	76.4467	637.207	74.6869	637.207	76.4324	637.207	75.3709	637.207	76.2682	637.207	76.0066	637.207	76.2951	637.207	76.319
659.18	83.0152	659.18	82.5945	659.18	83.1109	659.18	81.8331	659.18	82.9326	659.18	80.778	659.18	82.4875	659.18	79.5207	659.18	81.6968	659.18	78.174	659.18	80.5034	659.18	76.8798	659.18	79.0713	659.18	75.8117	659.18	77.8218	659.18	75.0678	659.18	77.063	659.18	74.549	659.18	76.6491	659.18	74.0534	659.18	76.2451	659.18	73.4954	659.18	75.725	659.18	72.979	659.18	75.2289	659.18	72.6872	659.18	74.9677	659.18	72.8224	659.18	75.1147	659.18	73.5562	659.18	75.6743	659.18	74.7422	659.18	76.3343	659.18	75.8934	659.18	76.7179	659.18	76.5968
682.617	83.0048	682.617	82.5665	682.617	83.0957	682.617	81.7579	682.617	82.8963	682.617	80.6027	682.617	82.4405	682.617	79.1683	682.617	81.6982	682.617	77.5846	682.617	80.6572	682.617	76.0628	682.617	79.45	682.617	74.8243	682.617	78.3075	682.617	73.9892	682.617	77.4688	682.617	73.5542	682.617	77.038	682.617	73.3942	682.617	76.6933	682.617	73.3099	682.617	76.3207	682.617	73.1773	682.617	76.4181	682.617	73.0738	682.617	76.9101	682.617	73.2909	682.617	77.012	682.617	74.1276	682.617	76.619	682.617	75.4534	682.617	76.5916	682.617	76.6929	682.617	77.1238	682.617	77.309
707.52	82.6207	707.52	82.0887	707.52	82.9212	707.52	81.3374	707.52	82.9823	707.52	80.4106	707.52	82.7322	707.52	79.3209	707.52	82.0579	707.52	78.006	707.52	80.918	707.52	76.4397	707.52	79.4256	707.52	74.8892	707.52	77.7978	707.52	73.8911	707.52	76.2956	707.52	73.4903	707.52	75.2355	707.52	73.1487	707.52	74.4336	707.52	72.5905	707.52	73.2428	707.52	72.0122	707.52	72.0014	707.52	71.7526	707.52	72.2403	707.52	71.935	707.52	73.3193	707.52	72.5486	707.52	73.6677	707.52	73.4819	707.52	73.531	707.52	74.2685	707.52	73.8846	707.52	74.3954
732.422	82.3325	732.422	81.8774	732.422	82.4251	732.422	81.0799	732.422	82.2011	732.422	80.0338	732.422	81.6921	732.422	78.8369	732.422	80.8404	732.422	77.5119	732.422	79.5822	732.422	76.0382	732.422	78.0652	732.422	74.4713	732.422	76.631	732.422	73.0647	732.422	75.3441	732.422	72.2009	732.422	74.0154	732.422	71.9676	732.422	73.122	732.422	71.9578	732.422	73.4917	732.422	71.7101	732.422	74.2606	732.422	71.1667	732.422	74.214	732.422	70.8181	732.422	73.4949	732.422	71.4027	732.422	73.573	732.422	72.8743	732.422	74.629	732.422	74.3749	732.422	75.3648	732.422	75.2794
757.324	82.5826	757.324	82.0883	757.324	82.8455	757.324	81.4318	757.324	82.8288	757.324	80.6316	757.324	82.4661	757.324	79.5609	757.324	81.645	757.324	77.9979	757.324	80.3394	757.324	75.821	757.324	78.7887	757.324	73.2078	757.324	77.3153	757.324	70.6836	757.324	75.9933	757.324	68.9408	757.324	74.8472	757.324	68.6729	757.324	73.5572	757.324	69.7621	757.324	72.0509	757.324	70.9528	757.324	72.4703	757.324	71.471	757.324	74.6652	757.324	71.4028	757.324	75.9959	757.324	71.5467	757.324	76.1394	757.324	72.7678	757.324	75.9823	757.324	74.4679	757.324	75.994	757.324	75.6284
785.156	82.0474	785.156	81.6264	785.156	82.1674	785.156	80.87	785.156	82.0439	785.156	79.8276	785.156	81.5638	785.156	78.5691	785.156	80.5112	785.156	77.1244	785.156	78.9971	785.156	75.5074	785.156	77.5762	785.156	73.8388	785.156	76.3685	785.156	72.3258	785.156	74.9005	785.156	70.9398	785.156	73.3474	785.156	69.3246	785.156	72.3574	785.156	67.4704	785.156	71.5675	785.156	66.3767	785.156	70.1233	785.156	66.754	785.156	68.8031	785.156	67.6864	785.156	70.1992	785.156	68.3665	785.156	71.933	785.156	69.1586	785.156	72.3834	785.156	70.4191	785.156	72.1295	785.156	71.526
811.523	82.1752	811.523	81.6636	811.523	82.3454	811.523	80.794	811.523	82.1296	811.523	79.5563	811.523	81.4123	811.523	77.9671	811.523	80.1813	811.523	76.1048	811.523	78.6867	811.523	74.1812	811.523	77.1155	811.523	72.5362	811.523	75.1934	811.523	71.4002	811.523	72.7229	811.523	70.6073	811.523	70.3394	811.523	69.7878	811.523	69.6116	811.523	68.8533	811.523	70.7544	811.523	68.1277	811.523	71.9996	811.523	68.127	811.523	72.0418	811.523	69.0915	811.523	70.8777	811.523	70.6368	811.523	71.112	811.523	72.3086	811.523	73.165	811.523	73.7315	811.523	74.4321	811.523	74.5339
840.82	82.3031	840.82	81.8177	840.82	82.2769	840.82	80.8169	840.82	81.8654	840.82	79.4332	840.82	81.1315	840.82	77.7591	840.82	80.0036	840.82	75.6144	840.82	78.4933	840.82	72.6046	840.82	76.8453	840.82	68.7898	840.82	75.2679	840.82	66.1963	840.82	73.6656	840.82	66.9935	840.82	71.9401	840.82	68.442	840.82	69.9275	840.82	68.5871	840.82	66.9517	840.82	67.5136	840.82	64.7365	840.82	66.2707	840.82	68.07	840.82	66.2927	840.82	70.7661	840.82	67.8717	840.82	71.6815	840.82	69.9217	840.82	72.1388	840.82	71.6131	840.82	72.6527	840.82	72.5774
870.117	82.4988	870.117	81.885	870.117	82.583	870.117	80.8029	870.117	82.0665	870.117	79.287	870.117	80.8506	870.117	77.293	870.117	78.991	870.117	74.8159	870.117	76.9661	870.117	72.0347	870.117	75.3152	870.117	69.0322	870.117	73.715	870.117	65.442	870.117	71.6239	870.117	61.2273	870.117	69.853	870.117	59.9806	870.117	69.6794	870.117	61.6005	870.117	70.13	870.117	63.0631	870.117	70.0841	870.117	63.729	870.117	68.9811	870.117	63.6249	870.117	67.8891	870.117	64.8115	870.117	70.0606	870.117	68.3471	870.117	72.8917	870.117	71.7673	870.117	74.1851	870.117	73.7932
900.879	82.4393	900.879	81.9551	900.879	82.5254	900.879	80.9524	900.879	82.2714	900.879	79.376	900.879	81.4811	900.879	77.1412	900.879	80.0095	900.879	74.084	900.879	78.1089	900.879	70.1501	900.879	75.9284	900.879	65.9578	900.879	72.9551	900.879	62.893	900.879	68.8452	900.879	60.7705	900.879	64.4893	900.879	58.2083	900.879	63.0732	900.879	60.2082	900.879	64.1728	900.879	65.1911	900.879	65.7365	900.879	68.0121	900.879	68.7249	900.879	68.4952	900.879	71.1357	900.879	67.3662	900.879	72.2859	900.879	67.8078	900.879	73.1543	900.879	70.7784	900.879	73.7136	900.879	73.0304
933.105	82.5785	933.105	81.7814	933.105	82.7978	933.105	80.506	933.105	82.3292	933.105	78.8063	933.105	81.0128	933.105	76.6039	933.105	78.7946	933.105	73.8483	933.105	76.0152	933.105	71	933.105	73.2845	933.105	69.1308	933.105	70.8974	933.105	68.2818	933.105	68.816	933.105	67.3528	933.105	66.5909	933.105	65.4676	933.105	64.6265	933.105	62.3698	933.105	65.2812	933.105	57.3088	933.105	65.9376	933.105	56.3026	933.105	64.5012	933.105	61.8348	933.105	64.3647	933.105	63.5937	933.105	68.9333	933.105	65.2528	933.105	71.9662	933.105	69.0323	933.105	72.9682	933.105	72.0004
965.332	82.2684	965.332	81.7908	965.332	82.3849	965.332	80.7714	965.332	82.0387	965.332	78.9093	965.332	80.8682	965.332	75.998	965.332	78.7398	965.332	72.3952	965.332	76.0234	965.332	69.5234	965.332	72.9182	965.332	67.8999	965.332	69.2645	965.332	65.8848	965.332	65.6274	965.332	64.4741	965.332	62.9217	965.332	64.6711	965.332	62.5218	965.332	65.2517	965.332	64.5131	965.332	64.9229	965.332	66.7043	965.332	62.3449	965.332	68.5204	965.332	62.662	965.332	69.3769	965.332	65.6085	965.332	69.8271	965.332	67.0342	965.332	70.9636	965.332	68.4768	965.332	71.5848	965.332	70.5762
1,000.49	82.0147	1,000.49	81.529	1,000.49	82.1553	1,000.49	80.4778	1,000.49	81.8887	1,000.49	78.5767	1,000.49	80.8201	1,000.49	75.8615	1,000.49	78.5628	1,000.49	73.2179	1,000.49	75.3174	1,000.49	71.7114	1,000.49	71.5887	1,000.49	70.0618	1,000.49	66.877	1,000.49	66.3634	1,000.49	60.1434	1,000.49	61.1418	1,000.49	55.8414	1,000.49	60.5592	1,000.49	58.9462	1,000.49	63.6349	1,000.49	60.4648	1,000.49	64.6276	1,000.49	59.0582	1,000.49	63.0265	1,000.49	56.8318	1,000.49	62.7721	1,000.49	61.4754	1,000.49	64.9364	1,000.49	67.2902	1,000.49	66.9358	1,000.49	70.4014	1,000.49	69.2718	1,000.49	71.602	1,000.49	71.1767
1,035.64	81.5997	1,035.64	81.1155	1,035.64	81.929	1,035.64	80.18	1,035.64	81.9911	1,035.64	78.6239	1,035.64	81.199	1,035.64	76.6364	1,035.64	79.1394	1,035.64	74.5009	1,035.64	75.9191	1,035.64	72.0054	1,035.64	71.8722	1,035.64	69.2852	1,035.64	67.3764	1,035.64	67.787	1,035.64	63.1552	1,035.64	67.797	1,035.64	57.357	1,035.64	67.9029	1,035.64	55.4976	1,035.64	67.3552	1,035.64	62.5995	1,035.64	67.094	1,035.64	66.642	1,035.64	67.2312	1,035.64	68.9733	1,035.64	67.0513	1,035.64	69.3744	1,035.64	67.2749	1,035.64	69.1913	1,035.64	68.3349	1,035.64	70.2869	1,035.64	69.3197	1,035.64	70.824	1,035.64	70.2147
1,072.27	81.4318	1,072.27	81.4578	1,072.27	81.4999	1,072.27	81.0058	1,072.27	81.5415	1,072.27	79.6545	1,072.27	80.758	1,072.27	77.623	1,072.27	78.6088	1,072.27	75.6283	1,072.27	75.374	1,072.27	73.8386	1,072.27	71.9074	1,072.27	71.5239	1,072.27	68.6949	1,072.27	68.3568	1,072.27	65.4974	1,072.27	66.0584	1,072.27	64.3163	1,072.27	67.088	1,072.27	66.3056	1,072.27	68.1866	1,072.27	66.2263	1,072.27	67.2226	1,072.27	62.6766	1,072.27	65.3333	1,072.27	61.4604	1,072.27	65.3875	1,072.27	66.2064	1,072.27	66.7522	1,072.27	68.6853	1,072.27	68.1349	1,072.27	69.5948	1,072.27	69.6428	1,072.27	70.2627	1,072.27	70.4959
1,108.89	81.6388	1,108.89	81.6324	1,108.89	81.489	1,108.89	80.937	1,108.89	81.4392	1,108.89	79.4991	1,108.89	80.8412	1,108.89	77.9468	1,108.89	78.8029	1,108.89	76.5257	1,108.89	75.3274	1,108.89	74.5859	1,108.89	71.9056	1,108.89	72.1568	1,108.89	69.9685	1,108.89	70.4813	1,108.89	67.0835	1,108.89	69.1358	1,108.89	60.1137	1,108.89	67.1691	1,108.89	60.3493	1,108.89	67.9346	1,108.89	66.9306	1,108.89	68.9953	1,108.89	70.1917	1,108.89	68.0693	1,108.89	69.7547	1,108.89	64.7605	1,108.89	65.9826	1,108.89	65.9536	1,108.89	65.2753	1,108.89	69.4039	1,108.89	68.9202	1,108.89	70.6606	1,108.89	70.5191	1,108.89	70.842
1,148.44	81.9211	1,148.44	81.648	1,148.44	81.6263	1,148.44	80.8155	1,148.44	80.9652	1,148.44	80.0246	1,148.44	79.7441	1,148.44	79.5722	1,148.44	77.7369	1,148.44	78.5834	1,148.44	75.3291	1,148.44	76.3482	1,148.44	72.9475	1,148.44	73.7174	1,148.44	70.5901	1,148.44	72.166	1,148.44	68.4204	1,148.44	71.7626	1,148.44	66.5738	1,148.44	71.009	1,148.44	67.4252	1,148.44	69.5825	1,148.44	68.7349	1,148.44	69.7508	1,148.44	67.7756	1,148.44	70.918	1,148.44	66.9824	1,148.44	70.3306	1,148.44	67.476	1,148.44	68.924	1,148.44	67.9148	1,148.44	69.6075	1,148.44	68.6199	1,148.44	70.526	1,148.44	69.5858	1,148.44	70.3473
1,189.45	82.1553	1,189.45	81.6861	1,189.45	81.7366	1,189.45	80.7053	1,189.45	80.8205	1,189.45	79.8487	1,189.45	80.1223	1,189.45	78.8297	1,189.45	79.1468	1,189.45	77.1609	1,189.45	77.1661	1,189.45	75.7125	1,189.45	74.4177	1,189.45	74.9971	1,189.45	72.346	1,189.45	73.8544	1,189.45	71.0946	1,189.45	72.7368	1,189.45	69.3318	1,189.45	72.3346	1,189.45	66.878	1,189.45	71.4405	1,189.45	67.1997	1,189.45	70.2159	1,189.45	71.3545	1,189.45	70.9471	1,189.45	72.739	1,189.45	71.231	1,189.45	69.537	1,189.45	68.9496	1,189.45	68.169	1,189.45	68.2087	1,189.45	69.804	1,189.45	70.9297	1,189.45	70.4482	1,189.45	71.7794
1,230.47	82.8546	1,230.47	82.4462	1,230.47	82.3974	1,230.47	81.7195	1,230.47	81.1137	1,230.47	80.9167	1,230.47	79.6225	1,230.47	79.4783	1,230.47	78.1737	1,230.47	77.6712	1,230.47	76.7995	1,230.47	76.9974	1,230.47	75.412	1,230.47	76.5007	1,230.47	73.6239	1,230.47	74.1133	1,230.47	72.0992	1,230.47	70.5737	1,230.47	70.6435	1,230.47	70.5833	1,230.47	69.4299	1,230.47	72.6137	1,230.47	69.7951	1,230.47	72.6569	1,230.47	69.682	1,230.47	71.2234	1,230.47	66.729	1,230.47	70.616	1,230.47	65.7099	1,230.47	70.758	1,230.47	67.516	1,230.47	71.1281	1,230.47	66.0756	1,230.47	72.3032	1,230.47	68.3742	1,230.47	71.8591
1,274.41	83.0525	1,274.41	82.811	1,274.41	82.6967	1,274.41	82.258	1,274.41	81.468	1,274.41	81.1654	1,274.41	79.8657	1,274.41	79.4066	1,274.41	78.544	1,274.41	77.8736	1,274.41	77.0567	1,274.41	77.4915	1,274.41	75.712	1,274.41	76.7339	1,274.41	75.9316	1,274.41	74.332	1,274.41	75.3352	1,274.41	71.168	1,274.41	71.8965	1,274.41	68.396	1,274.41	68.5118	1,274.41	67.7952	1,274.41	67.8955	1,274.41	70.5724	1,274.41	72.006	1,274.41	71.455	1,274.41	74.055	1,274.41	70.4739	1,274.41	71.3359	1,274.41	68.9816	1,274.41	68.8919	1,274.41	69.5023	1,274.41	69.3096	1,274.41	71.0875	1,274.41	69.9889	1,274.41	71.3708
1,319.82	83.6895	1,319.82	83.7019	1,319.82	82.8784	1,319.82	83.1994	1,319.82	81.5254	1,319.82	82.0272	1,319.82	80.5736	1,319.82	80.424	1,319.82	79.8997	1,319.82	79.3654	1,319.82	78.9034	1,319.82	77.8165	1,319.82	77.1597	1,319.82	74.5026	1,319.82	74.9755	1,319.82	72.4802	1,319.82	73.699	1,319.82	73.9401	1,319.82	71.3919	1,319.82	73.9213	1,319.82	65.6134	1,319.82	71.429	1,319.82	63.0629	1,319.82	70.6861	1,319.82	71.0701	1,319.82	72.5372	1,319.82	70.9301	1,319.82	72.7502	1,319.82	66.6274	1,319.82	70.7178	1,319.82	69.7985	1,319.82	70.31	1,319.82	67.0803	1,319.82	73.0046	1,319.82	67.8559	1,319.82	72.6567
1,366.7	83.7239	1,366.7	84.2903	1,366.7	83.1504	1,366.7	84.209	1,366.7	81.9755	1,366.7	82.7788	1,366.7	80.2666	1,366.7	80.7697	1,366.7	79.3942	1,366.7	79.1784	1,366.7	78.1906	1,366.7	77.3317	1,366.7	75.8596	1,366.7	75.477	1,366.7	75.9055	1,366.7	73.105	1,366.7	75.9303	1,366.7	69.0776	1,366.7	73.9458	1,366.7	70.2806	1,366.7	71.2302	1,366.7	72.5836	1,366.7	68.6746	1,366.7	70.3321	1,366.7	68.0602	1,366.7	70.585	1,366.7	68.0262	1,366.7	72.5691	1,366.7	70.0275	1,366.7	71.6822	1,366.7	68.1554	1,366.7	71.9309	1,366.7	63.1702	1,366.7	73.6495	1,366.7	68.3948	1,366.7	72.9276
1,413.57	83.1922	1,413.57	84.0426	1,413.57	82.6069	1,413.57	84.1369	1,413.57	82.0032	1,413.57	82.6913	1,413.57	81.2734	1,413.57	81.2102	1,413.57	80.9097	1,413.57	81.0437	1,413.57	79.7067	1,413.57	79.2184	1,413.57	77.1394	1,413.57	75.0838	1,413.57	76.5021	1,413.57	74.9048	1,413.57	76.0757	1,413.57	75.4579	1,413.57	72.9763	1,413.57	72.2233	1,413.57	70.7287	1,413.57	70.5292	1,413.57	71.2611	1,413.57	71.7638	1,413.57	70.5439	1,413.57	69.3031	1,413.57	72.7086	1,413.57	71.0979	1,413.57	70.4883	1,413.57	71.6086	1,413.57	65.0174	1,413.57	69.0158	1,413.57	67.3795	1,413.57	72.889	1,413.57	69.5398	1,413.57	73.7827
1,463.38	82.4063	1,463.38	83.7866	1,463.38	81.8138	1,463.38	84.4283	1,463.38	81.4376	1,463.38	83.3379	1,463.38	81.403	1,463.38	82.1143	1,463.38	81.5829	1,463.38	80.622	1,463.38	80.2153	1,463.38	77.2173	1,463.38	77.6933	1,463.38	76.1177	1,463.38	75.4069	1,463.38	77.306	1,463.38	74.7401	1,463.38	75.862	1,463.38	75.4873	1,463.38	74.4128	1,463.38	72.648	1,463.38	73.243	1,463.38	69.1375	1,463.38	70.9184	1,463.38	73.0523	1,463.38	67.4951	1,463.38	73.0541	1,463.38	68.3734	1,463.38	65.1243	1,463.38	73.1609	1,463.38	66.59	1,463.38	72.7854	1,463.38	64.5476	1,463.38	73.0464	1,463.38	67.7903	1,463.38	73.003
1,516.11	82.2535	1,516.11	83.5542	1,516.11	81.3341	1,516.11	83.7482	1,516.11	80.6326	1,516.11	83.0227	1,516.11	80.7211	1,516.11	82.4114	1,516.11	81.2362	1,516.11	79.5021	1,516.11	79.8766	1,516.11	76.4301	1,516.11	77.3654	1,516.11	77.9229	1,516.11	76.2946	1,516.11	75.589	1,516.11	75.0051	1,516.11	70.1001	1,516.11	73.9566	1,516.11	70.106	1,516.11	73.2179	1,516.11	73.2215	1,516.11	69.7679	1,516.11	73.4703	1,516.11	71.4665	1,516.11	71.637	1,516.11	72.5572	1,516.11	71.0585	1,516.11	70.9169	1,516.11	73.0432	1,516.11	70.3393	1,516.11	69.8084	1,516.11	65.2072	1,516.11	68.4506	1,516.11	69.0428	1,516.11	71.9156
1,568.85	81.6574	1,568.85	82.9891	1,568.85	80.8733	1,568.85	83.2255	1,568.85	80.9921	1,568.85	83.053	1,568.85	80.6636	1,568.85	81.9566	1,568.85	81.0453	1,568.85	79.0406	1,568.85	80.2555	1,568.85	78.5885	1,568.85	78.2738	1,568.85	78.3589	1,568.85	78.121	1,568.85	75.1491	1,568.85	75.243	1,568.85	73.6076	1,568.85	73.3391	1,568.85	70.8956	1,568.85	74.4094	1,568.85	65.3907	1,568.85	72.1466	1,568.85	72.0104	1,568.85	72.5924	1,568.85	73.9308	1,568.85	72.5727	1,568.85	70.9085	1,568.85	71.4232	1,568.85	70.1893	1,568.85	67.4903	1,568.85	70.1816	1,568.85	61.5929	1,568.85	67.5616	1,568.85	68.3693	1,568.85	70.6879
1,624.51	82.615	1,624.51	83.7067	1,624.51	81.6736	1,624.51	83.4007	1,624.51	81.2792	1,624.51	82.3993	1,624.51	80.3461	1,624.51	80.812	1,624.51	79.6352	1,624.51	78.061	1,624.51	79.4682	1,624.51	78.1363	1,624.51	78.0803	1,624.51	76.6438	1,624.51	76.2671	1,624.51	73.2213	1,624.51	75.726	1,624.51	74.3885	1,624.51	75.0618	1,624.51	75.2625	1,624.51	73.7611	1,624.51	69.8549	1,624.51	72.7501	1,624.51	51.1241	1,624.51	74.4628	1,624.51	70.2784	1,624.51	75.4953	1,624.51	74.0446	1,624.51	71.1608	1,624.51	72.1634	1,624.51	65.2862	1,624.51	74.3385	1,624.51	64.5462	1,624.51	70.5648	1,624.51	66.1402	1,624.51	63.1836
1,681.64	83.2779	1,681.64	84.6259	1,681.64	81.0071	1,681.64	83.3462	1,681.64	80.0899	1,681.64	82.2133	1,681.64	78.6413	1,681.64	79.4147	1,681.64	80.2009	1,681.64	78.499	1,681.64	80.855	1,681.64	81.6546	1,681.64	79.242	1,681.64	78.9576	1,681.64	77.1858	1,681.64	76.494	1,681.64	75.2747	1,681.64	76.8297	1,681.64	74.2514	1,681.64	73.6398	1,681.64	73.7722	1,681.64	73.8922	1,681.64	75.763	1,681.64	73.0113	1,681.64	70.8562	1,681.64	70.109	1,681.64	75.3645	1,681.64	72.1414	1,681.64	66.98	1,681.64	67.7308	1,681.64	68.0668	1,681.64	70.7039	1,681.64	61.202	1,681.64	75.5367	1,681.64	67.5367	1,681.64	74.5043
1,741.7	84.6155	1,741.7	84.5948	1,741.7	81.4458	1,741.7	83.7919	1,741.7	80.0019	1,741.7	82.8187	1,741.7	81.4628	1,741.7	80.052	1,741.7	82.0159	1,741.7	80.0013	1,741.7	80.5948	1,741.7	77.6456	1,741.7	78.225	1,741.7	72.5253	1,741.7	78.0303	1,741.7	77.3232	1,741.7	76.1834	1,741.7	77.8634	1,741.7	73.0725	1,741.7	74.8159	1,741.7	72.9856	1,741.7	74.7319	1,741.7	70.7118	1,741.7	73.2746	1,741.7	72.0727	1,741.7	70.1117	1,741.7	74.2304	1,741.7	69.5802	1,741.7	72.8837	1,741.7	71.817	1,741.7	63.0635	1,741.7	71.9257	1,741.7	65.5842	1,741.7	72.7	1,741.7	64.2599	1,741.7	72.4981
1,803.22	83.364	1,803.22	84.5611	1,803.22	81.6413	1,803.22	84.8327	1,803.22	80.428	1,803.22	81.8372	1,803.22	81.4858	1,803.22	80.0551	1,803.22	80.8112	1,803.22	81.0423	1,803.22	81.0174	1,803.22	78.8802	1,803.22	81.2412	1,803.22	81.9588	1,803.22	75.7269	1,803.22	80.6735	1,803.22	71.6768	1,803.22	76.8616	1,803.22	70.4458	1,803.22	78.4679	1,803.22	66.625	1,803.22	77.6632	1,803.22	67.4895	1,803.22	75.0281	1,803.22	67.1466	1,803.22	65.9381	1,803.22	76.5586	1,803.22	69.3732	1,803.22	73.2138	1,803.22	70.6993	1,803.22	63.6533	1,803.22	67.8227	1,803.22	66.2082	1,803.22	64.9772	1,803.22	73.7236	1,803.22	72.4255
1,866.21	82.3681	1,866.21	84.0546	1,866.21	81.1952	1,866.21	83.6204	1,866.21	79.5499	1,866.21	82.5027	1,866.21	81.4005	1,866.21	81.7042	1,866.21	81.1046	1,866.21	78.8902	1,866.21	80.412	1,866.21	79.487	1,866.21	79.0984	1,866.21	76.3853	1,866.21	77.0362	1,866.21	77.5927	1,866.21	74.9742	1,866.21	76.8461	1,866.21	72.6299	1,866.21	74.2133	1,866.21	74.9348	1,866.21	72.7579	1,866.21	69.9357	1,866.21	70.4691	1,866.21	71.7769	1,866.21	73.5366	1,866.21	72.6182	1,866.21	69.2298	1,866.21	71.7184	1,866.21	70.9352	1,866.21	64.8659	1,866.21	69.5733	1,866.21	61.91	1,866.21	71.0651	1,866.21	67.173	1,866.21	72.2676
1,932.13	83.4034	1,932.13	83.6751	1,932.13	81.0181	1,932.13	83.1813	1,932.13	78.1576	1,932.13	84.0853	1,932.13	79.0548	1,932.13	81.8636	1,932.13	80.8486	1,932.13	80.6886	1,932.13	79.6203	1,932.13	78.2705	1,932.13	78.876	1,932.13	77.2585	1,932.13	76.5475	1,932.13	75.7144	1,932.13	74.9678	1,932.13	75.7109	1,932.13	75.3998	1,932.13	75.8921	1,932.13	72.3121	1,932.13	69.4706	1,932.13	70.176	1,932.13	69.8706	1,932.13	70.838	1,932.13	73.1961	1,932.13	70.6517	1,932.13	72.5655	1,932.13	71.2691	1,932.13	71.6555	1,932.13	63.3505	1,932.13	73.6702	1,932.13	62.2898	1,932.13	69.9228	1,932.13	64.8773	1,932.13	71.5489
1,999.51	83.9214	1,999.51	83.4055	1,999.51	82.4113	1,999.51	83.0412	1,999.51	79.1137	1,999.51	83.6762	1,999.51	78.5122	1,999.51	82.2021	1,999.51	81.8149	1,999.51	81.3748	1,999.51	81.3241	1,999.51	79.0385	1,999.51	78.7933	1,999.51	78.8971	1,999.51	78.4702	1,999.51	77.8491	1,999.51	73.3532	1,999.51	72.651	1,999.51	73.2041	1,999.51	73.733	1,999.51	63.8763	1,999.51	73.731	1,999.51	72.046	1,999.51	70.76	1,999.51	69.8685	1,999.51	72.9776	1,999.51	68.885	1,999.51	73.3849	1,999.51	69.119	1,999.51	71.5251	1,999.51	56.3842	1,999.51	72.5575	1,999.51	38.2149	1,999.51	69.0588	1,999.51	71.3689	1,999.51	70.9629
2,069.82	84.5767	2,069.82	84.2982	2,069.82	82.8866	2,069.82	83.2575	2,069.82	80.9242	2,069.82	82.0124	2,069.82	79.1606	2,069.82	82.1837	2,069.82	80.523	2,069.82	81.7472	2,069.82	82.5369	2,069.82	80.0984	2,069.82	79.8406	2,069.82	77.768	2,069.82	77.4527	2,069.82	75.9948	2,069.82	75.4492	2,069.82	78.6966	2,069.82	74.4711	2,069.82	74.6688	2,069.82	70.3699	2,069.82	70.5297	2,069.82	72.8386	2,069.82	73.1247	2,069.82	71.5339	2,069.82	70.5054	2,069.82	69.6661	2,069.82	73.7663	2,069.82	68.5501	2,069.82	71.805	2,069.82	51.9259	2,069.82	72.1016	2,069.82	54.3746	2,069.82	72.0989	2,069.82	71.607	2,069.82	72.7561
2,143.07	84.175	2,143.07	84.3739	2,143.07	82.952	2,143.07	83.5307	2,143.07	81.6788	2,143.07	81.8486	2,143.07	80.1062	2,143.07	82.6551	2,143.07	80.4876	2,143.07	81.9352	2,143.07	82.7337	2,143.07	80.2975	2,143.07	81.538	2,143.07	78.8623	2,143.07	79.4665	2,143.07	73.8929	2,143.07	76.6077	2,143.07	73.1106	2,143.07	74.5181	2,143.07	73.2659	2,143.07	74.7247	2,143.07	70.36	2,143.07	74.863	2,143.07	69.7641	2,143.07	73.6933	2,143.07	72.5614	2,143.07	69.3317	2,143.07	70.6484	2,143.07	67.7598	2,143.07	71.2581	2,143.07	56.8343	2,143.07	70.4901	2,143.07	53.4752	2,143.07	71.3175	2,143.07	72.8168	2,143.07	70.2061
2,219.24	83.0652	2,219.24	83.3789	2,219.24	82.5542	2,219.24	83.9082	2,219.24	80.2579	2,219.24	83.6852	2,219.24	80.9401	2,219.24	82.0535	2,219.24	81.3523	2,219.24	80.4722	2,219.24	81.8236	2,219.24	80.4443	2,219.24	82.1342	2,219.24	77.6952	2,219.24	77.9795	2,219.24	77.0832	2,219.24	74.9808	2,219.24	74.336	2,219.24	75.5887	2,219.24	73.6475	2,219.24	75.3392	2,219.24	72.2573	2,219.24	73.0802	2,219.24	68.3427	2,219.24	73.3642	2,219.24	72.7067	2,219.24	69.9225	2,219.24	70.4534	2,219.24	68.8275	2,219.24	71.9635	2,219.24	54.2164	2,219.24	70.8081	2,219.24	61.0802	2,219.24	73.0072	2,219.24	72.1073	2,219.24	68.4041
2,296.88	82.0634	2,296.88	82.4649	2,296.88	82.0563	2,296.88	84.0732	2,296.88	81.1245	2,296.88	84.5858	2,296.88	82.2076	2,296.88	82.4677	2,296.88	82.7422	2,296.88	81.5262	2,296.88	81.7125	2,296.88	80.9959	2,296.88	81.2744	2,296.88	79.8696	2,296.88	79.8852	2,296.88	77.5831	2,296.88	73.6292	2,296.88	75.8015	2,296.88	74.7469	2,296.88	73.9564	2,296.88	75.3023	2,296.88	74.045	2,296.88	69.4629	2,296.88	69.9567	2,296.88	73.5771	2,296.88	71.7759	2,296.88	69.8816	2,296.88	73.6088	2,296.88	70.8065	2,296.88	71.2423	2,296.88	64.9678	2,296.88	70.1182	2,296.88	63.3258	2,296.88	71.5079	2,296.88	69.1429	2,296.88	68.9831
2,378.91	83.0959	2,378.91	83.0054	2,378.91	82.7893	2,378.91	83.9371	2,378.91	79.255	2,378.91	84.1624	2,378.91	80.5021	2,378.91	83.1504	2,378.91	82.9738	2,378.91	82.0237	2,378.91	81.8822	2,378.91	80.5864	2,378.91	81.8754	2,378.91	78.8438	2,378.91	81.6583	2,378.91	77.2585	2,378.91	77.2589	2,378.91	76.7629	2,378.91	75.4572	2,378.91	74.0891	2,378.91	76.2705	2,378.91	72.807	2,378.91	73.3725	2,378.91	73.0499	2,378.91	72.0847	2,378.91	69.2808	2,378.91	71.7895	2,378.91	72.5867	2,378.91	69.3513	2,378.91	70.694	2,378.91	62.3478	2,378.91	70.481	2,378.91	56.6957	2,378.91	70.2335	2,378.91	67.5241	2,378.91	68.7535
2,462.4	83.5276	2,462.4	84.3437	2,462.4	83.3722	2,462.4	84.0204	2,462.4	82.0284	2,462.4	83.8987	2,462.4	78.7343	2,462.4	83.6222	2,462.4	81.661	2,462.4	81.7876	2,462.4	82.3598	2,462.4	79.2789	2,462.4	81.3154	2,462.4	79.4815	2,462.4	81.0861	2,462.4	76.2515	2,462.4	76.0995	2,462.4	74.0856	2,462.4	73.4489	2,462.4	74.2699	2,462.4	74.8644	2,462.4	71.8261	2,462.4	75.7703	2,462.4	72.1735	2,462.4	70.8224	2,462.4	69.574	2,462.4	72.1209	2,462.4	71.4038	2,462.4	69.8989	2,462.4	70.9215	2,462.4	56.2865	2,462.4	71.762	2,462.4	58.1854	2,462.4	72.102	2,462.4	69.7364	2,462.4	71.1856
2,548.83	83.3159	2,548.83	84.5388	2,548.83	83.4564	2,548.83	85.3233	2,548.83	83.5594	2,548.83	84.7716	2,548.83	80.3851	2,548.83	83.8876	2,548.83	79.9429	2,548.83	81.4249	2,548.83	82.0973	2,548.83	80.2385	2,548.83	80.61	2,548.83	78.8232	2,548.83	78.2591	2,548.83	78.23	2,548.83	77.7524	2,548.83	75.9924	2,548.83	75.3181	2,548.83	72.6197	2,548.83	72.2472	2,548.83	71.6789	2,548.83	74.5656	2,548.83	70.8358	2,548.83	71.8389	2,548.83	70.935	2,548.83	69.3821	2,548.83	70.5296	2,548.83	71.1819	2,548.83	71.7004	2,548.83	61.082	2,548.83	70.8891	2,548.83	61.9881	2,548.83	71.6915	2,548.83	70.1242	2,548.83	69.4558
2,639.65	81.7809	2,639.65	83.0102	2,639.65	81.3128	2,639.65	85.3204	2,639.65	82.3981	2,639.65	84.7758	2,639.65	81.736	2,639.65	82.908	2,639.65	79.978	2,639.65	82.467	2,639.65	81.3017	2,639.65	81.181	2,639.65	80.6455	2,639.65	78.3765	2,639.65	79.1376	2,639.65	76.6393	2,639.65	78.1534	2,639.65	74.9614	2,639.65	74.6518	2,639.65	73.8921	2,639.65	72.531	2,639.65	73.4913	2,639.65	72.6217	2,639.65	71.4493	2,639.65	72.3744	2,639.65	70.8656	2,639.65	70.3592	2,639.65	71.0376	2,639.65	70.4948	2,639.65	71.4996	2,639.65	64.1816	2,639.65	71.2851	2,639.65	61.6905	2,639.65	72.1883	2,639.65	69.5129	2,639.65	68.7679
2,731.93	81.045	2,731.93	82.3391	2,731.93	80.4801	2,731.93	84.3201	2,731.93	80.496	2,731.93	84.3445	2,731.93	81.4152	2,731.93	83.293	2,731.93	79.8558	2,731.93	82.7179	2,731.93	80.0362	2,731.93	81.2632	2,731.93	79.6939	2,731.93	79.0617	2,731.93	76.7851	2,731.93	77.3524	2,731.93	76.0314	2,731.93	75.3745	2,731.93	72.2328	2,731.93	74.3007	2,731.93	69.6957	2,731.93	73.1182	2,731.93	71.7397	2,731.93	70.6127	2,731.93	71.0562	2,731.93	69.2955	2,731.93	71.9636	2,731.93	70.5874	2,731.93	66.0205	2,731.93	71.2049	2,731.93	64.2568	2,731.93	70.7578	2,731.93	60.2089	2,731.93	70.2371	2,731.93	67.0136	2,731.93	68.8196
2,828.61	81.9069	2,828.61	83.6024	2,828.61	80.9209	2,828.61	84.1824	2,828.61	79.6979	2,828.61	84.1813	2,828.61	79.8552	2,828.61	83.7464	2,828.61	80.2789	2,828.61	82.4538	2,828.61	78.8176	2,828.61	80.6125	2,828.61	78.9911	2,828.61	78.4008	2,828.61	76.6938	2,828.61	77.1877	2,828.61	77.0813	2,828.61	74.4421	2,828.61	71.777	2,828.61	70.5932	2,828.61	64.5819	2,828.61	70.5478	2,828.61	66.5993	2,828.61	69.8814	2,828.61	73.546	2,828.61	68.5451	2,828.61	70.5648	2,828.61	70.7508	2,828.61	63.1396	2,828.61	70.3937	2,828.61	65.1411	2,828.61	69.7461	2,828.61	59.8444	2,828.61	70.8171	2,828.61	65.9442	2,828.61	67.781
2,928.22	82.6953	2,928.22	84.5812	2,928.22	81.646	2,928.22	85.1762	2,928.22	80.8017	2,928.22	84.4339	2,928.22	78.9237	2,928.22	83.9246	2,928.22	80.0123	2,928.22	82.4236	2,928.22	79.704	2,928.22	80.9888	2,928.22	79.3326	2,928.22	78.9093	2,928.22	77.3771	2,928.22	74.8102	2,928.22	75.8243	2,928.22	73.6298	2,928.22	61.1586	2,928.22	72.033	2,928.22	64.2801	2,928.22	71.7463	2,928.22	66.9868	2,928.22	69.7094	2,928.22	71.2865	2,928.22	68.1102	2,928.22	68.1643	2,928.22	70.2555	2,928.22	62.2187	2,928.22	70.2482	2,928.22	66.6871	2,928.22	71.3456	2,928.22	57.8289	2,928.22	70.5886	2,928.22	64.7648	2,928.22	68.8361
3,030.76	82.8164	3,030.76	84.4383	3,030.76	81.6741	3,030.76	85.3911	3,030.76	81.3288	3,030.76	84.6057	3,030.76	78.2582	3,030.76	84.0137	3,030.76	79.1722	3,030.76	82.3691	3,030.76	79.7884	3,030.76	80.4562	3,030.76	78.3922	3,030.76	77.3694	3,030.76	76.9823	3,030.76	76.4398	3,030.76	75.5286	3,030.76	75.514	3,030.76	64.9163	3,030.76	72.4247	3,030.76	64.1245	3,030.76	69.9438	3,030.76	68.1449	3,030.76	68.9168	3,030.76	68.826	3,030.76	67.6653	3,030.76	67.714	3,030.76	69.7392	3,030.76	51.8526	3,030.76	69.4701	3,030.76	62.9301	3,030.76	71.221	3,030.76	60.0509	3,030.76	70.202	3,030.76	65.2337	3,030.76	67.0807
3,137.7	82.7085	3,137.7	83.8476	3,137.7	81.4418	3,137.7	84.7795	3,137.7	81.4943	3,137.7	85.1907	3,137.7	78.6838	3,137.7	83.9365	3,137.7	76.5458	3,137.7	82.1278	3,137.7	78.5093	3,137.7	80.028	3,137.7	77.7832	3,137.7	78.5267	3,137.7	76.0684	3,137.7	77.5059	3,137.7	74.8376	3,137.7	73.3752	3,137.7	66.015	3,137.7	71.2037	3,137.7	68.5162	3,137.7	69.4775	3,137.7	64.5682	3,137.7	69.2456	3,137.7	66.7249	3,137.7	65.8153	3,137.7	63.0531	3,137.7	69.7845	3,137.7	61.705	3,137.7	69.4585	3,137.7	60.7993	3,137.7	71.6158	3,137.7	59.8693	3,137.7	69.8897	3,137.7	64.8542	3,137.7	66.7657
3,249.02	82.618	3,249.02	83.375	3,249.02	81.1598	3,249.02	83.9867	3,249.02	81.0764	3,249.02	85.0443	3,249.02	78.7449	3,249.02	83.3594	3,249.02	74.6886	3,249.02	82.0759	3,249.02	77.0133	3,249.02	80.7111	3,249.02	77.3402	3,249.02	78.649	3,249.02	77.9876	3,249.02	73.441	3,249.02	71.8038	3,249.02	72.6964	3,249.02	71.2222	3,249.02	70.5497	3,249.02	71.0394	3,249.02	70.295	3,249.02	61.9932	3,249.02	69.1371	3,249.02	60.8109	3,249.02	67.325	3,249.02	64.4756	3,249.02	68.796	3,249.02	60.29	3,249.02	69.2711	3,249.02	55.0144	3,249.02	69.102	3,249.02	62.9587	3,249.02	69.0265	3,249.02	64.8895	3,249.02	67.6883
3,363.28	83.113	3,363.28	83.5293	3,363.28	81.4114	3,363.28	84.0021	3,363.28	80.9147	3,363.28	84.0248	3,363.28	78.2595	3,363.28	82.745	3,363.28	74.5703	3,363.28	81.498	3,363.28	76.3347	3,363.28	79.2719	3,363.28	77.0912	3,363.28	75.3165	3,363.28	80.1637	3,363.28	74.4358	3,363.28	72.2928	3,363.28	73.9182	3,363.28	75.2616	3,363.28	69.1114	3,363.28	72.5706	3,363.28	68.2511	3,363.28	62.114	3,363.28	66.7335	3,363.28	65.3755	3,363.28	66.386	3,363.28	64.2993	3,363.28	68.1221	3,363.28	55.3755	3,363.28	68.6649	3,363.28	49.6357	3,363.28	68.9413	3,363.28	63.8214	3,363.28	67.215	3,363.28	61.0703	3,363.28	65.3722
3,481.93	83.187	3,481.93	84.112	3,481.93	81.0182	3,481.93	85.0994	3,481.93	80.1911	3,481.93	83.4879	3,481.93	78.021	3,481.93	82.3194	3,481.93	70.0233	3,481.93	81.4997	3,481.93	75.789	3,481.93	77.7895	3,481.93	76.8332	3,481.93	75.0558	3,481.93	80.5038	3,481.93	73.4077	3,481.93	75.3484	3,481.93	67.3946	3,481.93	76.1866	3,481.93	68.4791	3,481.93	72.5008	3,481.93	64.1601	3,481.93	67.0154	3,481.93	67.2632	3,481.93	65.6362	3,481.93	62.5463	3,481.93	60.5534	3,481.93	66.6516	3,481.93	48.2486	3,481.93	68.1656	3,481.93	54.6468	3,481.93	69.5145	3,481.93	59.8624	3,481.93	67.036	3,481.93	53.896	3,481.93	63.1307
3,604.98	83.7704	3,604.98	84.2546	3,604.98	81.4841	3,604.98	84.8242	3,604.98	79.1747	3,604.98	83.4057	3,604.98	77.2725	3,604.98	81.4779	3,604.98	74.4838	3,604.98	79.5767	3,604.98	75.8642	3,604.98	76.1462	3,604.98	80.3589	3,604.98	73.1128	3,604.98	79.9656	3,604.98	69.3031	3,604.98	76.754	3,604.98	70.8685	3,604.98	77.6164	3,604.98	69.2023	3,604.98	72.7482	3,604.98	64.6242	3,604.98	69.494	3,604.98	66.3816	3,604.98	68.1452	3,604.98	63.9808	3,604.98	60.7907	3,604.98	66.4838	3,604.98	53.7776	3,604.98	67.4404	3,604.98	53.4853	3,604.98	68.7008	3,604.98	61.2619	3,604.98	67.469	3,604.98	58.6227	3,604.98	62.3224
3,732.42	84.2663	3,732.42	84.6616	3,732.42	82.758	3,732.42	83.4459	3,732.42	79.1431	3,732.42	82.1091	3,732.42	76.9904	3,732.42	80.5016	3,732.42	76.8353	3,732.42	77.3056	3,732.42	76.1267	3,732.42	75.6498	3,732.42	80.5088	3,732.42	72.5924	3,732.42	80.1594	3,732.42	74.3741	3,732.42	73.191	3,732.42	71.0638	3,732.42	75.6711	3,732.42	69.0998	3,732.42	73.865	3,732.42	67.6472	3,732.42	67.8256	3,732.42	66.5328	3,732.42	70.5134	3,732.42	63.4004	3,732.42	63.6451	3,732.42	65.7709	3,732.42	53.9118	3,732.42	68.3055	3,732.42	56.0944	3,732.42	68.9828	3,732.42	62.2464	3,732.42	67.9651	3,732.42	59.2475	3,732.42	61.8167
3,864.26	83.3862	3,864.26	83.9533	3,864.26	81.2944	3,864.26	82.9081	3,864.26	78.9316	3,864.26	80.4775	3,864.26	76.5216	3,864.26	78.4169	3,864.26	79.0724	3,864.26	75.0399	3,864.26	75.3222	3,864.26	74.5409	3,864.26	82.2073	3,864.26	75.0429	3,864.26	78.6135	3,864.26	73.857	3,864.26	75.4464	3,864.26	69.0799	3,864.26	71.056	3,864.26	68.9807	3,864.26	68.4656	3,864.26	66.4398	3,864.26	69.7911	3,864.26	67.7441	3,864.26	69.311	3,864.26	63.9674	3,864.26	65.5226	3,864.26	65.0002	3,864.26	59.3649	3,864.26	66.5505	3,864.26	53.8727	3,864.26	68.1367	3,864.26	64.3203	3,864.26	66.8343	3,864.26	55.7959	3,864.26	61.2915
4,000.49	83.8938	4,000.49	83.9676	4,000.49	80.6115	4,000.49	82.4566	4,000.49	77.615	4,000.49	78.7963	4,000.49	75.8988	4,000.49	73.5864	4,000.49	79.2677	4,000.49	71.1305	4,000.49	74.6392	4,000.49	75.9869	4,000.49	81.1837	4,000.49	73.2719	4,000.49	76.3728	4,000.49	71.5871	4,000.49	77.9991	4,000.49	72.1627	4,000.49	72.6852	4,000.49	68.7381	4,000.49	63.4714	4,000.49	67.3563	4,000.49	61.8229	4,000.49	66.1865	4,000.49	69.6101	4,000.49	64.9127	4,000.49	62.8664	4,000.49	65.2272	4,000.49	52.3343	4,000.49	66.4934	4,000.49	54.0963	4,000.49	67.8382	4,000.49	63.03	4,000.49	63.346	4,000.49	47.0461	4,000.49	58.4072
4,141.11	84.1609	4,141.11	83.7077	4,141.11	81.7811	4,141.11	80.875	4,141.11	76.6913	4,141.11	75.7651	4,141.11	73.3221	4,141.11	70.5176	4,141.11	78.2949	4,141.11	75.5726	4,141.11	74.4023	4,141.11	75.5615	4,141.11	78.7785	4,141.11	73.9598	4,141.11	75.5429	4,141.11	73.9613	4,141.11	76.7912	4,141.11	67.3502	4,141.11	68.1058	4,141.11	68.6357	4,141.11	43.3048	4,141.11	68.2954	4,141.11	59.8048	4,141.11	67.699	4,141.11	68.9833	4,141.11	67.6669	4,141.11	63.4156	4,141.11	65.5304	4,141.11	47.1102	4,141.11	67.1655	4,141.11	51.0107	4,141.11	68.9942	4,141.11	61.3723	4,141.11	65.1259	4,141.11	44.708	4,141.11	56.8882
4,287.6	84.3612	4,287.6	83.7011	4,287.6	80.4137	4,287.6	81.8666	4,287.6	73.6384	4,287.6	74.7661	4,287.6	71.8887	4,287.6	73.0378	4,287.6	76.9287	4,287.6	75.3678	4,287.6	76.3716	4,287.6	74.5852	4,287.6	78.4367	4,287.6	74.7028	4,287.6	77.8144	4,287.6	72.7417	4,287.6	76.765	4,287.6	74.0828	4,287.6	68.4887	4,287.6	70.3707	4,287.6	59.7477	4,287.6	69.5798	4,287.6	60.1588	4,287.6	66.455	4,287.6	64.3703	4,287.6	68.1939	4,287.6	61.9375	4,287.6	67.0642	4,287.6	45.6476	4,287.6	68.6236	4,287.6	56.4334	4,287.6	68.7962	4,287.6	59.4355	4,287.6	67.7164	4,287.6	47.199	4,287.6	62.2735
4,438.48	83.6755	4,438.48	84.312	4,438.48	81.2695	4,438.48	80.9971	4,438.48	71.6601	4,438.48	70.243	4,438.48	69.209	4,438.48	68.4954	4,438.48	76.5638	4,438.48	74.5804	4,438.48	77.0809	4,438.48	76.1043	4,438.48	79.0107	4,438.48	75.1505	4,438.48	79.7195	4,438.48	76.1395	4,438.48	74.8681	4,438.48	69.9246	4,438.48	66.0354	4,438.48	70.7908	4,438.48	66.3175	4,438.48	69.7814	4,438.48	65.0696	4,438.48	68.1604	4,438.48	56.4008	4,438.48	68.0188	4,438.48	59.0206	4,438.48	67.5003	4,438.48	54.2113	4,438.48	69.6792	4,438.48	59.4269	4,438.48	69.8133	4,438.48	61.3143	4,438.48	67.9361	4,438.48	47.8748	4,438.48	61.715
4,595.21	83.5451	4,595.21	84.1624	4,595.21	80.2896	4,595.21	79.8933	4,595.21	68.5623	4,595.21	71.2818	4,595.21	59.6084	4,595.21	72.5877	4,595.21	75.1899	4,595.21	75.7489	4,595.21	76.9701	4,595.21	76.7723	4,595.21	79.2074	4,595.21	76.3118	4,595.21	80.3174	4,595.21	74.5393	4,595.21	71.8518	4,595.21	74.3876	4,595.21	68.7388	4,595.21	71.0887	4,595.21	67.7475	4,595.21	70.9727	4,595.21	65.4509	4,595.21	68.411	4,595.21	61.0368	4,595.21	69.4622	4,595.21	59.8906	4,595.21	67.0735	4,595.21	47.9783	4,595.21	68.9486	4,595.21	58.0455	4,595.21	69.4622	4,595.21	60.5744	4,595.21	66.2579	4,595.21	53.1556	4,595.21	57.3431
4,756.35	84.6323	4,756.35	84.3174	4,756.35	80.5326	4,756.35	80.5393	4,756.35	65.8499	4,756.35	68.5726	4,756.35	67.4021	4,756.35	73.6847	4,756.35	73.9999	4,756.35	75.8735	4,756.35	76.8059	4,756.35	77.693	4,756.35	77.7293	4,756.35	76.8271	4,756.35	77.9632	4,756.35	75.5827	4,756.35	68.408	4,756.35	73.5644	4,756.35	69.4801	4,756.35	71.7242	4,756.35	68.1542	4,756.35	69.4638	4,756.35	57.4838	4,756.35	68.3538	4,756.35	63.3547	4,756.35	68.2827	4,756.35	56.7329	4,756.35	68.2317	4,756.35	55.4824	4,756.35	68.9499	4,756.35	57.2057	4,756.35	70.4848	4,756.35	57.8384	4,756.35	68.275	4,756.35	55.5336	4,756.35	55.6203
4,924.8	84.2817	4,924.8	84.3888	4,924.8	80.1356	4,924.8	80.1698	4,924.8	68.6088	4,924.8	69.5875	4,924.8	74.7054	4,924.8	74.728	4,924.8	76.2283	4,924.8	77.1624	4,924.8	77.2312	4,924.8	78.3634	4,924.8	75.2756	4,924.8	76.5205	4,924.8	76.4973	4,924.8	74.7379	4,924.8	67.5783	4,924.8	73.1684	4,924.8	65.8982	4,924.8	70.2876	4,924.8	57.987	4,924.8	70.0999	4,924.8	52.969	4,924.8	66.9159	4,924.8	64.1513	4,924.8	68.6353	4,924.8	54.0602	4,924.8	67.1316	4,924.8	39.4314	4,924.8	68.0297	4,924.8	59.3024	4,924.8	69.5707	4,924.8	60.1497	4,924.8	67.2251	4,924.8	54.0052	4,924.8	59.2961
5,097.66	84.4158	5,097.66	83.8216	5,097.66	80.8212	5,097.66	81.0127	5,097.66	67.5406	5,097.66	71.9889	5,097.66	74.1342	5,097.66	75.9602	5,097.66	76.5987	5,097.66	78.0828	5,097.66	79.1596	5,097.66	77.748	5,097.66	71.0952	5,097.66	77.2816	5,097.66	74.653	5,097.66	74.6155	5,097.66	72.3946	5,097.66	73.4692	5,097.66	70.5183	5,097.66	70.6997	5,097.66	64.0882	5,097.66	70.0126	5,097.66	51.1903	5,097.66	67.9899	5,097.66	55.3789	5,097.66	68.7757	5,097.66	51.1493	5,097.66	67.3001	5,097.66	56.9378	5,097.66	67.8248	5,097.66	58.6715	5,097.66	70.2863	5,097.66	63.021	5,097.66	66.3119	5,097.66	55.3828	5,097.66	58.6971
5,277.83	84.0709	5,277.83	84.9809	5,277.83	81.1548	5,277.83	80.9781	5,277.83	67.3229	5,277.83	75.3284	5,277.83	75.3307	5,277.83	77.1265	5,277.83	78.4976	5,277.83	79.2485	5,277.83	79.8335	5,277.83	78.1811	5,277.83	69.7991	5,277.83	77.0143	5,277.83	72.2159	5,277.83	75.0411	5,277.83	74.6396	5,277.83	72.7404	5,277.83	70.921	5,277.83	70.7925	5,277.83	67.0974	5,277.83	68.49	5,277.83	54.8787	5,277.83	67.2135	5,277.83	55.0617	5,277.83	67.5976	5,277.83	54.0423	5,277.83	66.6753	5,277.83	56.2574	5,277.83	67.2941	5,277.83	59.1766	5,277.83	69.2374	5,277.83	59.5113	5,277.83	67.5478	5,277.83	57.6956	5,277.83	57.5431
5,463.87	84.3995	5,463.87	84.8596	5,463.87	81.2133	5,463.87	81.4093	5,463.87	74.097	5,463.87	75.7583	5,463.87	78.9128	5,463.87	78.4223	5,463.87	80.1293	5,463.87	79.3235	5,463.87	78.4643	5,463.87	78.1843	5,463.87	72.6996	5,463.87	75.8942	5,463.87	74.1333	5,463.87	72.9665	5,463.87	75.7236	5,463.87	71.9323	5,463.87	70.2379	5,463.87	69.4353	5,463.87	64.2979	5,463.87	68.1395	5,463.87	54.0915	5,463.87	66.7476	5,463.87	43.7221	5,463.87	66.9272	5,463.87	56.3496	5,463.87	65.47	5,463.87	57.3202	5,463.87	67.0979	5,463.87	52.6924	5,463.87	68.5638	5,463.87	61.1849	5,463.87	65.6514	5,463.87	55.1127	5,463.87	60.334
5,657.23	84.7088	5,657.23	84.7816	5,657.23	81.2806	5,657.23	81.3	5,657.23	76.3228	5,657.23	76.6719	5,657.23	79.9409	5,657.23	79.7555	5,657.23	81.1775	5,657.23	79.7197	5,657.23	77.8845	5,657.23	77.2799	5,657.23	73.7647	5,657.23	76.6286	5,657.23	76.3578	5,657.23	73.9548	5,657.23	76.8455	5,657.23	73.1286	5,657.23	67.4088	5,657.23	70.7345	5,657.23	64.0392	5,657.23	69.5055	5,657.23	49.2185	5,657.23	68.0869	5,657.23	48.8738	5,657.23	67.894	5,657.23	55.6744	5,657.23	66.556	5,657.23	60.525	5,657.23	66.7913	5,657.23	56.9461	5,657.23	68.7366	5,657.23	59.0061	5,657.23	66.8102	5,657.23	56.833	5,657.23	59.3857
5,856.45	84.7959	5,856.45	85.2959	5,856.45	80.0644	5,856.45	82.5136	5,856.45	73.4679	5,856.45	77.7728	5,856.45	79.5525	5,856.45	80.2962	5,856.45	80.5944	5,856.45	79.7033	5,856.45	77.2449	5,856.45	77.9763	5,856.45	75.9816	5,856.45	76.8243	5,856.45	77.0493	5,856.45	74.4993	5,856.45	77.3689	5,856.45	71.9797	5,856.45	70.7918	5,856.45	70.0861	5,856.45	58.67	5,856.45	68.6669	5,856.45	51.2303	5,856.45	68.0704	5,856.45	49.3391	5,856.45	66.8406	5,856.45	57.2902	5,856.45	67.5264	5,856.45	63.6847	5,856.45	66.3418	5,856.45	57.6596	5,856.45	68.1826	5,856.45	57.2983	5,856.45	66.5815	5,856.45	56.8147	5,856.45	60.4065
6,062.99	85.1669	6,062.99	85.8635	6,062.99	82.0703	6,062.99	81.9617	6,062.99	77.7115	6,062.99	79.6288	6,062.99	79.3516	6,062.99	80.1446	6,062.99	80.3087	6,062.99	80.0077	6,062.99	75.3635	6,062.99	78.1912	6,062.99	76.9613	6,062.99	76.3619	6,062.99	77.1865	6,062.99	73.9614	6,062.99	76.3925	6,062.99	72.5262	6,062.99	68.8508	6,062.99	69.8172	6,062.99	63.75	6,062.99	68.5838	6,062.99	52.3282	6,062.99	68.1549	6,062.99	53.4464	6,062.99	66.5031	6,062.99	60.0214	6,062.99	67.6891	6,062.99	58.6152	6,062.99	65.2757	6,062.99	52.0849	6,062.99	68.1007	6,062.99	57.0025	6,062.99	67.0707	6,062.99	46.193	6,062.99	59.5989
6,276.86	85.303	6,276.86	85.2058	6,276.86	81.7441	6,276.86	81.5874	6,276.86	79.4558	6,276.86	80.6421	6,276.86	80.6554	6,276.86	80.6905	6,276.86	79.4763	6,276.86	80.2506	6,276.86	74.6703	6,276.86	78.4933	6,276.86	77.5373	6,276.86	76.9171	6,276.86	77.6777	6,276.86	74.357	6,276.86	75.6607	6,276.86	72.2989	6,276.86	65.6003	6,276.86	70.8917	6,276.86	66.7314	6,276.86	68.0423	6,276.86	64.1099	6,276.86	68.3701	6,276.86	57.7564	6,276.86	65.7094	6,276.86	56.4077	6,276.86	68.1809	6,276.86	56.5537	6,276.86	64.9691	6,276.86	51.9382	6,276.86	67.8289	6,276.86	60.281	6,276.86	65.899	6,276.86	49.4556	6,276.86	59.1477
6,498.05	85.9425	6,498.05	85.7252	6,498.05	82.3945	6,498.05	82.1095	6,498.05	78.2579	6,498.05	80.9883	6,498.05	82.6257	6,498.05	81.3756	6,498.05	77.8322	6,498.05	80.8107	6,498.05	77.3546	6,498.05	78.4755	6,498.05	74.559	6,498.05	76.711	6,498.05	74.7565	6,498.05	73.9128	6,498.05	77.1599	6,498.05	71.799	6,498.05	69.6591	6,498.05	69.8327	6,498.05	67.5587	6,498.05	67.5649	6,498.05	66.3876	6,498.05	68.9092	6,498.05	59.7222	6,498.05	66.4659	6,498.05	60.3234	6,498.05	68.4151	6,498.05	54.7718	6,498.05	64.2427	6,498.05	51.5393	6,498.05	67.8873	6,498.05	52.9386	6,498.05	67.6185	6,498.05	52.9533	6,498.05	60.6722
6,726.56	85.589	6,726.56	84.8904	6,726.56	83.7186	6,726.56	82.3564	6,726.56	80.5739	6,726.56	81.2254	6,726.56	82.5001	6,726.56	81.7828	6,726.56	81.0327	6,726.56	80.9224	6,726.56	76.5596	6,726.56	78.6109	6,726.56	74.247	6,726.56	76.6836	6,726.56	71.8043	6,726.56	74.7874	6,726.56	78.9399	6,726.56	72.2866	6,726.56	70.2287	6,726.56	70.2373	6,726.56	55.755	6,726.56	66.802	6,726.56	58.6613	6,726.56	69.2097	6,726.56	60.0428	6,726.56	67.0491	6,726.56	58.0623	6,726.56	68.7692	6,726.56	58.9759	6,726.56	64.5316	6,726.56	54.4046	6,726.56	68.4199	6,726.56	60.3875	6,726.56	66.8739	6,726.56	44.5188	6,726.56	58.9274
6,963.87	85.7245	6,963.87	84.8273	6,963.87	82.2406	6,963.87	83.0117	6,963.87	81.7959	6,963.87	80.9787	6,963.87	82.399	6,963.87	82.4552	6,963.87	82.1651	6,963.87	80.96	6,963.87	76.6531	6,963.87	79.0079	6,963.87	73.0657	6,963.87	77.497	6,963.87	70.2666	6,963.87	74.4554	6,963.87	78.0653	6,963.87	72.6987	6,963.87	70.6227	6,963.87	69.0891	6,963.87	55.2698	6,963.87	67.5361	6,963.87	62.6819	6,963.87	68.2859	6,963.87	59.0328	6,963.87	67.1993	6,963.87	59.3659	6,963.87	68.7564	6,963.87	59.4647	6,963.87	63.3474	6,963.87	50.0428	6,963.87	67.8007	6,963.87	58.6159	6,963.87	65.6023	6,963.87	52.2421	6,963.87	60.6761
7,209.96	86.1562	7,209.96	84.4249	7,209.96	83.725	7,209.96	83.7915	7,209.96	81.087	7,209.96	81.7002	7,209.96	83.2383	7,209.96	81.9653	7,209.96	82.1216	7,209.96	81.4317	7,209.96	77.4101	7,209.96	79.1785	7,209.96	72.5113	7,209.96	76.5553	7,209.96	74.2343	7,209.96	73.5554	7,209.96	79.2019	7,209.96	70.6182	7,209.96	71.5356	7,209.96	68.1891	7,209.96	62.1249	7,209.96	65.0937	7,209.96	54.498	7,209.96	66.3987	7,209.96	54.248	7,209.96	66.7502	7,209.96	60.0763	7,209.96	66.8503	7,209.96	52.5456	7,209.96	62.886	7,209.96	52.0654	7,209.96	67.8624	7,209.96	45.4949	7,209.96	64.9927	7,209.96	32.5253	7,209.96	59.6576
7,464.84	85.1852	7,464.84	84.6671	7,464.84	83.5123	7,464.84	83.2436	7,464.84	82.9275	7,464.84	82.386	7,464.84	81.9935	7,464.84	82.0738	7,464.84	81.1392	7,464.84	81.2048	7,464.84	76.5406	7,464.84	78.3904	7,464.84	76.389	7,464.84	74.9823	7,464.84	75.6275	7,464.84	72.2459	7,464.84	78.4937	7,464.84	69.1936	7,464.84	68.1362	7,464.84	67.7342	7,464.84	65.7445	7,464.84	66.5054	7,464.84	54.144	7,464.84	66.4061	7,464.84	60.7958	7,464.84	66.65	7,464.84	56.8719	7,464.84	67.3388	7,464.84	56.1368	7,464.84	64.6702	7,464.84	42.7347	7,464.84	66.6251	7,464.84	55.5358	7,464.84	64.532	7,464.84	51.1479	7,464.84	60.7643
7,727.05	85.7597	7,727.05	85.6373	7,727.05	84.4246	7,727.05	83.7978	7,727.05	83.0961	7,727.05	83.2197	7,727.05	82.5625	7,727.05	82.077	7,727.05	80.5587	7,727.05	81.123	7,727.05	77.933	7,727.05	78.0495	7,727.05	76.3355	7,727.05	74.0817	7,727.05	75.9078	7,727.05	72.9941	7,727.05	73.2066	7,727.05	70.0021	7,727.05	63.1145	7,727.05	67.877	7,727.05	65.5418	7,727.05	66.0616	7,727.05	42.4639	7,727.05	65.0926	7,727.05	55.1328	7,727.05	65.8285	7,727.05	53.9166	7,727.05	68.4513	7,727.05	59.8016	7,727.05	64.3247	7,727.05	49.7725	7,727.05	66.2833	7,727.05	56.3385	7,727.05	67.5437	7,727.05	42.7518	7,727.05	62.1985
7,999.51	85.1021	7,999.51	84.8316	7,999.51	84.6579	7,999.51	83.6404	7,999.51	84.3363	7,999.51	82.8458	7,999.51	83.9204	7,999.51	82.6011	7,999.51	80.6263	7,999.51	80.5229	7,999.51	79.4661	7,999.51	77.5891	7,999.51	77.5349	7,999.51	74.4032	7,999.51	73.9317	7,999.51	73.3649	7,999.51	68.7617	7,999.51	69.6564	7,999.51	67.352	7,999.51	67.473	7,999.51	66.2422	7,999.51	64.3099	7,999.51	55.4123	7,999.51	66.6239	7,999.51	47.843	7,999.51	63.7732	7,999.51	51.6719	7,999.51	67.3846	7,999.51	57.3165	7,999.51	64.5042	7,999.51	48.9891	7,999.51	66.6442	7,999.51	49.0622	7,999.51	65.9023	7,999.51	39.0668	7,999.51	60.5629
8,282.23	85.8018	8,282.23	85.0525	8,282.23	84.176	8,282.23	83.7934	8,282.23	83.6582	8,282.23	83.1434	8,282.23	83.6041	8,282.23	82.5265	8,282.23	79.4504	8,282.23	79.7314	8,282.23	79.0611	8,282.23	77.4803	8,282.23	75.3999	8,282.23	73.8337	8,282.23	71.3287	8,282.23	72.1896	8,282.23	68.5235	8,282.23	68.5912	8,282.23	64.9108	8,282.23	66.2982	8,282.23	67.0055	8,282.23	63.5756	8,282.23	51.5039	8,282.23	64.8768	8,282.23	43.9996	8,282.23	63.529	8,282.23	52.924	8,282.23	65.9864	8,282.23	61.9936	8,282.23	62.2295	8,282.23	46.2439	8,282.23	65.1147	8,282.23	52.7387	8,282.23	65.2848	8,282.23	41.2093	8,282.23	60.2019
8,573.73	85.0261	8,573.73	84.6973	8,573.73	84.3798	8,573.73	83.604	8,573.73	83.6322	8,573.73	82.7479	8,573.73	82.0603	8,573.73	81.9632	8,573.73	79.9381	8,573.73	78.069	8,573.73	77.7692	8,573.73	76.271	8,573.73	71.1592	8,573.73	72.0014	8,573.73	72.5395	8,573.73	68.0515	8,573.73	69.408	8,573.73	63.0666	8,573.73	66.6931	8,573.73	61.7755	8,573.73	68.057	8,573.73	60.0354	8,573.73	56.7203	8,573.73	62.2449	8,573.73	44.9525	8,573.73	59.7958	8,573.73	57.0482	8,573.73	64.5825	8,573.73	60.5769	8,573.73	59.3709	8,573.73	47.4365	8,573.73	62.8529	8,573.73	49.4488	8,573.73	63.5795	8,573.73	32.9611	8,573.73	57.6814
8,876.95	85.2305	8,876.95	84.3817	8,876.95	84.2432	8,876.95	83.7238	8,876.95	84.0477	8,876.95	83.2149	8,876.95	81.8569	8,876.95	81.1645	8,876.95	79.9233	8,876.95	77.1473	8,876.95	75.7167	8,876.95	74.5388	8,876.95	66.6088	8,876.95	68.5144	8,876.95	72.0776	8,876.95	67.6784	8,876.95	70.8259	8,876.95	64.0985	8,876.95	67.1796	8,876.95	59.0966	8,876.95	63.7145	8,876.95	60.7712	8,876.95	56.9108	8,876.95	62.0191	8,876.95	54.007	8,876.95	60.4928	8,876.95	52.4909	8,876.95	63.9942	8,876.95	54.8069	8,876.95	60.0918	8,876.95	40.699	8,876.95	61.5133	8,876.95	46.4369	8,876.95	62.5442	8,876.95	46.4214	8,876.95	57.3083
9,188.96	84.745	9,188.96	84.3763	9,188.96	84.0977	9,188.96	84.2571	9,188.96	84.2555	9,188.96	83.2668	9,188.96	81.7835	9,188.96	80.8308	9,188.96	78.9512	9,188.96	77.5618	9,188.96	73.8037	9,188.96	73.4481	9,188.96	68.3933	9,188.96	69.4224	9,188.96	70.3467	9,188.96	68.5403	9,188.96	69.0913	9,188.96	65.0227	9,188.96	60.8046	9,188.96	64.0287	9,188.96	58.3754	9,188.96	61.6561	9,188.96	55.112	9,188.96	64.0039	9,188.96	53.564	9,188.96	60.2508	9,188.96	52.543	9,188.96	65.0784	9,188.96	54.0497	9,188.96	63.3285	9,188.96	42.5977	9,188.96	62.0389	9,188.96	49.272	9,188.96	63.3266	9,188.96	50.7811	9,188.96	58.3747
9,514.16	85.065	9,514.16	84.7463	9,514.16	83.9043	9,514.16	84.6845	9,514.16	84.4636	9,514.16	83.2814	9,514.16	81.4886	9,514.16	80.9163	9,514.16	78.2947	9,514.16	77.0488	9,514.16	71.9258	9,514.16	74.5191	9,514.16	74.7359	9,514.16	71.0104	9,514.16	70.377	9,514.16	70.9185	9,514.16	65.8824	9,514.16	67.46	9,514.16	60.6307	9,514.16	63.2506	9,514.16	63.2988	9,514.16	62.256	9,514.16	46.6475	9,514.16	63.6762	9,514.16	51.739	9,514.16	63.3898	9,514.16	52.6933	9,514.16	65.3111	9,514.16	53.7013	9,514.16	64.0138	9,514.16	46.032	9,514.16	62.2343	9,514.16	49.7729	9,514.16	64.4583	9,514.16	50.7916	9,514.16	59.5942
9,849.61	85.1681	9,849.61	85.0188	9,849.61	84.0107	9,849.61	85.1078	9,849.61	84.8337	9,849.61	82.9162	9,849.61	82.0238	9,849.61	81.1697	9,849.61	75.3171	9,849.61	76.2238	9,849.61	71.1499	9,849.61	75.7327	9,849.61	75.7118	9,849.61	72.0235	9,849.61	68.7918	9,849.61	70.4448	9,849.61	65.7205	9,849.61	67.0646	9,849.61	61.8343	9,849.61	63.6053	9,849.61	67.3644	9,849.61	64.1226	9,849.61	59.9582	9,849.61	63.8756	9,849.61	55.0055	9,849.61	63.2066	9,849.61	52.9991	9,849.61	65.5271	9,849.61	51.6091	9,849.61	63.3863	9,849.61	46.7693	9,849.61	62.3339	9,849.61	49.6493	9,849.61	65.2066	9,849.61	50.924	9,849.61	59.8284
10,196.8	85.5795	10,196.8	85.1865	10,196.8	84.0465	10,196.8	85.2849	10,196.8	84.6839	10,196.8	82.5083	10,196.8	82.3223	10,196.8	80.7612	10,196.8	75.3242	10,196.8	76.4485	10,196.8	71.7645	10,196.8	76.3296	10,196.8	73.9103	10,196.8	72.4643	10,196.8	69.5893	10,196.8	70.4408	10,196.8	66.8886	10,196.8	67.1838	10,196.8	61.6963	10,196.8	64.7386	10,196.8	61.0684	10,196.8	62.4563	10,196.8	56.8641	10,196.8	64.4267	10,196.8	47.9195	10,196.8	63.6967	10,196.8	53.7681	10,196.8	64.6182	10,196.8	56.0855	10,196.8	63.235	10,196.8	41.7445	10,196.8	62.7408	10,196.8	49.4038	10,196.8	65.3958	10,196.8	50.4333	10,196.8	59.0112
10,555.7	86.0064	10,555.7	85.1951	10,555.7	84.3991	10,555.7	85.0909	10,555.7	84.7692	10,555.7	82.7747	10,555.7	80.8692	10,555.7	79.3868	10,555.7	78.1205	10,555.7	77.6733	10,555.7	73.6013	10,555.7	76.9153	10,555.7	69.7907	10,555.7	72.3544	10,555.7	71.2046	10,555.7	71.3179	10,555.7	68.2663	10,555.7	67.2351	10,555.7	63.7293	10,555.7	63.1727	10,555.7	61.0757	10,555.7	61.7545	10,555.7	55.1118	10,555.7	63.1464	10,555.7	49.7486	10,555.7	63.8618	10,555.7	51.6393	10,555.7	63.698	10,555.7	51.2746	10,555.7	63.4887	10,555.7	44.3866	10,555.7	62.1902	10,555.7	47.9884	10,555.7	64.3228	10,555.7	49.9055	10,555.7	58.2328
10,927.7	86.2834	10,927.7	85.1613	10,927.7	84.1299	10,927.7	85.1846	10,927.7	84.4007	10,927.7	82.1834	10,927.7	81.1443	10,927.7	79.9445	10,927.7	76.7353	10,927.7	78.0796	10,927.7	75.6647	10,927.7	77.1103	10,927.7	71.3776	10,927.7	72.3071	10,927.7	72.3796	10,927.7	70.5308	10,927.7	67.6539	10,927.7	66.4651	10,927.7	63.0288	10,927.7	62.0484	10,927.7	60.4416	10,927.7	63.5827	10,927.7	37.7422	10,927.7	63.1327	10,927.7	40.914	10,927.7	62.8521	10,927.7	56.6324	10,927.7	64.2176	10,927.7	49.134	10,927.7	63.0698	10,927.7	47.7468	10,927.7	61.5711	10,927.7	40.1148	10,927.7	64.0883	10,927.7	47.441	10,927.7	58.133
11,313	86.3893	11,313	85.9308	11,313	84.5202	11,313	85.477	11,313	83.8085	11,313	81.1189	11,313	81.1945	11,313	81.2637	11,313	77.6267	11,313	78.0451	11,313	76.4274	11,313	76.6367	11,313	74.8035	11,313	72.379	11,313	72.0666	11,313	70.0936	11,313	64.9863	11,313	66.2285	11,313	59.1552	11,313	62.043	11,313	61.9123	11,313	61.0628	11,313	46.837	11,313	62.6889	11,313	50.9922	11,313	62.5192	11,313	55.3363	11,313	63.4149	11,313	45.6666	11,313	62.4873	11,313	52.944	11,313	57.9095	11,313	47.0569	11,313	64.0595	11,313	49.0506	11,313	57.8211
11,712.9	86.1969	11,712.9	86.0526	11,712.9	84.6476	11,712.9	85.1294	11,712.9	82.9596	11,712.9	81.5692	11,712.9	80.8951	11,712.9	81.9408	11,712.9	78.6203	11,712.9	77.9446	11,712.9	76.2802	11,712.9	76.4175	11,712.9	72.2746	11,712.9	72.6399	11,712.9	63.8213	11,712.9	69.7727	11,712.9	70.0866	11,712.9	64.3385	11,712.9	62.9389	11,712.9	60.5292	11,712.9	62.5988	11,712.9	59.2775	11,712.9	46.6426	11,712.9	60.8831	11,712.9	53.8389	11,712.9	61.9199	11,712.9	54.3087	11,712.9	61.2743	11,712.9	44.8555	11,712.9	60.4782	11,712.9	44.285	11,712.9	57.8649	11,712.9	47.4246	11,712.9	62.2335	11,712.9	45.461	11,712.9	56.2445
12,126	86.3421	12,126	86.1382	12,126	84.2335	12,126	84.8521	12,126	82.3313	12,126	82.7101	12,126	80.2186	12,126	81.9644	12,126	78.4647	12,126	77.9958	12,126	76.3101	12,126	77.3965	12,126	69.3418	12,126	71.1458	12,126	68.9643	12,126	67.6168	12,126	70.2325	12,126	62.7723	12,126	63.9386	12,126	59.9304	12,126	62.1241	12,126	60.5106	12,126	50.8267	12,126	59.8516	12,126	47.242	12,126	63.281	12,126	51.7094	12,126	60.1834	12,126	47.3352	12,126	60.8828	12,126	47.8493	12,126	57.3725	12,126	48.3335	12,126	62.0688	12,126	47.0588	12,126	55.6222
12,553.7	86.6369	12,553.7	85.9976	12,553.7	83.5873	12,553.7	85.3451	12,553.7	81.5744	12,553.7	83.4536	12,553.7	79.6406	12,553.7	82.1741	12,553.7	80.7291	12,553.7	78.7002	12,553.7	76.9598	12,553.7	77.0944	12,553.7	74.4461	12,553.7	70.351	12,553.7	71.5654	12,553.7	67.2113	12,553.7	71.1558	12,553.7	65.5973	12,553.7	62.8872	12,553.7	60.5166	12,553.7	56.3769	12,553.7	60.4812	12,553.7	54.0397	12,553.7	59.8253	12,553.7	44.8814	12,553.7	63.3298	12,553.7	44.2085	12,553.7	60.0163	12,553.7	47.969	12,553.7	61.5089	12,553.7	50.6732	12,553.7	58.6335	12,553.7	44.1547	12,553.7	62.6936	12,553.7	49.182	12,553.7	54.9589
12,996.1	86.7072	12,996.1	86.3803	12,996.1	83.6337	12,996.1	86.7019	12,996.1	81.0918	12,996.1	83.7074	12,996.1	80.7273	12,996.1	82.2719	12,996.1	79.6428	12,996.1	78.8391	12,996.1	76.6359	12,996.1	75.6232	12,996.1	74.5681	12,996.1	70.4119	12,996.1	70.8362	12,996.1	67.5891	12,996.1	68.2691	12,996.1	64.3575	12,996.1	64.6744	12,996.1	58.7931	12,996.1	64.2904	12,996.1	58.9771	12,996.1	54.9642	12,996.1	59.3539	12,996.1	52.5331	12,996.1	62.1375	12,996.1	36.6421	12,996.1	59.4897	12,996.1	48.2812	12,996.1	60.8141	12,996.1	50.8678	12,996.1	58.6742	12,996.1	44.1653	12,996.1	62.6286	12,996.1	44.065	12,996.1	53.651
13,454.6	86.8543	13,454.6	86.9286	13,454.6	84.3769	13,454.6	87.6539	13,454.6	82.0889	13,454.6	84.0113	13,454.6	81.2939	13,454.6	82.9044	13,454.6	80.1703	13,454.6	77.5321	13,454.6	76.9491	13,454.6	75.2482	13,454.6	73.9667	13,454.6	69.6496	13,454.6	66.6853	13,454.6	66.3887	13,454.6	65.4909	13,454.6	61.8091	13,454.6	62.5203	13,454.6	57.3828	13,454.6	63.9701	13,454.6	55.2421	13,454.6	54.878	13,454.6	57.2508	13,454.6	55.6392	13,454.6	59.6354	13,454.6	51.2322	13,454.6	56.3833	13,454.6	34.0416	13,454.6	57.2972	13,454.6	47.8788	13,454.6	57.1213	13,454.6	40.4734	13,454.6	61.4982	13,454.6	46.8928	13,454.6	52.5321
13,929.2	87.1433	13,929.2	87.2893	13,929.2	85.8777	13,929.2	87.9722	13,929.2	83.4888	13,929.2	84.319	13,929.2	81.318	13,929.2	82.5709	13,929.2	80.9824	13,929.2	76.2523	13,929.2	76.9866	13,929.2	73.5888	13,929.2	74.2651	13,929.2	67.1221	13,929.2	65.2885	13,929.2	62.0265	13,929.2	68.1515	13,929.2	54.9066	13,929.2	56.1914	13,929.2	52.7099	13,929.2	64.5102	13,929.2	50.3803	13,929.2	50.6121	13,929.2	53.5647	13,929.2	53.6755	13,929.2	54.9314	13,929.2	46.1598	13,929.2	50.9457	13,929.2	44.4508	13,929.2	52.464	13,929.2	47.5767	13,929.2	53.4657	13,929.2	46.9893	13,929.2	57.8247	13,929.2	44.2347	13,929.2	48.1365
14,419.9	88.1469	14,419.9	87.9601	14,419.9	87.296	14,419.9	87.9983	14,419.9	85.1138	14,419.9	83.969	14,419.9	81.8848	14,419.9	81.5039	14,419.9	79.8151	14,419.9	75.0163	14,419.9	76.4943	14,419.9	70.9771	14,419.9	72.8096	14,419.9	60.8503	14,419.9	65.9449	14,419.9	54.565	14,419.9	68.1041	14,419.9	55.4314	14,419.9	35.3348	14,419.9	50.7435	14,419.9	63.7546	14,419.9	49.9035	14,419.9	47.2557	14,419.9	51.3827	14,419.9	46.3886	14,419.9	51.196	14,419.9	46.5156	14,419.9	43.3582	14,419.9	42.1653	14,419.9	49.0406	14,419.9	43.5837	14,419.9	49.765	14,419.9	41.9227	14,419.9	54.103	14,419.9	48.3071	14,419.9	40.0951
14,928.2	88.9621	14,928.2	88.649	14,928.2	87.9988	14,928.2	87.9617	14,928.2	85.7496	14,928.2	82.9351	14,928.2	82.6108	14,928.2	80.4655	14,928.2	80.0615	14,928.2	73.1959	14,928.2	76.4343	14,928.2	68.4754	14,928.2	70.1973	14,928.2	58.3794	14,928.2	65.8564	14,928.2	52.9972	14,928.2	59.7445	14,928.2	53.6348	14,928.2	47.3452	14,928.2	45.0296	14,928.2	61.9081	14,928.2	50.3703	14,928.2	45.3241	14,928.2	50.01	14,928.2	43.9196	14,928.2	45.2322	14,928.2	47.6891	14,928.2	47.8637	14,928.2	41.0179	14,928.2	51.828	14,928.2	39.8187	14,928.2	49.2358	14,928.2	40.5474	14,928.2	51.8163	14,928.2	48.3193	14,928.2	29.3997
15,455.6	89.0416	15,455.6	88.7812	15,455.6	88.092	15,455.6	87.6884	15,455.6	86.0928	15,455.6	82.0138	15,455.6	83.214	15,455.6	79.1172	15,455.6	80.4989	15,455.6	70.0432	15,455.6	75.4278	15,455.6	62.4744	15,455.6	70.9019	15,455.6	46.6301	15,455.6	63.7298	15,455.6	52.1592	15,455.6	55.3972	15,455.6	57.1488	15,455.6	43.2426	15,455.6	49.8974	15,455.6	60.6861	15,455.6	50.9672	15,455.6	47.7178	15,455.6	51.6932	15,455.6	48.1103	15,455.6	50.9133	15,455.6	44.9789	15,455.6	52.4855	15,455.6	38.1085	15,455.6	52.8828	15,455.6	36.3973	15,455.6	45.3436	15,455.6	43.5892	15,455.6	48.8474	15,455.6	45.2434	15,455.6	42.5428
16,000.5	88.775	16,000.5	88.3569	16,000.5	87.9553	16,000.5	86.8605	16,000.5	86.5416	16,000.5	80.4704	16,000.5	83.66	16,000.5	76.7469	16,000.5	80.9788	16,000.5	62.5121	16,000.5	75.2426	16,000.5	52.7454	16,000.5	72.3847	16,000.5	63.1434	16,000.5	58.4244	16,000.5	61.2717	16,000.5	60.5312	16,000.5	61.2706	16,000.5	51.9747	16,000.5	54.1023	16,000.5	59.1227	16,000.5	52.7374	16,000.5	48.4315	16,000.5	54.8787	16,000.5	41.6074	16,000.5	55.1001	16,000.5	47.9205	16,000.5	54.8971	16,000.5	38.6436	16,000.5	55.8675	16,000.5	39.1729	16,000.5	48.6757	16,000.5	41.0943	16,000.5	52.5544	16,000.5	41.4542	16,000.5	46.1042
16,564.5	88.502	16,564.5	87.9182	16,564.5	87.6778	16,564.5	85.8724	16,564.5	86.2422	16,564.5	78.1006	16,564.5	83.2579	16,564.5	73.0523	16,564.5	79.3818	16,564.5	60.7788	16,564.5	74.6384	16,564.5	66.8302	16,564.5	70.0313	16,564.5	67.0985	16,564.5	64.0393	16,564.5	62.9538	16,564.5	58.4413	16,564.5	62.3789	16,564.5	44.9218	16,564.5	55.6092	16,564.5	57.7819	16,564.5	52.2847	16,564.5	46.6672	16,564.5	56.6094	16,564.5	42.4163	16,564.5	56.6289	16,564.5	46.5277	16,564.5	55.9265	16,564.5	39.8235	16,564.5	57.1091	16,564.5	45.7387	16,564.5	52.098	16,564.5	28.0176	16,564.5	54.6869	16,564.5	32.0888	16,564.5	46.8551
17,148.9	87.8163	17,148.9	87.0274	17,148.9	87.2323	17,148.9	84.139	17,148.9	85.3747	17,148.9	74.3135	17,148.9	82.4318	17,148.9	67.4936	17,148.9	77.5844	17,148.9	68.5221	17,148.9	71.6371	17,148.9	70.7288	17,148.9	67.568	17,148.9	69.0679	17,148.9	57.37	17,148.9	63.6829	17,148.9	55.8963	17,148.9	62.8053	17,148.9	54.3108	17,148.9	56.9957	17,148.9	57.7047	17,148.9	52.7696	17,148.9	29.8802	17,148.9	57.438	17,148.9	21.516	17,148.9	57.0572	17,148.9	40.4824	17,148.9	56.5103	17,148.9	45.0652	17,148.9	57.8247	17,148.9	38.0184	17,148.9	52.3867	17,148.9	29.5896	17,148.9	55.7979	17,148.9	35.1239	17,148.9	48.322
17,752.4	86.8648	17,752.4	85.4933	17,752.4	86.7299	17,752.4	81.65	17,752.4	84.6172	17,752.4	69.6819	17,752.4	81.0257	17,752.4	68.5244	17,752.4	76.7623	17,752.4	71.3172	17,752.4	69.2822	17,752.4	72.2439	17,752.4	67.9978	17,752.4	69.3281	17,752.4	58.8443	17,752.4	63.2844	17,752.4	55.6589	17,752.4	61.9132	17,752.4	54.5269	17,752.4	55.8846	17,752.4	58.5311	17,752.4	51.4403	17,752.4	46.4849	17,752.4	56.7672	17,752.4	36.5652	17,752.4	55.7242	17,752.4	40.2693	17,752.4	56.0538	17,752.4	36.294	17,752.4	56.8356	17,752.4	35.1713	17,752.4	49.3725	17,752.4	26.6581	17,752.4	56.0601	17,752.4	38.0046	17,752.4	49.3823
18,379.4	86.345	18,379.4	84.6778	18,379.4	86.4671	18,379.4	80.0698	18,379.4	84.3735	18,379.4	68.3449	18,379.4	80.3449	18,379.4	69.4759	18,379.4	76.3818	18,379.4	71.6539	18,379.4	69.6571	18,379.4	71.4138	18,379.4	66.9579	18,379.4	67.3368	18,379.4	62.5558	18,379.4	61.6858	18,379.4	59.0177	18,379.4	60.3459	18,379.4	54.8853	18,379.4	53.1108	18,379.4	57.4775	18,379.4	48.4744	18,379.4	47.5879	18,379.4	53.2927	18,379.4	31.8405	18,379.4	52.9457	18,379.4	40.4861	18,379.4	53.9806	18,379.4	40.5566	18,379.4	54.3838	18,379.4	31.5445	18,379.4	44.7114	18,379.4	31.4409	18,379.4	53.7904	18,379.4	42.4277	18,379.4	48.4462
19,026.9	86.0977	19,026.9	83.8619	19,026.9	86.1005	19,026.9	78.8878	19,026.9	84.2386	19,026.9	69.6436	19,026.9	80.1726	19,026.9	71.7938	19,026.9	77.11	19,026.9	72.077	19,026.9	70.9035	19,026.9	70.3009	19,026.9	65.8756	19,026.9	66.4983	19,026.9	58.2683	19,026.9	62.009	19,026.9	60.811	19,026.9	59.388	19,026.9	50.2216	19,026.9	51.5943	19,026.9	54.6856	19,026.9	45.7586	19,026.9	50.2225	19,026.9	51.2615	19,026.9	30.5578	19,026.9	51.1446	19,026.9	38.6743	19,026.9	52.2354	19,026.9	34.0949	19,026.9	52.636	19,026.9	25.261	19,026.9	43.6246	19,026.9	24.9863	19,026.9	52.528	19,026.9	45.3488	19,026.9	46.4312
19,697.8	85.3304	19,697.8	82.5847	19,697.8	85.4203	19,697.8	78.5542	19,697.8	83.9896	19,697.8	71.9003	19,697.8	80.6024	19,697.8	73.7687	19,697.8	78.0983	19,697.8	71.9968	19,697.8	73.9568	19,697.8	69.2061	19,697.8	67.7677	19,697.8	65.7022	19,697.8	59.9491	19,697.8	59.083	19,697.8	59.408	19,697.8	56.2999	19,697.8	53.4611	19,697.8	50.9763	19,697.8	46.923	19,697.8	37.1625	19,697.8	52.1941	19,697.8	50.1685	19,697.8	42.992	19,697.8	47.5924	19,697.8	42.4507	19,697.8	48.3267	19,697.8	41.8802	19,697.8	51.3406	19,697.8	41.2363	19,697.8	42.2754	19,697.8	24.74	19,697.8	51.3267	19,697.8	48.1176	19,697.8	44.4603
19,999.5	84.8056	19,999.5	82.0337	19,999.5	85.1743	19,999.5	78.359	19,999.5	83.6115	19,999.5	71.4467	19,999.5	80.7772	19,999.5	74.5127	19,999.5	78.1857	19,999.5	71.5056	19,999.5	75.5127	19,999.5	69.2464	19,999.5	70.8617	19,999.5	65.5909	19,999.5	55.8051	19,999.5	57.9264	19,999.5	59.054	19,999.5	54.4878	19,999.5	60.22	19,999.5	48.9906	19,999.5	45.7763	19,999.5	45.2726	19,999.5	48.8411	19,999.5	50.4043	19,999.5	50.9253	19,999.5	44.9581	19,999.5	45.5649	19,999.5	45.9344	19,999.5	49.3369	19,999.5	55.2488	19,999.5	44.9583	19,999.5	49.0557	19,999.5	45.6992	19,999.5	42.9218	19,999.5	48.3549	19,999.5	43.4191
