"SPL Horizontal"
"On-Axis"		"10°"		"-10°"		"20°"		"-20°"		"30°"		"-30°"		"40°"		"-40°"		"50°"		"-50°"		"60°"		"-60°"		"70°"		"-70°"		"80°"		"-80°"		"90°"		"-90°"		"100°"		"-100°"		"110°"		"-110°"		"120°"		"-120°"		"130°"		"-130°"		"140°"		"-140°"		"150°"		"-150°"		"160°"		"-160°"		"170°"		"-170°"		"180°"
"Frequency [Hz]"	"Sound Pessure Level [dB]  / [2.83V 1m] "	"Frequency [Hz]"	"Sound Pessure Level [dB]  / [2.83V 1m] "	"Frequency [Hz]"	"Sound Pessure Level [dB]  / [2.83V 1m] "	"Frequency [Hz]"	"Sound Pessure Level [dB]  / [2.83V 1m] "	"Frequency [Hz]"	"Sound Pessure Level [dB]  / [2.83V 1m] "	"Frequency [Hz]"	"Sound Pessure Level [dB]  / [2.83V 1m] "	"Frequency [Hz]"	"Sound Pessure Level [dB]  / [2.83V 1m] "	"Frequency [Hz]"	"Sound Pessure Level [dB]  / [2.83V 1m] "	"Frequency [Hz]"	"Sound Pessure Level [dB]  / [2.83V 1m] "	"Frequency [Hz]"	"Sound Pessure Level [dB]  / [2.83V 1m] "	"Frequency [Hz]"	"Sound Pessure Level [dB]  / [2.83V 1m] "	"Frequency [Hz]"	"Sound Pessure Level [dB]  / [2.83V 1m] "	"Frequency [Hz]"	"Sound Pessure Level [dB]  / [2.83V 1m] "	"Frequency [Hz]"	"Sound Pessure Level [dB]  / [2.83V 1m] "	"Frequency [Hz]"	"Sound Pessure Level [dB]  / [2.83V 1m] "	"Frequency [Hz]"	"Sound Pessure Level [dB]  / [2.83V 1m] "	"Frequency [Hz]"	"Sound Pessure Level [dB]  / [2.83V 1m] "	"Frequency [Hz]"	"Sound Pessure Level [dB]  / [2.83V 1m] "	"Frequency [Hz]"	"Sound Pessure Level [dB]  / [2.83V 1m] "	"Frequency [Hz]"	"Sound Pessure Level [dB]  / [2.83V 1m] "	"Frequency [Hz]"	"Sound Pessure Level [dB]  / [2.83V 1m] "	"Frequency [Hz]"	"Sound Pessure Level [dB]  / [2.83V 1m] "	"Frequency [Hz]"	"Sound Pessure Level [dB]  / [2.83V 1m] "	"Frequency [Hz]"	"Sound Pessure Level [dB]  / [2.83V 1m] "	"Frequency [Hz]"	"Sound Pessure Level [dB]  / [2.83V 1m] "	"Frequency [Hz]"	"Sound Pessure Level [dB]  / [2.83V 1m] "	"Frequency [Hz]"	"Sound Pessure Level [dB]  / [2.83V 1m] "	"Frequency [Hz]"	"Sound Pessure Level [dB]  / [2.83V 1m] "	"Frequency [Hz]"	"Sound Pessure Level [dB]  / [2.83V 1m] "	"Frequency [Hz]"	"Sound Pessure Level [dB]  / [2.83V 1m] "	"Frequency [Hz]"	"Sound Pessure Level [dB]  / [2.83V 1m] "	"Frequency [Hz]"	"Sound Pessure Level [dB]  / [2.83V 1m] "	"Frequency [Hz]"	"Sound Pessure Level [dB]  / [2.83V 1m] "	"Frequency [Hz]"	"Sound Pessure Level [dB]  / [2.83V 1m] "	"Frequency [Hz]"	"Sound Pessure Level [dB]  / [2.83V 1m] "	"Frequency [Hz]"	"Sound Pessure Level [dB]  / [2.83V 1m] "
20.5078	60.4368	20.5078	60.4568	20.5078	60.4044	20.5078	60.4668	20.5078	60.3582	20.5078	60.4706	20.5078	60.2981	20.5078	60.4724	20.5078	60.2244	20.5078	60.4761	20.5078	60.1379	20.5078	60.4846	20.5078	60.0404	20.5078	60.4985	20.5078	59.934	20.5078	60.5164	20.5078	59.822	20.5078	60.5351	20.5078	59.7087	20.5078	60.55	20.5078	59.6	20.5078	60.5553	20.5078	59.5039	20.5078	60.5444	20.5078	59.4305	20.5078	60.5101	20.5078	59.3914	20.5078	60.4455	20.5078	59.3972	20.5078	60.3466	20.5078	59.454	20.5078	60.2137	20.5078	59.5608	20.5078	60.0532	20.5078	59.7078	20.5078	59.8785
21.9727	62.9819	21.9727	62.976	21.9727	62.9739	21.9727	62.957	21.9727	62.9513	21.9727	62.926	21.9727	62.9141	21.9727	62.8844	21.9727	62.8634	21.9727	62.8342	21.9727	62.8011	21.9727	62.778	21.9727	62.7307	21.9727	62.7195	21.9727	62.6567	21.9727	62.6628	21.9727	62.5843	21.9727	62.6114	21.9727	62.5181	21.9727	62.5676	21.9727	62.4618	21.9727	62.5313	21.9727	62.417	21.9727	62.5008	21.9727	62.3833	21.9727	62.4733	21.9727	62.3594	21.9727	62.4465	21.9727	62.3434	21.9727	62.4193	21.9727	62.3344	21.9727	62.3925	21.9727	62.3321	21.9727	62.3683	21.9727	62.3369	21.9727	62.3492
23.4375	63.7734	23.4375	63.7952	23.4375	63.7364	23.4375	63.8027	23.4375	63.6843	23.4375	63.797	23.4375	63.6177	23.4375	63.7799	23.4375	63.5381	23.4375	63.7537	23.4375	63.4477	23.4375	63.7203	23.4375	63.3498	23.4375	63.6815	23.4375	63.2485	23.4375	63.6386	23.4375	63.1483	23.4375	63.5922	23.4375	63.054	23.4375	63.5422	23.4375	62.9702	23.4375	63.4885	23.4375	62.9016	23.4375	63.4305	23.4375	62.852	23.4375	63.3679	23.4375	62.8243	23.4375	63.3002	23.4375	62.82	23.4375	63.228	23.4375	62.8387	23.4375	63.1524	23.4375	62.8779	23.4375	63.0756	23.4375	62.9337	23.4375	63.0013
24.9023	64.6144	24.9023	64.5986	24.9023	64.6155	24.9023	64.5696	24.9023	64.6006	24.9023	64.5295	24.9023	64.5692	24.9023	64.4806	24.9023	64.5209	24.9023	64.4255	24.9023	64.4567	24.9023	64.3665	24.9023	64.3785	24.9023	64.3054	24.9023	64.2898	24.9023	64.2432	24.9023	64.195	24.9023	64.1803	24.9023	64.0987	24.9023	64.1166	24.9023	64.0058	24.9023	64.0521	24.9023	63.9201	24.9023	63.9874	24.9023	63.8445	24.9023	63.9235	24.9023	63.7814	24.9023	63.8623	24.9023	63.7324	24.9023	63.8061	24.9023	63.6986	24.9023	63.7573	24.9023	63.6806	24.9023	63.7183	24.9023	63.6784	24.9023	63.6914
26.3672	65.9222	26.3672	65.9477	26.3672	65.8889	26.3672	65.9649	26.3672	65.8484	26.3672	65.9731	26.3672	65.8016	26.3672	65.9719	26.3672	65.7495	26.3672	65.961	26.3672	65.6934	26.3672	65.9402	26.3672	65.6353	26.3672	65.9101	26.3672	65.5773	26.3672	65.8715	26.3672	65.5219	26.3672	65.8258	26.3672	65.4714	26.3672	65.7748	26.3672	65.428	26.3672	65.7205	26.3672	65.393	26.3672	65.665	26.3672	65.3676	26.3672	65.6103	26.3672	65.3519	26.3672	65.5584	26.3672	65.3457	26.3672	65.5107	26.3672	65.3483	26.3672	65.4681	26.3672	65.3588	26.3672	65.4314	26.3672	65.3765	26.3672	65.4008
27.832	66.591	27.832	66.5837	27.832	66.5894	27.832	66.5688	27.832	66.5784	27.832	66.5476	27.832	66.5576	27.832	66.5217	27.832	66.5273	27.832	66.4927	27.832	66.488	27.832	66.4617	27.832	66.441	27.832	66.4291	27.832	66.3884	27.832	66.3947	27.832	66.3323	27.832	66.3583	27.832	66.2749	27.832	66.3192	27.832	66.2186	27.832	66.2773	27.832	66.165	27.832	66.2331	27.832	66.1157	27.832	66.1873	27.832	66.0722	27.832	66.1413	27.832	66.0363	27.832	66.0973	27.832	66.01	27.832	66.0577	27.832	65.995	27.832	66.0254	27.832	65.9926	27.832	66.003
29.2969	67.2613	29.2969	67.2673	29.2969	67.2453	29.2969	67.2629	29.2969	67.2199	29.2969	67.2481	29.2969	67.1858	29.2969	67.2233	29.2969	67.144	29.2969	67.1892	29.2969	67.0955	29.2969	67.1468	29.2969	67.0416	29.2969	67.0971	29.2969	66.9836	29.2969	67.0416	29.2969	66.9233	29.2969	66.9819	29.2969	66.8622	29.2969	66.9199	29.2969	66.8018	29.2969	66.8576	29.2969	66.7438	29.2969	66.7967	29.2969	66.6897	29.2969	66.7392	29.2969	66.6416	29.2969	66.6867	29.2969	66.6014	29.2969	66.6405	29.2969	66.5712	29.2969	66.6019	29.2969	66.5527	29.2969	66.5725	29.2969	66.5468	29.2969	66.5537
30.7617	68.4019	30.7617	68.4085	30.7617	68.3836	30.7617	68.4032	30.7617	68.354	30.7617	68.386	30.7617	68.3141	30.7617	68.3571	30.7617	68.2647	30.7617	68.3171	30.7617	68.2074	30.7617	68.2667	30.7617	68.1435	30.7617	68.207	30.7617	68.0746	30.7617	68.1395	30.7617	68.0023	30.7617	68.0661	30.7617	67.9282	30.7617	67.9891	30.7617	67.8538	30.7617	67.9109	30.7617	67.7807	30.7617	67.834	30.7617	67.7111	30.7617	67.7607	30.7617	67.6476	30.7617	67.6933	30.7617	67.5934	30.7617	67.6336	30.7617	67.5516	30.7617	67.5839	30.7617	67.525	30.7617	67.5461	30.7617	67.5153	30.7617	67.5227
32.2266	69.0338	32.2266	69.0177	32.2266	69.0395	32.2266	68.992	32.2266	69.0343	32.2266	68.9582	32.2266	69.0181	32.2266	68.9178	32.2266	68.9914	32.2266	68.8726	32.2266	68.9549	32.2266	68.824	32.2266	68.9098	32.2266	68.7731	32.2266	68.8573	32.2266	68.7207	32.2266	68.7994	32.2266	68.6673	32.2266	68.738	32.2266	68.6135	32.2266	68.6753	32.2266	68.5603	32.2266	68.6133	32.2266	68.5091	32.2266	68.5543	32.2266	68.4619	32.2266	68.5002	32.2266	68.4209	32.2266	68.4528	32.2266	68.3882	32.2266	68.4133	32.2266	68.3653	32.2266	68.3828	32.2266	68.3532	32.2266	68.3622	32.2266	68.3522
33.6914	70.0192	33.6914	70.0065	33.6914	70.0225	33.6914	69.9846	33.6914	70.0164	33.6914	69.9537	33.6914	70.0009	33.6914	69.9143	33.6914	69.9762	33.6914	69.8671	33.6914	69.943	33.6914	69.8131	33.6914	69.902	33.6914	69.7536	33.6914	69.8543	33.6914	69.6905	33.6914	69.8013	33.6914	69.6257	33.6914	69.7446	33.6914	69.5614	33.6914	69.686	33.6914	69.5	33.6914	69.6272	33.6914	69.4439	33.6914	69.5696	33.6914	69.3955	33.6914	69.5145	33.6914	69.3569	33.6914	69.4633	33.6914	69.3297	33.6914	69.4172	33.6914	69.3151	33.6914	69.3775	33.6914	69.3133	33.6914	69.3459	33.6914	69.324
35.1562	70.7137	35.1562	70.7031	35.1562	70.7138	35.1562	70.6823	35.1562	70.7035	35.1562	70.6517	35.1562	70.683	35.1562	70.6123	35.1562	70.6528	35.1562	70.5652	35.1562	70.6136	35.1562	70.5118	35.1562	70.5665	35.1562	70.4536	35.1562	70.5126	35.1562	70.3923	35.1562	70.4532	35.1562	70.3294	35.1562	70.39	35.1562	70.2666	35.1562	70.3249	35.1562	70.2054	35.1562	70.2598	35.1562	70.1476	35.1562	70.197	35.1562	70.0953	35.1562	70.1387	35.1562	70.0504	35.1562	70.0871	35.1562	70.0148	35.1562	70.0438	35.1562	69.9901	35.1562	70.0102	35.1562	69.9771	35.1562	69.9875	35.1562	69.9763
36.6211	71.3758	36.6211	71.3709	36.6211	71.3709	36.6211	71.3564	36.6211	71.3566	36.6211	71.3326	36.6211	71.3332	36.6211	71.2999	36.6211	71.3015	36.6211	71.2592	36.6211	71.2625	36.6211	71.2113	36.6211	71.2173	36.6211	71.1577	36.6211	71.1673	36.6211	71.0998	36.6211	71.1138	36.6211	71.0393	36.6211	71.0582	36.6211	70.9781	36.6211	71.0019	36.6211	70.9183	36.6211	70.9463	36.6211	70.8619	36.6211	70.8927	36.6211	70.811	36.6211	70.8425	36.6211	70.7677	36.6211	70.7973	36.6211	70.7334	36.6211	70.7586	36.6211	70.7097	36.6211	70.728	36.6211	70.6973	36.6211	70.7069	36.6211	70.6964
38.0859	71.9937	38.0859	71.9679	38.0859	72.0106	38.0859	71.934	38.0859	72.0182	38.0859	71.893	38.0859	72.0164	38.0859	71.8461	38.0859	72.0054	38.0859	71.7948	38.0859	71.9858	38.0859	71.7408	38.0859	71.9584	38.0859	71.6856	38.0859	71.9241	38.0859	71.6307	38.0859	71.884	38.0859	71.5778	38.0859	71.8391	38.0859	71.528	38.0859	71.7903	38.0859	71.4828	38.0859	71.7384	38.0859	71.4437	38.0859	71.6843	38.0859	71.4119	38.0859	71.6292	38.0859	71.389	38.0859	71.5746	38.0859	71.3761	38.0859	71.5226	38.0859	71.3741	38.0859	71.4753	38.0859	71.3835	38.0859	71.4352	38.0859	71.4041
39.5508	72.8005	39.5508	72.7882	39.5508	72.8034	39.5508	72.7667	39.5508	72.7972	39.5508	72.7367	39.5508	72.7822	39.5508	72.6989	39.5508	72.7593	39.5508	72.6546	39.5508	72.7296	39.5508	72.6053	39.5508	72.6944	39.5508	72.5526	39.5508	72.6551	39.5508	72.4982	39.5508	72.6131	39.5508	72.4438	39.5508	72.5692	39.5508	72.391	39.5508	72.5242	39.5508	72.3415	39.5508	72.4784	39.5508	72.2971	39.5508	72.4324	39.5508	72.2595	39.5508	72.3868	39.5508	72.2303	39.5508	72.3426	39.5508	72.2107	39.5508	72.3016	39.5508	72.2016	39.5508	72.2654	39.5508	72.203	39.5508	72.2359	39.5508	72.2147
41.0156	73.2411	41.0156	73.2281	41.0156	73.2439	41.0156	73.2044	41.0156	73.2373	41.0156	73.1702	41.0156	73.2225	41.0156	73.1262	41.0156	73.2014	41.0156	73.0736	41.0156	73.176	41.0156	73.0143	41.0156	73.1483	41.0156	72.9505	41.0156	73.1207	41.0156	72.8852	41.0156	73.0949	41.0156	72.8215	41.0156	73.0725	41.0156	72.7628	41.0156	73.0537	41.0156	72.7126	41.0156	73.0376	41.0156	72.6741	41.0156	73.0213	41.0156	72.6502	41.0156	73.0013	41.0156	72.6432	41.0156	72.9737	41.0156	72.654	41.0156	72.9362	41.0156	72.682	41.0156	72.8888	41.0156	72.7246	41.0156	72.8341	41.0156	72.7773
42.4805	73.8992	42.4805	73.8875	42.4805	73.8999	42.4805	73.8652	42.4805	73.8898	42.4805	73.8328	42.4805	73.8692	42.4805	73.7914	42.4805	73.8389	42.4805	73.7421	42.4805	73.8001	42.4805	73.6861	42.4805	73.7541	42.4805	73.625	42.4805	73.7024	42.4805	73.5606	42.4805	73.6463	42.4805	73.4951	42.4805	73.5874	42.4805	73.4308	42.4805	73.527	42.4805	73.37	42.4805	73.4666	42.4805	73.3148	42.4805	73.4078	42.4805	73.267	42.4805	73.3522	42.4805	73.2283	42.4805	73.3015	42.4805	73.1996	42.4805	73.2576	42.4805	73.1817	42.4805	73.2218	42.4805	73.1751	42.4805	73.1955	42.4805	73.1798
43.9453	74.4123	43.9453	74.3996	43.9453	74.4139	43.9453	74.3763	43.9453	74.4045	43.9453	74.3429	43.9453	74.3841	43.9453	74.3	43.9453	74.3532	43.9453	74.2488	43.9453	74.3125	43.9453	74.1903	43.9453	74.2634	43.9453	74.126	43.9453	74.2071	43.9453	74.0575	43.9453	74.1456	43.9453	73.987	43.9453	74.081	43.9453	73.9167	43.9453	74.0152	43.9453	73.8492	43.9453	73.9504	43.9453	73.787	43.9453	73.8881	43.9453	73.7327	43.9453	73.8296	43.9453	73.6886	43.9453	73.7761	43.9453	73.6563	43.9453	73.7288	43.9453	73.6371	43.9453	73.6891	43.9453	73.6313	43.9453	73.6585	43.9453	73.6388
45.4102	75.0313	45.4102	75.0231	45.4102	75.0293	45.4102	75.005	45.4102	75.0171	45.4102	74.9771	45.4102	74.9952	45.4102	74.9399	45.4102	74.9639	45.4102	74.894	45.4102	74.9242	45.4102	74.8404	45.4102	74.8773	45.4102	74.7805	45.4102	74.8245	45.4102	74.716	45.4102	74.7675	45.4102	74.6492	45.4102	74.7082	45.4102	74.5828	45.4102	74.6484	45.4102	74.5194	45.4102	74.5897	45.4102	74.4615	45.4102	74.5337	45.4102	74.4115	45.4102	74.4817	45.4102	74.3709	45.4102	74.4347	45.4102	74.3411	45.4102	74.3938	45.4102	74.3227	45.4102	74.3604	45.4102	74.3159	45.4102	74.3355	45.4102	74.3204
46.875	75.6391	46.875	75.6277	46.875	75.6393	46.875	75.6052	46.875	75.6283	46.875	75.572	46.875	75.6067	46.875	75.529	46.875	75.575	46.875	75.4771	46.875	75.5341	46.875	75.4177	46.875	75.485	46.875	75.3523	46.875	75.4287	46.875	75.2824	46.875	75.3666	46.875	75.21	46.875	75.3001	46.875	75.1371	46.875	75.2309	46.875	75.0662	46.875	75.1611	46.875	74.9998	46.875	75.0926	46.875	74.9405	46.875	75.0273	46.875	74.8908	46.875	74.9675	46.875	74.8529	46.875	74.9151	46.875	74.8283	46.875	74.8723	46.875	74.8181	46.875	74.8408	46.875	74.8224
48.3398	76.2541	48.3398	76.2486	48.3398	76.248	48.3398	76.2314	48.3398	76.2305	48.3398	76.2029	48.3398	76.2022	48.3398	76.1638	48.3398	76.1639	48.3398	76.1148	48.3398	76.1168	48.3398	76.0573	48.3398	76.0624	48.3398	75.9928	48.3398	76.0022	48.3398	75.9233	48.3398	75.9379	48.3398	75.8508	48.3398	75.871	48.3398	75.7774	48.3398	75.803	48.3398	75.7054	48.3398	75.7355	48.3398	75.6369	48.3398	75.6699	48.3398	75.5743	48.3398	75.6079	48.3398	75.5197	48.3398	75.5513	48.3398	75.4756	48.3398	75.5023	48.3398	75.444	48.3398	75.4634	48.3398	75.4266	48.3398	75.4368	48.3398	75.4242
51.2695	77.173	51.2695	77.1573	51.2695	77.1775	51.2695	77.1306	51.2695	77.1706	51.2695	77.0935	51.2695	77.1526	51.2695	77.047	51.2695	77.1242	51.2695	76.9923	51.2695	77.0863	51.2695	76.9311	51.2695	77.0399	51.2695	76.865	51.2695	76.9865	51.2695	76.7962	51.2695	76.9277	51.2695	76.727	51.2695	76.8651	51.2695	76.6595	51.2695	76.8004	51.2695	76.596	51.2695	76.7353	51.2695	76.5386	51.2695	76.6713	51.2695	76.4892	51.2695	76.6103	51.2695	76.4495	51.2695	76.5538	51.2695	76.4208	51.2695	76.5036	51.2695	76.4041	51.2695	76.4616	51.2695	76.4	51.2695	76.4295	51.2695	76.4086
52.7344	77.7168	52.7344	77.701	52.7344	77.7217	52.7344	77.6747	52.7344	77.7158	52.7344	77.6385	52.7344	77.6995	52.7344	77.5933	52.7344	77.6733	52.7344	77.5406	52.7344	77.6385	52.7344	77.4819	52.7344	77.5961	52.7344	77.4192	52.7344	77.5476	52.7344	77.3546	52.7344	77.4946	52.7344	77.2901	52.7344	77.4386	52.7344	77.2279	52.7344	77.3811	52.7344	77.1699	52.7344	77.3236	52.7344	77.1182	52.7344	77.267	52.7344	77.0744	52.7344	77.2126	52.7344	77.04	52.7344	77.1614	52.7344	77.0166	52.7344	77.1147	52.7344	77.0049	52.7344	77.074	52.7344	77.0053	52.7344	77.0411	52.7344	77.0177
54.1992	78.2278	54.1992	78.2145	54.1992	78.2306	54.1992	78.1909	54.1992	78.2228	54.1992	78.1577	54.1992	78.205	54.1992	78.116	54.1992	78.178	54.1992	78.0672	54.1992	78.143	54.1992	78.0131	54.1992	78.1013	54.1992	77.9557	54.1992	78.0546	54.1992	77.8971	54.1992	78.0045	54.1992	77.8396	54.1992	77.9524	54.1992	77.7849	54.1992	77.8998	54.1992	77.7346	54.1992	77.8478	54.1992	77.6901	54.1992	77.7976	54.1992	77.6523	54.1992	77.75	54.1992	77.6222	54.1992	77.7061	54.1992	77.6005	54.1992	77.6671	54.1992	77.5882	54.1992	77.6344	54.1992	77.5854	54.1992	77.6091	54.1992	77.5925
55.6641	78.7645	55.6641	78.7466	55.6641	78.7709	55.6641	78.7177	55.6641	78.7658	55.6641	78.6786	55.6641	78.7496	55.6641	78.631	55.6641	78.7233	55.6641	78.5766	55.6641	78.6883	55.6641	78.5177	55.6641	78.6461	55.6641	78.4567	55.6641	78.5986	55.6641	78.3961	55.6641	78.5475	55.6641	78.3382	55.6641	78.4947	55.6641	78.285	55.6641	78.4419	55.6641	78.2381	55.6641	78.3904	55.6641	78.1987	55.6641	78.3415	55.6641	78.1676	55.6641	78.2962	55.6641	78.1454	55.6641	78.2552	55.6641	78.1322	55.6641	78.2191	55.6641	78.128	55.6641	78.1882	55.6641	78.1322	55.6641	78.1631	55.6641	78.1442
58.5938	79.6701	58.5938	79.6582	58.5938	79.668	58.5938	79.6328	58.5938	79.6518	58.5938	79.5949	58.5938	79.622	58.5938	79.5456	58.5938	79.5794	58.5938	79.4867	58.5938	79.5253	58.5938	79.4201	58.5938	79.4616	58.5938	79.3482	58.5938	79.3906	58.5938	79.2736	58.5938	79.315	58.5938	79.1987	58.5938	79.2378	58.5938	79.1262	58.5938	79.1619	58.5938	79.0583	58.5938	79.0901	58.5938	78.997	58.5938	79.0246	58.5938	78.9438	58.5938	78.9671	58.5938	78.9	58.5938	78.9189	58.5938	78.8661	58.5938	78.8806	58.5938	78.8427	58.5938	78.8525	58.5938	78.8297	58.5938	78.8347	58.5938	78.827
60.0586	80.1173	60.0586	80.0992	60.0586	80.1212	60.0586	80.0675	60.0586	80.1109	60.0586	80.0232	60.0586	80.0867	60.0586	79.968	60.0586	80.0493	60.0586	79.9036	60.0586	80.0002	60.0586	79.8325	60.0586	79.941	60.0586	79.7571	60.0586	79.874	60.0586	79.6804	60.0586	79.8017	60.0586	79.605	60.0586	79.727	60.0586	79.5336	60.0586	79.6528	60.0586	79.4688	60.0586	79.5818	60.0586	79.4126	60.0586	79.5164	60.0586	79.3665	60.0586	79.4582	60.0586	79.3314	60.0586	79.4083	60.0586	79.3075	60.0586	79.3673	60.0586	79.2943	60.0586	79.3352	60.0586	79.2911	60.0586	79.3118	60.0586	79.2971
62.9883	80.9327	62.9883	80.9172	62.9883	80.9339	62.9883	80.8878	62.9883	80.9209	62.9883	80.8453	62.9883	80.8939	62.9883	80.7909	62.9883	80.8537	62.9883	80.7262	62.9883	80.8013	62.9883	80.6531	62.9883	80.738	62.9883	80.5739	62.9883	80.6656	62.9883	80.491	62.9883	80.586	62.9883	80.4072	62.9883	80.5018	62.9883	80.325	62.9883	80.4157	62.9883	80.247	62.9883	80.3306	62.9883	80.1755	62.9883	80.2497	62.9883	80.1127	62.9883	80.1758	62.9883	80.0603	62.9883	80.1115	62.9883	80.0199	62.9883	80.0585	62.9883	79.9925	62.9883	80.0183	62.9883	79.9784	62.9883	79.9914	62.9883	79.9781
64.4531	81.2662	64.4531	81.2492	64.4531	81.2696	64.4531	81.2193	64.4531	81.2595	64.4531	81.1773	64.4531	81.2361	64.4531	81.1244	64.4531	81.2	64.4531	81.0624	64.4531	81.1521	64.4531	80.9932	64.4531	81.0938	64.4531	80.9191	64.4531	81.0269	64.4531	80.8425	64.4531	80.9532	64.4531	80.766	64.4531	80.8752	64.4531	80.692	64.4531	80.7955	64.4531	80.6228	64.4531	80.7168	64.4531	80.5602	64.4531	80.642	64.4531	80.5059	64.4531	80.5735	64.4531	80.4608	64.4531	80.5137	64.4531	80.426	64.4531	80.4645	64.4531	80.4022	64.4531	80.427	64.4531	80.3899	64.4531	80.4021	64.4531	80.3898
67.3828	81.8077	67.3828	81.784	67.3828	81.8188	67.3828	81.7485	67.3828	81.8171	67.3828	81.7024	67.3828	81.8027	67.3828	81.6472	67.3828	81.7762	67.3828	81.585	67.3828	81.7385	67.3828	81.5184	67.3828	81.691	67.3828	81.4501	67.3828	81.6353	67.3828	81.3829	67.3828	81.5733	67.3828	81.3195	67.3828	81.5075	67.3828	81.2621	67.3828	81.4401	67.3828	81.212	67.3828	81.3738	67.3828	81.1701	67.3828	81.3108	67.3828	81.1366	67.3828	81.2531	67.3828	81.1112	67.3828	81.2027	67.3828	81.0937	67.3828	81.1605	67.3828	81.0841	67.3828	81.1275	67.3828	81.0823	67.3828	81.1036	67.3828	81.0887
68.8477	82.0599	68.8477	82.0371	68.8477	82.0705	68.8477	82.003	68.8477	82.0689	68.8477	81.9587	68.8477	82.0553	68.8477	81.906	68.8477	82.0305	68.8477	81.8471	68.8477	81.9955	68.8477	81.7845	68.8477	81.9519	68.8477	81.7209	68.8477	81.9013	68.8477	81.659	68.8477	81.8456	68.8477	81.6013	68.8477	81.787	68.8477	81.5498	68.8477	81.7277	68.8477	81.5059	68.8477	81.6699	68.8477	81.4704	68.8477	81.6158	68.8477	81.4435	68.8477	81.5669	68.8477	81.4249	68.8477	81.5244	68.8477	81.4141	68.8477	81.4889	68.8477	81.4105	68.8477	81.4603	68.8477	81.4136	68.8477	81.4385	68.8477	81.4229
71.7773	82.7178	71.7773	82.7012	71.7773	82.7222	71.7773	82.6727	71.7773	82.7143	71.7773	82.6336	71.7773	82.6948	71.7773	82.5855	71.7773	82.6648	71.7773	82.5304	71.7773	82.6259	71.7773	82.4708	71.7773	82.5799	71.7773	82.4093	71.7773	82.529	71.7773	82.3488	71.7773	82.4754	71.7773	82.2919	71.7773	82.4212	71.7773	82.2409	71.7773	82.3684	71.7773	82.1977	71.7773	82.3186	71.7773	82.1633	71.7773	82.2733	71.7773	82.138	71.7773	82.2336	71.7773	82.1215	71.7773	82.1999	71.7773	82.1127	71.7773	82.1724	71.7773	82.1106	71.7773	82.1506	71.7773	82.1138	71.7773	82.1339	71.7773	82.1217
74.707	83.2681	74.707	83.2481	74.707	83.275	74.707	83.2158	74.707	83.2687	74.707	83.1724	74.707	83.25	74.707	83.1199	74.707	83.2201	74.707	83.0607	74.707	83.1807	74.707	82.9975	74.707	83.1341	74.707	82.9332	74.707	83.0825	74.707	82.8708	74.707	83.0283	74.707	82.8131	74.707	82.9739	74.707	82.7622	74.707	82.9211	74.707	82.72	74.707	82.8716	74.707	82.6874	74.707	82.8267	74.707	82.6646	74.707	82.7871	74.707	82.6512	74.707	82.7532	74.707	82.6461	74.707	82.7247	74.707	82.6478	74.707	82.7013	74.707	82.655	74.707	82.6821	74.707	82.6666
77.6367	83.738	77.6367	83.7146	77.6367	83.7484	77.6367	83.6793	77.6367	83.7455	77.6367	83.6335	77.6367	83.7297	77.6367	83.5795	77.6367	83.7021	77.6367	83.5199	77.6367	83.6643	77.6367	83.4578	77.6367	83.6184	77.6367	83.396	77.6367	83.5668	77.6367	83.3377	77.6367	83.5123	77.6367	83.2853	77.6367	83.4574	77.6367	83.2409	77.6367	83.4044	77.6367	83.2058	77.6367	83.3552	77.6367	83.1804	77.6367	83.3113	77.6367	83.1643	77.6367	83.2737	77.6367	83.1561	77.6367	83.2426	77.6367	83.1544	77.6367	83.2179	77.6367	83.1574	77.6367	83.1987	77.6367	83.1637	77.6367	83.1839	77.6367	83.1725
79.1016	83.9942	79.1016	83.9681	79.1016	84.0058	79.1016	83.9284	79.1016	84.0027	79.1016	83.8769	79.1016	83.9853	79.1016	83.8159	79.1016	83.9549	79.1016	83.7484	79.1016	83.9134	79.1016	83.6779	79.1016	83.8633	79.1016	83.6081	79.1016	83.8073	79.1016	83.5426	79.1016	83.7487	79.1016	83.4847	79.1016	83.6903	79.1016	83.4369	79.1016	83.6349	79.1016	83.4009	79.1016	83.5846	79.1016	83.3769	79.1016	83.5405	79.1016	83.364	79.1016	83.5033	79.1016	83.3603	79.1016	83.4727	79.1016	83.3637	79.1016	83.4479	79.1016	83.3719	79.1016	83.4277	79.1016	83.383	79.1016	83.4108	79.1016	83.3961
82.0312	84.2729	82.0312	84.2507	82.0312	84.279	82.0312	84.2133	82.0312	84.2692	82.0312	84.1621	82.0312	84.2442	82.0312	84.0993	82.0312	84.2056	82.0312	84.0278	82.0312	84.1555	82.0312	83.9513	82.0312	84.0966	82.0312	83.8734	82.0312	84.032	82.0312	83.7984	82.0312	83.9651	82.0312	83.7302	82.0312	83.8992	82.0312	83.6721	82.0312	83.8373	82.0312	83.6267	82.0312	83.7819	82.0312	83.5948	82.0312	83.7345	82.0312	83.5761	82.0312	83.6957	82.0312	83.5684	82.0312	83.6652	82.0312	83.5691	82.0312	83.6416	82.0312	83.5753	82.0312	83.6233	82.0312	83.5847	82.0312	83.6085	82.0312	83.5959
84.9609	84.5302	84.9609	84.498	84.9609	84.5465	84.9609	84.4511	84.9609	84.5465	84.9609	84.3914	84.9609	84.5303	84.9609	84.3215	84.9609	84.4994	84.9609	84.2444	84.9609	84.4554	84.9609	84.1637	84.9609	84.4012	84.9609	84.083	84.9609	84.3397	84.9609	84.0061	84.9609	84.2744	84.9609	83.9365	84.9609	84.2086	84.9609	83.8777	84.9609	84.1456	84.9609	83.8322	84.9609	84.0878	84.9609	83.8016	84.9609	84.0369	84.9609	83.7859	84.9609	83.9934	84.9609	83.7835	84.9609	83.9568	84.9609	83.7918	84.9609	83.9259	84.9609	83.8075	84.9609	83.8988	84.9609	83.8277	84.9609	83.8738	84.9609	83.8502
87.8906	84.7769	87.8906	84.7381	87.8906	84.8003	87.8906	84.6852	87.8906	84.808	87.8906	84.6202	87.8906	84.8003	87.8906	84.546	87.8906	84.7786	87.8906	84.4658	87.8906	84.7448	87.8906	84.3834	87.8906	84.7015	87.8906	84.3025	87.8906	84.6518	87.8906	84.227	87.8906	84.5986	87.8906	84.1603	87.8906	84.545	87.8906	84.1054	87.8906	84.493	87.8906	84.0645	87.8906	84.4441	87.8906	84.0391	87.8906	84.3989	87.8906	84.0295	87.8906	84.357	87.8906	84.035	87.8906	84.3173	87.8906	84.0535	87.8906	84.2784	87.8906	84.0823	87.8906	84.239	87.8906	84.1181	87.8906	84.1986	87.8906	84.1578
90.8203	84.974	90.8203	84.9559	90.8203	84.9735	90.8203	84.9206	90.8203	84.9542	90.8203	84.8706	90.8203	84.9165	90.8203	84.8089	90.8203	84.8625	90.8203	84.7394	90.8203	84.7951	90.8203	84.6662	90.8203	84.7184	90.8203	84.5936	90.8203	84.6372	90.8203	84.5254	90.8203	84.5567	90.8203	84.4645	90.8203	84.4821	90.8203	84.413	90.8203	84.4173	90.8203	84.372	90.8203	84.3653	90.8203	84.3417	90.8203	84.3274	90.8203	84.3214	90.8203	84.3029	90.8203	84.3097	90.8203	84.2901	90.8203	84.3041	90.8203	84.2862	90.8203	84.3016	90.8203	84.288	90.8203	84.2997	90.8203	84.2923	90.8203	84.2966
95.2148	85.2637	95.2148	85.2796	95.2148	85.2293	95.2148	85.2772	95.2148	85.1774	95.2148	85.2576	95.2148	85.11	95.2148	85.2232	95.2148	85.03	95.2148	85.1773	95.2148	84.941	95.2148	85.1239	95.2148	84.8473	95.2148	85.0672	95.2148	84.7535	95.2148	85.0111	95.2148	84.6647	95.2148	84.9587	95.2148	84.5861	95.2148	84.9119	95.2148	84.5225	95.2148	84.8709	95.2148	84.4776	95.2148	84.835	95.2148	84.4535	95.2148	84.8024	95.2148	84.4502	95.2148	84.7711	95.2148	84.4654	95.2148	84.739	95.2148	84.4952	95.2148	84.7044	95.2148	84.5348	95.2148	84.666	95.2148	84.5791	95.2148	84.6238
98.1445	85.327	98.1445	85.3413	98.1445	85.2915	98.1445	85.3342	98.1445	85.2362	98.1445	85.3071	98.1445	85.1638	98.1445	85.2625	98.1445	85.0785	98.1445	85.2044	98.1445	84.9849	98.1445	85.1374	98.1445	84.8889	98.1445	85.0668	98.1445	84.7964	98.1445	84.9981	98.1445	84.7133	98.1445	84.9361	98.1445	84.6451	98.1445	84.8846	98.1445	84.5956	98.1445	84.8453	98.1445	84.567	98.1445	84.8181	98.1445	84.5592	98.1445	84.8008	98.1445	84.5697	98.1445	84.7898	98.1445	84.5945	98.1445	84.7809	98.1445	84.6281	98.1445	84.7701	98.1445	84.6652	98.1445	84.754	98.1445	84.7007	98.1445	84.7309
101.074	85.2683	101.074	85.2737	101.074	85.2424	101.074	85.2596	101.074	85.1968	101.074	85.2276	101.074	85.1333	101.074	85.1809	101.074	85.055	101.074	85.1234	101.074	84.9662	101.074	85.0595	101.074	84.8727	101.074	84.9942	101.074	84.7805	101.074	84.9324	101.074	84.6965	101.074	84.8783	101.074	84.6271	101.074	84.8353	101.074	84.5775	101.074	84.8053	101.074	84.551	101.074	84.7884	101.074	84.5484	101.074	84.7828	101.074	84.5675	101.074	84.785	101.074	84.6032	101.074	84.79	101.074	84.6485	101.074	84.7921	101.074	84.6956	101.074	84.786	101.074	84.7372	101.074	84.7681
105.469	85.4345	105.469	85.4182	105.469	85.4286	105.469	85.3808	105.469	85.4009	105.469	85.3251	105.469	85.3531	105.469	85.2553	105.469	85.2888	105.469	85.1766	105.469	85.2126	105.469	85.0948	105.469	85.13	105.469	85.0159	105.469	85.0467	105.469	84.9453	105.469	84.9682	105.469	84.8869	105.469	84.8989	105.469	84.8428	105.469	84.8417	105.469	84.8132	105.469	84.7976	105.469	84.7958	105.469	84.7665	105.469	84.787	105.469	84.7471	105.469	84.7829	105.469	84.7374	105.469	84.7795	105.469	84.7356	105.469	84.7745	105.469	84.7397	105.469	84.7669	105.469	84.7476	105.469	84.7574
108.398	85.561	108.398	85.5377	108.398	85.5575	108.398	85.4896	108.398	85.5271	108.398	85.4196	108.398	85.471	108.398	85.3323	108.398	85.3923	108.398	85.2332	108.398	85.2957	108.398	85.1285	108.398	85.1876	108.398	85.0254	108.398	85.0756	108.398	84.9307	108.398	84.9678	108.398	84.8504	108.398	84.8717	108.398	84.7887	108.398	84.7934	108.398	84.7475	108.398	84.7361	108.398	84.7255	108.398	84.7004	108.398	84.7187	108.398	84.6839	108.398	84.7215	108.398	84.6821	108.398	84.7279	108.398	84.6902	108.398	84.7326	108.398	84.703	108.398	84.7326	108.398	84.7163	108.398	84.7269
112.793	85.4547	112.793	85.4405	112.793	85.4435	112.793	85.4026	112.793	85.4069	112.793	85.3437	112.793	85.3464	112.793	85.2682	112.793	85.2652	112.793	85.1813	112.793	85.1678	112.793	85.089	112.793	85.0604	112.793	84.9975	112.793	84.9498	112.793	84.9128	112.793	84.8431	112.793	84.8397	112.793	84.7472	112.793	84.7813	112.793	84.6674	112.793	84.7385	112.793	84.6072	112.793	84.7098	112.793	84.5677	112.793	84.6917	112.793	84.5478	112.793	84.6798	112.793	84.5448	112.793	84.6694	112.793	84.5547	112.793	84.6568	112.793	84.5732	112.793	84.6402	112.793	84.596	112.793	84.6193
117.188	85.4704	117.188	85.4265	117.188	85.4828	117.188	85.3534	117.188	85.463	117.188	85.2553	117.188	85.4119	117.188	85.1376	117.188	85.3326	117.188	85.0076	117.188	85.2297	117.188	84.8737	117.188	85.11	117.188	84.7454	117.188	84.9818	117.188	84.6319	117.188	84.8546	117.188	84.5414	117.188	84.7379	117.188	84.4794	117.188	84.6403	117.188	84.4479	117.188	84.5678	117.188	84.4443	117.188	84.523	117.188	84.4626	117.188	84.5045	117.188	84.4937	117.188	84.5074	117.188	84.5282	117.188	84.5245	117.188	84.5572	117.188	84.5471	117.188	84.5746	117.188	84.5671	117.188	84.5776
120.117	85.5735	120.117	85.5388	120.117	85.5774	120.117	85.4748	120.117	85.5502	120.117	85.384	120.117	85.4927	120.117	85.2703	120.117	85.4071	120.117	85.1387	120.117	85.297	120.117	84.9954	120.117	85.1676	120.117	84.848	120.117	85.0257	120.117	84.7049	120.117	84.8794	120.117	84.5744	120.117	84.7375	120.117	84.4638	120.117	84.6085	120.117	84.3784	120.117	84.4994	120.117	84.32	120.117	84.4146	120.117	84.2869	120.117	84.3552	120.117	84.2741	120.117	84.3189	120.117	84.2747	120.117	84.3009	120.117	84.2814	120.117	84.2946	120.117	84.2885	120.117	84.2936	120.117	84.2925
124.512	85.3743	124.512	85.3399	124.512	85.3801	124.512	85.2778	124.512	85.3578	124.512	85.19	124.512	85.3087	124.512	85.0795	124.512	85.2351	124.512	84.9513	124.512	85.1403	124.512	84.8113	124.512	85.0287	124.512	84.6672	124.512	84.9058	124.512	84.5274	124.512	84.7779	124.512	84.4007	124.512	84.6522	124.512	84.2946	124.512	84.5357	124.512	84.2145	124.512	84.4344	124.512	84.1624	124.512	84.3527	124.512	84.1365	124.512	84.292	124.512	84.1319	124.512	84.251	124.512	84.1413	124.512	84.2257	124.512	84.1575	124.512	84.2106	124.512	84.1744	124.512	84.1999	124.512	84.1887
128.906	85.1087	128.906	85.0941	128.906	85.096	128.906	85.0529	128.906	85.0569	128.906	84.9872	128.906	84.9936	128.906	84.9003	128.906	84.9099	128.906	84.7969	128.906	84.8108	128.906	84.6824	128.906	84.7024	128.906	84.5634	128.906	84.5915	128.906	84.4471	128.906	84.4849	128.906	84.3409	128.906	84.3892	128.906	84.2516	128.906	84.3095	128.906	84.1843	128.906	84.2492	128.906	84.1413	128.906	84.2093	128.906	84.1217	128.906	84.188	128.906	84.1214	128.906	84.1812	128.906	84.1339	128.906	84.1829	128.906	84.1522	128.906	84.187	128.906	84.17	128.906	84.188	128.906	84.1826
133.301	85.0142	133.301	85.0029	133.301	84.9964	133.301	84.9644	133.301	84.9489	133.301	84.902	133.301	84.873	133.301	84.8203	133.301	84.7718	133.301	84.7245	133.301	84.6502	133.301	84.6207	133.301	84.5151	133.301	84.5153	133.301	84.3748	133.301	84.4146	133.301	84.2388	133.301	84.3244	133.301	84.1166	133.301	84.2493	133.301	84.0167	133.301	84.1922	133.301	83.9454	133.301	84.1537	133.301	83.9056	133.301	84.1313	133.301	83.8964	133.301	84.1203	133.301	83.9129	133.301	84.1144	133.301	83.9472	133.301	84.107	133.301	83.9899	133.301	84.0924	133.301	84.0322	133.301	84.0675
139.16	85.0126	139.16	84.9884	139.16	85.0033	139.16	84.9334	139.16	84.96	139.16	84.8516	139.16	84.8839	139.16	84.7488	139.16	84.7783	139.16	84.6321	139.16	84.6486	139.16	84.5095	139.16	84.5018	139.16	84.3891	139.16	84.3468	139.16	84.2786	139.16	84.1934	139.16	84.1844	139.16	84.0514	139.16	84.1103	139.16	83.93	139.16	84.0574	139.16	83.8364	139.16	84.0236	139.16	83.775	139.16	84.0041	139.16	83.7466	139.16	83.9921	139.16	83.7482	139.16	83.9809	139.16	83.7734	139.16	83.9644	139.16	83.8135	139.16	83.9387	139.16	83.8593	139.16	83.9029
143.555	84.9708	143.555	84.9343	143.555	84.9715	143.555	84.8643	143.555	84.936	143.555	84.7649	143.555	84.8658	143.555	84.6425	143.555	84.7642	143.555	84.5048	143.555	84.6366	143.555	84.3612	143.555	84.4902	143.555	84.2218	143.555	84.3339	143.555	84.0964	143.555	84.1775	143.555	83.9929	143.555	84.0311	143.555	83.9161	143.555	83.9038	143.555	83.8667	143.555	83.8025	143.555	83.8414	143.555	83.7317	143.555	83.8336	143.555	83.6923	143.555	83.835	143.555	83.6821	143.555	83.8371	143.555	83.6954	143.555	83.8331	143.555	83.7243	143.555	83.8188	143.555	83.7598	143.555	83.7933
147.949	84.761	147.949	84.7229	147.949	84.7652	147.949	84.653	147.949	84.7352	147.949	84.5551	147.949	84.6727	147.949	84.4348	147.949	84.581	147.949	84.2996	147.949	84.4654	147.949	84.1581	147.949	84.333	147.949	84.0201	147.949	84.1922	147.949	83.8957	147.949	84.0526	147.949	83.7937	147.949	83.9235	147.949	83.7203	147.949	83.813	147.949	83.6773	147.949	83.7268	147.949	83.6618	147.949	83.6676	147.949	83.6668	147.949	83.6349	147.949	83.683	147.949	83.6258	147.949	83.7006	147.949	83.6348	147.949	83.7119	147.949	83.6553	147.949	83.7121	147.949	83.6796	147.949	83.7004
153.809	84.5989	153.809	84.5605	153.809	84.5991	153.809	84.4867	153.809	84.5605	153.809	84.382	153.809	84.4845	153.809	84.253	153.809	84.3744	153.809	84.1076	153.809	84.2359	153.809	83.9552	153.809	84.0768	153.809	83.8059	153.809	83.9076	153.809	83.6703	153.809	83.7404	153.809	83.5586	153.809	83.5882	153.809	83.4785	153.809	83.4632	153.809	83.4337	153.809	83.3742	153.809	83.4221	153.809	83.3248	153.809	83.4362	153.809	83.313	153.809	83.4645	153.809	83.3318	153.809	83.4944	153.809	83.371	153.809	83.5145	153.809	83.4193	153.809	83.5174	153.809	83.4655	153.809	83.5003
159.668	84.5158	159.668	84.4839	159.668	84.5099	159.668	84.4154	159.668	84.467	159.668	84.3139	159.668	84.39	159.668	84.1856	159.668	84.2831	159.668	84.0394	159.668	84.1525	159.668	83.886	159.668	84.0061	159.668	83.7373	159.668	83.853	159.668	83.6047	159.668	83.7039	159.668	83.498	159.668	83.5703	159.668	83.4242	159.668	83.4628	159.668	83.3859	159.668	83.3893	159.668	83.3813	159.668	83.3535	159.668	83.4033	159.668	83.353	159.668	83.4413	159.668	83.3801	159.668	83.483	159.668	83.4233	159.668	83.5171	159.668	83.4701	159.668	83.535	159.668	83.5092	159.668	83.5323
165.527	84.3831	165.527	84.3401	165.527	84.3859	165.527	84.2584	165.527	84.3488	165.527	84.1419	165.527	84.2745	165.527	83.9973	165.527	84.1673	165.527	83.8345	165.527	84.0339	165.527	83.666	165.527	83.8833	165.527	83.5065	165.527	83.7266	165.527	83.3709	165.527	83.5768	165.527	83.272	165.527	83.4474	165.527	83.2178	165.527	83.3503	165.527	83.2095	165.527	83.2934	165.527	83.241	165.527	83.2787	165.527	83.3004	165.527	83.3014	165.527	83.3729	165.527	83.3507	165.527	83.4435	165.527	83.4125	165.527	83.4999	165.527	83.4721	165.527	83.5331	165.527	83.5171	165.527	83.5389
171.387	84.3174	171.387	84.2532	171.387	84.3372	171.387	84.1462	171.387	84.313	171.387	84.0011	171.387	84.2475	171.387	83.8255	171.387	84.1457	171.387	83.6303	171.387	84.0143	171.387	83.4297	171.387	83.8625	171.387	83.2407	171.387	83.7014	171.387	83.0812	171.387	83.5438	171.387	82.9671	171.387	83.4029	171.387	82.9088	171.387	83.2909	171.387	82.9083	171.387	83.217	171.387	82.9576	171.387	83.1846	171.387	83.0413	171.387	83.1906	171.387	83.1402	171.387	83.2257	171.387	83.2355	171.387	83.2762	171.387	83.3123	171.387	83.327	171.387	83.3611	171.387	83.3644	171.387	83.378
177.246	84.4579	177.246	84.434	177.246	84.4301	177.246	84.3579	177.246	84.3525	177.246	84.2309	177.246	84.2289	177.246	84.0573	177.246	84.065	177.246	83.8446	177.246	83.8696	177.246	83.6051	177.246	83.6548	177.246	83.3564	177.246	83.4365	177.246	83.1207	177.246	83.2337	177.246	82.9229	177.246	83.0663	177.246	82.7857	177.246	82.9522	177.246	82.7234	177.246	82.9019	177.246	82.7368	177.246	82.9158	177.246	82.8128	177.246	82.982	177.246	82.9284	177.246	83.0792	177.246	83.0573	177.246	83.1815	177.246	83.1756	177.246	83.265	177.246	83.2646	177.246	83.3117	177.246	83.312
183.105	84.2398	183.105	84.2213	183.105	84.2122	183.105	84.1592	183.105	84.1374	183.105	84.057	183.105	84.0154	183.105	83.919	183.105	83.8485	183.105	83.7512	183.105	83.6415	183.105	83.5613	183.105	83.4034	183.105	83.3605	183.105	83.1474	183.105	83.1628	183.105	82.8916	183.105	82.9852	183.105	82.6577	183.105	82.8442	183.105	82.468	183.105	82.7514	183.105	82.3409	183.105	82.7093	183.105	82.2868	183.105	82.7104	183.105	82.3041	183.105	82.739	183.105	82.3792	183.105	82.7765	183.105	82.4888	183.105	82.8044	183.105	82.6061	183.105	82.8079	183.105	82.7074	183.105	82.7766
188.965	84.0615	188.965	84.0151	188.965	84.0595	188.965	83.9245	188.965	84.0063	188.965	83.7954	188.965	83.9007	188.965	83.635	188.965	83.7441	188.965	83.4529	188.965	83.5415	188.965	83.261	188.965	83.302	188.965	83.074	188.965	83.0411	188.965	82.9088	188.965	82.7799	188.965	82.7823	188.965	82.545	188.965	82.7081	188.965	82.3634	188.965	82.6919	188.965	82.2571	188.965	82.728	188.965	82.2356	188.965	82.7997	188.965	82.2933	188.965	82.8837	188.965	82.4109	188.965	82.9563	188.965	82.5612	188.965	82.9982	188.965	82.7158	188.965	82.9969	188.965	82.8502	188.965	82.947
196.289	84.1827	196.289	84.1211	196.289	84.189	196.289	84.0075	196.289	84.1386	196.289	83.8478	196.289	84.0321	196.289	83.6503	196.289	83.8721	196.289	83.4265	196.289	83.6644	196.289	83.1907	196.289	83.4187	196.289	82.9601	196.289	83.1495	196.289	82.7536	196.289	82.8764	196.289	82.5909	196.289	82.623	196.289	82.4893	196.289	82.4148	196.289	82.4581	196.289	82.2747	196.289	82.4942	196.289	82.2176	196.289	82.5804	196.289	82.2447	196.289	82.6896	196.289	82.3418	196.289	82.7924	196.289	82.4822	196.289	82.8636	196.289	82.6331	196.289	82.8863	196.289	82.7641	196.289	82.8525
203.613	84.2384	203.613	84.1647	203.613	84.2509	203.613	84.0314	203.613	84.2024	203.613	83.8428	203.613	84.0944	203.613	83.6066	203.613	83.9295	203.613	83.3347	203.613	83.7121	203.613	83.043	203.613	83.449	203.613	82.7511	203.613	83.1519	203.613	82.4819	203.613	82.8386	203.613	82.2594	203.613	82.5341	203.613	82.1061	203.613	82.2686	203.613	82.0373	203.613	82.0716	203.613	82.0543	203.613	81.9634	203.613	82.1406	203.613	81.9482	203.613	82.2642	203.613	82.0125	203.613	82.3869	203.613	82.1291	203.613	82.475	203.613	82.2655	203.613	82.5071	203.613	82.3901	203.613	82.4765
210.938	83.936	210.938	83.8558	210.938	83.9623	210.938	83.723	210.938	83.9347	210.938	83.5402	210.938	83.854	210.938	83.3127	210.938	83.7226	210.938	83.0494	210.938	83.5449	210.938	82.7642	210.938	83.3278	210.938	82.4755	210.938	83.0808	210.938	82.2057	210.938	82.817	210.938	81.9781	210.938	82.5531	210.938	81.8138	210.938	82.3094	210.938	81.7272	210.938	82.1082	210.938	81.7213	210.938	81.9692	210.938	81.7843	210.938	81.9029	210.938	81.8906	210.938	81.9057	210.938	82.0069	210.938	81.9599	210.938	82.1019	210.938	82.0381	210.938	82.1541	210.938	82.1115	210.938	82.1555
218.262	83.7604	218.262	83.715	218.262	83.7464	218.262	83.6099	218.262	83.6741	218.262	83.447	218.262	83.546	218.262	83.2314	218.262	83.3661	218.262	82.9729	218.262	83.1416	218.262	82.6879	218.262	82.8846	218.262	82.3996	218.262	82.6137	218.262	82.1362	218.262	82.3538	218.262	81.9272	218.262	82.1332	218.262	81.7973	218.262	81.9782	218.262	81.7601	218.262	81.9049	218.262	81.814	218.262	81.9149	218.262	81.9406	218.262	81.9946	218.262	82.1081	218.262	82.1195	218.262	82.2792	218.262	82.2609	218.262	82.4199	218.262	82.391	218.262	82.5064	218.262	82.486	218.262	82.528
225.586	84.016	225.586	83.998	225.586	83.9707	225.586	83.9176	225.586	83.8624	225.586	83.7775	225.586	83.6929	225.586	83.5832	225.586	83.4654	225.586	83.3435	225.586	83.1852	225.586	83.0721	225.586	82.8612	225.586	82.7886	225.586	82.5079	225.586	82.5171	225.586	82.1483	225.586	82.2837	225.586	81.8153	225.586	82.1119	225.586	81.5488	225.586	82.0183	225.586	81.3865	225.586	82.009	225.586	81.3508	225.586	82.0753	225.586	81.4385	225.586	82.1924	225.586	81.6208	225.586	82.3223	225.586	81.8533	225.586	82.4232	225.586	82.0887	225.586	82.4605	225.586	82.286	225.586	82.4152
232.91	84.0323	232.91	83.9598	232.91	84.0355	232.91	83.8213	232.91	83.9671	232.91	83.6213	232.91	83.8257	232.91	83.3669	232.91	83.6111	232.91	83.0694	232.91	83.3255	232.91	82.7461	232.91	82.9757	232.91	82.4214	232.91	82.5765	232.91	82.1262	232.91	82.1547	232.91	81.8916	232.91	81.7513	232.91	81.7411	232.91	81.4178	232.91	81.6841	232.91	81.2044	232.91	81.7147	232.91	81.1404	232.91	81.8143	232.91	81.2206	232.91	81.9541	232.91	81.4079	232.91	82.0981	232.91	81.6487	232.91	82.2084	232.91	81.8897	232.91	82.2531	232.91	82.0878	232.91	82.2137
241.699	83.7397	241.699	83.6633	241.699	83.7573	241.699	83.5288	241.699	83.7156	241.699	83.3376	241.699	83.6136	241.699	83.0929	241.699	83.4505	241.699	82.8016	241.699	83.2262	241.699	82.4762	241.699	82.9431	241.699	82.1362	241.699	82.6073	241.699	81.808	241.699	82.2319	241.699	81.5227	241.699	81.8397	241.699	81.3084	241.699	81.4659	241.699	81.1833	241.699	81.1557	241.699	81.1502	241.699	80.9537	241.699	81.1971	241.699	80.8857	241.699	81.299	241.699	80.9446	241.699	81.4207	241.699	81.0916	241.699	81.5223	241.699	81.2721	241.699	81.5689	241.699	81.4343	241.699	81.5398
250.488	84.1114	250.488	84.0462	250.488	84.0998	250.488	83.9024	250.488	84.0129	250.488	83.6785	250.488	83.8515	250.488	83.3752	250.488	83.6163	250.488	82.9985	250.488	83.3101	250.488	82.5641	250.488	82.9396	250.488	82.1033	250.488	82.5194	250.488	81.6647	250.488	82.0755	250.488	81.3049	250.488	81.6478	250.488	81.0666	250.488	81.2875	250.488	80.9569	250.488	81.0442	250.488	80.9485	250.488	80.9439	250.488	81.0009	250.488	80.9716	250.488	81.0823	250.488	81.0781	250.488	81.1736	250.488	81.2049	250.488	81.2617	250.488	81.3081	250.488	81.3325	250.488	81.3651	250.488	81.3711
259.277	83.9481	259.277	83.8878	259.277	83.9387	259.277	83.7594	259.277	83.8576	259.277	83.5643	259.277	83.7032	259.277	83.3039	259.277	83.4752	259.277	82.9809	259.277	83.1751	259.277	82.6026	259.277	82.8072	259.277	82.1863	259.277	82.3805	259.277	81.7675	259.277	81.9125	259.277	81.4034	259.277	81.4343	259.277	81.1584	259.277	80.9959	259.277	81.0694	259.277	80.6629	259.277	81.1184	259.277	80.4973	259.277	81.2442	259.277	80.5225	259.277	81.3831	259.277	80.7029	259.277	81.4953	259.277	80.9608	259.277	81.5644	259.277	81.216	259.277	81.5818	259.277	81.4149	259.277	81.5362
268.066	83.8955	268.066	83.7377	268.066	83.9716	268.066	83.5031	268.066	83.9613	268.066	83.1968	268.066	83.8607	268.066	82.8246	268.066	83.6678	268.066	82.3939	268.066	83.3837	268.066	81.9167	268.066	83.0145	268.066	81.4156	268.066	82.572	268.066	80.9344	268.066	82.0748	268.066	80.5466	268.066	81.5497	268.066	80.3424	268.066	81.035	268.066	80.378	268.066	80.5869	268.066	80.6204	268.066	80.2778	268.066	80.9601	268.066	80.1709	268.066	81.2782	268.066	80.2784	268.066	81.4983	268.066	80.5433	268.066	81.5921	268.066	80.872	268.066	81.5618	268.066	81.1814	268.066	81.4199
276.855	83.7284	276.855	83.6731	276.855	83.7368	276.855	83.5632	276.855	83.702	276.855	83.39	276.855	83.6204	276.855	83.1472	276.855	83.4824	276.855	82.8314	276.855	83.2741	276.855	82.4412	276.855	82.9822	276.855	81.9759	276.855	82.6013	276.855	81.441	276.855	82.1441	276.855	80.8635	276.855	81.6521	276.855	80.3161	276.855	81.1971	276.855	79.9261	276.855	80.8609	276.855	79.8217	276.855	80.6955	276.855	80.0243	276.855	80.6964	276.855	80.4146	276.855	80.8148	276.855	80.827	276.855	80.9899	276.855	81.1462	276.855	81.1689	276.855	81.3271	276.855	81.3089	276.855	81.3727
287.109	83.7245	287.109	83.7056	287.109	83.6836	287.109	83.6254	287.109	83.5826	287.109	83.4812	287.109	83.421	287.109	83.271	287.109	83.1999	287.109	82.9964	287.109	82.923	287.109	82.663	287.109	82.5954	287.109	82.278	287.109	82.217	287.109	81.8475	287.109	81.7782	287.109	81.3831	287.109	81.2675	287.109	80.9222	287.109	80.6999	287.109	80.5498	287.109	80.1521	287.109	80.3848	287.109	79.7685	287.109	80.4998	287.109	79.6869	287.109	80.8388	287.109	79.9254	287.109	81.2445	287.109	80.3701	287.109	81.5591	287.109	80.8699	287.109	81.6858	287.109	81.3053	287.109	81.5948
297.363	84.1133	297.363	84.0503	297.363	84.0869	297.363	83.8922	297.363	83.9787	297.363	83.6384	297.363	83.7952	297.363	83.2958	297.363	83.5376	297.363	82.883	297.363	83.2027	297.363	82.4355	297.363	82.7875	297.363	82.0094	297.363	82.2991	297.363	81.6661	297.363	81.762	297.363	81.4375	297.363	81.2141	297.363	81.3013	297.363	80.6923	297.363	81.2006	297.363	80.2278	297.363	81.0932	297.363	79.8699	297.363	80.9846	297.363	79.7078	297.363	80.9204	297.363	79.8211	297.363	80.9409	297.363	80.1738	297.363	81.0337	297.363	80.6066	297.363	81.1262	297.363	80.9516	297.363	81.1226
307.617	84.0362	307.617	83.9835	307.617	84.017	307.617	83.8491	307.617	83.9309	307.617	83.6212	307.617	83.7777	307.617	83.2887	307.617	83.5554	307.617	82.8448	307.617	83.2647	307.617	82.2914	307.617	82.9122	307.617	81.6508	307.617	82.5103	307.617	80.9861	307.617	82.0755	307.617	80.4143	307.617	81.6292	307.617	80.0713	307.617	81.199	307.617	80.0203	307.617	80.8133	307.617	80.1972	307.617	80.4918	307.617	80.4692	307.617	80.2495	307.617	80.7245	307.617	80.1142	307.617	80.9007	307.617	80.1241	307.617	80.9706	307.617	80.2828	307.617	80.9243	307.617	80.5283	307.617	80.7662
319.336	84.0522	319.336	83.9449	319.336	84.0711	319.336	83.7559	319.336	83.9986	319.336	83.4917	319.336	83.8367	319.336	83.1527	319.336	83.589	319.336	82.73	319.336	83.257	319.336	82.2072	319.336	82.8376	319.336	81.5724	319.336	82.328	319.336	80.8431	319.336	81.7371	319.336	80.1014	319.336	81.102	319.336	79.5129	319.336	80.5041	319.336	79.2615	319.336	80.061	319.336	79.399	319.336	79.8678	319.336	79.7905	319.336	79.9224	319.336	80.2403	319.336	80.1292	319.336	80.6117	319.336	80.3795	319.336	80.8456	319.336	80.6082	319.336	80.9364	319.336	80.7895	319.336	80.9072
329.59	83.8136	329.59	83.6829	329.59	83.8974	329.59	83.5192	329.59	83.9114	329.59	83.3242	329.59	83.8333	329.59	83.0901	329.59	83.6508	329.59	82.8033	329.59	83.3659	329.59	82.4435	329.59	82.9912	329.59	81.9836	329.59	82.5423	329.59	81.4009	329.59	82.0313	329.59	80.7112	329.59	81.4682	329.59	80.0146	329.59	80.8755	329.59	79.5077	329.59	80.3107	329.59	79.3789	329.59	79.8747	329.59	79.6314	329.59	79.6735	329.59	80.0835	329.59	79.7418	329.59	80.5336	329.59	80.013	329.59	80.8545	329.59	80.37	329.59	80.9892	329.59	80.7034	329.59	80.9293
341.309	84.3389	341.309	84.2733	341.309	84.3074	341.309	84.1135	341.309	84.1748	341.309	83.8608	341.309	83.9356	341.309	83.5149	341.309	83.5833	341.309	83.0775	341.309	83.1118	341.309	82.5591	341.309	82.5194	341.309	81.9846	341.309	81.8167	341.309	81.389	341.309	81.0413	341.309	80.8082	341.309	80.2812	341.309	80.2823	341.309	79.6846	341.309	79.8751	341.309	79.4123	341.309	79.6773	341.309	79.5251	341.309	79.7518	341.309	79.9262	341.309	80.0639	341.309	80.4386	341.309	80.4924	341.309	80.9091	341.309	80.9087	341.309	81.2468	341.309	81.2271	341.309	81.4132	341.309	81.4029
353.027	84.3212	353.027	84.2303	353.027	84.3306	353.027	84.053	353.027	84.2665	353.027	83.7867	353.027	84.1381	353.027	83.4308	353.027	83.9512	353.027	82.9869	353.027	83.7028	353.027	82.461	353.027	83.3754	353.027	81.8714	353.027	82.9347	353.027	81.2554	353.027	82.3324	353.027	80.6718	353.027	81.5204	353.027	80.1961	353.027	80.4874	353.027	79.9133	353.027	79.3296	353.027	79.8924	353.027	78.3357	353.027	80.1331	353.027	77.9164	353.027	80.533	353.027	78.2212	353.027	80.9347	353.027	78.9731	353.027	81.1998	353.027	79.8149	353.027	81.2413	353.027	80.5305	353.027	81.0188
366.211	85.0083	366.211	84.8591	366.211	85.078	366.211	84.6189	366.211	85.0727	366.211	84.2739	366.211	84.9882	366.211	83.8136	366.211	84.8134	366.211	83.2328	366.211	84.5345	366.211	82.531	366.211	84.1404	366.211	81.7158	366.211	83.629	366.211	80.8227	366.211	83.0099	366.211	79.958	366.211	82.2984	366.211	79.3187	366.211	81.5087	366.211	79.0889	366.211	80.6701	366.211	79.2605	366.211	79.8746	366.211	79.6473	366.211	79.3056	366.211	80.0652	366.211	79.1402	366.211	80.4088	366.211	79.3659	366.211	80.6207	366.211	79.7884	366.211	80.6631	366.211	80.2116	366.211	80.5211
379.395	84.828	379.395	84.8187	379.395	84.7865	379.395	84.7479	379.395	84.7021	379.395	84.5949	379.395	84.5825	379.395	84.3269	379.395	84.4299	379.395	83.9083	379.395	84.2322	379.395	83.3137	379.395	83.9637	379.395	82.5358	379.395	83.5958	379.395	81.5815	379.395	83.1136	379.395	80.4757	379.395	82.5266	379.395	79.3201	379.395	81.8704	379.395	78.4162	379.395	81.21	379.395	78.2145	379.395	80.6589	379.395	78.798	379.395	80.3765	379.395	79.7221	379.395	80.4618	379.395	80.5663	379.395	80.8224	379.395	81.1685	379.395	81.2389	379.395	81.516	379.395	81.5345	379.395	81.633
392.578	84.4549	392.578	84.4118	392.578	84.4498	392.578	84.3423	392.578	84.3743	392.578	84.2504	392.578	84.2153	392.578	84.1114	392.578	83.9702	392.578	83.8803	392.578	83.6447	392.578	83.5156	392.578	83.2447	392.578	82.9988	392.578	82.766	392.578	82.3349	392.578	82.1938	392.578	81.5418	392.578	81.5242	392.578	80.6534	392.578	80.7981	392.578	79.7662	392.578	80.1189	392.578	79.1073	392.578	79.6213	392.578	78.9602	392.578	79.4072	392.578	79.3653	392.578	79.5095	392.578	80.0354	392.578	79.883	392.578	80.6476	392.578	80.3916	392.578	81.0188	392.578	80.8448	392.578	81.0818
405.762	85.0097	405.762	84.8528	405.762	85.0684	405.762	84.62	405.762	85.0133	405.762	84.3394	405.762	84.8352	405.762	84.037	405.762	84.5335	405.762	83.7183	405.762	84.1157	405.762	83.3549	405.762	83.5923	405.762	82.8955	405.762	82.9707	405.762	82.3007	405.762	82.2485	405.762	81.5818	405.762	81.418	405.762	80.823	405.762	80.4919	405.762	80.1738	405.762	79.5587	405.762	79.7964	405.762	78.8332	405.762	79.7737	405.762	78.5772	405.762	80.0439	405.762	78.8501	405.762	80.4399	405.762	79.4368	405.762	80.7861	405.762	80.0721	405.762	80.958	405.762	80.5866	405.762	80.8941
420.41	84.872	420.41	84.7929	420.41	84.8879	420.41	84.6374	420.41	84.8532	420.41	84.3978	420.41	84.7743	420.41	84.0706	420.41	84.6482	420.41	83.6464	420.41	84.4617	420.41	83.1026	420.41	84.1913	420.41	82.4158	420.41	83.8039	420.41	81.5938	420.41	83.2596	420.41	80.7062	420.41	82.5205	420.41	79.8948	420.41	81.5777	420.41	79.351	420.41	80.5054	420.41	79.2457	420.41	79.5278	420.41	79.6012	420.41	78.9777	420.41	80.2292	420.41	79.0268	420.41	80.857	420.41	79.513	420.41	81.2795	420.41	80.1588	420.41	81.3999	420.41	80.7666	420.41	81.2109
435.059	85.1185	435.059	85.0753	435.059	85.1098	435.059	84.9707	435.059	85.0521	435.059	84.7833	435.059	84.9451	435.059	84.4805	435.059	84.7819	435.059	84.0267	435.059	84.5442	435.059	83.389	435.059	84.1997	435.059	82.5351	435.059	83.7032	435.059	81.4401	435.059	83.0036	435.059	80.1297	435.059	82.0594	435.059	78.784	435.059	80.8747	435.059	77.8269	435.059	79.5804	435.059	77.6942	435.059	78.5611	435.059	78.331	435.059	78.35	435.059	79.3099	435.059	78.998	435.059	80.2803	435.059	79.9786	435.059	81.0492	435.059	80.8421	435.059	81.5156	435.059	81.41	435.059	81.6378
451.172	85.046	451.172	84.9312	451.172	85.0761	451.172	84.7394	451.172	85.0282	451.172	84.488	451.172	84.9169	451.172	84.1979	451.172	84.7526	451.172	83.8906	451.172	84.5367	451.172	83.5728	451.172	84.2687	451.172	83.1969	451.172	83.9486	451.172	82.6344	451.172	83.5551	451.172	81.7108	451.172	83.0168	451.172	80.3073	451.172	82.2172	451.172	78.56	451.172	81.0599	451.172	77.202	451.172	79.6001	451.172	77.1839	451.172	78.249	451.172	78.148	451.172	77.7238	451.172	79.1718	451.172	78.1913	451.172	79.8828	451.172	79.0428	451.172	80.2193	451.172	79.7695	451.172	80.1786
465.82	85.0568	465.82	85.0483	465.82	84.992	465.82	84.9601	465.82	84.8651	465.82	84.7935	465.82	84.6916	465.82	84.5503	465.82	84.4874	465.82	84.2175	465.82	84.2541	465.82	83.7661	465.82	83.9608	465.82	83.1703	465.82	83.5552	465.82	82.4162	465.82	83.0017	465.82	81.4818	465.82	82.31	465.82	80.335	465.82	81.5156	465.82	79.0409	465.82	80.6247	465.82	77.9805	465.82	79.6321	465.82	77.7592	465.82	78.7061	465.82	78.4039	465.82	78.3231	465.82	79.3253	465.82	78.768	465.82	80.0945	465.82	79.6163	465.82	80.5546	465.82	80.3199	465.82	80.6426
483.398	84.5914	483.398	84.4379	483.398	84.6784	483.398	84.2519	483.398	84.6617	483.398	84.0557	483.398	84.5223	483.398	83.8619	483.398	84.2746	483.398	83.6676	483.398	83.9657	483.398	83.4344	483.398	83.6495	483.398	83.0873	483.398	83.3396	483.398	82.5482	483.398	82.9726	483.398	81.7625	483.398	82.4277	483.398	80.6871	483.398	81.5964	483.398	79.2854	483.398	80.4511	483.398	77.6721	483.398	79.0949	483.398	76.5289	483.398	77.8139	483.398	76.8232	483.398	77.089	483.398	78.067	483.398	77.2769	483.398	79.1563	483.398	78.1161	483.398	79.6753	483.398	79.0211	483.398	79.6009
499.512	85.1553	499.512	84.9667	499.512	85.2169	499.512	84.7012	499.512	85.1306	499.512	84.3978	499.512	84.915	499.512	84.054	499.512	84.6072	499.512	83.6443	499.512	84.2347	499.512	83.1627	499.512	83.8057	499.512	82.6193	499.512	83.3177	499.512	81.9953	499.512	82.7634	499.512	81.2342	499.512	82.1204	499.512	80.3135	499.512	81.343	499.512	79.3447	499.512	80.3953	499.512	78.587	499.512	79.3381	499.512	78.2804	499.512	78.4076	499.512	78.4541	499.512	77.9226	499.512	78.9321	499.512	78.0063	499.512	79.4366	499.512	78.4987	499.512	79.702	499.512	79.1184	499.512	79.5844
517.09	84.5347	517.09	84.485	517.09	84.4406	517.09	84.2552	517.09	84.2646	517.09	83.8755	517.09	84.0522	517.09	83.4403	517.09	83.8116	517.09	83.0351	517.09	83.5215	517.09	82.651	517.09	83.1617	517.09	82.1879	517.09	82.7396	517.09	81.5423	517.09	82.2796	517.09	80.6801	517.09	81.7746	517.09	79.6469	517.09	81.1566	517.09	78.547	517.09	80.3405	517.09	77.5773	517.09	79.3464	517.09	77.1178	517.09	78.4473	517.09	77.5153	517.09	78.1049	517.09	78.5306	517.09	78.4566	517.09	79.5382	517.09	79.1472	517.09	80.1221	517.09	79.7989	517.09	80.1798
536.133	85.1526	536.133	84.9097	536.133	85.2173	536.133	84.5099	536.133	85.0882	536.133	83.9886	536.133	84.7729	536.133	83.4127	536.133	84.3147	536.133	82.8652	536.133	83.7664	536.133	82.3894	536.133	83.1396	536.133	81.9347	536.133	82.392	536.133	81.3658	536.133	81.4781	536.133	80.5329	536.133	80.4099	536.133	79.358	536.133	79.2489	536.133	77.9646	536.133	78.0351	536.133	76.9158	536.133	76.8299	536.133	76.9356	536.133	76.0376	536.133	77.7332	536.133	76.3428	536.133	78.499	536.133	77.5061	536.133	78.9608	536.133	78.6045	536.133	79.2177	536.133	79.202	536.133	79.3387
555.176	84.7842	555.176	84.7213	555.176	84.8009	555.176	84.6228	555.176	84.7522	555.176	84.4558	555.176	84.6324	555.176	84.1349	555.176	84.4506	555.176	83.5749	555.176	84.2151	555.176	82.7734	555.176	83.9173	555.176	81.8258	555.176	83.5315	555.176	80.8024	555.176	83.0217	555.176	79.6008	555.176	82.3221	555.176	78.0112	555.176	81.304	555.176	76.0898	555.176	79.7957	555.176	74.7183	555.176	77.7217	555.176	74.991	555.176	75.5332	555.176	76.3828	555.176	74.7324	555.176	77.9259	555.176	75.8207	555.176	79.1207	555.176	77.3826	555.176	79.6788	555.176	78.6785	555.176	79.5007
574.219	84.3148	574.219	84.1225	574.219	84.3628	574.219	83.8473	574.219	84.2399	574.219	83.5793	574.219	83.9625	574.219	83.4003	574.219	83.5998	574.219	83.3047	574.219	83.2583	574.219	83.1622	574.219	83.0093	574.219	82.7954	574.219	82.7983	574.219	82.0919	574.219	82.4614	574.219	81.0247	574.219	81.848	574.219	79.5383	574.219	80.9011	574.219	77.4236	574.219	79.641	574.219	74.5033	574.219	78.118	574.219	72.232	574.219	76.4339	574.219	73.718	574.219	74.982	574.219	76.214	574.219	74.7308	574.219	77.8312	574.219	75.9711	574.219	78.5402	574.219	77.4929	574.219	78.4195
594.727	84.4073	594.727	84.3138	594.727	84.3113	594.727	83.9794	594.727	84.0957	594.727	83.4212	594.727	83.7953	594.727	82.7362	594.727	83.4031	594.727	82.0957	594.727	82.8996	594.727	81.6676	594.727	82.2965	594.727	81.4152	594.727	81.6861	594.727	81.0638	594.727	81.2094	594.727	80.3663	594.727	80.8663	594.727	79.2757	594.727	80.4032	594.727	77.8677	594.727	79.4699	594.727	76.1995	594.727	77.783	594.727	74.5881	594.727	75.2511	594.727	74.2342	594.727	72.7776	594.727	75.4179	594.727	72.8973	594.727	76.6038	594.727	74.6933	594.727	77.0703	594.727	76.0987	594.727	76.8664
615.234	83.7527	615.234	83.6257	615.234	83.828	615.234	83.4381	615.234	83.822	615.234	83.1572	615.234	83.6767	615.234	82.7617	615.234	83.3435	615.234	82.2556	615.234	82.8424	615.234	81.6696	615.234	82.2681	615.234	81.0792	615.234	81.7009	615.234	80.5369	615.234	81.1364	615.234	79.9078	615.234	80.5196	615.234	78.9111	615.234	79.7673	615.234	77.4472	615.234	78.7403	615.234	75.9906	615.234	77.3294	615.234	75.3841	615.234	75.7341	615.234	75.6049	615.234	74.6572	615.234	76.1285	615.234	74.7221	615.234	76.7622	615.234	75.6596	615.234	77.2756	615.234	76.7179	615.234	77.319
637.207	83.5232	637.207	83.3766	637.207	83.4974	637.207	83.082	637.207	83.2907	637.207	82.6625	637.207	82.9401	637.207	82.1716	637.207	82.4995	637.207	81.693	637.207	82.0166	637.207	81.2662	637.207	81.5804	637.207	80.8424	637.207	81.2764	637.207	80.3327	637.207	80.9999	637.207	79.6292	637.207	80.4782	637.207	78.5534	637.207	79.551	637.207	76.8773	637.207	78.2913	637.207	74.6084	637.207	76.7883	637.207	72.8288	637.207	74.9813	637.207	73.1968	637.207	73.2611	637.207	74.6053	637.207	73.2259	637.207	75.6794	637.207	74.6954	637.207	76.227	637.207	75.8697	637.207	76.319
659.18	83.0152	659.18	82.8196	659.18	82.9878	659.18	82.415	659.18	82.7562	659.18	81.8863	659.18	82.3519	659.18	81.3653	659.18	81.8645	659.18	80.9443	659.18	81.4189	659.18	80.5798	659.18	81.0255	659.18	80.1144	659.18	80.5856	659.18	79.4362	659.18	80.1269	659.18	78.5605	659.18	79.7815	659.18	77.5044	659.18	79.4084	659.18	76.0531	659.18	78.5665	659.18	73.8543	659.18	76.871	659.18	71.6216	659.18	74.3671	659.18	72.4436	659.18	72.211	659.18	74.9822	659.18	72.1971	659.18	76.6495	659.18	73.6752	659.18	77.1306	659.18	75.3272	659.18	76.5968
682.617	83.0048	682.617	82.8068	682.617	83.0436	682.617	82.4516	682.617	82.9201	682.617	81.9614	682.617	82.6063	682.617	81.3855	682.617	82.0693	682.617	80.8204	682.617	81.3668	682.617	80.4288	682.617	80.7201	682.617	80.2889	682.617	80.3216	682.617	80.1515	682.617	80.0468	682.617	79.5687	682.617	79.6029	682.617	78.2235	682.617	78.8167	682.617	76.1143	682.617	77.6196	682.617	73.7326	682.617	75.8644	682.617	72.3285	682.617	73.4207	682.617	72.9939	682.617	71.252	682.617	74.7068	682.617	72.0247	682.617	76.2338	682.617	74.5213	682.617	77.1707	682.617	76.4461	682.617	77.309
707.52	82.6207	707.52	82.3926	707.52	82.6113	707.52	82.0039	707.52	82.37	707.52	81.5146	707.52	81.9978	707.52	80.9403	707.52	81.5633	707.52	80.2904	707.52	81.0153	707.52	79.5862	707.52	80.3119	707.52	78.9243	707.52	79.6027	707.52	78.4838	707.52	79.12	707.52	78.227	707.52	78.8019	707.52	77.7674	707.52	78.3273	707.52	76.6274	707.52	77.4783	707.52	74.4469	707.52	76.1588	707.52	71.6427	707.52	74.2249	707.52	70.9584	707.52	71.7292	707.52	72.6051	707.52	70.5008	707.52	73.8591	707.52	72.0902	707.52	74.3803	707.52	73.7228	707.52	74.3954
732.422	82.3325	732.422	82.1823	732.422	82.2647	732.422	81.7273	732.422	82.0275	732.422	80.981	732.422	81.5932	732.422	80.1189	732.422	80.9572	732.422	79.3963	732.422	80.2199	732.422	78.9784	732.422	79.5647	732.422	78.8139	732.422	79.1483	732.422	78.6693	732.422	78.9964	732.422	78.2594	732.422	78.9744	732.422	77.3266	732.422	78.806	732.422	75.6725	732.422	78.1349	732.422	73.2557	732.422	76.6334	732.422	70.5961	732.422	74.1335	732.422	69.8878	732.422	71.0782	732.422	72.1893	732.422	69.6886	732.422	74.6117	732.422	71.2608	732.422	75.7011	732.422	73.597	732.422	75.2794
757.324	82.5826	757.324	82.3537	757.324	82.6277	757.324	81.9432	757.324	82.4504	757.324	81.3037	757.324	82.0183	757.324	80.456	757.324	81.3255	757.324	79.579	757.324	80.4626	757.324	78.8929	757.324	79.6353	757.324	78.5032	757.324	78.9776	757.324	78.3488	757.324	78.4749	757.324	78.0645	757.324	78.1282	757.324	77.1001	757.324	77.8112	757.324	75.0833	757.324	77.1259	757.324	71.8825	757.324	75.7165	757.324	68.1671	757.324	73.4558	757.324	68.5983	757.324	70.6413	757.324	72.1721	757.324	69.2682	757.324	74.7246	757.324	71.344	757.324	75.8702	757.324	74.0305	757.324	75.6284
785.156	82.0474	785.156	81.783	785.156	82.054	785.156	81.2453	785.156	81.8683	785.156	80.5345	785.156	81.4669	785.156	79.7024	785.156	80.8052	785.156	78.6979	785.156	79.9272	785.156	77.7104	785.156	78.9757	785.156	77.2644	785.156	78.2125	785.156	77.3746	785.156	77.9285	785.156	77.4766	785.156	77.9625	785.156	77.2114	785.156	77.78	785.156	76.288	785.156	77.1391	785.156	74.038	785.156	76.1478	785.156	69.5977	785.156	74.5907	785.156	65.6236	785.156	71.5529	785.156	68.9117	785.156	67.3094	785.156	71.1196	785.156	68.6329	785.156	71.5757	785.156	70.9315	785.156	71.526
811.523	82.1752	811.523	81.9146	811.523	82.2147	811.523	81.5073	811.523	81.9412	811.523	80.8436	811.523	81.4348	811.523	79.8594	811.523	80.7802	811.523	78.738	811.523	79.9107	811.523	77.7611	811.523	78.8624	811.523	77.2263	811.523	77.9406	811.523	77.3253	811.523	77.3863	811.523	77.5623	811.523	77.1881	811.523	77.1477	811.523	77.1995	811.523	75.7281	811.523	77.0447	811.523	73.4073	811.523	76.1472	811.523	70.4476	811.523	74.0384	811.523	68.6443	811.523	70.7696	811.523	71.2433	811.523	68.1448	811.523	73.9285	811.523	69.8474	811.523	74.9353	811.523	72.8096	811.523	74.5339
840.82	82.3031	840.82	82.1533	840.82	82.2884	840.82	81.7909	840.82	82.1061	840.82	81.1036	840.82	81.7096	840.82	79.9882	840.82	81.0355	840.82	78.5786	840.82	80.0659	840.82	77.3041	840.82	78.8937	840.82	76.3128	840.82	77.7396	840.82	75.6355	840.82	76.9233	840.82	75.7921	840.82	76.7188	840.82	76.3961	840.82	76.916	840.82	76.1572	840.82	76.8452	840.82	74.334	840.82	75.9863	840.82	70.4906	840.82	74.0785	840.82	66.6873	840.82	70.7944	840.82	68.8846	840.82	67.4421	840.82	71.3699	840.82	69.2515	840.82	72.4824	840.82	71.6383	840.82	72.5774
870.117	82.4988	870.117	82.2547	870.117	82.4907	870.117	81.7124	870.117	82.2285	870.117	81.0119	870.117	81.6798	870.117	80.3252	870.117	80.9767	870.117	79.4327	870.117	80.2023	870.117	78.0065	870.117	79.123	870.117	76.6077	870.117	77.6739	870.117	76.4538	870.117	76.5817	870.117	76.6954	870.117	76.3123	870.117	76.2402	870.117	76.1554	870.117	75.1002	870.117	75.8634	870.117	73.3491	870.117	75.5711	870.117	70.2703	870.117	74.526	870.117	66.4476	870.117	71.5981	870.117	68.9107	870.117	67.4294	870.117	72.7007	870.117	68.7097	870.117	74.1108	870.117	72.0558	870.117	73.7932
900.879	82.4393	900.879	82.3444	900.879	82.3441	900.879	82.0794	900.879	82.2541	900.879	81.6296	900.879	82.145	900.879	80.6888	900.879	81.6613	900.879	79.2383	900.879	80.6435	900.879	77.9257	900.879	79.342	900.879	76.9304	900.879	78.0389	900.879	75.7643	900.879	76.7808	900.879	75.3006	900.879	75.8845	900.879	76.1817	900.879	75.8093	900.879	76.2809	900.879	75.8102	900.879	74.7558	900.879	74.935	900.879	71.7547	900.879	73.0409	900.879	68.1599	900.879	70.1073	900.879	68.8655	900.879	66.3939	900.879	71.8513	900.879	67.7915	900.879	73.2248	900.879	71.324	900.879	73.0304
933.105	82.5785	933.105	82.3902	933.105	82.6327	933.105	81.9959	933.105	82.2388	933.105	81.2381	933.105	81.5053	933.105	80.4837	933.105	80.9141	933.105	79.7988	933.105	80.2629	933.105	78.4111	933.105	79.0029	933.105	76.2133	933.105	77.3388	933.105	75.3461	933.105	76.0217	933.105	76.0741	933.105	75.2872	933.105	76.2832	933.105	75.3326	933.105	75.7934	933.105	76.1737	933.105	74.9292	933.105	76.4552	933.105	72.7335	933.105	75.0584	933.105	68.0396	933.105	71.6497	933.105	66.9145	933.105	66.727	933.105	70.2146	933.105	67.0245	933.105	71.7364	933.105	70.6424	933.105	72.0004
965.332	82.2684	965.332	82.1578	965.332	82.0619	965.332	81.7389	965.332	81.9491	965.332	81.3479	965.332	81.7919	965.332	80.7181	965.332	81.1668	965.332	79.5078	965.332	80.2012	965.332	78.1891	965.332	79.2111	965.332	77.0722	965.332	78.0397	965.332	75.5442	965.332	76.4049	965.332	74.3873	965.332	74.8506	965.332	75.1798	965.332	74.6129	965.332	75.6987	965.332	74.9004	965.332	74.6757	965.332	74.6429	965.332	72.3281	965.332	73.5919	965.332	68.9006	965.332	71.3113	965.332	67.3012	965.332	66.1393	965.332	69.9577	965.332	63.3561	965.332	71.1348	965.332	68.4133	965.332	70.5762
1,000.49	82.0147	1,000.49	81.7406	1,000.49	81.9254	1,000.49	81.3458	1,000.49	81.5874	1,000.49	80.9684	1,000.49	81.2456	1,000.49	80.4703	1,000.49	80.7217	1,000.49	79.67	1,000.49	79.8383	1,000.49	78.3286	1,000.49	78.8412	1,000.49	76.3495	1,000.49	77.6093	1,000.49	74.7513	1,000.49	75.8173	1,000.49	74.6822	1,000.49	74.1917	1,000.49	75.1279	1,000.49	73.6738	1,000.49	75.2926	1,000.49	73.774	1,000.49	74.728	1,000.49	73.8747	1,000.49	72.6081	1,000.49	73.6311	1,000.49	68.9842	1,000.49	71.8849	1,000.49	68.0717	1,000.49	67.6375	1,000.49	69.4247	1,000.49	65.2127	1,000.49	70.7595	1,000.49	69.1865	1,000.49	71.1767
1,035.64	81.5997	1,035.64	81.509	1,035.64	81.8338	1,035.64	81.3636	1,035.64	81.7882	1,035.64	80.9139	1,035.64	81.1345	1,035.64	80.24	1,035.64	80.3	1,035.64	79.2997	1,035.64	79.7249	1,035.64	78.0022	1,035.64	79.0565	1,035.64	76.7301	1,035.64	77.8577	1,035.64	75.6327	1,035.64	76.2016	1,035.64	74.4251	1,035.64	74.4257	1,035.64	73.9803	1,035.64	73.5673	1,035.64	74.2726	1,035.64	74.306	1,035.64	73.8338	1,035.64	74.7691	1,035.64	72.0865	1,035.64	73.6894	1,035.64	69.4748	1,035.64	71.4911	1,035.64	68.9957	1,035.64	67.836	1,035.64	70.665	1,035.64	62.7578	1,035.64	71.2011	1,035.64	67.1594	1,035.64	70.2147
1,072.27	81.4318	1,072.27	81.2932	1,072.27	81.5878	1,072.27	81.0186	1,072.27	81.3505	1,072.27	80.3978	1,072.27	80.7356	1,072.27	79.7296	1,072.27	80.2677	1,072.27	79.0128	1,072.27	79.7844	1,072.27	77.9297	1,072.27	78.8619	1,072.27	76.4968	1,072.27	77.6874	1,072.27	74.6858	1,072.27	76.2597	1,072.27	73.1323	1,072.27	74.2051	1,072.27	73.3528	1,072.27	72.6656	1,072.27	73.9762	1,072.27	72.9697	1,072.27	73.3741	1,072.27	73.1619	1,072.27	71.8283	1,072.27	72.852	1,072.27	69.6081	1,072.27	72.4752	1,072.27	67.2679	1,072.27	69.9227	1,072.27	69.9512	1,072.27	63.5799	1,072.27	71.6879	1,072.27	66.5764	1,072.27	70.4959
1,108.89	81.6388	1,108.89	81.3352	1,108.89	81.6922	1,108.89	80.9865	1,108.89	81.3466	1,108.89	80.3269	1,108.89	80.9285	1,108.89	79.4477	1,108.89	80.244	1,108.89	78.5543	1,108.89	79.121	1,108.89	77.324	1,108.89	78.1606	1,108.89	75.6453	1,108.89	77.2261	1,108.89	73.8515	1,108.89	75.7465	1,108.89	72.8683	1,108.89	74.322	1,108.89	73.4666	1,108.89	73.1693	1,108.89	73.8086	1,108.89	72.6441	1,108.89	73.049	1,108.89	73.622	1,108.89	71.0338	1,108.89	73.6915	1,108.89	67.2165	1,108.89	71.5145	1,108.89	67.1851	1,108.89	67.6583	1,108.89	70.2946	1,108.89	65.0502	1,108.89	71.2505	1,108.89	68.4202	1,108.89	70.842
1,148.44	81.9211	1,148.44	81.5316	1,148.44	81.9225	1,148.44	80.9991	1,148.44	81.5233	1,148.44	80.3219	1,148.44	80.9364	1,148.44	79.3656	1,148.44	80.2891	1,148.44	78.235	1,148.44	79.5854	1,148.44	77.3508	1,148.44	78.8504	1,148.44	76.745	1,148.44	78.0984	1,148.44	75.3546	1,148.44	76.9753	1,148.44	73.2451	1,148.44	75.128	1,148.44	72.347	1,148.44	72.9248	1,148.44	72.212	1,148.44	71.4798	1,148.44	72.7739	1,148.44	71.7891	1,148.44	72.3753	1,148.44	72.6368	1,148.44	67.9391	1,148.44	72.2413	1,148.44	64.834	1,148.44	69.8149	1,148.44	69.0282	1,148.44	65.3194	1,148.44	70.8046	1,148.44	66.2914	1,148.44	70.3473
1,189.45	82.1553	1,189.45	81.8656	1,189.45	82.2649	1,189.45	81.0584	1,189.45	82.2564	1,189.45	80.2139	1,189.45	81.6128	1,189.45	79.5697	1,189.45	80.6674	1,189.45	78.8336	1,189.45	79.756	1,189.45	77.8281	1,189.45	78.8066	1,189.45	76.5672	1,189.45	77.8876	1,189.45	75.0105	1,189.45	76.4969	1,189.45	72.7983	1,189.45	74.7277	1,189.45	71.6535	1,189.45	73.5327	1,189.45	73.278	1,189.45	72.7538	1,189.45	73.7979	1,189.45	73.1161	1,189.45	71.2267	1,189.45	73.7261	1,189.45	67.6992	1,189.45	72.8129	1,189.45	68.7244	1,189.45	70.4867	1,189.45	70.876	1,189.45	68.3615	1,189.45	72.1008	1,189.45	70.2429	1,189.45	71.7794
1,230.47	82.8546	1,230.47	82.3626	1,230.47	82.8433	1,230.47	81.7755	1,230.47	82.4256	1,230.47	81.0691	1,230.47	81.8821	1,230.47	80.1149	1,230.47	81.1642	1,230.47	79.2663	1,230.47	80.1162	1,230.47	78.1443	1,230.47	79.1455	1,230.47	76.8838	1,230.47	78.5955	1,230.47	75.6541	1,230.47	77.564	1,230.47	73.3559	1,230.47	75.9383	1,230.47	71.838	1,230.47	74.4173	1,230.47	72.2096	1,230.47	72.9726	1,230.47	72.2989	1,230.47	73.0107	1,230.47	71.2556	1,230.47	73.3107	1,230.47	69.3567	1,230.47	71.9151	1,230.47	68.3954	1,230.47	69.9858	1,230.47	69.5514	1,230.47	68.9481	1,230.47	71.4621	1,230.47	70.4053	1,230.47	71.8591
1,274.41	83.0525	1,274.41	82.9319	1,274.41	83.1259	1,274.41	82.5048	1,274.41	82.8859	1,274.41	81.6872	1,274.41	82.159	1,274.41	80.547	1,274.41	81.2178	1,274.41	79.0626	1,274.41	80.4082	1,274.41	78.1262	1,274.41	79.5135	1,274.41	77.5737	1,274.41	78.4527	1,274.41	76.1869	1,274.41	77.6664	1,274.41	74.6626	1,274.41	76.3545	1,274.41	73.0857	1,274.41	74.4108	1,274.41	71.9592	1,274.41	73.1828	1,274.41	72.7154	1,274.41	72.4384	1,274.41	72.1186	1,274.41	72.3028	1,274.41	69.3462	1,274.41	71.362	1,274.41	66.9924	1,274.41	68.8717	1,274.41	70.1861	1,274.41	66.8276	1,274.41	71.7843	1,274.41	69.1046	1,274.41	71.3708
1,319.82	83.6895	1,319.82	83.4066	1,319.82	83.8673	1,319.82	82.8427	1,319.82	83.2116	1,319.82	81.9985	1,319.82	82.4742	1,319.82	81.1992	1,319.82	81.7463	1,319.82	79.9848	1,319.82	80.5308	1,319.82	78.8238	1,319.82	78.9991	1,319.82	77.7238	1,319.82	77.8103	1,319.82	76.9518	1,319.82	77.6106	1,319.82	74.7755	1,319.82	76.4359	1,319.82	72.0345	1,319.82	74.1027	1,319.82	72.5062	1,319.82	71.9596	1,319.82	72.5549	1,319.82	71.3086	1,319.82	72.9746	1,319.82	72.7421	1,319.82	70.9186	1,319.82	73.6692	1,319.82	70.5637	1,319.82	72.1047	1,319.82	72.1797	1,319.82	69.1466	1,319.82	73.5269	1,319.82	70.8629	1,319.82	72.6567
1,366.7	83.7239	1,366.7	83.22	1,366.7	83.2583	1,366.7	82.4685	1,366.7	82.8819	1,366.7	81.6419	1,366.7	82.647	1,366.7	80.6924	1,366.7	81.7333	1,366.7	80.11	1,366.7	80.3371	1,366.7	79.2899	1,366.7	79.5276	1,366.7	78.556	1,366.7	79.0336	1,366.7	76.7873	1,366.7	78.2343	1,366.7	75.4006	1,366.7	77.3073	1,366.7	74.0621	1,366.7	75.5375	1,366.7	71.1573	1,366.7	72.9931	1,366.7	70.8455	1,366.7	71.3611	1,366.7	70.6324	1,366.7	71.5047	1,366.7	69.0704	1,366.7	69.8586	1,366.7	69.0456	1,366.7	67.2167	1,366.7	72.4495	1,366.7	67.0224	1,366.7	73.6681	1,366.7	70.7536	1,366.7	72.9276
1,413.57	83.1922	1,413.57	83.01	1,413.57	83.3664	1,413.57	82.7838	1,413.57	82.9184	1,413.57	81.9805	1,413.57	82.2507	1,413.57	80.9946	1,413.57	81.5166	1,413.57	79.7319	1,413.57	80.2269	1,413.57	78.7321	1,413.57	78.7628	1,413.57	77.7243	1,413.57	77.5213	1,413.57	75.9839	1,413.57	76.5423	1,413.57	74.9417	1,413.57	75.0806	1,413.57	73.7833	1,413.57	74.5217	1,413.57	73.2192	1,413.57	73.9641	1,413.57	73.4512	1,413.57	71.6766	1,413.57	71.5557	1,413.57	71.8577	1,413.57	69.8469	1,413.57	70.6435	1,413.57	68.5612	1,413.57	67.3857	1,413.57	71.8953	1,413.57	65.4555	1,413.57	74.2008	1,413.57	69.7091	1,413.57	73.7827
1,463.38	82.4063	1,463.38	82.2553	1,463.38	82.2878	1,463.38	81.8324	1,463.38	82.1584	1,463.38	81.2598	1,463.38	81.966	1,463.38	79.9809	1,463.38	81.0127	1,463.38	79.1126	1,463.38	79.6391	1,463.38	78.2306	1,463.38	78.8304	1,463.38	76.5362	1,463.38	77.3012	1,463.38	75.2731	1,463.38	74.9277	1,463.38	74.6635	1,463.38	73.387	1,463.38	72.9566	1,463.38	72.83	1,463.38	72.1064	1,463.38	72.5007	1,463.38	71.9154	1,463.38	72.3733	1,463.38	71.5386	1,463.38	71.0379	1,463.38	69.3493	1,463.38	70.9795	1,463.38	66.4847	1,463.38	68.9364	1,463.38	70.8747	1,463.38	66.0525	1,463.38	73.7442	1,463.38	68.7614	1,463.38	73.003
1,516.11	82.2535	1,516.11	81.8791	1,516.11	82.284	1,516.11	81.2171	1,516.11	82.1888	1,516.11	80.5653	1,516.11	81.6941	1,516.11	80.2296	1,516.11	80.8384	1,516.11	78.32	1,516.11	80.3339	1,516.11	77.1722	1,516.11	78.4732	1,516.11	76.463	1,516.11	76.4485	1,516.11	75.4897	1,516.11	75.6164	1,516.11	74.5296	1,516.11	74.5711	1,516.11	72.3412	1,516.11	72.9857	1,516.11	70.7706	1,516.11	71.5249	1,516.11	70.5327	1,516.11	70.2532	1,516.11	71.3282	1,516.11	70.0795	1,516.11	67.4304	1,516.11	70.94	1,516.11	62.3221	1,516.11	69.3124	1,516.11	70.4694	1,516.11	65.9705	1,516.11	72.4451	1,516.11	68.7391	1,516.11	71.9156
1,568.85	81.6574	1,568.85	81.5496	1,568.85	81.6284	1,568.85	81.3449	1,568.85	81.5619	1,568.85	80.4364	1,568.85	81.2689	1,568.85	78.8783	1,568.85	80.9497	1,568.85	78.3182	1,568.85	79.6625	1,568.85	76.9167	1,568.85	78.0546	1,568.85	74.9161	1,568.85	76.7627	1,568.85	74.4397	1,568.85	76.522	1,568.85	73.5766	1,568.85	74.4919	1,568.85	72.0494	1,568.85	72.8356	1,568.85	71.165	1,568.85	71.0718	1,568.85	70.7226	1,568.85	69.4306	1,568.85	70.7695	1,568.85	71.3037	1,568.85	68.2763	1,568.85	71.9211	1,568.85	65.6161	1,568.85	67.897	1,568.85	70.4916	1,568.85	65.1939	1,568.85	71.9179	1,568.85	68.4104	1,568.85	70.6879
1,624.51	82.615	1,624.51	82.4808	1,624.51	82.381	1,624.51	82.3519	1,624.51	82.5286	1,624.51	81.491	1,624.51	82.4956	1,624.51	80.1875	1,624.51	81.8657	1,624.51	79.1793	1,624.51	80.7328	1,624.51	77.6849	1,624.51	79.5578	1,624.51	76.0777	1,624.51	79.1248	1,624.51	75.9725	1,624.51	77.5794	1,624.51	72.5398	1,624.51	76.3054	1,624.51	72.3836	1,624.51	74.7107	1,624.51	72.2586	1,624.51	71.3306	1,624.51	72.4901	1,624.51	71.2856	1,624.51	73.3299	1,624.51	70.4803	1,624.51	70.9104	1,624.51	70.8276	1,624.51	65.9382	1,624.51	69.5542	1,624.51	60.3218	1,624.51	64.2681	1,624.51	66.5613	1,624.51	59.4893	1,624.51	63.1836
1,681.64	83.2779	1,681.64	83.3776	1,681.64	83.6682	1,681.64	83.0348	1,681.64	83.2628	1,681.64	81.8996	1,681.64	83.0036	1,681.64	81.1992	1,681.64	82.3329	1,681.64	78.9731	1,681.64	81.2451	1,681.64	78.6664	1,681.64	80.6084	1,681.64	79.0544	1,681.64	79.5325	1,681.64	75.5696	1,681.64	76.429	1,681.64	72.4826	1,681.64	74.6433	1,681.64	68.6985	1,681.64	73.4616	1,681.64	69.15	1,681.64	72.9815	1,681.64	68.1408	1,681.64	72.7875	1,681.64	68.4973	1,681.64	70.8654	1,681.64	67.7141	1,681.64	71.1261	1,681.64	68.4474	1,681.64	70.9521	1,681.64	69.5932	1,681.64	72.293	1,681.64	73.0153	1,681.64	73.219	1,681.64	74.5043
1,741.7	84.6155	1,741.7	84.0856	1,741.7	83.9253	1,741.7	83.3513	1,741.7	82.8461	1,741.7	82.6258	1,741.7	82.7525	1,741.7	81.4839	1,741.7	82.3531	1,741.7	80.2231	1,741.7	81.9783	1,741.7	79.2498	1,741.7	79.9839	1,741.7	77.3913	1,741.7	79.5077	1,741.7	76.2769	1,741.7	77.6456	1,741.7	75.8746	1,741.7	76.235	1,741.7	74.134	1,741.7	75.5804	1,741.7	72.576	1,741.7	74.4694	1,741.7	70.3461	1,741.7	73.7238	1,741.7	70.7895	1,741.7	72.3916	1,741.7	68.7269	1,741.7	69.2931	1,741.7	60.4526	1,741.7	67.3296	1,741.7	70.4083	1,741.7	62.5447	1,741.7	74.2845	1,741.7	66.01	1,741.7	72.4981
1,803.22	83.364	1,803.22	83.1781	1,803.22	83.5579	1,803.22	83.3502	1,803.22	83.0212	1,803.22	82.6575	1,803.22	82.0795	1,803.22	81.2794	1,803.22	80.9917	1,803.22	80.2519	1,803.22	78.7013	1,803.22	79.1732	1,803.22	78.9275	1,803.22	77.1389	1,803.22	77.6514	1,803.22	74.99	1,803.22	75.4226	1,803.22	75.5151	1,803.22	74.4895	1,803.22	73.883	1,803.22	70.9834	1,803.22	73.3442	1,803.22	69.9788	1,803.22	73.1043	1,803.22	69.2014	1,803.22	74.3965	1,803.22	67.4855	1,803.22	71.1673	1,803.22	71.187	1,803.22	63.5875	1,803.22	69.0626	1,803.22	66.6605	1,803.22	66.3148	1,803.22	72.0514	1,803.22	67.8309	1,803.22	72.4255
1,866.21	82.3681	1,866.21	82.4926	1,866.21	82.407	1,866.21	81.8929	1,866.21	81.9822	1,866.21	81.2083	1,866.21	81.2991	1,866.21	80.0624	1,866.21	80.4952	1,866.21	78.9022	1,866.21	79.8454	1,866.21	78.4417	1,866.21	78.918	1,866.21	76.8602	1,866.21	77.5765	1,866.21	75.3204	1,866.21	76.2312	1,866.21	74.2661	1,866.21	73.7246	1,866.21	72.964	1,866.21	73.2461	1,866.21	70.7297	1,866.21	71.4885	1,866.21	69.8305	1,866.21	69.0599	1,866.21	70.1671	1,866.21	67.3335	1,866.21	68.55	1,866.21	68.6948	1,866.21	67.5694	1,866.21	69.8937	1,866.21	69.9258	1,866.21	67.1016	1,866.21	73.111	1,866.21	66.8938	1,866.21	72.2676
1,932.13	83.4034	1,932.13	82.6376	1,932.13	83.373	1,932.13	81.8584	1,932.13	82.4658	1,932.13	81.3224	1,932.13	82.026	1,932.13	80.9903	1,932.13	81.3004	1,932.13	79.8941	1,932.13	79.9964	1,932.13	77.3074	1,932.13	79.1977	1,932.13	76.4638	1,932.13	77.8358	1,932.13	75.2688	1,932.13	76.7202	1,932.13	74.5559	1,932.13	76.2169	1,932.13	72.0212	1,932.13	74.34	1,932.13	72.0117	1,932.13	71.4446	1,932.13	67.6953	1,932.13	71.2235	1,932.13	68.2871	1,932.13	69.2674	1,932.13	69.8271	1,932.13	69.2106	1,932.13	67.6679	1,932.13	68.3058	1,932.13	70.21	1,932.13	63.9882	1,932.13	73.0488	1,932.13	68.3171	1,932.13	71.5489
1,999.51	83.9214	1,999.51	83.4088	1,999.51	83.8892	1,999.51	83.1806	1,999.51	83.8574	1,999.51	82.0117	1,999.51	82.7413	1,999.51	80.8605	1,999.51	81.8195	1,999.51	79.9729	1,999.51	80.9317	1,999.51	78.894	1,999.51	80.0522	1,999.51	76.4736	1,999.51	78.9696	1,999.51	75.4633	1,999.51	77.0158	1,999.51	74.8649	1,999.51	75.9327	1,999.51	72.7782	1,999.51	74.7412	1,999.51	71.1175	1,999.51	73.9733	1,999.51	70.0161	1,999.51	70.512	1,999.51	68.2194	1,999.51	70.6572	1,999.51	67.5703	1,999.51	68.1669	1,999.51	58.5054	1,999.51	69.9137	1,999.51	68.5902	1,999.51	66.0472	1,999.51	72.7056	1,999.51	66.748	1,999.51	70.9629
2,069.82	84.5767	2,069.82	84.3726	2,069.82	84.5888	2,069.82	83.6867	2,069.82	84.0238	2,069.82	82.6196	2,069.82	83.3338	2,069.82	81.7077	2,069.82	82.5487	2,069.82	80.5312	2,069.82	81.4187	2,069.82	79.7789	2,069.82	80.5212	2,069.82	78.1675	2,069.82	79.6944	2,069.82	76.518	2,069.82	78.0604	2,069.82	74.8033	2,069.82	75.4986	2,069.82	73.5375	2,069.82	74.8917	2,069.82	72.1428	2,069.82	73.1945	2,069.82	69.731	2,069.82	71.9987	2,069.82	69.4701	2,069.82	71.0907	2,069.82	68.7542	2,069.82	69.8709	2,069.82	63.3694	2,069.82	67.9438	2,069.82	65.3261	2,069.82	61.8105	2,069.82	71.6134	2,069.82	66.37	2,069.82	72.7561
2,143.07	84.175	2,143.07	84.0729	2,143.07	84.1309	2,143.07	83.5516	2,143.07	83.8389	2,143.07	83.2105	2,143.07	82.9825	2,143.07	82.3051	2,143.07	82.4315	2,143.07	81.4176	2,143.07	80.9759	2,143.07	79.3208	2,143.07	79.9018	2,143.07	78.4821	2,143.07	78.4124	2,143.07	77.2982	2,143.07	77.5057	2,143.07	76.0531	2,143.07	76.9563	2,143.07	72.8317	2,143.07	75.1337	2,143.07	71.5663	2,143.07	72.5619	2,143.07	70.1895	2,143.07	71.853	2,143.07	69.7873	2,143.07	69.0452	2,143.07	71.4253	2,143.07	70.0489	2,143.07	68.9787	2,143.07	69.4094	2,143.07	63.5042	2,143.07	64.7741	2,143.07	71.2784	2,143.07	59.8637	2,143.07	70.2061
2,219.24	83.0652	2,219.24	82.4775	2,219.24	82.9955	2,219.24	82.4297	2,219.24	82.5609	2,219.24	82.1769	2,219.24	82.0018	2,219.24	81.524	2,219.24	81.1795	2,219.24	80.9374	2,219.24	80.168	2,219.24	79.7873	2,219.24	79.0516	2,219.24	77.7802	2,219.24	77.8684	2,219.24	76.4708	2,219.24	76.6552	2,219.24	75.0754	2,219.24	75.0256	2,219.24	74.5079	2,219.24	74.2843	2,219.24	72.84	2,219.24	73.0893	2,219.24	70.7007	2,219.24	69.5764	2,219.24	69.5194	2,219.24	68.697	2,219.24	70.9381	2,219.24	67.2916	2,219.24	66.8276	2,219.24	70.2562	2,219.24	64.8074	2,219.24	68.3501	2,219.24	69.8685	2,219.24	54.1956	2,219.24	68.4041
2,296.88	82.0634	2,296.88	82.3073	2,296.88	82.314	2,296.88	82.0796	2,296.88	82.357	2,296.88	81.4561	2,296.88	81.7355	2,296.88	80.3093	2,296.88	81.3835	2,296.88	79.3448	2,296.88	80.4653	2,296.88	78.6344	2,296.88	79.2035	2,296.88	76.853	2,296.88	78.6092	2,296.88	73.7804	2,296.88	76.9155	2,296.88	73.7936	2,296.88	73.163	2,296.88	72.419	2,296.88	74.3788	2,296.88	69.7596	2,296.88	74.0987	2,296.88	68.7269	2,296.88	70.7495	2,296.88	66.1184	2,296.88	69.7038	2,296.88	69.0589	2,296.88	65.8234	2,296.88	67.6967	2,296.88	68.0328	2,296.88	65.9989	2,296.88	68.4009	2,296.88	69.9971	2,296.88	63.8875	2,296.88	68.9831
2,378.91	83.0959	2,378.91	83.1061	2,378.91	83.2288	2,378.91	82.594	2,378.91	82.9313	2,378.91	81.8551	2,378.91	83.1118	2,378.91	80.983	2,378.91	82.6318	2,378.91	79.832	2,378.91	82.1276	2,378.91	79.0249	2,378.91	80.8515	2,378.91	77.3857	2,378.91	80.114	2,378.91	75.3032	2,378.91	78.1103	2,378.91	72.9583	2,378.91	77.299	2,378.91	71.2198	2,378.91	75.4479	2,378.91	69.3349	2,378.91	73.7721	2,378.91	68.2322	2,378.91	72.1573	2,378.91	66.157	2,378.91	71.0312	2,378.91	67.6992	2,378.91	67.0739	2,378.91	66.8546	2,378.91	68.491	2,378.91	65.9398	2,378.91	68.954	2,378.91	70.488	2,378.91	64.9217	2,378.91	68.7535
2,462.4	83.5276	2,462.4	83.7646	2,462.4	83.4616	2,462.4	83.4024	2,462.4	83.4749	2,462.4	83.1016	2,462.4	83.2772	2,462.4	82.449	2,462.4	83.2475	2,462.4	81.3229	2,462.4	82.262	2,462.4	80.4127	2,462.4	81.1915	2,462.4	79.7199	2,462.4	80.2072	2,462.4	76.5646	2,462.4	78.7777	2,462.4	74.8121	2,462.4	76.779	2,462.4	73.7883	2,462.4	74.609	2,462.4	71.63	2,462.4	74.3958	2,462.4	70.6584	2,462.4	72.3501	2,462.4	68.6817	2,462.4	71.1687	2,462.4	67.5816	2,462.4	68.7627	2,462.4	66.1081	2,462.4	68.9498	2,462.4	63.0773	2,462.4	66.833	2,462.4	71.254	2,462.4	64.5015	2,462.4	71.1856
2,548.83	83.3159	2,548.83	83.4399	2,548.83	82.8661	2,548.83	83.0778	2,548.83	82.7194	2,548.83	82.8545	2,548.83	82.0877	2,548.83	82.0836	2,548.83	81.8096	2,548.83	80.9072	2,548.83	81.4435	2,548.83	79.8714	2,548.83	80.7699	2,548.83	78.7216	2,548.83	79.1282	2,548.83	77.2037	2,548.83	78.0687	2,548.83	75.9713	2,548.83	75.6116	2,548.83	73.7164	2,548.83	73.9103	2,548.83	71.6458	2,548.83	73.5618	2,548.83	70.8334	2,548.83	71.6645	2,548.83	70.716	2,548.83	70.2542	2,548.83	68.9782	2,548.83	69.9226	2,548.83	67.9718	2,548.83	66.398	2,548.83	64.896	2,548.83	67.1735	2,548.83	69.3218	2,548.83	62.7095	2,548.83	69.4558
2,639.65	81.7809	2,639.65	81.8427	2,639.65	81.9481	2,639.65	82.1877	2,639.65	81.3738	2,639.65	81.4402	2,639.65	81.6218	2,639.65	81.2683	2,639.65	81.4057	2,639.65	80.0699	2,639.65	80.5398	2,639.65	78.824	2,639.65	79.6876	2,639.65	77.546	2,639.65	78.3695	2,639.65	76.673	2,639.65	77.3375	2,639.65	74.1219	2,639.65	76.6457	2,639.65	73.045	2,639.65	73.7691	2,639.65	70.3449	2,639.65	71.439	2,639.65	70.3485	2,639.65	69.3717	2,639.65	69.0091	2,639.65	69.9007	2,639.65	68.9459	2,639.65	67.8676	2,639.65	67.6522	2,639.65	65.988	2,639.65	59.6716	2,639.65	66.6268	2,639.65	69.5772	2,639.65	55.9626	2,639.65	68.7679
2,731.93	81.045	2,731.93	81.3652	2,731.93	81.6833	2,731.93	81.4237	2,731.93	81.2451	2,731.93	80.7607	2,731.93	81.8069	2,731.93	80.7892	2,731.93	81.442	2,731.93	80.3532	2,731.93	81.1	2,731.93	78.0064	2,731.93	79.8611	2,731.93	76.9011	2,731.93	78.3223	2,731.93	75.9333	2,731.93	77.2919	2,731.93	73.0013	2,731.93	75.9736	2,731.93	72.2978	2,731.93	73.0505	2,731.93	71.0813	2,731.93	71.666	2,731.93	68.3327	2,731.93	70.709	2,731.93	68.3101	2,731.93	68.7169	2,731.93	66.3928	2,731.93	68.6007	2,731.93	67.9152	2,731.93	66.2263	2,731.93	62.0848	2,731.93	67.7399	2,731.93	68.5801	2,731.93	62.7673	2,731.93	68.8196
2,828.61	81.9069	2,828.61	82.0427	2,828.61	81.5963	2,828.61	81.9673	2,828.61	82.0145	2,828.61	82.1014	2,828.61	82.0772	2,828.61	81.4007	2,828.61	81.8337	2,828.61	80.6137	2,828.61	81.2357	2,828.61	79.2442	2,828.61	80.4463	2,828.61	77.6369	2,828.61	78.9777	2,828.61	75.8751	2,828.61	77.5463	2,828.61	74.5021	2,828.61	76.0349	2,828.61	73.1017	2,828.61	73.6494	2,828.61	70.7157	2,828.61	73.0243	2,828.61	69.0207	2,828.61	71.2078	2,828.61	67.8873	2,828.61	68.057	2,828.61	66.6612	2,828.61	69.1143	2,828.61	68.4653	2,828.61	66.4211	2,828.61	58.3915	2,828.61	67.4124	2,828.61	69.3121	2,828.61	60.1491	2,828.61	67.781
2,928.22	82.6953	2,928.22	82.7199	2,928.22	82.2866	2,928.22	82.6072	2,928.22	82.5661	2,928.22	82.5834	2,928.22	82.7386	2,928.22	81.944	2,928.22	82.7399	2,928.22	80.8461	2,928.22	82.0171	2,928.22	79.9149	2,928.22	80.841	2,928.22	78.2494	2,928.22	79.7351	2,928.22	76.2484	2,928.22	78.0408	2,928.22	74.9897	2,928.22	76.7754	2,928.22	72.9226	2,928.22	74.4527	2,928.22	71.498	2,928.22	72.8294	2,928.22	69.7938	2,928.22	71.2598	2,928.22	71.1737	2,928.22	68.6348	2,928.22	67.4695	2,928.22	69.2298	2,928.22	68.6259	2,928.22	67.7426	2,928.22	63.1836	2,928.22	67.4094	2,928.22	70.8169	2,928.22	59.7089	2,928.22	68.8361
3,030.76	82.8164	3,030.76	82.8164	3,030.76	82.5246	3,030.76	83.049	3,030.76	82.6205	3,030.76	82.956	3,030.76	82.7734	3,030.76	82.0978	3,030.76	82.685	3,030.76	80.7136	3,030.76	82.2409	3,030.76	80.2464	3,030.76	81.2474	3,030.76	77.9389	3,030.76	79.8364	3,030.76	76.6138	3,030.76	78.1207	3,030.76	74.7992	3,030.76	76.135	3,030.76	73.0115	3,030.76	74.7211	3,030.76	71.5745	3,030.76	71.7082	3,030.76	68.7651	3,030.76	71.3299	3,030.76	70.689	3,030.76	68.4919	3,030.76	67.9397	3,030.76	69.6381	3,030.76	67.8873	3,030.76	67.2361	3,030.76	60.4091	3,030.76	68.0706	3,030.76	68.1548	3,030.76	60.8105	3,030.76	67.0807
3,137.7	82.7085	3,137.7	82.8649	3,137.7	82.6787	3,137.7	82.9082	3,137.7	82.5607	3,137.7	82.7724	3,137.7	82.8612	3,137.7	82.1441	3,137.7	82.4675	3,137.7	81.4343	3,137.7	82.171	3,137.7	80.1988	3,137.7	80.9199	3,137.7	78.2833	3,137.7	79.6002	3,137.7	76.8574	3,137.7	78.0622	3,137.7	75.6261	3,137.7	76.0254	3,137.7	73.0625	3,137.7	74.8069	3,137.7	72.0642	3,137.7	72.1597	3,137.7	69.3703	3,137.7	71.7894	3,137.7	70.2787	3,137.7	68.7584	3,137.7	68.5653	3,137.7	68.9523	3,137.7	67.7597	3,137.7	67.0306	3,137.7	54.9473	3,137.7	68.0673	3,137.7	67.1571	3,137.7	58.7039	3,137.7	66.7657
3,249.02	82.618	3,249.02	82.6303	3,249.02	82.7586	3,249.02	82.9586	3,249.02	82.7032	3,249.02	82.5478	3,249.02	83.0414	3,249.02	82.1599	3,249.02	82.675	3,249.02	80.8908	3,249.02	82.1777	3,249.02	79.2808	3,249.02	81.0795	3,249.02	77.8506	3,249.02	79.8667	3,249.02	76.2898	3,249.02	77.8705	3,249.02	74.7982	3,249.02	75.7557	3,249.02	72.1403	3,249.02	74.5306	3,249.02	71.3235	3,249.02	71.944	3,249.02	69.4249	3,249.02	70.9624	3,249.02	70.743	3,249.02	68.805	3,249.02	67.8605	3,249.02	67.8147	3,249.02	68.6795	3,249.02	67.803	3,249.02	60.2747	3,249.02	67.6075	3,249.02	68.3363	3,249.02	62.95	3,249.02	67.6883
3,363.28	83.113	3,363.28	83.2536	3,363.28	83.1873	3,363.28	83.2165	3,363.28	83.371	3,363.28	82.8887	3,363.28	83.5007	3,363.28	82.5119	3,363.28	83.1939	3,363.28	81.7688	3,363.28	82.1831	3,363.28	79.5471	3,363.28	80.8829	3,363.28	77.7055	3,363.28	79.4813	3,363.28	75.9448	3,363.28	77.5577	3,363.28	74.3628	3,363.28	75.6649	3,363.28	72.5882	3,363.28	73.7677	3,363.28	70.1523	3,363.28	71.3326	3,363.28	68.6795	3,363.28	70.0271	3,363.28	68.9513	3,363.28	68.5105	3,363.28	67.4445	3,363.28	67.8265	3,363.28	67.4045	3,363.28	67.5173	3,363.28	62.2141	3,363.28	66.7353	3,363.28	66.7325	3,363.28	61.9073	3,363.28	65.3722
3,481.93	83.187	3,481.93	83.6409	3,481.93	83.0656	3,481.93	83.8043	3,481.93	83.5271	3,481.93	83.3641	3,481.93	83.6014	3,481.93	83.1319	3,481.93	83.1553	3,481.93	82.0115	3,481.93	82.0688	3,481.93	80.4323	3,481.93	81.2166	3,481.93	78.5907	3,481.93	79.514	3,481.93	76.3575	3,481.93	77.6435	3,481.93	74.6808	3,481.93	76.0467	3,481.93	72.871	3,481.93	74.2796	3,481.93	71.1305	3,481.93	72.8361	3,481.93	69.613	3,481.93	70.5091	3,481.93	69.8026	3,481.93	69.3683	3,481.93	68.3587	3,481.93	68.0428	3,481.93	67.8622	3,481.93	68.1271	3,481.93	60.5052	3,481.93	66.6095	3,481.93	66.131	3,481.93	61.9706	3,481.93	63.1307
3,604.98	83.7704	3,604.98	84.2414	3,604.98	83.6467	3,604.98	84.3225	3,604.98	84.5005	3,604.98	83.842	3,604.98	84.6468	3,604.98	83.48	3,604.98	84.4549	3,604.98	81.8463	3,604.98	83.3034	3,604.98	80.4885	3,604.98	82.0823	3,604.98	78.3215	3,604.98	80.6749	3,604.98	76.3852	3,604.98	78.3409	3,604.98	74.7487	3,604.98	76.7793	3,604.98	72.598	3,604.98	74.6229	3,604.98	70.9509	3,604.98	73.435	3,604.98	69.7678	3,604.98	70.8267	3,604.98	69.6385	3,604.98	70.3991	3,604.98	69.0358	3,604.98	69.324	3,604.98	66.5642	3,604.98	69.3238	3,604.98	59.3939	3,604.98	67.1442	3,604.98	64.9896	3,604.98	62.7845	3,604.98	62.3224
3,732.42	84.2663	3,732.42	84.4802	3,732.42	84.7667	3,732.42	84.8198	3,732.42	84.2797	3,732.42	84.8051	3,732.42	84.5089	3,732.42	83.68	3,732.42	83.7755	3,732.42	82.1966	3,732.42	82.9297	3,732.42	80.8535	3,732.42	81.6664	3,732.42	78.3156	3,732.42	79.6807	3,732.42	77.3032	3,732.42	77.9111	3,732.42	74.5968	3,732.42	75.6409	3,732.42	73.3546	3,732.42	73.5028	3,732.42	70.3378	3,732.42	71.8902	3,732.42	68.9961	3,732.42	69.8555	3,732.42	69.638	3,732.42	69.608	3,732.42	69.2372	3,732.42	66.9597	3,732.42	65.0886	3,732.42	68.7377	3,732.42	60.9998	3,732.42	65.0344	3,732.42	63.2893	3,732.42	61.0441	3,732.42	61.8167
3,864.26	83.3862	3,864.26	83.2869	3,864.26	83.8009	3,864.26	83.5925	3,864.26	83.3094	3,864.26	83.6689	3,864.26	83.3286	3,864.26	82.1318	3,864.26	82.8546	3,864.26	81.373	3,864.26	81.8113	3,864.26	80.022	3,864.26	80.5386	3,864.26	78.0069	3,864.26	78.2922	3,864.26	76.4218	3,864.26	77.1868	3,864.26	74.0729	3,864.26	74.6252	3,864.26	73.0356	3,864.26	72.9191	3,864.26	70.038	3,864.26	71.6521	3,864.26	68.8963	3,864.26	68.6936	3,864.26	69.3801	3,864.26	67.5858	3,864.26	68.7911	3,864.26	67.498	3,864.26	64.5377	3,864.26	68.3054	3,864.26	61.2974	3,864.26	61.7497	3,864.26	64.2548	3,864.26	64.395	3,864.26	61.2915
4,000.49	83.8938	4,000.49	84.2831	4,000.49	83.7722	4,000.49	83.5025	4,000.49	84.3255	4,000.49	83.2148	4,000.49	83.7653	4,000.49	82.4824	4,000.49	83.5112	4,000.49	80.9707	4,000.49	82.7505	4,000.49	79.496	4,000.49	80.3565	4,000.49	77.1594	4,000.49	77.8382	4,000.49	74.8556	4,000.49	77.4417	4,000.49	72.8057	4,000.49	74.6147	4,000.49	70.3394	4,000.49	72.3082	4,000.49	68.2358	4,000.49	71.0404	4,000.49	67.1973	4,000.49	68.3444	4,000.49	66.4082	4,000.49	67.6525	4,000.49	66.9014	4,000.49	67.5592	4,000.49	61.589	4,000.49	67.6656	4,000.49	58.1607	4,000.49	64.2399	4,000.49	62.9887	4,000.49	60.6308	4,000.49	58.4072
4,141.11	84.1609	4,141.11	84.3817	4,141.11	84.0436	4,141.11	84.2768	4,141.11	84.2182	4,141.11	83.8371	4,141.11	84.1743	4,141.11	82.9585	4,141.11	82.7723	4,141.11	81.0406	4,141.11	81.1341	4,141.11	79.3663	4,141.11	79.3625	4,141.11	76.9562	4,141.11	77.9997	4,141.11	74.2526	4,141.11	75.5744	4,141.11	72.6465	4,141.11	72.2497	4,141.11	70.727	4,141.11	71.841	4,141.11	68.6194	4,141.11	69.4237	4,141.11	66.8587	4,141.11	68.0537	4,141.11	67.1682	4,141.11	65.306	4,141.11	66.8214	4,141.11	66.1278	4,141.11	62.7359	4,141.11	67.4369	4,141.11	58.3193	4,141.11	62.5047	4,141.11	60.5831	4,141.11	62.2627	4,141.11	56.8882
4,287.6	84.3612	4,287.6	83.7498	4,287.6	84.4805	4,287.6	84.6871	4,287.6	84.0118	4,287.6	83.4679	4,287.6	83.9187	4,287.6	81.4913	4,287.6	82.7584	4,287.6	80.0095	4,287.6	81.1894	4,287.6	77.6123	4,287.6	79.8817	4,287.6	75.5693	4,287.6	78.5961	4,287.6	73.8471	4,287.6	76.8009	4,287.6	71.4729	4,287.6	73.9062	4,287.6	67.9963	4,287.6	71.9951	4,287.6	68.9997	4,287.6	69.5371	4,287.6	69.0228	4,287.6	69.0827	4,287.6	66.9697	4,287.6	67.723	4,287.6	68.6623	4,287.6	67.4773	4,287.6	62.5765	4,287.6	68.8011	4,287.6	60.4357	4,287.6	63.4238	4,287.6	63.1924	4,287.6	63.8341	4,287.6	62.2735
4,438.48	83.6755	4,438.48	83.9425	4,438.48	83.4126	4,438.48	83.2363	4,438.48	84.1114	4,438.48	82.9054	4,438.48	83.4432	4,438.48	81.5627	4,438.48	83.28	4,438.48	79.5989	4,438.48	82.182	4,438.48	78.7003	4,438.48	79.9099	4,438.48	76.601	4,438.48	78.0152	4,438.48	73.2908	4,438.48	75.3813	4,438.48	71.9136	4,438.48	73.7037	4,438.48	70.1807	4,438.48	71.6521	4,438.48	68.5829	4,438.48	70.6484	4,438.48	66.5777	4,438.48	68.7583	4,438.48	65.5255	4,438.48	65.5193	4,438.48	67.0014	4,438.48	67.883	4,438.48	63.0154	4,438.48	68.268	4,438.48	58.3521	4,438.48	66.7444	4,438.48	62.6896	4,438.48	57.8257	4,438.48	61.715
4,595.21	83.5451	4,595.21	83.3921	4,595.21	84.1679	4,595.21	83.9402	4,595.21	83.9238	4,595.21	82.9495	4,595.21	84.3529	4,595.21	81.9615	4,595.21	83.1156	4,595.21	80.4412	4,595.21	81.6264	4,595.21	77.8156	4,595.21	79.9047	4,595.21	74.8844	4,595.21	78.013	4,595.21	74.376	4,595.21	76.2302	4,595.21	71.6857	4,595.21	74.594	4,595.21	71.9404	4,595.21	72.7676	4,595.21	68.1573	4,595.21	71.0607	4,595.21	67.429	4,595.21	68.3815	4,595.21	66.7227	4,595.21	66.9759	4,595.21	67.2019	4,595.21	67.8405	4,595.21	66.2427	4,595.21	68.6575	4,595.21	62.9715	4,595.21	66.2684	4,595.21	59.6325	4,595.21	62.2279	4,595.21	57.3431
4,756.35	84.6323	4,756.35	84.7009	4,756.35	84.3019	4,756.35	84.9047	4,756.35	84.6929	4,756.35	84.1991	4,756.35	84.6103	4,756.35	82.6047	4,756.35	83.6666	4,756.35	80.9305	4,756.35	82.2414	4,756.35	78.7104	4,756.35	80.5799	4,756.35	77.009	4,756.35	79.2666	4,756.35	75.038	4,756.35	77.1823	4,756.35	71.8991	4,756.35	75.083	4,756.35	67.1575	4,756.35	72.519	4,756.35	68.3901	4,756.35	71.547	4,756.35	68.06	4,756.35	70.3718	4,756.35	66.6051	4,756.35	68.484	4,756.35	66.6113	4,756.35	68.1054	4,756.35	65.195	4,756.35	68.3218	4,756.35	60.4657	4,756.35	66.7535	4,756.35	62.2454	4,756.35	64.2238	4,756.35	55.6203
4,924.8	84.2817	4,924.8	84.6717	4,924.8	83.975	4,924.8	83.72	4,924.8	84.74	4,924.8	83.6802	4,924.8	84.3209	4,924.8	82.1486	4,924.8	84.0195	4,924.8	80.7065	4,924.8	82.8514	4,924.8	79.2973	4,924.8	80.7636	4,924.8	78.2264	4,924.8	78.8498	4,924.8	75.5938	4,924.8	77.4701	4,924.8	74.611	4,924.8	75.0256	4,924.8	72.0128	4,924.8	73.3557	4,924.8	69.983	4,924.8	72.0287	4,924.8	68.9321	4,924.8	69.3813	4,924.8	67.9877	4,924.8	68.5384	4,924.8	69.658	4,924.8	68.2699	4,924.8	66.1644	4,924.8	68.7197	4,924.8	63.0702	4,924.8	68.2681	4,924.8	60.516	4,924.8	63.4172	4,924.8	59.2961
5,097.66	84.4158	5,097.66	84.1981	5,097.66	84.671	5,097.66	84.2776	5,097.66	84.3696	5,097.66	83.0336	5,097.66	84.766	5,097.66	82.226	5,097.66	83.3847	5,097.66	80.1907	5,097.66	81.8102	5,097.66	78.3745	5,097.66	80.7451	5,097.66	75.3138	5,097.66	78.8672	5,097.66	74.4908	5,097.66	76.1479	5,097.66	71.138	5,097.66	75.4976	5,097.66	71.5249	5,097.66	73.4056	5,097.66	67.3674	5,097.66	71.19	5,097.66	68.2358	5,097.66	70.3505	5,097.66	66.8098	5,097.66	68.6853	5,097.66	65.9004	5,097.66	68.8269	5,097.66	64.578	5,097.66	68.6175	5,097.66	60.9427	5,097.66	66.6025	5,097.66	63.6588	5,097.66	60.4319	5,097.66	58.6971
5,277.83	84.0709	5,277.83	83.9076	5,277.83	83.5501	5,277.83	84.1675	5,277.83	84.3593	5,277.83	83.8742	5,277.83	83.61	5,277.83	82.6005	5,277.83	83.8445	5,277.83	81.2079	5,277.83	82.9343	5,277.83	79.5192	5,277.83	80.6369	5,277.83	78.2594	5,277.83	79.1425	5,277.83	75.5612	5,277.83	78.6206	5,277.83	73.5569	5,277.83	74.9171	5,277.83	68.6126	5,277.83	73.9192	5,277.83	69.6576	5,277.83	71.7062	5,277.83	69.3336	5,277.83	69.0955	5,277.83	67.2893	5,277.83	69.0112	5,277.83	68.5771	5,277.83	69.8511	5,277.83	66.578	5,277.83	68.7952	5,277.83	58.6427	5,277.83	69.084	5,277.83	60.5354	5,277.83	62.9637	5,277.83	57.5431
5,463.87	84.3995	5,463.87	84.2238	5,463.87	84.6581	5,463.87	84.1441	5,463.87	84.0376	5,463.87	83.0115	5,463.87	84.3682	5,463.87	81.7534	5,463.87	83.783	5,463.87	80.5117	5,463.87	82.7215	5,463.87	78.8035	5,463.87	81.6675	5,463.87	76.8367	5,463.87	80.5668	5,463.87	74.3114	5,463.87	78.0464	5,463.87	72.7276	5,463.87	75.9441	5,463.87	71.0798	5,463.87	73.8238	5,463.87	69.6434	5,463.87	72.2122	5,463.87	68.917	5,463.87	69.9595	5,463.87	68.3157	5,463.87	69.104	5,463.87	68.823	5,463.87	70.4292	5,463.87	65.3939	5,463.87	69.0885	5,463.87	56.4706	5,463.87	68.5157	5,463.87	61.2219	5,463.87	59.4453	5,463.87	60.334
5,657.23	84.7088	5,657.23	84.369	5,657.23	84.2951	5,657.23	84.0093	5,657.23	84.1208	5,657.23	83.6654	5,657.23	83.6159	5,657.23	82.8908	5,657.23	83.6349	5,657.23	81.3902	5,657.23	82.8797	5,657.23	79.6666	5,657.23	81.6343	5,657.23	76.7005	5,657.23	79.4723	5,657.23	75.9092	5,657.23	78.3456	5,657.23	72.6371	5,657.23	76.1807	5,657.23	70.7851	5,657.23	73.9442	5,657.23	69.4176	5,657.23	71.9731	5,657.23	68.8352	5,657.23	70.042	5,657.23	67.6287	5,657.23	68.7474	5,657.23	65.9361	5,657.23	68.2778	5,657.23	66.6769	5,657.23	68.9146	5,657.23	51.9984	5,657.23	66.6715	5,657.23	62.6176	5,657.23	60.1703	5,657.23	59.3857
5,856.45	84.7959	5,856.45	84.0644	5,856.45	85.0059	5,856.45	83.4878	5,856.45	84.1971	5,856.45	83.2199	5,856.45	84.0038	5,856.45	81.9316	5,856.45	83.4387	5,856.45	80.8862	5,856.45	82.8644	5,856.45	78.8381	5,856.45	81.8705	5,856.45	78.181	5,856.45	80.897	5,856.45	75.0321	5,856.45	78.464	5,856.45	73.0346	5,856.45	76.321	5,856.45	70.1887	5,856.45	74.0435	5,856.45	69.3932	5,856.45	71.9406	5,856.45	68.512	5,856.45	69.8689	5,856.45	68.6478	5,856.45	68.6919	5,856.45	67.8548	5,856.45	68.8574	5,856.45	66.007	5,856.45	68.2531	5,856.45	52.7825	5,856.45	67.433	5,856.45	62.4403	5,856.45	56.5969	5,856.45	60.4065
6,062.99	85.1669	6,062.99	84.4615	6,062.99	84.9403	6,062.99	84.1221	6,062.99	84.4423	6,062.99	83.7281	6,062.99	83.9865	6,062.99	83.2664	6,062.99	84.1711	6,062.99	81.4974	6,062.99	83.2209	6,062.99	80.0236	6,062.99	81.9347	6,062.99	77.528	6,062.99	80.1332	6,062.99	76.0162	6,062.99	78.4722	6,062.99	73.4755	6,062.99	76.6153	6,062.99	70.9877	6,062.99	74.6785	6,062.99	71.2047	6,062.99	72.1704	6,062.99	67.8664	6,062.99	70.112	6,062.99	65.895	6,062.99	69.2935	6,062.99	66.697	6,062.99	69.3254	6,062.99	65.7245	6,062.99	68.7095	6,062.99	53.938	6,062.99	67.7337	6,062.99	62.5698	6,062.99	59.7003	6,062.99	59.5989
6,276.86	85.303	6,276.86	84.3863	6,276.86	85.1806	6,276.86	83.5737	6,276.86	84.0623	6,276.86	83.3235	6,276.86	83.605	6,276.86	82.23	6,276.86	83.5906	6,276.86	81.0861	6,276.86	83.2064	6,276.86	78.9644	6,276.86	81.6385	6,276.86	77.5108	6,276.86	80.2179	6,276.86	75.3252	6,276.86	78.3437	6,276.86	73.0936	6,276.86	75.6719	6,276.86	70.1129	6,276.86	73.6733	6,276.86	69.6205	6,276.86	71.4731	6,276.86	67.4131	6,276.86	68.1434	6,276.86	68.3054	6,276.86	68.3045	6,276.86	66.1665	6,276.86	68.0907	6,276.86	66.1251	6,276.86	66.4835	6,276.86	51.3987	6,276.86	67.9727	6,276.86	62.5034	6,276.86	59.2743	6,276.86	59.1477
6,498.05	85.9425	6,498.05	84.8282	6,498.05	85.7595	6,498.05	84.2359	6,498.05	84.9475	6,498.05	83.6739	6,498.05	84.4991	6,498.05	83.1493	6,498.05	84.3266	6,498.05	81.4358	6,498.05	83.5566	6,498.05	79.3746	6,498.05	82.1405	6,498.05	77.4845	6,498.05	80.1723	6,498.05	76.0825	6,498.05	78.6974	6,498.05	72.9061	6,498.05	75.9775	6,498.05	70.7431	6,498.05	74.0876	6,498.05	69.1342	6,498.05	71.1014	6,498.05	66.9714	6,498.05	69.2146	6,498.05	65.7443	6,498.05	68.2752	6,498.05	66.7627	6,498.05	68.663	6,498.05	66.9548	6,498.05	69.0129	6,498.05	53.9128	6,498.05	67.5545	6,498.05	62.3106	6,498.05	57.8172	6,498.05	60.6722
6,726.56	85.589	6,726.56	84.6571	6,726.56	85.3387	6,726.56	83.8594	6,726.56	84.839	6,726.56	83.4333	6,726.56	83.758	6,726.56	82.944	6,726.56	83.9382	6,726.56	81.4335	6,726.56	83.6065	6,726.56	79.4528	6,726.56	81.8359	6,726.56	77.6384	6,726.56	79.9355	6,726.56	75.4802	6,726.56	77.9379	6,726.56	72.4448	6,726.56	75.5129	6,726.56	69.549	6,726.56	73.796	6,726.56	68.837	6,726.56	70.629	6,726.56	68.1557	6,726.56	69.7068	6,726.56	66.4859	6,726.56	65.8951	6,726.56	66.5885	6,726.56	67.0437	6,726.56	65.5955	6,726.56	66.86	6,726.56	54.374	6,726.56	65.9279	6,726.56	62.1607	6,726.56	57.1527	6,726.56	58.9274
6,963.87	85.7245	6,963.87	84.7805	6,963.87	85.6949	6,963.87	83.9822	6,963.87	84.9493	6,963.87	83.2571	6,963.87	84.151	6,963.87	82.9301	6,963.87	84.0911	6,963.87	81.3998	6,963.87	83.2412	6,963.87	78.8663	6,963.87	82.3537	6,963.87	77.7162	6,963.87	80.5894	6,963.87	73.9999	6,963.87	77.9146	6,963.87	72.2568	6,963.87	75.5665	6,963.87	68.6719	6,963.87	72.9909	6,963.87	66.8935	6,963.87	70.7958	6,963.87	64.2265	6,963.87	69.582	6,963.87	64.968	6,963.87	65.7487	6,963.87	66.2923	6,963.87	67.2704	6,963.87	63.6299	6,963.87	67.9998	6,963.87	53.2141	6,963.87	66.1536	6,963.87	62.679	6,963.87	55.6654	6,963.87	60.6761
7,209.96	86.1562	7,209.96	85.007	7,209.96	86.1621	7,209.96	83.638	7,209.96	85.1878	7,209.96	83.2551	7,209.96	84.1395	7,209.96	82.5361	7,209.96	84.4224	7,209.96	80.7669	7,209.96	84.1496	7,209.96	78.98	7,209.96	82.3136	7,209.96	77.4313	7,209.96	80.1713	7,209.96	73.7933	7,209.96	78.4635	7,209.96	71.224	7,209.96	76.0591	7,209.96	68.7715	7,209.96	73.4071	7,209.96	67.7488	7,209.96	71.7616	7,209.96	65.6877	7,209.96	69.8757	7,209.96	66.4893	7,209.96	68.6506	7,209.96	65.0495	7,209.96	68.7149	7,209.96	63.1404	7,209.96	67.6508	7,209.96	55.053	7,209.96	66.292	7,209.96	59.3705	7,209.96	55.8684	7,209.96	59.6576
7,464.84	85.1852	7,464.84	83.9869	7,464.84	85.3236	7,464.84	82.836	7,464.84	84.5283	7,464.84	82.198	7,464.84	83.5102	7,464.84	82.1918	7,464.84	82.9183	7,464.84	80.7438	7,464.84	82.9479	7,464.84	78.0157	7,464.84	81.3028	7,464.84	75.5863	7,464.84	79.0727	7,464.84	73.8772	7,464.84	77.4821	7,464.84	71.6697	7,464.84	74.8177	7,464.84	69.138	7,464.84	72.5549	7,464.84	66.872	7,464.84	70.0526	7,464.84	67.332	7,464.84	67.9489	7,464.84	67.5746	7,464.84	68.27	7,464.84	66.6274	7,464.84	67.7126	7,464.84	64.1038	7,464.84	66.6146	7,464.84	51.9709	7,464.84	65.5625	7,464.84	60.9901	7,464.84	55.6281	7,464.84	60.7643
7,727.05	85.7597	7,727.05	84.544	7,727.05	85.8932	7,727.05	83.1401	7,727.05	84.8295	7,727.05	82.8244	7,727.05	83.5016	7,727.05	82.6516	7,727.05	83.3062	7,727.05	80.9157	7,727.05	83.3745	7,727.05	78.666	7,727.05	82.0305	7,727.05	76.1568	7,727.05	80.2184	7,727.05	73.5866	7,727.05	77.5028	7,727.05	71.5261	7,727.05	75.7899	7,727.05	68.5544	7,727.05	73.7533	7,727.05	65.8642	7,727.05	71.0841	7,727.05	64.8736	7,727.05	68.3303	7,727.05	67.6078	7,727.05	66.1627	7,727.05	65.9432	7,727.05	67.9318	7,727.05	62.7144	7,727.05	68.0798	7,727.05	52.7958	7,727.05	64.0782	7,727.05	61.1478	7,727.05	54.8698	7,727.05	62.1985
7,999.51	85.1021	7,999.51	84.1554	7,999.51	85.4971	7,999.51	82.5346	7,999.51	84.7283	7,999.51	81.9705	7,999.51	83.5234	7,999.51	81.1861	7,999.51	82.386	7,999.51	79.8411	7,999.51	82.2925	7,999.51	77.5466	7,999.51	80.7372	7,999.51	75.1147	7,999.51	79.0617	7,999.51	74.0563	7,999.51	77.3367	7,999.51	70.842	7,999.51	74.7973	7,999.51	69.861	7,999.51	72.5116	7,999.51	67.4424	7,999.51	69.8227	7,999.51	65.37	7,999.51	67.1511	7,999.51	67.3826	7,999.51	67.1078	7,999.51	66.0331	7,999.51	67.2386	7,999.51	63.0699	7,999.51	66.1958	7,999.51	50.6198	7,999.51	63.9884	7,999.51	59.1893	7,999.51	41.7741	7,999.51	60.5629
8,282.23	85.8018	8,282.23	84.555	8,282.23	85.9322	8,282.23	83.6434	8,282.23	85.482	8,282.23	82.2096	8,282.23	84.269	8,282.23	81.1577	8,282.23	82.8864	8,282.23	79.7856	8,282.23	82.0023	8,282.23	76.9577	8,282.23	80.4435	8,282.23	74.7033	8,282.23	78.6025	8,282.23	73.6207	8,282.23	76.283	8,282.23	69.274	8,282.23	74.0156	8,282.23	68.4047	8,282.23	72.3122	8,282.23	66.5668	8,282.23	70.1253	8,282.23	65.342	8,282.23	65.921	8,282.23	65.3563	8,282.23	64.1557	8,282.23	64.8052	8,282.23	67.1872	8,282.23	61.8108	8,282.23	66.8469	8,282.23	51.544	8,282.23	61.6217	8,282.23	58.7825	8,282.23	44.8481	8,282.23	60.2019
8,573.73	85.0261	8,573.73	84.6354	8,573.73	85.0658	8,573.73	83.9489	8,573.73	84.788	8,573.73	82.2605	8,573.73	84.067	8,573.73	80.7253	8,573.73	82.6159	8,573.73	78.771	8,573.73	81.1132	8,573.73	76.0746	8,573.73	79.1286	8,573.73	73.5016	8,573.73	76.5221	8,573.73	72.0493	8,573.73	74.4976	8,573.73	70.479	8,573.73	72.2209	8,573.73	67.4958	8,573.73	70.4536	8,573.73	65.6647	8,573.73	67.765	8,573.73	64.4701	8,573.73	64.2952	8,573.73	63.2149	8,573.73	62.4048	8,573.73	64.128	8,573.73	64.2115	8,573.73	60.6617	8,573.73	65.1364	8,573.73	57.4675	8,573.73	59.4696	8,573.73	55.1342	8,573.73	44.9722	8,573.73	57.6814
8,876.95	85.2305	8,876.95	85.0852	8,876.95	85.3522	8,876.95	84.1587	8,876.95	85.2841	8,876.95	82.245	8,876.95	84.6161	8,876.95	80.3838	8,876.95	82.8575	8,876.95	78.4278	8,876.95	81.2947	8,876.95	75.679	8,876.95	79.1887	8,876.95	74.4814	8,876.95	77.1441	8,876.95	71.7191	8,876.95	74.8885	8,876.95	69.2746	8,876.95	72.1559	8,876.95	67.5818	8,876.95	70.4572	8,876.95	64.8649	8,876.95	67.7412	8,876.95	63.4755	8,876.95	65.7183	8,876.95	63.2701	8,876.95	62.3778	8,876.95	64.2363	8,876.95	63.7994	8,876.95	60.6903	8,876.95	64.9731	8,876.95	53.4511	8,876.95	60.5744	8,876.95	56.1941	8,876.95	52.1493	8,876.95	57.3083
9,188.96	84.745	9,188.96	84.7942	9,188.96	84.6541	9,188.96	84.0328	9,188.96	85.0506	9,188.96	81.6843	9,188.96	84.0482	9,188.96	79.9965	9,188.96	81.9712	9,188.96	78.4962	9,188.96	80.225	9,188.96	76.0542	9,188.96	78.9002	9,188.96	75.1761	9,188.96	77.5203	9,188.96	71.913	9,188.96	74.5327	9,188.96	69.5962	9,188.96	71.968	9,188.96	67.9968	9,188.96	70.0415	9,188.96	64.2246	9,188.96	68.1648	9,188.96	63.8946	9,188.96	65.5745	9,188.96	64.4911	9,188.96	61.1128	9,188.96	64.3136	9,188.96	60.6811	9,188.96	58.1969	9,188.96	64.6056	9,188.96	53.0363	9,188.96	59.2114	9,188.96	58.0377	9,188.96	50.6372	9,188.96	58.3747
9,514.16	85.065	9,514.16	85.2479	9,514.16	85.1145	9,514.16	84.1379	9,514.16	85.3536	9,514.16	81.6535	9,514.16	84.0154	9,514.16	80.0654	9,514.16	82.0104	9,514.16	78.8702	9,514.16	80.4748	9,514.16	76.7554	9,514.16	79.2573	9,514.16	74.989	9,514.16	77.4909	9,514.16	71.5854	9,514.16	74.8734	9,514.16	69.8711	9,514.16	72.4206	9,514.16	67.4305	9,514.16	70.1201	9,514.16	64.1501	9,514.16	68.0973	9,514.16	63.6474	9,514.16	65.4228	9,514.16	63.7239	9,514.16	64.2959	9,514.16	64.2456	9,514.16	62.2164	9,514.16	59.0605	9,514.16	65.1609	9,514.16	57.0025	9,514.16	59.6222	9,514.16	59.0655	9,514.16	51.5202	9,514.16	59.5942
9,849.61	85.1681	9,849.61	85.4574	9,849.61	85.1655	9,849.61	83.7931	9,849.61	85.47	9,849.61	81.2845	9,849.61	83.7869	9,849.61	79.8266	9,849.61	81.5464	9,849.61	78.9549	9,849.61	80.3452	9,849.61	76.6568	9,849.61	78.8302	9,849.61	74.1568	9,849.61	77.1469	9,849.61	71.4769	9,849.61	74.8038	9,849.61	69.1857	9,849.61	71.892	9,849.61	68.0495	9,849.61	69.2935	9,849.61	64.5761	9,849.61	67.5192	9,849.61	63.7893	9,849.61	63.8268	9,849.61	63.5114	9,849.61	63.4759	9,849.61	63.944	9,849.61	63.2465	9,849.61	58.6627	9,849.61	64.7556	9,849.61	57.0651	9,849.61	58.2501	9,849.61	58.9346	9,849.61	52.056	9,849.61	59.8284
10,196.8	85.5795	10,196.8	85.7372	10,196.8	85.5672	10,196.8	83.7101	10,196.8	85.5127	10,196.8	80.9434	10,196.8	83.6052	10,196.8	79.3087	10,196.8	80.7239	10,196.8	78.4545	10,196.8	79.4224	10,196.8	76.8253	10,196.8	78.527	10,196.8	74.6081	10,196.8	76.5688	10,196.8	72.1125	10,196.8	74.0716	10,196.8	69.4656	10,196.8	71.1925	10,196.8	68.0086	10,196.8	69.6912	10,196.8	64.9839	10,196.8	67.4865	10,196.8	64.5143	10,196.8	64.9729	10,196.8	63.3266	10,196.8	62.6659	10,196.8	63.96	10,196.8	62.2448	10,196.8	58.9252	10,196.8	63.9515	10,196.8	58.3618	10,196.8	60.0094	10,196.8	59.0138	10,196.8	53.9799	10,196.8	59.0112
10,555.7	86.0064	10,555.7	85.6078	10,555.7	85.9369	10,555.7	83.3464	10,555.7	85.3379	10,555.7	79.9751	10,555.7	83.0639	10,555.7	78.5853	10,555.7	80.2211	10,555.7	78.7182	10,555.7	79.2185	10,555.7	76.7047	10,555.7	78.1037	10,555.7	74.295	10,555.7	75.694	10,555.7	71.7264	10,555.7	73.3477	10,555.7	70.0752	10,555.7	71.2995	10,555.7	67.9029	10,555.7	69.8777	10,555.7	63.7299	10,555.7	66.9774	10,555.7	64.0169	10,555.7	65.1544	10,555.7	63.1552	10,555.7	60.9758	10,555.7	63.7655	10,555.7	61.8268	10,555.7	57.743	10,555.7	63.68	10,555.7	58.6018	10,555.7	58.2534	10,555.7	55.8065	10,555.7	54.4104	10,555.7	58.2328
10,927.7	86.2834	10,927.7	85.4883	10,927.7	86.1172	10,927.7	82.7623	10,927.7	85.1657	10,927.7	80.0425	10,927.7	82.693	10,927.7	78.7179	10,927.7	79.4182	10,927.7	78.5257	10,927.7	77.838	10,927.7	76.9662	10,927.7	77.276	10,927.7	74.3997	10,927.7	76.1284	10,927.7	71.7725	10,927.7	74.1402	10,927.7	70.0684	10,927.7	71.8776	10,927.7	66.8944	10,927.7	69.5154	10,927.7	63.0873	10,927.7	67.0996	10,927.7	61.694	10,927.7	63.7348	10,927.7	63.8447	10,927.7	60.4731	10,927.7	63.2042	10,927.7	60.949	10,927.7	54.7198	10,927.7	64.1779	10,927.7	57.1586	10,927.7	57.7853	10,927.7	54.8024	10,927.7	50.5951	10,927.7	58.133
11,313	86.3893	11,313	85.4739	11,313	86.2703	11,313	83.2979	11,313	85.107	11,313	80.8623	11,313	82.6521	11,313	79.6467	11,313	80.303	11,313	78.7499	11,313	78.1029	11,313	76.5772	11,313	77.6725	11,313	74.6404	11,313	76.6475	11,313	70.627	11,313	74.3279	11,313	69.3145	11,313	71.9183	11,313	65.6312	11,313	70.265	11,313	59.9517	11,313	66.7437	11,313	59.5546	11,313	63.7527	11,313	63.3652	11,313	59.0873	11,313	63.7505	11,313	59.9612	11,313	55.3998	11,313	64.2875	11,313	54.8694	11,313	56.2983	11,313	56.4189	11,313	44.699	11,313	57.8211
11,712.9	86.1969	11,712.9	85.281	11,712.9	86.0714	11,712.9	83.7892	11,712.9	84.8342	11,712.9	82.6458	11,712.9	83.0432	11,712.9	80.7346	11,712.9	80.7459	11,712.9	78.8454	11,712.9	78.6873	11,712.9	76.7133	11,712.9	77.269	11,712.9	73.5714	11,712.9	76.1434	11,712.9	70.938	11,712.9	73.9801	11,712.9	67.7334	11,712.9	71.1638	11,712.9	66.3332	11,712.9	68.9965	11,712.9	59.9687	11,712.9	66.6347	11,712.9	59.4707	11,712.9	63.967	11,712.9	64.0183	11,712.9	57.2304	11,712.9	64.7484	11,712.9	60.1633	11,712.9	53.9985	11,712.9	64.3125	11,712.9	56.6049	11,712.9	57.1143	11,712.9	53.4834	11,712.9	50.8545	11,712.9	56.2445
12,126	86.3421	12,126	85.1408	12,126	86.1862	12,126	84.6149	12,126	84.3739	12,126	83.2243	12,126	83.4851	12,126	80.2409	12,126	81.0321	12,126	78.283	12,126	78.0596	12,126	76.3216	12,126	76.3443	12,126	73.2501	12,126	75.2669	12,126	70.6716	12,126	72.8462	12,126	67.9688	12,126	70.3783	12,126	66.7257	12,126	68.9877	12,126	61.6497	12,126	65.987	12,126	61.6795	12,126	63.3185	12,126	63.9229	12,126	55.6687	12,126	65.7726	12,126	61.1173	12,126	52.404	12,126	63.8893	12,126	56.7419	12,126	57.2934	12,126	53.1965	12,126	53.8956	12,126	55.6222
12,553.7	86.6369	12,553.7	85.0581	12,553.7	86.2058	12,553.7	85.1196	12,553.7	84.2763	12,553.7	83.5556	12,553.7	83.4451	12,553.7	79.9347	12,553.7	81.2747	12,553.7	78.1958	12,553.7	77.731	12,553.7	76.6655	12,553.7	75.73	12,553.7	73.5017	12,553.7	74.601	12,553.7	70.4	12,553.7	73.2415	12,553.7	67.6623	12,553.7	69.8457	12,553.7	66.5413	12,553.7	68.4661	12,553.7	62.2196	12,553.7	65.8914	12,553.7	61.4206	12,553.7	63.5887	12,553.7	61.7981	12,553.7	54.7802	12,553.7	64.0283	12,553.7	61.0262	12,553.7	49.6452	12,553.7	63.5328	12,553.7	55.9131	12,553.7	56.8363	12,553.7	55.8822	12,553.7	54.2726	12,553.7	54.9589
12,996.1	86.7072	12,996.1	85.2514	12,996.1	86.3694	12,996.1	85.5578	12,996.1	84.284	12,996.1	83.9067	12,996.1	83.6743	12,996.1	80.4197	12,996.1	80.894	12,996.1	78.6913	12,996.1	77.4782	12,996.1	76.6527	12,996.1	76.4078	12,996.1	74.199	12,996.1	76.5817	12,996.1	69.0411	12,996.1	73.9684	12,996.1	67.2409	12,996.1	70.5076	12,996.1	65.9248	12,996.1	67.6488	12,996.1	59.7208	12,996.1	66.0823	12,996.1	58.6281	12,996.1	62.9246	12,996.1	61.4932	12,996.1	52.2554	12,996.1	62.9655	12,996.1	59.1728	12,996.1	46.0272	12,996.1	63.5768	12,996.1	55.3696	12,996.1	55.9215	12,996.1	55.3541	12,996.1	54.7767	12,996.1	53.651
13,454.6	86.8543	13,454.6	86.1002	13,454.6	86.4542	13,454.6	85.9573	13,454.6	84.5471	13,454.6	84.2555	13,454.6	83.1627	13,454.6	81.4316	13,454.6	80.5731	13,454.6	79.3947	13,454.6	78.0193	13,454.6	76.314	13,454.6	77.5364	13,454.6	73.5241	13,454.6	77.0387	13,454.6	67.3986	13,454.6	75.1455	13,454.6	65.7954	13,454.6	70.8688	13,454.6	63.1107	13,454.6	68.1153	13,454.6	56.9823	13,454.6	66.4682	13,454.6	55.9538	13,454.6	63.4414	13,454.6	59.2241	13,454.6	56.7447	13,454.6	61.2037	13,454.6	58.4202	13,454.6	45.7274	13,454.6	62.3178	13,454.6	57.2572	13,454.6	53.9915	13,454.6	49.1537	13,454.6	53.3992	13,454.6	52.5321
13,929.2	87.1433	13,929.2	87.3926	13,929.2	86.5662	13,929.2	86.4036	13,929.2	84.8343	13,929.2	85.0287	13,929.2	82.7917	13,929.2	82.324	13,929.2	80.6254	13,929.2	79.3992	13,929.2	79.2939	13,929.2	74.2959	13,929.2	78.4171	13,929.2	70.0857	13,929.2	77.0975	13,929.2	64.19	13,929.2	75.2014	13,929.2	61.0955	13,929.2	71.3141	13,929.2	59.1719	13,929.2	68.3168	13,929.2	47.1262	13,929.2	66.4933	13,929.2	54.187	13,929.2	64.1754	13,929.2	58.3543	13,929.2	58.8055	13,929.2	58.0523	13,929.2	55.7598	13,929.2	47.5059	13,929.2	59.6757	13,929.2	55.0348	13,929.2	55.3294	13,929.2	47.4298	13,929.2	50.9921	13,929.2	48.1365
14,419.9	88.1469	14,419.9	88.4242	14,419.9	87.1508	14,419.9	86.9879	14,419.9	85.5826	14,419.9	85.1687	14,419.9	82.9364	14,419.9	81.9092	14,419.9	81.4225	14,419.9	77.494	14,419.9	80.4015	14,419.9	69.7851	14,419.9	79.2626	14,419.9	59.8391	14,419.9	77.4419	14,419.9	60.3017	14,419.9	75.4822	14,419.9	59.5735	14,419.9	71.7849	14,419.9	56.0955	14,419.9	68.8899	14,419.9	56.3856	14,419.9	66.1111	14,419.9	51.9515	14,419.9	64.4171	14,419.9	56.1055	14,419.9	57.5806	14,419.9	55.5261	14,419.9	55.0683	14,419.9	46.6648	14,419.9	57.3049	14,419.9	52.9883	14,419.9	54.7664	14,419.9	50.3463	14,419.9	47.8453	14,419.9	40.0951
14,928.2	88.9621	14,928.2	88.7783	14,928.2	87.7822	14,928.2	86.7639	14,928.2	86.5722	14,928.2	84.5096	14,928.2	83.9001	14,928.2	80.3634	14,928.2	82.8197	14,928.2	74.6833	14,928.2	81.3211	14,928.2	68.8495	14,928.2	79.8128	14,928.2	66.813	14,928.2	77.9341	14,928.2	65.196	14,928.2	75.3497	14,928.2	64.4494	14,928.2	71.1704	14,928.2	61.2766	14,928.2	68.1889	14,928.2	60.1375	14,928.2	64.82	14,928.2	51.7339	14,928.2	63.2671	14,928.2	54.9851	14,928.2	52.5323	14,928.2	58.4101	14,928.2	53.5316	14,928.2	44.1368	14,928.2	53.6117	14,928.2	52.0058	14,928.2	50.6572	14,928.2	50.1403	14,928.2	44.9513	14,928.2	29.3997
15,455.6	89.0416	15,455.6	88.4206	15,455.6	88.2716	15,455.6	85.9689	15,455.6	87.2962	15,455.6	83.0079	15,455.6	85.2104	15,455.6	77.7296	15,455.6	84.1271	15,455.6	72.7973	15,455.6	81.9829	15,455.6	70.3637	15,455.6	80.0043	15,455.6	70.1955	15,455.6	77.5077	15,455.6	68.2823	15,455.6	74.8266	15,455.6	66.0042	15,455.6	69.7436	15,455.6	62.8881	15,455.6	65.4976	15,455.6	60.146	15,455.6	63.6206	15,455.6	55.3014	15,455.6	60.8019	15,455.6	55.485	15,455.6	49.7733	15,455.6	59.1923	15,455.6	50.534	15,455.6	49.126	15,455.6	51.0889	15,455.6	53.2023	15,455.6	49.4975	15,455.6	46.4187	15,455.6	39.5854	15,455.6	42.5428
16,000.5	88.775	16,000.5	87.6142	16,000.5	88.5383	16,000.5	84.8168	16,000.5	87.8639	16,000.5	80.7225	16,000.5	86.3829	16,000.5	74.5379	16,000.5	84.8015	16,000.5	71.6063	16,000.5	82.4585	16,000.5	72.3704	16,000.5	80.0895	16,000.5	71.9927	16,000.5	77.039	16,000.5	69.9199	16,000.5	74.0744	16,000.5	66.773	16,000.5	68.8088	16,000.5	64.7198	16,000.5	63.1058	16,000.5	60.6436	16,000.5	63.9673	16,000.5	57.2332	16,000.5	60.4028	16,000.5	52.783	16,000.5	51.0747	16,000.5	58.1819	16,000.5	51.6774	16,000.5	50.8915	16,000.5	47.0674	16,000.5	52.6711	16,000.5	50.1879	16,000.5	48.4687	16,000.5	45.0202	16,000.5	46.1042
16,564.5	88.502	16,564.5	86.8706	16,564.5	88.6055	16,564.5	83.559	16,564.5	88.1124	16,564.5	78.2329	16,564.5	86.6888	16,564.5	71.0442	16,564.5	84.6013	16,564.5	71.6771	16,564.5	81.9585	16,564.5	74.3158	16,564.5	78.8002	16,564.5	73.4991	16,564.5	75.2329	16,564.5	71.1045	16,564.5	71.2053	16,564.5	68.0444	16,564.5	67.1195	16,564.5	66.1642	16,564.5	60.5045	16,564.5	61.8637	16,564.5	62.3961	16,564.5	59.492	16,564.5	58.2071	16,564.5	51.1158	16,564.5	51.3767	16,564.5	56.7166	16,564.5	48.9232	16,564.5	51.1956	16,564.5	45.8848	16,564.5	51.6608	16,564.5	49.6406	16,564.5	49.2723	16,564.5	46.4821	16,564.5	46.8551
17,148.9	87.8163	17,148.9	85.6856	17,148.9	88.2625	17,148.9	81.6528	17,148.9	87.8634	17,148.9	76.4164	17,148.9	86.3602	17,148.9	72.2391	17,148.9	84.2978	17,148.9	74.3417	17,148.9	81.1549	17,148.9	76.1187	17,148.9	78.0906	17,148.9	74.8653	17,148.9	74.8447	17,148.9	71.8305	17,148.9	70.772	17,148.9	68.8654	17,148.9	68.5582	17,148.9	66.5507	17,148.9	63.4934	17,148.9	62.9815	17,148.9	63.2024	17,148.9	60.3964	17,148.9	58.2053	17,148.9	49.8919	17,148.9	55.9776	17,148.9	56.0472	17,148.9	49.1889	17,148.9	49.9059	17,148.9	48.0211	17,148.9	49.9039	17,148.9	48.9766	17,148.9	49.7912	17,148.9	48.6105	17,148.9	48.322
17,752.4	86.8648	17,752.4	84.5651	17,752.4	87.5087	17,752.4	80.8723	17,752.4	87.1811	17,752.4	78.0441	17,752.4	85.8263	17,752.4	75.4614	17,752.4	84.0188	17,752.4	75.9399	17,752.4	81.0687	17,752.4	76.607	17,752.4	78.7831	17,752.4	75.2577	17,752.4	76.8493	17,752.4	71.8386	17,752.4	73.8409	17,752.4	69.1714	17,752.4	70.9511	17,752.4	65.9307	17,752.4	66.908	17,752.4	63.2051	17,752.4	65.2515	17,752.4	60.9601	17,752.4	60.6597	17,752.4	52.891	17,752.4	57.3805	17,752.4	54.6029	17,752.4	53.8343	17,752.4	49.495	17,752.4	49.6452	17,752.4	49.8615	17,752.4	50.6623	17,752.4	49.109	17,752.4	49.9439	17,752.4	49.3823
18,379.4	86.345	18,379.4	84.6332	18,379.4	86.8464	18,379.4	81.8784	18,379.4	86.4644	18,379.4	79.2589	18,379.4	85.4263	18,379.4	75.578	18,379.4	83.7117	18,379.4	74.9336	18,379.4	81.429	18,379.4	74.8035	18,379.4	79.125	18,379.4	73.5172	18,379.4	77.2817	18,379.4	69.9161	18,379.4	74.4443	18,379.4	67.7287	18,379.4	71.1385	18,379.4	63.5028	18,379.4	67.276	18,379.4	62.0799	18,379.4	65.0732	18,379.4	59.6431	18,379.4	60.6207	18,379.4	51.4634	18,379.4	57.4076	18,379.4	52.0782	18,379.4	54.5336	18,379.4	48.242	18,379.4	50.3596	18,379.4	48.6051	18,379.4	52.6619	18,379.4	48.3137	18,379.4	49.6722	18,379.4	48.4462
19,026.9	86.0977	19,026.9	84.5312	19,026.9	86.6131	19,026.9	81.421	19,026.9	86.1727	19,026.9	77.2976	19,026.9	85.3068	19,026.9	72.4941	19,026.9	83.4121	19,026.9	73.0441	19,026.9	81.1301	19,026.9	74.9983	19,026.9	78.9077	19,026.9	74.4843	19,026.9	77.4022	19,026.9	71.0757	19,026.9	75.1659	19,026.9	68.4725	19,026.9	71.4982	19,026.9	64.4479	19,026.9	67.8138	19,026.9	62.6312	19,026.9	65.5747	19,026.9	60.1334	19,026.9	61.2521	19,026.9	52.756	19,026.9	58.0468	19,026.9	48.8517	19,026.9	54.7986	19,026.9	49.1822	19,026.9	48.4113	19,026.9	46.2928	19,026.9	53.6992	19,026.9	48.2309	19,026.9	50.304	19,026.9	46.4312
19,697.8	85.3304	19,697.8	83.1416	19,697.8	85.9628	19,697.8	78.479	19,697.8	85.4233	19,697.8	74.398	19,697.8	84.4966	19,697.8	73.0635	19,697.8	82.4852	19,697.8	74.9296	19,697.8	80.7773	19,697.8	76.7512	19,697.8	78.2757	19,697.8	76.4488	19,697.8	77.3741	19,697.8	72.7684	19,697.8	75.3525	19,697.8	70.535	19,697.8	71.3158	19,697.8	65.5752	19,697.8	68.1408	19,697.8	64.0536	19,697.8	65.2715	19,697.8	61.269	19,697.8	62.0634	19,697.8	55.8459	19,697.8	55.8597	19,697.8	40.5953	19,697.8	53.5398	19,697.8	47.2604	19,697.8	46.8191	19,697.8	48.3022	19,697.8	54.9268	19,697.8	47.2437	19,697.8	49.1872	19,697.8	44.4603
19,999.5	84.8056	19,999.5	81.8552	19,999.5	85.7198	19,999.5	76.7313	19,999.5	85.1209	19,999.5	75.0701	19,999.5	84.0201	19,999.5	75.2669	19,999.5	82.1424	19,999.5	75.8985	19,999.5	80.8158	19,999.5	76.9494	19,999.5	78.3728	19,999.5	77.6037	19,999.5	77.1431	19,999.5	73.9834	19,999.5	74.9693	19,999.5	70.5946	19,999.5	71.2436	19,999.5	65.3604	19,999.5	66.2442	19,999.5	64.457	19,999.5	65.0216	19,999.5	58.3609	19,999.5	62.8839	19,999.5	56.5894	19,999.5	54.8298	19,999.5	45.1436	19,999.5	57.8193	19,999.5	46.3929	19,999.5	47.0054	19,999.5	47.6459	19,999.5	53.8871	19,999.5	47.0649	19,999.5	50.9786	19,999.5	43.4191
