"SPL Horizontal"
"On-Axis"		"10°"		"-10°"		"20°"		"-20°"		"30°"		"-30°"		"40°"		"-40°"		"50°"		"-50°"		"60°"		"-60°"		"70°"		"-70°"		"80°"		"-80°"		"90°"		"-90°"		"100°"		"-100°"		"110°"		"-110°"		"120°"		"-120°"		"130°"		"-130°"		"140°"		"-140°"		"150°"		"-150°"		"160°"		"-160°"		"170°"		"-170°"		"180°"
"Frequency / Hz"	"Sound Pressure Level / dB (re 20 µPa/V)  [2.83  V @ 1. m]"	"Frequency / Hz"	"Sound Pressure Level / dB (re 20 µPa/V)  [2.83  V @ 1. m]"	"Frequency / Hz"	"Sound Pressure Level / dB (re 20 µPa/V)  [2.83  V @ 1. m]"	"Frequency / Hz"	"Sound Pressure Level / dB (re 20 µPa/V)  [2.83  V @ 1. m]"	"Frequency / Hz"	"Sound Pressure Level / dB (re 20 µPa/V)  [2.83  V @ 1. m]"	"Frequency / Hz"	"Sound Pressure Level / dB (re 20 µPa/V)  [2.83  V @ 1. m]"	"Frequency / Hz"	"Sound Pressure Level / dB (re 20 µPa/V)  [2.83  V @ 1. m]"	"Frequency / Hz"	"Sound Pressure Level / dB (re 20 µPa/V)  [2.83  V @ 1. m]"	"Frequency / Hz"	"Sound Pressure Level / dB (re 20 µPa/V)  [2.83  V @ 1. m]"	"Frequency / Hz"	"Sound Pressure Level / dB (re 20 µPa/V)  [2.83  V @ 1. m]"	"Frequency / Hz"	"Sound Pressure Level / dB (re 20 µPa/V)  [2.83  V @ 1. m]"	"Frequency / Hz"	"Sound Pressure Level / dB (re 20 µPa/V)  [2.83  V @ 1. m]"	"Frequency / Hz"	"Sound Pressure Level / dB (re 20 µPa/V)  [2.83  V @ 1. m]"	"Frequency / Hz"	"Sound Pressure Level / dB (re 20 µPa/V)  [2.83  V @ 1. m]"	"Frequency / Hz"	"Sound Pressure Level / dB (re 20 µPa/V)  [2.83  V @ 1. m]"	"Frequency / Hz"	"Sound Pressure Level / dB (re 20 µPa/V)  [2.83  V @ 1. m]"	"Frequency / Hz"	"Sound Pressure Level / dB (re 20 µPa/V)  [2.83  V @ 1. m]"	"Frequency / Hz"	"Sound Pressure Level / dB (re 20 µPa/V)  [2.83  V @ 1. m]"	"Frequency / Hz"	"Sound Pressure Level / dB (re 20 µPa/V)  [2.83  V @ 1. m]"	"Frequency / Hz"	"Sound Pressure Level / dB (re 20 µPa/V)  [2.83  V @ 1. m]"	"Frequency / Hz"	"Sound Pressure Level / dB (re 20 µPa/V)  [2.83  V @ 1. m]"	"Frequency / Hz"	"Sound Pressure Level / dB (re 20 µPa/V)  [2.83  V @ 1. m]"	"Frequency / Hz"	"Sound Pressure Level / dB (re 20 µPa/V)  [2.83  V @ 1. m]"	"Frequency / Hz"	"Sound Pressure Level / dB (re 20 µPa/V)  [2.83  V @ 1. m]"	"Frequency / Hz"	"Sound Pressure Level / dB (re 20 µPa/V)  [2.83  V @ 1. m]"	"Frequency / Hz"	"Sound Pressure Level / dB (re 20 µPa/V)  [2.83  V @ 1. m]"	"Frequency / Hz"	"Sound Pressure Level / dB (re 20 µPa/V)  [2.83  V @ 1. m]"	"Frequency / Hz"	"Sound Pressure Level / dB (re 20 µPa/V)  [2.83  V @ 1. m]"	"Frequency / Hz"	"Sound Pressure Level / dB (re 20 µPa/V)  [2.83  V @ 1. m]"	"Frequency / Hz"	"Sound Pressure Level / dB (re 20 µPa/V)  [2.83  V @ 1. m]"	"Frequency / Hz"	"Sound Pressure Level / dB (re 20 µPa/V)  [2.83  V @ 1. m]"	"Frequency / Hz"	"Sound Pressure Level / dB (re 20 µPa/V)  [2.83  V @ 1. m]"	"Frequency / Hz"	"Sound Pressure Level / dB (re 20 µPa/V)  [2.83  V @ 1. m]"	"Frequency / Hz"	"Sound Pressure Level / dB (re 20 µPa/V)  [2.83  V @ 1. m]"	"Frequency / Hz"	"Sound Pressure Level / dB (re 20 µPa/V)  [2.83  V @ 1. m]"	"Frequency / Hz"	"Sound Pressure Level / dB (re 20 µPa/V)  [2.83  V @ 1. m]"
20.5078	61.6965	20.5078	61.7075	20.5078	61.6915	20.5078	61.7234	20.5078	61.6918	20.5078	61.7422	20.5078	61.6953	20.5078	61.7606	20.5078	61.6987	20.5078	61.7741	20.5078	61.6974	20.5078	61.7783	20.5078	61.6865	20.5078	61.7684	20.5078	61.6613	20.5078	61.7406	20.5078	61.6181	20.5078	61.6925	20.5078	61.5552	20.5078	61.6238	20.5078	61.4735	20.5078	61.5367	20.5078	61.3771	20.5078	61.4358	20.5078	61.2726	20.5078	61.3274	20.5078	61.1687	20.5078	61.2193	20.5078	61.0747	20.5078	61.1194	20.5078	60.9991	20.5078	61.0348	20.5078	60.9484	20.5078	60.9717	20.5078	60.9265	20.5078	60.9346
21.9727	62.3664	21.9727	62.3712	21.9727	62.3697	21.9727	62.383	21.9727	62.3808	21.9727	62.3995	21.9727	62.3982	21.9727	62.4171	21.9727	62.419	21.9727	62.4316	21.9727	62.4392	21.9727	62.4383	21.9727	62.4542	21.9727	62.4328	21.9727	62.4593	21.9727	62.4111	21.9727	62.45	21.9727	62.3711	21.9727	62.4234	21.9727	62.3126	21.9727	62.3781	21.9727	62.2381	21.9727	62.3154	21.9727	62.1527	21.9727	62.2386	21.9727	62.0638	21.9727	62.1532	21.9727	61.9798	21.9727	62.0659	21.9727	61.9091	21.9727	61.984	21.9727	61.8589	21.9727	61.9145	21.9727	61.8336	21.9727	61.8633	21.9727	61.8354
23.4375	63.8436	23.4375	63.8427	23.4375	63.852	23.4375	63.849	23.4375	63.8672	23.4375	63.861	23.4375	63.8873	23.4375	63.8763	23.4375	63.9095	23.4375	63.8914	23.4375	63.93	23.4375	63.9025	23.4375	63.9447	23.4375	63.9058	23.4375	63.9494	23.4375	63.8979	23.4375	63.9407	23.4375	63.8765	23.4375	63.9163	23.4375	63.8408	23.4375	63.8758	23.4375	63.7922	23.4375	63.821	23.4375	63.7337	23.4375	63.7556	23.4375	63.6702	23.4375	63.6854	23.4375	63.6074	23.4375	63.6167	23.4375	63.5512	23.4375	63.5561	23.4375	63.5068	23.4375	63.5089	23.4375	63.4785	23.4375	63.4791	23.4375	63.4688
24.9023	64.6528	24.9023	64.6558	24.9023	64.6569	24.9023	64.6653	24.9023	64.6676	24.9023	64.6794	24.9023	64.6832	24.9023	64.6954	24.9023	64.7009	24.9023	64.7098	24.9023	64.7173	24.9023	64.7183	24.9023	64.7281	24.9023	64.7171	24.9023	64.7294	24.9023	64.7027	24.9023	64.7176	24.9023	64.6731	24.9023	64.6906	24.9023	64.6279	24.9023	64.6481	24.9023	64.5689	24.9023	64.5916	24.9023	64.5003	24.9023	64.5248	24.9023	64.4275	24.9023	64.4528	24.9023	64.3572	24.9023	64.3816	24.9023	64.296	24.9023	64.3174	24.9023	64.2495	24.9023	64.2655	24.9023	64.2219	24.9023	64.2305	24.9023	64.2154
26.3672	65.5216	26.3672	65.5208	26.3672	65.5302	26.3672	65.5273	26.3672	65.546	26.3672	65.5395	26.3672	65.5671	26.3672	65.5546	26.3672	65.5905	26.3672	65.5689	26.3672	65.6124	26.3672	65.5784	26.3672	65.6285	26.3672	65.5789	26.3672	65.6344	26.3672	65.567	26.3672	65.6264	26.3672	65.5404	26.3672	65.6021	26.3672	65.4988	26.3672	65.561	26.3672	65.444	26.3672	65.5047	26.3672	65.3798	26.3672	65.4371	26.3672	65.3117	26.3672	65.3635	26.3672	65.2458	26.3672	65.2903	26.3672	65.1885	26.3672	65.2238	26.3672	65.1453	26.3672	65.1699	26.3672	65.1203	26.3672	65.1329	26.3672	65.116
27.832	66.6319	27.832	66.6321	27.832	66.6375	27.832	66.6375	27.832	66.6485	27.832	66.6464	27.832	66.6634	27.832	66.6566	27.832	66.68	27.832	66.6648	27.832	66.6951	27.832	66.6676	27.832	66.7053	27.832	66.6616	27.832	66.7068	27.832	66.644	27.832	66.6967	27.832	66.6133	27.832	66.6729	27.832	66.5695	27.832	66.6348	27.832	66.5147	27.832	66.5836	27.832	66.4527	27.832	66.5223	27.832	66.3886	27.832	66.4554	27.832	66.3281	27.832	66.3882	27.832	66.277	27.832	66.3263	27.832	66.2399	27.832	66.2749	27.832	66.2201	27.832	66.2383	27.832	66.2196
29.2969	67.4802	29.2969	67.4796	29.2969	67.4858	29.2969	67.4836	29.2969	67.4961	29.2969	67.4905	29.2969	67.5097	29.2969	67.4981	29.2969	67.5242	29.2969	67.5032	29.2969	67.5367	29.2969	67.5026	29.2969	67.5435	29.2969	67.4927	29.2969	67.541	29.2969	67.471	29.2969	67.5262	29.2969	67.436	29.2969	67.497	29.2969	67.3877	29.2969	67.453	29.2969	67.3283	29.2969	67.3956	29.2969	67.2616	29.2969	67.328	29.2969	67.1927	29.2969	67.2549	29.2969	67.1275	29.2969	67.182	29.2969	67.0715	29.2969	67.1155	29.2969	67.0301	29.2969	67.0608	29.2969	67.0069	29.2969	67.0227	29.2969	67.0042
30.7617	68.1361	30.7617	68.1385	30.7617	68.1394	30.7617	68.146	30.7617	68.1481	30.7617	68.1569	30.7617	68.1609	30.7617	68.1691	30.7617	68.1757	30.7617	68.1795	30.7617	68.1898	30.7617	68.1846	30.7617	68.1999	30.7617	68.1812	30.7617	68.2026	30.7617	68.1667	30.7617	68.195	30.7617	68.1397	30.7617	68.1753	30.7617	68.1004	30.7617	68.1431	30.7617	68.0509	30.7617	68.0996	30.7617	67.9953	30.7617	68.0479	30.7617	67.9384	30.7617	67.9917	30.7617	67.8857	30.7617	67.9357	30.7617	67.8419	30.7617	67.8845	30.7617	67.8108	30.7617	67.8419	30.7617	67.795	30.7617	67.8114	30.7617	67.7953
32.2266	69.0986	32.2266	69.1013	32.2266	69.1007	32.2266	69.1081	32.2266	69.1073	32.2266	69.1176	32.2266	69.1173	32.2266	69.1274	32.2266	69.1288	32.2266	69.1349	32.2266	69.1391	32.2266	69.1367	32.2266	69.1453	32.2266	69.1301	32.2266	69.1441	32.2266	69.1127	32.2266	69.1329	32.2266	69.0835	32.2266	69.1098	32.2266	69.0429	32.2266	69.0745	32.2266	68.9932	32.2266	69.0285	32.2266	68.938	32.2266	68.9747	32.2266	68.8817	32.2266	68.9174	32.2266	68.8291	32.2266	68.8613	32.2266	68.7847	32.2266	68.8112	32.2266	68.752	32.2266	68.7709	32.2266	68.7336	32.2266	68.7434	32.2266	68.7307
33.6914	70.0084	33.6914	70.0089	33.6914	70.0111	33.6914	70.0119	33.6914	70.0167	33.6914	70.0161	33.6914	70.0243	33.6914	70.0194	33.6914	70.0319	33.6914	70.0189	33.6914	70.0372	33.6914	70.0119	33.6914	70.0373	33.6914	69.9954	33.6914	70.0294	33.6914	69.9676	33.6914	70.0109	33.6914	69.9276	33.6914	69.9805	33.6914	69.8764	33.6914	69.9381	33.6914	69.8169	33.6914	69.8854	33.6914	69.7531	33.6914	69.8255	33.6914	69.6905	33.6914	69.7626	33.6914	69.6344	33.6914	69.7013	33.6914	69.5895	33.6914	69.6459	33.6914	69.559	33.6914	69.6	33.6914	69.5449	33.6914	69.5665	33.6914	69.5477
35.1562	70.7626	35.1562	70.7617	35.1562	70.7657	35.1562	70.7625	35.1562	70.7707	35.1562	70.7638	35.1562	70.7764	35.1562	70.7637	35.1562	70.7813	35.1562	70.7599	35.1562	70.7829	35.1562	70.7498	35.1562	70.7785	35.1562	70.731	35.1562	70.7656	35.1562	70.7018	35.1562	70.7419	35.1562	70.6615	35.1562	70.7063	35.1562	70.6111	35.1562	70.6592	35.1562	70.5529	35.1562	70.6026	35.1562	70.4907	35.1562	70.5399	35.1562	70.4289	35.1562	70.4754	35.1562	70.3723	35.1562	70.4137	35.1562	70.3253	35.1562	70.3592	35.1562	70.2912	35.1562	70.3154	35.1562	70.2726	35.1562	70.2852	35.1562	70.2706
36.6211	71.6271	36.6211	71.6241	36.6211	71.6324	36.6211	71.6228	36.6211	71.6396	36.6211	71.6221	36.6211	71.648	36.6211	71.6203	36.6211	71.6559	36.6211	71.6152	36.6211	71.6612	36.6211	71.6042	36.6211	71.6614	36.6211	71.5852	36.6211	71.6538	36.6211	71.5564	36.6211	71.6362	36.6211	71.5173	36.6211	71.6072	36.6211	71.4689	36.6211	71.5667	36.6211	71.4137	36.6211	71.516	36.6211	71.3556	36.6211	71.4581	36.6211	71.2991	36.6211	71.3967	36.6211	71.249	36.6211	71.3362	36.6211	71.2094	36.6211	71.2808	36.6211	71.1833	36.6211	71.2341	36.6211	71.1728	36.6211	71.1991	36.6211	71.1782
38.0859	72.3951	38.0859	72.3946	38.0859	72.3974	38.0859	72.3955	38.0859	72.4014	38.0859	72.3968	38.0859	72.4062	38.0859	72.3969	38.0859	72.4105	38.0859	72.3939	38.0859	72.4124	38.0859	72.3854	38.0859	72.4098	38.0859	72.3695	38.0859	72.4003	38.0859	72.3444	38.0859	72.382	38.0859	72.3098	38.0859	72.3538	38.0859	72.2663	38.0859	72.3157	38.0859	72.2161	38.0859	72.2693	38.0859	72.1628	38.0859	72.2173	38.0859	72.1104	38.0859	72.1632	38.0859	72.0632	38.0859	72.111	38.0859	72.0248	38.0859	72.0643	38.0859	71.9981	38.0859	72.0264	38.0859	71.9847	38.0859	71.9994	38.0859	71.9852
39.5508	73.2489	39.5508	73.2491	39.5508	73.2496	39.5508	73.2499	39.5508	73.2511	39.5508	73.2503	39.5508	73.2525	39.5508	73.2491	39.5508	73.2529	39.5508	73.2444	39.5508	73.2504	39.5508	73.2343	39.5508	73.2432	39.5508	73.2169	39.5508	73.2295	39.5508	73.1909	39.5508	73.2076	39.5508	73.1559	39.5508	73.1768	39.5508	73.1129	39.5508	73.1374	39.5508	73.064	39.5508	73.0912	39.5508	73.0124	39.5508	73.0408	39.5508	72.9621	39.5508	72.9898	39.5508	72.9166	39.5508	72.9419	39.5508	72.8793	39.5508	72.9003	39.5508	72.8526	39.5508	72.8676	39.5508	72.8378	39.5508	72.8456	39.5508	72.8355
41.0156	74.3062	41.0156	74.3091	41.0156	74.3034	41.0156	74.3119	41.0156	74.3004	41.0156	74.314	41.0156	74.2964	41.0156	74.3143	41.0156	74.2903	41.0156	74.3114	41.0156	74.2805	41.0156	74.3036	41.0156	74.2654	41.0156	74.2893	41.0156	74.2435	41.0156	74.2672	41.0156	74.2136	41.0156	74.2369	41.0156	74.1759	41.0156	74.1989	41.0156	74.1313	41.0156	74.1546	41.0156	74.0824	41.0156	74.1062	41.0156	74.0322	41.0156	74.0566	41.0156	73.9847	41.0156	74.0086	41.0156	73.9434	41.0156	73.965	41.0156	73.9112	41.0156	73.9285	41.0156	73.8901	41.0156	73.9013	41.0156	73.8813	41.0156	73.8852
42.4805	74.9516	42.4805	74.9437	42.4805	74.9589	42.4805	74.9348	42.4805	74.9653	42.4805	74.9243	42.4805	74.9703	42.4805	74.9111	42.4805	74.973	42.4805	74.8937	42.4805	74.972	42.4805	74.8705	42.4805	74.9657	42.4805	74.8402	42.4805	74.9522	42.4805	74.8019	42.4805	74.9302	42.4805	74.7562	42.4805	74.8987	42.4805	74.7051	42.4805	74.8581	42.4805	74.6516	42.4805	74.8098	42.4805	74.5998	42.4805	74.7563	42.4805	74.5539	42.4805	74.701	42.4805	74.5174	42.4805	74.647	42.4805	74.4926	42.4805	74.5972	42.4805	74.4806	42.4805	74.5541	42.4805	74.4815	42.4805	74.5194	42.4805	74.4948
43.9453	75.9207	43.9453	75.9156	43.9453	75.9249	43.9453	75.9096	43.9453	75.9279	43.9453	75.9023	43.9453	75.9292	43.9453	75.8929	43.9453	75.9279	43.9453	75.8803	43.9453	75.923	43.9453	75.8634	43.9453	75.913	43.9453	75.8409	43.9453	75.8966	43.9453	75.812	43.9453	75.8726	43.9453	75.7767	43.9453	75.8408	43.9453	75.7362	43.9453	75.8019	43.9453	75.6926	43.9453	75.7576	43.9453	75.649	43.9453	75.7107	43.9453	75.6085	43.9453	75.6645	43.9453	75.574	43.9453	75.6217	43.9453	75.5473	43.9453	75.585	43.9453	75.5299	43.9453	75.5559	43.9453	75.522	43.9453	75.5353	43.9453	75.5239
45.4102	76.8398	45.4102	76.836	45.4102	76.8415	45.4102	76.8302	45.4102	76.8411	45.4102	76.822	45.4102	76.8381	45.4102	76.8106	45.4102	76.8319	45.4102	76.7953	45.4102	76.8216	45.4102	76.7748	45.4102	76.806	45.4102	76.7482	45.4102	76.7841	45.4102	76.7151	45.4102	76.7551	45.4102	76.6757	45.4102	76.7192	45.4102	76.6316	45.4102	76.6772	45.4102	76.5853	45.4102	76.6314	45.4102	76.5401	45.4102	76.5845	45.4102	76.499	45.4102	76.5397	45.4102	76.4646	45.4102	76.4996	45.4102	76.4386	45.4102	76.4662	45.4102	76.4215	45.4102	76.4406	45.4102	76.4134	45.4102	76.4232	45.4102	76.4141
46.875	77.7538	46.875	77.7478	46.875	77.7571	46.875	77.7394	46.875	77.7577	46.875	77.7282	46.875	77.7552	46.875	77.714	46.875	77.7493	46.875	77.6963	46.875	77.7393	46.875	77.6743	46.875	77.7244	46.875	77.6475	46.875	77.7039	46.875	77.6156	46.875	77.6774	46.875	77.5794	46.875	77.6449	46.875	77.5402	46.875	77.6075	46.875	77.5005	46.875	77.5671	46.875	77.463	46.875	77.5262	46.875	77.4305	46.875	77.4874	46.875	77.4048	46.875	77.4529	46.875	77.3868	46.875	77.4243	46.875	77.3765	46.875	77.402	46.875	77.3733	46.875	77.3862	46.875	77.3767
48.3398	78.7165	48.3398	78.7119	48.3398	78.7171	48.3398	78.7035	48.3398	78.7137	48.3398	78.6911	48.3398	78.7063	48.3398	78.6746	48.3398	78.6946	48.3398	78.6538	48.3398	78.6784	48.3398	78.6283	48.3398	78.6574	48.3398	78.5978	48.3398	78.6313	48.3398	78.5624	48.3398	78.6	48.3398	78.5231	48.3398	78.564	48.3398	78.4816	48.3398	78.5248	48.3398	78.4404	48.3398	78.4842	48.3398	78.4025	48.3398	78.4448	48.3398	78.3702	48.3398	78.4089	48.3398	78.3454	48.3398	78.3784	48.3398	78.3283	48.3398	78.3542	48.3398	78.3186	48.3398	78.3362	48.3398	78.3151	48.3398	78.3241	48.3398	78.3171
51.2695	80.7004	51.2695	80.6886	51.2695	80.704	51.2695	80.6691	51.2695	80.6994	51.2695	80.6424	51.2695	80.6867	51.2695	80.609	51.2695	80.6661	51.2695	80.5697	51.2695	80.6378	51.2695	80.5251	51.2695	80.6024	51.2695	80.476	51.2695	80.5603	51.2695	80.4238	51.2695	80.5124	51.2695	80.37	51.2695	80.4602	51.2695	80.3173	51.2695	80.4058	51.2695	80.2683	51.2695	80.3519	51.2695	80.226	51.2695	80.3015	51.2695	80.1923	51.2695	80.2572	51.2695	80.1682	51.2695	80.2206	51.2695	80.1532	51.2695	80.1924	51.2695	80.146	51.2695	80.1719	51.2695	80.145	51.2695	80.1578	51.2695	80.149
52.7344	81.5873	52.7344	81.5761	52.7344	81.5896	52.7344	81.5562	52.7344	81.5828	52.7344	81.5285	52.7344	81.5673	52.7344	81.4939	52.7344	81.5435	52.7344	81.4534	52.7344	81.5123	52.7344	81.4081	52.7344	81.4745	52.7344	81.3592	52.7344	81.4309	52.7344	81.3084	52.7344	81.383	52.7344	81.2575	52.7344	81.3323	52.7344	81.2091	52.7344	81.2812	52.7344	81.166	52.7344	81.2324	52.7344	81.1304	52.7344	81.1886	52.7344	81.1038	52.7344	81.1521	52.7344	81.0865	52.7344	81.1241	52.7344	81.0771	52.7344	81.1041	52.7344	81.0737	52.7344	81.0909	52.7344	81.0743	52.7344	81.0826	52.7344	81.0773
54.1992	82.492	54.1992	82.4813	54.1992	82.4922	54.1992	82.4605	54.1992	82.4817	54.1992	82.4305	54.1992	82.4611	54.1992	82.3928	54.1992	82.4312	54.1992	82.3486	54.1992	82.3933	54.1992	82.2997	54.1992	82.3488	54.1992	82.2478	54.1992	82.299	54.1992	82.1949	54.1992	82.2459	54.1992	82.1432	54.1992	82.1917	54.1992	82.0954	54.1992	82.139	54.1992	82.0541	54.1992	82.0909	54.1992	82.0215	54.1992	82.0502	54.1992	81.9984	54.1992	82.0188	54.1992	81.9844	54.1992	81.9973	54.1992	81.9776	54.1992	81.9846	54.1992	81.9754	54.1992	81.9785	54.1992	81.9753	54.1992	81.9763	54.1992	81.9756
55.6641	83.3944	55.6641	83.3826	55.6641	83.3933	55.6641	83.3586	55.6641	83.3795	55.6641	83.3237	55.6641	83.3534	55.6641	83.2794	55.6641	83.3163	55.6641	83.2277	55.6641	83.2698	55.6641	83.1706	55.6641	83.2157	55.6641	83.1105	55.6641	83.1558	55.6641	83.0495	55.6641	83.0927	55.6641	82.9903	55.6641	83.0288	55.6641	82.9358	55.6641	82.9674	55.6641	82.8885	55.6641	82.9118	55.6641	82.8504	55.6641	82.865	55.6641	82.8223	55.6641	82.829	55.6641	82.8037	55.6641	82.8044	55.6641	82.7927	55.6641	82.7899	55.6641	82.7868	55.6641	82.7831	55.6641	82.7836	55.6641	82.7812	55.6641	82.7818
58.5938	84.7673	58.5938	84.7476	58.5938	84.7713	58.5938	84.7133	58.5938	84.7597	58.5938	84.6661	58.5938	84.7336	58.5938	84.6088	58.5938	84.6948	58.5938	84.5446	58.5938	84.6457	58.5938	84.4769	58.5938	84.5894	58.5938	84.4095	58.5938	84.529	58.5938	84.3461	58.5938	84.4678	58.5938	84.2905	58.5938	84.4094	58.5938	84.2461	58.5938	84.3572	58.5938	84.2157	58.5938	84.3146	58.5938	84.2002	58.5938	84.2838	58.5938	84.1989	58.5938	84.2655	58.5938	84.2087	58.5938	84.2585	58.5938	84.2249	58.5938	84.2594	58.5938	84.2425	58.5938	84.2638	58.5938	84.2569	58.5938	84.2669	58.5938	84.2652
60.0586	85.276	60.0586	85.2539	60.0586	85.2804	60.0586	85.2152	60.0586	85.2671	60.0586	85.162	60.0586	85.2374	60.0586	85.0975	60.0586	85.1936	60.0586	85.0254	60.0586	85.1385	60.0586	84.9499	60.0586	85.0758	60.0586	84.8753	60.0586	85.0092	60.0586	84.806	60.0586	84.9428	60.0586	84.7463	60.0586	84.8805	60.0586	84.7	60.0586	84.8262	60.0586	84.6698	60.0586	84.7834	60.0586	84.6569	60.0586	84.7541	60.0586	84.6598	60.0586	84.7388	60.0586	84.675	60.0586	84.7354	60.0586	84.6971	60.0586	84.74	60.0586	84.72	60.0586	84.7471	60.0586	84.7385	60.0586	84.7515	60.0586	84.7493
62.9883	85.6989	62.9883	85.6707	62.9883	85.7042	62.9883	85.6208	62.9883	85.6867	62.9883	85.5523	62.9883	85.648	62.9883	85.4694	62.9883	85.5913	62.9883	85.3771	62.9883	85.5208	62.9883	85.2813	62.9883	85.4413	62.9883	85.1882	62.9883	85.3582	62.9883	85.1038	62.9883	85.2771	62.9883	85.0339	62.9883	85.2035	62.9883	84.9834	62.9883	85.1423	62.9883	84.9553	62.9883	85.0976	62.9883	84.9502	62.9883	85.0714	62.9883	84.9653	62.9883	85.0632	62.9883	84.995	62.9883	85.0695	62.9883	85.0316	62.9883	85.0842	62.9883	85.067	62.9883	85.1001	62.9883	85.0943	62.9883	85.1101	62.9883	85.109
64.4531	85.6615	64.4531	85.6301	64.4531	85.6672	64.4531	85.5744	64.4531	85.6472	64.4531	85.4979	64.4531	85.6037	64.4531	85.4052	64.4531	85.5402	64.4531	85.3023	64.4531	85.4613	64.4531	85.1958	64.4531	85.3729	64.4531	85.0928	64.4531	85.2811	64.4531	85.0003	64.4531	85.1923	64.4531	84.9247	64.4531	85.1127	64.4531	84.8713	64.4531	85.0478	64.4531	84.8434	64.4531	85.0017	64.4531	84.8411	64.4531	84.9765	64.4531	84.8611	64.4531	84.971	64.4531	84.8969	64.4531	84.9809	64.4531	84.9398	64.4531	84.9995	64.4531	84.9807	64.4531	85.0186	64.4531	85.0121	64.4531	85.0303	64.4531	85.029
67.3828	85.23	67.3828	85.1909	67.3828	85.2374	67.3828	85.1219	67.3828	85.2135	67.3828	85.0271	67.3828	85.1606	67.3828	84.9126	67.3828	85.0835	67.3828	84.7859	67.3828	84.9883	67.3828	84.6557	67.3828	84.8826	67.3828	84.5313	67.3828	84.7745	67.3828	84.4218	67.3828	84.6725	67.3828	84.3358	67.3828	84.5844	67.3828	84.2797	67.3828	84.5169	67.3828	84.257	67.3828	84.4742	67.3828	84.2673	67.3828	84.4575	67.3828	84.3054	67.3828	84.4642	67.3828	84.3621	67.3828	84.4877	67.3828	84.4262	67.3828	84.5185	67.3828	84.486	67.3828	84.5463	67.3828	84.5319	67.3828	84.5616	67.3828	84.5577
68.8477	84.9506	68.8477	84.909	68.8477	84.9568	68.8477	84.834	68.8477	84.9279	68.8477	84.7302	68.8477	84.867	68.8477	84.6041	68.8477	84.7791	68.8477	84.4642	68.8477	84.6712	68.8477	84.3203	68.8477	84.5518	68.8477	84.1829	68.8477	84.4305	68.8477	84.0625	68.8477	84.3169	68.8477	83.9686	68.8477	84.22	68.8477	83.9085	68.8477	84.1473	68.8477	83.8861	68.8477	84.1037	68.8477	83.9003	68.8477	84.0901	68.8477	83.9452	68.8477	84.103	68.8477	84.0103	68.8477	84.1346	68.8477	84.0827	68.8477	84.1739	68.8477	84.1496	68.8477	84.2091	68.8477	84.2001	68.8477	84.2293	68.8477	84.2273
71.7773	84.344	71.7773	84.2955	71.7773	84.3488	71.7773	84.2057	71.7773	84.3105	71.7773	84.0797	71.7773	84.2327	71.7773	83.9254	71.7773	84.1216	71.7773	83.7532	71.7773	83.9861	71.7773	83.5753	71.7773	83.8368	71.7773	83.4047	71.7773	83.6857	71.7773	83.255	71.7773	83.5452	71.7773	83.1382	71.7773	83.4266	71.7773	83.0638	71.7773	83.3393	71.7773	83.0365	71.7773	83.2891	71.7773	83.0549	71.7773	83.2766	71.7773	83.1111	71.7773	83.2966	71.7773	83.192	71.7773	83.339	71.7773	83.2815	71.7773	83.3899	71.7773	83.3637	71.7773	83.4347	71.7773	83.4255	71.7773	83.4606	71.7773	83.4586
74.707	83.7191	74.707	83.6703	74.707	83.7159	74.707	83.5719	74.707	83.6616	74.707	83.43	74.707	83.5606	74.707	83.2535	74.707	83.4205	74.707	83.0544	74.707	83.252	74.707	82.8472	74.707	83.0682	74.707	82.6474	74.707	82.8842	74.707	82.4712	74.707	82.7152	74.707	82.3329	74.707	82.5756	74.707	82.2438	74.707	82.4765	74.707	82.2092	74.707	82.4242	74.707	82.2273	74.707	82.4183	74.707	82.2891	74.707	82.4514	74.707	82.3791	74.707	82.51	74.707	82.4789	74.707	82.5772	74.707	82.5701	74.707	82.6356	74.707	82.6379	74.707	82.6706	74.707	82.6725
77.6367	83.072	77.6367	83.0202	77.6367	83.0625	77.6367	82.9103	77.6367	82.9928	77.6367	82.7489	77.6367	82.8677	77.6367	82.5466	77.6367	82.6959	77.6367	82.3176	77.6367	82.4898	77.6367	82.0786	77.6367	82.2653	77.6367	81.8486	77.6367	82.0403	77.6367	81.6464	77.6367	81.834	77.6367	81.4892	77.6367	81.6644	77.6367	81.3895	77.6367	81.5458	77.6367	81.3529	77.6367	81.4861	77.6367	81.3762	77.6367	81.4849	77.6367	81.4476	77.6367	81.5325	77.6367	81.5487	77.6367	81.6121	77.6367	81.6581	77.6367	81.7026	77.6367	81.755	77.6367	81.7832	77.6367	81.8228	77.6367	81.8365	77.6367	81.8511
79.1016	82.7551	79.1016	82.7	79.1016	82.7441	79.1016	82.5821	79.1016	82.668	79.1016	82.4087	79.1016	82.5319	79.1016	82.1913	79.1016	82.3448	79.1016	81.9449	79.1016	82.1201	79.1016	81.6881	79.1016	81.8748	79.1016	81.4413	79.1016	81.6288	79.1016	81.2255	79.1016	81.4031	79.1016	81.0592	79.1016	81.2179	79.1016	80.956	79.1016	81.0891	79.1016	80.9215	79.1016	81.0257	79.1016	80.9515	79.1016	81.0273	79.1016	81.0324	79.1016	81.0833	79.1016	81.1436	79.1016	81.1748	79.1016	81.2614	79.1016	81.2789	79.1016	81.3638	79.1016	81.3725	79.1016	81.433	79.1016	81.4365	79.1016	81.4583
82.0312	82.2856	82.0312	82.226	82.0312	82.27	82.0312	82.0948	82.0312	82.1804	82.0312	81.8998	82.0312	82.0224	82.0312	81.6537	82.0312	81.8062	82.0312	81.3735	82.0312	81.5468	82.0312	81.0804	82.0312	81.2637	82.0312	80.7982	82.0312	80.9797	82.0312	80.5514	82.0312	80.7195	82.0312	80.3621	82.0312	80.5068	82.0312	80.2466	82.0312	80.3605	82.0312	80.2111	82.0312	80.2914	82.0312	80.2502	82.0312	80.2986	82.0312	80.3473	82.0312	80.3693	82.0312	80.4777	82.0312	80.4814	82.0312	80.6138	82.0312	80.6077	82.0312	80.73	82.0312	80.7215	82.0312	80.8065	82.0312	80.8008	82.0312	80.8311
84.9609	81.8581	84.9609	81.7929	84.9609	81.8392	84.9609	81.6471	84.9609	81.7372	84.9609	81.4295	84.9609	81.5583	84.9609	81.1538	84.9609	81.3139	84.9609	80.839	84.9609	81.0206	84.9609	80.509	84.9609	80.7002	84.9609	80.1912	84.9609	80.3789	84.9609	79.914	84.9609	80.0854	84.9609	79.7032	84.9609	79.847	84.9609	79.5774	84.9609	79.6859	84.9609	79.5436	84.9609	79.6141	84.9609	79.5948	84.9609	79.6301	84.9609	79.711	84.9609	79.7183	84.9609	79.8632	84.9609	79.8526	84.9609	80.0199	84.9609	80.0015	84.9609	80.1522	84.9609	80.1348	84.9609	80.2381	84.9609	80.2279	84.9609	80.2645
87.8906	81.6468	87.8906	81.5775	87.8906	81.6238	87.8906	81.42	87.8906	81.51	87.8906	81.1834	87.8906	81.3118	87.8906	80.8826	87.8906	81.0415	87.8906	80.5384	87.8906	80.7171	87.8906	80.1771	87.8906	80.3627	87.8906	79.8294	87.8906	80.0075	87.8906	79.5274	87.8906	79.6838	87.8906	79.3007	87.8906	79.4228	87.8906	79.1701	87.8906	79.2501	87.8906	79.1431	87.8906	79.1793	87.8906	79.2108	87.8906	79.2082	87.8906	79.3493	87.8906	79.3186	87.8906	79.5255	87.8906	79.4801	87.8906	79.7035	87.8906	79.6566	87.8906	79.8514	87.8906	79.814	87.8906	79.9454	87.8906	79.9248	87.8906	79.971
90.8203	81.6516	90.8203	81.5753	90.8203	81.6286	90.8203	81.4036	90.8203	81.5077	90.8203	81.146	90.8203	81.2955	90.8203	80.8182	90.8203	81.0048	90.8203	80.4419	90.8203	80.6544	90.8203	80.0455	90.8203	80.2699	90.8203	79.6622	90.8203	79.8825	90.8203	79.3279	90.8203	79.5275	90.8203	79.0757	90.8203	79.2396	90.8203	78.9297	90.8203	79.0473	90.8203	78.8985	90.8203	78.9664	90.8203	78.9723	90.8203	78.9948	90.8203	79.1247	90.8203	79.1126	90.8203	79.3185	90.8203	79.2862	90.8203	79.5143	90.8203	79.4762	90.8203	79.6773	90.8203	79.6452	90.8203	79.7815	90.8203	79.7634	90.8203	79.8114
95.2148	81.8365	95.2148	81.7538	95.2148	81.8117	95.2148	81.5676	95.2148	81.6809	95.2148	81.2877	95.2148	81.4514	95.2148	80.9303	95.2148	81.1362	95.2148	80.5184	95.2148	80.7557	95.2148	80.0826	95.2148	80.3372	95.2148	79.6595	95.2148	79.915	95.2148	79.2891	95.2148	79.5279	95.2148	79.0092	95.2148	79.215	95.2148	78.8478	95.2148	79.0083	95.2148	78.8154	95.2148	78.9254	95.2148	78.9013	95.2148	78.9635	95.2148	79.0755	95.2148	79.0994	95.2148	79.2961	95.2148	79.2946	95.2148	79.5189	95.2148	79.5052	95.2148	79.7052	95.2148	79.6901	95.2148	79.8262	95.2148	79.8168	95.2148	79.8649
98.1445	82.1262	98.1445	82.0447	98.1445	82.0962	98.1445	81.8557	98.1445	81.9561	98.1445	81.5693	98.1445	81.713	98.1445	81.202	98.1445	81.3804	98.1445	80.7773	98.1445	80.9789	98.1445	80.3268	98.1445	80.5368	98.1445	79.8884	98.1445	80.0899	98.1445	79.5039	98.1445	79.6796	98.1445	79.2131	98.1445	79.3476	98.1445	79.0452	98.1445	79.1288	98.1445	79.0111	98.1445	79.0423	98.1445	79.0992	98.1445	79.0852	98.1445	79.2774	98.1445	79.2323	98.1445	79.502	98.1445	79.4423	98.1445	79.7274	98.1445	79.6686	98.1445	79.9137	98.1445	79.868	98.1445	80.0317	98.1445	80.0069	98.1445	80.0643
101.074	82.4453	101.074	82.362	101.074	82.4136	101.074	82.1677	101.074	82.2681	101.074	81.8726	101.074	82.0158	101.074	81.4931	101.074	81.6698	101.074	81.0533	101.074	81.2508	101.074	80.5852	101.074	80.7873	101.074	80.1281	101.074	80.3161	101.074	79.7259	101.074	79.8803	101.074	79.4207	101.074	79.5248	101.074	79.2444	101.074	79.2878	101.074	79.2091	101.074	79.1915	101.074	79.3026	101.074	79.2345	101.074	79.4909	101.074	79.3906	101.074	79.7271	101.074	79.6161	101.074	79.9623	101.074	79.8608	101.074	80.1547	101.074	80.0784	101.074	80.2734	101.074	80.2327	101.074	80.3008
105.469	83.1268	105.469	83.0347	105.469	83.1012	105.469	82.8288	105.469	82.9595	105.469	82.5184	105.469	82.7085	105.469	82.1194	105.469	82.3613	105.469	81.6552	105.469	81.9377	105.469	81.1577	105.469	81.4654	105.469	80.6665	105.469	80.9801	105.469	80.2265	105.469	80.5238	105.469	79.8819	105.469	80.1406	105.469	79.6671	105.469	79.8691	105.469	79.5967	105.469	79.733	105.469	79.6604	105.469	79.7333	105.469	79.8249	105.469	79.8469	105.469	80.0439	105.469	80.033	105.469	80.2687	105.469	80.2431	105.469	80.4572	105.469	80.4318	105.469	80.5787	105.469	80.5636	105.469	80.6156
108.398	83.6604	108.398	83.575	108.398	83.6285	108.398	83.376	108.398	83.4807	108.398	83.0729	108.398	83.2238	108.398	82.6814	108.398	82.8709	108.398	82.2245	108.398	82.4419	108.398	81.7337	108.398	81.965	108.398	81.2481	108.398	81.4767	108.398	80.8118	108.398	81.0198	108.398	80.4686	108.398	80.6394	108.398	80.2522	108.398	80.374	108.398	80.1771	108.398	80.2463	108.398	80.2335	108.398	80.2553	108.398	80.3891	108.398	80.3761	108.398	80.5989	108.398	80.5664	108.398	80.8155	108.398	80.7782	108.398	80.9977	108.398	80.9669	108.398	81.1152	108.398	81.0981	108.398	81.1503
112.793	84.0656	112.793	83.985	112.793	84.0274	112.793	83.7897	112.793	83.8714	112.793	83.489	112.793	83.6041	112.793	83.0987	112.793	83.2378	112.793	82.6418	112.793	82.7922	112.793	82.1492	112.793	82.2954	112.793	81.6602	112.793	81.7845	112.793	81.2193	112.793	81.3044	112.793	80.8707	112.793	80.9032	112.793	80.6494	112.793	80.6235	112.793	80.5708	112.793	80.491	112.793	80.6254	112.793	80.5059	112.793	80.7809	112.793	80.6417	112.793	80.991	112.793	80.8531	112.793	81.2071	112.793	81.0884	112.793	81.3863	112.793	81.3001	112.793	81.497	112.793	81.4518	112.793	81.5204
117.188	84.19	117.188	84.1063	117.188	84.1561	117.188	83.9093	117.188	84.0049	117.188	83.6087	117.188	83.7419	117.188	83.2202	117.188	83.3785	117.188	82.7668	117.188	82.9327	117.188	82.2791	117.188	82.4309	117.188	81.7953	117.188	81.9082	117.188	81.3584	117.188	81.4082	117.188	81.0104	117.188	80.9789	117.188	80.7837	117.188	80.6649	117.188	80.692	117.188	80.4959	117.188	80.7256	117.188	80.477	117.188	80.8538	117.188	80.5859	117.188	81.0337	117.188	80.7796	117.188	81.2194	117.188	81.0069	117.188	81.3707	117.188	81.2193	117.188	81.4573	117.188	81.3789	117.188	81.4615
120.117	84.1828	120.117	84.0897	120.117	84.1594	120.117	83.8846	120.117	84.0202	120.117	83.577	120.117	83.7708	120.117	83.1828	120.117	83.4222	120.117	82.7249	120.117	82.9921	120.117	82.2341	120.117	82.5058	120.117	81.7488	120.117	81.9969	120.117	81.3119	120.117	81.5067	120.117	80.9649	120.117	81.0804	120.117	80.739	120.117	80.76	120.117	80.6464	120.117	80.5744	120.117	80.6764	120.117	80.5301	120.117	80.7982	120.117	80.6087	120.117	80.9699	120.117	80.7717	120.117	81.1473	120.117	80.9717	120.117	81.292	120.117	81.1625	120.117	81.3756	120.117	81.3073	120.117	81.3818
124.512	83.9197	124.512	83.8233	124.512	83.9001	124.512	83.6147	124.512	83.766	124.512	83.3027	124.512	83.5238	124.512	82.9026	124.512	83.1857	124.512	82.4373	124.512	82.7705	124.512	81.9379	124.512	82.3044	124.512	81.4435	124.512	81.8216	124.512	80.9987	124.512	81.3631	124.512	80.6467	124.512	80.9717	124.512	80.4199	124.512	80.6853	124.512	80.3313	124.512	80.527	124.512	80.3698	124.512	80.4982	124.512	80.5044	124.512	80.5775	124.512	80.6929	124.512	80.7272	124.512	80.8913	124.512	80.9028	124.512	81.0613	124.512	81.0623	124.512	81.1741	124.512	81.1727	124.512	81.2128
128.906	83.6042	128.906	83.5201	128.906	83.572	128.906	83.3234	128.906	83.4251	128.906	83.0228	128.906	83.1702	128.906	82.6336	128.906	82.8201	128.906	82.1784	128.906	82.3945	128.906	81.6879	128.906	81.9212	128.906	81.2012	128.906	81.4364	128.906	80.7627	128.906	80.983	128.906	80.4159	128.906	80.6059	128.906	80.1941	128.906	80.3428	128.906	80.1108	128.906	80.2147	128.906	80.1557	128.906	80.219	128.906	80.2978	128.906	80.3298	128.906	80.4943	128.906	80.5061	128.906	80.7006	128.906	80.7017	128.906	80.8773	128.906	80.8747	128.906	80.9948	128.906	80.9926	128.906	81.0351
133.301	83.3287	133.301	83.2518	133.301	83.2882	133.301	83.0617	133.301	83.1312	133.301	82.7676	133.301	82.8638	133.301	82.3853	133.301	82.4979	133.301	81.9375	133.301	82.0528	133.301	81.4551	133.301	81.5563	133.301	80.9768	133.301	81.0455	133.301	80.5458	133.301	80.5657	133.301	80.2038	133.301	80.165	133.301	79.9815	133.301	79.8852	133.301	79.891	133.301	79.7502	133.301	79.9218	133.301	79.7576	133.301	80.0445	133.301	79.8801	133.301	80.2191	133.301	80.0733	133.301	80.4033	133.301	80.2884	133.301	80.559	133.301	80.4811	133.301	80.6571	133.301	80.618	133.301	80.6789
139.16	82.9973	139.16	82.9122	139.16	82.9632	139.16	82.7121	139.16	82.8106	139.16	82.4069	139.16	82.5449	139.16	82.0126	139.16	82.1774	139.16	81.5529	139.16	81.7264	139.16	81.0602	139.16	81.2185	139.16	80.5751	139.16	80.6901	139.16	80.1434	139.16	80.1864	139.16	79.8079	139.16	79.7577	139.16	79.599	139.16	79.4495	139.16	79.5256	139.16	79.2909	139.16	79.573	139.16	79.2841	139.16	79.7075	139.16	79.4038	139.16	79.8866	139.16	79.6049	139.16	80.0672	139.16	79.836	139.16	80.2122	139.16	80.05	139.16	80.2936	139.16	80.2104	139.16	80.2945
143.555	82.8022	143.555	82.7016	143.555	82.784	143.555	82.4865	143.555	82.6479	143.555	82.1662	143.555	82.3997	143.555	81.757	143.555	82.0507	143.555	81.2827	143.555	81.6188	143.555	80.7757	143.555	81.1298	143.555	80.2771	143.555	80.6181	143.555	79.8328	143.555	80.1263	143.555	79.4867	143.555	79.7013	143.555	79.2703	143.555	79.3863	143.555	79.1936	143.555	79.2102	143.555	79.2422	143.555	79.1778	143.555	79.3827	143.555	79.2678	143.555	79.5719	143.555	79.4396	143.555	79.7656	143.555	79.6441	143.555	79.9256	143.555	79.8349	143.555	80.0232	143.555	79.9751	143.555	80.0411
147.949	82.6376	147.949	82.5306	147.949	82.6236	147.949	82.3063	147.949	82.4896	147.949	81.9742	147.949	82.2421	147.949	81.5503	147.949	81.8931	147.949	81.0592	147.949	81.4614	147.949	80.5345	147.949	80.9738	147.949	80.0191	147.949	80.4658	147.949	79.5614	147.949	79.9807	147.949	79.2075	147.949	79.5652	147.949	78.9899	147.949	79.2608	147.949	78.9179	147.949	79.0935	147.949	78.9754	147.949	79.065	147.949	79.127	147.949	79.1523	147.949	79.3278	147.949	79.3147	147.949	79.5336	147.949	79.5049	147.949	79.7063	147.949	79.6787	147.949	79.8175	147.949	79.8013	147.949	79.8506
153.809	82.6472	153.809	82.5458	153.809	82.6234	153.809	82.3228	153.809	82.4755	153.809	81.9867	153.809	82.2091	153.809	81.5522	153.809	81.8353	153.809	81.0418	153.809	81.3718	153.809	80.4876	153.809	80.845	153.809	79.9321	153.809	80.2908	153.809	79.426	153.809	79.7548	153.809	79.0209	153.809	79.2886	153.809	78.7568	153.809	78.9405	153.809	78.6498	153.809	78.7429	153.809	78.6866	153.809	78.7006	153.809	78.8298	153.809	78.7889	153.809	79.0304	153.809	78.9625	153.809	79.239	153.809	79.1683	153.809	79.4138	153.809	79.3579	153.809	79.5243	153.809	79.4938	153.809	79.5524
159.668	82.7846	159.668	82.6757	159.668	82.7737	159.668	82.4508	159.668	82.6434	159.668	82.1183	159.668	82.3985	159.668	81.6923	159.668	82.0488	159.668	81.1938	159.668	81.6097	159.668	80.6525	159.668	81.1039	159.668	80.1072	159.668	80.5624	159.668	79.605	159.668	80.0251	159.668	79.1951	159.668	79.5388	159.668	78.9181	159.668	79.1515	159.668	78.794	159.668	78.9013	159.668	78.8144	159.668	78.805	159.668	78.9452	159.668	78.85	159.668	79.1374	159.668	78.9983	159.668	79.3396	159.668	79.1972	159.668	79.5069	159.668	79.394	159.668	79.6065	159.668	79.5447	159.668	79.62
165.527	82.8175	165.527	82.7042	165.527	82.8121	165.527	82.4758	165.527	82.6892	165.527	82.1413	165.527	82.4551	165.527	81.7159	165.527	82.1212	165.527	81.2227	165.527	81.7056	165.527	80.6937	165.527	81.2334	165.527	80.1704	165.527	80.7378	165.527	79.701	165.527	80.2588	165.527	79.3344	165.527	79.8404	165.527	79.1085	165.527	79.5236	165.527	79.0387	165.527	79.3372	165.527	79.1121	165.527	79.2896	165.527	79.2913	165.527	79.3649	165.527	79.5256	165.527	79.5265	165.527	79.7631	165.527	79.7267	165.527	79.9596	165.527	79.9169	165.527	80.083	165.527	80.056	165.527	80.1158
171.387	82.9184	171.387	82.7991	171.387	82.9154	171.387	82.5595	171.387	82.7924	171.387	82.2067	171.387	82.5556	171.387	81.7537	171.387	82.2166	171.387	81.2213	171.387	81.7923	171.387	80.6407	171.387	81.3072	171.387	80.0556	171.387	80.7936	171.387	79.5208	171.387	80.2921	171.387	79.0968	171.387	79.8492	171.387	78.8351	171.387	79.511	171.387	78.7604	171.387	79.3121	171.387	78.8599	171.387	79.2646	171.387	79.0873	171.387	79.3515	171.387	79.3796	171.387	79.5312	171.387	79.674	171.387	79.7488	171.387	79.9192	171.387	79.9497	171.387	80.08	171.387	80.0893	171.387	80.1374
177.246	82.8589	177.246	82.771	177.246	82.8274	177.246	82.5653	177.246	82.679	177.246	82.2478	177.246	82.4208	177.246	81.8298	177.246	82.0657	177.246	81.3284	177.246	81.6325	177.246	80.7688	177.246	81.1477	177.246	80.1862	177.246	80.6451	177.246	79.6272	177.246	80.1652	177.246	79.1474	177.246	79.752	177.246	78.8034	177.246	79.4458	177.246	78.6369	177.246	79.275	177.246	78.6578	177.246	79.2467	177.246	78.8368	177.246	79.3421	177.246	79.1161	177.246	79.5197	177.246	79.4275	177.246	79.7254	177.246	79.7095	177.246	79.9045	177.246	79.9161	177.246	80.0124	177.246	80.0198
183.105	82.9294	183.105	82.8401	183.105	82.8947	183.105	82.6312	183.105	82.7363	183.105	82.3115	183.105	82.4592	183.105	81.8947	183.105	82.0746	183.105	81.4005	183.105	81.6012	183.105	80.8556	183.105	81.0671	183.105	80.2949	183.105	80.5112	183.105	79.7624	183.105	79.9826	183.105	79.3089	183.105	79.5368	183.105	78.986	183.105	79.2255	183.105	78.8329	183.105	79.0828	183.105	78.8612	183.105	79.1122	183.105	79.0464	183.105	79.2836	183.105	79.3335	183.105	79.5415	183.105	79.6539	183.105	79.8202	183.105	79.9426	183.105	80.0583	183.105	80.149	183.105	80.2083	183.105	80.2415
188.965	83.2661	188.965	83.1554	188.965	83.2509	188.965	82.9247	188.965	83.1079	188.965	82.5842	188.965	82.8395	188.965	82.1489	188.965	82.453	188.965	81.6399	188.965	81.9629	188.965	81.0857	188.965	81.3923	188.965	80.5234	188.965	80.7764	188.965	79.9973	188.965	80.164	188.965	79.5563	188.965	79.6167	188.965	79.247	188.965	79.2005	188.965	79.1019	188.965	78.9687	188.965	79.1287	188.965	78.9423	188.965	79.3022	188.965	79.0984	188.965	79.5695	188.965	79.3774	188.965	79.8628	188.965	79.7032	188.965	80.1161	188.965	80.0028	188.965	80.2775	188.965	80.2188	188.965	80.3148
196.289	83.3222	196.289	83.1861	196.289	83.3404	196.289	82.9359	196.289	83.2398	196.289	82.5785	196.289	83.0221	196.289	82.1247	196.289	82.6923	196.289	81.5913	196.289	82.2598	196.289	81.0034	196.289	81.74	196.289	80.3981	196.289	81.1574	196.289	79.8277	196.289	80.5499	196.289	79.358	196.289	79.9726	196.289	79.0577	196.289	79.4969	196.289	78.9757	196.289	79.1978	196.289	79.1155	196.289	79.1258	196.289	79.428	196.289	79.2787	196.289	79.829	196.289	79.5965	196.289	80.228	196.289	79.9867	196.289	80.5484	196.289	80.3563	196.289	80.7371	196.289	80.6319	196.289	80.766
203.613	82.9984	203.613	82.8755	203.613	83.0195	203.613	82.6514	203.613	82.9398	203.613	82.3284	203.613	82.7617	203.613	81.9116	203.613	82.4883	203.613	81.4098	203.613	82.1246	203.613	80.837	203.613	81.6782	203.613	80.2157	203.613	81.1619	203.613	79.5805	203.613	80.5978	203.613	78.9841	203.613	80.023	203.613	78.4995	203.613	79.4955	203.613	78.2121	203.613	79.0917	203.613	78.1881	203.613	78.8875	203.613	78.4304	203.613	78.9198	203.613	78.8614	203.613	79.1567	203.613	79.3565	203.613	79.5058	203.613	79.7944	203.613	79.8546	203.613	80.0885	203.613	80.106	203.613	80.1942
210.938	82.4356	210.938	82.3273	210.938	82.4658	210.938	82.1419	210.938	82.418	210.938	81.8807	210.938	82.2927	210.938	81.5462	210.938	82.0916	210.938	81.1418	210.938	81.8169	210.938	80.6737	210.938	81.4721	210.938	80.1526	210.938	81.0635	210.938	79.5974	210.938	80.6023	210.938	79.04	210.938	80.1084	210.938	78.5284	210.938	79.6156	210.938	78.1261	210.938	79.1728	210.938	77.8974	210.938	78.8387	210.938	77.8795	210.938	78.6614	210.938	78.0549	210.938	78.6508	210.938	78.3504	210.938	78.7643	210.938	78.6672	210.938	78.9217	210.938	78.9169	210.938	79.0367	210.938	79.0446
218.262	81.8612	218.262	81.7974	218.262	81.8496	218.262	81.6577	218.262	81.7648	218.262	81.443	218.262	81.61	218.262	81.1566	218.262	81.3898	218.262	80.805	218.262	81.1102	218.262	80.3985	218.262	80.7791	218.262	79.9532	218.262	80.4078	218.262	79.4924	218.262	80.013	218.262	79.0483	218.262	79.6193	218.262	78.6621	218.262	79.2614	218.262	78.3796	218.262	78.9808	218.262	78.2402	218.262	78.8147	218.262	78.26	218.262	78.778	218.262	78.4178	218.262	78.8517	218.262	78.6576	218.262	78.9877	218.262	78.9078	218.262	79.126	218.262	79.1055	218.262	79.2129	218.262	79.211
225.586	81.6295	225.586	81.6049	225.586	81.5815	225.586	81.5062	225.586	81.4628	225.586	81.3323	225.586	81.2752	225.586	81.0833	225.586	81.0205	225.586	80.761	225.586	80.7009	225.586	80.3698	225.586	80.3204	225.586	79.9194	225.586	79.8873	225.586	79.4292	225.586	79.4195	225.586	78.9347	225.586	78.9511	225.586	78.494	225.586	78.5393	225.586	78.1834	225.586	78.2599	225.586	78.0734	225.586	78.1812	225.586	78.1882	225.586	78.3207	225.586	78.4818	225.586	78.6239	225.586	78.8584	225.586	78.9892	225.586	79.2149	225.586	79.3145	225.586	79.4717	225.586	79.5253	225.586	79.5811
232.91	81.4932	232.91	81.4331	232.91	81.4889	232.91	81.3103	232.91	81.419	232.91	81.1269	232.91	81.2828	232.91	80.8851	232.91	81.0786	232.91	80.5871	232.91	80.8037	232.91	80.2348	232.91	80.4532	232.91	79.8318	232.91	80.0221	232.91	79.3863	232.91	79.5087	232.91	78.9177	232.91	78.9251	232.91	78.4638	232.91	78.3134	232.91	78.0871	232.91	77.7632	232.91	77.8656	232.91	77.4065	232.91	77.8586	232.91	77.3564	232.91	78.0602	232.91	77.6143	232.91	78.3879	232.91	78.0548	232.91	78.721	232.91	78.51	232.91	78.9495	232.91	78.8493	232.91	79.0017
241.699	81.282	241.699	81.243	241.699	81.2451	241.699	81.1271	241.699	81.1382	241.699	80.9383	241.699	80.9713	241.699	80.6846	241.699	80.7561	241.699	80.3754	241.699	80.5026	241.699	80.0191	241.699	80.2147	241.699	79.6223	241.699	79.8871	241.699	79.1905	241.699	79.5066	241.699	78.7354	241.699	79.0604	241.699	78.2847	241.699	78.5508	241.699	77.8915	241.699	78.0173	241.699	77.6321	241.699	77.5537	241.699	77.5753	241.699	77.2925	241.699	77.7321	241.699	77.3276	241.699	78.0299	241.699	77.6247	241.699	78.3433	241.699	78.0336	241.699	78.5511	241.699	78.3873	241.699	78.5735
250.488	82.2897	250.488	82.2307	250.488	82.2361	250.488	82.0627	250.488	82.0696	250.488	81.791	250.488	81.7939	250.488	81.4218	250.488	81.4187	250.488	80.9621	250.488	80.96	250.488	80.4205	250.488	80.4387	250.488	79.8089	250.488	79.8775	250.488	79.1467	250.488	79.2956	250.488	78.4653	250.488	78.7068	250.488	77.8123	250.488	78.1229	250.488	77.2521	250.488	77.5678	250.488	76.8571	250.488	77.0926	250.488	76.6843	250.488	76.7766	250.488	76.741	250.488	76.69	250.488	76.9637	250.488	76.8303	250.488	77.2364	250.488	77.0993	250.488	77.4377	250.488	77.3553	250.488	77.4845
259.277	82.1472	259.277	82.0906	259.277	82.1224	259.277	81.9567	259.277	82.0152	259.277	81.7519	259.277	81.8274	259.277	81.4824	259.277	81.5642	259.277	81.1514	259.277	81.2331	259.277	80.7556	259.277	80.8429	259.277	80.2854	259.277	80.4	259.277	79.7306	259.277	79.9066	259.277	79.0947	259.277	79.3612	259.277	78.4132	259.277	78.769	259.277	77.7666	259.277	78.1615	259.277	77.2682	259.277	77.6159	259.277	77.0105	259.277	77.2442	259.277	77.0032	259.277	77.1257	259.277	77.1693	259.277	77.2315	259.277	77.3965	259.277	77.4371	259.277	77.5845	259.277	77.609	259.277	77.665
268.066	82.158	268.066	82.0486	268.066	82.1676	268.066	81.8469	268.066	82.0742	268.066	81.566	268.066	81.8789	268.066	81.2253	268.066	81.5863	268.066	80.8475	268.066	81.2053	268.066	80.4512	268.066	80.7499	268.066	80.04	268.066	80.2391	268.066	79.5961	268.066	79.6942	268.066	79.0908	268.066	79.1342	268.066	78.511	268.066	78.574	268.066	77.8959	268.066	78.0294	268.066	77.3564	268.066	77.5354	268.066	77.0385	268.066	77.1605	268.066	77.0156	268.066	76.988	268.066	77.2144	268.066	77.0499	268.066	77.4744	268.066	77.275	268.066	77.6528	268.066	77.5243	268.066	77.6717
276.855	82.3226	276.855	82.2388	276.855	82.3493	276.855	82.0925	276.855	82.3224	276.855	81.8786	276.855	82.2417	276.855	81.594	276.855	82.1001	276.855	81.2369	276.855	81.8823	276.855	80.8068	276.855	81.5661	276.855	80.3034	276.855	81.1257	276.855	79.7258	276.855	80.5394	276.855	79.0745	276.855	79.7988	276.855	78.358	276.855	78.9206	276.855	77.6113	276.855	77.9649	276.855	76.9225	276.855	77.0584	276.855	76.4363	276.855	76.3966	276.855	76.277	276.855	76.1487	276.855	76.4249	276.855	76.2962	276.855	76.7153	276.855	76.6301	276.855	76.9626	276.855	76.9242	276.855	77.0466
287.109	81.8716	287.109	81.8468	287.109	81.8003	287.109	81.733	287.109	81.6406	287.109	81.5473	287.109	81.4158	287.109	81.3109	287.109	81.1613	287.109	81.0447	287.109	80.913	287.109	80.7646	287.109	80.6909	287.109	80.4758	287.109	80.4856	287.109	80.1663	287.109	80.2603	287.109	79.8073	287.109	79.9691	287.109	79.3669	287.109	79.5838	287.109	78.8374	287.109	79.1124	287.109	78.2661	287.109	78.6037	287.109	77.7662	287.109	78.1327	287.109	77.4702	287.109	77.7772	287.109	77.4263	287.109	77.5898	287.109	77.5443	287.109	77.5693	287.109	77.672	287.109	77.645	287.109	77.7066
297.363	82.7532	297.363	82.662	297.363	82.7078	297.363	82.4489	297.363	82.5229	297.363	82.1407	297.363	82.209	297.363	81.7734	297.363	81.7919	297.363	81.3853	297.363	81.3138	297.363	81.0032	297.363	80.8283	297.363	80.6309	297.363	80.3834	297.363	80.251	297.363	79.995	297.363	79.8423	297.363	79.6317	297.363	79.4028	297.363	79.2326	297.363	78.9633	297.363	78.7556	297.363	78.5859	297.363	78.2308	297.363	78.3445	297.363	77.7869	297.363	78.2858	297.363	77.5949	297.363	78.3894	297.363	77.7225	297.363	78.5602	297.363	78.0576	297.363	78.6734	297.363	78.4091	297.363	78.6328
307.617	82.5842	307.617	82.4597	307.617	82.5812	307.617	82.2168	307.617	82.4588	307.617	81.8819	307.617	82.2403	307.617	81.4957	307.617	81.9586	307.617	81.105	307.617	81.6469	307.617	80.7469	307.617	81.3274	307.617	80.4295	307.617	81.0025	307.617	80.1224	307.617	80.6554	307.617	79.7673	307.617	80.2584	307.617	79.3112	307.617	79.7847	307.617	78.7492	307.617	79.2236	307.617	78.1688	307.617	78.6071	307.617	77.7556	307.617	78.0466	307.617	77.6883	307.617	77.7289	307.617	77.959	307.617	77.7864	307.617	78.3621	307.617	78.132	307.617	78.665	307.617	78.5172	307.617	78.7261
319.336	82.6225	319.336	82.4963	319.336	82.5996	319.336	82.2303	319.336	82.4242	319.336	81.8412	319.336	82.1008	319.336	81.3559	319.336	81.6484	319.336	80.8129	319.336	81.1093	319.336	80.258	319.336	80.5519	319.336	79.7345	319.336	80.0542	319.336	79.2724	319.336	79.6652	319.336	78.8815	319.336	79.3746	319.336	78.5545	319.336	79.1286	319.336	78.2748	319.336	78.8792	319.336	78.0291	319.336	78.6206	319.336	77.8248	319.336	78.3879	319.336	77.6989	319.336	78.2253	319.336	77.6933	319.336	78.1503	319.336	77.8037	319.336	78.1388	319.336	77.9618	319.336	78.1362	319.336	78.0849
329.59	82.0242	329.59	81.9304	329.59	82.0211	329.59	81.7461	329.59	81.9217	329.59	81.4846	329.59	81.7312	329.59	81.1647	329.59	81.4577	329.59	80.8058	329.59	81.1119	329.59	80.422	329.59	80.7068	329.59	80.0158	329.59	80.2548	329.59	79.5782	329.59	79.7621	329.59	79.0966	329.59	79.2253	329.59	78.5768	329.59	78.6426	329.59	78.0702	329.59	78.0426	329.59	77.6903	329.59	77.5197	329.59	77.5715	329.59	77.2307	329.59	77.7588	329.59	77.2964	329.59	78.1436	329.59	77.673	329.59	78.5395	329.59	78.1712	329.59	78.7916	329.59	78.5933	329.59	78.8156
341.309	82.1636	341.309	82.0626	341.309	82.0629	341.309	81.7701	341.309	81.7758	341.309	81.3258	341.309	81.3434	341.309	80.8048	341.309	80.8348	341.309	80.3103	341.309	80.3412	341.309	79.9373	341.309	79.9496	341.309	79.7111	341.309	79.6978	341.309	79.5584	341.309	79.5481	341.309	79.3525	341.309	79.4103	341.309	78.992	341.309	79.1942	341.309	78.4695	341.309	78.8557	341.309	77.9239	341.309	78.431	341.309	77.6271	341.309	78.0561	341.309	77.7846	341.309	77.9242	341.309	78.2951	341.309	78.1357	341.309	78.8551	341.309	78.5804	341.309	79.2175	341.309	79.0257	341.309	79.2727
353.027	83.0833	353.027	82.9603	353.027	83.036	353.027	82.6639	353.027	82.8238	353.027	82.1976	353.027	82.4566	353.027	81.5813	353.027	81.9553	353.027	80.8632	353.027	81.3582	353.027	80.1213	353.027	80.719	353.027	79.4374	353.027	80.0845	353.027	78.8447	353.027	79.4594	353.027	78.2992	353.027	78.7899	353.027	77.7201	353.027	78.0015	353.027	77.082	353.027	77.0944	353.027	76.5097	353.027	76.2819	353.027	76.2959	353.027	76.0141	353.027	76.6657	353.027	76.5326	353.027	77.4638	353.027	77.4845	353.027	78.3062	353.027	78.3782	353.027	78.9059	353.027	78.9555	353.027	79.1347
366.211	83.5446	366.211	83.3329	366.211	83.5239	366.211	82.9061	366.211	83.2738	366.211	82.3044	366.211	82.8162	366.211	81.5938	366.211	82.1954	366.211	80.8649	366.211	81.484	366.211	80.2152	366.211	80.7871	366.211	79.7116	366.211	80.2222	366.211	79.3488	366.211	79.8538	366.211	79.0414	366.211	79.6256	366.211	78.6609	366.211	79.3744	366.211	78.103	366.211	78.9189	366.211	77.3829	366.211	78.1569	366.211	76.763	366.211	77.1957	366.211	76.7227	366.211	76.5372	366.211	77.4181	366.211	76.8133	366.211	78.3844	366.211	77.8208	366.211	79.088	366.211	78.7866	366.211	79.2482
379.395	83.6482	379.395	83.5733	379.395	83.5772	379.395	83.3405	379.395	83.3628	379.395	82.9332	379.395	83.0015	379.395	82.3444	379.395	82.4907	379.395	81.6004	379.395	81.8382	379.395	80.7813	379.395	81.0745	379.395	80.0099	379.395	80.2686	379.395	79.3794	379.395	79.5253	379.395	78.8679	379.395	78.9318	379.395	78.3502	379.395	78.4655	379.395	77.7015	379.395	77.9771	379.395	76.8978	379.395	77.2964	379.395	76.0896	379.395	76.3818	379.395	75.5998	379.395	75.4692	379.395	75.6599	379.395	75.0665	379.395	76.0828	379.395	75.4013	379.395	76.4467	379.395	76.0361	379.395	76.4537
392.578	83.2452	392.578	83.0176	392.578	83.264	392.578	82.6154	392.578	83.0615	392.578	82.0879	392.578	82.6548	392.578	81.4961	392.578	82.098	392.578	80.9135	392.578	81.4837	392.578	80.4247	392.578	80.9214	392.578	80.0989	392.578	80.4868	392.578	79.9318	392.578	80.1767	392.578	79.8132	392.578	79.9177	392.578	79.5689	392.578	79.6133	392.578	79.0434	392.578	79.1749	392.578	78.1815	392.578	78.5415	392.578	77.1411	392.578	77.7451	392.578	76.4081	392.578	77.0418	392.578	76.4948	392.578	76.8788	392.578	77.2118	392.578	77.3456	392.578	77.9182	392.578	77.9473	392.578	78.1974
405.762	84.1716	405.762	83.9909	405.762	84.0672	405.762	83.507	405.762	83.7025	405.762	82.7207	405.762	83.1079	405.762	81.6777	405.762	82.3289	405.762	80.5205	405.762	81.4471	405.762	79.5323	405.762	80.5997	405.762	79.0293	405.762	79.9577	405.762	79.0455	405.762	79.6257	405.762	79.2752	405.762	79.5518	405.762	79.393	405.762	79.5767	405.762	79.2453	405.762	79.5459	405.762	78.8459	405.762	79.3549	405.762	78.3514	405.762	78.9518	405.762	78.0264	405.762	78.381	405.762	78.0715	405.762	77.8724	405.762	78.3774	405.762	77.7698	405.762	78.6042	405.762	78.1092	405.762	78.503
420.41	84.2834	420.41	84.1597	420.41	84.1997	420.41	83.8504	420.41	83.8981	420.41	83.3826	420.41	83.3804	420.41	82.7762	420.41	82.6651	420.41	82.0331	420.41	81.8095	420.41	81.1469	420.41	80.9441	420.41	80.1483	420.41	80.2627	420.41	79.1717	420.41	79.8811	420.41	78.4539	420.41	79.6862	420.41	78.142	420.41	79.4356	420.41	78.1093	420.41	78.9868	420.41	78.1259	420.41	78.4219	420.41	78.1235	420.41	78.0187	420.41	78.2213	420.41	78.0159	420.41	78.5303	420.41	78.3689	420.41	78.9666	420.41	78.8495	420.41	79.3188	420.41	79.2487	420.41	79.4264
435.059	85.7101	435.059	85.5069	435.059	85.6784	435.059	85.0561	435.059	85.4079	435.059	84.3349	435.059	84.8795	435.059	83.3284	435.059	84.0665	435.059	82.0731	435.059	82.9594	435.059	80.7327	435.059	81.6197	435.059	79.6295	435.059	80.2704	435.059	79.0157	435.059	79.3039	435.059	78.734	435.059	78.9365	435.059	78.376	435.059	78.8811	435.059	77.6753	435.059	78.715	435.059	76.7351	435.059	78.3297	435.059	76.2437	435.059	78.0519	435.059	76.9848	435.059	78.3799	435.059	78.5192	435.059	79.2948	435.059	79.9359	435.059	80.2858	435.059	80.84	435.059	80.9637	435.059	81.1705
451.172	86.1076	451.172	85.9116	451.172	86.0974	451.172	85.5079	451.172	85.8787	451.172	84.898	451.172	85.4395	451.172	84.0918	451.172	84.7586	451.172	83.1125	451.172	83.8179	451.172	82.0131	451.172	82.6356	451.172	80.9161	451.172	81.3351	451.172	80.0317	451.172	80.2196	451.172	79.5132	451.172	79.6385	451.172	79.2144	451.172	79.5367	451.172	78.7497	451.172	79.3921	451.172	77.8225	451.172	78.6576	451.172	76.6283	451.172	77.0656	451.172	76.3938	451.172	75.4102	451.172	77.9336	451.172	76.3355	451.172	79.8872	451.172	78.9208	451.172	81.1844	451.172	80.7929	451.172	81.5245
465.82	85.5327	465.82	85.4524	465.82	85.4817	465.82	85.2202	465.82	85.3009	465.82	84.7975	465.82	84.9775	465.82	84.1368	465.82	84.489	465.82	83.2059	465.82	83.8091	465.82	82.043	465.82	82.9189	465.82	80.8463	465.82	81.8328	465.82	79.9867	465.82	80.6476	465.82	79.6786	465.82	79.5896	465.82	79.6223	465.82	78.9256	465.82	79.2703	465.82	78.6535	465.82	78.1642	465.82	78.3858	465.82	76.0157	465.82	77.6619	465.82	73.5422	465.82	76.3655	465.82	74.3234	465.82	75.4909	465.82	77.1976	465.82	76.6145	465.82	79.0341	465.82	78.4647	465.82	79.4212
483.398	85.3712	483.398	85.18	483.398	85.356	483.398	84.8073	483.398	85.12	483.398	84.2732	483.398	84.6612	483.398	83.5691	483.398	83.9866	483.398	82.6539	483.398	83.1256	483.398	81.4951	483.398	82.1681	483.398	80.1757	483.398	81.2972	483.398	79.0354	483.398	80.7102	483.398	78.5249	483.398	80.4108	483.398	78.5606	483.398	80.1601	483.398	78.5264	483.398	79.6819	483.398	77.9728	483.398	78.8197	483.398	76.9704	483.398	77.5866	483.398	76.3512	483.398	76.3057	483.398	76.9774	483.398	75.826	483.398	78.1707	483.398	76.6866	483.398	78.9303	483.398	78.0222	483.398	78.8838
499.512	85.356	499.512	85.2003	499.512	85.356	499.512	84.8856	499.512	85.1944	499.512	84.4113	499.512	84.8437	499.512	83.7796	499.512	84.2515	499.512	82.9786	499.512	83.3532	499.512	81.9703	499.512	82.1122	499.512	80.7483	499.512	80.6331	499.512	79.519	499.512	79.3894	499.512	78.8257	499.512	79.1224	499.512	78.9291	499.512	79.7605	499.512	79.1585	499.512	80.3861	499.512	78.6298	499.512	80.3035	499.512	76.6765	499.512	79.1561	499.512	72.935	499.512	76.861	499.512	71.5643	499.512	74.7016	499.512	75.4516	499.512	75.7038	499.512	78.0038	499.512	77.7959	499.512	78.6961
517.09	85.6431	517.09	85.4611	517.09	85.6374	517.09	85.072	517.09	85.4523	517.09	84.4638	517.09	85.084	517.09	83.6625	517.09	84.5238	517.09	82.7491	517.09	83.7648	517.09	81.8172	517.09	82.7986	517.09	80.8711	517.09	81.6145	517.09	79.844	517.09	80.2449	517.09	78.9125	517.09	78.9384	517.09	78.6893	517.09	78.3202	517.09	79.2375	517.09	78.7191	517.09	79.5738	517.09	79.4141	517.09	78.8228	517.09	79.5451	517.09	76.5885	517.09	78.7269	517.09	73.9865	517.09	77.2608	517.09	75.1697	517.09	76.7391	517.09	77.5643	517.09	77.7675	517.09	78.4148
536.133	85.5246	536.133	85.5065	536.133	85.4717	536.133	85.3696	536.133	85.3481	536.133	85.0182	536.133	85.1195	536.133	84.339	536.133	84.7279	536.133	83.2661	536.133	84.1024	536.133	81.8846	536.133	83.1872	536.133	80.5133	536.133	81.9855	536.133	79.4991	536.133	80.5944	536.133	78.8213	536.133	79.2016	536.133	78.4472	536.133	78.1038	536.133	78.7781	536.133	77.7505	536.133	79.6689	536.133	78.2294	536.133	80.1278	536.133	78.7383	536.133	79.3685	536.133	78.355	536.133	77.1952	536.133	76.6922	536.133	75.2341	536.133	74.8974	536.133	75.9476	536.133	75.5418	536.133	76.5416
555.176	84.9721	555.176	85.0117	555.176	84.9033	555.176	85.0031	555.176	84.7976	555.176	84.8974	555.176	84.6073	555.176	84.6044	555.176	84.2508	555.176	83.9975	555.176	83.6602	555.176	82.9469	555.176	82.8461	555.176	81.38	555.176	81.9206	555.176	79.4135	555.176	81.0129	555.176	77.64	555.176	80.1177	555.176	77.077	555.176	79.1256	555.176	77.7859	555.176	78.1581	555.176	78.7341	555.176	77.7692	555.176	79.1252	555.176	78.0979	555.176	78.608	555.176	78.3278	555.176	77.3337	555.176	77.7944	555.176	76.3351	555.176	76.6805	555.176	76.3341	555.176	76.0981	555.176	76.3275
574.219	84.9906	574.219	84.8975	574.219	85.016	574.219	84.7412	574.219	84.9257	574.219	84.4852	574.219	84.6634	574.219	84.0931	574.219	84.1931	574.219	83.5708	574.219	83.4937	574.219	82.9635	574.219	82.5554	574.219	82.2784	574.219	81.4431	574.219	81.3783	574.219	80.4097	574.219	79.9927	574.219	79.7902	574.219	77.9915	574.219	79.5712	574.219	76.3159	574.219	79.4406	574.219	76.8301	574.219	79.2344	574.219	78.0977	574.219	78.8762	574.219	78.3159	574.219	78.2113	574.219	77.6457	574.219	77.4726	574.219	77.5004	574.219	77.5526	574.219	78.2862	574.219	78.3605	574.219	78.7606
594.727	84.9713	594.727	84.9232	594.727	85.0081	594.727	84.7984	594.727	85.0405	594.727	84.5139	594.727	84.9941	594.727	84.0103	594.727	84.7367	594.727	83.2768	594.727	84.1425	594.727	82.3759	594.727	83.1598	594.727	81.4801	594.727	81.8572	594.727	80.7974	594.727	80.4553	594.727	80.2837	594.727	79.2773	594.727	79.6289	594.727	78.5122	594.727	78.7382	594.727	78.139	594.727	77.9543	594.727	78.2759	594.727	77.3925	594.727	78.846	594.727	76.5648	594.727	79.0496	594.727	75.483	594.727	78.1719	594.727	75.4486	594.727	76.6498	594.727	76.5441	594.727	76.4217	594.727	76.9887
615.234	84.5299	615.234	84.5691	615.234	84.4694	615.234	84.6269	615.234	84.3801	615.234	84.6255	615.234	84.3062	615.234	84.3582	615.234	84.2052	615.234	83.6512	615.234	83.9023	615.234	82.5056	615.234	83.2271	615.234	81.1635	615.234	82.1596	615.234	80.0328	615.234	80.8641	615.234	79.2775	615.234	79.5482	615.234	78.6092	615.234	78.3279	615.234	78.0078	615.234	77.4965	615.234	78.1728	615.234	77.5069	615.234	78.9038	615.234	78.076	615.234	78.8899	615.234	78.4171	615.234	77.7344	615.234	78.0943	615.234	76.9804	615.234	77.3851	615.234	77.6552	615.234	77.3564	615.234	77.8871
637.207	85.1783	637.207	85.2231	637.207	84.8517	637.207	84.9717	637.207	84.3617	637.207	84.5651	637.207	83.8643	637.207	84.1681	637.207	83.4859	637.207	83.6977	637.207	83.1622	637.207	82.8678	637.207	82.5929	637.207	81.6007	637.207	81.5399	637.207	80.3564	637.207	80.2625	637.207	79.6005	637.207	79.5274	637.207	78.8896	637.207	79.2701	637.207	77.9598	637.207	78.5722	637.207	77.8103	637.207	77.5749	637.207	78.6522	637.207	77.1859	637.207	79.1547	637.207	76.8248	637.207	78.9057	637.207	76.3726	637.207	78.7137	637.207	77.4462	637.207	79.2562	637.207	79.0746	637.207	79.6832
659.18	85.2436	659.18	85.0142	659.18	85.2876	659.18	84.6421	659.18	85.1013	659.18	84.1342	659.18	84.663	659.18	83.4924	659.18	83.9764	659.18	82.7595	659.18	83.0791	659.18	81.9497	659.18	82.0308	659.18	80.9358	659.18	80.8909	659.18	79.6022	659.18	79.7514	659.18	78.2436	659.18	78.7555	659.18	77.3877	659.18	77.9762	659.18	76.9267	659.18	77.3561	659.18	76.9671	659.18	76.9515	659.18	77.5356	659.18	77.0359	659.18	76.9743	659.18	77.1325	659.18	73.7188	659.18	75.8498	659.18	70.9184	659.18	72.7689	659.18	74.4091	659.18	73.214	659.18	75.4074
682.617	84.7405	682.617	84.6432	682.617	84.6628	682.617	84.4442	682.617	84.4423	682.617	84.2376	682.617	84.1367	682.617	83.9344	682.617	83.7266	682.617	83.2662	682.617	83.1054	682.617	82.0805	682.617	82.1546	682.617	80.6976	682.617	80.8548	682.617	79.8605	682.617	79.4506	682.617	79.4938	682.617	78.4073	682.617	78.6238	682.617	77.7442	682.617	77.0796	682.617	77.0944	682.617	76.5218	682.617	76.6993	682.617	77.6856	682.617	76.9468	682.617	78.6527	682.617	77.3376	682.617	78.5607	682.617	77.0672	682.617	77.7121	682.617	75.9416	682.617	76.9818	682.617	75.4538	682.617	76.2978
707.52	85.099	707.52	84.8742	707.52	85.1121	707.52	84.5324	707.52	84.8586	707.52	84.1884	707.52	84.3472	707.52	83.8552	707.52	83.7075	707.52	83.3085	707.52	83.1242	707.52	82.1573	707.52	82.5473	707.52	80.1346	707.52	81.5868	707.52	77.9684	707.52	79.9357	707.52	77.8793	707.52	78.1182	707.52	78.8767	707.52	77.3137	707.52	78.7588	707.52	77.0233	707.52	77.3603	707.52	76.7195	707.52	76.4996	707.52	77.2796	707.52	77.2898	707.52	78.1608	707.52	77.6346	707.52	78.124	707.52	77.0606	707.52	77.3063	707.52	76.7185	707.52	76.885	707.52	76.8759
732.422	84.7747	732.422	84.6724	732.422	84.4502	732.422	84.1749	732.422	83.7922	732.422	83.4079	732.422	83.032	732.422	82.6649	732.422	82.3971	732.422	82.2918	732.422	81.9082	732.422	82.0832	732.422	81.3523	732.422	81.3277	732.422	80.4475	732.422	79.6069	732.422	79.1075	732.422	77.3485	732.422	77.8378	732.422	75.931	732.422	77.4148	732.422	75.9232	732.422	77.2189	732.422	76.3755	732.422	76.2278	732.422	76.6495	732.422	75.4162	732.422	76.5555	732.422	76.1619	732.422	75.5184	732.422	76.2513	732.422	74.8008	732.422	74.9924	732.422	76.3541	732.422	75.3718	732.422	76.8238
757.324	84.076	757.324	83.8436	757.324	84.0787	757.324	83.4643	757.324	83.8375	757.324	83.0371	757.324	83.3833	757.324	82.5785	757.324	82.7771	757.324	82.0021	757.324	82.1289	757.324	81.1552	757.324	81.5252	757.324	79.8956	757.324	80.8341	757.324	78.5128	757.324	79.68	757.324	77.8156	757.324	77.98	757.324	77.4517	757.324	76.6441	757.324	76.4878	757.324	76.0097	757.324	75.931	757.324	75.2033	757.324	77.0815	757.324	75.2866	757.324	77.9089	757.324	76.3335	757.324	76.8909	757.324	76.304	757.324	74.6975	757.324	74.4695	757.324	74.3239	757.324	73.1495	757.324	74.2415
785.156	84.6451	785.156	84.3246	785.156	84.6804	785.156	83.7891	785.156	84.3809	785.156	83.127	785.156	83.7261	785.156	82.4266	785.156	82.793	785.156	81.7369	785.156	81.8618	785.156	81.0597	785.156	81.2	785.156	80.227	785.156	80.5381	785.156	78.7118	785.156	79.3588	785.156	76.4466	785.156	77.4951	785.156	75.239	785.156	75.6589	785.156	74.9719	785.156	75.3734	785.156	74.3359	785.156	75.4159	785.156	75.1158	785.156	74.8844	785.156	76.3814	785.156	75.8641	785.156	76.7027	785.156	76.7252	785.156	76.0917	785.156	75.8357	785.156	75.6593	785.156	74.9257	785.156	75.4455
811.523	83.6687	811.523	83.6717	811.523	83.5074	811.523	83.3518	811.523	83.3286	811.523	82.684	811.523	83.1015	811.523	81.8657	811.523	82.7059	811.523	81.2697	811.523	82.1359	811.523	80.8296	811.523	81.463	811.523	79.8832	811.523	80.5382	811.523	78.4093	811.523	79.1612	811.523	77.4998	811.523	77.892	811.523	77.0785	811.523	77.678	811.523	76.0939	811.523	77.6054	811.523	74.3271	811.523	76.2556	811.523	72.5998	811.523	74.2401	811.523	73.1913	811.523	74.9736	811.523	73.4786	811.523	75.5316	811.523	72.0576	811.523	73.6661	811.523	72.5356	811.523	72.8499	811.523	73.637
840.82	84.3822	840.82	84.0547	840.82	84.3442	840.82	83.4235	840.82	84.0149	840.82	82.6942	840.82	83.439	840.82	81.9495	840.82	82.6094	840.82	81.1256	840.82	81.6456	840.82	80.3375	840.82	80.9543	840.82	79.5398	840.82	80.6773	840.82	78.0605	840.82	79.9731	840.82	75.5569	840.82	78.2275	840.82	74.1896	840.82	76.6622	840.82	74.5612	840.82	76.4173	840.82	73.6993	840.82	76.1405	840.82	74.1331	840.82	75.2578	840.82	75.4934	840.82	74.657	840.82	74.4443	840.82	75.1423	840.82	72.3835	840.82	74.6126	840.82	72.956	840.82	73.3347	840.82	73.438
870.117	84.6958	870.117	84.3965	870.117	84.623	870.117	83.8731	870.117	84.2372	870.117	83.268	870.117	83.7428	870.117	82.5475	870.117	83.2128	870.117	81.6906	870.117	82.4893	870.117	80.7891	870.117	81.4521	870.117	79.784	870.117	80.2052	870.117	78.5335	870.117	78.8771	870.117	77.2447	870.117	77.6022	870.117	76.2424	870.117	76.7506	870.117	75.769	870.117	76.6803	870.117	75.1497	870.117	76.5613	870.117	72.9563	870.117	75.4276	870.117	74.3328	870.117	75.1768	870.117	76.095	870.117	75.9158	870.117	73.9051	870.117	74.5999	870.117	71.3006	870.117	70.9814	870.117	71.2897
900.879	84.9654	900.879	84.5729	900.879	85.0359	900.879	83.9813	900.879	84.7851	900.879	83.3106	900.879	84.2578	900.879	82.5361	900.879	83.4129	900.879	81.7579	900.879	82.3878	900.879	81.2687	900.879	81.7164	900.879	80.6862	900.879	81.3828	900.879	79.0811	900.879	80.6101	900.879	75.8007	900.879	78.6931	900.879	73.8502	900.879	76.3036	900.879	75.0861	900.879	76.7395	900.879	73.9113	900.879	77.2651	900.879	71.8205	900.879	76.4885	900.879	72.9187	900.879	75.8746	900.879	74.3996	900.879	75.8683	900.879	73.6183	900.879	75.5148	900.879	70.2851	900.879	72.5113	900.879	68.9787
933.105	85.136	933.105	84.9905	933.105	84.9381	933.105	84.4793	933.105	84.4771	933.105	83.6658	933.105	83.8568	933.105	82.681	933.105	83.2364	933.105	81.7485	933.105	82.6074	933.105	81.0921	933.105	81.7553	933.105	80.571	933.105	80.7001	933.105	79.9828	933.105	79.5939	933.105	79.3645	933.105	78.5481	933.105	77.3533	933.105	77.3854	933.105	75.5058	933.105	76.2742	933.105	76.6538	933.105	76.1172	933.105	75.2692	933.105	76.041	933.105	75.0806	933.105	76.1113	933.105	76.3972	933.105	75.7388	933.105	74.9453	933.105	74.3073	933.105	72.6628	933.105	72.4802	933.105	71.9526
965.332	84.9366	965.332	84.7834	965.332	84.8579	965.332	84.4089	965.332	84.5487	965.332	83.8254	965.332	84.017	965.332	83.1771	965.332	83.2068	965.332	82.5935	965.332	82.1516	965.332	81.8086	965.332	81.0903	965.332	80.7161	965.332	80.2899	965.332	79.4036	965.332	79.6793	965.332	77.1817	965.332	78.3029	965.332	75.5487	965.332	76.4724	965.332	75.7429	965.332	75.9709	965.332	75.436	965.332	76.4885	965.332	74.3177	965.332	76.1976	965.332	71.512	965.332	73.8313	965.332	74.4971	965.332	75.1219	965.332	74.7259	965.332	75.6677	965.332	70.133	965.332	71.8248	965.332	69.6902
1,000.49	85.2681	1,000.49	85.0536	1,000.49	85.2202	1,000.49	84.4671	1,000.49	84.969	1,000.49	83.7813	1,000.49	84.2721	1,000.49	83.0701	1,000.49	83.3209	1,000.49	82.0725	1,000.49	82.526	1,000.49	81.035	1,000.49	81.4536	1,000.49	80.2074	1,000.49	80.0816	1,000.49	79.2942	1,000.49	79.3175	1,000.49	78.845	1,000.49	78.8341	1,000.49	77.4505	1,000.49	77.6546	1,000.49	75.3268	1,000.49	75.4726	1,000.49	76.6805	1,000.49	75.75	1,000.49	77.1539	1,000.49	76.0003	1,000.49	75.9516	1,000.49	72.0196	1,000.49	75.4171	1,000.49	73.8438	1,000.49	74.7027	1,000.49	74.6742	1,000.49	70.6343	1,000.49	71.5371	1,000.49	68.2676
1,035.64	84.663	1,035.64	84.9171	1,035.64	84.2486	1,035.64	84.8412	1,035.64	83.858	1,035.64	84.3054	1,035.64	83.4679	1,035.64	83.6518	1,035.64	82.4763	1,035.64	83.0428	1,035.64	81.1117	1,035.64	82.0396	1,035.64	80.4845	1,035.64	80.9639	1,035.64	79.8332	1,035.64	79.8582	1,035.64	78.9282	1,035.64	77.9538	1,035.64	77.9352	1,035.64	76.619	1,035.64	76.7023	1,035.64	75.7734	1,035.64	76.5504	1,035.64	75.6165	1,035.64	76.7314	1,035.64	75.9522	1,035.64	77.2601	1,035.64	73.0408	1,035.64	75.2732	1,035.64	72.6337	1,035.64	70.5381	1,035.64	73.0317	1,035.64	71.1296	1,035.64	68.0705	1,035.64	65.4403	1,035.64	62.8254
1,072.27	84.4799	1,072.27	84.5649	1,072.27	84.5368	1,072.27	84.5529	1,072.27	84.4276	1,072.27	84.2005	1,072.27	83.7467	1,072.27	83.5288	1,072.27	82.8241	1,072.27	82.7272	1,072.27	81.8726	1,072.27	81.9238	1,072.27	80.473	1,072.27	80.8934	1,072.27	79.0775	1,072.27	79.652	1,072.27	77.2638	1,072.27	78.0463	1,072.27	75.5571	1,072.27	76.6334	1,072.27	75.5274	1,072.27	76.0965	1,072.27	74.5972	1,072.27	76.4079	1,072.27	75.4189	1,072.27	77.0052	1,072.27	76.9609	1,072.27	75.9863	1,072.27	76.1645	1,072.27	74.4585	1,072.27	72.8391	1,072.27	72.3183	1,072.27	72.3689	1,072.27	67.15	1,072.27	67.925	1,072.27	59.3798
1,108.89	85.1975	1,108.89	85.2185	1,108.89	85.1844	1,108.89	85.1235	1,108.89	85.0514	1,108.89	84.5318	1,108.89	84.7212	1,108.89	83.6314	1,108.89	84.1229	1,108.89	82.8257	1,108.89	82.9559	1,108.89	81.9874	1,108.89	81.2319	1,108.89	81.2319	1,108.89	79.1572	1,108.89	80.073	1,108.89	78.2048	1,108.89	78.3258	1,108.89	77.4952	1,108.89	76.9381	1,108.89	75.3176	1,108.89	74.6869	1,108.89	76.7056	1,108.89	72.5986	1,108.89	75.917	1,108.89	75.0584	1,108.89	77.2079	1,108.89	74.7344	1,108.89	77.2178	1,108.89	75.2438	1,108.89	72.8291	1,108.89	75.2776	1,108.89	72.8671	1,108.89	69.1689	1,108.89	70.9288	1,108.89	63.5637
1,148.44	82.7353	1,148.44	82.5802	1,148.44	83.1485	1,148.44	82.532	1,148.44	83.645	1,148.44	82.0845	1,148.44	83.9453	1,148.44	81.0367	1,148.44	83.5434	1,148.44	80.0867	1,148.44	82.5169	1,148.44	79.4997	1,148.44	81.8962	1,148.44	79.5199	1,148.44	80.8089	1,148.44	80.0588	1,148.44	78.7454	1,148.44	79.1648	1,148.44	76.917	1,148.44	78.0662	1,148.44	74.8657	1,148.44	77.0754	1,148.44	74.0444	1,148.44	72.6356	1,148.44	73.2532	1,148.44	71.7149	1,148.44	75.5768	1,148.44	73.9838	1,148.44	76.3098	1,148.44	74.5417	1,148.44	75.9168	1,148.44	74.6256	1,148.44	76.243	1,148.44	71.6024	1,148.44	74.9013	1,148.44	72.096
1,189.45	82.4624	1,189.45	82.6002	1,189.45	82.7136	1,189.45	82.4579	1,189.45	83.7371	1,189.45	82.0091	1,189.45	84.3532	1,189.45	80.661	1,189.45	83.7156	1,189.45	79.1521	1,189.45	82.37	1,189.45	78.5028	1,189.45	81.0196	1,189.45	77.7619	1,189.45	78.9772	1,189.45	77.7722	1,189.45	76.5091	1,189.45	76.6587	1,189.45	74.5272	1,189.45	75.1355	1,189.45	72.2893	1,189.45	75.4613	1,189.45	71.9655	1,189.45	73.7689	1,189.45	73.0012	1,189.45	74.2563	1,189.45	73.3792	1,189.45	71.0943	1,189.45	75.1154	1,189.45	71.5346	1,189.45	71.4486	1,189.45	72.2962	1,189.45	72.8924	1,189.45	67.445	1,189.45	72.6759	1,189.45	66.1814
1,230.47	83.1151	1,230.47	83.2895	1,230.47	83.6596	1,230.47	83.7196	1,230.47	84.3339	1,230.47	83.4503	1,230.47	84.5096	1,230.47	81.7952	1,230.47	83.819	1,230.47	78.7904	1,230.47	82.599	1,230.47	76.5913	1,230.47	81.1221	1,230.47	75.4834	1,230.47	79.7195	1,230.47	75.4194	1,230.47	77.6166	1,230.47	76.0772	1,230.47	76.0446	1,230.47	75.4118	1,230.47	73.5174	1,230.47	76.852	1,230.47	71.129	1,230.47	77.7341	1,230.47	73.9165	1,230.47	77.7393	1,230.47	74.4259	1,230.47	77.7145	1,230.47	75.4368	1,230.47	74.2417	1,230.47	72.7111	1,230.47	70.8544	1,230.47	71.2164	1,230.47	68.8646	1,230.47	70.198	1,230.47	68.6495
1,274.41	81.8885	1,274.41	81.4781	1,274.41	83.0715	1,274.41	81.7548	1,274.41	83.8377	1,274.41	81.2198	1,274.41	84.2724	1,274.41	80.2761	1,274.41	84.2802	1,274.41	78.6502	1,274.41	83.1093	1,274.41	77.3786	1,274.41	81.6939	1,274.41	76.7617	1,274.41	80.6422	1,274.41	75.0897	1,274.41	79.4454	1,274.41	75.772	1,274.41	78.9073	1,274.41	73.2007	1,274.41	77.2691	1,274.41	71.493	1,274.41	75.1238	1,274.41	68.9385	1,274.41	71.795	1,274.41	69.1879	1,274.41	70.914	1,274.41	70.3021	1,274.41	74.2964	1,274.41	72.9484	1,274.41	71.5249	1,274.41	75.8056	1,274.41	71.3438	1,274.41	71.7506	1,274.41	71.0545	1,274.41	70.1076
1,319.82	84.2746	1,319.82	84.1338	1,319.82	84.3167	1,319.82	83.8059	1,319.82	84.4306	1,319.82	83.5446	1,319.82	84.3505	1,319.82	82.7083	1,319.82	83.5127	1,319.82	80.808	1,319.82	81.6242	1,319.82	78.3936	1,319.82	79.4132	1,319.82	76.155	1,319.82	78.789	1,319.82	74.5305	1,319.82	77.4912	1,319.82	72.5793	1,319.82	76.5869	1,319.82	68.2146	1,319.82	76.2598	1,319.82	65.5585	1,319.82	73.5973	1,319.82	69.4466	1,319.82	74.1403	1,319.82	72.6608	1,319.82	73.4569	1,319.82	73.9888	1,319.82	74.4158	1,319.82	73.6773	1,319.82	73.3197	1,319.82	71.6922	1,319.82	70.3095	1,319.82	70.2001	1,319.82	67.5984	1,319.82	67.426
1,366.7	83.4057	1,366.7	83.5399	1,366.7	83.2743	1,366.7	83.6828	1,366.7	83.3552	1,366.7	83.594	1,366.7	83.4058	1,366.7	83.1841	1,366.7	82.7188	1,366.7	81.3369	1,366.7	80.7153	1,366.7	78.1464	1,366.7	78.2655	1,366.7	76.4529	1,366.7	76.3075	1,366.7	75.6046	1,366.7	75.0247	1,366.7	74.7876	1,366.7	73.6187	1,366.7	74.2371	1,366.7	74.6831	1,366.7	71.5708	1,366.7	70.5418	1,366.7	72.7384	1,366.7	62.3148	1,366.7	72.701	1,366.7	67.4858	1,366.7	74.0534	1,366.7	74.6662	1,366.7	69.6403	1,366.7	74.4726	1,366.7	67.2902	1,366.7	74.2147	1,366.7	70.8712	1,366.7	72.4176	1,366.7	68.7618
1,413.57	84.3733	1,413.57	84.38	1,413.57	84.1509	1,413.57	84.336	1,413.57	83.7417	1,413.57	84.0348	1,413.57	83.2106	1,413.57	83.0138	1,413.57	82.4095	1,413.57	81.6974	1,413.57	80.9777	1,413.57	79.1087	1,413.57	78.1372	1,413.57	76.8578	1,413.57	76.3561	1,413.57	75.0188	1,413.57	75.1741	1,413.57	74.215	1,413.57	73.6249	1,413.57	75.3603	1,413.57	73.7739	1,413.57	72.3805	1,413.57	73.466	1,413.57	71.3415	1,413.57	71.5434	1,413.57	68.7564	1,413.57	72.2363	1,413.57	70.1044	1,413.57	70.8962	1,413.57	68.2506	1,413.57	70.8551	1,413.57	69.8236	1,413.57	68.0708	1,413.57	63.6833	1,413.57	68.1353	1,413.57	65.9899
1,463.38	83.8603	1,463.38	83.6883	1,463.38	83.5583	1,463.38	83.5016	1,463.38	82.8898	1,463.38	83.0377	1,463.38	81.9807	1,463.38	82.5167	1,463.38	80.5771	1,463.38	81.524	1,463.38	79.2067	1,463.38	78.9028	1,463.38	77.8694	1,463.38	76.6763	1,463.38	75.6538	1,463.38	75.0422	1,463.38	75.8905	1,463.38	74.8417	1,463.38	74.6794	1,463.38	74.1136	1,463.38	74.5852	1,463.38	71.6206	1,463.38	75.1169	1,463.38	70.9624	1,463.38	71.7596	1,463.38	72.8222	1,463.38	69.6852	1,463.38	72.2817	1,463.38	67.7911	1,463.38	71.885	1,463.38	70.7191	1,463.38	64.3581	1,463.38	66.3579	1,463.38	68.4817	1,463.38	65.2756	1,463.38	65.5945
1,516.11	81.2508	1,516.11	80.8378	1,516.11	80.9874	1,516.11	80.7354	1,516.11	80.4408	1,516.11	81.013	1,516.11	80.0501	1,516.11	80.8249	1,516.11	79.0055	1,516.11	79.8851	1,516.11	78.3448	1,516.11	78.2424	1,516.11	76.2319	1,516.11	76.6229	1,516.11	72.4203	1,516.11	74.1273	1,516.11	69.952	1,516.11	72.8058	1,516.11	67.0512	1,516.11	71.882	1,516.11	67.9005	1,516.11	71.6783	1,516.11	67.5086	1,516.11	71.1436	1,516.11	65.2973	1,516.11	71.8582	1,516.11	63.679	1,516.11	71.3848	1,516.11	64.5567	1,516.11	68.1221	1,516.11	68.7681	1,516.11	65.2894	1,516.11	69.1225	1,516.11	64.8598	1,516.11	69.7628	1,516.11	65.9389
1,568.85	81.9901	1,568.85	80.9073	1,568.85	81.8849	1,568.85	80.3959	1,568.85	81.1564	1,568.85	80.523	1,568.85	80.9766	1,568.85	79.3739	1,568.85	80.6711	1,568.85	77.6571	1,568.85	79.2349	1,568.85	75.5157	1,568.85	76.9203	1,568.85	74.8625	1,568.85	74.5758	1,568.85	72.8446	1,568.85	71.8102	1,568.85	71.7489	1,568.85	69.179	1,568.85	69.4427	1,568.85	64.1104	1,568.85	68.9369	1,568.85	62.8118	1,568.85	69.8777	1,568.85	66.3151	1,568.85	70.6004	1,568.85	70.2207	1,568.85	70.1998	1,568.85	68.5316	1,568.85	68.3823	1,568.85	62.6212	1,568.85	64.8975	1,568.85	58.1754	1,568.85	57.39	1,568.85	63.0599	1,568.85	62.9229
1,624.51	82.8014	1,624.51	81.5999	1,624.51	82.901	1,624.51	80.3647	1,624.51	82.1343	1,624.51	80.2289	1,624.51	81.4723	1,624.51	79.3113	1,624.51	81.8552	1,624.51	77.0729	1,624.51	80.8651	1,624.51	74.5968	1,624.51	78.4902	1,624.51	73.3651	1,624.51	75.8721	1,624.51	73.1261	1,624.51	73.5929	1,624.51	71.5002	1,624.51	72.1822	1,624.51	69.233	1,624.51	70.9266	1,624.51	68.004	1,624.51	69.7181	1,624.51	68.9801	1,624.51	68.8028	1,624.51	70.702	1,624.51	70.9813	1,624.51	69.3865	1,624.51	69.0863	1,624.51	70.6286	1,624.51	65.578	1,624.51	64.9512	1,624.51	55.0851	1,624.51	66.4536	1,624.51	59.7236	1,624.51	64.3037
1,681.64	83.5341	1,681.64	82.2477	1,681.64	83.2824	1,681.64	80.9389	1,681.64	82.3607	1,681.64	80.653	1,681.64	81.9701	1,681.64	79.7762	1,681.64	80.7947	1,681.64	77.7675	1,681.64	80.1011	1,681.64	74.3944	1,681.64	77.5722	1,681.64	71.5498	1,681.64	74.2512	1,681.64	70.2384	1,681.64	72.5716	1,681.64	68.4895	1,681.64	71.3939	1,681.64	67.1852	1,681.64	68.8872	1,681.64	66.068	1,681.64	67.9234	1,681.64	65.9807	1,681.64	67.5955	1,681.64	71.2159	1,681.64	70.0394	1,681.64	68.4659	1,681.64	71.0946	1,681.64	66.7454	1,681.64	67.6533	1,681.64	52.8454	1,681.64	60.6542	1,681.64	62.9125	1,681.64	52.828	1,681.64	64.6919
1,741.7	83.0571	1,741.7	82.4272	1,741.7	82.6675	1,741.7	81.3781	1,741.7	81.4746	1,741.7	80.8707	1,741.7	80.9177	1,741.7	80.5735	1,741.7	80.1445	1,741.7	78.8512	1,741.7	79.0767	1,741.7	76.3833	1,741.7	76.3942	1,741.7	73.7368	1,741.7	73.8001	1,741.7	71.7513	1,741.7	70.5599	1,741.7	67.9451	1,741.7	69.3712	1,741.7	65.5127	1,741.7	68.1044	1,741.7	66.1198	1,741.7	68.0837	1,741.7	64.3101	1,741.7	69.0902	1,741.7	70.044	1,741.7	68.937	1,741.7	68.7194	1,741.7	69.5264	1,741.7	66.8395	1,741.7	64.8603	1,741.7	65.8301	1,741.7	65.2169	1,741.7	66.8057	1,741.7	65.185	1,741.7	67.898
1,803.22	83.2698	1,803.22	82.8642	1,803.22	82.319	1,803.22	81.5832	1,803.22	80.7693	1,803.22	80.9703	1,803.22	79.8652	1,803.22	80.6654	1,803.22	79.7877	1,803.22	78.9357	1,803.22	78.3905	1,803.22	76.674	1,803.22	76.5795	1,803.22	74.3635	1,803.22	74.6451	1,803.22	72.9465	1,803.22	71.1587	1,803.22	70.5439	1,803.22	68.0397	1,803.22	65.0439	1,803.22	67.3488	1,803.22	63.14	1,803.22	64.3555	1,803.22	61.0269	1,803.22	64.5047	1,803.22	58.2904	1,803.22	66.5212	1,803.22	61.1144	1,803.22	66.0704	1,803.22	65.4739	1,803.22	62.488	1,803.22	64.223	1,803.22	60.9751	1,803.22	63.9799	1,803.22	60.3426	1,803.22	65.2609
1,866.21	81.5128	1,866.21	81.1812	1,866.21	80.7248	1,866.21	80.0433	1,866.21	79.4523	1,866.21	79.3502	1,866.21	78.1774	1,866.21	78.7997	1,866.21	77.5447	1,866.21	77.6626	1,866.21	76.5159	1,866.21	75.6201	1,866.21	74.6747	1,866.21	73.6244	1,866.21	72.0679	1,866.21	72.2619	1,866.21	69.6858	1,866.21	71.9677	1,866.21	67.4102	1,866.21	67.7797	1,866.21	67.3502	1,866.21	64.7845	1,866.21	63.564	1,866.21	62.7432	1,866.21	61.502	1,866.21	66.4716	1,866.21	67.8161	1,866.21	64.7508	1,866.21	69.0168	1,866.21	65.1355	1,866.21	67.0796	1,866.21	58.8011	1,866.21	58.479	1,866.21	56.7253	1,866.21	53.5816	1,866.21	59.3166
1,932.13	79.2734	1,932.13	79.3746	1,932.13	79.3369	1,932.13	78.5926	1,932.13	79.6149	1,932.13	77.6224	1,932.13	79.0432	1,932.13	77.6923	1,932.13	77.5727	1,932.13	77.1929	1,932.13	76.7598	1,932.13	75.329	1,932.13	75.4843	1,932.13	72.4763	1,932.13	72.635	1,932.13	69.3896	1,932.13	69.64	1,932.13	70.0135	1,932.13	68.8845	1,932.13	69.0075	1,932.13	65.0145	1,932.13	68.4851	1,932.13	58.9289	1,932.13	66.3725	1,932.13	60.2313	1,932.13	64.3409	1,932.13	61.7224	1,932.13	65.5535	1,932.13	66.9715	1,932.13	64.7706	1,932.13	59.7001	1,932.13	55.5739	1,932.13	65.1221	1,932.13	56.9089	1,932.13	61.6893	1,932.13	64.139
1,999.51	80.1879	1,999.51	80.6095	1,999.51	80.5579	1,999.51	79.6001	1,999.51	80.8375	1,999.51	77.8854	1,999.51	79.4794	1,999.51	76.8779	1,999.51	78.3368	1,999.51	76.0003	1,999.51	77.6572	1,999.51	73.7413	1,999.51	76.5352	1,999.51	71.3981	1,999.51	74.6663	1,999.51	69.4336	1,999.51	72.7245	1,999.51	67.3002	1,999.51	69.4155	1,999.51	64.9572	1,999.51	66.6757	1,999.51	65.4935	1,999.51	65.47	1,999.51	64.7739	1,999.51	65.4649	1,999.51	64.5906	1,999.51	63.7305	1,999.51	64.2384	1,999.51	66.8518	1,999.51	63.0775	1,999.51	63.2221	1,999.51	59.332	1,999.51	58.034	1,999.51	59.5162	1,999.51	53.4676	1,999.51	63.197
2,069.82	80.4842	2,069.82	81.0696	2,069.82	80.9723	2,069.82	80.4721	2,069.82	81.3414	2,069.82	77.9265	2,069.82	80.1182	2,069.82	76.846	2,069.82	78.6701	2,069.82	75.8731	2,069.82	78.082	2,069.82	73.4551	2,069.82	76.4211	2,069.82	70.9446	2,069.82	74.2589	2,069.82	68.5959	2,069.82	72.1294	2,069.82	66.8161	2,069.82	69.2477	2,069.82	63.3125	2,069.82	66.3976	2,069.82	63.195	2,069.82	65.8033	2,069.82	62.4509	2,069.82	64.6808	2,069.82	63.7657	2,069.82	64.5361	2,069.82	63.2334	2,069.82	65.4383	2,069.82	60.4328	2,069.82	62.6349	2,069.82	56.1898	2,069.82	61.0562	2,069.82	57.5942	2,069.82	55.663	2,069.82	62.1828
2,143.07	80.8742	2,143.07	81.6664	2,143.07	81.1577	2,143.07	81.0754	2,143.07	81.3371	2,143.07	78.936	2,143.07	79.818	2,143.07	77.6537	2,143.07	78.5415	2,143.07	76.9089	2,143.07	77.7678	2,143.07	74.7126	2,143.07	75.843	2,143.07	71.1866	2,143.07	72.9796	2,143.07	67.9959	2,143.07	70.2573	2,143.07	66.288	2,143.07	68.0685	2,143.07	63.7125	2,143.07	64.5027	2,143.07	62.0016	2,143.07	63.0336	2,143.07	63.0775	2,143.07	62.1323	2,143.07	62.2729	2,143.07	62.9118	2,143.07	63.755	2,143.07	64.8264	2,143.07	59.6113	2,143.07	61.8316	2,143.07	57.3134	2,143.07	60.2702	2,143.07	58.6019	2,143.07	58.6226	2,143.07	60.1659
2,219.24	80.3078	2,219.24	81.1118	2,219.24	80.6027	2,219.24	80.7649	2,219.24	80.5902	2,219.24	79.2707	2,219.24	78.9294	2,219.24	78.2873	2,219.24	77.5126	2,219.24	77.6424	2,219.24	76.8602	2,219.24	75.8734	2,219.24	74.8992	2,219.24	72.269	2,219.24	71.5233	2,219.24	69.4245	2,219.24	68.2524	2,219.24	66.0624	2,219.24	66.3399	2,219.24	64.3451	2,219.24	62.993	2,219.24	61.9342	2,219.24	60.4512	2,219.24	62.7345	2,219.24	58.506	2,219.24	62.7127	2,219.24	60.2202	2,219.24	61.8213	2,219.24	61.556	2,219.24	57.5566	2,219.24	58.8426	2,219.24	56.032	2,219.24	53.8624	2,219.24	58.7962	2,219.24	56.7205	2,219.24	61.9812
2,296.88	80.4709	2,296.88	80.9093	2,296.88	80.4628	2,296.88	80.5742	2,296.88	80.1075	2,296.88	78.8131	2,296.88	78.7368	2,296.88	78.094	2,296.88	77.3602	2,296.88	77.5523	2,296.88	76.3488	2,296.88	75.417	2,296.88	75.1351	2,296.88	72.3164	2,296.88	71.2167	2,296.88	69.626	2,296.88	67.7025	2,296.88	67.8685	2,296.88	65.9899	2,296.88	65.3678	2,296.88	63.4694	2,296.88	61.3258	2,296.88	60.1993	2,296.88	63.1655	2,296.88	58.8002	2,296.88	61.2362	2,296.88	60.7863	2,296.88	62.2072	2,296.88	61.3713	2,296.88	59.5358	2,296.88	58.4251	2,296.88	55.3008	2,296.88	58.4356	2,296.88	58.3004	2,296.88	54.0002	2,296.88	59.2653
2,378.91	81.3787	2,378.91	80.87	2,378.91	81.5298	2,378.91	80.4043	2,378.91	80.8474	2,378.91	78.753	2,378.91	80.1652	2,378.91	76.898	2,378.91	78.6603	2,378.91	76.1272	2,378.91	77.2758	2,378.91	73.9304	2,378.91	75.9844	2,378.91	70.6146	2,378.91	72.9126	2,378.91	67.7387	2,378.91	69.2652	2,378.91	65.673	2,378.91	67.2538	2,378.91	62.5017	2,378.91	64.0681	2,378.91	61.9604	2,378.91	62.216	2,378.91	58.6397	2,378.91	61.3328	2,378.91	61.4849	2,378.91	61.7417	2,378.91	61.7721	2,378.91	60.4568	2,378.91	58.3186	2,378.91	59.6915	2,378.91	53.629	2,378.91	55.4216	2,378.91	57.9734	2,378.91	55.2847	2,378.91	55.9233
2,462.4	83.1455	2,462.4	82.0891	2,462.4	82.951	2,462.4	81.5375	2,462.4	81.9831	2,462.4	80.3636	2,462.4	81.304	2,462.4	77.6127	2,462.4	79.7166	2,462.4	75.815	2,462.4	77.8215	2,462.4	73.7676	2,462.4	75.9444	2,462.4	70.328	2,462.4	72.9771	2,462.4	67.2468	2,462.4	69.4865	2,462.4	63.9542	2,462.4	66.7784	2,462.4	61.2212	2,462.4	64.2952	2,462.4	60.0756	2,462.4	60.6953	2,462.4	58.6764	2,462.4	60.2708	2,462.4	59.3591	2,462.4	59.2175	2,462.4	56.7282	2,462.4	61.7057	2,462.4	52.8997	2,462.4	59.2506	2,462.4	52.0431	2,462.4	53.8556	2,462.4	54.914	2,462.4	55.9994	2,462.4	56.4264
2,548.83	83.3933	2,548.83	82.4826	2,548.83	82.4721	2,548.83	81.8516	2,548.83	81.5769	2,548.83	80.9125	2,548.83	80.8467	2,548.83	78.2461	2,548.83	78.7163	2,548.83	76.1325	2,548.83	76.4305	2,548.83	73.8756	2,548.83	74.2657	2,548.83	70.8554	2,548.83	71.8737	2,548.83	66.9017	2,548.83	67.6217	2,548.83	63.7899	2,548.83	65.2994	2,548.83	60.9124	2,548.83	62.9353	2,548.83	56.9502	2,548.83	58.4842	2,548.83	58.3867	2,548.83	56.9495	2,548.83	54.59	2,548.83	56.5324	2,548.83	55.4736	2,548.83	58.1497	2,548.83	51.6603	2,548.83	57.0482	2,548.83	52.6595	2,548.83	52.399	2,548.83	49.3686	2,548.83	54.9023	2,548.83	56.4549
2,639.65	82.3526	2,639.65	81.5766	2,639.65	81.7034	2,639.65	81.14	2,639.65	80.5327	2,639.65	79.8645	2,639.65	79.8496	2,639.65	77.4543	2,639.65	77.6125	2,639.65	75.5982	2,639.65	75.1385	2,639.65	73.1238	2,639.65	73.2459	2,639.65	69.8633	2,639.65	70.4174	2,639.65	66.5174	2,639.65	65.6687	2,639.65	63.1619	2,639.65	62.1634	2,639.65	60.7286	2,639.65	59.8025	2,639.65	58.0535	2,639.65	56.749	2,639.65	52.6092	2,639.65	54.55	2,639.65	53.84	2,639.65	56.4513	2,639.65	55.4583	2,639.65	53.5581	2,639.65	56.4943	2,639.65	54.7806	2,639.65	49.6274	2,639.65	47.8804	2,639.65	50.8132	2,639.65	53.9513	2,639.65	53.7212
2,731.93	82.4085	2,731.93	81.1748	2,731.93	81.674	2,731.93	80.4925	2,731.93	80.8086	2,731.93	78.9768	2,731.93	79.8431	2,731.93	76.111	2,731.93	77.8759	2,731.93	74.5155	2,731.93	75.8057	2,731.93	72.2784	2,731.93	73.5442	2,731.93	69.1584	2,731.93	70.9498	2,731.93	65.1219	2,731.93	66.4476	2,731.93	61.7374	2,731.93	62.0701	2,731.93	60.176	2,731.93	59.5831	2,731.93	57.9269	2,731.93	59.6523	2,731.93	54.5452	2,731.93	55.9533	2,731.93	54.1773	2,731.93	59.6125	2,731.93	54.6373	2,731.93	51.9996	2,731.93	53.0205	2,731.93	55.4017	2,731.93	52.6912	2,731.93	50.7198	2,731.93	52.7125	2,731.93	53.9602	2,731.93	50.5032
2,828.61	84.0381	2,828.61	82.9741	2,828.61	83.6798	2,828.61	82.1192	2,828.61	82.9984	2,828.61	80.9283	2,828.61	81.9823	2,828.61	78.1008	2,828.61	80.181	2,828.61	75.7429	2,828.61	78.2111	2,828.61	73.675	2,828.61	75.4878	2,828.61	69.3551	2,828.61	71.8704	2,828.61	65.126	2,828.61	68.009	2,828.61	61.6506	2,828.61	64.0932	2,828.61	59.6313	2,828.61	59.1951	2,828.61	56.3573	2,828.61	59.2934	2,828.61	54.7574	2,828.61	58.0584	2,828.61	59.5632	2,828.61	58.4346	2,828.61	60.458	2,828.61	60.2223	2,828.61	57.8758	2,828.61	59.5429	2,828.61	53.9625	2,828.61	56.1923	2,828.61	52.73	2,828.61	52.3929	2,828.61	57.1467
2,928.22	84.9408	2,928.22	84.0063	2,928.22	84.6673	2,928.22	82.5636	2,928.22	83.8774	2,928.22	81.0946	2,928.22	82.5011	2,928.22	78.6976	2,928.22	80.35	2,928.22	75.072	2,928.22	77.9924	2,928.22	72.0557	2,928.22	74.6476	2,928.22	67.108	2,928.22	69.9765	2,928.22	62.6979	2,928.22	66.2768	2,928.22	60.6867	2,928.22	62.9721	2,928.22	59.4491	2,928.22	57.2211	2,928.22	53.5219	2,928.22	55.6757	2,928.22	55.2427	2,928.22	54.2744	2,928.22	54.6174	2,928.22	54.0646	2,928.22	54.3968	2,928.22	56.7132	2,928.22	56.3114	2,928.22	57.4579	2,928.22	54.1554	2,928.22	55.9622	2,928.22	53.2096	2,928.22	48.6978	2,928.22	51.1152
3,030.76	84.3491	3,030.76	83.7838	3,030.76	83.9955	3,030.76	82.3208	3,030.76	82.8906	3,030.76	80.5698	3,030.76	80.9614	3,030.76	77.6424	3,030.76	78.6308	3,030.76	73.5653	3,030.76	75.1774	3,030.76	69.9819	3,030.76	70.5962	3,030.76	65.9201	3,030.76	64.4348	3,030.76	61.3736	3,030.76	58.9834	3,030.76	58.6184	3,030.76	56.9394	3,030.76	55.1396	3,030.76	54.6135	3,030.76	54.7964	3,030.76	51.6517	3,030.76	53.2072	3,030.76	42.0936	3,030.76	50.9663	3,030.76	49.0537	3,030.76	51.6091	3,030.76	53.3845	3,030.76	55.8586	3,030.76	54.7912	3,030.76	54.1237	3,030.76	52.1512	3,030.76	51.9666	3,030.76	46.2342	3,030.76	52.8716
3,137.7	83.9787	3,137.7	83.3469	3,137.7	83.3394	3,137.7	81.8193	3,137.7	81.7815	3,137.7	80.1436	3,137.7	79.9325	3,137.7	77.1963	3,137.7	77.5118	3,137.7	72.6517	3,137.7	72.9081	3,137.7	68.7185	3,137.7	65.3018	3,137.7	65.9155	3,137.7	60.1018	3,137.7	62.872	3,137.7	58.8186	3,137.7	61.4211	3,137.7	56.7208	3,137.7	55.7934	3,137.7	57.1776	3,137.7	57.5229	3,137.7	54.3478	3,137.7	50.206	3,137.7	50.429	3,137.7	54.9687	3,137.7	49.3428	3,137.7	53.3175	3,137.7	53.8317	3,137.7	54.9155	3,137.7	54.7872	3,137.7	48.4504	3,137.7	49.9418	3,137.7	50.5972	3,137.7	44.7914	3,137.7	51.1389
3,249.02	83.6429	3,249.02	82.9265	3,249.02	83.1679	3,249.02	81.2336	3,249.02	81.5539	3,249.02	79.3875	3,249.02	79.6896	3,249.02	76.2272	3,249.02	76.578	3,249.02	71.2815	3,249.02	70.0505	3,249.02	67.7001	3,249.02	63.4781	3,249.02	67.0329	3,249.02	62.0682	3,249.02	65.3228	3,249.02	62.0554	3,249.02	62.0485	3,249.02	59.1471	3,249.02	58.9535	3,249.02	59.1665	3,249.02	58.7954	3,249.02	56.5084	3,249.02	52.3446	3,249.02	53.1738	3,249.02	54.2414	3,249.02	51.743	3,249.02	57.1148	3,249.02	55.6684	3,249.02	57.6603	3,249.02	56.2899	3,249.02	50.477	3,249.02	51.5786	3,249.02	48.2083	3,249.02	51.378	3,249.02	53.1797
3,363.28	83.6551	3,363.28	83.1625	3,363.28	83.5087	3,363.28	81.1888	3,363.28	81.2145	3,363.28	79.3881	3,363.28	79.4857	3,363.28	75.7179	3,363.28	74.8695	3,363.28	70.4127	3,363.28	67.437	3,363.28	67.3128	3,363.28	65.9669	3,363.28	65.6903	3,363.28	64.969	3,363.28	64.0933	3,363.28	63.288	3,363.28	60.9706	3,363.28	61.8731	3,363.28	58.2509	3,363.28	54.4902	3,363.28	56.8811	3,363.28	53.355	3,363.28	52.7069	3,363.28	54.4868	3,363.28	53.9255	3,363.28	52.63	3,363.28	56.2692	3,363.28	54.1182	3,363.28	55.9332	3,363.28	58.6131	3,363.28	47.7036	3,363.28	55.9148	3,363.28	50.9089	3,363.28	54.1744	3,363.28	48.6057
3,481.93	83.4832	3,481.93	83.434	3,481.93	83.4834	3,481.93	81.5149	3,481.93	80.9278	3,481.93	79.6789	3,481.93	78.9224	3,481.93	75.4864	3,481.93	74.1945	3,481.93	71.4602	3,481.93	70.207	3,481.93	67.6006	3,481.93	66.8654	3,481.93	64.7945	3,481.93	65.7802	3,481.93	62.3165	3,481.93	65.5247	3,481.93	59.2824	3,481.93	62.0069	3,481.93	56.139	3,481.93	60.4911	3,481.93	53.1095	3,481.93	55.3384	3,481.93	50.5228	3,481.93	55.8795	3,481.93	53.9671	3,481.93	51.8961	3,481.93	56.4372	3,481.93	57.0303	3,481.93	58.5806	3,481.93	58.0155	3,481.93	53.6112	3,481.93	55.1964	3,481.93	50.3955	3,481.93	50.5899	3,481.93	55.5812
3,604.98	83.5227	3,604.98	83.4284	3,604.98	83.8248	3,604.98	80.9664	3,604.98	81.9916	3,604.98	78.8716	3,604.98	79.3763	3,604.98	74.7119	3,604.98	74.6607	3,604.98	70.8704	3,604.98	71.7683	3,604.98	66.8041	3,604.98	68.7026	3,604.98	65.057	3,604.98	68.9786	3,604.98	65.4339	3,604.98	69.2514	3,604.98	63.4955	3,604.98	67.8314	3,604.98	59.5133	3,604.98	64.7071	3,604.98	51.5645	3,604.98	59.5819	3,604.98	55.5893	3,604.98	56.1265	3,604.98	54.3154	3,604.98	58.4166	3,604.98	56.2575	3,604.98	59.9728	3,604.98	60.093	3,604.98	60.4252	3,604.98	52.1383	3,604.98	59.8008	3,604.98	55.8652	3,604.98	49.079	3,604.98	54.7185
3,732.42	84.3141	3,732.42	83.803	3,732.42	84.2228	3,732.42	81.5054	3,732.42	82.7802	3,732.42	78.0359	3,732.42	79.0698	3,732.42	74.2666	3,732.42	74.8097	3,732.42	70.7083	3,732.42	70.9937	3,732.42	68.1272	3,732.42	70.3228	3,732.42	69.1499	3,732.42	70.3656	3,732.42	68.9815	3,732.42	70.7474	3,732.42	65.7434	3,732.42	68.531	3,732.42	63.3604	3,732.42	66.7	3,732.42	55.2792	3,732.42	61.7233	3,732.42	56.5379	3,732.42	55.6312	3,732.42	56.9153	3,732.42	60.635	3,732.42	55.9097	3,732.42	61.3405	3,732.42	62.6368	3,732.42	60.0566	3,732.42	54.1486	3,732.42	61.9154	3,732.42	55.2685	3,732.42	54.1509	3,732.42	54.9616
3,864.26	84.3027	3,864.26	83.2974	3,864.26	83.4201	3,864.26	81.488	3,864.26	82.2601	3,864.26	77.6536	3,864.26	77.6719	3,864.26	74.1511	3,864.26	73.6915	3,864.26	70.4566	3,864.26	69.0117	3,864.26	71.5392	3,864.26	71.106	3,864.26	71.9419	3,864.26	71.0516	3,864.26	69.4587	3,864.26	68.843	3,864.26	67.7077	3,864.26	68.1772	3,864.26	63.6376	3,864.26	61.3618	3,864.26	60.5748	3,864.26	58.7395	3,864.26	50.4104	3,864.26	56.0071	3,864.26	59.8597	3,864.26	60.9382	3,864.26	57.977	3,864.26	57.8824	3,864.26	63.7126	3,864.26	60.5129	3,864.26	55.5364	3,864.26	61.4706	3,864.26	59.0632	3,864.26	54.092	3,864.26	52.5286
4,000.49	83.8495	4,000.49	82.9292	4,000.49	83.2095	4,000.49	81.0391	4,000.49	82.5375	4,000.49	77.2439	4,000.49	76.7062	4,000.49	73.911	4,000.49	74.0056	4,000.49	72.7564	4,000.49	71.69	4,000.49	73.2859	4,000.49	73.5613	4,000.49	72.2344	4,000.49	73.3982	4,000.49	69.7224	4,000.49	70.3498	4,000.49	67.4738	4,000.49	68.6657	4,000.49	61.6575	4,000.49	65.0355	4,000.49	60.2818	4,000.49	57.4175	4,000.49	53.5438	4,000.49	53.0242	4,000.49	60.0735	4,000.49	59.2389	4,000.49	58.988	4,000.49	56.6185	4,000.49	63.7615	4,000.49	61.8268	4,000.49	53.3917	4,000.49	59.9529	4,000.49	58.9668	4,000.49	52.4842	4,000.49	54.8133
4,141.11	84.3091	4,141.11	83.4469	4,141.11	83.6783	4,141.11	82.0091	4,141.11	82.6508	4,141.11	78.7971	4,141.11	77.2768	4,141.11	75.3348	4,141.11	73.9264	4,141.11	74.7413	4,141.11	73.3333	4,141.11	74.6984	4,141.11	75.6817	4,141.11	72.5867	4,141.11	73.598	4,141.11	71.1065	4,141.11	73.2228	4,141.11	66.9297	4,141.11	69.6549	4,141.11	63.415	4,141.11	63.3204	4,141.11	57.2061	4,141.11	61.8966	4,141.11	60.505	4,141.11	54.8525	4,141.11	62.7673	4,141.11	61.7229	4,141.11	59.8384	4,141.11	59.7276	4,141.11	63.3593	4,141.11	64.4716	4,141.11	54.5612	4,141.11	62.847	4,141.11	60.7929	4,141.11	58.9816	4,141.11	56.1213
4,287.6	84.1119	4,287.6	83.6051	4,287.6	83.9782	4,287.6	81.8026	4,287.6	82.0317	4,287.6	78.3348	4,287.6	78.0584	4,287.6	76.0217	4,287.6	75.8047	4,287.6	75.3915	4,287.6	74.8196	4,287.6	75.3112	4,287.6	75.2626	4,287.6	74.0785	4,287.6	75.2131	4,287.6	72.757	4,287.6	73.6856	4,287.6	68.309	4,287.6	70.4931	4,287.6	62.7444	4,287.6	69.3004	4,287.6	55.2167	4,287.6	63.2067	4,287.6	59.2201	4,287.6	61.7246	4,287.6	60.2177	4,287.6	61.1646	4,287.6	53.9802	4,287.6	58.9665	4,287.6	63.9766	4,287.6	64.7729	4,287.6	57.6553	4,287.6	62.0317	4,287.6	61.3791	4,287.6	58.0811	4,287.6	58.7933
4,438.48	84.4747	4,438.48	84.8766	4,438.48	85.39	4,438.48	82.5957	4,438.48	82.8763	4,438.48	78.2093	4,438.48	79.9991	4,438.48	75.2581	4,438.48	77.6568	4,438.48	75.5467	4,438.48	75.9029	4,438.48	75.7647	4,438.48	77.0428	4,438.48	75.8734	4,438.48	76.0968	4,438.48	73.8368	4,438.48	73.643	4,438.48	70.0468	4,438.48	70.5606	4,438.48	66.0972	4,438.48	68.9183	4,438.48	50.3047	4,438.48	62.9923	4,438.48	49.4973	4,438.48	61.5743	4,438.48	60.9605	4,438.48	64.3116	4,438.48	62.6355	4,438.48	61.1353	4,438.48	65.7885	4,438.48	62.5379	4,438.48	57.0249	4,438.48	64.4171	4,438.48	57.3474	4,438.48	54.122	4,438.48	59.3408
4,595.21	85.7035	4,595.21	85.1543	4,595.21	85.5068	4,595.21	83.8961	4,595.21	84.3259	4,595.21	78.7569	4,595.21	81.1258	4,595.21	78.035	4,595.21	78.4608	4,595.21	74.0724	4,595.21	77.8291	4,595.21	78.0887	4,595.21	77.6085	4,595.21	74.5308	4,595.21	77.2254	4,595.21	70.2452	4,595.21	74.0981	4,595.21	69.5928	4,595.21	72.7019	4,595.21	60.5005	4,595.21	67.0933	4,595.21	58.4302	4,595.21	62.6004	4,595.21	62.3102	4,595.21	51.6316	4,595.21	60.2055	4,595.21	65.2531	4,595.21	55.2853	4,595.21	60.7104	4,595.21	65.677	4,595.21	60.7531	4,595.21	59.5774	4,595.21	62.87	4,595.21	60.6018	4,595.21	56.6225	4,595.21	58.027
4,756.35	86.972	4,756.35	84.8499	4,756.35	85.4509	4,756.35	84.1237	4,756.35	84.2644	4,756.35	80.9853	4,756.35	81.9303	4,756.35	80.0578	4,756.35	78.1973	4,756.35	78.0242	4,756.35	80.1941	4,756.35	77.1446	4,756.35	77.7427	4,756.35	70.5659	4,756.35	77.1013	4,756.35	70.2402	4,756.35	74.2785	4,756.35	70.479	4,756.35	73.5818	4,756.35	66.9426	4,756.35	70.7481	4,756.35	58.7835	4,756.35	50.0529	4,756.35	61.8711	4,756.35	54.6705	4,756.35	62.0214	4,756.35	61.5258	4,756.35	61.4015	4,756.35	55.6193	4,756.35	63.4375	4,756.35	67.331	4,756.35	55.0944	4,756.35	64.6552	4,756.35	61.791	4,756.35	62.9823	4,756.35	56.346
4,924.8	85.6971	4,924.8	84.6195	4,924.8	85.5623	4,924.8	83.4302	4,924.8	82.5971	4,924.8	81.0216	4,924.8	81.6788	4,924.8	79.4293	4,924.8	78.7642	4,924.8	78.8859	4,924.8	81.399	4,924.8	75.8008	4,924.8	77.5267	4,924.8	74.1962	4,924.8	77.0944	4,924.8	72.3563	4,924.8	74.6301	4,924.8	67.3254	4,924.8	73.2914	4,924.8	68.6752	4,924.8	70.0827	4,924.8	55.8264	4,924.8	61.7726	4,924.8	56.2593	4,924.8	49.4983	4,924.8	59.9768	4,924.8	60.2977	4,924.8	61.3444	4,924.8	58.7451	4,924.8	63.3807	4,924.8	66.1273	4,924.8	47.8571	4,924.8	63.9065	4,924.8	58.6838	4,924.8	62.4805	4,924.8	59.3663
5,097.66	84.3002	5,097.66	84.3267	5,097.66	85.1951	5,097.66	81.1675	5,097.66	82.8137	5,097.66	78.1962	5,097.66	81.2441	5,097.66	76.6251	5,097.66	78.7723	5,097.66	77.7203	5,097.66	78.719	5,097.66	75.9931	5,097.66	77.3038	5,097.66	76.7381	5,097.66	76.9996	5,097.66	74.8414	5,097.66	74.1366	5,097.66	69.9782	5,097.66	71.1773	5,097.66	63.2967	5,097.66	67.5972	5,097.66	50.7697	5,097.66	59.4187	5,097.66	55.8784	5,097.66	51.2465	5,097.66	61.3558	5,097.66	62.7775	5,097.66	58.5369	5,097.66	57.8884	5,097.66	62.8011	5,097.66	63.1589	5,097.66	55.2222	5,097.66	59.2848	5,097.66	59.5803	5,097.66	59.7437	5,097.66	52.4832
5,277.83	85.8906	5,277.83	84.4645	5,277.83	82.9407	5,277.83	81.9044	5,277.83	83.6819	5,277.83	79.6205	5,277.83	81.3535	5,277.83	78.2288	5,277.83	78.5542	5,277.83	77.7645	5,277.83	77.0551	5,277.83	75.7971	5,277.83	77.842	5,277.83	75.1806	5,277.83	77.5636	5,277.83	73.1442	5,277.83	72.4519	5,277.83	69.4455	5,277.83	71.6976	5,277.83	65.5216	5,277.83	66.7982	5,277.83	58.3254	5,277.83	63.5483	5,277.83	62.3323	5,277.83	59.0685	5,277.83	60.8362	5,277.83	60.2032	5,277.83	58.9196	5,277.83	54.7448	5,277.83	61.0163	5,277.83	60.0085	5,277.83	57.5665	5,277.83	56.0898	5,277.83	58.7176	5,277.83	61.0665	5,277.83	45.9964
5,463.87	86.4427	5,463.87	84.3347	5,463.87	83.6894	5,463.87	82.5148	5,463.87	82.9809	5,463.87	81.7314	5,463.87	81.9697	5,463.87	79.715	5,463.87	79.5474	5,463.87	79.4643	5,463.87	80.4507	5,463.87	78.4271	5,463.87	79.3007	5,463.87	74.6504	5,463.87	77.8114	5,463.87	67.9372	5,463.87	74.7581	5,463.87	70.2414	5,463.87	71.5534	5,463.87	63.7232	5,463.87	69.6485	5,463.87	58.8797	5,463.87	66.2466	5,463.87	61.747	5,463.87	57.9651	5,463.87	58.9523	5,463.87	62.067	5,463.87	62.0527	5,463.87	55.6691	5,463.87	57.2807	5,463.87	56.6852	5,463.87	57.9847	5,463.87	61.6545	5,463.87	54.5155	5,463.87	60.1607	5,463.87	54.9407
5,657.23	84.5845	5,657.23	84.5441	5,657.23	85.2624	5,657.23	82.0901	5,657.23	81.1606	5,657.23	81.8129	5,657.23	80.6996	5,657.23	78.8257	5,657.23	80.4153	5,657.23	79.7941	5,657.23	82.3866	5,657.23	77.5895	5,657.23	80.5265	5,657.23	75.7922	5,657.23	78.6171	5,657.23	73.3448	5,657.23	74.9757	5,657.23	72.0123	5,657.23	72.5088	5,657.23	65.4052	5,657.23	69.0136	5,657.23	65.8334	5,657.23	63.6162	5,657.23	58.9484	5,657.23	53.85	5,657.23	61.5332	5,657.23	58.8649	5,657.23	62.8927	5,657.23	54.855	5,657.23	59.8126	5,657.23	57.8192	5,657.23	52.0188	5,657.23	60.7729	5,657.23	53.1072	5,657.23	49.0926	5,657.23	57.1983
5,856.45	83.1467	5,856.45	83.527	5,856.45	84.1434	5,856.45	80.2699	5,856.45	81.2243	5,856.45	79.4278	5,856.45	79.3132	5,856.45	78.1636	5,856.45	80.8894	5,856.45	79.9461	5,856.45	80.6192	5,856.45	77.722	5,856.45	80.8343	5,856.45	76.9689	5,856.45	78.0126	5,856.45	71.0115	5,856.45	73.2595	5,856.45	67.4872	5,856.45	70.993	5,856.45	63.2854	5,856.45	67.8975	5,856.45	64.5571	5,856.45	58.8265	5,856.45	50.0244	5,856.45	55.8764	5,856.45	58.2438	5,856.45	62.9298	5,856.45	58.8143	5,856.45	56.4742	5,856.45	57.4622	5,856.45	58.6121	5,856.45	50.7098	5,856.45	61.7813	5,856.45	57.6096	5,856.45	59.2768	5,856.45	57.5696
6,062.99	85.0887	6,062.99	83.581	6,062.99	83.4296	6,062.99	80.5333	6,062.99	82.729	6,062.99	78.1914	6,062.99	80.7858	6,062.99	78.0974	6,062.99	81.4283	6,062.99	79.7539	6,062.99	80.244	6,062.99	78.8514	6,062.99	80.9601	6,062.99	76.4552	6,062.99	78.148	6,062.99	71.6766	6,062.99	74.015	6,062.99	67.9347	6,062.99	68.5184	6,062.99	65.2972	6,062.99	67.3973	6,062.99	49.438	6,062.99	62.7601	6,062.99	58.7818	6,062.99	61.1539	6,062.99	59.3001	6,062.99	57.8455	6,062.99	53.1442	6,062.99	54.5139	6,062.99	58.2775	6,062.99	54.7719	6,062.99	50.5923	6,062.99	59.1696	6,062.99	55.2586	6,062.99	60.9777	6,062.99	54.561
6,276.86	84.4563	6,276.86	82.254	6,276.86	82.8232	6,276.86	79.6234	6,276.86	82.5139	6,276.86	78.3753	6,276.86	80.6458	6,276.86	78.3248	6,276.86	80.3563	6,276.86	80.0326	6,276.86	81.9541	6,276.86	79.8843	6,276.86	80.5357	6,276.86	76.0109	6,276.86	78.3054	6,276.86	69.6183	6,276.86	73.6913	6,276.86	66.7235	6,276.86	68.6302	6,276.86	64.1273	6,276.86	67.7629	6,276.86	58.9208	6,276.86	61.4097	6,276.86	52.1608	6,276.86	59.9514	6,276.86	62.6557	6,276.86	56.0798	6,276.86	53.373	6,276.86	57.6965	6,276.86	57.1538	6,276.86	50.8838	6,276.86	54.9476	6,276.86	57.2077	6,276.86	58.1198	6,276.86	60.3818	6,276.86	51.6489
6,498.05	83.9872	6,498.05	82.8235	6,498.05	83.3322	6,498.05	80.6704	6,498.05	80.242	6,498.05	78.3582	6,498.05	79.472	6,498.05	78.8354	6,498.05	80.4511	6,498.05	80.4319	6,498.05	82.9113	6,498.05	79.6114	6,498.05	81.5738	6,498.05	73.9869	6,498.05	76.8451	6,498.05	67.6413	6,498.05	73.4699	6,498.05	67.0216	6,498.05	70.086	6,498.05	62.2733	6,498.05	66.1188	6,498.05	41.0604	6,498.05	61.4448	6,498.05	62.375	6,498.05	58.8245	6,498.05	63.21	6,498.05	61.435	6,498.05	60.129	6,498.05	56.0006	6,498.05	53.6026	6,498.05	55.9974	6,498.05	57.8278	6,498.05	57.4454	6,498.05	57.9851	6,498.05	54.4669	6,498.05	58.0713
6,726.56	84.1103	6,726.56	82.4824	6,726.56	83.9155	6,726.56	80.2293	6,726.56	80.596	6,726.56	76.8205	6,726.56	78.7242	6,726.56	80.1733	6,726.56	81.5151	6,726.56	81.1932	6,726.56	81.8731	6,726.56	79.0989	6,726.56	82.2078	6,726.56	74.0464	6,726.56	77.5894	6,726.56	68.2569	6,726.56	72.7515	6,726.56	65.0831	6,726.56	70.5479	6,726.56	63.6815	6,726.56	67.1195	6,726.56	60.5286	6,726.56	63.7375	6,726.56	56.0674	6,726.56	54.5364	6,726.56	60.0804	6,726.56	55.1831	6,726.56	57.7876	6,726.56	58.2775	6,726.56	53.5936	6,726.56	57.6175	6,726.56	60.4071	6,726.56	53.4926	6,726.56	52.8972	6,726.56	52.3149	6,726.56	57.9906
6,963.87	83.8131	6,963.87	81.8537	6,963.87	83.4917	6,963.87	77.5749	6,963.87	82.1032	6,963.87	77.47	6,963.87	79.2747	6,963.87	80.5363	6,963.87	81.9643	6,963.87	81.4826	6,963.87	82.3017	6,963.87	77.9111	6,963.87	81.2355	6,963.87	74.3028	6,963.87	78.488	6,963.87	68.3683	6,963.87	71.3457	6,963.87	64.6985	6,963.87	67.0866	6,963.87	63.7496	6,963.87	65.6378	6,963.87	57.6336	6,963.87	57.1655	6,963.87	55.6261	6,963.87	63.6558	6,963.87	48.7636	6,963.87	59.9548	6,963.87	55.3597	6,963.87	52.885	6,963.87	58.3894	6,963.87	54.382	6,963.87	58.2785	6,963.87	60.0339	6,963.87	36.4568	6,963.87	52.4909	6,963.87	56.621
7,209.96	84.7027	7,209.96	83.2321	7,209.96	84.4047	7,209.96	79.5435	7,209.96	82.0781	7,209.96	79.2436	7,209.96	80.5375	7,209.96	82.1199	7,209.96	83.0197	7,209.96	81.242	7,209.96	83.6233	7,209.96	78.212	7,209.96	80.8474	7,209.96	72.0446	7,209.96	76.542	7,209.96	65.2606	7,209.96	72.3249	7,209.96	61.2797	7,209.96	67.4704	7,209.96	60.0512	7,209.96	65.745	7,209.96	54.0842	7,209.96	63.0274	7,209.96	54.8203	7,209.96	61.2453	7,209.96	57.2548	7,209.96	61.7263	7,209.96	54.7005	7,209.96	59.7621	7,209.96	59.121	7,209.96	50.2805	7,209.96	50.6344	7,209.96	60.5139	7,209.96	54.3578	7,209.96	52.0291	7,209.96	55.9455
7,464.84	86.07	7,464.84	84.011	7,464.84	85.3767	7,464.84	80.6121	7,464.84	82.4076	7,464.84	79.9183	7,464.84	80.662	7,464.84	81.7897	7,464.84	82.5704	7,464.84	79.6358	7,464.84	81.3165	7,464.84	75.7995	7,464.84	79.8709	7,464.84	72.0419	7,464.84	75.5696	7,464.84	65.8239	7,464.84	71.7709	7,464.84	64.2061	7,464.84	68.0958	7,464.84	64.2301	7,464.84	63.9324	7,464.84	56.7277	7,464.84	62.1907	7,464.84	50.2336	7,464.84	56.6422	7,464.84	56.2203	7,464.84	59.7317	7,464.84	56.0256	7,464.84	58.3998	7,464.84	58.5107	7,464.84	49.8237	7,464.84	55.2726	7,464.84	56.7079	7,464.84	55.6226	7,464.84	54.5454	7,464.84	56.3934
7,727.05	86.0888	7,727.05	83.4271	7,727.05	85.3641	7,727.05	79.5678	7,727.05	82.7463	7,727.05	79.761	7,727.05	81.5564	7,727.05	81.072	7,727.05	83.0967	7,727.05	79.716	7,727.05	82.0447	7,727.05	76.6511	7,727.05	80.269	7,727.05	74.039	7,727.05	78.2516	7,727.05	67.6495	7,727.05	72.3729	7,727.05	64.2859	7,727.05	65.9207	7,727.05	63.7141	7,727.05	67.8112	7,727.05	55.3043	7,727.05	63.3912	7,727.05	56.5815	7,727.05	62.8122	7,727.05	60.8863	7,727.05	54.7921	7,727.05	55.3996	7,727.05	57.3845	7,727.05	51.6151	7,727.05	55.4352	7,727.05	61.1818	7,727.05	57.4717	7,727.05	49.8925	7,727.05	54.9569	7,727.05	50.6551
7,999.51	85.2879	7,999.51	82.5062	7,999.51	84.3776	7,999.51	78.1171	7,999.51	80.2048	7,999.51	80.2785	7,999.51	81.3074	7,999.51	80.5864	7,999.51	82.5083	7,999.51	78.7226	7,999.51	81.351	7,999.51	77.7732	7,999.51	79.6498	7,999.51	75.1001	7,999.51	77.5556	7,999.51	71.4882	7,999.51	75.3003	7,999.51	67.458	7,999.51	71.7021	7,999.51	66.0647	7,999.51	66.5332	7,999.51	58.3763	7,999.51	64.7485	7,999.51	58.0599	7,999.51	61.6576	7,999.51	59.8532	7,999.51	59.9995	7,999.51	61.1663	7,999.51	58.6285	7,999.51	54.1846	7,999.51	52.5694	7,999.51	55.4709	7,999.51	61.0065	7,999.51	53.8905	7,999.51	58.8767	7,999.51	52.4683
8,282.23	82.4188	8,282.23	78.8476	8,282.23	82.0813	8,282.23	77.1091	8,282.23	79.5203	8,282.23	81.072	8,282.23	82.0328	8,282.23	79.2087	8,282.23	82.5903	8,282.23	75.8851	8,282.23	79.6273	8,282.23	76.1722	8,282.23	78.5455	8,282.23	76.2341	8,282.23	79.2515	8,282.23	71.5111	8,282.23	75.3372	8,282.23	64.5578	8,282.23	70.4868	8,282.23	64.0101	8,282.23	64.9143	8,282.23	54.973	8,282.23	63.7082	8,282.23	59.0378	8,282.23	61.1947	8,282.23	55.2228	8,282.23	61.1131	8,282.23	61.4404	8,282.23	51.1488	8,282.23	58.1055	8,282.23	55.2364	8,282.23	56.8307	8,282.23	59.2255	8,282.23	55.856	8,282.23	55.1046	8,282.23	55.1631
8,573.73	81.3827	8,573.73	79.1138	8,573.73	81.4283	8,573.73	79.7907	8,573.73	81.4205	8,573.73	79.9841	8,573.73	82.7869	8,573.73	77.7569	8,573.73	81.0191	8,573.73	73.5252	8,573.73	78.263	8,573.73	76.9381	8,573.73	77.9386	8,573.73	74.7498	8,573.73	77.3174	8,573.73	71.4805	8,573.73	74.1657	8,573.73	66.8134	8,573.73	68.1644	8,573.73	63.1286	8,573.73	65.9271	8,573.73	52.5418	8,573.73	62.3211	8,573.73	57.8284	8,573.73	60.1941	8,573.73	57.9317	8,573.73	53.0458	8,573.73	53.5849	8,573.73	56.1243	8,573.73	54.9609	8,573.73	55.5888	8,573.73	50.233	8,573.73	57.8987	8,573.73	54.5869	8,573.73	53.3183	8,573.73	51.2979
8,876.95	82.4981	8,876.95	80.1872	8,876.95	82.5452	8,876.95	80.7202	8,876.95	82.2922	8,876.95	80.531	8,876.95	82.7694	8,876.95	76.4101	8,876.95	80.5378	8,876.95	74.186	8,876.95	78.0719	8,876.95	75.2077	8,876.95	77.3792	8,876.95	75.7171	8,876.95	76.9039	8,876.95	69.185	8,876.95	72.273	8,876.95	63.6652	8,876.95	67.5949	8,876.95	60.0127	8,876.95	62.1622	8,876.95	46.7233	8,876.95	57.7996	8,876.95	55.8478	8,876.95	53.8763	8,876.95	56.3266	8,876.95	46.1041	8,876.95	55.9105	8,876.95	44.7732	8,876.95	47.8802	8,876.95	49.421	8,876.95	52.7195	8,876.95	52.0715	8,876.95	48.0017	8,876.95	51.9245	8,876.95	51.0539
9,188.96	83.5885	9,188.96	80.96	9,188.96	82.9317	9,188.96	81.8719	9,188.96	82.8249	9,188.96	80.6038	9,188.96	82.4342	9,188.96	77.6311	9,188.96	80.5494	9,188.96	76.3294	9,188.96	78.7106	9,188.96	75.8157	9,188.96	77.4531	9,188.96	74.274	9,188.96	77.1063	9,188.96	67.1867	9,188.96	72.5126	9,188.96	63.7668	9,188.96	65.7874	9,188.96	60.4737	9,188.96	64.3716	9,188.96	54.9103	9,188.96	58.6715	9,188.96	52.2567	9,188.96	53.8209	9,188.96	50.9977	9,188.96	41.6347	9,188.96	48.4081	9,188.96	44.3621	9,188.96	49.3745	9,188.96	53.9575	9,188.96	50.8069	9,188.96	54.0128	9,188.96	48.579	9,188.96	44.7339	9,188.96	48.0163
9,514.16	83.7987	9,514.16	81.8735	9,514.16	83.4164	9,514.16	82.8281	9,514.16	83.1479	9,514.16	80.7032	9,514.16	82.8501	9,514.16	77.4631	9,514.16	80.5866	9,514.16	77.0976	9,514.16	79.0135	9,514.16	74.9792	9,514.16	77.7954	9,514.16	71.9114	9,514.16	75.5068	9,514.16	65.2659	9,514.16	70.4232	9,514.16	56.6747	9,514.16	63.3214	9,514.16	54.381	9,514.16	61.7509	9,514.16	50.726	9,514.16	54.9952	9,514.16	50.6304	9,514.16	50.2827	9,514.16	43.5755	9,514.16	50.9814	9,514.16	50.309	9,514.16	46.5253	9,514.16	53.7873	9,514.16	57.1598	9,514.16	51.0191	9,514.16	54.9918	9,514.16	45.9448	9,514.16	43.6065	9,514.16	43.9723
9,849.61	83.4019	9,849.61	82.1738	9,849.61	82.9541	9,849.61	82.9305	9,849.61	83.7346	9,849.61	80.674	9,849.61	83.3295	9,849.61	78.4101	9,849.61	80.3752	9,849.61	77.3785	9,849.61	79.5342	9,849.61	75.0347	9,849.61	77.6316	9,849.61	70.4111	9,849.61	74.5116	9,849.61	63.9808	9,849.61	70.4918	9,849.61	60.3004	9,849.61	61.5349	9,849.61	53.1326	9,849.61	61.5554	9,849.61	50.2938	9,849.61	53.638	9,849.61	53.0211	9,849.61	50.7679	9,849.61	48.398	9,849.61	52.318	9,849.61	51.8746	9,849.61	48.9509	9,849.61	50.1589	9,849.61	44.4867	9,849.61	42.5771	9,849.61	48.7838	9,849.61	50.1714	9,849.61	44.848	9,849.61	41.8016
10,196.8	82.597	10,196.8	81.9176	10,196.8	82.422	10,196.8	83.7013	10,196.8	84.5442	10,196.8	80.4471	10,196.8	83.4138	10,196.8	79.3776	10,196.8	80.9894	10,196.8	78.3886	10,196.8	80.4232	10,196.8	73.3456	10,196.8	77.5179	10,196.8	69.1727	10,196.8	73.0272	10,196.8	63.1597	10,196.8	68.6738	10,196.8	56.0768	10,196.8	61.6895	10,196.8	51.4428	10,196.8	60.2766	10,196.8	55.2638	10,196.8	53.0227	10,196.8	52.668	10,196.8	52.46	10,196.8	43.6735	10,196.8	44.6035	10,196.8	50.5363	10,196.8	51.7947	10,196.8	50.8227	10,196.8	51.1227	10,196.8	49.2035	10,196.8	49.4923	10,196.8	48.6369	10,196.8	51.5203	10,196.8	44.3694
10,555.7	80.2452	10,555.7	82.5622	10,555.7	81.3957	10,555.7	83.6874	10,555.7	84.4844	10,555.7	80.7017	10,555.7	83.0788	10,555.7	79.9521	10,555.7	80.714	10,555.7	76.9692	10,555.7	80.035	10,555.7	71.0907	10,555.7	76.4188	10,555.7	70.212	10,555.7	71.5848	10,555.7	66.7297	10,555.7	70.0969	10,555.7	60.2945	10,555.7	62.2988	10,555.7	53.6715	10,555.7	60.718	10,555.7	52.8322	10,555.7	53.5728	10,555.7	51.7897	10,555.7	50.1705	10,555.7	41.1761	10,555.7	52.8236	10,555.7	45.6049	10,555.7	51.6159	10,555.7	50.4344	10,555.7	52.4166	10,555.7	31.5937	10,555.7	40.9484	10,555.7	43.9719	10,555.7	51.248	10,555.7	42.6048
10,927.7	79.1605	10,927.7	83.5728	10,927.7	81.8684	10,927.7	84.0353	10,927.7	84.8138	10,927.7	80.4797	10,927.7	82.2864	10,927.7	80.5037	10,927.7	81.2368	10,927.7	75.5295	10,927.7	79.5487	10,927.7	68.7242	10,927.7	74.2254	10,927.7	70.4862	10,927.7	71.4897	10,927.7	66.6709	10,927.7	69.9716	10,927.7	59.0714	10,927.7	62.5256	10,927.7	55.2623	10,927.7	61.8016	10,927.7	54.8625	10,927.7	47.202	10,927.7	53.2478	10,927.7	44.7282	10,927.7	38.6361	10,927.7	49.8983	10,927.7	46.5421	10,927.7	53.618	10,927.7	47.736	10,927.7	54.327	10,927.7	39.2373	10,927.7	44.4454	10,927.7	50.9001	10,927.7	48.9264	10,927.7	30.475
11,313	80.2354	11,313	84.2834	11,313	82.2833	11,313	83.3257	11,313	84.3557	11,313	81.8232	11,313	82.6317	11,313	79.657	11,313	81.4115	11,313	72.2937	11,313	78.0713	11,313	69.6708	11,313	72.0649	11,313	70.5275	11,313	71.2812	11,313	65.9109	11,313	69.8193	11,313	58.3271	11,313	60.5093	11,313	53.6123	11,313	60.1332	11,313	54.0073	11,313	48.5575	11,313	50.5414	11,313	47.5587	11,313	22.8515	11,313	53.527	11,313	44.9574	11,313	52.9255	11,313	40.0958	11,313	53.1137	11,313	34.2055	11,313	48.3949	11,313	49.1215	11,313	42.7061	11,313	38.7242
11,712.9	82.4725	11,712.9	84.9672	11,712.9	83.7019	11,712.9	83.63	11,712.9	84.4216	11,712.9	81.6368	11,712.9	82.7587	11,712.9	78.386	11,712.9	81.1277	11,712.9	70.3914	11,712.9	76.5253	11,712.9	68.0602	11,712.9	70.1059	11,712.9	67.099	11,712.9	69.5427	11,712.9	62.0463	11,712.9	67.2019	11,712.9	54.0728	11,712.9	57.0463	11,712.9	50.5972	11,712.9	55.9576	11,712.9	47.1306	11,712.9	40.7841	11,712.9	45.9451	11,712.9	43.9649	11,712.9	40.5932	11,712.9	44.3157	11,712.9	34.0134	11,712.9	44.9333	11,712.9	36.5385	11,712.9	38.9618	11,712.9	41.5905	11,712.9	42.1999	11,712.9	43.4638	11,712.9	39.9427	11,712.9	26.632
12,126	82.251	12,126	84.6112	12,126	83.9455	12,126	83.2269	12,126	84.9093	12,126	81.0155	12,126	82.7227	12,126	76.6152	12,126	80.2505	12,126	68.8486	12,126	73.34	12,126	69.0875	12,126	69.3037	12,126	66.1521	12,126	68.9486	12,126	61.6244	12,126	64.4763	12,126	53.3706	12,126	54.0804	12,126	48.7097	12,126	53.2006	12,126	50.352	12,126	43.5281	12,126	46.4363	12,126	44.1544	12,126	41.2191	12,126	44.3705	12,126	32.3926	12,126	40.143	12,126	34.3661	12,126	42.0294	12,126	39.8206	12,126	36.0318	12,126	44.0188	12,126	37.3859	12,126	41.2898
12,553.7	79.0105	12,553.7	83.996	12,553.7	82.6319	12,553.7	82.3839	12,553.7	84.3181	12,553.7	80.824	12,553.7	82.3516	12,553.7	75.408	12,553.7	79.8536	12,553.7	71.0828	12,553.7	73.1999	12,553.7	70.4737	12,553.7	72.1586	12,553.7	65.7156	12,553.7	69.0837	12,553.7	60.7039	12,553.7	64.6924	12,553.7	51.9249	12,553.7	56.2531	12,553.7	52.0505	12,553.7	54.3851	12,553.7	52.1945	12,553.7	40.1342	12,553.7	48.1241	12,553.7	43.433	12,553.7	41.6882	12,553.7	41.3691	12,553.7	39.8628	12,553.7	38.7587	12,553.7	31.6861	12,553.7	45.1215	12,553.7	43.6921	12,553.7	34.9627	12,553.7	35.8342	12,553.7	39.8957	12,553.7	40.4737
12,996.1	74.6549	12,996.1	82.9175	12,996.1	80.9507	12,996.1	81.995	12,996.1	83.4032	12,996.1	81.2998	12,996.1	82.3706	12,996.1	74.2635	12,996.1	78.7278	12,996.1	73.8186	12,996.1	73.7059	12,996.1	69.9507	12,996.1	73.0712	12,996.1	64.2132	12,996.1	68.273	12,996.1	63.9793	12,996.1	64.914	12,996.1	57.9036	12,996.1	58.9793	12,996.1	55.3843	12,996.1	56.7493	12,996.1	53.5056	12,996.1	46.3118	12,996.1	47.0427	12,996.1	43.8875	12,996.1	45.317	12,996.1	43.4011	12,996.1	43.0887	12,996.1	30.589	12,996.1	37.4405	12,996.1	47.0278	12,996.1	45.5678	12,996.1	28.573	12,996.1	44.6451	12,996.1	43.4784	12,996.1	41.8401
13,454.6	78.1428	13,454.6	82.3583	13,454.6	80.8987	13,454.6	81.0865	13,454.6	82.0448	13,454.6	80.2594	13,454.6	82.2	13,454.6	74.5242	13,454.6	76.8428	13,454.6	74.105	13,454.6	75.7103	13,454.6	67.8198	13,454.6	72.359	13,454.6	66.1549	13,454.6	67.2484	13,454.6	66.6109	13,454.6	67.162	13,454.6	59.3939	13,454.6	62.073	13,454.6	54.9545	13,454.6	58.1572	13,454.6	52.3316	13,454.6	47.4556	13,454.6	46.475	13,454.6	45.7277	13,454.6	43.7256	13,454.6	47.056	13,454.6	44.1213	13,454.6	43.93	13,454.6	41.8889	13,454.6	47.874	13,454.6	38.0254	13,454.6	38.5954	13,454.6	42.381	13,454.6	45.1735	13,454.6	39.6241
13,929.2	77.6474	13,929.2	80.8872	13,929.2	79.9143	13,929.2	80.7735	13,929.2	80.4008	13,929.2	79.3955	13,929.2	81.9824	13,929.2	76.2137	13,929.2	77.1697	13,929.2	74.0471	13,929.2	76.6334	13,929.2	67.5276	13,929.2	71.11	13,929.2	68.5209	13,929.2	68.3174	13,929.2	65.519	13,929.2	67.2412	13,929.2	56.5401	13,929.2	61.349	13,929.2	54.7749	13,929.2	57.9031	13,929.2	50.4973	13,929.2	49.9952	13,929.2	41.5263	13,929.2	47.2545	13,929.2	44.1397	13,929.2	48.1797	13,929.2	38.0239	13,929.2	45.8209	13,929.2	39.884	13,929.2	42.2357	13,929.2	42.1041	13,929.2	41.7482	13,929.2	33.95	13,929.2	39.7576	13,929.2	35.69
14,419.9	69.1472	14,419.9	77.2039	14,419.9	74.5849	14,419.9	80.561	14,419.9	78.1951	14,419.9	79.3264	14,419.9	81.897	14,419.9	78.3628	14,419.9	78.7229	14,419.9	73.56	14,419.9	77.1904	14,419.9	70.1083	14,419.9	70.8594	14,419.9	69.0393	14,419.9	69.7471	14,419.9	64.4368	14,419.9	66.9022	14,419.9	54.5438	14,419.9	59.7444	14,419.9	54.6166	14,419.9	56.525	14,419.9	51.859	14,419.9	48.0815	14,419.9	42.894	14,419.9	42.6019	14,419.9	43.177	14,419.9	48.8971	14,419.9	32.4204	14,419.9	42.8726	14,419.9	39.0547	14,419.9	47.4941	14,419.9	32.4809	14,419.9	39.4704	14,419.9	40.0601	14,419.9	40.6248	14,419.9	38.1048
14,928.2	76.5254	14,928.2	66.7874	14,928.2	61.1067	14,928.2	80.801	14,928.2	76.9718	14,928.2	80.1975	14,928.2	81.8263	14,928.2	79.6147	14,928.2	80.1402	14,928.2	73.047	14,928.2	76.8986	14,928.2	72.5153	14,928.2	72.3683	14,928.2	68.1626	14,928.2	70.0133	14,928.2	63.3806	14,928.2	64.1169	14,928.2	55.2994	14,928.2	58.7011	14,928.2	54.3096	14,928.2	54.4846	14,928.2	52.4353	14,928.2	49.7424	14,928.2	47.9152	14,928.2	41.0353	14,928.2	45.0685	14,928.2	47.7159	14,928.2	33.0319	14,928.2	42.1053	14,928.2	39.8324	14,928.2	46.2337	14,928.2	34.9604	14,928.2	26.3201	14,928.2	46.7164	14,928.2	40.4906	14,928.2	38.2061
15,455.6	81.4438	15,455.6	70.6159	15,455.6	75.6064	15,455.6	80.6304	15,455.6	77.215	15,455.6	80.3262	15,455.6	81.1774	15,455.6	80.2548	15,455.6	81.6642	15,455.6	73.9811	15,455.6	75.6236	15,455.6	72.8279	15,455.6	74.5019	15,455.6	67.0022	15,455.6	68.0235	15,455.6	64.9773	15,455.6	64.8956	15,455.6	57.0149	15,455.6	61.0442	15,455.6	57.4523	15,455.6	58.0613	15,455.6	52.7382	15,455.6	52.2838	15,455.6	48.4343	15,455.6	46.4041	15,455.6	45.9502	15,455.6	50.706	15,455.6	36.2124	15,455.6	43.9037	15,455.6	47.7193	15,455.6	47.0649	15,455.6	35.8936	15,455.6	43.0968	15,455.6	47.9085	15,455.6	46.3347	15,455.6	39.7264
16,000.5	81.4177	16,000.5	80.3452	16,000.5	81.126	16,000.5	79.2997	16,000.5	80.0048	16,000.5	82.0661	16,000.5	81.5402	16,000.5	80.0654	16,000.5	82.6079	16,000.5	76.4807	16,000.5	76.743	16,000.5	71.1177	16,000.5	74.5471	16,000.5	69.7092	16,000.5	67.8983	16,000.5	67.3535	16,000.5	68.984	16,000.5	59.5695	16,000.5	64.306	16,000.5	60.0501	16,000.5	61.253	16,000.5	53.696	16,000.5	54.6213	16,000.5	40.7279	16,000.5	48.2985	16,000.5	37.5719	16,000.5	45.5932	16,000.5	40.518	16,000.5	37.317	16,000.5	30.9108	16,000.5	47.0427	16,000.5	47.0143	16,000.5	40.9906	16,000.5	50.0259	16,000.5	50.3629	16,000.5	41.9591
16,564.5	84.3284	16,564.5	85.2128	16,564.5	85.5672	16,564.5	81.2507	16,564.5	82.8112	16,564.5	83.4069	16,564.5	83.2916	16,564.5	79.2441	16,564.5	82.6698	16,564.5	76.3156	16,564.5	78.6079	16,564.5	69.228	16,564.5	73.644	16,564.5	69.9312	16,564.5	70.9679	16,564.5	65.1883	16,564.5	69.0242	16,564.5	57.0384	16,564.5	63.1398	16,564.5	56.5776	16,564.5	60.2459	16,564.5	52.3475	16,564.5	53.322	16,564.5	41.2191	16,564.5	46.2424	16,564.5	36.286	16,564.5	38.6765	16,564.5	36.1915	16,564.5	36.7524	16,564.5	36.3227	16,564.5	49.2328	16,564.5	42.9067	16,564.5	44.3413	16,564.5	43.3147	16,564.5	42.2886	16,564.5	28.6734
17,148.9	84.7375	17,148.9	85.3646	17,148.9	85.8552	17,148.9	82.0214	17,148.9	83.2496	17,148.9	82.1938	17,148.9	82.7574	17,148.9	77.2792	17,148.9	80.6914	17,148.9	72.744	17,148.9	77.045	17,148.9	68.6825	17,148.9	71.7004	17,148.9	65.8989	17,148.9	69.0699	17,148.9	59.0463	17,148.9	65.1367	17,148.9	52.414	17,148.9	58.4939	17,148.9	47.8532	17,148.9	54.8082	17,148.9	47.356	17,148.9	49.2243	17,148.9	40.1748	17,148.9	43.3153	17,148.9	38.6455	17,148.9	34.6544	17,148.9	35.0302	17,148.9	35.6598	17,148.9	36.6382	17,148.9	47.7553	17,148.9	39.7551	17,148.9	32.0066	17,148.9	39.728	17,148.9	43.1851	17,148.9	33.1537
17,752.4	82.2969	17,752.4	83.2183	17,752.4	83.492	17,752.4	81.0136	17,752.4	81.6877	17,752.4	78.7035	17,752.4	80.5483	17,752.4	74.6056	17,752.4	76.534	17,752.4	68.6713	17,752.4	72.2765	17,752.4	65.5196	17,752.4	68.0531	17,752.4	60.129	17,752.4	63.9698	17,752.4	53.8596	17,752.4	58.1099	17,752.4	44.2477	17,752.4	51.0247	17,752.4	41.3397	17,752.4	48.0369	17,752.4	39.4945	17,752.4	41.8725	17,752.4	36.2039	17,752.4	38.2095	17,752.4	29.8964	17,752.4	29.3098	17,752.4	33.6067	17,752.4	30.1701	17,752.4	30.7254	17,752.4	45.4667	17,752.4	27.5107	17,752.4	23.2084	17,752.4	30.9451	17,752.4	41.3011	17,752.4	34.1247
18,379.4	80.5862	18,379.4	79.9301	18,379.4	79.914	18,379.4	80.0258	18,379.4	80.0277	18,379.4	75.0893	18,379.4	77.2103	18,379.4	69.7416	18,379.4	72.1979	18,379.4	66.0193	18,379.4	67.0328	18,379.4	61.3787	18,379.4	63.6816	18,379.4	56.2988	18,379.4	57.0994	18,379.4	52.2463	18,379.4	53.1598	18,379.4	44.1391	18,379.4	46.6392	18,379.4	41.3083	18,379.4	45.0826	18,379.4	35.0645	18,379.4	38.1856	18,379.4	36.02	18,379.4	33.4929	18,379.4	28.417	18,379.4	12.5601	18,379.4	35.7604	18,379.4	34.6757	18,379.4	29.1826	18,379.4	41.4891	18,379.4	21.7231	18,379.4	28.774	18,379.4	34.7679	18,379.4	32.708	18,379.4	35.6779
19,026.9	80.4204	19,026.9	77.9693	19,026.9	78.4668	19,026.9	78.4805	19,026.9	78.7579	19,026.9	72.9855	19,026.9	75.7821	19,026.9	64.3326	19,026.9	67.6109	19,026.9	64.4762	19,026.9	65.09	19,026.9	61.5385	19,026.9	59.4311	19,026.9	58.4265	19,026.9	56.3742	19,026.9	56.0769	19,026.9	53.5464	19,026.9	48.6015	19,026.9	47.6163	19,026.9	42.3286	19,026.9	43.8984	19,026.9	34.5778	19,026.9	37.0479	19,026.9	18.805	19,026.9	31.8386	19,026.9	20.7855	19,026.9	21.5879	19,026.9	30.1702	19,026.9	32.0812	19,026.9	28.8899	19,026.9	36.9978	19,026.9	28.3452	19,026.9	31.2842	19,026.9	33.6154	19,026.9	27.5244	19,026.9	35.9075
19,697.8	79.1189	19,697.8	77.0759	19,697.8	78.5319	19,697.8	76.8496	19,697.8	77.7211	19,697.8	71.1879	19,697.8	75.3666	19,697.8	61.4539	19,697.8	65.9298	19,697.8	65.2058	19,697.8	62.6171	19,697.8	63.2074	19,697.8	59.4224	19,697.8	60.4141	19,697.8	58.2397	19,697.8	56.5519	19,697.8	54.0995	19,697.8	47.8493	19,697.8	47.1398	19,697.8	39.9328	19,697.8	40.2057	19,697.8	26.4188	19,697.8	36.93	19,697.8	32.1695	19,697.8	25.5252	19,697.8	30.8578	19,697.8	24.4377	19,697.8	33.3034	19,697.8	23.201	19,697.8	32.3181	19,697.8	33.4842	19,697.8	20.3275	19,697.8	29.733	19,697.8	22.024	19,697.8	32.7901	19,697.8	39.0446
19,999.5	78.7669	19,999.5	76.5971	19,999.5	78.5558	19,999.5	75.8367	19,999.5	77.0699	19,999.5	69.712	19,999.5	75.1931	19,999.5	60.1564	19,999.5	65.7305	19,999.5	67.0625	19,999.5	61.6316	19,999.5	63.5494	19,999.5	58.6903	19,999.5	60.0865	19,999.5	58.6349	19,999.5	55.1673	19,999.5	51.8206	19,999.5	49.4396	19,999.5	41.5119	19,999.5	39.8984	19,999.5	26.6096	19,999.5	38.5723	19,999.5	33.6275	19,999.5	42.0941	19,999.5	28.7745	19,999.5	24.9626	19,999.5	29.6316	19,999.5	41.2031	19,999.5	23.6597	19,999.5	41.0178	19,999.5	35.3192	19,999.5	26.9743	19,999.5	31.3477	19,999.5	31.767	19,999.5	39.6469	19,999.5	39.939
