"SPL Vertical"
"On-Axis"		"10°"		"-10°"		"20°"		"-20°"		"30°"		"-30°"		"40°"		"-40°"		"50°"		"-50°"		"60°"		"-60°"		"70°"		"-70°"		"80°"		"-80°"		"90°"		"-90°"		"100°"		"-100°"		"110°"		"-110°"		"120°"		"-120°"		"130°"		"-130°"		"140°"		"-140°"		"150°"		"-150°"		"160°"		"-160°"		"170°"		"-170°"		"180°"
"Frequency / Hz"	"Sound Pressure Level / dB (re 20 µPa/V)  [2.83  V @ 1. m]"	"Frequency / Hz"	"Sound Pressure Level / dB (re 20 µPa/V)  [2.83  V @ 1. m]"	"Frequency / Hz"	"Sound Pressure Level / dB (re 20 µPa/V)  [2.83  V @ 1. m]"	"Frequency / Hz"	"Sound Pressure Level / dB (re 20 µPa/V)  [2.83  V @ 1. m]"	"Frequency / Hz"	"Sound Pressure Level / dB (re 20 µPa/V)  [2.83  V @ 1. m]"	"Frequency / Hz"	"Sound Pressure Level / dB (re 20 µPa/V)  [2.83  V @ 1. m]"	"Frequency / Hz"	"Sound Pressure Level / dB (re 20 µPa/V)  [2.83  V @ 1. m]"	"Frequency / Hz"	"Sound Pressure Level / dB (re 20 µPa/V)  [2.83  V @ 1. m]"	"Frequency / Hz"	"Sound Pressure Level / dB (re 20 µPa/V)  [2.83  V @ 1. m]"	"Frequency / Hz"	"Sound Pressure Level / dB (re 20 µPa/V)  [2.83  V @ 1. m]"	"Frequency / Hz"	"Sound Pressure Level / dB (re 20 µPa/V)  [2.83  V @ 1. m]"	"Frequency / Hz"	"Sound Pressure Level / dB (re 20 µPa/V)  [2.83  V @ 1. m]"	"Frequency / Hz"	"Sound Pressure Level / dB (re 20 µPa/V)  [2.83  V @ 1. m]"	"Frequency / Hz"	"Sound Pressure Level / dB (re 20 µPa/V)  [2.83  V @ 1. m]"	"Frequency / Hz"	"Sound Pressure Level / dB (re 20 µPa/V)  [2.83  V @ 1. m]"	"Frequency / Hz"	"Sound Pressure Level / dB (re 20 µPa/V)  [2.83  V @ 1. m]"	"Frequency / Hz"	"Sound Pressure Level / dB (re 20 µPa/V)  [2.83  V @ 1. m]"	"Frequency / Hz"	"Sound Pressure Level / dB (re 20 µPa/V)  [2.83  V @ 1. m]"	"Frequency / Hz"	"Sound Pressure Level / dB (re 20 µPa/V)  [2.83  V @ 1. m]"	"Frequency / Hz"	"Sound Pressure Level / dB (re 20 µPa/V)  [2.83  V @ 1. m]"	"Frequency / Hz"	"Sound Pressure Level / dB (re 20 µPa/V)  [2.83  V @ 1. m]"	"Frequency / Hz"	"Sound Pressure Level / dB (re 20 µPa/V)  [2.83  V @ 1. m]"	"Frequency / Hz"	"Sound Pressure Level / dB (re 20 µPa/V)  [2.83  V @ 1. m]"	"Frequency / Hz"	"Sound Pressure Level / dB (re 20 µPa/V)  [2.83  V @ 1. m]"	"Frequency / Hz"	"Sound Pressure Level / dB (re 20 µPa/V)  [2.83  V @ 1. m]"	"Frequency / Hz"	"Sound Pressure Level / dB (re 20 µPa/V)  [2.83  V @ 1. m]"	"Frequency / Hz"	"Sound Pressure Level / dB (re 20 µPa/V)  [2.83  V @ 1. m]"	"Frequency / Hz"	"Sound Pressure Level / dB (re 20 µPa/V)  [2.83  V @ 1. m]"	"Frequency / Hz"	"Sound Pressure Level / dB (re 20 µPa/V)  [2.83  V @ 1. m]"	"Frequency / Hz"	"Sound Pressure Level / dB (re 20 µPa/V)  [2.83  V @ 1. m]"	"Frequency / Hz"	"Sound Pressure Level / dB (re 20 µPa/V)  [2.83  V @ 1. m]"	"Frequency / Hz"	"Sound Pressure Level / dB (re 20 µPa/V)  [2.83  V @ 1. m]"	"Frequency / Hz"	"Sound Pressure Level / dB (re 20 µPa/V)  [2.83  V @ 1. m]"	"Frequency / Hz"	"Sound Pressure Level / dB (re 20 µPa/V)  [2.83  V @ 1. m]"	"Frequency / Hz"	"Sound Pressure Level / dB (re 20 µPa/V)  [2.83  V @ 1. m]"	"Frequency / Hz"	"Sound Pressure Level / dB (re 20 µPa/V)  [2.83  V @ 1. m]"
20.5078	61.6965	20.5078	61.688	20.5078	61.6976	20.5078	61.6716	20.5078	61.6911	20.5078	61.647	20.5078	61.6772	20.5078	61.614	20.5078	61.6557	20.5078	61.5722	20.5078	61.6267	20.5078	61.5216	20.5078	61.5902	20.5078	61.4627	20.5078	61.5466	20.5078	61.3964	20.5078	61.4962	20.5078	61.3244	20.5078	61.44	20.5078	61.2491	20.5078	61.379	20.5078	61.1736	20.5078	61.3144	20.5078	61.1017	20.5078	61.2479	20.5078	61.0374	20.5078	61.1814	20.5078	60.9846	20.5078	61.1171	20.5078	60.9464	20.5078	61.0575	20.5078	60.925	20.5078	61.0053	20.5078	60.9212	20.5078	60.9634	20.5078	60.9346
21.9727	62.3664	21.9727	62.3343	21.9727	62.392	21.9727	62.2968	21.9727	62.41	21.9727	62.255	21.9727	62.4197	21.9727	62.21	21.9727	62.4204	21.9727	62.1629	21.9727	62.4122	21.9727	62.1143	21.9727	62.395	21.9727	62.065	21.9727	62.3692	21.9727	62.0157	21.9727	62.3355	21.9727	61.9674	21.9727	62.2948	21.9727	61.921	21.9727	62.2482	21.9727	61.8784	21.9727	62.1968	21.9727	61.8413	21.9727	62.1421	21.9727	61.812	21.9727	62.0855	21.9727	61.7925	21.9727	62.0285	21.9727	61.7846	21.9727	61.9729	21.9727	61.7893	21.9727	61.9207	21.9727	61.8065	21.9727	61.8741	21.9727	61.8354
23.4375	63.8436	23.4375	63.8381	23.4375	63.8441	23.4375	63.8281	23.4375	63.8394	23.4375	63.814	23.4375	63.8292	23.4375	63.7963	23.4375	63.8136	23.4375	63.7754	23.4375	63.7928	23.4375	63.7518	23.4375	63.767	23.4375	63.7259	23.4375	63.7371	23.4375	63.6982	23.4375	63.7039	23.4375	63.6694	23.4375	63.6684	23.4375	63.6399	23.4375	63.6321	23.4375	63.6104	23.4375	63.5963	23.4375	63.5817	23.4375	63.5626	23.4375	63.5545	23.4375	63.5323	23.4375	63.5294	23.4375	63.5068	23.4375	63.5074	23.4375	63.4871	23.4375	63.4893	23.4375	63.4741	23.4375	63.4762	23.4375	63.468	23.4375	63.4688
24.9023	64.6528	24.9023	64.6435	24.9023	64.657	24.9023	64.6293	24.9023	64.6557	24.9023	64.6107	24.9023	64.6487	24.9023	64.588	24.9023	64.6358	24.9023	64.5617	24.9023	64.6171	24.9023	64.5321	24.9023	64.5928	24.9023	64.4997	24.9023	64.5633	24.9023	64.4651	24.9023	64.5293	24.9023	64.4291	24.9023	64.4917	24.9023	64.3924	24.9023	64.4516	24.9023	64.3561	24.9023	64.4104	24.9023	64.3214	24.9023	64.3695	24.9023	64.2895	24.9023	64.3305	24.9023	64.2618	24.9023	64.2949	24.9023	64.2394	24.9023	64.2645	24.9023	64.2237	24.9023	64.2404	24.9023	64.2155	24.9023	64.2238	24.9023	64.2154
26.3672	65.5216	26.3672	65.5133	26.3672	65.5254	26.3672	65.501	26.3672	65.5245	26.3672	65.4851	26.3672	65.5184	26.3672	65.4658	26.3672	65.507	26.3672	65.4435	26.3672	65.4901	26.3672	65.4183	26.3672	65.4678	26.3672	65.3906	26.3672	65.4405	26.3672	65.3607	26.3672	65.4087	26.3672	65.329	26.3672	65.3733	26.3672	65.2961	26.3672	65.3354	26.3672	65.2627	26.3672	65.2962	26.3672	65.2299	26.3672	65.2572	26.3672	65.1988	26.3672	65.22	26.3672	65.1707	26.3672	65.1864	26.3672	65.147	26.3672	65.158	26.3672	65.1292	26.3672	65.1361	26.3672	65.1186	26.3672	65.1219	26.3672	65.116
27.832	66.6319	27.832	66.6285	27.832	66.6303	27.832	66.6201	27.832	66.6235	27.832	66.6068	27.832	66.6116	27.832	66.5888	27.832	66.5948	27.832	66.5664	27.832	66.5732	27.832	66.54	27.832	66.5472	27.832	66.5102	27.832	66.5174	27.832	66.4777	27.832	66.4843	27.832	66.4432	27.832	66.4489	27.832	66.4077	27.832	66.4122	27.832	66.3722	27.832	66.3754	27.832	66.3378	27.832	66.3397	27.832	66.3057	27.832	66.3065	27.832	66.277	27.832	66.2771	27.832	66.2531	27.832	66.2527	27.832	66.2349	27.832	66.2345	27.832	66.2235	27.832	66.2233	27.832	66.2196
29.2969	67.4802	29.2969	67.4712	29.2969	67.4835	29.2969	67.4568	29.2969	67.4809	29.2969	67.4375	29.2969	67.4722	29.2969	67.4136	29.2969	67.4575	29.2969	67.3856	29.2969	67.4367	29.2969	67.3543	29.2969	67.4102	29.2969	67.3203	29.2969	67.3784	29.2969	67.2842	29.2969	67.3418	29.2969	67.2468	29.2969	67.3013	29.2969	67.2087	29.2969	67.2581	29.2969	67.1708	29.2969	67.2134	29.2969	67.1338	29.2969	67.1688	29.2969	67.0988	29.2969	67.126	29.2969	67.0671	29.2969	67.087	29.2969	67.0401	29.2969	67.0537	29.2969	67.0197	29.2969	67.0279	29.2969	67.0073	29.2969	67.0112	29.2969	67.0042
30.7617	68.1361	30.7617	68.1279	30.7617	68.1395	30.7617	68.115	30.7617	68.1379	30.7617	68.098	30.7617	68.1312	30.7617	68.0772	30.7617	68.1196	30.7617	68.0533	30.7617	68.1033	30.7617	68.0269	30.7617	68.0827	30.7617	67.9986	30.7617	68.0586	30.7617	67.9693	30.7617	68.0315	30.7617	67.9397	30.7617	68.0023	30.7617	67.9107	30.7617	67.9718	30.7617	67.8832	30.7617	67.9411	30.7617	67.8581	30.7617	67.9111	30.7617	67.8361	30.7617	67.8828	30.7617	67.8181	30.7617	67.857	30.7617	67.8045	30.7617	67.8347	30.7617	67.796	30.7617	67.8166	30.7617	67.7928	30.7617	67.8033	30.7617	67.7953
32.2266	69.0986	32.2266	69.0994	32.2266	69.0931	32.2266	69.0956	32.2266	69.0829	32.2266	69.0869	32.2266	69.0684	32.2266	69.0736	32.2266	69.0496	32.2266	69.056	32.2266	69.0269	32.2266	69.0344	32.2266	69.0007	32.2266	69.0094	32.2266	68.9716	32.2266	68.9817	32.2266	68.9401	32.2266	68.9521	32.2266	68.9073	32.2266	68.9214	32.2266	68.8742	32.2266	68.8903	32.2266	68.8417	32.2266	68.8595	32.2266	68.8112	32.2266	68.8298	32.2266	68.7838	32.2266	68.802	32.2266	68.7609	32.2266	68.7771	32.2266	68.7433	32.2266	68.7561	32.2266	68.7321	32.2266	68.7403	32.2266	68.7278	32.2266	68.7307
33.6914	70.0084	33.6914	70.0063	33.6914	70.004	33.6914	69.9977	33.6914	69.9935	33.6914	69.9827	33.6914	69.977	33.6914	69.9616	33.6914	69.9552	33.6914	69.9349	33.6914	69.9285	33.6914	69.9034	33.6914	69.8975	33.6914	69.868	33.6914	69.8631	33.6914	69.8299	33.6914	69.826	33.6914	69.79	33.6914	69.7872	33.6914	69.7497	33.6914	69.7479	33.6914	69.71	33.6914	69.7091	33.6914	69.6721	33.6914	69.672	33.6914	69.6373	33.6914	69.6378	33.6914	69.6067	33.6914	69.6076	33.6914	69.5815	33.6914	69.5826	33.6914	69.5628	33.6914	69.5638	33.6914	69.5513	33.6914	69.5519	33.6914	69.5477
35.1562	70.7626	35.1562	70.7552	35.1562	70.7636	35.1562	70.7415	35.1562	70.7583	35.1562	70.7217	35.1562	70.7466	35.1562	70.6961	35.1562	70.729	35.1562	70.6653	35.1562	70.7056	35.1562	70.63	35.1562	70.6769	35.1562	70.591	35.1562	70.6435	35.1562	70.5495	35.1562	70.6062	35.1562	70.5066	35.1562	70.5658	35.1562	70.4636	35.1562	70.5234	35.1562	70.4217	35.1562	70.4802	35.1562	70.3823	35.1562	70.4375	35.1562	70.3467	35.1562	70.3966	35.1562	70.3165	35.1562	70.3591	35.1562	70.2927	35.1562	70.3264	35.1562	70.2766	35.1562	70.3	35.1562	70.2691	35.1562	70.281	35.1562	70.2706
36.6211	71.6271	36.6211	71.6189	36.6211	71.6293	36.6211	71.605	36.6211	71.6255	36.6211	71.5857	36.6211	71.6158	36.6211	71.5613	36.6211	71.6003	36.6211	71.5326	36.6211	71.5792	36.6211	71.5001	36.6211	71.553	36.6211	71.4647	36.6211	71.5222	36.6211	71.4274	36.6211	71.4877	36.6211	71.389	36.6211	71.4503	36.6211	71.3507	36.6211	71.4109	36.6211	71.3135	36.6211	71.3709	36.6211	71.2785	36.6211	71.3313	36.6211	71.2468	36.6211	71.2936	36.6211	71.2197	36.6211	71.2591	36.6211	71.1983	36.6211	71.2291	36.6211	71.1838	36.6211	71.2049	36.6211	71.1769	36.6211	71.1877	36.6211	71.1782
38.0859	72.3951	38.0859	72.3884	38.0859	72.3962	38.0859	72.3764	38.0859	72.3918	38.0859	72.3593	38.0859	72.3817	38.0859	72.3375	38.0859	72.3662	38.0859	72.3116	38.0859	72.3457	38.0859	72.2822	38.0859	72.3205	38.0859	72.2501	38.0859	72.2912	38.0859	72.2162	38.0859	72.2586	38.0859	72.1814	38.0859	72.2236	38.0859	72.1466	38.0859	72.1873	38.0859	72.1128	38.0859	72.1507	38.0859	72.0809	38.0859	72.1151	38.0859	72.052	38.0859	72.0817	38.0859	72.0271	38.0859	72.0516	38.0859	72.0071	38.0859	72.0259	38.0859	71.993	38.0859	72.0058	38.0859	71.9856	38.0859	71.9921	38.0859	71.9852
39.5508	73.2489	39.5508	73.243	39.5508	73.249	39.5508	73.2314	39.5508	73.2431	39.5508	73.2146	39.5508	73.2315	39.5508	73.1928	39.5508	73.2142	39.5508	73.1669	39.5508	73.1917	39.5508	73.1374	39.5508	73.1645	39.5508	73.1053	39.5508	73.1332	39.5508	73.0716	39.5508	73.0988	39.5508	73.0371	39.5508	73.0622	39.5508	73.0029	39.5508	73.0247	39.5508	72.9697	39.5508	72.9876	39.5508	72.9384	39.5508	72.952	39.5508	72.9099	39.5508	72.9194	39.5508	72.8848	39.5508	72.8908	39.5508	72.864	39.5508	72.8674	39.5508	72.8483	39.5508	72.85	39.5508	72.8386	39.5508	72.8393	39.5508	72.8355
41.0156	74.3062	41.0156	74.2971	41.0156	74.3095	41.0156	74.2826	41.0156	74.3068	41.0156	74.2631	41.0156	74.2982	41.0156	74.2392	41.0156	74.2835	41.0156	74.2114	41.0156	74.2632	41.0156	74.1806	41.0156	74.2377	41.0156	74.1477	41.0156	74.2075	41.0156	74.1135	41.0156	74.1735	41.0156	74.0789	41.0156	74.1368	41.0156	74.0449	41.0156	74.0983	41.0156	74.0122	41.0156	74.0594	41.0156	73.9814	41.0156	74.0215	41.0156	73.9534	41.0156	73.9858	41.0156	73.9289	41.0156	73.9538	41.0156	73.9089	41.0156	73.9267	41.0156	73.8944	41.0156	73.9058	41.0156	73.8862	41.0156	73.8917	41.0156	73.8852
42.4805	74.9516	42.4805	74.9351	42.4805	74.9615	42.4805	74.9124	42.4805	74.9647	42.4805	74.8839	42.4805	74.961	42.4805	74.8502	42.4805	74.9508	42.4805	74.8122	42.4805	74.9341	42.4805	74.771	42.4805	74.9115	42.4805	74.7277	42.4805	74.8835	42.4805	74.6837	42.4805	74.851	42.4805	74.6407	42.4805	74.8146	42.4805	74.6	42.4805	74.7754	42.4805	74.5632	42.4805	74.7344	42.4805	74.5315	42.4805	74.6927	42.4805	74.5063	42.4805	74.6515	42.4805	74.4882	42.4805	74.6119	42.4805	74.4778	42.4805	74.5753	42.4805	74.4755	42.4805	74.5428	42.4805	74.4813	42.4805	74.5156	42.4805	74.4948
43.9453	75.9207	43.9453	75.9066	43.9453	75.9289	43.9453	75.8869	43.9453	75.9311	43.9453	75.8621	43.9453	75.9272	43.9453	75.8328	43.9453	75.9175	43.9453	75.7999	43.9453	75.9021	43.9453	75.7642	43.9453	75.8814	43.9453	75.7269	43.9453	75.8562	43.9453	75.6893	43.9453	75.8271	43.9453	75.6526	43.9453	75.7948	43.9453	75.6181	43.9453	75.7603	43.9453	75.5869	43.9453	75.7246	43.9453	75.56	43.9453	75.6887	43.9453	75.5382	43.9453	75.6535	43.9453	75.5223	43.9453	75.62	43.9453	75.5127	43.9453	75.5894	43.9453	75.5098	43.9453	75.5626	43.9453	75.5136	43.9453	75.5405	43.9453	75.5239
45.4102	76.8398	45.4102	76.8253	45.4102	76.8478	45.4102	76.8047	45.4102	76.8494	45.4102	76.7784	45.4102	76.8445	45.4102	76.747	45.4102	76.8335	45.4102	76.7113	45.4102	76.8166	45.4102	76.6723	45.4102	76.7945	45.4102	76.6313	45.4102	76.7676	45.4102	76.5896	45.4102	76.7368	45.4102	76.5488	45.4102	76.7029	45.4102	76.5103	45.4102	76.6669	45.4102	76.4756	45.4102	76.6296	45.4102	76.4459	45.4102	76.5921	45.4102	76.4223	45.4102	76.5552	45.4102	76.4057	45.4102	76.5199	45.4102	76.3966	45.4102	76.4872	45.4102	76.3951	45.4102	76.458	45.4102	76.4011	45.4102	76.4333	45.4102	76.4141
46.875	77.7538	46.875	77.7411	46.875	77.7605	46.875	77.7228	46.875	77.7613	46.875	77.6992	46.875	77.7561	46.875	77.671	46.875	77.7453	46.875	77.639	46.875	77.7291	46.875	77.6042	46.875	77.7081	46.875	77.5677	46.875	77.6829	46.875	77.5309	46.875	77.6544	46.875	77.4949	46.875	77.6233	46.875	77.4612	46.875	77.5907	46.875	77.4311	46.875	77.5575	46.875	77.4055	46.875	77.5246	46.875	77.3853	46.875	77.4928	46.875	77.3712	46.875	77.463	46.875	77.3633	46.875	77.4358	46.875	77.3618	46.875	77.412	46.875	77.3664	46.875	77.392	46.875	77.3767
48.3398	78.7165	48.3398	78.7007	48.3398	78.7258	48.3398	78.6788	48.3398	78.7286	48.3398	78.6514	48.3398	78.7248	48.3398	78.6192	48.3398	78.7147	48.3398	78.5831	48.3398	78.6986	48.3398	78.5443	48.3398	78.6773	48.3398	78.5041	48.3398	78.6512	48.3398	78.464	48.3398	78.6214	48.3398	78.4253	48.3398	78.5887	48.3398	78.3897	48.3398	78.5541	48.3398	78.3583	48.3398	78.5187	48.3398	78.3325	48.3398	78.4833	48.3398	78.3129	48.3398	78.4489	48.3398	78.3002	48.3398	78.4162	48.3398	78.2946	48.3398	78.3861	48.3398	78.2958	48.3398	78.359	48.3398	78.3035	48.3398	78.3358	48.3398	78.3171
51.2695	80.7004	51.2695	80.6801	51.2695	80.7121	51.2695	80.6516	51.2695	80.7153	51.2695	80.6154	51.2695	80.7102	51.2695	80.5724	51.2695	80.6971	51.2695	80.5237	51.2695	80.6766	51.2695	80.4705	51.2695	80.6494	51.2695	80.4147	51.2695	80.6165	51.2695	80.3581	51.2695	80.5786	51.2695	80.3028	51.2695	80.5368	51.2695	80.2508	51.2695	80.492	51.2695	80.2044	51.2695	80.4453	51.2695	80.1655	51.2695	80.3977	51.2695	80.1359	51.2695	80.35	51.2695	80.1169	51.2695	80.3032	51.2695	80.109	51.2695	80.2584	51.2695	80.1122	51.2695	80.2168	51.2695	80.126	51.2695	80.1799	51.2695	80.149
52.7344	81.5873	52.7344	81.5717	52.7344	81.5949	52.7344	81.5482	52.7344	81.5943	52.7344	81.5175	52.7344	81.5859	52.7344	81.4802	52.7344	81.5699	52.7344	81.4373	52.7344	81.5471	52.7344	81.3902	52.7344	81.5182	52.7344	81.3403	52.7344	81.4842	52.7344	81.2893	52.7344	81.4462	52.7344	81.2391	52.7344	81.4054	52.7344	81.1916	52.7344	81.3628	52.7344	81.1488	52.7344	81.3197	52.7344	81.1124	52.7344	81.277	52.7344	81.0839	52.7344	81.2357	52.7344	81.0644	52.7344	81.1965	52.7344	81.0543	52.7344	81.1603	52.7344	81.0535	52.7344	81.1278	52.7344	81.0615	52.7344	81.0998	52.7344	81.0773
54.1992	82.492	54.1992	82.4781	54.1992	82.4977	54.1992	82.4563	54.1992	82.4952	54.1992	82.4271	54.1992	82.4845	54.1992	82.3914	54.1992	82.4661	54.1992	82.35	54.1992	82.4406	54.1992	82.3043	54.1992	82.409	54.1992	82.2557	54.1992	82.3722	54.1992	82.2058	54.1992	82.3314	54.1992	82.1565	54.1992	82.2881	54.1992	82.1096	54.1992	82.2435	54.1992	82.0669	54.1992	82.1991	54.1992	82.0301	54.1992	82.156	54.1992	82.0004	54.1992	82.1153	54.1992	81.9789	54.1992	82.0781	54.1992	81.9659	54.1992	82.0449	54.1992	81.9613	54.1992	82.0163	54.1992	81.9648	54.1992	81.993	54.1992	81.9756
55.6641	83.3944	55.6641	83.3799	55.6641	83.4001	55.6641	83.357	55.6641	83.397	55.6641	83.3259	55.6641	83.3852	55.6641	83.2874	55.6641	83.365	55.6641	83.2423	55.6641	83.337	55.6641	83.1917	55.6641	83.302	55.6641	83.1371	55.6641	83.2608	55.6641	83.0799	55.6641	83.2147	55.6641	83.0221	55.6641	83.1649	55.6641	82.9657	55.6641	83.1128	55.6641	82.9128	55.6641	83.0599	55.6641	82.8657	55.6641	83.0077	55.6641	82.8263	55.6641	82.9576	55.6641	82.7962	55.6641	82.9109	55.6641	82.7765	55.6641	82.8688	55.6641	82.7677	55.6641	82.8325	55.6641	82.7697	55.6641	82.8031	55.6641	82.7818
58.5938	84.7673	58.5938	84.7494	58.5938	84.7765	58.5938	84.7235	58.5938	84.777	58.5938	84.6901	58.5938	84.7687	58.5938	84.6505	58.5938	84.7522	58.5938	84.6058	58.5938	84.728	58.5938	84.5577	58.5938	84.6971	58.5938	84.5078	58.5938	84.6607	58.5938	84.4579	58.5938	84.62	58.5938	84.4099	58.5938	84.5767	58.5938	84.3656	58.5938	84.5321	58.5938	84.3268	58.5938	84.4878	58.5938	84.2946	58.5938	84.445	58.5938	84.2702	58.5938	84.4049	58.5938	84.2539	58.5938	84.3683	58.5938	84.2458	58.5938	84.3357	58.5938	84.2455	58.5938	84.3074	58.5938	84.2522	58.5938	84.2838	58.5938	84.2652
60.0586	85.276	60.0586	85.2555	60.0586	85.2875	60.0586	85.2264	60.0586	85.2896	60.0586	85.1896	60.0586	85.2824	60.0586	85.1462	60.0586	85.2665	60.0586	85.0976	60.0586	85.2423	60.0586	85.0456	60.0586	85.2109	60.0586	84.9919	60.0586	85.1734	60.0586	84.9387	60.0586	85.1312	60.0586	84.8879	60.0586	85.0859	60.0586	84.8415	60.0586	85.039	60.0586	84.8013	60.0586	84.9921	60.0586	84.7686	60.0586	84.9466	60.0586	84.7444	60.0586	84.9036	60.0586	84.7292	60.0586	84.8639	60.0586	84.7227	60.0586	84.8283	60.0586	84.7245	60.0586	84.7971	60.0586	84.7336	60.0586	84.7706	60.0586	84.7493
62.9883	85.6989	62.9883	85.6739	62.9883	85.7134	62.9883	85.6388	62.9883	85.7169	62.9883	85.5946	62.9883	85.7096	62.9883	85.5428	62.9883	85.6921	62.9883	85.4852	62.9883	85.6651	62.9883	85.4238	62.9883	85.6296	62.9883	85.3609	62.9883	85.5873	62.9883	85.2991	62.9883	85.5396	62.9883	85.2409	62.9883	85.4884	62.9883	85.1887	62.9883	85.4356	62.9883	85.1446	62.9883	85.3829	62.9883	85.1101	62.9883	85.332	62.9883	85.0861	62.9883	85.284	62.9883	85.0728	62.9883	85.2399	62.9883	85.0696	62.9883	85.2002	62.9883	85.0754	62.9883	85.165	62.9883	85.089	62.9883	85.1345	62.9883	85.109
64.4531	85.6615	64.4531	85.633	64.4531	85.6787	64.4531	85.5938	64.4531	85.6842	64.4531	85.545	64.4531	85.6783	64.4531	85.4881	64.4531	85.6612	64.4531	85.425	64.4531	85.634	64.4531	85.358	64.4531	85.5977	64.4531	85.2896	64.4531	85.5537	64.4531	85.2226	64.4531	85.5037	64.4531	85.1597	64.4531	85.4496	64.4531	85.1035	64.4531	85.3932	64.4531	85.0564	64.4531	85.3365	64.4531	85.0199	64.4531	85.2811	64.4531	84.9951	64.4531	85.2283	64.4531	84.9821	64.4531	85.1792	64.4531	84.9803	64.4531	85.1344	64.4531	84.9884	64.4531	85.0942	64.4531	85.0051	64.4531	85.0589	64.4531	85.029
67.3828	85.23	67.3828	85.1953	67.3828	85.2521	67.3828	85.1485	67.3828	85.2614	67.3828	85.0906	67.3828	85.2583	67.3828	85.0235	67.3828	85.2433	67.3828	84.9491	67.3828	85.2176	67.3828	84.8702	67.3828	85.1823	67.3828	84.7899	67.3828	85.1391	67.3828	84.7117	67.3828	85.0897	67.3828	84.6391	67.3828	85.0357	67.3828	84.5756	67.3828	84.9791	67.3828	84.5241	67.3828	84.9212	67.3828	84.4869	67.3828	84.8635	67.3828	84.4652	67.3828	84.8069	67.3828	84.4592	67.3828	84.752	67.3828	84.4676	67.3828	84.6992	67.3828	84.4884	67.3828	84.6489	67.3828	84.5193	67.3828	84.6014	67.3828	84.5577
68.8477	84.9506	68.8477	84.9176	68.8477	84.9698	68.8477	84.8713	68.8477	84.9755	68.8477	84.8125	68.8477	84.9681	68.8477	84.7428	68.8477	84.9486	68.8477	84.6645	68.8477	84.9182	68.8477	84.5801	68.8477	84.8785	68.8477	84.4932	68.8477	84.8313	68.8477	84.4074	68.8477	84.7784	68.8477	84.3268	68.8477	84.7218	68.8477	84.2554	68.8477	84.6632	68.8477	84.1967	68.8477	84.604	68.8477	84.1537	68.8477	84.5454	68.8477	84.128	68.8477	84.488	68.8477	84.12	68.8477	84.4322	68.8477	84.1285	68.8477	84.3778	68.8477	84.1513	68.8477	84.3252	68.8477	84.1853	68.8477	84.2746	68.8477	84.2273
71.7773	84.344	71.7773	84.3221	71.7773	84.3498	71.7773	84.284	71.7773	84.3397	71.7773	84.2306	71.7773	84.3148	71.7773	84.1632	71.7773	84.2763	71.7773	84.0838	71.7773	84.2262	71.7773	83.9952	71.7773	84.1665	71.7773	83.9006	71.7773	84.0998	71.7773	83.8041	71.7773	84.0286	71.7773	83.7098	71.7773	83.9557	71.7773	83.6222	71.7773	83.8834	71.7773	83.5456	71.7773	83.8139	71.7773	83.4835	71.7773	83.7486	71.7773	83.4386	71.7773	83.6884	71.7773	83.4119	71.7773	83.6332	71.7773	83.4028	71.7773	83.5828	71.7773	83.4096	71.7773	83.5367	71.7773	83.4292	71.7773	83.4951	71.7773	83.4586
74.707	83.7191	74.707	83.704	74.707	83.716	74.707	83.6709	74.707	83.695	74.707	83.6206	74.707	83.6572	74.707	83.5544	74.707	83.604	74.707	83.4745	74.707	83.5373	74.707	83.3835	74.707	83.4597	74.707	83.2847	74.707	83.374	74.707	83.1819	74.707	83.2836	74.707	83.0793	74.707	83.1918	74.707	82.9811	74.707	83.102	74.707	82.8915	74.707	83.0172	74.707	82.8141	74.707	82.9398	74.707	82.7516	74.707	82.8714	74.707	82.7054	74.707	82.8128	74.707	82.6758	74.707	82.7639	74.707	82.6616	74.707	82.7244	74.707	82.6612	74.707	82.6939	74.707	82.6725
77.6367	83.072	77.6367	83.0543	77.6367	83.0692	77.6367	83.0165	77.6367	83.0463	77.6367	82.9593	77.6367	83.0041	77.6367	82.8844	77.6367	82.9443	77.6367	82.794	77.6367	82.8686	77.6367	82.6911	77.6367	82.7799	77.6367	82.5791	77.6367	82.6811	77.6367	82.4624	77.6367	82.5759	77.6367	82.3454	77.6367	82.468	77.6367	82.2328	77.6367	82.3615	77.6367	82.1291	77.6367	82.26	77.6367	82.0385	77.6367	82.1666	77.6367	81.9638	77.6367	82.0837	77.6367	81.9069	77.6367	82.0126	77.6367	81.8682	77.6367	81.9539	77.6367	81.8471	77.6367	81.9075	77.6367	81.8419	77.6367	81.8732	77.6367	81.8511
79.1016	82.7551	79.1016	82.7367	79.1016	82.7519	79.1016	82.6968	79.1016	82.7275	79.1016	82.6364	79.1016	82.6828	79.1016	82.557	79.1016	82.6194	79.1016	82.4608	79.1016	82.5394	79.1016	82.3509	79.1016	82.4455	79.1016	82.2312	79.1016	82.341	79.1016	82.106	79.1016	82.2295	79.1016	81.9805	79.1016	82.1153	79.1016	81.8597	79.1016	82.0023	79.1016	81.7487	79.1016	81.8947	79.1016	81.6519	79.1016	81.7955	79.1016	81.5727	79.1016	81.7075	79.1016	81.5128	79.1016	81.632	79.1016	81.4728	79.1016	81.5694	79.1016	81.4516	79.1016	81.5198	79.1016	81.4474	79.1016	81.4827	79.1016	81.4583
82.0312	82.2856	82.0312	82.2636	82.0312	82.2836	82.0312	82.2178	82.0312	82.2581	82.0312	82.1494	82.0312	82.2099	82.0312	82.0599	82.0312	82.1408	82.0312	81.952	82.0312	82.0528	82.0312	81.829	82.0312	81.949	82.0312	81.695	82.0312	81.8328	82.0312	81.555	82.0312	81.7084	82.0312	81.4145	82.0312	81.5802	82.0312	81.2791	82.0312	81.4528	82.0312	81.1546	82.0312	81.3309	82.0312	81.046	82.0312	81.2182	82.0312	80.957	82.0312	81.1177	82.0312	80.89	82.0312	81.0312	82.0312	80.8454	82.0312	80.9594	82.0312	80.8221	82.0312	80.9023	82.0312	80.8181	82.0312	80.8595	82.0312	80.8311
84.9609	81.8581	84.9609	81.8374	84.9609	81.8528	84.9609	81.7907	84.9609	81.8219	84.9609	81.7188	84.9609	81.7668	84.9609	81.6236	84.9609	81.6892	84.9609	81.5076	84.9609	81.5919	84.9609	81.3743	84.9609	81.4778	84.9609	81.2282	84.9609	81.351	84.9609	81.0746	84.9609	81.2158	84.9609	80.9195	84.9609	81.0769	84.9609	80.7693	84.9609	80.9394	84.9609	80.6303	84.9609	80.8079	84.9609	80.5083	84.9609	80.6863	84.9609	80.4079	84.9609	80.5778	84.9609	80.332	84.9609	80.4841	84.9609	80.2812	84.9609	80.406	84.9609	80.2547	84.9609	80.3433	84.9609	80.25	84.9609	80.2961	84.9609	80.2645
87.8906	81.6468	87.8906	81.6278	87.8906	81.6383	87.8906	81.5813	87.8906	81.603	87.8906	81.508	87.8906	81.5424	87.8906	81.4096	87.8906	81.4586	87.8906	81.2886	87.8906	81.3543	87.8906	81.1486	87.8906	81.2329	87.8906	80.9941	87.8906	81.0987	87.8906	80.8309	87.8906	80.9563	87.8906	80.6654	87.8906	80.8108	87.8906	80.5046	87.8906	80.6674	87.8906	80.3556	87.8906	80.5309	87.8906	80.225	87.8906	80.4056	87.8906	80.118	87.8906	80.2941	87.8906	80.0377	87.8906	80.1982	87.8906	79.9848	87.8906	80.1183	87.8906	79.9581	87.8906	80.0538	87.8906	79.9546	87.8906	80.0046	87.8906	79.971
90.8203	81.6516	90.8203	81.6359	90.8203	81.6374	90.8203	81.5902	90.8203	81.5942	90.8203	81.5151	90.8203	81.5237	90.8203	81.4122	90.8203	81.4282	90.8203	81.2839	90.8203	81.3109	90.8203	81.1338	90.8203	81.1755	90.8203	80.9668	90.8203	81.0268	90.8203	80.7885	90.8203	80.87	90.8203	80.606	90.8203	80.7108	90.8203	80.4269	90.8203	80.5549	90.8203	80.2593	90.8203	80.4075	90.8203	80.1109	90.8203	80.2729	90.8203	79.9881	90.8203	80.154	90.8203	79.895	90.8203	80.0522	90.8203	79.833	90.8203	79.9674	90.8203	79.8007	90.8203	79.8991	90.8203	79.7949	90.8203	79.8469	90.8203	79.8114
95.2148	81.8365	95.2148	81.8284	95.2148	81.8125	95.2148	81.7878	95.2148	81.7574	95.2148	81.7152	95.2148	81.6732	95.2148	81.6121	95.2148	81.5625	95.2148	81.4808	95.2148	81.4288	95.2148	81.325	95.2148	81.2765	95.2148	81.1494	95.2148	81.111	95.2148	80.9599	95.2148	80.9384	95.2148	80.764	95.2148	80.7652	95.2148	80.5698	95.2148	80.5981	95.2148	80.3863	95.2148	80.443	95.2148	80.2221	95.2148	80.3044	95.2148	80.0847	95.2148	80.185	95.2148	79.9789	95.2148	80.0855	95.2148	79.9066	95.2148	80.005	95.2148	79.8662	95.2148	79.9419	95.2148	79.8539	95.2148	79.8951	95.2148	79.8649
98.1445	82.1262	98.1445	82.1258	98.1445	82.0929	98.1445	82.0913	98.1445	82.0272	98.1445	82.0227	98.1445	81.9315	98.1445	81.9215	98.1445	81.8087	98.1445	81.7898	98.1445	81.6628	98.1445	81.631	98.1445	81.4987	98.1445	81.4498	98.1445	81.3225	98.1445	81.2523	98.1445	81.1408	98.1445	81.0458	98.1445	80.9607	98.1445	80.8392	98.1445	80.7892	98.1445	80.642	98.1445	80.6322	98.1445	80.464	98.1445	80.4939	98.1445	80.3135	98.1445	80.3764	98.1445	80.1967	98.1445	80.2793	98.1445	80.1159	98.1445	80.2011	98.1445	80.07	98.1445	80.1396	98.1445	80.0546	98.1445	80.0937	98.1445	80.0643
101.074	82.4453	101.074	82.4589	101.074	82.3956	101.074	82.4359	101.074	82.3111	101.074	82.3765	101.074	82.1941	101.074	82.282	101.074	82.0481	101.074	82.1546	101.074	81.8775	101.074	81.9975	101.074	81.6885	101.074	81.8152	101.074	81.4882	101.074	81.6135	101.074	81.2852	101.074	81.4	101.074	81.0887	101.074	81.1834	101.074	80.9075	101.074	80.9739	101.074	80.7487	101.074	80.7819	101.074	80.617	101.074	80.6171	101.074	80.5133	101.074	80.4862	101.074	80.4355	101.074	80.3923	101.074	80.3791	101.074	80.3338	101.074	80.3394	101.074	80.3056	101.074	80.3133	101.074	80.3008
105.469	83.1268	105.469	83.1584	105.469	83.0559	105.469	83.1511	105.469	82.9458	105.469	83.1061	105.469	82.7976	105.469	83.025	105.469	82.6133	105.469	82.91	105.469	82.3965	105.469	82.7643	105.469	82.1527	105.469	82.5914	105.469	81.8898	105.469	82.3959	105.469	81.6184	105.469	82.1832	105.469	81.3515	105.469	81.9599	105.469	81.1032	105.469	81.7335	105.469	80.8878	105.469	81.5121	105.469	80.7164	105.469	81.3038	105.469	80.5952	105.469	81.1155	105.469	80.5243	105.469	80.9519	105.469	80.4985	105.469	80.8147	105.469	80.5098	105.469	80.7033	105.469	80.5506	105.469	80.6156
108.398	83.6604	108.398	83.6741	108.398	83.6079	108.398	83.6501	108.398	83.5161	108.398	83.59	108.398	83.3853	108.398	83.4961	108.398	83.2168	108.398	83.3715	108.398	83.0132	108.398	83.2197	108.398	82.779	108.398	83.045	108.398	82.5208	108.398	82.8524	108.398	82.2482	108.398	82.6476	108.398	81.9735	108.398	82.4366	108.398	81.7111	108.398	82.2261	108.398	81.4763	108.398	82.0223	108.398	81.2831	108.398	81.8308	108.398	81.1412	108.398	81.6558	108.398	81.0542	108.398	81.4997	108.398	81.0195	108.398	81.3635	108.398	81.0299	108.398	81.2469	108.398	81.0762	108.398	81.1503
112.793	84.0656	112.793	84.0647	112.793	84.0254	112.793	84.0236	112.793	83.9436	112.793	83.9443	112.793	83.8208	112.793	83.8294	112.793	83.6583	112.793	83.6822	112.793	83.4589	112.793	83.5072	112.793	83.2272	112.793	83.3099	112.793	82.97	112.793	83.0966	112.793	82.697	112.793	82.8749	112.793	82.4206	112.793	82.6528	112.793	82.1554	112.793	82.4388	112.793	81.9172	112.793	82.2404	112.793	81.7199	112.793	82.0635	112.793	81.5732	112.793	81.9111	112.793	81.4804	112.793	81.7834	112.793	81.4378	112.793	81.6778	112.793	81.4369	112.793	81.5909	112.793	81.4674	112.793	81.5204
117.188	84.19	117.188	84.1874	117.188	84.1497	117.188	84.1431	117.188	84.0658	117.188	84.059	117.188	83.9385	117.188	83.9377	117.188	83.7686	117.188	83.7825	117.188	83.5586	117.188	83.5977	117.188	83.3126	117.188	83.3886	117.188	83.0375	117.188	83.1616	117.188	82.7429	117.188	82.9245	117.188	82.4422	117.188	82.6857	117.188	82.1519	117.188	82.4545	117.188	81.8897	117.188	82.2394	117.188	81.6721	117.188	82.0474	117.188	81.511	117.188	81.8823	117.188	81.4103	117.188	81.7445	117.188	81.366	117.188	81.6311	117.188	81.3676	117.188	81.5378	117.188	81.4029	117.188	81.4615
120.117	84.1828	120.117	84.1749	120.117	84.1476	120.117	84.1256	120.117	84.0681	120.117	84.0373	120.117	83.9439	120.117	83.9132	120.117	83.7753	120.117	83.7568	120.117	83.5642	120.117	83.5728	120.117	83.314	120.117	83.3666	120.117	83.0309	120.117	83.1442	120.117	82.7242	120.117	82.9126	120.117	82.4073	120.117	82.6793	120.117	82.0974	120.117	82.4521	120.117	81.8141	120.117	82.2383	120.117	81.5767	120.117	82.0435	120.117	81.3999	120.117	81.8708	120.117	81.2906	120.117	81.7205	120.117	81.2459	120.117	81.5906	120.117	81.2553	120.117	81.478	120.117	81.3048	120.117	81.3818
124.512	83.9197	124.512	83.8913	124.512	83.904	124.512	83.821	124.512	83.8433	124.512	83.7116	124.512	83.7369	124.512	83.5672	124.512	83.5856	124.512	83.3927	124.512	83.3908	124.512	83.1944	124.512	83.156	124.512	82.9795	124.512	82.8866	124.512	82.7558	124.512	82.5913	124.512	82.5316	124.512	82.2825	124.512	82.3148	124.512	81.9766	124.512	82.1125	124.512	81.6927	124.512	81.9295	124.512	81.4505	124.512	81.7681	124.512	81.266	124.512	81.6278	124.512	81.148	124.512	81.5055	124.512	81.0952	124.512	81.3971	124.512	81.0981	124.512	81.2995	124.512	81.1421	124.512	81.2128
128.906	83.6042	128.906	83.5584	128.906	83.604	128.906	83.4686	128.906	83.5568	128.906	83.3379	128.906	83.4628	128.906	83.1707	128.906	83.3225	128.906	82.9732	128.906	83.1379	128.906	82.7533	128.906	82.9127	128.906	82.5202	128.906	82.6524	128.906	82.2848	128.906	82.366	128.906	82.0581	128.906	82.0661	128.906	81.8504	128.906	81.7692	128.906	81.6696	128.906	81.4946	128.906	81.52	128.906	81.2622	128.906	81.4009	128.906	81.0876	128.906	81.3073	128.906	80.9787	128.906	81.2312	128.906	80.9327	128.906	81.1639	128.906	80.9379	128.906	81.099	128.906	80.9775	128.906	81.0351
133.301	83.3287	133.301	83.2772	133.301	83.3314	133.301	83.1781	133.301	83.2848	133.301	83.0339	133.301	83.1896	133.301	82.8486	133.301	83.0469	133.301	82.6285	133.301	82.859	133.301	82.382	133.301	82.6296	133.301	82.1198	133.301	82.3645	133.301	81.855	133.301	82.0727	133.301	81.6019	133.301	81.7669	133.301	81.3744	133.301	81.4637	133.301	81.1834	133.301	81.183	133.301	81.035	133.301	80.9449	133.301	80.9281	133.301	80.7657	133.301	80.8555	133.301	80.653	133.301	80.8053	133.301	80.6034	133.301	80.7647	133.301	80.6035	133.301	80.7238	133.301	80.6347	133.301	80.6789
139.16	82.9973	139.16	82.9432	139.16	82.9994	139.16	82.8379	139.16	82.9495	139.16	82.6835	139.16	82.8485	139.16	82.4837	139.16	82.6979	139.16	82.2446	139.16	82.5002	139.16	81.975	139.16	82.2597	139.16	81.687	139.16	81.9825	139.16	81.3961	139.16	81.6782	139.16	81.1201	139.16	81.3606	139.16	80.8765	139.16	81.0477	139.16	80.68	139.16	80.7608	139.16	80.5376	139.16	80.5217	139.16	80.4472	139.16	80.3469	139.16	80.3978	139.16	80.2431	139.16	80.3727	139.16	80.2046	139.16	80.3546	139.16	80.2147	139.16	80.3303	139.16	80.2514	139.16	80.2945
143.555	82.8022	143.555	82.7353	143.555	82.8152	143.555	82.6149	143.555	82.7746	143.555	82.4428	143.555	82.6816	143.555	82.2225	143.555	82.5379	143.555	81.9601	143.555	82.3463	143.555	81.6646	143.555	82.1106	143.555	81.3495	143.555	81.8368	143.555	81.0319	143.555	81.5338	143.555	80.7328	143.555	81.2143	143.555	80.4736	143.555	80.8959	143.555	80.272	143.555	80.5996	143.555	80.137	143.555	80.3478	143.555	80.0654	143.555	80.1586	143.555	80.0427	143.555	80.0407	143.555	80.0474	143.555	79.9893	143.555	80.0578	143.555	79.9877	143.555	80.0578	143.555	80.0125	143.555	80.0411
147.949	82.6376	147.949	82.5665	147.949	82.6513	147.949	82.4376	147.949	82.6087	147.949	82.2518	147.949	82.5121	147.949	82.012	147.949	82.3643	147.949	81.7238	147.949	82.169	147.949	81.3967	147.949	81.9315	147.949	81.0448	147.949	81.6586	147.949	80.6884	147.949	81.3602	147.949	80.3526	147.949	81.0493	147.949	80.0649	147.949	80.7429	147.949	79.8488	147.949	80.4606	147.949	79.7173	147.949	80.222	147.949	79.6671	147.949	80.0424	147.949	79.6799	147.949	79.9272	147.949	79.7284	147.949	79.8699	147.949	79.7848	147.949	79.8531	147.949	79.8287	147.949	79.854	147.949	79.8506
153.809	82.6472	153.809	82.5755	153.809	82.6564	153.809	82.4404	153.809	82.6047	153.809	82.2425	153.809	82.494	153.809	81.9838	153.809	82.3272	153.809	81.6693	153.809	82.1074	153.809	81.308	153.809	81.8396	153.809	80.9146	153.809	81.5308	153.809	80.5107	153.809	81.1916	153.809	80.1248	153.809	80.8373	153.809	79.7896	153.809	80.4883	153.809	79.535	153.809	80.1692	153.809	79.3789	153.809	79.9044	153.809	79.32	153.809	79.7118	153.809	79.3375	153.809	79.5968	153.809	79.3986	153.809	79.5485	153.809	79.4698	153.809	79.5436	153.809	79.5253	153.809	79.5534	153.809	79.5524
159.668	82.7846	159.668	82.7334	159.668	82.7759	159.668	82.6184	159.668	82.7113	159.668	82.4367	159.668	82.5952	159.668	82.1861	159.668	82.4323	159.668	81.8666	159.668	82.2277	159.668	81.4819	159.668	81.9873	159.668	81.0418	159.668	81.7178	159.668	80.5651	159.668	81.428	159.668	80.0832	159.668	81.1288	159.668	79.6399	159.668	80.8335	159.668	79.2855	159.668	80.5578	159.668	79.0621	159.668	80.3168	159.668	78.9851	159.668	80.122	159.668	79.0355	159.668	79.9765	159.668	79.1686	159.668	79.873	159.668	79.3339	159.668	79.794	159.668	79.4915	159.668	79.7167	159.668	79.62
165.527	82.8175	165.527	82.7996	165.527	82.7772	165.527	82.7223	165.527	82.6803	165.527	82.5853	165.527	82.5292	165.527	82.3888	165.527	82.3277	165.527	82.1347	165.527	82.081	165.527	81.827	165.527	81.7972	165.527	81.4742	165.527	81.4875	165.527	81.0905	165.527	81.1677	165.527	80.6987	165.527	80.8575	165.527	80.3306	165.527	80.5798	165.527	80.0236	165.527	80.3563	165.527	79.8118	165.527	80.2026	165.527	79.7135	165.527	80.1216	165.527	79.7219	165.527	80.102	165.527	79.8064	165.527	80.1197	165.527	79.9248	165.527	80.145	165.527	80.0371	165.527	80.15	165.527	80.1158
171.387	82.9184	171.387	82.8801	171.387	82.8944	171.387	82.7787	171.387	82.8093	171.387	82.6142	171.387	82.6644	171.387	82.3871	171.387	82.4618	171.387	82.0998	171.387	82.205	171.387	81.758	171.387	81.8994	171.387	81.3721	171.387	81.5545	171.387	80.9604	171.387	81.1851	171.387	80.5508	171.387	80.8136	171.387	80.1808	171.387	80.4698	171.387	79.8919	171.387	80.1872	171.387	79.7176	171.387	79.9949	171.387	79.6685	171.387	79.9061	171.387	79.7255	171.387	79.9106	171.387	79.8464	171.387	79.9767	171.387	79.9811	171.387	80.0618	171.387	80.087	171.387	80.125	171.387	80.1374
177.246	82.8589	177.246	82.8108	177.246	82.8462	177.246	82.6996	177.246	82.7748	177.246	82.5239	177.246	82.6474	177.246	82.283	177.246	82.4667	177.246	81.9783	177.246	82.2362	177.246	81.6143	177.246	81.9602	177.246	81.2013	177.246	81.6454	177.246	80.7587	177.246	81.3021	177.246	80.318	177.246	80.9463	177.246	79.9228	177.246	80.6012	177.246	79.6223	177.246	80.2961	177.246	79.455	177.246	80.0617	177.246	79.4307	177.246	79.9198	177.246	79.5225	177.246	79.8729	177.246	79.6779	177.246	79.8997	177.246	79.8392	177.246	79.9611	177.246	79.9613	177.246	80.0132	177.246	80.0198
183.105	82.9294	183.105	82.8889	183.105	82.9045	183.105	82.7794	183.105	82.8184	183.105	82.5973	183.105	82.6763	183.105	82.3401	183.105	82.4837	183.105	82.0064	183.105	82.2477	183.105	81.5985	183.105	81.9765	183.105	81.1253	183.105	81.6803	183.105	80.6075	183.105	81.3717	183.105	80.084	183.105	81.0665	183.105	79.6144	183.105	80.784	183.105	79.2707	183.105	80.5456	183.105	79.112	183.105	80.3708	183.105	79.1516	183.105	80.2704	183.105	79.346	183.105	80.2404	183.105	79.6176	183.105	80.259	183.105	79.889	183.105	80.2909	183.105	80.1056	183.105	80.2965	183.105	80.2415
188.965	83.2661	188.965	83.284	188.965	83.1813	188.965	83.2315	188.965	83.0337	188.965	83.1044	188.965	82.8283	188.965	82.8984	188.965	82.5721	188.965	82.6083	188.965	82.2745	188.965	82.2298	188.965	81.948	188.965	81.762	188.965	81.6092	188.965	81.2128	188.965	81.2781	188.965	80.6066	188.965	80.9776	188.965	79.9947	188.965	80.7299	188.965	79.4598	188.965	80.5527	188.965	79.1014	188.965	80.4535	188.965	78.9906	188.965	80.4254	188.965	79.1227	188.965	80.4466	188.965	79.417	188.965	80.4833	188.965	79.7658	188.965	80.4967	188.965	80.0818	188.965	80.4497	188.965	80.3148
196.289	83.3222	196.289	83.3713	196.289	83.207	196.289	83.3531	196.289	83.0274	196.289	83.2663	196.289	82.7861	196.289	83.1083	196.289	82.4884	196.289	82.8756	196.289	82.1434	196.289	82.5643	196.289	81.7662	196.289	82.1722	196.289	81.379	196.289	81.7035	196.289	81.0129	196.289	81.1754	196.289	80.7046	196.289	80.6274	196.289	80.4897	196.289	80.1277	196.289	80.3904	196.289	79.7646	196.289	80.4057	196.289	79.6131	196.289	80.509	196.289	79.689	196.289	80.6555	196.289	79.9342	196.289	80.7944	196.289	80.251	196.289	80.8798	196.289	80.5483	196.289	80.8768	196.289	80.766
203.613	82.9984	203.613	83.0418	203.613	82.8858	203.613	83.0208	203.613	82.6981	203.613	82.9385	203.613	82.4284	203.613	82.7958	203.613	82.0701	203.613	82.5913	203.613	81.6189	203.613	82.3215	203.613	81.0765	203.613	81.9822	203.613	80.4575	203.613	81.5723	203.613	79.8001	203.613	81.0996	203.613	79.1779	203.613	80.5896	203.613	78.6996	203.613	80.0939	203.613	78.4754	203.613	79.6893	203.613	78.5507	203.613	79.4555	203.613	78.866	203.613	79.4317	203.613	79.2944	203.613	79.5855	203.613	79.7096	203.613	79.828	203.613	80.0232	203.613	80.0577	203.613	80.1887	203.613	80.1942
210.938	82.4356	210.938	82.4199	210.938	82.3925	210.938	82.3494	210.938	82.2855	210.938	82.2262	210.938	82.1084	210.938	82.0502	210.938	81.8538	210.938	81.8188	210.938	81.5139	210.938	81.5277	210.938	81.0816	210.938	81.1724	210.938	80.553	210.938	80.7524	210.938	79.9347	210.938	80.277	210.938	79.2542	210.938	79.7726	210.938	78.5748	210.938	79.289	210.938	78.0037	210.938	78.8966	210.938	77.6679	210.938	78.6634	210.938	77.6425	210.938	78.6171	210.938	77.8871	210.938	78.7205	210.938	78.2693	210.938	78.8869	210.938	78.6467	210.938	79.02	210.938	78.9203	210.938	79.0446
218.262	81.8612	218.262	81.8265	218.262	81.8356	218.262	81.7353	218.262	81.7469	218.262	81.592	218.262	81.5927	218.262	81.4014	218.262	81.371	218.262	81.1678	218.262	81.0798	218.262	80.8939	218.262	80.7183	218.262	80.5816	218.262	80.2896	218.262	80.234	218.262	79.8055	218.262	79.8604	218.262	79.2936	218.262	79.4827	218.262	78.8042	218.262	79.1398	218.262	78.4102	218.262	78.8834	218.262	78.1876	218.262	78.7585	218.262	78.1765	218.262	78.7764	218.262	78.3505	218.262	78.9008	218.262	78.6268	218.262	79.0615	218.262	78.908	218.262	79.1836	218.262	79.1169	218.262	79.211
225.586	81.6295	225.586	81.6238	225.586	81.561	225.586	81.5464	225.586	81.4152	225.586	81.3995	225.586	81.1882	225.586	81.1844	225.586	80.8762	225.586	80.9023	225.586	80.4763	225.586	80.5545	225.586	79.9892	225.586	80.1444	225.586	79.4246	225.586	79.682	225.586	78.8113	225.586	79.1909	225.586	78.2105	225.586	78.7183	225.586	77.724	225.586	78.3385	225.586	77.4732	225.586	78.1377	225.586	77.5349	225.586	78.1702	225.586	77.877	225.586	78.4161	225.586	78.3736	225.586	78.7848	225.586	78.8799	225.586	79.1612	225.586	79.2861	225.586	79.448	225.586	79.5285	225.586	79.5811
232.91	81.4932	232.91	81.4651	232.91	81.4566	232.91	81.3803	232.91	81.3458	232.91	81.245	232.91	81.1497	232.91	81.0627	232.91	80.8549	232.91	80.8334	232.91	80.4461	232.91	80.5539	232.91	79.906	232.91	80.2194	232.91	79.2197	232.91	79.8274	232.91	78.3854	232.91	79.3851	232.91	77.4379	232.91	78.9195	232.91	76.494	232.91	78.4875	232.91	75.7943	232.91	78.173	232.91	75.6246	232.91	78.0569	232.91	76.0566	232.91	78.1628	232.91	76.8486	232.91	78.4281	232.91	77.6867	232.91	78.733	232.91	78.3707	232.91	78.9552	232.91	78.8148	232.91	79.0017
241.699	81.282	241.699	81.1152	241.699	81.379	241.699	80.8901	241.699	81.396	241.699	80.6205	241.699	81.3223	241.699	80.3229	241.699	81.1439	241.699	80.0149	241.699	80.8414	241.699	79.7121	241.699	80.3882	241.699	79.4243	241.699	79.7506	241.699	79.1544	241.699	78.8903	241.699	78.9017	241.699	77.7768	241.699	78.6697	241.699	76.4257	241.699	78.4755	241.699	75.0032	241.699	78.3507	241.699	73.9934	241.699	78.3285	241.699	74.011	241.699	78.4158	241.699	74.9826	241.699	78.5726	241.699	76.245	241.699	78.7164	241.699	77.3411	241.699	78.7476	241.699	78.1201	241.699	78.5735
250.488	82.2897	250.488	82.0461	250.488	82.4397	250.488	81.7012	250.488	82.5029	250.488	81.2468	250.488	82.4829	250.488	80.6758	250.488	82.3783	250.488	79.9848	250.488	82.1796	250.488	79.179	250.488	81.8682	250.488	78.2852	250.488	81.4144	250.488	77.3708	250.488	80.7781	250.488	76.564	250.488	79.9112	250.488	76.0407	250.488	78.7654	250.488	75.9333	250.488	77.3187	250.488	76.2188	250.488	75.6596	250.488	76.7317	250.488	74.1902	250.488	77.2788	250.488	73.6837	250.488	77.7128	250.488	74.3966	250.488	77.9353	250.488	75.6205	250.488	77.8771	250.488	76.7235	250.488	77.4845
259.277	82.1472	259.277	82.0801	259.277	82.1547	259.277	81.941	259.277	82.1136	259.277	81.7162	259.277	82.0317	259.277	81.3921	259.277	81.9109	259.277	80.9544	259.277	81.7449	259.277	80.3897	259.277	81.5173	259.277	79.6882	259.277	81.2008	259.277	78.853	259.277	80.7603	259.277	77.9199	259.277	80.1582	259.277	76.9919	259.277	79.366	259.277	76.2661	259.277	78.3875	259.277	75.9718	259.277	77.3057	259.277	76.1788	259.277	76.3465	259.277	76.7039	259.277	75.8525	259.277	77.2734	259.277	76.0012	259.277	77.6839	259.277	76.5772	259.277	77.8278	259.277	77.2137	259.277	77.665
268.066	82.158	268.066	82.0904	268.066	82.165	268.066	81.9504	268.066	82.1214	268.066	81.724	268.066	82.0366	268.066	81.3927	268.066	81.9168	268.066	80.9334	268.066	81.7622	268.066	80.3197	268.066	81.5622	268.066	79.5272	268.066	81.2934	268.066	78.5467	268.066	80.9196	268.066	77.4154	268.066	80.3967	268.066	76.2788	268.066	79.6829	268.066	75.4507	268.066	78.7587	268.066	75.2823	268.066	77.6682	268.066	75.7818	268.066	76.5924	268.066	76.581	268.066	75.8887	268.066	77.3135	268.066	75.8687	268.066	77.781	268.066	76.418	268.066	77.9049	268.066	77.1263	268.066	77.6717
276.855	82.3226	276.855	82.3327	276.855	82.2603	276.855	82.2784	276.855	82.1581	276.855	82.1458	276.855	82.0291	276.855	81.9159	276.855	81.8853	276.855	81.5606	276.855	81.7335	276.855	81.0393	276.855	81.5705	276.855	80.2964	276.855	81.3796	276.855	79.2599	276.855	81.1298	276.855	77.8452	276.855	80.7807	276.855	75.9838	276.855	80.2911	276.855	73.7759	276.855	79.6338	276.855	72.0064	276.855	78.8185	276.855	72.1208	276.855	77.9269	276.855	73.6967	276.855	77.1427	276.855	75.2855	276.855	76.6952	276.855	76.3723	276.855	76.6671	276.855	76.9285	276.855	76.8809	276.855	77.0466
287.109	81.8716	287.109	82.0091	287.109	81.6723	287.109	82.0856	287.109	81.4148	287.109	82.1016	287.109	81.1092	287.109	82.0532	287.109	80.7742	287.109	81.9273	287.109	80.4354	287.109	81.6984	287.109	80.1207	287.109	81.328	287.109	79.8512	287.109	80.7669	287.109	79.6309	287.109	79.9615	287.109	79.443	287.109	78.8686	287.109	79.2576	287.109	77.4939	287.109	79.0489	287.109	75.9902	287.109	78.8137	287.109	74.8161	287.109	78.5787	287.109	74.581	287.109	78.3871	287.109	75.2723	287.109	78.2623	287.109	76.2723	287.109	78.1711	287.109	77.1302	287.109	78.0234	287.109	77.7066
297.363	82.7532	297.363	82.8583	297.363	82.5745	297.363	82.9021	297.363	82.3093	297.363	82.8919	297.363	81.9462	297.363	82.8252	297.363	81.4762	297.363	82.6869	297.363	80.8926	297.363	82.4479	297.363	80.1928	297.363	82.0667	297.363	79.3849	297.363	81.4908	297.363	78.504	297.363	80.6615	297.363	77.6392	297.363	79.5242	297.363	76.9544	297.363	78.0636	297.363	76.6479	297.363	76.4137	297.363	76.8092	297.363	75.0852	297.363	77.3198	297.363	74.8682	297.363	77.9493	297.363	75.7672	297.363	78.4988	297.363	76.985	297.363	78.8423	297.363	77.9914	297.363	78.9042	297.363	78.6328
307.617	82.5842	307.617	82.4751	307.617	82.6396	307.617	82.337	307.617	82.6263	307.617	82.2001	307.617	82.5373	307.617	82.0875	307.617	82.3678	307.617	81.9983	307.617	82.1083	307.617	81.8977	307.617	81.7383	307.617	81.7221	307.617	81.222	307.617	81.3933	307.617	80.509	307.617	80.8357	307.617	79.5421	307.617	79.9925	307.617	78.2846	307.617	78.8556	307.617	76.8029	307.617	77.5419	307.617	75.465	307.617	76.4293	307.617	75.0216	307.617	76.0935	307.617	75.7604	307.617	76.6575	307.617	76.9831	307.617	77.5828	307.617	78.0227	307.617	78.3519	307.617	78.6221	307.617	78.7261
319.336	82.6225	319.336	82.5652	319.336	82.6275	319.336	82.4686	319.336	82.5746	319.336	82.3523	319.336	82.4628	319.336	82.2357	319.336	82.2896	319.336	82.1277	319.336	82.0445	319.336	82.0142	319.336	81.7014	319.336	81.8541	319.336	81.2153	319.336	81.5866	319.336	80.5223	319.336	81.1449	319.336	79.5445	319.336	80.4742	319.336	78.2092	319.336	79.5544	319.336	76.5164	319.336	78.4444	319.336	74.7681	319.336	77.36	319.336	73.903	319.336	76.6935	319.336	74.6027	319.336	76.7228	319.336	76.0132	319.336	77.2446	319.336	77.2144	319.336	77.8076	319.336	77.9117	319.336	78.0849
329.59	82.0242	329.59	81.9164	329.59	82.0603	329.59	81.7559	329.59	82.0296	329.59	81.5809	329.59	81.9567	329.59	81.4332	329.59	81.8744	329.59	81.3331	329.59	81.8054	329.59	81.2591	329.59	81.7426	329.59	81.1478	329.59	81.6375	329.59	80.9157	329.59	81.4047	329.59	80.4873	329.59	80.9368	329.59	79.8232	329.59	80.1191	329.59	78.9599	329.59	78.8501	329.59	78.0734	329.59	77.1102	329.59	77.504	329.59	75.2403	329.59	77.5327	329.59	74.4038	329.59	78.0364	329.59	75.3493	329.59	78.6146	329.59	76.9209	329.59	78.9363	329.59	78.152	329.59	78.8156
341.309	82.1636	341.309	82.0355	341.309	82.1354	341.309	81.7629	341.309	81.9633	341.309	81.3849	341.309	81.6821	341.309	80.9701	341.309	81.3482	341.309	80.6021	341.309	81.029	341.309	80.3376	341.309	80.7777	341.309	80.1595	341.309	80.5962	341.309	79.9709	341.309	80.4158	341.309	79.644	341.309	80.1147	341.309	79.0812	341.309	79.5599	341.309	78.2743	341.309	78.6554	341.309	77.3913	341.309	77.4267	341.309	76.8419	341.309	76.2223	341.309	77.0197	341.309	75.8326	341.309	77.7869	341.309	76.6124	341.309	78.6383	341.309	77.8392	341.309	79.1934	341.309	78.8107	341.309	79.2727
353.027	83.0833	353.027	82.9996	353.027	83.0151	353.027	82.7592	353.027	82.8079	353.027	82.3695	353.027	82.4811	353.027	81.8532	353.027	82.0608	353.027	81.2483	353.027	81.5816	353.027	80.5951	353.027	81.0835	353.027	79.9105	353.027	80.5976	353.027	79.16	353.027	80.1193	353.027	78.2567	353.027	79.5852	353.027	77.1117	353.027	78.8794	353.027	75.7706	353.027	77.8744	353.027	74.7031	353.027	76.5222	353.027	74.7998	353.027	75.0971	353.027	76.0874	353.027	74.5271	353.027	77.6014	353.027	75.4757	353.027	78.7159	353.027	77.072	353.027	79.2407	353.027	78.3938	353.027	79.1347
366.211	83.5446	366.211	83.4814	366.211	83.4746	366.211	83.2996	366.211	83.2687	366.211	83.0238	366.211	82.9369	366.211	82.6843	366.211	82.5034	366.211	82.3072	366.211	82.0076	366.211	81.8997	366.211	81.4981	366.211	81.433	366.211	81.0162	366.211	80.8323	366.211	80.5655	366.211	79.9752	366.211	80.0899	366.211	78.6972	366.211	79.481	366.211	76.8093	366.211	78.6234	366.211	74.2589	366.211	77.483	366.211	72.1497	366.211	76.2994	366.211	73.1738	366.211	75.7886	366.211	75.791	366.211	76.4795	366.211	77.8194	366.211	77.7593	366.211	78.9485	366.211	78.8065	366.211	79.2482
379.395	83.6482	379.395	83.5391	379.395	83.645	379.395	83.3358	379.395	83.5304	379.395	83.0819	379.395	83.315	379.395	82.8426	379.395	83.0119	379.395	82.6789	379.395	82.6292	379.395	82.6044	379.395	82.1632	379.395	82.5573	379.395	81.5916	379.395	82.4154	379.395	80.8692	379.395	82.0326	379.395	79.9274	379.395	81.259	379.395	78.6844	379.395	79.9335	379.395	77.0829	379.395	77.8618	379.395	75.2246	379.395	74.8506	379.395	73.7164	379.395	71.4138	379.395	73.5932	379.395	71.0166	379.395	74.6907	379.395	73.5172	379.395	75.876	379.395	75.4952	379.395	76.5339	379.395	76.4537
392.578	83.2452	392.578	83.1257	392.578	83.1963	392.578	82.8406	392.578	83.0015	392.578	82.4245	392.578	82.709	392.578	81.9535	392.578	82.3919	392.578	81.5428	392.578	82.1313	392.578	81.2988	392.578	81.9756	392.578	81.2334	392.578	81.8961	392.578	81.2253	392.578	81.7784	392.578	81.0779	392.578	81.4537	392.578	80.6001	392.578	80.7315	392.578	79.6479	392.578	79.4036	392.578	78.169	392.578	77.2415	392.578	76.3812	392.578	74.191	392.578	75.174	392.578	71.9634	392.578	75.5417	392.578	73.6169	392.578	76.8065	392.578	76.1423	392.578	77.8462	392.578	77.6798	392.578	78.1974
405.762	84.1716	405.762	84.064	405.762	84.0496	405.762	83.7355	405.762	83.7093	405.762	83.2215	405.762	83.187	405.762	82.5997	405.762	82.5535	405.762	82.0013	405.762	81.922	405.762	81.5742	405.762	81.4272	405.762	81.3771	405.762	81.1512	405.762	81.3006	405.762	81.0357	405.762	81.1269	405.762	80.8844	405.762	80.6428	405.762	80.4512	405.762	79.6969	405.762	79.5064	405.762	78.246	405.762	77.8646	405.762	76.5508	405.762	75.5384	405.762	75.5569	405.762	73.5934	405.762	76.11	405.762	74.2497	405.762	77.374	405.762	76.3102	405.762	78.3019	405.762	77.852	405.762	78.503
420.41	84.2834	420.41	84.066	420.41	84.2724	420.41	83.6288	420.41	84.0498	420.41	83.035	420.41	83.6432	420.41	82.4377	420.41	83.0938	420.41	82.0694	420.41	82.4786	420.41	82.0935	420.41	81.9381	420.41	82.4202	420.41	81.6388	420.41	82.7633	420.41	81.6244	420.41	82.8377	420.41	81.7123	420.41	82.4351	420.41	81.597	420.41	81.3999	420.41	80.9939	420.41	79.6218	420.41	79.6788	420.41	77.2255	420.41	77.5441	420.41	75.4362	420.41	75.1743	420.41	76.1417	420.41	74.9483	420.41	77.9433	420.41	76.9396	420.41	79.163	420.41	78.6744	420.41	79.4264
435.059	85.7101	435.059	85.5917	435.059	85.5572	435.059	85.1507	435.059	85.159	435.059	84.3148	435.059	84.5236	435.059	83.0127	435.059	83.6637	435.059	81.2586	435.059	82.6476	435.059	79.4433	435.059	81.6784	435.059	78.6612	435.059	81.1011	435.059	79.3861	435.059	81.1149	435.059	80.4789	435.059	81.4659	435.059	81.0497	435.059	81.688	435.059	80.833	435.059	81.4356	435.059	79.8326	435.059	80.5358	435.059	78.4001	435.059	79.0463	435.059	77.6636	435.059	77.6627	435.059	78.527	435.059	77.7859	435.059	79.9752	435.059	79.2237	435.059	80.9615	435.059	80.5556	435.059	81.1705
451.172	86.1076	451.172	86.0017	451.172	86.047	451.172	85.7092	451.172	85.8184	451.172	85.1949	451.172	85.3981	451.172	84.4234	451.172	84.7466	451.172	83.3874	451.172	83.8218	451.172	82.1627	451.172	82.6008	451.172	80.9782	451.172	81.1202	451.172	80.158	451.172	79.5304	451.172	79.7657	451.172	78.072	451.172	79.4046	451.172	76.8169	451.172	78.5297	451.172	75.4437	451.172	76.6943	451.172	73.657	451.172	73.8569	451.172	72.7047	451.172	72.7594	451.172	74.8899	451.172	75.8352	451.172	77.9806	451.172	78.8723	451.172	80.1901	451.172	80.7302	451.172	81.3485	451.172	81.5245
465.82	85.5327	465.82	85.5259	465.82	85.3951	465.82	85.3473	465.82	85.1208	465.82	84.948	465.82	84.7061	465.82	84.267	465.82	84.1438	465.82	83.2579	465.82	83.4284	465.82	81.9438	465.82	82.5696	465.82	80.5221	465.82	81.6176	465.82	79.425	465.82	80.6763	465.82	78.9561	465.82	79.8319	465.82	78.7686	465.82	78.9847	465.82	78.1939	465.82	77.7528	465.82	76.7056	465.82	75.4609	465.82	74.0345	465.82	70.6722	465.82	71.6565	465.82	60.4373	465.82	73.7355	465.82	70.9323	465.82	76.9219	465.82	76.2353	465.82	78.8394	465.82	78.6583	465.82	79.4212
483.398	85.3712	483.398	85.3315	483.398	85.2528	483.398	85.1332	483.398	84.975	483.398	84.7725	483.398	84.5409	483.398	84.2507	483.398	83.9665	483.398	83.5967	483.398	83.2991	483.398	82.8939	483.398	82.6418	483.398	82.27	483.398	82.1489	483.398	81.8006	483.398	81.9225	483.398	81.3826	483.398	81.8634	483.398	80.732	483.398	81.6747	483.398	79.4735	483.398	80.9886	483.398	77.15	483.398	79.3893	483.398	73.2346	483.398	76.1949	483.398	70.0543	483.398	69.4408	483.398	73.7134	483.398	65.076	483.398	77.1021	483.398	73.8918	483.398	78.7296	483.398	77.5087	483.398	78.8838
499.512	85.356	499.512	85.2081	499.512	85.3332	499.512	84.8842	499.512	85.1344	499.512	84.3614	499.512	84.7479	499.512	83.6042	499.512	84.1561	499.512	82.6111	499.512	83.3474	499.512	81.5382	499.512	82.3615	499.512	80.8301	499.512	81.3899	499.512	80.9036	499.512	80.8239	499.512	81.469	499.512	80.9048	499.512	81.8268	499.512	81.2768	499.512	81.4472	499.512	81.3094	499.512	79.905	499.512	80.483	499.512	76.4728	499.512	78.2677	499.512	68.5054	499.512	73.6523	499.512	66.2787	499.512	67.349	499.512	74.9359	499.512	73.3772	499.512	78.0187	499.512	77.3635	499.512	78.6961
517.09	85.6431	517.09	85.6501	517.09	85.3513	517.09	85.3413	517.09	84.81	517.09	84.6814	517.09	84.0623	517.09	83.626	517.09	83.1558	517.09	82.1428	517.09	82.1498	517.09	80.3317	517.09	81.165	517.09	78.7964	517.09	80.4469	517.09	78.7016	517.09	80.2613	517.09	79.9454	517.09	80.5468	517.09	81.2065	517.09	80.8635	517.09	81.7213	517.09	80.7208	517.09	81.1679	517.09	79.6949	517.09	79.2452	517.09	77.2683	517.09	75.4826	517.09	72.5914	517.09	71.1691	517.09	69.2776	517.09	73.9978	517.09	74.4598	517.09	77.2818	517.09	77.5804	517.09	78.4148
536.133	85.5246	536.133	85.4722	536.133	85.4524	536.133	85.2756	536.133	85.2412	536.133	84.8745	536.133	84.8352	536.133	84.16	536.133	84.1229	536.133	82.9727	536.133	82.9342	536.133	81.0992	536.133	81.0599	536.133	78.3271	536.133	78.3672	536.133	75.2472	536.133	75.5851	536.133	75.3482	536.133	75.4805	536.133	77.9063	536.133	77.3899	536.133	79.5697	536.133	78.6172	536.133	79.7997	536.133	78.4594	536.133	78.5592	536.133	76.531	536.133	75.7719	536.133	71.6266	536.133	72.4192	536.133	60.8064	536.133	73.1305	536.133	70.9491	536.133	75.6342	536.133	75.3456	536.133	76.5416
555.176	84.9721	555.176	84.8724	555.176	84.9888	555.176	84.6812	555.176	84.9438	555.176	84.3977	555.176	84.8346	555.176	83.9854	555.176	84.594	555.176	83.3341	555.176	84.0779	555.176	82.2623	555.176	83.0848	555.176	80.5602	555.176	81.3857	555.176	78.1451	555.176	78.8423	555.176	75.798	555.176	76.2398	555.176	75.6005	555.176	76.3976	555.176	76.7215	555.176	78.4024	555.176	76.9969	555.176	79.5706	555.176	75.7997	555.176	79.2343	555.176	73.4089	555.176	76.996	555.176	72.6222	555.176	71.8234	555.176	74.9014	555.176	67.4682	555.176	76.5669	555.176	73.5174	555.176	76.3275
574.219	84.9906	574.219	84.905	574.219	84.9346	574.219	84.6739	574.219	84.7939	574.219	84.341	574.219	84.6329	574.219	83.9372	574.219	84.4571	574.219	83.4155	574.219	84.179	574.219	82.6529	574.219	83.642	574.219	81.5376	574.219	82.6708	574.219	80.1324	574.219	81.1165	574.219	78.8988	574.219	78.9489	574.219	78.4266	574.219	76.5903	574.219	78.3327	574.219	75.2108	574.219	77.5065	574.219	74.992	574.219	74.8837	574.219	74.4997	574.219	68.9331	574.219	73.1747	574.219	68.6304	574.219	72.9716	574.219	75.0525	574.219	75.4767	574.219	77.9892	574.219	77.8401	574.219	78.7606
594.727	84.9713	594.727	85.0607	594.727	84.6883	594.727	84.9146	594.727	84.2893	594.727	84.5462	594.727	83.8368	594.727	83.9921	594.727	83.3376	594.727	83.2353	594.727	82.7328	594.727	82.1396	594.727	81.9173	594.727	80.455	594.727	80.7962	594.727	77.9831	594.727	79.3936	594.727	75.6072	594.727	77.9915	594.727	76.1919	594.727	77.0195	594.727	78.1032	594.727	76.4312	594.727	78.7315	594.727	75.5733	594.727	77.4925	594.727	73.8674	594.727	73.8051	594.727	71.702	594.727	67.285	594.727	71.9727	594.727	71.1201	594.727	74.6091	594.727	75.4917	594.727	76.5598	594.727	76.9887
615.234	84.5299	615.234	84.4641	615.234	84.5196	615.234	84.3305	615.234	84.4396	615.234	84.1596	615.234	84.2924	615.234	83.9707	615.234	84.0516	615.234	83.7052	615.234	83.6285	615.234	83.185	615.234	82.8617	615.234	82.1228	615.234	81.5454	615.234	80.1744	615.234	79.538	615.234	77.294	615.234	77.2386	615.234	75.4282	615.234	76.3841	615.234	76.5502	615.234	77.2624	615.234	77.5907	615.234	77.5871	615.234	77.0038	615.234	75.8827	615.234	74.246	615.234	70.0116	615.234	69.4706	615.234	60.7731	615.234	72.0239	615.234	73.5742	615.234	76.2634	615.234	77.2182	615.234	77.8871
637.207	85.1783	637.207	85.0248	637.207	84.9561	637.207	84.4442	637.207	84.5154	637.207	83.5503	637.207	84.0872	637.207	82.7094	637.207	83.8675	637.207	82.3703	637.207	83.8261	637.207	82.4781	637.207	83.6616	637.207	82.4154	637.207	82.9861	637.207	81.5614	637.207	81.5021	637.207	79.6241	637.207	79.1713	637.207	77.1781	637.207	76.9848	637.207	76.0118	637.207	77.1384	637.207	75.6404	637.207	78.2842	637.207	73.612	637.207	78.0035	637.207	67.9008	637.207	75.0856	637.207	70.1574	637.207	68.8381	637.207	76.4367	637.207	73.2635	637.207	79.2035	637.207	77.9959	637.207	79.6832
659.18	85.2436	659.18	85.342	659.18	84.8389	659.18	85.1031	659.18	84.1606	659.18	84.5113	659.18	83.2449	659.18	83.5862	659.18	82.1819	659.18	82.4278	659.18	81.1728	659.18	81.2736	659.18	80.434	659.18	80.3745	659.18	79.9395	659.18	79.6383	659.18	79.3835	659.18	78.7148	659.18	78.4154	659.18	77.6054	659.18	76.8492	659.18	76.8967	659.18	74.8969	659.18	76.7309	659.18	73.192	659.18	76.0058	659.18	71.5033	659.18	73.1624	659.18	67.5861	659.18	64.196	659.18	55.7657	659.18	66.018	659.18	69.0479	659.18	73.5211	659.18	74.1408	659.18	75.4074
682.617	84.7405	682.617	84.9196	682.617	84.3553	682.617	84.8368	682.617	83.8519	682.617	84.479	682.617	83.3319	682.617	83.873	682.617	82.8583	682.617	83.0599	682.617	82.3639	682.617	82.0366	682.617	81.6351	682.617	80.6985	682.617	80.4761	682.617	78.9628	682.617	79.0509	682.617	77.4846	682.617	78.3667	682.617	77.9434	682.617	79.1946	682.617	79.6094	682.617	80.2742	682.617	80.5289	682.617	80.3125	682.617	79.9073	682.617	78.6676	682.617	77.1317	682.617	74.4179	682.617	70.7766	682.617	63.3731	682.617	68.9301	682.617	69.2651	682.617	74.6456	682.617	74.9199	682.617	76.2978
707.52	85.099	707.52	85.0382	707.52	84.8365	707.52	84.642	707.52	84.22	707.52	83.9149	707.52	83.2032	707.52	82.9494	707.52	81.8708	707.52	81.9439	707.52	80.5758	707.52	81.0819	707.52	79.7006	707.52	80.2515	707.52	79.0305	707.52	78.9179	707.52	77.7766	707.52	76.3475	707.52	75.0863	707.52	72.7932	707.52	71.6208	707.52	73.276	707.52	73.8163	707.52	75.5616	707.52	76.9103	707.52	75.4517	707.52	77.446	707.52	71.9719	707.52	75.3382	707.52	65.7138	707.52	70.9567	707.52	72.4385	707.52	71.4022	707.52	76.2176	707.52	75.207	707.52	76.8759
732.422	84.7747	732.422	84.775	732.422	84.4626	732.422	84.4703	732.422	83.8241	732.422	83.8453	732.422	82.887	732.422	82.9199	732.422	81.7803	732.422	81.8424	732.422	80.7806	732.422	80.9225	732.422	80.1342	732.422	80.338	732.422	79.624	732.422	79.6276	732.422	78.639	732.422	77.9791	732.422	76.5959	732.422	75.1697	732.422	73.2079	732.422	73.4261	732.422	70.3915	732.422	74.4345	732.422	70.9238	732.422	74.7636	732.422	70.4067	732.422	72.1932	732.422	65.3569	732.422	60.6805	732.422	57.5835	732.422	69.3156	732.422	70.7207	732.422	75.446	732.422	75.3278	732.422	76.8238
757.324	84.076	757.324	83.8934	757.324	84.0043	757.324	83.4853	757.324	83.6154	757.324	82.914	757.324	82.8099	757.324	82.2725	757.324	81.6114	757.324	81.6363	757.324	80.3393	757.324	81.0412	757.324	79.457	757.324	80.3946	757.324	79.0382	757.324	79.3571	757.324	78.6491	757.324	77.545	757.324	77.8666	757.324	75.4275	757.324	76.8721	757.324	75.451	757.324	76.5925	757.324	77.1589	757.324	76.8822	757.324	77.8037	757.324	76.1758	757.324	76.1883	757.324	72.9041	757.324	70.4827	757.324	62.3087	757.324	59.5755	757.324	66.7558	757.324	71.5923	757.324	73.0854	757.324	74.2415
785.156	84.6451	785.156	84.5674	785.156	84.418	785.156	84.209	785.156	83.7984	785.156	83.5762	785.156	82.6839	785.156	82.6667	785.156	81.1428	785.156	81.503	785.156	79.6104	785.156	80.3178	785.156	78.8332	785.156	79.5344	785.156	78.8978	785.156	79.0291	785.156	78.6743	785.156	77.8617	785.156	76.9087	785.156	74.7377	785.156	72.0681	785.156	68.8148	785.156	63.9997	785.156	71.0052	785.156	71.5289	785.156	73.9206	785.156	74.5293	785.156	72.1157	785.156	73.9511	785.156	60.0595	785.156	69.8681	785.156	68.9072	785.156	67.2914	785.156	74.6149	785.156	73.0079	785.156	75.4455
811.523	83.6687	811.523	83.4521	811.523	83.7511	811.523	83.1449	811.523	83.5556	811.523	82.6896	811.523	82.9093	811.523	81.9565	811.523	81.6735	811.523	80.7928	811.523	79.8245	811.523	79.1532	811.523	77.8893	811.523	77.4309	811.523	77.1928	811.523	76.7289	811.523	77.6039	811.523	77.0593	811.523	77.5968	811.523	76.6901	811.523	76.4096	811.523	74.7564	811.523	74.2302	811.523	72.9504	811.523	71.9679	811.523	74.1686	811.523	69.4921	811.523	74.527	811.523	65.75	811.523	70.578	811.523	59.8956	811.523	60.5852	811.523	64.7236	811.523	71.3493	811.523	71.4539	811.523	73.637
840.82	84.3822	840.82	84.1839	840.82	84.2457	840.82	83.7258	840.82	83.7106	840.82	83.057	840.82	82.7552	840.82	82.1499	840.82	81.3401	840.82	80.8242	840.82	79.2452	840.82	78.7744	840.82	76.2471	840.82	76.051	840.82	74.5526	840.82	74.4105	840.82	76.9454	840.82	74.6776	840.82	78.8246	840.82	74.5632	840.82	78.3651	840.82	73.8671	840.82	75.555	840.82	73.9104	840.82	73.7404	840.82	74.6331	840.82	74.7602	840.82	73.8402	840.82	73.285	840.82	69.025	840.82	65.6583	840.82	62.2103	840.82	65.4952	840.82	70.9497	840.82	72.2545	840.82	73.438
870.117	84.6958	870.117	84.3515	870.117	84.4866	870.117	83.6446	870.117	83.8294	870.117	82.9673	870.117	83.0306	870.117	82.5368	870.117	82.3628	870.117	82.0882	870.117	81.7394	870.117	81.1026	870.117	80.624	870.117	79.1672	870.117	78.2519	870.117	76.075	870.117	73.647	870.117	72.3979	870.117	70.5663	870.117	71.9232	870.117	74.5265	870.117	73.8168	870.117	75.6885	870.117	74.4272	870.117	73.8933	870.117	73.7226	870.117	70.8114	870.117	71.852	870.117	68.7729	870.117	67.1174	870.117	64.2372	870.117	52.408	870.117	62.1944	870.117	68.0407	870.117	69.6884	870.117	71.2897
900.879	84.9654	900.879	84.7255	900.879	84.7116	900.879	83.9407	900.879	83.9822	900.879	82.6643	900.879	82.7577	900.879	81.0742	900.879	81.1321	900.879	79.5161	900.879	79.4378	900.879	78.6514	900.879	78.2684	900.879	78.3769	900.879	77.8598	900.879	77.271	900.879	77.3251	900.879	73.9211	900.879	75.2379	900.879	67.5325	900.879	70.3889	900.879	68.8342	900.879	72.1504	900.879	74.1519	900.879	76.7106	900.879	76.7928	900.879	77.5573	900.879	76.6237	900.879	75.0584	900.879	72.6985	900.879	68.8618	900.879	59.0154	900.879	63.3117	900.879	65.2899	900.879	67.5438	900.879	68.9787
933.105	85.136	933.105	84.6808	933.105	85.3089	933.105	84.1466	933.105	85.0777	933.105	83.715	933.105	84.3799	933.105	83.2911	933.105	83.1746	933.105	82.539	933.105	81.4795	933.105	81.2378	933.105	79.4974	933.105	79.7123	933.105	77.6415	933.105	78.6333	933.105	76.4414	933.105	77.5971	933.105	76.0275	933.105	75.2771	933.105	75.0934	933.105	69.3916	933.105	71.3136	933.105	58.7344	933.105	65.5212	933.105	70.0569	933.105	71.7389	933.105	70.2564	933.105	73.5006	933.105	61.8488	933.105	70.4506	933.105	63.7122	933.105	58.3884	933.105	71.1769	933.105	67.6332	933.105	71.9526
965.332	84.9366	965.332	84.6529	965.332	84.8473	965.332	83.9936	965.332	84.3168	965.332	83.0361	965.332	83.28	965.332	82.0363	965.332	81.9151	965.332	81.2376	965.332	80.6597	965.332	80.4075	965.332	79.7465	965.332	79.1664	965.332	78.7491	965.332	78.0168	965.332	77.1269	965.332	77.7566	965.332	74.8171	965.332	77.353	965.332	71.9066	965.332	75.5335	965.332	71.0724	965.332	73.5672	965.332	74.6368	965.332	75.1347	965.332	76.6736	965.332	76.2448	965.332	75.7714	965.332	74.5095	965.332	71.9781	965.332	69.6661	965.332	64.6477	965.332	69.2758	965.332	63.7043	965.332	69.6902
1,000.49	85.2681	1,000.49	84.9088	1,000.49	85.0162	1,000.49	84.1673	1,000.49	84.3081	1,000.49	83.4102	1,000.49	83.5238	1,000.49	82.6513	1,000.49	82.7411	1,000.49	81.4823	1,000.49	81.6459	1,000.49	79.5913	1,000.49	80.1775	1,000.49	77.1765	1,000.49	78.9403	1,000.49	74.6973	1,000.49	78.4838	1,000.49	72.2133	1,000.49	78.3262	1,000.49	70.111	1,000.49	77.3924	1,000.49	68.0246	1,000.49	73.8778	1,000.49	67.4133	1,000.49	60.0321	1,000.49	71.8862	1,000.49	71.0853	1,000.49	74.4534	1,000.49	74.383	1,000.49	73.4798	1,000.49	71.2892	1,000.49	66.9071	1,000.49	63.2793	1,000.49	60.8826	1,000.49	68.1065	1,000.49	68.2676
1,035.64	84.663	1,035.64	84.7634	1,035.64	84.3043	1,035.64	84.6069	1,035.64	83.5094	1,035.64	83.7595	1,035.64	82.3111	1,035.64	81.9346	1,035.64	80.9803	1,035.64	79.663	1,035.64	80.0373	1,035.64	78.0219	1,035.64	79.7402	1,035.64	77.5614	1,035.64	79.5146	1,035.64	77.4756	1,035.64	78.9516	1,035.64	76.6975	1,035.64	79.0916	1,035.64	74.3037	1,035.64	79.9803	1,035.64	71.1148	1,035.64	79.6699	1,035.64	69.4244	1,035.64	77.9071	1,035.64	72.1937	1,035.64	75.6014	1,035.64	75.5771	1,035.64	72.007	1,035.64	75.4522	1,035.64	65.4764	1,035.64	70.5178	1,035.64	51.7377	1,035.64	47.5466	1,035.64	60.9948	1,035.64	62.8254
1,072.27	84.4799	1,072.27	84.2124	1,072.27	84.3814	1,072.27	83.4598	1,072.27	83.9634	1,072.27	82.3333	1,072.27	83.0189	1,072.27	81.2056	1,072.27	81.3892	1,072.27	80.5205	1,072.27	79.412	1,072.27	80.2995	1,072.27	78.293	1,072.27	79.7235	1,072.27	78.2909	1,072.27	78.4184	1,072.27	77.3529	1,072.27	77.5227	1,072.27	73.4405	1,072.27	76.2069	1,072.27	69.1495	1,072.27	72.5991	1,072.27	69.0083	1,072.27	65.2285	1,072.27	65.8507	1,072.27	68.4198	1,072.27	71.9886	1,072.27	72.7288	1,072.27	74.4161	1,072.27	72.6908	1,072.27	71.9658	1,072.27	68.776	1,072.27	61.8364	1,072.27	56.8945	1,072.27	60.2828	1,072.27	59.3798
1,108.89	85.1975	1,108.89	83.9509	1,108.89	85.2838	1,108.89	81.8388	1,108.89	83.9469	1,108.89	80.5333	1,108.89	81.1022	1,108.89	81.6398	1,108.89	77.7929	1,108.89	82.7123	1,108.89	76.9195	1,108.89	82.2746	1,108.89	77.4983	1,108.89	81.3463	1,108.89	77.4996	1,108.89	80.6917	1,108.89	77.3021	1,108.89	79.2942	1,108.89	76.1833	1,108.89	78.5215	1,108.89	72.3128	1,108.89	77.6427	1,108.89	68.0703	1,108.89	73.8268	1,108.89	71.4745	1,108.89	72.5438	1,108.89	72.9559	1,108.89	74.545	1,108.89	71.6291	1,108.89	72.2098	1,108.89	69.8818	1,108.89	61.9591	1,108.89	70.6865	1,108.89	65.7978	1,108.89	67.558	1,108.89	63.5637
1,148.44	82.7353	1,148.44	79.807	1,148.44	84.8746	1,148.44	80.1813	1,148.44	85.2514	1,148.44	82.8456	1,148.44	84.0328	1,148.44	84.4092	1,148.44	80.2443	1,148.44	84.6374	1,148.44	68.7787	1,148.44	83.7423	1,148.44	71.6331	1,148.44	81.751	1,148.44	77.6299	1,148.44	79.4729	1,148.44	77.7627	1,148.44	78.7028	1,148.44	73.3162	1,148.44	78.6609	1,148.44	65.8752	1,148.44	76.5836	1,148.44	61.0718	1,148.44	70.2688	1,148.44	66.4497	1,148.44	69.972	1,148.44	52.0832	1,148.44	75.7629	1,148.44	73.9279	1,148.44	76.6392	1,148.44	75.766	1,148.44	70.8666	1,148.44	70.6354	1,148.44	64.2274	1,148.44	72.7381	1,148.44	72.096
1,189.45	82.4624	1,189.45	81.7158	1,189.45	83.2005	1,189.45	82.0808	1,189.45	83.1785	1,189.45	82.8902	1,189.45	82.3977	1,189.45	82.9996	1,189.45	80.6958	1,189.45	82.0016	1,189.45	77.8801	1,189.45	80.3409	1,189.45	73.7156	1,189.45	78.0406	1,189.45	69.9738	1,189.45	74.3069	1,189.45	73.4285	1,189.45	69.8317	1,189.45	76.1331	1,189.45	73.0904	1,189.45	75.9017	1,189.45	75.7692	1,189.45	71.8364	1,189.45	73.9254	1,189.45	57.6611	1,189.45	66.4259	1,189.45	74.7886	1,189.45	73.5437	1,189.45	77.277	1,189.45	76.1578	1,189.45	76.0792	1,189.45	71.9428	1,189.45	72.8557	1,189.45	47.7786	1,189.45	64.9141	1,189.45	66.1814
1,230.47	83.1151	1,230.47	82.976	1,230.47	82.9395	1,230.47	83.0492	1,230.47	82.5293	1,230.47	83.3436	1,230.47	81.7984	1,230.47	82.6221	1,230.47	79.8804	1,230.47	80.2372	1,230.47	75.5115	1,230.47	78.1318	1,230.47	65.8106	1,230.47	76.3278	1,230.47	66.2737	1,230.47	72.2897	1,230.47	71.7597	1,230.47	66.1876	1,230.47	73.7958	1,230.47	71.3141	1,230.47	74.2737	1,230.47	76.339	1,230.47	73.7442	1,230.47	77.6075	1,230.47	66.014	1,230.47	75.1768	1,230.47	67.4388	1,230.47	67.879	1,230.47	68.6773	1,230.47	67.5476	1,230.47	64.6788	1,230.47	68.4007	1,230.47	62.1072	1,230.47	67.986	1,230.47	64.336	1,230.47	68.6495
1,274.41	81.8885	1,274.41	83.1079	1,274.41	83.1229	1,274.41	84.6707	1,274.41	84.4899	1,274.41	84.4916	1,274.41	84.363	1,274.41	83.1043	1,274.41	82.2407	1,274.41	80.1566	1,274.41	77.7916	1,274.41	74.1552	1,274.41	69.5181	1,274.41	68.6962	1,274.41	63.5193	1,274.41	70.1433	1,274.41	67.1054	1,274.41	70.4195	1,274.41	68.5236	1,274.41	65.5089	1,274.41	69.7249	1,274.41	59.0206	1,274.41	74.3523	1,274.41	70.0606	1,274.41	74.9832	1,274.41	68.2943	1,274.41	66.1079	1,274.41	73.5476	1,274.41	76.8189	1,274.41	78.8393	1,274.41	78.536	1,274.41	77.1592	1,274.41	76.4606	1,274.41	70.6945	1,274.41	72.3212	1,274.41	70.1076
1,319.82	84.2746	1,319.82	83.8916	1,319.82	84.2058	1,319.82	83.6768	1,319.82	83.2871	1,319.82	83.0745	1,319.82	82.0339	1,319.82	81.4797	1,319.82	80.3581	1,319.82	79.1369	1,319.82	78.0451	1,319.82	76.9021	1,319.82	74.7617	1,319.82	74.6029	1,319.82	69.3796	1,319.82	70.5803	1,319.82	66.4674	1,319.82	68.8723	1,319.82	67.5175	1,319.82	71.2226	1,319.82	69.5153	1,319.82	71.5816	1,319.82	70.3628	1,319.82	70.1084	1,319.82	68.7568	1,319.82	69.6445	1,319.82	64.3357	1,319.82	69.8353	1,319.82	62.4422	1,319.82	71.4567	1,319.82	66.6427	1,319.82	68.7377	1,319.82	67.5946	1,319.82	64.1991	1,319.82	66.1701	1,319.82	67.426
1,366.7	83.4057	1,366.7	85.2769	1,366.7	81.9795	1,366.7	85.4755	1,366.7	82.6701	1,366.7	83.4743	1,366.7	83.4112	1,366.7	79.2087	1,366.7	82.6243	1,366.7	74.9459	1,366.7	80.0048	1,366.7	75.8546	1,366.7	75.8823	1,366.7	76.7585	1,366.7	73.8468	1,366.7	78.2278	1,366.7	72.581	1,366.7	77.4735	1,366.7	67.4984	1,366.7	74.099	1,366.7	71.2924	1,366.7	70.0152	1,366.7	74.4703	1,366.7	62.5767	1,366.7	75.5343	1,366.7	65.7811	1,366.7	74.7639	1,366.7	75.2029	1,366.7	66.6691	1,366.7	77.1799	1,366.7	72.9588	1,366.7	73.1494	1,366.7	71.2939	1,366.7	41.0075	1,366.7	68.8275	1,366.7	68.7618
1,413.57	84.3733	1,413.57	83.9427	1,413.57	83.6707	1,413.57	82.4103	1,413.57	81.7881	1,413.57	80.4093	1,413.57	79.6557	1,413.57	79.4626	1,413.57	79.3744	1,413.57	79.2447	1,413.57	79.2354	1,413.57	78.7729	1,413.57	76.8757	1,413.57	76.8546	1,413.57	73.6704	1,413.57	73.84	1,413.57	71.3588	1,413.57	75.4481	1,413.57	66.8877	1,413.57	75.6154	1,413.57	62.1544	1,413.57	69.71	1,413.57	71.2368	1,413.57	60.9188	1,413.57	71.073	1,413.57	68.4801	1,413.57	58.8414	1,413.57	67.8241	1,413.57	69.2736	1,413.57	70.9532	1,413.57	71.4495	1,413.57	71.1053	1,413.57	70.6932	1,413.57	63.5896	1,413.57	65.0035	1,413.57	65.9899
1,463.38	83.8603	1,463.38	83.2841	1,463.38	83.3002	1,463.38	81.5007	1,463.38	81.5307	1,463.38	80.407	1,463.38	79.5218	1,463.38	81.5623	1,463.38	79.4071	1,463.38	81.6611	1,463.38	79.4154	1,463.38	79.4777	1,463.38	77.866	1,463.38	76.522	1,463.38	76.883	1,463.38	74.2086	1,463.38	77.4826	1,463.38	71.2452	1,463.38	76.7536	1,463.38	73.6796	1,463.38	77.0787	1,463.38	75.421	1,463.38	78.2536	1,463.38	75.9939	1,463.38	77.2248	1,463.38	73.9514	1,463.38	75.4082	1,463.38	61.5383	1,463.38	69.4645	1,463.38	72.1438	1,463.38	71.3456	1,463.38	72.9259	1,463.38	63.3032	1,463.38	61.2532	1,463.38	68.9336	1,463.38	65.5945
1,516.11	81.2508	1,516.11	81.7046	1,516.11	82.4956	1,516.11	83.0094	1,516.11	83.0017	1,516.11	82.5603	1,516.11	82.104	1,516.11	80.5336	1,516.11	79.394	1,516.11	77.6083	1,516.11	76.0795	1,516.11	75.0246	1,516.11	74.8398	1,516.11	76.097	1,516.11	74.0208	1,516.11	75.3739	1,516.11	73.086	1,516.11	71.7786	1,516.11	73.5624	1,516.11	71.9158	1,516.11	72.1515	1,516.11	73.8392	1,516.11	69.0322	1,516.11	72.0083	1,516.11	74.655	1,516.11	67.6596	1,516.11	73.8328	1,516.11	54.5287	1,516.11	57.0538	1,516.11	72.4448	1,516.11	71.5283	1,516.11	72.0265	1,516.11	70.9707	1,516.11	47.7152	1,516.11	69.376	1,516.11	65.9389
1,568.85	81.9901	1,568.85	83.2051	1,568.85	80.9937	1,568.85	83.1816	1,568.85	81.9182	1,568.85	81.9022	1,568.85	82.5095	1,568.85	79.6156	1,568.85	81.6241	1,568.85	77.8363	1,568.85	78.7715	1,568.85	77.6466	1,568.85	74.6747	1,568.85	75.9412	1,568.85	72.928	1,568.85	74.9121	1,568.85	70.9464	1,568.85	74.1711	1,568.85	64.0113	1,568.85	68.9427	1,568.85	62.4095	1,568.85	67.2281	1,568.85	60.9836	1,568.85	66.104	1,568.85	70.0586	1,568.85	68.0071	1,568.85	66.9919	1,568.85	68.7403	1,568.85	68.5385	1,568.85	68.0828	1,568.85	71.5147	1,568.85	70.1819	1,568.85	64.9524	1,568.85	64.5461	1,568.85	64.7773	1,568.85	62.9229
1,624.51	82.8014	1,624.51	82.6526	1,624.51	82.0696	1,624.51	81.8116	1,624.51	81.3774	1,624.51	81.3179	1,624.51	80.9699	1,624.51	80.5491	1,624.51	80.26	1,624.51	78.4722	1,624.51	78.6023	1,624.51	76.8643	1,624.51	76.5343	1,624.51	75.9661	1,624.51	75.172	1,624.51	72.2659	1,624.51	74.827	1,624.51	70.1414	1,624.51	75.6515	1,624.51	68.0713	1,624.51	75.474	1,624.51	54.2539	1,624.51	71.5817	1,624.51	69.4411	1,624.51	69.8019	1,624.51	71.129	1,624.51	70.1096	1,624.51	65.8069	1,624.51	69.2032	1,624.51	64.7604	1,624.51	70.0096	1,624.51	70.1657	1,624.51	67.9574	1,624.51	60.8431	1,624.51	68.5012	1,624.51	64.3037
1,681.64	83.5341	1,681.64	83.543	1,681.64	82.34	1,681.64	81.6698	1,681.64	81.8463	1,681.64	80.5176	1,681.64	81.5127	1,681.64	80.5512	1,681.64	80.6342	1,681.64	79.5743	1,681.64	79.6185	1,681.64	78.3676	1,681.64	78.4949	1,681.64	75.5488	1,681.64	75.9494	1,681.64	73.2549	1,681.64	71.5802	1,681.64	73.2107	1,681.64	70.0075	1,681.64	71.1659	1,681.64	64.3679	1,681.64	65.2588	1,681.64	72.0409	1,681.64	58.4122	1,681.64	74.453	1,681.64	70.881	1,681.64	73.6314	1,681.64	71.1968	1,681.64	67.7258	1,681.64	40.8146	1,681.64	66.9438	1,681.64	68.731	1,681.64	66.9455	1,681.64	66.9705	1,681.64	63.2937	1,681.64	64.6919
1,741.7	83.0571	1,741.7	83.1349	1,741.7	82.4271	1,741.7	82.4402	1,741.7	81.622	1,741.7	81.1066	1,741.7	79.883	1,741.7	79.152	1,741.7	77.8911	1,741.7	77.9757	1,741.7	77.1944	1,741.7	77.5878	1,741.7	77.8331	1,741.7	74.5844	1,741.7	75.8364	1,741.7	74.2161	1,741.7	69.2804	1,741.7	72.798	1,741.7	70.9398	1,741.7	65.2054	1,741.7	71.5956	1,741.7	68.7827	1,741.7	68.8614	1,741.7	65.7342	1,741.7	70.7734	1,741.7	59.9804	1,741.7	65.5329	1,741.7	68.7528	1,741.7	51.7388	1,741.7	69.0488	1,741.7	50.9876	1,741.7	67.1681	1,741.7	63.3333	1,741.7	53.3801	1,741.7	63.7167	1,741.7	67.898
1,803.22	83.2698	1,803.22	82.3788	1,803.22	82.5972	1,803.22	80.6757	1,803.22	80.6314	1,803.22	80.2868	1,803.22	79.1398	1,803.22	79.7876	1,803.22	79.5527	1,803.22	78.1107	1,803.22	79.1621	1,803.22	71.4433	1,803.22	78.4929	1,803.22	68.9382	1,803.22	77.5264	1,803.22	71.9517	1,803.22	75.2156	1,803.22	65.0198	1,803.22	66.7502	1,803.22	70.0138	1,803.22	70.8549	1,803.22	66.0866	1,803.22	64.1913	1,803.22	65.0565	1,803.22	59.7784	1,803.22	61.6487	1,803.22	66.7673	1,803.22	68.2602	1,803.22	67.8175	1,803.22	47.3681	1,803.22	66.3523	1,803.22	67.0463	1,803.22	65.9735	1,803.22	65.015	1,803.22	65.8874	1,803.22	65.2609
1,866.21	81.5128	1,866.21	80.2862	1,866.21	81.7603	1,866.21	81.3241	1,866.21	80.0717	1,866.21	81.3236	1,866.21	78.7006	1,866.21	77.6931	1,866.21	78.5263	1,866.21	74.3428	1,866.21	78.8336	1,866.21	75.284	1,866.21	79.3154	1,866.21	77.9503	1,866.21	79.1626	1,866.21	77.311	1,866.21	78.4416	1,866.21	73.3005	1,866.21	75.0211	1,866.21	70.7341	1,866.21	63.9471	1,866.21	69.2111	1,866.21	69.5737	1,866.21	67.0551	1,866.21	72.3312	1,866.21	54.1749	1,866.21	69.8203	1,866.21	71.2134	1,866.21	69.4802	1,866.21	68.2126	1,866.21	68.2722	1,866.21	60.5676	1,866.21	54.8512	1,866.21	67.1417	1,866.21	61.6883	1,866.21	59.3166
1,932.13	79.2734	1,932.13	79.9647	1,932.13	80.1514	1,932.13	81.3504	1,932.13	80.6625	1,932.13	78.45	1,932.13	79.885	1,932.13	77.4914	1,932.13	77.5877	1,932.13	78.6374	1,932.13	74.829	1,932.13	76.8237	1,932.13	73.098	1,932.13	75.72	1,932.13	74.9723	1,932.13	71.1755	1,932.13	74.0407	1,932.13	68.153	1,932.13	67.85	1,932.13	52.7363	1,932.13	66.1533	1,932.13	65.3746	1,932.13	64.7249	1,932.13	70.0394	1,932.13	66.7887	1,932.13	64.9275	1,932.13	66.2394	1,932.13	63.4033	1,932.13	68.6305	1,932.13	71.0959	1,932.13	57.7407	1,932.13	64.1982	1,932.13	51.6106	1,932.13	60.8947	1,932.13	56.3256	1,932.13	64.139
1,999.51	80.1879	1,999.51	79.6945	1,999.51	79.6376	1,999.51	78.8213	1,999.51	79.5913	1,999.51	80.065	1,999.51	80.0779	1,999.51	79.2431	1,999.51	79.8297	1,999.51	76.9062	1,999.51	78.6846	1,999.51	75.6197	1,999.51	76.791	1,999.51	73.5953	1,999.51	72.4944	1,999.51	70.6986	1,999.51	71.4656	1,999.51	66.8237	1,999.51	65.633	1,999.51	67.9202	1,999.51	57.5459	1,999.51	65.837	1,999.51	63.0834	1,999.51	64.3204	1,999.51	57.1201	1,999.51	60.5274	1,999.51	57.7315	1,999.51	64.8574	1,999.51	61.9498	1,999.51	61.1081	1,999.51	63.4512	1,999.51	63.2003	1,999.51	62.4045	1,999.51	58.161	1,999.51	58.689	1,999.51	63.197
2,069.82	80.4842	2,069.82	79.9268	2,069.82	80.4174	2,069.82	78.6496	2,069.82	79.842	2,069.82	78.7848	2,069.82	79.3973	2,069.82	79.7026	2,069.82	79.2102	2,069.82	76.5795	2,069.82	78.4162	2,069.82	75.1478	2,069.82	77.0725	2,069.82	73.4282	2,069.82	75.284	2,069.82	71.2462	2,069.82	71.6583	2,069.82	68.3992	2,069.82	70.7689	2,069.82	65.2882	2,069.82	66.1524	2,069.82	65.1113	2,069.82	57.9546	2,069.82	62.0704	2,069.82	62.6894	2,069.82	63.4635	2,069.82	58.1023	2,069.82	60.0651	2,069.82	61.1622	2,069.82	61.7095	2,069.82	61.9753	2,069.82	62.8814	2,069.82	63.8188	2,069.82	54.5895	2,069.82	56.5108	2,069.82	62.1828
2,143.07	80.8742	2,143.07	81.0147	2,143.07	81.224	2,143.07	79.6059	2,143.07	81.0296	2,143.07	78.8961	2,143.07	80.1278	2,143.07	79.2036	2,143.07	79.0464	2,143.07	76.4796	2,143.07	78.0442	2,143.07	74.3387	2,143.07	76.771	2,143.07	70.9933	2,143.07	75.3125	2,143.07	69.4212	2,143.07	72.9984	2,143.07	68.4397	2,143.07	69.3431	2,143.07	64.7532	2,143.07	67.2775	2,143.07	62.6106	2,143.07	62.4723	2,143.07	61.1053	2,143.07	62.1519	2,143.07	63.2925	2,143.07	63.8547	2,143.07	61.0415	2,143.07	59.8589	2,143.07	61.2509	2,143.07	60.8631	2,143.07	58.17	2,143.07	62.8595	2,143.07	51.9786	2,143.07	58.7093	2,143.07	60.1659
2,219.24	80.3078	2,219.24	80.8843	2,219.24	80.834	2,219.24	80.7173	2,219.24	81.6038	2,219.24	79.8637	2,219.24	81.1548	2,219.24	77.0211	2,219.24	79.5037	2,219.24	78.4992	2,219.24	77.805	2,219.24	73.9603	2,219.24	75.8222	2,219.24	73.9867	2,219.24	73.335	2,219.24	70.4634	2,219.24	66.0135	2,219.24	67.0344	2,219.24	67.4709	2,219.24	62.7317	2,219.24	66.2762	2,219.24	62.2587	2,219.24	66.8332	2,219.24	60.5099	2,219.24	60.7999	2,219.24	62.4789	2,219.24	64.614	2,219.24	58.1747	2,219.24	58.6358	2,219.24	62.702	2,219.24	58.4142	2,219.24	61.336	2,219.24	61.8517	2,219.24	51.5345	2,219.24	57.8046	2,219.24	61.9812
2,296.88	80.4709	2,296.88	80.6171	2,296.88	80.5114	2,296.88	81.6753	2,296.88	81.8912	2,296.88	81.2221	2,296.88	82.271	2,296.88	78.0918	2,296.88	81.0859	2,296.88	78.2139	2,296.88	78.2707	2,296.88	75.9633	2,296.88	73.8634	2,296.88	71.217	2,296.88	71.7197	2,296.88	70.9717	2,296.88	72.1159	2,296.88	67.0613	2,296.88	68.7339	2,296.88	63.3116	2,296.88	64.5052	2,296.88	61.9691	2,296.88	65.5566	2,296.88	61.0129	2,296.88	66.222	2,296.88	61.8538	2,296.88	61.9909	2,296.88	57.2761	2,296.88	59.1699	2,296.88	60.3855	2,296.88	61.093	2,296.88	60.241	2,296.88	59.7958	2,296.88	50.323	2,296.88	50.2099	2,296.88	59.2653
2,378.91	81.3787	2,378.91	80.8255	2,378.91	80.6228	2,378.91	80.9699	2,378.91	80.5238	2,378.91	81.4463	2,378.91	81.8905	2,378.91	79.1618	2,378.91	81.2489	2,378.91	77.327	2,378.91	78.8378	2,378.91	73.868	2,378.91	75.4238	2,378.91	72.5029	2,378.91	71.3711	2,378.91	68.917	2,378.91	69.8561	2,378.91	67.7032	2,378.91	68.2112	2,378.91	60.7423	2,378.91	62.4846	2,378.91	61.7274	2,378.91	46.2301	2,378.91	57.6783	2,378.91	67.0026	2,378.91	61.5653	2,378.91	64.9563	2,378.91	60.5325	2,378.91	60.9023	2,378.91	59.3296	2,378.91	59.0941	2,378.91	54.6355	2,378.91	58.4893	2,378.91	53.562	2,378.91	54.6703	2,378.91	55.9233
2,462.4	83.1455	2,462.4	82.6093	2,462.4	82.6638	2,462.4	81.734	2,462.4	80.9086	2,462.4	80.9912	2,462.4	80.0536	2,462.4	79.9707	2,462.4	79.9178	2,462.4	75.8663	2,462.4	77.3039	2,462.4	73.26	2,462.4	73.8131	2,462.4	71.4947	2,462.4	70.1184	2,462.4	65.6859	2,462.4	65.7309	2,462.4	64.7975	2,462.4	64.7591	2,462.4	62.6776	2,462.4	68.0603	2,462.4	61.0543	2,462.4	52.1346	2,462.4	54.5075	2,462.4	59.721	2,462.4	59.4565	2,462.4	65.3481	2,462.4	57.3525	2,462.4	58.3118	2,462.4	59.5084	2,462.4	50.4544	2,462.4	58.7543	2,462.4	58.9958	2,462.4	54.0014	2,462.4	54.0031	2,462.4	56.4264
2,548.83	83.3933	2,548.83	83.099	2,548.83	83.4968	2,548.83	82.3984	2,548.83	82.2638	2,548.83	80.3052	2,548.83	79.588	2,548.83	79.6217	2,548.83	77.7453	2,548.83	74.7043	2,548.83	75.7039	2,548.83	73.7176	2,548.83	72.9611	2,548.83	68.3267	2,548.83	67.0677	2,548.83	68.0388	2,548.83	61.6292	2,548.83	61.6018	2,548.83	65.3366	2,548.83	63.6324	2,548.83	69.929	2,548.83	57.7433	2,548.83	61.1856	2,548.83	56.2504	2,548.83	61.0302	2,548.83	58.3555	2,548.83	59.3852	2,548.83	58.1642	2,548.83	51.9944	2,548.83	56.1525	2,548.83	43.5718	2,548.83	56.6405	2,548.83	56.151	2,548.83	52.2465	2,548.83	52.1041	2,548.83	56.4549
2,639.65	82.3526	2,639.65	82.518	2,639.65	82.785	2,639.65	82.5795	2,639.65	82.9526	2,639.65	80.7017	2,639.65	80.9979	2,639.65	79.3564	2,639.65	77.5041	2,639.65	75.9071	2,639.65	73.7451	2,639.65	72.6578	2,639.65	71.1212	2,639.65	67.9623	2,639.65	65.827	2,639.65	63.7761	2,639.65	62.4853	2,639.65	62.5099	2,639.65	57.8052	2,639.65	58.375	2,639.65	65.0802	2,639.65	60.4512	2,639.65	62.9386	2,639.65	56.4641	2,639.65	62.6746	2,639.65	59.4893	2,639.65	42.9286	2,639.65	57.759	2,639.65	46.2535	2,639.65	57.259	2,639.65	47.2905	2,639.65	53.9391	2,639.65	52.6572	2,639.65	53.5532	2,639.65	50.7167	2,639.65	53.7212
2,731.93	82.4085	2,731.93	81.9649	2,731.93	82.2482	2,731.93	81.7271	2,731.93	82.2333	2,731.93	80.7607	2,731.93	81.2671	2,731.93	77.7824	2,731.93	77.6406	2,731.93	75.8137	2,731.93	72.6416	2,731.93	69.3833	2,731.93	68.2271	2,731.93	69.7652	2,731.93	65.5935	2,731.93	63.8793	2,731.93	64.1121	2,731.93	60.4195	2,731.93	60.5502	2,731.93	59.2864	2,731.93	54.9706	2,731.93	54.7358	2,731.93	56.9972	2,731.93	59.0194	2,731.93	61.0542	2,731.93	58.8823	2,731.93	45.1643	2,731.93	61.0359	2,731.93	56.6315	2,731.93	55.7106	2,731.93	54.2951	2,731.93	57.0631	2,731.93	54.6465	2,731.93	48.2459	2,731.93	47.5851	2,731.93	50.5032
2,828.61	84.0381	2,828.61	83.7323	2,828.61	84.2118	2,828.61	82.6828	2,828.61	83.4582	2,828.61	82.6665	2,828.61	82.5254	2,828.61	79.3289	2,828.61	79.8686	2,828.61	77.8531	2,828.61	75.2383	2,828.61	72.7382	2,828.61	70.728	2,828.61	69.705	2,828.61	66.205	2,828.61	65.6229	2,828.61	66.34	2,828.61	64.5805	2,828.61	66.6527	2,828.61	58.5645	2,828.61	46.2247	2,828.61	57.3451	2,828.61	57.3296	2,828.61	61.1713	2,828.61	56.4075	2,828.61	49.9609	2,828.61	55.0948	2,828.61	63.3342	2,828.61	57.7728	2,828.61	60.1687	2,828.61	59.7194	2,828.61	57.1485	2,828.61	59.1455	2,828.61	50.0375	2,828.61	52.0256	2,828.61	57.1467
2,928.22	84.9408	2,928.22	85.0352	2,928.22	84.7371	2,928.22	83.6317	2,928.22	83.9323	2,928.22	82.3892	2,928.22	82.2771	2,928.22	79.8378	2,928.22	79.5377	2,928.22	76.3775	2,928.22	75.7127	2,928.22	72.8943	2,928.22	69.443	2,928.22	66.9399	2,928.22	64.3243	2,928.22	66.0938	2,928.22	64.127	2,928.22	61.5111	2,928.22	63.7152	2,928.22	56.0574	2,928.22	62.1656	2,928.22	54.3659	2,928.22	53.5864	2,928.22	58.3627	2,928.22	51.5205	2,928.22	39.7602	2,928.22	57.8234	2,928.22	58.162	2,928.22	55.2704	2,928.22	60.844	2,928.22	55.2723	2,928.22	54.8274	2,928.22	50.1655	2,928.22	53.889	2,928.22	48.8461	2,928.22	51.1152
3,030.76	84.3491	3,030.76	84.018	3,030.76	83.8551	3,030.76	83.0176	3,030.76	82.8673	3,030.76	80.2718	3,030.76	80.5865	3,030.76	78.5085	3,030.76	77.9801	3,030.76	72.7407	3,030.76	73.8365	3,030.76	69.5133	3,030.76	67.5373	3,030.76	61.7739	3,030.76	63.002	3,030.76	58.1554	3,030.76	60.8158	3,030.76	57.282	3,030.76	58.3434	3,030.76	51.3936	3,030.76	62.0444	3,030.76	51.3035	3,030.76	58.005	3,030.76	53.4365	3,030.76	49.2639	3,030.76	51.0522	3,030.76	54.6499	3,030.76	47.2427	3,030.76	56.2535	3,030.76	56.9102	3,030.76	54.8296	3,030.76	49.6649	3,030.76	49.35	3,030.76	49.1177	3,030.76	45.6417	3,030.76	52.8716
3,137.7	83.9787	3,137.7	83.4202	3,137.7	83.8208	3,137.7	82.5366	3,137.7	82.7456	3,137.7	80.3369	3,137.7	80.3068	3,137.7	76.1631	3,137.7	76.9136	3,137.7	70.5416	3,137.7	72.8356	3,137.7	64.4633	3,137.7	66.9231	3,137.7	54.0786	3,137.7	64.5094	3,137.7	49.1467	3,137.7	60.1008	3,137.7	50.2582	3,137.7	58.1061	3,137.7	56.4144	3,137.7	64.2241	3,137.7	50.0418	3,137.7	63.911	3,137.7	49.6277	3,137.7	56.7814	3,137.7	53.2813	3,137.7	35.56	3,137.7	49.9384	3,137.7	51.8994	3,137.7	55.4571	3,137.7	52.0305	3,137.7	50.4459	3,137.7	46.712	3,137.7	53.5368	3,137.7	48.7356	3,137.7	51.1389
3,249.02	83.6429	3,249.02	82.7317	3,249.02	83.73	3,249.02	81.9433	3,249.02	82.9882	3,249.02	80.0321	3,249.02	80.7713	3,249.02	75.8392	3,249.02	76.3534	3,249.02	69.7471	3,249.02	70.8712	3,249.02	59.6712	3,249.02	66.0428	3,249.02	59.7048	3,249.02	65.6424	3,249.02	59.0988	3,249.02	63.6069	3,249.02	57.6501	3,249.02	63.0541	3,249.02	56.577	3,249.02	63.5986	3,249.02	55.1699	3,249.02	65.6108	3,249.02	53.1588	3,249.02	61.1252	3,249.02	56.3796	3,249.02	37.703	3,249.02	54.908	3,249.02	46.4952	3,249.02	55.4536	3,249.02	45.1007	3,249.02	51.552	3,249.02	53.143	3,249.02	53.047	3,249.02	47.5981	3,249.02	53.1797
3,363.28	83.6551	3,363.28	82.9295	3,363.28	83.5334	3,363.28	81.4305	3,363.28	82.8352	3,363.28	79.0381	3,363.28	80.127	3,363.28	74.4912	3,363.28	76.0383	3,363.28	67.417	3,363.28	70.0556	3,363.28	58.4191	3,363.28	66.6731	3,363.28	60.9798	3,363.28	68.3597	3,363.28	63.4247	3,363.28	64.918	3,363.28	57.68	3,363.28	62.1681	3,363.28	59.7609	3,363.28	64.9722	3,363.28	57.2663	3,363.28	67.2111	3,363.28	53.8324	3,363.28	56.7067	3,363.28	57.0447	3,363.28	46.0403	3,363.28	59.8533	3,363.28	52.9837	3,363.28	53.7573	3,363.28	56.3444	3,363.28	55.3978	3,363.28	55.7827	3,363.28	56.4347	3,363.28	51.1701	3,363.28	48.6057
3,481.93	83.4832	3,481.93	83.3733	3,481.93	83.7555	3,481.93	82.5611	3,481.93	83.3721	3,481.93	79.1587	3,481.93	80.6735	3,481.93	74.3675	3,481.93	75.2131	3,481.93	65.5854	3,481.93	68.7144	3,481.93	67.74	3,481.93	69.9759	3,481.93	63.3328	3,481.93	67.3645	3,481.93	63.0914	3,481.93	68.1106	3,481.93	64.7927	3,481.93	65.3797	3,481.93	59.6673	3,481.93	57.906	3,481.93	58.9544	3,481.93	65.2547	3,481.93	58.6892	3,481.93	63.9102	3,481.93	59.1825	3,481.93	54.4381	3,481.93	59.3207	3,481.93	54.5467	3,481.93	55.7207	3,481.93	55.2768	3,481.93	56.1795	3,481.93	55.8922	3,481.93	58.0891	3,481.93	49.617	3,481.93	55.5812
3,604.98	83.5227	3,604.98	83.2338	3,604.98	83.23	3,604.98	82.5315	3,604.98	82.6853	3,604.98	79.5081	3,604.98	81.0405	3,604.98	73.5842	3,604.98	74.5728	3,604.98	67.689	3,604.98	68.1937	3,604.98	69.7221	3,604.98	70.8798	3,604.98	68.6629	3,604.98	69.189	3,604.98	68.5813	3,604.98	66.9113	3,604.98	66.5676	3,604.98	66.4689	3,604.98	62.6078	3,604.98	58.2912	3,604.98	60.0846	3,604.98	66.8018	3,604.98	59.1452	3,604.98	65.0744	3,604.98	59.4156	3,604.98	62.2116	3,604.98	60.1177	3,604.98	48.6816	3,604.98	58.2574	3,604.98	53.7114	3,604.98	60.2335	3,604.98	54.8771	3,604.98	57.7372	3,604.98	47.3797	3,604.98	54.7185
3,732.42	84.3141	3,732.42	83.6515	3,732.42	84.2044	3,732.42	82.0697	3,732.42	82.1919	3,732.42	80.0551	3,732.42	79.2794	3,732.42	74.3836	3,732.42	73.7735	3,732.42	70.8058	3,732.42	68.7602	3,732.42	68.3182	3,732.42	69.8308	3,732.42	71.5985	3,732.42	68.5905	3,732.42	68.1909	3,732.42	67.7394	3,732.42	66.1482	3,732.42	59.5636	3,732.42	64.3399	3,732.42	59.1792	3,732.42	59.2941	3,732.42	67.2625	3,732.42	60.7632	3,732.42	67.7018	3,732.42	59.3203	3,732.42	63.4148	3,732.42	60.9245	3,732.42	46.9199	3,732.42	59.9237	3,732.42	51.2576	3,732.42	60.8318	3,732.42	55.8384	3,732.42	56.6772	3,732.42	48.1904	3,732.42	54.9616
3,864.26	84.3027	3,864.26	83.9049	3,864.26	84.5069	3,864.26	82.3566	3,864.26	83.4704	3,864.26	79.0781	3,864.26	78.199	3,864.26	74.775	3,864.26	73.6236	3,864.26	71.7236	3,864.26	72.9924	3,864.26	71.6856	3,864.26	70.6923	3,864.26	71.6318	3,864.26	71.3502	3,864.26	66.8456	3,864.26	68.0023	3,864.26	67.0771	3,864.26	63.878	3,864.26	64.9467	3,864.26	53.1108	3,864.26	59.3007	3,864.26	68.8326	3,864.26	63.5034	3,864.26	67.6233	3,864.26	62.9892	3,864.26	63.4589	3,864.26	62.5716	3,864.26	55.2964	3,864.26	58.3008	3,864.26	47.5837	3,864.26	58.5354	3,864.26	59.211	3,864.26	56.7602	3,864.26	49.085	3,864.26	52.5286
4,000.49	83.8495	4,000.49	83.2545	4,000.49	83.2932	4,000.49	82.7109	4,000.49	82.2243	4,000.49	78.8936	4,000.49	78.7863	4,000.49	74.6018	4,000.49	74.987	4,000.49	72.2986	4,000.49	76.2408	4,000.49	74.36	4,000.49	73.9164	4,000.49	67.6361	4,000.49	67.7349	4,000.49	71.8391	4,000.49	67.7342	4,000.49	68.1967	4,000.49	66.1147	4,000.49	64.0452	4,000.49	65.7304	4,000.49	63.6628	4,000.49	62.8636	4,000.49	64.178	4,000.49	67.853	4,000.49	61.103	4,000.49	57.5864	4,000.49	62.5562	4,000.49	54.6483	4,000.49	58.68	4,000.49	53.3567	4,000.49	58.1161	4,000.49	57.4799	4,000.49	60.103	4,000.49	49.5322	4,000.49	54.8133
4,141.11	84.3091	4,141.11	83.9685	4,141.11	83.943	4,141.11	81.6028	4,141.11	81.5586	4,141.11	79.7081	4,141.11	79.2234	4,141.11	74.8143	4,141.11	76.011	4,141.11	73.9749	4,141.11	78.275	4,141.11	73.2761	4,141.11	73.73	4,141.11	75.7699	4,141.11	69.4997	4,141.11	70.9959	4,141.11	68.9531	4,141.11	67.9571	4,141.11	69.4992	4,141.11	64.1018	4,141.11	67.0963	4,141.11	61.416	4,141.11	58.4989	4,141.11	59.529	4,141.11	67.8319	4,141.11	57.9568	4,141.11	61.6874	4,141.11	62.7287	4,141.11	59.429	4,141.11	60.2025	4,141.11	61.6913	4,141.11	61.2969	4,141.11	58.624	4,141.11	61.3072	4,141.11	54.1199	4,141.11	56.1213
4,287.6	84.1119	4,287.6	83.6093	4,287.6	83.646	4,287.6	82.0426	4,287.6	82.1054	4,287.6	78.8641	4,287.6	79.0275	4,287.6	77.3067	4,287.6	77.5536	4,287.6	76.8097	4,287.6	79.018	4,287.6	73.6597	4,287.6	72.1283	4,287.6	74.1865	4,287.6	73.5396	4,287.6	71.3715	4,287.6	75.2791	4,287.6	68.3661	4,287.6	71.8331	4,287.6	69.2895	4,287.6	70.6219	4,287.6	61.8403	4,287.6	64.1949	4,287.6	60.0605	4,287.6	66.3819	4,287.6	62.355	4,287.6	64.1606	4,287.6	64.528	4,287.6	54.5466	4,287.6	60.7374	4,287.6	58.5015	4,287.6	66.4497	4,287.6	57.6382	4,287.6	65.4467	4,287.6	57.2492	4,287.6	58.7933
4,438.48	84.4747	4,438.48	83.8227	4,438.48	84.3467	4,438.48	82.8013	4,438.48	83.2565	4,438.48	79.7355	4,438.48	80.1013	4,438.48	78.3784	4,438.48	78.0249	4,438.48	76.1728	4,438.48	77.9703	4,438.48	78.57	4,438.48	70.977	4,438.48	73.5352	4,438.48	76.7475	4,438.48	75.9782	4,438.48	77.2027	4,438.48	71.3608	4,438.48	74.2907	4,438.48	69.0971	4,438.48	70.5359	4,438.48	66.6838	4,438.48	65.8633	4,438.48	65.3027	4,438.48	65.524	4,438.48	66.4376	4,438.48	61.2902	4,438.48	65.5897	4,438.48	58.1468	4,438.48	64.209	4,438.48	44.7515	4,438.48	66.9433	4,438.48	51.9627	4,438.48	64.0606	4,438.48	57.031	4,438.48	59.3408
4,595.21	85.7035	4,595.21	85.2455	4,595.21	85.0194	4,595.21	81.4692	4,595.21	83.4096	4,595.21	80.5546	4,595.21	81.083	4,595.21	78.1107	4,595.21	79.423	4,595.21	77.1618	4,595.21	75.104	4,595.21	75.8758	4,595.21	77.7491	4,595.21	78.5168	4,595.21	77.1122	4,595.21	70.9863	4,595.21	74.6531	4,595.21	71.1291	4,595.21	73.3093	4,595.21	66.6234	4,595.21	69.7651	4,595.21	65.2658	4,595.21	51.7371	4,595.21	64.7205	4,595.21	67.9076	4,595.21	65.6777	4,595.21	58.147	4,595.21	63.8625	4,595.21	56.4085	4,595.21	63.379	4,595.21	61.3616	4,595.21	66.9396	4,595.21	58.1386	4,595.21	64.8189	4,595.21	59.8617	4,595.21	58.027
4,756.35	86.972	4,756.35	84.7695	4,756.35	83.8736	4,756.35	82.783	4,756.35	81.8287	4,756.35	80.5969	4,756.35	80.7753	4,756.35	77.8967	4,756.35	78.6306	4,756.35	78.3274	4,756.35	74.5013	4,756.35	78.8184	4,756.35	79.2289	4,756.35	76.8362	4,756.35	77.9019	4,756.35	76.5511	4,756.35	69.8635	4,756.35	72.1436	4,756.35	69.6048	4,756.35	70.3356	4,756.35	67.7345	4,756.35	64.2281	4,756.35	61.6057	4,756.35	62.1056	4,756.35	71.0609	4,756.35	62.9047	4,756.35	67.9601	4,756.35	64.7008	4,756.35	54.2035	4,756.35	64.7522	4,756.35	63.1286	4,756.35	68.8364	4,756.35	59.7571	4,756.35	65.0492	4,756.35	57.9053	4,756.35	56.346
4,924.8	85.6971	4,924.8	84.2075	4,924.8	83.9044	4,924.8	80.983	4,924.8	80.6156	4,924.8	78.2673	4,924.8	79.3371	4,924.8	78.1179	4,924.8	78.6394	4,924.8	78.0453	4,924.8	74.6309	4,924.8	78.6582	4,924.8	79.6205	4,924.8	75.0123	4,924.8	75.7453	4,924.8	75.5331	4,924.8	69.2502	4,924.8	70.4464	4,924.8	68.8131	4,924.8	68.3562	4,924.8	65.4081	4,924.8	62.8227	4,924.8	54.8722	4,924.8	62.1941	4,924.8	69.9578	4,924.8	62.4436	4,924.8	60.2885	4,924.8	65.2835	4,924.8	54.1217	4,924.8	64.1059	4,924.8	60.2082	4,924.8	67.0156	4,924.8	56.5051	4,924.8	65.957	4,924.8	63.4079	4,924.8	59.3663
5,097.66	84.3002	5,097.66	83.6547	5,097.66	82.9592	5,097.66	80.4346	5,097.66	81.027	5,097.66	79.2646	5,097.66	78.9147	5,097.66	77.0227	5,097.66	78.1307	5,097.66	77.6897	5,097.66	76.3887	5,097.66	76.808	5,097.66	78.0236	5,097.66	77.078	5,097.66	73.1891	5,097.66	70.0069	5,097.66	71.0782	5,097.66	68.7363	5,097.66	70.2251	5,097.66	67.1421	5,097.66	68.73	5,097.66	58.5587	5,097.66	51.5183	5,097.66	59.1662	5,097.66	56.8524	5,097.66	63.0135	5,097.66	59.0362	5,097.66	64.578	5,097.66	53.3074	5,097.66	63.3943	5,097.66	40.1676	5,097.66	65.2802	5,097.66	55.4433	5,097.66	61.9402	5,097.66	59.776	5,097.66	52.4832
5,277.83	85.8906	5,277.83	84.4211	5,277.83	82.8643	5,277.83	80.8155	5,277.83	80.3002	5,277.83	78.168	5,277.83	78.4119	5,277.83	77.4353	5,277.83	75.6767	5,277.83	77.6072	5,277.83	79.2092	5,277.83	77.5785	5,277.83	76.1209	5,277.83	73.5889	5,277.83	72.3885	5,277.83	74.2277	5,277.83	70.7608	5,277.83	69.9291	5,277.83	64.9594	5,277.83	65.6458	5,277.83	67.1924	5,277.83	63.6046	5,277.83	54.7116	5,277.83	61.0126	5,277.83	66.8295	5,277.83	62.7558	5,277.83	66.0122	5,277.83	64.6035	5,277.83	59.8781	5,277.83	62.2563	5,277.83	53.2269	5,277.83	60.4119	5,277.83	54.9416	5,277.83	58.1757	5,277.83	57.5362	5,277.83	45.9964
5,463.87	86.4427	5,463.87	84.6152	5,463.87	83.7088	5,463.87	80.5621	5,463.87	79.6908	5,463.87	78.2407	5,463.87	77.7793	5,463.87	77.1275	5,463.87	73.9751	5,463.87	78.3886	5,463.87	80.6385	5,463.87	78.0257	5,463.87	75.3603	5,463.87	76.0338	5,463.87	75.421	5,463.87	70.7765	5,463.87	71.737	5,463.87	69.6206	5,463.87	65.8657	5,463.87	66.2243	5,463.87	65.0238	5,463.87	60.2634	5,463.87	60.2941	5,463.87	61.6562	5,463.87	69.9667	5,463.87	64.0568	5,463.87	69.8355	5,463.87	62.9232	5,463.87	64.5185	5,463.87	60.0577	5,463.87	60.9029	5,463.87	61.8772	5,463.87	56.8269	5,463.87	60.7167	5,463.87	60.2884	5,463.87	54.9407
5,657.23	84.5845	5,657.23	83.096	5,657.23	84.0042	5,657.23	80.4428	5,657.23	80.213	5,657.23	77.2149	5,657.23	77.1845	5,657.23	77.8405	5,657.23	76.4231	5,657.23	79.2785	5,657.23	79.878	5,657.23	78.7101	5,657.23	77.6697	5,657.23	76.0296	5,657.23	76.7988	5,657.23	74.4046	5,657.23	72.2238	5,657.23	69.9799	5,657.23	70.409	5,657.23	67.4412	5,657.23	67.4871	5,657.23	62.5961	5,657.23	65.612	5,657.23	61.7661	5,657.23	66.5066	5,657.23	61.3744	5,657.23	65.6077	5,657.23	64.2199	5,657.23	65.9821	5,657.23	60.6558	5,657.23	59.0222	5,657.23	62.1154	5,657.23	55.4673	5,657.23	62.3253	5,657.23	55.4991	5,657.23	57.1983
5,856.45	83.1467	5,856.45	83.5348	5,856.45	82.6198	5,856.45	79.6921	5,856.45	79.9429	5,856.45	76.2689	5,856.45	77.3372	5,856.45	78.4265	5,856.45	78.4929	5,856.45	79.3932	5,856.45	79.9683	5,856.45	78.6279	5,856.45	77.6672	5,856.45	76.0807	5,856.45	75.0439	5,856.45	73.6599	5,856.45	71.8044	5,856.45	69.7618	5,856.45	70.4816	5,856.45	67.7294	5,856.45	68.9183	5,856.45	65.9982	5,856.45	64.8586	5,856.45	62.8447	5,856.45	64.0475	5,856.45	63.6434	5,856.45	62.2357	5,856.45	64.2512	5,856.45	62.3166	5,856.45	60.9817	5,856.45	61.7039	5,856.45	61.6425	5,856.45	57.4889	5,856.45	58.1098	5,856.45	51.7625	5,856.45	57.5696
6,062.99	85.0887	6,062.99	84.3947	6,062.99	83.1671	6,062.99	80.8008	6,062.99	81.3428	6,062.99	77.5711	6,062.99	78.1893	6,062.99	78.4678	6,062.99	79.5461	6,062.99	79.5547	6,062.99	78.1794	6,062.99	78.8698	6,062.99	78.4025	6,062.99	76.7632	6,062.99	76.2675	6,062.99	73.3526	6,062.99	73.5062	6,062.99	68.8786	6,062.99	66.4407	6,062.99	66.1843	6,062.99	69.0125	6,062.99	58.9598	6,062.99	62.1137	6,062.99	57.5532	6,062.99	64.5139	6,062.99	60.8219	6,062.99	64.4247	6,062.99	63.5318	6,062.99	60.3025	6,062.99	55.2491	6,062.99	55.9866	6,062.99	59.884	6,062.99	56.3174	6,062.99	53.6236	6,062.99	55.8952	6,062.99	54.561
6,276.86	84.4563	6,276.86	82.8283	6,276.86	83.4087	6,276.86	80.6989	6,276.86	81.2846	6,276.86	76.4439	6,276.86	76.6422	6,276.86	79.2918	6,276.86	79.9225	6,276.86	79.7349	6,276.86	79.0557	6,276.86	79.2178	6,276.86	77.9483	6,276.86	76.892	6,276.86	76.7263	6,276.86	72.9825	6,276.86	75.258	6,276.86	70.4276	6,276.86	67.6805	6,276.86	65.8286	6,276.86	68.4033	6,276.86	56.4321	6,276.86	64.281	6,276.86	55.4673	6,276.86	65.8692	6,276.86	60.7742	6,276.86	64.7367	6,276.86	60.9847	6,276.86	56.9847	6,276.86	58.328	6,276.86	63.2755	6,276.86	60.0941	6,276.86	56.9339	6,276.86	58.7664	6,276.86	53.8912	6,276.86	51.6489
6,498.05	83.9872	6,498.05	83.8366	6,498.05	83.9008	6,498.05	80.6541	6,498.05	79.7736	6,498.05	77.1983	6,498.05	74.8009	6,498.05	79.0504	6,498.05	79.5597	6,498.05	80.4112	6,498.05	79.8856	6,498.05	79.1569	6,498.05	78.6583	6,498.05	75.8288	6,498.05	77.3073	6,498.05	72.1017	6,498.05	72.3987	6,498.05	67.1021	6,498.05	63.5514	6,498.05	66.1121	6,498.05	64.8092	6,498.05	62.9276	6,498.05	55.3536	6,498.05	55.2475	6,498.05	66.3079	6,498.05	57.6024	6,498.05	67.3795	6,498.05	61.6762	6,498.05	60.5655	6,498.05	59.1574	6,498.05	57.1507	6,498.05	52.7488	6,498.05	54.7729	6,498.05	57.4177	6,498.05	60.5001	6,498.05	58.0713
6,726.56	84.1103	6,726.56	84.0867	6,726.56	83.7781	6,726.56	79.896	6,726.56	78.122	6,726.56	78.9291	6,726.56	78.0202	6,726.56	80.0727	6,726.56	79.7703	6,726.56	80.4287	6,726.56	81.0692	6,726.56	79.3036	6,726.56	80.5513	6,726.56	75.9974	6,726.56	73.584	6,726.56	71.3831	6,726.56	64.6141	6,726.56	66.8262	6,726.56	62.6422	6,726.56	62.0381	6,726.56	64.7449	6,726.56	61.764	6,726.56	64.9318	6,726.56	52.8287	6,726.56	62.9807	6,726.56	61.757	6,726.56	65.5559	6,726.56	62.5662	6,726.56	59.0565	6,726.56	61.8369	6,726.56	54.9747	6,726.56	60.4944	6,726.56	53.6008	6,726.56	56.7647	6,726.56	57.8826	6,726.56	57.9906
6,963.87	83.8131	6,963.87	83.1142	6,963.87	83.4925	6,963.87	79.9625	6,963.87	80.391	6,963.87	78.8291	6,963.87	80.7513	6,963.87	80.9329	6,963.87	80.6989	6,963.87	81.3516	6,963.87	80.4172	6,963.87	78.915	6,963.87	79.7807	6,963.87	73.7191	6,963.87	70.3954	6,963.87	69.1635	6,963.87	65.8236	6,963.87	66.613	6,963.87	64.8635	6,963.87	64.3535	6,963.87	59.9276	6,963.87	50.3275	6,963.87	61.5566	6,963.87	53.1161	6,963.87	62.0258	6,963.87	60.025	6,963.87	62.7424	6,963.87	58.3103	6,963.87	54.064	6,963.87	61.6884	6,963.87	58.286	6,963.87	63.2303	6,963.87	53.0095	6,963.87	57.8456	6,963.87	46.7064	6,963.87	56.621
7,209.96	84.7027	7,209.96	84.129	7,209.96	84.1729	7,209.96	81.0518	7,209.96	81.1231	7,209.96	79.9249	7,209.96	81.5113	7,209.96	81.4617	7,209.96	80.9816	7,209.96	81.0546	7,209.96	81.3482	7,209.96	78.0567	7,209.96	77.2433	7,209.96	72.9708	7,209.96	70.6028	7,209.96	65.5241	7,209.96	69.4596	7,209.96	65.3349	7,209.96	67.4002	7,209.96	61.1059	7,209.96	63.2043	7,209.96	55.8557	7,209.96	65.7077	7,209.96	53.9941	7,209.96	63.0909	7,209.96	58.2947	7,209.96	63.9975	7,209.96	57.6473	7,209.96	56.7107	7,209.96	56.9494	7,209.96	45.564	7,209.96	60.0352	7,209.96	47.9999	7,209.96	57.1446	7,209.96	51.2291	7,209.96	55.9455
7,464.84	86.07	7,464.84	84.2926	7,464.84	84.7541	7,464.84	80.8074	7,464.84	81.716	7,464.84	80.6952	7,464.84	80.6575	7,464.84	82.1201	7,464.84	81.7124	7,464.84	81.3511	7,464.84	82.36	7,464.84	77.0879	7,464.84	71.4805	7,464.84	71.9592	7,464.84	74.9048	7,464.84	70.6499	7,464.84	71.9325	7,464.84	65.2707	7,464.84	64.6006	7,464.84	62.8276	7,464.84	64.4657	7,464.84	59.6592	7,464.84	65.1349	7,464.84	49.5648	7,464.84	64.4118	7,464.84	58.9389	7,464.84	65.1376	7,464.84	59.0445	7,464.84	58.0719	7,464.84	55.3185	7,464.84	54.155	7,464.84	56.1881	7,464.84	46.6792	7,464.84	55.3579	7,464.84	51.5513	7,464.84	56.3934
7,727.05	86.0888	7,727.05	84.3441	7,727.05	83.8628	7,727.05	81.4007	7,727.05	80.517	7,727.05	80.3152	7,727.05	79.7028	7,727.05	82.4998	7,727.05	82.0925	7,727.05	81.3686	7,727.05	82.3761	7,727.05	76.7602	7,727.05	74.8406	7,727.05	73.4297	7,727.05	75.6313	7,727.05	69.479	7,727.05	68.268	7,727.05	69.6072	7,727.05	69.1776	7,727.05	62.3054	7,727.05	63.9585	7,727.05	62.6482	7,727.05	62.2878	7,727.05	57.7052	7,727.05	64.428	7,727.05	60.9655	7,727.05	68.93	7,727.05	61.4218	7,727.05	61.0048	7,727.05	60.4208	7,727.05	54.1334	7,727.05	57.1333	7,727.05	50.8913	7,727.05	58.0142	7,727.05	49.3993	7,727.05	50.6551
7,999.51	85.2879	7,999.51	82.5936	7,999.51	82.5982	7,999.51	79.5074	7,999.51	78.6421	7,999.51	80.4892	7,999.51	80.2441	7,999.51	82.1317	7,999.51	81.7872	7,999.51	80.2041	7,999.51	79.9346	7,999.51	77.2025	7,999.51	80.1931	7,999.51	75.3116	7,999.51	73.0221	7,999.51	72.8552	7,999.51	69.3832	7,999.51	67.1867	7,999.51	65.7918	7,999.51	67.8346	7,999.51	66.3843	7,999.51	60.4796	7,999.51	65.9449	7,999.51	56.1449	7,999.51	67.9095	7,999.51	62.7658	7,999.51	69.6226	7,999.51	61.808	7,999.51	55.4039	7,999.51	56.1922	7,999.51	43.9115	7,999.51	53.7538	7,999.51	49.8232	7,999.51	57.5728	7,999.51	54.6949	7,999.51	52.4683
8,282.23	82.4188	8,282.23	78.5534	8,282.23	79.4572	8,282.23	78.6388	8,282.23	77.8896	8,282.23	81.3759	8,282.23	81.463	8,282.23	81.3621	8,282.23	80.606	8,282.23	78.2767	8,282.23	75.9663	8,282.23	76.6455	8,282.23	79.6918	8,282.23	75.0901	8,282.23	71.7055	8,282.23	71.8068	8,282.23	71.729	8,282.23	68.6251	8,282.23	69.5477	8,282.23	63.3112	8,282.23	66.2011	8,282.23	56.3192	8,282.23	62.9227	8,282.23	58.9607	8,282.23	65.9331	8,282.23	63.0302	8,282.23	67.7645	8,282.23	61.3117	8,282.23	54.5233	8,282.23	58.0145	8,282.23	38.4242	8,282.23	52.2238	8,282.23	44.1661	8,282.23	55.8579	8,282.23	54.5697	8,282.23	55.1631
8,573.73	81.3827	8,573.73	79.1446	8,573.73	79.2844	8,573.73	80.1977	8,573.73	81.466	8,573.73	81.9191	8,573.73	81.7161	8,573.73	79.2448	8,573.73	80.2263	8,573.73	76.7033	8,573.73	74.8526	8,573.73	75.813	8,573.73	73.6112	8,573.73	73.8513	8,573.73	74.2751	8,573.73	68.5756	8,573.73	68.2699	8,573.73	66.8868	8,573.73	66.1052	8,573.73	61.5857	8,573.73	52.4251	8,573.73	55.6837	8,573.73	62.6079	8,573.73	54.5986	8,573.73	63.5546	8,573.73	57.2612	8,573.73	65.4538	8,573.73	57.0243	8,573.73	55.2469	8,573.73	49.6998	8,573.73	49.2027	8,573.73	53.1232	8,573.73	46.8345	8,573.73	57.098	8,573.73	44.2143	8,573.73	51.2979
8,876.95	82.4981	8,876.95	81.9335	8,876.95	81.5875	8,876.95	81.875	8,876.95	83.1179	8,876.95	82.3086	8,876.95	82.7458	8,876.95	78.9508	8,876.95	78.173	8,876.95	75.5167	8,876.95	75.4378	8,876.95	74.3628	8,876.95	71.0876	8,876.95	71.8733	8,876.95	72.2717	8,876.95	66.6264	8,876.95	66.0315	8,876.95	59.7477	8,876.95	61.6121	8,876.95	59.968	8,876.95	59.5755	8,876.95	55.1637	8,876.95	61.0429	8,876.95	52.7691	8,876.95	66.9473	8,876.95	57.1396	8,876.95	66.4424	8,876.95	57.4553	8,876.95	59.6044	8,876.95	51.3782	8,876.95	49.7939	8,876.95	42.0796	8,876.95	42.4515	8,876.95	55.6875	8,876.95	49.3811	8,876.95	51.0539
9,188.96	83.5885	9,188.96	82.6231	9,188.96	82.4015	9,188.96	82.3125	9,188.96	83.1499	9,188.96	82.3465	9,188.96	83.5396	9,188.96	77.244	9,188.96	74.2576	9,188.96	75.0321	9,188.96	77.1346	9,188.96	74.3311	9,188.96	74.6148	9,188.96	71.0186	9,188.96	69.1052	9,188.96	65.7397	9,188.96	65.3993	9,188.96	59.8057	9,188.96	61.0546	9,188.96	52.5413	9,188.96	62.0651	9,188.96	54.0485	9,188.96	56.308	9,188.96	53.9202	9,188.96	65.5775	9,188.96	53.3267	9,188.96	67.2862	9,188.96	53.0524	9,188.96	53.0063	9,188.96	56.693	9,188.96	52.8672	9,188.96	52.0679	9,188.96	48.0089	9,188.96	50.5074	9,188.96	46.0777	9,188.96	48.0163
9,514.16	83.7987	9,514.16	83.2131	9,514.16	82.4792	9,514.16	83.0585	9,514.16	83.4304	9,514.16	82.4938	9,514.16	82.3164	9,514.16	77.1658	9,514.16	74.6494	9,514.16	76.5986	9,514.16	76.7159	9,514.16	74.392	9,514.16	75.2917	9,514.16	69.798	9,514.16	68.871	9,514.16	63.4634	9,514.16	60.3742	9,514.16	62.2246	9,514.16	61.6201	9,514.16	59.822	9,514.16	56.9573	9,514.16	54.1614	9,514.16	64.3759	9,514.16	50.1403	9,514.16	69.5696	9,514.16	54.6754	9,514.16	69.2707	9,514.16	53.5078	9,514.16	55.0806	9,514.16	50.7507	9,514.16	51.1653	9,514.16	55.8856	9,514.16	42.214	9,514.16	54.073	9,514.16	45.5746	9,514.16	43.9723
9,849.61	83.4019	9,849.61	83.3798	9,849.61	83.2435	9,849.61	83.5953	9,849.61	83.7522	9,849.61	82.2805	9,849.61	80.6252	9,849.61	77.649	9,849.61	78.8416	9,849.61	77.4477	9,849.61	74.6032	9,849.61	74.5876	9,849.61	73.8784	9,849.61	68.9448	9,849.61	69.6043	9,849.61	62.9304	9,849.61	65.5709	9,849.61	59.95	9,849.61	59.7774	9,849.61	55.2768	9,849.61	60.5616	9,849.61	52.1417	9,849.61	62.5693	9,849.61	45.8835	9,849.61	70.0844	9,849.61	54.9275	9,849.61	70.7869	9,849.61	54.8603	9,849.61	57.6744	9,849.61	47.7112	9,849.61	51.0333	9,849.61	55.2784	9,849.61	49.159	9,849.61	56.3233	9,849.61	29.3837	9,849.61	41.8016
10,196.8	82.597	10,196.8	82.7536	10,196.8	82.517	10,196.8	84.0566	10,196.8	84.3157	10,196.8	81.9955	10,196.8	79.7639	10,196.8	78.59	10,196.8	79.9779	10,196.8	77.6941	10,196.8	75.1897	10,196.8	73.202	10,196.8	72.224	10,196.8	67.7862	10,196.8	64.8051	10,196.8	64.014	10,196.8	63.7213	10,196.8	61.3547	10,196.8	63.4292	10,196.8	58.5598	10,196.8	45.1033	10,196.8	51.6658	10,196.8	65.2136	10,196.8	51.3567	10,196.8	71.5481	10,196.8	55.8908	10,196.8	70.7504	10,196.8	55.92	10,196.8	58.0099	10,196.8	47.9163	10,196.8	51.4723	10,196.8	49.2826	10,196.8	51.195	10,196.8	52.5392	10,196.8	45.3928	10,196.8	44.3694
10,555.7	80.2452	10,555.7	82.0901	10,555.7	81.9401	10,555.7	84.0618	10,555.7	84.7876	10,555.7	81.5986	10,555.7	81.8055	10,555.7	79.461	10,555.7	79.5598	10,555.7	77.2352	10,555.7	76.6322	10,555.7	71.5934	10,555.7	69.9117	10,555.7	67.9661	10,555.7	68.1165	10,555.7	64.8419	10,555.7	62.3993	10,555.7	57.1114	10,555.7	55.508	10,555.7	56.3918	10,555.7	58.5844	10,555.7	53.7128	10,555.7	64.7271	10,555.7	52.5468	10,555.7	72.0181	10,555.7	54.5027	10,555.7	71.9146	10,555.7	50.8324	10,555.7	61.0623	10,555.7	45.0415	10,555.7	47.4105	10,555.7	43.8977	10,555.7	45.8541	10,555.7	50.4144	10,555.7	26.2106	10,555.7	42.6048
10,927.7	79.1605	10,927.7	82.7036	10,927.7	82.7015	10,927.7	84.2807	10,927.7	84.3143	10,927.7	81.2294	10,927.7	82.0285	10,927.7	79.9191	10,927.7	78.6951	10,927.7	75.8119	10,927.7	76.2191	10,927.7	70.5272	10,927.7	69.6006	10,927.7	67.644	10,927.7	64.9294	10,927.7	62.1342	10,927.7	60.056	10,927.7	59.0275	10,927.7	58.6007	10,927.7	47.8554	10,927.7	56.7773	10,927.7	60.2982	10,927.7	64.7978	10,927.7	46.8117	10,927.7	71.9483	10,927.7	49.589	10,927.7	71.8939	10,927.7	50.9553	10,927.7	59.9283	10,927.7	49.3712	10,927.7	47.1104	10,927.7	49.005	10,927.7	50.2645	10,927.7	43.9385	10,927.7	39.1368	10,927.7	30.475
11,313	80.2354	11,313	83.0355	11,313	83.5997	11,313	83.9166	11,313	83.3987	11,313	81.4653	11,313	81.4343	11,313	79.908	11,313	78.6285	11,313	73.8205	11,313	74.1125	11,313	70.0734	11,313	70.5564	11,313	66.253	11,313	63.869	11,313	61.8835	11,313	64.2541	11,313	58.1567	11,313	59.547	11,313	55.9501	11,313	38.7076	11,313	48.3474	11,313	64.8364	11,313	52.5126	11,313	70.5993	11,313	52.1429	11,313	71.2582	11,313	52.451	11,313	60.3336	11,313	50.5277	11,313	52.6615	11,313	53.1376	11,313	49.1128	11,313	51.3841	11,313	38.7909	11,313	38.7242
11,712.9	82.4725	11,712.9	83.9616	11,712.9	84.5296	11,712.9	83.3157	11,712.9	83.2775	11,712.9	81.209	11,712.9	80.6734	11,712.9	78.3414	11,712.9	78.0788	11,712.9	70.7956	11,712.9	69.4255	11,712.9	66.1249	11,712.9	66.1861	11,712.9	62.083	11,712.9	61.865	11,712.9	57.3007	11,712.9	58.6236	11,712.9	52.4746	11,712.9	56.972	11,712.9	49.4949	11,712.9	47.0266	11,712.9	51.5182	11,712.9	62.1803	11,712.9	47.7137	11,712.9	70.0109	11,712.9	45.2253	11,712.9	70.5144	11,712.9	44.419	11,712.9	58.9426	11,712.9	44.5738	11,712.9	49.6022	11,712.9	49.4246	11,712.9	41.7449	11,712.9	37.1046	11,712.9	41.8845	11,712.9	26.632
12,126	82.251	12,126	83.847	12,126	84.4963	12,126	83.3288	12,126	83.4424	12,126	80.7511	12,126	80.3494	12,126	76.8919	12,126	76.3485	12,126	68.3495	12,126	65.1132	12,126	64.568	12,126	63.3826	12,126	62.5222	12,126	63.4568	12,126	55.7306	12,126	54.5161	12,126	52.7422	12,126	47.9112	12,126	46.6914	12,126	48.2043	12,126	45.9938	12,126	63.4277	12,126	43.542	12,126	70.9022	12,126	47.6671	12,126	71.7563	12,126	45.0986	12,126	59.8623	12,126	43.7874	12,126	47.3786	12,126	44.0604	12,126	38.3908	12,126	40.9895	12,126	38.8803	12,126	41.2898
12,553.7	79.0105	12,553.7	82.924	12,553.7	83.3192	12,553.7	82.967	12,553.7	82.7219	12,553.7	80.8998	12,553.7	80.6243	12,553.7	76.1976	12,553.7	75.2027	12,553.7	69.2051	12,553.7	68.2919	12,553.7	68.2195	12,553.7	68.0124	12,553.7	62.8258	12,553.7	60.3309	12,553.7	55.0998	12,553.7	56.3667	12,553.7	50.533	12,553.7	45.5586	12,553.7	51.2991	12,553.7	49.6796	12,553.7	48.8959	12,553.7	62.9886	12,553.7	43.8121	12,553.7	71.3944	12,553.7	48.0651	12,553.7	72.9237	12,553.7	43.3115	12,553.7	60.1405	12,553.7	17.3613	12,553.7	51.4961	12,553.7	51.3787	12,553.7	37.7669	12,553.7	39.5626	12,553.7	44.1009	12,553.7	40.4737
12,996.1	74.6549	12,996.1	81.9969	12,996.1	81.6689	12,996.1	82.0056	12,996.1	81.683	12,996.1	81.3604	12,996.1	81.1589	12,996.1	74.8176	12,996.1	74.0799	12,996.1	70.1828	12,996.1	69.232	12,996.1	68.8219	12,996.1	70.32	12,996.1	61.8041	12,996.1	59.9142	12,996.1	56.0697	12,996.1	55.0814	12,996.1	52.4702	12,996.1	54.259	12,996.1	49.2152	12,996.1	52.7568	12,996.1	52.2394	12,996.1	62.9721	12,996.1	48.8779	12,996.1	72.1728	12,996.1	44.7472	12,996.1	73.3341	12,996.1	44.4887	12,996.1	60.2705	12,996.1	44.8828	12,996.1	43.2899	12,996.1	47.0106	12,996.1	43.157	12,996.1	38.5243	12,996.1	41.8838	12,996.1	41.8401
13,454.6	78.1428	13,454.6	81.9291	13,454.6	81.414	13,454.6	80.9037	13,454.6	80.6201	13,454.6	80.8969	13,454.6	80.472	13,454.6	74.0748	13,454.6	73.047	13,454.6	70.8503	13,454.6	69.742	13,454.6	66.99	13,454.6	65.9122	13,454.6	60.2264	13,454.6	60.0452	13,454.6	58.5304	13,454.6	59.8426	13,454.6	54.5122	13,454.6	46.5657	13,454.6	50.7768	13,454.6	53.1998	13,454.6	47.9772	13,454.6	64.3853	13,454.6	46.0664	13,454.6	71.9888	13,454.6	36.292	13,454.6	73.2458	13,454.6	35.7904	13,454.6	58.6259	13,454.6	42.5859	13,454.6	43.3284	13,454.6	49.7861	13,454.6	33.9824	13,454.6	42.1005	13,454.6	37.5754	13,454.6	39.6241
13,929.2	77.6474	13,929.2	81.0343	13,929.2	80.009	13,929.2	80.5561	13,929.2	79.2504	13,929.2	80.2862	13,929.2	78.8831	13,929.2	74.7611	13,929.2	73.8621	13,929.2	71.327	13,929.2	70.6334	13,929.2	65.076	13,929.2	63.9499	13,929.2	62.8016	13,929.2	64.2028	13,929.2	59.1345	13,929.2	52.7292	13,929.2	55.1371	13,929.2	50.2907	13,929.2	52.5788	13,929.2	51.8158	13,929.2	47.7421	13,929.2	63.0328	13,929.2	48.796	13,929.2	71.5409	13,929.2	43.0308	13,929.2	72.9358	13,929.2	45.2486	13,929.2	58.8065	13,929.2	34.7024	13,929.2	46.5199	13,929.2	50.2098	13,929.2	40.0446	13,929.2	42.5785	13,929.2	39.039	13,929.2	35.69
14,419.9	69.1472	14,419.9	77.1753	14,419.9	75.8839	14,419.9	79.6024	14,419.9	78.28	14,419.9	79.9564	14,419.9	79.0235	14,419.9	76.4012	14,419.9	76.6781	14,419.9	72.3037	14,419.9	71.6281	14,419.9	64.7436	14,419.9	65.4689	14,419.9	64.7381	14,419.9	61.5244	14,419.9	57.9935	14,419.9	59.2121	14,419.9	53.5984	14,419.9	45.8692	14,419.9	45.9572	14,419.9	54.3165	14,419.9	38.6879	14,419.9	62.8899	14,419.9	44.181	14,419.9	71.6131	14,419.9	39.9282	14,419.9	73.3777	14,419.9	46.3432	14,419.9	58.3557	14,419.9	37.6531	14,419.9	47.2685	14,419.9	49.9449	14,419.9	40.6788	14,419.9	45.025	14,419.9	36.0018	14,419.9	38.1048
14,928.2	76.5254	14,928.2	62.8418	14,928.2	55.5509	14,928.2	79.2501	14,928.2	78.898	14,928.2	79.9711	14,928.2	80.048	14,928.2	78.0806	14,928.2	77.7247	14,928.2	71.6302	14,928.2	69.9674	14,928.2	67.7152	14,928.2	69.8058	14,928.2	64.8881	14,928.2	64.669	14,928.2	55.5674	14,928.2	50.8454	14,928.2	51.4949	14,928.2	44.2241	14,928.2	49.4666	14,928.2	55.9158	14,928.2	43.3271	14,928.2	62.3129	14,928.2	46.3124	14,928.2	72.0792	14,928.2	39.7423	14,928.2	73.243	14,928.2	44.1001	14,928.2	58.3569	14,928.2	46.4653	14,928.2	41.537	14,928.2	48.3461	14,928.2	37.823	14,928.2	40.9992	14,928.2	39.4869	14,928.2	38.2061
15,455.6	81.4438	15,455.6	72.6523	15,455.6	74.5338	15,455.6	78.6081	15,455.6	78.5145	15,455.6	80.0485	15,455.6	80.1251	15,455.6	79.2165	15,455.6	79.5949	15,455.6	71.0622	15,455.6	69.1738	15,455.6	69.3297	15,455.6	67.7781	15,455.6	62.3935	15,455.6	60.5316	15,455.6	57.0041	15,455.6	57.8892	15,455.6	53.0863	15,455.6	54.2965	15,455.6	53.2302	15,455.6	53.8794	15,455.6	43.0323	15,455.6	62.5118	15,455.6	50.3732	15,455.6	71.5853	15,455.6	39.7251	15,455.6	72.3799	15,455.6	49.1485	15,455.6	57.5929	15,455.6	50.1019	15,455.6	49.436	15,455.6	51.0814	15,455.6	49.6335	15,455.6	47.2772	15,455.6	41.5526	15,455.6	39.7264
16,000.5	81.4177	16,000.5	80.1933	16,000.5	81.3884	16,000.5	77.2801	16,000.5	79.7738	16,000.5	80.0989	16,000.5	80.1545	16,000.5	80.3985	16,000.5	78.8768	16,000.5	72.912	16,000.5	73.1508	16,000.5	68.9501	16,000.5	67.0017	16,000.5	63.2362	16,000.5	63.3353	16,000.5	60.882	16,000.5	59.1259	16,000.5	56.1966	16,000.5	52.3872	16,000.5	52.0373	16,000.5	54.9895	16,000.5	36.897	16,000.5	62.4934	16,000.5	50.8144	16,000.5	72.5206	16,000.5	43.7344	16,000.5	73.2637	16,000.5	50.1048	16,000.5	57.826	16,000.5	48.7763	16,000.5	51.6592	16,000.5	50.1829	16,000.5	50.5351	16,000.5	41.7754	16,000.5	41.512	16,000.5	41.9591
16,564.5	84.3284	16,564.5	85.281	16,564.5	85.343	16,564.5	81.5356	16,564.5	81.7775	16,564.5	81.7341	16,564.5	82.3944	16,564.5	79.9113	16,564.5	78.6504	16,564.5	74.2215	16,564.5	73.8727	16,564.5	65.3929	16,564.5	66.9414	16,564.5	65.4129	16,564.5	65.1129	16,564.5	59.0284	16,564.5	57.7224	16,564.5	52.9621	16,564.5	51.7112	16,564.5	46.5751	16,564.5	54.7989	16,564.5	37.9548	16,564.5	62.9513	16,564.5	47.7144	16,564.5	73.2585	16,564.5	35.752	16,564.5	73.8476	16,564.5	43.8839	16,564.5	57.6878	16,564.5	44.9956	16,564.5	48.8549	16,564.5	48.3061	16,564.5	41.9305	16,564.5	40.4379	16,564.5	36.4626	16,564.5	28.6734
17,148.9	84.7375	17,148.9	85.9896	17,148.9	85.7939	17,148.9	82.269	17,148.9	82.1529	17,148.9	81.6926	17,148.9	82.2984	17,148.9	77.3559	17,148.9	77.7799	17,148.9	71.7716	17,148.9	70.5175	17,148.9	64.5632	17,148.9	66.3043	17,148.9	62.067	17,148.9	60.5668	17,148.9	53.2237	17,148.9	55.6642	17,148.9	45.6131	17,148.9	51.6511	17,148.9	43.8896	17,148.9	51.4915	17,148.9	38.407	17,148.9	61.7142	17,148.9	45.3928	17,148.9	71.8442	17,148.9	35.0019	17,148.9	72.6581	17,148.9	37.1391	17,148.9	56.2094	17,148.9	44.9322	17,148.9	44.7493	17,148.9	21.6936	17,148.9	42.5826	17,148.9	26.6917	17,148.9	36.8562	17,148.9	33.1537
17,752.4	82.2969	17,752.4	83.5574	17,752.4	83.4998	17,752.4	80.9624	17,752.4	80.9449	17,752.4	78.8375	17,752.4	78.9189	17,752.4	73.5794	17,752.4	74.4579	17,752.4	66.7314	17,752.4	67.0902	17,752.4	61.9827	17,752.4	62.0169	17,752.4	56.1479	17,752.4	56.4075	17,752.4	47.8214	17,752.4	47.6623	17,752.4	41.4311	17,752.4	42.2125	17,752.4	40.4116	17,752.4	46.5064	17,752.4	36.7275	17,752.4	58.4624	17,752.4	38.4595	17,752.4	68.7473	17,752.4	38.396	17,752.4	69.7067	17,752.4	20.6103	17,752.4	53.3828	17,752.4	43.2574	17,752.4	42.7276	17,752.4	35.2419	17,752.4	32.5992	17,752.4	25.9496	17,752.4	35.6857	17,752.4	34.1247
18,379.4	80.5862	18,379.4	79.8128	18,379.4	80.0096	18,379.4	79.743	18,379.4	80.0454	18,379.4	75.2474	18,379.4	75.5238	18,379.4	69.2124	18,379.4	69.9834	18,379.4	63.1546	18,379.4	63.9741	18,379.4	58.0546	18,379.4	58.8071	18,379.4	52.6782	18,379.4	50.4962	18,379.4	47.2803	18,379.4	43.4279	18,379.4	39.6493	18,379.4	43.0391	18,379.4	35.4582	18,379.4	40.5964	18,379.4	21.4605	18,379.4	54.3333	18,379.4	36.5028	18,379.4	66.0745	18,379.4	35.9807	18,379.4	66.9037	18,379.4	29.3604	18,379.4	49.9114	18,379.4	39.409	18,379.4	39.1236	18,379.4	38.293	18,379.4	32.3251	18,379.4	31.8151	18,379.4	29.6073	18,379.4	35.6779
19,026.9	80.4204	19,026.9	77.9325	19,026.9	78.1537	19,026.9	78.3819	19,026.9	78.1424	19,026.9	73.492	19,026.9	74.3103	19,026.9	63.5941	19,026.9	66.4815	19,026.9	62.2131	19,026.9	61.4047	19,026.9	56.1072	19,026.9	55.3832	19,026.9	53.3117	19,026.9	50.2408	19,026.9	48.1027	19,026.9	47.0173	19,026.9	38.5735	19,026.9	38.6897	19,026.9	34.02	19,026.9	39.6355	19,026.9	36.5312	19,026.9	52.5532	19,026.9	34.6548	19,026.9	63.8143	19,026.9	36.9093	19,026.9	64.3985	19,026.9	33.0622	19,026.9	43.9267	19,026.9	39.8401	19,026.9	36.8563	19,026.9	34.4508	19,026.9	36.9609	19,026.9	33.0135	19,026.9	28.4481	19,026.9	35.9075
19,697.8	79.1189	19,697.8	77.1228	19,697.8	77.5216	19,697.8	76.1434	19,697.8	75.5519	19,697.8	72.4174	19,697.8	70.9298	19,697.8	61.7508	19,697.8	63.4741	19,697.8	61.7744	19,697.8	60.8119	19,697.8	57.461	19,697.8	56.2565	19,697.8	53.5362	19,697.8	50.4561	19,697.8	48.685	19,697.8	44.3892	19,697.8	39.1588	19,697.8	38.1229	19,697.8	33.9818	19,697.8	30.4429	19,697.8	33.4756	19,697.8	50.6814	19,697.8	37.7132	19,697.8	62.8102	19,697.8	39.3911	19,697.8	62.3068	19,697.8	34.9661	19,697.8	37.2866	19,697.8	40.8191	19,697.8	39.3196	19,697.8	39.0096	19,697.8	39.3878	19,697.8	31.4158	19,697.8	37.327	19,697.8	39.0446
19,999.5	78.7669	19,999.5	76.9672	19,999.5	77.5197	19,999.5	75.0921	19,999.5	74.6058	19,999.5	71.5988	19,999.5	69.4034	19,999.5	62.4287	19,999.5	60.597	19,999.5	62.9253	19,999.5	61.3315	19,999.5	59.6563	19,999.5	55.766	19,999.5	53.1757	19,999.5	52.2356	19,999.5	49.7349	19,999.5	41.6644	19,999.5	44.7378	19,999.5	37.2379	19,999.5	33.073	19,999.5	46.1727	19,999.5	34.7812	19,999.5	48.6349	19,999.5	40.6572	19,999.5	62.7627	19,999.5	47.3078	19,999.5	61.8641	19,999.5	38.3753	19,999.5	38.6514	19,999.5	41.9994	19,999.5	39.2514	19,999.5	31.3084	19,999.5	44.4056	19,999.5	42.8095	19,999.5	44.3439	19,999.5	39.939
