"SPL Vertical"
"On-Axis"		"10°"		"-10°"		"20°"		"-20°"		"30°"		"-30°"		"40°"		"-40°"		"50°"		"-50°"		"60°"		"-60°"		"70°"		"-70°"		"80°"		"-80°"		"90°"		"-90°"		"100°"		"-100°"		"110°"		"-110°"		"120°"		"-120°"		"130°"		"-130°"		"140°"		"-140°"		"150°"		"-150°"		"160°"		"-160°"		"170°"		"-170°"		"180°"
"Frequency / Hz"	"Sound Pressure Level / dB (re 20 µPa/V)  [2.83V at 1m]"	"Frequency / Hz"	"Sound Pressure Level / dB (re 20 µPa/V)  [2.83V at 1m]"	"Frequency / Hz"	"Sound Pressure Level / dB (re 20 µPa/V)  [2.83V at 1m]"	"Frequency / Hz"	"Sound Pressure Level / dB (re 20 µPa/V)  [2.83V at 1m]"	"Frequency / Hz"	"Sound Pressure Level / dB (re 20 µPa/V)  [2.83V at 1m]"	"Frequency / Hz"	"Sound Pressure Level / dB (re 20 µPa/V)  [2.83V at 1m]"	"Frequency / Hz"	"Sound Pressure Level / dB (re 20 µPa/V)  [2.83V at 1m]"	"Frequency / Hz"	"Sound Pressure Level / dB (re 20 µPa/V)  [2.83V at 1m]"	"Frequency / Hz"	"Sound Pressure Level / dB (re 20 µPa/V)  [2.83V at 1m]"	"Frequency / Hz"	"Sound Pressure Level / dB (re 20 µPa/V)  [2.83V at 1m]"	"Frequency / Hz"	"Sound Pressure Level / dB (re 20 µPa/V)  [2.83V at 1m]"	"Frequency / Hz"	"Sound Pressure Level / dB (re 20 µPa/V)  [2.83V at 1m]"	"Frequency / Hz"	"Sound Pressure Level / dB (re 20 µPa/V)  [2.83V at 1m]"	"Frequency / Hz"	"Sound Pressure Level / dB (re 20 µPa/V)  [2.83V at 1m]"	"Frequency / Hz"	"Sound Pressure Level / dB (re 20 µPa/V)  [2.83V at 1m]"	"Frequency / Hz"	"Sound Pressure Level / dB (re 20 µPa/V)  [2.83V at 1m]"	"Frequency / Hz"	"Sound Pressure Level / dB (re 20 µPa/V)  [2.83V at 1m]"	"Frequency / Hz"	"Sound Pressure Level / dB (re 20 µPa/V)  [2.83V at 1m]"	"Frequency / Hz"	"Sound Pressure Level / dB (re 20 µPa/V)  [2.83V at 1m]"	"Frequency / Hz"	"Sound Pressure Level / dB (re 20 µPa/V)  [2.83V at 1m]"	"Frequency / Hz"	"Sound Pressure Level / dB (re 20 µPa/V)  [2.83V at 1m]"	"Frequency / Hz"	"Sound Pressure Level / dB (re 20 µPa/V)  [2.83V at 1m]"	"Frequency / Hz"	"Sound Pressure Level / dB (re 20 µPa/V)  [2.83V at 1m]"	"Frequency / Hz"	"Sound Pressure Level / dB (re 20 µPa/V)  [2.83V at 1m]"	"Frequency / Hz"	"Sound Pressure Level / dB (re 20 µPa/V)  [2.83V at 1m]"	"Frequency / Hz"	"Sound Pressure Level / dB (re 20 µPa/V)  [2.83V at 1m]"	"Frequency / Hz"	"Sound Pressure Level / dB (re 20 µPa/V)  [2.83V at 1m]"	"Frequency / Hz"	"Sound Pressure Level / dB (re 20 µPa/V)  [2.83V at 1m]"	"Frequency / Hz"	"Sound Pressure Level / dB (re 20 µPa/V)  [2.83V at 1m]"	"Frequency / Hz"	"Sound Pressure Level / dB (re 20 µPa/V)  [2.83V at 1m]"	"Frequency / Hz"	"Sound Pressure Level / dB (re 20 µPa/V)  [2.83V at 1m]"	"Frequency / Hz"	"Sound Pressure Level / dB (re 20 µPa/V)  [2.83V at 1m]"	"Frequency / Hz"	"Sound Pressure Level / dB (re 20 µPa/V)  [2.83V at 1m]"	"Frequency / Hz"	"Sound Pressure Level / dB (re 20 µPa/V)  [2.83V at 1m]"	"Frequency / Hz"	"Sound Pressure Level / dB (re 20 µPa/V)  [2.83V at 1m]"	"Frequency / Hz"	"Sound Pressure Level / dB (re 20 µPa/V)  [2.83V at 1m]"
20.5078	52.3424	20.5078	52.4514	20.5078	52.7445	20.5078	52.7973	20.5078	53.8941	20.5078	53.2203	20.5078	55.7381	20.5078	53.6623	20.5078	57.9734	20.5078	54.1197	20.5078	60.3051	20.5078	54.6111	20.5078	62.5504	20.5078	55.1602	20.5078	64.6046	20.5078	55.7869	20.5078	66.3918	20.5078	56.502	20.5078	67.8412	20.5078	57.306	20.5078	68.8894	20.5078	58.1906	20.5078	69.4993	20.5078	59.1423	20.5078	69.6785	20.5078	60.1453	20.5078	69.4791	20.5078	61.1841	20.5078	68.9804	20.5078	62.2447	20.5078	68.2649	20.5078	63.3143	20.5078	67.4026	20.5078	64.3806	20.5078	66.4457	20.5078	65.4302
21.9727	54.1236	21.9727	54.1769	21.9727	54.3481	21.9727	54.3104	21.9727	55.1411	21.9727	54.4449	21.9727	56.6702	21.9727	54.5743	21.9727	58.7769	21.9727	54.7299	21.9727	61.1295	21.9727	54.9597	21.9727	63.4599	21.9727	55.3138	21.9727	65.6075	21.9727	55.8293	21.9727	67.4705	21.9727	56.5194	21.9727	68.9689	21.9727	57.3709	21.9727	70.0387	21.9727	58.3522	21.9727	70.6473	21.9727	59.4254	21.9727	70.8091	21.9727	60.5556	21.9727	70.5831	21.9727	61.7154	21.9727	70.0524	21.9727	62.8849	21.9727	69.3003	21.9727	64.0494	21.9727	68.396	21.9727	65.1971	21.9727	67.3897	21.9727	66.3158
23.4375	55.9003	23.4375	55.6994	23.4375	56.475	23.4375	55.7227	23.4375	57.5531	23.4375	55.8719	23.4375	59.1355	23.4375	56.1067	23.4375	61.0767	23.4375	56.4244	23.4375	63.1798	23.4375	56.8399	23.4375	65.2775	23.4375	57.3695	23.4375	67.2458	23.4375	58.0209	23.4375	68.9859	23.4375	58.7894	23.4375	70.4095	23.4375	59.6594	23.4375	71.4419	23.4375	60.6094	23.4375	72.0409	23.4375	61.617	23.4375	72.2132	23.4375	62.6624	23.4375	72.0119	23.4375	63.7299	23.4375	71.5161	23.4375	64.8069	23.4375	70.8071	23.4375	65.8836	23.4375	69.953	23.4375	66.9502	23.4375	69.0042	23.4375	67.9956
24.9023	57.5304	24.9023	57.2252	24.9023	58.156	24.9023	57.144	24.9023	59.1855	24.9023	57.2204	24.9023	60.6271	24.9023	57.4228	24.9023	62.3892	24.9023	57.7439	24.9023	64.3237	24.9023	58.1854	24.9023	66.282	24.9023	58.748	24.9023	68.1401	24.9023	59.4251	24.9023	69.795	24.9023	60.2023	24.9023	71.1567	24.9023	61.0606	24.9023	72.1502	24.9023	61.9799	24.9023	72.7317	24.9023	62.9418	24.9023	72.905	24.9023	63.9312	24.9023	72.7205	24.9023	64.9364	24.9023	72.2551	24.9023	65.9482	24.9023	71.5875	24.9023	66.9588	24.9023	70.7834	24.9023	67.9602	24.9023	69.8907	24.9023	68.9424
26.3672	61.5662	26.3672	61.416	26.3672	61.8898	26.3672	61.381	26.3672	62.4625	26.3672	61.4275	26.3672	63.3496	26.3672	61.5419	26.3672	64.5631	26.3672	61.7236	26.3672	66.0404	26.3672	61.9782	26.3672	67.6644	26.3672	62.3128	26.3672	69.3021	26.3672	62.7326	26.3672	70.8272	26.3672	63.2385	26.3672	72.1247	26.3672	63.8271	26.3672	73.0985	26.3672	64.491	26.3672	73.6895	26.3672	65.22	26.3672	73.8915	26.3672	66.0029	26.3672	73.7486	26.3672	66.828	26.3672	73.3346	26.3672	67.684	26.3672	72.7275	26.3672	68.5598	26.3672	71.9931	26.3672	69.4438	26.3672	71.1804	26.3672	70.3229
27.832	60.1592	27.832	59.802	27.832	60.7913	27.832	59.6642	27.832	61.7388	27.832	59.6979	27.832	62.9994	27.832	59.8712	27.832	64.5177	27.832	60.1661	27.832	66.1999	27.832	60.5725	27.832	67.9384	27.832	61.0821	27.832	69.6274	27.832	61.6857	27.832	71.1651	27.832	62.3719	27.832	72.4525	27.832	63.1274	27.832	73.4025	27.832	63.9389	27.832	73.9611	27.832	64.7938	27.832	74.1256	27.832	65.681	27.832	73.9432	27.832	66.5914	27.832	73.4892	27.832	67.5172	27.832	72.8419	27.832	68.4513	27.832	72.0667	27.832	69.3859	27.832	71.2119	27.832	70.311
29.2969	63.5777	29.2969	63.2325	29.2969	64.1253	29.2969	63.0604	29.2969	64.8972	29.2969	63.0338	29.2969	65.8968	29.2969	63.1308	29.2969	67.1001	29.2969	63.335	29.2969	68.4551	29.2969	63.6347	29.2969	69.8885	29.2969	64.0205	29.2969	71.3139	29.2969	64.484	29.2969	72.6377	29.2969	65.0172	29.2969	73.7632	29.2969	65.612	29.2969	74.602	29.2969	66.2607	29.2969	75.0948	29.2969	66.9556	29.2969	75.2321	29.2969	67.6899	29.2969	75.0534	29.2969	68.4569	29.2969	74.6274	29.2969	69.2504	29.2969	74.0267	29.2969	70.0638	29.2969	73.3129	29.2969	70.8895	29.2969	72.5323	29.2969	71.7172
30.7617	66.182	30.7617	65.8589	30.7617	66.6596	30.7617	65.6701	30.7617	67.3095	30.7617	65.5975	30.7617	68.1396	30.7617	65.6268	30.7617	69.1409	30.7617	65.7474	30.7617	70.2817	30.7617	65.9513	30.7617	71.5078	30.7617	66.2328	30.7617	72.7462	30.7617	66.5864	30.7617	73.9121	30.7617	67.0071	30.7617	74.9144	30.7617	67.4899	30.7617	75.6675	30.7617	68.0293	30.7617	76.1107	30.7617	68.62	30.7617	76.2286	30.7617	69.2564	30.7617	76.0536	30.7617	69.9329	30.7617	75.6473	30.7617	70.6437	30.7617	75.0776	30.7617	71.3822	30.7617	74.4034	30.7617	72.1405	30.7617	73.6695	30.7617	72.9079
32.2266	67.8897	32.2266	67.5621	32.2266	68.352	32.2266	67.3548	32.2266	68.9606	32.2266	67.2543	32.2266	69.7204	32.2266	67.2491	32.2266	70.6234	32.2266	67.3299	32.2266	71.6445	32.2266	67.4897	32.2266	72.7403	32.2266	67.7226	32.2266	73.8515	32.2266	68.0237	32.2266	74.9048	32.2266	68.3886	32.2266	75.8166	32.2266	68.813	32.2266	76.5024	32.2266	69.2929	32.2266	76.9002	32.2266	69.8238	32.2266	76.9929	32.2266	70.4015	32.2266	76.8108	32.2266	71.0212	32.2266	76.413	32.2266	71.6778	32.2266	75.8636	32.2266	72.3651	32.2266	75.2185	32.2266	73.0755	32.2266	74.52	32.2266	73.7986
33.6914	69.858	33.6914	69.5363	33.6914	70.2937	33.6914	69.3178	33.6914	70.852	33.6914	69.1923	33.6914	71.5357	33.6914	69.1508	33.6914	72.3378	33.6914	69.1861	33.6914	73.2386	33.6914	69.2925	33.6914	74.2039	33.6914	69.4653	33.6914	75.1861	33.6914	69.7009	33.6914	76.1226	33.6914	69.9961	33.6914	76.9363	33.6914	70.3481	33.6914	77.5459	33.6914	70.7541	33.6914	77.8889	33.6914	71.2114	33.6914	77.9465	33.6914	71.7173	33.6914	77.7468	33.6914	72.2684	33.6914	77.3462	33.6914	72.861	33.6914	76.8066	33.6914	73.49	33.6914	76.1816	33.6914	74.1488	33.6914	75.512	33.6914	74.8275
35.1562	71.6494	35.1562	71.3176	35.1562	72.0745	35.1562	71.0741	35.1562	72.5962	35.1562	70.9131	35.1562	73.2139	35.1562	70.8289	35.1562	73.9219	35.1562	70.8164	35.1562	74.7068	35.1562	70.8711	35.1562	75.5452	35.1562	70.9893	35.1562	76.4007	35.1562	71.1679	35.1562	77.2206	35.1562	71.4045	35.1562	77.9352	35.1562	71.6967	35.1562	78.4675	35.1562	72.0424	35.1562	78.7556	35.1562	72.4395	35.1562	78.7784	35.1562	72.8858	35.1562	78.5605	35.1562	73.3788	35.1562	78.1559	35.1562	73.9152	35.1562	77.6248	35.1562	74.4909	35.1562	77.0197	35.1562	75.1	35.1562	76.3801	35.1562	75.7339
36.6211	73.5491	36.6211	73.2002	36.6211	73.9661	36.6211	72.9182	36.6211	74.4504	36.6211	72.7015	36.6211	74.9993	36.6211	72.5478	36.6211	75.6067	36.6211	72.4553	36.6211	76.2627	36.6211	72.4221	36.6211	76.9515	36.6211	72.4469	36.6211	77.6481	36.6211	72.5288	36.6211	78.313	36.6211	72.6671	36.6211	78.8887	36.6211	72.8614	36.6211	79.3054	36.6211	73.1114	36.6211	79.5026	36.6211	73.4169	36.6211	79.4563	36.6211	73.7773	36.6211	79.1876	36.6211	74.1916	36.6211	78.7482	36.6211	74.6583	36.6211	78.1975	36.6211	75.1744	36.6211	77.5872	36.6211	75.7352	36.6211	76.9567	36.6211	76.3333
38.0859	74.3047	38.0859	74.0127	38.0859	74.6694	38.0859	73.7901	38.0859	75.1106	38.0859	73.6338	38.0859	75.6312	38.0859	73.5413	38.0859	76.2316	38.0859	73.5104	38.0859	76.9064	38.0859	73.5391	38.0859	77.6396	38.0859	73.6256	38.0859	78.4006	38.0859	73.7682	38.0859	79.1411	38.0859	73.9654	38.0859	79.796	38.0859	74.2156	38.0859	80.2919	38.0859	74.5172	38.0859	80.5694	38.0859	74.8683	38.0859	80.6059	38.0859	75.2671	38.0859	80.4212	38.0859	75.7112	38.0859	80.0627	38.0859	76.1975	38.0859	79.5844	38.0859	76.7219	38.0859	79.0345	38.0859	77.2785	38.0859	78.4504	38.0859	77.8589
39.5508	75.7577	39.5508	75.4466	39.5508	76.1362	39.5508	75.202	39.5508	76.5818	39.5508	75.0221	39.5508	77.0923	39.5508	74.9044	39.5508	77.6625	39.5508	74.8465	39.5508	78.2828	39.5508	74.8459	39.5508	78.937	39.5508	74.9004	39.5508	79.5992	39.5508	75.0078	39.5508	80.2305	39.5508	75.1664	39.5508	80.7777	39.5508	75.3745	39.5508	81.1786	39.5508	75.6308	39.5508	81.3808	39.5508	75.9341	39.5508	81.3638	39.5508	76.2833	39.5508	81.1462	39.5508	76.6769	39.5508	80.7728	39.5508	77.1131	39.5508	80.2952	39.5508	77.5891	39.5508	79.7591	39.5508	78.1007	39.5508	79.1994	39.5508	78.6411
41.0156	76.855	41.0156	76.5314	41.0156	77.2405	41.0156	76.2707	41.0156	77.6857	41.0156	76.0722	41.0156	78.186	41.0156	75.9348	41.0156	78.7342	41.0156	75.8563	41.0156	79.3189	41.0156	75.8345	41.0156	79.9229	41.0156	75.8669	41.0156	80.5212	41.0156	75.9512	41.0156	81.0788	41.0156	76.0851	41.0156	81.5492	41.0156	76.2667	41.0156	81.8783	41.0156	76.4944	41.0156	82.0204	41.0156	76.7669	41.0156	81.9587	41.0156	77.0832	41.0156	81.7131	41.0156	77.4421	41.0156	81.3277	41.0156	77.8423	41.0156	80.8524	41.0156	78.282	41.0156	80.3303	41.0156	78.7579	41.0156	79.7937	41.0156	79.2648
42.4805	78.0314	42.4805	77.6934	42.4805	78.4239	42.4805	77.4123	42.4805	78.8663	42.4805	77.1894	42.4805	79.3519	42.4805	77.0245	42.4805	79.8714	42.4805	76.9165	42.4805	80.4122	42.4805	76.8639	42.4805	80.9576	42.4805	76.8646	42.4805	81.4863	42.4805	76.9167	42.4805	81.9691	42.4805	77.018	42.4805	82.3669	42.4805	77.1669	42.4805	82.6326	42.4805	77.3618	42.4805	82.7248	42.4805	77.6017	42.4805	82.6277	42.4805	77.8857	42.4805	82.3598	42.4805	78.2132	42.4805	81.9628	42.4805	78.5833	42.4805	81.4849	42.4805	78.9949	42.4805	80.9677	42.4805	79.4456	42.4805	80.4426	42.4805	79.9308
43.9453	78.9707	43.9453	78.6341	43.9453	79.3552	43.9453	78.3491	43.9453	79.7821	43.9453	78.118	43.9453	80.2439	43.9453	77.9415	43.9453	80.7307	43.9453	77.8193	43.9453	81.2306	43.9453	77.7504	43.9453	81.7285	43.9453	77.7333	43.9453	82.2052	43.9453	77.7661	43.9453	82.6353	43.9453	77.8471	43.9453	82.9841	43.9453	77.9746	43.9453	83.2092	43.9453	78.1472	43.9453	83.2728	43.9453	78.3639	43.9453	83.1604	43.9453	78.6239	43.9453	82.8892	43.9453	78.9267	43.9453	82.4986	43.9453	79.2717	43.9453	82.0341	43.9453	79.6579	43.9453	81.5354	43.9453	80.0832	43.9453	81.0319	43.9453	80.5437
45.4102	79.8159	45.4102	79.4793	45.4102	80.1966	45.4102	79.1911	45.4102	80.6149	45.4102	78.9541	45.4102	81.0625	45.4102	78.7695	45.4102	81.5286	45.4102	78.6373	45.4102	82.0002	45.4102	78.5567	45.4102	82.4622	45.4102	78.5263	45.4102	82.896	45.4102	78.5442	45.4102	83.2786	45.4102	78.6087	45.4102	83.5793	45.4102	78.718	45.4102	83.7611	45.4102	78.8709	45.4102	83.7908	45.4102	79.0661	45.4102	83.6564	45.4102	79.3031	45.4102	83.3749	45.4102	79.5815	45.4102	82.9844	45.4102	79.901	45.4102	82.5284	45.4102	80.2611	45.4102	82.0446	45.4102	80.6604	45.4102	81.5609	45.4102	81.0957
46.875	80.5266	46.875	80.1875	46.875	80.9061	46.875	79.8939	46.875	81.3189	46.875	79.6493	46.875	81.7557	46.875	79.4554	46.875	82.2051	46.875	79.3125	46.875	82.6534	46.875	79.2203	46.875	83.0851	46.875	79.1773	46.875	83.4822	46.875	79.182	46.875	83.8232	46.875	79.2324	46.875	84.0812	46.875	79.327	46.875	84.2239	46.875	79.4641	46.875	84.2226	46.875	79.6425	46.875	84.0676	46.875	79.8616	46.875	83.7762	46.875	80.1211	46.875	83.3852	46.875	80.4206	46.875	82.9363	46.875	80.7599	46.875	82.4653	46.875	81.1381	46.875	81.9984	46.875	81.5527
48.3398	81.2704	48.3398	80.9283	48.3398	81.6467	48.3398	80.6266	48.3398	82.0489	48.3398	80.3696	48.3398	82.4666	48.3398	80.1597	48.3398	82.8872	48.3398	79.998	48.3398	83.2968	48.3398	79.8845	48.3398	83.6801	48.3398	79.8184	48.3398	84.0208	48.3398	79.7984	48.3398	84.3009	48.3398	79.8229	48.3398	84.4985	48.3398	79.8904	48.3398	84.5874	48.3398	79.9996	48.3398	84.5441	48.3398	80.1497	48.3398	84.3613	48.3398	80.34	48.3398	84.0558	48.3398	80.5704	48.3398	83.6625	48.3398	80.8411	48.3398	83.2204	48.3398	81.1522	48.3398	82.7633	48.3398	81.5033	48.3398	82.3155	48.3398	81.8926
51.2695	81.8654	51.2695	81.5367	51.2695	82.225	51.2695	81.2455	51.2695	82.6067	51.2695	80.9965	51.2695	82.9995	51.2695	80.7922	51.2695	83.3905	51.2695	80.6339	51.2695	83.7654	51.2695	80.5215	51.2695	84.1092	51.2695	80.4541	51.2695	84.4069	51.2695	80.4303	51.2695	84.643	51.2695	80.4483	51.2695	84.7998	51.2695	80.5066	51.2695	84.8571	51.2695	80.6035	51.2695	84.7961	51.2695	80.738	51.2695	84.6115	51.2695	80.9094	51.2695	84.3185	51.2695	81.1175	51.2695	83.9487	51.2695	81.3624	51.2695	83.5376	51.2695	81.6443	51.2695	83.1155	51.2695	81.9631	51.2695	82.7043	51.2695	82.3176
52.7344	82.089	52.7344	81.7617	52.7344	82.4468	52.7344	81.4716	52.7344	82.8256	52.7344	81.2237	52.7344	83.2139	52.7344	81.0209	52.7344	83.5982	52.7344	80.8642	52.7344	83.9633	52.7344	80.7536	52.7344	84.2934	52.7344	80.6879	52.7344	84.5724	52.7344	80.6653	52.7344	84.7847	52.7344	80.6838	52.7344	84.9145	52.7344	80.7412	52.7344	84.945	52.7344	80.8356	52.7344	84.8625	52.7344	80.9654	52.7344	84.6658	52.7344	81.1296	52.7344	84.3716	52.7344	81.3276	52.7344	84.0102	52.7344	81.5594	52.7344	83.6146	52.7344	81.8252	52.7344	83.2124	52.7344	82.1253	52.7344	82.8233	52.7344	82.4588
54.1992	82.3314	54.1992	82.002	54.1992	82.688	54.1992	81.7075	54.1992	83.0617	54.1992	81.4532	54.1992	83.4401	54.1992	81.2424	54.1992	83.8089	54.1992	81.0768	54.1992	84.152	54.1992	80.9564	54.1992	84.4531	54.1992	80.8802	54.1992	84.6964	54.1992	80.8464	54.1992	84.8674	54.1992	80.8528	54.1992	84.953	54.1992	80.8972	54.1992	84.941	54.1992	80.9775	54.1992	84.823	54.1992	81.0918	54.1992	84.6015	54.1992	81.2388	54.1992	84.2952	54.1992	81.4179	54.1992	83.9339	54.1992	81.6289	54.1992	83.5485	54.1992	81.8721	54.1992	83.164	54.1992	82.1481	54.1992	82.797	54.1992	82.4569
55.6641	82.5687	55.6641	82.237	55.6641	82.9233	55.6641	81.9366	55.6641	83.2901	55.6641	81.6734	55.6641	83.6563	55.6641	81.4512	55.6641	84.0067	55.6641	81.2721	55.6641	84.3251	55.6641	81.1366	55.6641	84.5947	55.6641	81.044	55.6641	84.7999	55.6641	80.9927	55.6641	84.9274	55.6641	80.9808	55.6641	84.9667	55.6641	81.006	55.6641	84.9099	55.6641	81.0662	55.6641	84.7532	55.6641	81.1596	55.6641	84.5032	55.6641	81.2849	55.6641	84.1799	55.6641	81.4414	55.6641	83.8126	55.6641	81.6292	55.6641	83.4308	55.6641	81.8489	55.6641	83.0576	55.6641	82.1014	55.6641	82.7073	55.6641	82.3876
58.5938	82.7322	58.5938	82.4065	58.5938	83.077	58.5938	82.1085	58.5938	83.4296	58.5938	81.8446	58.5938	83.7764	58.5938	81.6189	58.5938	84.1017	58.5938	81.4336	58.5938	84.3885	58.5938	81.2894	58.5938	84.6194	58.5938	81.1859	58.5938	84.779	58.5938	81.1215	58.5938	84.8549	58.5938	81.0943	58.5938	84.84	58.5938	81.102	58.5938	84.7321	58.5938	81.1424	58.5938	84.5349	58.5938	81.2137	58.5938	84.2601	58.5938	81.3145	58.5938	83.9295	58.5938	81.4439	58.5938	83.5705	58.5938	81.6022	58.5938	83.2087	58.5938	81.7901	58.5938	82.8633	58.5938	82.0089	58.5938	82.5456	58.5938	82.2605
60.0586	82.7549	60.0586	82.4309	60.0586	83.0963	60.0586	82.1335	60.0586	83.4435	60.0586	81.8692	60.0586	83.7823	60.0586	81.6424	60.0586	84.0966	60.0586	81.4557	60.0586	84.3687	60.0586	81.3097	60.0586	84.5812	60.0586	81.2038	60.0586	84.7182	60.0586	81.1367	60.0586	84.768	60.0586	81.1059	60.0586	84.725	60.0586	81.1092	60.0586	84.5901	60.0586	81.1441	60.0586	84.3711	60.0586	81.2083	60.0586	84.0836	60.0586	81.3001	60.0586	83.7509	60.0586	81.4187	60.0586	83.3995	60.0586	81.5637	60.0586	83.053	60.0586	81.7359	60.0586	82.7275	60.0586	81.9367	60.0586	82.4315	60.0586	82.168
62.9883	82.9216	62.9883	82.5905	62.9883	83.2646	62.9883	82.2812	62.9883	83.6066	62.9883	82.0013	62.9883	83.9321	62.9883	81.7559	62.9883	84.2233	62.9883	81.548	62.9883	84.4609	62.9883	81.379	62.9883	84.6258	62.9883	81.2484	62.9883	84.7016	62.9883	81.1551	62.9883	84.6773	62.9883	81.0968	62.9883	84.5509	62.9883	81.071	62.9883	84.3305	62.9883	81.0751	62.9883	84.0338	62.9883	81.1065	62.9883	83.6856	62.9883	81.1633	62.9883	83.3147	62.9883	81.2444	62.9883	82.949	62.9883	81.3493	62.9883	82.6094	62.9883	81.4793	62.9883	82.3075	62.9883	81.6363	62.9883	82.0463	62.9883	81.8239
64.4531	83.028	64.4531	82.6908	64.4531	83.375	64.4531	82.3739	64.4531	83.7185	64.4531	82.0849	64.4531	84.0426	64.4531	81.8291	64.4531	84.3286	64.4531	81.6098	64.4531	84.5566	64.4531	81.4283	64.4531	84.7068	64.4531	81.2844	64.4531	84.7619	64.4531	81.1768	64.4531	84.7111	64.4531	81.1033	64.4531	84.5533	64.4531	81.0616	64.4531	84.2993	64.4531	81.049	64.4531	83.9699	64.4531	81.063	64.4531	83.5924	64.4531	81.1018	64.4531	83.1969	64.4531	81.1645	64.4531	82.8123	64.4531	81.2513	64.4531	82.4603	64.4531	81.3637	64.4531	82.1532	64.4531	81.505	64.4531	81.894	64.4531	81.6798
67.3828	82.9469	67.3828	82.6128	67.3828	83.2919	67.3828	82.2999	67.3828	83.6348	67.3828	82.0156	67.3828	83.9598	67.3828	81.7648	67.3828	84.2483	67.3828	81.5504	67.3828	84.4796	67.3828	81.3735	67.3828	84.6328	67.3828	81.2337	67.3828	84.6889	67.3828	81.1296	67.3828	84.6352	67.3828	81.059	67.3828	84.4703	67.3828	81.0195	67.3828	84.2072	67.3828	81.0085	67.3828	83.8716	67.3828	81.0237	67.3828	83.495	67.3828	81.0635	67.3828	83.1085	67.3828	81.1271	67.3828	82.7377	67.3828	81.2146	67.3828	82.4	67.3828	81.3276	67.3828	82.1043	67.3828	81.4687	67.3828	81.8525	67.3828	81.6421
68.8477	82.9285	68.8477	82.5989	68.8477	83.2689	68.8477	82.2905	68.8477	83.6068	68.8477	82.0107	68.8477	83.9261	68.8477	81.7647	68.8477	84.208	68.8477	81.5553	68.8477	84.4319	68.8477	81.3834	68.8477	84.5768	68.8477	81.2486	68.8477	84.6238	68.8477	81.1491	68.8477	84.5602	68.8477	81.0826	68.8477	84.3851	68.8477	81.0464	68.8477	84.113	68.8477	81.0376	68.8477	83.7716	68.8477	81.0536	68.8477	83.3949	68.8477	81.0926	68.8477	83.0152	68.8477	81.1534	68.8477	82.6573	68.8477	81.2358	68.8477	82.3367	68.8477	81.341	68.8477	82.0596	68.8477	81.4717	68.8477	81.8259	68.8477	81.6316
71.7773	82.919	71.7773	82.5928	71.7773	83.2538	71.7773	82.2862	71.7773	83.5834	71.7773	82.0072	71.7773	83.8912	71.7773	81.7613	71.7773	84.1581	71.7773	81.5517	71.7773	84.3631	71.7773	81.3795	71.7773	84.4849	71.7773	81.2441	71.7773	84.5047	71.7773	81.1438	71.7773	84.4102	71.7773	81.076	71.7773	84.2017	71.7773	81.0374	71.7773	83.8967	71.7773	81.0248	71.7773	83.5285	71.7773	81.0353	71.7773	83.1367	71.7773	81.0661	71.7773	82.7571	71.7773	81.1157	71.7773	82.414	71.7773	81.1833	71.7773	82.1188	71.7773	81.2696	71.7773	81.8732	71.7773	81.3769	71.7773	81.6723	71.7773	81.5092
74.707	82.9093	74.707	82.5834	74.707	83.2417	74.707	82.2754	74.707	83.5663	74.707	81.9938	74.707	83.866	74.707	81.7447	74.707	84.1212	74.707	81.5316	74.707	84.3108	74.707	81.3557	74.707	84.4134	74.707	81.2167	74.707	84.4099	74.707	81.1127	74.707	84.2882	74.707	81.0408	74.707	84.0493	74.707	80.9976	74.707	83.713	74.707	80.9795	74.707	83.3172	74.707	80.9831	74.707	82.9072	74.707	81.0053	74.707	82.522	74.707	81.044	74.707	82.1857	74.707	81.0982	74.707	81.907	74.707	81.1683	74.707	81.6833	74.707	81.2565	74.707	81.5065	74.707	81.3671
77.6367	82.9129	77.6367	82.5895	77.6367	83.2395	77.6367	82.2813	77.6367	83.5546	77.6367	81.9973	77.6367	83.8405	77.6367	81.7441	77.6367	84.0773	77.6367	81.5253	77.6367	84.2432	77.6367	81.3428	77.6367	84.3166	77.6367	81.196	77.6367	84.2783	77.6367	81.0833	77.6367	84.1166	77.6367	81.0015	77.6367	83.8339	77.6367	80.9471	77.6367	83.4536	77.6367	80.9162	77.6367	83.02	77.6367	80.9051	77.6367	82.585	77.6367	80.9105	77.6367	82.1915	77.6367	80.9301	77.6367	81.8628	77.6367	80.9626	77.6367	81.6038	77.6367	81.0084	77.6367	81.407	77.6367	81.0697	77.6367	81.2603	77.6367	81.1513
79.1016	82.9455	79.1016	82.6256	79.1016	83.2671	79.1016	82.3194	79.1016	83.5753	79.1016	82.0363	79.1016	83.8525	79.1016	81.7829	79.1016	84.0785	79.1016	81.5631	79.1016	84.2316	79.1016	81.3788	79.1016	84.2902	79.1016	81.2296	79.1016	84.2352	79.1016	81.1135	79.1016	84.0554	79.1016	81.0276	79.1016	83.7539	79.1016	80.9682	79.1016	83.3559	79.1016	80.9312	79.1016	82.9078	79.1016	80.9129	79.1016	82.4641	79.1016	80.9098	79.1016	82.0691	79.1016	80.9196	79.1016	81.7459	79.1016	80.9411	79.1016	81.4975	79.1016	80.9745	79.1016	81.3145	79.1016	81.0222	79.1016	81.1829	79.1016	81.0891
82.0312	82.9685	82.0312	82.6557	82.0312	83.2801	82.0312	82.3548	82.0312	83.575	82.0312	82.0755	82.0312	83.8351	82.0312	81.825	82.0312	84.0399	82.0312	81.6077	82.0312	84.1677	82.0312	81.4254	82.0312	84.1972	82.0312	81.2778	82.0312	84.1106	82.0312	81.1627	82.0312	83.8985	82.0312	81.0769	82.0312	83.5671	82.0312	81.016	82.0312	83.1454	82.0312	80.9758	82.0312	82.6837	82.0312	80.952	82.0312	82.2396	82.0312	80.9408	82.0312	81.8576	82.0312	80.9396	82.0312	81.5584	82.0312	80.9466	82.0312	81.3409	82.0312	80.962	82.0312	81.1914	82.0312	80.9878	82.0312	81.0926	82.0312	81.0286
84.9609	82.9316	84.9609	82.6169	84.9609	83.2421	84.9609	82.312	84.9609	83.532	84.9609	82.0281	84.9609	83.7823	84.9609	81.7737	84.9609	83.9722	84.9609	81.5544	84.9609	84.0802	84.9609	81.3729	84.9609	84.0856	84.9609	81.2292	84.9609	83.9726	84.9609	81.1215	84.9609	83.7349	84.9609	81.0457	84.9609	83.3831	84.9609	80.9971	84.9609	82.9506	84.9609	80.9702	84.9609	82.4911	84.9609	80.9596	84.9609	82.063	84.9609	80.9601	84.9609	81.7088	84.9609	80.9678	84.9609	81.4448	84.9609	80.9797	84.9609	81.2648	84.9609	80.9945	84.9609	81.1505	84.9609	81.0132	84.9609	81.0812	84.9609	81.0396
87.8906	83.1733	87.8906	82.8391	87.8906	83.4989	87.8906	82.5111	87.8906	83.799	87.8906	82.2016	87.8906	84.0546	87.8906	81.9205	87.8906	84.2453	87.8906	81.675	87.8906	84.3505	87.8906	81.4696	87.8906	84.3511	87.8906	81.3062	87.8906	84.2331	87.8906	81.184	87.8906	83.9923	87.8906	81.1003	87.8906	83.6405	87.8906	81.0506	87.8906	83.2108	87.8906	81.0294	87.8906	82.7554	87.8906	81.0305	87.8906	82.3302	87.8906	81.0481	87.8906	81.9757	87.8906	81.0767	87.8906	81.7069	87.8906	81.1119	87.8906	81.5173	87.8906	81.1509	87.8906	81.3894	87.8906	81.1933	87.8906	81.3032	87.8906	81.2419
90.8203	83.3894	90.8203	83.0551	90.8203	83.7097	90.8203	82.7214	90.8203	83.999	90.8203	82.4007	90.8203	84.2381	90.8203	82.1029	90.8203	84.4065	90.8203	81.8357	90.8203	84.4832	90.8203	81.6039	90.8203	84.4488	90.8203	81.4101	90.8203	84.2889	90.8203	81.2547	90.8203	83.9995	90.8203	81.1359	90.8203	83.5935	90.8203	81.0504	90.8203	83.1077	90.8203	80.9938	90.8203	82.6012	90.8203	80.9609	90.8203	82.1374	90.8203	80.9468	90.8203	81.76	90.8203	80.9466	90.8203	81.482	90.8203	80.9566	90.8203	81.2917	90.8203	80.9743	90.8203	81.1673	90.8203	80.9997	90.8203	81.0874	90.8203	81.0352
95.2148	83.4767	95.2148	83.1396	95.2148	83.7983	95.2148	82.8019	95.2148	84.0874	95.2148	82.4759	95.2148	84.3247	95.2148	82.1716	95.2148	84.4892	95.2148	81.8964	95.2148	84.559	95.2148	81.6553	95.2148	84.5135	95.2148	81.4507	95.2148	84.3364	95.2148	81.2829	95.2148	84.0207	95.2148	81.15	95.2148	83.5778	95.2148	81.0485	95.2148	83.0453	95.2148	80.9741	95.2148	82.4874	95.2148	80.9215	95.2148	81.9758	95.2148	80.8857	95.2148	81.5618	95.2148	80.8622	95.2148	81.2622	95.2148	80.8475	95.2148	81.0655	95.2148	80.8398	95.2148	80.9473	95.2148	80.8398	95.2148	80.8825	95.2148	80.8512
98.1445	83.4748	98.1445	83.1427	98.1445	83.7881	98.1445	82.8068	98.1445	84.0651	98.1445	82.4798	98.1445	84.2865	98.1445	82.1721	98.1445	84.4315	98.1445	81.8915	98.1445	84.4789	98.1445	81.6433	98.1445	84.4092	98.1445	81.4305	98.1445	84.2076	98.1445	81.2536	98.1445	83.8697	98.1445	81.1111	98.1445	83.409	98.1445	80.9999	98.1445	82.8658	98.1445	80.9159	98.1445	82.3061	98.1445	80.8541	98.1445	81.8016	98.1445	80.8097	98.1445	81.4007	98.1445	80.7782	98.1445	81.1159	98.1445	80.7562	98.1445	80.9322	98.1445	80.742	98.1445	80.824	98.1445	80.7359	98.1445	80.7668	98.1445	80.7417
101.074	83.5653	101.074	83.2351	101.074	83.8727	101.074	82.8981	101.074	84.1393	101.074	82.5675	101.074	84.3447	101.074	82.254	101.074	84.4672	101.074	81.9658	101.074	84.4848	101.074	81.7083	101.074	84.3773	101.074	81.4844	101.074	84.1303	101.074	81.2944	101.074	83.7408	101.074	81.1367	101.074	83.2256	101.074	81.0081	101.074	82.6304	101.074	80.9041	101.074	82.0281	101.074	80.82	101.074	81.4964	101.074	80.7508	101.074	81.0864	101.074	80.6925	101.074	80.8083	101.074	80.6418	101.074	80.6426	101.074	80.5975	101.074	80.5592	101.074	80.5607	101.074	80.5304	101.074	80.5355
105.469	83.6641	105.469	83.3281	105.469	83.9749	105.469	82.9834	105.469	84.2416	105.469	82.6439	105.469	84.443	105.469	82.3209	105.469	84.5565	105.469	82.0231	105.469	84.5589	105.469	81.7562	105.469	84.4296	105.469	81.5236	105.469	84.1539	105.469	81.3256	105.469	83.7297	105.469	81.1607	105.469	83.1765	105.469	81.0253	105.469	82.5441	105.469	80.9147	105.469	81.9097	105.469	80.8234	105.469	81.3547	105.469	80.7458	105.469	80.9326	105.469	80.6772	105.469	80.6541	105.469	80.6138	105.469	80.4984	105.469	80.554	105.469	80.4325	105.469	80.4987	105.469	80.4251	105.469	80.4525
108.398	83.6228	108.398	83.286	108.398	83.9336	108.398	82.9398	108.398	84.1995	108.398	82.5984	108.398	84.3997	108.398	82.2733	108.398	84.5123	108.398	81.9736	108.398	84.5152	108.398	81.7052	108.398	84.3891	108.398	81.4716	108.398	84.1208	108.398	81.2737	108.398	83.7092	108.398	81.1101	108.398	83.1743	108.398	80.9776	108.398	82.5653	108.398	80.8716	108.398	81.9572	108.398	80.7871	108.398	81.4267	108.398	80.7185	108.398	81.0216	108.398	80.6611	108.398	80.7495	108.398	80.6111	108.398	80.5899	108.398	80.5665	108.398	80.5126	108.398	80.528	108.398	80.4896	108.398	80.4995
112.793	83.5652	112.793	83.2349	112.793	83.8665	112.793	82.8928	112.793	84.1196	112.793	82.5539	112.793	84.3038	112.793	82.2307	112.793	84.3981	112.793	81.9326	112.793	84.3825	112.793	81.6658	112.793	84.2399	112.793	81.4338	112.793	83.96	112.793	81.2371	112.793	83.5445	112.793	81.0739	112.793	83.0157	112.793	80.9409	112.793	82.4243	112.793	80.8333	112.793	81.845	112.793	80.7463	112.793	81.3494	112.793	80.6749	112.793	80.9767	112.793	80.6151	112.793	80.7264	112.793	80.564	112.793	80.5753	112.793	80.5206	112.793	80.4956	112.793	80.4864	112.793	80.4645	112.793	80.4652
117.188	83.5822	117.188	83.2553	117.188	83.8737	117.188	82.9125	117.188	84.1091	117.188	82.5713	117.188	84.2671	117.188	82.2463	117.188	84.3266	117.188	81.9493	117.188	84.2688	117.188	81.688	117.188	84.0789	117.188	81.4661	117.188	83.7501	117.188	81.2835	117.188	83.2877	117.188	81.1368	117.188	82.7171	117.188	81.0202	117.188	82.093	117.188	80.9264	117.188	81.4955	117.188	80.8478	117.188	81.0036	117.188	80.7775	117.188	80.6594	117.188	80.7097	117.188	80.4583	117.188	80.641	117.188	80.3676	117.188	80.5703	117.188	80.3507	117.188	80.4992	117.188	80.3789	117.188	80.4326
120.117	84.0487	120.117	83.701	120.117	84.3525	120.117	83.3292	120.117	84.5916	120.117	82.952	120.117	84.7451	120.117	82.5862	120.117	84.7932	120.117	82.246	120.117	84.719	120.117	81.9429	120.117	84.5118	120.117	81.6843	120.117	84.1702	120.117	81.4737	120.117	83.7055	120.117	81.3105	120.117	83.1464	120.117	81.1901	120.117	82.5437	120.117	81.1054	120.117	81.9668	120.117	81.0473	120.117	81.483	120.117	81.0064	120.117	81.1317	120.117	80.9738	120.117	80.9153	120.117	80.9426	120.117	80.809	120.117	80.9079	120.117	80.7786	120.117	80.8686	120.117	80.7925	120.117	80.8274
124.512	84.2892	124.512	83.9475	124.512	84.5843	124.512	83.5787	124.512	84.812	124.512	83.2006	124.512	84.9513	124.512	82.8291	124.512	84.9822	124.512	82.4777	124.512	84.8881	124.512	82.1572	124.512	84.6604	124.512	81.8755	124.512	84.3027	124.512	81.6373	124.512	83.8359	124.512	81.4443	124.512	83.3003	124.512	81.2955	124.512	82.7541	124.512	81.1872	124.512	82.2603	124.512	81.1144	124.512	81.8632	124.512	81.0704	124.512	81.574	124.512	81.0488	124.512	81.378	124.512	81.0433	124.512	81.251	124.512	81.0492	124.512	81.1705	124.512	81.0635	124.512	81.1194	124.512	81.086
128.906	84.3977	128.906	84.0406	128.906	84.7021	128.906	83.6512	128.906	84.9319	128.906	83.2483	128.906	85.065	128.906	82.8489	128.906	85.0797	128.906	82.4677	128.906	84.9582	128.906	82.1167	128.906	84.6908	128.906	81.805	128.906	84.2829	128.906	81.5384	128.906	83.7614	128.906	81.3193	128.906	83.1786	128.906	81.1473	128.906	82.6067	128.906	81.0194	128.906	82.1153	128.906	80.9309	128.906	81.7407	128.906	80.876	128.906	81.4771	128.906	80.849	128.906	81.295	128.906	80.8447	128.906	81.1653	128.906	80.8591	128.906	81.0682	128.906	80.8893	128.906	80.9928	128.906	80.9338
133.301	84.5407	133.301	84.1752	133.301	84.8514	133.301	83.7746	133.301	85.0857	133.301	83.3565	133.301	85.2205	133.301	82.9361	133.301	85.2321	133.301	82.5264	133.301	85.0993	133.301	82.138	133.301	84.8075	133.301	81.7789	133.301	84.3557	133.301	81.4546	133.301	83.7651	133.301	81.1681	133.301	83.0874	133.301	80.9204	133.301	82.4036	133.301	80.7105	133.301	81.7992	133.301	80.5366	133.301	81.3235	133.301	80.3965	133.301	80.9725	133.301	80.2887	133.301	80.7136	133.301	80.2126	133.301	80.5169	133.301	80.1693	133.301	80.3668	133.301	80.1608	133.301	80.2581	133.301	80.1898
139.16	84.5678	139.16	84.2118	139.16	84.868	139.16	83.8218	139.16	85.0887	139.16	83.4172	139.16	85.2053	139.16	83.0146	139.16	85.1942	139.16	82.6273	139.16	85.0357	139.16	82.2651	139.16	84.7198	139.16	81.9341	139.16	84.252	139.16	81.6372	139.16	83.6611	139.16	81.3742	139.16	83.0033	139.16	81.1429	139.16	82.3585	139.16	80.9397	139.16	81.804	139.16	80.7613	139.16	81.3751	139.16	80.6052	139.16	81.0555	139.16	80.4715	139.16	80.8079	139.16	80.3634	139.16	80.6062	139.16	80.2871	139.16	80.4445	139.16	80.251	139.16	80.328	139.16	80.2631
143.555	84.7092	143.555	84.3103	143.555	85.0466	143.555	83.8737	143.555	85.2969	143.555	83.4208	143.555	85.4333	143.555	82.9708	143.555	85.4296	143.555	82.5392	143.555	85.2627	143.555	82.1382	143.555	84.9178	143.555	81.7756	143.555	84.397	143.555	81.4549	143.555	83.7285	143.555	81.1755	143.555	82.9754	143.555	80.9333	143.555	82.231	143.555	80.7223	143.555	81.5864	143.555	80.5359	143.555	81.0843	143.555	80.3688	143.555	80.7097	143.555	80.2185	143.555	80.4244	143.555	80.0868	143.555	80.2019	143.555	79.9807	143.555	80.0362	143.555	79.9112	143.555	79.9316	143.555	79.8913
147.949	84.7114	147.949	84.303	147.949	85.0532	147.949	83.8509	147.949	85.3042	147.949	83.3761	147.949	85.4388	147.949	82.8985	147.949	85.431	147.949	82.4363	147.949	85.2573	147.949	82.0059	147.949	84.9025	147.949	81.6205	147.949	84.368	147.949	81.29	147.949	83.6842	147.949	81.0191	147.949	82.9209	147.949	80.8074	147.949	82.183	147.949	80.6494	147.949	81.5719	147.949	80.5356	147.949	81.1309	147.949	80.4553	147.949	80.8366	147.949	80.3981	147.949	80.6403	147.949	80.3568	147.949	80.5043	147.949	80.3283	147.949	80.4097	147.949	80.314	147.949	80.3492	147.949	80.319
153.809	85.0652	153.809	84.6853	153.809	85.3839	153.809	84.2647	153.809	85.6174	153.809	83.8206	153.809	85.7386	153.809	83.3671	153.809	85.7186	153.809	82.9154	153.809	85.5292	153.809	82.4744	153.809	85.1484	153.809	82.0511	153.809	84.5699	153.809	81.6512	153.809	83.818	153.809	81.2794	153.809	82.9651	153.809	80.9399	153.809	82.1355	153.809	80.6367	153.809	81.4581	153.809	80.3737	153.809	80.986	153.809	80.1547	153.809	80.6762	153.809	79.9838	153.809	80.4525	153.809	79.8651	153.809	80.2644	153.809	79.8025	153.809	80.0963	153.809	79.7982	153.809	79.954	153.809	79.8508
159.668	84.5881	159.668	84.2214	159.668	84.9033	159.668	83.824	159.668	85.144	159.668	83.414	159.668	85.2858	159.668	83.0059	159.668	85.3038	159.668	82.6105	159.668	85.1749	159.668	82.2348	159.668	84.8802	159.668	81.8818	159.668	84.4107	159.668	81.5516	159.668	83.7764	159.668	81.2415	159.668	83.0195	159.668	80.947	159.668	82.2204	159.668	80.6634	159.668	81.4755	159.668	80.3869	159.668	80.8472	159.668	80.1162	159.668	80.3411	159.668	79.8551	159.668	79.9337	159.668	79.6132	159.668	79.6095	159.668	79.4077	159.668	79.3715	159.668	79.2609	159.668	79.2314	159.668	79.1963
165.527	84.5179	165.527	84.1264	165.527	84.8262	165.527	83.6825	165.527	85.0203	165.527	83.2161	165.527	85.0719	165.527	82.7538	165.527	84.9576	165.527	82.3181	165.527	84.6639	165.527	81.9249	165.527	84.1935	165.527	81.5823	165.527	83.5714	165.527	81.29	165.527	82.8503	165.527	81.0402	165.527	82.1109	165.527	80.8188	165.527	81.4475	165.527	80.6095	165.527	80.9193	165.527	80.3961	165.527	80.5078	165.527	80.1668	165.527	80.1466	165.527	79.9174	165.527	79.7931	165.527	79.6546	165.527	79.4602	165.527	79.3992	165.527	79.1984	165.527	79.1861	165.527	79.0579	165.527	79.0591
171.387	84.7894	171.387	84.3586	171.387	85.1329	171.387	83.8669	171.387	85.3602	171.387	83.3373	171.387	85.4404	171.387	82.7903	171.387	85.3428	171.387	82.2444	171.387	85.0416	171.387	81.7167	171.387	84.5245	171.387	81.2244	171.387	83.8063	171.387	80.7843	171.387	82.9462	171.387	80.4121	171.387	82.0593	171.387	80.1197	171.387	81.2961	171.387	79.912	171.387	80.769	171.387	79.7858	171.387	80.4798	171.387	79.7293	171.387	80.3416	171.387	79.7259	171.387	80.2624	171.387	79.7583	171.387	80.1912	171.387	79.8123	171.387	80.1137	171.387	79.8787	171.387	80.0324	171.387	79.9529
177.246	84.9053	177.246	84.4708	177.246	85.2599	177.246	83.9834	177.246	85.5049	177.246	83.4664	177.246	85.6084	177.246	82.9391	177.246	85.537	177.246	82.4166	177.246	85.2581	177.246	81.9105	177.246	84.7444	177.246	81.4298	177.246	83.9857	177.246	80.9821	177.246	83.0102	177.246	80.574	177.246	81.9196	177.246	80.2117	177.246	80.9098	177.246	79.9009	177.246	80.2007	177.246	79.6466	177.246	79.8664	177.246	79.4526	177.246	79.784	177.246	79.3221	177.246	79.7797	177.246	79.2563	177.246	79.7487	177.246	79.2544	177.246	79.6638	177.246	79.3111	177.246	79.5417	177.246	79.414
183.105	84.8283	183.105	84.4091	183.105	85.17	183.105	83.9377	183.105	85.4095	183.105	83.4392	183.105	85.5237	183.105	82.9357	183.105	85.4911	183.105	82.4452	183.105	85.2924	183.105	81.9801	183.105	84.9122	183.105	81.5475	183.105	84.3434	183.105	81.1512	183.105	83.5965	183.105	80.7926	183.105	82.7169	183.105	80.4721	183.105	81.8049	183.105	80.1903	183.105	81.0029	183.105	79.9478	183.105	80.4243	183.105	79.7462	183.105	80.0785	183.105	79.5883	183.105	79.8867	183.105	79.4782	183.105	79.7605	183.105	79.4203	183.105	79.6502	183.105	79.4164	183.105	79.5465	183.105	79.4626
188.965	85.2277	188.965	84.7963	188.965	85.5661	188.965	84.2984	188.965	85.785	188.965	83.7591	188.965	85.8588	188.965	83.2015	188.965	85.7659	188.965	82.646	188.965	85.494	188.965	82.1095	188.965	85.0477	188.965	81.6055	188.965	84.4544	188.965	81.1449	188.965	83.7659	188.965	80.7366	188.965	83.0508	188.965	80.3881	188.965	82.3818	188.965	80.1052	188.965	81.8157	188.965	79.8916	188.965	81.3754	188.965	79.7482	188.965	81.0467	188.965	79.6738	188.965	80.7929	188.965	79.6655	188.965	80.5751	188.965	79.719	188.965	80.3685	188.965	79.828	188.965	80.1677	188.965	79.9823
196.289	85.1566	196.289	84.705	196.289	85.5225	196.289	84.1978	196.289	85.771	196.289	83.6625	196.289	85.871	196.289	83.1219	196.289	85.795	196.289	82.5931	196.289	85.5237	196.289	82.087	196.289	85.0547	196.289	81.6091	196.289	84.4134	196.289	81.1612	196.289	83.6664	196.289	80.7431	196.289	82.9245	196.289	80.3553	196.289	82.3106	196.289	80.0002	196.289	81.8836	196.289	79.684	196.289	81.5936	196.289	79.4181	196.289	81.3369	196.289	79.22	196.289	81.0383	196.289	79.1125	196.289	80.6767	196.289	79.1189	196.289	80.2723	196.289	79.2539	196.289	79.8674	196.289	79.5128
203.613	85.1751	203.613	84.7297	203.613	85.5037	203.613	84.2034	203.613	85.6842	203.613	83.634	203.613	85.6925	203.613	83.0578	203.613	85.516	203.613	82.5059	203.613	85.1599	203.613	82.0007	203.613	84.652	203.613	81.5534	203.613	84.0415	203.613	81.1651	203.613	83.3906	203.613	80.8294	203.613	82.7691	203.613	80.536	203.613	82.2534	203.613	80.2754	203.613	81.8982	203.613	80.0421	203.613	81.6841	203.613	79.8386	203.613	81.5193	203.613	79.6778	203.613	81.3093	203.613	79.5826	203.613	81.0131	203.613	79.5816	203.613	80.6486	203.613	79.6979	203.613	80.2686	203.613	79.935
210.938	85.8067	210.938	85.2861	210.938	86.2079	210.938	84.6835	210.938	86.4503	210.938	84.0344	210.938	86.494	210.938	83.3708	210.938	86.3032	210.938	82.7198	210.938	85.8563	210.938	82.1011	210.938	85.163	210.938	81.5241	210.938	84.288	210.938	80.9883	210.938	83.3625	210.938	80.4845	210.938	82.5518	210.938	79.9994	210.938	81.9613	210.938	79.5206	210.938	81.5588	210.938	79.043	210.938	81.2224	210.938	78.5765	210.938	80.8492	210.938	78.1539	210.938	80.3974	210.938	77.8356	210.938	79.8654	210.938	77.6989	210.938	79.2747	210.938	77.8044	210.938	78.6755	210.938	78.1525
218.262	85.6918	218.262	85.176	218.262	86.1009	218.262	84.5871	218.262	86.3666	218.262	83.9558	218.262	86.451	218.262	83.3103	218.262	86.319	218.262	82.6766	218.262	85.9473	218.262	82.0783	218.262	85.3396	218.262	81.5354	218.262	84.5435	218.262	81.062	218.262	83.6566	218.262	80.6642	218.262	82.8046	218.262	80.3382	218.262	82.0941	218.262	80.0713	218.262	81.5655	218.262	79.8449	218.262	81.1754	218.262	79.6409	218.262	80.8333	218.262	79.4493	218.262	80.468	218.262	79.2749	218.262	80.067	218.262	79.1406	218.262	79.6722	218.262	79.0846	218.262	79.3481	218.262	79.1469
225.586	85.5691	225.586	85.081	225.586	85.9522	225.586	84.523	225.586	86.1901	225.586	83.9246	225.586	86.239	225.586	83.3102	225.586	86.0574	225.586	82.7002	225.586	85.6191	225.586	82.1117	225.586	84.9382	225.586	81.5588	225.586	84.1063	225.586	81.0535	225.586	83.3116	225.586	80.6066	225.586	82.7665	225.586	80.2276	225.586	82.5421	225.586	79.9243	225.586	82.5164	225.586	79.7031	225.586	82.5146	225.586	79.5696	225.586	82.4253	225.586	79.531	225.586	82.209	225.586	79.598	225.586	81.87	225.586	79.7813	225.586	81.4376	225.586	80.0837	225.586	80.9584	225.586	80.4889
232.91	86.0143	232.91	85.4761	232.91	86.4397	232.91	84.8609	232.91	86.7131	232.91	84.201	232.91	86.7926	232.91	83.5253	232.91	86.6358	232.91	82.8584	232.91	86.2071	232.91	82.2193	232.91	85.4938	232.91	81.6202	232.91	84.5338	232.91	81.0644	232.91	83.4501	232.91	80.547	232.91	82.4621	232.91	80.0575	232.91	81.8004	232.91	79.5849	232.91	81.533	232.91	79.1266	232.91	81.5079	232.91	78.6996	232.91	81.5003	232.91	78.3519	232.91	81.3525	232.91	78.1639	232.91	81.0047	232.91	78.2221	232.91	80.4705	232.91	78.563	232.91	79.8126	232.91	79.1333
241.699	86.1518	241.699	85.6485	241.699	86.5493	241.699	85.0768	241.699	86.799	241.699	84.4672	241.699	86.855	241.699	83.8431	241.699	86.6719	241.699	83.2189	241.699	86.2112	241.699	82.6002	241.699	85.4565	241.699	81.9839	241.699	84.4453	241.699	81.3615	241.699	83.3288	241.699	80.7231	241.699	82.4173	241.699	80.0637	241.699	82.0131	241.699	79.3915	241.699	82.0551	241.699	78.7357	241.699	82.1905	241.699	78.155	241.699	82.1576	241.699	77.7392	241.699	81.8852	241.699	77.594	241.699	81.3954	241.699	77.794	241.699	80.7276	241.699	78.3278	241.699	79.9314	241.699	79.0893
250.488	86.5001	250.488	85.9388	250.488	86.9047	250.488	85.2735	250.488	87.1031	250.488	84.5567	250.488	87.0529	250.488	83.8384	250.488	86.7248	250.488	83.1635	250.488	86.1145	250.488	82.5682	250.488	85.2594	250.488	82.0765	250.488	84.2528	250.488	81.694	250.488	83.235	250.488	81.4044	250.488	82.3515	250.488	81.1706	250.488	81.7029	250.488	80.9423	250.488	81.3055	250.488	80.668	250.488	81.0571	250.488	80.306	250.488	80.7702	250.488	79.8369	250.488	80.2988	250.488	79.2768	250.488	79.6329	250.488	78.6967	250.488	78.9006	250.488	78.2358	250.488	78.3139	250.488	78.0717
259.277	87.2035	259.277	86.5598	259.277	87.7111	259.277	85.83	259.277	88.0272	259.277	85.0571	259.277	88.0917	259.277	84.2762	259.277	87.8431	259.277	83.5123	259.277	87.2299	259.277	82.7795	259.277	86.2367	259.277	82.082	259.277	84.9371	259.277	81.418	259.277	83.5639	259.277	80.7842	259.277	82.493	259.277	80.1803	259.277	81.969	259.277	79.6105	259.277	81.8415	259.277	79.083	259.277	81.7795	259.277	78.6101	259.277	81.5698	259.277	78.2142	259.277	81.1515	259.277	77.9374	259.277	80.5481	259.277	77.8456	259.277	79.8257	259.277	78.0059	259.277	79.082	259.277	78.4376
268.066	86.9486	268.066	86.3436	268.066	87.4488	268.066	85.6754	268.066	87.7932	268.066	84.9756	268.066	87.9226	268.066	84.2681	268.066	87.7763	268.066	83.5711	268.066	87.3051	268.066	82.9	268.066	86.4995	268.066	82.2683	268.066	85.4405	268.066	81.6899	268.066	84.3507	268.066	81.1787	268.066	83.5357	268.066	80.748	268.066	83.1371	268.066	80.4074	268.066	83.0163	268.066	80.1598	268.066	82.9635	268.066	80.0015	268.066	82.8501	268.066	79.9286	268.066	82.6144	268.066	79.946	268.066	82.238	268.066	80.0715	268.066	81.7487	268.066	80.3272	268.066	81.2145	268.066	80.7183
276.855	86.3642	276.855	85.7017	276.855	86.9171	276.855	84.9858	276.855	87.301	276.855	84.2639	276.855	87.4574	276.855	83.5686	276.855	87.3301	276.855	82.9151	276.855	86.8695	276.855	82.3031	276.855	86.0472	276.855	81.721	276.855	84.8994	276.855	81.1526	276.855	83.6234	276.855	80.5821	276.855	82.6649	276.855	79.9996	276.855	82.4399	276.855	79.4075	276.855	82.7844	276.855	78.8295	276.855	83.1952	276.855	78.3226	276.855	83.3607	276.855	77.9881	276.855	83.1979	276.855	77.9568	276.855	82.7248	276.855	78.3245	276.855	81.9908	276.855	79.0674	276.855	81.0632	276.855	80.0403
287.109	85.5728	287.109	84.867	287.109	86.1888	287.109	84.127	287.109	86.6565	287.109	83.4049	287.109	86.9162	287.109	82.7474	287.109	86.9111	287.109	82.1888	287.109	86.5973	287.109	81.7413	287.109	85.9581	287.109	81.3884	287.109	85.0269	287.109	81.087	287.109	83.9273	287.109	80.7791	287.109	82.9246	287.109	80.4051	287.109	82.3521	287.109	79.9132	287.109	82.281	287.109	79.2678	287.109	82.4077	287.109	78.463	287.109	82.3934	287.109	77.5556	287.109	82.0636	287.109	76.7288	287.109	81.3712	287.109	76.3319	287.109	80.341	287.109	76.6886	287.109	79.0626	287.109	77.7293
297.363	86.2033	297.363	85.6361	297.363	86.6424	297.363	84.9766	297.363	86.908	297.363	84.2524	297.363	86.948	297.363	83.4876	297.363	86.7106	297.363	82.7087	297.363	86.1628	297.363	81.9504	297.363	85.3243	297.363	81.2555	297.363	84.308	297.363	80.668	297.363	83.3218	297.363	80.2166	297.363	82.5849	297.363	79.8973	297.363	82.1961	297.363	79.6663	297.363	82.0629	297.363	79.4513	297.363	81.9502	297.363	79.1731	297.363	81.626	297.363	78.7702	297.363	80.978	297.363	78.2255	297.363	80.0225	297.363	77.6117	297.363	78.8826	297.363	77.1473	297.363	77.8095	297.363	77.1597
307.617	86.1542	307.617	85.4727	307.617	86.746	307.617	84.7571	307.617	87.1708	307.617	84.0408	307.617	87.3332	307.617	83.3386	307.617	87.1297	307.617	82.6528	307.617	86.4728	307.617	81.9808	307.617	85.3487	307.617	81.3223	307.617	83.9413	307.617	80.6866	307.617	82.7645	307.617	80.0964	307.617	82.3428	307.617	79.5854	307.617	82.51	307.617	79.1862	307.617	82.7434	307.617	78.9125	307.617	82.8008	307.617	78.7528	307.617	82.6639	307.617	78.6868	307.617	82.336	307.617	78.7127	307.617	81.8133	307.617	78.8638	307.617	81.1355	307.617	79.1903	307.617	80.3968	307.617	79.7152
319.336	85.4322	319.336	84.6685	319.336	86.1515	319.336	83.9185	319.336	86.7426	319.336	83.2134	319.336	87.1032	319.336	82.5628	319.336	87.1239	319.336	81.9645	319.336	86.703	319.336	81.4117	319.336	85.7688	319.336	80.8981	319.336	84.333	319.336	80.4201	319.336	82.6405	319.336	79.9774	319.336	81.4055	319.336	79.573	319.336	81.3395	319.336	79.2082	319.336	81.9739	319.336	78.8749	319.336	82.4395	319.336	78.5499	319.336	82.4095	319.336	78.2054	319.336	81.9147	319.336	77.8438	319.336	81.0755	319.336	77.5529	319.336	80.0155	319.336	77.5345	319.336	78.9014	319.336	77.9912
329.59	85.1027	329.59	84.2542	329.59	85.9434	329.59	83.4763	329.59	86.666	329.59	82.804	329.59	87.1448	329.59	82.2332	329.59	87.255	329.59	81.7364	329.59	86.8842	329.59	81.2823	329.59	85.9514	329.59	80.8472	329.59	84.4636	329.59	80.4196	329.59	82.6716	329.59	79.9988	329.59	81.2754	329.59	79.5937	329.59	80.9774	329.59	79.2212	329.59	81.4557	329.59	78.9029	329.59	81.9229	329.59	78.6554	329.59	81.9726	329.59	78.4808	329.59	81.5587	329.59	78.3716	329.59	80.8252	329.59	78.3356	329.59	79.9862	329.59	78.4209	329.59	79.2376	329.59	78.7049
341.309	85.5767	341.309	84.725	341.309	86.327	341.309	83.8285	341.309	86.9106	341.309	82.9318	341.309	87.2554	341.309	82.0632	341.309	87.2799	341.309	81.2352	341.309	86.8951	341.309	80.4502	341.309	86.0214	341.309	79.7147	341.309	84.6466	341.309	79.0561	341.309	82.9717	341.309	78.5308	341.309	81.6052	341.309	78.2084	341.309	81.2356	341.309	78.1303	341.309	81.7083	341.309	78.2761	341.309	82.3368	341.309	78.5708	341.309	82.6739	341.309	78.9243	341.309	82.5781	341.309	79.2693	341.309	82.1101	341.309	79.5825	341.309	81.4485	341.309	79.8933	341.309	80.7948	341.309	80.2742
353.027	84.5027	353.027	83.6621	353.027	85.3812	353.027	82.9147	353.027	86.2028	353.027	82.2773	353.027	86.8461	353.027	81.7383	353.027	87.1795	353.027	81.2677	353.027	87.0723	353.027	80.8215	353.027	86.4017	353.027	80.348	353.027	85.0673	353.027	79.7945	353.027	83.0755	353.027	79.1102	353.027	80.9435	353.027	78.2502	353.027	80.26	353.027	77.1941	353.027	81.4343	353.027	76.0149	353.027	82.8105	353.027	75.0402	353.027	83.5979	353.027	74.9089	353.027	83.7674	353.027	75.9209	353.027	83.4575	353.027	77.5506	353.027	82.7952	353.027	79.2107	353.027	81.8553	353.027	80.6608
366.211	84.767	366.211	83.9725	366.211	85.5335	366.211	83.1705	366.211	86.2236	366.211	82.3766	366.211	86.7504	366.211	81.6232	366.211	86.9973	366.211	80.9614	366.211	86.8427	366.211	80.4322	366.211	86.1944	366.211	80.031	366.211	85.0293	366.211	79.7027	366.211	83.4702	366.211	79.3692	366.211	81.9471	366.211	78.9574	366.211	81.1902	366.211	78.4065	366.211	81.4224	366.211	77.6662	366.211	81.9929	366.211	76.7072	366.211	82.2862	366.211	75.5749	366.211	82.0475	366.211	74.5173	366.211	81.2296	366.211	74.0966	366.211	79.8981	366.211	74.7958	366.211	78.1985	366.211	76.3625
379.395	83.9922	379.395	83.2137	379.395	84.8372	379.395	82.5397	379.395	85.6528	379.395	81.9534	379.395	86.309	379.395	81.4123	379.395	86.672	379.395	80.8787	379.395	86.6248	379.395	80.3323	379.395	86.0734	379.395	79.7656	379.395	84.9497	379.395	79.1764	379.395	83.2426	379.395	78.5708	379.395	81.1801	379.395	77.9774	379.395	79.6816	379.395	77.4488	379.395	79.8571	379.395	77.0243	379.395	81.0378	379.395	76.6727	379.395	82.0111	379.395	76.2919	379.395	82.2973	379.395	75.82	379.395	81.8152	379.395	75.4414	379.395	80.6286	379.395	75.7181	379.395	78.9064	379.395	77.0345
392.578	83.4272	392.578	82.7256	392.578	84.2337	392.578	82.1749	392.578	85.0219	392.578	81.7484	392.578	85.6304	392.578	81.3865	392.578	85.9159	392.578	81.0362	392.578	85.8047	392.578	80.6656	392.578	85.3232	392.578	80.257	392.578	84.5791	392.578	79.7954	392.578	83.6627	392.578	79.2617	392.578	82.5565	392.578	78.636	392.578	81.2782	392.578	77.9119	392.578	80.2714	392.578	77.1207	392.578	80.1405	392.578	76.3533	392.578	80.4739	392.578	75.7452	392.578	80.4587	392.578	75.4064	392.578	79.8388	392.578	75.3778	392.578	78.7572	392.578	75.6933	392.578	77.5087	392.578	76.4143
405.762	82.1428	405.762	81.3666	405.762	82.9857	405.762	80.6752	405.762	83.873	405.762	80.1041	405.762	84.7529	405.762	79.7077	405.762	85.5278	405.762	79.5279	405.762	86.0553	405.762	79.5455	405.762	86.1609	405.762	79.6607	405.762	85.6513	405.762	79.7293	405.762	84.3163	405.762	79.6173	405.762	81.9177	405.762	79.2343	405.762	78.2708	405.762	78.5535	405.762	74.4213	405.762	77.6477	405.762	74.4973	405.762	76.7531	405.762	76.5126	405.762	76.25	405.762	77.7592	405.762	76.3607	405.762	78.2775	405.762	76.8879	405.762	78.3814	405.762	77.4848	405.762	78.255	405.762	77.9557
420.41	83.4153	420.41	82.8338	420.41	84.0211	420.41	82.2548	420.41	84.6638	420.41	81.6765	420.41	85.3186	420.41	81.1406	420.41	85.9022	420.41	80.7273	420.41	86.27	420.41	80.4975	420.41	86.2351	420.41	80.4156	420.41	85.5883	420.41	80.3426	420.41	84.0981	420.41	80.1077	420.41	81.4789	420.41	79.5753	420.41	77.3933	420.41	78.6775	420.41	72.7467	420.41	77.4565	420.41	73.3409	420.41	76.1724	420.41	75.9878	420.41	75.3709	420.41	77.47	420.41	75.449	420.41	78.0563	420.41	76.1103	420.41	78.1143	420.41	76.8495	420.41	77.8731	420.41	77.4452
435.059	81.4926	435.059	80.7611	435.059	82.3538	435.059	80.1264	435.059	83.3325	435.059	79.553	435.059	84.3549	435.059	79.0481	435.059	85.2959	435.059	78.6841	435.059	85.993	435.059	78.5597	435.059	86.2515	435.059	78.6891	435.059	85.8453	435.059	78.9321	435.059	84.5051	435.059	79.0641	435.059	81.8692	435.059	78.887	435.059	77.3785	435.059	78.2777	435.059	71.4745	435.059	77.2143	435.059	72.7432	435.059	75.8736	435.059	75.9409	435.059	74.8271	435.059	77.5507	435.059	74.8104	435.059	78.2729	435.059	75.7186	435.059	78.4808	435.059	76.8323	435.059	78.2888	435.059	77.7293
451.172	80.6138	451.172	79.9911	451.172	81.4806	451.172	79.5625	451.172	82.5562	451.172	79.2475	451.172	83.7261	451.172	79.0049	451.172	84.835	451.172	78.8585	451.172	85.7088	451.172	78.8611	451.172	86.1553	451.172	79.014	451.172	85.9612	451.172	79.219	451.172	84.8858	451.172	79.3113	451.172	82.634	451.172	79.1238	451.172	78.8045	451.172	78.5255	451.172	73.3559	451.172	77.4451	451.172	71.6773	451.172	75.9551	451.172	74.4591	451.172	74.5187	451.172	76.2141	451.172	74.0731	451.172	77.065	451.172	74.8581	451.172	77.4061	451.172	76.0048	451.172	77.3505	451.172	76.8872
465.82	80.3823	465.82	79.6559	465.82	81.4426	465.82	79.3143	465.82	82.6454	465.82	79.2239	465.82	83.7995	465.82	79.2023	465.82	84.766	465.82	79.1444	465.82	85.4284	465.82	79.0408	465.82	85.652	465.82	78.9445	465.82	85.2686	465.82	78.9195	465.82	84.0903	465.82	78.9733	465.82	81.9425	465.82	79.0144	465.82	78.7515	465.82	78.8823	465.82	74.9545	465.82	78.4185	465.82	72.5906	465.82	77.5258	465.82	73.0703	465.82	76.2293	465.82	74.3377	465.82	74.7962	465.82	75.1735	465.82	73.8225	465.82	75.3792	465.82	73.7801	465.82	75.0435	465.82	74.3826
483.398	80.4978	483.398	79.7326	483.398	81.5106	483.398	79.2556	483.398	82.6601	483.398	78.9938	483.398	83.8269	483.398	78.8124	483.398	84.8935	483.398	78.6115	483.398	85.7183	483.398	78.3767	483.398	86.1126	483.398	78.1703	483.398	85.8458	483.398	78.0734	483.398	84.6696	483.398	78.1036	483.398	82.3566	483.398	78.1754	483.398	78.8362	483.398	78.1511	483.398	74.8874	483.398	77.9249	483.398	72.9502	483.398	77.4748	483.398	73.153	483.398	76.8818	483.398	73.8077	483.398	76.3073	483.398	74.4498	483.398	75.8944	483.398	74.9346	483.398	75.6505	483.398	75.2531	483.398	75.4698
499.512	78.7288	499.512	77.7425	499.512	79.8219	499.512	77.0642	499.512	80.9205	499.512	76.8074	499.512	82.0607	499.512	76.9073	499.512	83.2861	499.512	77.2571	499.512	84.4925	499.512	77.8041	499.512	85.4151	499.512	78.4733	499.512	85.7195	499.512	79.0937	499.512	85.0645	499.512	79.4449	499.512	83.1289	499.512	79.3368	499.512	79.7772	499.512	78.6442	499.512	76.3753	499.512	77.3634	499.512	76.4247	499.512	75.8744	499.512	78.1084	499.512	75.3443	499.512	79.5989	499.512	76.4632	499.512	80.7047	499.512	78.1634	499.512	81.2529	499.512	79.6063	499.512	81.1979	499.512	80.6241
517.09	83.67	517.09	82.553	517.09	84.5878	517.09	81.5449	517.09	85.1303	517.09	80.8899	517.09	85.2642	517.09	80.5126	517.09	85.0892	517.09	80.1307	517.09	84.8456	517.09	79.5358	517.09	84.7931	517.09	78.699	517.09	84.8652	517.09	77.8078	517.09	84.5456	517.09	77.2467	517.09	83.1907	517.09	77.2431	517.09	80.224	517.09	77.4877	517.09	75.133	517.09	77.4437	517.09	69.822	517.09	76.7368	517.09	71.8611	517.09	75.2331	517.09	74.9332	517.09	73.3394	517.09	76.8752	517.09	72.7942	517.09	77.7201	517.09	74.4245	517.09	77.513	517.09	76.3408
536.133	83.1796	536.133	81.9372	536.133	84.2867	536.133	80.798	536.133	85.1196	536.133	80.0176	536.133	85.6182	536.133	79.6431	536.133	85.7877	536.133	79.4693	536.133	85.6827	536.133	79.2688	536.133	85.3475	536.133	78.9514	536.133	84.7364	536.133	78.5765	536.133	83.7053	536.133	78.2803	536.133	82.1327	536.133	78.1083	536.133	80.0857	536.133	77.8871	536.133	77.7342	536.133	77.3132	536.133	74.9846	536.133	76.1409	536.133	72.426	536.133	74.441	536.133	73.0229	536.133	73.2357	536.133	75.3091	536.133	73.9447	536.133	76.7677	536.133	75.58	536.133	77.21	536.133	76.7849
555.176	83.4232	555.176	82.0148	555.176	84.6876	555.176	80.8271	555.176	85.5769	555.176	80.158	555.176	85.9908	555.176	79.9759	555.176	85.9237	555.176	80.0421	555.176	85.4547	555.176	80.1504	555.176	84.7439	555.176	80.1534	555.176	83.9801	555.176	79.9446	555.176	83.1897	555.176	79.4887	555.176	82.1004	555.176	78.8488	555.176	80.3613	555.176	78.1701	555.176	77.7828	555.176	77.5846	555.176	74.3511	555.176	77.1032	555.176	71.0626	555.176	76.6622	555.176	71.3237	555.176	76.2752	555.176	73.4571	555.176	76.0416	555.176	74.8977	555.176	75.9695	555.176	75.6126	555.176	75.8969
574.219	83.6555	574.219	82.0529	574.219	85.0659	574.219	80.5748	574.219	86.115	574.219	79.5352	574.219	86.7329	574.219	78.9315	574.219	86.8972	574.219	78.576	574.219	86.6012	574.219	78.4813	574.219	85.8112	574.219	78.7776	574.219	84.4633	574.219	79.3497	574.219	82.659	574.219	79.8627	574.219	81.0301	574.219	80.0322	574.219	80.1006	574.219	79.7007	574.219	78.9324	574.219	78.7868	574.219	76.1709	574.219	77.2689	574.219	71.2746	574.219	75.3247	574.219	70.6682	574.219	73.7576	574.219	74.225	574.219	73.7182	574.219	75.922	574.219	74.7599	574.219	76.2389	574.219	75.7528
594.727	83.665	594.727	82.1954	594.727	84.9226	594.727	81.0029	594.727	85.7485	594.727	80.5173	594.727	86.0936	594.727	80.5058	594.727	86.0069	594.727	80.4625	594.727	85.617	594.727	80.1912	594.727	85.048	594.727	79.7631	594.727	84.2353	594.727	79.3194	594.727	82.854	594.727	78.9586	594.727	80.6654	594.727	78.6882	594.727	78.4053	594.727	78.3903	594.727	77.2422	594.727	77.84	594.727	75.657	594.727	76.8222	594.727	71.9452	594.727	75.3584	594.727	70.6985	594.727	74.1265	594.727	74.5476	594.727	74.2569	594.727	76.7156	594.727	75.4783	594.727	77.2248	594.727	76.6702
615.234	81.9791	615.234	79.6932	615.234	83.8879	615.234	77.4116	615.234	85.2928	615.234	76.0829	615.234	86.0988	615.234	76.234	615.234	86.2302	615.234	77.0331	615.234	85.6524	615.234	77.7703	615.234	84.3555	615.234	78.2648	615.234	82.4223	615.234	78.4634	615.234	80.5426	615.234	78.3237	615.234	79.9242	615.234	77.918	615.234	79.9034	615.234	77.5427	615.234	79.1424	615.234	77.5277	615.234	77.1702	615.234	77.7566	615.234	73.687	615.234	77.7563	615.234	69.9489	615.234	77.2048	615.234	71.3716	615.234	76.154	615.234	73.7129	615.234	75.1212	615.234	74.5885	615.234	74.7137
637.207	83.1498	637.207	81.443	637.207	84.519	637.207	79.64	637.207	85.4996	637.207	78.3474	637.207	86.0947	637.207	77.9568	637.207	86.3459	637.207	77.994	637.207	86.2824	637.207	78.0126	637.207	85.7848	637.207	78.086	637.207	84.4692	637.207	78.363	637.207	81.7705	637.207	78.6924	637.207	77.8296	637.207	78.7722	637.207	76.3563	637.207	78.3876	637.207	76.6273	637.207	77.4541	637.207	74.3004	637.207	76.0097	637.207	66.8238	637.207	74.3133	637.207	64.0597	637.207	73.0976	637.207	71.903	637.207	73.1966	637.207	74.6228	637.207	74.2032	637.207	75.4041	637.207	75.1239
659.18	82.9358	659.18	80.4865	659.18	84.6578	659.18	77.4743	659.18	85.6513	659.18	74.9945	659.18	85.9179	659.18	74.6115	659.18	85.5307	659.18	75.315	659.18	84.7271	659.18	75.9524	659.18	83.88	659.18	76.5424	659.18	83.098	659.18	77.2036	659.18	81.7669	659.18	77.7626	659.18	79.0928	659.18	77.9925	659.18	76.7206	659.18	77.8891	659.18	77.6418	659.18	77.7084	659.18	77.6295	659.18	77.6392	659.18	74.7484	659.18	77.4583	659.18	69.427	659.18	76.7997	659.18	69.5302	659.18	75.5779	659.18	72.1171	659.18	74.1803	659.18	72.9839	659.18	73.3078
682.617	83.9971	682.617	81.8585	682.617	85.7084	682.617	79.4715	682.617	86.8984	682.617	77.519	682.617	87.4379	682.617	76.8401	682.617	87.2403	682.617	76.9542	682.617	86.3304	682.617	76.9812	682.617	84.8371	682.617	76.8291	682.617	82.9806	682.617	76.9277	682.617	81.0871	682.617	77.4524	682.617	79.2339	682.617	77.943	682.617	77.3562	682.617	77.8948	682.617	76.0175	682.617	77.1664	682.617	74.3825	682.617	76.0209	682.617	69.9905	682.617	75.0499	682.617	65.8234	682.617	74.6826	682.617	72.1677	682.617	74.8417	682.617	75.2766	682.617	75.3541	682.617	76.1895	682.617	75.9775
707.52	83.3521	707.52	80.9576	707.52	85.21	707.52	78.1046	707.52	86.5239	707.52	75.7755	707.52	87.2154	707.52	75.5331	707.52	87.245	707.52	76.2616	707.52	86.6741	707.52	76.5341	707.52	85.5814	707.52	76.2866	707.52	83.9493	707.52	76.145	707.52	81.7764	707.52	76.6285	707.52	79.3095	707.52	77.2445	707.52	77.4297	707.52	77.1794	707.52	76.6871	707.52	76.242	707.52	75.0746	707.52	75.3256	707.52	69.9308	707.52	75.6366	707.52	56.6443	707.52	76.2621	707.52	67.3377	707.52	75.8839	707.52	69.9918	707.52	74.1282	707.52	70.1922	707.52	71.5478
732.422	83.8327	732.422	81.5436	732.422	85.714	732.422	79.1519	732.422	86.948	732.422	77.0727	732.422	87.4616	732.422	76.1464	732.422	87.334	732.422	76.6972	732.422	86.6839	732.422	77.7118	732.422	85.4436	732.422	78.413	732.422	83.0673	732.422	78.7745	732.422	78.3327	732.422	79.1617	732.422	70.8426	732.422	79.6391	732.422	73.6756	732.422	79.6407	732.422	76.4707	732.422	78.5306	732.422	76.4313	732.422	76.089	732.422	73.1316	732.422	73.7808	732.422	64.2417	732.422	74.432	732.422	60.3032	732.422	75.5155	732.422	66.472	732.422	75.0606	732.422	69.8726	732.422	73.0003
757.324	83.4455	757.324	80.7688	757.324	85.548	757.324	77.6979	757.324	87.0113	757.324	75.6285	757.324	87.7263	757.324	76.1252	757.324	87.6581	757.324	77.3742	757.324	86.938	757.324	78.1077	757.324	85.8072	757.324	78.2709	757.324	84.3256	757.324	78.1957	757.324	82.186	757.324	78.5318	757.324	78.3654	757.324	79.4383	757.324	71.7162	757.324	80.0755	757.324	73.4149	757.324	79.6655	757.324	74.8769	757.324	78.0091	757.324	70.2098	757.324	75.8187	757.324	61.9858	757.324	74.7142	757.324	72.9122	757.324	74.3686	757.324	75.0468	757.324	73.5259	757.324	74.2296	757.324	73.0585
785.156	83.7976	785.156	81.6062	785.156	85.8883	785.156	79.7291	785.156	87.402	785.156	78.331	785.156	88.124	785.156	77.6552	785.156	88.0893	785.156	77.8115	785.156	87.4803	785.156	78.4337	785.156	86.4149	785.156	78.858	785.156	84.7843	785.156	78.5994	785.156	82.7071	785.156	78.1721	785.156	79.9774	785.156	78.9708	785.156	74.2317	785.156	80.0993	785.156	70.4962	785.156	79.7444	785.156	73.6338	785.156	77.1471	785.156	70.0692	785.156	73.8647	785.156	52.5541	785.156	75.7723	785.156	66.158	785.156	77.8875	785.156	67.6537	785.156	77.8155	785.156	71.1896	785.156	75.5954
811.523	83.1876	811.523	80.3246	811.523	85.6598	811.523	77.0485	811.523	87.3736	811.523	74.096	811.523	88.0954	811.523	74.5142	811.523	87.9362	811.523	76.8274	811.523	87.2442	811.523	78.6337	811.523	86.326	811.523	79.7663	811.523	84.899	811.523	80.3096	811.523	82.1304	811.523	80.2922	811.523	77.5167	811.523	80.2825	811.523	70.6105	811.523	80.8119	811.523	73.2515	811.523	81.1057	811.523	76.6088	811.523	80.1449	811.523	73.7735	811.523	77.502	811.523	60.3654	811.523	74.4927	811.523	67.2405	811.523	74.6561	811.523	69.4307	811.523	75.0737	811.523	70.3354	811.523	73.3607
840.82	82.6154	840.82	79.8818	840.82	85.4162	840.82	77.9323	840.82	87.3978	840.82	76.6303	840.82	88.368	840.82	76.2424	840.82	88.5158	840.82	76.4483	840.82	88.098	840.82	76.7955	840.82	87.1629	840.82	78.074	840.82	85.2501	840.82	79.6465	840.82	82.1656	840.82	80.2504	840.82	78.5913	840.82	80.285	840.82	69.3473	840.82	80.8592	840.82	72.9958	840.82	81.3434	840.82	77.0039	840.82	80.4547	840.82	72.6128	840.82	77.9533	840.82	56.0217	840.82	76.2594	840.82	69.6932	840.82	77.6456	840.82	68.5676	840.82	78.3686	840.82	71.3365	840.82	76.5879
870.117	81.816	870.117	78.5119	870.117	84.9435	870.117	76.3567	870.117	87.1516	870.117	76.0007	870.117	88.3477	870.117	77.6119	870.117	88.6294	870.117	79.5727	870.117	88.1464	870.117	80.7458	870.117	87.0392	870.117	81.4376	870.117	85.1236	870.117	81.8486	870.117	82.4719	870.117	81.5052	870.117	79.7971	870.117	80.4757	870.117	73.4407	870.117	80.2265	870.117	67.4448	870.117	80.9863	870.117	75.2629	870.117	80.8961	870.117	73.8902	870.117	79.054	870.117	64.3886	870.117	75.979	870.117	66.9025	870.117	74.9153	870.117	70.7892	870.117	75.6486	870.117	72.5311	870.117	74.8584
900.879	83.5676	900.879	80.6361	900.879	86.2451	900.879	79.4612	900.879	87.8789	900.879	79.2173	900.879	88.7892	900.879	79.5346	900.879	89.1554	900.879	80.1797	900.879	88.8289	900.879	80.0162	900.879	87.5999	900.879	79.4153	900.879	85.0427	900.879	79.8244	900.879	82.4541	900.879	80.6056	900.879	82.0935	900.879	80.6261	900.879	76.5675	900.879	80.647	900.879	70.2246	900.879	81.2894	900.879	77.7575	900.879	81.0008	900.879	75.902	900.879	78.6124	900.879	65.1167	900.879	75.6215	900.879	67.3058	900.879	77.013	900.879	65.9017	900.879	78.3959	900.879	70.197	900.879	76.7731
933.105	82.5445	933.105	77.9508	933.105	85.9779	933.105	76.2133	933.105	87.6842	933.105	77.2831	933.105	88.2121	933.105	79.2019	933.105	88.2032	933.105	80.8641	933.105	87.9882	933.105	81.1037	933.105	87.4456	933.105	79.8627	933.105	85.7501	933.105	78.3137	933.105	81.41	933.105	78.0663	933.105	77.5437	933.105	78.4703	933.105	73.6211	933.105	78.9795	933.105	67.8587	933.105	79.9511	933.105	77.1432	933.105	80.5138	933.105	75.6598	933.105	79.6488	933.105	63.9661	933.105	77.5432	933.105	69.8877	933.105	76.3695	933.105	73.0827	933.105	76.4066	933.105	72.677	933.105	74.9088
965.332	82.6759	965.332	76.0784	965.332	86.3743	965.332	73.8197	965.332	88.1012	965.332	77.2282	965.332	88.7084	965.332	79.4808	965.332	88.6855	965.332	80.9657	965.332	88.0099	965.332	80.8717	965.332	86.5189	965.332	78.8453	965.332	84.1461	965.332	76.3411	965.332	80.7594	965.332	77.2622	965.332	79.0778	965.332	79.0782	965.332	75.3948	965.332	79.9105	965.332	61.8303	965.332	80.5269	965.332	75.1654	965.332	80.6099	965.332	75.9151	965.332	78.8923	965.332	66.8796	965.332	75.1519	965.332	69.6513	965.332	74.0718	965.332	71.2122	965.332	76.0074	965.332	69.3217	965.332	75.024
1000.49	83.9031	1000.49	78.9496	1000.49	86.278	1000.49	73.7069	1000.49	87.2106	1000.49	77.0727	1000.49	87.3764	1000.49	79.5944	1000.49	87.2117	1000.49	81.0478	1000.49	86.7074	1000.49	81.3425	1000.49	85.7036	1000.49	80.1935	1000.49	83.9493	1000.49	77.8081	1000.49	79.9099	1000.49	76.0951	1000.49	77.9867	1000.49	77.1669	1000.49	77.2737	1000.49	78.0388	1000.49	59.4352	1000.49	78.7626	1000.49	73.6617	1000.49	80.0868	1000.49	75.4878	1000.49	80.1165	1000.49	67.6545	1000.49	77.9526	1000.49	66.4615	1000.49	75.2906	1000.49	69.1079	1000.49	75.5938	1000.49	70.2242	1000.49	75.0459
1035.64	86.1513	1035.64	80.6004	1035.64	88.1222	1035.64	72.2028	1035.64	87.9737	1035.64	77.1821	1035.64	87.1867	1035.64	79.5092	1035.64	87.1384	1035.64	80.6346	1035.64	87.3804	1035.64	81.2851	1035.64	86.5762	1035.64	80.9916	1035.64	84.088	1035.64	79.6187	1035.64	77.876	1035.64	78.5622	1035.64	73.9365	1035.64	79.1824	1035.64	76.4158	1035.64	79.4713	1035.64	71.9284	1035.64	79.5898	1035.64	69.4299	1035.64	80.5986	1035.64	76.7668	1035.64	80.5778	1035.64	72.2811	1035.64	78.4649	1035.64	67.5508	1035.64	75.6731	1035.64	65.3652	1035.64	76.3188	1035.64	70.0722	1035.64	76.2996
1072.27	86.6155	1072.27	81.2172	1072.27	88.1706	1072.27	72.3317	1072.27	87.7161	1072.27	78.5089	1072.27	87.0349	1072.27	81.1964	1072.27	87.2747	1072.27	82.4266	1072.27	87.488	1072.27	82.3771	1072.27	86.4735	1072.27	80.9276	1072.27	84.197	1072.27	78.1898	1072.27	80.1835	1072.27	75.7478	1072.27	74.0076	1072.27	77.3213	1072.27	74.4821	1072.27	78.7956	1072.27	75.6332	1072.27	79.2072	1072.27	60.7338	1072.27	80.167	1072.27	73.1108	1072.27	80.5087	1072.27	73.3206	1072.27	79.1963	1072.27	67.2977	1072.27	76.9893	1072.27	61.4638	1072.27	76.8776	1072.27	74.3521	1072.27	77.5286
1108.89	87.8117	1108.89	82.6651	1108.89	89.1264	1108.89	70.4084	1108.89	88.4776	1108.89	79.8462	1108.89	87.6317	1108.89	82.3666	1108.89	87.6445	1108.89	82.575	1108.89	87.7038	1108.89	82.3682	1108.89	86.6078	1108.89	82.1108	1108.89	83.839	1108.89	81.5423	1108.89	77.7733	1108.89	80.6207	1108.89	70.799	1108.89	79.7737	1108.89	76.3341	1108.89	78.669	1108.89	77.5194	1108.89	77.8507	1108.89	67.0431	1108.89	78.7416	1108.89	73.8712	1108.89	79.5532	1108.89	73.9784	1108.89	79.2602	1108.89	52.6997	1108.89	78.4204	1108.89	70.1852	1108.89	77.8767	1108.89	74.0907	1108.89	76.6931
1148.44	88.22	1148.44	82.2078	1148.44	89.7389	1148.44	68.2165	1148.44	89.1069	1148.44	80.047	1148.44	87.9348	1148.44	81.896	1148.44	87.1148	1148.44	82.5322	1148.44	86.9138	1148.44	83.3031	1148.44	86.1668	1148.44	83.005	1148.44	84.4691	1148.44	80.7017	1148.44	81.3668	1148.44	76.6338	1148.44	73.003	1148.44	75.4845	1148.44	73.9849	1148.44	77.5526	1148.44	78.834	1148.44	77.4405	1148.44	70.1495	1148.44	76.4821	1148.44	73.1327	1148.44	78.0835	1148.44	75.348	1148.44	80.0466	1148.44	68.1571	1148.44	80.153	1148.44	66.5981	1148.44	78.3145	1148.44	75.2987	1148.44	77.1387
1189.45	87.355	1189.45	81.0356	1189.45	89.167	1189.45	62.4219	1189.45	89.0911	1189.45	78.1245	1189.45	88.7578	1189.45	81.2421	1189.45	88.1758	1189.45	83.2478	1189.45	87.8134	1189.45	84.5605	1189.45	86.4605	1189.45	84.1169	1189.45	82.4776	1189.45	81.9327	1189.45	78.2852	1189.45	79.2056	1189.45	75.2663	1189.45	77.41	1189.45	72.5827	1189.45	77.3125	1189.45	80.4779	1189.45	77.9801	1189.45	73.7114	1189.45	78.7054	1189.45	68.5315	1189.45	79.0587	1189.45	74.6293	1189.45	79.0485	1189.45	65.8987	1189.45	79.1739	1189.45	67.817	1189.45	78.9642	1189.45	72.0635	1189.45	76.5359
1230.47	86.9353	1230.47	82.2374	1230.47	88.2804	1230.47	70.8442	1230.47	88.3661	1230.47	77.7755	1230.47	88.5537	1230.47	81.8258	1230.47	87.9195	1230.47	83.2692	1230.47	86.2191	1230.47	83.9651	1230.47	83.6779	1230.47	83.4682	1230.47	80.4175	1230.47	81.0254	1230.47	78.1286	1230.47	77.124	1230.47	75.948	1230.47	74.6985	1230.47	73.8947	1230.47	76.2692	1230.47	79.6953	1230.47	77.8357	1230.47	75.8803	1230.47	77.7951	1230.47	62.3409	1230.47	77.3395	1230.47	73.8122	1230.47	78.307	1230.47	70.658	1230.47	80.0036	1230.47	55.9289	1230.47	80.2332	1230.47	71.4024	1230.47	77.5703
1274.41	85.8989	1274.41	82.277	1274.41	87.0774	1274.41	71.4444	1274.41	88.1066	1274.41	76.1729	1274.41	88.6269	1274.41	81.9733	1274.41	87.1389	1274.41	83.7726	1274.41	84.4501	1274.41	84.1958	1274.41	81.5145	1274.41	83.4395	1274.41	75.6511	1274.41	81.1713	1274.41	68.5445	1274.41	76.8558	1274.41	72.6481	1274.41	72.3103	1274.41	67.4233	1274.41	74.1112	1274.41	76.0729	1274.41	73.2269	1274.41	73.4677	1274.41	71.7089	1274.41	68.0767	1274.41	74.0507	1274.41	74.3696	1274.41	77.5411	1274.41	71.3427	1274.41	79.2699	1274.41	54.0534	1274.41	79.1066	1274.41	69.3889	1274.41	76.6796
1319.82	85.3846	1319.82	82.4366	1319.82	86.607	1319.82	73.1169	1319.82	88.1767	1319.82	74.7911	1319.82	88.8518	1319.82	81.5359	1319.82	86.6025	1319.82	83.0817	1319.82	82.0584	1319.82	82.8118	1319.82	77.6582	1319.82	81.0934	1319.82	73.4091	1319.82	78.991	1319.82	70.3643	1319.82	77.4258	1319.82	75.0236	1319.82	73.0981	1319.82	74.0773	1319.82	71.4632	1319.82	76.7092	1319.82	75.1982	1319.82	76.7981	1319.82	74.655	1319.82	71.5375	1319.82	74.676	1319.82	76.1194	1319.82	77.2613	1319.82	73.987	1319.82	79.0259	1319.82	58.5012	1319.82	78.5294	1319.82	68.2785	1319.82	75.3861
1366.7	84.9911	1366.7	82.2438	1366.7	86.5669	1366.7	71.8908	1366.7	88.4093	1366.7	75.5233	1366.7	88.6977	1366.7	81.3314	1366.7	85.976	1366.7	82.5822	1366.7	80.1683	1366.7	82.8756	1366.7	73.626	1366.7	81.9357	1366.7	71.3559	1366.7	79.4964	1366.7	70.3378	1366.7	76.8517	1366.7	66.1148	1366.7	72.3295	1366.7	70.9894	1366.7	67.6187	1366.7	75.9612	1366.7	73.6591	1366.7	77.2511	1366.7	73.1054	1366.7	74.2413	1366.7	71.8624	1366.7	75.5962	1366.7	75.1675	1366.7	74.1404	1366.7	78.6134	1366.7	64.7549	1366.7	78.8064	1366.7	63.2758	1366.7	74.7485
1413.57	84.0555	1413.57	80.9063	1413.57	86.1783	1413.57	69.3517	1413.57	88.3718	1413.57	75.7363	1413.57	88.6915	1413.57	81.7033	1413.57	86.0235	1413.57	82.4509	1413.57	80.0371	1413.57	81.7746	1413.57	72.8281	1413.57	81.3783	1413.57	70.9172	1413.57	79.9883	1413.57	67.6139	1413.57	77.4235	1413.57	72.7692	1413.57	74.1588	1413.57	76.383	1413.57	61.5192	1413.57	77.0023	1413.57	69.3041	1413.57	77.2152	1413.57	72.0499	1413.57	75.0616	1413.57	71.6802	1413.57	75.8462	1413.57	74.5457	1413.57	75.195	1413.57	77.6467	1413.57	68.027	1413.57	77.0267	1413.57	61.574	1413.57	72.0393
1463.38	84.0873	1463.38	80.2745	1463.38	86.6093	1463.38	65.799	1463.38	88.3531	1463.38	76.0106	1463.38	87.9685	1463.38	80.9365	1463.38	84.8266	1463.38	81.7771	1463.38	78.2505	1463.38	81.031	1463.38	68.343	1463.38	79.5219	1463.38	64.3927	1463.38	76.7798	1463.38	66.8451	1463.38	72.5699	1463.38	61.2129	1463.38	72.1714	1463.38	71.3627	1463.38	67.6013	1463.38	75.1631	1463.38	64.5453	1463.38	76.2178	1463.38	70.3879	1463.38	76.4502	1463.38	69.7824	1463.38	76.8645	1463.38	72.2758	1463.38	74.7905	1463.38	74.9569	1463.38	68.306	1463.38	75.2609	1463.38	56.0963	1463.38	68.9571
1516.11	84.7217	1516.11	79.7191	1516.11	87.3515	1516.11	63.2911	1516.11	88.2805	1516.11	75.1446	1516.11	86.9105	1516.11	80.5806	1516.11	82.7513	1516.11	81.5589	1516.11	74.7842	1516.11	80.7491	1516.11	68.6307	1516.11	79.2169	1516.11	63.2156	1516.11	75.84	1516.11	52.5947	1516.11	68.7138	1516.11	47.9192	1516.11	65.6817	1516.11	72.1538	1516.11	65.1937	1516.11	75.5058	1516.11	61.8476	1516.11	74.6613	1516.11	68.7271	1516.11	75.5281	1516.11	64.6535	1516.11	75.9322	1516.11	67.459	1516.11	73.8534	1516.11	71.7522	1516.11	68.2041	1516.11	72.4891	1516.11	58.575	1516.11	66.0158
1568.85	85.2066	1568.85	80.1025	1568.85	87.6756	1568.85	63.6708	1568.85	88.049	1568.85	75.5428	1568.85	85.474	1568.85	80.8689	1568.85	79.9402	1568.85	81.818	1568.85	72.2526	1568.85	80.6779	1568.85	68.4352	1568.85	78.246	1568.85	69.1261	1568.85	74.0508	1568.85	61.6929	1568.85	66.7215	1568.85	68.3249	1568.85	53.6527	1568.85	65.559	1568.85	63.7232	1568.85	73.5795	1568.85	65.6406	1568.85	73.757	1568.85	67.2787	1568.85	73.9882	1568.85	61.2865	1568.85	74.6068	1568.85	62.6486	1568.85	71.8639	1568.85	69.3915	1568.85	66.4864	1568.85	69.58	1568.85	61.4034	1568.85	61.0274
1624.51	85.8462	1624.51	80.694	1624.51	88.1705	1624.51	57.7351	1624.51	87.9867	1624.51	76.1012	1624.51	84.5894	1624.51	80.6554	1624.51	78.6737	1624.51	82.082	1624.51	72.0701	1624.51	81.156	1624.51	64.7844	1624.51	78.7901	1624.51	70.502	1624.51	74.7246	1624.51	70.2009	1624.51	66.4681	1624.51	65.6274	1624.51	56.1211	1624.51	63.8517	1624.51	63.1288	1624.51	69.0099	1624.51	64.5717	1624.51	71.756	1624.51	66.8497	1624.51	73.2029	1624.51	60.8929	1624.51	73.3193	1624.51	64.1252	1624.51	72.192	1624.51	68.7486	1624.51	67.9985	1624.51	65.959	1624.51	62.0272	1624.51	52.8682
1681.64	86.3575	1681.64	80.9512	1681.64	88.6485	1681.64	49.2747	1681.64	88.1916	1681.64	77.3762	1681.64	84.698	1681.64	80.8613	1681.64	78.9598	1681.64	82.105	1681.64	69.8146	1681.64	80.685	1681.64	66.3812	1681.64	77.547	1681.64	75.3907	1681.64	73.9602	1681.64	74.8746	1681.64	69.6042	1681.64	61.9385	1681.64	66.8201	1681.64	60.7719	1681.64	70.2879	1681.64	62.8383	1681.64	70.714	1681.64	66.5546	1681.64	69.5413	1681.64	70.5917	1681.64	64.6584	1681.64	72.9498	1681.64	65.8777	1681.64	70.2042	1681.64	67.7136	1681.64	68.1997	1681.64	65.008	1681.64	64.092	1681.64	51.5575
1741.7	86.3608	1741.7	80.7854	1741.7	88.6743	1741.7	52.0595	1741.7	88.352	1741.7	77.9308	1741.7	84.6152	1741.7	80.4194	1741.7	76.7839	1741.7	81.1591	1741.7	65.7886	1741.7	79.7676	1741.7	73.822	1741.7	74.8645	1741.7	78.0597	1741.7	68.7827	1741.7	76.5523	1741.7	66.0877	1741.7	72.6946	1741.7	67.9502	1741.7	66.3374	1741.7	70.3394	1741.7	52.3097	1741.7	70.9408	1741.7	61.4981	1741.7	69.7292	1741.7	62.1922	1741.7	65.7579	1741.7	68.6145	1741.7	63.3336	1741.7	68.8341	1741.7	67.3552	1741.7	67.6833	1741.7	61.8742	1741.7	67.6932	1741.7	63.2592
1803.22	86.5524	1803.22	81.5692	1803.22	88.7172	1803.22	59.1136	1803.22	88.4315	1803.22	78.2498	1803.22	83.6757	1803.22	80.5509	1803.22	72.8868	1803.22	79.7062	1803.22	71.8275	1803.22	78.0948	1803.22	76.4572	1803.22	74.0178	1803.22	79.2557	1803.22	70.6387	1803.22	77.569	1803.22	69.4409	1803.22	69.4921	1803.22	69.3932	1803.22	63.467	1803.22	71.2189	1803.22	54.0453	1803.22	73.2676	1803.22	58.4881	1803.22	73.7513	1803.22	40.0887	1803.22	69.6893	1803.22	66.6332	1803.22	67.454	1803.22	67.2894	1803.22	66.0921	1803.22	68.0289	1803.22	64.2225	1803.22	67.6819	1803.22	67.2552
1866.21	86.9294	1866.21	82.1677	1866.21	89.0867	1866.21	57.8476	1866.21	88.4179	1866.21	79.2227	1866.21	82.1605	1866.21	80.862	1866.21	69.0643	1866.21	78.3502	1866.21	77.0201	1866.21	74.8683	1866.21	79.3096	1866.21	72.6635	1866.21	80.9997	1866.21	71.0273	1866.21	77.3475	1866.21	67.9572	1866.21	71.3912	1866.21	65.0286	1866.21	68.4714	1866.21	70.3333	1866.21	58.0171	1866.21	74.5076	1866.21	58.8514	1866.21	74.5546	1866.21	58.7154	1866.21	70.6888	1866.21	65.2689	1866.21	70.9474	1866.21	67.3131	1866.21	69.4336	1866.21	68.4572	1866.21	68.3877	1866.21	69.8124	1866.21	70.3379
1932.13	87.1787	1932.13	82.247	1932.13	89.6377	1932.13	59.8007	1932.13	88.8643	1932.13	80.0808	1932.13	80.6685	1932.13	81.2749	1932.13	72.8879	1932.13	78.4066	1932.13	80.3071	1932.13	76.8991	1932.13	82.4914	1932.13	75.6347	1932.13	82.9265	1932.13	73.2276	1932.13	79.5813	1932.13	72.5498	1932.13	71.1131	1932.13	72.3992	1932.13	71.1353	1932.13	73.274	1932.13	62.4136	1932.13	73.9575	1932.13	42.7344	1932.13	73.9385	1932.13	66.0781	1932.13	69.9781	1932.13	64.194	1932.13	74.243	1932.13	68.5739	1932.13	75.2834	1932.13	70.3108	1932.13	71.741	1932.13	72.3029	1932.13	71.4244
1999.51	86.2531	1999.51	81.1515	1999.51	89.5985	1999.51	58.9331	1999.51	88.6557	1999.51	79.5333	1999.51	79.1486	1999.51	81.2947	1999.51	74.1345	1999.51	78.5341	1999.51	81.8953	1999.51	78.1859	1999.51	84.6584	1999.51	77.3772	1999.51	84.5808	1999.51	76.1404	1999.51	81.224	1999.51	71.9596	1999.51	72.4603	1999.51	70.1052	1999.51	72.4202	1999.51	73.8557	1999.51	64.343	1999.51	75.9147	1999.51	57.5226	1999.51	75.2317	1999.51	66.71	1999.51	70.0985	1999.51	59.313	1999.51	73.7596	1999.51	68.4935	1999.51	76.0183	1999.51	69.2435	1999.51	69.8357	1999.51	74.2202	1999.51	73.2225
2069.82	85.3708	2069.82	79.1435	2069.82	89.0269	2069.82	71.5439	2069.82	87.7492	2069.82	78.623	2069.82	76.9882	2069.82	81.78	2069.82	74.7826	2069.82	78.3925	2069.82	82.6723	2069.82	76.3302	2069.82	85.2674	2069.82	79.1876	2069.82	84.7465	2069.82	78.9698	2069.82	79.7443	2069.82	71.4816	2069.82	73.4616	2069.82	48.4917	2069.82	72.663	2069.82	71.6208	2069.82	65.2097	2069.82	77.4351	2069.82	57.6969	2069.82	77.6701	2069.82	65.1416	2069.82	71.6612	2069.82	58.56	2069.82	68.6675	2069.82	69.354	2069.82	74.2459	2069.82	64.0358	2069.82	67.3877	2069.82	74.0776	2069.82	74.4575
2143.07	83.9675	2143.07	77.1047	2143.07	88.7521	2143.07	76.1659	2143.07	87.2552	2143.07	78.8066	2143.07	74.0102	2143.07	81.9482	2143.07	76.1372	2143.07	81.06	2143.07	82.4406	2143.07	79.8645	2143.07	85.3264	2143.07	80.4734	2143.07	83.8914	2143.07	78.7494	2143.07	77.6584	2143.07	70.7376	2143.07	71.8948	2143.07	61.8189	2143.07	73.4982	2143.07	64.0015	2143.07	68.1734	2143.07	75.4414	2143.07	67.136	2143.07	79.7191	2143.07	66.6662	2143.07	75.8251	2143.07	67.1643	2143.07	56.3748	2143.07	69.8893	2143.07	73.1313	2143.07	62.7303	2143.07	69.1645	2143.07	74.0127	2143.07	75.6404
2219.24	83.2647	2219.24	71.7929	2219.24	88.9328	2219.24	77.2329	2219.24	86.2059	2219.24	80.102	2219.24	64.8433	2219.24	81.066	2219.24	77.6915	2219.24	81.5491	2219.24	82.7926	2219.24	80.0872	2219.24	83.748	2219.24	78.6181	2219.24	81.5422	2219.24	77.5585	2219.24	73.5523	2219.24	74.766	2219.24	65.0553	2219.24	60.3932	2219.24	71.3558	2219.24	60.936	2219.24	73.4479	2219.24	73.77	2219.24	65.5418	2219.24	80.1748	2219.24	63.6952	2219.24	78.8145	2219.24	68.2413	2219.24	60.6186	2219.24	71.8585	2219.24	68.736	2219.24	63.4534	2219.24	60.4364	2219.24	73.2467	2219.24	74.204
2296.88	83.9511	2296.88	71.6853	2296.88	89.001	2296.88	75.5938	2296.88	84.6427	2296.88	80.309	2296.88	63.1251	2296.88	80.0521	2296.88	77.7021	2296.88	80.4744	2296.88	82.6911	2296.88	78.7998	2296.88	82.0965	2296.88	77.1711	2296.88	78.0066	2296.88	77.7585	2296.88	69.9931	2296.88	73.908	2296.88	65.2046	2296.88	64.4644	2296.88	65.6339	2296.88	62.0287	2296.88	73.0289	2296.88	70.827	2296.88	66.1865	2296.88	79.4855	2296.88	66.9557	2296.88	79.4155	2296.88	69.2078	2296.88	68.469	2296.88	71.0357	2296.88	66.3092	2296.88	65.6764	2296.88	61.5276	2296.88	72.9704	2296.88	74.6049
2378.91	84.8842	2378.91	69.9975	2378.91	88.9824	2378.91	76.4301	2378.91	83.0297	2378.91	81.204	2378.91	61.9585	2378.91	80.2605	2378.91	80.3239	2378.91	80.4368	2378.91	82.5734	2378.91	79.5035	2378.91	80.2359	2378.91	77.6283	2378.91	76.2057	2378.91	77.2903	2378.91	68.3234	2378.91	74.1224	2378.91	64.4539	2378.91	68.9681	2378.91	69.0146	2378.91	65.7484	2378.91	73.5165	2378.91	67.063	2378.91	69.9248	2378.91	78.8927	2378.91	69.9946	2378.91	80.5276	2378.91	70.7691	2378.91	72.7987	2378.91	72.9561	2378.91	60.5864	2378.91	67.1899	2378.91	63.9382	2378.91	74.2223	2378.91	75.5569
2462.4	84.8598	2462.4	64.8618	2462.4	88.7486	2462.4	78.5309	2462.4	82.4101	2462.4	82.273	2462.4	64.5676	2462.4	80.8823	2462.4	81.7586	2462.4	81.3084	2462.4	83.17	2462.4	79.727	2462.4	79.458	2462.4	77.3868	2462.4	75.748	2462.4	77.556	2462.4	69.4364	2462.4	75.6401	2462.4	61.8626	2462.4	71.2327	2462.4	69.9646	2462.4	66.649	2462.4	72.5463	2462.4	69.6198	2462.4	66.9934	2462.4	77.8617	2462.4	67.5055	2462.4	79.8921	2462.4	72.7069	2462.4	72.5939	2462.4	74.1603	2462.4	60.7598	2462.4	66.117	2462.4	64.2896	2462.4	75.5443	2462.4	76.5022
2548.83	85.3349	2548.83	66.0172	2548.83	87.9033	2548.83	77.864	2548.83	81.0045	2548.83	83.1976	2548.83	70.095	2548.83	80.5891	2548.83	83.5617	2548.83	81.3395	2548.83	82.4038	2548.83	79.6606	2548.83	76.4258	2548.83	75.6572	2548.83	75.3445	2548.83	77.8	2548.83	69.7892	2548.83	74.7019	2548.83	40.9546	2548.83	63.5971	2548.83	71.1328	2548.83	57.4787	2548.83	69.8342	2548.83	69.3057	2548.83	65.8229	2548.83	77.5837	2548.83	66.8397	2548.83	78.28	2548.83	72.1842	2548.83	69.277	2548.83	74.3783	2548.83	67.0325	2548.83	67.9486	2548.83	67.454	2548.83	74.1563	2548.83	77.0929
2639.65	85.4164	2639.65	65.8097	2639.65	86.1366	2639.65	77.1601	2639.65	80.9489	2639.65	84.3421	2639.65	76.6899	2639.65	82.3016	2639.65	85.4149	2639.65	80.5351	2639.65	80.9111	2639.65	80.5584	2639.65	73.8611	2639.65	76.9985	2639.65	75.9442	2639.65	78.0773	2639.65	69.3113	2639.65	76.518	2639.65	59.858	2639.65	67.6684	2639.65	71.947	2639.65	64.03	2639.65	71.5372	2639.65	67.0804	2639.65	69.9415	2639.65	77.8186	2639.65	65.073	2639.65	78.1943	2639.65	69.9796	2639.65	67.7679	2639.65	74.4541	2639.65	68.3702	2639.65	70.9205	2639.65	70.7176	2639.65	71.5981	2639.65	76.4892
2731.93	85.0483	2731.93	69.9658	2731.93	85.7834	2731.93	79.6603	2731.93	82.119	2731.93	84.4474	2731.93	79.6717	2731.93	83.1153	2731.93	85.0699	2731.93	78.775	2731.93	78.4322	2731.93	79.2717	2731.93	72.9742	2731.93	76.1901	2731.93	72.3544	2731.93	75.7155	2731.93	67.5406	2731.93	76.6432	2731.93	57.1508	2731.93	71.534	2731.93	70.1068	2731.93	69.8764	2731.93	66.8715	2731.93	61.8258	2731.93	70.266	2731.93	77.2159	2731.93	60.9333	2731.93	77.6953	2731.93	64.5067	2731.93	68.0645	2731.93	71.3816	2731.93	68.7677	2731.93	71.353	2731.93	68.6354	2731.93	63.1563	2731.93	73.6699
2828.61	84.0095	2828.61	69.9875	2828.61	85.6557	2828.61	81.2171	2828.61	81.8052	2828.61	84.9753	2828.61	81.5426	2828.61	82.8692	2828.61	83.9943	2828.61	76.9848	2828.61	74.6875	2828.61	76.5151	2828.61	69.9517	2828.61	75.9338	2828.61	70.685	2828.61	73.7187	2828.61	70.5031	2828.61	75.5318	2828.61	61.7606	2828.61	71.4038	2828.61	63.3398	2828.61	69.4466	2828.61	64.2537	2828.61	56.3171	2828.61	69.6243	2828.61	74.6832	2828.61	56.3117	2828.61	77.3314	2828.61	55.4285	2828.61	70.1955	2828.61	64.5908	2828.61	68.9299	2828.61	71.2403	2828.61	63.642	2828.61	62.0119	2828.61	68.7635
2928.22	83.1463	2928.22	70.6929	2928.22	85.0832	2928.22	81.1257	2928.22	80.3201	2928.22	85.4222	2928.22	81.5051	2928.22	82.1967	2928.22	81.4752	2928.22	76.3886	2928.22	75.3653	2928.22	76.383	2928.22	69.8453	2928.22	76.1445	2928.22	65.4863	2928.22	74.414	2928.22	71.9798	2928.22	75.0213	2928.22	64.4958	2928.22	70.0976	2928.22	54.631	2928.22	67.0451	2928.22	64.9047	2928.22	60.9875	2928.22	53.3011	2928.22	71.889	2928.22	57.8511	2928.22	75.5874	2928.22	49.4074	2928.22	66.0109	2928.22	63.7614	2928.22	67.5463	2928.22	71.664	2928.22	60.3928	2928.22	65.9745	2928.22	62.0042
3030.76	82.3365	3030.76	72.4448	3030.76	84.7702	3030.76	80.4271	3030.76	79.3501	3030.76	85.3101	3030.76	81.5174	3030.76	82.2557	3030.76	80.6106	3030.76	76.8456	3030.76	75.7042	3030.76	75.8426	3030.76	65.3661	3030.76	75.5754	3030.76	65.8895	3030.76	74.2625	3030.76	74.0348	3030.76	74.5792	3030.76	66.3977	3030.76	69.1268	3030.76	60.2593	3030.76	65.6071	3030.76	56.6624	3030.76	61.8047	3030.76	53.0463	3030.76	70.136	3030.76	64.3076	3030.76	73.8028	3030.76	57.1185	3030.76	61.5114	3030.76	62.3944	3030.76	68.713	3030.76	70.5262	3030.76	59.1756	3030.76	69.3535	3030.76	55.979
3137.7	81.8384	3137.7	76.4122	3137.7	85.0101	3137.7	81.4087	3137.7	78.9271	3137.7	85.0956	3137.7	79.626	3137.7	82.1729	3137.7	79.7884	3137.7	77.0945	3137.7	74.0609	3137.7	73.9139	3137.7	65.3585	3137.7	72.3306	3137.7	67.801	3137.7	71.0574	3137.7	73.0479	3137.7	70.9594	3137.7	63.4444	3137.7	66.3576	3137.7	58.5251	3137.7	63.4569	3137.7	54.0796	3137.7	56.9188	3137.7	63.7585	3137.7	66.8769	3137.7	52.448	3137.7	71.001	3137.7	60.1595	3137.7	56.3793	3137.7	48.5971	3137.7	68.5453	3137.7	66.6136	3137.7	65.2104	3137.7	69.6275	3137.7	62.4108
3249.02	82.1394	3249.02	77.1221	3249.02	84.0201	3249.02	80.4185	3249.02	77.965	3249.02	84.1964	3249.02	79.6562	3249.02	82.1889	3249.02	77.3209	3249.02	78.2556	3249.02	69.4075	3249.02	73.8444	3249.02	66.9772	3249.02	71.0249	3249.02	63.9935	3249.02	72.221	3249.02	71.0712	3249.02	70.3758	3249.02	63.6449	3249.02	67.6051	3249.02	57.6088	3249.02	61.6308	3249.02	57.7878	3249.02	41.8994	3249.02	55.9233	3249.02	62.8773	3249.02	56.3582	3249.02	67.4478	3249.02	64.095	3249.02	55.6343	3249.02	58.5145	3249.02	68.697	3249.02	66.2697	3249.02	68.8584	3249.02	70.0972	3249.02	65.0407
3363.28	80.8591	3363.28	77.5511	3363.28	83.2624	3363.28	81.0127	3363.28	76.8367	3363.28	83.9934	3363.28	77.71	3363.28	83.1967	3363.28	73.4406	3363.28	80.6908	3363.28	68.669	3363.28	75.2877	3363.28	68.2799	3363.28	72.1206	3363.28	64.5963	3363.28	75.2185	3363.28	66.762	3363.28	73.1683	3363.28	63.2839	3363.28	70.2365	3363.28	62.6394	3363.28	67.2814	3363.28	56.9751	3363.28	59.3376	3363.28	60.435	3363.28	64.5593	3363.28	57.8011	3363.28	66.1091	3363.28	61.8531	3363.28	59.8311	3363.28	63.6008	3363.28	67.6573	3363.28	66.4561	3363.28	68.551	3363.28	67.2073	3363.28	64.5938
3481.93	81.3783	3481.93	77.2289	3481.93	83.7981	3481.93	81.2658	3481.93	76.6905	3481.93	83.4749	3481.93	74.6014	3481.93	83.6007	3481.93	70.2519	3481.93	82.3183	3481.93	64.2916	3481.93	76.1945	3481.93	66.1195	3481.93	72.6264	3481.93	68.2432	3481.93	76.6651	3481.93	64.9679	3481.93	75.7143	3481.93	58.9764	3481.93	72.1644	3481.93	62.6594	3481.93	72.5964	3481.93	50.8591	3481.93	68.1762	3481.93	66.2286	3481.93	66.8788	3481.93	64.1439	3481.93	69.898	3481.93	61.6613	3481.93	55.8931	3481.93	62.2402	3481.93	68.5471	3481.93	67.4233	3481.93	68.2091	3481.93	65.1525	3481.93	66.6232
3604.98	81.9444	3604.98	72.4059	3604.98	82.7284	3604.98	80.0953	3604.98	74.2297	3604.98	83.5259	3604.98	75.624	3604.98	84.262	3604.98	57.6493	3604.98	83.0653	3604.98	73.6118	3604.98	75.3849	3604.98	41.4797	3604.98	72.9591	3604.98	70.5496	3604.98	75.0669	3604.98	66.5442	3604.98	75.301	3604.98	55.7227	3604.98	72.2767	3604.98	57.3655	3604.98	73.045	3604.98	62.5606	3604.98	71.3145	3604.98	65.6708	3604.98	67.2192	3604.98	66.3588	3604.98	70.4723	3604.98	66.2986	3604.98	59.5441	3604.98	54.1741	3604.98	68.8069	3604.98	66.9398	3604.98	67.9668	3604.98	63.0763	3604.98	67.183
3732.42	84.0988	3732.42	76.44	3732.42	82.5478	3732.42	81	3732.42	77.276	3732.42	84.7443	3732.42	75.776	3732.42	84.6294	3732.42	70.0746	3732.42	82.5366	3732.42	75.7155	3732.42	72.9261	3732.42	68.1125	3732.42	73.8688	3732.42	73.9298	3732.42	74.1177	3732.42	69.1657	3732.42	74.2194	3732.42	51.5036	3732.42	72.8241	3732.42	52.3624	3732.42	73.8612	3732.42	63.9769	3732.42	72.6094	3732.42	65.6231	3732.42	66.7517	3732.42	69.3129	3732.42	69.4392	3732.42	68.8142	3732.42	61.44	3732.42	57.5167	3732.42	70.0796	3732.42	64.6568	3732.42	67.364	3732.42	62.5899	3732.42	66.822
3864.26	84.4379	3864.26	78.5682	3864.26	82.4182	3864.26	80.5473	3864.26	80.4299	3864.26	85.0494	3864.26	75.0576	3864.26	84.65	3864.26	76.24	3864.26	80.9675	3864.26	72.3148	3864.26	62.6644	3864.26	67.7512	3864.26	75.2635	3864.26	76.0995	3864.26	68.9361	3864.26	74.1553	3864.26	68.7028	3864.26	59.3629	3864.26	71.5352	3864.26	58.4265	3864.26	70.3191	3864.26	63.495	3864.26	72.7576	3864.26	64.5956	3864.26	58.4971	3864.26	70.2125	3864.26	65.5606	3864.26	69.8202	3864.26	60.0585	3864.26	56.578	3864.26	69.2832	3864.26	61.6397	3864.26	66.6256	3864.26	62.0616	3864.26	64.247
4000.49	85.3398	4000.49	81.2887	4000.49	83.4067	4000.49	82.4643	4000.49	81.014	4000.49	86.3167	4000.49	70.2653	4000.49	84.4773	4000.49	76.061	4000.49	78.0291	4000.49	66.3156	4000.49	63.1314	4000.49	67.7971	4000.49	71.2046	4000.49	77.4381	4000.49	62.8474	4000.49	76.0759	4000.49	65.1185	4000.49	64.7835	4000.49	71.3808	4000.49	63.5349	4000.49	66.3137	4000.49	44.658	4000.49	70.5325	4000.49	56.4524	4000.49	50.5208	4000.49	68.5703	4000.49	50.5523	4000.49	68.6472	4000.49	60.8772	4000.49	63.3238	4000.49	66.5386	4000.49	55.7405	4000.49	68.8107	4000.49	62.7191	4000.49	67.9412
4141.11	85.7035	4141.11	81.5918	4141.11	84.4213	4141.11	83.0687	4141.11	82.2868	4141.11	86.9457	4141.11	71.1781	4141.11	84.815	4141.11	72.5494	4141.11	77.9875	4141.11	72.0593	4141.11	71.0509	4141.11	75.4354	4141.11	67.6582	4141.11	77.4267	4141.11	66.7854	4141.11	76.8946	4141.11	73.1125	4141.11	64.2731	4141.11	66.1066	4141.11	61.2241	4141.11	64.2176	4141.11	56.8661	4141.11	64.0384	4141.11	57.4456	4141.11	59.7873	4141.11	66.4339	4141.11	46.2043	4141.11	65.258	4141.11	63.8296	4141.11	60.1561	4141.11	63.3599	4141.11	56.1096	4141.11	70.5402	4141.11	66.7423	4141.11	69.0553
4287.6	85.5604	4287.6	82.1494	4287.6	83.9115	4287.6	83.8	4287.6	80.8225	4287.6	87.0718	4287.6	60.8382	4287.6	84.8985	4287.6	73.09	4287.6	79.1131	4287.6	73.4194	4287.6	73.3305	4287.6	75.5982	4287.6	64.9451	4287.6	75.6627	4287.6	73.4474	4287.6	74.5811	4287.6	76.8508	4287.6	65.2213	4287.6	73.1323	4287.6	55.4242	4287.6	64.5153	4287.6	50.1667	4287.6	61.5333	4287.6	62.8593	4287.6	68.8723	4287.6	65.7306	4287.6	63.5206	4287.6	61.3155	4287.6	67.6234	4287.6	47.459	4287.6	65.6414	4287.6	57.7376	4287.6	71.5031	4287.6	71.8876	4287.6	69.5909
4438.48	84.7758	4438.48	79.567	4438.48	83.056	4438.48	83.5953	4438.48	79.624	4438.48	86.5381	4438.48	66.3288	4438.48	84.2255	4438.48	71.631	4438.48	77.1023	4438.48	74.9244	4438.48	73.8509	4438.48	75.0522	4438.48	65.299	4438.48	72.5702	4438.48	74.3121	4438.48	69.1872	4438.48	76.2154	4438.48	57.3763	4438.48	72.5821	4438.48	52.9302	4438.48	69.7486	4438.48	55.6009	4438.48	64.228	4438.48	62.3429	4438.48	68.7038	4438.48	62.932	4438.48	67.2121	4438.48	62.4884	4438.48	68.928	4438.48	50.1207	4438.48	67.0584	4438.48	62.6305	4438.48	69.0492	4438.48	74.3441	4438.48	66.7808
4595.21	84.6668	4595.21	78.2077	4595.21	82.5486	4595.21	84.2696	4595.21	77.0916	4595.21	85.6525	4595.21	75.7814	4595.21	83.8454	4595.21	77.5156	4595.21	76.1971	4595.21	76.4542	4595.21	73.9658	4595.21	74.0202	4595.21	56.5255	4595.21	70.8304	4595.21	75.6716	4595.21	70.5517	4595.21	76.8275	4595.21	56.1066	4595.21	73.3139	4595.21	64.5686	4595.21	70.2626	4595.21	60.2422	4595.21	67.3592	4595.21	62.1068	4595.21	66.7789	4595.21	65.1771	4595.21	69.3869	4595.21	65.0758	4595.21	68.375	4595.21	61.9396	4595.21	68.5048	4595.21	64.2485	4595.21	66.211	4595.21	74.0193	4595.21	66.2679
4756.35	83.5577	4756.35	78.0563	4756.35	82.414	4756.35	84.0294	4756.35	74.95	4756.35	84.6925	4756.35	79.1374	4756.35	82.8811	4756.35	77.9615	4756.35	77.3305	4756.35	77.5504	4756.35	71.7407	4756.35	75.8215	4756.35	68.0969	4756.35	71.3186	4756.35	74.0508	4756.35	70.3177	4756.35	73.2507	4756.35	46.3698	4756.35	72.9663	4756.35	65.2833	4756.35	70.7877	4756.35	65.6677	4756.35	65.1448	4756.35	66.7745	4756.35	66.0193	4756.35	66.1903	4756.35	69.5846	4756.35	64.4913	4756.35	67.6273	4756.35	66.25	4756.35	69.2428	4756.35	64.0688	4756.35	57.8473	4756.35	73.0962	4756.35	68.1624
4924.8	83.828	4924.8	79.23	4924.8	84.1029	4924.8	84.553	4924.8	71.1964	4924.8	84.3743	4924.8	81.6169	4924.8	81.8864	4924.8	77.6682	4924.8	77.322	4924.8	79.6086	4924.8	66.389	4924.8	77.764	4924.8	68.0977	4924.8	71.6746	4924.8	71.682	4924.8	65.4509	4924.8	69.3034	4924.8	50.3781	4924.8	68.8802	4924.8	65.2301	4924.8	65.7732	4924.8	69.7467	4924.8	60.8047	4924.8	69.225	4924.8	61.2161	4924.8	67.2685	4924.8	66.5554	4924.8	64.6943	4924.8	58.5883	4924.8	68.2914	4924.8	68.202	4924.8	64.5864	4924.8	61.2187	4924.8	71.6694	4924.8	66.5394
5097.66	83.5252	5097.66	77.9509	5097.66	83.6018	5097.66	83.3174	5097.66	71.9116	5097.66	83.9589	5097.66	80.0561	5097.66	81.5161	5097.66	76.81	5097.66	75.1616	5097.66	80.748	5097.66	68.2111	5097.66	75.4168	5097.66	64.9023	5097.66	67.6899	5097.66	64.8827	5097.66	71.5672	5097.66	69.5763	5097.66	59.8134	5097.66	55.0561	5097.66	66.5862	5097.66	66.0469	5097.66	70.4432	5097.66	62.8496	5097.66	70.9716	5097.66	59.1302	5097.66	70.7859	5097.66	64.381	5097.66	61.8747	5097.66	66.5877	5097.66	71.6495	5097.66	67.107	5097.66	66.4093	5097.66	61.8676	5097.66	67.9699	5097.66	63.342
5277.83	82.1696	5277.83	71.4678	5277.83	82.2013	5277.83	81.5886	5277.83	70.9677	5277.83	83.7981	5277.83	75.3882	5277.83	81.2102	5277.83	76.8136	5277.83	72.2999	5277.83	79.2023	5277.83	70.2675	5277.83	73.1643	5277.83	65.5001	5277.83	66.004	5277.83	67.6089	5277.83	71.5802	5277.83	74.6015	5277.83	62.1355	5277.83	67.1514	5277.83	64.4084	5277.83	72.2989	5277.83	58.7475	5277.83	68.8158	5277.83	64.8041	5277.83	67.7982	5277.83	66.394	5277.83	70.599	5277.83	57.0358	5277.83	71.2178	5277.83	66.6265	5277.83	64.941	5277.83	65.2977	5277.83	62.0378	5277.83	62.7879	5277.83	59.5348
5463.87	81.7333	5463.87	72.8974	5463.87	80.2606	5463.87	79.4053	5463.87	72.0975	5463.87	82.9865	5463.87	75.0642	5463.87	80.3525	5463.87	78.1034	5463.87	70.0756	5463.87	77.9595	5463.87	70.3998	5463.87	67.2352	5463.87	65.6918	5463.87	66.5485	5463.87	68.4075	5463.87	66.6143	5463.87	70.2787	5463.87	63.1889	5463.87	68.1639	5463.87	62.9866	5463.87	71.7906	5463.87	58.3271	5463.87	68.1048	5463.87	60.857	5463.87	69.2978	5463.87	52.0402	5463.87	74.4159	5463.87	51.2783	5463.87	68.874	5463.87	55.7755	5463.87	67.4133	5463.87	59.3775	5463.87	62.8656	5463.87	64.5273	5463.87	68.7243
5657.23	81.4429	5657.23	74.7828	5657.23	80.5481	5657.23	78.4349	5657.23	76.8015	5657.23	81.0865	5657.23	76.5806	5657.23	78.7203	5657.23	78.2014	5657.23	52.2307	5657.23	78.1879	5657.23	69.9893	5657.23	57.8687	5657.23	68.7734	5657.23	59.4906	5657.23	67.1636	5657.23	69.8691	5657.23	65.535	5657.23	66.0905	5657.23	64.3769	5657.23	50.8689	5657.23	66.6224	5657.23	65.7544	5657.23	56.1362	5657.23	67.7323	5657.23	67.2098	5657.23	66.2497	5657.23	71.2798	5657.23	46.4368	5657.23	68.3152	5657.23	51.7543	5657.23	67.3031	5657.23	39.6509	5657.23	65.4507	5657.23	60.41	5657.23	69.8934
5856.45	82.922	5856.45	75.9932	5856.45	80.083	5856.45	79.7945	5856.45	78.242	5856.45	80.3712	5856.45	77.2495	5856.45	72.492	5856.45	78.0646	5856.45	62.5679	5856.45	74.2494	5856.45	70.9339	5856.45	70.5961	5856.45	70.9908	5856.45	69.9231	5856.45	69.7661	5856.45	72.9253	5856.45	73.3727	5856.45	63.2711	5856.45	67.7434	5856.45	61.0554	5856.45	68.005	5856.45	60.0449	5856.45	67.3424	5856.45	65.3036	5856.45	67.418	5856.45	68.4105	5856.45	66.2031	5856.45	55.4765	5856.45	69.9215	5856.45	64.1269	5856.45	66.2223	5856.45	58.5698	5856.45	68.1151	5856.45	56.6796	5856.45	68.1545
6062.99	85.2433	6062.99	77.4241	6062.99	79.6056	6062.99	81.4666	6062.99	78.6705	6062.99	80.7831	6062.99	79.6537	6062.99	72.9024	6062.99	79.824	6062.99	66.4618	6062.99	73.3846	6062.99	74.6768	6062.99	74.4938	6062.99	68.1672	6062.99	71.1481	6062.99	74.7774	6062.99	72.9105	6062.99	75.6507	6062.99	62.0531	6062.99	74.2799	6062.99	60.4095	6062.99	70.8728	6062.99	54.2002	6062.99	70.5985	6062.99	63.1511	6062.99	67.9599	6062.99	63.9771	6062.99	69.0731	6062.99	62.8726	6062.99	72.6236	6062.99	67.2461	6062.99	65.1395	6062.99	67.7993	6062.99	70.9879	6062.99	64.4001	6062.99	72.2527
6276.86	86.1367	6276.86	79.4432	6276.86	78.4949	6276.86	83.2606	6276.86	78.3622	6276.86	80.5495	6276.86	80.1918	6276.86	73.1364	6276.86	80.2156	6276.86	71.6832	6276.86	74.6494	6276.86	76.1288	6276.86	74.6561	6276.86	54.9754	6276.86	72.7006	6276.86	74.6066	6276.86	70.8537	6276.86	70.6791	6276.86	55.3394	6276.86	73.0848	6276.86	52.3081	6276.86	69.0078	6276.86	54.0345	6276.86	71.0599	6276.86	61.4208	6276.86	69.409	6276.86	61.1532	6276.86	70.4686	6276.86	65.4661	6276.86	74.0492	6276.86	70.9024	6276.86	65.165	6276.86	70.2198	6276.86	71.8549	6276.86	66.6109	6276.86	72.7366
6498.05	85.0041	6498.05	79.1428	6498.05	76.1741	6498.05	83.919	6498.05	80.1872	6498.05	81.3299	6498.05	79.5994	6498.05	71.2359	6498.05	80.2047	6498.05	73.7126	6498.05	71.0019	6498.05	77.5167	6498.05	76.5326	6498.05	66.093	6498.05	72.3036	6498.05	75.4038	6498.05	71.1803	6498.05	71.5193	6498.05	57.7345	6498.05	62.6272	6498.05	66.5049	6498.05	53.7219	6498.05	60.8082	6498.05	65.5712	6498.05	53.9589	6498.05	71.8246	6498.05	47.0478	6498.05	70.6134	6498.05	56.8543	6498.05	72.6372	6498.05	71.7557	6498.05	60.7738	6498.05	70.427	6498.05	70.1643	6498.05	63.631	6498.05	72.0381
6726.56	84.4125	6726.56	76.1715	6726.56	76.3549	6726.56	84.4981	6726.56	80.8229	6726.56	80.9586	6726.56	78.0542	6726.56	69.3902	6726.56	79.9436	6726.56	74.4791	6726.56	71.8443	6726.56	77.1202	6726.56	79.8031	6726.56	72.3557	6726.56	71.1586	6726.56	73.1166	6726.56	70.6156	6726.56	74.6825	6726.56	66.9947	6726.56	63.45	6726.56	67.4723	6726.56	63.8513	6726.56	53.8884	6726.56	59.4956	6726.56	62.1777	6726.56	73.76	6726.56	37.4352	6726.56	67.0847	6726.56	53.6011	6726.56	70.9158	6726.56	66.3741	6726.56	63.6939	6726.56	70.7275	6726.56	67.557	6726.56	63.6825	6726.56	66.0908
6963.87	84.7915	6963.87	75.9153	6963.87	75.776	6963.87	84.8434	6963.87	79.9284	6963.87	80.9966	6963.87	80.5286	6963.87	67.981	6963.87	75.4742	6963.87	75.4784	6963.87	80.076	6963.87	70.215	6963.87	80.8405	6963.87	74.5371	6963.87	62.6843	6963.87	70.726	6963.87	73.6167	6963.87	75.6251	6963.87	69.7895	6963.87	62.2113	6963.87	59.6374	6963.87	72.6738	6963.87	62.073	6963.87	62.0646	6963.87	64.8816	6963.87	73.7129	6963.87	51.3556	6963.87	48.3954	6963.87	59.9373	6963.87	67.1503	6963.87	61.1793	6963.87	67.0538	6963.87	69.5852	6963.87	62.597	6963.87	65.1884	6963.87	62.7631
7209.96	85.5027	7209.96	74.9648	7209.96	74.2716	7209.96	84.6402	7209.96	80.4484	7209.96	78.8788	7209.96	81.5856	7209.96	70.2411	7209.96	73.717	7209.96	77.7567	7209.96	81.7866	7209.96	74.526	7209.96	77.1866	7209.96	69.1088	7209.96	71.2846	7209.96	78.8813	7209.96	76.3252	7209.96	74.3706	7209.96	65.8123	7209.96	64.2983	7209.96	61.3895	7209.96	71.6666	7209.96	60.4601	7209.96	50.9898	7209.96	57.2218	7209.96	72.6236	7209.96	56.2292	7209.96	62.9536	7209.96	53.5901	7209.96	56.0145	7209.96	64.3765	7209.96	61.6639	7209.96	65.8962	7209.96	59.3892	7209.96	61.5169	7209.96	67.3299
7464.84	85.9514	7464.84	73.133	7464.84	74.6986	7464.84	84.988	7464.84	81.0088	7464.84	76.7761	7464.84	81.5642	7464.84	72.3657	7464.84	72.3386	7464.84	76.6124	7464.84	80.9137	7464.84	76.666	7464.84	70.2349	7464.84	64.1418	7464.84	71.3198	7464.84	78.2204	7464.84	74.5346	7464.84	65.258	7464.84	68.2943	7464.84	66.6064	7464.84	63.9356	7464.84	57.422	7464.84	62.6655	7464.84	68.8603	7464.84	61.7688	7464.84	71.1586	7464.84	59.7996	7464.84	65.7898	7464.84	52.6356	7464.84	61.9743	7464.84	67.7744	7464.84	48.7065	7464.84	63.3623	7464.84	61.7391	7464.84	59.6293	7464.84	68.4848
7727.05	85.2799	7727.05	73.9893	7727.05	77.0799	7727.05	85.0936	7727.05	80.6821	7727.05	77.0095	7727.05	83.0845	7727.05	71.9474	7727.05	72.9835	7727.05	78.1511	7727.05	81.8873	7727.05	75.5545	7727.05	61.2698	7727.05	69.9279	7727.05	75.2179	7727.05	76.4405	7727.05	75.0167	7727.05	73.8446	7727.05	73.9877	7727.05	71.559	7727.05	64.8493	7727.05	66.7488	7727.05	65.6566	7727.05	70.2049	7727.05	56.9555	7727.05	69.1137	7727.05	55.9978	7727.05	61.751	7727.05	58.3329	7727.05	67.1423	7727.05	68.9003	7727.05	57.1012	7727.05	62.7528	7727.05	59.9575	7727.05	55.0318	7727.05	66.3529
7999.51	84.9118	7999.51	78.2028	7999.51	77.9934	7999.51	83.9171	7999.51	79.4845	7999.51	79.15	7999.51	83.1154	7999.51	74.6331	7999.51	77.9302	7999.51	79.6573	7999.51	80.9616	7999.51	74.1557	7999.51	72.2158	7999.51	69.3072	7999.51	74.2903	7999.51	75.6514	7999.51	69.8998	7999.51	68.8871	7999.51	64.7705	7999.51	65.1348	7999.51	63.6823	7999.51	64.7825	7999.51	68.2112	7999.51	65.4609	7999.51	63.1777	7999.51	70.851	7999.51	59.6409	7999.51	54.0027	7999.51	64.2373	7999.51	71.6484	7999.51	63.0231	7999.51	57.7384	7999.51	61.2421	7999.51	63.5207	7999.51	62.4747	7999.51	62.248
8282.23	84.3927	8282.23	78.6809	8282.23	77.2198	8282.23	83.8302	8282.23	79.7685	8282.23	77.648	8282.23	82.772	8282.23	76.6761	8282.23	79.3356	8282.23	77.8873	8282.23	77.9314	8282.23	71.7018	8282.23	73.5309	8282.23	60.5561	8282.23	70.2853	8282.23	76.2076	8282.23	66.699	8282.23	66.2471	8282.23	65.293	8282.23	63.1899	8282.23	68.2489	8282.23	66.6013	8282.23	69.3815	8282.23	58.6624	8282.23	65.4919	8282.23	68.5927	8282.23	54.7038	8282.23	58.1604	8282.23	63.1454	8282.23	68.6913	8282.23	55.3842	8282.23	67.4235	8282.23	60.6262	8282.23	55.7079	8282.23	63.2977	8282.23	67.1982
8573.73	84.0737	8573.73	77.7862	8573.73	78.5256	8573.73	83.3303	8573.73	80.5962	8573.73	75.2582	8573.73	80.1926	8573.73	76.7573	8573.73	79.9652	8573.73	76.6826	8573.73	74.7186	8573.73	71.8177	8573.73	75.1708	8573.73	70.1096	8573.73	67.4542	8573.73	75.2462	8573.73	70.7913	8573.73	68.5366	8573.73	65.0416	8573.73	67.7696	8573.73	70.3285	8573.73	69.758	8573.73	67.1115	8573.73	63.2555	8573.73	62.8642	8573.73	66.9707	8573.73	55.8029	8573.73	64.8419	8573.73	50.3929	8573.73	63.7902	8573.73	64.0254	8573.73	69.7233	8573.73	62.5987	8573.73	48.8914	8573.73	58.8548	8573.73	66.8393
8876.95	84.4341	8876.95	80.3684	8876.95	79.5281	8876.95	81.9598	8876.95	82.0017	8876.95	73.2122	8876.95	79.5296	8876.95	75.9719	8876.95	80.1502	8876.95	76.3409	8876.95	75.2832	8876.95	67.9208	8876.95	74.5938	8876.95	72.2407	8876.95	69.0156	8876.95	72.722	8876.95	71.5104	8876.95	70.5742	8876.95	64.335	8876.95	60.0707	8876.95	69.9576	8876.95	59.7101	8876.95	67.2666	8876.95	58.7973	8876.95	65.2872	8876.95	63.3019	8876.95	57.0623	8876.95	63.6348	8876.95	41.2515	8876.95	54.155	8876.95	67.5795	8876.95	68.901	8876.95	58.8887	8876.95	54.9097	8876.95	53.2463	8876.95	62.2502
9188.96	83.6513	9188.96	81.3432	9188.96	80.6006	9188.96	81.5611	9188.96	82.0498	9188.96	77.0125	9188.96	79.2663	9188.96	77.3697	9188.96	79.9329	9188.96	76.4401	9188.96	76.6719	9188.96	66.6065	9188.96	72.3924	9188.96	64.6508	9188.96	67.9467	9188.96	75.4472	9188.96	66.3865	9188.96	63.2726	9188.96	61.0157	9188.96	66.0454	9188.96	65.8043	9188.96	69.3551	9188.96	64.5268	9188.96	58.427	9188.96	60.0947	9188.96	65.4574	9188.96	43.5753	9188.96	67.907	9188.96	56.6751	9188.96	59.6419	9188.96	67.3818	9188.96	68.0562	9188.96	58.8985	9188.96	64.7902	9188.96	59.8703	9188.96	52.8564
9514.16	82.5388	9514.16	81.5999	9514.16	79.4241	9514.16	81.572	9514.16	82.7248	9514.16	78.5073	9514.16	80.7028	9514.16	76.9421	9514.16	79.5028	9514.16	74.2139	9514.16	77.8774	9514.16	68.5914	9514.16	68.9989	9514.16	70.6643	9514.16	68.187	9514.16	72.59	9514.16	67.7907	9514.16	72.463	9514.16	56.9187	9514.16	67.9293	9514.16	63.1875	9514.16	71.7679	9514.16	65.0492	9514.16	64.0315	9514.16	58.8148	9514.16	62.9813	9514.16	54.9183	9514.16	67.6262	9514.16	54.0725	9514.16	64.806	9514.16	65.571	9514.16	67.4386	9514.16	62.5934	9514.16	66.3268	9514.16	58.4028	9514.16	63.4494
9849.61	83.2411	9849.61	80.8112	9849.61	80.5025	9849.61	81.3699	9849.61	82.6558	9849.61	78.1554	9849.61	81.2343	9849.61	76.1848	9849.61	76.8501	9849.61	73.9264	9849.61	80.396	9849.61	66.7577	9849.61	62.4126	9849.61	72.0899	9849.61	74.0299	9849.61	69.6637	9849.61	69.0469	9849.61	72.9677	9849.61	50.9562	9849.61	59.8632	9849.61	60.9766	9849.61	63.0459	9849.61	57.9838	9849.61	60.2514	9849.61	51.7146	9849.61	48.6817	9849.61	56.3936	9849.61	61.4757	9849.61	50.2446	9849.61	64.3265	9849.61	60.551	9849.61	68.1977	9849.61	54.897	9849.61	60.5534	9849.61	58.142	9849.61	67.1352
10196.8	83.6047	10196.8	80.9411	10196.8	82.6597	10196.8	81.3304	10196.8	81.422	10196.8	79.5747	10196.8	81.4262	10196.8	76.061	10196.8	73.7181	10196.8	74.0379	10196.8	80.4089	10196.8	63.9438	10196.8	74.7113	10196.8	68.4383	10196.8	72.5307	10196.8	72.1817	10196.8	56.5311	10196.8	68.3607	10196.8	59.2337	10196.8	58.8464	10196.8	57.16	10196.8	65.5491	10196.8	54.9853	10196.8	63.1987	10196.8	44.9821	10196.8	58.6884	10196.8	55.1113	10196.8	65.1677	10196.8	55.9535	10196.8	64.409	10196.8	63.4515	10196.8	53.5754	10196.8	63.4623	10196.8	62.7107	10196.8	58.8635	10196.8	65.7849
10555.7	83.7539	10555.7	82.1087	10555.7	83.4011	10555.7	81.6038	10555.7	82.1316	10555.7	79.6881	10555.7	82.4229	10555.7	75.6985	10555.7	72.5739	10555.7	73.2472	10555.7	79.1521	10555.7	63.9805	10555.7	77.5976	10555.7	72.5125	10555.7	70.4786	10555.7	66.4635	10555.7	59.571	10555.7	71.5753	10555.7	55.1453	10555.7	54.334	10555.7	56.4476	10555.7	65.6863	10555.7	55.171	10555.7	65.6492	10555.7	56.5882	10555.7	58.6229	10555.7	57.4865	10555.7	65.6007	10555.7	57.8367	10555.7	62.1173	10555.7	65.5518	10555.7	32.1867	10555.7	64.1193	10555.7	60.7666	10555.7	63.945	10555.7	55.2233
10927.7	83.3778	10927.7	83.3048	10927.7	83.0573	10927.7	82.3126	10927.7	82.6644	10927.7	80.8758	10927.7	82.5406	10927.7	74.6236	10927.7	75.4965	10927.7	74.1195	10927.7	76.4291	10927.7	57.0467	10927.7	78.2156	10927.7	71.8573	10927.7	65.2361	10927.7	67.1834	10927.7	47.9852	10927.7	67.8296	10927.7	59.4873	10927.7	63.0185	10927.7	57.4813	10927.7	62.4728	10927.7	58.4686	10927.7	61.1061	10927.7	61.0571	10927.7	54.4618	10927.7	49.4613	10927.7	59.1744	10927.7	51.4226	10927.7	55.8409	10927.7	58.302	10927.7	56.7809	10927.7	61.7916	10927.7	64.5033	10927.7	65.1729	10927.7	59.5237
11313	83.8249	11313	82.6113	11313	82.722	11313	82.3634	11313	81.7417	11313	80.544	11313	82.0664	11313	75.5214	11313	78.8908	11313	69.8028	11313	68.8906	11313	67.0874	11313	76.9726	11313	68.7518	11313	67.3601	11313	66.4055	11313	67.9333	11313	69.5148	11313	64.7456	11313	66.4661	11313	64.9963	11313	67.2487	11313	61.7977	11313	53.8851	11313	60.981	11313	61.4549	11313	47.71	11313	60.4229	11313	55.6141	11313	58.7351	11313	51.5848	11313	63.4028	11313	46.6973	11313	58.3318	11313	61.4702	11313	64.8963
11712.9	84.6214	11712.9	82.6433	11712.9	84.2189	11712.9	81.9187	11712.9	80.2552	11712.9	80.1528	11712.9	81.0932	11712.9	72.8564	11712.9	80.4035	11712.9	70.4257	11712.9	72.6669	11712.9	64.9433	11712.9	73.4131	11712.9	71.5401	11712.9	74.7306	11712.9	60.8904	11712.9	71.1162	11712.9	69.2332	11712.9	65.7834	11712.9	53.6162	11712.9	65.8272	11712.9	60.9269	11712.9	64.4834	11712.9	59.016	11712.9	61.803	11712.9	56.505	11712.9	55.4864	11712.9	54.44	11712.9	60.0717	11712.9	57.0205	11712.9	58.8845	11712.9	56.6241	11712.9	49.5928	11712.9	47.325	11712.9	57.9838	11712.9	63.749
12126	84.4988	12126	83.6189	12126	84.6938	12126	82.5067	12126	81.537	12126	79.8017	12126	80.0679	12126	72.9387	12126	80.1624	12126	70.6019	12126	76.4865	12126	64.8829	12126	64.1801	12126	68.9402	12126	73.8837	12126	50.9057	12126	70.0685	12126	60.0076	12126	63.5366	12126	65.0762	12126	66.1301	12126	65.0964	12126	64.0304	12126	61.9886	12126	56.3753	12126	56.3451	12126	58.4249	12126	52.0932	12126	58.2753	12126	48.1472	12126	48.453	12126	48.449	12126	60.2475	12126	53.5277	12126	50.0193	12126	62.6088
12553.7	83.5277	12553.7	83.6596	12553.7	84.2143	12553.7	82.8393	12553.7	81.9865	12553.7	79.9355	12553.7	78.5531	12553.7	73.0556	12553.7	79.0502	12553.7	71.4483	12553.7	76.1403	12553.7	67.2607	12553.7	61.8353	12553.7	71.2165	12553.7	70.7445	12553.7	61.5826	12553.7	65.9067	12553.7	63.9404	12553.7	62.7783	12553.7	62.8288	12553.7	64.1655	12553.7	60.2018	12553.7	64.9245	12553.7	61.6544	12553.7	58.0396	12553.7	54.7941	12553.7	60.7705	12553.7	49.1251	12553.7	49.53	12553.7	43.6921	12553.7	49.8041	12553.7	56.3106	12553.7	58.9153	12553.7	51.0644	12553.7	51.6275	12553.7	60.1121
12996.1	83.5654	12996.1	83.1246	12996.1	83.8641	12996.1	82.2189	12996.1	81.8621	12996.1	78.9411	12996.1	77.9767	12996.1	72.8133	12996.1	76.9612	12996.1	70.9375	12996.1	74.5582	12996.1	67.5435	12996.1	65.7748	12996.1	66.6549	12996.1	62.8115	12996.1	58.265	12996.1	61.688	12996.1	57.0358	12996.1	59.1391	12996.1	67.0008	12996.1	60.4681	12996.1	53.6177	12996.1	62.2045	12996.1	60.6547	12996.1	57.3485	12996.1	47.6691	12996.1	59.4864	12996.1	51.6403	12996.1	52.8404	12996.1	39.7479	12996.1	51.2546	12996.1	58.0075	12996.1	50.367	12996.1	51.8027	12996.1	54.0416	12996.1	60.1375
13454.6	83.6966	13454.6	83.5049	13454.6	83.6943	13454.6	81.7337	13454.6	82.1741	13454.6	77.752	13454.6	78.0699	13454.6	72.2291	13454.6	73.4615	13454.6	70.6789	13454.6	69.6644	13454.6	67.1182	13454.6	69.0164	13454.6	64.1826	13454.6	51.2896	13454.6	62.1661	13454.6	60.1904	13454.6	43.258	13454.6	56.0104	13454.6	53.0187	13454.6	58.0234	13454.6	62.1185	13454.6	57.0601	13454.6	55.1972	13454.6	49.0546	13454.6	50.7173	13454.6	54.3438	13454.6	42.9761	13454.6	54.7342	13454.6	47.2468	13454.6	54.9931	13454.6	60.7492	13454.6	43.7188	13454.6	58.005	13454.6	41.0929	13454.6	58.6631
13929.2	83.3252	13929.2	83.6236	13929.2	83.4298	13929.2	82.5018	13929.2	80.8563	13929.2	78.2653	13929.2	77.3559	13929.2	72.4409	13929.2	74.0702	13929.2	70.0964	13929.2	69.4911	13929.2	64.141	13929.2	66.4201	13929.2	59.4551	13929.2	60.2103	13929.2	64.7875	13929.2	59.3543	13929.2	61.8028	13929.2	54.6523	13929.2	61.6779	13929.2	56.4104	13929.2	56.8852	13929.2	47.8097	13929.2	52.7834	13929.2	38.9921	13929.2	51.4753	13929.2	45.6873	13929.2	51.3559	13929.2	50.1719	13929.2	46.3422	13929.2	54.4275	13929.2	61.717	13929.2	44.4982	13929.2	59.4538	13929.2	50.4649	13929.2	56.2107
14419.9	83.5406	14419.9	83.0998	14419.9	82.6246	14419.9	81.5505	14419.9	80.948	14419.9	77.7702	14419.9	75.5833	14419.9	71.2679	14419.9	72.2772	14419.9	67.847	14419.9	67.6136	14419.9	62.1708	14419.9	63.7827	14419.9	56.4441	14419.9	62.3568	14419.9	62.6025	14419.9	59.0134	14419.9	55.0725	14419.9	55.7986	14419.9	59.8391	14419.9	59.2176	14419.9	54.7048	14419.9	54.7978	14419.9	47.4805	14419.9	43.8718	14419.9	51.1852	14419.9	48.5973	14419.9	52.6738	14419.9	41.1571	14419.9	56.6742	14419.9	57.6157	14419.9	58.3222	14419.9	47.0242	14419.9	56.8653	14419.9	45.5085	14419.9	61.0374
14928.2	83.6805	14928.2	83.6925	14928.2	82.2658	14928.2	80.5239	14928.2	80.4949	14928.2	74.9361	14928.2	77.6287	14928.2	68.7259	14928.2	71.7118	14928.2	66.0136	14928.2	67.2025	14928.2	63.7341	14928.2	62.1515	14928.2	50.3172	14928.2	60.2146	14928.2	62.6737	14928.2	56.0105	14928.2	61.4974	14928.2	51.5118	14928.2	61.5731	14928.2	57.3467	14928.2	56.5911	14928.2	54.9378	14928.2	56.209	14928.2	53.3403	14928.2	55.0248	14928.2	45.8746	14928.2	56.2931	14928.2	44.7111	14928.2	58.2385	14928.2	53.6704	14928.2	56.6541	14928.2	51.6054	14928.2	57.9625	14928.2	57.5889	14928.2	64.0188
15455.6	82.2591	15455.6	82.048	15455.6	81.7685	15455.6	80.5526	15455.6	79.397	15455.6	76.2122	15455.6	76.0298	15455.6	68.8828	15455.6	74.0283	15455.6	64.0665	15455.6	66.8983	15455.6	60.4964	15455.6	57.1226	15455.6	60.8285	15455.6	59.0523	15455.6	63.3138	15455.6	47.677	15455.6	61.765	15455.6	30.6052	15455.6	59.7332	15455.6	43.2283	15455.6	59.0061	15455.6	44.1971	15455.6	58.6987	15455.6	46.4702	15455.6	58.6461	15455.6	44.4425	15455.6	62.1808	15455.6	48.5468	15455.6	58.6102	15455.6	56.1132	15455.6	59.278	15455.6	55.6808	15455.6	57.9855	15455.6	57.8178	15455.6	57.111
16000.5	82.2466	16000.5	81.2155	16000.5	80.8369	16000.5	79.1782	16000.5	79.213	16000.5	74.443	16000.5	76.1951	16000.5	65.3622	16000.5	70.7166	16000.5	62.9063	16000.5	65.2877	16000.5	59.3238	16000.5	63.1077	16000.5	59.4219	16000.5	57.8393	16000.5	65.5915	16000.5	50.9995	16000.5	62.574	16000.5	47.5754	16000.5	58.527	16000.5	48.8992	16000.5	61.1262	16000.5	43.7569	16000.5	55.8962	16000.5	39.59	16000.5	53.4696	16000.5	43.6061	16000.5	58.8652	16000.5	47.9143	16000.5	54.8512	16000.5	48.6465	16000.5	55.1707	16000.5	37.8716	16000.5	60.1637	16000.5	53.7858	16000.5	58.534
16564.5	81.9489	16564.5	81.5744	16564.5	80.5248	16564.5	78.3529	16564.5	78.8152	16564.5	72.9957	16564.5	73.9712	16564.5	65.4233	16564.5	68.9429	16564.5	61.3853	16564.5	66.9498	16564.5	60.1219	16564.5	60.3906	16564.5	59.917	16564.5	57.2178	16564.5	63.0299	16564.5	46.0861	16564.5	63.5854	16564.5	46.0794	16564.5	54.3298	16564.5	47.4382	16564.5	61.8964	16564.5	45.7003	16564.5	43.8213	16564.5	45.375	16564.5	50.6272	16564.5	42.0113	16564.5	52.3224	16564.5	50.4555	16564.5	54.3892	16564.5	48.7685	16564.5	51.3176	16564.5	47.8425	16564.5	61.1425	16564.5	46.0205	16564.5	60.1152
17148.9	80.8924	17148.9	80.8493	17148.9	79.756	17148.9	78.6901	17148.9	75.6022	17148.9	72.9747	17148.9	74.2471	17148.9	59.7884	17148.9	68.7635	17148.9	58.3642	17148.9	64.528	17148.9	51.5756	17148.9	63.3028	17148.9	63.6144	17148.9	53.2314	17148.9	65.0325	17148.9	51.8754	17148.9	61.5549	17148.9	49.0524	17148.9	55.0162	17148.9	50.5397	17148.9	61.8609	17148.9	41.1516	17148.9	48.3983	17148.9	48.1392	17148.9	51.9225	17148.9	41.1716	17148.9	38.8799	17148.9	46.7609	17148.9	50.3702	17148.9	46.3073	17148.9	56.4246	17148.9	47.5176	17148.9	57.7896	17148.9	43.0753	17148.9	60.5827
17752.4	80.7565	17752.4	80.089	17752.4	78.6154	17752.4	76.922	17752.4	76.6216	17752.4	69.6259	17752.4	71.4918	17752.4	59.3995	17752.4	66.3308	17752.4	62.5085	17752.4	64.9186	17752.4	63.4829	17752.4	59.5785	17752.4	48.5466	17752.4	40.8955	17752.4	65.543	17752.4	53.6975	17752.4	63.035	17752.4	48.4242	17752.4	45.9616	17752.4	49.9194	17752.4	55.8284	17752.4	44.4603	17752.4	48.1528	17752.4	50.3062	17752.4	54.6035	17752.4	36.3606	17752.4	41.4369	17752.4	34.6283	17752.4	56.9911	17752.4	53.2314	17752.4	59.2433	17752.4	52.523	17752.4	55.2209	17752.4	54.0001	17752.4	52.8686
18379.4	79.623	18379.4	78.7841	18379.4	78.3883	18379.4	76.3829	18379.4	74.6508	18379.4	68.46	18379.4	69.4978	18379.4	55.2688	18379.4	68.0766	18379.4	59.8048	18379.4	62.0221	18379.4	58.6327	18379.4	62.4431	18379.4	59.087	18379.4	54.5759	18379.4	59.8987	18379.4	53.5876	18379.4	60.4919	18379.4	46.4377	18379.4	52.5395	18379.4	48.9177	18379.4	54.3001	18379.4	47.7668	18379.4	49.2369	18379.4	48.6693	18379.4	43.528	18379.4	9.57571	18379.4	48.8324	18379.4	47.076	18379.4	47.7704	18379.4	50.4016	18379.4	56.3221	18379.4	44.741	18379.4	55.7011	18379.4	49.4077	18379.4	48.5104
19026.9	78.8487	19026.9	77.6259	19026.9	77.3898	19026.9	74.3076	19026.9	74.4909	19026.9	64.3193	19026.9	69.5784	19026.9	59.6433	19026.9	66.1362	19026.9	61.1886	19026.9	61.9829	19026.9	58.1977	19026.9	56.2915	19026.9	58.3425	19026.9	53.8657	19026.9	61.4422	19026.9	51.0809	19026.9	58.4984	19026.9	47.2859	19026.9	50.8765	19026.9	42.3653	19026.9	41.6615	19026.9	29.2749	19026.9	38.0379	19026.9	36.4584	19026.9	43.5823	19026.9	31.4498	19026.9	52.4258	19026.9	37.6455	19026.9	46.4998	19026.9	40.2907	19026.9	51.1229	19026.9	47.667	19026.9	50.156	19026.9	49.6731	19026.9	45.3344
19697.8	77.0548	19697.8	76.371	19697.8	76.9765	19697.8	72.5574	19697.8	72.5671	19697.8	62.2973	19697.8	69.656	19697.8	58.3975	19697.8	64.6408	19697.8	58.1897	19697.8	63.0931	19697.8	57.3293	19697.8	56.2134	19697.8	51.7175	19697.8	50.9221	19697.8	59.5132	19697.8	43.3501	19697.8	54.274	19697.8	43.8916	19697.8	49.7466	19697.8	43.0162	19697.8	53.9613	19697.8	42.8921	19697.8	43.0792	19697.8	42.0236	19697.8	51.446	19697.8	31.4504	19697.8	52.641	19697.8	23.3761	19697.8	48.3716	19697.8	35.5312	19697.8	46.9771	19697.8	48.2009	19697.8	47.9104	19697.8	47.642	19697.8	47.7451
19999.5	76.3609	19999.5	74.8743	19999.5	75.9249	19999.5	72.0069	19999.5	71.9837	19999.5	61.3529	19999.5	69.6026	19999.5	59.526	19999.5	65.3578	19999.5	59.4912	19999.5	63.9998	19999.5	58.0777	19999.5	58.7218	19999.5	54.0176	19999.5	49.6957	19999.5	59.3221	19999.5	47.4478	19999.5	36.5678	19999.5	40.7383	19999.5	50.6219	19999.5	36.6703	19999.5	53.7984	19999.5	38.5754	19999.5	47.3094	19999.5	43.1842	19999.5	52.1323	19999.5	38.5444	19999.5	50.9729	19999.5	47.403	19999.5	45.0876	19999.5	42.839	19999.5	46.5862	19999.5	52.5217	19999.5	52.2739	19999.5	33.3108	19999.5	39.2631
