"SPL Horizontal"
"On-Axis"		"10°"		"-10°"		"20°"		"-20°"		"30°"		"-30°"		"40°"		"-40°"		"50°"		"-50°"		"60°"		"-60°"		"70°"		"-70°"		"80°"		"-80°"		"90°"		"-90°"		"100°"		"-100°"		"110°"		"-110°"		"120°"		"-120°"		"130°"		"-130°"		"140°"		"-140°"		"150°"		"-150°"		"160°"		"-160°"		"170°"		"-170°"		"180°"
"Frequency / Hz"	"Sound Pressure Level / dB (re 20 µPa/V)  [2.83V at 1m]"	"Frequency / Hz"	"Sound Pressure Level / dB (re 20 µPa/V)  [2.83V at 1m]"	"Frequency / Hz"	"Sound Pressure Level / dB (re 20 µPa/V)  [2.83V at 1m]"	"Frequency / Hz"	"Sound Pressure Level / dB (re 20 µPa/V)  [2.83V at 1m]"	"Frequency / Hz"	"Sound Pressure Level / dB (re 20 µPa/V)  [2.83V at 1m]"	"Frequency / Hz"	"Sound Pressure Level / dB (re 20 µPa/V)  [2.83V at 1m]"	"Frequency / Hz"	"Sound Pressure Level / dB (re 20 µPa/V)  [2.83V at 1m]"	"Frequency / Hz"	"Sound Pressure Level / dB (re 20 µPa/V)  [2.83V at 1m]"	"Frequency / Hz"	"Sound Pressure Level / dB (re 20 µPa/V)  [2.83V at 1m]"	"Frequency / Hz"	"Sound Pressure Level / dB (re 20 µPa/V)  [2.83V at 1m]"	"Frequency / Hz"	"Sound Pressure Level / dB (re 20 µPa/V)  [2.83V at 1m]"	"Frequency / Hz"	"Sound Pressure Level / dB (re 20 µPa/V)  [2.83V at 1m]"	"Frequency / Hz"	"Sound Pressure Level / dB (re 20 µPa/V)  [2.83V at 1m]"	"Frequency / Hz"	"Sound Pressure Level / dB (re 20 µPa/V)  [2.83V at 1m]"	"Frequency / Hz"	"Sound Pressure Level / dB (re 20 µPa/V)  [2.83V at 1m]"	"Frequency / Hz"	"Sound Pressure Level / dB (re 20 µPa/V)  [2.83V at 1m]"	"Frequency / Hz"	"Sound Pressure Level / dB (re 20 µPa/V)  [2.83V at 1m]"	"Frequency / Hz"	"Sound Pressure Level / dB (re 20 µPa/V)  [2.83V at 1m]"	"Frequency / Hz"	"Sound Pressure Level / dB (re 20 µPa/V)  [2.83V at 1m]"	"Frequency / Hz"	"Sound Pressure Level / dB (re 20 µPa/V)  [2.83V at 1m]"	"Frequency / Hz"	"Sound Pressure Level / dB (re 20 µPa/V)  [2.83V at 1m]"	"Frequency / Hz"	"Sound Pressure Level / dB (re 20 µPa/V)  [2.83V at 1m]"	"Frequency / Hz"	"Sound Pressure Level / dB (re 20 µPa/V)  [2.83V at 1m]"	"Frequency / Hz"	"Sound Pressure Level / dB (re 20 µPa/V)  [2.83V at 1m]"	"Frequency / Hz"	"Sound Pressure Level / dB (re 20 µPa/V)  [2.83V at 1m]"	"Frequency / Hz"	"Sound Pressure Level / dB (re 20 µPa/V)  [2.83V at 1m]"	"Frequency / Hz"	"Sound Pressure Level / dB (re 20 µPa/V)  [2.83V at 1m]"	"Frequency / Hz"	"Sound Pressure Level / dB (re 20 µPa/V)  [2.83V at 1m]"	"Frequency / Hz"	"Sound Pressure Level / dB (re 20 µPa/V)  [2.83V at 1m]"	"Frequency / Hz"	"Sound Pressure Level / dB (re 20 µPa/V)  [2.83V at 1m]"	"Frequency / Hz"	"Sound Pressure Level / dB (re 20 µPa/V)  [2.83V at 1m]"	"Frequency / Hz"	"Sound Pressure Level / dB (re 20 µPa/V)  [2.83V at 1m]"	"Frequency / Hz"	"Sound Pressure Level / dB (re 20 µPa/V)  [2.83V at 1m]"	"Frequency / Hz"	"Sound Pressure Level / dB (re 20 µPa/V)  [2.83V at 1m]"	"Frequency / Hz"	"Sound Pressure Level / dB (re 20 µPa/V)  [2.83V at 1m]"	"Frequency / Hz"	"Sound Pressure Level / dB (re 20 µPa/V)  [2.83V at 1m]"
20.5078	52.3424	20.5078	52.3751	20.5078	52.6179	20.5078	52.6764	20.5078	53.2219	20.5078	53.2177	20.5078	54.1214	20.5078	53.9809	20.5078	55.2328	20.5078	54.9384	20.5078	56.4569	20.5078	56.041	20.5078	57.7098	20.5078	57.2245	20.5078	58.9336	20.5078	58.4251	20.5078	60.0916	20.5078	59.5912	20.5078	61.1614	20.5078	60.6867	20.5078	62.1287	20.5078	61.6881	20.5078	62.9838	20.5078	62.5819	20.5078	63.7192	20.5078	63.3602	20.5078	64.3297	20.5078	64.019	20.5078	64.8115	20.5078	64.5566	20.5078	65.1623	20.5078	64.9717	20.5078	65.3816	20.5078	65.2634	20.5078	65.4703	20.5078	65.4302
21.9727	54.1236	21.9727	54.0664	21.9727	54.3065	21.9727	54.1398	21.9727	54.6532	21.9727	54.3959	21.9727	55.2139	21.9727	54.905	21.9727	56.0094	21.9727	55.7013	21.9727	57.0083	21.9727	56.7473	21.9727	58.1395	21.9727	57.9497	21.9727	59.3227	21.9727	59.2059	21.9727	60.4913	21.9727	60.4356	21.9727	61.5986	21.9727	61.5872	21.9727	62.6149	21.9727	62.6315	21.9727	63.5223	21.9727	63.5533	21.9727	64.3101	21.9727	64.3456	21.9727	64.9721	21.9727	65.0056	21.9727	65.5048	21.9727	65.5324	21.9727	65.9062	21.9727	65.9262	21.9727	66.1753	21.9727	66.1872	21.9727	66.3118	21.9727	66.3158
23.4375	55.9003	23.4375	55.9624	23.4375	56.0672	23.4375	56.2506	23.4375	56.4741	23.4375	56.7694	23.4375	57.1222	23.4375	57.5133	23.4375	57.9842	23.4375	58.4491	23.4375	59.0038	23.4375	59.5178	23.4375	60.1119	23.4375	60.6505	23.4375	61.2442	23.4375	61.7855	23.4375	62.3507	23.4375	62.8764	23.4375	63.3961	23.4375	63.8917	23.4375	64.3571	23.4375	64.8116	23.4375	65.2186	23.4375	65.6241	23.4375	65.9712	23.4375	66.322	23.4375	66.6091	23.4375	66.901	23.4375	67.1288	23.4375	67.3588	23.4375	67.5281	23.4375	67.6941	23.4375	67.8061	23.4375	67.9063	23.4375	67.9621	23.4375	67.9956
24.9023	57.5304	24.9023	57.6093	24.9023	57.6774	24.9023	57.9067	24.9023	58.0581	24.9023	58.4159	24.9023	58.6687	24.9023	59.1204	24.9023	59.4809	24.9023	59.9859	24.9023	60.4423	24.9023	60.9622	24.9023	61.4893	24.9023	61.9939	24.9023	62.5621	24.9023	63.0312	24.9023	63.6131	24.9023	64.035	24.9023	64.6081	24.9023	64.9773	24.9023	65.5239	24.9023	65.8391	24.9023	66.3454	24.9023	66.6077	24.9023	67.0627	24.9023	67.275	24.9023	67.6693	24.9023	67.8353	24.9023	68.161	24.9023	68.2846	24.9023	68.5352	24.9023	68.6203	24.9023	68.7904	24.9023	68.84	24.9023	68.9261	24.9023	68.9424
26.3672	61.5662	26.3672	61.6841	26.3672	61.5714	26.3672	61.9226	26.3672	61.7086	26.3672	62.2841	26.3672	61.9894	26.3672	62.7688	26.3672	62.4197	26.3672	63.3685	26.3672	62.9918	26.3672	64.0632	26.3672	63.6818	26.3672	64.8236	26.3672	64.4539	26.3672	65.616	26.3672	65.2681	26.3672	66.4075	26.3672	66.0869	26.3672	67.1696	26.3672	66.8788	26.3672	67.8791	26.3672	67.6194	26.3672	68.5179	26.3672	68.2903	26.3672	69.0723	26.3672	68.8783	26.3672	69.5326	26.3672	69.3738	26.3672	69.8915	26.3672	69.77	26.3672	70.1444	26.3672	70.0621	26.3672	70.2886	26.3672	70.2471	26.3672	70.3229
27.832	60.1592	27.832	60.2446	27.832	60.282	27.832	60.5293	27.832	60.6143	27.832	60.998	27.832	61.1451	27.832	61.627	27.832	61.8466	27.832	62.3827	27.832	62.6764	27.832	63.2251	27.832	63.5854	27.832	64.1127	27.832	64.526	27.832	65.0085	27.832	65.458	27.832	65.8818	27.832	66.3501	27.832	66.7092	27.832	67.1794	27.832	67.4734	27.832	67.9291	27.832	68.1618	27.832	68.5877	27.832	68.7651	27.832	69.1468	27.832	69.2765	27.832	69.6006	27.832	69.6907	27.832	69.9454	27.832	70.0034	27.832	70.1791	27.832	70.2111	27.832	70.3008	27.832	70.311
29.2969	63.5777	29.2969	63.6728	29.2969	63.6423	29.2969	63.9188	29.2969	63.8668	29.2969	64.3003	29.2969	64.242	29.2969	64.7964	29.2969	64.7494	29.2969	65.3825	29.2969	65.3624	29.2969	66.0319	29.2969	66.0499	29.2969	66.7183	29.2969	66.7796	29.2969	67.4172	29.2969	67.5214	29.2969	68.107	29.2969	68.249	29.2969	68.7692	29.2969	68.9404	29.2969	69.3884	29.2969	69.5781	29.2969	69.9522	29.2969	70.1481	29.2969	70.4503	29.2969	70.6398	29.2969	70.8745	29.2969	71.0449	29.2969	71.2182	29.2969	71.3579	29.2969	71.4759	29.2969	71.5751	29.2969	71.6433	29.2969	71.6949	29.2969	71.7172
30.7617	66.182	30.7617	66.2629	30.7617	66.2186	30.7617	66.4557	30.7617	66.3744	30.7617	66.7511	30.7617	66.6455	30.7617	67.1366	30.7617	67.0223	30.7617	67.5969	30.7617	67.4887	30.7617	68.1145	30.7617	68.0244	30.7617	68.6706	30.7617	68.6062	30.7617	69.2461	30.7617	69.2105	30.7617	69.8229	30.7617	69.8152	30.7617	70.3842	30.7617	70.4007	30.7617	70.9151	30.7617	70.9501	30.7617	71.4025	30.7617	71.4493	30.7617	71.8353	30.7617	71.8869	30.7617	72.2039	30.7617	72.2539	30.7617	72.5008	30.7617	72.5434	30.7617	72.7198	30.7617	72.7507	30.7617	72.8565	30.7617	72.8727	30.7617	72.9079
32.2266	67.8897	32.2266	67.9559	32.2266	67.9257	32.2266	68.1196	32.2266	68.0643	32.2266	68.3725	32.2266	68.3012	32.2266	68.7035	32.2266	68.6271	32.2266	69.0994	32.2266	69.0286	32.2266	69.5454	32.2266	69.4889	32.2266	70.0259	32.2266	69.9896	32.2266	70.5255	32.2266	70.512	32.2266	71.0291	32.2266	71.0381	32.2266	71.5223	32.2266	71.5515	32.2266	71.9923	32.2266	72.0372	32.2266	72.427	32.2266	72.4822	32.2266	72.8159	32.2266	72.8753	32.2266	73.1498	32.2266	73.2069	32.2266	73.4207	32.2266	73.4697	32.2266	73.6222	32.2266	73.658	32.2266	73.7494	32.2266	73.7682	32.2266	73.7986
33.6914	69.858	33.6914	69.9147	33.6914	69.8845	33.6914	70.0509	33.6914	69.9945	33.6914	70.2598	33.6914	70.1845	33.6914	70.5325	33.6914	70.4474	33.6914	70.8586	33.6914	70.773	33.6914	71.2264	33.6914	71.1489	33.6914	71.6242	33.6914	71.561	33.6914	72.0396	33.6914	71.995	33.6914	72.4608	33.6914	72.4364	33.6914	72.876	33.6914	72.8714	33.6914	73.2741	33.6914	73.2869	33.6914	73.6447	33.6914	73.6709	33.6914	73.9782	33.6914	74.0128	33.6914	74.2659	33.6914	74.3033	33.6914	74.5003	33.6914	74.5347	33.6914	74.6752	33.6914	74.7014	33.6914	74.7854	33.6914	74.7996	33.6914	74.8275
35.1562	71.6494	35.1562	71.6951	35.1562	71.6674	35.1562	71.8019	35.1562	71.7499	35.1562	71.9652	35.1562	71.8951	35.1562	72.179	35.1562	72.0989	35.1562	72.4364	35.1562	72.3547	35.1562	72.7294	35.1562	72.654	35.1562	73.0495	35.1562	72.9866	35.1562	73.3873	35.1562	73.3413	35.1562	73.7332	35.1562	73.7064	35.1562	74.0776	35.1562	74.0701	35.1562	74.4107	35.1562	74.4207	35.1562	74.723	35.1562	74.747	35.1562	75.0058	35.1562	75.0388	35.1562	75.2509	35.1562	75.2874	35.1562	75.4514	35.1562	75.4854	35.1562	75.6016	35.1562	75.6277	35.1562	75.6968	35.1562	75.711	35.1562	75.7339
36.6211	73.5491	36.6211	73.5814	36.6211	73.5537	36.6211	73.6492	36.6211	73.5962	36.6211	73.7506	36.6211	73.6771	36.6211	73.8834	36.6211	73.7959	36.6211	74.0447	36.6211	73.9511	36.6211	74.231	36.6211	74.1398	36.6211	74.4381	36.6211	74.3572	36.6211	74.6609	36.6211	74.5969	36.6211	74.8936	36.6211	74.8511	36.6211	75.1298	36.6211	75.1104	36.6211	75.3625	36.6211	75.3652	36.6211	75.5844	36.6211	75.6055	36.6211	75.7884	36.6211	75.8222	36.6211	75.9678	36.6211	76.0072	36.6211	76.1166	36.6211	76.1542	36.6211	76.2297	36.6211	76.2589	36.6211	76.3029	36.6211	76.3189	36.6211	76.3333
38.0859	74.3047	38.0859	74.3459	38.0859	74.3128	38.0859	74.4345	38.0859	74.3717	38.0859	74.5679	38.0859	74.4814	38.0859	74.7428	38.0859	74.6404	38.0859	74.9551	38.0859	74.8451	38.0859	75.1996	38.0859	75.0897	38.0859	75.4701	38.0859	75.3664	38.0859	75.7595	38.0859	75.6664	38.0859	76.06	38.0859	75.9798	38.0859	76.363	38.0859	76.2967	38.0859	76.6599	38.0859	76.6071	38.0859	76.9416	38.0859	76.9013	38.0859	77.1995	38.0859	77.17	38.0859	77.4248	38.0859	77.4043	38.0859	77.6097	38.0859	77.5964	38.0859	77.7471	38.0859	77.7393	38.0859	77.8314	38.0859	77.8279	38.0859	77.8589
39.5508	75.7577	39.5508	75.7994	39.5508	75.7592	39.5508	75.8821	39.5508	75.8045	39.5508	76.002	39.5508	75.8925	39.5508	76.1548	39.5508	76.0201	39.5508	76.3359	39.5508	76.1832	39.5508	76.5405	39.5508	76.3764	39.5508	76.7634	39.5508	76.5939	39.5508	76.9994	39.5508	76.8294	39.5508	77.2426	39.5508	77.0764	39.5508	77.4867	39.5508	77.3277	39.5508	77.7248	39.5508	77.5764	39.5508	77.9495	39.5508	77.8149	39.5508	78.1535	39.5508	78.0358	39.5508	78.3297	39.5508	78.2316	39.5508	78.4714	39.5508	78.3955	39.5508	78.5731	39.5508	78.5213	39.5508	78.6305	39.5508	78.6043	39.5508	78.6411
41.0156	76.855	41.0156	76.8725	41.0156	76.8736	41.0156	76.9259	41.0156	76.9273	41.0156	77.0135	41.0156	77.0143	41.0156	77.1326	41.0156	77.1314	41.0156	77.2794	41.0156	77.2749	41.0156	77.4493	41.0156	77.4408	41.0156	77.6372	41.0156	77.6243	41.0156	77.8376	41.0156	77.8205	41.0156	78.0449	41.0156	78.0244	41.0156	78.2532	41.0156	78.2304	41.0156	78.4565	41.0156	78.4327	41.0156	78.6488	41.0156	78.6255	41.0156	78.8242	41.0156	78.8025	41.0156	78.9767	41.0156	78.9579	41.0156	79.101	41.0156	79.0861	41.0156	79.1926	41.0156	79.1822	41.0156	79.2479	41.0156	79.2426	41.0156	79.2648
42.4805	78.0314	42.4805	78.0499	42.4805	78.0411	42.4805	78.0961	42.4805	78.0787	42.4805	78.1683	42.4805	78.1431	42.4805	78.2644	42.4805	78.2321	42.4805	78.3813	42.4805	78.3431	42.4805	78.5156	42.4805	78.4728	42.4805	78.6634	42.4805	78.6174	42.4805	78.8206	42.4805	78.7729	42.4805	78.9829	42.4805	78.935	42.4805	79.1458	42.4805	79.0993	42.4805	79.3046	42.4805	79.261	42.4805	79.4548	42.4805	79.4154	42.4805	79.5914	42.4805	79.5573	42.4805	79.7101	42.4805	79.682	42.4805	79.8065	42.4805	79.785	42.4805	79.8771	42.4805	79.8625	42.4805	79.9191	42.4805	79.9118	42.4805	79.9308
43.9453	78.9707	43.9453	78.9841	43.9453	78.98	43.9453	79.02	43.9453	79.0118	43.9453	79.0773	43.9453	79.065	43.9453	79.1544	43.9453	79.1378	43.9453	79.2489	43.9453	79.2282	43.9453	79.3583	43.9453	79.3337	43.9453	79.4793	43.9453	79.4512	43.9453	79.6087	43.9453	79.5779	43.9453	79.7429	43.9453	79.7103	43.9453	79.8784	43.9453	79.8451	43.9453	80.0113	43.9453	79.9786	43.9453	80.1376	43.9453	80.1068	43.9453	80.2533	43.9453	80.2256	43.9453	80.3543	43.9453	80.3308	43.9453	80.4368	43.9453	80.4184	43.9453	80.4974	43.9453	80.4848	43.9453	80.5336	43.9453	80.5272	43.9453	80.5437
45.4102	79.8159	45.4102	79.8255	45.4102	79.8257	45.4102	79.8545	45.4102	79.8545	45.4102	79.9018	45.4102	79.9009	45.4102	79.966	45.4102	79.9631	45.4102	80.0448	45.4102	80.039	45.4102	80.1356	45.4102	80.1263	45.4102	80.2357	45.4102	80.2225	45.4102	80.3421	45.4102	80.325	45.4102	80.4519	45.4102	80.4313	45.4102	80.5621	45.4102	80.5387	45.4102	80.6697	45.4102	80.6447	45.4102	80.7716	45.4102	80.7462	45.4102	80.8647	45.4102	80.8404	45.4102	80.9457	45.4102	80.924	45.4102	81.0117	45.4102	80.9939	45.4102	81.0599	45.4102	81.0473	45.4102	81.0883	45.4102	81.0818	45.4102	81.0957
46.875	80.5266	46.875	80.5383	46.875	80.5311	46.875	80.566	46.875	80.5516	46.875	80.6086	46.875	80.5872	46.875	80.6644	46.875	80.6366	46.875	80.7314	46.875	80.6978	46.875	80.8072	46.875	80.7689	46.875	80.8893	46.875	80.8475	46.875	80.9751	46.875	80.9315	46.875	81.0623	46.875	81.0183	46.875	81.1486	46.875	81.1059	46.875	81.2319	46.875	81.1918	46.875	81.3099	46.875	81.2737	46.875	81.3805	46.875	81.3493	46.875	81.4415	46.875	81.4161	46.875	81.491	46.875	81.4716	46.875	81.5269	46.875	81.5139	46.875	81.5478	46.875	81.5413	46.875	81.5527
48.3398	81.2704	48.3398	81.2786	48.3398	81.272	48.3398	81.2966	48.3398	81.283	48.3398	81.3239	48.3398	81.3029	48.3398	81.3595	48.3398	81.3307	48.3398	81.4022	48.3398	81.3654	48.3398	81.4505	48.3398	81.4057	48.3398	81.5028	48.3398	81.4503	48.3398	81.5572	48.3398	81.4979	48.3398	81.6122	48.3398	81.5475	48.3398	81.6661	48.3398	81.5979	48.3398	81.7176	48.3398	81.6482	48.3398	81.7651	48.3398	81.6972	48.3398	81.8073	48.3398	81.744	48.3398	81.8427	48.3398	81.7872	48.3398	81.8699	48.3398	81.8252	48.3398	81.8878	48.3398	81.8564	48.3398	81.8955	48.3398	81.8793	48.3398	81.8926
51.2695	81.8654	51.2695	81.8724	51.2695	81.8672	51.2695	81.8883	51.2695	81.8773	51.2695	81.9124	51.2695	81.8948	51.2695	81.9435	51.2695	81.9182	51.2695	81.9802	51.2695	81.9462	51.2695	82.0205	51.2695	81.9774	51.2695	82.0628	51.2695	82.0104	51.2695	82.1052	51.2695	82.0443	51.2695	82.1462	51.2695	82.0783	51.2695	82.1846	51.2695	82.1121	51.2695	82.2195	51.2695	82.1453	51.2695	82.2502	51.2695	82.1778	51.2695	82.2761	51.2695	82.2091	51.2695	82.2968	51.2695	82.2387	51.2695	82.3117	51.2695	82.2655	51.2695	82.3204	51.2695	82.2884	51.2695	82.3225	51.2695	82.3061	51.2695	82.3176
52.7344	82.089	52.7344	82.0974	52.7344	82.089	52.7344	82.1137	52.7344	82.0973	52.7344	82.1371	52.7344	82.1131	52.7344	82.166	52.7344	82.1354	52.7344	82.199	52.7344	82.1625	52.7344	82.2342	52.7344	82.1929	52.7344	82.2699	52.7344	82.2248	52.7344	82.3045	52.7344	82.2568	52.7344	82.3366	52.7344	82.2877	52.7344	82.3655	52.7344	82.3168	52.7344	82.3907	52.7344	82.3437	52.7344	82.412	52.7344	82.3684	52.7344	82.4294	52.7344	82.3907	52.7344	82.443	52.7344	82.4107	52.7344	82.4529	52.7344	82.4279	52.7344	82.459	52.7344	82.442	52.7344	82.461	52.7344	82.4524	52.7344	82.4588
54.1992	82.3314	54.1992	82.3388	54.1992	82.3289	54.1992	82.3508	54.1992	82.3314	54.1992	82.3665	54.1992	82.3384	54.1992	82.3848	54.1992	82.3492	54.1992	82.4044	54.1992	82.3626	54.1992	82.4239	54.1992	82.3773	54.1992	82.4418	54.1992	82.3921	54.1992	82.4569	54.1992	82.4058	54.1992	82.4685	54.1992	82.4174	54.1992	82.4762	54.1992	82.4266	54.1992	82.48	54.1992	82.4333	54.1992	82.4806	54.1992	82.4381	54.1992	82.4787	54.1992	82.4415	54.1992	82.475	54.1992	82.4443	54.1992	82.4705	54.1992	82.4469	54.1992	82.4658	54.1992	82.4498	54.1992	82.4611	54.1992	82.4531	54.1992	82.4569
55.6641	82.5687	55.6641	82.574	55.6641	82.564	55.6641	82.5798	55.6641	82.56	55.6641	82.5853	55.6641	82.5565	55.6641	82.5898	55.6641	82.5531	55.6641	82.5924	55.6641	82.5491	55.6641	82.592	55.6641	82.5438	55.6641	82.5878	55.6641	82.5362	55.6641	82.579	55.6641	82.5258	55.6641	82.5654	55.6641	82.5121	55.6641	82.5471	55.6641	82.4954	55.6641	82.5248	55.6641	82.4763	55.6641	82.5	55.6641	82.4559	55.6641	82.4741	55.6641	82.4356	55.6641	82.449	55.6641	82.4172	55.6641	82.4265	55.6641	82.4021	55.6641	82.4081	55.6641	82.3916	55.6641	82.3949	55.6641	82.3866	55.6641	82.3876
58.5938	82.7322	58.5938	82.7342	58.5938	82.7276	58.5938	82.7333	58.5938	82.7199	58.5938	82.7295	58.5938	82.709	58.5938	82.7221	58.5938	82.6944	58.5938	82.7106	58.5938	82.6757	58.5938	82.694	58.5938	82.6522	58.5938	82.6717	58.5938	82.6236	58.5938	82.6429	58.5938	82.5897	58.5938	82.6077	58.5938	82.5506	58.5938	82.5664	58.5938	82.5073	58.5938	82.5203	58.5938	82.461	58.5938	82.4712	58.5938	82.414	58.5938	82.4216	58.5938	82.3688	58.5938	82.3742	58.5938	82.3283	58.5938	82.332	58.5938	82.2952	58.5938	82.2976	58.5938	82.2719	58.5938	82.2733	58.5938	82.26	58.5938	82.2605
60.0586	82.7549	60.0586	82.7541	60.0586	82.7515	60.0586	82.7492	60.0586	82.7438	60.0586	82.7397	60.0586	82.7317	60.0586	82.7254	60.0586	82.7146	60.0586	82.7055	60.0586	82.6922	60.0586	82.6796	60.0586	82.664	60.0586	82.647	60.0586	82.6297	60.0586	82.6074	60.0586	82.5889	60.0586	82.5611	60.0586	82.542	60.0586	82.5088	60.0586	82.4899	60.0586	82.4522	60.0586	82.4341	60.0586	82.3936	60.0586	82.3768	60.0586	82.3358	60.0586	82.3209	60.0586	82.2821	60.0586	82.2697	60.0586	82.2359	60.0586	82.2263	60.0586	82.2001	60.0586	82.1936	60.0586	82.1769	60.0586	82.1737	60.0586	82.168
62.9883	82.9216	62.9883	82.9085	62.9883	82.9251	62.9883	82.8855	62.9883	82.9187	62.9883	82.8528	62.9883	82.9021	62.9883	82.8101	62.9883	82.875	62.9883	82.7573	62.9883	82.8367	62.9883	82.6945	62.9883	82.7867	62.9883	82.6217	62.9883	82.7244	62.9883	82.5396	62.9883	82.6498	62.9883	82.4493	62.9883	82.5637	62.9883	82.3528	62.9883	82.4674	62.9883	82.2529	62.9883	82.3638	62.9883	82.1534	62.9883	82.2565	62.9883	82.0588	62.9883	82.1505	62.9883	81.9741	62.9883	82.0512	62.9883	81.9043	62.9883	81.9642	62.9883	81.8539	62.9883	81.8948	62.9883	81.8264	62.9883	81.8471	62.9883	81.8239
64.4531	83.028	64.4531	83.0258	64.4531	83.018	64.4531	83.0111	64.4531	82.9961	64.4531	82.9835	64.4531	82.9624	64.4531	82.9425	64.4531	82.9167	64.4531	82.888	64.4531	82.8587	64.4531	82.8197	64.4531	82.7878	64.4531	82.7378	64.4531	82.7039	64.4531	82.6427	64.4531	82.607	64.4531	82.5357	64.4531	82.4982	64.4531	82.4189	64.4531	82.3795	64.4531	82.2953	64.4531	82.2543	64.4531	82.1692	64.4531	82.1274	64.4531	82.046	64.4531	82.0048	64.4531	81.9316	64.4531	81.8933	64.4531	81.8323	64.4531	81.7997	64.4531	81.754	64.4531	81.7302	64.4531	81.7019	64.4531	81.6893	64.4531	81.6798
67.3828	82.9469	67.3828	82.9501	67.3828	82.9322	67.3828	82.9419	67.3828	82.9062	67.3828	82.9221	67.3828	82.8687	67.3828	82.8901	67.3828	82.8195	67.3828	82.8454	67.3828	82.7583	67.3828	82.7873	67.3828	82.685	67.3828	82.7153	67.3828	82.5995	67.3828	82.6291	67.3828	82.5022	67.3828	82.5295	67.3828	82.3944	67.3828	82.4179	67.3828	82.2782	67.3828	82.2972	67.3828	82.157	67.3828	82.1714	67.3828	82.0358	67.3828	82.0459	67.3828	81.9202	67.3828	81.9269	67.3828	81.817	67.3828	81.8211	67.3828	81.7326	67.3828	81.7348	67.3828	81.6728	67.3828	81.6738	67.3828	81.6418	67.3828	81.6421
68.8477	82.9285	68.8477	82.9287	68.8477	82.9176	68.8477	82.9181	68.8477	82.8958	68.8477	82.8963	68.8477	82.863	68.8477	82.8628	68.8477	82.8187	68.8477	82.8171	68.8477	82.7627	68.8477	82.7583	68.8477	82.6943	68.8477	82.6859	68.8477	82.6134	68.8477	82.5996	68.8477	82.5199	68.8477	82.5001	68.8477	82.4149	68.8477	82.3887	68.8477	82.3001	68.8477	82.2685	68.8477	82.179	68.8477	82.1434	68.8477	82.0562	68.8477	82.019	68.8477	81.9377	68.8477	81.9016	68.8477	81.83	68.8477	81.7981	68.8477	81.7401	68.8477	81.7151	68.8477	81.6742	68.8477	81.6583	68.8477	81.6371	68.8477	81.6316
71.7773	82.919	71.7773	82.9158	71.7773	82.9097	71.7773	82.9002	71.7773	82.8881	71.7773	82.8719	71.7773	82.8541	71.7773	82.8306	71.7773	82.8076	71.7773	82.7759	71.7773	82.7483	71.7773	82.7075	71.7773	82.6758	71.7773	82.625	71.7773	82.59	71.7773	82.5285	71.7773	82.4908	71.7773	82.4189	71.7773	82.379	71.7773	82.2978	71.7773	82.2565	71.7773	82.1684	71.7773	82.1264	71.7773	82.035	71.7773	81.9936	71.7773	81.9033	71.7773	81.864	71.7773	81.7801	71.7773	81.7448	71.7773	81.6726	71.7773	81.6436	71.7773	81.588	71.7773	81.5672	71.7773	81.5321	71.7773	81.5212	71.7773	81.5092
74.707	82.9093	74.707	82.9069	74.707	82.8976	74.707	82.8903	74.707	82.8718	74.707	82.8594	74.707	82.832	74.707	82.814	74.707	82.7782	74.707	82.7539	74.707	82.7103	74.707	82.6789	74.707	82.6283	74.707	82.5888	74.707	82.5322	74.707	82.4837	74.707	82.4223	74.707	82.3645	74.707	82.2994	74.707	82.2331	74.707	82.1657	74.707	82.0926	74.707	82.0246	74.707	81.9475	74.707	81.8811	74.707	81.8041	74.707	81.7416	74.707	81.6694	74.707	81.6138	74.707	81.5512	74.707	81.5058	74.707	81.4573	74.707	81.425	74.707	81.3944	74.707	81.3776	74.707	81.3671
77.6367	82.9129	77.6367	82.909	77.6367	82.8995	77.6367	82.8876	77.6367	82.869	77.6367	82.8487	77.6367	82.8219	77.6367	82.7925	77.6367	82.7585	77.6367	82.7192	77.6367	82.6794	77.6367	82.6288	77.6367	82.5846	77.6367	82.5218	77.6367	82.4745	77.6367	82.3988	77.6367	82.3494	77.6367	82.261	77.6367	82.2106	77.6367	82.1107	77.6367	82.0601	77.6367	81.9515	77.6367	81.9016	77.6367	81.7885	77.6367	81.7404	77.6367	81.6283	77.6367	81.5834	77.6367	81.4788	77.6367	81.439	77.6367	81.3485	77.6367	81.3159	77.6367	81.246	77.6367	81.2228	77.6367	81.1785	77.6367	81.1664	77.6367	81.1513
79.1016	82.9455	79.1016	82.9397	79.1016	82.9324	79.1016	82.915	79.1016	82.9007	79.1016	82.8713	79.1016	82.8509	79.1016	82.8092	79.1016	82.7839	79.1016	82.7289	79.1016	82.7	79.1016	82.6308	79.1016	82.5998	79.1016	82.5156	79.1016	82.4837	79.1016	82.3841	79.1016	82.3522	79.1016	82.2377	79.1016	82.2066	79.1016	82.0789	79.1016	82.049	79.1016	81.9116	79.1016	81.8831	79.1016	81.7411	79.1016	81.7145	79.1016	81.5744	79.1016	81.5501	79.1016	81.4197	79.1016	81.3984	79.1016	81.2859	79.1016	81.2686	79.1016	81.1816	79.1016	81.1694	79.1016	81.1143	79.1016	81.1079	79.1016	81.0891
82.0312	82.9685	82.0312	82.963	82.0312	82.9528	82.0312	82.9363	82.0312	82.9164	82.0312	82.889	82.0312	82.8603	82.0312	82.8217	82.0312	82.7857	82.0312	82.7355	82.0312	82.6938	82.0312	82.6311	82.0312	82.5854	82.0312	82.5095	82.0312	82.4615	82.0312	82.3716	82.0312	82.3228	82.0312	82.2192	82.0312	82.1706	82.0312	82.0546	82.0312	82.0072	82.0312	81.8817	82.0312	81.8362	82.0312	81.7058	82.0312	81.663	82.0312	81.5338	82.0312	81.4948	82.0312	81.3739	82.0312	81.3401	82.0312	81.2354	82.0312	81.208	82.0312	81.1269	82.0312	81.1077	82.0312	81.0562	82.0312	81.0462	82.0312	81.0286
84.9609	82.9316	84.9609	82.9251	84.9609	82.9168	84.9609	82.8971	84.9609	82.8814	84.9609	82.8481	84.9609	82.8268	84.9609	82.7789	84.9609	82.7544	84.9609	82.6907	84.9609	82.6654	84.9609	82.5846	84.9609	82.561	84.9609	82.4618	84.9609	82.4417	84.9609	82.324	84.9609	82.3084	84.9609	82.1728	84.9609	82.1619	84.9609	82.0112	84.9609	82.0041	84.9609	81.8429	84.9609	81.8385	84.9609	81.6731	84.9609	81.67	84.9609	81.5086	84.9609	81.5057	84.9609	81.3571	84.9609	81.3538	84.9609	81.2269	84.9609	81.2234	84.9609	81.1262	84.9609	81.1232	84.9609	81.0621	84.9609	81.0604	84.9609	81.0396
87.8906	83.1733	87.8906	83.1796	87.8906	83.1429	87.8906	83.1612	87.8906	83.09	87.8906	83.1185	87.8906	83.0164	87.8906	83.0521	87.8906	82.9246	87.8906	82.9634	87.8906	82.8171	87.8906	82.8541	87.8906	82.6962	87.8906	82.7259	87.8906	82.5639	87.8906	82.581	87.8906	82.4219	87.8906	82.4221	87.8906	82.2718	87.8906	82.2527	87.8906	82.1158	87.8906	82.0771	87.8906	81.9568	87.8906	81.9012	87.8906	81.799	87.8906	81.7317	87.8906	81.648	87.8906	81.5762	87.8906	81.5105	87.8906	81.4427	87.8906	81.3943	87.8906	81.3387	87.8906	81.3068	87.8906	81.2704	87.8906	81.2545	87.8906	81.2419
90.8203	83.3894	90.8203	83.3839	90.8203	83.3644	90.8203	83.3481	90.8203	83.3097	90.8203	83.2828	90.8203	83.227	90.8203	83.1898	90.8203	83.1185	90.8203	83.0711	90.8203	82.9872	90.8203	82.9294	90.8203	82.8359	90.8203	82.7674	90.8203	82.6678	90.8203	82.5881	90.8203	82.4859	90.8203	82.3952	90.8203	82.2937	90.8203	82.1929	90.8203	82.095	90.8203	81.9864	90.8203	81.8947	90.8203	81.7822	90.8203	81.6988	90.8203	81.5875	90.8203	81.5145	90.8203	81.4106	90.8203	81.3496	90.8203	81.2598	90.8203	81.2125	90.8203	81.143	90.8203	81.1107	90.8203	81.0667	90.8203	81.0503	90.8203	81.0352
95.2148	83.4767	95.2148	83.472	95.2148	83.4472	95.2148	83.4333	95.2148	83.3847	95.2148	83.3614	95.2148	83.2912	95.2148	83.2578	95.2148	83.1696	95.2148	83.1249	95.2148	83.0231	95.2148	82.9652	95.2148	82.8554	95.2148	82.7817	95.2148	82.6701	95.2148	82.5778	95.2148	82.4705	95.2148	82.3578	95.2148	82.2602	95.2148	82.127	95.2148	82.0434	95.2148	81.8918	95.2148	81.8248	95.2148	81.66	95.2148	81.6105	95.2148	81.4408	95.2148	81.4076	95.2148	81.244	95.2148	81.2243	95.2148	81.079	95.2148	81.0694	95.2148	80.9547	95.2148	80.951	95.2148	80.8775	95.2148	80.8766	95.2148	80.8512
98.1445	83.4748	98.1445	83.4671	98.1445	83.4457	98.1445	83.423	98.1445	83.3805	98.1445	83.3436	98.1445	83.2812	98.1445	83.2313	98.1445	83.1508	98.1445	83.0889	98.1445	82.9929	98.1445	82.9194	98.1445	82.8117	98.1445	82.7264	98.1445	82.6113	98.1445	82.5139	98.1445	82.3961	98.1445	82.2863	98.1445	82.1707	98.1445	82.049	98.1445	81.9401	98.1445	81.8086	98.1445	81.7101	98.1445	81.5728	98.1445	81.4875	98.1445	81.3504	98.1445	81.28	98.1445	81.1507	98.1445	81.0958	98.1445	80.9829	98.1445	80.9431	98.1445	80.855	98.1445	80.8295	98.1445	80.7734	98.1445	80.7609	98.1445	80.7417
101.074	83.5653	101.074	83.5555	101.074	83.5349	101.074	83.5057	101.074	83.4655	101.074	83.4169	101.074	83.359	101.074	83.2913	101.074	83.2187	101.074	83.1314	101.074	83.0483	101.074	82.9406	101.074	82.852	101.074	82.7227	101.074	82.6342	101.074	82.4824	101.074	82.3996	101.074	82.225	101.074	82.1528	101.074	81.9572	101.074	81.8993	101.074	81.6869	101.074	81.6453	101.074	81.4236	101.074	81.3981	101.074	81.1773	101.074	81.1659	101.074	80.9588	101.074	80.9578	101.074	80.778	101.074	80.783	101.074	80.6435	101.074	80.65	101.074	80.5616	101.074	80.5658	101.074	80.5355
105.469	83.6641	105.469	83.6578	105.469	83.6282	105.469	83.6097	105.469	83.5509	105.469	83.5212	105.469	83.4342	105.469	83.3947	105.469	83.281	105.469	83.233	105.469	83.095	105.469	83.0394	105.469	82.8806	105.469	82.8176	105.469	82.6425	105.469	82.5717	105.469	82.386	105.469	82.3066	105.469	82.1169	105.469	82.0282	105.469	81.8419	105.469	81.7443	105.469	81.5686	105.469	81.4639	105.469	81.3056	105.469	81.1978	105.469	81.0623	105.469	80.9574	105.469	80.8484	105.469	80.754	105.469	80.673	105.469	80.5975	105.469	80.5445	105.469	80.4956	105.469	80.4695	105.469	80.4525
108.398	83.6228	108.398	83.6182	108.398	83.5845	108.398	83.5716	108.398	83.5038	108.398	83.4852	108.398	83.3826	108.398	83.3616	108.398	83.224	108.398	83.2045	108.398	83.032	108.398	83.0175	108.398	82.8114	108.398	82.8046	108.398	82.5676	108.398	82.5697	108.398	82.3064	108.398	82.3176	108.398	82.0345	108.398	82.0537	108.398	81.7594	108.398	81.7848	108.398	81.4894	108.398	81.5189	108.398	81.2341	108.398	81.2649	108.398	81.0031	108.398	81.0328	108.398	80.8062	108.398	80.8323	108.398	80.6517	108.398	80.672	108.398	80.5465	108.398	80.5594	108.398	80.495	108.398	80.4995
112.793	83.5652	112.793	83.5411	112.793	83.5444	112.793	83.4734	112.793	83.4787	112.793	83.3648	112.793	83.3699	112.793	83.2189	112.793	83.2214	112.793	83.0399	112.793	83.0376	112.793	82.8326	112.793	82.8239	112.793	82.602	112.793	82.5861	112.793	82.3534	112.793	82.3303	112.793	82.093	112.793	82.063	112.793	81.8276	112.793	81.7914	112.793	81.5648	112.793	81.5235	112.793	81.3129	112.793	81.268	112.793	81.0807	112.793	81.0344	112.793	80.8764	112.793	80.8321	112.793	80.7075	112.793	80.669	112.793	80.5799	112.793	80.5513	112.793	80.4981	112.793	80.4828	112.793	80.4652
117.188	83.5822	117.188	83.5229	117.188	83.5916	117.188	83.4144	117.188	83.5528	117.188	83.259	117.188	83.4688	117.188	83.0609	117.188	83.3444	117.188	82.8259	117.188	83.1853	117.188	82.5612	117.188	82.9973	117.188	82.2749	117.188	82.7863	117.188	81.9762	117.188	82.5575	117.188	81.675	117.188	82.3155	117.188	81.3821	117.188	82.0649	117.188	81.1086	117.188	81.8102	117.188	80.8653	117.188	81.5568	117.188	80.6625	117.188	81.3108	117.188	80.5081	117.188	81.0792	117.188	80.4075	117.188	80.8689	117.188	80.3625	117.188	80.6868	117.188	80.3721	117.188	80.5394	117.188	80.4326
120.117	84.0487	120.117	84.0345	120.117	84.0067	120.117	83.9635	120.117	83.9115	120.117	83.8373	120.117	83.7685	120.117	83.6595	120.117	83.5847	120.117	83.436	120.117	83.3689	120.117	83.174	120.117	83.1306	120.117	82.8826	120.117	82.8796	120.117	82.5719	120.117	82.6249	120.117	82.2534	120.117	82.3741	120.117	81.9393	120.117	82.1328	120.117	81.6426	120.117	81.9048	120.117	81.3759	120.117	81.6922	120.117	81.1506	120.117	81.4962	120.117	80.9758	120.117	81.3175	120.117	80.857	120.117	81.1577	120.117	80.7952	120.117	81.0195	120.117	80.7875	120.117	80.9073	120.117	80.8274
124.512	84.2892	124.512	84.2658	124.512	84.252	124.512	84.1827	124.512	84.1555	124.512	84.0427	124.512	84.0038	124.512	83.8507	124.512	83.8029	124.512	83.6133	124.512	83.5618	124.512	83.3387	124.512	83.2911	124.512	83.037	124.512	83.003	124.512	82.7201	124.512	82.7102	124.512	82.4009	124.512	82.4253	124.512	82.0936	124.512	82.1591	124.512	81.812	124.512	81.92	124.512	81.5682	124.512	81.713	124.512	81.3711	124.512	81.5396	124.512	81.2248	124.512	81.3983	124.512	81.1289	124.512	81.2853	124.512	81.0786	124.512	81.1969	124.512	81.0667	124.512	81.1304	124.512	81.086
128.906	84.3977	128.906	84.365	128.906	84.3633	128.906	84.2666	128.906	84.2625	128.906	84.106	128.906	84.0983	128.906	83.8885	128.906	83.8765	128.906	83.621	128.906	83.6054	128.906	83.3127	128.906	83.2966	128.906	82.9747	128.906	82.9639	128.906	82.6203	128.906	82.6235	128.906	82.2652	128.906	82.2923	128.906	81.9262	128.906	81.9863	128.906	81.6204	128.906	81.7188	128.906	81.3624	128.906	81.4975	128.906	81.1622	128.906	81.3241	128.906	81.0233	128.906	81.1941	128.906	80.9417	128.906	81.0987	128.906	80.9078	128.906	81.0281	128.906	80.909	128.906	80.9743	128.906	80.9338
133.301	84.5407	133.301	84.5036	133.301	84.5069	133.301	84.3961	133.301	84.4031	133.301	84.2197	133.301	84.2315	133.301	83.9773	133.301	83.9956	133.301	83.6736	133.301	83.7011	133.301	83.3156	133.301	83.3562	133.301	82.9134	133.301	82.9719	133.301	82.4809	133.301	82.5627	133.301	82.0359	133.301	82.1463	133.301	81.6	133.301	81.7425	133.301	81.1962	133.301	81.3709	133.301	80.8466	133.301	81.048	133.301	80.5675	133.301	80.7835	133.301	80.3664	133.301	80.5786	133.301	80.2404	133.301	80.4269	133.301	80.1787	133.301	80.3177	133.301	80.1663	133.301	80.2406	133.301	80.1898
139.16	84.5678	139.16	84.5436	139.16	84.5206	139.16	84.4478	139.16	84.4035	139.16	84.2816	139.16	84.22	139.16	84.0479	139.16	83.9752	139.16	83.7511	139.16	83.6758	139.16	83.3977	139.16	83.3311	139.16	82.9972	139.16	82.952	139.16	82.5629	139.16	82.552	139.16	82.1125	139.16	82.1473	139.16	81.6682	139.16	81.7554	139.16	81.255	139.16	81.3946	139.16	80.8977	139.16	81.0808	139.16	80.6152	139.16	80.8243	139.16	80.4161	139.16	80.6274	139.16	80.2966	139.16	80.484	139.16	80.243	139.16	80.3828	139.16	80.2371	139.16	80.3117	139.16	80.2631
143.555	84.7092	143.555	84.6676	143.555	84.6758	143.555	84.5509	143.555	84.5686	143.555	84.3603	143.555	84.3903	143.555	84.0984	143.555	84.1456	143.555	83.7687	143.555	83.8415	143.555	83.3772	143.555	83.487	143.555	82.9327	143.555	83.0935	143.555	82.4481	143.555	82.6743	143.555	81.9414	143.555	82.2447	143.555	81.4366	143.555	81.8209	143.555	80.9624	143.555	81.4196	143.555	80.5485	143.555	81.0558	143.555	80.2201	143.555	80.7411	143.555	79.9911	143.555	80.4807	143.555	79.8603	143.555	80.2731	143.555	79.8135	143.555	80.111	143.555	79.8301	143.555	79.9856	143.555	79.8913
147.949	84.7114	147.949	84.6717	147.949	84.6712	147.949	84.5528	147.949	84.5519	147.949	84.3566	147.949	84.3563	147.949	84.0863	147.949	84.0901	147.949	83.7464	147.949	83.7623	147.949	83.3441	147.949	83.3863	147.949	82.8899	147.949	82.9801	147.949	82.3989	147.949	82.5652	147.949	81.8925	147.949	82.1649	147.949	81.3978	147.949	81.8001	147.949	80.9471	147.949	81.4855	147.949	80.5726	147.949	81.2266	147.949	80.2994	147.949	81.0193	147.949	80.1387	147.949	80.8517	147.949	80.0841	147.949	80.7089	147.949	80.1144	147.949	80.577	147.949	80.2016	147.949	80.4473	147.949	80.319
153.809	85.0652	153.809	85.0145	153.809	85.0367	153.809	84.8849	153.809	84.9289	153.809	84.6764	153.809	84.7415	153.809	84.3894	153.809	84.4753	153.809	84.0248	153.809	84.1326	153.809	83.5856	153.809	83.719	153.809	83.0778	153.809	83.245	153.809	82.5132	153.809	82.7279	153.809	81.9113	153.809	82.1934	153.809	81.3025	153.809	81.6743	153.809	80.7281	153.809	81.2066	153.809	80.2363	153.809	80.8203	153.809	79.871	153.809	80.5296	153.809	79.6564	153.809	80.327	153.809	79.5857	153.809	80.187	153.809	79.6249	153.809	80.077	153.809	79.7273	153.809	79.9694	153.809	79.8508
159.668	84.5881	159.668	84.5957	159.668	84.5098	159.668	84.5304	159.668	84.3631	159.668	84.3911	159.668	84.1511	159.668	84.1769	159.668	83.8766	159.668	83.888	159.668	83.5429	159.668	83.5257	159.668	83.154	159.668	83.0933	159.668	82.7163	159.668	82.5976	159.668	82.2397	159.668	82.0508	159.668	81.7399	159.668	81.4729	159.668	81.2385	159.668	80.8927	159.668	80.7624	159.668	80.348	159.668	80.3385	159.668	79.8796	159.668	79.9874	159.668	79.522	159.668	79.7168	159.668	79.291	159.668	79.519	159.668	79.1784	159.668	79.3767	159.668	79.1574	159.668	79.2719	159.668	79.1963
165.527	84.5179	165.527	84.5023	165.527	84.4608	165.527	84.4112	165.527	84.3337	165.527	84.2419	165.527	84.1397	165.527	83.9918	165.527	83.8827	165.527	83.6591	165.527	83.568	165.527	83.2444	165.527	83.2024	165.527	82.7512	165.527	82.795	165.527	82.1889	165.527	82.3575	165.527	81.5743	165.527	81.9039	165.527	80.9343	165.527	81.4511	165.527	80.3072	165.527	81.0168	165.527	79.7407	165.527	80.6171	165.527	79.2843	165.527	80.2627	165.527	78.9752	165.527	79.9563	165.527	78.8243	165.527	79.6919	165.527	78.8131	165.527	79.459	165.527	78.9045	165.527	79.2484	165.527	79.0591
171.387	84.7894	171.387	84.8494	171.387	84.6461	171.387	84.8246	171.387	84.421	171.387	84.7131	171.387	84.1156	171.387	84.5139	171.387	83.7332	171.387	84.2271	171.387	83.2807	171.387	83.856	171.387	82.7718	171.387	83.4079	171.387	82.2297	171.387	82.8959	171.387	81.6883	171.387	82.3403	171.387	81.1891	171.387	81.7694	171.387	80.7725	171.387	81.2184	171.387	80.4653	171.387	80.7267	171.387	80.2707	171.387	80.3307	171.387	80.1684	171.387	80.055	171.387	80.1236	171.387	79.9039	171.387	80.0999	171.387	79.8597	171.387	80.0697	171.387	79.8888	171.387	80.0197	171.387	79.9529
177.246	84.9053	177.246	84.9382	177.246	84.7918	177.246	84.8898	177.246	84.5976	177.246	84.7583	177.246	84.321	177.246	84.5416	177.246	83.9595	177.246	84.2374	177.246	83.5102	177.246	83.8448	177.246	82.9715	177.246	83.3659	177.246	82.3469	177.246	82.8085	177.246	81.6504	177.246	82.1897	177.246	80.9142	177.246	81.5396	177.246	80.1955	177.246	80.9031	177.246	79.5754	177.246	80.3368	177.246	79.1378	177.246	79.8948	177.246	78.9282	177.246	79.6084	177.246	78.924	177.246	79.4691	177.246	79.0476	177.246	79.4313	177.246	79.209	177.246	79.4321	177.246	79.3414	177.246	79.414
183.105	84.8283	183.105	84.8697	183.105	84.7167	183.105	84.8383	183.105	84.5373	183.105	84.7317	183.105	84.293	183.105	84.5471	183.105	83.9864	183.105	84.2818	183.105	83.62	183.105	83.9336	183.105	83.1972	183.105	83.5025	183.105	82.7234	183.105	82.9929	183.105	82.2093	183.105	82.416	183.105	81.6736	183.105	81.794	183.105	81.1445	183.105	81.1622	183.105	80.6581	183.105	80.5689	183.105	80.2502	183.105	80.0682	183.105	79.9452	183.105	79.7043	183.105	79.7453	183.105	79.4926	183.105	79.6294	183.105	79.4124	183.105	79.563	183.105	79.4184	183.105	79.5131	183.105	79.4626
188.965	85.2277	188.965	85.2508	188.965	85.1174	188.965	85.1878	188.965	84.9197	188.965	85.0403	188.965	84.6359	188.965	84.8098	188.965	84.2689	188.965	84.4976	188.965	83.8241	188.965	84.106	188.965	83.3096	188.965	83.6395	188.965	82.738	188.965	83.1068	188.965	82.1294	188.965	82.524	188.965	81.5153	188.965	81.9173	188.965	80.9404	188.965	81.3244	188.965	80.4586	188.965	80.7925	188.965	80.1174	188.965	80.3687	188.965	79.9344	188.965	80.0847	188.965	79.8859	188.965	79.9426	188.965	79.9171	188.965	79.9119	188.965	79.968	188.965	79.9424	188.965	79.995	188.965	79.9823
196.289	85.1566	196.289	85.1348	196.289	85.0876	196.289	85.0255	196.289	84.9242	196.289	84.8318	196.289	84.663	196.289	84.5558	196.289	84.3016	196.289	84.1985	196.289	83.8387	196.289	83.7616	196.289	83.2756	196.289	83.2487	196.289	82.6188	196.289	82.6685	196.289	81.885	196.289	82.0392	196.289	81.1089	196.289	81.3918	196.289	80.3506	196.289	80.7724	196.289	79.6955	196.289	80.2371	196.289	79.2329	196.289	79.8373	196.289	79.0118	196.289	79.5977	196.289	79.0079	196.289	79.5016	196.289	79.1381	196.289	79.4975	196.289	79.3065	196.289	79.52	196.289	79.4425	196.289	79.5128
203.613	85.1751	203.613	85.1347	203.613	85.118	203.613	84.9993	203.613	84.9624	203.613	84.7717	203.613	84.7089	203.613	84.4546	203.613	84.3606	203.613	84.0507	203.613	83.9238	203.613	83.5632	203.613	83.4093	203.613	82.9977	203.613	82.833	203.613	82.3656	203.613	82.2184	203.613	81.6894	203.613	81.5975	203.613	81.0084	203.613	81.012	203.613	80.3824	203.613	80.5101	203.613	79.8844	203.613	80.1372	203.613	79.5756	203.613	79.9185	203.613	79.4728	203.613	79.844	203.613	79.5342	203.613	79.8685	203.613	79.681	203.613	79.9281	203.613	79.8333	203.613	79.9633	203.613	79.935
210.938	85.8067	210.938	85.7799	210.938	85.7505	210.938	85.6716	210.938	85.6055	210.938	85.4788	210.938	85.3623	210.938	85.1953	210.938	85.0084	210.938	84.8121	210.938	84.5297	210.938	84.3198	210.938	83.9121	210.938	83.7107	210.938	83.1451	210.938	82.9815	210.938	82.228	210.938	82.1375	210.938	81.1819	210.938	81.1994	210.938	80.0685	210.938	80.2137	210.938	79.0102	210.938	79.2653	210.938	78.1827	210.938	78.4778	210.938	77.7329	210.938	77.9737	210.938	77.6627	210.938	77.7952	210.938	77.8234	210.938	77.8627	210.938	78.0316	210.938	78.0271	210.938	78.159	210.938	78.1525
218.262	85.6918	218.262	85.6915	218.262	85.6119	218.262	85.61	218.262	85.4508	218.262	85.4454	218.262	85.2067	218.262	85.1941	218.262	84.8763	218.262	84.8519	218.262	84.4563	218.262	84.4157	218.262	83.9436	218.262	83.8865	218.262	83.3385	218.262	83.2724	218.262	82.6478	218.262	82.5928	218.262	81.8906	218.262	81.8802	218.262	81.1065	218.262	81.1798	218.262	80.3599	218.262	80.5436	218.262	79.7331	218.262	80.0189	218.262	79.2961	218.262	79.6344	218.262	79.0683	218.262	79.39	218.262	79.0071	218.262	79.2572	218.262	79.0382	218.262	79.1911	218.262	79.0961	218.262	79.1469
225.586	85.5691	225.586	85.4746	225.586	85.5736	225.586	85.2949	225.586	85.4832	225.586	85.0336	225.586	85.2921	225.586	84.6926	225.586	84.9942	225.586	84.2727	225.586	84.5835	225.586	83.7747	225.586	84.0556	225.586	83.2028	225.586	83.4114	225.586	82.5702	225.586	82.6636	225.586	81.9053	225.586	81.8468	225.586	81.2574	225.586	81.0294	225.586	80.6947	225.586	80.318	225.586	80.2889	225.586	79.8324	225.586	80.0841	225.586	79.6429	225.586	80.0699	225.586	79.7187	225.586	80.184	225.586	79.9478	225.586	80.3404	225.586	80.2056	225.586	80.4603	225.586	80.4014	225.586	80.4889
232.91	86.0143	232.91	85.8953	232.91	86.0312	232.91	85.6762	232.91	85.9459	232.91	85.3592	232.91	85.7604	232.91	84.9449	232.91	85.4787	232.91	84.4305	232.91	85.1056	232.91	83.8086	232.91	84.6445	232.91	83.0686	232.91	84.0953	232.91	82.2016	232.91	83.454	232.91	81.2121	232.91	82.7165	232.91	80.1386	232.91	81.8886	232.91	79.0837	232.91	81.0059	232.91	78.2304	232.91	80.1557	232.91	77.7793	232.91	79.4758	232.91	77.7933	232.91	79.0891	232.91	78.1295	232.91	79.0009	232.91	78.5645	232.91	79.0828	232.91	78.9278	232.91	79.1674	232.91	79.1333
241.699	86.1518	241.699	86.0552	241.699	86.1495	241.699	85.8592	241.699	86.0478	241.699	85.562	241.699	85.8435	241.699	85.1603	241.699	85.529	241.699	84.6485	241.699	85.0901	241.699	84.0191	241.699	84.5047	241.699	83.2646	241.699	83.7445	241.699	82.3828	241.699	82.7815	241.699	81.3872	241.699	81.6029	241.699	80.3238	241.699	80.2464	241.699	79.2931	241.699	78.8657	241.699	78.4576	241.699	77.7896	241.699	77.9875	241.699	77.3769	241.699	77.9418	241.699	77.6293	241.699	78.2096	241.699	78.1852	241.699	78.5954	241.699	78.7046	241.699	78.9265	241.699	79.0213	241.699	79.0893
250.488	86.5001	250.488	86.3744	250.488	86.5115	250.488	86.1433	250.488	86.3997	250.488	85.8128	250.488	86.1574	250.488	85.3861	250.488	85.7832	250.488	84.8633	250.488	85.2848	250.488	84.242	250.488	84.6826	250.488	83.5182	250.488	84.0114	250.488	82.6873	250.488	83.3152	250.488	81.7463	250.488	82.6372	250.488	80.7034	250.488	82.005	250.488	79.5961	250.488	81.4234	250.488	78.5195	250.488	80.8803	250.488	77.6376	250.488	80.361	250.488	77.1253	250.488	79.8597	250.488	77.0386	250.488	79.3804	250.488	77.2686	250.488	78.9275	250.488	77.65	250.488	78.496	250.488	78.0717
259.277	87.2035	259.277	87.1417	259.277	87.184	259.277	86.9898	259.277	87.0839	259.277	86.7322	259.277	86.8956	259.277	86.349	259.277	86.604	259.277	85.8192	259.277	86.1885	259.277	85.1229	259.277	85.6243	259.277	84.2449	259.277	84.8847	259.277	83.178	259.277	83.9452	259.277	81.9287	259.277	82.7935	259.277	80.5305	259.277	81.4543	259.277	79.0707	259.277	80.0391	259.277	77.7348	259.277	78.8022	259.277	76.8134	259.277	78.074	259.277	76.5427	259.277	77.9625	259.277	76.8583	259.277	78.2139	259.277	77.452	259.277	78.4915	259.277	78.0341	259.277	78.5913	259.277	78.4376
268.066	86.9486	268.066	86.9186	268.066	86.8899	268.066	86.8	268.066	86.742	268.066	86.5925	268.066	86.5028	268.066	86.2943	268.066	86.1683	268.066	85.9008	268.066	85.7323	268.066	85.4041	268.066	85.1885	268.066	84.7945	268.066	84.5337	268.066	84.0649	268.066	83.7736	268.066	83.2195	268.066	82.9307	268.066	82.2888	268.066	82.0588	268.066	81.3485	268.066	81.2561	268.066	80.5288	268.066	80.6556	268.066	79.9831	268.066	80.3609	268.066	79.7982	268.066	80.3602	268.066	79.9234	268.066	80.5259	268.066	80.211	268.066	80.7035	268.066	80.5104	268.066	80.7839	268.066	80.7183
276.855	86.3642	276.855	86.2548	276.855	86.4063	276.855	86.0805	276.855	86.3724	276.855	85.8355	276.855	86.2486	276.855	85.5052	276.855	86.017	276.855	85.0664	276.855	85.6559	276.855	84.4897	276.855	85.1405	276.855	83.7432	276.855	84.4457	276.855	82.7961	276.855	83.552	276.855	81.6254	276.855	82.4605	276.855	80.2339	276.855	81.2262	276.855	78.7016	276.855	80.0126	276.855	77.299	276.855	79.1198	276.855	76.5452	276.855	78.8263	276.855	76.7898	276.855	79.0912	276.855	77.7053	276.855	79.5889	276.855	78.7314	276.855	80.0116	276.855	79.5478	276.855	80.1872	276.855	80.0403
287.109	85.5728	287.109	85.5383	287.109	85.5546	287.109	85.4509	287.109	85.4787	287.109	85.3029	287.109	85.3369	287.109	85.078	287.109	85.12	287.109	84.7515	287.109	84.8199	287.109	84.2925	287.109	84.4297	287.109	83.6662	287.109	83.9401	287.109	82.8362	287.109	83.3324	287.109	81.7667	287.109	82.5749	287.109	80.4304	287.109	81.6351	287.109	78.8333	287.109	80.5192	287.109	77.0867	287.109	79.34	287.109	75.5546	287.109	78.3647	287.109	74.8581	287.109	77.8785	287.109	75.2349	287.109	77.8691	287.109	76.1665	287.109	78.0215	287.109	77.0855	287.109	78.0282	287.109	77.7293
297.363	86.2033	297.363	86.283	297.363	86.0608	297.363	86.2895	297.363	85.8546	297.363	86.2053	297.363	85.5707	297.363	86.0103	297.363	85.1825	297.363	85.6864	297.363	84.6548	297.363	85.2215	297.363	83.9511	297.363	84.6107	297.363	83.0431	297.363	83.8537	297.363	81.923	297.363	82.9491	297.363	80.6194	297.363	81.8905	297.363	79.2179	297.363	80.6722	297.363	77.8838	297.363	79.3195	297.363	76.8581	297.363	77.9544	297.363	76.3583	297.363	76.859	297.363	76.3933	297.363	76.3568	297.363	76.7296	297.363	76.4621	297.363	77.0795	297.363	76.8413	297.363	77.2491	297.363	77.1597
307.617	86.1542	307.617	86.0989	307.617	86.1799	307.617	86.0171	307.617	86.1625	307.617	85.9015	307.617	86.0772	307.617	85.7336	307.617	85.8893	307.617	85.4852	307.617	85.5568	307.617	85.122	307.617	85.0364	307.617	84.6094	307.617	84.2902	307.617	83.9184	307.617	83.2953	307.617	83.0318	307.617	82.0588	307.617	81.9524	307.617	80.6508	307.617	80.7237	307.617	79.262	307.617	79.479	307.617	78.2367	307.617	78.4953	307.617	77.8979	307.617	78.1009	307.617	78.2071	307.617	78.3439	307.617	78.8068	307.617	78.9057	307.617	79.3629	307.617	79.4297	307.617	79.6909	307.617	79.7152
319.336	85.4322	319.336	85.4768	319.336	85.3536	319.336	85.4738	319.336	85.2555	319.336	85.4097	319.336	85.1485	319.336	85.2676	319.336	85.0284	319.336	85.0264	319.336	84.8687	319.336	84.6627	319.336	84.6192	319.336	84.1554	319.336	84.2142	319.336	83.4898	319.336	83.5835	319.336	82.6581	319.336	82.6646	319.336	81.6603	319.336	81.4208	319.336	80.5088	319.336	79.8857	319.336	79.2518	319.336	78.2667	319.336	78.0288	319.336	77.0556	319.336	77.1213	319.336	76.7421	319.336	76.8249	319.336	77.1584	319.336	77.1121	319.336	77.7187	319.336	77.6196	319.336	78.0374	319.336	77.9912
329.59	85.1027	329.59	85.0803	329.59	85.0932	329.59	85.0271	329.59	85.044	329.59	84.9352	329.59	84.94	329.59	84.7869	329.59	84.7592	329.59	84.5551	329.59	84.4738	329.59	84.2084	329.59	84.0528	329.59	83.7177	329.59	83.4659	329.59	83.0617	329.59	82.6864	329.59	82.2299	329.59	81.6984	329.59	81.2268	329.59	80.5149	329.59	80.0847	329.59	79.2251	329.59	78.8966	329.59	78.0718	329.59	77.8658	329.59	77.4344	329.59	77.2857	329.59	77.4996	329.59	77.317	329.59	77.9959	329.59	77.7814	329.59	78.505	329.59	78.332	329.59	78.7705	329.59	78.7049
341.309	85.5767	341.309	85.4194	341.309	85.6667	341.309	85.2064	341.309	85.6786	341.309	84.9459	341.309	85.6014	341.309	84.6363	341.309	85.4218	341.309	84.2628	341.309	85.1203	341.309	83.8016	341.309	84.6695	341.309	83.2306	341.309	84.0331	341.309	82.5451	341.309	83.1697	341.309	81.7746	341.309	82.0477	341.309	80.9926	341.309	80.6842	341.309	80.3061	341.309	79.2274	341.309	79.8182	341.309	78.0556	341.309	79.585	341.309	77.643	341.309	79.5982	341.309	78.0387	341.309	79.791	341.309	78.8071	341.309	80.0516	341.309	79.54	341.309	80.2507	341.309	80.0458	341.309	80.2742
353.027	84.5027	353.027	84.189	353.027	84.8305	353.027	83.8902	353.027	85.1621	353.027	83.6005	353.027	85.4716	353.027	83.301	353.027	85.7163	353.027	82.9507	353.027	85.8436	353.027	82.4829	353.027	85.7995	353.027	81.8087	353.027	85.5297	353.027	80.8209	353.027	84.9728	353.027	79.3938	353.027	84.0483	353.027	77.3943	353.027	82.6479	353.027	74.8132	353.027	80.6484	353.027	72.5552	353.027	78.0483	353.027	73.0428	353.027	75.6901	353.027	75.4951	353.027	75.7768	353.027	77.7526	353.027	77.6943	353.027	79.3529	353.027	79.3932	353.027	80.3131	353.027	80.3748	353.027	80.6608
366.211	84.767	366.211	84.7544	366.211	84.7166	366.211	84.6481	366.211	84.6415	366.211	84.432	366.211	84.5692	366.211	84.1028	366.211	84.497	366.211	83.6623	366.211	84.3871	366.211	83.1097	366.211	84.1787	366.211	82.4345	366.211	83.8074	366.211	81.6101	366.211	83.2198	366.211	80.5885	366.211	82.3815	366.211	79.3	366.211	81.2838	366.211	77.6691	366.211	79.9573	366.211	75.6915	366.211	78.5024	366.211	73.6952	366.211	77.1421	366.211	72.7081	366.211	76.2259	366.211	73.3793	366.211	75.9818	366.211	74.714	366.211	76.2032	366.211	75.7939	366.211	76.4431	366.211	76.3625
379.395	83.9922	379.395	83.8991	379.395	84.088	379.395	83.8016	379.395	84.2029	379.395	83.6949	379.395	84.3524	379.395	83.5626	379.395	84.5298	379.395	83.3703	379.395	84.6928	379.395	83.0723	379.395	84.7687	379.395	82.6213	379.395	84.671	379.395	81.9729	379.395	84.3118	379.395	81.0807	379.395	83.6095	379.395	79.8805	379.395	82.4945	379.395	78.267	379.395	80.9285	379.395	76.0813	379.395	78.9728	379.395	73.2311	379.395	76.999	379.395	70.6757	379.395	75.8843	379.395	71.3752	379.395	76.1015	379.395	73.9624	379.395	76.8448	379.395	75.9633	379.395	77.2749	379.395	77.0345
392.578	83.4272	392.578	83.1966	392.578	83.6337	392.578	82.9481	392.578	83.818	392.578	82.7015	392.578	83.978	392.578	82.4785	392.578	84.0981	392.578	82.2814	392.578	84.1511	392.578	82.0728	392.578	84.1038	392.578	81.7708	392.578	83.9143	392.578	81.2602	392.578	83.5216	392.578	80.4112	392.578	82.8384	392.578	79.0982	392.578	81.7686	392.578	77.2225	392.578	80.265	392.578	74.7944	392.578	78.459	392.578	72.2846	392.578	76.8626	392.578	71.2076	392.578	76.1851	392.578	72.2912	392.578	76.3833	392.578	74.0359	392.578	76.7546	392.578	75.4805	392.578	76.8225	392.578	76.4143
405.762	82.1428	405.762	81.7977	405.762	82.5169	405.762	81.5002	405.762	82.8728	405.762	81.2406	405.762	83.148	405.762	80.992	405.762	83.286	405.762	80.7187	405.762	83.253	405.762	80.3792	405.762	83.0395	405.762	79.9264	405.762	82.6481	405.762	79.3098	405.762	82.0698	405.762	78.4827	405.762	81.2715	405.762	77.4256	405.762	80.216	405.762	76.2069	405.762	78.9351	405.762	75.0974	405.762	77.6534	405.762	74.588	405.762	76.8369	405.762	74.9481	405.762	76.8051	405.762	75.8439	405.762	77.2845	405.762	76.7917	405.762	77.7886	405.762	77.5281	405.762	78.0411	405.762	77.9557
420.41	83.4153	420.41	83.2601	420.41	83.5434	420.41	83.0709	420.41	83.6377	420.41	82.8321	420.41	83.6736	420.41	82.5189	420.41	83.6106	420.41	82.095	420.41	83.4011	420.41	81.513	420.41	82.9989	420.41	80.7168	420.41	82.357	420.41	79.641	420.41	81.4202	420.41	78.2055	420.41	80.117	420.41	76.3168	420.41	78.3718	420.41	73.9471	420.41	76.1896	420.41	71.6009	420.41	73.9909	420.41	71.0907	420.41	73.0677	420.41	72.8139	420.41	73.9932	420.41	74.8141	420.41	75.4651	420.41	76.2698	420.41	76.6168	420.41	77.1246	420.41	77.2755	420.41	77.4452
435.059	81.4926	435.059	81.2935	435.059	81.7269	435.059	81.0899	435.059	82.0081	435.059	80.8433	435.059	82.2999	435.059	80.5268	435.059	82.5346	435.059	80.1185	435.059	82.6502	435.059	79.5933	435.059	82.6155	435.059	78.9174	435.059	82.421	435.059	78.0432	435.059	82.0474	435.059	76.8982	435.059	81.4355	435.059	75.3742	435.059	80.4931	435.059	73.3592	435.059	79.1544	435.059	71.0368	435.059	77.5136	435.059	69.9574	435.059	76.0655	435.059	71.6566	435.059	75.6222	435.059	74.14	435.059	76.2287	435.059	76.0466	435.059	77.0919	435.059	77.2184	435.059	77.6588	435.059	77.7293
451.172	80.6138	451.172	80.4638	451.172	80.8283	451.172	80.3409	451.172	81.1411	451.172	80.2247	451.172	81.5425	451.172	80.1004	451.172	81.9653	451.172	79.9371	451.172	82.3105	451.172	79.6784	451.172	82.4801	451.172	79.2501	451.172	82.386	451.172	78.5679	451.172	81.942	451.172	77.5287	451.172	81.0589	451.172	75.9728	451.172	79.6588	451.172	73.5963	451.172	77.7482	451.172	69.7394	451.172	75.6667	451.172	63.463	451.172	74.4523	451.172	65.2424	451.172	74.836	451.172	70.9188	451.172	75.9101	451.172	74.1511	451.172	76.7656	451.172	75.9733	451.172	77.1177	451.172	76.8872
465.82	80.3823	465.82	80.4774	465.82	80.3051	465.82	80.53	465.82	80.2901	465.82	80.5087	465.82	80.3322	465.82	80.4176	465.82	80.398	465.82	80.268	465.82	80.4684	465.82	80.0472	465.82	80.5352	465.82	79.7078	465.82	80.5516	465.82	79.1772	465.82	80.4024	465.82	78.3706	465.82	79.9304	465.82	77.1939	465.82	78.9933	465.82	75.5313	465.82	77.5282	465.82	73.2239	465.82	75.6844	465.82	70.1574	465.82	74.083	465.82	67.3272	465.82	73.6023	465.82	68.1719	465.82	74.0992	465.82	71.0026	465.82	74.6859	465.82	73.1515	465.82	74.8468	465.82	74.3826
483.398	80.4978	483.398	80.7266	483.398	80.1779	483.398	80.7935	483.398	79.9239	483.398	80.7375	483.398	79.8522	483.398	80.6503	483.398	79.9345	483.398	80.5927	483.398	80.0778	483.398	80.5381	483.398	80.2459	483.398	80.3818	483.398	80.4296	483.398	79.989	483.398	80.5317	483.398	79.2378	483.398	80.356	483.398	78.0447	483.398	79.7103	483.398	76.3714	483.398	78.506	483.398	74.2272	483.398	76.8566	483.398	71.809	483.398	75.2518	483.398	70.2025	483.398	74.4847	483.398	71.0068	483.398	74.7238	483.398	73.0109	483.398	75.3015	483.398	74.6146	483.398	75.6442	483.398	75.4698
499.512	78.7288	499.512	79.1549	499.512	78.0041	499.512	79.2644	499.512	77.2342	499.512	79.1875	499.512	76.9276	499.512	79.1159	499.512	77.4438	499.512	79.167	499.512	78.5189	499.512	79.2788	499.512	79.625	499.512	79.2671	499.512	80.3947	499.512	78.9465	499.512	80.6101	499.512	78.1672	499.512	80.1158	499.512	76.7662	499.512	78.8191	499.512	74.4815	499.512	76.9112	499.512	71.0068	499.512	75.6055	499.512	68.3771	499.512	76.4436	499.512	71.7287	499.512	78.2651	499.512	75.6004	499.512	79.7348	499.512	78.1787	499.512	80.5964	499.512	79.7678	499.512	80.8847	499.512	80.6241
517.09	83.67	517.09	83.9142	517.09	82.9574	517.09	83.6331	517.09	81.8892	517.09	82.8307	517.09	80.6063	517.09	81.5766	517.09	79.2532	517.09	80.0191	517.09	78.0814	517.09	78.3935	517.09	77.6152	517.09	76.9801	517.09	78.1626	517.09	75.9684	517.09	79.1521	517.09	75.3097	517.09	79.8311	517.09	74.7057	517.09	79.8004	517.09	73.6728	517.09	78.8703	517.09	71.4641	517.09	76.9131	517.09	66.29	517.09	74.0033	517.09	50.9375	517.09	71.625	517.09	68.1172	517.09	72.4905	517.09	73.2961	517.09	74.5661	517.09	75.5995	517.09	75.9441	517.09	76.3408
536.133	83.1796	536.133	83.5946	536.133	82.2777	536.133	83.5705	536.133	80.9032	536.133	83.2063	536.133	79.1481	536.133	82.6433	536.133	77.2239	536.133	82.039	536.133	75.6073	536.133	81.5063	536.133	75.0932	536.133	81.039	536.133	75.8207	536.133	80.4993	536.133	76.8442	536.133	79.7024	536.133	77.4054	536.133	78.5189	536.133	77.2765	536.133	76.8869	536.133	76.5303	536.133	74.6348	536.133	75.5009	536.133	71.002	536.133	74.8653	536.133	62.5326	536.133	75.1881	536.133	61.4472	536.133	76.1307	536.133	71.2233	536.133	76.9861	536.133	75.0413	536.133	77.3048	536.133	76.7849
555.176	83.4232	555.176	83.5052	555.176	82.8996	555.176	83.2461	555.176	81.8936	555.176	82.7939	555.176	80.4129	555.176	82.3054	555.176	78.4608	555.176	81.8837	555.176	75.9574	555.176	81.5259	555.176	72.8927	555.176	81.1291	555.176	70.7571	555.176	80.541	555.176	72.0884	555.176	79.613	555.176	74.2726	555.176	78.2357	555.176	75.5308	555.176	76.3556	555.176	75.9389	555.176	73.9204	555.176	75.9682	555.176	70.653	555.176	76.085	555.176	66.019	555.176	76.4396	555.176	65.1219	555.176	76.8552	555.176	70.3356	555.176	77.0698	555.176	73.9043	555.176	76.8378	555.176	75.8969
574.219	83.6555	574.219	83.5766	574.219	83.3197	574.219	83.1212	574.219	82.5721	574.219	82.3897	574.219	81.4219	574.219	81.545	574.219	79.8343	574.219	80.7647	574.219	77.6925	574.219	80.1388	574.219	74.8743	574.219	79.6142	574.219	71.8663	574.219	79.0698	574.219	70.9233	574.219	78.4296	574.219	72.0689	574.219	77.6764	574.219	72.7233	574.219	76.7254	574.219	72.1842	574.219	75.2525	574.219	71.162	574.219	72.5642	574.219	71.6061	574.219	67.1778	574.219	73.5329	574.219	62.2907	574.219	75.2482	574.219	69.8902	574.219	76.216	574.219	73.8784	574.219	76.4148	574.219	75.7528
594.727	83.665	594.727	83.4268	594.727	83.416	594.727	82.7877	594.727	82.6499	594.727	81.8982	594.727	81.3889	594.727	80.9716	594.727	79.7018	594.727	80.2362	594.727	77.6851	594.727	79.8191	594.727	75.4441	594.727	79.6425	594.727	73.1213	594.727	79.4679	594.727	70.981	594.727	79.0438	594.727	69.3934	594.727	78.2121	594.727	68.6348	594.727	76.914	594.727	68.7996	594.727	75.0572	594.727	69.92	594.727	72.179	594.727	71.8556	594.727	66.7218	594.727	74.0521	594.727	61.2313	594.727	75.9086	594.727	70.0694	594.727	77.087	594.727	74.5266	594.727	77.4049	594.727	76.6702
615.234	81.9791	615.234	81.511	615.234	82.0771	615.234	80.7417	615.234	81.7628	615.234	79.7927	615.234	80.9872	615.234	78.8545	615.234	79.6433	615.234	78.1429	615.234	77.5284	615.234	77.7659	615.234	74.4911	615.234	77.6474	615.234	71.753	615.234	77.6213	615.234	72.3622	615.234	77.5519	615.234	73.7476	615.234	77.3651	615.234	73.4307	615.234	76.9844	615.234	70.8847	615.234	76.2067	615.234	66.7165	615.234	74.597	615.234	68.0455	615.234	71.3829	615.234	71.9432	615.234	65.7468	615.234	74.3076	615.234	67.0592	615.234	75.4779	615.234	72.1487	615.234	75.6589	615.234	74.7137
637.207	83.1498	637.207	82.5597	637.207	83.2716	637.207	81.5108	637.207	82.9274	637.207	80.0551	637.207	82.0962	637.207	78.3012	637.207	80.6961	637.207	76.4095	637.207	78.5404	637.207	74.6086	637.207	75.269	637.207	73.2138	637.207	70.3456	637.207	72.4332	637.207	65.8928	637.207	72.1593	637.207	68.267	637.207	72.2122	637.207	70.1431	637.207	72.4163	637.207	69.8275	637.207	72.3218	637.207	68.0866	637.207	71.2161	637.207	68.1831	637.207	68.2549	637.207	71.3326	637.207	64.4957	637.207	74.0576	637.207	68.5387	637.207	75.5696	637.207	72.8536	637.207	75.9356	637.207	75.1239
659.18	82.9358	659.18	82.4441	659.18	83.0757	659.18	81.6938	659.18	82.8296	659.18	80.7844	659.18	82.2108	659.18	79.7668	659.18	81.1955	659.18	78.6457	659.18	79.6127	659.18	77.4162	659.18	77.072	659.18	76.0922	659.18	72.9193	659.18	74.7397	659.18	67.3713	659.18	73.496	659.18	68.3204	659.18	72.5473	659.18	70.919	659.18	72.092	659.18	70.8965	659.18	72.0685	659.18	68.3398	659.18	71.8173	659.18	65.1903	659.18	70.4725	659.18	68.2644	659.18	67.9127	659.18	71.801	659.18	67.7982	659.18	73.637	659.18	71.0284	659.18	74.1174	659.18	73.3078
682.617	83.9971	682.617	83.5628	682.617	84.1428	682.617	82.8665	682.617	83.9588	682.617	81.9208	682.617	83.3986	682.617	80.7549	682.617	82.3963	682.617	79.4728	682.617	80.8111	682.617	78.3048	682.617	78.3361	682.617	77.5035	682.617	74.3513	682.617	77.0189	682.617	67.5855	682.617	76.4192	682.617	62.6381	682.617	75.2351	682.617	67.081	682.617	73.2704	682.617	68.0653	682.617	70.8465	682.617	65.9202	682.617	68.4998	682.617	62.3546	682.617	65.5951	682.617	67.7076	682.617	64.3886	682.617	72.7721	682.617	69.7266	682.617	75.4803	682.617	73.8661	682.617	76.4776	682.617	75.9775
707.52	83.3521	707.52	82.891	707.52	83.5673	707.52	82.222	707.52	83.5239	707.52	81.3815	707.52	83.2148	707.52	80.3953	707.52	82.5752	707.52	79.3079	707.52	81.4452	707.52	78.1774	707.52	79.5895	707.52	77.0442	707.52	76.7627	707.52	75.9513	707.52	72.9032	707.52	74.9136	707.52	68.8044	707.52	73.8294	707.52	66.5358	707.52	72.7395	707.52	66.1603	707.52	72.1223	707.52	66.1311	707.52	71.8433	707.52	67.126	707.52	70.6879	707.52	69.7388	707.52	67.6578	707.52	72.0511	707.52	64.9331	707.52	73.1679	707.52	68.3553	707.52	73.034	707.52	71.5478
732.422	83.8327	732.422	83.3666	732.422	83.973	732.422	82.69	732.422	83.6947	732.422	81.8189	732.422	83.011	732.422	80.68	732.422	81.9973	732.422	79.2542	732.422	80.6422	732.422	77.6454	732.422	78.7362	732.422	75.952	732.422	75.8946	732.422	74.0894	732.422	71.6624	732.422	71.8738	732.422	67.469	732.422	69.4473	732.422	69.0686	732.422	68.1838	732.422	71.0051	732.422	69.4589	732.422	70.4773	732.422	71.2101	732.422	66.8217	732.422	71.7501	732.422	60.2261	732.422	71.0497	732.422	65.9615	732.422	70.72	732.422	70.5112	732.422	71.9839	732.422	72.6059	732.422	73.0003
757.324	83.4455	757.324	83.0694	757.324	83.7783	757.324	82.566	757.324	83.9518	757.324	81.7169	757.324	83.7905	757.324	80.3871	757.324	83.1754	757.324	78.6955	757.324	82.0084	757.324	77.0193	757.324	80.0647	757.324	75.6806	757.324	76.7996	757.324	74.6679	757.324	71.3697	757.324	73.881	757.324	68.3582	757.324	73.211	757.324	71.5865	757.324	72.2966	757.324	72.3719	757.324	70.8281	757.324	70.5882	757.324	69.1072	757.324	66.5416	757.324	67.23	757.324	65.5536	757.324	63.6872	757.324	70.4697	757.324	63.0848	757.324	73.455	757.324	69.4563	757.324	74.2664	757.324	73.0585
785.156	83.7976	785.156	83.6436	785.156	83.8285	785.156	83.2709	785.156	83.7623	785.156	82.4973	785.156	83.5542	785.156	81.1116	785.156	83.0614	785.156	78.9788	785.156	82.0599	785.156	76.1338	785.156	80.2577	785.156	73.0302	785.156	77.1895	785.156	71.0683	785.156	71.789	785.156	71.022	785.156	62.9457	785.156	70.8177	785.156	68.1407	785.156	68.696	785.156	71.146	785.156	67.5442	785.156	70.5835	785.156	71.4657	785.156	68.0091	785.156	74.0252	785.156	68.8889	785.156	74.7185	785.156	72.2838	785.156	74.8138	785.156	74.3253	785.156	75.245	785.156	75.3192	785.156	75.5954
811.523	83.1876	811.523	83.2732	811.523	83.0483	811.523	83.0973	811.523	82.8409	811.523	82.351	811.523	82.4806	811.523	80.8511	811.523	81.9351	811.523	78.628	811.523	81.1356	811.523	75.7824	811.523	79.8623	811.523	72.3059	811.523	77.7156	811.523	69.7749	811.523	73.8911	811.523	71.0512	811.523	65.4212	811.523	72.3133	811.523	63.6342	811.523	71.2454	811.523	71.6209	811.523	66.5354	811.523	73.4339	811.523	60.1041	811.523	72.1096	811.523	67.1799	811.523	68.9831	811.523	69.5684	811.523	69.0771	811.523	69.9613	811.523	71.9734	811.523	71.5622	811.523	73.5795	811.523	73.3607
840.82	82.6154	840.82	82.8029	840.82	82.2932	840.82	82.5779	840.82	82.0486	840.82	81.804	840.82	81.8076	840.82	80.5496	840.82	81.3243	840.82	78.9994	840.82	80.489	840.82	77.1555	840.82	79.3719	840.82	74.7113	840.82	77.8868	840.82	71.6633	840.82	75.4564	840.82	69.7175	840.82	70.8872	840.82	70.2298	840.82	62.7251	840.82	70.568	840.82	66.6517	840.82	68.4997	840.82	69.8867	840.82	64.2316	840.82	69.7136	840.82	68.7393	840.82	70.1829	840.82	72.7499	840.82	73.3325	840.82	74.4468	840.82	75.8428	840.82	75.5414	840.82	76.8753	840.82	76.5879
870.117	81.816	870.117	81.7442	870.117	81.564	870.117	81.3712	870.117	81.0383	870.117	80.7354	870.117	80.4522	870.117	79.9168	870.117	79.9593	870.117	79.0015	870.117	79.2446	870.117	77.9022	870.117	77.721	870.117	76.2351	870.117	75.0689	870.117	73.356	870.117	71.9938	870.117	68.0147	870.117	70.6013	870.117	59.5201	870.117	70.5584	870.117	66.1605	870.117	70.0647	870.117	68.8381	870.117	68.4256	870.117	66.7707	870.117	64.9955	870.117	56.701	870.117	62.5237	870.117	65.0581	870.117	67.4513	870.117	71.1709	870.117	71.6158	870.117	73.945	870.117	74.0642	870.117	74.8584
900.879	83.5676	900.879	83.2777	900.879	83.3369	900.879	82.4055	900.879	82.8341	900.879	81.0403	900.879	82.3183	900.879	79.3107	900.879	81.7424	900.879	77.4613	900.879	80.732	900.879	76.1553	900.879	78.6671	900.879	75.4067	900.879	74.1704	900.879	73.8127	900.879	61.5016	900.879	70.2992	900.879	70.0454	900.879	67.4288	900.879	74.4475	900.879	69.1351	900.879	75.2504	900.879	69.2931	900.879	74.4637	900.879	67.689	900.879	72.047	900.879	69.1354	900.879	69.7914	900.879	71.8048	900.879	73.3542	900.879	73.3738	900.879	76.4821	900.879	75.0159	900.879	77.4867	900.879	76.7731
933.105	82.5445	933.105	82.5411	933.105	82.2715	933.105	82.3725	933.105	81.6864	933.105	82.0906	933.105	80.9786	933.105	81.5764	933.105	80.4219	933.105	80.5111	933.105	79.8589	933.105	78.5648	933.105	78.7602	933.105	75.654	933.105	76.6258	933.105	71.3939	933.105	72.6796	933.105	61.4086	933.105	67.3263	933.105	63.9314	933.105	70.5438	933.105	70.6744	933.105	73.7093	933.105	71.6648	933.105	74.3518	933.105	69.7261	933.105	72.9812	933.105	67.3912	933.105	70.1537	933.105	66.8644	933.105	70.7099	933.105	67.5407	933.105	73.9582	933.105	71.8163	933.105	75.5373	933.105	74.9088
965.332	82.6759	965.332	82.7921	965.332	82.3208	965.332	82.8078	965.332	81.7831	965.332	82.7866	965.332	81.2373	965.332	82.5299	965.332	80.6167	965.332	81.7183	965.332	79.7385	965.332	80.1977	965.332	78.6344	965.332	78.0797	965.332	77.2493	965.332	75.4618	965.332	75.0617	965.332	71.6924	965.332	71.0482	965.332	63.3359	965.332	66.3139	965.332	60.4886	965.332	70.9265	965.332	67.4659	965.332	73.7979	965.332	67.8795	965.332	73.3022	965.332	70.2262	965.332	70.72	965.332	73.3606	965.332	71.2443	965.332	74.3485	965.332	74.1157	965.332	74.3823	965.332	75.3621	965.332	75.024
1000.49	83.9031	1000.49	84.0422	1000.49	83.3817	1000.49	83.5905	1000.49	82.715	1000.49	82.6462	1000.49	82.0461	1000.49	81.5757	1000.49	81.4303	1000.49	80.6229	1000.49	80.5397	1000.49	79.6379	1000.49	78.8581	1000.49	78.2444	1000.49	76.3486	1000.49	76.0832	1000.49	73.7646	1000.49	72.6737	1000.49	70.6855	1000.49	66.2491	1000.49	63.6991	1000.49	60.8756	1000.49	61.6541	1000.49	67.5521	1000.49	70.1486	1000.49	67.6282	1000.49	72.6565	1000.49	65.1778	1000.49	72.9895	1000.49	68.7742	1000.49	74.0487	1000.49	71.4692	1000.49	75.6036	1000.49	73.1694	1000.49	76.0436	1000.49	75.0459
1035.64	86.1513	1035.64	86.2572	1035.64	85.1537	1035.64	85.5127	1035.64	83.4252	1035.64	84.162	1035.64	81.5103	1035.64	82.6548	1035.64	80.2416	1035.64	81.3706	1035.64	79.5399	1035.64	80.1893	1035.64	78.3338	1035.64	78.3985	1035.64	75.536	1035.64	74.9814	1035.64	69.096	1035.64	68.998	1035.64	52.8823	1035.64	64.5312	1035.64	70.02	1035.64	66.1777	1035.64	73.7575	1035.64	66.3941	1035.64	74.4633	1035.64	64.0414	1035.64	73.0213	1035.64	64.4748	1035.64	69.7802	1035.64	71.8077	1035.64	69.4952	1035.64	75.4778	1035.64	72.6762	1035.64	76.6587	1035.64	74.931	1035.64	76.2996
1072.27	86.6155	1072.27	86.6782	1072.27	85.6791	1072.27	85.9733	1072.27	83.9963	1072.27	84.8098	1072.27	81.9882	1072.27	83.5015	1072.27	80.3023	1072.27	82.0534	1072.27	79.1462	1072.27	80.24	1072.27	77.9911	1072.27	77.8746	1072.27	76.2598	1072.27	74.5231	1072.27	73.5627	1072.27	68.6698	1072.27	69.1565	1072.27	59.8236	1072.27	68.1089	1072.27	70.5908	1072.27	73.2584	1072.27	74.3384	1072.27	74.5619	1072.27	73.8007	1072.27	72.0086	1072.27	68.987	1072.27	68.4604	1072.27	70.1106	1072.27	71.9931	1072.27	74.7333	1072.27	75.4915	1072.27	76.7159	1072.27	77.2368	1072.27	77.5286
1108.89	87.8117	1108.89	87.2858	1108.89	87.4301	1108.89	86.0358	1108.89	86.1818	1108.89	84.5313	1108.89	84.3196	1108.89	83.1572	1108.89	82.4429	1108.89	81.7161	1108.89	80.7862	1108.89	79.6841	1108.89	78.4212	1108.89	76.9643	1108.89	74.7358	1108.89	73.6847	1108.89	71.37	1108.89	68.5108	1108.89	67.8754	1108.89	62.8192	1108.89	62.3445	1108.89	68.2051	1108.89	71.8619	1108.89	70.789	1108.89	75.6925	1108.89	70.7003	1108.89	75.9105	1108.89	66.9997	1108.89	73.2665	1108.89	60.4923	1108.89	69.4132	1108.89	71.0462	1108.89	71.8158	1108.89	75.5689	1108.89	75.3138	1108.89	76.6931
1148.44	88.22	1148.44	87.4288	1148.44	88.0443	1148.44	85.8894	1148.44	86.8957	1148.44	83.9818	1148.44	84.9816	1148.44	81.9506	1148.44	82.8472	1148.44	79.7278	1148.44	80.896	1148.44	77.3612	1148.44	78.5232	1148.44	75.861	1148.44	74.5998	1148.44	74.9644	1148.44	67.6735	1148.44	72.1963	1148.44	55.8229	1148.44	67.7341	1148.44	64.2575	1148.44	70.4353	1148.44	71.3554	1148.44	72.8949	1148.44	74.2001	1148.44	72.1396	1148.44	73.3187	1148.44	66.1222	1148.44	70.7095	1148.44	67.1507	1148.44	72.254	1148.44	73.3072	1148.44	75.1437	1148.44	75.9119	1148.44	76.888	1148.44	77.1387
1189.45	87.355	1189.45	86.6033	1189.45	87.4292	1189.45	85.3766	1189.45	86.6387	1189.45	83.4588	1189.45	85.09	1189.45	80.47	1189.45	83.2863	1189.45	77.0424	1189.45	81.617	1189.45	75.1138	1189.45	79.4251	1189.45	74.7911	1189.45	76.0335	1189.45	74.0195	1189.45	72.1493	1189.45	71.4447	1189.45	70.063	1189.45	67.0593	1189.45	71.1622	1189.45	68.468	1189.45	73.2464	1189.45	71.2776	1189.45	74.4539	1189.45	71.8699	1189.45	73.7	1189.45	71.7134	1189.45	71.0215	1189.45	71.3779	1189.45	72.0117	1189.45	71.8159	1189.45	75.3845	1189.45	74.3618	1189.45	76.9191	1189.45	76.5359
1230.47	86.9353	1230.47	86.382	1230.47	86.7532	1230.47	85.0136	1230.47	85.9146	1230.47	82.9442	1230.47	84.5102	1230.47	80.7227	1230.47	82.8357	1230.47	78.7653	1230.47	81.0629	1230.47	76.5919	1230.47	78.6914	1230.47	74.9596	1230.47	75.5398	1230.47	74.8684	1230.47	73.234	1230.47	74.2226	1230.47	72.8344	1230.47	71.9816	1230.47	72.2472	1230.47	70.5909	1230.47	73.4286	1230.47	71.7388	1230.47	74.471	1230.47	70.9105	1230.47	71.9032	1230.47	66.5849	1230.47	63.1152	1230.47	61.9456	1230.47	70.6678	1230.47	70.8293	1230.47	75.7593	1230.47	75.471	1230.47	77.7197	1230.47	77.5703
1274.41	85.8989	1274.41	85.1831	1274.41	85.9801	1274.41	83.9266	1274.41	85.4547	1274.41	82.5874	1274.41	84.3529	1274.41	81.4576	1274.41	82.8234	1274.41	80.1624	1274.41	81.1403	1274.41	78.2458	1274.41	78.9878	1274.41	75.75	1274.41	75.1935	1274.41	73.3998	1274.41	68.0454	1274.41	71.6229	1274.41	50.0712	1274.41	70.3292	1274.41	55.2253	1274.41	70.7285	1274.41	63.2791	1274.41	72.6019	1274.41	71.1338	1274.41	71.6453	1274.41	72.253	1274.41	65.5093	1274.41	66.6567	1274.41	54.6947	1274.41	67.0433	1274.41	69.305	1274.41	73.6358	1274.41	74.8702	1274.41	76.1707	1274.41	76.6796
1319.82	85.3846	1319.82	85.2282	1319.82	85.0933	1319.82	84.6112	1319.82	84.4995	1319.82	83.5636	1319.82	83.6132	1319.82	81.7926	1319.82	82.485	1319.82	79.4063	1319.82	81.3445	1319.82	76.9839	1319.82	79.8126	1319.82	74.6644	1319.82	77.3663	1319.82	72.8329	1319.82	74.5523	1319.82	70.8322	1319.82	71.8688	1319.82	67.6564	1319.82	70.4173	1319.82	67.0997	1319.82	72.4482	1319.82	71.9538	1319.82	74.3672	1319.82	72.4654	1319.82	73.3672	1319.82	65.59	1319.82	68.0478	1319.82	67.5011	1319.82	62.7529	1319.82	71.1706	1319.82	71.8167	1319.82	73.1396	1319.82	75.1792	1319.82	75.3861
1366.7	84.9911	1366.7	84.6225	1366.7	84.6424	1366.7	83.919	1366.7	83.7756	1366.7	83.2377	1366.7	82.4846	1366.7	82.2432	1366.7	80.9459	1366.7	80.8601	1366.7	79.9136	1366.7	78.7519	1366.7	78.9586	1366.7	74.6035	1366.7	76.8309	1366.7	67.7779	1366.7	72.7745	1366.7	66.2275	1366.7	69.6179	1366.7	67.6567	1366.7	70.0675	1366.7	68.993	1366.7	71.6043	1366.7	73.3859	1366.7	73.9097	1366.7	75.2346	1366.7	73.7315	1366.7	71.977	1366.7	68.844	1366.7	68.2335	1366.7	54.6388	1366.7	69.6705	1366.7	71.4724	1366.7	70.4853	1366.7	75.2741	1366.7	74.7485
1413.57	84.0555	1413.57	83.8407	1413.57	84.1075	1413.57	83.8903	1413.57	83.7311	1413.57	83.4187	1413.57	82.8896	1413.57	81.8456	1413.57	81.2545	1413.57	79.9658	1413.57	79.299	1413.57	77.9148	1413.57	77.7442	1413.57	74.4445	1413.57	75.5971	1413.57	70.8612	1413.57	71.5663	1413.57	68.1963	1413.57	63.1374	1413.57	65.7291	1413.57	53.6931	1413.57	65.1333	1413.57	59.0588	1413.57	71.5035	1413.57	66.6298	1413.57	75.2757	1413.57	70.5558	1413.57	73.9686	1413.57	67.6852	1413.57	65.8044	1413.57	55.8203	1413.57	58.8509	1413.57	66.0285	1413.57	66.5034	1413.57	72.0313	1413.57	72.0393
1463.38	84.0873	1463.38	84.075	1463.38	84.1854	1463.38	84.241	1463.38	83.9374	1463.38	83.906	1463.38	83.0634	1463.38	82.5924	1463.38	81.2535	1463.38	80.2903	1463.38	78.7568	1463.38	77.2133	1463.38	76.3551	1463.38	73.5622	1463.38	74.3852	1463.38	69.7533	1463.38	71.5835	1463.38	64.1257	1463.38	66.5603	1463.38	59.5437	1463.38	63.4244	1463.38	59.2223	1463.38	67.1349	1463.38	66.9073	1463.38	70.4982	1463.38	71.8835	1463.38	70.3764	1463.38	70.9904	1463.38	66.4655	1463.38	62.3014	1463.38	55.8515	1463.38	61.2399	1463.38	67.1503	1463.38	66.1289	1463.38	70.0475	1463.38	68.9571
1516.11	84.7217	1516.11	84.8406	1516.11	84.5682	1516.11	84.7077	1516.11	84.2098	1516.11	84.1503	1516.11	83.1678	1516.11	83.0126	1516.11	81.1284	1516.11	80.8577	1516.11	78.5227	1516.11	77.4139	1516.11	76.1079	1516.11	73.4184	1516.11	73.9439	1516.11	69.4791	1516.11	70.3739	1516.11	64.6075	1516.11	62.3274	1516.11	59.5519	1516.11	54.2684	1516.11	59.0108	1516.11	64.8997	1516.11	61.8578	1516.11	72.1744	1516.11	70.6214	1516.11	73.4841	1516.11	70.9973	1516.11	68.8427	1516.11	61.437	1516.11	51.2796	1516.11	59.6084	1516.11	68.128	1516.11	62.5909	1516.11	69.3947	1516.11	66.0158
1568.85	85.2066	1568.85	85.3651	1568.85	84.6898	1568.85	85.0613	1568.85	84.0133	1568.85	84.2947	1568.85	83.0847	1568.85	82.629	1568.85	81.2886	1568.85	79.5633	1568.85	78.5624	1568.85	75.6814	1568.85	75.8303	1568.85	71.9675	1568.85	73.2154	1568.85	68.389	1568.85	70.6316	1568.85	64.9769	1568.85	68.13	1568.85	61.9146	1568.85	68.2803	1568.85	65.0329	1568.85	70.3924	1568.85	65.2478	1568.85	71.8394	1568.85	67.5529	1568.85	72.7981	1568.85	69.7228	1568.85	71.0193	1568.85	57.8399	1568.85	63.3705	1568.85	63.676	1568.85	60.9131	1568.85	62.0781	1568.85	64.1166	1568.85	61.0274
1624.51	85.8462	1624.51	85.6641	1624.51	85.2666	1624.51	85.0053	1624.51	84.2146	1624.51	84.1164	1624.51	82.8289	1624.51	82.3224	1624.51	80.8134	1624.51	79.0041	1624.51	78.1006	1624.51	74.5349	1624.51	75.2952	1624.51	68.564	1624.51	72.1386	1624.51	60.8524	1624.51	67.9472	1624.51	55.2894	1624.51	64.798	1624.51	49.1842	1624.51	64.6369	1624.51	58.8374	1624.51	67.505	1624.51	66.8435	1624.51	71.2916	1624.51	66.8893	1624.51	72.5325	1624.51	68.6684	1624.51	70.7007	1624.51	62.5483	1624.51	64.3434	1624.51	62.0319	1624.51	52.9066	1624.51	64.6944	1624.51	56.891	1624.51	52.8682
1681.64	86.3575	1681.64	86.0796	1681.64	85.8014	1681.64	85.1577	1681.64	84.3382	1681.64	83.2981	1681.64	82.7239	1681.64	80.4901	1681.64	80.8938	1681.64	76.9322	1681.64	77.914	1681.64	73.8838	1681.64	74.2783	1681.64	70.9199	1681.64	70.4748	1681.64	61.8687	1681.64	66.9989	1681.64	45.6893	1681.64	64.1535	1681.64	62.6527	1681.64	64.7911	1681.64	65.5404	1681.64	69.0658	1681.64	66.6946	1681.64	70.9744	1681.64	66.4354	1681.64	70.8805	1681.64	66.4451	1681.64	69.8165	1681.64	62.5193	1681.64	64.4167	1681.64	62.7754	1681.64	54.2748	1681.64	66.4098	1681.64	61.6942	1681.64	51.5575
1741.7	86.3608	1741.7	85.8579	1741.7	85.8111	1741.7	84.4233	1741.7	84.1936	1741.7	82.194	1741.7	82.1277	1741.7	78.7264	1741.7	80.0422	1741.7	73.8518	1741.7	77.4298	1741.7	69.3676	1741.7	73.9337	1741.7	60.4888	1741.7	70.378	1741.7	50.5313	1741.7	66.0031	1741.7	60.2189	1741.7	59.8511	1741.7	63.4854	1741.7	63.9644	1741.7	66.2555	1741.7	68.7863	1741.7	69.0927	1741.7	71.19	1741.7	69.5844	1741.7	70.6959	1741.7	66.5188	1741.7	68.4788	1741.7	62.0617	1741.7	60.6355	1741.7	55.881	1741.7	54.7732	1741.7	65.9085	1741.7	50.1043	1741.7	63.2592
1803.22	86.5524	1803.22	86.0168	1803.22	85.8251	1803.22	84.1383	1803.22	84.1455	1803.22	81.5012	1803.22	81.8266	1803.22	78.5152	1803.22	79.7957	1803.22	75.7827	1803.22	77.2242	1803.22	72.9203	1803.22	73.6997	1803.22	71.26	1803.22	70.9594	1803.22	71.379	1803.22	68.1607	1803.22	69.2603	1803.22	64.8805	1803.22	69.0011	1803.22	62.6807	1803.22	69.0928	1803.22	64.2954	1803.22	69.1133	1803.22	69.5336	1803.22	69.2431	1803.22	70.6708	1803.22	67.5781	1803.22	69.5021	1803.22	59.4088	1803.22	58.037	1803.22	61.8077	1803.22	60.9436	1803.22	67.7493	1803.22	53.0382	1803.22	67.2552
1866.21	86.9294	1866.21	86.1072	1866.21	86.3966	1866.21	84.1145	1866.21	84.7387	1866.21	81.282	1866.21	81.8828	1866.21	77.658	1866.21	78.9909	1866.21	74.5543	1866.21	75.6932	1866.21	72.5408	1866.21	72.0542	1866.21	72.9771	1866.21	70.4458	1866.21	73.7927	1866.21	68.6708	1866.21	69.3134	1866.21	68.9695	1866.21	72.7938	1866.21	71.6757	1866.21	73.5899	1866.21	73.0852	1866.21	71.6232	1866.21	73.2656	1866.21	72.5264	1866.21	73.3794	1866.21	72.1012	1866.21	72.2116	1866.21	67.0306	1866.21	64.1984	1866.21	58.8448	1866.21	53.8609	1866.21	69.7918	1866.21	62.4663	1866.21	70.3379
1932.13	87.1787	1932.13	86.1076	1932.13	87.0362	1932.13	84.0582	1932.13	85.5769	1932.13	80.9096	1932.13	82.7725	1932.13	78.5586	1932.13	79.1381	1932.13	77.8429	1932.13	76.0084	1932.13	77.8642	1932.13	73.2458	1932.13	78.9024	1932.13	73.596	1932.13	77.3012	1932.13	73.9443	1932.13	68.7868	1932.13	68.9973	1932.13	67.6729	1932.13	64.5151	1932.13	73.8336	1932.13	70.1082	1932.13	73.3122	1932.13	71.4543	1932.13	72.6626	1932.13	72.5602	1932.13	72.7564	1932.13	71.7649	1932.13	69.3517	1932.13	66.2182	1932.13	58.118	1932.13	56.6653	1932.13	71.2004	1932.13	62.509	1932.13	71.4244
1999.51	86.2531	1999.51	85.8112	1999.51	86.5138	1999.51	84.8303	1999.51	85.3752	1999.51	82.7316	1999.51	82.5345	1999.51	81.035	1999.51	79.1778	1999.51	80.0229	1999.51	75.9684	1999.51	78.9023	1999.51	74.8206	1999.51	77.6201	1999.51	76.2309	1999.51	76.9849	1999.51	77.0299	1999.51	71.6712	1999.51	70.1031	1999.51	67.0446	1999.51	72.2917	1999.51	70.7302	1999.51	73.6289	1999.51	71.0505	1999.51	71.675	1999.51	75.5574	1999.51	73.5361	1999.51	76.1046	1999.51	74.8739	1999.51	72.9727	1999.51	72.4831	1999.51	59.1465	1999.51	63.2874	1999.51	72.8568	1999.51	64.5917	1999.51	73.2225
2069.82	85.3708	2069.82	85.0655	2069.82	85.3742	2069.82	84.2894	2069.82	84.0311	2069.82	81.9666	2069.82	81.4374	2069.82	80.044	2069.82	78.9165	2069.82	80.1064	2069.82	78.5709	2069.82	80.1251	2069.82	77.525	2069.82	77.9562	2069.82	75.9259	2069.82	72.634	2069.82	75.9101	2069.82	65.2979	2069.82	70.3691	2069.82	61.6765	2069.82	61.9627	2069.82	67.962	2069.82	67.1794	2069.82	66.9474	2069.82	67.7133	2069.82	73.2934	2069.82	72.0671	2069.82	73.3342	2069.82	72.6977	2069.82	70.0503	2069.82	70.5938	2069.82	67.056	2069.82	66.2894	2069.82	70.4137	2069.82	69.9859	2069.82	74.4575
2143.07	83.9675	2143.07	84.904	2143.07	84.6881	2143.07	84.2519	2143.07	84.5747	2143.07	81.5953	2143.07	81.7538	2143.07	79.476	2143.07	77.8219	2143.07	79.437	2143.07	76.9897	2143.07	77.9665	2143.07	77.2748	2143.07	73.0465	2143.07	77.1969	2143.07	69.8475	2143.07	76.1356	2143.07	66.9584	2143.07	67.515	2143.07	64.7023	2143.07	67.4045	2143.07	66.1021	2143.07	69.4456	2143.07	63.4596	2143.07	64.7616	2143.07	74.7033	2143.07	73.3417	2143.07	75.8046	2143.07	75.7694	2143.07	73.0184	2143.07	73.8307	2143.07	67.4108	2143.07	71.1955	2143.07	72.4056	2143.07	72.953	2143.07	75.6404
2219.24	83.2647	2219.24	84.1619	2219.24	83.0934	2219.24	83.7726	2219.24	84.0606	2219.24	81.7341	2219.24	82.2604	2219.24	78.5835	2219.24	78.5884	2219.24	76.9587	2219.24	75.6654	2219.24	76.3572	2219.24	75.7992	2219.24	74.8272	2219.24	74.5404	2219.24	72.9179	2219.24	72.2595	2219.24	67.3446	2219.24	66.9769	2219.24	64.3915	2219.24	65.486	2219.24	65.2724	2219.24	65.4539	2219.24	60.6198	2219.24	66.9144	2219.24	73.4529	2219.24	74.2067	2219.24	76.014	2219.24	76.1648	2219.24	74.0168	2219.24	73.4978	2219.24	70.2869	2219.24	67.986	2219.24	72.5666	2219.24	71.1962	2219.24	74.204
2296.88	83.9511	2296.88	83.8428	2296.88	83.3494	2296.88	83.3319	2296.88	82.9773	2296.88	81.7451	2296.88	81.879	2296.88	78.2362	2296.88	78.7145	2296.88	76.4302	2296.88	75.0631	2296.88	75.5842	2296.88	73.8249	2296.88	71.9534	2296.88	73.1634	2296.88	71.531	2296.88	74.1271	2296.88	72.0702	2296.88	69.495	2296.88	69.223	2296.88	67.119	2296.88	64.2049	2296.88	69.0356	2296.88	63.0218	2296.88	62.8582	2296.88	73.6965	2296.88	71.9024	2296.88	76.6683	2296.88	75.5593	2296.88	73.7896	2296.88	72.8399	2296.88	69.9298	2296.88	65.4952	2296.88	72.5788	2296.88	70.4222	2296.88	74.6049
2378.91	84.8842	2378.91	83.729	2378.91	84.0928	2378.91	81.98	2378.91	82.6086	2378.91	80.469	2378.91	81.1394	2378.91	78.6386	2378.91	78.9394	2378.91	75.6697	2378.91	75.9109	2378.91	74.3704	2378.91	73.7765	2378.91	72.4889	2378.91	72.0791	2378.91	71.1929	2378.91	72.0755	2378.91	69.7739	2378.91	71.7996	2378.91	64.8472	2378.91	66.1132	2378.91	67.7501	2378.91	63.522	2378.91	56.8096	2378.91	49.5754	2378.91	71.9895	2378.91	71.3717	2378.91	75.1887	2378.91	76.1516	2378.91	73.802	2378.91	73.1528	2378.91	68.291	2378.91	67.2347	2378.91	73.4414	2378.91	71.6308	2378.91	75.5569
2462.4	84.8598	2462.4	83.8009	2462.4	84.2576	2462.4	82.0129	2462.4	82.7228	2462.4	81.1774	2462.4	81.1016	2462.4	79.6668	2462.4	79.151	2462.4	75.5798	2462.4	77.1397	2462.4	74.1366	2462.4	75.4213	2462.4	70.2972	2462.4	74.5119	2462.4	63.6461	2462.4	72.5316	2462.4	65.3945	2462.4	69.5317	2462.4	64.9247	2462.4	65.0433	2462.4	66.0201	2462.4	67.2791	2462.4	65.0438	2462.4	57.9014	2462.4	71.2407	2462.4	70.2271	2462.4	76.2521	2462.4	74.9853	2462.4	74.887	2462.4	73.4564	2462.4	68.8307	2462.4	68.4869	2462.4	73.2663	2462.4	72.993	2462.4	76.5022
2548.83	85.3349	2548.83	84.3019	2548.83	84.6076	2548.83	82.6293	2548.83	82.6054	2548.83	82.0187	2548.83	81.0954	2548.83	80.6518	2548.83	80.0518	2548.83	77.2712	2548.83	78.1889	2548.83	73.7686	2548.83	76.2337	2548.83	71.422	2548.83	74.9321	2548.83	67.6937	2548.83	73.7983	2548.83	58.651	2548.83	70.6094	2548.83	58.0692	2548.83	67.1089	2548.83	69.1456	2548.83	70.4174	2548.83	69.9809	2548.83	62.5484	2548.83	71.4475	2548.83	69.4082	2548.83	75.9044	2548.83	74.7942	2548.83	75.5146	2548.83	72.9813	2548.83	70.4785	2548.83	67.9315	2548.83	72.0975	2548.83	74.7428	2548.83	77.0929
2639.65	85.4164	2639.65	84.965	2639.65	85.0267	2639.65	82.8253	2639.65	83.6346	2639.65	81.2733	2639.65	81.6245	2639.65	80.1998	2639.65	80.7231	2639.65	78.2295	2639.65	78.6595	2639.65	74.3171	2639.65	76.1028	2639.65	72.6853	2639.65	73.5302	2639.65	70.733	2639.65	72.3289	2639.65	68.585	2639.65	70.1457	2639.65	64.9175	2639.65	66.0732	2639.65	64.9211	2639.65	67.3304	2639.65	68.8359	2639.65	66.8615	2639.65	70.867	2639.65	65.9816	2639.65	74.5751	2639.65	71.809	2639.65	73.5853	2639.65	72.1733	2639.65	71.0271	2639.65	67.8324	2639.65	71.6382	2639.65	73.4152	2639.65	76.4892
2731.93	85.0483	2731.93	84.9929	2731.93	84.6254	2731.93	83.558	2731.93	83.6187	2731.93	80.4744	2731.93	81.6335	2731.93	79.2247	2731.93	80.4781	2731.93	77.4695	2731.93	77.8986	2731.93	75.3714	2731.93	73.7523	2731.93	72.1546	2731.93	71.7273	2731.93	65.9085	2731.93	69.692	2731.93	64.3399	2731.93	67.9172	2731.93	62.9599	2731.93	65.9502	2731.93	65.4358	2731.93	65.6846	2731.93	67.8814	2731.93	64.4434	2731.93	69.698	2731.93	65.5252	2731.93	72.8583	2731.93	67.8877	2731.93	71.1921	2731.93	69.9454	2731.93	69.3484	2731.93	66.7839	2731.93	70.2569	2731.93	70.239	2731.93	73.6699
2828.61	84.0095	2828.61	84.1193	2828.61	84.6742	2828.61	83.3279	2828.61	83.7104	2828.61	80.1893	2828.61	81.1689	2828.61	77.5616	2828.61	79.5354	2828.61	76.2557	2828.61	76.5136	2828.61	73.4789	2828.61	70.6625	2828.61	69.6443	2828.61	67.276	2828.61	68.8761	2828.61	67.8928	2828.61	70.2605	2828.61	64.6953	2828.61	67.0935	2828.61	63.0613	2828.61	66.0573	2828.61	65.1233	2828.61	68.0728	2828.61	63.451	2828.61	67.5933	2828.61	65.3589	2828.61	71.7654	2828.61	68.1117	2828.61	69.6304	2828.61	66.5804	2828.61	66.4469	2828.61	65.1952	2828.61	67.1362	2828.61	65.6913	2828.61	68.7635
2928.22	83.1463	2928.22	83.0056	2928.22	83.7663	2928.22	81.9728	2928.22	83.5773	2928.22	79.558	2928.22	80.9032	2928.22	75.7697	2928.22	77.3368	2928.22	73.8852	2928.22	74.8367	2928.22	69.9093	2928.22	68.5994	2928.22	67.8201	2928.22	59.6751	2928.22	62.2249	2928.22	65.465	2928.22	64.1395	2928.22	64.1494	2928.22	65.7739	2928.22	62.522	2928.22	62.1608	2928.22	61.3968	2928.22	66.2007	2928.22	62.0622	2928.22	66.7127	2928.22	65.1847	2928.22	69.4747	2928.22	68.1958	2928.22	69.5984	2928.22	65.4436	2928.22	60.6352	2928.22	62.105	2928.22	60.9635	2928.22	61.5983	2928.22	62.0042
3030.76	82.3365	3030.76	82.7659	3030.76	82.3722	3030.76	81.493	3030.76	81.7811	3030.76	78.6644	3030.76	79.3528	3030.76	75.1103	3030.76	76.5255	3030.76	71.6389	3030.76	73.804	3030.76	66.5229	3030.76	70.3701	3030.76	64.8433	3030.76	60.4364	3030.76	57.5926	3030.76	63.4304	3030.76	58.9154	3030.76	64.3471	3030.76	65.5395	3030.76	56.737	3030.76	65.6021	3030.76	58.4785	3030.76	64.2123	3030.76	64.9959	3030.76	65.7695	3030.76	66.3766	3030.76	65.6171	3030.76	66.2799	3030.76	66.4859	3030.76	59.3632	3030.76	57.4289	3030.76	57.7955	3030.76	49.9472	3030.76	57.8478	3030.76	55.979
3137.7	81.8384	3137.7	81.6864	3137.7	81.5053	3137.7	80.4448	3137.7	80.9449	3137.7	77.829	3137.7	78.611	3137.7	74.2038	3137.7	75.7699	3137.7	71.5849	3137.7	72.429	3137.7	64.2175	3137.7	67.7695	3137.7	53.1366	3137.7	65.7829	3137.7	57.9994	3137.7	60.1339	3137.7	60.0663	3137.7	66.3008	3137.7	66.2732	3137.7	61.9955	3137.7	66.9741	3137.7	61.2462	3137.7	64.1376	3137.7	64.8366	3137.7	67.1446	3137.7	68.1968	3137.7	60.8038	3137.7	68.1544	3137.7	61.9559	3137.7	57.0723	3137.7	47.1608	3137.7	62.2135	3137.7	59.2784	3137.7	51.4678	3137.7	62.4108
3249.02	82.1394	3249.02	81.3051	3249.02	81.5592	3249.02	80.3613	3249.02	80.1281	3249.02	77.8107	3249.02	79.0537	3249.02	74.4669	3249.02	76.2369	3249.02	72.1899	3249.02	71.4228	3249.02	67.3907	3249.02	65.8697	3249.02	60.1197	3249.02	67.4496	3249.02	58.2153	3249.02	55.0027	3249.02	62.0556	3249.02	66.5744	3249.02	62.5173	3249.02	60.8298	3249.02	67.7309	3249.02	62.1193	3249.02	67.6474	3249.02	67.2979	3249.02	69.0615	3249.02	67.2651	3249.02	64.9945	3249.02	67.5301	3249.02	56.5999	3249.02	49.058	3249.02	54.6973	3249.02	66.1036	3249.02	63.8174	3249.02	61.4431	3249.02	65.0407
3363.28	80.8591	3363.28	79.8794	3363.28	80.734	3363.28	79.4443	3363.28	80.2019	3363.28	77.8607	3363.28	79.7929	3363.28	75.0531	3363.28	76.2224	3363.28	72.0404	3363.28	71.4852	3363.28	64.9313	3363.28	64.9385	3363.28	59.9057	3363.28	66.6437	3363.28	51.017	3363.28	53.9485	3363.28	65.2594	3363.28	63.7048	3363.28	61.9404	3363.28	63.3941	3363.28	67.483	3363.28	61.5002	3363.28	69.299	3363.28	69.0597	3363.28	69.5951	3363.28	66.1667	3363.28	67.3879	3363.28	65.0156	3363.28	60.315	3363.28	56.528	3363.28	61.1759	3363.28	67.9764	3363.28	66.6744	3363.28	64.8247	3363.28	64.5938
3481.93	81.3783	3481.93	80.8242	3481.93	81.1482	3481.93	78.7564	3481.93	80.2754	3481.93	78.6927	3481.93	79.538	3481.93	76.3523	3481.93	76.7021	3481.93	70.741	3481.93	70.3255	3481.93	62.3871	3481.93	67.5554	3481.93	50.4458	3481.93	60.0258	3481.93	47.3125	3481.93	51.4232	3481.93	66.7969	3481.93	65.6195	3481.93	65.6518	3481.93	64.5832	3481.93	65.6758	3481.93	57.7821	3481.93	70.6056	3481.93	67.737	3481.93	68.3309	3481.93	66.9045	3481.93	67.1419	3481.93	59.5967	3481.93	62.0485	3481.93	63.0412	3481.93	65.603	3481.93	69.8918	3481.93	69.3544	3481.93	67.29	3481.93	66.6232
3604.98	81.9444	3604.98	82.3082	3604.98	82.2868	3604.98	80.9871	3604.98	81.9221	3604.98	78.9462	3604.98	79.5004	3604.98	76.6067	3604.98	76.2066	3604.98	70.2887	3604.98	69.6013	3604.98	67.4731	3604.98	70.1612	3604.98	53.3492	3604.98	62.3086	3604.98	40.6117	3604.98	54.6607	3604.98	66.4443	3604.98	63.3771	3604.98	65.9032	3604.98	64.617	3604.98	61.6136	3604.98	53.2579	3604.98	70.5039	3604.98	66.1541	3604.98	68.7062	3604.98	66.193	3604.98	65.6499	3604.98	62.7758	3604.98	61.107	3604.98	64.8434	3604.98	67.273	3604.98	68.623	3604.98	68.6062	3604.98	68.5766	3604.98	67.183
3732.42	84.0988	3732.42	83.6114	3732.42	83.5778	3732.42	82.3979	3732.42	82.9067	3732.42	79.7783	3732.42	80.3324	3732.42	76.1015	3732.42	76.0818	3732.42	69.6108	3732.42	71.5672	3732.42	70.028	3732.42	68.8647	3732.42	58.7234	3732.42	62.2715	3732.42	55.2657	3732.42	61.3663	3732.42	64.034	3732.42	59.0537	3732.42	63.8097	3732.42	65.2686	3732.42	59.9361	3732.42	47.0949	3732.42	69.6326	3732.42	65.8159	3732.42	68.3951	3732.42	68.2515	3732.42	64.4328	3732.42	63.0086	3732.42	59.2	3732.42	64.2925	3732.42	66.1516	3732.42	64.4399	3732.42	67.0706	3732.42	68.2938	3732.42	66.822
3864.26	84.4379	3864.26	84.3683	3864.26	84.4828	3864.26	83.6822	3864.26	83.5666	3864.26	80.9148	3864.26	80.9459	3864.26	76.2625	3864.26	76.3714	3864.26	72.2162	3864.26	73.8732	3864.26	70.3867	3864.26	68.3851	3864.26	52.1761	3864.26	60.821	3864.26	59.1467	3864.26	61.7488	3864.26	63.4116	3864.26	62.4546	3864.26	60.7866	3864.26	69.1708	3864.26	53.8114	3864.26	58.2487	3864.26	65.362	3864.26	67.1497	3864.26	67.6517	3864.26	67.5874	3864.26	63.5249	3864.26	63.6021	3864.26	63.4638	3864.26	66.025	3864.26	60.8374	3864.26	60.4871	3864.26	61.9718	3864.26	63.2008	3864.26	64.247
4000.49	85.3398	4000.49	84.0999	4000.49	84.5138	4000.49	84.2362	4000.49	83.8916	4000.49	82.1589	4000.49	82.6108	4000.49	75.9374	4000.49	77.7735	4000.49	75.3032	4000.49	75.7817	4000.49	70.5588	4000.49	69.8328	4000.49	59.4702	4000.49	58.2707	4000.49	62.1227	4000.49	46.8283	4000.49	61.4342	4000.49	66.5158	4000.49	65.7164	4000.49	71.4929	4000.49	62.02	4000.49	65.0907	4000.49	59.2886	4000.49	65.8947	4000.49	68.4441	4000.49	60.4548	4000.49	59.9292	4000.49	59.7922	4000.49	66.8644	4000.49	65.6157	4000.49	64.4533	4000.49	61.1449	4000.49	62.6011	4000.49	60.1677	4000.49	67.9412
4141.11	85.7035	4141.11	84.3846	4141.11	84.9991	4141.11	84.914	4141.11	83.7934	4141.11	82.337	4141.11	83.0148	4141.11	77.4123	4141.11	79.5039	4141.11	78.0877	4141.11	77.3247	4141.11	67.7493	4141.11	68.9677	4141.11	69.1699	4141.11	70.1089	4141.11	62.9665	4141.11	61.2021	4141.11	60.3266	4141.11	65.398	4141.11	69.7238	4141.11	69.0789	4141.11	63.5865	4141.11	67.63	4141.11	60.7682	4141.11	64.9015	4141.11	70.5708	4141.11	63.3274	4141.11	56.2837	4141.11	54.9211	4141.11	67.9532	4141.11	68.7318	4141.11	68.0467	4141.11	61.2087	4141.11	58.5544	4141.11	59.7061	4141.11	69.0553
4287.6	85.5604	4287.6	84.3654	4287.6	84.7982	4287.6	84.2342	4287.6	84.9059	4287.6	82.3942	4287.6	83.0604	4287.6	79.118	4287.6	80.767	4287.6	77.8361	4287.6	76.6572	4287.6	63.5498	4287.6	71.0994	4287.6	72.5305	4287.6	71.4695	4287.6	52.141	4287.6	63.2246	4287.6	52.23	4287.6	66.5749	4287.6	65.2682	4287.6	68.4001	4287.6	61.1774	4287.6	63.0611	4287.6	47.2864	4287.6	64.9066	4287.6	69.3715	4287.6	68.8682	4287.6	56.7218	4287.6	63.1161	4287.6	69.5972	4287.6	68.6465	4287.6	65.4652	4287.6	61.3706	4287.6	55.4805	4287.6	53.1138	4287.6	69.5909
4438.48	84.7758	4438.48	83.8948	4438.48	84.0661	4438.48	83.7818	4438.48	84.315	4438.48	81.1249	4438.48	82.3551	4438.48	78.5135	4438.48	80.1148	4438.48	74.1723	4438.48	73.405	4438.48	68.2963	4438.48	73.6446	4438.48	73.6754	4438.48	70.9197	4438.48	57.7265	4438.48	54.5848	4438.48	64.2695	4438.48	67.4287	4438.48	68.6074	4438.48	70.7704	4438.48	58.0129	4438.48	58.232	4438.48	64.8046	4438.48	67.1132	4438.48	67.6596	4438.48	68.5613	4438.48	62.3858	4438.48	68.3688	4438.48	69.2799	4438.48	67.0557	4438.48	57.7049	4438.48	59.9404	4438.48	65.0896	4438.48	60.157	4438.48	66.7808
4595.21	84.6668	4595.21	83.7473	4595.21	83.5286	4595.21	83.0399	4595.21	83.467	4595.21	79.5315	4595.21	81.2629	4595.21	79.022	4595.21	79.9132	4595.21	69.4425	4595.21	73.2802	4595.21	74.3428	4595.21	75.3567	4595.21	72.7036	4595.21	71.2383	4595.21	62.0882	4595.21	52.8007	4595.21	65.6538	4595.21	64.1702	4595.21	69.0238	4595.21	70.4163	4595.21	54.8596	4595.21	46.3523	4595.21	68.6706	4595.21	67.5484	4595.21	66.0815	4595.21	65.5234	4595.21	69.3169	4595.21	69.2996	4595.21	68.2157	4595.21	60.3702	4595.21	62.4665	4595.21	62.2644	4595.21	68.2101	4595.21	67.1668	4595.21	66.2679
4756.35	83.5577	4756.35	82.949	4756.35	83.6717	4756.35	82.9244	4756.35	83.4108	4756.35	78.9561	4756.35	80.9174	4756.35	78.2561	4756.35	80.916	4756.35	72.2396	4756.35	76.6981	4756.35	77.3913	4756.35	76.579	4756.35	67.1417	4756.35	68.6788	4756.35	68.0389	4756.35	60.5495	4756.35	68.5206	4756.35	68.307	4756.35	69.8778	4756.35	69.0377	4756.35	64.2896	4756.35	55.407	4756.35	67.7178	4756.35	66.3753	4756.35	61.512	4756.35	59.4703	4756.35	68.3619	4756.35	68.9649	4756.35	64.2366	4756.35	62.0835	4756.35	66.3544	4756.35	66.5042	4756.35	67.0584	4756.35	68.4879	4756.35	68.1624
4924.8	83.828	4924.8	83.699	4924.8	83.3863	4924.8	83.2285	4924.8	82.5605	4924.8	80.7166	4924.8	80.6168	4924.8	77.7141	4924.8	80.2889	4924.8	77.1799	4924.8	77.5517	4924.8	76.7168	4924.8	75.2637	4924.8	60.953	4924.8	63.7671	4924.8	69.3736	4924.8	58.0629	4924.8	70.2881	4924.8	70.5916	4924.8	66.4962	4924.8	70.2492	4924.8	64.0867	4924.8	58.6576	4924.8	61.7732	4924.8	62.3927	4924.8	57.8161	4924.8	61.0634	4924.8	68.8106	4924.8	67.8505	4924.8	64.0043	4924.8	65.5267	4924.8	70.4118	4924.8	67.875	4924.8	68.487	4924.8	68.6538	4924.8	66.5394
5097.66	83.5252	5097.66	83.114	5097.66	83.1202	5097.66	81.9911	5097.66	82.0826	5097.66	81.731	5097.66	81.5458	5097.66	76.2866	5097.66	78.3665	5097.66	79.2154	5097.66	77.1402	5097.66	72.5511	5097.66	72.1222	5097.66	70.9851	5097.66	65.4323	5097.66	67.0097	5097.66	51.7635	5097.66	71.9565	5097.66	73.0731	5097.66	71.0744	5097.66	71.4828	5097.66	68.2119	5097.66	58.878	5097.66	60.7744	5097.66	57.2352	5097.66	66.024	5097.66	69.0631	5097.66	70.5461	5097.66	68.0128	5097.66	66.8959	5097.66	63.7404	5097.66	70.3613	5097.66	66.1654	5097.66	70.279	5097.66	70.2136	5097.66	63.342
5277.83	82.1696	5277.83	82.8869	5277.83	83.5154	5277.83	79.9424	5277.83	80.7201	5277.83	81.3614	5277.83	80.7337	5277.83	75.0215	5277.83	76.214	5277.83	78.5889	5277.83	75.2982	5277.83	67.5871	5277.83	64.6573	5277.83	75.2505	5277.83	72.0166	5277.83	67.4063	5277.83	62.2209	5277.83	70.1814	5277.83	72.9332	5277.83	73.0051	5277.83	73.5791	5277.83	66.3811	5277.83	56.4074	5277.83	69.2393	5277.83	60.7603	5277.83	67.1235	5277.83	70.2998	5277.83	71.7483	5277.83	67.0587	5277.83	68.367	5277.83	56.9804	5277.83	71.7084	5277.83	69.0879	5277.83	70.8564	5277.83	73.2502	5277.83	59.5348
5463.87	81.7333	5463.87	82.9155	5463.87	83.0165	5463.87	78.6631	5463.87	79.6619	5463.87	79.7698	5463.87	79.1492	5463.87	75.9619	5463.87	76.4935	5463.87	75.9123	5463.87	74.2503	5463.87	75.8304	5463.87	69.4396	5463.87	76.6342	5463.87	75.4705	5463.87	68.9539	5463.87	61.3985	5463.87	69.0425	5463.87	70.3232	5463.87	75.0439	5463.87	72.6601	5463.87	66.7901	5463.87	55.8817	5463.87	71.259	5463.87	57.8993	5463.87	68.7936	5463.87	69.8585	5463.87	71.1704	5463.87	67.8842	5463.87	67.8069	5463.87	65.9554	5463.87	72.618	5463.87	72.9167	5463.87	70.4246	5463.87	71.9943	5463.87	68.7243
5657.23	81.4429	5657.23	81.5278	5657.23	81.7544	5657.23	79.342	5657.23	79.8031	5657.23	77.9252	5657.23	78.2186	5657.23	78.1078	5657.23	78.311	5657.23	73.2685	5657.23	71.8237	5657.23	79.02	5657.23	74.2346	5657.23	74.8505	5657.23	74.4596	5657.23	71.5514	5657.23	56.537	5657.23	70.6913	5657.23	68.3915	5657.23	72.224	5657.23	70.8504	5657.23	63.7424	5657.23	41.0661	5657.23	68.887	5657.23	51.181	5657.23	66.6537	5657.23	67.595	5657.23	71.4283	5657.23	69.2418	5657.23	64.1386	5657.23	69.1709	5657.23	73.2583	5657.23	74.2288	5657.23	70.4869	5657.23	70.4442	5657.23	69.8934
5856.45	82.922	5856.45	82.3025	5856.45	82.2058	5856.45	80.4609	5856.45	80.9574	5856.45	79.6854	5856.45	79.0866	5856.45	78.5257	5856.45	78.9765	5856.45	75.2075	5856.45	71.2796	5856.45	78.5177	5856.45	75.0492	5856.45	67.4286	5856.45	70.116	5856.45	71.9031	5856.45	61.8877	5856.45	72.0384	5856.45	68.9024	5856.45	68.1269	5856.45	71.5006	5856.45	62.2349	5856.45	61.1693	5856.45	66.0586	5856.45	65.9433	5856.45	54.275	5856.45	60.3255	5856.45	70.9908	5856.45	69.3357	5856.45	57.2642	5856.45	68.8685	5856.45	73.3618	5856.45	74.5621	5856.45	70.4557	5856.45	68.1802	5856.45	68.1545
6062.99	85.2433	6062.99	84.18	6062.99	83.479	6062.99	81.3279	6062.99	81.9298	6062.99	80.3885	6062.99	79.1731	6062.99	76.6429	6062.99	78.1069	6062.99	75.7148	6062.99	72.7867	6062.99	76.1849	6062.99	73.2129	6062.99	68.2866	6062.99	62.6808	6062.99	72.852	6062.99	65.5686	6062.99	69.0642	6062.99	68.8751	6062.99	69.4871	6062.99	72.4317	6062.99	68.3033	6062.99	66.7682	6062.99	64.7474	6062.99	69.5628	6062.99	66.3013	6062.99	53.4952	6062.99	66.8166	6062.99	67.0861	6062.99	64.549	6062.99	65.1373	6062.99	72.6039	6062.99	72.9539	6062.99	69.0205	6062.99	68.6793	6062.99	72.2527
6276.86	86.1367	6276.86	84.6609	6276.86	84.3883	6276.86	83.0233	6276.86	83.6601	6276.86	80.0383	6276.86	79.518	6276.86	75.4672	6276.86	77.7231	6276.86	75.7243	6276.86	74.2411	6276.86	69.5784	6276.86	60.7032	6276.86	75.0734	6276.86	72.5932	6276.86	69.4586	6276.86	63.8237	6276.86	72.9721	6276.86	71.7105	6276.86	70.5095	6276.86	71.1832	6276.86	70.4931	6276.86	67.0754	6276.86	65.0469	6276.86	67.7087	6276.86	67.4426	6276.86	67.884	6276.86	62.7835	6276.86	59.2061	6276.86	70.9747	6276.86	69.2715	6276.86	68.7526	6276.86	68.2785	6276.86	60.3205	6276.86	62.0877	6276.86	72.7366
6498.05	85.0041	6498.05	84.933	6498.05	85.3975	6498.05	82.8428	6498.05	83.0295	6498.05	79.5783	6498.05	80.3075	6498.05	76.1467	6498.05	77.9959	6498.05	74.4589	6498.05	72.5689	6498.05	74.0314	6498.05	67.2572	6498.05	76.2845	6498.05	74.1801	6498.05	64.5083	6498.05	57.7364	6498.05	75.1641	6498.05	70.9298	6498.05	72.1407	6498.05	65.7631	6498.05	69.5054	6498.05	62.9182	6498.05	59.1995	6498.05	60.8863	6498.05	66.2178	6498.05	68.401	6498.05	70.354	6498.05	64.3361	6498.05	72.1075	6498.05	67.257	6498.05	65.61	6498.05	55.1421	6498.05	58.747	6498.05	51.5994	6498.05	72.0381
6726.56	84.4125	6726.56	84.1261	6726.56	84.3915	6726.56	81.9674	6726.56	82.3531	6726.56	80.1805	6726.56	80.1998	6726.56	75.9027	6726.56	77.6443	6726.56	73.4352	6726.56	71.7331	6726.56	76.2681	6726.56	70.2484	6726.56	73.655	6726.56	72.9736	6726.56	70.6283	6726.56	64.535	6726.56	74.2485	6726.56	68.3068	6726.56	66.5619	6726.56	67.8151	6726.56	68.6537	6726.56	47.7772	6726.56	48.8913	6726.56	51.6133	6726.56	59.3916	6726.56	65.5699	6726.56	72.319	6726.56	69.155	6726.56	70.3501	6726.56	60.5987	6726.56	61.6941	6726.56	55.3745	6726.56	60.7548	6726.56	58.598	6726.56	66.0908
6963.87	84.7915	6963.87	83.7626	6963.87	83.3965	6963.87	81.6527	6963.87	81.9063	6963.87	79.2199	6963.87	78.8356	6963.87	75.5612	6963.87	76.1534	6963.87	72.3479	6963.87	72.8999	6963.87	76.0234	6963.87	71.2605	6963.87	71.8161	6963.87	69.1317	6963.87	73.3237	6963.87	67.533	6963.87	73.7662	6963.87	66.6974	6963.87	53.1025	6963.87	67.5966	6963.87	69.4075	6963.87	63.7582	6963.87	65.2829	6963.87	54.3378	6963.87	62.5003	6963.87	57.5202	6963.87	70.4608	6963.87	70.7758	6963.87	62.124	6963.87	56.4916	6963.87	59.8247	6963.87	67.4577	6963.87	54.3803	6963.87	63.023	6963.87	62.7631
7209.96	85.5027	7209.96	84.697	7209.96	84.7239	7209.96	81.4754	7209.96	81.5899	7209.96	77.6955	7209.96	78.3304	7209.96	77.0674	7209.96	75.8027	7209.96	73.2665	7209.96	72.795	7209.96	73.1445	7209.96	70.6959	7209.96	75.1057	7209.96	68.7219	7209.96	69.0711	7209.96	68.4574	7209.96	72.1917	7209.96	70.769	7209.96	66.7584	7209.96	70.8989	7209.96	72.7356	7209.96	66.7606	7209.96	64.3463	7209.96	60.4812	7209.96	69.1193	7209.96	62.8235	7209.96	66.4802	7209.96	69.0451	7209.96	63.5465	7209.96	53.1603	7209.96	63.8167	7209.96	69.0149	7209.96	53.9696	7209.96	57.5429	7209.96	67.3299
7464.84	85.9514	7464.84	85.2224	7464.84	85.4036	7464.84	83.386	7464.84	83.503	7464.84	79.7102	7464.84	79.4027	7464.84	76.5649	7464.84	75.741	7464.84	73.7445	7464.84	75.0543	7464.84	75.8794	7464.84	69.8479	7464.84	74.9746	7464.84	72.3667	7464.84	64.5968	7464.84	61.6972	7464.84	73.9947	7464.84	70.182	7464.84	67.8361	7464.84	63.5567	7464.84	68.215	7464.84	54.1486	7464.84	64.8985	7464.84	52.4956	7464.84	68.7627	7464.84	63.1554	7464.84	59.2086	7464.84	63.3464	7464.84	53.3324	7464.84	41.0535	7464.84	59.9496	7464.84	66.3386	7464.84	64.8314	7464.84	62.5468	7464.84	68.4848
7727.05	85.2799	7727.05	85.2951	7727.05	85.1452	7727.05	84.1555	7727.05	84.1802	7727.05	80.1494	7727.05	79.9205	7727.05	76.5192	7727.05	76.5399	7727.05	73.6371	7727.05	75.4089	7727.05	76.8244	7727.05	68.6377	7727.05	71.6049	7727.05	69.9592	7727.05	68.1922	7727.05	59.568	7727.05	70.1123	7727.05	68.9695	7727.05	62.586	7727.05	65.5554	7727.05	66.0304	7727.05	65.1829	7727.05	65.3312	7727.05	63.3441	7727.05	62.7691	7727.05	59.9081	7727.05	55.7283	7727.05	55.5138	7727.05	54.7789	7727.05	62.6533	7727.05	49.4574	7727.05	52.6406	7727.05	65.9665	7727.05	65.1534	7727.05	66.3529
7999.51	84.9118	7999.51	84.2782	7999.51	84.1355	7999.51	83.6143	7999.51	83.6961	7999.51	79.2552	7999.51	80.3829	7999.51	78.513	7999.51	78.2539	7999.51	72.6539	7999.51	76.3548	7999.51	73.7115	7999.51	69.7521	7999.51	73.0596	7999.51	62.2429	7999.51	65.1442	7999.51	66.3039	7999.51	66.9891	7999.51	64.0782	7999.51	63.942	7999.51	66.9538	7999.51	69.3245	7999.51	67.4145	7999.51	66.1543	7999.51	64.3781	7999.51	57.7427	7999.51	60.3266	7999.51	64.1931	7999.51	61.9891	7999.51	64.5382	7999.51	67.5637	7999.51	66.0198	7999.51	60.0026	7999.51	67.2266	7999.51	68.2486	7999.51	62.248
8282.23	84.3927	8282.23	83.9954	8282.23	84.2124	8282.23	83.4734	8282.23	83.3959	8282.23	81.0713	8282.23	81.0404	8282.23	77.7615	8282.23	78.827	8282.23	73.5152	8282.23	75.5975	8282.23	72.4055	8282.23	69.9945	8282.23	72.7561	8282.23	65.5077	8282.23	63.1204	8282.23	64.9263	8282.23	73.7141	8282.23	69.3731	8282.23	70.2815	8282.23	66.3731	8282.23	70.0207	8282.23	62.401	8282.23	62.0853	8282.23	51.7236	8282.23	63.3124	8282.23	61.8889	8282.23	59.9536	8282.23	56.8412	8282.23	65.3463	8282.23	66.7341	8282.23	68.3427	8282.23	66.873	8282.23	64.8632	8282.23	68.4381	8282.23	67.1982
8573.73	84.0737	8573.73	84.1129	8573.73	84.1876	8573.73	83.8029	8573.73	83.8528	8573.73	81.339	8573.73	81.1575	8573.73	77.5124	8573.73	78.5316	8573.73	72.1913	8573.73	75.2299	8573.73	73.4285	8573.73	66.4003	8573.73	69.4195	8573.73	67.5507	8573.73	69.1624	8573.73	60.2329	8573.73	72.2887	8573.73	65.8153	8573.73	63.3239	8573.73	68.5994	8573.73	61.5897	8573.73	63.7596	8573.73	64.8872	8573.73	57.6311	8573.73	58.0834	8573.73	59.9835	8573.73	54.2199	8573.73	49.3586	8573.73	59.5113	8573.73	60.6507	8573.73	67.7644	8573.73	69.0953	8573.73	64.177	8573.73	65.1696	8573.73	66.8393
8876.95	84.4341	8876.95	83.7697	8876.95	83.7298	8876.95	82.8915	8876.95	82.9192	8876.95	79.4832	8876.95	80.6666	8876.95	78.7183	8876.95	78.4808	8876.95	72.7212	8876.95	75.3971	8876.95	71.5342	8876.95	62.6308	8876.95	70.0491	8876.95	67.4701	8876.95	66.5209	8876.95	57.1048	8876.95	65.9511	8876.95	65.045	8876.95	56.6525	8876.95	68.0066	8876.95	66.1521	8876.95	67.901	8876.95	60.0813	8876.95	63.0448	8876.95	61.2681	8876.95	60.179	8876.95	64.0692	8876.95	60.925	8876.95	59.6616	8876.95	46.1185	8876.95	62.2866	8876.95	66.3521	8876.95	65.3097	8876.95	63.5814	8876.95	62.2502
9188.96	83.6513	9188.96	83.0783	9188.96	83.6256	9188.96	82.3925	9188.96	82.41	9188.96	80.3499	9188.96	81.1487	9188.96	78.003	9188.96	77.6937	9188.96	72.3588	9188.96	75.6084	9188.96	72.2469	9188.96	65.3111	9188.96	69.765	9188.96	67.9747	9188.96	68.2272	9188.96	50.4356	9188.96	68.6958	9188.96	69.471	9188.96	63.8168	9188.96	66.7417	9188.96	64.1328	9188.96	63.209	9188.96	58.5403	9188.96	53.7454	9188.96	56.8567	9188.96	59.5782	9188.96	68.2024	9188.96	45.7141	9188.96	66.9991	9188.96	54.0553	9188.96	62.4577	9188.96	55.3059	9188.96	64.0045	9188.96	59.948	9188.96	52.8564
9514.16	82.5388	9514.16	82.7374	9514.16	83.3713	9514.16	82.5279	9514.16	82.2867	9514.16	79.8487	9514.16	81.654	9514.16	77.7197	9514.16	78.5317	9514.16	71.8751	9514.16	75.3101	9514.16	70.4989	9514.16	64.7897	9514.16	69.0346	9514.16	67.9438	9514.16	70.0863	9514.16	59.6646	9514.16	66.0053	9514.16	68.0982	9514.16	60.712	9514.16	62.8736	9514.16	63.1057	9514.16	51.8856	9514.16	59.8879	9514.16	57.7282	9514.16	56.5062	9514.16	55.175	9514.16	66.273	9514.16	52.9802	9514.16	63.9545	9514.16	56.6898	9514.16	60.8561	9514.16	54.5005	9514.16	65.1967	9514.16	58.7852	9514.16	63.4494
9849.61	83.2411	9849.61	82.3709	9849.61	82.7435	9849.61	82.2274	9849.61	81.8466	9849.61	79.776	9849.61	81.0368	9849.61	78.4844	9849.61	79.7638	9849.61	73.7643	9849.61	76.0127	9849.61	69.0659	9849.61	63.8271	9849.61	69.8663	9849.61	66.3912	9849.61	66.1692	9849.61	49.4963	9849.61	68.0335	9849.61	66.2259	9849.61	54.4778	9849.61	65.916	9849.61	64.7238	9849.61	62.5684	9849.61	61.1757	9849.61	62.1562	9849.61	60.978	9849.61	48.6339	9849.61	62.512	9849.61	65.4841	9849.61	60.4692	9849.61	57.0031	9849.61	61.6792	9849.61	62.5884	9849.61	56.1242	9849.61	55.9598	9849.61	67.1352
10196.8	83.6047	10196.8	82.6092	10196.8	82.8203	10196.8	81.863	10196.8	81.7301	10196.8	80.6051	10196.8	81.3583	10196.8	78.6078	10196.8	79.6421	10196.8	73.5126	10196.8	75.6924	10196.8	69.4724	10196.8	68.5724	10196.8	67.4708	10196.8	66.6675	10196.8	63.5795	10196.8	57.8273	10196.8	61.4158	10196.8	66.9306	10196.8	61.9712	10196.8	68.6492	10196.8	58.534	10196.8	60.9155	10196.8	58.2204	10196.8	53.38	10196.8	59.5772	10196.8	55.4889	10196.8	54.9594	10196.8	61.4228	10196.8	61.9993	10196.8	65.4152	10196.8	62.5253	10196.8	64.0377	10196.8	58.7716	10196.8	55.2762	10196.8	65.7849
10555.7	83.7539	10555.7	83.1293	10555.7	82.9749	10555.7	82.1363	10555.7	82.2355	10555.7	79.502	10555.7	80.8817	10555.7	78.6012	10555.7	78.7863	10555.7	73.6086	10555.7	75.4029	10555.7	70.7938	10555.7	68.4409	10555.7	62.8203	10555.7	65.7287	10555.7	61.4471	10555.7	62.0289	10555.7	59.0203	10555.7	64.4812	10555.7	61.5812	10555.7	60.7909	10555.7	51.0499	10555.7	56.7923	10555.7	51.3062	10555.7	53.7923	10555.7	52.9317	10555.7	59.122	10555.7	52.5475	10555.7	42.9301	10555.7	54.2272	10555.7	64.0404	10555.7	63.2198	10555.7	57.1037	10555.7	59.2638	10555.7	60.511	10555.7	55.2233
10927.7	83.3778	10927.7	82.854	10927.7	83.2282	10927.7	81.8303	10927.7	82.1674	10927.7	79.4218	10927.7	80.6878	10927.7	77.7765	10927.7	77.6399	10927.7	73.6605	10927.7	75.1658	10927.7	69.397	10927.7	66.0865	10927.7	65.1903	10927.7	66.4149	10927.7	61.0681	10927.7	58.8814	10927.7	61.6329	10927.7	65.5129	10927.7	60.4739	10927.7	56.8467	10927.7	51.351	10927.7	61.5512	10927.7	54.1033	10927.7	57.391	10927.7	47.0858	10927.7	50.8686	10927.7	61.273	10927.7	61.962	10927.7	58.4958	10927.7	56.5083	10927.7	64.3616	10927.7	50.7289	10927.7	50.2812	10927.7	59.0499	10927.7	59.5237
11313	83.8249	11313	83.085	11313	83.554	11313	82.1201	11313	82.366	11313	79.903	11313	80.9354	11313	78.4339	11313	78.3634	11313	73.8269	11313	75.7417	11313	69.3186	11313	65.8002	11313	60.6259	11313	63.3704	11313	57.225	11313	61.9965	11313	55.4943	11313	61.9202	11313	62.0305	11313	54.6038	11313	44.7382	11313	61.0797	11313	45.5595	11313	47.4645	11313	48.3559	11313	51.3453	11313	60.013	11313	59.7383	11313	60.7196	11313	60.3358	11313	63.2763	11313	60.918	11313	55.5553	11313	60.3619	11313	64.8963
11712.9	84.6214	11712.9	83.3299	11712.9	83.8253	11712.9	82.1826	11712.9	82.2484	11712.9	80.2654	11712.9	80.8793	11712.9	77.91	11712.9	78.4868	11712.9	73.8678	11712.9	75.7334	11712.9	67.8103	11712.9	64.5513	11712.9	64.5664	11712.9	61.7733	11712.9	63.4697	11712.9	59.2331	11712.9	60.6965	11712.9	64.6123	11712.9	52.4042	11712.9	60.4668	11712.9	54.5914	11712.9	54.2894	11712.9	57.4278	11712.9	57.1535	11712.9	59.7038	11712.9	46.3974	11712.9	54.1282	11712.9	47.0963	11712.9	61.063	11712.9	65.9424	11712.9	61.5891	11712.9	67.2855	11712.9	59.8235	11712.9	61.5153	11712.9	63.749
12126	84.4988	12126	83.5384	12126	84.0198	12126	82.1891	12126	82.4742	12126	79.737	12126	80.4751	12126	77.2065	12126	78.5191	12126	72.2631	12126	75.7491	12126	67.0029	12126	65.0016	12126	58.8664	12126	63.5427	12126	61.6903	12126	49.9571	12126	55.9876	12126	62.8057	12126	59.1302	12126	61.0487	12126	54.7615	12126	60.0782	12126	49.7387	12126	50.0789	12126	59.8079	12126	53.9855	12126	53.4921	12126	61.5909	12126	57.3977	12126	64.961	12126	60.9361	12126	65.8386	12126	61.4972	12126	59.7771	12126	62.6088
12553.7	83.5277	12553.7	82.9979	12553.7	83.4559	12553.7	82.1543	12553.7	82.3358	12553.7	79.3916	12553.7	80.2775	12553.7	75.9677	12553.7	77.2214	12553.7	71.7313	12553.7	74.9382	12553.7	67.2301	12553.7	65.0262	12553.7	57.4972	12553.7	63.3592	12553.7	61.4137	12553.7	58.4884	12553.7	55.8736	12553.7	59.8482	12553.7	50.5913	12553.7	54.4159	12553.7	55.0608	12553.7	54.0368	12553.7	53.5443	12553.7	52.2055	12553.7	53.6285	12553.7	47.9359	12553.7	52.0302	12553.7	61.2879	12553.7	56.7491	12553.7	62.4776	12553.7	59.0049	12553.7	57.7393	12553.7	62.5675	12553.7	57.8395	12553.7	60.1121
12996.1	83.5654	12996.1	82.3942	12996.1	82.8503	12996.1	81.2345	12996.1	81.6983	12996.1	78.8374	12996.1	79.8129	12996.1	74.5445	12996.1	76.1696	12996.1	69.0603	12996.1	73.9783	12996.1	62.0291	12996.1	62.7765	12996.1	53.8746	12996.1	62.5709	12996.1	56.4514	12996.1	61.2807	12996.1	49.9257	12996.1	57.7162	12996.1	52.4432	12996.1	58.6369	12996.1	49.8008	12996.1	47.7025	12996.1	49.3326	12996.1	39.5169	12996.1	50.1293	12996.1	52.3264	12996.1	55.5218	12996.1	55.5489	12996.1	61.8057	12996.1	58.7492	12996.1	59.7446	12996.1	44.6325	12996.1	63.1456	12996.1	60.2892	12996.1	60.1375
13454.6	83.6966	13454.6	82.883	13454.6	83.0366	13454.6	81.0975	13454.6	81.5165	13454.6	77.7007	13454.6	79.2896	13454.6	73.5931	13454.6	76.3037	13454.6	68.6889	13454.6	72.1349	13454.6	60.8845	13454.6	61.1523	13454.6	50.257	13454.6	60.2224	13454.6	51.0034	13454.6	53.3281	13454.6	50.8742	13454.6	55.8383	13454.6	47.7543	13454.6	56.133	13454.6	50.5298	13454.6	51.4415	13454.6	55.7209	13454.6	54.4723	13454.6	50.3675	13454.6	56.2472	13454.6	52.5833	13454.6	56.5928	13454.6	56.9147	13454.6	55.4497	13454.6	62.3103	13454.6	57.5053	13454.6	60.0263	13454.6	60.1155	13454.6	58.6631
13929.2	83.3252	13929.2	82.8832	13929.2	82.923	13929.2	81.2728	13929.2	81.4613	13929.2	76.5612	13929.2	78.0232	13929.2	72.1337	13929.2	74.3827	13929.2	65.8737	13929.2	69.6783	13929.2	56.6469	13929.2	61.5486	13929.2	36.6212	13929.2	57.8289	13929.2	50.8064	13929.2	54.2892	13929.2	49.0349	13929.2	54.553	13929.2	48.7205	13929.2	48.6462	13929.2	40.8595	13929.2	50.6677	13929.2	49.8827	13929.2	48.7502	13929.2	38.7657	13929.2	45.197	13929.2	51.2991	13929.2	59.7566	13929.2	56.1633	13929.2	59.0904	13929.2	62.1754	13929.2	60.8982	13929.2	53.9812	13929.2	59.603	13929.2	56.2107
14419.9	83.5406	14419.9	82.7959	14419.9	82.5714	14419.9	80.9585	14419.9	80.994	14419.9	77.2283	14419.9	78.158	14419.9	72.1319	14419.9	73.9217	14419.9	64.4522	14419.9	68.2093	14419.9	55.0026	14419.9	59.292	14419.9	47.1733	14419.9	52.0637	14419.9	49.9161	14419.9	49.3875	14419.9	47.4734	14419.9	50.072	14419.9	52.2943	14419.9	50.8225	14419.9	40.2696	14419.9	45.9865	14419.9	48.591	14419.9	43.3632	14419.9	49.1466	14419.9	51.0046	14419.9	54.7323	14419.9	56.8813	14419.9	59.416	14419.9	59.7799	14419.9	63.2934	14419.9	63.2635	14419.9	47.7925	14419.9	54.7478	14419.9	61.0374
14928.2	83.6805	14928.2	82.9116	14928.2	82.6801	14928.2	80.6918	14928.2	80.98	14928.2	77.012	14928.2	77.1349	14928.2	71.9624	14928.2	72.333	14928.2	62.4836	14928.2	67.734	14928.2	50.4717	14928.2	57.7365	14928.2	48.5803	14928.2	52.5131	14928.2	50.3124	14928.2	50.9354	14928.2	48.2456	14928.2	48.8718	14928.2	49.1884	14928.2	49.5011	14928.2	52.3528	14928.2	37.7978	14928.2	57.153	14928.2	47.7788	14928.2	50.8215	14928.2	53.2969	14928.2	57.425	14928.2	52.2229	14928.2	59.7739	14928.2	50.2861	14928.2	63.0793	14928.2	60.4648	14928.2	57.7391	14928.2	50.4573	14928.2	64.0188
15455.6	82.2591	15455.6	81.4086	15455.6	81.6536	15455.6	79.3186	15455.6	80.2337	15455.6	73.9697	15455.6	75.8058	15455.6	68.5704	15455.6	71.2186	15455.6	60.6163	15455.6	67.2725	15455.6	48.0477	15455.6	57.3826	15455.6	49.7257	15455.6	51.6357	15455.6	53.098	15455.6	45.2245	15455.6	47.8579	15455.6	47.0084	15455.6	50.7005	15455.6	43.6722	15455.6	44.9632	15455.6	42.2595	15455.6	57.5604	15455.6	50.4695	15455.6	54.7669	15455.6	53.6659	15455.6	55.0149	15455.6	50.2141	15455.6	51.3552	15455.6	57.4815	15455.6	57.5629	15455.6	54.8803	15455.6	41.3036	15455.6	56.3238	15455.6	57.111
16000.5	82.2466	16000.5	80.5427	16000.5	81.3745	16000.5	78.3032	16000.5	79.354	16000.5	73.2195	16000.5	75.83	16000.5	66.5281	16000.5	70.4626	16000.5	57.7676	16000.5	65.0406	16000.5	44.2041	16000.5	54.7068	16000.5	51.9085	16000.5	49.9098	16000.5	51.0206	16000.5	46.5277	16000.5	47.9659	16000.5	40.3618	16000.5	49.1641	16000.5	40.1591	16000.5	46.5887	16000.5	45.8961	16000.5	49.9331	16000.5	40.9112	16000.5	53.1593	16000.5	44.3125	16000.5	55.7491	16000.5	54.164	16000.5	50.4675	16000.5	51.0685	16000.5	57.6169	16000.5	53.8082	16000.5	50.6213	16000.5	50.7323	16000.5	58.534
16564.5	81.9489	16564.5	80.9997	16564.5	81.6014	16564.5	77.6569	16564.5	78.7421	16564.5	71.9306	16564.5	73.9887	16564.5	65.0071	16564.5	68.5626	16564.5	28.6561	16564.5	60.1999	16564.5	50.5854	16564.5	50.1514	16564.5	46.1201	16564.5	36.878	16564.5	52.9014	16564.5	33.997	16564.5	50.4619	16564.5	42.9983	16564.5	50.6345	16564.5	40.5853	16564.5	50.5764	16564.5	45.6222	16564.5	38.1964	16564.5	48.0508	16564.5	40.7041	16564.5	47.1401	16564.5	52.0484	16564.5	47.4239	16564.5	53.1935	16564.5	44.7245	16564.5	58.2624	16564.5	55.7341	16564.5	51.1035	16564.5	42.3681	16564.5	60.1152
17148.9	80.8924	17148.9	79.8588	17148.9	80.2158	17148.9	76.6065	17148.9	77.213	17148.9	70.0236	17148.9	72.3893	17148.9	63.6298	17148.9	65.2314	17148.9	48.6918	17148.9	53.9176	17148.9	52.9448	17148.9	39.5609	17148.9	40.3909	17148.9	32.8428	17148.9	49.0679	17148.9	38.914	17148.9	48.6854	17148.9	39.9539	17148.9	44.0407	17148.9	35.1219	17148.9	48.0171	17148.9	36.9593	17148.9	54.4809	17148.9	44.6889	17148.9	49.668	17148.9	41.3115	17148.9	50.8779	17148.9	44.7787	17148.9	48.6861	17148.9	45.1432	17148.9	58.5107	17148.9	58.5434	17148.9	53.218	17148.9	45.8265	17148.9	60.5827
17752.4	80.7565	17752.4	79.0787	17752.4	79.8292	17752.4	75.2079	17752.4	76.4373	17752.4	67.4417	17752.4	71.7563	17752.4	60.2699	17752.4	62.988	17752.4	49.5248	17752.4	45.038	17752.4	52.6589	17752.4	45.6925	17752.4	47.4583	17752.4	38.3808	17752.4	45.3111	17752.4	41.8738	17752.4	48.439	17752.4	41.7473	17752.4	45.1469	17752.4	38.4193	17752.4	52.1627	17752.4	47.156	17752.4	56.3332	17752.4	43.7124	17752.4	43.158	17752.4	53.3049	17752.4	39.161	17752.4	49.7265	17752.4	42.4407	17752.4	35.8782	17752.4	56.0844	17752.4	54.1788	17752.4	51.723	17752.4	51.0577	17752.4	52.8686
18379.4	79.623	18379.4	77.9901	18379.4	78.7695	18379.4	74.0587	18379.4	75.6977	18379.4	66.1117	18379.4	70.1941	18379.4	51.549	18379.4	58.1336	18379.4	55.8181	18379.4	31.0721	18379.4	54.6502	18379.4	44.272	18379.4	20.2462	18379.4	32.3411	18379.4	48.077	18379.4	37.7703	18379.4	48.2103	18379.4	38.3339	18379.4	47.9178	18379.4	39.8806	18379.4	46.9875	18379.4	48.4683	18379.4	54.5779	18379.4	43.681	18379.4	49.2803	18379.4	52.5347	18379.4	45.8573	18379.4	48.6778	18379.4	48.1224	18379.4	33.6043	18379.4	54.1518	18379.4	52.2012	18379.4	40.6021	18379.4	46.8732	18379.4	48.5104
19026.9	78.8487	19026.9	76.801	19026.9	77.5981	19026.9	72.1863	19026.9	73.7053	19026.9	63.8731	19026.9	68.2581	19026.9	51.8812	19026.9	53.0163	19026.9	55.5233	19026.9	47.4005	19026.9	51.6907	19026.9	40.4942	19026.9	36.384	19026.9	39.6679	19026.9	49.8714	19026.9	35.9561	19026.9	32.6852	19026.9	32.0207	19026.9	45.2958	19026.9	42.3512	19026.9	40.3752	19026.9	41.9828	19026.9	49.0783	19026.9	39.6193	19026.9	47.4069	19026.9	49.2409	19026.9	46.1525	19026.9	45.2874	19026.9	44.4504	19026.9	43.4125	19026.9	50.5006	19026.9	49.5028	19026.9	51.4038	19026.9	48.166	19026.9	45.3344
19697.8	77.0548	19697.8	76.0542	19697.8	76.7976	19697.8	70.5747	19697.8	72.0202	19697.8	57.8318	19697.8	64.1401	19697.8	57.3121	19697.8	43.4054	19697.8	58.2959	19697.8	52.4632	19697.8	50.087	19697.8	39.9086	19697.8	41.9395	19697.8	44.2173	19697.8	41.8845	19697.8	36.9779	19697.8	46.1376	19697.8	42.9522	19697.8	39.3945	19697.8	32.462	19697.8	38.1996	19697.8	38.4177	19697.8	46.4076	19697.8	47.135	19697.8	47.0508	19697.8	52.9059	19697.8	48.2941	19697.8	38.7203	19697.8	51.7441	19697.8	37.4342	19697.8	52.5317	19697.8	50.3672	19697.8	48.7781	19697.8	49.0315	19697.8	47.7451
19999.5	76.3609	19999.5	74.8075	19999.5	75.3939	19999.5	69.6989	19999.5	71.4956	19999.5	56.1769	19999.5	61.6036	19999.5	58.1452	19999.5	41.9594	19999.5	56.3102	19999.5	47.8001	19999.5	51.441	19999.5	46.3476	19999.5	37.3323	19999.5	45.3136	19999.5	45.754	19999.5	40.5071	19999.5	45.0103	19999.5	43.6645	19999.5	45.6711	19999.5	35.0312	19999.5	41.244	19999.5	41.3353	19999.5	48.6742	19999.5	42.1361	19999.5	45.2474	19999.5	47.9405	19999.5	52.478	19999.5	39.33	19999.5	54.2742	19999.5	33.1964	19999.5	52.8263	19999.5	44.1209	19999.5	48.2573	19999.5	50.2071	19999.5	39.2631
