"SPL Vertical"
"On-Axis"		"10°"		"-10°"		"20°"		"-20°"		"30°"		"-30°"		"40°"		"-40°"		"50°"		"-50°"		"60°"		"-60°"		"70°"		"-70°"		"80°"		"-80°"		"90°"		"-90°"		"100°"		"-100°"		"110°"		"-110°"		"120°"		"-120°"		"130°"		"-130°"		"140°"		"-140°"		"150°"		"-150°"		"160°"		"-160°"		"170°"		"-170°"		"180°"
"Frequency [Hz]"	"Sound Pessure Level [dB]  / [2.83V 1m] "	"Frequency [Hz]"	"Sound Pessure Level [dB]  / [2.83V 1m] "	"Frequency [Hz]"	"Sound Pessure Level [dB]  / [2.83V 1m] "	"Frequency [Hz]"	"Sound Pessure Level [dB]  / [2.83V 1m] "	"Frequency [Hz]"	"Sound Pessure Level [dB]  / [2.83V 1m] "	"Frequency [Hz]"	"Sound Pessure Level [dB]  / [2.83V 1m] "	"Frequency [Hz]"	"Sound Pessure Level [dB]  / [2.83V 1m] "	"Frequency [Hz]"	"Sound Pessure Level [dB]  / [2.83V 1m] "	"Frequency [Hz]"	"Sound Pessure Level [dB]  / [2.83V 1m] "	"Frequency [Hz]"	"Sound Pessure Level [dB]  / [2.83V 1m] "	"Frequency [Hz]"	"Sound Pessure Level [dB]  / [2.83V 1m] "	"Frequency [Hz]"	"Sound Pessure Level [dB]  / [2.83V 1m] "	"Frequency [Hz]"	"Sound Pessure Level [dB]  / [2.83V 1m] "	"Frequency [Hz]"	"Sound Pessure Level [dB]  / [2.83V 1m] "	"Frequency [Hz]"	"Sound Pessure Level [dB]  / [2.83V 1m] "	"Frequency [Hz]"	"Sound Pessure Level [dB]  / [2.83V 1m] "	"Frequency [Hz]"	"Sound Pessure Level [dB]  / [2.83V 1m] "	"Frequency [Hz]"	"Sound Pessure Level [dB]  / [2.83V 1m] "	"Frequency [Hz]"	"Sound Pessure Level [dB]  / [2.83V 1m] "	"Frequency [Hz]"	"Sound Pessure Level [dB]  / [2.83V 1m] "	"Frequency [Hz]"	"Sound Pessure Level [dB]  / [2.83V 1m] "	"Frequency [Hz]"	"Sound Pessure Level [dB]  / [2.83V 1m] "	"Frequency [Hz]"	"Sound Pessure Level [dB]  / [2.83V 1m] "	"Frequency [Hz]"	"Sound Pessure Level [dB]  / [2.83V 1m] "	"Frequency [Hz]"	"Sound Pessure Level [dB]  / [2.83V 1m] "	"Frequency [Hz]"	"Sound Pessure Level [dB]  / [2.83V 1m] "	"Frequency [Hz]"	"Sound Pessure Level [dB]  / [2.83V 1m] "	"Frequency [Hz]"	"Sound Pessure Level [dB]  / [2.83V 1m] "	"Frequency [Hz]"	"Sound Pessure Level [dB]  / [2.83V 1m] "	"Frequency [Hz]"	"Sound Pessure Level [dB]  / [2.83V 1m] "	"Frequency [Hz]"	"Sound Pessure Level [dB]  / [2.83V 1m] "	"Frequency [Hz]"	"Sound Pessure Level [dB]  / [2.83V 1m] "	"Frequency [Hz]"	"Sound Pessure Level [dB]  / [2.83V 1m] "	"Frequency [Hz]"	"Sound Pessure Level [dB]  / [2.83V 1m] "	"Frequency [Hz]"	"Sound Pessure Level [dB]  / [2.83V 1m] "	"Frequency [Hz]"	"Sound Pessure Level [dB]  / [2.83V 1m] "
20.5078	59.038	20.5078	59.0311	20.5078	58.882	20.5078	58.8602	20.5078	58.5604	20.5078	58.5207	20.5078	58.0669	20.5078	58.0061	20.5078	57.3927	20.5078	57.3116	20.5078	56.5324	20.5078	56.4425	20.5078	55.4984	20.5078	55.435	20.5078	54.359	20.5078	54.3993	20.5078	53.3126	20.5078	53.5792	20.5078	52.7407	20.5078	53.3196	20.5078	52.9938	20.5078	53.795	20.5078	53.9779	20.5078	54.799	20.5078	55.2687	20.5078	55.9765	20.5078	56.527	20.5078	57.0824	20.5078	57.5945	20.5078	58.0023	20.5078	58.4167	20.5078	58.6928	20.5078	58.9805	20.5078	59.1398	20.5078	59.2865	20.5078	59.3385
21.9727	54.4299	21.9727	54.3082	21.9727	54.2247	21.9727	53.8477	21.9727	53.682	21.9727	53.0108	21.9727	52.7729	21.9727	51.7365	21.9727	51.4732	21.9727	49.9784	21.9727	49.8712	21.9727	47.963	21.9727	48.5578	21.9727	47.0645	21.9727	48.8858	21.9727	48.8521	21.9727	51.0112	21.9727	51.7864	21.9727	53.5792	21.9727	54.476	21.9727	55.886	21.9727	56.6901	21.9727	57.8106	21.9727	58.4804	21.9727	59.3798	21.9727	59.9176	21.9727	60.6367	21.9727	61.0548	21.9727	61.6162	21.9727	61.9271	21.9727	62.3426	21.9727	62.5568	21.9727	62.8321	21.9727	62.9574	21.9727	63.0947	21.9727	63.1359
23.4375	58.2095	23.4375	58.1444	23.4375	58.0913	23.4375	57.8981	23.4375	57.7938	23.4375	57.4805	23.4375	57.332	23.4375	56.9219	23.4375	56.7498	23.4375	56.299	23.4375	56.1523	23.4375	55.7757	23.4375	55.7447	23.4375	55.6121	23.4375	55.8013	23.4375	56.038	23.4375	56.4767	23.4375	57.0373	23.4375	57.6441	23.4375	58.3634	23.4375	59.0263	23.4375	59.7588	23.4375	60.4001	23.4375	61.0663	23.4375	61.6455	23.4375	62.2129	23.4375	62.7104	23.4375	63.1698	23.4375	63.5758	23.4375	63.9275	23.4375	64.2364	23.4375	64.4838	23.4375	64.6918	23.4375	64.8385	23.4375	64.9432	23.4375	64.9918
24.9023	60.2236	24.9023	60.2046	24.9023	60.0996	24.9023	60.0466	24.9023	59.8376	24.9023	59.7645	24.9023	59.4566	24.9023	59.3925	24.9023	59.0023	24.9023	58.9983	24.9023	58.5672	24.9023	58.6993	24.9023	58.3059	24.9023	58.6537	24.9023	58.4024	24.9023	58.9949	24.9023	58.9597	24.9023	59.7351	24.9023	59.9098	24.9023	60.7531	24.9023	61.0706	24.9023	61.8827	24.9023	62.2671	24.9023	62.9915	24.9023	63.3847	24.9023	63.9978	24.9023	64.362	24.9023	64.8578	24.9023	65.1693	24.9023	65.5492	24.9023	65.7933	24.9023	66.061	24.9023	66.2283	24.9023	66.3874	24.9023	66.4723	24.9023	66.5251
26.3672	61.9051	26.3672	61.8967	26.3672	61.7644	26.3672	61.7413	26.3672	61.4769	26.3672	61.4462	26.3672	61.0529	26.3672	61.03	26.3672	60.5213	26.3672	60.5356	26.3672	59.9503	26.3672	60.0507	26.3672	59.4735	26.3672	59.7242	26.3672	59.2915	26.3672	59.739	26.3672	59.5844	26.3672	60.2071	26.3672	60.3648	26.3672	61.0727	26.3672	61.4616	26.3672	62.159	26.3672	62.6606	26.3672	63.2879	26.3672	63.8083	26.3672	64.3402	26.3672	64.8208	26.3672	65.2509	26.3672	65.6587	26.3672	65.988	26.3672	66.3048	26.3672	66.5368	26.3672	66.7524	26.3672	66.8901	26.3672	66.9991	26.3672	67.0448
27.832	62.4911	27.832	62.4468	27.832	62.3704	27.832	62.2381	27.832	62.0901	27.832	61.8736	27.832	61.6667	27.832	61.3784	27.832	61.1409	27.832	60.814	27.832	60.6017	27.832	60.3072	27.832	60.2123	27.832	60.064	27.832	60.19	27.832	60.2957	27.832	60.6824	27.832	61.0542	27.832	61.6331	27.832	62.1783	27.832	62.8335	27.832	63.4377	27.832	64.079	27.832	64.662	27.832	65.24	27.832	65.7584	27.832	66.2507	27.832	66.6844	27.832	67.082	27.832	67.4222	27.832	67.7217	27.832	67.9654	27.832	68.1654	27.832	68.3117	27.832	68.4119	27.832	68.4606
29.2969	62.8879	29.2969	62.8255	29.2969	62.786	29.2969	62.6	29.2969	62.5284	29.2969	62.2246	29.2969	62.1398	29.2969	61.7366	29.2969	61.6755	29.2969	61.2206	29.2969	61.2464	29.2969	60.8364	29.2969	61.0323	29.2969	60.8067	29.2969	61.2309	29.2969	61.2971	29.2969	61.9222	29.2969	62.2678	29.2969	62.9933	29.2969	63.5112	29.2969	64.2373	29.2969	64.8146	29.2969	65.4813	29.2969	66.0419	29.2969	66.6225	29.2969	67.1245	29.2969	67.6096	29.2969	68.0322	29.2969	68.4196	29.2969	68.753	29.2969	69.0428	29.2969	69.2827	29.2969	69.4755	29.2969	69.6199	29.2969	69.7162	29.2969	69.7644
30.7617	63.7981	30.7617	63.7479	30.7617	63.714	30.7617	63.5673	30.7617	63.506	30.7617	63.2769	30.7617	63.2038	30.7617	62.9238	30.7617	62.8686	30.7617	62.5969	30.7617	62.6066	30.7617	62.4352	30.7617	62.5655	30.7617	62.5951	30.7617	62.8808	30.7617	63.162	30.7617	63.5861	30.7617	64.0816	30.7617	64.5847	30.7617	65.2023	30.7617	65.7208	30.7617	66.3702	30.7617	66.8596	30.7617	67.4783	30.7617	67.9139	30.7617	68.4652	30.7617	68.8351	30.7617	69.2994	30.7617	69.5981	30.7617	69.9652	30.7617	70.1903	30.7617	70.455	30.7617	70.6055	30.7617	70.7651	30.7617	70.8405	30.7617	70.8938
32.2266	65.9142	32.2266	65.8859	32.2266	65.8368	32.2266	65.7545	32.2266	65.6637	32.2266	65.5368	32.2266	65.4204	32.2266	65.2693	32.2266	65.1544	32.2266	65.0174	32.2266	64.9429	32.2266	64.8789	32.2266	64.8894	32.2266	64.9659	32.2266	65.094	32.2266	65.3559	32.2266	65.6019	32.2266	66.0418	32.2266	66.3718	32.2266	66.9344	32.2266	67.301	32.2266	67.9155	32.2266	68.278	32.2266	68.8839	32.2266	69.2157	32.2266	69.7706	32.2266	70.0569	32.2266	70.5338	32.2266	70.7671	32.2266	71.1498	32.2266	71.3264	32.2266	71.6052	32.2266	71.7235	32.2266	71.8927	32.2266	71.952	32.2266	72.0087
33.6914	66.8553	33.6914	66.8165	33.6914	66.7855	33.6914	66.6716	33.6914	66.6163	33.6914	66.4372	33.6914	66.372	33.6914	66.1498	33.6914	66.0983	33.6914	65.8753	33.6914	65.8702	33.6914	65.7128	33.6914	65.7896	33.6914	65.7779	33.6914	65.9594	33.6914	66.1518	33.6914	66.4314	33.6914	66.8286	33.6914	67.1715	33.6914	67.7176	33.6914	68.0801	33.6914	68.6974	33.6914	69.0449	33.6914	69.6647	33.6914	69.9762	33.6914	70.5496	33.6914	70.8145	33.6914	71.3104	33.6914	71.524	33.6914	71.9232	33.6914	72.0839	33.6914	72.3753	33.6914	72.4824	33.6914	72.6595	33.6914	72.7131	33.6914	72.7724
35.1562	67.4505	35.1562	67.4067	35.1562	67.4099	35.1562	67.2843	35.1562	67.2948	35.1562	67.1061	35.1562	67.1326	35.1562	66.9166	35.1562	66.9722	35.1562	66.7862	35.1562	66.8862	35.1562	66.8047	35.1562	66.9614	35.1562	67.0549	35.1562	67.27	35.1562	67.5719	35.1562	67.8323	35.1562	68.3201	35.1562	68.6032	35.1562	69.2132	35.1562	69.4962	35.1562	70.1551	35.1562	70.4208	35.1562	71.0675	35.1562	71.3051	35.1562	71.8963	35.1562	72.0996	35.1562	72.6074	35.1562	72.7729	35.1562	73.1803	35.1562	73.3059	35.1562	73.6026	35.1562	73.687	35.1562	73.867	35.1562	73.9094	35.1562	73.9698
36.6211	68.8328	36.6211	68.8028	36.6211	68.8	36.6211	68.7155	36.6211	68.7128	36.6211	68.5914	36.6211	68.5949	36.6211	68.4685	36.6211	68.4872	36.6211	68.4028	36.6211	68.4479	36.6211	68.4624	36.6211	68.5439	36.6211	68.7079	36.6211	68.8306	36.6211	69.1667	36.6211	69.326	36.6211	69.8166	36.6211	70.0004	36.6211	70.596	36.6211	70.7891	36.6211	71.4294	36.6211	71.6181	36.6211	72.2491	36.6211	72.423	36.6211	73.0038	36.6211	73.156	36.6211	73.6581	36.6211	73.784	36.6211	74.1891	36.6211	74.2856	36.6211	74.5818	36.6211	74.6471	36.6211	74.8274	36.6211	74.8603	36.6211	74.9208
38.0859	69.9049	38.0859	69.891	38.0859	69.862	38.0859	69.8251	38.0859	69.77	38.0859	69.726	38.0859	69.6511	38.0859	69.6272	38.0859	69.5435	38.0859	69.5772	38.0859	69.5006	38.0859	69.6345	38.0859	69.5838	38.0859	69.8525	38.0859	69.8443	38.0859	70.2584	38.0859	70.3009	38.0859	70.839	38.0859	70.9288	38.0859	71.5454	38.0859	71.6701	38.0859	72.3125	38.0859	72.4559	38.0859	73.0772	38.0859	73.2243	38.0859	73.7893	38.0859	73.9276	38.0859	74.4122	38.0859	74.5325	38.0859	74.9211	38.0859	75.0167	38.0859	75.2997	38.0859	75.3659	38.0859	75.5376	38.0859	75.5714	38.0859	75.629
39.5508	71.2505	39.5508	71.2518	39.5508	71.1973	39.5508	71.2043	39.5508	71.1	39.5508	71.1223	39.5508	70.978	39.5508	71.0326	39.5508	70.864	39.5508	70.9747	39.5508	70.8036	39.5508	70.9975	39.5508	70.8494	39.5508	71.1493	39.5508	71.0479	39.5508	71.4614	39.5508	71.4212	39.5508	71.9341	39.5508	71.9557	39.5508	72.5345	39.5508	72.6064	39.5508	73.2088	39.5508	73.3133	39.5508	73.899	39.5508	74.0181	39.5508	74.5544	39.5508	74.6728	39.5508	75.136	39.5508	75.2422	39.5508	75.6158	39.5508	75.7016	39.5508	75.9749	39.5508	76.0349	39.5508	76.2013	39.5508	76.2321	39.5508	76.2879
41.0156	71.8945	41.0156	71.8888	41.0156	71.8517	41.0156	71.8363	41.0156	71.7694	41.0156	71.75	41.0156	71.6681	41.0156	71.6559	41.0156	71.58	41.0156	71.5932	41.0156	71.5484	41.0156	71.6114	41.0156	71.6214	41.0156	71.7603	41.0156	71.8396	41.0156	72.0723	41.0156	72.2205	41.0156	72.548	41.0156	72.7497	41.0156	73.1539	41.0156	73.3851	41.0156	73.8351	41.0156	74.0716	41.0156	74.5322	41.0156	74.7549	41.0156	75.1938	41.0156	75.3898	41.0156	75.7807	41.0156	75.9423	41.0156	76.2651	41.0156	76.3883	41.0156	76.6283	41.0156	76.7111	41.0156	76.8588	41.0156	76.9003	41.0156	76.9502
42.4805	72.1237	42.4805	72.0999	42.4805	72.1237	42.4805	72.057	42.4805	72.106	42.4805	72.0108	42.4805	72.0874	42.4805	71.9881	42.4805	72.0947	42.4805	72.0247	42.4805	72.1621	42.4805	72.1596	42.4805	72.3254	42.4805	72.4238	42.4805	72.6122	42.4805	72.8288	42.4805	73.031	42.4805	73.3604	42.4805	73.5666	42.4805	73.9825	42.4805	74.1838	42.4805	74.6482	42.4805	74.8374	42.4805	75.3107	42.4805	75.4825	42.4805	75.9302	42.4805	76.0804	42.4805	76.4754	42.4805	76.6005	42.4805	76.9237	42.4805	77.0207	42.4805	77.2593	42.4805	77.3256	42.4805	77.4715	42.4805	77.5052	42.4805	77.5542
43.9453	73.7563	43.9453	73.7512	43.9453	73.7368	43.9453	73.7235	43.9453	73.6992	43.9453	73.6847	43.9453	73.6585	43.9453	73.6549	43.9453	73.6387	43.9453	73.6625	43.9453	73.6698	43.9453	73.7407	43.9453	73.7841	43.9453	73.9202	43.9453	74.0079	43.9453	74.2196	43.9453	74.3524	43.9453	74.6381	43.9453	74.8085	43.9453	75.1532	43.9453	75.3482	43.9453	75.7277	43.9453	75.9321	43.9453	76.3188	43.9453	76.518	43.9453	76.886	43.9453	77.068	43.9453	77.3954	43.9453	77.5509	43.9453	77.821	43.9453	77.9431	43.9453	78.1438	43.9453	78.2278	43.9453	78.3512	43.9453	78.3939	43.9453	78.4355
45.4102	74.797	45.4102	74.7864	45.4102	74.7863	45.4102	74.7571	45.4102	74.7598	45.4102	74.7193	45.4102	74.7306	45.4102	74.6917	45.4102	74.719	45.4102	74.6996	45.4102	74.7512	45.4102	74.7727	45.4102	74.8553	45.4102	74.9381	45.4102	75.055	45.4102	75.2132	45.4102	75.3623	45.4102	75.5978	45.4102	75.7719	45.4102	76.0734	45.4102	76.2617	45.4102	76.6072	45.4102	76.7977	45.4102	77.1601	45.4102	77.3417	45.4102	77.694	45.4102	77.8575	45.4102	78.176	45.4102	78.3144	45.4102	78.5801	45.4102	78.6883	45.4102	78.8873	45.4102	78.9614	45.4102	79.0844	45.4102	79.122	45.4102	79.1636
46.875	75.5533	46.875	75.5382	46.875	75.5573	46.875	75.5154	46.875	75.5539	46.875	75.4957	46.875	75.5539	46.875	75.4959	46.875	75.5742	46.875	75.5383	46.875	75.6365	46.875	75.6467	46.875	75.7638	46.875	75.8412	46.875	75.9751	46.875	76.1324	46.875	76.2794	46.875	76.5168	46.875	76.6721	46.875	76.9765	46.875	77.1342	46.875	77.4829	46.875	77.6369	46.875	78.0022	46.875	78.1467	46.875	78.5016	46.875	78.6311	46.875	78.9518	46.875	79.0615	46.875	79.3291	46.875	79.4152	46.875	79.6156	46.875	79.6748	46.875	79.7987	46.875	79.8288	46.875	79.8707
48.3398	76.4271	48.3398	76.4231	48.3398	76.4242	48.3398	76.4147	48.3398	76.4182	48.3398	76.4104	48.3398	76.4191	48.3398	76.4242	48.3398	76.4419	48.3398	76.4745	48.3398	76.5057	48.3398	76.5812	48.3398	76.6303	48.3398	76.7618	48.3398	76.8318	48.3398	77.0264	48.3398	77.1179	48.3398	77.3736	48.3398	77.4844	48.3398	77.79	48.3398	77.9147	48.3398	78.2516	48.3398	78.3832	48.3398	78.7291	48.3398	78.8596	48.3398	79.1921	48.3398	79.3138	48.3398	79.6127	48.3398	79.7187	48.3398	79.9675	48.3398	80.0521	48.3398	80.2384	48.3398	80.2972	48.3398	80.4123	48.3398	80.4425	48.3398	80.4814
51.2695	78.1153	51.2695	78.1141	51.2695	78.1187	51.2695	78.1169	51.2695	78.1269	51.2695	78.1296	51.2695	78.1469	51.2695	78.1621	51.2695	78.1889	51.2695	78.2272	51.2695	78.2661	51.2695	78.3383	51.2695	78.3915	51.2695	78.5075	51.2695	78.5763	51.2695	78.7416	51.2695	78.8258	51.2695	79.0401	51.2695	79.1376	51.2695	79.3935	51.2695	79.5005	51.2695	79.7844	51.2695	79.8959	51.2695	80.1905	51.2695	80.3005	51.2695	80.5869	51.2695	80.6895	51.2695	80.9498	51.2695	81.0394	51.2695	81.2581	51.2695	81.33	51.2695	81.4948	51.2695	81.545	51.2695	81.6473	51.2695	81.6731	51.2695	81.7077
52.7344	78.8221	52.7344	78.8227	52.7344	78.8221	52.7344	78.8253	52.7344	78.8257	52.7344	78.8355	52.7344	78.8395	52.7344	78.8625	52.7344	78.8735	52.7344	78.9182	52.7344	78.9402	52.7344	79.0158	52.7344	79.0523	52.7344	79.1672	52.7344	79.2205	52.7344	79.3799	52.7344	79.4504	52.7344	79.6543	52.7344	79.7403	52.7344	79.9826	52.7344	80.0804	52.7344	80.3491	52.7344	80.4532	52.7344	80.7326	52.7344	80.837	52.7344	81.1094	52.7344	81.2078	52.7344	81.456	52.7344	81.5426	52.7344	81.7517	52.7344	81.8214	52.7344	81.9794	52.7344	82.0283	52.7344	82.1265	52.7344	82.1516	52.7344	82.1849
54.1992	79.4713	54.1992	79.4715	54.1992	79.4762	54.1992	79.4778	54.1992	79.4883	54.1992	79.4952	54.1992	79.5135	54.1992	79.5317	54.1992	79.5601	54.1992	79.5975	54.1992	79.6385	54.1992	79.7038	54.1992	79.759	54.1992	79.86	54.1992	79.9302	54.1992	80.0719	54.1992	80.1563	54.1992	80.3391	54.1992	80.4352	54.1992	80.6542	54.1992	80.7582	54.1992	81.0028	54.1992	81.1099	54.1992	81.3659	54.1992	81.4708	54.1992	81.722	54.1992	81.8193	54.1992	82.0497	54.1992	82.1344	54.1992	82.3294	54.1992	82.3971	54.1992	82.545	54.1992	82.5922	54.1992	82.6844	54.1992	82.7087	54.1992	82.74
55.6641	80.1207	55.6641	80.1217	55.6641	80.127	55.6641	80.1311	55.6641	80.1422	55.6641	80.153	55.6641	80.1709	55.6641	80.1941	55.6641	80.2203	55.6641	80.2629	55.6641	80.2988	55.6641	80.3685	55.6641	80.4153	55.6641	80.5188	55.6641	80.5771	55.6641	80.7185	55.6641	80.788	55.6641	80.9674	55.6641	81.0468	55.6641	81.2592	55.6641	81.3458	55.6641	81.5818	55.6641	81.6719	55.6641	81.9183	55.6641	82.0076	55.6641	82.2493	55.6641	82.3331	55.6641	82.5549	55.6641	82.6286	55.6641	82.8166	55.6641	82.876	55.6641	83.0188	55.6641	83.0604	55.6641	83.1495	55.6641	83.171	55.6641	83.2013
58.5938	81.3313	58.5938	81.3342	58.5938	81.3401	58.5938	81.3498	58.5938	81.3617	58.5938	81.3813	58.5938	81.3992	58.5938	81.4333	58.5938	81.4575	58.5938	81.5119	58.5938	81.5423	58.5938	81.6227	58.5938	81.6597	58.5938	81.7709	58.5938	81.8144	58.5938	81.9587	58.5938	82.0086	58.5938	82.1851	58.5938	82.2408	58.5938	82.4448	58.5938	82.505	58.5938	82.7281	58.5938	82.7909	58.5938	83.0216	58.5938	83.0845	58.5938	83.3098	58.5938	83.3694	58.5938	83.5759	58.5938	83.6289	58.5938	83.8041	58.5938	83.8471	58.5938	83.9804	58.5938	84.0108	58.5938	84.0941	58.5938	84.1098	58.5938	84.1381
60.0586	81.8538	60.0586	81.8589	60.0586	81.8627	60.0586	81.8787	60.0586	81.8866	60.0586	81.9156	60.0586	81.9284	60.0586	81.9734	60.0586	81.9919	60.0586	82.0569	60.0586	82.0819	60.0586	82.1706	60.0586	82.2029	60.0586	82.3184	60.0586	82.3583	60.0586	82.5019	60.0586	82.5494	60.0586	82.7197	60.0586	82.7742	60.0586	82.9669	60.0586	83.0268	60.0586	83.2346	60.0586	83.2977	60.0586	83.5109	60.0586	83.5742	60.0586	83.7814	60.0586	83.8417	60.0586	84.0312	60.0586	84.0849	60.0586	84.2453	60.0586	84.2891	60.0586	84.4111	60.0586	84.442	60.0586	84.5182	60.0586	84.5343	60.0586	84.5602
62.9883	83.0299	62.9883	83.0361	62.9883	83.0382	62.9883	83.0571	62.9883	83.0615	62.9883	83.0944	62.9883	83.1016	62.9883	83.1503	62.9883	83.1611	62.9883	83.2276	62.9883	83.2429	62.9883	83.3294	62.9883	83.3502	62.9883	83.4581	62.9883	83.4852	62.9883	83.6148	62.9883	83.6488	62.9883	83.7987	62.9883	83.8395	62.9883	84.0063	62.9883	84.053	62.9883	84.2312	62.9883	84.2822	62.9883	84.464	62.9883	84.5168	62.9883	84.6933	62.9883	84.7449	62.9883	84.9064	62.9883	84.9532	62.9883	85.0903	62.9883	85.129	62.9883	85.2335	62.9883	85.2612	62.9883	85.3265	62.9883	85.341	62.9883	85.3632
64.4531	83.5429	64.4531	83.5494	64.4531	83.5519	64.4531	83.572	64.4531	83.5771	64.4531	83.6116	64.4531	83.6196	64.4531	83.6699	64.4531	83.6813	64.4531	83.749	64.4531	83.7642	64.4531	83.8509	64.4531	83.8705	64.4531	83.9772	64.4531	84.0018	64.4531	84.1284	64.4531	84.1582	64.4531	84.3033	64.4531	84.3383	64.4531	84.4986	64.4531	84.5383	64.4531	84.7086	64.4531	84.7517	64.4531	84.9249	64.4531	84.9696	64.4531	85.1375	64.4531	85.1812	64.4531	85.3347	64.4531	85.3746	64.4531	85.5049	64.4531	85.538	64.4531	85.6373	64.4531	85.6611	64.4531	85.7233	64.4531	85.7357	64.4531	85.7569
67.3828	84.4788	67.3828	84.4825	67.3828	84.4933	67.3828	84.5044	67.3828	84.5259	67.3828	84.5451	67.3828	84.5769	67.3828	84.6051	67.3828	84.6468	67.3828	84.6852	67.3828	84.7361	67.3828	84.7859	67.3828	84.8451	67.3828	84.9075	67.3828	84.974	67.3828	85.0494	67.3828	85.1218	67.3828	85.2101	67.3828	85.2867	67.3828	85.3866	67.3828	85.4654	67.3828	85.5741	67.3828	85.6526	67.3828	85.7658	67.3828	85.8414	67.3828	85.9534	67.3828	86.0231	67.3828	86.1275	67.3828	86.1882	67.3828	86.2783	67.3828	86.3269	67.3828	86.3965	67.3828	86.4305	67.3828	86.4744	67.3828	86.4919	67.3828	86.507
68.8477	84.8557	68.8477	84.8549	68.8477	84.8757	68.8477	84.8737	68.8477	84.9149	68.8477	84.9124	68.8477	84.9729	68.8477	84.9712	68.8477	85.0496	68.8477	85.0505	68.8477	85.1446	68.8477	85.1502	68.8477	85.2576	68.8477	85.2701	68.8477	85.3879	68.8477	85.4095	68.8477	85.5343	68.8477	85.5663	68.8477	85.6945	68.8477	85.7377	68.8477	85.8654	68.8477	85.9189	68.8477	86.0423	68.8477	86.1037	68.8477	86.2189	68.8477	86.2844	68.8477	86.3876	68.8477	86.4522	68.8477	86.5398	68.8477	86.598	68.8477	86.6667	68.8477	86.713	68.8477	86.7604	68.8477	86.7902	68.8477	86.8144	68.8477	86.8247
71.7773	85.7794	71.7773	85.7745	71.7773	85.8032	71.7773	85.7889	71.7773	85.8447	71.7773	85.8232	71.7773	85.903	71.7773	85.8773	71.7773	85.9769	71.7773	85.9509	71.7773	86.0652	71.7773	86.0433	71.7773	86.1666	71.7773	86.1531	71.7773	86.2802	71.7773	86.2787	71.7773	86.4044	71.7773	86.4176	71.7773	86.5378	71.7773	86.5668	71.7773	86.678	71.7773	86.7219	71.7773	86.8218	71.7773	86.878	71.7773	86.965	71.7773	87.0287	71.7773	87.102	71.7773	87.1673	71.7773	87.2263	71.7773	87.2865	71.7773	87.331	71.7773	87.3796	71.7773	87.4094	71.7773	87.441	71.7773	87.4559	71.7773	87.4669
74.707	86.6055	74.707	86.608	74.707	86.6206	74.707	86.6285	74.707	86.6522	74.707	86.6675	74.707	86.6994	74.707	86.7245	74.707	86.7608	74.707	86.7988	74.707	86.8351	74.707	86.8887	74.707	86.921	74.707	86.9924	74.707	87.0172	74.707	87.107	74.707	87.1223	74.707	87.2297	74.707	87.2347	74.707	87.3571	74.707	87.3525	74.707	87.4856	74.707	87.4733	74.707	87.611	74.707	87.5937	74.707	87.729	74.707	87.7097	74.707	87.8349	74.707	87.8162	74.707	87.9235	74.707	87.9077	74.707	87.9902	74.707	87.9788	74.707	88.0307	74.707	88.0248	74.707	88.0425
77.6367	87.287	77.6367	87.2995	77.6367	87.2933	77.6367	87.3304	77.6367	87.3178	77.6367	87.3788	77.6367	87.3596	77.6367	87.443	77.6367	87.4171	77.6367	87.5208	77.6367	87.4882	77.6367	87.6095	77.6367	87.5709	77.6367	87.7062	77.6367	87.6628	77.6367	87.8082	77.6367	87.7616	77.6367	87.9128	77.6367	87.8651	77.6367	88.0177	77.6367	87.971	77.6367	88.1206	77.6367	88.0772	77.6367	88.2193	77.6367	88.1808	77.6367	88.3112	77.6367	88.2789	77.6367	88.3932	77.6367	88.3677	77.6367	88.4619	77.6367	88.4432	77.6367	88.5136	77.6367	88.5015	77.6367	88.5451	77.6367	88.5391	77.6367	88.5539
79.1016	87.5827	79.1016	87.5966	79.1016	87.5881	79.1016	87.6294	79.1016	87.6125	79.1016	87.6795	79.1016	87.6547	79.1016	87.745	79.1016	87.7127	79.1016	87.823	79.1016	87.7842	79.1016	87.9105	79.1016	87.8666	79.1016	88.0044	79.1016	87.9572	79.1016	88.1018	79.1016	88.0532	79.1016	88.2003	79.1016	88.1524	79.1016	88.2977	79.1016	88.2524	79.1016	88.3922	79.1016	88.3512	79.1016	88.482	79.1016	88.4465	79.1016	88.5651	79.1016	88.5358	79.1016	88.6389	79.1016	88.616	79.1016	88.7006	79.1016	88.684	79.1016	88.747	79.1016	88.7362	79.1016	88.7752	79.1016	88.7699	79.1016	88.7831
82.0312	88.105	82.0312	88.1136	82.0312	88.1158	82.0312	88.1412	82.0312	88.1455	82.0312	88.1864	82.0312	88.1926	82.0312	88.2468	82.0312	88.2546	82.0312	88.3197	82.0312	88.3288	82.0312	88.4017	82.0312	88.4118	82.0312	88.4897	82.0312	88.5005	82.0312	88.5807	82.0312	88.5918	82.0312	88.6721	82.0312	88.6832	82.0312	88.7617	82.0312	88.7724	82.0312	88.8478	82.0312	88.8576	82.0312	88.9286	82.0312	88.9373	82.0312	89.0026	82.0312	89.0099	82.0312	89.0678	82.0312	89.0737	82.0312	89.122	82.0312	89.1264	82.0312	89.1632	82.0312	89.1661	82.0312	89.1891	82.0312	89.1905	82.0312	89.1984
84.9609	88.5841	84.9609	88.5918	84.9609	88.5955	84.9609	88.6183	84.9609	88.6256	84.9609	88.662	84.9609	88.6727	84.9609	88.7205	84.9609	88.7343	84.9609	88.7909	84.9609	88.8074	84.9609	88.8698	84.9609	88.8883	84.9609	88.9537	84.9609	88.9734	84.9609	89.0393	84.9609	89.0593	84.9609	89.1237	84.9609	89.143	84.9609	89.2045	84.9609	89.2222	84.9609	89.28	84.9609	89.2953	84.9609	89.3487	84.9609	89.3612	84.9609	89.4096	84.9609	89.4191	84.9609	89.4618	84.9609	89.4685	84.9609	89.5041	84.9609	89.5084	84.9609	89.5354	84.9609	89.5379	84.9609	89.5549	84.9609	89.556	84.9609	89.5618
87.8906	88.9604	87.8906	88.9668	87.8906	88.9744	87.8906	88.9929	87.8906	89.0079	87.8906	89.0369	87.8906	89.0587	87.8906	89.0959	87.8906	89.1236	87.8906	89.1662	87.8906	89.1985	87.8906	89.2436	87.8906	89.279	87.8906	89.3237	87.8906	89.3607	87.8906	89.4028	87.8906	89.4395	87.8906	89.4776	87.8906	89.5124	87.8906	89.5455	87.8906	89.577	87.8906	89.6052	87.8906	89.6322	87.8906	89.6559	87.8906	89.6779	87.8906	89.6978	87.8906	89.7146	87.8906	89.7311	87.8906	89.7432	87.8906	89.7565	87.8906	89.7646	87.8906	89.7745	87.8906	89.7794	87.8906	89.7856	87.8906	89.7878	87.8906	89.7899
90.8203	89.2808	90.8203	89.2864	90.8203	89.2907	90.8203	89.3068	90.8203	89.3158	90.8203	89.3402	90.8203	89.3545	90.8203	89.384	90.8203	89.4041	90.8203	89.435	90.8203	89.4612	90.8203	89.4898	90.8203	89.5219	90.8203	89.5449	90.8203	89.5821	90.8203	89.5973	90.8203	89.6383	90.8203	89.6445	90.8203	89.6875	90.8203	89.685	90.8203	89.7279	90.8203	89.7179	90.8203	89.7587	90.8203	89.7435	90.8203	89.7804	90.8203	89.7624	90.8203	89.794	90.8203	89.776	90.8203	89.8015	90.8203	89.7856	90.8203	89.8046	90.8203	89.7923	90.8203	89.8048	90.8203	89.7971	90.8203	89.8034	90.8203	89.8008
95.2148	89.4617	95.2148	89.461	95.2148	89.4791	95.2148	89.4767	95.2148	89.512	95.2148	89.5077	95.2148	89.5584	95.2148	89.5517	95.2148	89.6153	95.2148	89.6058	95.2148	89.6789	95.2148	89.6661	95.2148	89.7446	95.2148	89.7287	95.2148	89.8083	95.2148	89.7894	95.2148	89.866	95.2148	89.8448	95.2148	89.9143	95.2148	89.8919	95.2148	89.9514	95.2148	89.9291	95.2148	89.9766	95.2148	89.9558	95.2148	89.9908	95.2148	89.9727	95.2148	89.9959	95.2148	89.9814	95.2148	89.9949	95.2148	89.9842	95.2148	89.9906	95.2148	89.9836	95.2148	89.9857	95.2148	89.9819	95.2148	89.9823	95.2148	89.9811
98.1445	89.5553	98.1445	89.5562	98.1445	89.5701	98.1445	89.5724	98.1445	89.5994	98.1445	89.6028	98.1445	89.6412	98.1445	89.6451	98.1445	89.6925	98.1445	89.6961	98.1445	89.7495	98.1445	89.7519	98.1445	89.8079	98.1445	89.8084	98.1445	89.8632	98.1445	89.8616	98.1445	89.9117	98.1445	89.9077	98.1445	89.9501	98.1445	89.9441	98.1445	89.9766	98.1445	89.9693	98.1445	89.9908	98.1445	89.9832	98.1445	89.9939	98.1445	89.987	98.1445	89.9885	98.1445	89.983	98.1445	89.978	98.1445	89.9741	98.1445	89.966	98.1445	89.9637	98.1445	89.9559	98.1445	89.9548	98.1445	89.9501	98.1445	89.9498
101.074	89.495	101.074	89.5008	101.074	89.5037	101.074	89.5208	101.074	89.5263	101.074	89.5536	101.074	89.5611	101.074	89.597	101.074	89.6056	101.074	89.648	101.074	89.6563	101.074	89.703	101.074	89.7091	101.074	89.758	101.074	89.7599	101.074	89.809	101.074	89.8045	101.074	89.8524	101.074	89.8399	101.074	89.8853	101.074	89.8641	101.074	89.9061	101.074	89.8765	101.074	89.9148	101.074	89.8783	101.074	89.9126	101.074	89.8721	101.074	89.9019	101.074	89.8614	101.074	89.8862	101.074	89.8502	101.074	89.8689	101.074	89.8419	101.074	89.8537	101.074	89.8392	101.074	89.8432
105.469	89.5238	105.469	89.549	105.469	89.5141	105.469	89.588	105.469	89.5201	105.469	89.6377	105.469	89.5405	105.469	89.6942	105.469	89.5727	105.469	89.7531	105.469	89.6125	105.469	89.8094	105.469	89.6553	105.469	89.8586	105.469	89.6959	105.469	89.8966	105.469	89.7296	105.469	89.9202	105.469	89.7527	105.469	89.9277	105.469	89.7633	105.469	89.9191	105.469	89.7609	105.469	89.8958	105.469	89.7475	105.469	89.861	105.469	89.7265	105.469	89.8189	105.469	89.7027	105.469	89.7744	105.469	89.6814	105.469	89.7327	105.469	89.6676	105.469	89.6984	105.469	89.6648	105.469	89.6751
108.398	89.6214	108.398	89.6321	108.398	89.6241	108.398	89.6553	108.398	89.6392	108.398	89.6882	108.398	89.6641	108.398	89.7271	108.398	89.6951	108.398	89.7674	108.398	89.7271	108.398	89.8043	108.398	89.7554	108.398	89.8333	108.398	89.7752	108.398	89.851	108.398	89.783	108.398	89.8549	108.398	89.7765	108.398	89.844	108.398	89.7554	108.398	89.8187	108.398	89.7213	108.398	89.7807	108.398	89.6777	108.398	89.7332	108.398	89.6296	108.398	89.6802	108.398	89.5829	108.398	89.6268	108.398	89.5437	108.398	89.5782	108.398	89.5173	108.398	89.5394	108.398	89.5072	108.398	89.5148
112.793	89.7973	112.793	89.794	112.793	89.8089	112.793	89.7993	112.793	89.8276	112.793	89.8119	112.793	89.8506	112.793	89.829	112.793	89.8745	112.793	89.8471	112.793	89.8948	112.793	89.8615	112.793	89.9068	112.793	89.8671	112.793	89.9057	112.793	89.8593	112.793	89.8874	112.793	89.834	112.793	89.8487	112.793	89.7884	112.793	89.7887	112.793	89.7223	112.793	89.7082	112.793	89.6376	112.793	89.6113	112.793	89.5396	112.793	89.5047	112.793	89.4359	112.793	89.3975	112.793	89.3365	112.793	89.3004	112.793	89.2523	112.793	89.2243	112.793	89.1934	112.793	89.1781	112.793	89.1674
117.188	89.6203	117.188	89.6249	117.188	89.6239	117.188	89.6379	117.188	89.6349	117.188	89.6584	117.188	89.6515	117.188	89.6845	117.188	89.6712	117.188	89.7132	117.188	89.6908	117.188	89.7404	117.188	89.7065	117.188	89.7617	117.188	89.7143	117.188	89.7722	117.188	89.7102	117.188	89.7676	117.188	89.6912	117.188	89.7446	117.188	89.6555	117.188	89.7021	117.188	89.6033	117.188	89.6411	117.188	89.5374	117.188	89.5655	117.188	89.4627	117.188	89.4817	117.188	89.3869	117.188	89.3982	117.188	89.3187	117.188	89.3244	117.188	89.267	117.188	89.2693	117.188	89.2392	117.188	89.2398
120.117	89.5613	120.117	89.5717	120.117	89.5577	120.117	89.5887	120.117	89.5603	120.117	89.6112	120.117	89.5676	120.117	89.637	120.117	89.5774	120.117	89.6631	120.117	89.5871	120.117	89.6856	120.117	89.5931	120.117	89.7002	120.117	89.5919	120.117	89.7024	120.117	89.5799	120.117	89.6887	120.117	89.5542	120.117	89.6563	120.117	89.5134	120.117	89.6046	120.117	89.4577	120.117	89.5353	120.117	89.3899	120.117	89.4524	120.117	89.315	120.117	89.3625	120.117	89.2401	120.117	89.274	120.117	89.1739	120.117	89.196	120.117	89.1249	120.117	89.1372	120.117	89.1002	120.117	89.1041
124.512	89.4218	124.512	89.4305	124.512	89.4182	124.512	89.4444	124.512	89.4193	124.512	89.4628	124.512	89.4242	124.512	89.4843	124.512	89.4314	124.512	89.507	124.512	89.4385	124.512	89.5276	124.512	89.4427	124.512	89.5425	124.512	89.4408	124.512	89.5475	124.512	89.4293	124.512	89.5388	124.512	89.4055	124.512	89.5136	124.512	89.3678	124.512	89.4703	124.512	89.3165	124.512	89.41	124.512	89.254	124.512	89.3358	124.512	89.1853	124.512	89.2536	124.512	89.1173	124.512	89.1709	124.512	89.0581	124.512	89.0965	124.512	89.0156	124.512	89.0387	124.512	88.9964	124.512	89.0041
128.906	89.2482	128.906	89.2461	128.906	89.2545	128.906	89.2486	128.906	89.264	128.906	89.2555	128.906	89.2756	128.906	89.2659	128.906	89.2873	128.906	89.278	128.906	89.2967	128.906	89.2888	128.906	89.3008	128.906	89.2948	128.906	89.2963	128.906	89.292	128.906	89.28	128.906	89.2766	128.906	89.2491	128.906	89.2458	128.906	89.2024	128.906	89.1982	128.906	89.1404	128.906	89.1349	128.906	89.0659	128.906	89.0593	128.906	88.9845	128.906	88.9772	128.906	88.9034	128.906	88.8963	128.906	88.8313	128.906	88.8254	128.906	88.7769	128.906	88.773	128.906	88.747	128.906	88.7456
133.301	89.126	133.301	89.1212	133.301	89.1328	133.301	89.1189	133.301	89.1407	133.301	89.1194	133.301	89.1491	133.301	89.1224	133.301	89.1565	133.301	89.1268	133.301	89.1615	133.301	89.1306	133.301	89.1615	133.301	89.1306	133.301	89.1538	133.301	89.1232	133.301	89.1353	133.301	89.1046	133.301	89.1034	133.301	89.0719	133.301	89.0565	133.301	89.0234	133.301	88.9947	133.301	88.96	133.301	88.9205	133.301	88.8849	133.301	88.8386	133.301	88.8038	133.301	88.7562	133.301	88.7248	133.301	88.6818	133.301	88.6566	133.301	88.624	133.301	88.6076	133.301	88.59	133.301	88.5843
139.16	88.8985	139.16	88.8946	139.16	88.9013	139.16	88.8896	139.16	88.9033	139.16	88.8835	139.16	88.9045	139.16	88.8761	139.16	88.9044	139.16	88.8669	139.16	88.9022	139.16	88.8549	139.16	88.8957	139.16	88.8381	139.16	88.8825	139.16	88.8142	139.16	88.8594	139.16	88.7806	139.16	88.8236	139.16	88.7356	139.16	88.7735	139.16	88.6781	139.16	88.7089	139.16	88.6095	139.16	88.6319	139.16	88.533	139.16	88.5472	139.16	88.4542	139.16	88.4614	139.16	88.3804	139.16	88.3827	139.16	88.3196	139.16	88.3194	139.16	88.2792	139.16	88.2785	139.16	88.2647
143.555	88.7143	143.555	88.7038	143.555	88.7228	143.555	88.6911	143.555	88.729	143.555	88.6765	143.555	88.7329	143.555	88.6602	143.555	88.734	143.555	88.642	143.555	88.7311	143.555	88.6212	143.555	88.7224	143.555	88.5965	143.555	88.7055	143.555	88.5659	143.555	88.6775	143.555	88.5275	143.555	88.6361	143.555	88.4796	143.555	88.5801	143.555	88.4214	143.555	88.5097	143.555	88.3541	143.555	88.4275	143.555	88.2808	143.555	88.3383	143.555	88.2066	143.555	88.2487	143.555	88.1382	143.555	88.1667	143.555	88.083	143.555	88.1002	143.555	88.048	143.555	88.056	143.555	88.0382
147.949	88.6207	147.949	88.6039	147.949	88.631	147.949	88.5805	147.949	88.635	147.949	88.5514	147.949	88.6331	147.949	88.5174	147.949	88.6255	147.949	88.4793	147.949	88.612	147.949	88.438	147.949	88.5914	147.949	88.3933	147.949	88.5622	147.949	88.3447	147.949	88.5222	147.949	88.2916	147.949	88.4697	147.949	88.233	147.949	88.4038	147.949	88.1688	147.949	88.3252	147.949	88.1002	147.949	88.2365	147.949	88.0297	147.949	88.1424	147.949	87.9615	147.949	88.0493	147.949	87.9011	147.949	87.9646	147.949	87.8545	147.949	87.8953	147.949	87.8276	147.949	87.8474	147.949	87.8245
153.809	88.4659	153.809	88.446	153.809	88.477	153.809	88.4176	153.809	88.4795	153.809	88.3813	153.809	88.4734	153.809	88.3381	153.809	88.4587	153.809	88.2886	153.809	88.4349	153.809	88.2336	153.809	88.4008	153.809	88.173	153.809	88.355	153.809	88.1066	153.809	88.2956	153.809	88.0339	153.809	88.2216	153.809	87.9546	153.809	88.1328	153.809	87.8695	153.809	88.0309	153.809	87.7804	153.809	87.9196	153.809	87.691	153.809	87.8049	153.809	87.6063	153.809	87.694	153.809	87.5324	153.809	87.595	153.809	87.4758	153.809	87.5156	153.809	87.4426	153.809	87.4618	153.809	87.4373
159.668	88.3871	159.668	88.3633	159.668	88.4003	159.668	88.3291	159.668	88.4031	159.668	88.2851	159.668	88.3962	159.668	88.2322	159.668	88.3798	159.668	88.1713	159.668	88.3538	159.668	88.1025	159.668	88.3171	159.668	88.0259	159.668	88.2679	159.668	87.941	159.668	88.2041	159.668	87.8479	159.668	88.1238	159.668	87.7472	159.668	88.0264	159.668	87.6411	159.668	87.913	159.668	87.5333	159.668	87.7874	159.668	87.4293	159.668	87.6555	159.668	87.3354	159.668	87.5253	159.668	87.2586	159.668	87.4058	159.668	87.2055	159.668	87.3058	159.668	87.1816	159.668	87.2323	159.668	87.1902
165.527	88.5639	165.527	88.5545	165.527	88.5622	165.527	88.5332	165.527	88.5505	165.527	88.5	165.527	88.5305	165.527	88.4553	165.527	88.5034	165.527	88.3996	165.527	88.4704	165.527	88.3336	165.527	88.4314	165.527	88.2578	165.527	88.3857	165.527	88.1726	165.527	88.3317	165.527	88.0791	165.527	88.2676	165.527	87.979	165.527	88.1921	165.527	87.8754	165.527	88.1052	165.527	87.7727	165.527	88.0083	165.527	87.6769	165.527	87.905	165.527	87.5943	165.527	87.8006	165.527	87.5312	165.527	87.7013	165.527	87.4927	165.527	87.6141	165.527	87.482	165.527	87.5452	165.527	87.5
171.387	88.394	171.387	88.3907	171.387	88.3798	171.387	88.3704	171.387	88.3487	171.387	88.3345	171.387	88.3022	171.387	88.2849	171.387	88.2427	171.387	88.224	171.387	88.173	171.387	88.1538	171.387	88.0955	171.387	88.0758	171.387	88.0125	171.387	87.9911	171.387	87.9255	171.387	87.9005	171.387	87.8358	171.387	87.8051	171.387	87.7443	171.387	87.7067	171.387	87.6526	171.387	87.6081	171.387	87.5627	171.387	87.5133	171.387	87.4777	171.387	87.427	171.387	87.4011	171.387	87.3539	171.387	87.3367	171.387	87.2981	171.387	87.288	171.387	87.2628	171.387	87.2582	171.387	87.2494
177.246	88.2918	177.246	88.2728	177.246	88.2853	177.246	88.2294	177.246	88.2539	177.246	88.1637	177.246	88.1992	177.246	88.0789	177.246	88.1245	177.246	87.9784	177.246	88.0336	177.246	87.8662	177.246	87.9304	177.246	87.7459	177.246	87.8189	177.246	87.6214	177.246	87.7025	177.246	87.4966	177.246	87.5841	177.246	87.3751	177.246	87.4667	177.246	87.2609	177.246	87.353	177.246	87.1575	177.246	87.2463	177.246	87.0683	177.246	87.1495	177.246	86.9956	177.246	87.0655	177.246	86.941	177.246	86.9965	177.246	86.9052	177.246	86.9437	177.246	86.8881	177.246	86.9078	177.246	86.8891
183.105	88.0528	183.105	88.0282	183.105	88.0458	183.105	87.9726	183.105	88.0091	183.105	87.8886	183.105	87.9467	183.105	87.7809	183.105	87.8638	183.105	87.6548	183.105	87.7662	183.105	87.5162	183.105	87.6587	183.105	87.3705	183.105	87.5452	183.105	87.2229	183.105	87.4279	183.105	87.0785	183.105	87.3085	183.105	86.942	183.105	87.1884	183.105	86.8184	183.105	87.0697	183.105	86.712	183.105	86.9553	183.105	86.6264	183.105	86.849	183.105	86.5636	183.105	86.7543	183.105	86.5237	183.105	86.6736	183.105	86.5053	183.105	86.6084	183.105	86.5063	183.105	86.5587	183.105	86.5245
188.965	87.9394	188.965	87.9594	188.965	87.8906	188.965	87.9471	188.965	87.8191	188.965	87.9011	188.965	87.7321	188.965	87.8229	188.965	87.6367	188.965	87.7158	188.965	87.5385	188.965	87.5845	188.965	87.4411	188.965	87.4343	188.965	87.3459	188.965	87.2712	188.965	87.252	188.965	87.1017	188.965	87.1581	188.965	86.9336	188.965	87.0628	188.965	86.7754	188.965	86.9662	188.965	86.636	188.965	86.8697	188.965	86.5232	188.965	86.7756	188.965	86.4424	188.965	86.6869	188.965	86.3953	188.965	86.6057	188.965	86.3798	188.965	86.5337	188.965	86.3911	188.965	86.4723	188.965	86.4236
196.289	88.0267	196.289	88.0313	196.289	87.9922	196.289	88.0055	196.289	87.9293	196.289	87.9489	196.289	87.8397	196.289	87.8619	196.289	87.7267	196.289	87.7455	196.289	87.5948	196.289	87.6021	196.289	87.4496	196.289	87.4355	196.289	87.2972	196.289	87.2513	196.289	87.144	196.289	87.0571	196.289	86.9955	196.289	86.8621	196.289	86.8563	196.289	86.6771	196.289	86.7299	196.289	86.5134	196.289	86.6184	196.289	86.3806	196.289	86.5225	196.289	86.2848	196.289	86.4416	196.289	86.2274	196.289	86.374	196.289	86.2045	196.289	86.3174	196.289	86.2091	196.289	86.2703	196.289	86.2331
203.613	87.9921	203.613	88.0009	203.613	87.9332	203.613	87.9618	203.613	87.8258	203.613	87.8795	203.613	87.6748	203.613	87.7606	203.613	87.4888	203.613	87.6121	203.613	87.2788	203.613	87.4409	203.613	87.0571	203.613	87.253	203.613	86.8363	203.613	87.0545	203.613	86.6278	203.613	86.8515	203.613	86.4412	203.613	86.6516	203.613	86.2838	203.613	86.4635	203.613	86.1599	203.613	86.2969	203.613	86.07	203.613	86.1601	203.613	86.0113	203.613	86.0584	203.613	85.9773	203.613	85.9919	203.613	85.9598	203.613	85.9559	203.613	85.9509	203.613	85.9419	203.613	85.9449	203.613	85.9408
210.938	87.9809	210.938	88.0081	210.938	87.9099	210.938	87.9913	210.938	87.798	210.938	87.9328	210.938	87.6502	210.938	87.8368	210.938	87.4728	210.938	87.7083	210.938	87.2726	210.938	87.5519	210.938	87.0565	210.938	87.3717	210.938	86.8316	210.938	87.1712	210.938	86.6054	210.938	86.955	210.938	86.3866	210.938	86.7301	210.938	86.1852	210.938	86.5069	210.938	86.0114	210.938	86.2984	210.938	85.8737	210.938	86.1173	210.938	85.7769	210.938	85.973	210.938	85.7198	210.938	85.8682	210.938	85.6956	210.938	85.7984	210.938	85.6942	210.938	85.7543	210.938	85.7061	210.938	85.7258
218.262	87.9022	218.262	87.908	218.262	87.8543	218.262	87.8732	218.262	87.7653	218.262	87.8009	218.262	87.6379	218.262	87.6952	218.262	87.4772	218.262	87.5604	218.262	87.2894	218.262	87.4006	218.262	87.0818	218.262	87.2192	218.262	86.8627	218.262	87.0199	218.262	86.6405	218.262	86.8078	218.262	86.4249	218.262	86.5905	218.262	86.2252	218.262	86.378	218.262	86.051	218.262	86.1823	218.262	85.9097	218.262	86.0149	218.262	85.8053	218.262	85.8838	218.262	85.7369	218.262	85.7914	218.262	85.6987	218.262	85.7333	218.262	85.6822	218.262	85.701	218.262	85.6792	218.262	85.6851
225.586	87.7513	225.586	87.7662	225.586	87.6909	225.586	87.7337	225.586	87.5892	225.586	87.654	225.586	87.4515	225.586	87.5301	225.586	87.2841	225.586	87.3677	225.586	87.0941	225.586	87.174	225.586	86.8894	225.586	86.9583	225.586	86.6796	225.586	86.731	225.586	86.4753	225.586	86.5041	225.586	86.2879	225.586	86.2912	225.586	86.1282	225.586	86.1062	225.586	86.0048	225.586	85.9619	225.586	85.9222	225.586	85.8661	225.586	85.8789	225.586	85.8192	225.586	85.8673	225.586	85.8129	225.586	85.8752	225.586	85.8325	225.586	85.888	225.586	85.8612	225.586	85.8934	225.586	85.8843
232.91	88.0064	232.91	88.0131	232.91	87.9457	232.91	87.9667	232.91	87.8307	232.91	87.8689	232.91	87.6621	232.91	87.7223	232.91	87.4426	232.91	87.5312	232.91	87.1779	232.91	87.3013	232.91	86.8782	232.91	87.0404	232.91	86.5584	232.91	86.7587	232.91	86.239	232.91	86.4694	232.91	85.944	232.91	86.1893	232.91	85.6977	232.91	85.9383	232.91	85.5201	232.91	85.7361	232.91	85.4206	232.91	85.5978	232.91	85.3946	232.91	85.5271	232.91	85.4239	232.91	85.5143	232.91	85.4821	232.91	85.5378	232.91	85.5418	232.91	85.5712	232.91	85.5816	232.91	85.5906
241.699	87.973	241.699	87.9592	241.699	87.9256	241.699	87.889	241.699	87.814	241.699	87.7691	241.699	87.6371	241.699	87.6067	241.699	87.3968	241.699	87.4097	241.699	87.0977	241.699	87.1855	241.699	86.7486	241.699	86.9411	241.699	86.3626	241.699	86.6832	241.699	85.9591	241.699	86.4191	241.699	85.5646	241.699	86.1586	241.699	85.2117	241.699	85.9146	241.699	84.9345	241.699	85.7019	241.699	84.7598	241.699	85.5337	241.699	84.6966	241.699	85.4151	241.699	84.7314	241.699	85.3399	241.699	84.8322	241.699	85.2904	241.699	84.96	241.699	85.2432	241.699	85.0818	241.699	85.1774
250.488	87.7885	250.488	87.6864	250.488	87.8239	250.488	87.5273	250.488	87.7849	250.488	87.3228	250.488	87.6665	250.488	87.085	250.488	87.4674	250.488	86.8268	250.488	87.19	250.488	86.5606	250.488	86.8408	250.488	86.2978	250.488	86.4309	250.488	86.0482	250.488	85.9773	250.488	85.8194	250.488	85.5046	250.488	85.6177	250.488	85.0461	250.488	85.4475	250.488	84.6436	250.488	85.311	250.488	84.3404	250.488	85.2063	250.488	84.1686	250.488	85.1256	250.488	84.1356	250.488	85.0548	250.488	84.2189	250.488	84.9755	250.488	84.3757	250.488	84.8708	250.488	84.5587	250.488	84.7306
259.277	88.4833	259.277	88.4758	259.277	88.4245	259.277	88.4015	259.277	88.3032	259.277	88.2632	259.277	88.1266	259.277	88.0645	259.277	87.9033	259.277	87.8089	259.277	87.6407	259.277	87.4991	259.277	87.3442	259.277	87.1384	259.277	87.0166	259.277	86.7338	259.277	86.6607	259.277	86.3001	259.277	86.2825	259.277	85.8623	259.277	85.8951	259.277	85.4552	259.277	85.5203	259.277	85.1157	259.277	85.1867	259.277	84.8706	259.277	84.9227	259.277	84.7255	259.277	84.7458	259.277	84.6621	259.277	84.6542	259.277	84.6479	259.277	84.6272	259.277	84.6498	259.277	84.6339	259.277	84.6463
268.066	87.9209	268.066	87.8579	268.066	87.925	268.066	87.7364	268.066	87.8707	268.066	87.5576	268.066	87.7592	268.066	87.3239	268.066	87.5918	268.066	87.0388	268.066	87.3701	268.066	86.708	268.066	87.0966	268.066	86.3411	268.066	86.7764	268.066	85.9541	268.066	86.4196	268.066	85.5706	268.066	86.0433	268.066	85.2205	268.066	85.673	268.066	84.9357	268.066	85.3397	268.066	84.7408	268.066	85.0741	268.066	84.6449	268.066	84.8964	268.066	84.6364	268.066	84.8085	268.066	84.6865	268.066	84.792	268.066	84.7587	268.066	84.8152	268.066	84.8199	268.066	84.8435	268.066	84.8495
276.855	88.0197	276.855	87.9541	276.855	88.0254	276.855	87.8256	276.855	87.9742	276.855	87.6315	276.855	87.869	276.855	87.3687	276.855	87.7115	276.855	87.0339	276.855	87.5025	276.855	86.6249	276.855	87.242	276.855	86.1434	276.855	86.9312	276.855	85.6003	276.855	86.5753	276.855	85.0224	276.855	86.1867	276.855	84.4579	276.855	85.7883	276.855	83.9754	276.855	85.4124	276.855	83.6477	276.855	85.0948	276.855	83.5191	276.855	84.862	276.855	83.5799	276.855	84.7186	276.855	83.7702	276.855	84.6426	276.855	84.0123	276.855	84.594	276.855	84.2406	276.855	84.5296	276.855	84.4165
287.109	88.2837	287.109	88.2721	287.109	88.2312	287.109	88.1968	287.109	88.1145	287.109	88.0579	287.109	87.9344	287.109	87.8549	287.109	87.6937	287.109	87.5867	287.109	87.3972	287.109	87.2519	287.109	87.0526	287.109	86.8499	287.109	86.6698	287.109	86.3836	287.109	86.2611	287.109	85.8636	287.109	85.8426	287.109	85.3151	287.109	85.4354	287.109	84.7831	287.109	85.067	287.109	84.3321	287.109	84.7685	287.109	84.0282	287.109	84.565	287.109	83.9075	287.109	84.4625	287.109	83.9512	287.109	84.4387	287.109	84.0935	287.109	84.4487	287.109	84.2563	287.109	84.4417	287.109	84.3807
297.363	88.4121	297.363	88.412	297.363	88.3268	297.363	88.3275	297.363	88.1595	297.363	88.1634	297.363	87.9169	297.363	87.9276	297.363	87.609	297.363	87.6297	297.363	87.248	297.363	87.2779	297.363	86.8483	297.363	86.8777	297.363	86.427	297.363	86.4316	297.363	86.0054	297.363	85.9443	297.363	85.6096	297.363	85.4311	297.363	85.2681	297.363	84.928	297.363	85.006	297.363	84.4943	297.363	84.8364	297.363	84.1978	297.363	84.7551	297.363	84.0815	297.363	84.7396	297.363	84.1338	297.363	84.7555	297.363	84.2926	297.363	84.7642	297.363	84.4805	297.363	84.7316	297.363	84.6368
307.617	88.7688	307.617	88.7837	307.617	88.6893	307.617	88.7345	307.617	88.545	307.617	88.6215	307.617	88.3348	307.617	88.4457	307.617	88.0567	307.617	88.2078	307.617	87.7086	307.617	87.9085	307.617	87.2887	307.617	87.5473	307.617	86.7991	307.617	87.1232	307.617	86.2495	307.617	86.6371	307.617	85.6635	307.617	86.0982	307.617	85.0833	307.617	85.5325	307.617	84.5698	307.617	84.9897	307.617	84.1887	307.617	84.5378	307.617	83.9826	307.617	84.2384	307.617	83.9442	307.617	84.1101	307.617	84.0173	307.617	84.1134	307.617	84.1251	307.617	84.1733	307.617	84.2031	307.617	84.2176
319.336	88.1199	319.336	88.0871	319.336	88.0882	319.336	87.9932	319.336	87.9901	319.336	87.8426	319.336	87.8245	319.336	87.6404	319.336	87.5908	319.336	87.3913	319.336	87.2891	319.336	87.0983	319.336	86.9222	319.336	86.763	319.336	86.4982	319.336	86.3865	319.336	86.0336	319.336	85.9736	319.336	85.5563	319.336	85.5375	319.336	85.1057	319.336	85.1053	319.336	84.7281	319.336	84.7194	319.336	84.4642	319.336	84.4291	319.336	84.3327	319.336	84.2704	319.336	84.3191	319.336	84.2442	319.336	84.379	319.336	84.311	319.336	84.4556	319.336	84.4096	319.336	84.4995	319.336	84.4835
329.59	88.1549	329.59	88.1425	329.59	88.0988	329.59	88.0667	329.59	87.9695	329.59	87.9306	329.59	87.7631	329.59	87.734	329.59	87.4764	329.59	87.472	329.59	87.1071	329.59	87.136	329.59	86.654	329.59	86.718	329.59	86.1189	329.59	86.2175	329.59	85.5125	329.59	85.65	329.59	84.8626	329.59	85.0547	329.59	84.2248	329.59	84.4964	329.59	83.6852	329.59	84.0541	329.59	83.34	329.59	83.7928	329.59	83.2457	329.59	83.73	329.59	83.3764	329.59	83.8219	329.59	83.6349	329.59	83.9837	329.59	83.9062	329.59	84.1248	329.59	84.1019	329.59	84.176
341.309	87.812	341.309	87.7804	341.309	87.7694	341.309	87.6733	341.309	87.6585	341.309	87.4935	341.309	87.4883	341.309	87.2465	341.309	87.268	341.309	86.938	341.309	87.0038	341.309	86.5727	341.309	86.6963	341.309	86.1534	341.309	86.3414	341.309	85.6831	341.309	85.9349	341.309	85.1703	341.309	85.4793	341.309	84.637	341.309	84.9922	341.309	84.128	341.309	84.5125	341.309	83.7119	341.309	84.0985	341.309	83.4611	341.309	83.8117	341.309	83.4094	341.309	83.6865	341.309	83.52	341.309	83.706	341.309	83.7022	341.309	83.8057	341.309	83.8603	341.309	83.9035	341.309	83.9322
353.027	88.109	353.027	88.0724	353.027	88.0602	353.027	87.9508	353.027	87.9262	353.027	87.7466	353.027	87.7079	353.027	87.464	353.027	87.406	353.027	87.108	353.027	87.0215	353.027	86.6826	353.027	86.5574	353.027	86.1887	353.027	86.0213	353.027	85.625	353.027	85.4305	353.027	84.9934	353.027	84.8175	353.027	84.3119	353.027	84.2355	353.027	83.6333	353.027	83.7548	353.027	83.0569	353.027	83.4421	353.027	82.7078	353.027	83.3277	353.027	82.6611	353.027	83.3836	353.027	82.8727	353.027	83.534	353.027	83.2047	353.027	83.6873	353.027	83.5147	353.027	83.764	353.027	83.7118
366.211	88.1907	366.211	88.1671	366.211	88.1074	366.211	88.0397	366.211	87.9194	366.211	87.817	366.211	87.6332	366.211	87.5122	366.211	87.2588	366.211	87.1414	366.211	86.8089	366.211	86.7194	366.211	86.2999	366.211	86.2551	366.211	85.7523	366.211	85.749	366.211	85.191	366.211	85.1953	366.211	84.6449	366.211	84.592	366.211	84.1455	366.211	83.9554	366.211	83.7253	366.211	83.3346	366.211	83.412	366.211	82.8134	366.211	83.2183	366.211	82.483	366.211	83.1306	366.211	82.3881	366.211	83.1068	366.211	82.4897	366.211	83.0895	366.211	82.6897	366.211	83.026	366.211	82.8886
379.395	88.901	379.395	88.8882	379.395	88.8346	379.395	88.8028	379.395	88.6799	379.395	88.6492	379.395	88.4253	379.395	88.4275	379.395	88.0564	379.395	88.132	379.395	87.5576	379.395	87.7506	379.395	86.9175	379.395	87.2691	379.395	86.1359	379.395	86.6767	379.395	85.235	379.395	85.9753	379.395	84.2753	379.395	85.1883	379.395	83.3719	379.395	84.3706	379.395	82.6875	379.395	83.6147	379.395	82.3628	379.395	83.0389	379.395	82.4086	379.395	82.7399	379.395	82.6895	379.395	82.7273	379.395	83.0255	379.395	82.91	379.395	83.282	379.395	83.1526	379.395	83.3908	379.395	83.3376
392.578	88.4359	392.578	88.3641	392.578	88.4377	392.578	88.2261	392.578	88.368	392.578	88.0277	392.578	88.2247	392.578	87.7731	392.578	88.0005	392.578	87.4597	392.578	87.6812	392.578	87.0757	392.578	87.2469	392.578	86.6041	392.578	86.6771	392.578	86.0341	392.578	85.9584	392.578	85.3757	392.578	85.0984	392.578	84.6748	392.578	84.1485	392.578	84.0183	392.578	83.2377	392.578	83.5199	392.578	82.5818	392.578	83.2747	392.578	82.3828	392.578	83.3013	392.578	82.6428	392.578	83.5252	392.578	83.1477	392.578	83.818	392.578	83.6515	392.578	84.0518	392.578	83.999	392.578	84.1304
405.762	88.2327	405.762	88.1781	405.762	88.2266	405.762	88.0646	405.762	88.1546	405.762	87.8916	405.762	88.0062	405.762	87.657	405.762	87.768	405.762	87.3555	405.762	87.4257	405.762	86.9773	405.762	86.9679	405.762	86.5072	405.762	86.3889	405.762	85.9276	405.762	85.6917	405.762	85.2258	405.762	84.8937	405.762	84.4086	405.762	84.0363	405.762	83.5251	405.762	83.1998	405.762	82.6943	405.762	82.51	405.762	82.1011	405.762	82.1056	405.762	81.9012	405.762	82.0513	405.762	82.0758	405.762	82.2703	405.762	82.4326	405.762	82.5894	405.762	82.7548	405.762	82.8376	405.762	82.9048
420.41	88.3422	420.41	88.3698	420.41	88.2325	420.41	88.3223	420.41	88.0371	420.41	88.2064	420.41	87.7578	420.41	88.0226	420.41	87.3999	420.41	87.7611	420.41	86.9673	420.41	87.4013	420.41	86.4587	420.41	86.9146	420.41	85.8656	420.41	86.273	420.41	85.1782	420.41	85.4598	420.41	84.3973	420.41	84.4842	420.41	83.5564	420.41	83.4019	420.41	82.7457	420.41	82.3463	420.41	82.1169	420.41	81.5453	420.41	81.8219	420.41	81.2326	420.41	81.8921	420.41	81.4346	420.41	82.1942	420.41	81.9177	420.41	82.5259	420.41	82.3951	420.41	82.7212	420.41	82.6848
435.059	87.2796	435.059	87.1692	435.059	87.2805	435.059	86.9728	435.059	87.1627	435.059	86.7278	435.059	86.93	435.059	86.4803	435.059	86.6001	435.059	86.2718	435.059	86.2021	435.059	86.1197	435.059	85.7697	435.059	86.0036	435.059	85.3266	435.059	85.8697	435.059	84.8746	435.059	85.6509	435.059	84.3937	435.059	85.2897	435.059	83.8549	435.059	84.7519	435.059	83.2397	435.059	84.0359	435.059	82.5609	435.059	83.1859	435.059	81.8793	435.059	82.3092	435.059	81.3	435.059	81.5678	435.059	80.9228	435.059	81.0926	435.059	80.7668	435.059	80.8756	435.059	80.7551	435.059	80.7952
451.172	90.1216	451.172	90.0735	451.172	90.0171	451.172	89.8694	451.172	89.7554	451.172	89.497	451.172	89.3244	451.172	88.9365	451.172	88.7056	451.172	88.1664	451.172	87.8799	451.172	87.1807	451.172	86.8386	451.172	86.0184	451.172	85.6095	451.172	84.8043	451.172	84.3084	451.172	83.7707	451.172	83.2092	451.172	83.1747	451.172	82.6946	451.172	83.106	451.172	82.9233	451.172	83.4242	451.172	83.6315	451.172	83.9192	451.172	84.4468	451.172	84.4463	451.172	85.1457	451.172	84.9364	451.172	85.6438	451.172	85.3597	451.172	85.9269	451.172	85.6966	451.172	86.0108	451.172	85.9235
465.82	89.8896	465.82	89.81	465.82	89.8641	465.82	89.6243	465.82	89.7241	465.82	89.3222	465.82	89.4511	465.82	88.8863	465.82	89.0208	465.82	88.2948	465.82	88.4078	465.82	87.5271	465.82	87.5875	465.82	86.5722	465.82	86.5384	465.82	85.4426	465.82	85.246	465.82	84.1959	465.82	83.7244	465.82	82.9695	465.82	82.0819	465.82	82.0052	465.82	80.6529	465.82	81.5701	465.82	80.0092	465.82	81.7341	465.82	80.4003	465.82	82.2862	465.82	81.3723	465.82	82.9353	465.82	82.3847	465.82	83.479	465.82	83.1795	465.82	83.8131	465.82	83.6829	465.82	83.8894
483.398	89.8838	483.398	89.8304	483.398	89.8753	483.398	89.7125	483.398	89.7969	483.398	89.5155	483.398	89.6315	483.398	89.2125	483.398	89.3551	483.398	88.7649	483.398	88.9381	483.398	88.1237	483.398	88.3463	483.398	87.2346	483.398	87.5437	483.398	86.0449	483.398	86.4993	483.398	84.5226	483.398	85.2044	483.398	82.7123	483.398	83.7173	483.398	80.8951	483.398	82.2621	483.398	79.7917	483.398	81.3158	483.398	80.0319	483.398	81.3103	483.398	81.1689	483.398	82.0556	483.398	82.4232	483.398	82.9997	483.398	83.4256	483.398	83.7755	483.398	84.0715	483.398	84.238	483.398	84.3414
499.512	89.2771	499.512	89.3148	499.512	89.1887	499.512	89.3014	499.512	89.0387	499.512	89.227	499.512	88.8063	499.512	89.0743	499.512	88.4662	499.512	88.8181	499.512	87.9935	499.512	88.4212	499.512	87.3678	499.512	87.8322	499.512	86.5751	499.512	86.9891	499.512	85.6101	499.512	85.8305	499.512	84.4869	499.512	84.3155	499.512	83.275	499.512	82.4752	499.512	82.1807	499.512	80.5833	499.512	81.5946	499.512	79.4584	499.512	81.8165	499.512	79.9028	499.512	82.6339	499.512	81.3307	499.512	83.5569	499.512	82.7745	499.512	84.2468	499.512	83.8346	499.512	84.5556	499.512	84.427
517.09	89.1492	517.09	89.1173	517.09	89.1157	517.09	89.0278	517.09	89.0081	517.09	88.881	517.09	88.8198	517.09	88.6655	517.09	88.545	517.09	88.36	517.09	88.1734	517.09	87.9416	517.09	87.6861	517.09	87.3929	517.09	87.0515	517.09	86.7016	517.09	86.2262	517.09	85.8504	517.09	85.1611	517.09	84.8164	517.09	83.835	517.09	83.6106	517.09	82.369	517.09	82.3894	517.09	81.2585	517.09	81.579	517.09	81.248	517.09	81.652	517.09	82.2736	517.09	82.501	517.09	83.5215	517.09	83.5678	517.09	84.463	517.09	84.4345	517.09	84.934	517.09	84.9148
536.133	88.275	536.133	88.2107	536.133	88.1866	536.133	88.0243	536.133	87.9265	536.133	87.757	536.133	87.4935	536.133	87.4538	536.133	86.9155	536.133	87.1439	536.133	86.2561	536.133	86.8151	536.133	85.596	536.133	86.4072	536.133	84.9865	536.133	85.8346	536.133	84.4066	536.133	85.0251	536.133	83.7731	536.133	83.9541	536.133	83.015	536.133	82.6799	536.133	82.2039	536.133	81.4136	536.133	81.6836	536.133	80.6134	536.133	81.8825	536.133	80.7684	536.133	82.7256	536.133	81.7611	536.133	83.7007	536.133	82.9846	536.133	84.4206	536.133	83.9876	536.133	84.7302	536.133	84.5862
555.176	89.7593	555.176	89.5923	555.176	89.7435	555.176	89.282	555.176	89.5154	555.176	88.8675	555.176	89.0639	555.176	88.3779	555.176	88.3986	555.176	87.8218	555.176	87.5399	555.176	87.1782	555.176	86.5026	555.176	86.3992	555.176	85.2862	555.176	85.4285	555.176	83.877	555.176	84.2262	555.176	82.256	555.176	82.7769	555.176	80.4544	555.176	81.0906	555.176	78.8059	555.176	79.3162	555.176	78.2976	555.176	78.1495	555.176	79.4629	555.176	78.6585	555.176	81.2597	555.176	80.4038	555.176	82.786	555.176	82.1619	555.176	83.7818	555.176	83.4226	555.176	84.219	555.176	84.1031
574.219	89.5804	574.219	89.3753	574.219	89.6845	574.219	89.089	574.219	89.683	574.219	88.7606	574.219	89.5708	574.219	88.4354	574.219	89.3221	574.219	88.1382	574.219	88.8875	574.219	87.8451	574.219	88.2125	574.219	87.4805	574.219	87.2577	574.219	86.9473	574.219	85.9971	574.219	86.1618	574.219	84.3882	574.219	85.0617	574.219	82.3486	574.219	83.621	574.219	79.8656	574.219	81.9692	574.219	77.6767	574.219	80.6716	574.219	77.8535	574.219	80.5746	574.219	79.9531	574.219	81.5722	574.219	81.948	574.219	82.7841	574.219	83.2899	574.219	83.6842	574.219	83.9873	574.219	84.1035
594.727	89.2279	594.727	89.0178	594.727	89.3093	594.727	88.6708	594.727	89.2717	594.727	88.1842	594.727	89.1238	594.727	87.5738	594.727	88.8719	594.727	86.9028	594.727	88.5165	594.727	86.3002	594.727	88.0446	594.727	85.8928	594.727	87.4205	594.727	85.6702	594.727	86.5796	594.727	85.4551	594.727	85.428	594.727	85.0079	594.727	83.8585	594.727	84.1511	594.727	81.8415	594.727	82.9335	594.727	79.8557	594.727	81.8919	594.727	79.513	594.727	81.9021	594.727	81.2191	594.727	82.9589	594.727	83.228	594.727	84.2301	594.727	84.6845	594.727	85.1791	594.727	85.4694	594.727	85.6168
615.234	90.6183	615.234	90.4608	615.234	90.592	615.234	90.115	615.234	90.3792	615.234	89.5711	615.234	89.9667	615.234	88.822	615.234	89.3388	615.234	87.8905	615.234	88.5049	615.234	86.8586	615.234	87.5258	615.234	85.853	615.234	86.4915	615.234	84.9449	615.234	85.4376	615.234	84.036	615.234	84.2648	615.234	82.883	615.234	82.7547	615.234	81.3088	615.234	80.7192	615.234	79.6344	615.234	78.5209	615.234	79.1583	615.234	78.1165	615.234	80.5043	615.234	80.1569	615.234	82.3651	615.234	82.4233	615.234	83.8566	615.234	84.0174	615.234	84.7863	615.234	84.8976	615.234	85.1379
637.207	90.5954	637.207	90.4776	637.207	90.6423	637.207	90.2857	637.207	90.5872	637.207	89.991	637.207	90.3827	637.207	89.5582	637.207	90.0031	637.207	88.973	637.207	89.4688	637.207	88.2623	637.207	88.8103	637.207	87.4785	637.207	87.9972	637.207	86.63	637.207	86.9115	637.207	85.6009	637.207	85.3724	637.207	84.1264	637.207	83.1221	637.207	81.8085	637.207	79.7215	637.207	78.1097	637.207	74.8404	637.207	73.9146	637.207	74.4839	637.207	76.5205	637.207	79.2067	637.207	80.6212	637.207	82.3796	637.207	83.1635	637.207	84.1873	637.207	84.5769	637.207	85.0514	637.207	85.1687
659.18	88.9633	659.18	88.7142	659.18	89.09	659.18	88.3622	659.18	89.087	659.18	87.9519	659.18	88.961	659.18	87.5544	659.18	88.742	659.18	87.2297	659.18	88.4735	659.18	86.9747	659.18	88.1731	659.18	86.7216	659.18	87.8023	659.18	86.3979	659.18	87.271	659.18	85.9578	659.18	86.4477	659.18	85.3124	659.18	85.1411	659.18	84.2258	659.18	83.0409	659.18	82.2855	659.18	79.5758	659.18	78.9791	659.18	73.9127	659.18	75.1592	659.18	73.273	659.18	77.0013	659.18	78.6452	659.18	80.5803	659.18	81.7382	659.18	82.674	659.18	83.2068	659.18	83.4909
682.617	89.4593	682.617	89.3777	682.617	89.2687	682.617	89.0332	682.617	88.8603	682.617	88.4974	682.617	88.3617	682.617	87.9017	682.617	87.9418	682.617	87.3796	682.617	87.6999	682.617	86.9592	682.617	87.5783	682.617	86.537	682.617	87.4203	682.617	85.9997	682.617	87.0931	682.617	85.3384	682.617	86.518	682.617	84.5954	682.617	85.5974	682.617	83.6847	682.617	84.1386	682.617	82.3084	682.617	81.866	682.617	80.1959	682.617	78.7606	682.617	78.2723	682.617	77.1312	682.617	79.3898	682.617	79.5574	682.617	81.9965	682.617	82.2955	682.617	83.7704	682.617	83.9133	682.617	84.3976
707.52	90.4062	707.52	90.1815	707.52	90.4419	707.52	89.7856	707.52	90.2387	707.52	89.1822	707.52	89.77	707.52	88.3162	707.52	89.0752	707.52	87.2021	707.52	88.2469	707.52	86.019	707.52	87.3725	707.52	85.0701	707.52	86.488	707.52	84.5237	707.52	85.5942	707.52	84.2252	707.52	84.6852	707.52	83.8653	707.52	83.6803	707.52	83.1228	707.52	82.3141	707.52	81.5404	707.52	80.2009	707.52	78.4289	707.52	77.7335	707.52	74.0739	707.52	78.3424	707.52	76.4892	707.52	81.4343	707.52	80.9486	707.52	83.7095	707.52	83.5323	707.52	84.7636	707.52	84.7115
732.422	89.363	732.422	89.2976	732.422	89.3255	732.422	89.0979	732.422	89.17	732.422	88.6741	732.422	88.893	732.422	87.9591	732.422	88.5169	732.422	87.0359	732.422	88.0471	732.422	86.1972	732.422	87.4671	732.422	85.7812	732.422	86.8042	732.422	85.7737	732.422	86.143	732.422	85.6982	732.422	85.5073	732.422	85.1206	732.422	84.7252	732.422	84.0048	732.422	83.4491	732.422	82.5789	732.422	81.3346	732.422	80.9649	732.422	78.5307	732.422	79.0657	732.422	77.0416	732.422	77.3466	732.422	78.2553	732.422	77.4948	732.422	79.7573	732.422	79.0758	732.422	80.4615	732.422	80.2382
757.324	89.4803	757.324	89.4142	757.324	89.4092	757.324	89.1507	757.324	89.1982	757.324	88.631	757.324	88.8117	757.324	87.9094	757.324	88.2582	757.324	87.18	757.324	87.6123	757.324	86.5926	757.324	86.9272	757.324	86.0674	757.324	86.1589	757.324	85.4472	757.324	85.2493	757.324	84.7205	757.324	84.2639	757.324	83.9459	757.324	83.3176	757.324	83.0655	757.324	82.3424	757.324	81.9666	757.324	81.1781	757.324	80.8308	757.324	80.0751	757.324	80.2109	757.324	79.8412	757.324	80.3694	757.324	80.6144	757.324	81.0241	757.324	81.5838	757.324	81.7665	757.324	82.1834	757.324	82.2309
785.156	89.254	785.156	89.7835	785.156	88.5017	785.156	89.9274	785.156	87.778	785.156	89.6147	785.156	87.345	785.156	88.8758	785.156	87.2501	785.156	87.7779	785.156	87.2413	785.156	86.2753	785.156	86.977	785.156	84.3235	785.156	86.2789	785.156	82.53	785.156	85.257	785.156	81.7785	785.156	84.2048	785.156	81.6828	785.156	83.3016	785.156	81.7717	785.156	82.4213	785.156	81.8666	785.156	81.4157	785.156	81.6833	785.156	80.7503	785.156	80.9167	785.156	81.2444	785.156	79.6949	785.156	82.3299	785.156	79.1299	785.156	82.8367	785.156	79.9603	785.156	82.4141	785.156	81.3074
811.523	88.3128	811.523	88.5002	811.523	87.9299	811.523	88.4368	811.523	87.3919	811.523	88.0581	811.523	86.8175	811.523	87.3736	811.523	86.3104	811.523	86.3994	811.523	85.64	811.523	84.9572	811.523	84.2229	811.523	82.5794	811.523	81.6042	811.523	78.6273	811.523	77.9886	811.523	72.5811	811.523	74.5814	811.523	69.8601	811.523	73.1912	811.523	74.8041	811.523	75.4585	811.523	79.0608	811.523	79.9419	811.523	82.1565	811.523	83.8574	811.523	84.1914	811.523	86.5682	811.523	85.4711	811.523	88.1922	811.523	86.3827	811.523	88.8761	811.523	87.2479	811.523	88.7717	811.523	88.1223
840.82	86.4969	840.82	85.8002	840.82	86.8184	840.82	85.517	840.82	86.7095	840.82	86.147	840.82	86.7401	840.82	87.5399	840.82	87.3653	840.82	89.4758	840.82	88.3195	840.82	91.1244	840.82	89.0931	840.82	91.7726	840.82	89.2921	840.82	91.3351	840.82	88.8022	840.82	90.1469	840.82	87.8158	840.82	88.4308	840.82	86.6283	840.82	85.9594	840.82	85.5409	840.82	83.4149	840.82	85.3194	840.82	84.7545	840.82	87.335	840.82	88.3916	840.82	90.6685	840.82	91.3728	840.82	93.5391	840.82	93.5593	840.82	95.3768	840.82	95.0972	840.82	96.152	840.82	96.0003
870.117	90.0666	870.117	89.411	870.117	89.8745	870.117	87.9331	870.117	88.9564	870.117	85.9555	870.117	87.7471	870.117	84.9998	870.117	87.4127	870.117	87.0828	870.117	88.7198	870.117	89.8779	870.117	90.313	870.117	91.587	870.117	91.0457	870.117	92.305	870.117	91.0451	870.117	92.4661	870.117	90.9338	870.117	92.1308	870.117	90.8694	870.117	91.0943	870.117	90.2823	870.117	89.0847	870.117	88.2126	870.117	86.5991	870.117	85.8147	870.117	87.3847	870.117	90.0487	870.117	91.0682	870.117	94.3646	870.117	94.0324	870.117	96.6596	870.117	95.991	870.117	97.4609	870.117	97.1535
900.879	92.9675	900.879	92.0962	900.879	93.2243	900.879	90.9337	900.879	92.5931	900.879	89.5367	900.879	90.9501	900.879	87.9273	900.879	88.4157	900.879	87.2105	900.879	85.9734	900.879	87.957	900.879	85.7812	900.879	88.7978	900.879	87.3213	900.879	89.0375	900.879	89.0142	900.879	88.6467	900.879	90.1616	900.879	87.837	900.879	90.1662	900.879	86.881	900.879	88.4338	900.879	85.4324	900.879	83.9549	900.879	82.9722	900.879	83.2161	900.879	85.1184	900.879	90.4325	900.879	90.6273	900.879	94.5326	900.879	94.2289	900.879	96.5713	900.879	96.2483	900.879	97.3333	900.879	97.2038
933.105	92.8485	933.105	93.0365	933.105	92.0962	933.105	92.4587	933.105	90.8205	933.105	90.7589	933.105	89.1059	933.105	87.6091	933.105	87.3652	933.105	83.639	933.105	86.5973	933.105	82.7375	933.105	87.3428	933.105	84.4501	933.105	88.3533	933.105	86.0708	933.105	88.83	933.105	87.5399	933.105	89.0758	933.105	88.4759	933.105	89.4859	933.105	88.6585	933.105	89.7969	933.105	88.3971	933.105	89.4869	933.105	88.0359	933.105	88.7161	933.105	88.3894	933.105	89.1972	933.105	90.5946	933.105	91.7078	933.105	93.3712	933.105	94.2814	933.105	95.3304	933.105	95.8252	933.105	96.1648
965.332	92.9091	965.332	92.8457	965.332	92.2979	965.332	92.0775	965.332	91.0292	965.332	90.3812	965.332	89.2225	965.332	87.2638	965.332	86.9463	965.332	81.8722	965.332	84.3657	965.332	72.6442	965.332	83.2873	965.332	70.3407	965.332	84.8666	965.332	74.026	965.332	86.6792	965.332	75.7124	965.332	87.6915	965.332	78.2376	965.332	87.961	965.332	80.9783	965.332	87.6129	965.332	82.52	965.332	85.973	965.332	82.902	965.332	83.1318	965.332	83.2991	965.332	84.6872	965.332	85.3785	965.332	88.6972	965.332	88.6523	965.332	91.339	965.332	91.2772	965.332	92.609	965.332	92.6017
1,000.49	91.7586	1,000.49	91.2337	1,000.49	91.3054	1,000.49	89.5336	1,000.49	90	1,000.49	86.8584	1,000.49	87.8315	1,000.49	84.8334	1,000.49	84.6755	1,000.49	84.3924	1,000.49	80.5458	1,000.49	83.665	1,000.49	78.5066	1,000.49	82.1487	1,000.49	80.6338	1,000.49	81.4844	1,000.49	82.3245	1,000.49	82.6918	1,000.49	82.6027	1,000.49	84.3231	1,000.49	81.4008	1,000.49	85.5248	1,000.49	80.0195	1,000.49	86.0526	1,000.49	81.6271	1,000.49	85.822	1,000.49	84.3635	1,000.49	85.046	1,000.49	85.5573	1,000.49	85.064	1,000.49	85.9519	1,000.49	86.823	1,000.49	87.0175	1,000.49	88.5092	1,000.49	88.3714	1,000.49	89.0243
1,035.64	90.5354	1,035.64	89.949	1,035.64	90.7642	1,035.64	89.1282	1,035.64	90.4873	1,035.64	88.4164	1,035.64	89.481	1,035.64	87.9067	1,035.64	87.4884	1,035.64	86.9619	1,035.64	83.6684	1,035.64	84.896	1,035.64	76.1008	1,035.64	81.8366	1,035.64	75.1351	1,035.64	79.495	1,035.64	80.4816	1,035.64	78.8836	1,035.64	82.9412	1,035.64	80.1791	1,035.64	83.74	1,035.64	82.9121	1,035.64	83.6655	1,035.64	84.3434	1,035.64	83.4347	1,035.64	83.9545	1,035.64	82.677	1,035.64	82.3171	1,035.64	81.3198	1,035.64	80.7961	1,035.64	82.5217	1,035.64	82.2828	1,035.64	85.3487	1,035.64	85.0888	1,035.64	86.8293	1,035.64	86.7174
1,072.27	88.3734	1,072.27	87.3061	1,072.27	89.5598	1,072.27	87.5828	1,072.27	90.0549	1,072.27	88.8754	1,072.27	89.7598	1,072.27	89.6691	1,072.27	88.6705	1,072.27	89.2594	1,072.27	86.0327	1,072.27	87.4099	1,072.27	81.3444	1,072.27	84.4504	1,072.27	76.2234	1,072.27	83.2666	1,072.27	70.1819	1,072.27	83.8516	1,072.27	67.6202	1,072.27	83.0649	1,072.27	64.0642	1,072.27	81.9463	1,072.27	70.8529	1,072.27	83.1794	1,072.27	79.5032	1,072.27	84.3537	1,072.27	82.9055	1,072.27	84.0877	1,072.27	83.4177	1,072.27	83.5002	1,072.27	83.8875	1,072.27	84.474	1,072.27	85.7416	1,072.27	86.2724	1,072.27	87.1932	1,072.27	87.3678
1,108.89	87.0568	1,108.89	87.2645	1,108.89	87.4169	1,108.89	88.1388	1,108.89	88.1533	1,108.89	89.3505	1,108.89	89.0525	1,108.89	90.2451	1,108.89	89.3891	1,108.89	90.1823	1,108.89	88.3048	1,108.89	88.6654	1,108.89	85.8803	1,108.89	85.5775	1,108.89	82.3677	1,108.89	82.0238	1,108.89	77.2911	1,108.89	80.5983	1,108.89	73.8407	1,108.89	80.7943	1,108.89	71.1504	1,108.89	81.2492	1,108.89	65.1303	1,108.89	82.6996	1,108.89	76.1863	1,108.89	84.0376	1,108.89	80.1834	1,108.89	83.8576	1,108.89	81.6993	1,108.89	82.3758	1,108.89	82.41	1,108.89	81.111	1,108.89	82.4516	1,108.89	80.9263	1,108.89	81.8384	1,108.89	81.2197
1,148.44	87.9967	1,148.44	87.9877	1,148.44	88.0677	1,148.44	88.1647	1,148.44	88.1347	1,148.44	88.4159	1,148.44	88.1724	1,148.44	88.2539	1,148.44	87.8423	1,148.44	87.1487	1,148.44	86.6516	1,148.44	84.9609	1,148.44	84.6383	1,148.44	82.1726	1,148.44	82.3585	1,148.44	79.545	1,148.44	80.5413	1,148.44	77.92	1,148.44	79.9899	1,148.44	76.5001	1,148.44	80.0587	1,148.44	75.0586	1,148.44	80.4601	1,148.44	77.1328	1,148.44	81.4364	1,148.44	80.0389	1,148.44	81.0998	1,148.44	80.6315	1,148.44	78.3628	1,148.44	78.3197	1,148.44	71.5061	1,148.44	72.9899	1,148.44	68.1176	1,148.44	74.3778	1,148.44	75.965	1,148.44	77.3021
1,189.45	87.822	1,189.45	88.77	1,189.45	86.4243	1,189.45	88.8711	1,189.45	85.703	1,189.45	88.0014	1,189.45	86.4463	1,189.45	86.3026	1,189.45	87.4133	1,189.45	84.4616	1,189.45	87.496	1,189.45	83.2166	1,189.45	86.6657	1,189.45	82.5114	1,189.45	84.981	1,189.45	81.6607	1,189.45	82.6126	1,189.45	80.7622	1,189.45	80.4625	1,189.45	80.5271	1,189.45	78.0853	1,189.45	80.0455	1,189.45	73.9335	1,189.45	78.8239	1,189.45	72.2066	1,189.45	78.6008	1,189.45	76.3171	1,189.45	78.3857	1,189.45	78.1258	1,189.45	77.23	1,189.45	78.1598	1,189.45	77.6861	1,189.45	80.2553	1,189.45	80.9212	1,189.45	82.5016	1,189.45	82.8248
1,230.47	87.2722	1,230.47	86.9794	1,230.47	87.2901	1,230.47	86.9247	1,230.47	87.0828	1,230.47	87.4599	1,230.47	86.9772	1,230.47	87.9556	1,230.47	86.7263	1,230.47	87.3823	1,230.47	85.46	1,230.47	84.6933	1,230.47	82.598	1,230.47	78.9561	1,230.47	77.8725	1,230.47	77.4807	1,230.47	73.9362	1,230.47	80.2009	1,230.47	75.1835	1,230.47	81.5755	1,230.47	78.069	1,230.47	81.8528	1,230.47	79.1896	1,230.47	82.3219	1,230.47	79.9396	1,230.47	83.4062	1,230.47	81.2612	1,230.47	83.734	1,230.47	82.0217	1,230.47	82.8601	1,230.47	82.2774	1,230.47	82.9574	1,230.47	82.927	1,230.47	84.5822	1,230.47	84.323	1,230.47	85.1908
1,274.41	87.4986	1,274.41	87.1887	1,274.41	87.0243	1,274.41	86.6244	1,274.41	86.0382	1,274.41	86.9344	1,274.41	85.4564	1,274.41	88.0893	1,274.41	85.6648	1,274.41	88.6609	1,274.41	85.605	1,274.41	87.2056	1,274.41	84.2403	1,274.41	82.5223	1,274.41	80.8671	1,274.41	74.1108	1,274.41	74.934	1,274.41	68.781	1,274.41	75.7109	1,274.41	75.6985	1,274.41	80.4883	1,274.41	76.9422	1,274.41	82.7022	1,274.41	77.0139	1,274.41	83.2823	1,274.41	79.3695	1,274.41	83.8788	1,274.41	81.5953	1,274.41	83.799	1,274.41	82.7238	1,274.41	83.8555	1,274.41	83.5127	1,274.41	85.77	1,274.41	85.3231	1,274.41	87.2524	1,274.41	87.0281
1,319.82	89.2538	1,319.82	88.2501	1,319.82	88.8239	1,319.82	86.3084	1,319.82	87.0734	1,319.82	84.7633	1,319.82	84.9139	1,319.82	85.2344	1,319.82	84.3833	1,319.82	86.4166	1,319.82	85.2503	1,319.82	86.002	1,319.82	85.8475	1,319.82	83.8761	1,319.82	84.8309	1,319.82	81.2158	1,319.82	82.1313	1,319.82	77.546	1,319.82	80.4596	1,319.82	76.9998	1,319.82	82.1067	1,319.82	76.648	1,319.82	82.6632	1,319.82	69.7809	1,319.82	81.8076	1,319.82	73.5379	1,319.82	82.7847	1,319.82	81.4005	1,319.82	83.6629	1,319.82	83.5582	1,319.82	83.2758	1,319.82	84.1946	1,319.82	82.5553	1,319.82	85.4798	1,319.82	84.0095	1,319.82	85.6934
1,366.7	88.9688	1,366.7	87.5479	1,366.7	89.3916	1,366.7	86.5108	1,366.7	88.378	1,366.7	85.8749	1,366.7	86.3218	1,366.7	85.1868	1,366.7	83.5016	1,366.7	84.4681	1,366.7	81.5188	1,366.7	83.7558	1,366.7	82.6443	1,366.7	84.1209	1,366.7	84.3229	1,366.7	82.7355	1,366.7	84.867	1,366.7	79.0893	1,366.7	83.5748	1,366.7	79.8401	1,366.7	83.6463	1,366.7	82.7654	1,366.7	84.1813	1,366.7	81.9775	1,366.7	82.6447	1,366.7	78.8775	1,366.7	81.1059	1,366.7	78.3059	1,366.7	77.8655	1,366.7	79.5856	1,366.7	78.2119	1,366.7	80.2509	1,366.7	81.9057	1,366.7	81.5666	1,366.7	83.2749	1,366.7	82.8806
1,413.57	88.6931	1,413.57	88.4509	1,413.57	88.9629	1,413.57	88.3317	1,413.57	88.5093	1,413.57	86.716	1,413.57	87.246	1,413.57	83.448	1,413.57	85.2248	1,413.57	83.0189	1,413.57	83.3664	1,413.57	84.8313	1,413.57	83.0026	1,413.57	83.7386	1,413.57	83.4175	1,413.57	80.7537	1,413.57	83.447	1,413.57	78.5603	1,413.57	82.1997	1,413.57	77.1546	1,413.57	81.341	1,413.57	79.4474	1,413.57	81.2844	1,413.57	78.8072	1,413.57	79.4687	1,413.57	75.3777	1,413.57	78.2698	1,413.57	78.7809	1,413.57	78.6263	1,413.57	81.6973	1,413.57	79.8769	1,413.57	82.1687	1,413.57	79.349	1,413.57	81.0838	1,413.57	76.8848	1,413.57	78.4464
1,463.38	88.2597	1,463.38	88.4703	1,463.38	88.3907	1,463.38	88.4393	1,463.38	88.3209	1,463.38	87.2586	1,463.38	87.3892	1,463.38	85.5697	1,463.38	85.0752	1,463.38	84.2411	1,463.38	82.2801	1,463.38	83.3309	1,463.38	81.986	1,463.38	82.3239	1,463.38	83.8126	1,463.38	82.0047	1,463.38	84.6049	1,463.38	78.8458	1,463.38	83.3588	1,463.38	75.8987	1,463.38	80.8028	1,463.38	75.7141	1,463.38	77.3538	1,463.38	75.2592	1,463.38	71.318	1,463.38	73.9347	1,463.38	71.0983	1,463.38	77.8826	1,463.38	75.3697	1,463.38	80.0265	1,463.38	77.5433	1,463.38	78.8904	1,463.38	76.8792	1,463.38	74.1797	1,463.38	71.9543	1,463.38	66.3028
1,516.11	88.0199	1,516.11	88.2681	1,516.11	88.0752	1,516.11	88.3279	1,516.11	88.2851	1,516.11	87.8505	1,516.11	87.7129	1,516.11	86.1877	1,516.11	85.6848	1,516.11	82.1502	1,516.11	82.8659	1,516.11	78.8032	1,516.11	80.9677	1,516.11	81.1606	1,516.11	80.8318	1,516.11	81.5363	1,516.11	81.4143	1,516.11	76.7646	1,516.11	80.896	1,516.11	75.5974	1,516.11	80.1061	1,516.11	79.3258	1,516.11	81.3848	1,516.11	81.5989	1,516.11	82.722	1,516.11	81.3227	1,516.11	82.0133	1,516.11	75.2965	1,516.11	79.0058	1,516.11	72.9996	1,516.11	74.7672	1,516.11	79.0537	1,516.11	69.5017	1,516.11	79.4739	1,516.11	71.5027	1,516.11	77.0988
1,568.85	87.1699	1,568.85	87.5211	1,568.85	86.8332	1,568.85	87.625	1,568.85	87.08	1,568.85	87.0074	1,568.85	87.4721	1,568.85	84.8076	1,568.85	87.0076	1,568.85	82.5867	1,568.85	84.9075	1,568.85	83.0055	1,568.85	81.0026	1,568.85	83.1006	1,568.85	78.4914	1,568.85	82.2006	1,568.85	78.8559	1,568.85	78.6274	1,568.85	77.2824	1,568.85	71.495	1,568.85	75.6883	1,568.85	72.7794	1,568.85	76.8486	1,568.85	75.8704	1,568.85	77.0965	1,568.85	76.8836	1,568.85	73.7963	1,568.85	77.3043	1,568.85	67.5652	1,568.85	75.3272	1,568.85	59.6703	1,568.85	71.3867	1,568.85	66.002	1,568.85	71.6395	1,568.85	70.8577	1,568.85	72.2176
1,624.51	87.3966	1,624.51	87.1228	1,624.51	87.1572	1,624.51	86.3559	1,624.51	86.8806	1,624.51	85.7439	1,624.51	86.5385	1,624.51	85.5939	1,624.51	85.776	1,624.51	85.2671	1,624.51	84.4521	1,624.51	84.5934	1,624.51	82.6019	1,624.51	83.0709	1,624.51	82.4419	1,624.51	79.7495	1,624.51	83.5509	1,624.51	74.9047	1,624.51	82.5798	1,624.51	63.3824	1,624.51	79.9437	1,624.51	77.1468	1,624.51	78.6077	1,624.51	80.3377	1,624.51	77.2306	1,624.51	79.4512	1,624.51	76.1253	1,624.51	74.3049	1,624.51	75.768	1,624.51	72.9524	1,624.51	71.1449	1,624.51	73.0886	1,624.51	57.7318	1,624.51	70.2137	1,624.51	61.0247	1,624.51	59.3069
1,681.64	88.3107	1,681.64	87.7433	1,681.64	88.3991	1,681.64	87.6942	1,681.64	87.8806	1,681.64	88.8084	1,681.64	86.8279	1,681.64	89.0738	1,681.64	85.3497	1,681.64	86.6199	1,681.64	84.5171	1,681.64	82.1555	1,681.64	85.3806	1,681.64	79.2716	1,681.64	86.3854	1,681.64	79.059	1,681.64	85.6267	1,681.64	78.4117	1,681.64	83.2282	1,681.64	73.1828	1,681.64	80.7779	1,681.64	68.4952	1,681.64	78.5669	1,681.64	77.6095	1,681.64	78.7628	1,681.64	78.9969	1,681.64	79.2306	1,681.64	74.4981	1,681.64	78.2422	1,681.64	67.9134	1,681.64	75.0357	1,681.64	75.7403	1,681.64	67.2248	1,681.64	73.8644	1,681.64	56.0553	1,681.64	68.8848
1,741.7	88.4346	1,741.7	88.3692	1,741.7	88.2978	1,741.7	87.9066	1,741.7	87.8237	1,741.7	87.1375	1,741.7	86.9945	1,741.7	86.3081	1,741.7	86.4087	1,741.7	85.7506	1,741.7	85.9837	1,741.7	84.1665	1,741.7	84.7805	1,741.7	77.7416	1,741.7	83.8362	1,741.7	77.2695	1,741.7	83.4	1,741.7	81.8302	1,741.7	81.4181	1,741.7	78.4089	1,741.7	77.4871	1,741.7	70.2462	1,741.7	71.2751	1,741.7	76.6406	1,741.7	68.96	1,741.7	77.0622	1,741.7	73.7255	1,741.7	73.1948	1,741.7	72.7993	1,741.7	70.3203	1,741.7	73.2649	1,741.7	72.2235	1,741.7	69.8153	1,741.7	69.8804	1,741.7	67.9243	1,741.7	68.6062
1,803.22	87.702	1,803.22	88.3145	1,803.22	87.6113	1,803.22	88.3404	1,803.22	87.6863	1,803.22	86.7115	1,803.22	87.0778	1,803.22	85.0835	1,803.22	85.8573	1,803.22	85.0019	1,803.22	84.3098	1,803.22	82.7895	1,803.22	82.4764	1,803.22	81.7496	1,803.22	82.1798	1,803.22	82.359	1,803.22	79.9704	1,803.22	79.3489	1,803.22	73.0393	1,803.22	78.2742	1,803.22	73.6683	1,803.22	76.8978	1,803.22	74.5796	1,803.22	73.431	1,803.22	70.1828	1,803.22	77.6925	1,803.22	72.2102	1,803.22	76.1623	1,803.22	71.0694	1,803.22	72.8206	1,803.22	66.3512	1,803.22	72.6301	1,803.22	66.1608	1,803.22	66.3154	1,803.22	69.541	1,803.22	67.2046
1,866.21	87.7684	1,866.21	88.6928	1,866.21	87.2624	1,866.21	88.7053	1,866.21	87.2907	1,866.21	87.297	1,866.21	86.8201	1,866.21	85.711	1,866.21	85.7299	1,866.21	84.3931	1,866.21	84.3461	1,866.21	83.0446	1,866.21	81.709	1,866.21	82.21	1,866.21	79.2784	1,866.21	81.3058	1,866.21	77.9406	1,866.21	77.6105	1,866.21	75.2238	1,866.21	73.1246	1,866.21	73.3719	1,866.21	76.556	1,866.21	73.4471	1,866.21	72.9981	1,866.21	71.2213	1,866.21	74.8252	1,866.21	72.2013	1,866.21	76.0993	1,866.21	70.0569	1,866.21	69.8667	1,866.21	63.6452	1,866.21	73.601	1,866.21	68.5259	1,866.21	70.1353	1,866.21	71.5184	1,866.21	67.9957
1,932.13	87.1934	1,932.13	88.0983	1,932.13	86.5962	1,932.13	88.0887	1,932.13	86.5792	1,932.13	86.7351	1,932.13	86.4459	1,932.13	86.268	1,932.13	86.3565	1,932.13	85.3014	1,932.13	85.0322	1,932.13	82.8329	1,932.13	82.6831	1,932.13	82.0831	1,932.13	80.7088	1,932.13	79.7514	1,932.13	77.7335	1,932.13	79.0141	1,932.13	77.3065	1,932.13	78.1737	1,932.13	78.2799	1,932.13	72.5995	1,932.13	73.9573	1,932.13	75.3708	1,932.13	69.7026	1,932.13	73.099	1,932.13	66.5378	1,932.13	76.3197	1,932.13	70.8896	1,932.13	72.6343	1,932.13	64.7904	1,932.13	68.6431	1,932.13	65.523	1,932.13	68.9731	1,932.13	72.1391	1,932.13	67.3294
1,999.51	88.1114	1,999.51	88.377	1,999.51	86.6097	1,999.51	87.1553	1,999.51	85.9081	1,999.51	86.9856	1,999.51	85.8255	1,999.51	87.2556	1,999.51	85.7874	1,999.51	85.4286	1,999.51	85.1624	1,999.51	84.3088	1,999.51	83.7109	1,999.51	83.3016	1,999.51	81.3802	1,999.51	81.0369	1,999.51	78.8105	1,999.51	77.9929	1,999.51	75.5335	1,999.51	75.7946	1,999.51	74.7687	1,999.51	75.3841	1,999.51	76.105	1,999.51	75.3571	1,999.51	71.4417	1,999.51	73.746	1,999.51	55.7769	1,999.51	74.9147	1,999.51	66.1692	1,999.51	74.2752	1,999.51	65.6424	1,999.51	67.7681	1,999.51	56.7127	1,999.51	68.4115	1,999.51	69.4924	1,999.51	68.7337
2,069.82	88.677	2,069.82	87.9938	2,069.82	87.2567	2,069.82	86.1178	2,069.82	85.6557	2,069.82	86.6417	2,069.82	85.4667	2,069.82	87.1083	2,069.82	85.4615	2,069.82	86.5465	2,069.82	84.9366	2,069.82	85.3369	2,069.82	83.3901	2,069.82	80.7014	2,069.82	80.8257	2,069.82	77.4616	2,069.82	78.2041	2,069.82	79.6413	2,069.82	76.7488	2,069.82	77.627	2,069.82	72.654	2,069.82	70.8833	2,069.82	75.2439	2,069.82	76.3336	2,069.82	72.0323	2,069.82	74.6354	2,069.82	60.9258	2,069.82	72.3519	2,069.82	60.4721	2,069.82	73.1759	2,069.82	67.1765	2,069.82	66.4052	2,069.82	59.8066	2,069.82	61.4118	2,069.82	69.5727	2,069.82	67.1974
2,143.07	89.1244	2,143.07	88.3149	2,143.07	88.2926	2,143.07	87.1472	2,143.07	86.8291	2,143.07	86.948	2,143.07	86.2193	2,143.07	86.4838	2,143.07	85.8456	2,143.07	85.9538	2,143.07	84.9308	2,143.07	84.4521	2,143.07	83.8224	2,143.07	82.4024	2,143.07	82.6701	2,143.07	81.9255	2,143.07	81.7258	2,143.07	79.7284	2,143.07	80.0684	2,143.07	77.3823	2,143.07	76.4342	2,143.07	73.1844	2,143.07	70.2827	2,143.07	74.6143	2,143.07	70.0067	2,143.07	77.5589	2,143.07	68.5043	2,143.07	72.17	2,143.07	59.5377	2,143.07	72.223	2,143.07	65.3825	2,143.07	70.5116	2,143.07	63.6495	2,143.07	61.4117	2,143.07	65.3938	2,143.07	60.7617
2,219.24	88.6352	2,219.24	88.0988	2,219.24	88.4553	2,219.24	88.166	2,219.24	87.7132	2,219.24	87.5112	2,219.24	87.4535	2,219.24	85.7356	2,219.24	87.2608	2,219.24	84.604	2,219.24	85.1992	2,219.24	84.4694	2,219.24	82.9812	2,219.24	81.9022	2,219.24	82.6604	2,219.24	78.3208	2,219.24	80.1076	2,219.24	78.6619	2,219.24	77.0017	2,219.24	76.8241	2,219.24	75.4049	2,219.24	75.0884	2,219.24	73.4884	2,219.24	69.8419	2,219.24	67.1488	2,219.24	76.5292	2,219.24	69.4552	2,219.24	74.4495	2,219.24	58.111	2,219.24	68.6529	2,219.24	62.1251	2,219.24	69.0372	2,219.24	61.1775	2,219.24	67.159	2,219.24	67.1766	2,219.24	66.0279
2,296.88	87.7911	2,296.88	87.8597	2,296.88	88.0689	2,296.88	88.6134	2,296.88	88.0537	2,296.88	88.1142	2,296.88	87.4477	2,296.88	86.2894	2,296.88	86.9999	2,296.88	85.8922	2,296.88	85.8072	2,296.88	84.2413	2,296.88	84.2995	2,296.88	83.5401	2,296.88	81.1121	2,296.88	82.0714	2,296.88	78.268	2,296.88	78.3647	2,296.88	78.8381	2,296.88	77.8885	2,296.88	71.3305	2,296.88	75.7416	2,296.88	71.2383	2,296.88	69.8697	2,296.88	70.4759	2,296.88	75.4665	2,296.88	70.4212	2,296.88	75.9437	2,296.88	64.1464	2,296.88	71.0367	2,296.88	59.1027	2,296.88	68.0083	2,296.88	62.4743	2,296.88	62.8838	2,296.88	69.1408	2,296.88	68.1186
2,378.91	87.374	2,378.91	87.3884	2,378.91	87.6957	2,378.91	88.0734	2,378.91	87.7453	2,378.91	87.4796	2,378.91	87.9123	2,378.91	87.4406	2,378.91	87.7023	2,378.91	87.3638	2,378.91	86.9079	2,378.91	85.7519	2,378.91	84.8405	2,378.91	83.8846	2,378.91	83.5461	2,378.91	79.6061	2,378.91	82.1685	2,378.91	76.3462	2,378.91	80.6157	2,378.91	75.0049	2,378.91	76.9651	2,378.91	77.6966	2,378.91	61.2182	2,378.91	73.0023	2,378.91	68.2996	2,378.91	72.6103	2,378.91	69.5531	2,378.91	74.8662	2,378.91	66.4776	2,378.91	70.3958	2,378.91	60.3657	2,378.91	69.6952	2,378.91	57.2395	2,378.91	59.4068	2,378.91	67.9075	2,378.91	68.5058
2,462.4	88.6975	2,462.4	89.2005	2,462.4	88.5697	2,462.4	88.2802	2,462.4	88.0897	2,462.4	87.9461	2,462.4	87.9171	2,462.4	88.6083	2,462.4	87.8145	2,462.4	87.3973	2,462.4	86.6384	2,462.4	85.2558	2,462.4	85.2497	2,462.4	82.3888	2,462.4	84.2234	2,462.4	82.9826	2,462.4	82.0802	2,462.4	80.5622	2,462.4	73.8417	2,462.4	78.0019	2,462.4	66.57	2,462.4	75.2955	2,462.4	67.4658	2,462.4	76.1774	2,462.4	64.2276	2,462.4	69.0871	2,462.4	70.3677	2,462.4	75.5029	2,462.4	68.4498	2,462.4	71.4236	2,462.4	68.7952	2,462.4	68.8826	2,462.4	56.3371	2,462.4	64.2574	2,462.4	69.7849	2,462.4	68.9516
2,548.83	89.8957	2,548.83	90.0602	2,548.83	89.7327	2,548.83	89.1103	2,548.83	89.0991	2,548.83	89.1383	2,548.83	88.2214	2,548.83	89.62	2,548.83	87.3958	2,548.83	87.5135	2,548.83	86.4548	2,548.83	84.6374	2,548.83	85.2745	2,548.83	83.4208	2,548.83	81.892	2,548.83	81.5703	2,548.83	80.7447	2,548.83	79.3113	2,548.83	82.1448	2,548.83	77.6686	2,548.83	74.4149	2,548.83	75.6077	2,548.83	65.4081	2,548.83	75.06	2,548.83	72.8298	2,548.83	72.4579	2,548.83	64.7902	2,548.83	76.3642	2,548.83	71.3538	2,548.83	73.929	2,548.83	72.774	2,548.83	69.3835	2,548.83	63.9434	2,548.83	63.2034	2,548.83	67.8289	2,548.83	71.2907
2,639.65	88.4099	2,639.65	88.5114	2,639.65	88.9753	2,639.65	89.5971	2,639.65	89.1134	2,639.65	89.5687	2,639.65	89.027	2,639.65	87.5487	2,639.65	87.4665	2,639.65	86.0305	2,639.65	86.226	2,639.65	85.3166	2,639.65	84.0045	2,639.65	83.378	2,639.65	82.0035	2,639.65	82.9306	2,639.65	82.9901	2,639.65	80.3505	2,639.65	77.7718	2,639.65	76.8511	2,639.65	73.0601	2,639.65	75.6155	2,639.65	72.5011	2,639.65	75.452	2,639.65	73.4027	2,639.65	74.9447	2,639.65	69.9945	2,639.65	73.4199	2,639.65	70.1724	2,639.65	75.8469	2,639.65	74.338	2,639.65	70.8937	2,639.65	67.7292	2,639.65	63.8713	2,639.65	75.9448	2,639.65	75.9235
2,731.93	87.3375	2,731.93	87.2028	2,731.93	87.5545	2,731.93	88.3785	2,731.93	88.3627	2,731.93	88.1173	2,731.93	88.7295	2,731.93	86.5751	2,731.93	87.8968	2,731.93	86.1228	2,731.93	85.8721	2,731.93	84.456	2,731.93	83.4865	2,731.93	83.5637	2,731.93	82.3487	2,731.93	77.9334	2,731.93	77.6498	2,731.93	75.6621	2,731.93	71.8401	2,731.93	75.5406	2,731.93	73.6849	2,731.93	75.3785	2,731.93	71.5208	2,731.93	72.8057	2,731.93	71.7348	2,731.93	75.6524	2,731.93	74.5678	2,731.93	71.7034	2,731.93	57.8827	2,731.93	69.4331	2,731.93	72.6333	2,731.93	71.3646	2,731.93	61.3462	2,731.93	67.7085	2,731.93	77.0462	2,731.93	78.6919
2,828.61	87.2379	2,828.61	88.0176	2,828.61	87.1853	2,828.61	87.4219	2,828.61	88.0408	2,828.61	87.1879	2,828.61	87.8129	2,828.61	87.5707	2,828.61	87.3946	2,828.61	86.926	2,828.61	85.8967	2,828.61	84.8321	2,828.61	83.3767	2,828.61	81.7168	2,828.61	82.266	2,828.61	80.6177	2,828.61	79.0969	2,828.61	75.6902	2,828.61	71.7286	2,828.61	77.5993	2,828.61	77.4166	2,828.61	75.3382	2,828.61	73.5349	2,828.61	73.7686	2,828.61	69.3726	2,828.61	70.8326	2,828.61	69.8322	2,828.61	76.0715	2,828.61	66.2573	2,828.61	70.6731	2,828.61	69.3459	2,828.61	70.4424	2,828.61	63.0373	2,828.61	71.2024	2,828.61	67.807	2,828.61	71.8536
2,928.22	88.6421	2,928.22	89.0193	2,928.22	88.0728	2,928.22	87.9682	2,928.22	88.7027	2,928.22	87.3219	2,928.22	87.5914	2,928.22	87.1017	2,928.22	86.8536	2,928.22	85.9482	2,928.22	84.9822	2,928.22	83.2526	2,928.22	83.9212	2,928.22	81.3991	2,928.22	82.6866	2,928.22	80.5642	2,928.22	76.0031	2,928.22	80.1033	2,928.22	79.4665	2,928.22	74.9245	2,928.22	78.9117	2,928.22	74.4192	2,928.22	72.4666	2,928.22	73.4798	2,928.22	67.0349	2,928.22	72.9466	2,928.22	68.4067	2,928.22	73.6893	2,928.22	66.7996	2,928.22	71.674	2,928.22	70.4555	2,928.22	65.9569	2,928.22	67.5578	2,928.22	69.9447	2,928.22	71.637	2,928.22	67.283
3,030.76	89.1434	3,030.76	89.2448	3,030.76	88.0969	3,030.76	89.3362	3,030.76	88.3009	3,030.76	87.8685	3,030.76	87.1692	3,030.76	86.049	3,030.76	86.7756	3,030.76	85.5184	3,030.76	84.7708	3,030.76	83.0996	3,030.76	83.3974	3,030.76	83.3474	3,030.76	80.7207	3,030.76	82.6849	3,030.76	78.9915	3,030.76	76.7983	3,030.76	81.5533	3,030.76	75.568	3,030.76	78.6707	3,030.76	74.6659	3,030.76	67.2457	3,030.76	74.3714	3,030.76	62.7438	3,030.76	73.1335	3,030.76	71.1048	3,030.76	73.8771	3,030.76	67.455	3,030.76	73.7889	3,030.76	68.7012	3,030.76	70.2184	3,030.76	58.3298	3,030.76	73.1813	3,030.76	69.9182	3,030.76	68.529
3,137.7	89.2008	3,137.7	89.8033	3,137.7	88.1769	3,137.7	88.9974	3,137.7	87.4996	3,137.7	86.746	3,137.7	87.0423	3,137.7	86.537	3,137.7	86.3116	3,137.7	85.6191	3,137.7	84.3612	3,137.7	84.4279	3,137.7	81.806	3,137.7	84.3807	3,137.7	79.0649	3,137.7	79.9824	3,137.7	80.7913	3,137.7	75.9122	3,137.7	81.9514	3,137.7	76.1686	3,137.7	71.7495	3,137.7	74.5179	3,137.7	68.175	3,137.7	72.6236	3,137.7	65.6264	3,137.7	73.3766	3,137.7	70.1052	3,137.7	70.4423	3,137.7	65.2177	3,137.7	72.8706	3,137.7	70.8934	3,137.7	67.8363	3,137.7	64.5262	3,137.7	72.0267	3,137.7	72.0563	3,137.7	62.5712
3,249.02	89.2006	3,249.02	88.7609	3,249.02	88.9017	3,249.02	87.3227	3,249.02	87.2488	3,249.02	86.6539	3,249.02	86.8121	3,249.02	86.9807	3,249.02	85.429	3,249.02	85.887	3,249.02	83.383	3,249.02	85.8072	3,249.02	82.1767	3,249.02	82.028	3,249.02	81.3484	3,249.02	77.6496	3,249.02	83.1995	3,249.02	78.2211	3,249.02	82.3837	3,249.02	75.0375	3,249.02	73.9202	3,249.02	73.7224	3,249.02	73.4202	3,249.02	71.9193	3,249.02	70.2698	3,249.02	73.6225	3,249.02	67.2497	3,249.02	73.8191	3,249.02	65.7953	3,249.02	74.3097	3,249.02	68.5236	3,249.02	69.0694	3,249.02	67.7009	3,249.02	69.5856	3,249.02	68.7597	3,249.02	54.7937
3,363.28	88.1885	3,363.28	87.1737	3,363.28	88.5163	3,363.28	85.6061	3,363.28	87.0869	3,363.28	86.0443	3,363.28	86.4482	3,363.28	86.5988	3,363.28	85.6939	3,363.28	86.4178	3,363.28	83.6331	3,363.28	84.8799	3,363.28	83.5067	3,363.28	80.8082	3,363.28	83.1999	3,363.28	81.5912	3,363.28	83.5933	3,363.28	78.1233	3,363.28	80.8414	3,363.28	74.2246	3,363.28	75.8848	3,363.28	72.5888	3,363.28	69.9206	3,363.28	74.278	3,363.28	72.9122	3,363.28	71.8231	3,363.28	66.5614	3,363.28	71.7606	3,363.28	67.8036	3,363.28	72.2285	3,363.28	65.9474	3,363.28	63.0594	3,363.28	67.3869	3,363.28	68.783	3,363.28	69.1639	3,363.28	58.7814
3,481.93	87.7046	3,481.93	86.5721	3,481.93	87.4535	3,481.93	85.5667	3,481.93	87.1804	3,481.93	86.1364	3,481.93	86.8964	3,481.93	87.5544	3,481.93	85.3967	3,481.93	86.9941	3,481.93	82.5378	3,481.93	83.6944	3,481.93	83.7795	3,481.93	82.1684	3,481.93	83.2166	3,481.93	80.4882	3,481.93	83.4488	3,481.93	74.0551	3,481.93	77.8498	3,481.93	75.4298	3,481.93	76.418	3,481.93	72.1594	3,481.93	67.7857	3,481.93	72.2756	3,481.93	70.4954	3,481.93	70.6011	3,481.93	59.6521	3,481.93	71.2843	3,481.93	69.7928	3,481.93	70.1281	3,481.93	69.8336	3,481.93	68.936	3,481.93	63.2575	3,481.93	69.6471	3,481.93	62.5009	3,481.93	58.3524
3,604.98	87.6567	3,604.98	86.8788	3,604.98	86.3497	3,604.98	86.3941	3,604.98	85.7626	3,604.98	87.2913	3,604.98	87.2909	3,604.98	87.0966	3,604.98	85.9145	3,604.98	86.9404	3,604.98	84.5427	3,604.98	82.9718	3,604.98	83.5736	3,604.98	82.8496	3,604.98	83.3516	3,604.98	76.664	3,604.98	79.2222	3,604.98	76.3785	3,604.98	66.3832	3,604.98	73.6832	3,604.98	70.6975	3,604.98	72.0724	3,604.98	59.4357	3,604.98	70.444	3,604.98	70.4037	3,604.98	71.3134	3,604.98	57.4952	3,604.98	72.1087	3,604.98	69.8976	3,604.98	71.4951	3,604.98	69.3994	3,604.98	69.8105	3,604.98	63.1072	3,604.98	70.3874	3,604.98	61.594	3,604.98	58.2436
3,732.42	87.0716	3,732.42	85.4836	3,732.42	87.6542	3,732.42	86.7436	3,732.42	85.6234	3,732.42	87.4571	3,732.42	86.2355	3,732.42	87.6795	3,732.42	85.5545	3,732.42	85.869	3,732.42	85.6063	3,732.42	84.2169	3,732.42	83.2422	3,732.42	80.997	3,732.42	80.9272	3,732.42	79.398	3,732.42	69.8867	3,732.42	77.301	3,732.42	74.2849	3,732.42	72.8412	3,732.42	60.1189	3,732.42	73.3882	3,732.42	69.4524	3,732.42	72.6729	3,732.42	67.755	3,732.42	72.688	3,732.42	70.9137	3,732.42	70.7556	3,732.42	67.8143	3,732.42	72.7377	3,732.42	68.6435	3,732.42	67.1119	3,732.42	66.3808	3,732.42	71.1859	3,732.42	62.2227	3,732.42	59.5148
3,864.26	86.6499	3,864.26	86.351	3,864.26	88.4647	3,864.26	87.0698	3,864.26	87.7109	3,864.26	87.5247	3,864.26	86.1922	3,864.26	88.0488	3,864.26	84.6282	3,864.26	86.1468	3,864.26	85.3904	3,864.26	84.4263	3,864.26	83.9598	3,864.26	81.2955	3,864.26	80.368	3,864.26	80.8611	3,864.26	77.278	3,864.26	76.7737	3,864.26	77.6798	3,864.26	73.9874	3,864.26	76.6877	3,864.26	73.3889	3,864.26	71.6791	3,864.26	73.2569	3,864.26	68.841	3,864.26	72.4425	3,864.26	65.2084	3,864.26	71.6882	3,864.26	65.4127	3,864.26	70.2348	3,864.26	64.3588	3,864.26	65.6522	3,864.26	64.7601	3,864.26	70.519	3,864.26	66.5904	3,864.26	64.816
4,000.49	85.8966	4,000.49	85.53	4,000.49	87.5662	4,000.49	87.8527	4,000.49	87.3116	4,000.49	87.2284	4,000.49	87.7514	4,000.49	86.2409	4,000.49	85.6764	4,000.49	86.046	4,000.49	86.4284	4,000.49	82.8705	4,000.49	84.6149	4,000.49	83.754	4,000.49	79.8727	4,000.49	80.0764	4,000.49	76.7013	4,000.49	76.2008	4,000.49	77.4229	4,000.49	74.0127	4,000.49	77.2041	4,000.49	72.3616	4,000.49	73.0042	4,000.49	71.9321	4,000.49	68.7546	4,000.49	71.3209	4,000.49	57.0382	4,000.49	72.1967	4,000.49	61.7417	4,000.49	71.3936	4,000.49	62.799	4,000.49	65.8954	4,000.49	68.2413	4,000.49	66.7722	4,000.49	67.6196	4,000.49	57.004
4,141.11	87.3441	4,141.11	88.161	4,141.11	89.1194	4,141.11	88.5745	4,141.11	88.1365	4,141.11	87.5997	4,141.11	86.5791	4,141.11	87.8989	4,141.11	86.3377	4,141.11	86.647	4,141.11	86.9802	4,141.11	84.6898	4,141.11	84.2967	4,141.11	83.2346	4,141.11	78.8451	4,141.11	78.9153	4,141.11	80.2295	4,141.11	78.3954	4,141.11	81.6922	4,141.11	75.3096	4,141.11	75.9086	4,141.11	73.7183	4,141.11	66.897	4,141.11	73.8359	4,141.11	65.1158	4,141.11	72.187	4,141.11	69.5797	4,141.11	71.6175	4,141.11	53.8225	4,141.11	73.035	4,141.11	64.6521	4,141.11	69.2914	4,141.11	69.8646	4,141.11	69.1481	4,141.11	68.5556	4,141.11	63.0026
4,287.6	89.2846	4,287.6	90.179	4,287.6	89.2365	4,287.6	89.6773	4,287.6	89.5331	4,287.6	88.9439	4,287.6	87.3918	4,287.6	87.695	4,287.6	87.8273	4,287.6	86.4603	4,287.6	88.0362	4,287.6	86.6918	4,287.6	83.4693	4,287.6	83.074	4,287.6	80.0822	4,287.6	83.4795	4,287.6	83.0617	4,287.6	79.0653	4,287.6	78.4824	4,287.6	74.0507	4,287.6	62.4497	4,287.6	72.7412	4,287.6	72.5438	4,287.6	74.6013	4,287.6	65.5201	4,287.6	70.5927	4,287.6	74.6218	4,287.6	73.1736	4,287.6	67.1812	4,287.6	71.0389	4,287.6	66.551	4,287.6	69.4084	4,287.6	70.5609	4,287.6	68.4147	4,287.6	68.1493	4,287.6	62.0589
4,438.48	90.4837	4,438.48	90.8487	4,438.48	89.5287	4,438.48	90.6863	4,438.48	90.0402	4,438.48	88.3216	4,438.48	87.5677	4,438.48	87.4985	4,438.48	88.6068	4,438.48	87.5498	4,438.48	88.3339	4,438.48	85.2445	4,438.48	79.5002	4,438.48	84.9852	4,438.48	82.7762	4,438.48	81.5542	4,438.48	83.169	4,438.48	77.0087	4,438.48	74.9579	4,438.48	76.226	4,438.48	73.1894	4,438.48	72.8596	4,438.48	75.3552	4,438.48	71.6159	4,438.48	58.72	4,438.48	72.0788	4,438.48	73.374	4,438.48	72.5266	4,438.48	65.4326	4,438.48	71.9834	4,438.48	72.2337	4,438.48	71.0729	4,438.48	69.6864	4,438.48	69.7174	4,438.48	69.0469	4,438.48	59.5399
4,595.21	89.816	4,595.21	91.7193	4,595.21	89.9324	4,595.21	89.6281	4,595.21	90.1193	4,595.21	86.5075	4,595.21	89.2292	4,595.21	86.9453	4,595.21	89.308	4,595.21	87.7509	4,595.21	86.418	4,595.21	84.7908	4,595.21	82.6789	4,595.21	85.3757	4,595.21	84.3266	4,595.21	78.8755	4,595.21	80.318	4,595.21	78.7331	4,595.21	73.8339	4,595.21	74.0204	4,595.21	78.179	4,595.21	73.1979	4,595.21	61.889	4,595.21	71.7826	4,595.21	55.9933	4,595.21	72.3731	4,595.21	73.2102	4,595.21	70.1594	4,595.21	65.2335	4,595.21	68.8169	4,595.21	68.8385	4,595.21	68.3804	4,595.21	72.8466	4,595.21	67.099	4,595.21	71.0424	4,595.21	57.7227
4,756.35	89.5538	4,756.35	90.8733	4,756.35	89.3025	4,756.35	88.9067	4,756.35	90.4828	4,756.35	87.7212	4,756.35	89.3956	4,756.35	88.3157	4,756.35	89.0114	4,756.35	87.5587	4,756.35	83.0631	4,756.35	85.8144	4,756.35	85.8934	4,756.35	80.9283	4,756.35	85.3745	4,756.35	80.4837	4,756.35	79.1172	4,756.35	75.1995	4,756.35	78.2687	4,756.35	73.3943	4,756.35	75.2064	4,756.35	68.5583	4,756.35	63.9025	4,756.35	70.7768	4,756.35	56.0254	4,756.35	68.025	4,756.35	70.0824	4,756.35	69.0989	4,756.35	67.1079	4,756.35	70.053	4,756.35	65.7442	4,756.35	67.8739	4,756.35	70.9627	4,756.35	63.1044	4,756.35	72.0138	4,756.35	51.8092
4,924.8	90.8434	4,924.8	89.475	4,924.8	88.9723	4,924.8	87.8103	4,924.8	89.7447	4,924.8	89.1239	4,924.8	89.0993	4,924.8	87.4621	4,924.8	88.6579	4,924.8	86.542	4,924.8	82.2835	4,924.8	83.1075	4,924.8	87.8591	4,924.8	82.2372	4,924.8	82.5027	4,924.8	78.6234	4,924.8	78.4008	4,924.8	75.3117	4,924.8	76.9485	4,924.8	68.1641	4,924.8	70.5108	4,924.8	71.5105	4,924.8	68.5064	4,924.8	72.0684	4,924.8	56.9877	4,924.8	65.7922	4,924.8	69.459	4,924.8	66.0059	4,924.8	68.4714	4,924.8	68.8427	4,924.8	61.8452	4,924.8	67.1364	4,924.8	70.9617	4,924.8	62.9204	4,924.8	70.8169	4,924.8	59.2739
5,097.66	90.9495	5,097.66	90.7117	5,097.66	89.1834	5,097.66	88.5473	5,097.66	89.5104	5,097.66	86.5998	5,097.66	89.1003	5,097.66	85.9539	5,097.66	87.5438	5,097.66	85.7269	5,097.66	83.3606	5,097.66	82.2798	5,097.66	86.9865	5,097.66	80.374	5,097.66	79.9632	5,097.66	74.8904	5,097.66	77.766	5,097.66	75.2506	5,097.66	76.9677	5,097.66	70.7845	5,097.66	76.474	5,097.66	71.5929	5,097.66	70.2108	5,097.66	68.5852	5,097.66	68.0093	5,097.66	71.1161	5,097.66	65.8482	5,097.66	67.0716	5,097.66	72.9264	5,097.66	69.4059	5,097.66	63.4698	5,097.66	67.9033	5,097.66	64.4942	5,097.66	64.923	5,097.66	68.307	5,097.66	59.4748
5,277.83	90.6754	5,277.83	90.1024	5,277.83	87.8245	5,277.83	88.2369	5,277.83	87.3545	5,277.83	85.6328	5,277.83	88.9975	5,277.83	87.1689	5,277.83	85.1647	5,277.83	83.2656	5,277.83	86.9484	5,277.83	82.2067	5,277.83	83.9491	5,277.83	79.2779	5,277.83	79.0623	5,277.83	79.985	5,277.83	75.7883	5,277.83	73.573	5,277.83	77.6463	5,277.83	72.2978	5,277.83	74.7783	5,277.83	69.3339	5,277.83	74.4655	5,277.83	68.2439	5,277.83	68.9388	5,277.83	72.2699	5,277.83	59.3037	5,277.83	67.2852	5,277.83	72.1762	5,277.83	65.8837	5,277.83	63.2268	5,277.83	62.663	5,277.83	62.2507	5,277.83	57.7566	5,277.83	66.0053	5,277.83	60.7878
5,463.87	90.0049	5,463.87	88.7076	5,463.87	87.9116	5,463.87	86.9748	5,463.87	85.0262	5,463.87	87.9237	5,463.87	89.2685	5,463.87	85.8073	5,463.87	83.8801	5,463.87	84.2141	5,463.87	87.1035	5,463.87	81.3067	5,463.87	79.3521	5,463.87	82.9292	5,463.87	80.7564	5,463.87	76.5577	5,463.87	77.9009	5,463.87	75.089	5,463.87	77.8468	5,463.87	72.76	5,463.87	73.2923	5,463.87	70.1246	5,463.87	75.5429	5,463.87	68.9421	5,463.87	66.8372	5,463.87	72.0607	5,463.87	69.0247	5,463.87	68.579	5,463.87	64.6989	5,463.87	65.5672	5,463.87	63.3457	5,463.87	68.6335	5,463.87	64.8856	5,463.87	56.336	5,463.87	68.2164	5,463.87	60.0543
5,657.23	88.4977	5,657.23	86.09	5,657.23	88.0226	5,657.23	87.4822	5,657.23	85.1082	5,657.23	86.0707	5,657.23	88.5053	5,657.23	84.4107	5,657.23	85.0864	5,657.23	83.8257	5,657.23	84.6993	5,657.23	84.2027	5,657.23	81.2308	5,657.23	79.6862	5,657.23	81.1095	5,657.23	80.3561	5,657.23	77.7054	5,657.23	75.4561	5,657.23	77.3028	5,657.23	73.3492	5,657.23	75.6331	5,657.23	70.0972	5,657.23	70.0675	5,657.23	69.5955	5,657.23	63.7409	5,657.23	71.1092	5,657.23	63.1585	5,657.23	69.6376	5,657.23	59.2671	5,657.23	67.2341	5,657.23	65.3494	5,657.23	66.3335	5,657.23	66.4156	5,657.23	63.352	5,657.23	67.1944	5,657.23	56.1829
5,856.45	86.6644	5,856.45	87.3996	5,856.45	89.3044	5,856.45	87.7437	5,856.45	88.4382	5,856.45	86.0573	5,856.45	87.9906	5,856.45	85.9077	5,856.45	86.5215	5,856.45	84.6934	5,856.45	83.987	5,856.45	83.6582	5,856.45	82.3011	5,856.45	83.5137	5,856.45	81.4379	5,856.45	80.4739	5,856.45	81.1215	5,856.45	75.4378	5,856.45	78.549	5,856.45	71.8508	5,856.45	76.5583	5,856.45	70.9077	5,856.45	70.6811	5,856.45	70.3776	5,856.45	64.4632	5,856.45	69.4317	5,856.45	63.8887	5,856.45	66.8226	5,856.45	61.2644	5,856.45	70.1852	5,856.45	44.5799	5,856.45	70.4827	5,856.45	68.1113	5,856.45	62.5298	5,856.45	63.686	5,856.45	64.6376
6,062.99	87.6968	6,062.99	88.8279	6,062.99	89.8872	6,062.99	89.0709	6,062.99	88.7747	6,062.99	87.5232	6,062.99	86.666	6,062.99	86.6047	6,062.99	86.9395	6,062.99	85.7935	6,062.99	84.495	6,062.99	84.9945	6,062.99	83.3654	6,062.99	83.1448	6,062.99	81.4101	6,062.99	77.8778	6,062.99	81.7389	6,062.99	76.6972	6,062.99	76.6639	6,062.99	70.5144	6,062.99	71.6815	6,062.99	70.4907	6,062.99	67.653	6,062.99	70.157	6,062.99	69.0921	6,062.99	69.4606	6,062.99	66.7136	6,062.99	65.9625	6,062.99	69.326	6,062.99	71.0087	6,062.99	62.2425	6,062.99	68.932	6,062.99	63.271	6,062.99	61.3313	6,062.99	65.6136	6,062.99	60.8385
6,276.86	88.4361	6,276.86	89.0309	6,276.86	89.9195	6,276.86	88.9259	6,276.86	88.0324	6,276.86	87.5003	6,276.86	85.5379	6,276.86	86.0403	6,276.86	87.7747	6,276.86	86.4893	6,276.86	85.257	6,276.86	84.1936	6,276.86	84.2484	6,276.86	82.6273	6,276.86	83.4074	6,276.86	79.1444	6,276.86	80.8423	6,276.86	73.3845	6,276.86	73.0933	6,276.86	70.224	6,276.86	72.0653	6,276.86	67.7783	6,276.86	68.1659	6,276.86	69.6779	6,276.86	60.8598	6,276.86	70.0076	6,276.86	63.4565	6,276.86	67.0922	6,276.86	64.7886	6,276.86	70.1296	6,276.86	66.9377	6,276.86	65.6084	6,276.86	59.6869	6,276.86	58.4352	6,276.86	63.2194	6,276.86	59.9038
6,498.05	88.7906	6,498.05	89.0312	6,498.05	88.1981	6,498.05	89.1242	6,498.05	86.7045	6,498.05	87.4934	6,498.05	85.3359	6,498.05	87.1432	6,498.05	88.1256	6,498.05	85.8477	6,498.05	85.9781	6,498.05	83.784	6,498.05	83.2775	6,498.05	82.3974	6,498.05	83.3103	6,498.05	77.7598	6,498.05	77.8054	6,498.05	74.705	6,498.05	75.4227	6,498.05	71.153	6,498.05	74.8118	6,498.05	68.5229	6,498.05	61.1586	6,498.05	68.798	6,498.05	50.3864	6,498.05	68.0302	6,498.05	60.6178	6,498.05	64.8541	6,498.05	59.8469	6,498.05	67.4511	6,498.05	63.7696	6,498.05	66.5692	6,498.05	47.5247	6,498.05	57.3306	6,498.05	63.8712	6,498.05	46.3864
6,726.56	89.8411	6,726.56	90.5557	6,726.56	88.4724	6,726.56	89.7799	6,726.56	87.0975	6,726.56	86.8704	6,726.56	86.8249	6,726.56	86.7919	6,726.56	87.4275	6,726.56	85.4725	6,726.56	84.3364	6,726.56	83.7386	6,726.56	82.4803	6,726.56	80.5508	6,726.56	78.7724	6,726.56	77.5718	6,726.56	72.286	6,726.56	72.2975	6,726.56	72.7826	6,726.56	69.2864	6,726.56	64.9358	6,726.56	67.4559	6,726.56	63.7483	6,726.56	66.6532	6,726.56	60.0476	6,726.56	68.6156	6,726.56	54.7191	6,726.56	66.6489	6,726.56	56.2963	6,726.56	58.2999	6,726.56	67.275	6,726.56	64.802	6,726.56	56.7994	6,726.56	60.804	6,726.56	58.4502	6,726.56	58.525
6,963.87	89.9738	6,963.87	89.6176	6,963.87	90.217	6,963.87	88.4043	6,963.87	89.7713	6,963.87	87.0976	6,963.87	86.3728	6,963.87	86.9815	6,963.87	87.657	6,963.87	85.2103	6,963.87	82.7542	6,963.87	81.7108	6,963.87	82.4137	6,963.87	80.3769	6,963.87	69.8737	6,963.87	74.635	6,963.87	74.4834	6,963.87	72.2945	6,963.87	70.1683	6,963.87	68.4932	6,963.87	69.9529	6,963.87	67.6087	6,963.87	67.5859	6,963.87	67.5324	6,963.87	47.4415	6,963.87	65.7009	6,963.87	63.5186	6,963.87	66.7334	6,963.87	64.5673	6,963.87	63.9431	6,963.87	62.214	6,963.87	62.1976	6,963.87	59.2903	6,963.87	60.2465	6,963.87	64.0277	6,963.87	54.4316
7,209.96	89.9215	7,209.96	89.6213	7,209.96	90.1434	7,209.96	88.6	7,209.96	90.2655	7,209.96	87.3834	7,209.96	86.4448	7,209.96	87.4454	7,209.96	86.9279	7,209.96	84.6342	7,209.96	83.7096	7,209.96	82.4773	7,209.96	80.7616	7,209.96	80.5066	7,209.96	76.7684	7,209.96	78.378	7,209.96	77.207	7,209.96	73.2912	7,209.96	72.4423	7,209.96	70.689	7,209.96	73.0814	7,209.96	67.9004	7,209.96	67.4329	7,209.96	68.8667	7,209.96	57.7373	7,209.96	66.7555	7,209.96	55.0904	7,209.96	67.4885	7,209.96	63.05	7,209.96	66.3683	7,209.96	56.3266	7,209.96	61.528	7,209.96	59.8604	7,209.96	62.8469	7,209.96	60.932	7,209.96	49.9823
7,464.84	89.9156	7,464.84	89.3031	7,464.84	89.3957	7,464.84	88.2675	7,464.84	88.3469	7,464.84	87.9945	7,464.84	87.4138	7,464.84	86.4452	7,464.84	84.8038	7,464.84	84.2885	7,464.84	84.4456	7,464.84	82.3609	7,464.84	76.3511	7,464.84	81.3281	7,464.84	80.9999	7,464.84	75.9351	7,464.84	76.7451	7,464.84	72.8066	7,464.84	76.3926	7,464.84	70.0105	7,464.84	71.9118	7,464.84	65.0293	7,464.84	66.5433	7,464.84	68.0942	7,464.84	56.5796	7,464.84	67.5231	7,464.84	55.8623	7,464.84	65.921	7,464.84	58.526	7,464.84	67.8341	7,464.84	62.7312	7,464.84	63.5763	7,464.84	56.6507	7,464.84	62.5314	7,464.84	60.2741	7,464.84	55.6692
7,727.05	89.7471	7,727.05	88.9144	7,727.05	86.1016	7,727.05	87.9423	7,727.05	86.7368	7,727.05	87.8477	7,727.05	87.0181	7,727.05	86.3264	7,727.05	83.9528	7,727.05	83.8465	7,727.05	83.159	7,727.05	82.7185	7,727.05	76.4981	7,727.05	80.259	7,727.05	80.9691	7,727.05	77.8401	7,727.05	73.3597	7,727.05	70.5973	7,727.05	71.8847	7,727.05	68.7712	7,727.05	67.3433	7,727.05	63.5745	7,727.05	64.051	7,727.05	67.4859	7,727.05	52.6068	7,727.05	65.7899	7,727.05	63.2573	7,727.05	65.4954	7,727.05	47.9845	7,727.05	67.58	7,727.05	61.3724	7,727.05	61.0211	7,727.05	59.8833	7,727.05	58.401	7,727.05	54.4512	7,727.05	49.3831
7,999.51	90.5563	7,999.51	89.6874	7,999.51	86.8382	7,999.51	87.9623	7,999.51	83.8577	7,999.51	87.8552	7,999.51	87.1297	7,999.51	85.501	7,999.51	82.0735	7,999.51	83.3633	7,999.51	82.1337	7,999.51	82.5842	7,999.51	80.6685	7,999.51	80.0583	7,999.51	76.2371	7,999.51	76.2236	7,999.51	73.3009	7,999.51	73.4117	7,999.51	68.8473	7,999.51	68.5862	7,999.51	70.1465	7,999.51	61.569	7,999.51	54.3902	7,999.51	64.1564	7,999.51	62.8003	7,999.51	67.6101	7,999.51	55.329	7,999.51	65.0099	7,999.51	58.8532	7,999.51	63.0557	7,999.51	59.0269	7,999.51	56.821	7,999.51	63.0557	7,999.51	59.8302	7,999.51	48.6206	7,999.51	57.6844
8,282.23	89.8016	8,282.23	88.0701	8,282.23	88.8059	8,282.23	88.3242	8,282.23	86.8986	8,282.23	87.0839	8,282.23	85.6897	8,282.23	85.6993	8,282.23	82.3761	8,282.23	83.5872	8,282.23	80.814	8,282.23	82.4585	8,282.23	81.9073	8,282.23	79.6007	8,282.23	67.6123	8,282.23	73.425	8,282.23	74.8746	8,282.23	69.3931	8,282.23	73.3904	8,282.23	61.2949	8,282.23	71.6467	8,282.23	66.0694	8,282.23	59.3205	8,282.23	65.6514	8,282.23	60.7777	8,282.23	66.3209	8,282.23	54.1285	8,282.23	63.1304	8,282.23	61.4327	8,282.23	60.2453	8,282.23	58.4554	8,282.23	56.2461	8,282.23	58.5433	8,282.23	54.1931	8,282.23	41.5666	8,282.23	47.0507
8,573.73	89.3932	8,573.73	89.192	8,573.73	89.8087	8,573.73	88.4617	8,573.73	88.1549	8,573.73	86.6013	8,573.73	85.6043	8,573.73	85.6858	8,573.73	84.5359	8,573.73	82.7683	8,573.73	82.665	8,573.73	81.8821	8,573.73	80.3637	8,573.73	77.8738	8,573.73	75.7503	8,573.73	74.5653	8,573.73	74.9449	8,573.73	69.2801	8,573.73	71.5855	8,573.73	61.138	8,573.73	66.9763	8,573.73	64.7172	8,573.73	60.4009	8,573.73	64.2129	8,573.73	57.6019	8,573.73	58.9585	8,573.73	57.7913	8,573.73	60.8853	8,573.73	52.5696	8,573.73	58.3747	8,573.73	58.4748	8,573.73	58.6861	8,573.73	61.0333	8,573.73	44.2123	8,573.73	51.5989	8,573.73	58.8698
8,876.95	88.7187	8,876.95	89.1842	8,876.95	88.6462	8,876.95	88.3549	8,876.95	89.3007	8,876.95	86.3352	8,876.95	85.7399	8,876.95	85.7786	8,876.95	84.7639	8,876.95	82.8804	8,876.95	82.2961	8,876.95	80.8327	8,876.95	75.7071	8,876.95	77.623	8,876.95	76.1701	8,876.95	73.1003	8,876.95	70.2216	8,876.95	70.5356	8,876.95	69.5397	8,876.95	67.0595	8,876.95	61.2499	8,876.95	60.0591	8,876.95	63.3473	8,876.95	63.3283	8,876.95	61.4749	8,876.95	61.9978	8,876.95	56.8045	8,876.95	63.1601	8,876.95	57.5566	8,876.95	56.3785	8,876.95	52.5925	8,876.95	60.5209	8,876.95	58.9255	8,876.95	60.1583	8,876.95	52.2127	8,876.95	60.5393
9,188.96	88.5066	9,188.96	89.1986	9,188.96	87.5244	9,188.96	88.0019	9,188.96	88.6483	9,188.96	86.4546	9,188.96	86.0952	9,188.96	85.3146	9,188.96	84.162	9,188.96	82.7679	9,188.96	81.6474	9,188.96	80.1678	9,188.96	74.3423	9,188.96	77.2014	9,188.96	72.7144	9,188.96	73.0739	9,188.96	65.8625	9,188.96	67.1387	9,188.96	65.3316	9,188.96	65.0949	9,188.96	60.8223	9,188.96	61.3095	9,188.96	53.6222	9,188.96	62.9019	9,188.96	62.7431	9,188.96	62.0874	9,188.96	59.6719	9,188.96	62.4279	9,188.96	50.7834	9,188.96	58.713	9,188.96	52.2915	9,188.96	63.2372	9,188.96	55.7798	9,188.96	60.7453	9,188.96	57.0114	9,188.96	56.7727
9,514.16	88.6955	9,514.16	89.4333	9,514.16	89.1033	9,514.16	88.5236	9,514.16	86.7787	9,514.16	86.4971	9,514.16	85.5309	9,514.16	85.4873	9,514.16	82.6416	9,514.16	82.4791	9,514.16	79.0722	9,514.16	79.8768	9,514.16	77.3781	9,514.16	77.0468	9,514.16	68.8769	9,514.16	73.8601	9,514.16	71.7653	9,514.16	68.7353	9,514.16	65.4529	9,514.16	62.1918	9,514.16	66.1798	9,514.16	61.7174	9,514.16	51.8513	9,514.16	62.1182	9,514.16	61.9209	9,514.16	63.9651	9,514.16	56.4056	9,514.16	62.6496	9,514.16	58.3164	9,514.16	59.1131	9,514.16	47.9669	9,514.16	62.2171	9,514.16	59.3381	9,514.16	56.2533	9,514.16	55.6745	9,514.16	53.5811
9,849.61	89.2001	9,849.61	89.4349	9,849.61	89.3182	9,849.61	88.208	9,849.61	84.4851	9,849.61	86.3044	9,849.61	85.8049	9,849.61	85.6739	9,849.61	81.9431	9,849.61	81.7391	9,849.61	79.0731	9,849.61	79.7889	9,849.61	76.0844	9,849.61	77.0274	9,849.61	71.6868	9,849.61	72.1146	9,849.61	69.2593	9,849.61	67.7177	9,849.61	66.1903	9,849.61	60.7787	9,849.61	57.3973	9,849.61	61.9505	9,849.61	54.1445	9,849.61	61.4642	9,849.61	64.343	9,849.61	60.7609	9,849.61	57.4643	9,849.61	61.3711	9,849.61	49.5581	9,849.61	57.271	9,849.61	50.3358	9,849.61	60.4272	9,849.61	53.7973	9,849.61	48.503	9,849.61	48.8611	9,849.61	52.2531
10,196.8	89.0731	10,196.8	89.9392	10,196.8	89.1626	10,196.8	88.3461	10,196.8	86.0006	10,196.8	86.3494	10,196.8	86.2188	10,196.8	85.3224	10,196.8	82.2944	10,196.8	81.0633	10,196.8	78.8312	10,196.8	79.0369	10,196.8	76.2107	10,196.8	75.8029	10,196.8	69.6601	10,196.8	69.515	10,196.8	69.584	10,196.8	65.7422	10,196.8	67.7602	10,196.8	59.2711	10,196.8	64.2135	10,196.8	60.0957	10,196.8	51.3796	10,196.8	61.3577	10,196.8	64.6513	10,196.8	61.9316	10,196.8	57.576	10,196.8	59.2209	10,196.8	51.3659	10,196.8	57.2772	10,196.8	46.1421	10,196.8	55.9546	10,196.8	51.5914	10,196.8	44.2565	10,196.8	43.8673	10,196.8	47.8325
10,555.7	90.1526	10,555.7	89.8014	10,555.7	89.4885	10,555.7	88.6077	10,555.7	87.7806	10,555.7	86.2818	10,555.7	85.789	10,555.7	84.8516	10,555.7	82.9774	10,555.7	80.6869	10,555.7	79.614	10,555.7	78.6212	10,555.7	75.1079	10,555.7	74.2589	10,555.7	71.6006	10,555.7	70.4813	10,555.7	66.7013	10,555.7	64.2959	10,555.7	64.7871	10,555.7	61.0587	10,555.7	56.8399	10,555.7	45.8135	10,555.7	59.11	10,555.7	58.7228	10,555.7	64.129	10,555.7	59.5243	10,555.7	57.4118	10,555.7	59.6119	10,555.7	45.077	10,555.7	51.9599	10,555.7	45.6081	10,555.7	53.2257	10,555.7	50.5851	10,555.7	48.0443	10,555.7	43.5704	10,555.7	47.6219
10,927.7	90.4957	10,927.7	89.9408	10,927.7	89.7535	10,927.7	88.8679	10,927.7	88.5892	10,927.7	86.1979	10,927.7	85.072	10,927.7	84.5813	10,927.7	83.1924	10,927.7	80.3906	10,927.7	78.1718	10,927.7	77.9493	10,927.7	74.7758	10,927.7	73.0414	10,927.7	71.1228	10,927.7	69.5651	10,927.7	63.7159	10,927.7	63.7432	10,927.7	63.7043	10,927.7	60.1121	10,927.7	60.6649	10,927.7	55.3297	10,927.7	60.8442	10,927.7	59.4685	10,927.7	63.42	10,927.7	54.697	10,927.7	58.3546	10,927.7	58.1984	10,927.7	39.5702	10,927.7	39.3467	10,927.7	45.6054	10,927.7	51.0398	10,927.7	42.1454	10,927.7	49.3041	10,927.7	49.5714	10,927.7	50.636
11,313	90.353	11,313	89.7477	11,313	89.4965	11,313	88.7739	11,313	88.1101	11,313	85.9589	11,313	85.3372	11,313	84.0701	11,313	82.6262	11,313	79.4417	11,313	77.6931	11,313	76.7427	11,313	73.2028	11,313	72.1163	11,313	61.9974	11,313	67.2844	11,313	65.9721	11,313	64.4334	11,313	64.3442	11,313	48.5769	11,313	59.4319	11,313	57.5865	11,313	61.1519	11,313	58.4253	11,313	65.3337	11,313	57.7237	11,313	55.7667	11,313	57.9592	11,313	47.119	11,313	54.9705	11,313	48.3732	11,313	53.0515	11,313	44.7542	11,313	40.7097	11,313	50.2382	11,313	52.388
11,712.9	90.694	11,712.9	89.9455	11,712.9	88.9505	11,712.9	89.1098	11,712.9	87.3443	11,712.9	85.9416	11,712.9	85.205	11,712.9	83.7846	11,712.9	81.5672	11,712.9	79.2114	11,712.9	75.8937	11,712.9	75.5649	11,712.9	71.2859	11,712.9	71.2656	11,712.9	64.5865	11,712.9	65.7198	11,712.9	62.8593	11,712.9	62.5545	11,712.9	61.1585	11,712.9	54.3906	11,712.9	53.6941	11,712.9	52.6807	11,712.9	62.9509	11,712.9	56.4123	11,712.9	65.9079	11,712.9	56.2223	11,712.9	57.5516	11,712.9	56.1168	11,712.9	53.0151	11,712.9	52.5191	11,712.9	42.1803	11,712.9	55.3612	11,712.9	44.2275	11,712.9	43.7761	11,712.9	46.2861	11,712.9	51.4419
12,126	90.8238	12,126	90.184	12,126	89.6659	12,126	89.0988	12,126	87.7845	12,126	86.2995	12,126	85.2291	12,126	83.646	12,126	80.959	12,126	78.6814	12,126	75.2606	12,126	74.2718	12,126	67.6291	12,126	67.3337	12,126	58.0721	12,126	62.2311	12,126	51.8491	12,126	59.8648	12,126	54.6283	12,126	54.6571	12,126	56.6637	12,126	54.1429	12,126	65.6685	12,126	54.6648	12,126	65.9589	12,126	52.9228	12,126	59.0536	12,126	51.9478	12,126	43.9136	12,126	46.8414	12,126	44.3762	12,126	51.1705	12,126	47.6281	12,126	46.067	12,126	44.8903	12,126	43.3929
12,553.7	90.9821	12,553.7	90.6376	12,553.7	90.1202	12,553.7	89.1644	12,553.7	88.2906	12,553.7	86.1179	12,553.7	84.211	12,553.7	83.2707	12,553.7	79.9035	12,553.7	77.1157	12,553.7	72.303	12,553.7	72.4768	12,553.7	63.3416	12,553.7	65.7616	12,553.7	54.9532	12,553.7	62.0405	12,553.7	35.3012	12,553.7	58.7452	12,553.7	56.9951	12,553.7	53.2337	12,553.7	59.6077	12,553.7	56.5094	12,553.7	68.7866	12,553.7	54.5916	12,553.7	67.6351	12,553.7	56.0312	12,553.7	59.8419	12,553.7	53.7475	12,553.7	49.2011	12,553.7	50.3699	12,553.7	44.9984	12,553.7	49.0706	12,553.7	45.5149	12,553.7	44.0055	12,553.7	39.9054	12,553.7	46.2398
12,996.1	91.4577	12,996.1	90.7844	12,996.1	90.0726	12,996.1	89.4233	12,996.1	87.7305	12,996.1	85.8554	12,996.1	83.7129	12,996.1	82.6653	12,996.1	78.8234	12,996.1	76.0042	12,996.1	68.1769	12,996.1	72.4293	12,996.1	56.2433	12,996.1	67.652	12,996.1	63.1963	12,996.1	63.6787	12,996.1	57.7152	12,996.1	59.0632	12,996.1	63.8923	12,996.1	54.4745	12,996.1	66.4167	12,996.1	58.1629	12,996.1	71.7478	12,996.1	57.8168	12,996.1	70.7602	12,996.1	57.2263	12,996.1	61.7691	12,996.1	55.2231	12,996.1	55.2113	12,996.1	51.7749	12,996.1	44.0205	12,996.1	53.9312	12,996.1	49.8711	12,996.1	39.792	12,996.1	50.3021	12,996.1	42.2307
13,454.6	91.6992	13,454.6	91.1498	13,454.6	90.1557	13,454.6	89.5675	13,454.6	87.4912	13,454.6	85.6968	13,454.6	83.635	13,454.6	82.2084	13,454.6	77.0052	13,454.6	76.1868	13,454.6	64.037	13,454.6	73.1443	13,454.6	63.0199	13,454.6	67.6066	13,454.6	67.1285	13,454.6	66.6653	13,454.6	63.0728	13,454.6	60.5974	13,454.6	67.7599	13,454.6	55.784	13,454.6	69.0339	13,454.6	58.5023	13,454.6	73.334	13,454.6	57.5966	13,454.6	72.3458	13,454.6	57.8786	13,454.6	64.0804	13,454.6	54.8169	13,454.6	50.4612	13,454.6	53.2943	13,454.6	50.4471	13,454.6	52.446	13,454.6	49.3733	13,454.6	42.5736	13,454.6	51.5214	13,454.6	48.0502
13,929.2	91.6272	13,929.2	91.5202	13,929.2	90.3668	13,929.2	89.5574	13,929.2	87.58	13,929.2	85.9262	13,929.2	82.3852	13,929.2	81.992	13,929.2	74.9665	13,929.2	76.8222	13,929.2	65.4573	13,929.2	74.9202	13,929.2	67.4028	13,929.2	70.4541	13,929.2	68.9837	13,929.2	68.5829	13,929.2	62.9194	13,929.2	63.2612	13,929.2	68.2751	13,929.2	61.2118	13,929.2	71.0574	13,929.2	58.1957	13,929.2	74.6006	13,929.2	58.309	13,929.2	73.716	13,929.2	55.0281	13,929.2	65.393	13,929.2	54.3236	13,929.2	54.6216	13,929.2	56.1514	13,929.2	45.2984	13,929.2	45.9501	13,929.2	47.3223	13,929.2	50.1207	13,929.2	47.8107	13,929.2	48.5344
14,419.9	91.447	14,419.9	91.3537	14,419.9	90.0175	14,419.9	89.2313	14,419.9	86.8567	14,419.9	86.1448	14,419.9	82.6086	14,419.9	81.8107	14,419.9	74.5514	14,419.9	76.2056	14,419.9	67.1016	14,419.9	76.0986	14,419.9	71.1137	14,419.9	71.9839	14,419.9	69.1449	14,419.9	68.4472	14,419.9	65.9983	14,419.9	63.7229	14,419.9	70.3397	14,419.9	61.9625	14,419.9	72.4055	14,419.9	57.4859	14,419.9	75.6633	14,419.9	56.9105	14,419.9	74.3196	14,419.9	53.8871	14,419.9	66.6239	14,419.9	49.9348	14,419.9	53.0892	14,419.9	55.9876	14,419.9	40.1436	14,419.9	48.5409	14,419.9	50.6445	14,419.9	49.2776	14,419.9	35.8788	14,419.9	39.7259
14,928.2	91.1561	14,928.2	90.9881	14,928.2	89.6014	14,928.2	88.9079	14,928.2	86.0022	14,928.2	85.6082	14,928.2	80.9783	14,928.2	81.3474	14,928.2	72.7249	14,928.2	76.1143	14,928.2	64.4851	14,928.2	75.8781	14,928.2	72.019	14,928.2	71.5634	14,928.2	67.0232	14,928.2	68.6519	14,928.2	67.7181	14,928.2	62.6936	14,928.2	69.9432	14,928.2	59.9808	14,928.2	72.6394	14,928.2	53.42	14,928.2	75.6875	14,928.2	55.9791	14,928.2	74.4902	14,928.2	49.4414	14,928.2	65.4252	14,928.2	52.4483	14,928.2	54.7971	14,928.2	53.34	14,928.2	41.8489	14,928.2	46.3234	14,928.2	39.7542	14,928.2	45.5276	14,928.2	49.1256	14,928.2	43.1918
15,455.6	90.7567	15,455.6	90.4657	15,455.6	89.1579	15,455.6	88.2817	15,455.6	85.0415	15,455.6	84.4524	15,455.6	80.1396	15,455.6	80.8177	15,455.6	71.5834	15,455.6	75.2154	15,455.6	59.8998	15,455.6	74.8112	15,455.6	71.106	15,455.6	71.2727	15,455.6	65.3929	15,455.6	69.0168	15,455.6	64.1753	15,455.6	62.3437	15,455.6	70.5881	15,455.6	58.6496	15,455.6	72.4451	15,455.6	50.2369	15,455.6	75.6439	15,455.6	55.4903	15,455.6	74.1354	15,455.6	47.7455	15,455.6	64.9619	15,455.6	47.5438	15,455.6	53.4362	15,455.6	51.6874	15,455.6	44.5842	15,455.6	47.6836	15,455.6	38.3084	15,455.6	52.6886	15,455.6	33.7973	15,455.6	40.5881
16,000.5	90.0648	16,000.5	89.7217	16,000.5	88.6991	16,000.5	87.4981	16,000.5	84.8202	16,000.5	84.1216	16,000.5	78.5827	16,000.5	79.1004	16,000.5	69.0351	16,000.5	74.6482	16,000.5	61.8204	16,000.5	75.3765	16,000.5	70.0803	16,000.5	72.6001	16,000.5	66.9992	16,000.5	68.4096	16,000.5	64.101	16,000.5	62.0246	16,000.5	70.3243	16,000.5	58.1963	16,000.5	72.7835	16,000.5	47.9486	16,000.5	75.6687	16,000.5	51.8633	16,000.5	74.1283	16,000.5	34.466	16,000.5	66.2706	16,000.5	50.9858	16,000.5	51.0782	16,000.5	51.5858	16,000.5	47.6665	16,000.5	42.4843	16,000.5	52.3777	16,000.5	46.4665	16,000.5	46.6032	16,000.5	47.7593
16,564.5	89.8083	16,564.5	89.39	16,564.5	87.822	16,564.5	87.3218	16,564.5	83.2811	16,564.5	83.5194	16,564.5	74.9082	16,564.5	78.6848	16,564.5	64.8474	16,564.5	74.8307	16,564.5	68.3769	16,564.5	75.1564	16,564.5	72.1642	16,564.5	70.9957	16,564.5	68.0842	16,564.5	66.8976	16,564.5	61.8555	16,564.5	61.4701	16,564.5	69.9057	16,564.5	57.8379	16,564.5	72.7554	16,564.5	46.5895	16,564.5	75.1841	16,564.5	49.9553	16,564.5	73.71	16,564.5	48.4936	16,564.5	63.7934	16,564.5	51.1402	16,564.5	48.5126	16,564.5	44.6553	16,564.5	39.874	16,564.5	47.6454	16,564.5	40.178	16,564.5	50.6344	16,564.5	39.9072	16,564.5	46.5653
17,148.9	89.2973	17,148.9	89.4834	17,148.9	86.8819	17,148.9	87.6304	17,148.9	81.296	17,148.9	82.9932	17,148.9	71.3748	17,148.9	78.1857	17,148.9	71.1102	17,148.9	73.037	17,148.9	74.1162	17,148.9	74.5536	17,148.9	71.8954	17,148.9	70.7796	17,148.9	70.4226	17,148.9	66.9574	17,148.9	64.388	17,148.9	62.1124	17,148.9	71.0819	17,148.9	59.7085	17,148.9	73.1321	17,148.9	49.6123	17,148.9	75.3547	17,148.9	48.8063	17,148.9	73.3034	17,148.9	47.1989	17,148.9	64.7158	17,148.9	52.5504	17,148.9	52.3991	17,148.9	50.4645	17,148.9	45.893	17,148.9	46.1231	17,148.9	45.2547	17,148.9	49.1238	17,148.9	35.1188	17,148.9	41.9177
17,752.4	88.8402	17,752.4	89.226	17,752.4	85.3931	17,752.4	87.5938	17,752.4	79.5438	17,752.4	83.6131	17,752.4	58.6257	17,752.4	78.2891	17,752.4	75.4854	17,752.4	72.8843	17,752.4	74.2725	17,752.4	72.9331	17,752.4	74.2251	17,752.4	70.7039	17,752.4	70.1769	17,752.4	66.0368	17,752.4	64.3934	17,752.4	61.3139	17,752.4	69.9913	17,752.4	58.6037	17,752.4	72.6296	17,752.4	40.908	17,752.4	74.4293	17,752.4	43.0697	17,752.4	72.2738	17,752.4	48.7676	17,752.4	61.7774	17,752.4	53.4721	17,752.4	47.4892	17,752.4	44.0886	17,752.4	44.4345	17,752.4	50.2458	17,752.4	48.9408	17,752.4	50.1192	17,752.4	41.9806	17,752.4	33.1066
18,379.4	87.984	18,379.4	89.0171	18,379.4	84.004	18,379.4	87.5675	18,379.4	73.9313	18,379.4	83.4196	18,379.4	68.7373	18,379.4	77.4971	18,379.4	75.8917	18,379.4	72.4952	18,379.4	75.0508	18,379.4	73.5742	18,379.4	73.9556	18,379.4	69.3785	18,379.4	69.6552	18,379.4	65.559	18,379.4	61.0609	18,379.4	60.4902	18,379.4	68.6288	18,379.4	56.7507	18,379.4	71.5272	18,379.4	44.5262	18,379.4	73.3536	18,379.4	48.5605	18,379.4	70.483	18,379.4	51.5299	18,379.4	59.7377	18,379.4	52.7322	18,379.4	52.249	18,379.4	49.7383	18,379.4	39.0448	18,379.4	47.698	18,379.4	41.8953	18,379.4	50.9712	18,379.4	48.1157	18,379.4	46.0613
19,026.9	86.829	19,026.9	88.1885	19,026.9	81.9829	19,026.9	86.4136	19,026.9	65.0763	19,026.9	82.2993	19,026.9	72.9355	19,026.9	75.8318	19,026.9	76.9592	19,026.9	68.7924	19,026.9	75.9283	19,026.9	71.9259	19,026.9	71.9898	19,026.9	66.577	19,026.9	68.4399	19,026.9	63.8284	19,026.9	58.8357	19,026.9	58.0583	19,026.9	67.108	19,026.9	54.2996	19,026.9	70.4685	19,026.9	50.3599	19,026.9	71.7479	19,026.9	46.2194	19,026.9	68.1698	19,026.9	47.9389	19,026.9	56.6493	19,026.9	52.1126	19,026.9	46.3178	19,026.9	38.1761	19,026.9	40.717	19,026.9	38.5568	19,026.9	53.7816	19,026.9	47.8047	19,026.9	44.2222	19,026.9	46.8821
19,697.8	84.8233	19,697.8	86.1442	19,697.8	80.1528	19,697.8	84.2477	19,697.8	63.0981	19,697.8	79.911	19,697.8	74.5431	19,697.8	72.1936	19,697.8	78.491	19,697.8	65.7021	19,697.8	74.5322	19,697.8	69.0097	19,697.8	70.1408	19,697.8	64.5115	19,697.8	67.8613	19,697.8	61.9309	19,697.8	47.545	19,697.8	55.2117	19,697.8	64.7752	19,697.8	52.9091	19,697.8	68.4246	19,697.8	48.6662	19,697.8	69.5781	19,697.8	40.611	19,697.8	65.253	19,697.8	48.929	19,697.8	52.5854	19,697.8	52.0229	19,697.8	42.491	19,697.8	45.039	19,697.8	37.475	19,697.8	50.5832	19,697.8	49.6933	19,697.8	48.1014	19,697.8	41.4004	19,697.8	33.9191
19,999.5	83.9033	19,999.5	85.0959	19,999.5	78.74	19,999.5	83.2854	19,999.5	61.5692	19,999.5	78.0173	19,999.5	74.4555	19,999.5	69.9742	19,999.5	77.0833	19,999.5	63.9708	19,999.5	74.2458	19,999.5	68.687	19,999.5	68.6033	19,999.5	65.9534	19,999.5	66.0713	19,999.5	60.5831	19,999.5	53.5963	19,999.5	55.2011	19,999.5	62.9212	19,999.5	52.3191	19,999.5	67.185	19,999.5	53.9556	19,999.5	67.855	19,999.5	47.5191	19,999.5	63.2254	19,999.5	45.9365	19,999.5	49.1298	19,999.5	48.9985	19,999.5	47.5142	19,999.5	50.2774	19,999.5	44.2829	19,999.5	54.4808	19,999.5	46.38	19,999.5	48.8748	19,999.5	39.2507	19,999.5	46.2583
