"SPL Vertical"
"On-Axis"		"10°"		"-10°"		"20°"		"-20°"		"30°"		"-30°"		"40°"		"-40°"		"50°"		"-50°"		"60°"		"-60°"		"70°"		"-70°"		"80°"		"-80°"		"90°"		"-90°"		"100°"		"-100°"		"110°"		"-110°"		"120°"		"-120°"		"130°"		"-130°"		"140°"		"-140°"		"150°"		"-150°"		"160°"		"-160°"		"170°"		"-170°"		"180°"
"Frequency / Hz"	"Sound Pressure Level / dB (re 20 µPa/V)  [2.83  V @ 1. m]"	"Frequency / Hz"	"Sound Pressure Level / dB (re 20 µPa/V)  [2.83  V @ 1. m]"	"Frequency / Hz"	"Sound Pressure Level / dB (re 20 µPa/V)  [2.83  V @ 1. m]"	"Frequency / Hz"	"Sound Pressure Level / dB (re 20 µPa/V)  [2.83  V @ 1. m]"	"Frequency / Hz"	"Sound Pressure Level / dB (re 20 µPa/V)  [2.83  V @ 1. m]"	"Frequency / Hz"	"Sound Pressure Level / dB (re 20 µPa/V)  [2.83  V @ 1. m]"	"Frequency / Hz"	"Sound Pressure Level / dB (re 20 µPa/V)  [2.83  V @ 1. m]"	"Frequency / Hz"	"Sound Pressure Level / dB (re 20 µPa/V)  [2.83  V @ 1. m]"	"Frequency / Hz"	"Sound Pressure Level / dB (re 20 µPa/V)  [2.83  V @ 1. m]"	"Frequency / Hz"	"Sound Pressure Level / dB (re 20 µPa/V)  [2.83  V @ 1. m]"	"Frequency / Hz"	"Sound Pressure Level / dB (re 20 µPa/V)  [2.83  V @ 1. m]"	"Frequency / Hz"	"Sound Pressure Level / dB (re 20 µPa/V)  [2.83  V @ 1. m]"	"Frequency / Hz"	"Sound Pressure Level / dB (re 20 µPa/V)  [2.83  V @ 1. m]"	"Frequency / Hz"	"Sound Pressure Level / dB (re 20 µPa/V)  [2.83  V @ 1. m]"	"Frequency / Hz"	"Sound Pressure Level / dB (re 20 µPa/V)  [2.83  V @ 1. m]"	"Frequency / Hz"	"Sound Pressure Level / dB (re 20 µPa/V)  [2.83  V @ 1. m]"	"Frequency / Hz"	"Sound Pressure Level / dB (re 20 µPa/V)  [2.83  V @ 1. m]"	"Frequency / Hz"	"Sound Pressure Level / dB (re 20 µPa/V)  [2.83  V @ 1. m]"	"Frequency / Hz"	"Sound Pressure Level / dB (re 20 µPa/V)  [2.83  V @ 1. m]"	"Frequency / Hz"	"Sound Pressure Level / dB (re 20 µPa/V)  [2.83  V @ 1. m]"	"Frequency / Hz"	"Sound Pressure Level / dB (re 20 µPa/V)  [2.83  V @ 1. m]"	"Frequency / Hz"	"Sound Pressure Level / dB (re 20 µPa/V)  [2.83  V @ 1. m]"	"Frequency / Hz"	"Sound Pressure Level / dB (re 20 µPa/V)  [2.83  V @ 1. m]"	"Frequency / Hz"	"Sound Pressure Level / dB (re 20 µPa/V)  [2.83  V @ 1. m]"	"Frequency / Hz"	"Sound Pressure Level / dB (re 20 µPa/V)  [2.83  V @ 1. m]"	"Frequency / Hz"	"Sound Pressure Level / dB (re 20 µPa/V)  [2.83  V @ 1. m]"	"Frequency / Hz"	"Sound Pressure Level / dB (re 20 µPa/V)  [2.83  V @ 1. m]"	"Frequency / Hz"	"Sound Pressure Level / dB (re 20 µPa/V)  [2.83  V @ 1. m]"	"Frequency / Hz"	"Sound Pressure Level / dB (re 20 µPa/V)  [2.83  V @ 1. m]"	"Frequency / Hz"	"Sound Pressure Level / dB (re 20 µPa/V)  [2.83  V @ 1. m]"	"Frequency / Hz"	"Sound Pressure Level / dB (re 20 µPa/V)  [2.83  V @ 1. m]"	"Frequency / Hz"	"Sound Pressure Level / dB (re 20 µPa/V)  [2.83  V @ 1. m]"	"Frequency / Hz"	"Sound Pressure Level / dB (re 20 µPa/V)  [2.83  V @ 1. m]"	"Frequency / Hz"	"Sound Pressure Level / dB (re 20 µPa/V)  [2.83  V @ 1. m]"	"Frequency / Hz"	"Sound Pressure Level / dB (re 20 µPa/V)  [2.83  V @ 1. m]"	"Frequency / Hz"	"Sound Pressure Level / dB (re 20 µPa/V)  [2.83  V @ 1. m]"
20.5078	64.1545	20.5078	66.6884	20.5078	60.759	20.5078	68.7139	20.5078	55.5296	20.5078	70.3975	20.5078	43.3041	20.5078	71.831	20.5078	49.8041	20.5078	73.0719	20.5078	56.9397	20.5078	74.1604	20.5078	60.6952	20.5078	75.1277	20.5078	63.4479	20.5078	75.9993	20.5078	65.9259	20.5078	76.796	20.5078	68.3737	20.5078	77.534	20.5078	70.7747	20.5078	78.2235	20.5078	73.0231	20.5078	78.8674	20.5078	75.0314	20.5078	79.4601	20.5078	76.7538	20.5078	79.9878	20.5078	78.1733	20.5078	80.4282	20.5078	79.2873	20.5078	80.7508	20.5078	80.1013	20.5078	80.9184	20.5078	80.6284	20.5078	80.8904
21.9727	77.0123	21.9727	76.2589	21.9727	77.746	21.9727	75.5115	21.9727	78.4371	21.9727	74.7968	21.9727	79.0654	21.9727	74.1377	21.9727	79.6127	21.9727	73.5454	21.9727	80.0626	21.9727	73.0127	21.9727	80.4004	21.9727	72.5088	21.9727	80.6135	21.9727	71.9805	21.9727	80.6926	21.9727	71.354	21.9727	80.6328	21.9727	70.5354	21.9727	80.4339	21.9727	69.4046	21.9727	80.0995	21.9727	67.8122	21.9727	79.6344	21.9727	65.654	21.9727	79.0386	21.9727	63.5249	21.9727	78.3007	21.9727	64.0799	21.9727	77.3891	21.9727	67.275	21.9727	76.2469	21.9727	70.4181	21.9727	74.7873	21.9727	72.8925
23.4375	80.4037	23.4375	80.0845	23.4375	80.7616	23.4375	79.8173	23.4375	81.1387	23.4375	79.6078	23.4375	81.5106	23.4375	79.4543	23.4375	81.8504	23.4375	79.3485	23.4375	82.1307	23.4375	79.2775	23.4375	82.3254	23.4375	79.2258	23.4375	82.4119	23.4375	79.1762	23.4375	82.3731	23.4375	79.1115	23.4375	82.199	23.4375	79.0154	23.4375	81.8884	23.4375	78.8728	23.4375	81.449	23.4375	78.6725	23.4375	80.8972	23.4375	78.4104	23.4375	80.2575	23.4375	78.0966	23.4375	79.5636	23.4375	77.7646	23.4375	78.8609	23.4375	77.4788	23.4375	78.2124	23.4375	77.327	23.4375	77.6967	23.4375	77.3896
24.9023	83.8003	24.9023	83.5713	24.9023	84.0604	24.9023	83.3815	24.9023	84.3381	24.9023	83.2336	24.9023	84.6144	24.9023	83.1255	24.9023	84.8672	24.9023	83.0516	24.9023	85.0723	24.9023	83.0042	24.9023	85.2061	24.9023	82.9744	24.9023	85.2485	24.9023	82.9524	24.9023	85.1848	24.9023	82.9281	24.9023	85.0084	24.9023	82.8912	24.9023	84.7218	24.9023	82.8313	24.9023	84.3378	24.9023	82.7391	24.9023	83.8795	24.9023	82.6081	24.9023	83.3802	24.9023	82.4382	24.9023	82.8822	24.9023	82.2403	24.9023	82.4343	24.9023	82.0405	24.9023	82.0853	24.9023	81.8808	24.9023	81.8731	24.9023	81.811
26.3672	86.3606	26.3672	85.9887	26.3672	86.7465	26.3672	85.6441	26.3672	87.1306	26.3672	85.3369	26.3672	87.4951	26.3672	85.0737	26.3672	87.8214	26.3672	84.8576	26.3672	88.0909	26.3672	84.6879	26.3672	88.2862	26.3672	84.5614	26.3672	88.3929	26.3672	84.4725	26.3672	88.4012	26.3672	84.4148	26.3672	88.3073	26.3672	84.3817	26.3672	88.1145	26.3672	84.3678	26.3672	87.8331	26.3672	84.3695	26.3672	87.4792	26.3672	84.3871	26.3672	87.073	26.3672	84.4257	26.3672	86.6368	26.3672	84.4965	26.3672	86.1936	26.3672	84.6151	26.3672	85.7669	26.3672	84.7972	26.3672	85.3799	26.3672	85.0525
27.832	89.8174	27.832	89.4786	27.832	90.1674	27.832	89.1631	27.832	90.5145	27.832	88.8806	27.832	90.8433	27.832	88.6381	27.832	91.1379	27.832	88.4395	27.832	91.3824	27.832	88.2859	27.832	91.5625	27.832	88.1762	27.832	91.6669	27.832	88.1072	27.832	91.6885	27.832	88.0751	27.832	91.6255	27.832	88.0754	27.832	91.4827	27.832	88.1043	27.832	91.27	27.832	88.1588	27.832	91.0018	27.832	88.2378	27.832	90.6943	27.832	88.3424	27.832	90.3639	27.832	88.4761	27.832	90.0257	27.832	88.6438	27.832	89.6936	27.832	88.8501	27.832	89.3803	27.832	89.0966
29.2969	92.7948	29.2969	92.5133	29.2969	93.0824	29.2969	92.2477	29.2969	93.3647	29.2969	92.0057	29.2969	93.629	29.2969	91.7932	29.2969	93.8615	29.2969	91.6142	29.2969	94.0483	29.2969	91.4708	29.2969	94.1769	29.2969	91.3635	29.2969	94.2371	29.2969	91.2915	29.2969	94.2227	29.2969	91.2527	29.2969	94.1335	29.2969	91.2446	29.2969	93.9752	29.2969	91.2636	29.2969	93.7596	29.2969	91.3065	29.2969	93.5028	29.2969	91.37	29.2969	93.2231	29.2969	91.4519	29.2969	92.938	29.2969	91.5515	29.2969	92.6623	29.2969	91.6706	29.2969	92.407	29.2969	91.8124	29.2969	92.1789	29.2969	91.9808
30.7617	95.1726	30.7617	94.8982	30.7617	95.4505	30.7617	94.636	30.7617	95.7218	30.7617	94.3929	30.7617	95.9748	30.7617	94.174	30.7617	96.1967	30.7617	93.9831	30.7617	96.3746	30.7617	93.8223	30.7617	96.4964	30.7617	93.6928	30.7617	96.5521	30.7617	93.5946	30.7617	96.5353	30.7617	93.5273	30.7617	96.445	30.7617	93.4897	30.7617	96.2857	30.7617	93.4806	30.7617	96.0673	30.7617	93.4987	30.7617	95.8043	30.7617	93.5426	30.7617	95.5137	30.7617	93.6119	30.7617	95.2127	30.7617	93.707	30.7617	94.9167	30.7617	93.8296	30.7617	94.6385	30.7617	93.9824	30.7617	94.3871	30.7617	94.1678
32.2266	97.4479	32.2266	97.1933	32.2266	97.707	32.2266	96.9513	32.2266	97.9611	32.2266	96.7282	32.2266	98.1994	32.2266	96.529	32.2266	98.4101	32.2266	96.3575	32.2266	98.5813	32.2266	96.2158	32.2266	98.7019	32.2266	96.1054	32.2266	98.7632	32.2266	96.0268	32.2266	98.7599	32.2266	95.9797	32.2266	98.6913	32.2266	95.9634	32.2266	98.5624	32.2266	95.9767	32.2266	98.3824	32.2266	96.018	32.2266	98.1646	32.2266	96.0854	32.2266	97.9233	32.2266	96.177	32.2266	97.6724	32.2266	96.2913	32.2266	97.4236	32.2266	96.4273	32.2266	97.1858	32.2266	96.5849	32.2266	96.9649	32.2266	96.7642
33.6914	99.5635	33.6914	99.3152	33.6914	99.8136	33.6914	99.0763	33.6914	100.057	33.6914	98.8533	33.6914	100.282	33.6914	98.6512	33.6914	100.48	33.6914	98.4741	33.6914	100.638	33.6914	98.3247	33.6914	100.748	33.6914	98.2052	33.6914	100.8	33.6914	98.1168	33.6914	100.79	33.6914	98.0601	33.6914	100.719	33.6914	98.0349	33.6914	100.59	33.6914	98.0408	33.6914	100.413	33.6914	98.0765	33.6914	100.2	33.6914	98.1403	33.6914	99.9643	33.6914	98.2303	33.6914	99.719	33.6914	98.3446	33.6914	99.4749	33.6914	98.4817	33.6914	99.2403	33.6914	98.6406	33.6914	99.0211	33.6914	98.8206
35.1562	101.416	35.1562	101.177	35.1562	101.654	35.1562	100.944	35.1562	101.882	35.1562	100.722	35.1562	102.09	35.1562	100.518	35.1562	102.27	35.1562	100.334	35.1562	102.411	35.1562	100.176	35.1562	102.504	35.1562	100.044	35.1562	102.541	35.1562	99.9423	35.1562	102.518	35.1562	99.8706	35.1562	102.436	35.1562	99.8302	35.1562	102.3	35.1562	99.821	35.1562	102.118	35.1562	99.8426	35.1562	101.903	35.1562	99.8938	35.1562	101.668	35.1562	99.9731	35.1562	101.424	35.1562	100.079	35.1562	101.182	35.1562	100.209	35.1562	100.951	35.1562	100.363	35.1562	100.735	35.1562	100.538
36.6211	103.024	36.6211	102.792	36.6211	103.254	36.6211	102.565	36.6211	103.473	36.6211	102.349	36.6211	103.674	36.6211	102.147	36.6211	103.847	36.6211	101.965	36.6211	103.981	36.6211	101.806	36.6211	104.069	36.6211	101.672	36.6211	104.102	36.6211	101.566	36.6211	104.078	36.6211	101.488	36.6211	103.997	36.6211	101.441	36.6211	103.862	36.6211	101.424	36.6211	103.683	36.6211	101.438	36.6211	103.47	36.6211	101.481	36.6211	103.237	36.6211	101.554	36.6211	102.995	36.6211	101.654	36.6211	102.754	36.6211	101.78	36.6211	102.522	36.6211	101.932	36.6211	102.305	36.6211	102.108
38.0859	104.363	38.0859	104.135	38.0859	104.588	38.0859	103.91	38.0859	104.803	38.0859	103.694	38.0859	104.998	38.0859	103.493	38.0859	105.164	38.0859	103.31	38.0859	105.293	38.0859	103.149	38.0859	105.376	38.0859	103.013	38.0859	105.407	38.0859	102.904	38.0859	105.382	38.0859	102.824	38.0859	105.303	38.0859	102.775	38.0859	105.173	38.0859	102.756	38.0859	105	38.0859	102.768	38.0859	104.796	38.0859	102.812	38.0859	104.572	38.0859	102.886	38.0859	104.337	38.0859	102.99	38.0859	104.102	38.0859	103.121	38.0859	103.873	38.0859	103.277	38.0859	103.657	38.0859	103.457
39.5508	105.568	39.5508	105.347	39.5508	105.785	39.5508	105.129	39.5508	105.99	39.5508	104.919	39.5508	106.175	39.5508	104.722	39.5508	106.333	39.5508	104.542	39.5508	106.454	39.5508	104.383	39.5508	106.53	39.5508	104.247	39.5508	106.555	39.5508	104.138	39.5508	106.527	39.5508	104.057	39.5508	106.445	39.5508	104.004	39.5508	106.314	39.5508	103.982	39.5508	106.143	39.5508	103.989	39.5508	105.941	39.5508	104.027	39.5508	105.719	39.5508	104.094	39.5508	105.488	39.5508	104.189	39.5508	105.257	39.5508	104.312	39.5508	105.034	39.5508	104.459	39.5508	104.823	39.5508	104.631
41.0156	106.513	41.0156	106.286	41.0156	106.734	41.0156	106.059	41.0156	106.94	41.0156	105.837	41.0156	107.125	41.0156	105.626	41.0156	107.28	41.0156	105.432	41.0156	107.397	41.0156	105.258	41.0156	107.47	41.0156	105.109	41.0156	107.492	41.0156	104.987	41.0156	107.462	41.0156	104.896	41.0156	107.38	41.0156	104.836	41.0156	107.25	41.0156	104.81	41.0156	107.081	41.0156	104.818	41.0156	106.88	41.0156	104.86	41.0156	106.659	41.0156	104.935	41.0156	106.426	41.0156	105.042	41.0156	106.19	41.0156	105.178	41.0156	105.957	41.0156	105.341	41.0156	105.734	41.0156	105.528
42.4805	107.312	42.4805	107.104	42.4805	107.513	42.4805	106.894	42.4805	107.699	42.4805	106.688	42.4805	107.863	42.4805	106.49	42.4805	107.999	42.4805	106.306	42.4805	108.098	42.4805	106.138	42.4805	108.155	42.4805	105.992	42.4805	108.164	42.4805	105.869	42.4805	108.125	42.4805	105.772	42.4805	108.036	42.4805	105.704	42.4805	107.904	42.4805	105.665	42.4805	107.734	42.4805	105.658	42.4805	107.536	42.4805	105.681	42.4805	107.319	42.4805	105.735	42.4805	107.091	42.4805	105.82	42.4805	106.863	42.4805	105.933	42.4805	106.641	42.4805	106.075	42.4805	106.432	42.4805	106.242
43.9453	107.847	43.9453	107.644	43.9453	108.042	43.9453	107.438	43.9453	108.221	43.9453	107.235	43.9453	108.379	43.9453	107.04	43.9453	108.507	43.9453	106.856	43.9453	108.598	43.9453	106.688	43.9453	108.646	43.9453	106.538	43.9453	108.647	43.9453	106.408	43.9453	108.597	43.9453	106.302	43.9453	108.499	43.9453	106.222	43.9453	108.355	43.9453	106.167	43.9453	108.172	43.9453	106.14	43.9453	107.96	43.9453	106.142	43.9453	107.728	43.9453	106.174	43.9453	107.486	43.9453	106.236	43.9453	107.245	43.9453	106.33	43.9453	107.013	43.9453	106.455	43.9453	106.801	43.9453	106.613
45.4102	108.228	45.4102	108.033	45.4102	108.417	45.4102	107.837	45.4102	108.592	45.4102	107.646	45.4102	108.747	45.4102	107.465	45.4102	108.874	45.4102	107.299	45.4102	108.966	45.4102	107.149	45.4102	109.017	45.4102	107.02	45.4102	109.024	45.4102	106.913	45.4102	108.983	45.4102	106.83	45.4102	108.897	45.4102	106.771	45.4102	108.769	45.4102	106.737	45.4102	108.606	45.4102	106.729	45.4102	108.417	45.4102	106.746	45.4102	108.211	45.4102	106.788	45.4102	107.997	45.4102	106.856	45.4102	107.783	45.4102	106.951	45.4102	107.578	45.4102	107.071	45.4102	107.388	45.4102	107.217
46.875	108.42	46.875	108.221	46.875	108.612	46.875	108.022	46.875	108.79	46.875	107.829	46.875	108.947	46.875	107.647	46.875	109.075	46.875	107.481	46.875	109.168	46.875	107.335	46.875	109.22	46.875	107.212	46.875	109.228	46.875	107.116	46.875	109.19	46.875	107.046	46.875	109.108	46.875	107.005	46.875	108.987	46.875	106.992	46.875	108.836	46.875	107.006	46.875	108.662	46.875	107.047	46.875	108.475	46.875	107.113	46.875	108.283	46.875	107.201	46.875	108.094	46.875	107.309	46.875	107.911	46.875	107.436	46.875	107.739	46.875	107.58
48.3398	108.624	48.3398	108.426	48.3398	108.814	48.3398	108.225	48.3398	108.988	48.3398	108.028	48.3398	109.14	48.3398	107.839	48.3398	109.262	48.3398	107.665	48.3398	109.349	48.3398	107.509	48.3398	109.395	48.3398	107.376	48.3398	109.397	48.3398	107.269	48.3398	109.353	48.3398	107.189	48.3398	109.266	48.3398	107.139	48.3398	109.141	48.3398	107.118	48.3398	108.986	48.3398	107.128	48.3398	108.809	48.3398	107.166	48.3398	108.62	48.3398	107.231	48.3398	108.426	48.3398	107.321	48.3398	108.235	48.3398	107.433	48.3398	108.05	48.3398	107.564	48.3398	107.875	48.3398	107.712
51.2695	109.293	51.2695	109.112	51.2695	109.458	51.2695	108.921	51.2695	109.601	51.2695	108.725	51.2695	109.717	51.2695	108.529	51.2695	109.8	51.2695	108.339	51.2695	109.845	51.2695	108.161	51.2695	109.849	51.2695	107.998	51.2695	109.808	51.2695	107.855	51.2695	109.723	51.2695	107.736	51.2695	109.597	51.2695	107.642	51.2695	109.434	51.2695	107.576	51.2695	109.241	51.2695	107.538	51.2695	109.03	51.2695	107.528	51.2695	108.808	51.2695	107.545	51.2695	108.587	51.2695	107.588	51.2695	108.377	51.2695	107.656	51.2695	108.184	51.2695	107.749	51.2695	108.013	51.2695	107.868
52.7344	109.299	52.7344	109.128	52.7344	109.456	52.7344	108.946	52.7344	109.593	52.7344	108.759	52.7344	109.705	52.7344	108.572	52.7344	109.786	52.7344	108.388	52.7344	109.833	52.7344	108.213	52.7344	109.84	52.7344	108.05	52.7344	109.806	52.7344	107.903	52.7344	109.729	52.7344	107.777	52.7344	109.612	52.7344	107.672	52.7344	109.457	52.7344	107.593	52.7344	109.272	52.7344	107.54	52.7344	109.064	52.7344	107.515	52.7344	108.841	52.7344	107.518	52.7344	108.613	52.7344	107.55	52.7344	108.39	52.7344	107.613	52.7344	108.181	52.7344	107.708	52.7344	107.994	52.7344	107.835
54.1992	109.331	54.1992	109.161	54.1992	109.488	54.1992	108.984	54.1992	109.626	54.1992	108.803	54.1992	109.741	54.1992	108.624	54.1992	109.826	54.1992	108.449	54.1992	109.876	54.1992	108.283	54.1992	109.887	54.1992	108.128	54.1992	109.857	54.1992	107.988	54.1992	109.783	54.1992	107.865	54.1992	109.669	54.1992	107.762	54.1992	109.519	54.1992	107.681	54.1992	109.338	54.1992	107.624	54.1992	109.134	54.1992	107.594	54.1992	108.914	54.1992	107.591	54.1992	108.689	54.1992	107.619	54.1992	108.467	54.1992	107.68	54.1992	108.257	54.1992	107.775	54.1992	108.067	54.1992	107.905
55.6641	109.379	55.6641	109.206	55.6641	109.542	55.6641	109.027	55.6641	109.689	55.6641	108.849	55.6641	109.812	55.6641	108.676	55.6641	109.907	55.6641	108.513	55.6641	109.968	55.6641	108.362	55.6641	109.99	55.6641	108.226	55.6641	109.972	55.6641	108.107	55.6641	109.913	55.6641	108.008	55.6641	109.815	55.6641	107.928	55.6641	109.682	55.6641	107.869	55.6641	109.52	55.6641	107.831	55.6641	109.335	55.6641	107.817	55.6641	109.135	55.6641	107.828	55.6641	108.926	55.6641	107.867	55.6641	108.717	55.6641	107.936	55.6641	108.516	55.6641	108.037	55.6641	108.331	55.6641	108.169
58.5938	109.424	58.5938	109.255	58.5938	109.581	58.5938	109.082	58.5938	109.721	58.5938	108.911	58.5938	109.838	58.5938	108.746	58.5938	109.926	58.5938	108.593	58.5938	109.98	58.5938	108.456	58.5938	109.997	58.5938	108.339	58.5938	109.975	58.5938	108.244	58.5938	109.916	58.5938	108.172	58.5938	109.822	58.5938	108.124	58.5938	109.698	58.5938	108.099	58.5938	109.553	58.5938	108.097	58.5938	109.392	58.5938	108.115	58.5938	109.224	58.5938	108.152	58.5938	109.056	58.5938	108.207	58.5938	108.892	58.5938	108.28	58.5938	108.739	58.5938	108.369	58.5938	108.599	58.5938	108.475
60.0586	109.479	60.0586	109.31	60.0586	109.637	60.0586	109.136	60.0586	109.777	60.0586	108.963	60.0586	109.893	60.0586	108.797	60.0586	109.981	60.0586	108.642	60.0586	110.035	60.0586	108.503	60.0586	110.053	60.0586	108.385	60.0586	110.033	60.0586	108.289	60.0586	109.976	60.0586	108.218	60.0586	109.886	60.0586	108.172	60.0586	109.767	60.0586	108.152	60.0586	109.627	60.0586	108.155	60.0586	109.473	60.0586	108.181	60.0586	109.311	60.0586	108.226	60.0586	109.148	60.0586	108.29	60.0586	108.99	60.0586	108.37	60.0586	108.839	60.0586	108.465	60.0586	108.701	60.0586	108.576
62.9883	109.538	62.9883	109.373	62.9883	109.69	62.9883	109.201	62.9883	109.823	62.9883	109.028	62.9883	109.932	62.9883	108.861	62.9883	110.01	62.9883	108.704	62.9883	110.056	62.9883	108.563	62.9883	110.066	62.9883	108.442	62.9883	110.041	62.9883	108.343	62.9883	109.981	62.9883	108.269	62.9883	109.892	62.9883	108.221	62.9883	109.778	62.9883	108.199	62.9883	109.646	62.9883	108.201	62.9883	109.503	62.9883	108.228	62.9883	109.354	62.9883	108.277	62.9883	109.203	62.9883	108.346	62.9883	109.055	62.9883	108.432	62.9883	108.913	62.9883	108.535	62.9883	108.777	62.9883	108.65
64.4531	109.558	64.4531	109.393	64.4531	109.71	64.4531	109.221	64.4531	109.843	64.4531	109.049	64.4531	109.951	64.4531	108.882	64.4531	110.029	64.4531	108.726	64.4531	110.075	64.4531	108.587	64.4531	110.085	64.4531	108.468	64.4531	110.062	64.4531	108.374	64.4531	110.005	64.4531	108.305	64.4531	109.92	64.4531	108.262	64.4531	109.813	64.4531	108.246	64.4531	109.688	64.4531	108.255	64.4531	109.553	64.4531	108.288	64.4531	109.411	64.4531	108.342	64.4531	109.268	64.4531	108.416	64.4531	109.126	64.4531	108.506	64.4531	108.987	64.4531	108.611	64.4531	108.853	64.4531	108.727
67.3828	109.682	67.3828	109.516	67.3828	109.832	67.3828	109.34	67.3828	109.961	67.3828	109.162	67.3828	110.063	67.3828	108.987	67.3828	110.134	67.3828	108.822	67.3828	110.171	67.3828	108.673	67.3828	110.173	67.3828	108.545	67.3828	110.141	67.3828	108.441	67.3828	110.078	67.3828	108.365	67.3828	109.988	67.3828	108.318	67.3828	109.877	67.3828	108.3	67.3828	109.751	67.3828	108.31	67.3828	109.617	67.3828	108.346	67.3828	109.477	67.3828	108.406	67.3828	109.337	67.3828	108.485	67.3828	109.198	67.3828	108.581	67.3828	109.063	67.3828	108.689	67.3828	108.932	67.3828	108.807
68.8477	109.741	68.8477	109.578	68.8477	109.887	68.8477	109.405	68.8477	110.01	68.8477	109.228	68.8477	110.106	68.8477	109.054	68.8477	110.17	68.8477	108.889	68.8477	110.201	68.8477	108.738	68.8477	110.197	68.8477	108.608	68.8477	110.159	68.8477	108.502	68.8477	110.092	68.8477	108.423	68.8477	109.999	68.8477	108.373	68.8477	109.887	68.8477	108.351	68.8477	109.762	68.8477	108.358	68.8477	109.629	68.8477	108.391	68.8477	109.492	68.8477	108.447	68.8477	109.355	68.8477	108.523	68.8477	109.219	68.8477	108.615	68.8477	109.086	68.8477	108.72	68.8477	108.957	68.8477	108.835
71.7773	109.848	71.7773	109.693	71.7773	109.986	71.7773	109.525	71.7773	110.1	71.7773	109.352	71.7773	110.186	71.7773	109.18	71.7773	110.24	71.7773	109.016	71.7773	110.26	71.7773	108.866	71.7773	110.246	71.7773	108.734	71.7773	110.201	71.7773	108.626	71.7773	110.128	71.7773	108.543	71.7773	110.032	71.7773	108.488	71.7773	109.919	71.7773	108.46	71.7773	109.795	71.7773	108.458	71.7773	109.664	71.7773	108.48	71.7773	109.529	71.7773	108.525	71.7773	109.393	71.7773	108.589	71.7773	109.257	71.7773	108.67	71.7773	109.124	71.7773	108.766	71.7773	108.996	71.7773	108.876
74.707	109.937	74.707	109.781	74.707	110.072	74.707	109.613	74.707	110.182	74.707	109.437	74.707	110.263	74.707	109.262	74.707	110.31	74.707	109.094	74.707	110.323	74.707	108.94	74.707	110.302	74.707	108.806	74.707	110.25	74.707	108.697	74.707	110.171	74.707	108.615	74.707	110.071	74.707	108.564	74.707	109.957	74.707	108.542	74.707	109.836	74.707	108.548	74.707	109.711	74.707	108.58	74.707	109.586	74.707	108.634	74.707	109.462	74.707	108.706	74.707	109.341	74.707	108.792	74.707	109.222	74.707	108.89	74.707	109.106	74.707	108.995
77.6367	110.042	77.6367	109.889	77.6367	110.175	77.6367	109.72	77.6367	110.28	77.6367	109.543	77.6367	110.355	77.6367	109.365	77.6367	110.396	77.6367	109.192	77.6367	110.402	77.6367	109.033	77.6367	110.374	77.6367	108.892	77.6367	110.315	77.6367	108.775	77.6367	110.23	77.6367	108.687	77.6367	110.126	77.6367	108.629	77.6367	110.01	77.6367	108.601	77.6367	109.888	77.6367	108.604	77.6367	109.763	77.6367	108.635	77.6367	109.64	77.6367	108.689	77.6367	109.518	77.6367	108.762	77.6367	109.399	77.6367	108.851	77.6367	109.282	77.6367	108.95	77.6367	109.168	77.6367	109.057
79.1016	110.11	79.1016	109.957	79.1016	110.24	79.1016	109.789	79.1016	110.343	79.1016	109.612	79.1016	110.415	79.1016	109.432	79.1016	110.452	79.1016	109.258	79.1016	110.455	79.1016	109.096	79.1016	110.423	79.1016	108.951	79.1016	110.361	79.1016	108.83	79.1016	110.273	79.1016	108.737	79.1016	110.166	79.1016	108.672	79.1016	110.047	79.1016	108.639	79.1016	109.922	79.1016	108.635	79.1016	109.795	79.1016	108.659	79.1016	109.668	79.1016	108.708	79.1016	109.544	79.1016	108.778	79.1016	109.421	79.1016	108.864	79.1016	109.3	79.1016	108.962	79.1016	109.183	79.1016	109.069
82.0312	110.199	82.0312	110.045	82.0312	110.33	82.0312	109.874	82.0312	110.432	82.0312	109.692	82.0312	110.501	82.0312	109.507	82.0312	110.535	82.0312	109.327	82.0312	110.533	82.0312	109.158	82.0312	110.496	82.0312	109.007	82.0312	110.427	82.0312	108.88	82.0312	110.333	82.0312	108.782	82.0312	110.219	82.0312	108.714	82.0312	110.093	82.0312	108.678	82.0312	109.961	82.0312	108.673	82.0312	109.827	82.0312	108.697	82.0312	109.695	82.0312	108.746	82.0312	109.566	82.0312	108.815	82.0312	109.442	82.0312	108.899	82.0312	109.323	82.0312	108.995	82.0312	109.208	82.0312	109.099
84.9609	110.208	84.9609	110.06	84.9609	110.334	84.9609	109.894	84.9609	110.432	84.9609	109.718	84.9609	110.497	84.9609	109.54	84.9609	110.528	84.9609	109.367	84.9609	110.526	84.9609	109.206	84.9609	110.491	84.9609	109.064	84.9609	110.428	84.9609	108.945	84.9609	110.344	84.9609	108.855	84.9609	110.243	84.9609	108.794	84.9609	110.133	84.9609	108.764	84.9609	110.018	84.9609	108.763	84.9609	109.901	84.9609	108.789	84.9609	109.784	84.9609	108.84	84.9609	109.665	84.9609	108.91	84.9609	109.547	84.9609	108.996	84.9609	109.43	84.9609	109.095	84.9609	109.314	84.9609	109.201
87.8906	110.259	87.8906	110.109	87.8906	110.383	87.8906	109.94	87.8906	110.476	87.8906	109.759	87.8906	110.536	87.8906	109.573	87.8906	110.56	87.8906	109.39	87.8906	110.548	87.8906	109.217	87.8906	110.503	87.8906	109.062	87.8906	110.431	87.8906	108.932	87.8906	110.339	87.8906	108.83	87.8906	110.232	87.8906	108.76	87.8906	110.119	87.8906	108.724	87.8906	110.003	87.8906	108.721	87.8906	109.887	87.8906	108.748	87.8906	109.772	87.8906	108.802	87.8906	109.657	87.8906	108.879	87.8906	109.541	87.8906	108.972	87.8906	109.423	87.8906	109.077	87.8906	109.306	87.8906	109.19
90.8203	110.233	90.8203	110.077	90.8203	110.362	90.8203	109.902	90.8203	110.459	90.8203	109.715	90.8203	110.52	90.8203	109.525	90.8203	110.543	90.8203	109.341	90.8203	110.529	90.8203	109.171	90.8203	110.482	90.8203	109.023	90.8203	110.408	90.8203	108.902	90.8203	110.315	90.8203	108.812	90.8203	110.211	90.8203	108.757	90.8203	110.104	90.8203	108.737	90.8203	110	90.8203	108.749	90.8203	109.9	90.8203	108.792	90.8203	109.803	90.8203	108.861	90.8203	109.706	90.8203	108.95	90.8203	109.608	90.8203	109.053	90.8203	109.504	90.8203	109.165	90.8203	109.395	90.8203	109.281
95.2148	110.592	95.2148	110.443	95.2148	110.71	95.2148	110.267	95.2148	110.79	95.2148	110.073	95.2148	110.829	95.2148	109.87	95.2148	110.827	95.2148	109.666	95.2148	110.785	95.2148	109.471	95.2148	110.708	95.2148	109.292	95.2148	110.603	95.2148	109.137	95.2148	110.479	95.2148	109.011	95.2148	110.345	95.2148	108.918	95.2148	110.209	95.2148	108.862	95.2148	110.076	95.2148	108.841	95.2148	109.95	95.2148	108.855	95.2148	109.83	95.2148	108.899	95.2148	109.714	95.2148	108.968	95.2148	109.602	95.2148	109.057	95.2148	109.49	95.2148	109.158	95.2148	109.378	95.2148	109.266
98.1445	110.674	98.1445	110.538	98.1445	110.777	98.1445	110.375	98.1445	110.842	98.1445	110.191	98.1445	110.867	98.1445	109.997	98.1445	110.851	98.1445	109.799	98.1445	110.797	98.1445	109.607	98.1445	110.71	98.1445	109.428	98.1445	110.597	98.1445	109.27	98.1445	110.467	98.1445	109.138	98.1445	110.33	98.1445	109.036	98.1445	110.193	98.1445	108.968	98.1445	110.061	98.1445	108.933	98.1445	109.936	98.1445	108.93	98.1445	109.817	98.1445	108.958	98.1445	109.703	98.1445	109.011	98.1445	109.592	98.1445	109.084	98.1445	109.483	98.1445	109.172	98.1445	109.376	98.1445	109.271
101.074	110.463	101.074	110.334	101.074	110.559	101.074	110.177	101.074	110.619	101.074	110.001	101.074	110.638	101.074	109.813	101.074	110.619	101.074	109.623	101.074	110.564	101.074	109.439	101.074	110.479	101.074	109.268	101.074	110.372	101.074	109.118	101.074	110.253	101.074	108.993	101.074	110.131	101.074	108.896	101.074	110.015	101.074	108.828	101.074	109.906	101.074	108.792	101.074	109.803	101.074	108.785	101.074	109.703	101.074	108.808	101.074	109.601	101.074	108.858	101.074	109.492	101.074	108.932	101.074	109.377	101.074	109.028	101.074	109.257	101.074	109.139
105.469	110.505	105.469	110.356	105.469	110.615	105.469	110.176	105.469	110.679	105.469	109.973	105.469	110.694	105.469	109.759	105.469	110.661	105.469	109.545	105.469	110.582	105.469	109.342	105.469	110.465	105.469	109.163	105.469	110.32	105.469	109.015	105.469	110.16	105.469	108.906	105.469	110	105.469	108.839	105.469	109.853	105.469	108.814	105.469	109.73	105.469	108.827	105.469	109.633	105.469	108.874	105.469	109.562	105.469	108.945	105.469	109.509	105.469	109.032	105.469	109.465	105.469	109.126	105.469	109.42	105.469	109.217	105.469	109.366	105.469	109.298
108.398	110.647	108.398	110.496	108.398	110.76	108.398	110.312	108.398	110.827	108.398	110.105	108.398	110.845	108.398	109.887	108.398	110.814	108.398	109.668	108.398	110.735	108.398	109.458	108.398	110.615	108.398	109.269	108.398	110.463	108.398	109.109	108.398	110.292	108.398	108.983	108.398	110.113	108.398	108.895	108.398	109.941	108.398	108.845	108.398	109.786	108.398	108.831	108.398	109.653	108.398	108.849	108.398	109.545	108.398	108.892	108.398	109.456	108.398	108.955	108.398	109.383	108.398	109.028	108.398	109.316	108.398	109.105	108.398	109.25	108.398	109.18
112.793	110.646	112.793	110.489	112.793	110.764	112.793	110.3	112.793	110.837	112.793	110.089	112.793	110.864	112.793	109.866	112.793	110.844	112.793	109.646	112.793	110.783	112.793	109.441	112.793	110.686	112.793	109.261	112.793	110.564	112.793	109.116	112.793	110.427	112.793	109.012	112.793	110.285	112.793	108.948	112.793	110.145	112.793	108.923	112.793	110.012	112.793	108.931	112.793	109.887	112.793	108.964	112.793	109.771	112.793	109.016	112.793	109.663	112.793	109.08	112.793	109.563	112.793	109.151	112.793	109.471	112.793	109.226	112.793	109.385	112.793	109.304
117.188	110.723	117.188	110.563	117.188	110.835	117.188	110.364	117.188	110.894	117.188	110.133	117.188	110.899	117.188	109.883	117.188	110.849	117.188	109.628	117.188	110.751	117.188	109.382	117.188	110.613	117.188	109.161	117.188	110.451	117.188	108.981	117.188	110.282	117.188	108.853	117.188	110.125	117.188	108.784	117.188	109.997	117.188	108.775	117.188	109.905	117.188	108.821	117.188	109.847	117.188	108.909	117.188	109.814	117.188	109.028	117.188	109.79	117.188	109.162	117.188	109.76	117.188	109.3	117.188	109.713	117.188	109.431	117.188	109.642	117.188	109.547
120.117	110.904	120.117	110.742	120.117	111.02	120.117	110.541	120.117	111.084	120.117	110.31	120.117	111.091	120.117	110.06	120.117	111.041	120.117	109.802	120.117	110.936	120.117	109.55	120.117	110.781	120.117	109.316	120.117	110.589	120.117	109.115	120.117	110.376	120.117	108.959	120.117	110.163	120.117	108.857	120.117	109.972	120.117	108.813	120.117	109.822	120.117	108.828	120.117	109.72	120.117	108.894	120.117	109.665	120.117	108.997	120.117	109.642	120.117	109.125	120.117	109.631	120.117	109.259	120.117	109.61	120.117	109.384	120.117	109.565	120.117	109.489
124.512	111.124	124.512	110.954	124.512	111.245	124.512	110.741	124.512	111.31	124.512	110.495	124.512	111.315	124.512	110.225	124.512	111.259	124.512	109.943	124.512	111.142	124.512	109.66	124.512	110.969	124.512	109.388	124.512	110.746	124.512	109.141	124.512	110.485	124.512	108.93	124.512	110.202	124.512	108.767	124.512	109.917	124.512	108.662	124.512	109.653	124.512	108.617	124.512	109.433	124.512	108.632	124.512	109.276	124.512	108.694	124.512	109.184	124.512	108.789	124.512	109.144	124.512	108.896	124.512	109.129	124.512	108.995	124.512	109.111	124.512	109.068
128.906	110.971	128.906	110.82	128.906	111.08	128.906	110.631	128.906	111.143	128.906	110.413	128.906	111.159	128.906	110.175	128.906	111.131	128.906	109.927	128.906	111.064	128.906	109.679	128.906	110.963	128.906	109.439	128.906	110.834	128.906	109.216	128.906	110.682	128.906	109.015	128.906	110.508	128.906	108.842	128.906	110.311	128.906	108.701	128.906	110.093	128.906	108.596	128.906	109.855	128.906	108.529	128.906	109.607	128.906	108.5	128.906	109.364	128.906	108.505	128.906	109.143	128.906	108.541	128.906	108.956	128.906	108.603	128.906	108.806	128.906	108.69
133.301	110.704	133.301	110.544	133.301	110.816	133.301	110.346	133.301	110.878	133.301	110.118	133.301	110.89	133.301	109.876	133.301	110.855	133.301	109.633	133.301	110.782	133.301	109.405	133.301	110.685	133.301	109.205	133.301	110.576	133.301	109.044	133.301	110.47	133.301	108.927	133.301	110.375	133.301	108.857	133.301	110.292	133.301	108.831	133.301	110.216	133.301	108.844	133.301	110.139	133.301	108.889	133.301	110.051	133.301	108.96	133.301	109.947	133.301	109.052	133.301	109.826	133.301	109.161	133.301	109.694	133.301	109.284	133.301	109.555	133.301	109.417
139.16	110.922	139.16	110.762	139.16	111.028	139.16	110.556	139.16	111.076	139.16	110.311	139.16	111.065	139.16	110.039	139.16	110.995	139.16	109.754	139.16	110.873	139.16	109.47	139.16	110.709	139.16	109.207	139.16	110.516	139.16	108.98	139.16	110.315	139.16	108.805	139.16	110.124	139.16	108.693	139.16	109.96	139.16	108.648	139.16	109.833	139.16	108.665	139.16	109.744	139.16	108.733	139.16	109.686	139.16	108.84	139.16	109.643	139.16	108.97	139.16	109.601	139.16	109.109	139.16	109.545	139.16	109.244	139.16	109.468	139.16	109.366
143.555	111.082	143.555	110.92	143.555	111.192	143.555	110.715	143.555	111.248	143.555	110.473	143.555	111.247	143.555	110.205	143.555	111.191	143.555	109.92	143.555	111.086	143.555	109.632	143.555	110.94	143.555	109.351	143.555	110.764	143.555	109.091	143.555	110.57	143.555	108.866	143.555	110.37	143.555	108.69	143.555	110.173	143.555	108.572	143.555	109.988	143.555	108.52	143.555	109.822	143.555	108.532	143.555	109.677	143.555	108.6	143.555	109.555	143.555	108.71	143.555	109.448	143.555	108.845	143.555	109.347	143.555	108.986	143.555	109.24	143.555	109.12
147.949	110.999	147.949	110.828	147.949	111.116	147.949	110.612	147.949	111.172	147.949	110.36	147.949	111.169	147.949	110.088	147.949	111.11	147.949	109.807	147.949	111.003	147.949	109.532	147.949	110.862	147.949	109.273	147.949	110.7	147.949	109.041	147.949	110.531	147.949	108.844	147.949	110.363	147.949	108.69	147.949	110.203	147.949	108.584	147.949	110.049	147.949	108.53	147.949	109.903	147.949	108.531	147.949	109.763	147.949	108.584	147.949	109.632	147.949	108.681	147.949	109.506	147.949	108.81	147.949	109.38	147.949	108.957	147.949	109.247	147.949	109.105
153.809	110.857	153.809	110.699	153.809	110.95	153.809	110.484	153.809	110.977	153.809	110.225	153.809	110.939	153.809	109.936	153.809	110.844	153.809	109.635	153.809	110.706	153.809	109.343	153.809	110.543	153.809	109.078	153.809	110.376	153.809	108.858	153.809	110.227	153.809	108.696	153.809	110.107	153.809	108.599	153.809	110.022	153.809	108.566	153.809	109.962	153.809	108.589	153.809	109.915	153.809	108.66	153.809	109.866	153.809	108.767	153.809	109.803	153.809	108.9	153.809	109.722	153.809	109.048	153.809	109.618	153.809	109.202	153.809	109.494	153.809	109.353
159.668	110.86	159.668	110.731	159.668	110.927	159.668	110.545	159.668	110.928	159.668	110.313	159.668	110.866	159.668	110.045	159.668	110.749	159.668	109.757	159.668	110.59	159.668	109.462	159.668	110.41	159.668	109.179	159.668	110.23	159.668	108.922	159.668	110.069	159.668	108.709	159.668	109.94	159.668	108.552	159.668	109.844	159.668	108.461	159.668	109.775	159.668	108.443	159.668	109.722	159.668	108.494	159.668	109.676	159.668	108.605	159.668	109.631	159.668	108.761	159.668	109.578	159.668	108.939	159.668	109.507	159.668	109.117	159.668	109.409	159.668	109.278
165.527	110.962	165.527	110.843	165.527	111.015	165.527	110.665	165.527	110.996	165.527	110.441	165.527	110.907	165.527	110.183	165.527	110.753	165.527	109.907	165.527	110.549	165.527	109.627	165.527	110.317	165.527	109.361	165.527	110.084	165.527	109.123	165.527	109.88	165.527	108.924	165.527	109.726	165.527	108.776	165.527	109.628	165.527	108.684	165.527	109.578	165.527	108.651	165.527	109.558	165.527	108.673	165.527	109.548	165.527	108.746	165.527	109.532	165.527	108.857	165.527	109.501	165.527	108.991	165.527	109.447	165.527	109.131	165.527	109.367	165.527	109.26
171.387	111.109	171.387	110.975	171.387	111.178	171.387	110.785	171.387	111.174	171.387	110.553	171.387	111.096	171.387	110.292	171.387	110.945	171.387	110.015	171.387	110.734	171.387	109.738	171.387	110.481	171.387	109.474	171.387	110.214	171.387	109.235	171.387	109.964	171.387	109.032	171.387	109.758	171.387	108.875	171.387	109.611	171.387	108.77	171.387	109.52	171.387	108.72	171.387	109.47	171.387	108.725	171.387	109.442	171.387	108.779	171.387	109.418	171.387	108.869	171.387	109.389	171.387	108.981	171.387	109.346	171.387	109.096	171.387	109.284	171.387	109.2
177.246	111.211	177.246	111.032	177.246	111.319	177.246	110.795	177.246	111.35	177.246	110.515	177.246	111.301	177.246	110.21	177.246	111.178	177.246	109.898	177.246	110.991	177.246	109.599	177.246	110.761	177.246	109.33	177.246	110.513	177.246	109.105	177.246	110.275	177.246	108.936	177.246	110.071	177.246	108.827	177.246	109.915	177.246	108.778	177.246	109.809	177.246	108.787	177.246	109.746	177.246	108.846	177.246	109.71	177.246	108.944	177.246	109.685	177.246	109.07	177.246	109.657	177.246	109.206	177.246	109.614	177.246	109.34	177.246	109.549	177.246	109.457
183.105	111.248	183.105	111.076	183.105	111.342	183.105	110.835	183.105	111.352	183.105	110.543	183.105	111.281	183.105	110.216	183.105	111.135	183.105	109.874	183.105	110.932	183.105	109.538	183.105	110.696	183.105	109.225	183.105	110.454	183.105	108.95	183.105	110.233	183.105	108.724	183.105	110.054	183.105	108.555	183.105	109.923	183.105	108.451	183.105	109.835	183.105	108.414	183.105	109.779	183.105	108.447	183.105	109.738	183.105	108.546	183.105	109.698	183.105	108.7	183.105	109.642	183.105	108.889	183.105	109.559	183.105	109.091	183.105	109.438	183.105	109.279
188.965	111.526	188.965	111.367	188.965	111.599	188.965	111.132	188.965	111.581	188.965	110.835	188.965	111.475	188.965	110.496	188.965	111.291	188.965	110.133	188.965	111.047	188.965	109.768	188.965	110.772	188.965	109.42	188.965	110.497	188.965	109.106	188.965	110.248	188.965	108.839	188.965	110.041	188.965	108.626	188.965	109.877	188.965	108.472	188.965	109.743	188.965	108.38	188.965	109.627	188.965	108.35	188.965	109.523	188.965	108.383	188.965	109.428	188.965	108.476	188.965	109.334	188.965	108.617	188.965	109.23	188.965	108.784	188.965	109.105	188.965	108.953
196.289	111.487	196.289	111.361	196.289	111.523	196.289	111.16	196.289	111.462	196.289	110.904	196.289	111.305	196.289	110.615	196.289	111.063	196.289	110.318	196.289	110.76	196.289	110.029	196.289	110.435	196.289	109.759	196.289	110.136	196.289	109.509	196.289	109.905	196.289	109.276	196.289	109.763	196.289	109.051	196.289	109.695	196.289	108.831	196.289	109.658	196.289	108.621	196.289	109.604	196.289	108.438	196.289	109.502	196.289	108.306	196.289	109.346	196.289	108.248	196.289	109.152	196.289	108.274	196.289	108.94	196.289	108.377	196.289	108.73	196.289	108.536
203.613	111.448	203.613	111.239	203.613	111.551	203.613	110.938	203.613	111.541	203.613	110.564	203.613	111.413	203.613	110.14	203.613	111.172	203.613	109.698	203.613	110.832	203.613	109.273	203.613	110.419	203.613	108.902	203.613	109.978	203.613	108.619	203.613	109.571	203.613	108.443	203.613	109.261	203.613	108.374	203.613	109.091	203.613	108.389	203.613	109.056	203.613	108.455	203.613	109.109	203.613	108.541	203.613	109.185	203.613	108.626	203.613	109.233	203.613	108.705	203.613	109.227	203.613	108.783	203.613	109.168	203.613	108.869	203.613	109.074	203.613	108.969
210.938	111.028	210.938	110.836	210.938	111.126	210.938	110.563	210.938	111.125	210.938	110.225	210.938	111.025	210.938	109.846	210.938	110.834	210.938	109.451	210.938	110.564	210.938	109.066	210.938	110.236	210.938	108.717	210.938	109.878	210.938	108.418	210.938	109.521	210.938	108.175	210.938	109.196	210.938	107.989	210.938	108.926	210.938	107.853	210.938	108.725	210.938	107.762	210.938	108.597	210.938	107.716	210.938	108.529	210.938	107.722	210.938	108.499	210.938	107.781	210.938	108.472	210.938	107.89	210.938	108.42	210.938	108.035	210.938	108.325	210.938	108.189
218.262	110.558	218.262	110.355	218.262	110.661	218.262	110.065	218.262	110.657	218.262	109.712	218.262	110.55	218.262	109.325	218.262	110.354	218.262	108.942	218.262	110.096	218.262	108.602	218.262	109.816	218.262	108.339	218.262	109.557	218.262	108.167	218.262	109.354	218.262	108.082	218.262	109.22	218.262	108.06	218.262	109.14	218.262	108.071	218.262	109.085	218.262	108.094	218.262	109.033	218.262	108.12	218.262	108.977	218.262	108.159	218.262	108.918	218.262	108.222	218.262	108.858	218.262	108.318	218.262	108.787	218.262	108.442	218.262	108.693	218.262	108.574
225.586	110.864	225.586	110.651	225.586	110.948	225.586	110.319	225.586	110.897	225.586	109.887	225.586	110.715	225.586	109.381	225.586	110.418	225.586	108.843	225.586	110.037	225.586	108.331	225.586	109.623	225.586	107.914	225.586	109.243	225.586	107.652	225.586	108.966	225.586	107.566	225.586	108.826	225.586	107.624	225.586	108.804	225.586	107.762	225.586	108.846	225.586	107.913	225.586	108.89	225.586	108.036	225.586	108.903	225.586	108.126	225.586	108.88	225.586	108.201	225.586	108.826	225.586	108.286	225.586	108.746	225.586	108.394	225.586	108.642	225.586	108.519
232.91	110.316	232.91	110.107	232.91	110.398	232.91	109.785	232.91	110.347	232.91	109.367	232.91	110.162	232.91	108.878	232.91	109.854	232.91	108.357	232.91	109.452	232.91	107.853	232.91	109.008	232.91	107.431	232.91	108.605	232.91	107.157	232.91	108.328	232.91	107.064	232.91	108.229	232.91	107.133	232.91	108.282	232.91	107.299	232.91	108.4	232.91	107.483	232.91	108.493	232.91	107.626	232.91	108.507	232.91	107.707	232.91	108.439	232.91	107.739	232.91	108.311	232.91	107.756	232.91	108.158	232.91	107.797	232.91	108.007	232.91	107.881
241.699	110.084	241.699	109.803	241.699	110.223	241.699	109.392	241.699	110.21	241.699	108.866	241.699	110.038	241.699	108.244	241.699	109.705	241.699	107.552	241.699	109.225	241.699	106.841	241.699	108.635	241.699	106.205	241.699	108.024	241.699	105.779	241.699	107.537	241.699	105.694	241.699	107.335	241.699	105.979	241.699	107.479	241.699	106.526	241.699	107.865	241.699	107.168	241.699	108.316	241.699	107.77	241.699	108.696	241.699	108.259	241.699	108.951	241.699	108.616	241.699	109.087	241.699	108.854	241.699	109.137	241.699	109.002	241.699	109.132	241.699	109.088
250.488	110.732	250.488	110.482	250.488	110.844	250.488	110.102	250.488	110.81	250.488	109.601	250.488	110.624	250.488	108.985	250.488	110.285	250.488	108.258	250.488	109.795	250.488	107.429	250.488	109.17	250.488	106.526	250.488	108.456	250.488	105.625	250.488	107.747	250.488	104.885	250.488	107.201	250.488	104.528	250.488	106.979	250.488	104.697	250.488	107.126	250.488	105.31	250.488	107.528	250.488	106.134	250.488	108.01	250.488	106.963	250.488	108.441	250.488	107.681	250.488	108.758	250.488	108.246	250.488	108.942	250.488	108.648	250.488	108.988	250.488	108.892
259.277	110.619	259.277	110.44	259.277	110.676	259.277	110.146	259.277	110.608	259.277	109.742	259.277	110.414	259.277	109.232	259.277	110.097	259.277	108.621	259.277	109.659	259.277	107.914	259.277	109.106	259.277	107.132	259.277	108.456	259.277	106.325	259.277	107.759	259.277	105.601	259.277	107.112	259.277	105.113	259.277	106.663	259.277	104.997	259.277	106.537	259.277	105.266	259.277	106.731	259.277	105.792	259.277	107.109	259.277	106.408	259.277	107.513	259.277	106.992	259.277	107.84	259.277	107.476	259.277	108.044	259.277	107.83	259.277	108.113	259.277	108.043
268.066	110.067	268.066	109.895	268.066	110.124	268.066	109.619	268.066	110.058	268.066	109.253	268.066	109.872	268.066	108.809	268.066	109.574	268.066	108.284	268.066	109.174	268.066	107.664	268.066	108.687	268.066	106.935	268.066	108.135	268.066	106.106	268.066	107.557	268.066	105.252	268.066	107.024	268.066	104.553	268.066	106.637	268.066	104.252	268.066	106.492	268.066	104.468	268.066	106.613	268.066	105.068	268.066	106.923	268.066	105.801	268.066	107.288	268.066	106.486	268.066	107.595	268.066	107.042	268.066	107.779	268.066	107.448	268.066	107.817	268.066	107.706
276.855	109.85	276.855	109.681	276.855	109.885	276.855	109.388	276.855	109.79	276.855	108.988	276.855	109.581	276.855	108.511	276.855	109.281	276.855	107.981	276.855	108.916	276.855	107.411	276.855	108.505	276.855	106.791	276.855	108.059	276.855	106.094	276.855	107.59	276.855	105.312	276.855	107.131	276.855	104.507	276.855	106.751	276.855	103.879	276.855	106.549	276.855	103.728	276.855	106.589	276.855	104.193	276.855	106.85	276.855	105.069	276.855	107.229	276.855	106.032	276.855	107.602	276.855	106.865	276.855	107.869	276.855	107.477	276.855	107.964	276.855	107.841
287.109	110.092	287.109	110.028	287.109	110	287.109	109.829	287.109	109.744	287.109	109.518	287.109	109.335	287.109	109.121	287.109	108.812	287.109	108.653	287.109	108.248	287.109	108.126	287.109	107.75	287.109	107.54	287.109	107.411	287.109	106.894	287.109	107.246	287.109	106.187	287.109	107.169	287.109	105.445	287.109	107.072	287.109	104.747	287.109	106.913	287.109	104.262	287.109	106.767	287.109	104.202	287.109	106.783	287.109	104.649	287.109	107.027	287.109	105.44	287.109	107.391	287.109	106.31	287.109	107.684	287.109	107.05	287.109	107.758	287.109	107.548
297.363	110.345	297.363	110.165	297.363	110.324	297.363	109.811	297.363	110.082	297.363	109.319	297.363	109.606	297.363	108.732	297.363	108.894	297.363	108.097	297.363	107.976	297.363	107.45	297.363	106.964	297.363	106.802	297.363	106.11	297.363	106.138	297.363	105.755	297.363	105.432	297.363	106.016	297.363	104.685	297.363	106.616	297.363	103.964	297.363	107.183	297.363	103.438	297.363	107.516	297.363	103.324	297.363	107.596	297.363	103.726	297.363	107.52	297.363	104.505	297.363	107.408	297.363	105.398	297.363	107.299	297.363	106.193	297.363	107.123	297.363	106.774
307.617	110.268	307.617	110.083	307.617	110.29	307.617	109.749	307.617	110.139	307.617	109.281	307.617	109.802	307.617	108.7	307.617	109.264	307.617	108.036	307.617	108.515	307.617	107.335	307.617	107.558	307.617	106.654	307.617	106.453	307.617	106.043	307.617	105.377	307.617	105.514	307.617	104.649	307.617	105.031	307.617	104.528	307.617	104.538	307.617	104.914	307.617	104.021	307.617	105.477	307.617	103.569	307.617	105.985	307.617	103.391	307.617	106.358	307.617	103.674	307.617	106.581	307.617	104.369	307.617	106.622	307.617	105.211	307.617	106.421	307.617	105.941
319.336	110.088	319.336	109.881	319.336	110.107	319.336	109.503	319.336	109.922	319.336	108.977	319.336	109.517	319.336	108.319	319.336	108.879	319.336	107.538	319.336	107.988	319.336	106.636	319.336	106.841	319.336	105.631	319.336	105.513	319.336	104.59	319.336	104.287	319.336	103.675	319.336	103.714	319.336	103.117	319.336	104.091	319.336	103.057	319.336	104.977	319.336	103.403	319.336	105.796	319.336	103.941	319.336	106.301	319.336	104.518	319.336	106.505	319.336	105.076	319.336	106.541	319.336	105.591	319.336	106.53	319.336	106.026	319.336	106.482	319.336	106.33
329.59	110.711	329.59	110.583	329.59	110.673	329.59	110.319	329.59	110.45	329.59	109.956	329.59	110.028	329.59	109.531	329.59	109.391	329.59	109.063	329.59	108.508	329.59	108.538	329.59	107.327	329.59	107.906	329.59	105.777	329.59	107.101	329.59	103.833	329.59	106.057	329.59	101.788	329.59	104.76	329.59	100.806	329.59	103.314	329.59	101.783	329.59	102.091	329.59	103.516	329.59	101.689	329.59	104.95	329.59	102.303	329.59	105.871	329.59	103.433	329.59	106.352	329.59	104.563	329.59	106.509	329.59	105.462	329.59	106.414	329.59	106.074
341.309	110.736	341.309	110.592	341.309	110.704	341.309	110.288	341.309	110.499	341.309	109.848	341.309	110.135	341.309	109.305	341.309	109.643	341.309	108.692	341.309	109.052	341.309	108.044	341.309	108.37	341.309	107.382	341.309	107.567	341.309	106.709	341.309	106.572	341.309	106.013	341.309	105.299	341.309	105.286	341.309	103.746	341.309	104.564	341.309	102.24	341.309	103.978	341.309	101.686	341.309	103.737	341.309	102.548	341.309	103.98	341.309	103.976	341.309	104.607	341.309	105.198	341.309	105.353	341.309	105.995	341.309	105.979	341.309	106.363	341.309	106.341
353.027	110.905	353.027	110.774	353.027	110.853	353.027	110.502	353.027	110.595	353.027	110.141	353.027	110.124	353.027	109.744	353.027	109.44	353.027	109.345	353.027	108.553	353.027	108.939	353.027	107.491	353.027	108.486	353.027	106.324	353.027	107.919	353.027	105.187	353.027	107.155	353.027	104.251	353.027	106.103	353.027	103.63	353.027	104.675	353.027	103.329	353.027	102.868	353.027	103.327	353.027	101.085	353.027	103.666	353.027	100.595	353.027	104.338	353.027	101.938	353.027	105.154	353.027	103.763	353.027	105.831	353.027	105.163	353.027	106.142	353.027	105.948
366.211	111.58	366.211	111.284	366.211	111.661	366.211	110.809	366.211	111.509	366.211	110.214	366.211	111.116	366.211	109.579	366.211	110.474	366.211	108.997	366.211	109.577	366.211	108.534	366.211	108.419	366.211	108.197	366.211	107.034	366.211	107.913	366.211	105.563	366.211	107.548	366.211	104.337	366.211	106.946	366.211	103.746	366.211	105.952	366.211	103.798	366.211	104.427	366.211	104.132	366.211	102.363	366.211	104.503	366.211	100.47	366.211	104.916	366.211	100.634	366.211	105.404	366.211	102.589	366.211	105.84	366.211	104.432	366.211	105.969	366.211	105.555
379.395	111.003	379.395	110.539	379.395	111.285	379.395	109.905	379.395	111.385	379.395	109.13	379.395	111.306	379.395	108.267	379.395	111.042	379.395	107.402	379.395	110.571	379.395	106.662	379.395	109.853	379.395	106.207	379.395	108.834	379.395	106.135	379.395	107.463	379.395	106.37	379.395	105.742	379.395	106.68	379.395	103.845	379.395	106.814	379.395	102.309	379.395	106.57	379.395	101.791	379.395	105.809	379.395	102.185	379.395	104.461	379.395	102.802	379.395	102.638	379.395	103.176	379.395	100.983	379.395	103.105	379.395	100.628	379.395	102.517	379.395	101.506
392.578	110.488	392.578	110.082	392.578	110.688	392.578	109.494	392.578	110.683	392.578	108.766	392.578	110.494	392.578	107.957	392.578	110.154	392.578	107.132	392.578	109.69	392.578	106.374	392.578	109.103	392.578	105.783	392.578	108.37	392.578	105.455	392.578	107.455	392.578	105.395	392.578	106.345	392.578	105.474	392.578	105.101	392.578	105.491	392.578	103.902	392.578	105.277	392.578	103.025	392.578	104.754	392.578	102.72	392.578	104.003	392.578	103.036	392.578	103.352	392.578	103.722	392.578	103.26	392.578	104.36	392.578	103.762	392.578	104.612	392.578	104.363
405.762	110.843	405.762	110.442	405.762	110.933	405.762	109.756	405.762	110.716	405.762	108.839	405.762	110.224	405.762	107.765	405.762	109.508	405.762	106.619	405.762	108.63	405.762	105.479	405.762	107.659	405.762	104.445	405.762	106.664	405.762	103.675	405.762	105.725	405.762	103.343	405.762	104.907	405.762	103.458	405.762	104.243	405.762	103.785	405.762	103.733	405.762	104.031	405.762	103.397	405.762	104.033	405.762	103.332	405.762	103.828	405.762	103.618	405.762	103.664	405.762	104.146	405.762	103.822	405.762	104.641	405.762	104.278	405.762	104.864	405.762	104.717
420.41	110.904	420.41	110.609	420.41	110.955	420.41	110.072	420.41	110.789	420.41	109.319	420.41	110.446	420.41	108.386	420.41	109.967	420.41	107.31	420.41	109.368	420.41	106.139	420.41	108.626	420.41	104.956	420.41	107.689	420.41	103.94	420.41	106.499	420.41	103.341	420.41	105.068	420.41	103.25	420.41	103.607	420.41	103.417	420.41	102.591	420.41	103.442	420.41	102.316	420.41	103.049	420.41	102.469	420.41	102.219	420.41	102.712	420.41	101.361	420.41	103.032	420.41	101.259	420.41	103.363	420.41	102.046	420.41	103.414	420.41	102.951
435.059	109.789	435.059	109.523	435.059	109.808	435.059	109.02	435.059	109.602	435.059	108.314	435.059	109.211	435.059	107.458	435.059	108.686	435.059	106.507	435.059	108.088	435.059	105.522	435.059	107.47	435.059	104.604	435.059	106.869	435.059	103.93	435.059	106.296	435.059	103.669	435.059	105.752	435.059	103.778	435.059	105.27	435.059	103.954	435.059	104.914	435.059	103.866	435.059	104.718	435.059	103.339	435.059	104.648	435.059	102.499	435.059	104.674	435.059	101.953	435.059	104.811	435.059	102.388	435.059	104.982	435.059	103.492	435.059	104.947	435.059	104.465
451.172	110.504	451.172	110.039	451.172	110.659	451.172	109.293	451.172	110.51	451.172	108.326	451.172	110.088	451.172	107.222	451.172	109.445	451.172	106.052	451.172	108.65	451.172	104.836	451.172	107.768	451.172	103.564	451.172	106.811	451.172	102.325	451.172	105.708	451.172	101.469	451.172	104.36	451.172	101.378	451.172	102.831	451.172	101.834	451.172	101.686	451.172	102.189	451.172	101.801	451.172	101.989	451.172	102.965	451.172	101.174	451.172	104.231	451.172	100.384	451.172	105.098	451.172	100.903	451.172	105.417	451.172	102.578	451.172	105.121	451.172	104.159
465.82	110.663	465.82	110.123	465.82	110.912	465.82	109.338	465.82	110.863	465.82	108.389	465.82	110.531	465.82	107.369	465.82	109.949	465.82	106.336	465.82	109.173	465.82	105.271	465.82	108.295	465.82	104.103	465.82	107.402	465.82	102.812	465.82	106.501	465.82	101.619	465.82	105.484	465.82	101.013	465.82	104.177	465.82	101.138	465.82	102.437	465.82	101.402	465.82	100.381	465.82	101.155	465.82	99.2299	465.82	100.152	465.82	100.555	465.82	98.9354	465.82	102.722	465.82	99.3317	465.82	104.101	465.82	101.464	465.82	104.331	465.82	103.401
483.398	110.591	483.398	109.681	483.398	111.069	483.398	108.374	483.398	111.1	483.398	106.772	483.398	110.681	483.398	105.082	483.398	109.837	483.398	103.593	483.398	108.673	483.398	102.557	483.398	107.46	483.398	102.105	483.398	106.668	483.398	102.312	483.398	106.619	483.398	103.124	483.398	106.994	483.398	104.197	483.398	107.166	483.398	105.045	483.398	106.668	483.398	105.264	483.398	105.173	483.398	104.539	483.398	102.382	483.398	102.514	483.398	98.576	483.398	98.6932	483.398	97.6622	483.398	94.7476	483.398	99.9452	483.398	97.5676	483.398	101.111	483.398	100.404
499.512	110.752	499.512	109.757	499.512	111.375	499.512	108.404	499.512	111.626	499.512	106.746	499.512	111.51	499.512	104.904	499.512	111.038	499.512	103.034	499.512	110.194	499.512	101.145	499.512	108.915	499.512	98.8282	499.512	107.135	499.512	95.0107	499.512	105.133	499.512	89.3854	499.512	104.244	499.512	95.0083	499.512	105.377	499.512	100.458	499.512	106.929	499.512	103.419	499.512	107.643	499.512	104.732	499.512	107.14	499.512	104.655	499.512	105.425	499.512	103.212	499.512	103.264	499.512	100.66	499.512	102.221	499.512	99.1537	499.512	101.803	499.512	100.513
517.09	109.695	517.09	108.528	517.09	110.557	517.09	107.117	517.09	111.09	517.09	105.582	517.09	111.283	517.09	104.084	517.09	111.124	517.09	102.775	517.09	110.624	517.09	101.711	517.09	109.852	517.09	100.747	517.09	108.943	517.09	99.4318	517.09	108.042	517.09	96.9601	517.09	107.186	517.09	92.5208	517.09	106.316	517.09	93.0929	517.09	105.534	517.09	98.4224	517.09	105.238	517.09	101.306	517.09	105.432	517.09	102.116	517.09	105.385	517.09	101.136	517.09	104.506	517.09	98.68	517.09	102.811	517.09	97.009	517.09	100.765	517.09	98.5633
536.133	109.378	536.133	108.15	536.133	110.376	536.133	106.893	536.133	111.018	536.133	105.819	536.133	111.25	536.133	105.016	536.133	111.048	536.133	104.465	536.133	110.392	536.133	104.158	536.133	109.256	536.133	104.017	536.133	107.691	536.133	103.684	536.133	106.117	536.133	102.568	536.133	105.508	536.133	99.8953	536.133	105.969	536.133	94.7825	536.133	106.319	536.133	94.7384	536.133	105.953	536.133	99.9482	536.133	105.251	536.133	102.417	536.133	104.931	536.133	102.687	536.133	104.768	536.133	101.216	536.133	104.024	536.133	99.3239	536.133	102.38	536.133	100.097
555.176	109.503	555.176	108.716	555.176	110.153	555.176	107.936	555.176	110.572	555.176	107.274	555.176	110.736	555.176	106.724	555.176	110.639	555.176	106.193	555.176	110.236	555.176	105.665	555.176	109.414	555.176	105.3	555.176	108.024	555.176	105.157	555.176	106.114	555.176	104.857	555.176	104.716	555.176	103.748	555.176	105.28	555.176	101.224	555.176	106.456	555.176	98.4172	555.176	106.693	555.176	100.6	555.176	105.814	555.176	103.595	555.176	104.63	555.176	104.718	555.176	104.211	555.176	104.23	555.176	104.064	555.176	102.954	555.176	103.344	555.176	102.513
574.219	110.123	574.219	109.258	574.219	110.825	574.219	108.328	574.219	111.297	574.219	107.398	574.219	111.509	574.219	106.51	574.219	111.422	574.219	105.764	574.219	110.944	574.219	105.314	574.219	109.925	574.219	105.218	574.219	108.19	574.219	105.315	574.219	105.797	574.219	105.264	574.219	104.105	574.219	104.68	574.219	104.893	574.219	103.36	574.219	106.186	574.219	101.867	574.219	106.441	574.219	101.744	574.219	105.708	574.219	102.522	574.219	104.654	574.219	102.345	574.219	104.085	574.219	100.626	574.219	104.005	574.219	99.3287	574.219	103.375	574.219	101.378
594.727	109.207	594.727	109.065	594.727	109.283	594.727	108.808	594.727	109.279	594.727	108.317	594.727	109.215	594.727	107.472	594.727	109.183	594.727	106.248	594.727	109.207	594.727	104.899	594.727	109.056	594.727	104.14	594.727	108.288	594.727	104.458	594.727	106.32	594.727	105.131	594.727	102.167	594.727	105.201	594.727	96.0336	594.727	104.225	594.727	100.744	594.727	102.616	594.727	104.414	594.727	102.514	594.727	105.3	594.727	104.172	594.727	104.488	594.727	105.131	594.727	102.902	594.727	104.403	594.727	101.296	594.727	101.842	594.727	99.5396	594.727	98.9688
615.234	110.775	615.234	111.557	615.234	109.439	615.234	111.755	615.234	107.608	615.234	111.385	615.234	105.348	615.234	110.525	615.234	102.794	615.234	109.322	615.234	100.521	615.234	107.992	615.234	99.7723	615.234	106.815	615.234	100.274	615.234	106.089	615.234	100.263	615.234	105.851	615.234	98.5124	615.234	105.659	615.234	93.6107	615.234	104.968	615.234	85.2238	615.234	103.761	615.234	92.3794	615.234	103.265	615.234	95.5384	615.234	104.347	615.234	95.5614	615.234	105.346	615.234	93.2719	615.234	104.97	615.234	90.6057	615.234	102.739	615.234	92.8599	615.234	98.4282
637.207	112.19	637.207	112.276	637.207	111.71	637.207	111.928	637.207	110.926	637.207	111.195	637.207	109.887	637.207	110.152	637.207	108.554	637.207	108.826	637.207	106.828	637.207	107.169	637.207	104.547	637.207	105.221	637.207	101.678	637.207	103.416	637.207	99.8678	637.207	102.582	637.207	101.027	637.207	102.871	637.207	102.099	637.207	103.509	637.207	101.495	637.207	103.824	637.207	99.648	637.207	103.467	637.207	97.8685	637.207	102.398	637.207	96.0767	637.207	101.376	637.207	97.3442	637.207	101.875	637.207	101.554	637.207	103.368	637.207	103.897	637.207	104.308
659.18	110.693	659.18	110.525	659.18	110.478	659.18	109.925	659.18	109.917	659.18	108.891	659.18	109.051	659.18	107.542	659.18	107.984	659.18	106.172	659.18	106.857	659.18	104.999	659.18	105.675	659.18	103.891	659.18	104.247	659.18	102.695	659.18	102.344	659.18	101.531	659.18	99.8402	659.18	100.326	659.18	97.2788	659.18	98.6887	659.18	97.7151	659.18	98.1419	659.18	100.791	659.18	100.821	659.18	102.973	659.18	103.195	659.18	103.358	659.18	103.593	659.18	101.615	659.18	101.851	659.18	97.9452	659.18	98.5854	659.18	95.962	659.18	96.5574
682.617	111.265	682.617	111.014	682.617	110.967	682.617	110.235	682.617	110.159	682.617	109.015	682.617	108.927	682.617	107.469	682.617	107.436	682.617	105.685	682.617	105.888	682.617	103.741	682.617	104.377	682.617	101.913	682.617	102.831	682.617	100.832	682.617	101.019	682.617	100.718	682.617	98.6713	682.617	100.819	682.617	96.3357	682.617	100.34	682.617	95.5179	682.617	99.2243	682.617	94.8971	682.617	99.1146	682.617	95.1612	682.617	100.848	682.617	97.4691	682.617	102.081	682.617	98.0705	682.617	101.831	682.617	97.5577	682.617	100.677	682.617	98.5807	682.617	99.7157
707.52	110.319	707.52	109.833	707.52	110.272	707.52	108.798	707.52	109.878	707.52	107.283	707.52	109.331	707.52	105.33	707.52	108.598	707.52	102.938	707.52	107.529	707.52	100.163	707.52	106.074	707.52	97.6004	707.52	104.375	707.52	97.1062	707.52	102.812	707.52	98.5243	707.52	101.539	707.52	99.3098	707.52	99.8114	707.52	98.3788	707.52	98.4168	707.52	96.1259	707.52	100.463	707.52	96.1167	707.52	101.551	707.52	98.5055	707.52	99.749	707.52	99.7166	707.52	98.2908	707.52	99.1907	707.52	99.6998	707.52	98.2139	707.52	100.086	707.52	99.0582
732.422	108.139	732.422	107.109	732.422	108.889	732.422	105.805	732.422	109.314	732.422	104.387	732.422	109.226	732.422	102.996	732.422	108.6	732.422	101.549	732.422	107.733	732.422	99.9147	732.422	106.893	732.422	98.1629	732.422	105.896	732.422	96.2109	732.422	104.416	732.422	94.354	732.422	102.843	732.422	95.2674	732.422	101.759	732.422	97.2249	732.422	99.9959	732.422	97.0088	732.422	98.8517	732.422	94.9582	732.422	101.684	732.422	96.7311	732.422	102.69	732.422	99.0215	732.422	100.507	732.422	97.9836	732.422	97.5688	732.422	93.4434	732.422	96.2737	732.422	93.1579
757.324	105.023	757.324	104.908	757.324	105.925	757.324	105.864	757.324	106.544	757.324	106.741	757.324	106.348	757.324	106.783	757.324	105.551	757.324	106.092	757.324	104.833	757.324	105.026	757.324	104.572	757.324	103.668	757.324	104.618	757.324	102.033	757.324	104.275	757.324	100.584	757.324	102.814	757.324	99.7643	757.324	100.18	757.324	99.4509	757.324	97.3557	757.324	99.3211	757.324	95.692	757.324	98.5432	757.324	97.3809	757.324	97.9511	757.324	98.9876	757.324	99.5104	757.324	96.6706	757.324	100.299	757.324	91.6931	757.324	97.9292	757.324	93.306	757.324	93.4298
785.156	107.232	785.156	108.526	785.156	106.197	785.156	109.546	785.156	105.395	785.156	109.899	785.156	104.537	785.156	109.532	785.156	103.904	785.156	108.445	785.156	103.61	785.156	106.593	785.156	103.192	785.156	104.026	785.156	102.579	785.156	101.303	785.156	101.583	785.156	100.075	785.156	99.6024	785.156	100.765	785.156	96.9783	785.156	101.711	785.156	97.7334	785.156	101.881	785.156	99.6243	785.156	101.36	785.156	98.7066	785.156	101.879	785.156	95.9026	785.156	102.953	785.156	96.2298	785.156	102.086	785.156	94.7917	785.156	98.4304	785.156	90.684	785.156	93.1121
811.523	109.034	811.523	109.68	811.523	109.008	811.523	110.605	811.523	108.79	811.523	110.9	811.523	107.861	811.523	110.2	811.523	106.486	811.523	108.632	811.523	105.012	811.523	106.701	811.523	103.493	811.523	105.024	811.523	102.111	811.523	103.22	811.523	101.366	811.523	99.9888	811.523	101.323	811.523	96.5526	811.523	100.434	811.523	98.9137	811.523	95.6521	811.523	100.955	811.523	88.025	811.523	100.839	811.523	99.817	811.523	100.863	811.523	102.786	811.523	102.119	811.523	102.279	811.523	101.686	811.523	99.5632	811.523	98.7594	811.523	96.186	811.523	95.6055
840.82	110.814	840.82	110.612	840.82	110.58	840.82	110.581	840.82	109.709	840.82	110.776	840.82	108.786	840.82	110.659	840.82	108.326	840.82	109.891	840.82	107.778	840.82	108.415	840.82	106.564	840.82	106.303	840.82	104.507	840.82	103.918	840.82	102.123	840.82	101.469	840.82	101.933	840.82	98.1592	840.82	103.072	840.82	93.6632	840.82	103.018	840.82	95.273	840.82	101.299	840.82	99.1662	840.82	95.3232	840.82	100.726	840.82	87.5048	840.82	100.56	840.82	97.196	840.82	99.4444	840.82	96.9052	840.82	96.8966	840.82	93.7801	840.82	93.478
870.117	110.943	870.117	110.922	870.117	111.209	870.117	111.367	870.117	110.925	870.117	111.454	870.117	110.252	870.117	110.682	870.117	109.716	870.117	109.348	870.117	108.777	870.117	107.876	870.117	107.146	870.117	106.008	870.117	104.862	870.117	103.831	870.117	101.701	870.117	102.725	870.117	98.1708	870.117	102.062	870.117	97.8556	870.117	99.9244	870.117	99.2269	870.117	95.2085	870.117	100.671	870.117	89.8038	870.117	102.574	870.117	98.0679	870.117	101.888	870.117	102.046	870.117	97.5747	870.117	101.888	870.117	94.5268	870.117	98.838	870.117	94.2828	870.117	95.045
900.879	110.32	900.879	110.215	900.879	110.6	900.879	110.097	900.879	110.786	900.879	109.667	900.879	110.701	900.879	108.975	900.879	110.329	900.879	108.27	900.879	109.219	900.879	107.456	900.879	107.448	900.879	106.113	900.879	105.823	900.879	104.036	900.879	104.164	900.879	101.937	900.879	102.33	900.879	101.294	900.879	101.899	900.879	101.572	900.879	100.794	900.879	101.68	900.879	98.9274	900.879	100.731	900.879	95.6285	900.879	99.5979	900.879	93.7484	900.879	101.112	900.879	99.7907	900.879	100.778	900.879	97.4642	900.879	96.9813	900.879	92.8419	900.879	93.97
933.105	110.685	933.105	110.923	933.105	110.493	933.105	111.328	933.105	110.589	933.105	111.662	933.105	111.059	933.105	111.335	933.105	110.745	933.105	110.318	933.105	109.104	933.105	109.082	933.105	107.163	933.105	107.642	933.105	106.163	933.105	105.575	933.105	104.683	933.105	103.217	933.105	99.8866	933.105	102.042	933.105	99.166	933.105	102.694	933.105	103.84	933.105	102.909	933.105	104.664	933.105	100.162	933.105	105.048	933.105	97.4651	933.105	102.898	933.105	101.816	933.105	96.941	933.105	102.147	933.105	98.067	933.105	95.9799	933.105	91.3321	933.105	82.5916
965.332	110.519	965.332	110.876	965.332	110.661	965.332	111.144	965.332	110.941	965.332	110.65	965.332	111.156	965.332	109.465	965.332	111.249	965.332	107.87	965.332	110.381	965.332	106.012	965.332	108.115	965.332	104.511	965.332	105.624	965.332	103.972	965.332	104.304	965.332	103.578	965.332	102.539	965.332	101.992	965.332	98.1171	965.332	100.327	965.332	95.0286	965.332	101.495	965.332	94.4077	965.332	102.215	965.332	94.6576	965.332	100.047	965.332	101.207	965.332	100.384	965.332	99.2954	965.332	98.6442	965.332	90.418	965.332	94.8823	965.332	98.9169	965.332	96.383
1,000.49	110.405	1,000.49	110.756	1,000.49	110.321	1,000.49	111.173	1,000.49	110.855	1,000.49	111.217	1,000.49	111.593	1,000.49	110.228	1,000.49	111.474	1,000.49	108.357	1,000.49	110.187	1,000.49	106.855	1,000.49	108.231	1,000.49	105.881	1,000.49	106.129	1,000.49	103.623	1,000.49	104.942	1,000.49	100.847	1,000.49	105.121	1,000.49	99.8342	1,000.49	103.206	1,000.49	98.4111	1,000.49	99.4366	1,000.49	100.989	1,000.49	100.565	1,000.49	102.756	1,000.49	104.262	1,000.49	97.2691	1,000.49	102.139	1,000.49	98.9595	1,000.49	100.928	1,000.49	101.575	1,000.49	99.226	1,000.49	100.968	1,000.49	79.8582	1,000.49	91.5128
1,035.64	109.811	1,035.64	110.738	1,035.64	109.799	1,035.64	111.3	1,035.64	110.419	1,035.64	110.84	1,035.64	111.32	1,035.64	109.574	1,035.64	112.134	1,035.64	107.622	1,035.64	111.413	1,035.64	105.428	1,035.64	108.505	1,035.64	104.541	1,035.64	104.549	1,035.64	103.549	1,035.64	101.439	1,035.64	101.302	1,035.64	95.5412	1,035.64	100.894	1,035.64	94.2811	1,035.64	102.086	1,035.64	100.204	1,035.64	102.445	1,035.64	100.056	1,035.64	102.252	1,035.64	96.3803	1,035.64	99.6247	1,035.64	101.423	1,035.64	97.9142	1,035.64	101.043	1,035.64	100.349	1,035.64	93.8997	1,035.64	97.9063	1,035.64	84.0089	1,035.64	86.0998
1,072.27	109.341	1,072.27	109.036	1,072.27	109.539	1,072.27	109.782	1,072.27	110.176	1,072.27	110.629	1,072.27	111.938	1,072.27	110.218	1,072.27	112.339	1,072.27	108.09	1,072.27	110.415	1,072.27	105.255	1,072.27	107.056	1,072.27	103.763	1,072.27	103.803	1,072.27	103.13	1,072.27	101.451	1,072.27	102.421	1,072.27	99.37	1,072.27	100.788	1,072.27	96.1681	1,072.27	99.4073	1,072.27	98.3176	1,072.27	100.592	1,072.27	102.997	1,072.27	101.211	1,072.27	103.774	1,072.27	99.0636	1,072.27	99.9879	1,072.27	98.1446	1,072.27	98.8396	1,072.27	101.404	1,072.27	98.9546	1,072.27	97.6119	1,072.27	80.7843	1,072.27	79.7723
1,108.89	109.811	1,108.89	109.108	1,108.89	109.218	1,108.89	109.296	1,108.89	109.306	1,108.89	110.563	1,108.89	111.017	1,108.89	110.356	1,108.89	111.591	1,108.89	108.055	1,108.89	109.998	1,108.89	104.265	1,108.89	107.502	1,108.89	100.712	1,108.89	105.539	1,108.89	100.755	1,108.89	103.756	1,108.89	101.381	1,108.89	101.811	1,108.89	98.3053	1,108.89	97.6043	1,108.89	92.0884	1,108.89	93.5726	1,108.89	94.3389	1,108.89	96.456	1,108.89	99.0711	1,108.89	98.6039	1,108.89	97.4513	1,108.89	102.009	1,108.89	97.9609	1,108.89	100.611	1,108.89	99.7572	1,108.89	93.5984	1,108.89	95.0693	1,108.89	80.5964	1,108.89	86.8297
1,148.44	109.197	1,148.44	109.112	1,148.44	108.695	1,148.44	108.963	1,148.44	109.46	1,148.44	110.195	1,148.44	110.849	1,148.44	110.169	1,148.44	110.409	1,148.44	107.077	1,148.44	107.843	1,148.44	102.93	1,148.44	105.291	1,148.44	102.308	1,148.44	103.947	1,148.44	102.447	1,148.44	102.375	1,148.44	102.613	1,148.44	99.7949	1,148.44	102.001	1,148.44	94.8228	1,148.44	100.182	1,148.44	88.4945	1,148.44	98.8291	1,148.44	99.43	1,148.44	102.422	1,148.44	101.537	1,148.44	102.09	1,148.44	97.3643	1,148.44	98.346	1,148.44	96.2896	1,148.44	99.8505	1,148.44	96.3777	1,148.44	97.7623	1,148.44	89.5968	1,148.44	88.5719
1,189.45	109.939	1,189.45	110.224	1,189.45	109.87	1,189.45	109.766	1,189.45	110.255	1,189.45	109.173	1,189.45	109.875	1,189.45	108.643	1,189.45	108.865	1,189.45	107.367	1,189.45	108.178	1,189.45	105.444	1,189.45	106.697	1,189.45	103.749	1,189.45	103.028	1,189.45	102.223	1,189.45	98.3842	1,189.45	99.8971	1,189.45	98.6964	1,189.45	98.9899	1,189.45	94.7801	1,189.45	100.279	1,189.45	88.1583	1,189.45	98.4925	1,189.45	95.4681	1,189.45	96.2375	1,189.45	90.5091	1,189.45	99.3925	1,189.45	99.2388	1,189.45	95.5825	1,189.45	101.471	1,189.45	94.2404	1,189.45	91.5373	1,189.45	93.9025	1,189.45	88.0824	1,189.45	95.4079
1,230.47	109.897	1,230.47	110.005	1,230.47	109.982	1,230.47	108.808	1,230.47	110.594	1,230.47	108.157	1,230.47	109.884	1,230.47	108.475	1,230.47	107.441	1,230.47	106.431	1,230.47	105.905	1,230.47	101.329	1,230.47	104.827	1,230.47	99.6061	1,230.47	102.649	1,230.47	98.8541	1,230.47	100.302	1,230.47	98.2747	1,230.47	97.4077	1,230.47	99.2164	1,230.47	96.1155	1,230.47	97.3569	1,230.47	92.9778	1,230.47	95.5044	1,230.47	89.0897	1,230.47	96.3583	1,230.47	97.9717	1,230.47	97.6791	1,230.47	96.2122	1,230.47	96.1519	1,230.47	95.0958	1,230.47	97.705	1,230.47	95.4173	1,230.47	95.2978	1,230.47	92.2272	1,230.47	87.1802
1,274.41	110.173	1,274.41	109.243	1,274.41	110.615	1,274.41	108.858	1,274.41	110.6	1,274.41	108.123	1,274.41	109.976	1,274.41	106.713	1,274.41	107.632	1,274.41	105.012	1,274.41	103.983	1,274.41	103.47	1,274.41	100.71	1,274.41	102.308	1,274.41	99.1466	1,274.41	99.7078	1,274.41	98.032	1,274.41	97.6497	1,274.41	97.1428	1,274.41	92.806	1,274.41	96.5426	1,274.41	94.8719	1,274.41	92.7153	1,274.41	100.078	1,274.41	84.6404	1,274.41	99.4294	1,274.41	91.3758	1,274.41	97.5676	1,274.41	89.0752	1,274.41	96.1587	1,274.41	97.5866	1,274.41	96.0838	1,274.41	93.934	1,274.41	92.768	1,274.41	90.4712	1,274.41	91.2227
1,319.82	109.355	1,319.82	109.101	1,319.82	109.997	1,319.82	107.91	1,319.82	109.961	1,319.82	106.286	1,319.82	108.408	1,319.82	106.058	1,319.82	107.03	1,319.82	104.391	1,319.82	105.393	1,319.82	100.629	1,319.82	101.315	1,319.82	97.5268	1,319.82	97.6242	1,319.82	97.138	1,319.82	95.6646	1,319.82	93.5754	1,319.82	94.5015	1,319.82	91.4735	1,319.82	91.0206	1,319.82	94.2313	1,319.82	86.2625	1,319.82	94.2421	1,319.82	76.5518	1,319.82	96.8969	1,319.82	93.4697	1,319.82	97.4926	1,319.82	91.8185	1,319.82	92.3648	1,319.82	95.0296	1,319.82	93.2555	1,319.82	97.111	1,319.82	92.3896	1,319.82	93.4752	1,319.82	87.7576
1,366.7	109.357	1,366.7	108.486	1,366.7	109.545	1,366.7	106.881	1,366.7	108.371	1,366.7	105.734	1,366.7	106.573	1,366.7	105.514	1,366.7	105.461	1,366.7	103.918	1,366.7	103.468	1,366.7	101.663	1,366.7	101.255	1,366.7	100.701	1,366.7	100.636	1,366.7	97.1718	1,366.7	98.4417	1,366.7	91.3965	1,366.7	99.7791	1,366.7	83.8944	1,366.7	101.184	1,366.7	94.6787	1,366.7	95.2773	1,366.7	99.4365	1,366.7	68.9905	1,366.7	99.1785	1,366.7	98.0896	1,366.7	97.2336	1,366.7	97.4849	1,366.7	90.1257	1,366.7	88.7738	1,366.7	93.6627	1,366.7	95.5417	1,366.7	92.0322	1,366.7	88.2166	1,366.7	88.2098
1,413.57	110.084	1,413.57	108.541	1,413.57	109.384	1,413.57	106.733	1,413.57	107.264	1,413.57	104.74	1,413.57	105.268	1,413.57	104.573	1,413.57	102.135	1,413.57	104.72	1,413.57	100.018	1,413.57	102.386	1,413.57	101.262	1,413.57	99.559	1,413.57	101.665	1,413.57	95.3927	1,413.57	101.874	1,413.57	97.2983	1,413.57	95.0742	1,413.57	98.769	1,413.57	98.7675	1,413.57	87.963	1,413.57	100.215	1,413.57	98.5974	1,413.57	95.5872	1,413.57	96.4484	1,413.57	79.5665	1,413.57	95.3582	1,413.57	95.3002	1,413.57	93.7867	1,413.57	97.517	1,413.57	93.1878	1,413.57	91.1574	1,413.57	89.924	1,413.57	91.7967	1,413.57	94.265
1,463.38	111.025	1,463.38	109.174	1,463.38	110.021	1,463.38	105.415	1,463.38	108.021	1,463.38	104.291	1,463.38	103.858	1,463.38	101.58	1,463.38	99.6457	1,463.38	101.409	1,463.38	100.469	1,463.38	99.5247	1,463.38	101.831	1,463.38	97.7255	1,463.38	102.446	1,463.38	99.7029	1,463.38	102.015	1,463.38	93.7089	1,463.38	97.066	1,463.38	98.1674	1,463.38	96.9114	1,463.38	95.6116	1,463.38	98.4157	1,463.38	85.8704	1,463.38	98.2879	1,463.38	97.1577	1,463.38	88.4172	1,463.38	99.5177	1,463.38	96.6534	1,463.38	95.5748	1,463.38	86.2802	1,463.38	90.7791	1,463.38	93.3904	1,463.38	89.9349	1,463.38	67.1987	1,463.38	88.7265
1,516.11	111.801	1,516.11	109.682	1,516.11	110.554	1,516.11	104.874	1,516.11	106.142	1,516.11	99.0236	1,516.11	102.844	1,516.11	102.338	1,516.11	96.6936	1,516.11	103.474	1,516.11	102.18	1,516.11	101.689	1,516.11	104.427	1,516.11	98.3699	1,516.11	101.288	1,516.11	97.5639	1,516.11	97.7908	1,516.11	96.0654	1,516.11	96.2889	1,516.11	90.6	1,516.11	93.8409	1,516.11	95.0419	1,516.11	97.9008	1,516.11	96.5853	1,516.11	97.9273	1,516.11	97.4888	1,516.11	81.3164	1,516.11	94.9193	1,516.11	94.846	1,516.11	88.9157	1,516.11	84.5068	1,516.11	90.8236	1,516.11	92.8324	1,516.11	83.3198	1,516.11	95.017	1,516.11	96.1529
1,568.85	110.758	1,568.85	108.084	1,568.85	110.579	1,568.85	103.906	1,568.85	106.49	1,568.85	93.7031	1,568.85	101.525	1,568.85	101.763	1,568.85	98.5956	1,568.85	101.766	1,568.85	103.769	1,568.85	100.059	1,568.85	104.081	1,568.85	100.617	1,568.85	103.094	1,568.85	97.9153	1,568.85	101.447	1,568.85	90.8149	1,568.85	95.8114	1,568.85	79.0467	1,568.85	95.007	1,568.85	91.3372	1,568.85	88.9823	1,568.85	95.8048	1,568.85	99.1824	1,568.85	96.3388	1,568.85	92.8323	1,568.85	96.7161	1,568.85	91.2573	1,568.85	91.639	1,568.85	86.3475	1,568.85	85.8961	1,568.85	95.1374	1,568.85	85.216	1,568.85	94.2636	1,568.85	95.1791
1,624.51	110.393	1,624.51	107.509	1,624.51	109.652	1,624.51	101.741	1,624.51	106.001	1,624.51	86.6378	1,624.51	95.1651	1,624.51	98.7181	1,624.51	100.803	1,624.51	102.134	1,624.51	105.404	1,624.51	102.865	1,624.51	105.144	1,624.51	100.968	1,624.51	104.021	1,624.51	95.5344	1,624.51	102.823	1,624.51	96.6069	1,624.51	100.186	1,624.51	94.8401	1,624.51	95.1572	1,624.51	96.8139	1,624.51	87.2763	1,624.51	91.3041	1,624.51	93.1416	1,624.51	96.2738	1,624.51	97.3205	1,624.51	88.5554	1,624.51	92.6729	1,624.51	92.484	1,624.51	90.5301	1,624.51	93.9011	1,624.51	90.7638	1,624.51	85.9869	1,624.51	83.0113	1,624.51	93.1105
1,681.64	110.769	1,681.64	107.711	1,681.64	108.897	1,681.64	100.443	1,681.64	105.006	1,681.64	93.7531	1,681.64	88.4293	1,681.64	93.1833	1,681.64	100.771	1,681.64	101.851	1,681.64	105.914	1,681.64	101.127	1,681.64	107.356	1,681.64	100.042	1,681.64	103.224	1,681.64	95.071	1,681.64	99.5468	1,681.64	92.2554	1,681.64	99.213	1,681.64	95.2879	1,681.64	98.0445	1,681.64	93.7222	1,681.64	96.9527	1,681.64	92.7857	1,681.64	90.9548	1,681.64	94.2898	1,681.64	88.2064	1,681.64	98.8942	1,681.64	97.2694	1,681.64	86.782	1,681.64	86.2777	1,681.64	92.19	1,681.64	93.8676	1,681.64	82.4139	1,681.64	95.0176	1,681.64	91.8673
1,741.7	111.403	1,741.7	108.655	1,741.7	110.154	1,741.7	102.6	1,741.7	103.2	1,741.7	83.4694	1,741.7	86.8075	1,741.7	97.7359	1,741.7	100.413	1,741.7	101.033	1,741.7	104.422	1,741.7	101.041	1,741.7	107.02	1,741.7	100.156	1,741.7	104.973	1,741.7	98.3318	1,741.7	100.956	1,741.7	98.3173	1,741.7	99.7989	1,741.7	95.0611	1,741.7	92.3063	1,741.7	89.1225	1,741.7	87.7882	1,741.7	91.5286	1,741.7	95.4241	1,741.7	93.6342	1,741.7	94.9349	1,741.7	95.8743	1,741.7	92.1014	1,741.7	89.7451	1,741.7	85.6613	1,741.7	86.832	1,741.7	89.4871	1,741.7	56.8007	1,741.7	89.5995	1,741.7	93.6968
1,803.22	111.489	1,803.22	109.729	1,803.22	110.046	1,803.22	104.168	1,803.22	102.067	1,803.22	89.0362	1,803.22	97.3758	1,803.22	98.9931	1,803.22	104.372	1,803.22	100.555	1,803.22	106.089	1,803.22	100.244	1,803.22	106.236	1,803.22	98.8936	1,803.22	105.543	1,803.22	95.7709	1,803.22	101.12	1,803.22	94.1996	1,803.22	95.905	1,803.22	95.713	1,803.22	95.8344	1,803.22	94.9996	1,803.22	87.7898	1,803.22	92.4843	1,803.22	91.4968	1,803.22	92.3791	1,803.22	94.9504	1,803.22	95.1625	1,803.22	88.8414	1,803.22	89.4096	1,803.22	83.2237	1,803.22	89.547	1,803.22	89.7862	1,803.22	82.2506	1,803.22	92.3939	1,803.22	94.185
1,866.21	110.657	1,866.21	109.128	1,866.21	108.875	1,866.21	105.009	1,866.21	100.361	1,866.21	97.601	1,866.21	101.055	1,866.21	99.3765	1,866.21	106.178	1,866.21	99.6214	1,866.21	106.454	1,866.21	101.016	1,866.21	106.045	1,866.21	99.6922	1,866.21	103.22	1,866.21	100.645	1,866.21	101.61	1,866.21	99.0326	1,866.21	97.9845	1,866.21	98.0957	1,866.21	94.0205	1,866.21	95.2783	1,866.21	90.2244	1,866.21	93.9144	1,866.21	92.8804	1,866.21	91.7553	1,866.21	95.1107	1,866.21	96.1267	1,866.21	89.3796	1,866.21	92.6747	1,866.21	71.4346	1,866.21	85.0318	1,866.21	89.0436	1,866.21	82.5122	1,866.21	89.4103	1,866.21	93.335
1,932.13	109.897	1,932.13	108.752	1,932.13	107.902	1,932.13	104.867	1,932.13	97.3378	1,932.13	99.3192	1,932.13	103.283	1,932.13	99.7178	1,932.13	106.698	1,932.13	101.735	1,932.13	107.025	1,932.13	101.543	1,932.13	105.422	1,932.13	102.028	1,932.13	102.983	1,932.13	99.2535	1,932.13	96.8238	1,932.13	97.0628	1,932.13	94.6368	1,932.13	95.1838	1,932.13	89.7712	1,932.13	96.2106	1,932.13	87.4238	1,932.13	95.4985	1,932.13	90.2445	1,932.13	93.2655	1,932.13	93.6239	1,932.13	94.8465	1,932.13	85.5716	1,932.13	93.7378	1,932.13	66.7241	1,932.13	88.747	1,932.13	91.7386	1,932.13	86.7737	1,932.13	91.7976	1,932.13	93.2193
1,999.51	110.87	1,999.51	110.014	1,999.51	107.879	1,999.51	106.36	1,999.51	96.8931	1,999.51	100.074	1,999.51	105.399	1,999.51	101.354	1,999.51	108.121	1,999.51	102.926	1,999.51	107.176	1,999.51	102.765	1,999.51	104.855	1,999.51	102.029	1,999.51	101.473	1,999.51	101.697	1,999.51	98.2472	1,999.51	99.9301	1,999.51	92.2038	1,999.51	98.2793	1,999.51	92.774	1,999.51	95.3629	1,999.51	89.3232	1,999.51	95.4933	1,999.51	86.5887	1,999.51	94.5491	1,999.51	89.1583	1,999.51	95.3978	1,999.51	78.8047	1,999.51	94.1768	1,999.51	79.6214	1,999.51	83.0876	1,999.51	89.001	1,999.51	87.6844	1,999.51	89.56	1,999.51	91.7362
2,069.82	111.461	2,069.82	111.847	2,069.82	108.69	2,069.82	107.705	2,069.82	100.093	2,069.82	101.447	2,069.82	105.582	2,069.82	102.056	2,069.82	108.369	2,069.82	103.913	2,069.82	106.852	2,069.82	103.846	2,069.82	105.272	2,069.82	103.263	2,069.82	100.867	2,069.82	100.399	2,069.82	97.9052	2,069.82	97.7421	2,069.82	92.4288	2,069.82	95.0772	2,069.82	82.7412	2,069.82	95.5805	2,069.82	89.9987	2,069.82	94.9429	2,069.82	88.6975	2,069.82	95.5028	2,069.82	91.0416	2,069.82	93.6183	2,069.82	81.9664	2,069.82	96.342	2,069.82	77.7634	2,069.82	86.4507	2,069.82	89.4509	2,069.82	91.5862	2,069.82	91.5607	2,069.82	94.0344
2,143.07	111.392	2,143.07	112.268	2,143.07	107.814	2,143.07	109.355	2,143.07	103.9	2,143.07	104.616	2,143.07	106.25	2,143.07	103.108	2,143.07	108.249	2,143.07	104.519	2,143.07	107.159	2,143.07	105.124	2,143.07	104.281	2,143.07	102.851	2,143.07	101.856	2,143.07	103.33	2,143.07	93.5113	2,143.07	101.087	2,143.07	89.2306	2,143.07	98.6663	2,143.07	86.2377	2,143.07	95.1631	2,143.07	88.696	2,143.07	94.4175	2,143.07	91.5452	2,143.07	97.1336	2,143.07	90.6279	2,143.07	93.5773	2,143.07	83.7459	2,143.07	94.7561	2,143.07	84.315	2,143.07	82.6073	2,143.07	90.3266	2,143.07	91.014	2,143.07	94.1108	2,143.07	92.9669
2,219.24	111.342	2,219.24	111.672	2,219.24	106.199	2,219.24	108.98	2,219.24	105.817	2,219.24	104.558	2,219.24	107.934	2,219.24	105.304	2,219.24	108.498	2,219.24	105.806	2,219.24	106.186	2,219.24	104.756	2,219.24	102.643	2,219.24	103.343	2,219.24	101.177	2,219.24	100.298	2,219.24	96.3538	2,219.24	99.1541	2,219.24	85.6196	2,219.24	97.0818	2,219.24	89.2837	2,219.24	97.5987	2,219.24	89.0037	2,219.24	93.4013	2,219.24	88.4148	2,219.24	96.1341	2,219.24	89.2688	2,219.24	94.954	2,219.24	88.9687	2,219.24	96.0873	2,219.24	87.196	2,219.24	87.3269	2,219.24	89.4449	2,219.24	92.2415	2,219.24	92.3121	2,219.24	91.96
2,296.88	111.566	2,296.88	112.285	2,296.88	106.242	2,296.88	108.605	2,296.88	105.385	2,296.88	103.545	2,296.88	108.085	2,296.88	105.371	2,296.88	107.841	2,296.88	105.957	2,296.88	104.969	2,296.88	104.099	2,296.88	102.146	2,296.88	103.044	2,296.88	98.4283	2,296.88	101.267	2,296.88	98.4384	2,296.88	98.598	2,296.88	92.2198	2,296.88	96.8797	2,296.88	84.1545	2,296.88	95.0182	2,296.88	90.6942	2,296.88	93.4024	2,296.88	88.311	2,296.88	93.6082	2,296.88	89.6306	2,296.88	95.7324	2,296.88	90.8054	2,296.88	91.5643	2,296.88	89.054	2,296.88	87.4376	2,296.88	86.9839	2,296.88	88.9323	2,296.88	92.6168	2,296.88	90.6423
2,378.91	111.503	2,378.91	112.712	2,378.91	105.157	2,378.91	108.776	2,378.91	106.087	2,378.91	104.039	2,378.91	108.039	2,378.91	105.445	2,378.91	106.876	2,378.91	105.059	2,378.91	104.089	2,378.91	105.203	2,378.91	101.199	2,378.91	102.033	2,378.91	98.805	2,378.91	102.213	2,378.91	96.604	2,378.91	100.52	2,378.91	96.0233	2,378.91	96.5097	2,378.91	89.9026	2,378.91	95.8011	2,378.91	70.9443	2,378.91	95.4262	2,378.91	89.7369	2,378.91	93.8913	2,378.91	89.6129	2,378.91	95.7719	2,378.91	87.7089	2,378.91	94.7129	2,378.91	84.5648	2,378.91	90.7906	2,378.91	84.5811	2,378.91	89.603	2,378.91	92.1936	2,378.91	92.0808
2,462.4	112.023	2,462.4	111.933	2,462.4	104.639	2,462.4	107.819	2,462.4	105.52	2,462.4	105.123	2,462.4	107.946	2,462.4	106.284	2,462.4	107.442	2,462.4	106.227	2,462.4	104.073	2,462.4	105.377	2,462.4	99.8032	2,462.4	103.957	2,462.4	99.3243	2,462.4	101.244	2,462.4	92.9699	2,462.4	96.6487	2,462.4	92.3874	2,462.4	95.2389	2,462.4	91.9273	2,462.4	95.3997	2,462.4	88.3314	2,462.4	93.7179	2,462.4	75.5863	2,462.4	92.8124	2,462.4	88.6074	2,462.4	96.3673	2,462.4	88.6974	2,462.4	93.6578	2,462.4	82.4664	2,462.4	89.2361	2,462.4	84.4387	2,462.4	87.4834	2,462.4	91.6653	2,462.4	91.4115
2,548.83	112.645	2,548.83	110.897	2,548.83	108.05	2,548.83	105.312	2,548.83	103.658	2,548.83	107.109	2,548.83	107.467	2,548.83	107.827	2,548.83	107.438	2,548.83	107.738	2,548.83	105.326	2,548.83	105.856	2,548.83	100.058	2,548.83	103.058	2,548.83	99.9596	2,548.83	100.214	2,548.83	95.1758	2,548.83	98.4185	2,548.83	92.4656	2,548.83	94.0765	2,548.83	92.6374	2,548.83	90.6645	2,548.83	90.9888	2,548.83	91.5132	2,548.83	86.7479	2,548.83	89.08	2,548.83	89.3279	2,548.83	93.248	2,548.83	87.6338	2,548.83	93.347	2,548.83	74.8288	2,548.83	92.2312	2,548.83	78.6987	2,548.83	85.8385	2,548.83	90.8972	2,548.83	90.9688
2,639.65	111.049	2,639.65	109.307	2,639.65	109.463	2,639.65	107.675	2,639.65	106.379	2,639.65	108.755	2,639.65	106.749	2,639.65	108.233	2,639.65	106.527	2,639.65	105.383	2,639.65	105.965	2,639.65	103.741	2,639.65	102.772	2,639.65	98.6086	2,639.65	100.994	2,639.65	97.7339	2,639.65	99.2281	2,639.65	96.3684	2,639.65	93.3275	2,639.65	93.5179	2,639.65	92.2974	2,639.65	89.3377	2,639.65	91.2575	2,639.65	89.1	2,639.65	88.8822	2,639.65	90.1557	2,639.65	87.7409	2,639.65	88.0591	2,639.65	85.2823	2,639.65	88.8006	2,639.65	82.3958	2,639.65	88.108	2,639.65	79.7846	2,639.65	80.7226	2,639.65	92.1564	2,639.65	90.5493
2,731.93	110.452	2,731.93	109.447	2,731.93	108.221	2,731.93	109.216	2,731.93	108.466	2,731.93	108.536	2,731.93	107.39	2,731.93	107.125	2,731.93	105.542	2,731.93	104.935	2,731.93	105.483	2,731.93	101.277	2,731.93	103.274	2,731.93	99.2222	2,731.93	102.149	2,731.93	95.9855	2,731.93	100.509	2,731.93	94.5371	2,731.93	97.4443	2,731.93	92.6578	2,731.93	87.8054	2,731.93	93.4314	2,731.93	91.8507	2,731.93	89.2019	2,731.93	83.53	2,731.93	91.5749	2,731.93	85.2977	2,731.93	88.2764	2,731.93	82.4477	2,731.93	89.8452	2,731.93	77.8027	2,731.93	86.5233	2,731.93	83.8045	2,731.93	81.3191	2,731.93	90.5226	2,731.93	89.415
2,828.61	110.895	2,828.61	110.531	2,828.61	108.481	2,828.61	109.872	2,828.61	108.363	2,828.61	108.837	2,828.61	107.985	2,828.61	106.374	2,828.61	104.346	2,828.61	104.638	2,828.61	104.589	2,828.61	101.598	2,828.61	103.154	2,828.61	97.8692	2,828.61	104.112	2,828.61	97.2706	2,828.61	101.737	2,828.61	94.6614	2,828.61	99.2237	2,828.61	94.0341	2,828.61	85.3865	2,828.61	92.3199	2,828.61	84.6085	2,828.61	92.231	2,828.61	81.3004	2,828.61	90.5166	2,828.61	76.4298	2,828.61	92.3933	2,828.61	87.3165	2,828.61	90.5574	2,828.61	78.2207	2,828.61	85.4126	2,828.61	85.3796	2,828.61	84.3181	2,828.61	90.386	2,828.61	88.6322
2,928.22	110.615	2,928.22	110.592	2,928.22	108.836	2,928.22	110.626	2,928.22	108.341	2,928.22	108.589	2,928.22	108.508	2,928.22	106.903	2,928.22	103.014	2,928.22	103.524	2,928.22	103.473	2,928.22	101.194	2,928.22	103.216	2,928.22	98.457	2,928.22	103.929	2,928.22	100.084	2,928.22	101.849	2,928.22	98.551	2,928.22	97.4571	2,928.22	96.7237	2,928.22	92.6541	2,928.22	91.7273	2,928.22	88.1267	2,928.22	94.2166	2,928.22	71.1089	2,928.22	89.8966	2,928.22	78.6586	2,928.22	93.4803	2,928.22	87.9099	2,928.22	90.8324	2,928.22	82.2162	2,928.22	84.9311	2,928.22	81.2337	2,928.22	82.5349	2,928.22	91.6167	2,928.22	88.0204
3,030.76	110.495	3,030.76	110.845	3,030.76	108.741	3,030.76	110.321	3,030.76	108.289	3,030.76	107.986	3,030.76	108.534	3,030.76	106.421	3,030.76	103.505	3,030.76	103.365	3,030.76	102.152	3,030.76	100.832	3,030.76	104.249	3,030.76	101.721	3,030.76	104.41	3,030.76	99.6276	3,030.76	102.131	3,030.76	99.1545	3,030.76	92.5361	3,030.76	95.8748	3,030.76	93.6955	3,030.76	93.0744	3,030.76	89.6142	3,030.76	93.9733	3,030.76	83.291	3,030.76	91.3612	3,030.76	67.5078	3,030.76	92.4846	3,030.76	87.0665	3,030.76	92.505	3,030.76	75.7364	3,030.76	89.5057	3,030.76	84.8341	3,030.76	83.9419	3,030.76	91.6563	3,030.76	88.1181
3,137.7	110.293	3,137.7	111.202	3,137.7	109.234	3,137.7	109.972	3,137.7	107.326	3,137.7	108.084	3,137.7	108.444	3,137.7	106.025	3,137.7	104.144	3,137.7	103.161	3,137.7	103.122	3,137.7	103.672	3,137.7	104.622	3,137.7	101.983	3,137.7	105.536	3,137.7	99.8068	3,137.7	102.338	3,137.7	97.7437	3,137.7	95.3534	3,137.7	94.6604	3,137.7	95.7747	3,137.7	93.3379	3,137.7	87.461	3,137.7	91.301	3,137.7	81.8721	3,137.7	91.1503	3,137.7	77.4441	3,137.7	91.561	3,137.7	87.0758	3,137.7	91.3087	3,137.7	81.314	3,137.7	86.5867	3,137.7	82.856	3,137.7	84.6047	3,137.7	91.1019	3,137.7	88.6012
3,249.02	110.051	3,249.02	110.87	3,249.02	109.541	3,249.02	109.348	3,249.02	107.731	3,249.02	108.125	3,249.02	108.167	3,249.02	105.415	3,249.02	104.448	3,249.02	103.124	3,249.02	102.491	3,249.02	103.322	3,249.02	104.875	3,249.02	100.212	3,249.02	105.296	3,249.02	97.3305	3,249.02	102.601	3,249.02	93.9839	3,249.02	98.3615	3,249.02	91.8117	3,249.02	94.5626	3,249.02	92.0818	3,249.02	84.9186	3,249.02	89.0485	3,249.02	82.7555	3,249.02	90.4732	3,249.02	79.5151	3,249.02	90.6957	3,249.02	78.4044	3,249.02	90.191	3,249.02	66.4667	3,249.02	80.5862	3,249.02	80.8355	3,249.02	82.9617	3,249.02	90.9388	3,249.02	87.5199
3,363.28	110.14	3,363.28	111.293	3,363.28	109.613	3,363.28	109.416	3,363.28	107.648	3,363.28	108.376	3,363.28	108.383	3,363.28	105.32	3,363.28	105.555	3,363.28	104.559	3,363.28	103.408	3,363.28	102.09	3,363.28	104.216	3,363.28	98.6923	3,363.28	105.197	3,363.28	96.7449	3,363.28	101.231	3,363.28	97.0776	3,363.28	99.3651	3,363.28	94.5724	3,363.28	98.5117	3,363.28	91.6337	3,363.28	88.6824	3,363.28	91.9572	3,363.28	83.7042	3,363.28	90.486	3,363.28	76.0628	3,363.28	90.7268	3,363.28	77.5073	3,363.28	90.843	3,363.28	81.0894	3,363.28	85.1752	3,363.28	81.7526	3,363.28	73.4077	3,363.28	88.5219	3,363.28	86.9833
3,481.93	110.541	3,481.93	111.581	3,481.93	110.331	3,481.93	109.641	3,481.93	107.52	3,481.93	108.666	3,481.93	107.854	3,481.93	105.405	3,481.93	105.908	3,481.93	104.764	3,481.93	102.727	3,481.93	100.169	3,481.93	104.904	3,481.93	100.805	3,481.93	103.766	3,481.93	98.8242	3,481.93	101.902	3,481.93	97.7092	3,481.93	96.8289	3,481.93	96.1269	3,481.93	91.9826	3,481.93	92.8804	3,481.93	94.3355	3,481.93	93.3398	3,481.93	91.8353	3,481.93	91.0005	3,481.93	77.8981	3,481.93	92.3874	3,481.93	84.1282	3,481.93	91.6655	3,481.93	80.1709	3,481.93	87.9394	3,481.93	82.5847	3,481.93	81.6567	3,481.93	86.5151	3,481.93	87.5247
3,604.98	110.651	3,604.98	111.521	3,604.98	110.202	3,604.98	110.413	3,604.98	108.774	3,604.98	107.92	3,604.98	107.074	3,604.98	106.99	3,604.98	106.46	3,604.98	103.214	3,604.98	101.805	3,604.98	102.748	3,604.98	105.763	3,604.98	101.963	3,604.98	102.747	3,604.98	99.497	3,604.98	101.345	3,604.98	97.8996	3,604.98	92.7881	3,604.98	95.121	3,604.98	92.5301	3,604.98	91.3855	3,604.98	90.3202	3,604.98	89.9554	3,604.98	91.84	3,604.98	91.1817	3,604.98	73.355	3,604.98	92.5792	3,604.98	79.3773	3,604.98	91.1719	3,604.98	82.0422	3,604.98	89.5539	3,604.98	82.2477	3,604.98	80.5956	3,604.98	87.8648	3,604.98	84.1159
3,732.42	111.732	3,732.42	111.087	3,732.42	110.095	3,732.42	110.015	3,732.42	109.549	3,732.42	107.774	3,732.42	107.137	3,732.42	107.098	3,732.42	106.295	3,732.42	103.463	3,732.42	102.292	3,732.42	102.908	3,732.42	105.283	3,732.42	101.269	3,732.42	100.95	3,732.42	95.5037	3,732.42	102.712	3,732.42	95.6684	3,732.42	95.9801	3,732.42	92.4945	3,732.42	86.7171	3,732.42	92.1122	3,732.42	89.3958	3,732.42	90.2042	3,732.42	92.186	3,732.42	91.9798	3,732.42	80.3886	3,732.42	89.3768	3,732.42	83.2865	3,732.42	90.447	3,732.42	84.0825	3,732.42	86.5097	3,732.42	74.9215	3,732.42	76.8927	3,732.42	88.2256	3,732.42	84.5599
3,864.26	112.056	3,864.26	111.341	3,864.26	110.43	3,864.26	110.917	3,864.26	109.908	3,864.26	109.29	3,864.26	106.684	3,864.26	106.413	3,864.26	107.562	3,864.26	105.326	3,864.26	101.696	3,864.26	101.927	3,864.26	103.399	3,864.26	99.2942	3,864.26	102.319	3,864.26	97.7289	3,864.26	100.811	3,864.26	95.7864	3,864.26	96.4988	3,864.26	93.9992	3,864.26	94.0482	3,864.26	90.4318	3,864.26	83.7127	3,864.26	89.2834	3,864.26	87.1332	3,864.26	90.0169	3,864.26	74.4899	3,864.26	91.9459	3,864.26	84.4913	3,864.26	91.5029	3,864.26	83.2273	3,864.26	88.1893	3,864.26	77.5746	3,864.26	78.1193	3,864.26	88.4261	3,864.26	84.2933
4,000.49	111.838	4,000.49	111.162	4,000.49	110.33	4,000.49	109.971	4,000.49	109.633	4,000.49	109.948	4,000.49	106.996	4,000.49	105.84	4,000.49	107.266	4,000.49	105.38	4,000.49	100.432	4,000.49	100.298	4,000.49	100.031	4,000.49	100.929	4,000.49	101.509	4,000.49	97.4885	4,000.49	100.337	4,000.49	98.9176	4,000.49	95.7013	4,000.49	95.907	4,000.49	94.6413	4,000.49	92.4221	4,000.49	89.4513	4,000.49	91.5768	4,000.49	80.9653	4,000.49	90.9987	4,000.49	70.3971	4,000.49	92.2875	4,000.49	79.8371	4,000.49	92.0634	4,000.49	83.0455	4,000.49	88.0022	4,000.49	79.0979	4,000.49	80.1812	4,000.49	88.0583	4,000.49	80.9089
4,141.11	111.892	4,141.11	111.253	4,141.11	110.011	4,141.11	111.161	4,141.11	109.281	4,141.11	109.975	4,141.11	107.326	4,141.11	106.583	4,141.11	106.711	4,141.11	104.423	4,141.11	102.347	4,141.11	102.143	4,141.11	96.9198	4,141.11	101.53	4,141.11	104.885	4,141.11	99.9228	4,141.11	101.149	4,141.11	96.0959	4,141.11	93.2602	4,141.11	95.6236	4,141.11	95.0002	4,141.11	92.5812	4,141.11	91.5085	4,141.11	89.3724	4,141.11	75.9257	4,141.11	92.1907	4,141.11	69.2894	4,141.11	91.1392	4,141.11	82.8438	4,141.11	91.1692	4,141.11	82.3243	4,141.11	89.3081	4,141.11	79.6103	4,141.11	81.0763	4,141.11	86.5399	4,141.11	83.7699
4,287.6	111.876	4,287.6	111	4,287.6	110.843	4,287.6	111.1	4,287.6	109.838	4,287.6	109.393	4,287.6	107.723	4,287.6	106.768	4,287.6	105.323	4,287.6	103.94	4,287.6	102.583	4,287.6	103.876	4,287.6	96.9214	4,287.6	100.876	4,287.6	104.654	4,287.6	99.0019	4,287.6	101.498	4,287.6	98.1308	4,287.6	97.2787	4,287.6	93.1496	4,287.6	98.4079	4,287.6	91.8574	4,287.6	93.9745	4,287.6	89.0143	4,287.6	75.1962	4,287.6	91.1002	4,287.6	78.8188	4,287.6	91.5546	4,287.6	84.1154	4,287.6	93.1014	4,287.6	83.9771	4,287.6	89.8097	4,287.6	75.8675	4,287.6	82.5815	4,287.6	85.1501	4,287.6	80.6995
4,438.48	112.219	4,438.48	111.323	4,438.48	110.621	4,438.48	111.933	4,438.48	110.281	4,438.48	109.39	4,438.48	108.344	4,438.48	106.836	4,438.48	105.849	4,438.48	104.687	4,438.48	102.997	4,438.48	103.45	4,438.48	98.9919	4,438.48	101.013	4,438.48	106.619	4,438.48	98.0698	4,438.48	102.79	4,438.48	97.5899	4,438.48	98.7489	4,438.48	95.709	4,438.48	96.2418	4,438.48	90.7377	4,438.48	88.5383	4,438.48	89.8848	4,438.48	57.7082	4,438.48	90.7958	4,438.48	77.3944	4,438.48	89.8109	4,438.48	82.8022	4,438.48	92.1048	4,438.48	85.5822	4,438.48	92.2293	4,438.48	74.2316	4,438.48	83.2729	4,438.48	83.7774	4,438.48	79.5995
4,595.21	112.096	4,595.21	111.875	4,595.21	111.878	4,595.21	111.606	4,595.21	110.21	4,595.21	110.089	4,595.21	107.856	4,595.21	106.38	4,595.21	106.418	4,595.21	105.718	4,595.21	103.395	4,595.21	102.059	4,595.21	100.021	4,595.21	101.178	4,595.21	106.307	4,595.21	96.8975	4,595.21	100.766	4,595.21	94.6873	4,595.21	94.6674	4,595.21	93.7624	4,595.21	89.4596	4,595.21	90.1818	4,595.21	92.0392	4,595.21	89.1716	4,595.21	81.3932	4,595.21	90.8155	4,595.21	72.1865	4,595.21	90.1554	4,595.21	81.3632	4,595.21	93.1948	4,595.21	86.0438	4,595.21	89.3481	4,595.21	72.1965	4,595.21	84.985	4,595.21	87.9988	4,595.21	78.664
4,756.35	112.154	4,756.35	112.366	4,756.35	111.618	4,756.35	111.683	4,756.35	110.193	4,756.35	110.25	4,756.35	107.93	4,756.35	106.281	4,756.35	106.705	4,756.35	105.695	4,756.35	104.723	4,756.35	103.277	4,756.35	97.6349	4,756.35	100.054	4,756.35	105.093	4,756.35	99.0479	4,756.35	99.0604	4,756.35	96.0748	4,756.35	93.3133	4,756.35	94.1147	4,756.35	91.3701	4,756.35	91.2595	4,756.35	93.1156	4,756.35	87.3929	4,756.35	71.14	4,756.35	91.4834	4,756.35	81.4627	4,756.35	89.8913	4,756.35	79.97	4,756.35	91.4648	4,756.35	83.6319	4,756.35	90.0023	4,756.35	76.9441	4,756.35	83.3374	4,756.35	86.001	4,756.35	79.0679
4,924.8	111.99	4,924.8	112.483	4,924.8	112.339	4,924.8	111.901	4,924.8	110.595	4,924.8	110.177	4,924.8	108.322	4,924.8	107.114	4,924.8	108.253	4,924.8	105.218	4,924.8	105.359	4,924.8	103.096	4,924.8	95.8316	4,924.8	101.773	4,924.8	101.59	4,924.8	99.3122	4,924.8	98.1429	4,924.8	97.1199	4,924.8	94.6402	4,924.8	94.8131	4,924.8	96.3328	4,924.8	88.0429	4,924.8	96.7588	4,924.8	89.6852	4,924.8	67.2467	4,924.8	88.7537	4,924.8	86.7072	4,924.8	90.8702	4,924.8	72.4872	4,924.8	92.5705	4,924.8	83.7344	4,924.8	92.0224	4,924.8	73.2103	4,924.8	86.8353	4,924.8	84.3411	4,924.8	83.0614
5,097.66	113.015	5,097.66	113.246	5,097.66	112.321	5,097.66	112.189	5,097.66	111.166	5,097.66	110.127	5,097.66	109.489	5,097.66	107.521	5,097.66	107.472	5,097.66	105.367	5,097.66	105.938	5,097.66	103.359	5,097.66	97.5487	5,097.66	101.699	5,097.66	98.0624	5,097.66	92.5689	5,097.66	101.476	5,097.66	94.0378	5,097.66	98.2757	5,097.66	92.3907	5,097.66	88.7369	5,097.66	87.2216	5,097.66	97.05	5,097.66	87.3008	5,097.66	80.8676	5,097.66	88.487	5,097.66	83.2261	5,097.66	89.8777	5,097.66	75.2083	5,097.66	91.2076	5,097.66	81.9708	5,097.66	93.045	5,097.66	77.7333	5,097.66	86.9587	5,097.66	82.9362	5,097.66	74.1624
5,277.83	112.938	5,277.83	113.196	5,277.83	112.637	5,277.83	112.653	5,277.83	112.272	5,277.83	110.487	5,277.83	109.611	5,277.83	107.785	5,277.83	107.88	5,277.83	105.412	5,277.83	105.51	5,277.83	103.614	5,277.83	98.2771	5,277.83	98.389	5,277.83	98.7754	5,277.83	99.5257	5,277.83	103.396	5,277.83	96.5471	5,277.83	98.2217	5,277.83	95.4373	5,277.83	94.2831	5,277.83	88.1401	5,277.83	96.1327	5,277.83	88.5154	5,277.83	78.1771	5,277.83	91.6401	5,277.83	78.6577	5,277.83	90.1442	5,277.83	72.4306	5,277.83	91.3036	5,277.83	82.7032	5,277.83	92.0657	5,277.83	59.0398	5,277.83	87.8318	5,277.83	86.1587	5,277.83	79.3617
5,463.87	113.529	5,463.87	113.319	5,463.87	112.772	5,463.87	112.636	5,463.87	112.329	5,463.87	110.871	5,463.87	110.506	5,463.87	106.576	5,463.87	108.005	5,463.87	107.187	5,463.87	103.642	5,463.87	101.143	5,463.87	99.2583	5,463.87	102.5	5,463.87	98.0871	5,463.87	97.6971	5,463.87	100.925	5,463.87	92.8323	5,463.87	97.0101	5,463.87	93.8801	5,463.87	86.4196	5,463.87	83.5351	5,463.87	92.4975	5,463.87	87.5394	5,463.87	78.3235	5,463.87	87.2094	5,463.87	73.642	5,463.87	90.542	5,463.87	71.2544	5,463.87	90.5946	5,463.87	81.7818	5,463.87	90.4876	5,463.87	74.7714	5,463.87	84.0971	5,463.87	80.876	5,463.87	77.9199
5,657.23	113.322	5,657.23	113.474	5,657.23	112.437	5,657.23	112.665	5,657.23	112.12	5,657.23	111.157	5,657.23	109.48	5,657.23	107.708	5,657.23	107.182	5,657.23	105.888	5,657.23	103.701	5,657.23	103.819	5,657.23	99.7773	5,657.23	97.9245	5,657.23	99.0969	5,657.23	96.8675	5,657.23	97.5689	5,657.23	95.936	5,657.23	95.5824	5,657.23	93.0287	5,657.23	88.2181	5,657.23	89.4858	5,657.23	84.9888	5,657.23	87.5785	5,657.23	65.6575	5,657.23	88.9791	5,657.23	75.4226	5,657.23	90.508	5,657.23	78.3865	5,657.23	92.2466	5,657.23	75.6629	5,657.23	93.6659	5,657.23	66.5811	5,657.23	86.3766	5,657.23	84.1783	5,657.23	67.8794
5,856.45	113.179	5,856.45	113.12	5,856.45	112.147	5,856.45	112.284	5,856.45	111.617	5,856.45	110.821	5,856.45	109.429	5,856.45	108.491	5,856.45	105.821	5,856.45	104.973	5,856.45	104.886	5,856.45	103.104	5,856.45	99.7359	5,856.45	100.044	5,856.45	96.608	5,856.45	98.2384	5,856.45	100.447	5,856.45	95.4293	5,856.45	96.2392	5,856.45	95.5266	5,856.45	89.0624	5,856.45	85.8884	5,856.45	85.0064	5,856.45	86.8543	5,856.45	74.4344	5,856.45	87.4189	5,856.45	73.8077	5,856.45	89.6045	5,856.45	84.0993	5,856.45	91.6042	5,856.45	78.3413	5,856.45	92.3701	5,856.45	73.2918	5,856.45	89.5533	5,856.45	84.7909	5,856.45	79.9517
6,062.99	113.174	6,062.99	112.632	6,062.99	111.854	6,062.99	112.184	6,062.99	111.613	6,062.99	111.052	6,062.99	109.43	6,062.99	107.591	6,062.99	105.481	6,062.99	105.85	6,062.99	105.429	6,062.99	101.63	6,062.99	99.2271	6,062.99	101.039	6,062.99	93.2773	6,062.99	96.9005	6,062.99	99.1269	6,062.99	94.9878	6,062.99	92.5937	6,062.99	90.9676	6,062.99	90.067	6,062.99	87.8419	6,062.99	91.4436	6,062.99	86.9859	6,062.99	75.2769	6,062.99	84.4361	6,062.99	68.8588	6,062.99	91.4201	6,062.99	84.0428	6,062.99	91.096	6,062.99	80.6307	6,062.99	90.8983	6,062.99	68.1095	6,062.99	89.8118	6,062.99	82.6153	6,062.99	75.5077
6,276.86	113.162	6,276.86	112.655	6,276.86	112.014	6,276.86	112.352	6,276.86	110.903	6,276.86	111.223	6,276.86	109.106	6,276.86	107.603	6,276.86	105.856	6,276.86	105.22	6,276.86	105.119	6,276.86	102.732	6,276.86	100.824	6,276.86	99.1094	6,276.86	92.4922	6,276.86	98.0092	6,276.86	97.3357	6,276.86	95.8983	6,276.86	91.4942	6,276.86	94.1523	6,276.86	89.2011	6,276.86	85.6161	6,276.86	88.2933	6,276.86	86.951	6,276.86	76.4683	6,276.86	85.9985	6,276.86	73.0117	6,276.86	91.2699	6,276.86	58.7463	6,276.86	91.4409	6,276.86	77.6073	6,276.86	92.4474	6,276.86	73.162	6,276.86	89.103	6,276.86	83.0986	6,276.86	71.2652
6,498.05	113.144	6,498.05	112.888	6,498.05	112.173	6,498.05	111.859	6,498.05	110.652	6,498.05	110.935	6,498.05	109.326	6,498.05	107.119	6,498.05	106.222	6,498.05	104.266	6,498.05	105.461	6,498.05	103.123	6,498.05	102.018	6,498.05	99.7714	6,498.05	92.279	6,498.05	97.1755	6,498.05	94.7703	6,498.05	93.3072	6,498.05	89.1091	6,498.05	93.5617	6,498.05	84.7628	6,498.05	85.66	6,498.05	86.6601	6,498.05	84.9562	6,498.05	75.5127	6,498.05	87.2826	6,498.05	78.2405	6,498.05	90.3369	6,498.05	78.2848	6,498.05	88.5673	6,498.05	74.6632	6,498.05	91.0723	6,498.05	77.5	6,498.05	86.9865	6,498.05	81.5849	6,498.05	72.6067
6,726.56	112.889	6,726.56	112.224	6,726.56	112.384	6,726.56	111.47	6,726.56	110.626	6,726.56	110.836	6,726.56	108.423	6,726.56	106.218	6,726.56	106.795	6,726.56	104.911	6,726.56	105.908	6,726.56	102.055	6,726.56	102.466	6,726.56	98.9551	6,726.56	88.8856	6,726.56	96.1003	6,726.56	96.0754	6,726.56	94.0428	6,726.56	93.061	6,726.56	91.5985	6,726.56	76.9178	6,726.56	86.4034	6,726.56	86.8704	6,726.56	84.2441	6,726.56	74.2599	6,726.56	85.4213	6,726.56	74.3063	6,726.56	90.523	6,726.56	79.2914	6,726.56	90.2422	6,726.56	76.2303	6,726.56	90.9466	6,726.56	72.9741	6,726.56	89.9957	6,726.56	80.9351	6,726.56	67.7608
6,963.87	112.816	6,963.87	111.918	6,963.87	112.669	6,963.87	111.57	6,963.87	110.462	6,963.87	110.668	6,963.87	108.498	6,963.87	106.527	6,963.87	106.313	6,963.87	104.469	6,963.87	106.569	6,963.87	102.479	6,963.87	100.082	6,963.87	99.7605	6,963.87	95.6013	6,963.87	97.8601	6,963.87	98.0189	6,963.87	94.5238	6,963.87	92.0471	6,963.87	91.343	6,963.87	86.5814	6,963.87	85.8197	6,963.87	83.2883	6,963.87	83.9825	6,963.87	70.019	6,963.87	82.602	6,963.87	69.7433	6,963.87	89.4675	6,963.87	79.9125	6,963.87	89.3864	6,963.87	78.4546	6,963.87	90.1069	6,963.87	76.4296	6,963.87	88.7887	6,963.87	82.1063	6,963.87	75.5375
7,209.96	112.811	7,209.96	112.081	7,209.96	112.421	7,209.96	111.806	7,209.96	109.998	7,209.96	110.372	7,209.96	108.558	7,209.96	106.222	7,209.96	106.907	7,209.96	104.079	7,209.96	105.936	7,209.96	102.488	7,209.96	97.8392	7,209.96	98.3768	7,209.96	98.8129	7,209.96	95.485	7,209.96	96.3604	7,209.96	93.3476	7,209.96	88.4127	7,209.96	91.2932	7,209.96	89.5388	7,209.96	86.8496	7,209.96	83.7724	7,209.96	81.1825	7,209.96	71.9965	7,209.96	84.6551	7,209.96	74.2968	7,209.96	89.4262	7,209.96	77.3709	7,209.96	87.6301	7,209.96	68.6686	7,209.96	90.9173	7,209.96	76.3427	7,209.96	88.0563	7,209.96	81.7075	7,209.96	59.2066
7,464.84	112.677	7,464.84	111.544	7,464.84	111.714	7,464.84	111.459	7,464.84	109.776	7,464.84	109.913	7,464.84	108.184	7,464.84	105.799	7,464.84	106.617	7,464.84	103.981	7,464.84	102.903	7,464.84	101.925	7,464.84	99.9113	7,464.84	98.1529	7,464.84	97.0724	7,464.84	97.2659	7,464.84	89.6679	7,464.84	93.073	7,464.84	84.5501	7,464.84	91.0949	7,464.84	87.6965	7,464.84	83.9485	7,464.84	86.4502	7,464.84	82.308	7,464.84	70.5476	7,464.84	81.579	7,464.84	71.466	7,464.84	88.4541	7,464.84	80.6416	7,464.84	88.3539	7,464.84	74.0728	7,464.84	90.1949	7,464.84	73.0918	7,464.84	87.0375	7,464.84	77.2781	7,464.84	76.2068
7,727.05	112.316	7,727.05	111.251	7,727.05	111.745	7,727.05	111.304	7,727.05	109.559	7,727.05	109.442	7,727.05	107.708	7,727.05	105.459	7,727.05	106.55	7,727.05	103.42	7,727.05	100.432	7,727.05	101.707	7,727.05	100.282	7,727.05	97.4386	7,727.05	94.7873	7,727.05	94.105	7,727.05	92.2423	7,727.05	92.2982	7,727.05	88.7861	7,727.05	89.1637	7,727.05	86.7866	7,727.05	83.5535	7,727.05	86.951	7,727.05	79.8544	7,727.05	75.2982	7,727.05	83.1948	7,727.05	71.9594	7,727.05	88.0402	7,727.05	78.3077	7,727.05	84.4003	7,727.05	74.5927	7,727.05	86.5156	7,727.05	76.9587	7,727.05	85.9667	7,727.05	78.6966	7,727.05	77.5124
7,999.51	112.181	7,999.51	111.498	7,999.51	111.953	7,999.51	111.246	7,999.51	109.314	7,999.51	109.259	7,999.51	107.49	7,999.51	104.781	7,999.51	105.658	7,999.51	103.426	7,999.51	102.5	7,999.51	100.958	7,999.51	100.13	7,999.51	97.2675	7,999.51	96.5317	7,999.51	94.8632	7,999.51	94.1351	7,999.51	91.2709	7,999.51	92.289	7,999.51	88.9226	7,999.51	85.984	7,999.51	83.8847	7,999.51	82.6256	7,999.51	72.1845	7,999.51	73.2327	7,999.51	81.8163	7,999.51	69.5363	7,999.51	87.2201	7,999.51	78.6813	7,999.51	85.8649	7,999.51	63.4897	7,999.51	87.081	7,999.51	77.5431	7,999.51	86.3119	7,999.51	80.0734	7,999.51	74.3318
8,282.23	111.851	8,282.23	111.677	8,282.23	111.762	8,282.23	110.886	8,282.23	109.364	8,282.23	109.111	8,282.23	107.677	8,282.23	104.818	8,282.23	105.052	8,282.23	102.739	8,282.23	103.107	8,282.23	101.365	8,282.23	99.6095	8,282.23	96.4625	8,282.23	99.2703	8,282.23	93.3107	8,282.23	93.6064	8,282.23	89.9739	8,282.23	90.9278	8,282.23	88.4055	8,282.23	85.037	8,282.23	80.2061	8,282.23	84.3823	8,282.23	71.9853	8,282.23	72.9081	8,282.23	80.5269	8,282.23	69.2818	8,282.23	86.2278	8,282.23	79.973	8,282.23	84.3833	8,282.23	64.09	8,282.23	86.5828	8,282.23	78.2832	8,282.23	85.2324	8,282.23	79.602	8,282.23	72.2921
8,573.73	111.747	8,573.73	111.546	8,573.73	111.258	8,573.73	110.592	8,573.73	109.551	8,573.73	108.858	8,573.73	107.131	8,573.73	104.622	8,573.73	104.456	8,573.73	102.67	8,573.73	102.94	8,573.73	101.007	8,573.73	97.62	8,573.73	95.8324	8,573.73	98.0781	8,573.73	92.9455	8,573.73	79.6364	8,573.73	89.7587	8,573.73	84.0341	8,573.73	87.8517	8,573.73	80.9421	8,573.73	80.8428	8,573.73	84.0582	8,573.73	67.9082	8,573.73	77.3498	8,573.73	80.4729	8,573.73	68.0654	8,573.73	84.9719	8,573.73	77.6257	8,573.73	85.9131	8,573.73	69.0916	8,573.73	86.0245	8,573.73	74.4716	8,573.73	85.1257	8,573.73	79.1729	8,573.73	76.9428
8,876.95	111.81	8,876.95	111.615	8,876.95	110.954	8,876.95	110.329	8,876.95	109.209	8,876.95	108.705	8,876.95	106.924	8,876.95	104.862	8,876.95	102.9	8,876.95	102.429	8,876.95	100.022	8,876.95	101.08	8,876.95	99.5932	8,876.95	94.9766	8,876.95	95.7248	8,876.95	92.9641	8,876.95	91.3661	8,876.95	88.5306	8,876.95	85.1947	8,876.95	88.6057	8,876.95	81.0973	8,876.95	79.0387	8,876.95	83.8847	8,876.95	71.722	8,876.95	75.146	8,876.95	78.4242	8,876.95	70.5229	8,876.95	85.3682	8,876.95	79.9727	8,876.95	85.1889	8,876.95	57.3188	8,876.95	86.9001	8,876.95	78.8703	8,876.95	85.3764	8,876.95	79.4638	8,876.95	72.7984
9,188.96	111.257	9,188.96	111.118	9,188.96	110.786	9,188.96	110.017	9,188.96	109.284	9,188.96	108.345	9,188.96	106.568	9,188.96	104.513	9,188.96	103.05	9,188.96	102.825	9,188.96	100.984	9,188.96	99.4545	9,188.96	100.312	9,188.96	94.4779	9,188.96	92.9739	9,188.96	92.587	9,188.96	92.1556	9,188.96	90.6677	9,188.96	90.1859	9,188.96	88.6452	9,188.96	79.7642	9,188.96	80.4763	9,188.96	84.2822	9,188.96	68.4693	9,188.96	73.4723	9,188.96	78.3869	9,188.96	77.05	9,188.96	84.5803	9,188.96	79.2549	9,188.96	86.1173	9,188.96	71.7192	9,188.96	85.1721	9,188.96	76.2119	9,188.96	82.5616	9,188.96	78.3736	9,188.96	74.1484
9,514.16	110.817	9,514.16	110.697	9,514.16	110.373	9,514.16	109.54	9,514.16	109.443	9,514.16	107.922	9,514.16	106.486	9,514.16	104.172	9,514.16	103.147	9,514.16	101.638	9,514.16	102.445	9,514.16	98.8528	9,514.16	99.4796	9,514.16	95.2112	9,514.16	93.6641	9,514.16	92.1557	9,514.16	88.8824	9,514.16	87.6832	9,514.16	89.9042	9,514.16	86.9286	9,514.16	73.736	9,514.16	78.3025	9,514.16	84.4534	9,514.16	66.4738	9,514.16	64.9729	9,514.16	77.8359	9,514.16	75.359	9,514.16	84.9361	9,514.16	74.9882	9,514.16	83.8402	9,514.16	71.4719	9,514.16	85.9669	9,514.16	78.2227	9,514.16	84.1714	9,514.16	78.845	9,514.16	71.01
9,849.61	110.788	9,849.61	110.658	9,849.61	109.72	9,849.61	109.58	9,849.61	109.126	9,849.61	107.29	9,849.61	106.357	9,849.61	104.317	9,849.61	103.933	9,849.61	100.735	9,849.61	101.882	9,849.61	99.3515	9,849.61	97.2658	9,849.61	94.3001	9,849.61	93.8797	9,849.61	91.6884	9,849.61	90.0897	9,849.61	86.8255	9,849.61	86.9	9,849.61	86.402	9,849.61	78.0385	9,849.61	75.7306	9,849.61	74.8032	9,849.61	68.1759	9,849.61	64.4201	9,849.61	77.9875	9,849.61	72.5351	9,849.61	82.9029	9,849.61	68.7273	9,849.61	83.6529	9,849.61	69.0125	9,849.61	83.2882	9,849.61	76.6838	9,849.61	83.4294	9,849.61	77.8067	9,849.61	68.1604
10,196.8	110.804	10,196.8	110.348	10,196.8	109.369	10,196.8	109.21	10,196.8	108.557	10,196.8	107.014	10,196.8	106.052	10,196.8	103.877	10,196.8	103.193	10,196.8	99.688	10,196.8	98.9693	10,196.8	98.8099	10,196.8	97.856	10,196.8	93.6629	10,196.8	92.4167	10,196.8	88.9415	10,196.8	91.5279	10,196.8	86.0683	10,196.8	83.2168	10,196.8	85.2544	10,196.8	76.7554	10,196.8	78.628	10,196.8	66.2385	10,196.8	65.8365	10,196.8	67.0679	10,196.8	74.7091	10,196.8	71.6338	10,196.8	82.2391	10,196.8	66.4731	10,196.8	83.1492	10,196.8	62.2882	10,196.8	85.1796	10,196.8	72.5094	10,196.8	81.6252	10,196.8	78.3711	10,196.8	73.7576
10,555.7	110.138	10,555.7	109.988	10,555.7	109.12	10,555.7	108.687	10,555.7	107.873	10,555.7	106.365	10,555.7	104.877	10,555.7	102.723	10,555.7	102.139	10,555.7	99.994	10,555.7	99.0595	10,555.7	97.8888	10,555.7	97.9288	10,555.7	91.6837	10,555.7	91.6629	10,555.7	88.5765	10,555.7	86.8206	10,555.7	85.8818	10,555.7	79.1941	10,555.7	83.6403	10,555.7	71.8817	10,555.7	77.0606	10,555.7	69.8328	10,555.7	65.722	10,555.7	62.7605	10,555.7	72.1828	10,555.7	73.1917	10,555.7	82.5596	10,555.7	67.4813	10,555.7	83.4903	10,555.7	68.035	10,555.7	81.8138	10,555.7	75.744	10,555.7	82.3811	10,555.7	77.5483	10,555.7	69.3868
10,927.7	109.769	10,927.7	109.739	10,927.7	108.727	10,927.7	108.339	10,927.7	107.387	10,927.7	106.485	10,927.7	104.644	10,927.7	101.836	10,927.7	102.022	10,927.7	99.6416	10,927.7	97.3038	10,927.7	96.8361	10,927.7	97.1429	10,927.7	92.1394	10,927.7	87.4514	10,927.7	87.8266	10,927.7	88.8976	10,927.7	85.5392	10,927.7	80.0011	10,927.7	83.5185	10,927.7	70.9387	10,927.7	77.6565	10,927.7	78.7441	10,927.7	68.1187	10,927.7	62.1206	10,927.7	70.431	10,927.7	71.7554	10,927.7	81.1826	10,927.7	64.3054	10,927.7	82.0669	10,927.7	71.0462	10,927.7	83.1212	10,927.7	77.1739	10,927.7	81.4095	10,927.7	79.0097	10,927.7	63.4503
11,313	111.388	11,313	111.286	11,313	110.347	11,313	109.628	11,313	109.095	11,313	108.114	11,313	106.689	11,313	103.714	11,313	103.118	11,313	100.705	11,313	99.2035	11,313	98.0655	11,313	97.4504	11,313	93.5478	11,313	91.4978	11,313	90.6583	11,313	89.8575	11,313	87.2796	11,313	78.7042	11,313	84.6065	11,313	74.6524	11,313	79.2611	11,313	76.2663	11,313	67.5263	11,313	71.6971	11,313	64.4367	11,313	69.6606	11,313	83.0542	11,313	64.2206	11,313	85.0887	11,313	69.1806	11,313	82.7706	11,313	76.9331	11,313	84.635	11,313	78.7364	11,313	71.2458
11,712.9	112.415	11,712.9	112.527	11,712.9	111.698	11,712.9	110.664	11,712.9	109.986	11,712.9	109.029	11,712.9	108.494	11,712.9	105.357	11,712.9	104.217	11,712.9	102.059	11,712.9	101.215	11,712.9	98.9017	11,712.9	95.5447	11,712.9	94.8977	11,712.9	92.6417	11,712.9	90.7463	11,712.9	89.7573	11,712.9	88.3001	11,712.9	75.6419	11,712.9	83.8141	11,712.9	74.2392	11,712.9	79.8949	11,712.9	76.3936	11,712.9	61.322	11,712.9	75.6433	11,712.9	71.1679	11,712.9	64.6273	11,712.9	84.5931	11,712.9	72.2128	11,712.9	86.4707	11,712.9	65.0873	11,712.9	84.0337	11,712.9	73.3498	11,712.9	84.3221	11,712.9	74.7263	11,712.9	69.8988
12,126	112.397	12,126	112.229	12,126	111.597	12,126	109.997	12,126	109.571	12,126	108.447	12,126	108.469	12,126	104.969	12,126	103.999	12,126	101.452	12,126	100.104	12,126	98.2016	12,126	96.4827	12,126	94.088	12,126	92.7482	12,126	90.4273	12,126	89.5426	12,126	88.1527	12,126	80.2502	12,126	82.993	12,126	78.2811	12,126	78.314	12,126	83.965	12,126	57.8884	12,126	73.5797	12,126	73.0651	12,126	71.084	12,126	83.8332	12,126	67.1542	12,126	84.6959	12,126	63.7506	12,126	82.0919	12,126	64.7468	12,126	83.4829	12,126	73.0315	12,126	73.2929
12,553.7	111.48	12,553.7	111.06	12,553.7	110.778	12,553.7	108.696	12,553.7	108.882	12,553.7	106.618	12,553.7	107.377	12,553.7	102.582	12,553.7	103.911	12,553.7	99.1107	12,553.7	100.59	12,553.7	96.196	12,553.7	92.9756	12,553.7	92.1747	12,553.7	92.8823	12,553.7	87.0336	12,553.7	90.5219	12,553.7	85.6299	12,553.7	75.963	12,553.7	81.3168	12,553.7	68.7165	12,553.7	72.7042	12,553.7	81.5017	12,553.7	62.1942	12,553.7	74.5124	12,553.7	73.4713	12,553.7	70.9098	12,553.7	80.8857	12,553.7	67.3878	12,553.7	82.3015	12,553.7	52.1067	12,553.7	79.3746	12,553.7	70.1241	12,553.7	81.7674	12,553.7	71.7552	12,553.7	75.0428
12,996.1	112.274	12,996.1	111.669	12,996.1	111.173	12,996.1	109.828	12,996.1	109.481	12,996.1	107.431	12,996.1	107.303	12,996.1	103.713	12,996.1	104.492	12,996.1	99.7909	12,996.1	100.921	12,996.1	98.1371	12,996.1	93.791	12,996.1	93.3072	12,996.1	94.4487	12,996.1	86.1538	12,996.1	87.6805	12,996.1	85.6721	12,996.1	79.8537	12,996.1	80.1669	12,996.1	77.0396	12,996.1	74.7525	12,996.1	83.5164	12,996.1	67.5056	12,996.1	74.5788	12,996.1	76.5765	12,996.1	70.314	12,996.1	80.4212	12,996.1	71.6907	12,996.1	82.221	12,996.1	65.6978	12,996.1	79.8414	12,996.1	70.6866	12,996.1	80.0808	12,996.1	74.706	12,996.1	76.3895
13,454.6	113.321	13,454.6	112.757	13,454.6	111.959	13,454.6	111.36	13,454.6	110.201	13,454.6	108.882	13,454.6	107.819	13,454.6	105.433	13,454.6	105.03	13,454.6	101.776	13,454.6	100.412	13,454.6	99.8005	13,454.6	96.7609	13,454.6	93.9811	13,454.6	92.0225	13,454.6	88.2946	13,454.6	91.5954	13,454.6	87.0708	13,454.6	76.3949	13,454.6	82.519	13,454.6	78.9074	13,454.6	75.231	13,454.6	85.9779	13,454.6	68.2205	13,454.6	75.9533	13,454.6	76.9508	13,454.6	66.9817	13,454.6	81.0353	13,454.6	70.8598	13,454.6	83.4159	13,454.6	69.868	13,454.6	79.7562	13,454.6	74.8358	13,454.6	79.7217	13,454.6	77.9798	13,454.6	77.837
13,929.2	113.979	13,929.2	113.709	13,929.2	112.438	13,929.2	112.51	13,929.2	110.382	13,929.2	109.998	13,929.2	107.748	13,929.2	106.406	13,929.2	104.352	13,929.2	103.464	13,929.2	99.5374	13,929.2	99.9129	13,929.2	98.0518	13,929.2	94.9183	13,929.2	92.4841	13,929.2	89.9572	13,929.2	88.4671	13,929.2	87.9405	13,929.2	83.1323	13,929.2	83.5139	13,929.2	83.7755	13,929.2	71.3453	13,929.2	88.7424	13,929.2	69.8044	13,929.2	77.7298	13,929.2	75.3538	13,929.2	72.2572	13,929.2	81.4849	13,929.2	69.9914	13,929.2	83.8538	13,929.2	67.3736	13,929.2	79.7486	13,929.2	75.2915	13,929.2	80.4578	13,929.2	77.9497	13,929.2	80.6197
14,419.9	113.875	14,419.9	113.594	14,419.9	112.556	14,419.9	112.565	14,419.9	110.837	14,419.9	109.889	14,419.9	107.878	14,419.9	105.718	14,419.9	104.593	14,419.9	103.629	14,419.9	100.379	14,419.9	98.859	14,419.9	99.0816	14,419.9	94.6259	14,419.9	91.0996	14,419.9	88.5279	14,419.9	91.1367	14,419.9	86.545	14,419.9	74.7972	14,419.9	83.0402	14,419.9	84.0023	14,419.9	66.2325	14,419.9	90.3122	14,419.9	66.782	14,419.9	79.0118	14,419.9	73.2046	14,419.9	70.9418	14,419.9	78.8548	14,419.9	71.2226	14,419.9	83.3361	14,419.9	60.2706	14,419.9	77.4749	14,419.9	71.917	14,419.9	78.5738	14,419.9	76.0944	14,419.9	80.6358
14,928.2	112.901	14,928.2	112.159	14,928.2	111.884	14,928.2	110.926	14,928.2	110.318	14,928.2	108.26	14,928.2	107.702	14,928.2	103.745	14,928.2	105.005	14,928.2	101.412	14,928.2	99.1623	14,928.2	97.256	14,928.2	97.7013	14,928.2	91.5349	14,928.2	91.494	14,928.2	87.0114	14,928.2	89.4371	14,928.2	83.2751	14,928.2	73.1543	14,928.2	82.0694	14,928.2	82.6613	14,928.2	69.0848	14,928.2	87.3514	14,928.2	63.6033	14,928.2	77.5452	14,928.2	70.6075	14,928.2	65.8364	14,928.2	77.965	14,928.2	68.2389	14,928.2	81.7939	14,928.2	64.764	14,928.2	70.793	14,928.2	71.5929	14,928.2	76.2597	14,928.2	73.4615	14,928.2	79.9591
15,455.6	111.027	15,455.6	109.861	15,455.6	109.897	15,455.6	108.417	15,455.6	108.285	15,455.6	105.705	15,455.6	106.191	15,455.6	102.019	15,455.6	103.487	15,455.6	98.7406	15,455.6	98.2629	15,455.6	94.3299	15,455.6	95.492	15,455.6	90.0923	15,455.6	88.4986	15,455.6	86.9015	15,455.6	86.938	15,455.6	81.9651	15,455.6	74.183	15,455.6	80.2959	15,455.6	83.1787	15,455.6	63.9254	15,455.6	87.4771	15,455.6	66.9232	15,455.6	74.8391	15,455.6	71.7299	15,455.6	72.7746	15,455.6	74.987	15,455.6	68.4007	15,455.6	78.1952	15,455.6	67.1075	15,455.6	58.0438	15,455.6	70.756	15,455.6	70.7498	15,455.6	71.5222	15,455.6	74.9211
16,000.5	108.696	16,000.5	108.189	16,000.5	107.528	16,000.5	107.185	16,000.5	105.431	16,000.5	104.138	16,000.5	102.949	16,000.5	101.02	16,000.5	99.5027	16,000.5	97.9722	16,000.5	94.9755	16,000.5	92.9315	16,000.5	91.033	16,000.5	89.7896	16,000.5	84.6111	16,000.5	84.2006	16,000.5	81.7993	16,000.5	79.0027	16,000.5	73.0746	16,000.5	79.3329	16,000.5	81.6967	16,000.5	63.658	16,000.5	85.8218	16,000.5	57.5916	16,000.5	74.0758	16,000.5	69.1743	16,000.5	70.3898	16,000.5	72.9837	16,000.5	70.6496	16,000.5	75.3257	16,000.5	60.5617	16,000.5	63.0764	16,000.5	72.3519	16,000.5	67.8911	16,000.5	63.6172	16,000.5	74.4844
16,564.5	109.682	16,564.5	109.395	16,564.5	108.481	16,564.5	108.742	16,564.5	106.507	16,564.5	105.091	16,564.5	103.694	16,564.5	102.249	16,564.5	100.309	16,564.5	98.9212	16,564.5	97.1317	16,564.5	94.9505	16,564.5	91.1971	16,564.5	89.5951	16,564.5	86.9774	16,564.5	84.1515	16,564.5	79.4975	16,564.5	78.3414	16,564.5	75.4177	16,564.5	80.2538	16,564.5	83.0265	16,564.5	70.0169	16,564.5	87.9392	16,564.5	58.402	16,564.5	79.1553	16,564.5	67.76	16,564.5	75.1216	16,564.5	73.7419	16,564.5	73.7387	16,564.5	74.5905	16,564.5	57.2561	16,564.5	53.5474	16,564.5	69.6752	16,564.5	74.1125	16,564.5	63.1476	16,564.5	78.3676
17,148.9	110.107	17,148.9	109.959	17,148.9	109.141	17,148.9	109.526	17,148.9	107.471	17,148.9	105.607	17,148.9	104.503	17,148.9	102.876	17,148.9	101.761	17,148.9	98.6661	17,148.9	96.473	17,148.9	95.8715	17,148.9	90.8604	17,148.9	89.2921	17,148.9	88.0567	17,148.9	85.428	17,148.9	84.4207	17,148.9	77.6216	17,148.9	74.6642	17,148.9	79.7804	17,148.9	82.8278	17,148.9	71.7788	17,148.9	88.0128	17,148.9	64.9185	17,148.9	79.3594	17,148.9	69.9955	17,148.9	75.5139	17,148.9	74.4249	17,148.9	74.2494	17,148.9	68.1821	17,148.9	57.7446	17,148.9	66.4285	17,148.9	73.6852	17,148.9	76.1672	17,148.9	66.6446	17,148.9	82.272
17,752.4	109.956	17,752.4	109.525	17,752.4	109.337	17,752.4	109.322	17,752.4	107.313	17,752.4	105.323	17,752.4	104.459	17,752.4	102.644	17,752.4	101.74	17,752.4	98.0239	17,752.4	96.6936	17,752.4	95.1312	17,752.4	90.6765	17,752.4	87.5409	17,752.4	86.6739	17,752.4	83.4716	17,752.4	78.5213	17,752.4	76.0815	17,752.4	77.16	17,752.4	77.8627	17,752.4	81.755	17,752.4	71.5077	17,752.4	86.135	17,752.4	62.6947	17,752.4	79.8448	17,752.4	71.0356	17,752.4	75.9271	17,752.4	72.2751	17,752.4	75.2858	17,752.4	62.4055	17,752.4	62.095	17,752.4	65.7982	17,752.4	73.7324	17,752.4	74.4266	17,752.4	69.2995	17,752.4	84.1079
18,379.4	110.881	18,379.4	110.088	18,379.4	110.837	18,379.4	109.666	18,379.4	108.781	18,379.4	105.248	18,379.4	105.942	18,379.4	102.517	18,379.4	102.349	18,379.4	98.6231	18,379.4	97.4191	18,379.4	95.3839	18,379.4	93.9079	18,379.4	84.7781	18,379.4	90.9818	18,379.4	82.716	18,379.4	82.6409	18,379.4	78.084	18,379.4	69.3853	18,379.4	78.7899	18,379.4	82.436	18,379.4	77.4	18,379.4	87.4986	18,379.4	65.252	18,379.4	81.9878	18,379.4	70.9704	18,379.4	77.2198	18,379.4	72.0766	18,379.4	76.4953	18,379.4	67.5313	18,379.4	66.22	18,379.4	72.7679	18,379.4	75.699	18,379.4	78.9071	18,379.4	74.0164	18,379.4	84.821
19,026.9	111.559	19,026.9	111.091	19,026.9	111.179	19,026.9	110.651	19,026.9	108.559	19,026.9	105.918	19,026.9	105.658	19,026.9	102.781	19,026.9	102.322	19,026.9	100.525	19,026.9	97.3488	19,026.9	95.9871	19,026.9	95.1525	19,026.9	87.3079	19,026.9	89.8693	19,026.9	84.3382	19,026.9	81.1166	19,026.9	83.2793	19,026.9	65.502	19,026.9	78.9026	19,026.9	82.6429	19,026.9	81.1291	19,026.9	86.7846	19,026.9	72.7844	19,026.9	82.7119	19,026.9	75.6934	19,026.9	76.8983	19,026.9	74.9517	19,026.9	76.6237	19,026.9	67.1464	19,026.9	71.0111	19,026.9	77.2682	19,026.9	77.1668	19,026.9	79.637	19,026.9	76.5826	19,026.9	85.2477
19,697.8	109.057	19,697.8	108.592	19,697.8	108.56	19,697.8	107.514	19,697.8	106.103	19,697.8	102.368	19,697.8	103.616	19,697.8	98.2464	19,697.8	100.332	19,697.8	96.7945	19,697.8	95.8833	19,697.8	91.9354	19,697.8	93.4008	19,697.8	85.1178	19,697.8	88.2536	19,697.8	81.6745	19,697.8	81.8375	19,697.8	81.2661	19,697.8	70.8983	19,697.8	71.6906	19,697.8	79.5613	19,697.8	76.5671	19,697.8	80.477	19,697.8	69.3051	19,697.8	79.5042	19,697.8	69.8654	19,697.8	73.3535	19,697.8	67.7168	19,697.8	73.2724	19,697.8	68.8108	19,697.8	64.0863	19,697.8	76.14	19,697.8	74.8767	19,697.8	73.9954	19,697.8	75.9838	19,697.8	83.2234
19,999.5	106.144	19,999.5	105.648	19,999.5	106.309	19,999.5	103.263	19,999.5	104.111	19,999.5	98.417	19,999.5	102.688	19,999.5	91.4973	19,999.5	98.622	19,999.5	90.3034	19,999.5	94.7798	19,999.5	85.9247	19,999.5	91.4259	19,999.5	83.7043	19,999.5	86.315	19,999.5	80.0465	19,999.5	62.013	19,999.5	77.1584	19,999.5	80.8357	19,999.5	72.1595	19,999.5	79.013	19,999.5	72.7856	19,999.5	81.9562	19,999.5	66.9437	19,999.5	77.9227	19,999.5	71.6896	19,999.5	76.2341	19,999.5	65.7497	19,999.5	73.2834	19,999.5	68.249	19,999.5	59.7831	19,999.5	76.6871	19,999.5	76.9834	19,999.5	80.1861	19,999.5	73.737	19,999.5	80.2359
