"SPL Horizontal"
"On-Axis"		"10°"		"-10°"		"20°"		"-20°"		"30°"		"-30°"		"40°"		"-40°"		"50°"		"-50°"		"60°"		"-60°"		"70°"		"-70°"		"80°"		"-80°"		"90°"		"-90°"		"100°"		"-100°"		"110°"		"-110°"		"120°"		"-120°"		"130°"		"-130°"		"140°"		"-140°"		"150°"		"-150°"		"160°"		"-160°"		"170°"		"-170°"		"180°"
"Frequency / Hz"	"Sound Pressure Level / dB (re 20 µPa/V)  [2.83  V @ 1. m]"	"Frequency / Hz"	"Sound Pressure Level / dB (re 20 µPa/V)  [2.83  V @ 1. m]"	"Frequency / Hz"	"Sound Pressure Level / dB (re 20 µPa/V)  [2.83  V @ 1. m]"	"Frequency / Hz"	"Sound Pressure Level / dB (re 20 µPa/V)  [2.83  V @ 1. m]"	"Frequency / Hz"	"Sound Pressure Level / dB (re 20 µPa/V)  [2.83  V @ 1. m]"	"Frequency / Hz"	"Sound Pressure Level / dB (re 20 µPa/V)  [2.83  V @ 1. m]"	"Frequency / Hz"	"Sound Pressure Level / dB (re 20 µPa/V)  [2.83  V @ 1. m]"	"Frequency / Hz"	"Sound Pressure Level / dB (re 20 µPa/V)  [2.83  V @ 1. m]"	"Frequency / Hz"	"Sound Pressure Level / dB (re 20 µPa/V)  [2.83  V @ 1. m]"	"Frequency / Hz"	"Sound Pressure Level / dB (re 20 µPa/V)  [2.83  V @ 1. m]"	"Frequency / Hz"	"Sound Pressure Level / dB (re 20 µPa/V)  [2.83  V @ 1. m]"	"Frequency / Hz"	"Sound Pressure Level / dB (re 20 µPa/V)  [2.83  V @ 1. m]"	"Frequency / Hz"	"Sound Pressure Level / dB (re 20 µPa/V)  [2.83  V @ 1. m]"	"Frequency / Hz"	"Sound Pressure Level / dB (re 20 µPa/V)  [2.83  V @ 1. m]"	"Frequency / Hz"	"Sound Pressure Level / dB (re 20 µPa/V)  [2.83  V @ 1. m]"	"Frequency / Hz"	"Sound Pressure Level / dB (re 20 µPa/V)  [2.83  V @ 1. m]"	"Frequency / Hz"	"Sound Pressure Level / dB (re 20 µPa/V)  [2.83  V @ 1. m]"	"Frequency / Hz"	"Sound Pressure Level / dB (re 20 µPa/V)  [2.83  V @ 1. m]"	"Frequency / Hz"	"Sound Pressure Level / dB (re 20 µPa/V)  [2.83  V @ 1. m]"	"Frequency / Hz"	"Sound Pressure Level / dB (re 20 µPa/V)  [2.83  V @ 1. m]"	"Frequency / Hz"	"Sound Pressure Level / dB (re 20 µPa/V)  [2.83  V @ 1. m]"	"Frequency / Hz"	"Sound Pressure Level / dB (re 20 µPa/V)  [2.83  V @ 1. m]"	"Frequency / Hz"	"Sound Pressure Level / dB (re 20 µPa/V)  [2.83  V @ 1. m]"	"Frequency / Hz"	"Sound Pressure Level / dB (re 20 µPa/V)  [2.83  V @ 1. m]"	"Frequency / Hz"	"Sound Pressure Level / dB (re 20 µPa/V)  [2.83  V @ 1. m]"	"Frequency / Hz"	"Sound Pressure Level / dB (re 20 µPa/V)  [2.83  V @ 1. m]"	"Frequency / Hz"	"Sound Pressure Level / dB (re 20 µPa/V)  [2.83  V @ 1. m]"	"Frequency / Hz"	"Sound Pressure Level / dB (re 20 µPa/V)  [2.83  V @ 1. m]"	"Frequency / Hz"	"Sound Pressure Level / dB (re 20 µPa/V)  [2.83  V @ 1. m]"	"Frequency / Hz"	"Sound Pressure Level / dB (re 20 µPa/V)  [2.83  V @ 1. m]"	"Frequency / Hz"	"Sound Pressure Level / dB (re 20 µPa/V)  [2.83  V @ 1. m]"	"Frequency / Hz"	"Sound Pressure Level / dB (re 20 µPa/V)  [2.83  V @ 1. m]"	"Frequency / Hz"	"Sound Pressure Level / dB (re 20 µPa/V)  [2.83  V @ 1. m]"	"Frequency / Hz"	"Sound Pressure Level / dB (re 20 µPa/V)  [2.83  V @ 1. m]"	"Frequency / Hz"	"Sound Pressure Level / dB (re 20 µPa/V)  [2.83  V @ 1. m]"	"Frequency / Hz"	"Sound Pressure Level / dB (re 20 µPa/V)  [2.83  V @ 1. m]"
20.5078	64.1545	20.5078	65.8092	20.5078	62.2364	20.5078	67.2623	20.5078	60.0193	20.5078	68.5595	20.5078	57.7728	20.5078	69.7336	20.5078	56.8813	20.5078	70.8132	20.5078	58.6794	20.5078	71.8288	20.5078	61.6537	20.5078	72.8145	20.5078	64.54	20.5078	73.8042	20.5078	67.1182	20.5078	74.8217	20.5078	69.4285	20.5078	75.8705	20.5078	71.53	20.5078	76.9267	20.5078	73.4579	20.5078	77.9447	20.5078	75.2182	20.5078	78.871	20.5078	76.7917	20.5078	79.6591	20.5078	78.1455	20.5078	80.2757	20.5078	79.2465	20.5078	80.6988	20.5078	80.0725	20.5078	80.9103	20.5078	80.6174	20.5078	80.8904
21.9727	77.0123	21.9727	76.7024	21.9727	77.2654	21.9727	76.337	21.9727	77.4612	21.9727	75.9178	21.9727	77.5998	21.9727	75.4467	21.9727	77.6814	21.9727	74.9241	21.9727	77.7055	21.9727	74.3482	21.9727	77.6705	21.9727	73.7152	21.9727	77.5737	21.9727	73.0224	21.9727	77.4109	21.9727	72.278	21.9727	77.1773	21.9727	71.5195	21.9727	76.8687	21.9727	70.8369	21.9727	76.4843	21.9727	70.3732	21.9727	76.0301	21.9727	70.261	21.9727	75.5233	21.9727	70.5204	21.9727	74.9907	21.9727	71.0413	21.9727	74.4595	21.9727	71.6731	21.9727	73.9427	21.9727	72.3065	21.9727	73.4296	21.9727	72.8925
23.4375	80.4037	23.4375	80.3558	23.4375	80.4272	23.4375	80.286	23.4375	80.4246	23.4375	80.1973	23.4375	80.3952	23.4375	80.092	23.4375	80.3387	23.4375	79.9721	23.4375	80.255	23.4375	79.8376	23.4375	80.1437	23.4375	79.687	23.4375	80.0037	23.4375	79.5166	23.4375	79.8334	23.4375	79.3217	23.4375	79.6312	23.4375	79.0983	23.4375	79.3956	23.4375	78.8452	23.4375	79.1265	23.4375	78.5675	23.4375	78.8276	23.4375	78.2771	23.4375	78.508	23.4375	77.993	23.4375	78.1854	23.4375	77.7386	23.4375	77.8848	23.4375	77.5389	23.4375	77.6354	23.4375	77.4169	23.4375	77.4643	23.4375	77.3896
24.9023	83.8003	24.9023	83.7973	24.9023	83.7838	24.9023	83.7753	24.9023	83.7478	24.9023	83.7351	24.9023	83.6929	24.9023	83.6777	24.9023	83.6197	24.9023	83.6041	24.9023	83.529	24.9023	83.515	24.9023	83.4214	24.9023	83.4105	24.9023	83.2976	24.9023	83.2901	24.9023	83.1586	24.9023	83.1529	24.9023	83.0061	24.9023	82.9981	24.9023	82.8424	24.9023	82.8263	24.9023	82.6706	24.9023	82.6408	24.9023	82.4947	24.9023	82.4483	24.9023	82.3201	24.9023	82.2593	24.9023	82.1549	24.9023	82.0873	24.9023	82.0094	24.9023	81.9471	24.9023	81.8961	24.9023	81.852	24.9023	81.8269	24.9023	81.811
26.3672	86.3606	26.3672	86.3414	26.3672	86.3642	26.3672	86.3067	26.3672	86.3519	26.3672	86.2569	26.3672	86.3235	26.3672	86.1922	26.3672	86.279	26.3672	86.1132	26.3672	86.2185	26.3672	86.0203	26.3672	86.143	26.3672	85.9145	26.3672	86.0538	26.3672	85.7968	26.3672	85.9527	26.3672	85.6691	26.3672	85.8427	26.3672	85.5343	26.3672	85.7277	26.3672	85.3971	26.3672	85.6127	26.3672	85.265	26.3672	85.5036	26.3672	85.1477	26.3672	85.4053	26.3672	85.0567	26.3672	85.3199	26.3672	85.0014	26.3672	85.2454	26.3672	84.986	26.3672	85.1772	26.3672	85.0064	26.3672	85.1123	26.3672	85.0525
27.832	89.8174	27.832	89.8146	27.832	89.8087	27.832	89.7999	27.832	89.789	27.832	89.7729	27.832	89.7592	27.832	89.734	27.832	89.7204	27.832	89.6837	27.832	89.6737	27.832	89.6228	27.832	89.6209	27.832	89.553	27.832	89.5637	27.832	89.4763	27.832	89.5043	27.832	89.3952	27.832	89.4451	27.832	89.3132	27.832	89.3887	27.832	89.2341	27.832	89.3375	27.832	89.1624	27.832	89.2936	27.832	89.1034	27.832	89.2573	27.832	89.0619	27.832	89.2269	27.832	89.0417	27.832	89.1985	27.832	89.0435	27.832	89.1679	27.832	89.064	27.832	89.1333	27.832	89.0966
29.2969	92.7948	29.2969	92.8091	29.2969	92.7674	29.2969	92.8098	29.2969	92.7278	29.2969	92.7967	29.2969	92.6769	29.2969	92.7699	29.2969	92.6161	29.2969	92.7298	29.2969	92.5469	29.2969	92.6776	29.2969	92.4716	29.2969	92.6148	29.2969	92.3931	29.2969	92.5434	29.2969	92.3143	29.2969	92.466	29.2969	92.2392	29.2969	92.3853	29.2969	92.1713	29.2969	92.304	29.2969	92.1142	29.2969	92.2249	29.2969	92.07	29.2969	92.1515	29.2969	92.0389	29.2969	92.0875	29.2969	92.0185	29.2969	92.0369	29.2969	92.0049	29.2969	92.0025	29.2969	91.9944	29.2969	91.9848	29.2969	91.9856	29.2969	91.9808
30.7617	95.1726	30.7617	95.1728	30.7617	95.1591	30.7617	95.1597	30.7617	95.1327	30.7617	95.1333	30.7617	95.0938	30.7617	95.094	30.7617	95.043	30.7617	95.0424	30.7617	94.9811	30.7617	94.9797	30.7617	94.9094	30.7617	94.9071	30.7617	94.8295	30.7617	94.8265	30.7617	94.7437	30.7617	94.7401	30.7617	94.6546	30.7617	94.6504	30.7617	94.5653	30.7617	94.5599	30.7617	94.4794	30.7617	94.4715	30.7617	94.4004	30.7617	94.3882	30.7617	94.3312	30.7617	94.3137	30.7617	94.2737	30.7617	94.2518	30.7617	94.2282	30.7617	94.2058	30.7617	94.1949	30.7617	94.1778	30.7617	94.1743	30.7617	94.1678
32.2266	97.4479	32.2266	97.4535	32.2266	97.4321	32.2266	97.4484	32.2266	97.4064	32.2266	97.4326	32.2266	97.3717	32.2266	97.4066	32.2266	97.3291	32.2266	97.371	32.2266	97.2801	32.2266	97.3268	32.2266	97.2261	32.2266	97.2755	32.2266	97.1692	32.2266	97.2187	32.2266	97.1112	32.2266	97.1581	32.2266	97.0542	32.2266	97.0954	32.2266	97	32.2266	97.032	32.2266	96.9502	32.2266	96.9698	32.2266	96.906	32.2266	96.9109	32.2266	96.8679	32.2266	96.8581	32.2266	96.8358	32.2266	96.8149	32.2266	96.809	32.2266	96.7842	32.2266	96.7875	32.2266	96.7675	32.2266	96.7718	32.2266	96.7642
33.6914	99.5635	33.6914	99.5662	33.6914	99.5492	33.6914	99.557	33.6914	99.5237	33.6914	99.536	33.6914	99.488	33.6914	99.5036	33.6914	99.4431	33.6914	99.4608	33.6914	99.3905	33.6914	99.4088	33.6914	99.3318	33.6914	99.3493	33.6914	99.269	33.6914	99.2846	33.6914	99.2042	33.6914	99.2169	33.6914	99.1398	33.6914	99.1486	33.6914	99.078	33.6914	99.0821	33.6914	99.0208	33.6914	99.0192	33.6914	98.9699	33.6914	98.9619	33.6914	98.9264	33.6914	98.9122	33.6914	98.8903	33.6914	98.8719	33.6914	98.8616	33.6914	98.8428	33.6914	98.8399	33.6914	98.8258	33.6914	98.8259	33.6914	98.8206
35.1562	101.416	35.1562	101.414	35.1562	101.405	35.1562	101.398	35.1562	101.381	35.1562	101.37	35.1562	101.345	35.1562	101.328	35.1562	101.299	35.1562	101.274	35.1562	101.243	35.1562	101.21	35.1562	101.179	35.1562	101.138	35.1562	101.11	35.1562	101.059	35.1562	101.037	35.1562	100.978	35.1562	100.963	35.1562	100.896	35.1562	100.89	35.1562	100.817	35.1562	100.821	35.1562	100.743	35.1562	100.757	35.1562	100.678	35.1562	100.7	35.1562	100.623	35.1562	100.65	35.1562	100.581	35.1562	100.608	35.1562	100.553	35.1562	100.575	35.1562	100.539	35.1562	100.551	35.1562	100.538
36.6211	103.024	36.6211	103.021	36.6211	103.014	36.6211	103.004	36.6211	102.991	36.6211	102.974	36.6211	102.955	36.6211	102.931	36.6211	102.908	36.6211	102.876	36.6211	102.852	36.6211	102.811	36.6211	102.787	36.6211	102.738	36.6211	102.716	36.6211	102.659	36.6211	102.641	36.6211	102.576	36.6211	102.564	36.6211	102.493	36.6211	102.486	36.6211	102.412	36.6211	102.412	36.6211	102.336	36.6211	102.341	36.6211	102.268	36.6211	102.277	36.6211	102.209	36.6211	102.221	36.6211	102.163	36.6211	102.175	36.6211	102.13	36.6211	102.14	36.6211	102.112	36.6211	102.117	36.6211	102.108
38.0859	104.363	38.0859	104.362	38.0859	104.35	38.0859	104.348	38.0859	104.324	38.0859	104.32	38.0859	104.286	38.0859	104.28	38.0859	104.237	38.0859	104.227	38.0859	104.178	38.0859	104.164	38.0859	104.112	38.0859	104.092	38.0859	104.039	38.0859	104.015	38.0859	103.963	38.0859	103.933	38.0859	103.886	38.0859	103.851	38.0859	103.809	38.0859	103.771	38.0859	103.734	38.0859	103.696	38.0859	103.665	38.0859	103.628	38.0859	103.603	38.0859	103.569	38.0859	103.55	38.0859	103.522	38.0859	103.508	38.0859	103.488	38.0859	103.478	38.0859	103.466	38.0859	103.461	38.0859	103.457
39.5508	105.568	39.5508	105.564	39.5508	105.558	39.5508	105.545	39.5508	105.535	39.5508	105.514	39.5508	105.498	39.5508	105.469	39.5508	105.45	39.5508	105.413	39.5508	105.391	39.5508	105.347	39.5508	105.323	39.5508	105.272	39.5508	105.247	39.5508	105.192	39.5508	105.167	39.5508	105.109	39.5508	105.085	39.5508	105.025	39.5508	105.003	39.5508	104.944	39.5508	104.923	39.5508	104.869	39.5508	104.849	39.5508	104.801	39.5508	104.783	39.5508	104.743	39.5508	104.727	39.5508	104.697	39.5508	104.683	39.5508	104.662	39.5508	104.652	39.5508	104.64	39.5508	104.635	39.5508	104.631
41.0156	106.513	41.0156	106.514	41.0156	106.498	41.0156	106.5	41.0156	106.468	41.0156	106.47	41.0156	106.424	41.0156	106.428	41.0156	106.368	41.0156	106.372	41.0156	106.301	41.0156	106.306	41.0156	106.225	41.0156	106.23	41.0156	106.143	41.0156	106.149	41.0156	106.057	41.0156	106.064	41.0156	105.969	41.0156	105.978	41.0156	105.884	41.0156	105.894	41.0156	105.802	41.0156	105.814	41.0156	105.727	41.0156	105.74	41.0156	105.661	41.0156	105.675	41.0156	105.606	41.0156	105.62	41.0156	105.564	41.0156	105.577	41.0156	105.537	41.0156	105.545	41.0156	105.524	41.0156	105.528
42.4805	107.312	42.4805	107.31	42.4805	107.299	42.4805	107.292	42.4805	107.27	42.4805	107.258	42.4805	107.226	42.4805	107.21	42.4805	107.169	42.4805	107.149	42.4805	107.099	42.4805	107.077	42.4805	107.018	42.4805	106.995	42.4805	106.93	42.4805	106.907	42.4805	106.836	42.4805	106.815	42.4805	106.739	42.4805	106.722	42.4805	106.643	42.4805	106.632	42.4805	106.551	42.4805	106.546	42.4805	106.466	42.4805	106.468	42.4805	106.392	42.4805	106.398	42.4805	106.331	42.4805	106.34	42.4805	106.284	42.4805	106.293	42.4805	106.253	42.4805	106.26	42.4805	106.239	42.4805	106.242
43.9453	107.847	43.9453	107.843	43.9453	107.835	43.9453	107.822	43.9453	107.807	43.9453	107.786	43.9453	107.763	43.9453	107.735	43.9453	107.705	43.9453	107.67	43.9453	107.633	43.9453	107.593	43.9453	107.549	43.9453	107.506	43.9453	107.456	43.9453	107.411	43.9453	107.355	43.9453	107.31	43.9453	107.25	43.9453	107.208	43.9453	107.142	43.9453	107.104	43.9453	107.036	43.9453	107.004	43.9453	106.934	43.9453	106.909	43.9453	106.84	43.9453	106.821	43.9453	106.757	43.9453	106.744	43.9453	106.689	43.9453	106.682	43.9453	106.64	43.9453	106.637	43.9453	106.614	43.9453	106.613
45.4102	108.228	45.4102	108.221	45.4102	108.22	45.4102	108.2	45.4102	108.197	45.4102	108.165	45.4102	108.16	45.4102	108.117	45.4102	108.111	45.4102	108.057	45.4102	108.051	45.4102	107.988	45.4102	107.981	45.4102	107.911	45.4102	107.903	45.4102	107.828	45.4102	107.82	45.4102	107.743	45.4102	107.735	45.4102	107.657	45.4102	107.649	45.4102	107.574	45.4102	107.566	45.4102	107.494	45.4102	107.486	45.4102	107.421	45.4102	107.413	45.4102	107.356	45.4102	107.347	45.4102	107.3	45.4102	107.292	45.4102	107.257	45.4102	107.251	45.4102	107.229	45.4102	107.225	45.4102	107.217
46.875	108.42	46.875	108.413	46.875	108.412	46.875	108.392	46.875	108.389	46.875	108.356	46.875	108.353	46.875	108.308	46.875	108.305	46.875	108.249	46.875	108.247	46.875	108.181	46.875	108.18	46.875	108.107	46.875	108.108	46.875	108.029	46.875	108.032	46.875	107.95	46.875	107.957	46.875	107.874	46.875	107.885	46.875	107.804	46.875	107.819	46.875	107.741	46.875	107.76	46.875	107.688	46.875	107.71	46.875	107.645	46.875	107.667	46.875	107.613	46.875	107.633	46.875	107.592	46.875	107.607	46.875	107.581	46.875	107.589	46.875	107.58
48.3398	108.624	48.3398	108.621	48.3398	108.612	48.3398	108.601	48.3398	108.584	48.3398	108.566	48.3398	108.541	48.3398	108.517	48.3398	108.484	48.3398	108.456	48.3398	108.416	48.3398	108.385	48.3398	108.338	48.3398	108.306	48.3398	108.254	48.3398	108.223	48.3398	108.167	48.3398	108.139	48.3398	108.081	48.3398	108.057	48.3398	107.999	48.3398	107.979	48.3398	107.924	48.3398	107.91	48.3398	107.86	48.3398	107.851	48.3398	107.807	48.3398	107.802	48.3398	107.767	48.3398	107.765	48.3398	107.738	48.3398	107.738	48.3398	107.721	48.3398	107.721	48.3398	107.712	48.3398	107.712
51.2695	109.293	51.2695	109.298	51.2695	109.266	51.2695	109.281	51.2695	109.216	51.2695	109.243	51.2695	109.146	51.2695	109.184	51.2695	109.057	51.2695	109.108	51.2695	108.952	51.2695	109.016	51.2695	108.833	51.2695	108.913	51.2695	108.704	51.2695	108.8	51.2695	108.569	51.2695	108.683	51.2695	108.433	51.2695	108.565	51.2695	108.3	51.2695	108.449	51.2695	108.176	51.2695	108.338	51.2695	108.066	51.2695	108.233	51.2695	107.974	51.2695	108.137	51.2695	107.904	51.2695	108.051	51.2695	107.858	51.2695	107.976	51.2695	107.838	51.2695	107.914	51.2695	107.842	51.2695	107.868
52.7344	109.299	52.7344	109.291	52.7344	109.287	52.7344	109.262	52.7344	109.254	52.7344	109.214	52.7344	109.2	52.7344	109.149	52.7344	109.127	52.7344	109.067	52.7344	109.035	52.7344	108.972	52.7344	108.928	52.7344	108.866	52.7344	108.807	52.7344	108.753	52.7344	108.677	52.7344	108.634	52.7344	108.541	52.7344	108.514	52.7344	108.404	52.7344	108.395	52.7344	108.272	52.7344	108.281	52.7344	108.15	52.7344	108.173	52.7344	108.042	52.7344	108.074	52.7344	107.954	52.7344	107.988	52.7344	107.888	52.7344	107.917	52.7344	107.846	52.7344	107.866	52.7344	107.828	52.7344	107.835
54.1992	109.331	54.1992	109.319	54.1992	109.324	54.1992	109.29	54.1992	109.298	54.1992	109.243	54.1992	109.252	54.1992	109.18	54.1992	109.189	54.1992	109.103	54.1992	109.108	54.1992	109.013	54.1992	109.01	54.1992	108.912	54.1992	108.899	54.1992	108.804	54.1992	108.776	54.1992	108.69	54.1992	108.645	54.1992	108.574	54.1992	108.512	54.1992	108.458	54.1992	108.38	54.1992	108.345	54.1992	108.255	54.1992	108.238	54.1992	108.143	54.1992	108.14	54.1992	108.048	54.1992	108.054	54.1992	107.974	54.1992	107.984	54.1992	107.925	54.1992	107.933	54.1992	107.902	54.1992	107.905
55.6641	109.379	55.6641	109.363	55.6641	109.379	55.6641	109.332	55.6641	109.363	55.6641	109.285	55.6641	109.33	55.6641	109.226	55.6641	109.282	55.6641	109.155	55.6641	109.218	55.6641	109.074	55.6641	109.14	55.6641	108.985	55.6641	109.051	55.6641	108.891	55.6641	108.951	55.6641	108.793	55.6641	108.844	55.6641	108.694	55.6641	108.733	55.6641	108.597	55.6641	108.622	55.6641	108.503	55.6641	108.514	55.6641	108.416	55.6641	108.415	55.6641	108.338	55.6641	108.328	55.6641	108.272	55.6641	108.257	55.6641	108.219	55.6641	108.206	55.6641	108.184	55.6641	108.176	55.6641	108.169
58.5938	109.424	58.5938	109.409	58.5938	109.421	58.5938	109.378	58.5938	109.403	58.5938	109.33	58.5938	109.368	58.5938	109.269	58.5938	109.32	58.5938	109.196	58.5938	109.259	58.5938	109.113	58.5938	109.188	58.5938	109.024	58.5938	109.11	58.5938	108.932	58.5938	109.028	58.5938	108.842	58.5938	108.944	58.5938	108.757	58.5938	108.861	58.5938	108.68	58.5938	108.783	58.5938	108.613	58.5938	108.711	58.5938	108.56	58.5938	108.647	58.5938	108.519	58.5938	108.593	58.5938	108.491	58.5938	108.549	58.5938	108.475	58.5938	108.514	58.5938	108.47	58.5938	108.49	58.5938	108.475
60.0586	109.479	60.0586	109.465	60.0586	109.476	60.0586	109.434	60.0586	109.456	60.0586	109.388	60.0586	109.42	60.0586	109.328	60.0586	109.369	60.0586	109.256	60.0586	109.305	60.0586	109.176	60.0586	109.232	60.0586	109.091	60.0586	109.151	60.0586	109.005	60.0586	109.066	60.0586	108.921	60.0586	108.981	60.0586	108.842	60.0586	108.899	60.0586	108.772	60.0586	108.823	60.0586	108.713	60.0586	108.756	60.0586	108.664	60.0586	108.699	60.0586	108.628	60.0586	108.654	60.0586	108.602	60.0586	108.62	60.0586	108.585	60.0586	108.596	60.0586	108.577	60.0586	108.582	60.0586	108.576
62.9883	109.538	62.9883	109.524	62.9883	109.534	62.9883	109.493	62.9883	109.512	62.9883	109.446	62.9883	109.474	62.9883	109.384	62.9883	109.42	62.9883	109.312	62.9883	109.354	62.9883	109.23	62.9883	109.278	62.9883	109.145	62.9883	109.195	62.9883	109.059	62.9883	109.11	62.9883	108.976	62.9883	109.025	62.9883	108.899	62.9883	108.945	62.9883	108.832	62.9883	108.872	62.9883	108.776	62.9883	108.809	62.9883	108.732	62.9883	108.757	62.9883	108.698	62.9883	108.716	62.9883	108.675	62.9883	108.686	62.9883	108.66	62.9883	108.666	62.9883	108.652	62.9883	108.655	62.9883	108.65
64.4531	109.558	64.4531	109.545	64.4531	109.554	64.4531	109.513	64.4531	109.532	64.4531	109.466	64.4531	109.492	64.4531	109.405	64.4531	109.438	64.4531	109.332	64.4531	109.371	64.4531	109.253	64.4531	109.295	64.4531	109.17	64.4531	109.212	64.4531	109.087	64.4531	109.128	64.4531	109.01	64.4531	109.045	64.4531	108.94	64.4531	108.968	64.4531	108.881	64.4531	108.9	64.4531	108.833	64.4531	108.843	64.4531	108.796	64.4531	108.799	64.4531	108.77	64.4531	108.766	64.4531	108.751	64.4531	108.745	64.4531	108.739	64.4531	108.732	64.4531	108.731	64.4531	108.727	64.4531	108.727
67.3828	109.682	67.3828	109.662	67.3828	109.68	67.3828	109.623	67.3828	109.659	67.3828	109.565	67.3828	109.618	67.3828	109.492	67.3828	109.56	67.3828	109.406	67.3828	109.487	67.3828	109.313	67.3828	109.403	67.3828	109.216	67.3828	109.312	67.3828	109.122	67.3828	109.219	67.3828	109.035	67.3828	109.128	67.3828	108.96	67.3828	109.045	67.3828	108.9	67.3828	108.972	67.3828	108.856	67.3828	108.912	67.3828	108.827	67.3828	108.868	67.3828	108.811	67.3828	108.838	67.3828	108.805	67.3828	108.82	67.3828	108.804	67.3828	108.812	67.3828	108.806	67.3828	108.808	67.3828	108.807
68.8477	109.741	68.8477	109.716	68.8477	109.744	68.8477	109.671	68.8477	109.727	68.8477	109.606	68.8477	109.689	68.8477	109.526	68.8477	109.634	68.8477	109.432	68.8477	109.563	68.8477	109.331	68.8477	109.48	68.8477	109.227	68.8477	109.39	68.8477	109.126	68.8477	109.297	68.8477	109.034	68.8477	109.205	68.8477	108.955	68.8477	109.118	68.8477	108.893	68.8477	109.042	68.8477	108.85	68.8477	108.978	68.8477	108.823	68.8477	108.929	68.8477	108.812	68.8477	108.893	68.8477	108.812	68.8477	108.869	68.8477	108.818	68.8477	108.854	68.8477	108.826	68.8477	108.844	68.8477	108.835
71.7773	109.848	71.7773	109.823	71.7773	109.852	71.7773	109.775	71.7773	109.834	71.7773	109.707	71.7773	109.795	71.7773	109.622	71.7773	109.738	71.7773	109.523	71.7773	109.666	71.7773	109.415	71.7773	109.582	71.7773	109.304	71.7773	109.491	71.7773	109.195	71.7773	109.397	71.7773	109.095	71.7773	109.304	71.7773	109.01	71.7773	109.217	71.7773	108.942	71.7773	109.138	71.7773	108.893	71.7773	109.071	71.7773	108.863	71.7773	109.015	71.7773	108.85	71.7773	108.971	71.7773	108.848	71.7773	108.937	71.7773	108.853	71.7773	108.911	71.7773	108.863	71.7773	108.891	71.7773	108.876
74.707	109.937	74.707	109.915	74.707	109.935	74.707	109.87	74.707	109.91	74.707	109.804	74.707	109.864	74.707	109.719	74.707	109.799	74.707	109.618	74.707	109.72	74.707	109.508	74.707	109.629	74.707	109.393	74.707	109.533	74.707	109.281	74.707	109.437	74.707	109.178	74.707	109.345	74.707	109.09	74.707	109.262	74.707	109.021	74.707	109.191	74.707	108.974	74.707	109.134	74.707	108.949	74.707	109.092	74.707	108.941	74.707	109.061	74.707	108.948	74.707	109.04	74.707	108.962	74.707	109.024	74.707	108.978	74.707	109.01	74.707	108.995
77.6367	110.042	77.6367	110.025	77.6367	110.035	77.6367	109.983	77.6367	110.002	77.6367	109.917	77.6367	109.947	77.6367	109.832	77.6367	109.872	77.6367	109.731	77.6367	109.78	77.6367	109.619	77.6367	109.677	77.6367	109.501	77.6367	109.568	77.6367	109.386	77.6367	109.459	77.6367	109.28	77.6367	109.356	77.6367	109.189	77.6367	109.265	77.6367	109.117	77.6367	109.191	77.6367	109.067	77.6367	109.134	77.6367	109.039	77.6367	109.097	77.6367	109.028	77.6367	109.075	77.6367	109.03	77.6367	109.065	77.6367	109.039	77.6367	109.062	77.6367	109.049	77.6367	109.06	77.6367	109.057
79.1016	110.11	79.1016	110.092	79.1016	110.102	79.1016	110.049	79.1016	110.069	79.1016	109.982	79.1016	110.012	79.1016	109.895	79.1016	109.934	79.1016	109.792	79.1016	109.838	79.1016	109.677	79.1016	109.731	79.1016	109.558	79.1016	109.616	79.1016	109.44	79.1016	109.5	79.1016	109.331	79.1016	109.39	79.1016	109.237	79.1016	109.291	79.1016	109.163	79.1016	109.209	79.1016	109.11	79.1016	109.147	79.1016	109.078	79.1016	109.104	79.1016	109.063	79.1016	109.079	79.1016	109.06	79.1016	109.068	79.1016	109.063	79.1016	109.066	79.1016	109.068	79.1016	109.068	79.1016	109.069
82.0312	110.199	82.0312	110.18	82.0312	110.192	82.0312	110.135	82.0312	110.158	82.0312	110.066	82.0312	110.1	82.0312	109.975	82.0312	110.02	82.0312	109.867	82.0312	109.921	82.0312	109.748	82.0312	109.809	82.0312	109.623	82.0312	109.688	82.0312	109.5	82.0312	109.566	82.0312	109.385	82.0312	109.448	82.0312	109.286	82.0312	109.342	82.0312	109.207	82.0312	109.251	82.0312	109.151	82.0312	109.181	82.0312	109.116	82.0312	109.132	82.0312	109.099	82.0312	109.104	82.0312	109.095	82.0312	109.092	82.0312	109.097	82.0312	109.091	82.0312	109.099	82.0312	109.095	82.0312	109.099
84.9609	110.208	84.9609	110.19	84.9609	110.2	84.9609	110.145	84.9609	110.167	84.9609	110.077	84.9609	110.11	84.9609	109.988	84.9609	110.031	84.9609	109.882	84.9609	109.937	84.9609	109.765	84.9609	109.831	84.9609	109.644	84.9609	109.719	84.9609	109.527	84.9609	109.607	84.9609	109.42	84.9609	109.502	84.9609	109.329	84.9609	109.41	84.9609	109.259	84.9609	109.333	84.9609	109.212	84.9609	109.275	84.9609	109.187	84.9609	109.235	84.9609	109.178	84.9609	109.213	84.9609	109.181	84.9609	109.203	84.9609	109.189	84.9609	109.201	84.9609	109.197	84.9609	109.202	84.9609	109.201
87.8906	110.259	87.8906	110.242	87.8906	110.247	87.8906	110.196	87.8906	110.207	87.8906	110.125	87.8906	110.141	87.8906	110.031	87.8906	110.052	87.8906	109.918	87.8906	109.945	87.8906	109.794	87.8906	109.825	87.8906	109.665	87.8906	109.699	87.8906	109.539	87.8906	109.575	87.8906	109.423	87.8906	109.459	87.8906	109.326	87.8906	109.358	87.8906	109.252	87.8906	109.276	87.8906	109.203	87.8906	109.218	87.8906	109.177	87.8906	109.182	87.8906	109.169	87.8906	109.166	87.8906	109.174	87.8906	109.166	87.8906	109.183	87.8906	109.174	87.8906	109.189	87.8906	109.184	87.8906	109.19
90.8203	110.233	90.8203	110.215	90.8203	110.221	90.8203	110.169	90.8203	110.18	90.8203	110.096	90.8203	110.113	90.8203	110	90.8203	110.025	90.8203	109.886	90.8203	109.919	90.8203	109.76	90.8203	109.804	90.8203	109.631	90.8203	109.685	90.8203	109.507	90.8203	109.571	90.8203	109.397	90.8203	109.468	90.8203	109.307	90.8203	109.383	90.8203	109.244	90.8203	109.319	90.8203	109.207	90.8203	109.278	90.8203	109.197	90.8203	109.258	90.8203	109.205	90.8203	109.255	90.8203	109.226	90.8203	109.263	90.8203	109.25	90.8203	109.274	90.8203	109.27	90.8203	109.281	90.8203	109.281
95.2148	110.592	95.2148	110.59	95.2148	110.559	95.2148	110.553	95.2148	110.49	95.2148	110.486	95.2148	110.386	95.2148	110.392	95.2148	110.251	95.2148	110.276	95.2148	110.088	95.2148	110.147	95.2148	109.907	95.2148	110.012	95.2148	109.715	95.2148	109.878	95.2148	109.526	95.2148	109.754	95.2148	109.352	95.2148	109.647	95.2148	109.205	95.2148	109.56	95.2148	109.097	95.2148	109.494	95.2148	109.034	95.2148	109.446	95.2148	109.014	95.2148	109.412	95.2148	109.033	95.2148	109.384	95.2148	109.08	95.2148	109.353	95.2148	109.142	95.2148	109.315	95.2148	109.207	95.2148	109.266
98.1445	110.674	98.1445	110.634	98.1445	110.679	98.1445	110.561	98.1445	110.648	98.1445	110.459	98.1445	110.58	98.1445	110.332	98.1445	110.478	98.1445	110.189	98.1445	110.344	98.1445	110.036	98.1445	110.184	98.1445	109.884	98.1445	110.005	98.1445	109.741	98.1445	109.817	98.1445	109.616	98.1445	109.633	98.1445	109.517	98.1445	109.465	98.1445	109.446	98.1445	109.325	98.1445	109.4	98.1445	109.222	98.1445	109.375	98.1445	109.161	98.1445	109.362	98.1445	109.14	98.1445	109.351	98.1445	109.151	98.1445	109.334	98.1445	109.184	98.1445	109.308	98.1445	109.227	98.1445	109.271
101.074	110.463	101.074	110.41	101.074	110.483	101.074	110.325	101.074	110.471	101.074	110.211	101.074	110.428	101.074	110.071	101.074	110.355	101.074	109.912	101.074	110.257	101.074	109.741	101.074	110.137	101.074	109.569	101.074	110	101.074	109.407	101.074	109.852	101.074	109.266	101.074	109.702	101.074	109.155	101.074	109.557	101.074	109.082	101.074	109.427	101.074	109.045	101.074	109.32	101.074	109.041	101.074	109.239	101.074	109.058	101.074	109.186	101.074	109.086	101.074	109.157	101.074	109.112	101.074	109.145	101.074	109.13	101.074	109.141	101.074	109.139
105.469	110.505	105.469	110.48	105.469	110.493	105.469	110.417	105.469	110.445	105.469	110.319	105.469	110.365	105.469	110.188	105.469	110.258	105.469	110.032	105.469	110.13	105.469	109.857	105.469	109.988	105.469	109.674	105.469	109.843	105.469	109.494	105.469	109.701	105.469	109.332	105.469	109.573	105.469	109.2	105.469	109.464	105.469	109.106	105.469	109.382	105.469	109.057	105.469	109.329	105.469	109.052	105.469	109.303	105.469	109.082	105.469	109.299	105.469	109.137	105.469	109.309	105.469	109.2	105.469	109.319	105.469	109.257	105.469	109.318	105.469	109.298
108.398	110.647	108.398	110.619	108.398	110.637	108.398	110.553	108.398	110.588	108.398	110.452	108.398	110.502	108.398	110.321	108.398	110.384	108.398	110.166	108.398	110.237	108.398	109.996	108.398	110.07	108.398	109.82	108.398	109.891	108.398	109.649	108.398	109.71	108.398	109.494	108.398	109.538	108.398	109.366	108.398	109.386	108.398	109.269	108.398	109.263	108.398	109.208	108.398	109.175	108.398	109.178	108.398	109.123	108.398	109.171	108.398	109.105	108.398	109.177	108.398	109.112	108.398	109.186	108.398	109.134	108.398	109.189	108.398	109.16	108.398	109.18
112.793	110.646	112.793	110.612	112.793	110.641	112.793	110.538	112.793	110.598	112.793	110.428	112.793	110.519	112.793	110.287	112.793	110.41	112.793	110.12	112.793	110.279	112.793	109.937	112.793	110.133	112.793	109.748	112.793	109.982	112.793	109.564	112.793	109.837	112.793	109.4	112.793	109.706	112.793	109.266	112.793	109.596	112.793	109.17	112.793	109.51	112.793	109.117	112.793	109.448	112.793	109.104	112.793	109.408	112.793	109.123	112.793	109.384	112.793	109.164	112.793	109.368	112.793	109.214	112.793	109.353	112.793	109.263	112.793	109.333	112.793	109.304
117.188	110.723	117.188	110.683	117.188	110.718	117.188	110.597	117.188	110.666	117.188	110.471	117.188	110.57	117.188	110.31	117.188	110.433	117.188	110.121	117.188	110.263	117.188	109.917	117.188	110.069	117.188	109.71	117.188	109.864	117.188	109.518	117.188	109.665	117.188	109.356	117.188	109.49	117.188	109.24	117.188	109.356	117.188	109.178	117.188	109.277	117.188	109.173	117.188	109.255	117.188	109.215	117.188	109.283	117.188	109.29	117.188	109.346	117.188	109.379	117.188	109.422	117.188	109.461	117.188	109.491	117.188	109.521	117.188	109.537	117.188	109.547
120.117	110.904	120.117	110.871	120.117	110.891	120.117	110.792	120.117	110.832	120.117	110.672	120.117	110.729	120.117	110.514	120.117	110.584	120.117	110.327	120.117	110.404	120.117	110.119	120.117	110.197	120.117	109.904	120.117	109.972	120.117	109.697	120.117	109.745	120.117	109.515	120.117	109.531	120.117	109.372	120.117	109.351	120.117	109.281	120.117	109.222	120.117	109.246	120.117	109.156	120.117	109.261	120.117	109.155	120.117	109.312	120.117	109.208	120.117	109.381	120.117	109.292	120.117	109.445	120.117	109.381	120.117	109.485	120.117	109.453	120.117	109.489
124.512	111.124	124.512	111.095	124.512	111.1	124.512	111.012	124.512	111.023	124.512	110.879	124.512	110.895	124.512	110.7	124.512	110.721	124.512	110.481	124.512	110.508	124.512	110.233	124.512	110.263	124.512	109.968	124.512	109.999	124.512	109.703	124.512	109.73	124.512	109.457	124.512	109.473	124.512	109.251	124.512	109.246	124.512	109.097	124.512	109.068	124.512	109.004	124.512	108.95	124.512	108.968	124.512	108.896	124.512	108.976	124.512	108.897	124.512	109.008	124.512	108.937	124.512	109.045	124.512	108.992	124.512	109.069	124.512	109.041	124.512	109.068
128.906	110.971	128.906	110.915	128.906	110.985	128.906	110.82	128.906	110.955	128.906	110.687	128.906	110.88	128.906	110.523	128.906	110.762	128.906	110.331	128.906	110.602	128.906	110.119	128.906	110.405	128.906	109.896	128.906	110.178	128.906	109.672	128.906	109.93	128.906	109.46	128.906	109.672	128.906	109.271	128.906	109.418	128.906	109.114	128.906	109.185	128.906	108.993	128.906	108.984	128.906	108.906	128.906	108.829	128.906	108.845	128.906	108.723	128.906	108.8	128.906	108.666	128.906	108.762	128.906	108.65	128.906	108.725	128.906	108.662	128.906	108.69
133.301	110.704	133.301	110.652	133.301	110.711	133.301	110.559	133.301	110.675	133.301	110.426	133.301	110.598	133.301	110.259	133.301	110.485	133.301	110.066	133.301	110.341	133.301	109.86	133.301	110.176	133.301	109.653	133.301	109.998	133.301	109.463	133.301	109.82	133.301	109.307	133.301	109.655	133.301	109.198	133.301	109.516	133.301	109.144	133.301	109.411	133.301	109.142	133.301	109.347	133.301	109.181	133.301	109.322	133.301	109.242	133.301	109.327	133.301	109.309	133.301	109.353	133.301	109.366	133.301	109.384	133.301	109.403	133.301	109.409	133.301	109.417
139.16	110.922	139.16	110.881	139.16	110.909	139.16	110.787	139.16	110.841	139.16	110.643	139.16	110.722	139.16	110.454	139.16	110.555	139.16	110.227	139.16	110.347	139.16	109.971	139.16	110.11	139.16	109.702	139.16	109.858	139.16	109.439	139.16	109.609	139.16	109.205	139.16	109.385	139.16	109.025	139.16	109.205	139.16	108.918	139.16	109.087	139.16	108.893	139.16	109.038	139.16	108.942	139.16	109.054	139.16	109.039	139.16	109.117	139.16	109.156	139.16	109.205	139.16	109.263	139.16	109.289	139.16	109.337	139.16	109.348	139.16	109.366
143.555	111.082	143.555	111.031	143.555	111.08	143.555	110.931	143.555	111.028	143.555	110.783	143.555	110.925	143.555	110.591	143.555	110.774	143.555	110.362	143.555	110.579	143.555	110.105	143.555	110.347	143.555	109.833	143.555	110.088	143.555	109.562	143.555	109.816	143.555	109.313	143.555	109.549	143.555	109.108	143.555	109.309	143.555	108.964	143.555	109.117	143.555	108.892	143.555	108.991	143.555	108.887	143.555	108.934	143.555	108.932	143.555	108.939	143.555	109.001	143.555	108.984	143.555	109.067	143.555	109.044	143.555	109.11	143.555	109.095	143.555	109.12
147.949	110.999	147.949	110.947	147.949	110.999	147.949	110.846	147.949	110.948	147.949	110.697	147.949	110.847	147.949	110.505	147.949	110.698	147.949	110.278	147.949	110.508	147.949	110.025	147.949	110.283	147.949	109.758	147.949	110.034	147.949	109.492	147.949	109.775	147.949	109.248	147.949	109.524	147.949	109.044	147.949	109.301	147.949	108.9	147.949	109.126	147.949	108.826	147.949	109.012	147.949	108.819	147.949	108.964	147.949	108.865	147.949	108.97	147.949	108.94	147.949	109.01	147.949	109.018	147.949	109.06	147.949	109.078	147.949	109.097	147.949	109.105
153.809	110.857	153.809	110.801	153.809	110.858	153.809	110.692	153.809	110.805	153.809	110.535	153.809	110.7	153.809	110.337	153.809	110.547	153.809	110.104	153.809	110.352	153.809	109.851	153.809	110.125	153.809	109.593	153.809	109.88	153.809	109.352	153.809	109.632	153.809	109.148	153.809	109.402	153.809	109.004	153.809	109.212	153.809	108.933	153.809	109.08	153.809	108.935	153.809	109.017	153.809	108.996	153.809	109.023	153.809	109.093	153.809	109.082	153.809	109.197	153.809	109.169	153.809	109.285	153.809	109.257	153.809	109.34	153.809	109.324	153.809	109.353
159.668	110.86	159.668	110.803	159.668	110.862	159.668	110.69	159.668	110.807	159.668	110.528	159.668	110.697	159.668	110.322	159.668	110.538	159.668	110.081	159.668	110.334	159.668	109.818	159.668	110.095	159.668	109.547	159.668	109.832	159.668	109.287	159.668	109.561	159.668	109.059	159.668	109.3	159.668	108.888	159.668	109.073	159.668	108.791	159.668	108.902	159.668	108.778	159.668	108.807	159.668	108.842	159.668	108.796	159.668	108.959	159.668	108.86	159.668	109.093	159.668	108.974	159.668	109.209	159.668	109.105	159.668	109.276	159.668	109.216	159.668	109.278
165.527	110.962	165.527	110.895	165.527	110.965	165.527	110.765	165.527	110.905	165.527	110.579	165.527	110.782	165.527	110.345	165.527	110.603	165.527	110.074	165.527	110.375	165.527	109.782	165.527	110.111	165.527	109.491	165.527	109.825	165.527	109.223	165.527	109.539	165.527	109.003	165.527	109.275	165.527	108.85	165.527	109.06	165.527	108.776	165.527	108.914	165.527	108.779	165.527	108.849	165.527	108.845	165.527	108.86	165.527	108.951	165.527	108.931	165.527	109.071	165.527	109.035	165.527	109.176	165.527	109.141	165.527	109.244	165.527	109.223	165.527	109.26
171.387	111.109	171.387	111.016	171.387	111.134	171.387	110.857	171.387	111.092	171.387	110.634	171.387	110.986	171.387	110.353	171.387	110.82	171.387	110.025	171.387	110.602	171.387	109.668	171.387	110.339	171.387	109.306	171.387	110.044	171.387	108.972	171.387	109.735	171.387	108.704	171.387	109.432	171.387	108.535	171.387	109.164	171.387	108.48	171.387	108.958	171.387	108.531	171.387	108.836	171.387	108.659	171.387	108.805	171.387	108.823	171.387	108.853	171.387	108.984	171.387	108.951	171.387	109.112	171.387	109.063	171.387	109.187	171.387	109.154	171.387	109.2
177.246	111.211	177.246	111.148	177.246	111.206	177.246	111.017	177.246	111.134	177.246	110.819	177.246	110.999	177.246	110.559	177.246	110.805	177.246	110.243	177.246	110.56	177.246	109.887	177.246	110.275	177.246	109.511	177.246	109.965	177.246	109.149	177.246	109.65	177.246	108.845	177.246	109.355	177.246	108.642	177.246	109.112	177.246	108.569	177.246	108.948	177.246	108.626	177.246	108.881	177.246	108.782	177.246	108.909	177.246	108.985	177.246	109.012	177.246	109.185	177.246	109.154	177.246	109.344	177.246	109.297	177.246	109.437	177.246	109.405	177.246	109.457
183.105	111.248	183.105	111.191	183.105	111.233	183.105	111.063	183.105	111.146	183.105	110.864	183.105	110.992	183.105	110.599	183.105	110.775	183.105	110.274	183.105	110.502	183.105	109.9	183.105	110.185	183.105	109.495	183.105	109.84	183.105	109.092	183.105	109.486	183.105	108.732	183.105	109.153	183.105	108.467	183.105	108.874	183.105	108.339	183.105	108.68	183.105	108.362	183.105	108.598	183.105	108.51	183.105	108.629	183.105	108.728	183.105	108.751	183.105	108.955	183.105	108.921	183.105	109.141	183.105	109.091	183.105	109.253	183.105	109.22	183.105	109.279
188.965	111.526	188.965	111.449	188.965	111.525	188.965	111.297	188.965	111.447	188.965	111.073	188.965	111.291	188.965	110.781	188.965	111.062	188.965	110.43	188.965	110.764	188.965	110.028	188.965	110.408	188.965	109.593	188.965	110.009	188.965	109.152	188.965	109.59	188.965	108.742	188.965	109.182	188.965	108.413	188.965	108.825	188.965	108.209	188.965	108.561	188.965	108.152	188.965	108.421	188.965	108.231	188.965	108.411	188.965	108.401	188.965	108.506	188.965	108.603	188.965	108.656	188.965	108.784	188.965	108.807	188.965	108.908	188.965	108.916	188.965	108.953
196.289	111.487	196.289	111.391	196.289	111.506	196.289	111.22	196.289	111.446	196.289	110.979	196.289	111.306	196.289	110.674	196.289	111.089	196.289	110.312	196.289	110.797	196.289	109.907	196.289	110.438	196.289	109.477	196.289	110.024	196.289	109.05	196.289	109.573	196.289	108.665	196.289	109.113	196.289	108.366	196.289	108.683	196.289	108.187	196.289	108.329	196.289	108.135	196.289	108.093	196.289	108.187	196.289	107.998	196.289	108.298	196.289	108.034	196.289	108.42	196.289	108.158	196.289	108.514	196.289	108.313	196.289	108.557	196.289	108.45	196.289	108.536
203.613	111.448	203.613	111.341	203.613	111.475	203.613	111.155	203.613	111.423	203.613	110.891	203.613	111.296	203.613	110.553	203.613	111.095	203.613	110.147	203.613	110.825	203.613	109.684	203.613	110.492	203.613	109.184	203.613	110.109	203.613	108.681	203.613	109.691	203.613	108.226	203.613	109.268	203.613	107.888	203.613	108.883	203.613	107.726	203.613	108.586	203.613	107.762	203.613	108.421	203.613	107.958	203.613	108.404	203.613	108.237	203.613	108.506	203.613	108.521	203.613	108.669	203.613	108.755	203.613	108.829	203.613	108.908	203.613	108.939	203.613	108.969
210.938	111.028	210.938	110.924	210.938	111.062	210.938	110.752	210.938	111.027	210.938	110.512	210.938	110.925	210.938	110.204	210.938	110.757	210.938	109.831	210.938	110.526	210.938	109.396	210.938	110.234	210.938	108.91	210.938	109.886	210.938	108.396	210.938	109.49	210.938	107.896	210.938	109.065	210.938	107.472	210.938	108.64	210.938	107.196	210.938	108.26	210.938	107.114	210.938	107.98	210.938	107.217	210.938	107.839	210.938	107.442	210.938	107.84	210.938	107.708	210.938	107.941	210.938	107.946	210.938	108.073	210.938	108.114	210.938	108.17	210.938	108.189
218.262	110.558	218.262	110.492	218.262	110.55	218.262	110.35	218.262	110.47	218.262	110.132	218.262	110.323	218.262	109.843	218.262	110.118	218.262	109.487	218.262	109.864	218.262	109.074	218.262	109.573	218.262	108.622	218.262	109.262	218.262	108.158	218.262	108.947	218.262	107.729	218.262	108.65	218.262	107.396	218.262	108.396	218.262	107.218	218.262	108.213	218.262	107.226	218.262	108.124	218.262	107.4	218.262	108.139	218.262	107.677	218.262	108.239	218.262	107.984	218.262	108.381	218.262	108.26	218.262	108.512	218.262	108.463	218.262	108.586	218.262	108.574
225.586	110.864	225.586	110.83	225.586	110.813	225.586	110.71	225.586	110.677	225.586	110.507	225.586	110.459	225.586	110.226	225.586	110.166	225.586	109.871	225.586	109.806	225.586	109.446	225.586	109.388	225.586	108.962	225.586	108.925	225.586	108.444	225.586	108.438	225.586	107.939	225.586	107.963	225.586	107.522	225.586	107.556	225.586	107.279	225.586	107.287	225.586	107.263	225.586	107.211	225.586	107.451	225.586	107.332	225.586	107.753	225.586	107.598	225.586	108.07	225.586	107.921	225.586	108.327	225.586	108.218	225.586	108.484	225.586	108.427	225.586	108.519
232.91	110.316	232.91	110.241	232.91	110.314	232.91	110.096	232.91	110.234	232.91	109.888	232.91	110.078	232.91	109.627	232.91	109.852	232.91	109.323	232.91	109.566	232.91	108.984	232.91	109.233	232.91	108.614	232.91	108.866	232.91	108.22	232.91	108.478	232.91	107.819	232.91	108.085	232.91	107.45	232.91	107.71	232.91	107.175	232.91	107.393	232.91	107.058	232.91	107.182	232.91	107.122	232.91	107.117	232.91	107.32	232.91	107.197	232.91	107.565	232.91	107.379	232.91	107.769	232.91	107.594	232.91	107.881	232.91	107.776	232.91	107.881
241.699	110.084	241.699	109.957	241.699	110.098	241.699	109.72	241.699	110.003	241.699	109.381	241.699	109.806	241.699	108.958	241.699	109.523	241.699	108.481	241.699	109.176	241.699	107.989	241.699	108.796	241.699	107.535	241.699	108.417	241.699	107.174	241.699	108.078	241.699	106.955	241.699	107.813	241.699	106.906	241.699	107.651	241.699	107.032	241.699	107.618	241.699	107.308	241.699	107.728	241.699	107.685	241.699	107.966	241.699	108.1	241.699	108.283	241.699	108.488	241.699	108.608	241.699	108.801	241.699	108.876	241.699	109.006	241.699	109.043	241.699	109.088
250.488	110.732	250.488	110.63	250.488	110.709	250.488	110.403	250.488	110.563	250.488	110.049	250.488	110.297	250.488	109.569	250.488	109.915	250.488	108.972	250.488	109.424	250.488	108.273	250.488	108.842	250.488	107.51	250.488	108.202	250.488	106.748	250.488	107.563	250.488	106.093	250.488	107.014	250.488	105.675	250.488	106.662	250.488	105.609	250.488	106.586	250.488	105.912	250.488	106.797	250.488	106.485	250.488	107.223	250.488	107.169	250.488	107.748	250.488	107.824	250.488	108.252	250.488	108.358	250.488	108.642	250.488	108.721	250.488	108.864	250.488	108.892
259.277	110.619	259.277	110.53	259.277	110.6	259.277	110.336	259.277	110.469	259.277	110.035	259.277	110.222	259.277	109.625	259.277	109.853	259.277	109.101	259.277	109.361	259.277	108.468	259.277	108.745	259.277	107.745	259.277	108.015	259.277	106.986	259.277	107.201	259.277	106.298	259.277	106.377	259.277	105.83	259.277	105.685	259.277	105.706	259.277	105.309	259.277	105.925	259.277	105.37	259.277	106.367	259.277	105.812	259.277	106.881	259.277	106.445	259.277	107.357	259.277	107.08	259.277	107.734	259.277	107.591	259.277	107.973	259.277	107.918	259.277	108.043
268.066	110.067	268.066	109.902	268.066	110.136	268.066	109.641	268.066	110.102	268.066	109.283	268.066	109.959	268.066	108.822	268.066	109.698	268.066	108.254	268.066	109.313	268.066	107.577	268.066	108.803	268.066	106.801	268.066	108.169	268.066	105.971	268.066	107.42	268.066	105.193	268.066	106.587	268.066	104.666	268.066	105.757	268.066	104.603	268.066	105.109	268.066	105.041	268.066	104.874	268.066	105.776	268.066	105.141	268.066	106.541	268.066	105.749	268.066	107.163	268.066	106.439	268.066	107.567	268.066	107.037	268.066	107.744	268.066	107.467	268.066	107.706
276.855	109.85	276.855	109.73	276.855	109.86	276.855	109.504	276.855	109.757	276.855	109.176	276.855	109.543	276.855	108.746	276.855	109.219	276.855	108.207	276.855	108.787	276.855	107.549	276.855	108.254	276.855	106.76	276.855	107.627	276.855	105.852	276.855	106.925	276.855	104.896	276.855	106.178	276.855	104.092	276.855	105.455	276.855	103.766	276.855	104.888	276.855	104.132	276.855	104.683	276.855	105.005	276.855	104.978	276.855	106.003	276.855	105.67	276.855	106.855	276.855	106.481	276.855	107.454	276.855	107.176	276.855	107.78	276.855	107.639	276.855	107.841
287.109	110.092	287.109	110.07	287.109	110.017	287.109	109.943	287.109	109.845	287.109	109.702	287.109	109.571	287.109	109.336	287.109	109.18	287.109	108.84	287.109	108.662	287.109	108.209	287.109	108.014	287.109	107.44	287.109	107.252	287.109	106.534	287.109	106.415	287.109	105.519	287.109	105.569	287.109	104.509	287.109	104.82	287.109	103.781	287.109	104.328	287.109	103.696	287.109	104.269	287.109	104.322	287.109	104.695	287.109	105.313	287.109	105.441	287.109	106.279	287.109	106.248	287.109	107.009	287.109	106.923	287.109	107.433	287.109	107.37	287.109	107.548
297.363	110.345	297.363	110.164	297.363	110.405	297.363	109.865	297.363	110.343	297.363	109.445	297.363	110.155	297.363	108.905	297.363	109.833	297.363	108.249	297.363	109.364	297.363	107.492	297.363	108.72	297.363	106.651	297.363	107.862	297.363	105.744	297.363	106.74	297.363	104.793	297.363	105.321	297.363	103.886	297.363	103.638	297.363	103.265	297.363	101.95	297.363	103.256	297.363	100.974	297.363	103.905	297.363	101.412	297.363	104.863	297.363	102.826	297.363	105.768	297.363	104.353	297.363	106.43	297.363	105.575	297.363	106.778	297.363	106.383	297.363	106.774
307.617	110.268	307.617	110.12	307.617	110.301	307.617	109.856	307.617	110.222	307.617	109.476	307.617	110.036	307.617	108.971	307.617	109.745	307.617	108.324	307.617	109.349	307.617	107.508	307.617	108.844	307.617	106.497	307.617	108.223	307.617	105.287	307.617	107.48	307.617	103.925	307.617	106.605	307.617	102.585	307.617	105.598	307.617	101.676	307.617	104.491	307.617	101.712	307.617	103.421	307.617	102.672	307.617	102.715	307.617	103.951	307.617	102.759	307.617	105.054	307.617	103.522	307.617	105.777	307.617	104.541	307.617	106.071	307.617	105.41	307.617	105.941
319.336	110.088	319.336	109.895	319.336	110.163	319.336	109.596	319.336	110.111	319.336	109.201	319.336	109.927	319.336	108.717	319.336	109.613	319.336	108.14	319.336	109.17	319.336	107.456	319.336	108.591	319.336	106.633	319.336	107.863	319.336	105.626	319.336	106.964	319.336	104.399	319.336	105.882	319.336	102.996	319.336	104.643	319.336	101.683	319.336	103.388	319.336	101.081	319.336	102.479	319.336	101.665	319.336	102.398	319.336	103.019	319.336	103.174	319.336	104.434	319.336	104.305	319.336	105.527	319.336	105.331	319.336	106.167	319.336	106.036	319.336	106.33
329.59	110.711	329.59	110.607	329.59	110.712	329.59	110.4	329.59	110.609	329.59	110.082	329.59	110.394	329.59	109.639	329.59	110.062	329.59	109.058	329.59	109.607	329.59	108.324	329.59	109.028	329.59	107.426	329.59	108.32	329.59	106.357	329.59	107.464	329.59	105.108	329.59	106.426	329.59	103.712	329.59	105.164	329.59	102.374	329.59	103.705	329.59	101.661	329.59	102.321	329.59	102.102	329.59	101.692	329.59	103.33	329.59	102.28	329.59	104.607	329.59	103.545	329.59	105.549	329.59	104.773	329.59	106.043	329.59	105.644	329.59	106.074
341.309	110.736	341.309	110.697	341.309	110.674	341.309	110.548	341.309	110.522	341.309	110.276	341.309	110.283	341.309	109.87	341.309	109.956	341.309	109.315	341.309	109.532	341.309	108.592	341.309	108.994	341.309	107.676	341.309	108.321	341.309	106.536	341.309	107.504	341.309	105.15	341.309	106.556	341.309	103.551	341.309	105.534	341.309	101.987	341.309	104.561	341.309	101.132	341.309	103.856	341.309	101.603	341.309	103.691	341.309	102.942	341.309	104.143	341.309	104.337	341.309	104.939	341.309	105.412	341.309	105.706	341.309	106.081	341.309	106.206	341.309	106.341
353.027	110.905	353.027	110.794	353.027	110.93	353.027	110.594	353.027	110.865	353.027	110.295	353.027	110.695	353.027	109.886	353.027	110.4	353.027	109.356	353.027	109.954	353.027	108.697	353.027	109.334	353.027	107.888	353.027	108.519	353.027	106.879	353.027	107.481	353.027	105.585	353.027	106.159	353.027	103.916	353.027	104.433	353.027	101.912	353.027	102.144	353.027	100.212	353.027	99.4301	353.027	100.226	353.027	98.1796	353.027	101.855	353.027	100.152	353.027	103.649	353.027	102.71	353.027	104.978	353.027	104.529	353.027	105.743	353.027	105.569	353.027	105.948
366.211	111.58	366.211	111.456	366.211	111.601	366.211	111.222	366.211	111.525	366.211	110.858	366.211	111.353	366.211	110.333	366.211	111.082	366.211	109.597	366.211	110.701	366.211	108.595	366.211	110.179	366.211	107.285	366.211	109.474	366.211	105.67	366.211	108.541	366.211	103.811	366.211	107.341	366.211	101.77	366.211	105.842	366.211	99.6113	366.211	103.969	366.211	98.0452	366.211	101.594	366.211	98.8771	366.211	98.9459	366.211	101.348	366.211	98.2633	366.211	103.526	366.211	100.655	366.211	104.929	366.211	103.17	366.211	105.588	366.211	104.789	366.211	105.555
379.395	111.003	379.395	110.982	379.395	110.999	379.395	110.944	379.395	110.968	379.395	110.886	379.395	110.909	379.395	110.783	379.395	110.815	379.395	110.585	379.395	110.66	379.395	110.225	379.395	110.395	379.395	109.625	379.395	109.961	379.395	108.707	379.395	109.299	379.395	107.398	379.395	108.363	379.395	105.636	379.395	107.127	379.395	103.389	379.395	105.595	379.395	100.748	379.395	103.817	379.395	98.2913	379.395	101.953	379.395	97.4786	379.395	100.444	379.395	98.6033	379.395	99.9551	379.395	100.118	379.395	100.478	379.395	101.152	379.395	101.203	379.395	101.506
392.578	110.488	392.578	110.392	392.578	110.517	392.578	110.251	392.578	110.472	392.578	110.094	392.578	110.352	392.578	109.942	392.578	110.163	392.578	109.777	392.578	109.917	392.578	109.528	392.578	109.611	392.578	109.09	392.578	109.215	392.578	108.366	392.578	108.66	392.578	107.294	392.578	107.861	392.578	105.842	392.578	106.736	392.578	103.986	392.578	105.23	392.578	101.806	392.578	103.352	392.578	100.079	392.578	101.339	392.578	100.425	392.578	100.089	392.578	102.212	392.578	100.625	392.578	103.724	392.578	102.181	392.578	104.442	392.578	103.569	392.578	104.363
405.762	110.843	405.762	110.702	405.762	110.821	405.762	110.412	405.762	110.643	405.762	110.003	405.762	110.337	405.762	109.519	405.762	109.948	405.762	109.024	405.762	109.507	405.762	108.567	405.762	109.014	405.762	108.121	405.762	108.435	405.762	107.56	405.762	107.74	405.762	106.706	405.762	106.911	405.762	105.439	405.762	105.939	405.762	103.795	405.762	104.797	405.762	102.072	405.762	103.524	405.762	100.884	405.762	102.433	405.762	100.871	405.762	102.125	405.762	101.964	405.762	102.744	405.762	103.351	405.762	103.702	405.762	104.353	405.762	104.453	405.762	104.717
420.41	110.904	420.41	110.807	420.41	110.948	420.41	110.663	420.41	110.942	420.41	110.476	420.41	110.892	420.41	110.228	420.41	110.802	420.41	109.873	420.41	110.67	420.41	109.342	420.41	110.476	420.41	108.565	420.41	110.173	420.41	107.501	420.41	109.673	420.41	106.137	420.41	108.858	420.41	104.443	420.41	107.601	420.41	102.344	420.41	105.782	420.41	99.9341	420.41	103.277	420.41	98.4723	420.41	99.9742	420.41	99.6351	420.41	96.3866	420.41	101.685	420.41	96.0151	420.41	103.054	420.41	98.9382	420.41	103.473	420.41	101.46	420.41	102.951
435.059	109.789	435.059	109.79	435.059	109.682	435.059	109.708	435.059	109.473	435.059	109.568	435.059	109.204	435.059	109.388	435.059	108.936	435.059	109.165	435.059	108.697	435.059	108.85	435.059	108.434	435.059	108.348	435.059	108.064	435.059	107.529	435.059	107.551	435.059	106.261	435.059	106.934	435.059	104.463	435.059	106.239	435.059	102.218	435.059	105.383	435.059	100.033	435.059	104.214	435.059	99.0026	435.059	102.797	435.059	99.7039	435.059	101.855	435.059	101.302	435.059	102.272	435.059	102.872	435.059	103.419	435.059	103.979	435.059	104.269	435.059	104.465
451.172	110.504	451.172	110.332	451.172	110.529	451.172	110.048	451.172	110.398	451.172	109.72	451.172	110.122	451.172	109.434	451.172	109.746	451.172	109.244	451.172	109.357	451.172	109.123	451.172	109.041	451.172	108.954	451.172	108.78	451.172	108.562	451.172	108.422	451.172	107.758	451.172	107.768	451.172	106.33	451.172	106.668	451.172	103.984	451.172	105.044	451.172	100.283	451.172	102.862	451.172	95.7861	451.172	100.217	451.172	97.3287	451.172	98.1078	451.172	101.141	451.172	98.7829	451.172	103.369	451.172	101.145	451.172	104.285	451.172	103.094	451.172	104.159
465.82	110.663	465.82	110.441	465.82	110.695	465.82	110.058	465.82	110.54	465.82	109.573	465.82	110.234	465.82	109.07	465.82	109.832	465.82	108.635	465.82	109.395	465.82	108.313	465.82	108.972	465.82	108.047	465.82	108.585	465.82	107.673	465.82	108.189	465.82	106.975	465.82	107.651	465.82	105.751	465.82	106.77	465.82	103.849	465.82	105.321	465.82	101.228	465.82	103.074	465.82	98.368	465.82	99.8959	465.82	97.4555	465.82	96.9076	465.82	99.4297	465.82	97.8351	465.82	101.693	465.82	100.648	465.82	103.081	465.82	102.603	465.82	103.401
483.398	110.591	483.398	110.368	483.398	110.558	483.398	109.918	483.398	110.273	483.398	109.309	483.398	109.782	483.398	108.631	483.398	109.177	483.398	107.979	483.398	108.6	483.398	107.432	483.398	108.185	483.398	107.014	483.398	107.94	483.398	106.639	483.398	107.716	483.398	106.082	483.398	107.314	483.398	105.03	483.398	106.581	483.398	103.106	483.398	105.392	483.398	99.8093	483.398	103.603	483.398	94.5907	483.398	101.011	483.398	92.2303	483.398	97.5824	483.398	96.3831	483.398	95.2352	483.398	99.1286	483.398	96.9355	483.398	100.364	483.398	99.2459	483.398	100.404
499.512	110.752	499.512	110.598	499.512	110.687	499.512	110.207	499.512	110.44	499.512	109.609	499.512	110.044	499.512	108.901	499.512	109.531	499.512	108.217	499.512	108.93	499.512	107.623	499.512	108.284	499.512	107.064	499.512	107.651	499.512	106.442	499.512	107.049	499.512	105.703	499.512	106.415	499.512	104.766	499.512	105.62	499.512	103.393	499.512	104.535	499.512	101.189	499.512	103.038	499.512	97.9834	499.512	100.98	499.512	95.8698	499.512	98.3624	499.512	97.6352	499.512	96.4993	499.512	99.6841	499.512	97.5336	499.512	100.613	499.512	99.4316	499.512	100.513
517.09	109.695	517.09	109.466	517.09	109.791	517.09	109.125	517.09	109.712	517.09	108.668	517.09	109.421	517.09	108.099	517.09	108.917	517.09	107.504	517.09	108.275	517.09	107.069	517.09	107.643	517.09	106.862	517.09	107.159	517.09	106.637	517.09	106.833	517.09	106.052	517.09	106.527	517.09	104.937	517.09	106.023	517.09	103.305	517.09	105.082	517.09	101.124	517.09	103.477	517.09	97.9937	517.09	101.064	517.09	93.6228	517.09	98.0256	517.09	93.1108	517.09	95.6641	517.09	96.6428	517.09	95.8718	517.09	98.4767	517.09	97.4361	517.09	98.5633
536.133	109.378	536.133	109.208	536.133	109.345	536.133	108.842	536.133	109.112	536.133	108.304	536.133	108.698	536.133	107.624	536.133	108.139	536.133	106.847	536.133	107.507	536.133	106.078	536.133	106.936	536.133	105.543	536.133	106.563	536.133	105.396	536.133	106.375	536.133	105.372	536.133	106.182	536.133	104.917	536.133	105.769	536.133	103.556	536.133	104.975	536.133	101.042	536.133	103.662	536.133	97.872	536.133	101.74	536.133	96.6724	536.133	99.5014	536.133	98.0358	536.133	98.2275	536.133	99.3928	536.133	98.6907	536.133	100.061	536.133	99.5913	536.133	100.097
555.176	109.503	555.176	109.358	555.176	109.473	555.176	109.059	555.176	109.267	555.176	108.627	555.176	108.916	555.176	108.081	555.176	108.471	555.176	107.459	555.176	107.955	555.176	106.803	555.176	107.358	555.176	106.092	555.176	106.693	555.176	105.238	555.176	106.01	555.176	104.215	555.176	105.276	555.176	103.104	555.176	104.322	555.176	101.844	555.176	102.974	555.176	100.036	555.176	101.216	555.176	97.453	555.176	99.2291	555.176	96.2147	555.176	97.6735	555.176	98.5942	555.176	97.8987	555.176	101.106	555.176	99.7165	555.176	102.412	555.176	101.526	555.176	102.513
574.219	110.123	574.219	109.829	574.219	110.161	574.219	109.334	574.219	109.904	574.219	108.687	574.219	109.356	574.219	107.925	574.219	108.589	574.219	107.116	574.219	107.753	574.219	106.411	574.219	107.021	574.219	105.974	574.219	106.47	574.219	105.764	574.219	106.036	574.219	105.484	574.219	105.619	574.219	104.774	574.219	105.119	574.219	103.263	574.219	104.314	574.219	100.409	574.219	102.772	574.219	95.0303	574.219	99.8829	574.219	89.3363	574.219	95.1131	574.219	95.9981	574.219	93.4382	574.219	99.7637	574.219	97.5344	574.219	101.298	574.219	100.198	574.219	101.378
594.727	109.207	594.727	108.965	594.727	109.215	594.727	108.515	594.727	108.97	594.727	107.882	594.727	108.481	594.727	107.111	594.727	107.776	594.727	106.285	594.727	106.891	594.727	105.524	594.727	105.92	594.727	104.915	594.727	105.135	594.727	104.357	594.727	104.83	594.727	103.578	594.727	104.782	594.727	102.424	594.727	104.333	594.727	100.982	594.727	103.009	594.727	99.2007	594.727	100.77	594.727	96.6187	594.727	97.9823	594.727	94.1066	594.727	95.0756	594.727	95.4188	594.727	93.4589	594.727	97.8585	594.727	95.2402	594.727	99.054	594.727	97.6477	594.727	98.9688
615.234	110.775	615.234	110.59	615.234	110.669	615.234	110.098	615.234	110.319	615.234	109.337	615.234	109.753	615.234	108.391	615.234	108.971	615.234	107.393	615.234	108.026	615.234	106.521	615.234	107.118	615.234	105.959	615.234	106.471	615.234	105.772	615.234	106.063	615.234	105.714	615.234	105.734	615.234	105.32	615.234	105.41	615.234	104.23	615.234	104.927	615.234	102.321	615.234	103.952	615.234	99.5573	615.234	102.206	615.234	95.7517	615.234	99.7125	615.234	92.0197	615.234	97.3667	615.234	93.9137	615.234	97.0776	615.234	97.0637	615.234	98.1495	615.234	98.4282
637.207	112.19	637.207	112.038	637.207	112.081	637.207	111.635	637.207	111.697	637.207	110.967	637.207	111.06	637.207	110.005	637.207	110.244	637.207	108.777	637.207	109.353	637.207	107.493	637.207	108.44	637.207	106.533	637.207	107.51	637.207	106.095	637.207	106.7	637.207	105.921	637.207	106.307	637.207	105.581	637.207	106.252	637.207	104.702	637.207	105.91	637.207	102.781	637.207	104.664	637.207	98.5766	637.207	102.089	637.207	88.1672	637.207	98.1252	637.207	96.9811	637.207	96.1936	637.207	102.405	637.207	99.5587	637.207	104.358	637.207	102.667	637.207	104.308
659.18	110.693	659.18	110.47	659.18	110.719	659.18	110.094	659.18	110.516	659.18	109.575	659.18	110.056	659.18	108.864	659.18	109.309	659.18	107.948	659.18	108.293	659.18	106.946	659.18	107.144	659.18	106.022	659.18	106.126	659.18	105.205	659.18	105.422	659.18	104.437	659.18	104.902	659.18	103.654	659.18	104.324	659.18	102.591	659.18	103.588	659.18	100.848	659.18	102.54	659.18	98.3105	659.18	100.719	659.18	95.15	659.18	97.5034	659.18	91.4447	659.18	93.3183	659.18	91.1122	659.18	93.5852	659.18	94.729	659.18	96.0399	659.18	96.5574
682.617	111.265	682.617	110.916	682.617	111.285	682.617	110.258	682.617	110.957	682.617	109.341	682.617	110.255	682.617	108.269	682.617	109.152	682.617	107.115	682.617	107.679	682.617	105.856	682.617	106.108	682.617	104.634	682.617	104.963	682.617	104.014	682.617	104.435	682.617	104.14	682.617	104.203	682.617	104.211	682.617	104.114	682.617	103.669	682.617	103.947	682.617	102.528	682.617	103.009	682.617	100.531	682.617	100.519	682.617	96.1973	682.617	96.0953	682.617	86.7023	682.617	93.3777	682.617	94.8215	682.617	96.266	682.617	98.9626	682.617	98.6688	682.617	99.7157
707.52	110.319	707.52	110.098	707.52	110.241	707.52	109.507	707.52	109.938	707.52	108.571	707.52	109.394	707.52	107.402	707.52	108.509	707.52	106.124	707.52	107.16	707.52	104.801	707.52	105.341	707.52	103.505	707.52	103.457	707.52	102.528	707.52	102.452	707.52	102.205	707.52	102.51	707.52	102.01	707.52	102.796	707.52	101.049	707.52	102.705	707.52	99.1306	707.52	101.618	707.52	96.6778	707.52	98.7149	707.52	93.8139	707.52	92.5797	707.52	92.7731	707.52	81.1043	707.52	96.2945	707.52	92.6412	707.52	98.784	707.52	97.2521	707.52	99.0582
732.422	108.139	732.422	107.91	732.422	108.057	732.422	107.324	732.422	107.738	732.422	106.412	732.422	107.186	732.422	105.22	732.422	106.372	732.422	103.849	732.422	105.348	732.422	102.642	732.422	104.129	732.422	101.925	732.422	102.561	732.422	101.51	732.422	100.851	732.422	101.152	732.422	99.9209	732.422	100.801	732.422	99.6337	732.422	99.9085	732.422	99.0294	732.422	97.6008	732.422	98.0044	732.422	92.9438	732.422	96.2361	732.422	83.9371	732.422	92.1011	732.422	86.1422	732.422	78.0083	732.422	90.9947	732.422	87.2255	732.422	92.707	732.422	92.1587	732.422	93.1579
757.324	105.023	757.324	104.87	757.324	105.111	757.324	104.633	757.324	105.011	757.324	104.137	757.324	104.627	757.324	103.306	757.324	103.907	757.324	102.251	757.324	102.785	757.324	100.976	757.324	101.312	757.324	99.382	757.324	99.7449	757.324	98.2001	757.324	98.4367	757.324	98.413	757.324	97.8164	757.324	98.8873	757.324	97.879	757.324	98.4545	757.324	97.9295	757.324	96.7319	757.324	97.296	757.324	92.2349	757.324	95.2977	757.324	76.8199	757.324	90.7914	757.324	87.916	757.324	78.7005	757.324	91.7243	757.324	84.3907	757.324	93.2461	757.324	91.2821	757.324	93.4298
785.156	107.232	785.156	107.063	785.156	107.23	785.156	106.671	785.156	107.061	785.156	106.121	785.156	106.636	785.156	105.452	785.156	105.922	785.156	104.441	785.156	104.97	785.156	102.995	785.156	103.752	785.156	101.797	785.156	102.233	785.156	101.666	785.156	100.775	785.156	101.824	785.156	99.9639	785.156	101.773	785.156	100.197	785.156	101.928	785.156	100.956	785.156	101.546	785.156	100.93	785.156	99.1971	785.156	99.6445	785.156	94.0429	785.156	97.1326	785.156	88.3966	785.156	92.0047	785.156	90.5976	785.156	75.9354	785.156	93.289	785.156	88.8922	785.156	93.1121
811.523	109.034	811.523	108.813	811.523	109.013	811.523	108.361	811.523	108.719	811.523	107.691	811.523	108.153	811.523	106.834	811.523	107.355	811.523	105.598	811.523	106.432	811.523	103.613	811.523	105.316	811.523	101.058	811.523	103.599	811.523	99.4573	811.523	101.405	811.523	99.9608	811.523	100.636	811.523	101.513	811.523	101.585	811.523	102.415	811.523	102.656	811.523	101.688	811.523	103.294	811.523	99.2031	811.523	102.959	811.523	94.5681	811.523	101.054	811.523	87.4193	811.523	96.5773	811.523	94.4876	811.523	86.6904	811.523	97.3782	811.523	89.3263	811.523	95.6055
840.82	110.814	840.82	110.615	840.82	110.792	840.82	110.139	840.82	110.506	840.82	109.267	840.82	109.898	840.82	108.007	840.82	109.033	840.82	106.607	840.82	107.991	840.82	105.122	840.82	106.548	840.82	103.312	840.82	104.305	840.82	101.669	840.82	101.522	840.82	101.101	840.82	99.5591	840.82	101.362	840.82	99.2655	840.82	102.522	840.82	100.676	840.82	103.417	840.82	101.893	840.82	102.307	840.82	101.475	840.82	98.4458	840.82	99.5807	840.82	91.6282	840.82	95.8493	840.82	82.8373	840.82	87.5483	840.82	89.3636	840.82	91.1201	840.82	93.478
870.117	110.943	870.117	110.637	870.117	111.002	870.117	110.179	870.117	110.699	870.117	109.547	870.117	110.117	870.117	108.745	870.117	109.391	870.117	107.661	870.117	108.39	870.117	105.891	870.117	106.906	870.117	103.059	870.117	105.001	870.117	99.5841	870.117	102.817	870.117	98.5815	870.117	100.707	870.117	100.684	870.117	100.247	870.117	101.869	870.117	101.284	870.117	101.088	870.117	101.983	870.117	99.2369	870.117	102.235	870.117	96.7729	870.117	101.643	870.117	92.5722	870.117	98.6447	870.117	93.1423	870.117	92.8415	870.117	95.1982	870.117	93.0644	870.117	95.045
900.879	110.32	900.879	110.187	900.879	110.217	900.879	109.786	900.879	109.875	900.879	109.008	900.879	109.313	900.879	107.841	900.879	108.588	900.879	106.563	900.879	107.66	900.879	105.225	900.879	106.481	900.879	103.31	900.879	105.11	900.879	100.74	900.879	102.907	900.879	98.1784	900.879	99.1669	900.879	96.8626	900.879	95.1443	900.879	99.1797	900.879	95.045	900.879	100.785	900.879	97.1406	900.879	99.7482	900.879	99.1599	900.879	96.1827	900.879	99.443	900.879	87.0282	900.879	95.8986	900.879	87.0077	900.879	83.7255	900.879	93.4599	900.879	90.7957	900.879	93.97
933.105	110.685	933.105	110.546	933.105	110.6	933.105	110.097	933.105	110.345	933.105	109.364	933.105	109.888	933.105	108.534	933.105	109.14	933.105	107.583	933.105	108.174	933.105	106.406	933.105	107.065	933.105	105.03	933.105	105.577	933.105	102.785	933.105	103.73	933.105	99.8437	933.105	102.065	933.105	99.386	933.105	100.553	933.105	99.4299	933.105	100.006	933.105	99.08	933.105	100.506	933.105	98.4979	933.105	99.4239	933.105	95.6719	933.105	96.3545	933.105	87.462	933.105	91.9855	933.105	76.4362	933.105	84.7511	933.105	85.5926	933.105	79.4797	933.105	82.5916
965.332	110.519	965.332	110.374	965.332	110.445	965.332	109.943	965.332	110.169	965.332	109.255	965.332	109.58	965.332	108.346	965.332	108.714	965.332	107.361	965.332	107.57	965.332	106.307	965.332	106.2	965.332	104.783	965.332	104.977	965.332	102.807	965.332	103.519	965.332	100.149	965.332	101.291	965.332	95.4981	965.332	98.4663	965.332	93.9725	965.332	96.2816	965.332	96.4779	965.332	97.9431	965.332	97.0406	965.332	99.6076	965.332	95.7471	965.332	99.3756	965.332	91.3276	965.332	96.0031	965.332	87.9579	965.332	84.1604	965.332	94.0916	965.332	93.2819	965.332	96.383
1,000.49	110.405	1,000.49	110.096	1,000.49	110.33	1,000.49	109.691	1,000.49	109.789	1,000.49	108.994	1,000.49	108.978	1,000.49	107.823	1,000.49	108.004	1,000.49	106.577	1,000.49	107.261	1,000.49	105.543	1,000.49	106.347	1,000.49	104.272	1,000.49	104.409	1,000.49	102.346	1,000.49	102.726	1,000.49	100.649	1,000.49	101.422	1,000.49	101.338	1,000.49	99.3013	1,000.49	102.559	1,000.49	98.9602	1,000.49	101.778	1,000.49	99.4735	1,000.49	99.4144	1,000.49	98.4556	1,000.49	96.1558	1,000.49	96.9239	1,000.49	90.0296	1,000.49	94.8683	1,000.49	77.3932	1,000.49	87.2975	1,000.49	85.8981	1,000.49	85.9495	1,000.49	91.5128
1,035.64	109.811	1,035.64	109.439	1,035.64	109.821	1,035.64	108.622	1,035.64	109.311	1,035.64	107.483	1,035.64	108.159	1,035.64	106.451	1,035.64	107.026	1,035.64	105.88	1,035.64	106.438	1,035.64	105.224	1,035.64	105.654	1,035.64	103.991	1,035.64	104.301	1,035.64	103.047	1,035.64	103.013	1,035.64	101.922	1,035.64	102.103	1,035.64	99.4676	1,035.64	100.473	1,035.64	99.2155	1,035.64	97.7302	1,035.64	100.856	1,035.64	96.9942	1,035.64	100.92	1,035.64	97.9882	1,035.64	98.209	1,035.64	97.6065	1,035.64	92.0213	1,035.64	94.6093	1,035.64	91.0994	1,035.64	89.8043	1,035.64	86.4944	1,035.64	71.6094	1,035.64	86.0998
1,072.27	109.341	1,072.27	109.067	1,072.27	109.185	1,072.27	108.375	1,072.27	108.894	1,072.27	107.684	1,072.27	108.326	1,072.27	106.946	1,072.27	107.058	1,072.27	105.817	1,072.27	105.384	1,072.27	104.584	1,072.27	104.489	1,072.27	103.077	1,072.27	103.821	1,072.27	100.321	1,072.27	102.508	1,072.27	96.8187	1,072.27	100.772	1,072.27	93.4804	1,072.27	98.1851	1,072.27	95.5824	1,072.27	96.7848	1,072.27	98.5632	1,072.27	97.9289	1,072.27	98.6343	1,072.27	98.4072	1,072.27	98.0438	1,072.27	98.1457	1,072.27	94.7766	1,072.27	97.2571	1,072.27	87.6377	1,072.27	92.0904	1,072.27	82.0821	1,072.27	76.3963	1,072.27	79.7723
1,108.89	109.811	1,108.89	109.492	1,108.89	109.557	1,108.89	108.45	1,108.89	108.809	1,108.89	106.992	1,108.89	107.512	1,108.89	105.7	1,108.89	106.101	1,108.89	104.163	1,108.89	104.975	1,108.89	102.717	1,108.89	103.566	1,108.89	101.6	1,108.89	102.309	1,108.89	99.3309	1,108.89	101.791	1,108.89	97.4891	1,108.89	101.075	1,108.89	96.6304	1,108.89	99.8642	1,108.89	95.3161	1,108.89	98.2866	1,108.89	97.4625	1,108.89	98.5904	1,108.89	97.4272	1,108.89	98.9594	1,108.89	94.0191	1,108.89	97.9925	1,108.89	90.6392	1,108.89	97.2816	1,108.89	93.0642	1,108.89	95.8724	1,108.89	93.159	1,108.89	90.0815	1,108.89	86.8297
1,148.44	109.197	1,148.44	109.244	1,148.44	108.924	1,148.44	108.611	1,148.44	108.706	1,148.44	107.28	1,148.44	108.165	1,148.44	105.649	1,148.44	107.004	1,148.44	103.918	1,148.44	105.561	1,148.44	102.04	1,148.44	104.562	1,148.44	100.303	1,148.44	103.957	1,148.44	98.6787	1,148.44	102.739	1,148.44	97.2742	1,148.44	99.5765	1,148.44	95.293	1,148.44	95.7733	1,148.44	93.5352	1,148.44	95.4478	1,148.44	98.4257	1,148.44	96.8809	1,148.44	99.1309	1,148.44	99.1948	1,148.44	96.363	1,148.44	99.6897	1,148.44	94.5976	1,148.44	98.9062	1,148.44	88.9251	1,148.44	95.3828	1,148.44	88.59	1,148.44	88.6885	1,148.44	88.5719
1,189.45	109.939	1,189.45	108.979	1,189.45	110.277	1,189.45	108.168	1,189.45	109.643	1,189.45	107.201	1,189.45	108.443	1,189.45	105.284	1,189.45	107.293	1,189.45	103.33	1,189.45	106.224	1,189.45	102.274	1,189.45	104.291	1,189.45	101.232	1,189.45	102.465	1,189.45	101.482	1,189.45	101.035	1,189.45	101.672	1,189.45	100.339	1,189.45	99.0968	1,189.45	99.453	1,189.45	94.6199	1,189.45	95.9452	1,189.45	96.2779	1,189.45	97.7634	1,189.45	97.4869	1,189.45	99.1417	1,189.45	97.1995	1,189.45	99.4029	1,189.45	92.8796	1,189.45	99.1035	1,189.45	88.5489	1,189.45	94.6972	1,189.45	94.9998	1,189.45	93.6179	1,189.45	95.4079
1,230.47	109.897	1,230.47	109.471	1,230.47	109.718	1,230.47	108.602	1,230.47	108.903	1,230.47	107.255	1,230.47	108.216	1,230.47	105.567	1,230.47	107.597	1,230.47	103.954	1,230.47	105.925	1,230.47	101.951	1,230.47	103.989	1,230.47	99.5635	1,230.47	102.545	1,230.47	98.0726	1,230.47	101.131	1,230.47	95.3494	1,230.47	98.6895	1,230.47	91.8482	1,230.47	95.4788	1,230.47	92.1747	1,230.47	96.2016	1,230.47	94.0377	1,230.47	97.7929	1,230.47	98.034	1,230.47	98.3539	1,230.47	97.2295	1,230.47	99.6993	1,230.47	94.2992	1,230.47	98.7853	1,230.47	91.0245	1,230.47	95.2336	1,230.47	88.8506	1,230.47	88.9608	1,230.47	87.1802
1,274.41	110.173	1,274.41	109.687	1,274.41	109.967	1,274.41	108.773	1,274.41	109.194	1,274.41	107.545	1,274.41	108.157	1,274.41	106.032	1,274.41	106.851	1,274.41	104.427	1,274.41	105.645	1,274.41	102.71	1,274.41	103.996	1,274.41	100.587	1,274.41	101.819	1,274.41	98.3073	1,274.41	100.346	1,274.41	98.2073	1,274.41	99.5999	1,274.41	98.5842	1,274.41	97.125	1,274.41	96.6026	1,274.41	92.6684	1,274.41	95.7283	1,274.41	94.1941	1,274.41	98.0505	1,274.41	95.9049	1,274.41	96.7421	1,274.41	96.8432	1,274.41	91.1781	1,274.41	96.7966	1,274.41	82.9142	1,274.41	91.8154	1,274.41	87.9517	1,274.41	90.4083	1,274.41	91.2227
1,319.82	109.355	1,319.82	108.916	1,319.82	109.193	1,319.82	107.962	1,319.82	108.674	1,319.82	106.428	1,319.82	107.456	1,319.82	104.741	1,319.82	105.448	1,319.82	103.115	1,319.82	104.337	1,319.82	102.066	1,319.82	103.028	1,319.82	101.51	1,319.82	101.055	1,319.82	99.9821	1,319.82	99.4796	1,319.82	99.754	1,319.82	97.5249	1,319.82	99.1674	1,319.82	96.6838	1,319.82	95.71	1,319.82	95.9247	1,319.82	94.2589	1,319.82	91.7274	1,319.82	97.6555	1,319.82	93.6108	1,319.82	98.3783	1,319.82	95.7577	1,319.82	94.6147	1,319.82	95.7161	1,319.82	86.5966	1,319.82	91.6841	1,319.82	89.6568	1,319.82	79.7396	1,319.82	87.7576
1,366.7	109.357	1,366.7	108.822	1,366.7	109.462	1,366.7	107.843	1,366.7	108.878	1,366.7	106.371	1,366.7	107.598	1,366.7	104.428	1,366.7	106.353	1,366.7	102.367	1,366.7	104.8	1,366.7	100.419	1,366.7	103.022	1,366.7	99.8774	1,366.7	100.875	1,366.7	98.6408	1,366.7	100.253	1,366.7	96.8359	1,366.7	98.7616	1,366.7	93.5059	1,366.7	96.1882	1,366.7	94.1208	1,366.7	95.8601	1,366.7	94.0847	1,366.7	93.4471	1,366.7	97.0909	1,366.7	92.2262	1,366.7	98.1602	1,366.7	96.4189	1,366.7	94.7478	1,366.7	96.4375	1,366.7	91.9808	1,366.7	93.9546	1,366.7	90.1548	1,366.7	90.1033	1,366.7	88.2098
1,413.57	110.084	1,413.57	109.672	1,413.57	110.018	1,413.57	108.815	1,413.57	109.321	1,413.57	107.134	1,413.57	108.33	1,413.57	105.316	1,413.57	106.489	1,413.57	103.094	1,413.57	104.9	1,413.57	101.148	1,413.57	103.8	1,413.57	99.8436	1,413.57	102.465	1,413.57	98.7824	1,413.57	101.499	1,413.57	97.6137	1,413.57	100.237	1,413.57	97.6836	1,413.57	98.9431	1,413.57	94.4427	1,413.57	98.6814	1,413.57	92.4181	1,413.57	97.8598	1,413.57	95.1154	1,413.57	94.6558	1,413.57	95.2499	1,413.57	94.5873	1,413.57	92.3481	1,413.57	96.0172	1,413.57	92.0598	1,413.57	93.5502	1,413.57	94.435	1,413.57	93.1504	1,413.57	94.265
1,463.38	111.025	1,463.38	110.63	1,463.38	111.086	1,463.38	109.74	1,463.38	110.818	1,463.38	108.242	1,463.38	109.367	1,463.38	106.444	1,463.38	107.827	1,463.38	105.052	1,463.38	105.943	1,463.38	103.682	1,463.38	103.832	1,463.38	101.036	1,463.38	102.59	1,463.38	99.0882	1,463.38	100.916	1,463.38	94.5508	1,463.38	99.4244	1,463.38	93.7931	1,463.38	98.6064	1,463.38	93.6911	1,463.38	96.368	1,463.38	93.251	1,463.38	94.4456	1,463.38	90.5438	1,463.38	96.1938	1,463.38	97.3539	1,463.38	96.5211	1,463.38	93.7321	1,463.38	95.505	1,463.38	91.5369	1,463.38	95.0924	1,463.38	90.8142	1,463.38	94.5105	1,463.38	88.7265
1,516.11	111.801	1,516.11	111.439	1,516.11	111.057	1,516.11	110.247	1,516.11	110.057	1,516.11	108.871	1,516.11	109.474	1,516.11	107.413	1,516.11	108.027	1,516.11	105.514	1,516.11	105.56	1,516.11	102.271	1,516.11	103.245	1,516.11	100.798	1,516.11	101.827	1,516.11	101.02	1,516.11	100.833	1,516.11	99.0368	1,516.11	99.0547	1,516.11	95.7035	1,516.11	98.3127	1,516.11	95.178	1,516.11	97.608	1,516.11	92.5961	1,516.11	94.202	1,516.11	91.2279	1,516.11	91.8723	1,516.11	95.2492	1,516.11	93.4642	1,516.11	96.5155	1,516.11	96.3872	1,516.11	93.1138	1,516.11	92.3344	1,516.11	93.4832	1,516.11	92.7445	1,516.11	96.1529
1,568.85	110.758	1,568.85	110.35	1,568.85	111.082	1,568.85	109.776	1,568.85	110.134	1,568.85	107.652	1,568.85	108.443	1,568.85	105.308	1,568.85	106.53	1,568.85	103.987	1,568.85	104.814	1,568.85	101.559	1,568.85	103.498	1,568.85	99.3811	1,568.85	100.791	1,568.85	97.97	1,568.85	99.8596	1,568.85	95.8285	1,568.85	95.9526	1,568.85	95.046	1,568.85	95.87	1,568.85	95.7443	1,568.85	96.0723	1,568.85	95.5142	1,568.85	94.2413	1,568.85	94.8373	1,568.85	91.9524	1,568.85	94.4622	1,568.85	94.5729	1,568.85	95.8861	1,568.85	95.7321	1,568.85	93.011	1,568.85	96.5203	1,568.85	94.9835	1,568.85	88.3463	1,568.85	95.1791
1,624.51	110.393	1,624.51	110.13	1,624.51	109.994	1,624.51	107.991	1,624.51	109.386	1,624.51	106.809	1,624.51	108.081	1,624.51	104.934	1,624.51	106.841	1,624.51	103.326	1,624.51	105.703	1,624.51	101.998	1,624.51	102.34	1,624.51	100.814	1,624.51	99.9902	1,624.51	100.234	1,624.51	97.2541	1,624.51	96.6947	1,624.51	98.3946	1,624.51	96.0757	1,624.51	97.9064	1,624.51	93.3959	1,624.51	97.5787	1,624.51	94.6852	1,624.51	92.1095	1,624.51	93.8023	1,624.51	95.7231	1,624.51	96.854	1,624.51	94.518	1,624.51	95.6397	1,624.51	94.5027	1,624.51	92.2252	1,624.51	91.5799	1,624.51	98.0939	1,624.51	91.259	1,624.51	93.1105
1,681.64	110.769	1,681.64	109.849	1,681.64	111.15	1,681.64	108.751	1,681.64	109.815	1,681.64	107.034	1,681.64	108.226	1,681.64	105.94	1,681.64	106.641	1,681.64	104.156	1,681.64	104.223	1,681.64	100.281	1,681.64	103.703	1,681.64	101.172	1,681.64	100.291	1,681.64	97.6611	1,681.64	99.6792	1,681.64	97.0527	1,681.64	99.8344	1,681.64	89.4529	1,681.64	94.0801	1,681.64	94.8142	1,681.64	90.2393	1,681.64	92.3003	1,681.64	95.9902	1,681.64	94.9563	1,681.64	92.1935	1,681.64	96.6609	1,681.64	96.2234	1,681.64	96.5962	1,681.64	93.5513	1,681.64	92.4151	1,681.64	94.1456	1,681.64	90.6691	1,681.64	90.0103	1,681.64	91.8673
1,741.7	111.403	1,741.7	110.891	1,741.7	111.237	1,741.7	109.735	1,741.7	110.573	1,741.7	108.414	1,741.7	109.458	1,741.7	106.581	1,741.7	107.715	1,741.7	104.979	1,741.7	105.844	1,741.7	103.019	1,741.7	104.347	1,741.7	100.376	1,741.7	102.042	1,741.7	97.7085	1,741.7	98.6398	1,741.7	97.4601	1,741.7	97.6753	1,741.7	95.1634	1,741.7	97.3613	1,741.7	90.6047	1,741.7	94.5188	1,741.7	93.8356	1,741.7	92.9294	1,741.7	92.2408	1,741.7	92.6327	1,741.7	94.4176	1,741.7	93.4762	1,741.7	93.2213	1,741.7	96.7104	1,741.7	90.0591	1,741.7	94.3168	1,741.7	92.1601	1,741.7	94.2818	1,741.7	93.6968
1,803.22	111.489	1,803.22	110.984	1,803.22	111.395	1,803.22	110.042	1,803.22	110.531	1,803.22	108.727	1,803.22	109.409	1,803.22	107.172	1,803.22	107.581	1,803.22	105.673	1,803.22	105.622	1,803.22	103.948	1,803.22	104.02	1,803.22	101.754	1,803.22	102.416	1,803.22	99.5143	1,803.22	100.001	1,803.22	98.2556	1,803.22	97.6513	1,803.22	96.0207	1,803.22	97.621	1,803.22	92.9201	1,803.22	95.1921	1,803.22	90.8219	1,803.22	91.8702	1,803.22	91.5423	1,803.22	91.9921	1,803.22	94.7521	1,803.22	93.3653	1,803.22	96.8484	1,803.22	96.05	1,803.22	92.1727	1,803.22	93.458	1,803.22	92.6423	1,803.22	88.6004	1,803.22	94.185
1,866.21	110.657	1,866.21	110.365	1,866.21	110.475	1,866.21	109.472	1,866.21	109.862	1,866.21	108.195	1,866.21	108.417	1,866.21	106.475	1,866.21	106.892	1,866.21	105.04	1,866.21	104.804	1,866.21	103.684	1,866.21	102.816	1,866.21	101.387	1,866.21	100.842	1,866.21	99.1585	1,866.21	99.1109	1,866.21	98.2529	1,866.21	97.1217	1,866.21	96.7112	1,866.21	95.2288	1,866.21	93.0216	1,866.21	93.9288	1,866.21	94.9824	1,866.21	90.9459	1,866.21	92.2968	1,866.21	91.135	1,866.21	93.9697	1,866.21	88.8786	1,866.21	93.1188	1,866.21	92.6563	1,866.21	91.9449	1,866.21	93.4517	1,866.21	92.0165	1,866.21	92.0806	1,866.21	93.335
1,932.13	109.897	1,932.13	109.45	1,932.13	109.779	1,932.13	108.595	1,932.13	109.056	1,932.13	107.205	1,932.13	108.185	1,932.13	105.505	1,932.13	106.879	1,932.13	103.687	1,932.13	105.203	1,932.13	101.807	1,932.13	103.16	1,932.13	100.342	1,932.13	101.716	1,932.13	97.7125	1,932.13	100.045	1,932.13	96.5985	1,932.13	96.6455	1,932.13	94.9898	1,932.13	95.9715	1,932.13	91.673	1,932.13	93.9395	1,932.13	90.6698	1,932.13	93.0899	1,932.13	91.8001	1,932.13	91.7802	1,932.13	93.2998	1,932.13	90.5272	1,932.13	95.9587	1,932.13	94.6446	1,932.13	88.7458	1,932.13	93.2135	1,932.13	92.6406	1,932.13	87.2083	1,932.13	93.2193
1,999.51	110.87	1,999.51	110.48	1,999.51	110.777	1,999.51	109.671	1,999.51	110.236	1,999.51	108.251	1,999.51	109.298	1,999.51	106.433	1,999.51	108.057	1,999.51	103.86	1,999.51	106.275	1,999.51	101.923	1,999.51	104.08	1,999.51	99.8221	1,999.51	102.223	1,999.51	97.4174	1,999.51	100.413	1,999.51	94.9365	1,999.51	98.441	1,999.51	95.1511	1,999.51	96.4379	1,999.51	90.2864	1,999.51	96.2858	1,999.51	93.5651	1,999.51	90.9399	1,999.51	90.8608	1,999.51	93.5278	1,999.51	91.004	1,999.51	91.151	1,999.51	92.2325	1,999.51	92.7845	1,999.51	89.5187	1,999.51	94.4843	1,999.51	91.2258	1,999.51	91.6621	1,999.51	91.7362
2,069.82	111.461	2,069.82	110.935	2,069.82	111.332	2,069.82	110.158	2,069.82	110.677	2,069.82	109.003	2,069.82	109.699	2,069.82	107.647	2,069.82	108.352	2,069.82	105.65	2,069.82	106.941	2,069.82	103.022	2,069.82	104.871	2,069.82	101.149	2,069.82	102.81	2,069.82	98.7323	2,069.82	100.964	2,069.82	96.981	2,069.82	98.145	2,069.82	96.6827	2,069.82	96.9436	2,069.82	94.1381	2,069.82	95.3923	2,069.82	88.5104	2,069.82	93.5093	2,069.82	93.4264	2,069.82	93.0451	2,069.82	90.7701	2,069.82	90.7102	2,069.82	95.764	2,069.82	92.526	2,069.82	90.0705	2,069.82	92.7575	2,069.82	90.4849	2,069.82	89.1781	2,069.82	94.0344
2,143.07	111.392	2,143.07	111.021	2,143.07	111.353	2,143.07	110.098	2,143.07	110.588	2,143.07	109.007	2,143.07	109.439	2,143.07	107.799	2,143.07	108.333	2,143.07	106.256	2,143.07	106.772	2,143.07	104.091	2,143.07	104.942	2,143.07	102.452	2,143.07	102.597	2,143.07	100.584	2,143.07	100.927	2,143.07	97.217	2,143.07	98.5042	2,143.07	96.8819	2,143.07	96.0094	2,143.07	95.0612	2,143.07	96.5493	2,143.07	93.0338	2,143.07	93.2734	2,143.07	93.9665	2,143.07	92.3897	2,143.07	90.8173	2,143.07	92.3808	2,143.07	93.8733	2,143.07	92.8383	2,143.07	92.8425	2,143.07	92.9302	2,143.07	93.1643	2,143.07	89.3444	2,143.07	92.9669
2,219.24	111.342	2,219.24	110.882	2,219.24	111.113	2,219.24	109.899	2,219.24	110.73	2,219.24	108.625	2,219.24	109.8	2,219.24	107.209	2,219.24	108.723	2,219.24	105.527	2,219.24	107.255	2,219.24	103.435	2,219.24	105.542	2,219.24	101.25	2,219.24	103.135	2,219.24	99.8733	2,219.24	100.911	2,219.24	97.556	2,219.24	98.6681	2,219.24	97.1393	2,219.24	96.7893	2,219.24	95.6023	2,219.24	96.354	2,219.24	91.5306	2,219.24	93.8385	2,219.24	94.1371	2,219.24	93.8996	2,219.24	91.0643	2,219.24	93.4908	2,219.24	95.7295	2,219.24	87.635	2,219.24	90.6466	2,219.24	93.2152	2,219.24	89.3208	2,219.24	89.2314	2,219.24	91.96
2,296.88	111.566	2,296.88	111.232	2,296.88	111.564	2,296.88	110.48	2,296.88	111.144	2,296.88	109.304	2,296.88	110.314	2,296.88	107.598	2,296.88	109.234	2,296.88	105.933	2,296.88	107.657	2,296.88	103.821	2,296.88	105.588	2,296.88	100.625	2,296.88	103.745	2,296.88	97.562	2,296.88	100.986	2,296.88	96.0255	2,296.88	98.929	2,296.88	94.1229	2,296.88	96.2974	2,296.88	92.5623	2,296.88	95.2354	2,296.88	89.7769	2,296.88	95.5507	2,296.88	93.6377	2,296.88	91.5556	2,296.88	90.5471	2,296.88	95.3951	2,296.88	91.9795	2,296.88	93.3659	2,296.88	91.1176	2,296.88	93.5867	2,296.88	91.8428	2,296.88	89.9395	2,296.88	90.6423
2,378.91	111.503	2,378.91	111.268	2,378.91	111.491	2,378.91	110.71	2,378.91	110.949	2,378.91	109.91	2,378.91	110.231	2,378.91	108.533	2,378.91	108.839	2,378.91	106.363	2,378.91	106.876	2,378.91	103.622	2,378.91	104.94	2,378.91	101.497	2,378.91	101.9	2,378.91	99.6072	2,378.91	99.9643	2,378.91	96.6549	2,378.91	97.7269	2,378.91	93.621	2,378.91	94.6271	2,378.91	94.4866	2,378.91	93.8585	2,378.91	91.0177	2,378.91	91.7922	2,378.91	91.943	2,378.91	90.6882	2,378.91	91.1435	2,378.91	92.048	2,378.91	90.5269	2,378.91	88.3147	2,378.91	92.7156	2,378.91	91.9618	2,378.91	91.7432	2,378.91	89.3037	2,378.91	92.0808
2,462.4	112.023	2,462.4	111.667	2,462.4	111.858	2,462.4	111.078	2,462.4	111.56	2,462.4	109.913	2,462.4	110.936	2,462.4	108.236	2,462.4	109.774	2,462.4	106.283	2,462.4	107.933	2,462.4	103.855	2,462.4	105.62	2,462.4	101.743	2,462.4	103.145	2,462.4	99.8103	2,462.4	100.926	2,462.4	96.6876	2,462.4	98.3296	2,462.4	95.6428	2,462.4	96.6405	2,462.4	94.8022	2,462.4	94.3086	2,462.4	91.883	2,462.4	93.3474	2,462.4	92.7182	2,462.4	89.9814	2,462.4	93.1027	2,462.4	93.5584	2,462.4	93.2226	2,462.4	91.0913	2,462.4	90.3106	2,462.4	94.0935	2,462.4	92.196	2,462.4	89.6115	2,462.4	91.4115
2,548.83	112.645	2,548.83	112.466	2,548.83	112.736	2,548.83	112.02	2,548.83	112.356	2,548.83	111.059	2,548.83	111.654	2,548.83	109.269	2,548.83	110.614	2,548.83	107.12	2,548.83	108.846	2,548.83	104.638	2,548.83	106.522	2,548.83	102.059	2,548.83	104.376	2,548.83	98.8057	2,548.83	101.783	2,548.83	97.5477	2,548.83	100.151	2,548.83	95.7557	2,548.83	98.0444	2,548.83	94.9437	2,548.83	95.4306	2,548.83	92.4764	2,548.83	95.8529	2,548.83	92.4891	2,548.83	91.9069	2,548.83	93.9849	2,548.83	95.122	2,548.83	92.1189	2,548.83	94.2533	2,548.83	92.0556	2,548.83	94.5706	2,548.83	89.5283	2,548.83	90.6197	2,548.83	90.9688
2,639.65	111.049	2,639.65	111.199	2,639.65	110.81	2,639.65	110.931	2,639.65	110.847	2,639.65	110.303	2,639.65	110.21	2,639.65	108.548	2,639.65	109.054	2,639.65	106.551	2,639.65	107.126	2,639.65	104.483	2,639.65	105.146	2,639.65	101.636	2,639.65	102.662	2,639.65	99.3262	2,639.65	100.314	2,639.65	97.5181	2,639.65	97.7137	2,639.65	95.34	2,639.65	95.828	2,639.65	94.5612	2,639.65	94.7848	2,639.65	92.4053	2,639.65	92.8746	2,639.65	92.3934	2,639.65	91.6853	2,639.65	93.6541	2,639.65	92.6321	2,639.65	93.2671	2,639.65	92.6895	2,639.65	91.8861	2,639.65	93.0909	2,639.65	89.7015	2,639.65	90.4657	2,639.65	90.5493
2,731.93	110.452	2,731.93	110.388	2,731.93	110.488	2,731.93	110.144	2,731.93	110.304	2,731.93	108.952	2,731.93	110.104	2,731.93	107.552	2,731.93	108.75	2,731.93	104.867	2,731.93	106.898	2,731.93	101.808	2,731.93	104.491	2,731.93	99.7488	2,731.93	102.176	2,731.93	98.3368	2,731.93	99.7937	2,731.93	95.8564	2,731.93	97.1383	2,731.93	94.4902	2,731.93	95.5729	2,731.93	92.5532	2,731.93	94.215	2,731.93	93.233	2,731.93	92.683	2,731.93	92.6829	2,731.93	89.2704	2,731.93	94.1202	2,731.93	92.1846	2,731.93	94.0384	2,731.93	92.9568	2,731.93	92.0295	2,731.93	92.7297	2,731.93	89.9894	2,731.93	91.4486	2,731.93	89.415
2,828.61	110.895	2,828.61	110.914	2,828.61	111.17	2,828.61	110.496	2,828.61	110.89	2,828.61	109.427	2,828.61	110.402	2,828.61	107.823	2,828.61	108.961	2,828.61	105.298	2,828.61	106.781	2,828.61	102.142	2,828.61	103.771	2,828.61	100.692	2,828.61	101.65	2,828.61	97.9126	2,828.61	99.2363	2,828.61	94.4573	2,828.61	97.7158	2,828.61	92.7481	2,828.61	95.5228	2,828.61	89.9849	2,828.61	93.5897	2,828.61	90.4915	2,828.61	93.0443	2,828.61	91.1465	2,828.61	89.2646	2,828.61	93.2001	2,828.61	91.2055	2,828.61	91.973	2,828.61	91.7577	2,828.61	92.8905	2,828.61	92.3458	2,828.61	85.8588	2,828.61	90.4761	2,828.61	88.6322
2,928.22	110.615	2,928.22	110.537	2,928.22	110.212	2,928.22	110.159	2,928.22	110.341	2,928.22	109.264	2,928.22	109.473	2,928.22	106.909	2,928.22	108.138	2,928.22	103.807	2,928.22	105.97	2,928.22	102.86	2,928.22	103.415	2,928.22	100.391	2,928.22	100.592	2,928.22	97.8324	2,928.22	98.7644	2,928.22	96.6033	2,928.22	96.6288	2,928.22	93.8079	2,928.22	94.513	2,928.22	92.6134	2,928.22	93.1217	2,928.22	88.9945	2,928.22	91.6368	2,928.22	89.7832	2,928.22	90.72	2,928.22	92.7523	2,928.22	89.803	2,928.22	90.4121	2,928.22	90.9068	2,928.22	93.2927	2,928.22	91.9117	2,928.22	87.2264	2,928.22	90.623	2,928.22	88.0204
3,030.76	110.495	3,030.76	110.584	3,030.76	110.766	3,030.76	110.246	3,030.76	110.446	3,030.76	108.668	3,030.76	109.952	3,030.76	106.691	3,030.76	108.31	3,030.76	104.695	3,030.76	106.315	3,030.76	101.119	3,030.76	103.448	3,030.76	98.6893	3,030.76	101.425	3,030.76	97.2235	3,030.76	99.3106	3,030.76	95.7613	3,030.76	96.4419	3,030.76	93.5709	3,030.76	95.3198	3,030.76	93.0269	3,030.76	93.3017	3,030.76	90.4567	3,030.76	92.3064	3,030.76	89.1248	3,030.76	91.4452	3,030.76	92.7419	3,030.76	89.3142	3,030.76	90.2861	3,030.76	91.7989	3,030.76	92.3235	3,030.76	91.5748	3,030.76	88.5255	3,030.76	92.104	3,030.76	88.1181
3,137.7	110.293	3,137.7	110.358	3,137.7	110.304	3,137.7	109.784	3,137.7	110.184	3,137.7	108.473	3,137.7	109.471	3,137.7	106.303	3,137.7	107.856	3,137.7	104.226	3,137.7	105.538	3,137.7	101.63	3,137.7	103.495	3,137.7	99.952	3,137.7	100.872	3,137.7	97.788	3,137.7	98.6454	3,137.7	95.0005	3,137.7	95.9123	3,137.7	92.8859	3,137.7	94.9763	3,137.7	92.6219	3,137.7	92.6115	3,137.7	88.5697	3,137.7	92.1837	3,137.7	85.2997	3,137.7	91.1334	3,137.7	91.2058	3,137.7	88.6973	3,137.7	88.6424	3,137.7	90.9318	3,137.7	92.1613	3,137.7	91.4055	3,137.7	84.6825	3,137.7	89.9496	3,137.7	88.6012
3,249.02	110.051	3,249.02	110.147	3,249.02	109.826	3,249.02	109.416	3,249.02	109.832	3,249.02	108.119	3,249.02	108.908	3,249.02	106.203	3,249.02	107.53	3,249.02	103.764	3,249.02	105.226	3,249.02	101.875	3,249.02	103.239	3,249.02	99.6786	3,249.02	101.054	3,249.02	97.7531	3,249.02	99.1217	3,249.02	94.8537	3,249.02	96.7672	3,249.02	93.0221	3,249.02	94.409	3,249.02	92.1359	3,249.02	92.2684	3,249.02	90.7569	3,249.02	92.2512	3,249.02	85.8216	3,249.02	90.3905	3,249.02	91.2713	3,249.02	88.365	3,249.02	88.031	3,249.02	90.9778	3,249.02	92.8864	3,249.02	87.3226	3,249.02	87.6127	3,249.02	90.8683	3,249.02	87.5199
3,363.28	110.14	3,363.28	110.097	3,363.28	110.023	3,363.28	109.729	3,363.28	109.925	3,363.28	108.304	3,363.28	109.359	3,363.28	106.427	3,363.28	107.655	3,363.28	103.96	3,363.28	105.769	3,363.28	102.174	3,363.28	103.916	3,363.28	99.5775	3,363.28	101.867	3,363.28	97.6937	3,363.28	99.1778	3,363.28	95.2295	3,363.28	97.5576	3,363.28	93.493	3,363.28	95.1602	3,363.28	91.8145	3,363.28	93.2453	3,363.28	91.2932	3,363.28	91.1669	3,363.28	89.2934	3,363.28	90.1469	3,363.28	89.5265	3,363.28	88.3041	3,363.28	89.9069	3,363.28	92.7186	3,363.28	92.4497	3,363.28	89.1304	3,363.28	88.7828	3,363.28	91.5218	3,363.28	86.9833
3,481.93	110.541	3,481.93	110.661	3,481.93	110.715	3,481.93	110.379	3,481.93	110.608	3,481.93	109.023	3,481.93	110.131	3,481.93	107.236	3,481.93	108.505	3,481.93	105.966	3,481.93	106.988	3,481.93	103.347	3,481.93	104.489	3,481.93	100.83	3,481.93	102.597	3,481.93	98.5586	3,481.93	100.172	3,481.93	95.9604	3,481.93	97.6902	3,481.93	94.23	3,481.93	96.0369	3,481.93	91.7484	3,481.93	93.9938	3,481.93	91.6509	3,481.93	91.926	3,481.93	90.6734	3,481.93	90.9126	3,481.93	90.2934	3,481.93	89.9971	3,481.93	91.9368	3,481.93	91.9301	3,481.93	92.8328	3,481.93	91.3482	3,481.93	87.4796	3,481.93	92.215	3,481.93	87.5247
3,604.98	110.651	3,604.98	111.129	3,604.98	110.537	3,604.98	110.681	3,604.98	110.94	3,604.98	109.234	3,604.98	110.179	3,604.98	108.355	3,604.98	108.757	3,604.98	105.852	3,604.98	107.199	3,604.98	103.867	3,604.98	105.32	3,604.98	100.955	3,604.98	103.238	3,604.98	98.8667	3,604.98	100.686	3,604.98	96.7661	3,604.98	98.6016	3,604.98	94.4838	3,604.98	95.3596	3,604.98	92.0352	3,604.98	94.3182	3,604.98	92.4721	3,604.98	91.5373	3,604.98	91.1946	3,604.98	91.1938	3,604.98	90.3633	3,604.98	90.6088	3,604.98	91.9054	3,604.98	91.6619	3,604.98	92.4948	3,604.98	89.3576	3,604.98	87.6079	3,604.98	91.4984	3,604.98	84.1159
3,732.42	111.732	3,732.42	111.584	3,732.42	111.67	3,732.42	111.119	3,732.42	111.394	3,732.42	109.927	3,732.42	110.707	3,732.42	108.281	3,732.42	109.228	3,732.42	106.402	3,732.42	107.905	3,732.42	104.066	3,732.42	105.909	3,732.42	101.542	3,732.42	103.357	3,732.42	99.0682	3,732.42	100.451	3,732.42	95.3676	3,732.42	97.954	3,732.42	93.7276	3,732.42	95.5588	3,732.42	91.5902	3,732.42	94.0664	3,732.42	90.9454	3,732.42	91.6343	3,732.42	91.0068	3,732.42	90.9741	3,732.42	89.1149	3,732.42	91.0621	3,732.42	90.9229	3,732.42	92.0022	3,732.42	91.7895	3,732.42	92.9123	3,732.42	84.0657	3,732.42	91.5983	3,732.42	84.5599
3,864.26	112.056	3,864.26	111.718	3,864.26	112.174	3,864.26	111.074	3,864.26	111.49	3,864.26	109.644	3,864.26	110.667	3,864.26	108.438	3,864.26	109.361	3,864.26	106.333	3,864.26	108.092	3,864.26	103.741	3,864.26	105.79	3,864.26	100.875	3,864.26	102.554	3,864.26	98.0787	3,864.26	100.157	3,864.26	95.9654	3,864.26	97.2161	3,864.26	93.5017	3,864.26	94.5817	3,864.26	91.6487	3,864.26	94.0286	3,864.26	91.8597	3,864.26	91.057	3,864.26	90.1352	3,864.26	90.155	3,864.26	92.3619	3,864.26	89.245	3,864.26	92.1097	3,864.26	93.1102	3,864.26	92.308	3,864.26	92.7918	3,864.26	81.8369	3,864.26	91.7534	3,864.26	84.2933
4,000.49	111.838	4,000.49	111.969	4,000.49	111.522	4,000.49	110.761	4,000.49	111.529	4,000.49	110.052	4,000.49	110.611	4,000.49	108.958	4,000.49	109.327	4,000.49	106.306	4,000.49	107.469	4,000.49	103.473	4,000.49	105.032	4,000.49	99.9041	4,000.49	102.384	4,000.49	97.2306	4,000.49	99.7613	4,000.49	95.0443	4,000.49	96.4698	4,000.49	93.4515	4,000.49	95.1522	4,000.49	91.0244	4,000.49	94.0882	4,000.49	90.1781	4,000.49	91.1732	4,000.49	89.6953	4,000.49	90.8763	4,000.49	89.7791	4,000.49	91.0447	4,000.49	90.4712	4,000.49	91.0408	4,000.49	91.7348	4,000.49	92.6836	4,000.49	85.1843	4,000.49	93.214	4,000.49	80.9089
4,141.11	111.892	4,141.11	111.496	4,141.11	112.155	4,141.11	110.583	4,141.11	111.303	4,141.11	109.525	4,141.11	110.393	4,141.11	107.669	4,141.11	109.225	4,141.11	105.324	4,141.11	107.611	4,141.11	102.733	4,141.11	105.022	4,141.11	99.9931	4,141.11	102.534	4,141.11	98.2904	4,141.11	99.1473	4,141.11	95.6418	4,141.11	97.3782	4,141.11	93.8539	4,141.11	94.8292	4,141.11	91.5756	4,141.11	94.4908	4,141.11	89.1051	4,141.11	90.6163	4,141.11	87.231	4,141.11	90.7246	4,141.11	89.7273	4,141.11	85.5884	4,141.11	92.7446	4,141.11	91.7738	4,141.11	92.454	4,141.11	90.8448	4,141.11	87.3074	4,141.11	92.6864	4,141.11	83.7699
4,287.6	111.876	4,287.6	111.569	4,287.6	111.401	4,287.6	110.14	4,287.6	110.961	4,287.6	109.961	4,287.6	109.906	4,287.6	108.762	4,287.6	109.253	4,287.6	106.233	4,287.6	107.344	4,287.6	102.876	4,287.6	104.457	4,287.6	100.306	4,287.6	101.067	4,287.6	96.7962	4,287.6	99.6612	4,287.6	96.0557	4,287.6	96.3675	4,287.6	92.2227	4,287.6	95.8174	4,287.6	91.4711	4,287.6	92.0382	4,287.6	89.2045	4,287.6	90.1966	4,287.6	88.1867	4,287.6	92.9195	4,287.6	86.5362	4,287.6	87.6322	4,287.6	91.9185	4,287.6	88.0773	4,287.6	90.4807	4,287.6	88.1308	4,287.6	89.2651	4,287.6	92.8795	4,287.6	80.6995
4,438.48	112.219	4,438.48	111.302	4,438.48	112.058	4,438.48	110.619	4,438.48	111.088	4,438.48	109.558	4,438.48	110.521	4,438.48	107.904	4,438.48	109.541	4,438.48	104.826	4,438.48	107.335	4,438.48	102.573	4,438.48	105.021	4,438.48	99.8167	4,438.48	102.731	4,438.48	98.6629	4,438.48	99.7769	4,438.48	95.1511	4,438.48	97.8615	4,438.48	95.0597	4,438.48	95.5443	4,438.48	91.5537	4,438.48	91.8401	4,438.48	89.0054	4,438.48	90.4277	4,438.48	90.7061	4,438.48	89.2647	4,438.48	88.7091	4,438.48	87.3606	4,438.48	92.0172	4,438.48	90.2449	4,438.48	90.9574	4,438.48	89.4727	4,438.48	85.5229	4,438.48	90.9574	4,438.48	79.5995
4,595.21	112.096	4,595.21	111.24	4,595.21	111.627	4,595.21	110.373	4,595.21	110.701	4,595.21	110.185	4,595.21	110.182	4,595.21	108.951	4,595.21	109.483	4,595.21	106.52	4,595.21	107.411	4,595.21	104.359	4,595.21	104.892	4,595.21	101.858	4,595.21	102.217	4,595.21	98.2164	4,595.21	100.126	4,595.21	96.5818	4,595.21	97.4175	4,595.21	92.7681	4,595.21	95.8597	4,595.21	92.8294	4,595.21	91.58	4,595.21	89.8116	4,595.21	91.151	4,595.21	87.9233	4,595.21	87.7114	4,595.21	89.9356	4,595.21	89.2109	4,595.21	91.3883	4,595.21	86.8098	4,595.21	88.762	4,595.21	90.8633	4,595.21	86.3789	4,595.21	90.5391	4,595.21	78.664
4,756.35	112.154	4,756.35	111.322	4,756.35	111.963	4,756.35	110.946	4,756.35	111.129	4,756.35	110.321	4,756.35	111.101	4,756.35	108.416	4,756.35	110.043	4,756.35	105.623	4,756.35	107.918	4,756.35	103.149	4,756.35	105.476	4,756.35	100.722	4,756.35	103.239	4,756.35	98.7791	4,756.35	101.075	4,756.35	96.1013	4,756.35	97.7556	4,756.35	95.3178	4,756.35	95.8942	4,756.35	92.7455	4,756.35	93.778	4,756.35	89.1144	4,756.35	91.5037	4,756.35	91.3608	4,756.35	88.8413	4,756.35	89.9878	4,756.35	90.5587	4,756.35	92.1478	4,756.35	89.0579	4,756.35	91.5451	4,756.35	91.3824	4,756.35	83.7561	4,756.35	90.7293	4,756.35	79.0679
4,924.8	111.99	4,924.8	110.932	4,924.8	111.734	4,924.8	110.471	4,924.8	110.927	4,924.8	110.313	4,924.8	110.657	4,924.8	108.801	4,924.8	110.032	4,924.8	106.96	4,924.8	108.16	4,924.8	105.293	4,924.8	106.313	4,924.8	102.45	4,924.8	103.842	4,924.8	99.7599	4,924.8	101.398	4,924.8	96.9234	4,924.8	98.6823	4,924.8	92.0596	4,924.8	96.5382	4,924.8	92.1878	4,924.8	94.1599	4,924.8	88.1073	4,924.8	92.1614	4,924.8	87.5906	4,924.8	91.4625	4,924.8	86.9571	4,924.8	90.7441	4,924.8	92.153	4,924.8	90.1758	4,924.8	90.0621	4,924.8	90.2362	4,924.8	85.4572	4,924.8	91.4755	4,924.8	83.0614
5,097.66	113.015	5,097.66	112.094	5,097.66	112.588	5,097.66	111.792	5,097.66	111.752	5,097.66	111.139	5,097.66	111.478	5,097.66	109.337	5,097.66	110.547	5,097.66	107.305	5,097.66	108.643	5,097.66	104.782	5,097.66	106.772	5,097.66	100.618	5,097.66	104.19	5,097.66	98.2673	5,097.66	101.789	5,097.66	95.9895	5,097.66	98.9323	5,097.66	95.5689	5,097.66	96.5816	5,097.66	91.366	5,097.66	93.0096	5,097.66	90.4021	5,097.66	92.315	5,097.66	90.5096	5,097.66	91.3215	5,097.66	88.8645	5,097.66	90.4034	5,097.66	92.1497	5,097.66	90.3532	5,097.66	89.9803	5,097.66	92.5039	5,097.66	81.8173	5,097.66	90.5504	5,097.66	74.1624
5,277.83	112.938	5,277.83	112.146	5,277.83	112.845	5,277.83	111.682	5,277.83	112.226	5,277.83	110.669	5,277.83	111.831	5,277.83	109.314	5,277.83	110.668	5,277.83	107.207	5,277.83	109.056	5,277.83	105.58	5,277.83	107.111	5,277.83	103.056	5,277.83	104.568	5,277.83	100.187	5,277.83	102.232	5,277.83	97.7139	5,277.83	98.0545	5,277.83	93.954	5,277.83	96.3769	5,277.83	93.9019	5,277.83	93.0654	5,277.83	90.3966	5,277.83	93.2075	5,277.83	89.5975	5,277.83	91.7179	5,277.83	87.1094	5,277.83	88.2064	5,277.83	91.3762	5,277.83	89.7153	5,277.83	90.2222	5,277.83	90.8846	5,277.83	85.1018	5,277.83	91.0613	5,277.83	79.3617
5,463.87	113.529	5,463.87	112.631	5,463.87	113.112	5,463.87	112.207	5,463.87	112.445	5,463.87	111.611	5,463.87	111.946	5,463.87	110.098	5,463.87	110.634	5,463.87	108.658	5,463.87	109.296	5,463.87	106	5,463.87	107.135	5,463.87	103.07	5,463.87	103.914	5,463.87	98.9214	5,463.87	101.699	5,463.87	96.6436	5,463.87	98.6149	5,463.87	93.7029	5,463.87	96.3437	5,463.87	90.8072	5,463.87	93.5782	5,463.87	90.2598	5,463.87	92.2319	5,463.87	91.9634	5,463.87	88.0791	5,463.87	87.8479	5,463.87	88.7706	5,463.87	92.4963	5,463.87	89.0974	5,463.87	89.7616	5,463.87	91.7054	5,463.87	84.6367	5,463.87	89.9053	5,463.87	77.9199
5,657.23	113.322	5,657.23	112.812	5,657.23	113.12	5,657.23	112.407	5,657.23	112.439	5,657.23	111.265	5,657.23	111.842	5,657.23	110.145	5,657.23	110.734	5,657.23	108.31	5,657.23	109.517	5,657.23	105.01	5,657.23	107.587	5,657.23	102.186	5,657.23	104.589	5,657.23	99.587	5,657.23	101.625	5,657.23	97.6152	5,657.23	98.6776	5,657.23	95.5578	5,657.23	96.6731	5,657.23	93.4576	5,657.23	94.7826	5,657.23	90.1703	5,657.23	90.8486	5,657.23	90.751	5,657.23	90.5667	5,657.23	89.6396	5,657.23	89.7826	5,657.23	91.7524	5,657.23	88.1964	5,657.23	90.5095	5,657.23	91.8361	5,657.23	84.2212	5,657.23	89.033	5,657.23	67.8794
5,856.45	113.179	5,856.45	112.875	5,856.45	113.258	5,856.45	112.023	5,856.45	112.971	5,856.45	111.092	5,856.45	111.977	5,856.45	110.233	5,856.45	111.267	5,856.45	108.296	5,856.45	110.495	5,856.45	105.411	5,856.45	107.875	5,856.45	102.636	5,856.45	104.682	5,856.45	100.042	5,856.45	102.402	5,856.45	97.282	5,856.45	99.5968	5,856.45	94.5161	5,856.45	96.8866	5,856.45	91.2119	5,856.45	93.9374	5,856.45	88.4445	5,856.45	93.1366	5,856.45	89.3077	5,856.45	89.9259	5,856.45	84.9417	5,856.45	89.2091	5,856.45	91.1982	5,856.45	87.3682	5,856.45	88.2358	5,856.45	93.778	5,856.45	86.0634	5,856.45	90.592	5,856.45	79.9517
6,062.99	113.174	6,062.99	112.87	6,062.99	112.973	6,062.99	111.806	6,062.99	112.913	6,062.99	111.058	6,062.99	111.871	6,062.99	110.463	6,062.99	111.214	6,062.99	108.356	6,062.99	109.977	6,062.99	105.45	6,062.99	107.345	6,062.99	102.596	6,062.99	104.617	6,062.99	99.4888	6,062.99	102.184	6,062.99	97.8081	6,062.99	99.1896	6,062.99	93.9957	6,062.99	96.7243	6,062.99	92.8877	6,062.99	94.0003	6,062.99	90.4727	6,062.99	93.0539	6,062.99	88.1132	6,062.99	88.089	6,062.99	85.4593	6,062.99	90.313	6,062.99	91.0528	6,062.99	86.6235	6,062.99	88.4668	6,062.99	93.3556	6,062.99	83.6774	6,062.99	88.4723	6,062.99	75.5077
6,276.86	113.162	6,276.86	113.106	6,276.86	113.131	6,276.86	112.377	6,276.86	112.871	6,276.86	111.689	6,276.86	111.534	6,276.86	110.789	6,276.86	111.353	6,276.86	108.531	6,276.86	109.926	6,276.86	106.116	6,276.86	107.459	6,276.86	103.391	6,276.86	105.133	6,276.86	99.8484	6,276.86	102.42	6,276.86	97.7906	6,276.86	99.3712	6,276.86	93.6802	6,276.86	96.1638	6,276.86	92.7783	6,276.86	93.2813	6,276.86	90.2863	6,276.86	92.9652	6,276.86	89.7017	6,276.86	88.2862	6,276.86	85.3683	6,276.86	88.9205	6,276.86	91.6049	6,276.86	89.7382	6,276.86	89.6331	6,276.86	92.9608	6,276.86	81.598	6,276.86	89.9912	6,276.86	71.2652
6,498.05	113.144	6,498.05	113.325	6,498.05	113.334	6,498.05	112.058	6,498.05	113.163	6,498.05	111.787	6,498.05	111.733	6,498.05	110.266	6,498.05	111.731	6,498.05	108.001	6,498.05	109.982	6,498.05	105.581	6,498.05	107.625	6,498.05	102.202	6,498.05	104.686	6,498.05	98.8592	6,498.05	102.048	6,498.05	96.4589	6,498.05	98.8214	6,498.05	93.5003	6,498.05	96.7222	6,498.05	91.9754	6,498.05	93.8936	6,498.05	89.1789	6,498.05	91.6796	6,498.05	88.9811	6,498.05	89.1198	6,498.05	84.4341	6,498.05	89.3406	6,498.05	89.367	6,498.05	90.0559	6,498.05	89.7269	6,498.05	92.6574	6,498.05	83.4725	6,498.05	89.8046	6,498.05	72.6067
6,726.56	112.889	6,726.56	112.991	6,726.56	113.248	6,726.56	111.597	6,726.56	112.836	6,726.56	111.228	6,726.56	111.804	6,726.56	109.931	6,726.56	111.502	6,726.56	107.796	6,726.56	109.671	6,726.56	105.628	6,726.56	107.681	6,726.56	102.045	6,726.56	104.825	6,726.56	99.1954	6,726.56	101.715	6,726.56	96.3757	6,726.56	98.4954	6,726.56	93.5417	6,726.56	95.7719	6,726.56	92.2621	6,726.56	93.3644	6,726.56	89.3655	6,726.56	91.8071	6,726.56	88.4981	6,726.56	89.2553	6,726.56	85.6188	6,726.56	87.9176	6,726.56	89.0866	6,726.56	86.8549	6,726.56	88.2894	6,726.56	90.7501	6,726.56	84.8928	6,726.56	89.4705	6,726.56	67.7608
6,963.87	112.816	6,963.87	113.039	6,963.87	113.007	6,963.87	112.104	6,963.87	112.646	6,963.87	111.807	6,963.87	111.922	6,963.87	110.367	6,963.87	111.426	6,963.87	108.798	6,963.87	109.923	6,963.87	106.094	6,963.87	107.812	6,963.87	102.895	6,963.87	105.278	6,963.87	99.0047	6,963.87	101.844	6,963.87	96.7251	6,963.87	98.3994	6,963.87	93.7749	6,963.87	95.7444	6,963.87	92.9233	6,963.87	93.5817	6,963.87	88.537	6,963.87	92.0361	6,963.87	89.5516	6,963.87	89.1303	6,963.87	84.8661	6,963.87	87.8239	6,963.87	89.5083	6,963.87	85.7333	6,963.87	87.7609	6,963.87	90.7237	6,963.87	86.0442	6,963.87	89.0361	6,963.87	75.5375
7,209.96	112.811	7,209.96	113.044	7,209.96	112.987	7,209.96	112.5	7,209.96	112.933	7,209.96	112.065	7,209.96	112.219	7,209.96	110.453	7,209.96	111.47	7,209.96	108.995	7,209.96	109.919	7,209.96	105.958	7,209.96	107.697	7,209.96	102.664	7,209.96	104.534	7,209.96	98.9894	7,209.96	101.826	7,209.96	96.2164	7,209.96	98.2555	7,209.96	93.8942	7,209.96	96.116	7,209.96	92.1168	7,209.96	93.8214	7,209.96	87.6634	7,209.96	92.6919	7,209.96	88.979	7,209.96	89.3322	7,209.96	85.4067	7,209.96	88.1257	7,209.96	89.3105	7,209.96	87.8951	7,209.96	87.7561	7,209.96	90.3845	7,209.96	84.1179	7,209.96	89.3766	7,209.96	59.2066
7,464.84	112.677	7,464.84	112.74	7,464.84	112.717	7,464.84	112.315	7,464.84	112.656	7,464.84	111.398	7,464.84	112.071	7,464.84	110.017	7,464.84	110.888	7,464.84	108.35	7,464.84	109.767	7,464.84	105.036	7,464.84	107.282	7,464.84	101.503	7,464.84	104.085	7,464.84	99.1671	7,464.84	101.186	7,464.84	95.9206	7,464.84	98.3698	7,464.84	93.8618	7,464.84	95.8732	7,464.84	91.5366	7,464.84	92.9819	7,464.84	88.1709	7,464.84	89.9396	7,464.84	88.4959	7,464.84	90.7435	7,464.84	85.2961	7,464.84	88.1808	7,464.84	87.8472	7,464.84	86.8253	7,464.84	88.4819	7,464.84	89.1623	7,464.84	82.8421	7,464.84	86.8378	7,464.84	76.2068
7,727.05	112.316	7,727.05	112.128	7,727.05	112.353	7,727.05	111.941	7,727.05	112.13	7,727.05	110.39	7,727.05	111.647	7,727.05	109.743	7,727.05	110.242	7,727.05	107.488	7,727.05	109.339	7,727.05	104.558	7,727.05	106.895	7,727.05	101.151	7,727.05	104.072	7,727.05	98.1158	7,727.05	101.208	7,727.05	95.8131	7,727.05	97.4427	7,727.05	92.3744	7,727.05	94.423	7,727.05	89.5937	7,727.05	91.6845	7,727.05	87.9734	7,727.05	89.6002	7,727.05	87.8291	7,727.05	88.2397	7,727.05	86.4806	7,727.05	86.6857	7,727.05	86.4434	7,727.05	84.2059	7,727.05	87.2561	7,727.05	88.7082	7,727.05	83.4141	7,727.05	85.6034	7,727.05	77.5124
7,999.51	112.181	7,999.51	111.825	7,999.51	111.98	7,999.51	111.784	7,999.51	111.996	7,999.51	110.48	7,999.51	111.326	7,999.51	109.569	7,999.51	110.266	7,999.51	106.963	7,999.51	108.896	7,999.51	104.17	7,999.51	106.382	7,999.51	101.129	7,999.51	103.187	7,999.51	97.8291	7,999.51	100.479	7,999.51	94.0348	7,999.51	96.1121	7,999.51	92.2922	7,999.51	94.2901	7,999.51	89.698	7,999.51	90.8674	7,999.51	87.6875	7,999.51	90.746	7,999.51	87.6243	7,999.51	86.7617	7,999.51	84.1096	7,999.51	84.5681	7,999.51	85.9876	7,999.51	80.4618	7,999.51	85.008	7,999.51	88.7929	7,999.51	84.2119	7,999.51	85.9886	7,999.51	74.3318
8,282.23	111.851	8,282.23	111.736	8,282.23	111.642	8,282.23	111.546	8,282.23	112.151	8,282.23	110.806	8,282.23	111.326	8,282.23	109.215	8,282.23	110.524	8,282.23	106.921	8,282.23	108.601	8,282.23	103.784	8,282.23	105.889	8,282.23	100.011	8,282.23	102.291	8,282.23	97.3045	8,282.23	99.2376	8,282.23	93.83	8,282.23	95.7132	8,282.23	90.7119	8,282.23	93.9647	8,282.23	88.8522	8,282.23	90.3328	8,282.23	87.775	8,282.23	88.7204	8,282.23	86.9835	8,282.23	86.9731	8,282.23	84.4471	8,282.23	85.7159	8,282.23	85.0688	8,282.23	83.0695	8,282.23	83.9955	8,282.23	87.9449	8,282.23	82.7976	8,282.23	86.6368	8,282.23	72.2921
8,573.73	111.747	8,573.73	111.754	8,573.73	111.709	8,573.73	111.445	8,573.73	112.02	8,573.73	110.677	8,573.73	111.162	8,573.73	108.993	8,573.73	110.612	8,573.73	106.908	8,573.73	108.538	8,573.73	103.177	8,573.73	106.024	8,573.73	99.3575	8,573.73	103.056	8,573.73	96.8966	8,573.73	99.8987	8,573.73	93.9276	8,573.73	96.3314	8,573.73	89.7642	8,573.73	93.2249	8,573.73	89.0745	8,573.73	89.5842	8,573.73	87.449	8,573.73	88.7764	8,573.73	86.8082	8,573.73	86.7033	8,573.73	84.4176	8,573.73	85.6003	8,573.73	81.1744	8,573.73	82.7133	8,573.73	83.8869	8,573.73	86.2389	8,573.73	81.8845	8,573.73	85.4077	8,573.73	76.9428
8,876.95	111.81	8,876.95	111.63	8,876.95	111.542	8,876.95	111.197	8,876.95	111.756	8,876.95	110.584	8,876.95	110.97	8,876.95	108.614	8,876.95	110.309	8,876.95	106.646	8,876.95	108.024	8,876.95	103.193	8,876.95	105.886	8,876.95	100.21	8,876.95	103.098	8,876.95	97.1446	8,876.95	100.059	8,876.95	93.777	8,876.95	96.2999	8,876.95	89.2019	8,876.95	92.6694	8,876.95	89.3568	8,876.95	90.3551	8,876.95	87.4866	8,876.95	89.312	8,876.95	84.756	8,876.95	86.0415	8,876.95	81.9676	8,876.95	85.3791	8,876.95	83.6021	8,876.95	83.2151	8,876.95	84.2805	8,876.95	86.2186	8,876.95	82.0208	8,876.95	83.357	8,876.95	72.7984
9,188.96	111.257	9,188.96	111.238	9,188.96	111.164	9,188.96	110.741	9,188.96	111.427	9,188.96	110.179	9,188.96	110.728	9,188.96	108.19	9,188.96	109.683	9,188.96	106.227	9,188.96	107.858	9,188.96	103.12	9,188.96	105.174	9,188.96	99.4812	9,188.96	102.192	9,188.96	96.536	9,188.96	98.727	9,188.96	90.9965	9,188.96	94.9989	9,188.96	89.3468	9,188.96	91.597	9,188.96	87.055	9,188.96	89.6474	9,188.96	87.2791	9,188.96	87.7782	9,188.96	81.351	9,188.96	85.6877	9,188.96	79.9517	9,188.96	84.944	9,188.96	82.1959	9,188.96	82.2482	9,188.96	81.5947	9,188.96	85.7848	9,188.96	81.1658	9,188.96	83.3828	9,188.96	74.1484
9,514.16	110.817	9,514.16	110.89	9,514.16	110.855	9,514.16	110.658	9,514.16	111.11	9,514.16	109.757	9,514.16	110.475	9,514.16	108.101	9,514.16	109.329	9,514.16	105.871	9,514.16	107.892	9,514.16	103.031	9,514.16	104.874	9,514.16	98.0891	9,514.16	101.944	9,514.16	94.8689	9,514.16	98.6644	9,514.16	91.3305	9,514.16	94.4368	9,514.16	88.6133	9,514.16	90.584	9,514.16	88.213	9,514.16	88.7536	9,514.16	86.404	9,514.16	85.6256	9,514.16	80.9509	9,514.16	85.4485	9,514.16	79.0301	9,514.16	85.0017	9,514.16	76.5467	9,514.16	81.6184	9,514.16	81.4783	9,514.16	86.4287	9,514.16	78.8511	9,514.16	84.8905	9,514.16	71.01
9,849.61	110.788	9,849.61	111.127	9,849.61	111.088	9,849.61	110.556	9,849.61	111.025	9,849.61	109.395	9,849.61	110.435	9,849.61	108.021	9,849.61	108.997	9,849.61	105.559	9,849.61	107.425	9,849.61	102.824	9,849.61	105.043	9,849.61	98.2735	9,849.61	101.447	9,849.61	95.6492	9,849.61	97.1908	9,849.61	91.0528	9,849.61	94.844	9,849.61	89.3844	9,849.61	91.3099	9,849.61	87.6284	9,849.61	89.5802	9,849.61	84.509	9,849.61	87.0257	9,849.61	79.0921	9,849.61	87.4041	9,849.61	79.3238	9,849.61	85.5723	9,849.61	75.9586	9,849.61	82.8361	9,849.61	77.6282	9,849.61	85.8178	9,849.61	81.1531	9,849.61	84.6848	9,849.61	68.1604
10,196.8	110.804	10,196.8	110.791	10,196.8	110.883	10,196.8	110.314	10,196.8	110.789	10,196.8	109.049	10,196.8	110.216	10,196.8	107.176	10,196.8	108.932	10,196.8	105.301	10,196.8	106.93	10,196.8	102.243	10,196.8	104.814	10,196.8	98.0706	10,196.8	100.856	10,196.8	95.0412	10,196.8	98.018	10,196.8	91.633	10,196.8	94.7734	10,196.8	89.0184	10,196.8	91.1578	10,196.8	86.8787	10,196.8	88.3503	10,196.8	84.9763	10,196.8	85.3373	10,196.8	79.5669	10,196.8	87.2915	10,196.8	78.2029	10,196.8	83.7677	10,196.8	72.8301	10,196.8	81.4706	10,196.8	79.684	10,196.8	83.0206	10,196.8	80.6233	10,196.8	82.091	10,196.8	73.7576
10,555.7	110.138	10,555.7	110.136	10,555.7	110.536	10,555.7	109.855	10,555.7	110.227	10,555.7	108.531	10,555.7	109.597	10,555.7	106.611	10,555.7	108.395	10,555.7	104.685	10,555.7	106.51	10,555.7	101.68	10,555.7	104.214	10,555.7	97.6567	10,555.7	101.016	10,555.7	94.1162	10,555.7	97.9267	10,555.7	90.6719	10,555.7	93.8562	10,555.7	87.5466	10,555.7	89.8973	10,555.7	86.8723	10,555.7	87.0513	10,555.7	82.6524	10,555.7	86.5591	10,555.7	73.0431	10,555.7	85.4368	10,555.7	71.0475	10,555.7	83.2995	10,555.7	70.4039	10,555.7	79.155	10,555.7	77.369	10,555.7	84.0177	10,555.7	78.3215	10,555.7	80.6772	10,555.7	69.3868
10,927.7	109.769	10,927.7	109.641	10,927.7	109.909	10,927.7	109.339	10,927.7	109.902	10,927.7	108.073	10,927.7	109.194	10,927.7	106.054	10,927.7	107.944	10,927.7	103.751	10,927.7	105.985	10,927.7	101.353	10,927.7	103.607	10,927.7	96.4059	10,927.7	100.727	10,927.7	93.0926	10,927.7	95.6639	10,927.7	90.3436	10,927.7	92.862	10,927.7	86.8052	10,927.7	89.2907	10,927.7	84.5053	10,927.7	86.7826	10,927.7	80.6126	10,927.7	85.4916	10,927.7	73.8267	10,927.7	85.5159	10,927.7	69.7593	10,927.7	81.7974	10,927.7	64.7943	10,927.7	79.0923	10,927.7	74.2218	10,927.7	83.8816	10,927.7	79.6657	10,927.7	80.6448	10,927.7	63.4503
11,313	111.388	11,313	111.328	11,313	111.514	11,313	110.543	11,313	111.381	11,313	109.539	11,313	110.556	11,313	107.489	11,313	109.307	11,313	105.158	11,313	107.513	11,313	102.585	11,313	104.758	11,313	97.4823	11,313	101.287	11,313	94.6222	11,313	98.0379	11,313	92.2834	11,313	94.5019	11,313	88.7171	11,313	90.1148	11,313	86.2836	11,313	88.5258	11,313	81.0879	11,313	87.6516	11,313	71.3842	11,313	84.83	11,313	70.3355	11,313	82.1109	11,313	67.1063	11,313	79.9749	11,313	77.0446	11,313	84.5907	11,313	80.5277	11,313	78.4238	11,313	71.2458
11,712.9	112.415	11,712.9	112.238	11,712.9	112.469	11,712.9	111.468	11,712.9	112.358	11,712.9	110.666	11,712.9	111.617	11,712.9	108.581	11,712.9	110.452	11,712.9	105.833	11,712.9	108.454	11,712.9	103.07	11,712.9	105.984	11,712.9	99.1107	11,712.9	102.709	11,712.9	95.4046	11,712.9	98.9446	11,712.9	93.7582	11,712.9	95.7806	11,712.9	87.8366	11,712.9	91.3722	11,712.9	86.7078	11,712.9	89.5786	11,712.9	82.2086	11,712.9	87.9495	11,712.9	76.3916	11,712.9	85.8159	11,712.9	71.5189	11,712.9	83.6898	11,712.9	71.7967	11,712.9	78.9036	11,712.9	76.5537	11,712.9	85.6293	11,712.9	78.9465	11,712.9	81.0585	11,712.9	69.8988
12,126	112.397	12,126	112.013	12,126	112.587	12,126	110.913	12,126	112.431	12,126	110.187	12,126	112.014	12,126	107.772	12,126	110.713	12,126	105.185	12,126	108.501	12,126	102.389	12,126	106.299	12,126	98.6211	12,126	103.065	12,126	94.1456	12,126	99.9475	12,126	91.9342	12,126	95.4847	12,126	87.1245	12,126	91.5955	12,126	87.0159	12,126	89.2703	12,126	81.5735	12,126	88.4474	12,126	73.59	12,126	85.7162	12,126	59.8734	12,126	82.7236	12,126	72.1153	12,126	78.6878	12,126	75.5402	12,126	83.3843	12,126	76.3799	12,126	78.6886	12,126	73.2929
12,553.7	111.48	12,553.7	111.017	12,553.7	111.754	12,553.7	110.187	12,553.7	111.389	12,553.7	108.762	12,553.7	110.756	12,553.7	106.666	12,553.7	109.519	12,553.7	103.808	12,553.7	107.221	12,553.7	101.784	12,553.7	104.82	12,553.7	97.4365	12,553.7	102.526	12,553.7	93.3136	12,553.7	98.4369	12,553.7	91.134	12,553.7	94.3862	12,553.7	86.4099	12,553.7	90.9726	12,553.7	84.8166	12,553.7	88.5907	12,553.7	79.7705	12,553.7	87.3595	12,553.7	75.969	12,553.7	82.6346	12,553.7	65.4445	12,553.7	81.4814	12,553.7	72.6132	12,553.7	76.7803	12,553.7	69.9147	12,553.7	81.232	12,553.7	60.0223	12,553.7	75.8192	12,553.7	75.0428
12,996.1	112.274	12,996.1	111.786	12,996.1	112.212	12,996.1	110.902	12,996.1	111.905	12,996.1	109.818	12,996.1	111.203	12,996.1	107.789	12,996.1	109.879	12,996.1	104.782	12,996.1	107.571	12,996.1	102.782	12,996.1	105.111	12,996.1	98.657	12,996.1	102.149	12,996.1	94.464	12,996.1	98.6746	12,996.1	90.8275	12,996.1	94.1919	12,996.1	88.2917	12,996.1	91.1258	12,996.1	85.5315	12,996.1	88.1035	12,996.1	82.4361	12,996.1	87.7151	12,996.1	75.929	12,996.1	82.9236	12,996.1	65.4904	12,996.1	81.4126	12,996.1	75.7087	12,996.1	75.3271	12,996.1	64.069	12,996.1	80.9563	12,996.1	70.6146	12,996.1	75.1696	12,996.1	76.3895
13,454.6	113.321	13,454.6	113.122	13,454.6	113.392	13,454.6	112.4	13,454.6	112.834	13,454.6	111.288	13,454.6	112.114	13,454.6	109.099	13,454.6	110.672	13,454.6	106.421	13,454.6	108.314	13,454.6	103.615	13,454.6	105.881	13,454.6	99.2368	13,454.6	102.527	13,454.6	94.8094	13,454.6	98.5501	13,454.6	91.6283	13,454.6	94.12	13,454.6	88.4765	13,454.6	91.5062	13,454.6	84.9411	13,454.6	88.9591	13,454.6	80.2993	13,454.6	88.1435	13,454.6	75.2143	13,454.6	80.4678	13,454.6	49.3294	13,454.6	80.9181	13,454.6	77.2407	13,454.6	75.3084	13,454.6	64.5281	13,454.6	79.7289	13,454.6	72.5481	13,454.6	72.6175	13,454.6	77.837
13,929.2	113.979	13,929.2	113.563	13,929.2	113.892	13,929.2	113	13,929.2	113.508	13,929.2	111.955	13,929.2	112.645	13,929.2	109.795	13,929.2	111.423	13,929.2	106.941	13,929.2	108.815	13,929.2	104.112	13,929.2	106.189	13,929.2	99.3808	13,929.2	102.902	13,929.2	94.4875	13,929.2	98.9179	13,929.2	91.8675	13,929.2	93.8651	13,929.2	89.6104	13,929.2	91.5309	13,929.2	85.6511	13,929.2	87.4926	13,929.2	81.0539	13,929.2	87.8805	13,929.2	77.439	13,929.2	81.3128	13,929.2	53.0257	13,929.2	81.7391	13,929.2	78.0402	13,929.2	77.3984	13,929.2	71.3565	13,929.2	80.1874	13,929.2	62.4135	13,929.2	74.8746	13,929.2	80.6197
14,419.9	113.875	14,419.9	113.54	14,419.9	113.965	14,419.9	113.065	14,419.9	113.45	14,419.9	111.96	14,419.9	112.502	14,419.9	109.564	14,419.9	111.209	14,419.9	106.659	14,419.9	108.501	14,419.9	104.069	14,419.9	105.75	14,419.9	99.5173	14,419.9	102.718	14,419.9	95.0434	14,419.9	98.9045	14,419.9	92.2799	14,419.9	93.3258	14,419.9	89.6704	14,419.9	91.1507	14,419.9	85.528	14,419.9	87.3683	14,419.9	78.9922	14,419.9	87.9343	14,419.9	78.3059	14,419.9	77.7715	14,419.9	58.5993	14,419.9	80.7821	14,419.9	77.3035	14,419.9	74.6239	14,419.9	76.2782	14,419.9	77.9917	14,419.9	73.9644	14,419.9	76.3975	14,419.9	80.6358
14,928.2	112.901	14,928.2	112.663	14,928.2	113.081	14,928.2	112.125	14,928.2	112.625	14,928.2	110.914	14,928.2	111.436	14,928.2	108.383	14,928.2	110.132	14,928.2	105.366	14,928.2	107.417	14,928.2	102.6	14,928.2	104.757	14,928.2	98.7752	14,928.2	101.162	14,928.2	93.3348	14,928.2	98.2351	14,928.2	91.1658	14,928.2	92.4478	14,928.2	88.5126	14,928.2	89.7524	14,928.2	84.405	14,928.2	85.8082	14,928.2	77.9627	14,928.2	87.0815	14,928.2	77.6507	14,928.2	78.9864	14,928.2	63.8318	14,928.2	80.0402	14,928.2	77.0703	14,928.2	74.3607	14,928.2	79.4182	14,928.2	74.3031	14,928.2	79.6631	14,928.2	76.1974	14,928.2	79.9591
15,455.6	111.027	15,455.6	110.695	15,455.6	111.501	15,455.6	110.134	15,455.6	111.104	15,455.6	108.458	15,455.6	110.07	15,455.6	106.114	15,455.6	108.705	15,455.6	103.19	15,455.6	105.885	15,455.6	99.9835	15,455.6	103.442	15,455.6	96.0607	15,455.6	100.068	15,455.6	89.7843	15,455.6	95.9916	15,455.6	89.5233	15,455.6	90.7654	15,455.6	85.0902	15,455.6	88.3192	15,455.6	80.115	15,455.6	84.1196	15,455.6	74.5848	15,455.6	85.2542	15,455.6	76.1059	15,455.6	77.2119	15,455.6	66.1225	15,455.6	78.0274	15,455.6	74.1091	15,455.6	73.3381	15,455.6	78.7286	15,455.6	77.4178	15,455.6	78.5801	15,455.6	70.3899	15,455.6	74.9211
16,000.5	108.696	16,000.5	108.531	16,000.5	109.488	16,000.5	107.8	16,000.5	109.018	16,000.5	105.771	16,000.5	108.196	16,000.5	103.232	16,000.5	107.112	16,000.5	100.569	16,000.5	104.326	16,000.5	97.7852	16,000.5	101.355	16,000.5	94.2708	16,000.5	97.7815	16,000.5	87.5566	16,000.5	94.4657	16,000.5	87.9831	16,000.5	88.8689	16,000.5	82.054	16,000.5	86.4586	16,000.5	75.8264	16,000.5	82.4966	16,000.5	66.8485	16,000.5	83.4873	16,000.5	74.4205	16,000.5	77.491	16,000.5	68.2316	16,000.5	77.2003	16,000.5	71.4284	16,000.5	75.6888	16,000.5	78.3184	16,000.5	77.212	16,000.5	78.879	16,000.5	64.7007	16,000.5	74.4844
16,564.5	109.682	16,564.5	110.367	16,564.5	110.231	16,564.5	109.928	16,564.5	109.073	16,564.5	108.049	16,564.5	108.116	16,564.5	105.687	16,564.5	106.643	16,564.5	103.138	16,564.5	103.782	16,564.5	100.575	16,564.5	100.346	16,564.5	97.4655	16,564.5	96.7672	16,564.5	89.6376	16,564.5	93.3881	16,564.5	91.2565	16,564.5	86.8546	16,564.5	82.9063	16,564.5	86.0871	16,564.5	74.2158	16,564.5	78.8697	16,564.5	62.2071	16,564.5	82.21	16,564.5	76.8145	16,564.5	80.3329	16,564.5	71.9845	16,564.5	77.4134	16,564.5	76.9401	16,564.5	79.5915	16,564.5	82.3908	16,564.5	80.4231	16,564.5	83.0912	16,564.5	74.9769	16,564.5	78.3676
17,148.9	110.107	17,148.9	111.329	17,148.9	110.688	17,148.9	111.122	17,148.9	108.807	17,148.9	109.248	17,148.9	107.474	17,148.9	106.781	17,148.9	105.309	17,148.9	104.228	17,148.9	101.996	17,148.9	102.064	17,148.9	98.6676	17,148.9	98.5915	17,148.9	95.6929	17,148.9	90.4609	17,148.9	92.5427	17,148.9	93.2288	17,148.9	85.3764	17,148.9	81.7317	17,148.9	84.9276	17,148.9	72.2551	17,148.9	77.752	17,148.9	69.4781	17,148.9	84.1349	17,148.9	79.9258	17,148.9	82.4642	17,148.9	76.687	17,148.9	78.4926	17,148.9	81.4039	17,148.9	80.985	17,148.9	86.0169	17,148.9	83.4891	17,148.9	86.5631	17,148.9	79.8257	17,148.9	82.272
17,752.4	109.956	17,752.4	111.092	17,752.4	110.936	17,752.4	110.729	17,752.4	108.744	17,752.4	108.708	17,752.4	107.681	17,752.4	106.049	17,752.4	105.564	17,752.4	103.49	17,752.4	102.12	17,752.4	101.165	17,752.4	99.1995	17,752.4	98.2036	17,752.4	96.6845	17,752.4	89.8801	17,752.4	93.3461	17,752.4	92.4793	17,752.4	86.6516	17,752.4	73.3676	17,752.4	81.0592	17,752.4	74.5597	17,752.4	80.3856	17,752.4	73.4513	17,752.4	84.6624	17,752.4	80.3856	17,752.4	82.9692	17,752.4	78.6448	17,752.4	78.3565	17,752.4	82.439	17,752.4	81.9809	17,752.4	86.7683	17,752.4	84.7732	17,752.4	87.6369	17,752.4	81.9224	17,752.4	84.1079
18,379.4	110.881	18,379.4	112.029	18,379.4	112.187	18,379.4	111.234	18,379.4	110.205	18,379.4	108.795	18,379.4	109.6	18,379.4	105.908	18,379.4	107.577	18,379.4	103.697	18,379.4	104.533	18,379.4	100.874	18,379.4	101.876	18,379.4	98.5803	18,379.4	98.923	18,379.4	92.6418	18,379.4	94.9623	18,379.4	92.3046	18,379.4	89.1867	18,379.4	69.7807	18,379.4	82.993	18,379.4	79.1611	18,379.4	83.7108	18,379.4	78.789	18,379.4	86.7191	18,379.4	84.6254	18,379.4	83.3758	18,379.4	81.4648	18,379.4	79.663	18,379.4	84.6794	18,379.4	82.6629	18,379.4	88.2836	18,379.4	85.0483	18,379.4	89.1238	18,379.4	84.3945	18,379.4	84.821
19,026.9	111.559	19,026.9	112.551	19,026.9	112.962	19,026.9	111.031	19,026.9	111.318	19,026.9	107.834	19,026.9	111.197	19,026.9	104.124	19,026.9	108.953	19,026.9	102.404	19,026.9	106.136	19,026.9	99.549	19,026.9	103.49	19,026.9	97.5959	19,026.9	100.321	19,026.9	93.5687	19,026.9	97.0149	19,026.9	91.3219	19,026.9	90.5012	19,026.9	80.4754	19,026.9	82.5725	19,026.9	83.0096	19,026.9	85.3323	19,026.9	82.2213	19,026.9	87.3946	19,026.9	86.727	19,026.9	84.6936	19,026.9	82.9751	19,026.9	80.8289	19,026.9	85.4468	19,026.9	83.4129	19,026.9	88.886	19,026.9	84.7717	19,026.9	90.1232	19,026.9	86.4411	19,026.9	85.2477
19,697.8	109.057	19,697.8	110.077	19,697.8	110.228	19,697.8	107.317	19,697.8	109.099	19,697.8	103.032	19,697.8	109.263	19,697.8	99.2496	19,697.8	106.945	19,697.8	98.1295	19,697.8	104.147	19,697.8	95.8162	19,697.8	101.614	19,697.8	95.0239	19,697.8	98.6488	19,697.8	92.6274	19,697.8	95.0106	19,697.8	86.981	19,697.8	88.5593	19,697.8	82.7943	19,697.8	82.12	19,697.8	81.9733	19,697.8	83.3822	19,697.8	81.7956	19,697.8	84.4031	19,697.8	85.2504	19,697.8	83.2248	19,697.8	82.2303	19,697.8	79.5885	19,697.8	83.3819	19,697.8	80.9435	19,697.8	86.3476	19,697.8	77.1105	19,697.8	88.4631	19,697.8	84.7075	19,697.8	83.2234
19,999.5	106.144	19,999.5	107.455	19,999.5	107.042	19,999.5	104.042	19,999.5	106.326	19,999.5	100.33	19,999.5	106.871	19,999.5	95.7205	19,999.5	104.912	19,999.5	96.0997	19,999.5	102.082	19,999.5	92.8914	19,999.5	99.5606	19,999.5	92.7078	19,999.5	96.241	19,999.5	92.0003	19,999.5	92.9873	19,999.5	86.3242	19,999.5	84.5509	19,999.5	83.7914	19,999.5	84.1231	19,999.5	82.9006	19,999.5	76.3306	19,999.5	77.2953	19,999.5	78.9003	19,999.5	85.3891	19,999.5	81.1731	19,999.5	83.2544	19,999.5	77.2795	19,999.5	80.4877	19,999.5	77.263	19,999.5	82.4995	19,999.5	75.7708	19,999.5	86.0523	19,999.5	79.886	19,999.5	80.2359
