"SPL Horizontal"
"On-Axis"		"10°"		"-10°"		"20°"		"-20°"		"30°"		"-30°"		"40°"		"-40°"		"50°"		"-50°"		"60°"		"-60°"		"70°"		"-70°"		"80°"		"-80°"		"90°"		"-90°"		"100°"		"-100°"		"110°"		"-110°"		"120°"		"-120°"		"130°"		"-130°"		"140°"		"-140°"		"150°"		"-150°"		"160°"		"-160°"		"170°"		"-170°"		"180°"
"Frequency / Hz"	"Sound Pressure Level / dB (re 20 µPa/V)  [2.83  V @ 1. m]"	"Frequency / Hz"	"Sound Pressure Level / dB (re 20 µPa/V)  [2.83  V @ 1. m]"	"Frequency / Hz"	"Sound Pressure Level / dB (re 20 µPa/V)  [2.83  V @ 1. m]"	"Frequency / Hz"	"Sound Pressure Level / dB (re 20 µPa/V)  [2.83  V @ 1. m]"	"Frequency / Hz"	"Sound Pressure Level / dB (re 20 µPa/V)  [2.83  V @ 1. m]"	"Frequency / Hz"	"Sound Pressure Level / dB (re 20 µPa/V)  [2.83  V @ 1. m]"	"Frequency / Hz"	"Sound Pressure Level / dB (re 20 µPa/V)  [2.83  V @ 1. m]"	"Frequency / Hz"	"Sound Pressure Level / dB (re 20 µPa/V)  [2.83  V @ 1. m]"	"Frequency / Hz"	"Sound Pressure Level / dB (re 20 µPa/V)  [2.83  V @ 1. m]"	"Frequency / Hz"	"Sound Pressure Level / dB (re 20 µPa/V)  [2.83  V @ 1. m]"	"Frequency / Hz"	"Sound Pressure Level / dB (re 20 µPa/V)  [2.83  V @ 1. m]"	"Frequency / Hz"	"Sound Pressure Level / dB (re 20 µPa/V)  [2.83  V @ 1. m]"	"Frequency / Hz"	"Sound Pressure Level / dB (re 20 µPa/V)  [2.83  V @ 1. m]"	"Frequency / Hz"	"Sound Pressure Level / dB (re 20 µPa/V)  [2.83  V @ 1. m]"	"Frequency / Hz"	"Sound Pressure Level / dB (re 20 µPa/V)  [2.83  V @ 1. m]"	"Frequency / Hz"	"Sound Pressure Level / dB (re 20 µPa/V)  [2.83  V @ 1. m]"	"Frequency / Hz"	"Sound Pressure Level / dB (re 20 µPa/V)  [2.83  V @ 1. m]"	"Frequency / Hz"	"Sound Pressure Level / dB (re 20 µPa/V)  [2.83  V @ 1. m]"	"Frequency / Hz"	"Sound Pressure Level / dB (re 20 µPa/V)  [2.83  V @ 1. m]"	"Frequency / Hz"	"Sound Pressure Level / dB (re 20 µPa/V)  [2.83  V @ 1. m]"	"Frequency / Hz"	"Sound Pressure Level / dB (re 20 µPa/V)  [2.83  V @ 1. m]"	"Frequency / Hz"	"Sound Pressure Level / dB (re 20 µPa/V)  [2.83  V @ 1. m]"	"Frequency / Hz"	"Sound Pressure Level / dB (re 20 µPa/V)  [2.83  V @ 1. m]"	"Frequency / Hz"	"Sound Pressure Level / dB (re 20 µPa/V)  [2.83  V @ 1. m]"	"Frequency / Hz"	"Sound Pressure Level / dB (re 20 µPa/V)  [2.83  V @ 1. m]"	"Frequency / Hz"	"Sound Pressure Level / dB (re 20 µPa/V)  [2.83  V @ 1. m]"	"Frequency / Hz"	"Sound Pressure Level / dB (re 20 µPa/V)  [2.83  V @ 1. m]"	"Frequency / Hz"	"Sound Pressure Level / dB (re 20 µPa/V)  [2.83  V @ 1. m]"	"Frequency / Hz"	"Sound Pressure Level / dB (re 20 µPa/V)  [2.83  V @ 1. m]"	"Frequency / Hz"	"Sound Pressure Level / dB (re 20 µPa/V)  [2.83  V @ 1. m]"	"Frequency / Hz"	"Sound Pressure Level / dB (re 20 µPa/V)  [2.83  V @ 1. m]"	"Frequency / Hz"	"Sound Pressure Level / dB (re 20 µPa/V)  [2.83  V @ 1. m]"	"Frequency / Hz"	"Sound Pressure Level / dB (re 20 µPa/V)  [2.83  V @ 1. m]"	"Frequency / Hz"	"Sound Pressure Level / dB (re 20 µPa/V)  [2.83  V @ 1. m]"	"Frequency / Hz"	"Sound Pressure Level / dB (re 20 µPa/V)  [2.83  V @ 1. m]"	"Frequency / Hz"	"Sound Pressure Level / dB (re 20 µPa/V)  [2.83  V @ 1. m]"
20.5078	60.4297	20.5078	60.3839	20.5078	60.4695	20.5078	60.3331	20.5078	60.5001	20.5078	60.2743	20.5078	60.5172	20.5078	60.2007	20.5078	60.5163	20.5078	60.1016	20.5078	60.4924	20.5078	59.9642	20.5078	60.4398	20.5078	59.7763	20.5078	60.3511	20.5078	59.5292	20.5078	60.2176	20.5078	59.2213	20.5078	60.0303	20.5078	58.8622	20.5078	59.7834	20.5078	58.4772	20.5078	59.4804	20.5078	58.1107	20.5078	59.1402	20.5078	57.8193	20.5078	58.7976	20.5078	57.6509	20.5078	58.495	20.5078	57.6166	20.5078	58.2635	20.5078	57.682	20.5078	58.106	20.5078	57.7905	20.5078	57.9966	20.5078	57.8988
21.9727	65.3547	21.9727	65.2925	21.9727	65.427	21.9727	65.2411	21.9727	65.5082	21.9727	65.2005	21.9727	65.5961	21.9727	65.1706	21.9727	65.6879	21.9727	65.1513	21.9727	65.7803	21.9727	65.1433	21.9727	65.8701	21.9727	65.1489	21.9727	65.9548	21.9727	65.1718	21.9727	66.033	21.9727	65.2172	21.9727	66.1048	21.9727	65.2909	21.9727	66.1714	21.9727	65.3967	21.9727	66.2345	21.9727	65.5348	21.9727	66.2953	21.9727	65.6994	21.9727	66.3533	21.9727	65.8785	21.9727	66.406	21.9727	66.0557	21.9727	66.4476	21.9727	66.2137	21.9727	66.4703	21.9727	66.3385	21.9727	66.4647	21.9727	66.4225
23.4375	68.2274	23.4375	68.2003	23.4375	68.2602	23.4375	68.1796	23.4375	68.2971	23.4375	68.1657	23.4375	68.3367	23.4375	68.1581	23.4375	68.3775	23.4375	68.1559	23.4375	68.4181	23.4375	68.1581	23.4375	68.4574	23.4375	68.1638	23.4375	68.4941	23.4375	68.1729	23.4375	68.527	23.4375	68.1856	23.4375	68.5547	23.4375	68.2026	23.4375	68.5762	23.4375	68.2247	23.4375	68.5908	23.4375	68.2522	23.4375	68.5981	23.4375	68.2852	23.4375	68.5984	23.4375	68.3236	23.4375	68.5919	23.4375	68.3661	23.4375	68.5788	23.4375	68.411	23.4375	68.5586	23.4375	68.4553	23.4375	68.531	23.4375	68.4962
24.9023	70.4949	24.9023	70.4872	24.9023	70.5067	24.9023	70.484	24.9023	70.5218	24.9023	70.4854	24.9023	70.5392	24.9023	70.4908	24.9023	70.558	24.9023	70.4988	24.9023	70.5773	24.9023	70.5081	24.9023	70.5965	24.9023	70.5169	24.9023	70.6145	24.9023	70.5234	24.9023	70.6301	24.9023	70.5263	24.9023	70.6414	24.9023	70.5243	24.9023	70.646	24.9023	70.5169	24.9023	70.6418	24.9023	70.5044	24.9023	70.6275	24.9023	70.4881	24.9023	70.6035	24.9023	70.4706	24.9023	70.5723	24.9023	70.4554	24.9023	70.5375	24.9023	70.4461	24.9023	70.5038	24.9023	70.4456	24.9023	70.4754	24.9023	70.4554
26.3672	72.6528	26.3672	72.6603	26.3672	72.6446	26.3672	72.667	26.3672	72.6356	26.3672	72.6726	26.3672	72.6255	26.3672	72.6764	26.3672	72.6141	26.3672	72.6771	26.3672	72.6014	26.3672	72.6735	26.3672	72.5872	26.3672	72.6644	26.3672	72.5715	26.3672	72.6488	26.3672	72.5538	26.3672	72.6263	26.3672	72.5334	26.3672	72.5967	26.3672	72.5097	26.3672	72.5608	26.3672	72.4823	26.3672	72.52	26.3672	72.4517	26.3672	72.4768	26.3672	72.4193	26.3672	72.434	26.3672	72.3878	26.3672	72.3952	26.3672	72.3604	26.3672	72.3633	26.3672	72.3401	26.3672	72.3409	26.3672	72.3293	26.3672	72.3294
27.832	74.2301	27.832	74.2271	27.832	74.2322	27.832	74.2234	27.832	74.233	27.832	74.2187	27.832	74.2321	27.832	74.2128	27.832	74.229	27.832	74.2049	27.832	74.2232	27.832	74.1939	27.832	74.2143	27.832	74.1789	27.832	74.2014	27.832	74.1587	27.832	74.1838	27.832	74.1323	27.832	74.1604	27.832	74.0993	27.832	74.1305	27.832	74.06	27.832	74.0938	27.832	74.0156	27.832	74.0509	27.832	73.9687	27.832	74.0041	27.832	73.9229	27.832	73.9563	27.832	73.8828	27.832	73.9116	27.832	73.8526	27.832	73.8741	27.832	73.8358	27.832	73.8473	27.832	73.834
29.2969	75.4473	29.2969	75.4365	29.2969	75.4521	29.2969	75.4197	29.2969	75.451	29.2969	75.3964	29.2969	75.4441	29.2969	75.3665	29.2969	75.4313	29.2969	75.3295	29.2969	75.4124	29.2969	75.2851	29.2969	75.3874	29.2969	75.2335	29.2969	75.356	29.2969	75.175	29.2969	75.318	29.2969	75.1104	29.2969	75.2732	29.2969	75.0414	29.2969	75.2213	29.2969	74.9703	29.2969	75.1627	29.2969	74.9007	29.2969	75.0985	29.2969	74.837	29.2969	75.0306	29.2969	74.7842	29.2969	74.962	29.2969	74.7468	29.2969	74.896	29.2969	74.728	29.2969	74.8361	29.2969	74.7291	29.2969	74.7861	29.2969	74.7493
30.7617	77.7407	30.7617	77.7427	30.7617	77.7346	30.7617	77.7407	30.7617	77.7247	30.7617	77.7344	30.7617	77.711	30.7617	77.7237	30.7617	77.6935	30.7617	77.7085	30.7617	77.6724	30.7617	77.6887	30.7617	77.6478	30.7617	77.6642	30.7617	77.6197	30.7617	77.6352	30.7617	77.588	30.7617	77.6019	30.7617	77.5528	30.7617	77.5645	30.7617	77.5144	30.7617	77.5237	30.7617	77.4734	30.7617	77.4804	30.7617	77.4313	30.7617	77.4363	30.7617	77.3903	30.7617	77.3935	30.7617	77.353	30.7617	77.3548	30.7617	77.3221	30.7617	77.323	30.7617	77.3002	30.7617	77.3004	30.7617	77.2887	30.7617	77.2887
32.2266	79.0443	32.2266	79.0384	32.2266	79.0463	32.2266	79.0288	32.2266	79.0444	32.2266	79.0156	32.2266	79.0385	32.2266	78.999	32.2266	79.0286	32.2266	78.979	32.2266	79.0147	32.2266	78.9558	32.2266	78.9969	32.2266	78.9297	32.2266	78.9753	32.2266	78.9012	32.2266	78.95	32.2266	78.8706	32.2266	78.9209	32.2266	78.8386	32.2266	78.8883	32.2266	78.8058	32.2266	78.8526	32.2266	78.7728	32.2266	78.8148	32.2266	78.741	32.2266	78.7767	32.2266	78.7116	32.2266	78.7404	32.2266	78.6865	32.2266	78.7082	32.2266	78.6678	32.2266	78.6823	32.2266	78.6572	32.2266	78.6645	32.2266	78.656
33.6914	80.4148	33.6914	80.4081	33.6914	80.4156	33.6914	80.3954	33.6914	80.4102	33.6914	80.377	33.6914	80.3988	33.6914	80.3531	33.6914	80.3814	33.6914	80.3241	33.6914	80.3583	33.6914	80.2902	33.6914	80.3297	33.6914	80.252	33.6914	80.296	33.6914	80.21	33.6914	80.2574	33.6914	80.1652	33.6914	80.2144	33.6914	80.1182	33.6914	80.1675	33.6914	80.07	33.6914	80.1176	33.6914	80.0219	33.6914	80.0662	33.6914	79.9757	33.6914	80.0153	33.6914	79.9334	33.6914	79.9673	33.6914	79.8978	33.6914	79.9249	33.6914	79.8716	33.6914	79.8907	33.6914	79.857	33.6914	79.867	33.6914	79.8554
35.1562	81.9556	35.1562	81.952	35.1562	81.9545	35.1562	81.9438	35.1562	81.9487	35.1562	81.931	35.1562	81.9383	35.1562	81.9138	35.1562	81.9235	35.1562	81.8923	35.1562	81.9044	35.1562	81.8668	35.1562	81.8812	35.1562	81.8377	35.1562	81.8543	35.1562	81.8056	35.1562	81.824	35.1562	81.7711	35.1562	81.7909	35.1562	81.7351	35.1562	81.7553	35.1562	81.6988	35.1562	81.7183	35.1562	81.6633	35.1562	81.681	35.1562	81.6299	35.1562	81.645	35.1562	81.6	35.1562	81.612	35.1562	81.5752	35.1562	81.584	35.1562	81.5567	35.1562	81.5624	35.1562	81.5456	35.1562	81.5485	35.1562	81.5428
36.6211	83.004	36.6211	82.9978	36.6211	83.0038	36.6211	82.9856	36.6211	82.9973	36.6211	82.9674	36.6211	82.9846	36.6211	82.9438	36.6211	82.9659	36.6211	82.9153	36.6211	82.9418	36.6211	82.8827	36.6211	82.9129	36.6211	82.8469	36.6211	82.8799	36.6211	82.809	36.6211	82.8441	36.6211	82.7704	36.6211	82.8064	36.6211	82.7322	36.6211	82.7683	36.6211	82.6959	36.6211	82.731	36.6211	82.6626	36.6211	82.6956	36.6211	82.6336	36.6211	82.6632	36.6211	82.6095	36.6211	82.6346	36.6211	82.5912	36.6211	82.6107	36.6211	82.5788	36.6211	82.5922	36.6211	82.5727	36.6211	82.5795	36.6211	82.5729
38.0859	83.1923	38.0859	83.183	38.0859	83.1952	38.0859	83.1677	38.0859	83.1915	38.0859	83.1468	38.0859	83.1812	38.0859	83.1208	38.0859	83.1646	38.0859	83.0906	38.0859	83.1418	38.0859	83.0571	38.0859	83.1135	38.0859	83.0213	38.0859	83.0804	38.0859	82.9843	38.0859	83.0436	38.0859	82.9475	38.0859	83.0043	38.0859	82.9118	38.0859	82.9641	38.0859	82.8785	38.0859	82.9245	38.0859	82.8483	38.0859	82.8871	38.0859	82.8222	38.0859	82.8535	38.0859	82.8009	38.0859	82.8248	38.0859	82.7847	38.0859	82.8018	38.0859	82.7738	38.0859	82.7846	38.0859	82.7683	38.0859	82.7735	38.0859	82.7682
39.5508	83.6962	39.5508	83.6842	39.5508	83.6999	39.5508	83.6643	39.5508	83.6953	39.5508	83.6368	39.5508	83.6824	39.5508	83.6024	39.5508	83.6615	39.5508	83.5618	39.5508	83.6328	39.5508	83.5162	39.5508	83.597	39.5508	83.4668	39.5508	83.5546	39.5508	83.4149	39.5508	83.5065	39.5508	83.3622	39.5508	83.454	39.5508	83.31	39.5508	83.3985	39.5508	83.2599	39.5508	83.3419	39.5508	83.2134	39.5508	83.2863	39.5508	83.172	39.5508	83.234	39.5508	83.1371	39.5508	83.187	39.5508	83.11	39.5508	83.1472	39.5508	83.0917	39.5508	83.1163	39.5508	83.0828	39.5508	83.095	39.5508	83.0838
41.0156	84.5388	41.0156	84.5297	41.0156	84.5399	41.0156	84.5127	41.0156	84.5328	41.0156	84.4882	41.0156	84.5178	41.0156	84.4569	41.0156	84.4952	41.0156	84.4197	41.0156	84.4658	41.0156	84.3775	41.0156	84.4302	41.0156	84.3317	41.0156	84.3893	41.0156	84.2837	41.0156	84.3443	41.0156	84.235	41.0156	84.2964	41.0156	84.1871	41.0156	84.247	41.0156	84.1414	41.0156	84.1976	41.0156	84.0992	41.0156	84.1498	41.0156	84.0617	41.0156	84.1052	41.0156	84.03	41.0156	84.0651	41.0156	84.005	41.0156	84.0312	41.0156	83.9875	41.0156	84.0048	41.0156	83.9783	41.0156	83.9869	41.0156	83.978
42.4805	84.902	42.4805	84.8927	42.4805	84.902	42.4805	84.8744	42.4805	84.8927	42.4805	84.8476	42.4805	84.8744	42.4805	84.8128	42.4805	84.8473	42.4805	84.7708	42.4805	84.812	42.4805	84.7228	42.4805	84.7693	42.4805	84.67	42.4805	84.7201	42.4805	84.6137	42.4805	84.6655	42.4805	84.5555	42.4805	84.6071	42.4805	84.4971	42.4805	84.5464	42.4805	84.4402	42.4805	84.4856	42.4805	84.3865	42.4805	84.4266	42.4805	84.3378	42.4805	84.3718	42.4805	84.2958	42.4805	84.3232	42.4805	84.262	42.4805	84.2825	42.4805	84.2377	42.4805	84.2514	42.4805	84.224	42.4805	84.2308	42.4805	84.2216
43.9453	85.1646	43.9453	85.1575	43.9453	85.1644	43.9453	85.1432	43.9453	85.157	43.9453	85.1221	43.9453	85.1427	43.9453	85.0949	43.9453	85.1222	43.9453	85.0625	43.9453	85.0962	43.9453	85.0259	43.9453	85.0658	43.9453	84.9864	43.9453	85.0321	43.9453	84.9456	43.9453	84.9966	43.9453	84.905	43.9453	84.9604	43.9453	84.8664	43.9453	84.925	43.9453	84.8314	43.9453	84.8915	43.9453	84.8012	43.9453	84.8607	43.9453	84.7768	43.9453	84.8331	43.9453	84.7586	43.9453	84.8088	43.9453	84.7466	43.9453	84.7878	43.9453	84.7408	43.9453	84.7701	43.9453	84.7408	43.9453	84.7561	43.9453	84.7461
45.4102	85.3346	45.4102	85.3266	45.4102	85.3324	45.4102	85.309	45.4102	85.32	45.4102	85.2822	45.4102	85.2974	45.4102	85.2472	45.4102	85.2651	45.4102	85.2049	45.4102	85.2236	45.4102	85.1565	45.4102	85.1741	45.4102	85.1033	45.4102	85.1178	45.4102	85.0467	45.4102	85.0564	45.4102	84.9884	45.4102	84.9921	45.4102	84.9296	45.4102	84.927	45.4102	84.872	45.4102	84.8634	45.4102	84.8168	45.4102	84.8036	45.4102	84.7655	45.4102	84.7495	45.4102	84.7195	45.4102	84.703	45.4102	84.6804	45.4102	84.6657	45.4102	84.6499	45.4102	84.6389	45.4102	84.6295	45.4102	84.6236	45.4102	84.6205
46.875	85.5997	46.875	85.5879	46.875	85.6006	46.875	85.5655	46.875	85.5902	46.875	85.5331	46.875	85.5684	46.875	85.4915	46.875	85.5352	46.875	85.4415	46.875	85.491	46.875	85.3841	46.875	85.4364	46.875	85.3204	46.875	85.3724	46.875	85.2519	46.875	85.3004	46.875	85.1799	46.875	85.2221	46.875	85.1059	46.875	85.1397	46.875	85.0318	46.875	85.0559	46.875	84.9593	46.875	84.9737	46.875	84.8906	46.875	84.8965	46.875	84.8283	46.875	84.8278	46.875	84.775	46.875	84.7709	46.875	84.7336	46.875	84.7288	46.875	84.7066	46.875	84.7035	46.875	84.6962
48.3398	85.6314	48.3398	85.6129	48.3398	85.6418	48.3398	85.5867	48.3398	85.6438	48.3398	85.5538	48.3398	85.6374	48.3398	85.5151	48.3398	85.6231	48.3398	85.4723	48.3398	85.6014	48.3398	85.427	48.3398	85.5734	48.3398	85.381	48.3398	85.5403	48.3398	85.3363	48.3398	85.5034	48.3398	85.2947	48.3398	85.4644	48.3398	85.2578	48.3398	85.4247	48.3398	85.2268	48.3398	85.3858	48.3398	85.2027	48.3398	85.3487	48.3398	85.1857	48.3398	85.3143	48.3398	85.1759	48.3398	85.2833	48.3398	85.1729	48.3398	85.256	48.3398	85.1759	48.3398	85.2324	48.3398	85.184	48.3398	85.2126	48.3398	85.1964
51.2695	85.5993	51.2695	85.5977	51.2695	85.5946	51.2695	85.5901	51.2695	85.5835	51.2695	85.5771	51.2695	85.5668	51.2695	85.5598	51.2695	85.5452	51.2695	85.5394	51.2695	85.52	51.2695	85.5174	51.2695	85.493	51.2695	85.4952	51.2695	85.4661	51.2695	85.4744	51.2695	85.4413	51.2695	85.4562	51.2695	85.4206	51.2695	85.4418	51.2695	85.4057	51.2695	85.432	51.2695	85.3975	51.2695	85.427	51.2695	85.3961	51.2695	85.4266	51.2695	85.4005	51.2695	85.4298	51.2695	85.4091	51.2695	85.435	51.2695	85.4196	51.2695	85.4401	51.2695	85.4299	51.2695	85.4431	51.2695	85.438	51.2695	85.4425
52.7344	85.8782	52.7344	85.8895	52.7344	85.8569	52.7344	85.8912	52.7344	85.826	52.7344	85.884	52.7344	85.7865	52.7344	85.8691	52.7344	85.74	52.7344	85.8481	52.7344	85.6885	52.7344	85.8229	52.7344	85.6349	52.7344	85.7954	52.7344	85.5823	52.7344	85.7679	52.7344	85.5341	52.7344	85.7421	52.7344	85.4937	52.7344	85.7195	52.7344	85.4641	52.7344	85.7011	52.7344	85.4474	52.7344	85.6867	52.7344	85.4445	52.7344	85.6754	52.7344	85.4546	52.7344	85.6652	52.7344	85.4754	52.7344	85.654	52.7344	85.5035	52.7344	85.6395	52.7344	85.535	52.7344	85.6202	52.7344	85.5667	52.7344	85.5956
54.1992	86.5007	54.1992	86.5115	54.1992	86.4683	54.1992	86.5005	54.1992	86.4149	54.1992	86.4688	54.1992	86.3421	54.1992	86.418	54.1992	86.2522	54.1992	86.3508	54.1992	86.1482	54.1992	86.2706	54.1992	86.034	54.1992	86.1818	54.1992	85.9143	54.1992	86.089	54.1992	85.7942	54.1992	85.997	54.1992	85.6793	54.1992	85.9098	54.1992	85.5755	54.1992	85.8307	54.1992	85.4883	54.1992	85.7609	54.1992	85.4221	54.1992	85.7001	54.1992	85.3796	54.1992	85.6464	54.1992	85.3609	54.1992	85.5972	54.1992	85.3638	54.1992	85.5499	54.1992	85.3842	54.1992	85.5034	54.1992	85.4174	54.1992	85.4584
55.6641	86.354	55.6641	86.3234	55.6641	86.3569	55.6641	86.2666	55.6641	86.3315	55.6641	86.1856	55.6641	86.278	55.6641	86.0832	55.6641	86.1974	55.6641	85.9627	55.6641	86.0917	55.6641	85.8281	55.6641	85.9637	55.6641	85.6837	55.6641	85.8171	55.6641	85.5342	55.6641	85.6563	55.6641	85.3844	55.6641	85.4868	55.6641	85.2388	55.6641	85.3149	55.6641	85.1014	55.6641	85.1474	55.6641	84.9757	55.6641	84.9919	55.6641	84.8641	55.6641	84.8551	55.6641	84.7686	55.6641	84.7427	55.6641	84.6904	55.6641	84.658	55.6641	84.6303	55.6641	84.6019	55.6641	84.5897	55.6641	84.5732	55.6641	84.5699
58.5938	86.0672	58.5938	86.0349	58.5938	86.0886	58.5938	85.9924	58.5938	86.0986	58.5938	85.9402	58.5938	86.0969	58.5938	85.879	58.5938	86.0832	58.5938	85.8097	58.5938	86.0572	58.5938	85.7331	58.5938	86.019	58.5938	85.6504	58.5938	85.969	58.5938	85.5629	58.5938	85.9082	58.5938	85.4725	58.5938	85.8376	58.5938	85.3817	58.5938	85.759	58.5938	85.2936	58.5938	85.6743	58.5938	85.2124	58.5938	85.5855	58.5938	85.1429	58.5938	85.495	58.5938	85.0902	58.5938	85.4047	58.5938	85.0585	58.5938	85.3174	58.5938	85.0508	58.5938	85.2359	58.5938	85.0674	58.5938	85.1641	58.5938	85.1064
60.0586	86.1901	60.0586	86.1804	60.0586	86.1899	60.0586	86.1612	60.0586	86.1799	60.0586	86.1327	60.0586	86.1603	60.0586	86.0955	60.0586	86.1315	60.0586	86.0503	60.0586	86.0942	60.0586	85.9982	60.0586	86.0493	60.0586	85.9404	60.0586	85.9981	60.0586	85.8784	60.0586	85.9422	60.0586	85.814	60.0586	85.8832	60.0586	85.7498	60.0586	85.8234	60.0586	85.6881	60.0586	85.7646	60.0586	85.6317	60.0586	85.7087	60.0586	85.5828	60.0586	85.6571	60.0586	85.5433	60.0586	85.6108	60.0586	85.5145	60.0586	85.5706	60.0586	85.4971	60.0586	85.5374	60.0586	85.4912	60.0586	85.5123	60.0586	85.4965
62.9883	86.2223	62.9883	86.1966	62.9883	86.2336	62.9883	86.1573	62.9883	86.2303	62.9883	86.1057	62.9883	86.2127	62.9883	86.0434	62.9883	86.1814	62.9883	85.9728	62.9883	86.1379	62.9883	85.8967	62.9883	86.0837	62.9883	85.818	62.9883	86.021	62.9883	85.74	62.9883	85.9522	62.9883	85.666	62.9883	85.8799	62.9883	85.5988	62.9883	85.8071	62.9883	85.5408	62.9883	85.7362	62.9883	85.4935	62.9883	85.6696	62.9883	85.4577	62.9883	85.6091	62.9883	85.4332	62.9883	85.5561	62.9883	85.419	62.9883	85.5115	62.9883	85.4142	62.9883	85.4755	62.9883	85.4177	62.9883	85.4481	62.9883	85.429
64.4531	86.2453	64.4531	86.2278	64.4531	86.2498	64.4531	86.198	64.4531	86.2412	64.4531	86.1571	64.4531	86.2198	64.4531	86.1065	64.4531	86.1863	64.4531	86.0483	64.4531	86.142	64.4531	85.9848	64.4531	86.0885	64.4531	85.9184	64.4531	86.028	64.4531	85.852	64.4531	85.9629	64.4531	85.7881	64.4531	85.8957	64.4531	85.729	64.4531	85.8291	64.4531	85.6768	64.4531	85.7657	64.4531	85.6326	64.4531	85.7077	64.4531	85.5972	64.4531	85.6571	64.4531	85.5704	64.4531	85.615	64.4531	85.5516	64.4531	85.582	64.4531	85.5398	64.4531	85.5582	64.4531	85.5344	64.4531	85.5429	64.4531	85.5353
67.3828	86.4665	67.3828	86.4476	67.3828	86.4726	67.3828	86.4169	67.3828	86.4659	67.3828	86.3756	67.3828	86.4465	67.3828	86.3255	67.3828	86.4153	67.3828	86.2688	67.3828	86.3737	67.3828	86.2079	67.3828	86.3237	67.3828	86.1453	67.3828	86.2673	67.3828	86.0837	67.3828	86.2072	67.3828	86.0254	67.3828	86.1459	67.3828	85.9723	67.3828	86.086	67.3828	85.926	67.3828	86.0299	67.3828	85.8876	67.3828	85.9794	67.3828	85.8577	67.3828	85.9358	67.3828	85.8364	67.3828	85.8998	67.3828	85.8233	67.3828	85.8714	67.3828	85.8175	67.3828	85.8499	67.3828	85.818	67.3828	85.8343	67.3828	85.8237
68.8477	86.5676	68.8477	86.5372	68.8477	86.5851	68.8477	86.495	68.8477	86.5894	68.8477	86.4425	68.8477	86.5806	68.8477	86.3819	68.8477	86.5595	68.8477	86.3156	68.8477	86.5273	68.8477	86.2467	68.8477	86.4857	68.8477	86.1781	68.8477	86.4368	68.8477	86.1129	68.8477	86.3828	68.8477	86.0536	68.8477	86.3262	68.8477	86.0025	68.8477	86.2694	68.8477	85.9611	68.8477	86.2145	68.8477	85.9304	68.8477	86.1631	68.8477	85.9107	68.8477	86.1162	68.8477	85.9016	68.8477	86.0744	68.8477	85.9025	68.8477	86.0373	68.8477	85.9119	68.8477	86.0045	68.8477	85.9281	68.8477	85.9753	68.8477	85.9497
71.7773	86.7513	71.7773	86.7179	71.7773	86.7703	71.7773	86.6709	71.7773	86.7746	71.7773	86.6119	71.7773	86.7648	71.7773	86.5433	71.7773	86.7418	71.7773	86.468	71.7773	86.7074	71.7773	86.3894	71.7773	86.6636	71.7773	86.3114	71.7773	86.6127	71.7773	86.238	71.7773	86.5575	71.7773	86.1727	71.7773	86.5004	71.7773	86.1186	71.7773	86.4437	71.7773	86.0777	71.7773	86.3894	71.7773	86.0507	71.7773	86.3387	71.7773	86.0372	71.7773	86.2924	71.7773	86.0357	71.7773	86.2503	71.7773	86.0443	71.7773	86.2119	71.7773	86.0611	71.7773	86.1762	71.7773	86.0842	71.7773	86.1429	71.7773	86.1119
74.707	86.8835	74.707	86.8552	74.707	86.8966	74.707	86.8124	74.707	86.8944	74.707	86.7568	74.707	86.8775	74.707	86.6907	74.707	86.8476	74.707	86.6172	74.707	86.8066	74.707	86.5399	74.707	86.7572	74.707	86.4629	74.707	86.7023	74.707	86.3903	74.707	86.645	74.707	86.3259	74.707	86.5882	74.707	86.273	74.707	86.5345	74.707	86.2337	74.707	86.4856	74.707	86.2089	74.707	86.4426	74.707	86.1979	74.707	86.4056	74.707	86.1991	74.707	86.3739	74.707	86.2097	74.707	86.3461	74.707	86.2272	74.707	86.3207	74.707	86.2487	74.707	86.2962	74.707	86.2721
77.6367	87.0152	77.6367	86.9853	77.6367	87.028	77.6367	86.9391	77.6367	87.0236	77.6367	86.8786	77.6367	87.0029	77.6367	86.8063	77.6367	86.9676	77.6367	86.7259	77.6367	86.9201	77.6367	86.6417	77.6367	86.8636	77.6367	86.5582	77.6367	86.8015	77.6367	86.4804	77.6367	86.7378	77.6367	86.4129	77.6367	86.6764	77.6367	86.3594	77.6367	86.6205	77.6367	86.3224	77.6367	86.5726	77.6367	86.3029	77.6367	86.534	77.6367	86.3	77.6367	86.5045	77.6367	86.3112	77.6367	86.4825	77.6367	86.3324	77.6367	86.4654	77.6367	86.3591	77.6367	86.4498	77.6367	86.3866	77.6367	86.4326	77.6367	86.4117
79.1016	87.1252	79.1016	87.0978	79.1016	87.1348	79.1016	87.0533	79.1016	87.1266	79.1016	86.9936	79.1016	87.1015	79.1016	86.9211	79.1016	87.0612	79.1016	86.8393	79.1016	87.0082	79.1016	86.7524	79.1016	86.9457	79.1016	86.665	79.1016	86.8774	79.1016	86.5821	79.1016	86.8071	79.1016	86.5082	79.1016	86.7389	79.1016	86.4476	79.1016	86.6764	79.1016	86.4029	79.1016	86.6222	79.1016	86.3753	79.1016	86.578	79.1016	86.3643	79.1016	86.5439	79.1016	86.3676	79.1016	86.5183	79.1016	86.3816	79.1016	86.4988	79.1016	86.402	79.1016	86.4821	79.1016	86.4246	79.1016	86.4652	79.1016	86.4462
82.0312	87.3291	82.0312	87.3008	82.0312	87.3384	82.0312	87.2544	82.0312	87.3288	82.0312	87.1917	82.0312	87.3011	82.0312	87.1151	82.0312	87.2569	82.0312	87.028	82.0312	87.1984	82.0312	86.9348	82.0312	87.1288	82.0312	86.84	82.0312	87.0512	82.0312	86.7486	82.0312	86.9696	82.0312	86.6655	82.0312	86.8877	82.0312	86.5944	82.0312	86.8094	82.0312	86.5381	82.0312	86.7379	82.0312	86.4977	82.0312	86.6758	82.0312	86.4727	82.0312	86.6242	82.0312	86.4611	82.0312	86.5833	82.0312	86.4601	82.0312	86.5517	82.0312	86.4665	82.0312	86.5274	82.0312	86.4777	82.0312	86.508	82.0312	86.4917
84.9609	87.2857	84.9609	87.2597	84.9609	87.2954	84.9609	87.2176	84.9609	87.2896	84.9609	87.1611	84.9609	87.27	84.9609	87.0926	84.9609	87.2393	84.9609	87.0158	84.9609	87.2006	84.9609	86.9355	84.9609	87.1574	84.9609	86.8567	84.9609	87.1131	84.9609	86.785	84.9609	87.0705	84.9609	86.7252	84.9609	87.0319	84.9609	86.6812	84.9609	86.9985	84.9609	86.6551	84.9609	86.9704	84.9609	86.6472	84.9609	86.9473	84.9609	86.6557	84.9609	86.9277	84.9609	86.6777	84.9609	86.9099	84.9609	86.709	84.9609	86.8917	84.9609	86.7451	84.9609	86.8711	84.9609	86.782	84.9609	86.8462	84.9609	86.8164
87.8906	87.5324	87.8906	87.5137	87.8906	87.5274	87.8906	87.4724	87.8906	87.4991	87.8906	87.4104	87.8906	87.4494	87.8906	87.331	87.8906	87.3813	87.8906	87.2388	87.8906	87.2991	87.8906	87.1391	87.8906	87.2082	87.8906	87.0381	87.8906	87.1149	87.8906	86.9423	87.8906	87.0256	87.8906	86.858	87.8906	86.9463	87.8906	86.7905	87.8906	86.8819	87.8906	86.7431	87.8906	86.8356	87.8906	86.7169	87.8906	86.8079	87.8906	86.7103	87.8906	86.797	87.8906	86.7198	87.8906	86.7984	87.8906	86.7401	87.8906	86.806	87.8906	86.7651	87.8906	86.8131	87.8906	86.7887	87.8906	86.8141	87.8906	86.806
90.8203	87.5839	90.8203	87.5649	90.8203	87.5802	90.8203	87.5235	90.8203	87.5549	90.8203	87.4614	90.8203	87.5101	90.8203	87.3812	90.8203	87.4492	90.8203	87.2872	90.8203	87.3768	90.8203	87.1848	90.8203	87.2982	90.8203	87.0802	90.8203	87.2189	90.8203	86.9806	90.8203	87.1444	90.8203	86.8933	90.8203	87.0793	90.8203	86.8244	90.8203	87.0268	90.8203	86.7785	90.8203	86.9886	90.8203	86.7576	90.8203	86.9647	90.8203	86.7604	90.8203	86.9534	90.8203	86.7829	90.8203	86.9512	90.8203	86.8184	90.8203	86.9532	90.8203	86.8593	90.8203	86.9534	90.8203	86.8978	90.8203	86.9461	90.8203	86.9277
95.2148	87.9898	95.2148	87.9956	95.2148	87.9538	95.2148	87.9734	95.2148	87.8865	95.2148	87.9267	95.2148	87.7883	95.2148	87.8595	95.2148	87.6616	95.2148	87.7767	95.2148	87.5108	95.2148	87.6838	95.2148	87.3433	95.2148	87.5864	95.2148	87.1691	95.2148	87.49	95.2148	87.0004	95.2148	87.3998	95.2148	86.8509	95.2148	87.3198	95.2148	86.733	95.2148	87.2524	95.2148	86.6557	95.2148	87.1985	95.2148	86.6225	95.2148	87.1565	95.2148	86.6305	95.2148	87.1225	95.2148	86.672	95.2148	87.0912	95.2148	86.736	95.2148	87.0561	95.2148	86.811	95.2148	87.0117	95.2148	86.8866	95.2148	86.955
98.1445	88.1654	98.1445	88.1057	98.1445	88.1954	98.1445	88.0192	98.1445	88.194	98.1445	87.9099	98.1445	88.1606	98.1445	87.7828	98.1445	88.0962	98.1445	87.6442	98.1445	88.0029	98.1445	87.5015	98.1445	87.885	98.1445	87.3624	98.1445	87.7486	98.1445	87.2349	98.1445	87.6018	98.1445	87.1261	98.1445	87.4545	98.1445	87.0411	98.1445	87.3172	98.1445	86.9827	98.1445	87.1997	98.1445	86.9505	98.1445	87.109	98.1445	86.9408	98.1445	87.0478	98.1445	86.9476	98.1445	87.0137	98.1445	86.9636	98.1445	87.0004	98.1445	86.9814	98.1445	86.9994	98.1445	86.9952	98.1445	87.0021	98.1445	87.002
101.074	87.9168	101.074	87.8739	101.074	87.9347	101.074	87.8065	101.074	87.9276	101.074	87.7163	101.074	87.8965	101.074	87.6064	101.074	87.8428	101.074	87.4808	101.074	87.769	101.074	87.3453	101.074	87.6782	101.074	87.2067	101.074	87.5745	101.074	87.073	101.074	87.4634	101.074	86.9523	101.074	87.3514	101.074	86.8524	101.074	87.2455	101.074	86.7792	101.074	87.1525	101.074	86.7359	101.074	87.0774	101.074	86.7222	101.074	87.0222	101.074	86.7343	101.074	86.985	101.074	86.7653	101.074	86.96	101.074	86.8065	101.074	86.9399	101.074	86.8495	101.074	86.9173	101.074	86.8875
105.469	87.997	105.469	87.9723	105.469	87.9936	105.469	87.9196	105.469	87.9634	105.469	87.8405	105.469	87.909	105.469	87.7385	105.469	87.8342	105.469	87.6186	105.469	87.744	105.469	87.4871	105.469	87.6439	105.469	87.3519	105.469	87.5396	105.469	87.2216	105.469	87.437	105.469	87.1046	105.469	87.3413	105.469	87.0086	105.469	87.2568	105.469	86.9391	105.469	87.1868	105.469	86.8987	105.469	87.133	105.469	86.8868	105.469	87.0954	105.469	86.8991	105.469	87.0723	105.469	86.9281	105.469	87.0597	105.469	86.9644	105.469	87.0519	105.469	86.9991	105.469	87.0424	105.469	87.0257
108.398	88.222	108.398	88.1971	108.398	88.2154	108.398	88.1419	108.398	88.1776	108.398	88.0591	108.398	88.1104	108.398	87.9531	108.398	88.0174	108.398	87.8296	108.398	87.9035	108.398	87.6956	108.398	87.7753	108.398	87.5592	108.398	87.6407	108.398	87.4286	108.398	87.5082	108.398	87.3116	108.398	87.3859	108.398	87.2141	108.398	87.2808	108.398	87.1397	108.398	87.1973	108.398	87.0891	108.398	87.137	108.398	87.0599	108.398	87.0983	108.398	87.0481	108.398	87.0772	108.398	87.0481	108.398	87.0685	108.398	87.0541	108.398	87.0668	108.398	87.0611	108.398	87.067	108.398	87.0656
112.793	88.2354	112.793	88.1988	112.793	88.2415	112.793	88.1325	112.793	88.2178	112.793	88.0392	112.793	88.1664	112.793	87.923	112.793	88.091	112.793	87.7897	112.793	87.9971	112.793	87.6469	112.793	87.8913	112.793	87.5033	112.793	87.7814	112.793	87.3685	112.793	87.6758	112.793	87.2521	112.793	87.5824	112.793	87.1623	112.793	87.5076	112.793	87.1048	112.793	87.4548	112.793	87.0814	112.793	87.4235	112.793	87.0899	112.793	87.4096	112.793	87.1244	112.793	87.4058	112.793	87.1762	112.793	87.4036	112.793	87.2355	112.793	87.3954	112.793	87.2928	112.793	87.3754	112.793	87.3409
117.188	88.3196	117.188	88.2822	117.188	88.32	117.188	88.2101	117.188	88.283	117.188	88.1071	117.188	88.2102	117.188	87.9792	117.188	88.1051	117.188	87.8339	117.188	87.9735	117.188	87.6807	117.188	87.8237	117.188	87.5304	117.188	87.6663	117.188	87.3942	117.188	87.514	117.188	87.2828	117.188	87.3806	117.188	87.2045	117.188	87.2787	117.188	87.164	117.188	87.2176	117.188	87.1611	117.188	87.2002	117.188	87.1907	117.188	87.2218	117.188	87.2432	117.188	87.2708	117.188	87.306	117.188	87.3309	117.188	87.3658	117.188	87.3857	117.188	87.4103	117.188	87.4215	117.188	87.4303
120.117	88.5132	120.117	88.4737	120.117	88.5158	120.117	88.3992	120.117	88.4811	120.117	88.2931	120.117	88.4104	120.117	88.1607	120.117	88.3068	120.117	88.0091	120.117	88.175	120.117	87.8475	120.117	88.0222	120.117	87.6864	120.117	87.8575	120.117	87.5374	120.117	87.6922	120.117	87.4114	120.117	87.5389	120.117	87.3172	120.117	87.4101	120.117	87.2595	120.117	87.316	120.117	87.2379	120.117	87.2623	120.117	87.247	120.117	87.2483	120.117	87.2773	120.117	87.2662	120.117	87.3175	120.117	87.3031	120.117	87.3558	120.117	87.3441	120.117	87.3822	120.117	87.376	120.117	87.3897
124.512	88.5299	124.512	88.4968	124.512	88.5244	124.512	88.4261	124.512	88.4809	124.512	88.3205	124.512	88.4015	124.512	88.1844	124.512	88.2898	124.512	88.0248	124.512	88.1513	124.512	87.8504	124.512	87.9934	124.512	87.6726	124.512	87.8254	124.512	87.5042	124.512	87.6586	124.512	87.3583	124.512	87.5052	124.512	87.2464	124.512	87.3775	124.512	87.1759	124.512	87.2853	124.512	87.1485	124.512	87.2337	124.512	87.1592	124.512	87.2217	124.512	87.1974	124.512	87.2409	124.512	87.2493	124.512	87.2782	124.512	87.3004	124.512	87.318	124.512	87.3382	124.512	87.3467	124.512	87.3546
128.906	88.6926	128.906	88.6623	128.906	88.6812	128.906	88.5916	128.906	88.6281	128.906	88.4834	128.906	88.5349	128.906	88.3419	128.906	88.4047	128.906	88.1733	128.906	88.2429	128.906	87.9857	128.906	88.0566	128.906	87.7897	128.906	87.8557	128.906	87.5974	128.906	87.652	128.906	87.4218	128.906	87.4593	128.906	87.2751	128.906	87.2912	128.906	87.1663	128.906	87.1598	128.906	87.0989	128.906	87.0728	128.906	87.07	128.906	87.0308	128.906	87.071	128.906	87.0275	128.906	87.0897	128.906	87.0502	128.906	87.1126	128.906	87.0834	128.906	87.1285	128.906	87.1131	128.906	87.1294
133.301	88.6444	133.301	88.6037	133.301	88.6457	133.301	88.5259	133.301	88.607	133.301	88.4146	133.301	88.5291	133.301	88.2749	133.301	88.4144	133.301	88.1136	133.301	88.2673	133.301	87.9389	133.301	88.0943	133.301	87.7603	133.301	87.9039	133.301	87.5885	133.301	87.7069	133.301	87.4339	133.301	87.5157	133.301	87.3056	133.301	87.343	133.301	87.2097	133.301	87.2008	133.301	87.1476	133.301	87.0972	133.301	87.1154	133.301	87.0353	133.301	87.1051	133.301	87.0117	133.301	87.1063	133.301	87.0174	133.301	87.109	133.301	87.0403	133.301	87.1054	133.301	87.0682	133.301	87.0917
139.16	88.2874	139.16	88.2407	139.16	88.2956	139.16	88.1574	139.16	88.2653	139.16	88.0417	139.16	88.1988	139.16	87.8997	139.16	88.1003	139.16	87.74	139.16	87.976	139.16	87.573	139.16	87.8341	139.16	87.4108	139.16	87.6841	139.16	87.2659	139.16	87.5368	139.16	87.15	139.16	87.4029	139.16	87.0717	139.16	87.2921	139.16	87.0341	139.16	87.2115	139.16	87.0341	139.16	87.1643	139.16	87.0629	139.16	87.1486	139.16	87.108	139.16	87.1579	139.16	87.1568	139.16	87.182	139.16	87.1986	139.16	87.2094	139.16	87.2264	139.16	87.23	139.16	87.2369
143.555	88.2756	143.555	88.2184	143.555	88.292	143.555	88.1226	143.555	88.2672	143.555	87.9926	143.555	88.203	143.555	87.8351	143.555	88.1035	143.555	87.6595	143.555	87.9751	143.555	87.4776	143.555	87.8271	143.555	87.3039	143.555	87.6718	143.555	87.1544	143.555	87.5236	143.555	87.0448	143.555	87.3979	143.555	86.9876	143.555	87.3086	143.555	86.9889	143.555	87.2653	143.555	87.0456	143.555	87.2704	143.555	87.1454	143.555	87.3179	143.555	87.2693	143.555	87.3938	143.555	87.3955	143.555	87.4794	143.555	87.504	143.555	87.5552	143.555	87.5797	143.555	87.6038	143.555	87.6137
147.949	88.7121	147.949	88.6558	147.949	88.7157	147.949	88.5482	147.949	88.6669	147.949	88.3929	147.949	88.5683	147.949	88.1961	147.949	88.4243	147.949	87.9668	147.949	88.2418	147.949	87.7173	147.949	88.0306	147.949	87.4632	147.949	87.8033	147.949	87.2232	147.949	87.576	147.949	87.0179	147.949	87.3668	147.949	86.8666	147.949	87.1941	147.949	86.7833	147.949	87.0728	147.949	86.7719	147.949	87.011	147.949	86.8234	147.949	87.0066	147.949	86.9179	147.949	87.0471	147.949	87.0291	147.949	87.1122	147.949	87.1311	147.949	87.1786	147.949	87.2039	147.949	87.225	147.949	87.2359
153.809	88.5251	153.809	88.4784	153.809	88.5194	153.809	88.3812	153.809	88.4621	153.809	88.2374	153.809	88.356	153.809	88.0537	153.809	88.2065	153.809	87.8399	153.809	88.0216	153.809	87.6081	153.809	87.8117	153.809	87.3732	153.809	87.59	153.809	87.1513	153.809	87.3712	153.809	86.9583	153.809	87.1709	153.809	86.8081	153.809	87.0028	153.809	86.7102	153.809	86.8776	153.809	86.6676	153.809	86.7998	153.809	86.6755	153.809	86.7681	153.809	86.7206	153.809	86.7747	153.809	86.784	153.809	86.8071	153.809	86.8451	153.809	86.8493	153.809	86.8871	153.809	86.8852	153.809	86.9005
159.668	88.5573	159.668	88.5166	159.668	88.5469	159.668	88.4263	159.668	88.4857	159.668	88.2889	159.668	88.3754	159.668	88.1091	159.668	88.2198	159.668	87.8942	159.668	88.0257	159.668	87.6553	159.668	87.8032	159.668	87.4077	159.668	87.5661	159.668	87.1707	159.668	87.3315	159.668	86.9648	159.668	87.1185	159.668	86.8083	159.668	86.9451	159.668	86.7124	159.668	86.8243	159.668	86.6778	159.668	86.7602	159.668	86.6948	159.668	86.7475	159.668	86.746	159.668	86.7728	159.668	86.8106	159.668	86.8186	159.668	86.8695	159.668	86.8676	159.668	86.9087	159.668	86.9053	159.668	86.9208
165.527	88.4191	165.527	88.3676	165.527	88.4196	165.527	88.268	165.527	88.368	165.527	88.1245	165.527	88.2652	165.527	87.9424	165.527	88.1151	165.527	87.7285	165.527	87.9249	165.527	87.4921	165.527	87.706	165.527	87.2463	165.527	87.4744	165.527	87.0088	165.527	87.2497	165.527	86.801	165.527	87.0539	165.527	86.6454	165.527	86.907	165.527	86.5584	165.527	86.8215	165.527	86.5447	165.527	86.7983	165.527	86.5941	165.527	86.8257	165.527	86.6849	165.527	86.8829	165.527	86.7912	165.527	86.9466	165.527	86.8904	165.527	86.997	165.527	86.9666	165.527	87.0208	165.527	87.0111
171.387	88.219	171.387	88.1245	171.387	88.2564	171.387	87.9768	171.387	88.2358	171.387	87.7822	171.387	88.1587	171.387	87.55	171.387	88.0292	171.387	87.2922	171.387	87.8541	171.387	87.0227	171.387	87.6434	171.387	86.7576	171.387	87.4108	171.387	86.5145	171.387	87.1744	171.387	86.3118	171.387	86.9564	171.387	86.1682	171.387	86.7809	171.387	86.0989	171.387	86.6683	171.387	86.1111	171.387	86.6288	171.387	86.1986	171.387	86.6561	171.387	86.3411	171.387	86.728	171.387	86.5088	171.387	86.8134	171.387	86.6707	171.387	86.8815	171.387	86.801	171.387	86.9089	171.387	86.8828
177.246	88.2019	177.246	88.1637	177.246	88.1772	177.246	88.0624	177.246	88.0917	177.246	87.9001	177.246	87.9497	177.246	87.6824	177.246	87.7586	177.246	87.4186	177.246	87.529	177.246	87.1239	177.246	87.2764	177.246	86.8199	177.246	87.0206	177.246	86.5336	177.246	86.7856	177.246	86.2953	177.246	86.5967	177.246	86.1326	177.246	86.4759	177.246	86.0637	177.246	86.4359	177.246	86.0919	177.246	86.4751	177.246	86.2039	177.246	86.5764	177.246	86.373	177.246	86.7109	177.246	86.5657	177.246	86.845	177.246	86.7481	177.246	86.9476	177.246	86.8921	177.246	86.996	177.246	86.9779
183.105	88.2862	183.105	88.2399	183.105	88.2666	183.105	88.1302	183.105	88.1801	183.105	87.9612	183.105	88.0276	183.105	87.7393	183.105	87.8123	183.105	87.4731	183.105	87.5406	183.105	87.1747	183.105	87.2236	183.105	86.8606	183.105	86.8794	183.105	86.5529	183.105	86.5344	183.105	86.2791	183.105	86.2237	183.105	86.0697	183.105	85.987	183.105	85.9511	183.105	85.8579	183.105	85.9361	183.105	85.8508	183.105	86.0162	183.105	85.9522	183.105	86.1626	183.105	86.1243	183.105	86.335	183.105	86.3184	183.105	86.4926	183.105	86.4891	183.105	86.6022	183.105	86.6031	183.105	86.6422
188.965	88.2991	188.965	88.2306	188.965	88.3016	188.965	88.0986	188.965	88.2373	188.965	87.9075	188.965	88.1072	188.965	87.6647	188.965	87.914	188.965	87.381	188.965	87.6632	188.965	87.0713	188.965	87.3637	188.965	86.7542	188.965	87.0289	188.965	86.4521	188.965	86.6782	188.965	86.1891	188.965	86.3377	188.965	85.9891	188.965	86.0398	188.965	85.8705	188.965	85.8191	188.965	85.8403	188.965	85.7025	188.965	85.8895	188.965	85.6978	188.965	85.9923	188.965	85.7865	188.965	86.1136	188.965	85.9299	188.965	86.2177	188.965	86.0826	188.965	86.2766	188.965	86.2057	188.965	86.2738
196.289	88.5428	196.289	88.465	196.289	88.5478	196.289	88.3169	196.289	88.479	196.289	88.1029	196.289	88.337	196.289	87.8296	196.289	88.1248	196.289	87.5063	196.289	87.8484	196.289	87.1457	196.289	87.5188	196.289	86.765	196.289	87.1532	196.289	86.387	196.289	86.7766	196.289	86.0426	196.289	86.4213	196.289	85.7691	196.289	86.1249	196.289	85.6049	196.289	85.9233	196.289	85.5753	196.289	85.8405	196.289	85.6775	196.289	85.8779	196.289	85.8764	196.289	86.0105	196.289	86.1149	196.289	86.1927	196.289	86.3334	196.289	86.3714	196.289	86.4848	196.289	86.499	196.289	86.5418
203.613	88.4558	203.613	88.3513	203.613	88.4864	203.613	88.1731	203.613	88.4445	203.613	87.9245	203.613	88.3325	203.613	87.6132	203.613	88.1534	203.613	87.2526	203.613	87.9119	203.613	86.8625	203.613	87.615	203.613	86.468	203.613	87.2742	203.613	86.0973	203.613	86.9071	203.613	85.7792	203.613	86.5389	203.613	85.54	203.613	86.2028	203.613	85.4006	203.613	85.9359	203.613	85.3719	203.613	85.7715	203.613	85.4489	203.613	85.726	203.613	85.6073	203.613	85.788	203.613	85.8063	203.613	85.9186	203.613	85.998	203.613	86.0631	203.613	86.1387	203.613	86.1688	203.613	86.1988
210.938	88.3908	210.938	88.3188	210.938	88.3965	210.938	88.1789	210.938	88.3384	210.938	87.9706	210.938	88.2194	210.938	87.6961	210.938	88.0431	210.938	87.3626	210.938	87.8144	210.938	86.984	210.938	87.5399	210.938	86.5814	210.938	87.2292	210.938	86.182	210.938	86.8958	210.938	85.8147	210.938	86.5578	210.938	85.5064	210.938	86.2366	210.938	85.2798	210.938	85.9556	210.938	85.1516	210.938	85.7371	210.938	85.1284	210.938	85.599	210.938	85.1997	210.938	85.5473	210.938	85.335	210.938	85.5685	210.938	85.4891	210.938	85.628	210.938	85.6155	210.938	85.6792	210.938	85.6815
218.262	88.0529	218.262	88.0038	218.262	88.0296	218.262	87.8826	218.262	87.9357	218.262	87.6917	218.262	87.7768	218.262	87.4353	218.262	87.5626	218.262	87.1206	218.262	87.3069	218.262	86.761	218.262	87.0269	218.262	86.3794	218.262	86.7436	218.262	86.0092	218.262	86.48	218.262	85.6905	218.262	86.2586	218.262	85.4604	218.262	86.0962	218.262	85.3411	218.262	85.9981	218.262	85.3316	218.262	85.9554	218.262	85.4096	218.262	85.95	218.262	85.5408	218.262	85.9627	218.262	85.6884	218.262	85.9802	218.262	85.8212	218.262	85.9943	218.262	85.9192	218.262	85.9967	218.262	85.9758
225.586	88.3563	225.586	88.3001	225.586	88.3299	225.586	88.166	225.586	88.2184	225.586	87.9608	225.586	88.0229	225.586	87.6926	225.586	87.7488	225.586	87.3718	225.586	87.4073	225.586	87.0118	225.586	87.0167	225.586	86.631	225.586	86.603	225.586	86.2539	225.586	86.2002	225.586	85.912	225.586	85.8467	225.586	85.6411	225.586	85.579	225.586	85.4747	225.586	85.421	225.586	85.4319	225.586	85.3761	225.586	85.5044	225.586	85.4268	225.586	85.6548	225.586	85.5429	225.586	85.8279	225.586	85.6912	225.586	85.9701	225.586	85.8416	225.586	86.0455	225.586	85.9669	225.586	86.0417
232.91	87.9462	232.91	87.8667	232.91	87.9443	232.91	87.7094	232.91	87.8602	232.91	87.4817	232.91	87.6958	232.91	87.1955	232.91	87.4563	232.91	86.8688	232.91	87.1514	232.91	86.5253	232.91	86.7968	232.91	86.1932	232.91	86.4171	232.91	85.9003	232.91	86.0473	232.91	85.6678	232.91	85.7298	232.91	85.5057	232.91	85.5042	232.91	85.4128	232.91	85.3905	232.91	85.381	232.91	85.3796	232.91	85.3999	232.91	85.4384	232.91	85.4573	232.91	85.5276	232.91	85.5379	232.91	85.6161	232.91	85.622	232.91	85.6849	232.91	85.6894	232.91	85.7233	232.91	85.7253
241.699	87.9848	241.699	87.8697	241.699	87.9828	241.699	87.637	241.699	87.8667	241.699	87.2894	241.699	87.6429	241.699	86.836	241.699	87.3232	241.699	86.2984	241.699	86.9295	241.699	85.7191	241.699	86.4973	241.699	85.1694	241.699	86.079	241.699	84.745	241.699	85.7402	241.699	84.5363	241.699	85.545	241.699	84.5797	241.699	85.531	241.699	84.8345	241.699	85.6885	241.699	85.2122	241.699	85.962	241.699	85.6243	241.699	86.2746	241.699	86.0093	241.699	86.5571	241.699	86.3342	241.699	86.7658	241.699	86.5865	241.699	86.8849	241.699	86.766	241.699	86.9182	241.699	86.8763
250.488	89.059	250.488	89.0058	250.488	88.9898	250.488	88.828	250.488	88.7981	250.488	88.5214	250.488	88.4823	250.488	88.0806	250.488	88.0407	250.488	87.5015	250.488	87.4751	250.488	86.7877	250.488	86.7982	250.488	85.9634	250.488	86.0472	250.488	85.0948	250.488	85.3048	250.488	84.3117	250.488	84.7139	250.488	83.7956	250.488	84.444	250.488	83.6865	250.488	84.5802	250.488	83.9695	250.488	85.0375	250.488	84.4927	250.488	85.6245	250.488	85.0895	250.488	86.1687	250.488	85.651	250.488	86.5702	250.488	86.1246	250.488	86.7932	250.488	86.4891	250.488	86.8409	250.488	86.7327
259.277	88.7832	259.277	88.7362	259.277	88.7362	259.277	88.5957	259.277	88.5915	259.277	88.359	259.277	88.3422	259.277	88.0215	259.277	87.9789	259.277	87.578	259.277	87.4914	259.277	87.0261	259.277	86.8727	259.277	86.3738	259.277	86.1263	259.277	85.6537	259.277	85.283	259.277	84.9426	259.277	84.4301	259.277	84.3714	259.277	83.7435	259.277	84.0884	259.277	83.4535	259.277	84.1625	259.277	83.6761	259.277	84.5213	259.277	84.2762	259.277	85.0104	259.277	84.9899	259.277	85.4932	259.277	85.6116	259.277	85.8905	259.277	86.0444	259.277	86.166	259.277	86.2679	259.277	86.2994
268.066	88.6325	268.066	88.5025	268.066	88.6722	268.066	88.2812	268.066	88.6183	268.066	87.9645	268.066	88.4617	268.066	87.5473	268.066	88.1876	268.066	87.0237	268.066	87.7773	268.066	86.3895	268.066	87.2121	268.066	85.6483	268.066	86.4811	268.066	84.8296	268.066	85.5954	268.066	84.0198	268.066	84.6139	268.066	83.391	268.066	83.6807	268.066	83.1543	268.066	83.0378	268.066	83.3974	268.066	82.916	268.066	83.984	268.066	83.3239	268.066	84.6769	268.066	84.0296	268.066	85.2927	268.066	84.7703	268.066	85.7373	268.066	85.3831	268.066	85.9752	268.066	85.7985	268.066	85.9965
276.855	88.846	276.855	88.7592	276.855	88.8493	276.855	88.5823	276.855	88.7716	276.855	88.306	276.855	88.6119	276.855	87.9215	276.855	88.3643	276.855	87.4231	276.855	88.0172	276.855	86.8116	276.855	87.5525	276.855	86.0956	276.855	86.9489	276.855	85.2947	276.855	86.1939	276.855	84.451	276.855	85.3081	276.855	83.6512	276.855	84.3835	276.855	83.0474	276.855	83.6169	276.855	82.8186	276.855	83.2553	276.855	83.0392	276.855	83.4034	276.855	83.5928	276.855	83.912	276.855	84.2628	276.855	84.5264	276.855	84.8638	276.855	85.0517	276.855	85.2824	276.855	85.3798	276.855	85.4608
287.109	88.7785	287.109	88.7672	287.109	88.7179	287.109	88.6793	287.109	88.5847	287.109	88.5049	287.109	88.3741	287.109	88.2298	287.109	88.0807	287.109	87.8377	287.109	87.7033	287.109	87.312	287.109	87.2458	287.109	86.6421	287.109	86.7152	287.109	85.8392	287.109	86.1169	287.109	84.9667	287.109	85.4587	287.109	84.177	287.109	84.7764	287.109	83.6975	287.109	84.1755	287.109	83.6871	287.109	83.8352	287.109	84.0771	287.109	83.8962	287.109	84.6428	287.109	84.308	287.109	85.1849	287.109	84.8642	287.109	85.5946	287.109	85.3694	287.109	85.8285	287.109	85.7172	287.109	85.8715
297.363	89.331	297.363	89.2332	297.363	89.3243	297.363	89.0386	297.363	89.2059	297.363	88.7561	297.363	88.9673	297.363	88.3938	297.363	88.5952	297.363	87.9551	297.363	88.0694	297.363	87.4336	297.363	87.3681	297.363	86.8086	297.363	86.4819	297.363	86.0502	297.363	85.4379	297.363	85.144	297.363	84.3287	297.363	84.1487	297.363	83.3338	297.363	83.2797	297.363	82.6895	297.363	82.8975	297.363	82.5697	297.363	83.1977	297.363	82.9598	297.363	83.9477	297.363	83.6713	297.363	84.7639	297.363	84.4688	297.363	85.4062	297.363	85.1657	297.363	85.78	297.363	85.6482	297.363	85.8602
307.617	88.8194	307.617	88.6816	307.617	88.8692	307.617	88.4531	307.617	88.8312	307.617	88.1277	307.617	88.7049	307.617	87.698	307.617	88.4878	307.617	87.1606	307.617	88.1713	307.617	86.5238	307.617	87.7369	307.617	85.8108	307.617	87.1568	307.617	85.0546	307.617	86.4081	307.617	84.2929	307.617	85.5023	307.617	83.582	307.617	84.5312	307.617	83.0356	307.617	83.7025	307.617	82.8324	307.617	83.2775	307.617	83.0911	307.617	83.3646	307.617	83.7125	307.617	83.819	307.617	84.4422	307.617	84.4059	307.617	85.0546	307.617	84.9504	307.617	85.4268	307.617	85.3451	307.617	85.5191
319.336	89.0838	319.336	88.9671	319.336	89.1185	319.336	88.7769	319.336	89.0574	319.336	88.5101	319.336	88.8868	319.336	88.149	319.336	88.5936	319.336	87.6638	319.336	88.1642	319.336	87.021	319.336	87.5821	319.336	86.1945	319.336	86.8279	319.336	85.1764	319.336	85.8852	319.336	83.9997	319.336	84.7627	319.336	82.7875	319.336	83.5489	319.336	81.8295	319.336	82.5015	319.336	81.5307	319.336	82.0319	319.336	82.0293	319.336	82.3403	319.336	82.9894	319.336	83.1414	319.336	83.9811	319.336	84.0196	319.336	84.7566	319.336	84.7349	319.336	85.2234	319.336	85.1951	319.336	85.3652
329.59	89.0473	329.59	88.9805	329.59	89.0638	329.59	88.8597	329.59	89.0302	329.59	88.6785	329.59	88.9409	329.59	88.4259	329.59	88.7832	329.59	88.0829	329.59	88.5372	329.59	87.6224	329.59	88.1773	329.59	87.0117	329.59	87.6728	329.59	86.2225	329.59	86.989	329.59	85.2477	329.59	86.0955	329.59	84.1388	329.59	84.9965	329.59	83.0722	329.59	83.806	329.59	82.3876	329.59	82.8494	329.59	82.3903	329.59	82.5614	329.59	82.9879	329.59	82.9998	329.59	83.7875	329.59	83.7533	329.59	84.4711	329.59	84.4346	329.59	84.8979	329.59	84.8753	329.59	85.0326
341.309	89.6034	341.309	89.5772	341.309	89.5398	341.309	89.4546	341.309	89.3974	341.309	89.2347	341.309	89.1851	341.309	88.92	341.309	88.9026	341.309	88.5075	341.309	88.5366	341.309	87.9792	341.309	88.0615	341.309	87.2968	341.309	87.4479	341.309	86.4099	341.309	86.6789	341.309	85.2829	341.309	85.776	341.309	83.9555	341.309	84.8402	341.309	82.655	341.309	84.0904	341.309	81.8738	341.309	83.8024	341.309	82.0298	341.309	84.075	341.309	82.9165	341.309	84.7023	341.309	84.0092	341.309	85.3754	341.309	84.9694	341.309	85.8811	341.309	85.663	341.309	86.118	341.309	86.0484
353.027	89.9112	353.027	89.8578	353.027	89.9055	353.027	89.7389	353.027	89.8411	353.027	89.5464	353.027	89.7111	353.027	89.2765	353.027	89.5041	353.027	88.9291	353.027	89.2048	353.027	88.5008	353.027	88.7902	353.027	87.9739	353.027	88.2217	353.027	87.314	353.027	87.4389	353.027	86.4832	353.027	86.3651	353.027	85.4725	353.027	84.9413	353.027	84.362	353.027	83.2421	353.027	83.4092	353.027	81.7638	353.027	83.024	353.027	81.4591	353.027	83.3859	353.027	82.4296	353.027	84.1745	353.027	83.7308	353.027	84.9496	353.027	84.7668	353.027	85.4618	353.027	85.3958	353.027	85.6204
366.211	90.9891	366.211	90.8574	366.211	91.0163	366.211	90.6282	366.211	90.9383	366.211	90.3067	366.211	90.7615	366.211	89.8862	366.211	90.4948	366.211	89.346	366.211	90.1407	366.211	88.658	366.211	89.6889	366.211	87.7992	366.211	89.1148	366.211	86.7591	366.211	88.3806	366.211	85.5393	366.211	87.4377	366.211	84.1722	366.211	86.2316	366.211	82.8235	366.211	84.7382	366.211	81.981	366.211	83.1061	366.211	82.2054	366.211	81.961	366.211	83.2667	366.211	82.1472	366.211	84.449	366.211	83.3573	366.211	85.344	366.211	84.6288	366.211	85.8357	366.211	85.5029	366.211	85.8975
379.395	90.4286	379.395	90.401	379.395	90.4302	379.395	90.3399	379.395	90.4023	379.395	90.2303	379.395	90.3323	379.395	90.0567	379.395	90.2031	379.395	89.8055	379.395	89.9979	379.395	89.454	379.395	89.7007	379.395	88.9545	379.395	89.2927	379.395	88.2315	379.395	88.7451	379.395	87.2043	379.395	88.0223	379.395	85.8355	379.395	87.1048	379.395	84.2355	379.395	86.0421	379.395	82.8549	379.395	85.0278	379.395	82.4507	379.395	84.4109	379.395	83.203	379.395	84.4544	379.395	84.4352	379.395	85.0283	379.395	85.5428	379.395	85.7543	379.395	86.2621	379.395	86.3126	379.395	86.5133
392.578	90.3114	392.578	90.2464	392.578	90.2912	392.578	90.1148	392.578	90.1825	392.578	89.9405	392.578	89.9943	392.578	89.7364	392.578	89.7375	392.578	89.4942	392.578	89.4133	392.578	89.1841	392.578	89.0106	392.578	88.7596	392.578	88.5111	392.578	88.1615	392.578	87.8911	392.578	87.3235	392.578	87.1172	392.578	86.193	392.578	86.1496	392.578	84.7989	392.578	84.9928	392.578	83.4258	392.578	83.8424	392.578	82.7766	392.578	83.2426	392.578	83.3334	392.578	83.6597	392.578	84.5409	392.578	84.726	392.578	85.6661	392.578	85.7689	392.578	86.3968	392.578	86.445	392.578	86.6591
405.762	90.274	405.762	90.1872	405.762	90.2434	405.762	89.988	405.762	90.0955	405.762	89.6852	405.762	89.8383	405.762	89.2943	405.762	89.4852	405.762	88.8395	405.762	89.0456	405.762	88.3445	405.762	88.5113	405.762	87.809	405.762	87.8532	405.762	87.1898	405.762	87.0334	405.762	86.4111	405.762	86.0325	405.762	85.409	405.762	84.8923	405.762	84.205	405.762	83.7803	405.762	83.0275	405.762	83.0368	405.762	82.3926	405.762	83.0165	405.762	82.7248	405.762	83.7008	405.762	83.7617	405.762	84.6869	405.762	84.9085	405.762	85.5705	405.762	85.7743	405.762	86.1105	405.762	86.19
420.41	90.7458	420.41	90.6084	420.41	90.7893	420.41	90.3977	420.41	90.7427	420.41	90.1413	420.41	90.6308	420.41	89.8477	420.41	90.4814	420.41	89.4909	420.41	90.3025	420.41	89.022	420.41	90.067	420.41	88.3964	420.41	89.7113	420.41	87.5895	420.41	89.1423	420.41	86.5853	420.41	88.2498	420.41	85.3565	420.41	86.9223	420.41	83.9056	420.41	85.0785	420.41	82.478	420.41	82.7845	420.41	81.8371	420.41	80.6557	420.41	82.5121	420.41	80.108	420.41	83.7644	420.41	81.3119	420.41	84.7457	420.41	82.9078	420.41	85.1512	420.41	84.1796	420.41	84.9485
435.059	90.3268	435.059	90.3128	435.059	90.2341	435.059	90.1984	435.059	90.0442	435.059	89.996	435.059	89.7853	435.059	89.7111	435.059	89.493	435.059	89.3312	435.059	89.1858	435.059	88.8232	435.059	88.8421	435.059	88.1396	435.059	88.4063	435.059	87.2221	435.059	87.8201	435.059	86.0089	435.059	87.0519	435.059	84.4834	435.059	86.1083	435.059	82.8466	435.059	85.0555	435.059	81.7954	435.059	84.1119	435.059	82.0705	435.059	83.7256	435.059	83.2636	435.059	84.2043	435.059	84.5577	435.059	85.1976	435.059	85.6064	435.059	86.1153	435.059	86.3325	435.059	86.6375	435.059	86.6959
451.172	90.6689	451.172	90.605	451.172	90.6467	451.172	90.4559	451.172	90.5458	451.172	90.2376	451.172	90.3783	451.172	89.9847	451.172	90.1563	451.172	89.7357	451.172	89.8835	451.172	89.4916	451.172	89.5467	451.172	89.177	451.172	89.1112	451.172	88.6446	451.172	88.5159	451.172	87.7165	451.172	87.6649	451.172	86.2104	451.172	86.4202	451.172	83.95	451.172	84.6184	451.172	80.9976	451.172	82.2295	451.172	79.2009	451.172	80.1563	451.172	81.0498	451.172	80.5874	451.172	83.6368	451.172	82.6666	451.172	85.3393	451.172	84.4727	451.172	86.1354	451.172	85.6354	451.172	86.1946
465.82	90.3487	465.82	90.2905	465.82	90.3427	465.82	90.169	465.82	90.2698	465.82	89.9783	465.82	90.1357	465.82	89.722	465.82	89.9552	465.82	89.4345	465.82	89.7458	465.82	89.1615	465.82	89.5177	465.82	88.8923	465.82	89.2542	465.82	88.5117	465.82	88.8891	465.82	87.8349	465.82	88.2969	465.82	86.6792	465.82	87.2975	465.82	84.9281	465.82	85.6782	465.82	82.6814	465.82	83.3072	465.82	80.8395	465.82	80.8318	465.82	81.1885	465.82	80.7778	465.82	83.177	465.82	82.9621	465.82	85.0544	465.82	84.9644	465.82	86.2272	465.82	86.185	465.82	86.6042
483.398	90.4718	483.398	90.2599	483.398	90.4586	483.398	89.9011	483.398	90.1975	483.398	89.4962	483.398	89.7325	483.398	89.1133	483.398	89.1763	483.398	88.7563	483.398	88.69	483.398	88.404	483.398	88.4077	483.398	88.0579	483.398	88.3301	483.398	87.7027	483.398	88.3043	483.398	87.215	483.398	88.1165	483.398	86.3515	483.398	87.5779	483.398	84.8249	483.398	86.5457	483.398	82.4674	483.398	84.948	483.398	80.0191	483.398	83.0015	483.398	80.1257	483.398	81.8421	483.398	82.257	483.398	82.6621	483.398	84.087	483.398	84.2428	483.398	85.1934	483.398	85.3146	483.398	85.6138
499.512	91.1916	499.512	91.0053	499.512	91.1794	499.512	90.6219	499.512	90.9884	499.512	90.0778	499.512	90.6444	499.512	89.451	499.512	90.1682	499.512	88.8396	499.512	89.5788	499.512	88.3102	499.512	88.9153	499.512	87.8551	499.512	88.2469	499.512	87.4006	499.512	87.615	499.512	86.8379	499.512	86.9382	499.512	86.0309	499.512	86.0162	499.512	84.8204	499.512	84.6514	499.512	83.1247	499.512	82.8293	499.512	81.4198	499.512	81.0996	499.512	81.3594	499.512	80.8281	499.512	83.1643	499.512	82.2808	499.512	84.9838	499.512	84.1052	499.512	86.0067	499.512	85.4803	499.512	86.1497
517.09	90.3011	517.09	90.1824	517.09	90.2281	517.09	89.8725	517.09	89.9912	517.09	89.4114	517.09	89.6363	517.09	88.8847	517.09	89.2181	517.09	88.4008	517.09	88.7854	517.09	88.0155	517.09	88.3627	517.09	87.6624	517.09	87.9465	517.09	87.1894	517.09	87.5206	517.09	86.4563	517.09	87.0528	517.09	85.377	517.09	86.4462	517.09	83.8943	517.09	85.5003	517.09	82.0102	517.09	83.978	517.09	80.2158	517.09	81.9037	517.09	80.0997	517.09	80.4169	517.09	81.8808	517.09	81.2181	517.09	83.7713	517.09	83.0884	517.09	84.9204	517.09	84.5306	517.09	85.169
536.133	90.8975	536.133	90.7339	536.133	90.8117	536.133	90.323	536.133	90.4873	536.133	89.6871	536.133	89.9495	536.133	88.887	536.133	89.2471	536.133	88.0493	536.133	88.4669	536.133	87.3562	536.133	87.7421	536.133	86.9146	536.133	87.2083	536.133	86.5978	536.133	86.8788	536.133	86.0964	536.133	86.5539	536.133	85.0749	536.133	85.9016	536.133	83.2061	536.133	84.5967	536.133	80.2113	536.133	82.479	536.133	77.406	536.133	80.2671	536.133	79.5633	536.133	80.4719	536.133	83.0511	536.133	82.708	536.133	85.271	536.133	84.6976	536.133	86.3434	536.133	85.9629	536.133	86.5242
555.176	90.3118	555.176	90.3165	555.176	90.1646	555.176	90.1495	555.176	89.9019	555.176	89.7736	555.176	89.547	555.176	89.1655	555.176	89.115	555.176	88.3707	555.176	88.6212	555.176	87.5286	555.176	88.0869	555.176	86.7795	555.176	87.5195	555.176	86.0961	555.176	86.8832	555.176	85.2659	555.176	86.0991	555.176	84.0444	555.176	85.0461	555.176	82.2468	555.176	83.526	555.176	79.6936	555.176	81.2534	555.176	76.3466	555.176	78.2989	555.176	74.9069	555.176	77.1315	555.176	78.2938	555.176	79.2982	555.176	81.5121	555.176	81.565	555.176	83.228	555.176	83.0176	555.176	83.6332
574.219	90.613	574.219	90.3104	574.219	90.6602	574.219	89.8205	574.219	90.4153	574.219	89.2325	574.219	89.8758	574.219	88.6185	574.219	89.1015	574.219	88.0251	574.219	88.2408	574.219	87.5238	574.219	87.4727	574.219	87.1904	574.219	86.8652	574.219	86.9538	574.219	86.3464	574.219	86.5421	574.219	85.8254	574.219	85.5965	574.219	85.193	574.219	83.712	574.219	84.1667	574.219	80.2435	574.219	82.2074	574.219	73.7347	574.219	78.4988	574.219	72.2655	574.219	73.7462	574.219	78.81	574.219	77.5045	574.219	82.1303	574.219	81.6924	574.219	83.7589	574.219	83.7176	574.219	84.2831
594.727	90.6797	594.727	90.3728	594.727	90.6598	594.727	89.766	594.727	90.3164	594.727	88.9032	594.727	89.6812	594.727	87.839	594.727	88.7935	594.727	86.6807	594.727	87.7095	594.727	85.6574	594.727	86.6165	594.727	85.0269	594.727	85.9214	594.727	84.8108	594.727	85.839	594.727	84.7798	594.727	85.9127	594.727	84.6114	594.727	85.4828	594.727	83.8992	594.727	84.1354	594.727	82.1493	594.727	81.6319	594.727	78.9277	594.727	77.8403	594.727	75.7408	594.727	74.5603	594.727	77.926	594.727	76.764	594.727	81.1386	594.727	80.0795	594.727	82.8841	594.727	82.2452	594.727	83.2072
615.234	92.1718	615.234	92.0621	615.234	92.0121	615.234	91.6279	615.234	91.6653	615.234	90.8911	615.234	91.188	615.234	89.97	615.234	90.5907	615.234	89.0295	615.234	89.8782	615.234	88.1858	615.234	89.1193	615.234	87.4989	615.234	88.4413	615.234	87.0138	615.234	87.9092	615.234	86.6301	615.234	87.45	615.234	86.0228	615.234	86.9052	615.234	84.8617	615.234	86.0668	615.234	82.976	615.234	84.6665	615.234	80.2858	615.234	82.4299	615.234	76.7704	615.234	79.4359	615.234	74.4728	615.234	77.7914	615.234	77.0492	615.234	79.4152	615.234	79.9446	615.234	81.0689	615.234	81.2945
637.207	94.8263	637.207	94.6912	637.207	94.7001	637.207	94.2897	637.207	94.3172	637.207	93.619	637.207	93.6868	637.207	92.6899	637.207	92.8435	637.207	91.5555	637.207	91.8667	637.207	90.3644	637.207	90.8789	637.207	89.3863	637.207	90.0209	637.207	88.8423	637.207	89.4114	637.207	88.6283	637.207	89.0512	637.207	88.355	637.207	88.7289	637.207	87.5584	637.207	88.0713	637.207	85.7234	637.207	86.6497	637.207	82.0597	637.207	84.0726	637.207	76.507	637.207	80.9135	637.207	80.233	637.207	81.354	637.207	84.7098	637.207	84.1581	637.207	86.6095	637.207	86.0382	637.207	86.8771
659.18	94.3633	659.18	94.2314	659.18	94.3159	659.18	93.8759	659.18	94.0944	659.18	93.2345	659.18	93.6686	659.18	92.3005	659.18	92.9992	659.18	91.211	659.18	92.0884	659.18	90.2044	659.18	91.0268	659.18	89.4181	659.18	89.9979	659.18	88.8007	659.18	89.2112	659.18	88.1993	659.18	88.7506	659.18	87.422	659.18	88.4107	659.18	86.2674	659.18	87.7189	659.18	84.4213	659.18	86.158	659.18	81.317	659.18	83.3474	659.18	77.3156	659.18	79.5592	659.18	78.5221	659.18	79.3133	659.18	82.2497	659.18	83.0194	659.18	84.705	659.18	85.3637	659.18	85.8183
682.617	94.5101	682.617	94.3215	682.617	94.4514	682.617	93.8906	682.617	94.1461	682.617	93.243	682.617	93.5661	682.617	92.3919	682.617	92.6681	682.617	91.3341	682.617	91.4847	682.617	90.1513	682.617	90.2222	682.617	89.0708	682.617	89.2362	682.617	88.3399	682.617	88.7524	682.617	88.0571	682.617	88.5929	682.617	87.9655	682.617	88.3681	682.617	87.4959	682.617	87.7665	682.617	86.1424	682.617	86.4933	682.617	83.4516	682.617	84.1273	682.617	78.9429	682.617	80.5527	682.617	77.7446	682.617	78.8235	682.617	82.1208	682.617	81.4364	682.617	84.5403	682.617	83.9187	682.617	85.0193
707.52	94.3279	707.52	94.1219	707.52	94.2036	707.52	93.6195	707.52	93.7495	707.52	92.8456	707.52	93.0226	707.52	91.7964	707.52	92.0896	707.52	90.4844	707.52	90.9477	707.52	89.0268	707.52	89.5771	707.52	87.7005	707.52	88.239	707.52	86.9391	707.52	87.583	707.52	86.9155	707.52	87.7344	707.52	87.049	707.52	88.0252	707.52	86.6461	707.52	87.855	707.52	85.3867	707.52	86.6835	707.52	83.0284	707.52	83.8279	707.52	79.3428	707.52	78.7849	707.52	79.406	707.52	78.3143	707.52	84.1339	707.52	82.8258	707.52	86.6881	707.52	85.6383	707.52	86.992
732.422	92.5375	732.422	92.4793	732.422	92.3145	732.422	92.0187	732.422	91.9398	732.422	91.1429	732.422	91.4018	732.422	89.9513	732.422	90.5552	732.422	88.6026	732.422	89.3289	732.422	87.2491	732.422	87.8838	732.422	86.1667	732.422	86.4981	732.422	85.7557	732.422	85.337	732.422	85.7535	732.422	84.6155	732.422	85.4453	732.422	84.563	732.422	84.567	732.422	84.6767	732.422	82.7872	732.422	84.053	732.422	78.9949	732.422	81.7245	732.422	71.6529	732.422	75.3172	732.422	76.3681	732.422	74.3509	732.422	81.6103	732.422	82.2444	732.422	84.1845	732.422	85.0258	732.422	85.3498
757.324	90.7007	757.324	90.518	757.324	90.7226	757.324	90.2365	757.324	90.3198	757.324	89.6093	757.324	89.4603	757.324	88.4739	757.324	88.3938	757.324	87.0955	757.324	87.3105	757.324	85.9321	757.324	86.1953	757.324	84.7013	757.324	84.9587	757.324	82.8953	757.324	83.739	757.324	81.7519	757.324	83.2164	757.324	82.188	757.324	83.1806	757.324	81.978	757.324	82.2304	757.324	79.6783	757.324	79.5252	757.324	74.1604	757.324	75.0524	757.324	63.5774	757.324	70.2755	757.324	74.3207	757.324	71.9378	757.324	78.7488	757.324	77.6017	757.324	80.819	757.324	80.7794	757.324	81.5876
785.156	92.4123	785.156	92.1217	785.156	92.3264	785.156	91.5496	785.156	92.0104	785.156	90.9004	785.156	91.6041	785.156	90.2032	785.156	90.9573	785.156	89.3445	785.156	89.8095	785.156	88.2354	785.156	88.2746	785.156	86.9202	785.156	86.9877	785.156	85.8705	785.156	86.2563	785.156	85.604	785.156	85.7547	785.156	85.7417	785.156	85.457	785.156	85.9358	785.156	85.6052	785.156	85.952	785.156	85.6543	785.156	84.5285	785.156	84.1221	785.156	78.9784	785.156	79.308	785.156	64.6988	785.156	71.2291	785.156	80.637	785.156	78.841	785.156	84.0634	785.156	82.8762	785.156	84.5479
811.523	93.992	811.523	93.9128	811.523	93.7952	811.523	93.5359	811.523	93.3433	811.523	92.8569	811.523	92.6693	811.523	91.836	811.523	91.7306	811.523	90.327	811.523	90.3405	811.523	88.3063	811.523	88.349	811.523	86.098	811.523	86.0738	811.523	84.5781	811.523	84.5663	811.523	85.2886	811.523	84.5725	811.523	87.0957	811.523	85.5134	811.523	88.127	811.523	86.2312	811.523	87.7809	811.523	86.3039	811.523	85.6256	811.523	85.6777	811.523	80.5275	811.523	83.3048	811.523	62.9223	811.523	76.1486	811.523	77.0857	811.523	69.4248	811.523	81.8257	811.523	79.8973	811.523	82.4119
840.82	94.5941	840.82	94.4623	840.82	94.5211	840.82	94.1647	840.82	94.2393	840.82	93.5972	840.82	93.7197	840.82	92.5253	840.82	92.8208	840.82	90.8276	840.82	91.579	840.82	88.7001	840.82	90.3031	840.82	86.6906	840.82	88.9147	840.82	84.7403	840.82	86.9377	840.82	82.2421	840.82	84.7528	840.82	82.0437	840.82	84.1492	840.82	84.256	840.82	85.5369	840.82	85.1332	840.82	86.39	840.82	84.1613	840.82	85.4551	840.82	80.3963	840.82	82.1983	840.82	67.1143	840.82	73.8613	840.82	76.2818	840.82	75.5012	840.82	81.2992	840.82	81.0562	840.82	82.4408
870.117	95.3825	870.117	95.1071	870.117	95.3179	870.117	94.4685	870.117	94.8904	870.117	93.4757	870.117	94.1882	870.117	92.3559	870.117	93.364	870.117	91.3542	870.117	92.3506	870.117	90.1062	870.117	90.9368	870.117	87.6951	870.117	89.0569	870.117	84.0816	870.117	87.0442	870.117	82.9844	870.117	85.7894	870.117	84.9106	870.117	85.3758	870.117	86.5262	870.117	85.1696	870.117	87.0013	870.117	85.2515	870.117	85.7743	870.117	84.2431	870.117	81.6117	870.117	80.9357	870.117	68.786	870.117	74.6631	870.117	73.2329	870.117	63.9888	870.117	79.4522	870.117	78.7381	870.117	81.5653
900.879	95.2292	900.879	94.87	900.879	95.2581	900.879	94.3095	900.879	94.9022	900.879	93.606	900.879	94.1732	900.879	92.5547	900.879	93.1303	900.879	90.8399	900.879	91.9191	900.879	88.7574	900.879	90.6113	900.879	87.4154	900.879	88.9482	900.879	86.0031	900.879	86.2648	900.879	81.4741	900.879	82.9214	900.879	75.5361	900.879	82.9904	900.879	81.9428	900.879	84.2869	900.879	83.9737	900.879	85.311	900.879	83.1495	900.879	85.9585	900.879	80.0993	900.879	84.1741	900.879	73.8324	900.879	79.0866	900.879	69.503	900.879	75.2479	900.879	79.5224	900.879	78.6525	900.879	80.9974
933.105	94.3532	933.105	94.3752	933.105	94.2029	933.105	94.1745	933.105	93.9123	933.105	93.5249	933.105	93.6149	933.105	92.4495	933.105	93.1637	933.105	91.2592	933.105	92.126	933.105	90.0832	933.105	90.8318	933.105	88.6633	933.105	89.6088	933.105	86.6775	933.105	87.5889	933.105	84.0718	933.105	85.1562	933.105	81.5701	933.105	84.2217	933.105	81.2982	933.105	84.3964	933.105	82.7298	933.105	84.0938	933.105	82.5562	933.105	82.2115	933.105	78.1336	933.105	79.3321	933.105	64.9277	933.105	74.3052	933.105	77.0888	933.105	74.9778	933.105	80.8793	933.105	81.2921	933.105	82.6244
965.332	94.7067	965.332	94.296	965.332	94.839	965.332	93.8632	965.332	94.46	965.332	93.3686	965.332	93.4617	965.332	92.5161	965.332	92.0279	965.332	91.1867	965.332	90.7437	965.332	89.661	965.332	89.6813	965.332	88.0254	965.332	88.0567	965.332	85.4611	965.332	85.6759	965.332	80.8108	965.332	82.8343	965.332	76.3068	965.332	80.1376	965.332	79.6903	965.332	78.1842	965.332	82.2298	965.332	76.9871	965.332	81.2888	965.332	77.889	965.332	79.0108	965.332	76.6407	965.332	72.8419	965.332	65.7908	965.332	69.8559	965.332	76.6905	965.332	78.8611	965.332	79.9594	965.332	80.0557
1,000.49	93.5265	1,000.49	93.434	1,000.49	93.2384	1,000.49	92.6747	1,000.49	92.8299	1,000.49	91.4735	1,000.49	92.3759	1,000.49	90.3759	1,000.49	91.7083	1,000.49	89.2302	1,000.49	90.4945	1,000.49	87.7397	1,000.49	89.0396	1,000.49	86.3392	1,000.49	87.6007	1,000.49	85.8654	1,000.49	85.3976	1,000.49	85.3298	1,000.49	82.6881	1,000.49	83.4054	1,000.49	81.3303	1,000.49	81.3466	1,000.49	81.9265	1,000.49	82.6447	1,000.49	82.3426	1,000.49	83.4299	1,000.49	82.8759	1,000.49	81.0143	1,000.49	82.4401	1,000.49	72.8013	1,000.49	76.4978	1,000.49	70.4034	1,000.49	72.9807	1,000.49	78.6341	1,000.49	79.7469	1,000.49	80.6926
1,035.64	92.9271	1,035.64	92.7434	1,035.64	92.9795	1,035.64	92.3491	1,035.64	92.5886	1,035.64	91.4191	1,035.64	91.826	1,035.64	90.3795	1,035.64	91.2203	1,035.64	89.4823	1,035.64	90.636	1,035.64	88.1106	1,035.64	89.5722	1,035.64	86.9512	1,035.64	88.1101	1,035.64	86.2756	1,035.64	86.0577	1,035.64	84.9519	1,035.64	83.2872	1,035.64	83.0491	1,035.64	80.7177	1,035.64	81.2021	1,035.64	79.1843	1,035.64	82.0536	1,035.64	79.0344	1,035.64	81.6695	1,035.64	78.0805	1,035.64	78.6255	1,035.64	77.6247	1,035.64	73.505	1,035.64	74.645	1,035.64	65.4687	1,035.64	69.293	1,035.64	77.4389	1,035.64	78.4199	1,035.64	79.9528
1,072.27	92.5949	1,072.27	92.3631	1,072.27	92.3731	1,072.27	91.4651	1,072.27	91.9799	1,072.27	90.274	1,072.27	91.2458	1,072.27	88.8669	1,072.27	90.0466	1,072.27	87.436	1,072.27	88.5141	1,072.27	86.193	1,072.27	86.8279	1,072.27	84.8134	1,072.27	84.9908	1,072.27	83.0339	1,072.27	83.1803	1,072.27	80.2717	1,072.27	81.3631	1,072.27	77.7933	1,072.27	77.9186	1,072.27	74.6237	1,072.27	73.9272	1,072.27	76.2171	1,072.27	73.4883	1,072.27	78.1447	1,072.27	75.9979	1,072.27	76.7241	1,072.27	75.3892	1,072.27	71.1044	1,072.27	65.5562	1,072.27	65.782	1,072.27	74.3057	1,072.27	76.154	1,072.27	80.1439	1,072.27	80.1527
1,108.89	91.4042	1,108.89	90.9691	1,108.89	91.272	1,108.89	90.0399	1,108.89	90.8562	1,108.89	88.7232	1,108.89	90.2947	1,108.89	87.229	1,108.89	89.386	1,108.89	86.0707	1,108.89	88.0669	1,108.89	84.9856	1,108.89	86.6405	1,108.89	83.1254	1,108.89	85.3432	1,108.89	81.6639	1,108.89	83.1116	1,108.89	80.9516	1,108.89	80.5163	1,108.89	80.3715	1,108.89	81.2168	1,108.89	79.4155	1,108.89	80.4537	1,108.89	77.5241	1,108.89	78.5523	1,108.89	79.4984	1,108.89	78.3659	1,108.89	77.8126	1,108.89	76.332	1,108.89	67.7383	1,108.89	74.2208	1,108.89	66.8227	1,108.89	74.671	1,108.89	75.1293	1,108.89	75.1056	1,108.89	76.4402
1,148.44	90.849	1,148.44	90.4699	1,148.44	91.1891	1,148.44	90.0577	1,148.44	90.9235	1,148.44	88.8612	1,148.44	89.8937	1,148.44	86.8994	1,148.44	88.5769	1,148.44	85.7033	1,148.44	87.2304	1,148.44	85.0348	1,148.44	85.5497	1,148.44	83.2593	1,148.44	84.6957	1,148.44	82.5557	1,148.44	83.9011	1,148.44	82.5449	1,148.44	82.1804	1,148.44	80.5821	1,148.44	79.3627	1,148.44	77.6169	1,148.44	76.1684	1,148.44	78.3909	1,148.44	79.159	1,148.44	79.7386	1,148.44	78.6022	1,148.44	79.166	1,148.44	78.2747	1,148.44	75.0305	1,148.44	76.6676	1,148.44	57.6901	1,148.44	66.8805	1,148.44	70.7304	1,148.44	71.663	1,148.44	76.0264
1,189.45	91.0776	1,189.45	90.6637	1,189.45	90.9203	1,189.45	89.8184	1,189.45	90.5086	1,189.45	88.8438	1,189.45	89.8531	1,189.45	87.8846	1,189.45	88.5516	1,189.45	86.8632	1,189.45	86.9676	1,189.45	86.3612	1,189.45	85.4233	1,189.45	85.4952	1,189.45	83.8662	1,189.45	82.4382	1,189.45	82.7266	1,189.45	79.4432	1,189.45	80.4549	1,189.45	78.2047	1,189.45	78.5533	1,189.45	77.6867	1,189.45	78.5365	1,189.45	75.6184	1,189.45	77.949	1,189.45	76.0872	1,189.45	80.4259	1,189.45	77.2061	1,189.45	80.3487	1,189.45	75.9168	1,189.45	77.1913	1,189.45	71.4074	1,189.45	72.7197	1,189.45	68.8428	1,189.45	67.169	1,189.45	68.0571
1,230.47	91.6868	1,230.47	91.2896	1,230.47	91.5785	1,230.47	90.5331	1,230.47	90.935	1,230.47	89.4215	1,230.47	89.7693	1,230.47	88.1067	1,230.47	88.0319	1,230.47	86.7514	1,230.47	86.2706	1,230.47	85.4058	1,230.47	84.9826	1,230.47	84.0362	1,230.47	83.6138	1,230.47	82.6927	1,230.47	82.3141	1,230.47	81.0604	1,230.47	81.7824	1,230.47	79.8543	1,230.47	81.188	1,230.47	78.446	1,230.47	79.3495	1,230.47	74.5302	1,230.47	77.4655	1,230.47	74.5541	1,230.47	77.4542	1,230.47	77.9548	1,230.47	77.5285	1,230.47	75.8767	1,230.47	76.1898	1,230.47	68.7989	1,230.47	70.5747	1,230.47	66.4761	1,230.47	65.0901	1,230.47	72.6567
1,274.41	91.2415	1,274.41	90.4371	1,274.41	91.3882	1,274.41	89.5767	1,274.41	90.64	1,274.41	88.6585	1,274.41	89.5261	1,274.41	87.5804	1,274.41	87.769	1,274.41	85.9672	1,274.41	85.6009	1,274.41	84.6521	1,274.41	83.5306	1,274.41	83.9061	1,274.41	80.9413	1,274.41	82.5292	1,274.41	80.688	1,274.41	82.2591	1,274.41	80.1957	1,274.41	80.766	1,274.41	77.1823	1,274.41	78.4868	1,274.41	76.0774	1,274.41	77.3091	1,274.41	74.1088	1,274.41	77.5128	1,274.41	75.7588	1,274.41	77.4841	1,274.41	77.0513	1,274.41	75.8917	1,274.41	73.8802	1,274.41	69.8797	1,274.41	67.1141	1,274.41	65.6102	1,274.41	60.5407	1,274.41	70.2435
1,319.82	90.1939	1,319.82	89.8485	1,319.82	90.0427	1,319.82	89.3682	1,319.82	89.3677	1,319.82	88.2835	1,319.82	88.3293	1,319.82	86.7174	1,319.82	86.9372	1,319.82	85.4185	1,319.82	85.5453	1,319.82	83.5517	1,319.82	84.1023	1,319.82	81.4932	1,319.82	82.3569	1,319.82	81.8412	1,319.82	79.9962	1,319.82	81.3053	1,319.82	78.9157	1,319.82	78.8632	1,319.82	78.4263	1,319.82	77.7591	1,319.82	76.3978	1,319.82	77.6263	1,319.82	74.2297	1,319.82	75.7388	1,319.82	75.9227	1,319.82	77.4095	1,319.82	77.0586	1,319.82	74.2873	1,319.82	74.733	1,319.82	63.0225	1,319.82	69.2094	1,319.82	66.3026	1,319.82	62.1981	1,319.82	72.2025
1,366.7	89.5277	1,366.7	89.3388	1,366.7	89.5638	1,366.7	88.3741	1,366.7	89.1729	1,366.7	87.0924	1,366.7	87.7978	1,366.7	85.615	1,366.7	86.1967	1,366.7	83.9561	1,366.7	84.6444	1,366.7	82.5456	1,366.7	83.0312	1,366.7	80.8168	1,366.7	81.2969	1,366.7	79.3954	1,366.7	79.1847	1,366.7	78.4511	1,366.7	78.0355	1,366.7	76.1286	1,366.7	77.8152	1,366.7	75.5552	1,366.7	77.5144	1,366.7	73.8512	1,366.7	75.1895	1,366.7	73.3468	1,366.7	74.0386	1,366.7	74.5839	1,366.7	75.3642	1,366.7	74.6354	1,366.7	76.3007	1,366.7	69.9036	1,366.7	71.7476	1,366.7	51.083	1,366.7	57.4599	1,366.7	64.3764
1,413.57	89.4315	1,413.57	89.2133	1,413.57	89.3403	1,413.57	88.3621	1,413.57	88.8353	1,413.57	87.0736	1,413.57	87.8355	1,413.57	85.6651	1,413.57	86.3492	1,413.57	83.0552	1,413.57	84.4993	1,413.57	80.8623	1,413.57	82.6919	1,413.57	80.1717	1,413.57	80.8845	1,413.57	78.6079	1,413.57	79.932	1,413.57	75.6694	1,413.57	78.1832	1,413.57	73.6491	1,413.57	76.9725	1,413.57	74.3173	1,413.57	77.0609	1,413.57	74.681	1,413.57	76.0682	1,413.57	75.4225	1,413.57	72.3223	1,413.57	77.0408	1,413.57	74.5846	1,413.57	75.4073	1,413.57	73.7194	1,413.57	67.3804	1,413.57	69.4258	1,413.57	60.1758	1,413.57	63.5486	1,413.57	67.2681
1,463.38	89.9916	1,463.38	89.5105	1,463.38	89.7671	1,463.38	88.7507	1,463.38	89.3145	1,463.38	87.7763	1,463.38	88.1784	1,463.38	86.2568	1,463.38	86.5663	1,463.38	84.7974	1,463.38	85.0971	1,463.38	82.3287	1,463.38	83.5529	1,463.38	80.7696	1,463.38	81.8797	1,463.38	79.7048	1,463.38	80.932	1,463.38	76.3966	1,463.38	79.5774	1,463.38	76.1395	1,463.38	77.1199	1,463.38	71.6678	1,463.38	75.115	1,463.38	68.1189	1,463.38	74.9372	1,463.38	70.5602	1,463.38	74.4482	1,463.38	74.0544	1,463.38	76.8728	1,463.38	73.4235	1,463.38	76.4973	1,463.38	66.8419	1,463.38	68.7376	1,463.38	62.4663	1,463.38	57.4955	1,463.38	61.9841
1,516.11	89.84	1,516.11	89.3357	1,516.11	89.8428	1,516.11	88.8188	1,516.11	88.6285	1,516.11	87.9434	1,516.11	87.4849	1,516.11	86.2537	1,516.11	86.0948	1,516.11	83.9867	1,516.11	84.4269	1,516.11	82.9808	1,516.11	83.0156	1,516.11	79.9422	1,516.11	80.6858	1,516.11	78.3548	1,516.11	78.8716	1,516.11	78.0308	1,516.11	77.5912	1,516.11	75.7116	1,516.11	75.2858	1,516.11	73.521	1,516.11	70.3906	1,516.11	72.7015	1,516.11	71.0036	1,516.11	68.4514	1,516.11	75.5397	1,516.11	70.4668	1,516.11	72.3378	1,516.11	73.2836	1,516.11	74.8158	1,516.11	64.1697	1,516.11	71.8057	1,516.11	70.2585	1,516.11	59.6984	1,516.11	67.1647
1,568.85	89.105	1,568.85	88.6109	1,568.85	89.42	1,568.85	87.6554	1,568.85	88.3121	1,568.85	85.7183	1,568.85	87.0048	1,568.85	84.7549	1,568.85	85.3655	1,568.85	83.1675	1,568.85	82.9881	1,568.85	80.8592	1,568.85	80.1836	1,568.85	78.1858	1,568.85	79.7497	1,568.85	77.198	1,568.85	78.214	1,568.85	77.4119	1,568.85	77.7135	1,568.85	75.1551	1,568.85	76.2076	1,568.85	71.7276	1,568.85	72.8466	1,568.85	70.896	1,568.85	73.4548	1,568.85	71.9606	1,568.85	70.9416	1,568.85	74.7063	1,568.85	70.553	1,568.85	74.3125	1,568.85	74.163	1,568.85	65.2531	1,568.85	73.2183	1,568.85	53.3341	1,568.85	46.663	1,568.85	65.2311
1,624.51	88.1757	1,624.51	87.3593	1,624.51	87.6457	1,624.51	85.989	1,624.51	86.6347	1,624.51	84.8532	1,624.51	85.8874	1,624.51	83.8378	1,624.51	84.346	1,624.51	81.4554	1,624.51	83.3676	1,624.51	78.3263	1,624.51	80.9553	1,624.51	77.0954	1,624.51	78.8885	1,624.51	73.7597	1,624.51	78.4283	1,624.51	72.4745	1,624.51	76.7535	1,624.51	72.8375	1,624.51	76.1078	1,624.51	67.9546	1,624.51	74.6378	1,624.51	69.3091	1,624.51	70.7812	1,624.51	67.5013	1,624.51	63.1422	1,624.51	71.9545	1,624.51	68.2889	1,624.51	72.2739	1,624.51	73.4856	1,624.51	70.4154	1,624.51	60.5499	1,624.51	63.7771	1,624.51	61.207	1,624.51	62.7594
1,681.64	87.4079	1,681.64	86.2963	1,681.64	87.33	1,681.64	85.7956	1,681.64	86.8675	1,681.64	83.8123	1,681.64	83.5655	1,681.64	81.6027	1,681.64	83.1613	1,681.64	81.2355	1,681.64	81.9545	1,681.64	79.0053	1,681.64	81.4721	1,681.64	78.8254	1,681.64	79.3148	1,681.64	73.7397	1,681.64	77.4641	1,681.64	75.3736	1,681.64	76.5843	1,681.64	75.5566	1,681.64	72.8521	1,681.64	74.854	1,681.64	70.1156	1,681.64	75.2122	1,681.64	70.9547	1,681.64	67.0387	1,681.64	68.1068	1,681.64	72.7546	1,681.64	73.3208	1,681.64	73.8111	1,681.64	72.4684	1,681.64	71.9854	1,681.64	70.3773	1,681.64	60.8162	1,681.64	70.3813	1,681.64	67.7058
1,741.7	88.5429	1,741.7	88.2907	1,741.7	88.357	1,741.7	87.2554	1,741.7	86.9907	1,741.7	85.8632	1,741.7	86.5037	1,741.7	83.7221	1,741.7	85.7	1,741.7	81.9122	1,741.7	83.5615	1,741.7	80.9886	1,741.7	82.4755	1,741.7	78.6768	1,741.7	80.3801	1,741.7	77.4984	1,741.7	78.1683	1,741.7	74.427	1,741.7	76.7525	1,741.7	72.4632	1,741.7	74.6365	1,741.7	73.0556	1,741.7	76.6839	1,741.7	74.1694	1,741.7	77.1982	1,741.7	71.755	1,741.7	73.0351	1,741.7	69.1676	1,741.7	71.0287	1,741.7	67.3266	1,741.7	74.181	1,741.7	67.3626	1,741.7	71.578	1,741.7	65.2067	1,741.7	68.7831	1,741.7	66.8858
1,803.22	88.7317	1,803.22	88.5043	1,803.22	88.583	1,803.22	88.2231	1,803.22	87.8256	1,803.22	86.5217	1,803.22	86.8597	1,803.22	85.5734	1,803.22	84.2448	1,803.22	84.0784	1,803.22	83.1351	1,803.22	82.7885	1,803.22	81.7521	1,803.22	80.0868	1,803.22	79.1505	1,803.22	77.1397	1,803.22	77.0044	1,803.22	74.237	1,803.22	75.4864	1,803.22	74.3589	1,803.22	73.3446	1,803.22	74.2358	1,803.22	69.8931	1,803.22	71.9952	1,803.22	68.2331	1,803.22	71.5335	1,803.22	67.691	1,803.22	73.3997	1,803.22	73.6549	1,803.22	74.3438	1,803.22	71.7025	1,803.22	68.4897	1,803.22	68.7504	1,803.22	66.7387	1,803.22	53.1676	1,803.22	71.5847
1,866.21	88.3338	1,866.21	88.204	1,866.21	87.891	1,866.21	87.4031	1,866.21	87.2312	1,866.21	86.0791	1,866.21	85.69	1,866.21	84.3128	1,866.21	83.9747	1,866.21	82.7596	1,866.21	81.925	1,866.21	81.3332	1,866.21	79.8091	1,866.21	79.404	1,866.21	77.6421	1,866.21	77.4722	1,866.21	76.41	1,866.21	76.1193	1,866.21	75.3442	1,866.21	74.6268	1,866.21	72.432	1,866.21	72.2614	1,866.21	70.2998	1,866.21	73.3118	1,866.21	71.0944	1,866.21	72.9816	1,866.21	70.7968	1,866.21	70.3156	1,866.21	67.1152	1,866.21	70.4663	1,866.21	72.4675	1,866.21	69.9731	1,866.21	71.5591	1,866.21	65.3351	1,866.21	66.1263	1,866.21	65.7041
1,932.13	87.6494	1,932.13	87.1993	1,932.13	87.5958	1,932.13	86.4244	1,932.13	86.7025	1,932.13	85.0667	1,932.13	85.5657	1,932.13	83.3942	1,932.13	84.0194	1,932.13	81.2844	1,932.13	82.0165	1,932.13	79.6906	1,932.13	80.1328	1,932.13	77.359	1,932.13	78.519	1,932.13	76.1316	1,932.13	76.0843	1,932.13	75.2689	1,932.13	73.5537	1,932.13	71.7522	1,932.13	73.6925	1,932.13	69.7071	1,932.13	70.1664	1,932.13	69.183	1,932.13	71.063	1,932.13	70.9984	1,932.13	71.4973	1,932.13	71.1835	1,932.13	69.382	1,932.13	72.8953	1,932.13	69.5619	1,932.13	68.9949	1,932.13	69.8755	1,932.13	66.9838	1,932.13	67.0413	1,932.13	68.4299
1,999.51	88.2834	1,999.51	87.9098	1,999.51	88.2496	1,999.51	87.0281	1,999.51	87.4962	1,999.51	85.5181	1,999.51	86.3797	1,999.51	83.711	1,999.51	85.0016	1,999.51	81.5796	1,999.51	83.0504	1,999.51	79.5435	1,999.51	81.0923	1,999.51	77.6511	1,999.51	79.3505	1,999.51	75.9058	1,999.51	77.1227	1,999.51	73.5073	1,999.51	75.6047	1,999.51	72.438	1,999.51	74.3772	1,999.51	68.956	1,999.51	71.745	1,999.51	69.6236	1,999.51	69.323	1,999.51	69.9743	1,999.51	71.8494	1,999.51	67.7875	1,999.51	70.914	1,999.51	71.3702	1,999.51	71.8886	1,999.51	69.9267	1,999.51	71.8789	1,999.51	67.9528	1,999.51	67.8423	1,999.51	68.4027
2,069.82	88.9117	2,069.82	88.4297	2,069.82	88.6788	2,069.82	87.5183	2,069.82	87.944	2,069.82	86.3338	2,069.82	86.7496	2,069.82	84.7343	2,069.82	85.3183	2,069.82	82.994	2,069.82	83.5445	2,069.82	80.5932	2,069.82	81.4516	2,069.82	78.447	2,069.82	79.4206	2,069.82	76.0883	2,069.82	77.2903	2,069.82	73.3628	2,069.82	73.7315	2,069.82	73.0859	2,069.82	73.3026	2,069.82	71.5301	2,069.82	72.6657	2,069.82	70.0085	2,069.82	68.1763	2,069.82	71.4738	2,069.82	72.2642	2,069.82	68.3419	2,069.82	70.45	2,069.82	70.9899	2,069.82	70.1438	2,069.82	69.3918	2,069.82	71.0041	2,069.82	65.8869	2,069.82	68.787	2,069.82	69.7692
2,143.07	88.4542	2,143.07	87.9114	2,143.07	88.2686	2,143.07	86.9974	2,143.07	87.3701	2,143.07	86.0462	2,143.07	86.2762	2,143.07	84.8533	2,143.07	84.962	2,143.07	83.2227	2,143.07	83.297	2,143.07	80.9015	2,143.07	81.212	2,143.07	79.1343	2,143.07	79.5022	2,143.07	76.9933	2,143.07	76.777	2,143.07	74.94	2,143.07	74.9016	2,143.07	73.2372	2,143.07	72.9694	2,143.07	71.4105	2,143.07	71.034	2,143.07	67.7383	2,143.07	66.4274	2,143.07	72.0879	2,143.07	70.6249	2,143.07	70.4821	2,143.07	69.5397	2,143.07	71.9426	2,143.07	70.1113	2,143.07	70.6848	2,143.07	70.2111	2,143.07	69.6935	2,143.07	67.3196	2,143.07	70.9538
2,219.24	88.0809	2,219.24	87.7067	2,219.24	88.011	2,219.24	86.904	2,219.24	87.4917	2,219.24	85.6349	2,219.24	86.4327	2,219.24	84.1853	2,219.24	85.2587	2,219.24	82.5888	2,219.24	83.6835	2,219.24	80.1428	2,219.24	81.8489	2,219.24	78.3021	2,219.24	79.4031	2,219.24	76.5339	2,219.24	77.7386	2,219.24	73.1928	2,219.24	75.6981	2,219.24	72.4433	2,219.24	73.1058	2,219.24	72.1187	2,219.24	73.5427	2,219.24	67.716	2,219.24	69.259	2,219.24	70.8791	2,219.24	70.4992	2,219.24	69.191	2,219.24	70.8589	2,219.24	70.2267	2,219.24	69.6064	2,219.24	70.2916	2,219.24	70.5747	2,219.24	65.1961	2,219.24	67.8693	2,219.24	69.4071
2,296.88	89.2812	2,296.88	88.8435	2,296.88	89.0752	2,296.88	88.1504	2,296.88	88.6416	2,296.88	86.9524	2,296.88	87.788	2,296.88	85.3575	2,296.88	86.4129	2,296.88	83.3801	2,296.88	84.7257	2,296.88	80.7511	2,296.88	82.7325	2,296.88	78.3839	2,296.88	80.0224	2,296.88	76.016	2,296.88	78.1111	2,296.88	73.9253	2,296.88	75.2728	2,296.88	71.6649	2,296.88	73.6104	2,296.88	71.7309	2,296.88	73.4188	2,296.88	66.4621	2,296.88	69.3024	2,296.88	70.684	2,296.88	70.2379	2,296.88	70.0274	2,296.88	71.5369	2,296.88	69.4665	2,296.88	69.841	2,296.88	69.3578	2,296.88	71.0288	2,296.88	65.1189	2,296.88	67.1697	2,296.88	69.5629
2,378.91	89.8583	2,378.91	89.6811	2,378.91	89.8552	2,378.91	89.1027	2,378.91	89.3312	2,378.91	88.0705	2,378.91	88.3427	2,378.91	86.2834	2,378.91	86.84	2,378.91	84.5605	2,378.91	84.8316	2,378.91	82.3642	2,378.91	82.347	2,378.91	79.807	2,378.91	80.0435	2,378.91	77.4741	2,378.91	77.2451	2,378.91	75.4902	2,378.91	75.4652	2,378.91	72.7548	2,378.91	72.9414	2,378.91	71.8232	2,378.91	71.4888	2,378.91	68.5961	2,378.91	69.9958	2,378.91	68.81	2,378.91	67.2268	2,378.91	71.2774	2,378.91	69.7431	2,378.91	71.2593	2,378.91	69.1304	2,378.91	71.4133	2,378.91	70.9455	2,378.91	68.0653	2,378.91	67.3304	2,378.91	69.8728
2,462.4	90.5747	2,462.4	90.3883	2,462.4	90.5081	2,462.4	89.632	2,462.4	90.0732	2,462.4	88.5452	2,462.4	89.1951	2,462.4	86.8234	2,462.4	87.8189	2,462.4	84.8747	2,462.4	85.8703	2,462.4	82.5362	2,462.4	83.487	2,462.4	80.0698	2,462.4	81.0764	2,462.4	78.0632	2,462.4	78.6584	2,462.4	76.3191	2,462.4	76.8631	2,462.4	73.694	2,462.4	74.5587	2,462.4	73.4316	2,462.4	73.0836	2,462.4	70.8432	2,462.4	72.822	2,462.4	69.4023	2,462.4	67.5203	2,462.4	70.005	2,462.4	71.4477	2,462.4	70.5163	2,462.4	70.3741	2,462.4	71.913	2,462.4	71.3373	2,462.4	68.195	2,462.4	67.0619	2,462.4	70.5789
2,548.83	91.4946	2,548.83	91.2989	2,548.83	91.2942	2,548.83	90.786	2,548.83	90.9742	2,548.83	89.7872	2,548.83	90.3036	2,548.83	88.1686	2,548.83	89.0315	2,548.83	85.8708	2,548.83	87.2477	2,548.83	83.6555	2,548.83	85.039	2,548.83	81.1536	2,548.83	82.444	2,548.83	78.6822	2,548.83	80.1214	2,548.83	77.0972	2,548.83	78.2997	2,548.83	74.6295	2,548.83	76.3241	2,548.83	74.3865	2,548.83	74.9671	2,548.83	73.549	2,548.83	74.4529	2,548.83	71.037	2,548.83	70.7796	2,548.83	72.9727	2,548.83	72.7848	2,548.83	71.5494	2,548.83	70.9958	2,548.83	73.254	2,548.83	72.4324	2,548.83	66.9429	2,548.83	68.0894	2,548.83	71.4804
2,639.65	89.4119	2,639.65	89.2554	2,639.65	89.3079	2,639.65	89.4438	2,639.65	88.9485	2,639.65	88.9165	2,639.65	88.7907	2,639.65	87.9967	2,639.65	87.427	2,639.65	85.754	2,639.65	85.6184	2,639.65	83.2822	2,639.65	83.0675	2,639.65	81.1355	2,639.65	80.4888	2,639.65	79.2939	2,639.65	78.9423	2,639.65	77.105	2,639.65	76.9464	2,639.65	74.5978	2,639.65	74.7349	2,639.65	72.4978	2,639.65	72.8502	2,639.65	72.488	2,639.65	72.2954	2,639.65	69.9452	2,639.65	69.1611	2,639.65	72.923	2,639.65	71.8601	2,639.65	71.5345	2,639.65	70.2582	2,639.65	71.7579	2,639.65	72.0053	2,639.65	64.1243	2,639.65	64.9062	2,639.65	67.4438
2,731.93	88.4484	2,731.93	88.5677	2,731.93	88.4237	2,731.93	88.3724	2,731.93	88.6244	2,731.93	87.9458	2,731.93	87.8205	2,731.93	86.3423	2,731.93	86.891	2,731.93	84.63	2,731.93	84.4207	2,731.93	82.0896	2,731.93	82.1821	2,731.93	80.169	2,731.93	80.0632	2,731.93	77.5183	2,731.93	77.2018	2,731.93	74.8156	2,731.93	74.4083	2,731.93	73.9649	2,731.93	73.103	2,731.93	72.2162	2,731.93	72.4624	2,731.93	71.865	2,731.93	72.0892	2,731.93	68.7169	2,731.93	69.0428	2,731.93	72.1381	2,731.93	70.7068	2,731.93	69.8276	2,731.93	69.7136	2,731.93	72.3196	2,731.93	71.7588	2,731.93	65.3872	2,731.93	66.6	2,731.93	67.369
2,828.61	89.6538	2,828.61	89.7515	2,828.61	89.5896	2,828.61	89.2841	2,828.61	89.4817	2,828.61	88.3587	2,828.61	88.569	2,828.61	86.1747	2,828.61	87.1535	2,828.61	83.7854	2,828.61	84.8376	2,828.61	81.6746	2,828.61	82.1819	2,828.61	78.7912	2,828.61	79.8041	2,828.61	76.0623	2,828.61	77.3597	2,828.61	75.3572	2,828.61	75.0244	2,828.61	72.5872	2,828.61	73.5251	2,828.61	71.3874	2,828.61	71.9955	2,828.61	70.3159	2,828.61	71.3918	2,828.61	69.3787	2,828.61	70.4441	2,828.61	69.364	2,828.61	70.5011	2,828.61	67.9851	2,828.61	70.2724	2,828.61	70.322	2,828.61	71.2278	2,828.61	64.2927	2,828.61	68.2256	2,828.61	66.6216
2,928.22	89.407	2,928.22	89.4045	2,928.22	89.53	2,928.22	89.2277	2,928.22	89.1697	2,928.22	87.9763	2,928.22	88.4063	2,928.22	86.3099	2,928.22	86.5135	2,928.22	83.5737	2,928.22	84.4733	2,928.22	81.4219	2,928.22	81.7343	2,928.22	79.0101	2,928.22	79.4571	2,928.22	76.996	2,928.22	76.1945	2,928.22	75.5684	2,928.22	74.1437	2,928.22	72.9079	2,928.22	72.8749	2,928.22	71.9895	2,928.22	71.3655	2,928.22	70.5773	2,928.22	70.2056	2,928.22	69.7977	2,928.22	69.8335	2,928.22	71.7547	2,928.22	69.8385	2,928.22	71.1451	2,928.22	68.9796	2,928.22	72.9119	2,928.22	71.012	2,928.22	67.0407	2,928.22	65.4412	2,928.22	66.4096
3,030.76	89.776	3,030.76	89.8683	3,030.76	90.014	3,030.76	89.2861	3,030.76	89.6426	3,030.76	87.8353	3,030.76	89.0241	3,030.76	86.1429	3,030.76	87.1552	3,030.76	83.963	3,030.76	84.7988	3,030.76	80.5535	3,030.76	82.1183	3,030.76	78.9549	3,030.76	79.4518	3,030.76	77.1267	3,030.76	77.6476	3,030.76	74.1858	3,030.76	76.0056	3,030.76	73.1707	3,030.76	73.021	3,030.76	70.8857	3,030.76	70.5131	3,030.76	70.7272	3,030.76	69.5256	3,030.76	69.1467	3,030.76	69.5074	3,030.76	71.3628	3,030.76	69.6855	3,030.76	71.0773	3,030.76	70.0548	3,030.76	72.2215	3,030.76	70.7322	3,030.76	63.1772	3,030.76	68.2449	3,030.76	65.5042
3,137.7	89.9615	3,137.7	89.8468	3,137.7	89.9012	3,137.7	89.342	3,137.7	89.6808	3,137.7	88.1071	3,137.7	88.7881	3,137.7	86.0444	3,137.7	86.9529	3,137.7	83.6251	3,137.7	84.5065	3,137.7	81.6979	3,137.7	82.02	3,137.7	79.4929	3,137.7	79.5037	3,137.7	77.0433	3,137.7	77.8009	3,137.7	75.1927	3,137.7	75.058	3,137.7	73.2376	3,137.7	74.0889	3,137.7	70.5439	3,137.7	72.3663	3,137.7	70.2813	3,137.7	70.2082	3,137.7	69.3175	3,137.7	69.3933	3,137.7	71.1822	3,137.7	70.0708	3,137.7	70.8887	3,137.7	71.0415	3,137.7	73.0387	3,137.7	71.8401	3,137.7	67.785	3,137.7	67.8469	3,137.7	68.3148
3,249.02	89.6517	3,249.02	89.7778	3,249.02	89.5864	3,249.02	89.0356	3,249.02	89.5815	3,249.02	87.9831	3,249.02	88.6144	3,249.02	85.9928	3,249.02	86.9953	3,249.02	83.5052	3,249.02	84.6675	3,249.02	81.816	3,249.02	82.6165	3,249.02	79.783	3,249.02	79.4071	3,249.02	77.4967	3,249.02	77.5949	3,249.02	74.4572	3,249.02	74.2165	3,249.02	72.9705	3,249.02	73.7689	3,249.02	71.2033	3,249.02	71.1738	3,249.02	69.2463	3,249.02	71.2643	3,249.02	70.4371	3,249.02	68.6455	3,249.02	69.5883	3,249.02	68.4519	3,249.02	68.7448	3,249.02	70.656	3,249.02	71.619	3,249.02	69.2474	3,249.02	66.1726	3,249.02	67.6912	3,249.02	66.7773
3,363.28	89.6946	3,363.28	89.3671	3,363.28	89.5552	3,363.28	89.3441	3,363.28	89.5042	3,363.28	88.1493	3,363.28	88.82	3,363.28	86.2076	3,363.28	87.0872	3,363.28	83.5727	3,363.28	85.2302	3,363.28	82.1864	3,363.28	82.7451	3,363.28	79.4102	3,363.28	81.1349	3,363.28	77.2749	3,363.28	79.251	3,363.28	74.6476	3,363.28	76.118	3,363.28	73.4199	3,363.28	74.1554	3,363.28	70.3955	3,363.28	72.2329	3,363.28	69.6139	3,363.28	71.7327	3,363.28	70.1309	3,363.28	68.8975	3,363.28	68.3707	3,363.28	69.1036	3,363.28	71.0748	3,363.28	71.1715	3,363.28	72.7768	3,363.28	71.3548	3,363.28	64.7907	3,363.28	69.0509	3,363.28	66.9529
3,481.93	89.8819	3,481.93	89.915	3,481.93	89.9978	3,481.93	89.7295	3,481.93	90.0953	3,481.93	88.4243	3,481.93	89.3316	3,481.93	86.9606	3,481.93	87.6851	3,481.93	85.234	3,481.93	85.6235	3,481.93	82.7565	3,481.93	83.6319	3,481.93	79.9996	3,481.93	81.5194	3,481.93	78.2729	3,481.93	79.0092	3,481.93	75.4023	3,481.93	76.8844	3,481.93	73.9235	3,481.93	74.4505	3,481.93	71.522	3,481.93	72.7115	3,481.93	69.7656	3,481.93	71.3076	3,481.93	67.2913	3,481.93	70.3826	3,481.93	70.1154	3,481.93	70.47	3,481.93	71.8074	3,481.93	72.0784	3,481.93	72.2326	3,481.93	71.3206	3,481.93	67.9673	3,481.93	69.9374	3,481.93	66.3845
3,604.98	89.6611	3,604.98	89.8376	3,604.98	89.887	3,604.98	89.353	3,604.98	89.9189	3,604.98	88.082	3,604.98	88.9635	3,604.98	86.6557	3,604.98	87.4674	3,604.98	85.1154	3,604.98	85.6114	3,604.98	82.8867	3,604.98	83.8905	3,604.98	80.214	3,604.98	81.406	3,604.98	77.8107	3,604.98	78.7763	3,604.98	75.1171	3,604.98	76.4859	3,604.98	73.7318	3,604.98	73.8386	3,604.98	71.7399	3,604.98	72.2938	3,604.98	71.3821	3,604.98	71.5287	3,604.98	70.216	3,604.98	69.9472	3,604.98	69.5198	3,604.98	68.9075	3,604.98	71.9287	3,604.98	71.8196	3,604.98	71.2	3,604.98	68.4352	3,604.98	68.2927	3,604.98	69.8571	3,604.98	66.6931
3,732.42	90.3754	3,732.42	90.307	3,732.42	90.3217	3,732.42	89.7721	3,732.42	90.0981	3,732.42	88.4597	3,732.42	89.064	3,732.42	87.1328	3,732.42	87.4398	3,732.42	84.6925	3,732.42	86.0643	3,732.42	82.9153	3,732.42	83.7756	3,732.42	79.993	3,732.42	80.8922	3,732.42	77.5437	3,732.42	78.5865	3,732.42	74.9239	3,732.42	76.2033	3,732.42	72.3806	3,732.42	74.3147	3,732.42	70.6365	3,732.42	72.2253	3,732.42	68.6015	3,732.42	70.5726	3,732.42	68.9233	3,732.42	68.0766	3,732.42	69.0047	3,732.42	69.0054	3,732.42	70.9724	3,732.42	72.232	3,732.42	71.2373	3,732.42	69.4432	3,732.42	65.3596	3,732.42	68.531	3,732.42	63.019
3,864.26	90.2691	3,864.26	89.9983	3,864.26	90.2644	3,864.26	89.3284	3,864.26	89.5931	3,864.26	88.1186	3,864.26	88.6563	3,864.26	86.5745	3,864.26	87.1154	3,864.26	84.227	3,864.26	85.6039	3,864.26	82.1301	3,864.26	82.9581	3,864.26	79.4172	3,864.26	80.3158	3,864.26	76.4394	3,864.26	77.1936	3,864.26	73.5679	3,864.26	74.9906	3,864.26	72.5994	3,864.26	71.7117	3,864.26	70.088	3,864.26	70.4833	3,864.26	68.5405	3,864.26	70.039	3,864.26	65.4255	3,864.26	69.1025	3,864.26	68.8266	3,864.26	68.488	3,864.26	71.4474	3,864.26	70.6558	3,864.26	69.455	3,864.26	68.7907	3,864.26	68.8675	3,864.26	70.3452	3,864.26	61.7174
4,000.49	89.9705	4,000.49	89.4681	4,000.49	90.0853	4,000.49	88.6133	4,000.49	89.2492	4,000.49	87.3588	4,000.49	88.2128	4,000.49	86.0383	4,000.49	87.3063	4,000.49	84.3249	4,000.49	85.4113	4,000.49	81.5178	4,000.49	82.0535	4,000.49	78.567	4,000.49	79.5823	4,000.49	75.5195	4,000.49	77.2632	4,000.49	73.9225	4,000.49	74.4755	4,000.49	70.2273	4,000.49	73.4189	4,000.49	68.8279	4,000.49	71.1397	4,000.49	68.5379	4,000.49	68.2116	4,000.49	66.3917	4,000.49	64.9457	4,000.49	65.3661	4,000.49	67.6658	4,000.49	68.5738	4,000.49	69.5192	4,000.49	67.954	4,000.49	67.944	4,000.49	66.8559	4,000.49	68.6339	4,000.49	60.5905
4,141.11	89.1499	4,141.11	89.537	4,141.11	88.9568	4,141.11	88.2891	4,141.11	88.8668	4,141.11	87.2803	4,141.11	87.8875	4,141.11	86.72	4,141.11	86.4351	4,141.11	83.7709	4,141.11	84.188	4,141.11	80.9356	4,141.11	82.1712	4,141.11	77.715	4,141.11	79.5131	4,141.11	75.9524	4,141.11	75.7477	4,141.11	73.9491	4,141.11	74.1712	4,141.11	72.3079	4,141.11	71.3011	4,141.11	69.5615	4,141.11	69.4487	4,141.11	67.423	4,141.11	67.6851	4,141.11	66.0433	4,141.11	68.0503	4,141.11	65.9077	4,141.11	66.7703	4,141.11	70.3809	4,141.11	69.8566	4,141.11	68.2431	4,141.11	68.5465	4,141.11	66.7682	4,141.11	68.5191	4,141.11	58.2359
4,287.6	89.3585	4,287.6	88.6714	4,287.6	89.402	4,287.6	88.044	4,287.6	87.9895	4,287.6	87.4615	4,287.6	87.2159	4,287.6	85.6239	4,287.6	86.0286	4,287.6	83.6744	4,287.6	84.5058	4,287.6	80.8704	4,287.6	81.4063	4,287.6	77.789	4,287.6	78.5039	4,287.6	76.0342	4,287.6	76.5869	4,287.6	72.8193	4,287.6	73.8701	4,287.6	72.3595	4,287.6	73.2384	4,287.6	69.1683	4,287.6	69.4371	4,287.6	67.9686	4,287.6	67.3884	4,287.6	64.1773	4,287.6	66.1647	4,287.6	66.3244	4,287.6	64.86	4,287.6	69.4245	4,287.6	67.1963	4,287.6	66.7727	4,287.6	67.0596	4,287.6	66.256	4,287.6	68.7299	4,287.6	56.1716
4,438.48	88.9281	4,438.48	88.322	4,438.48	88.4358	4,438.48	86.98	4,438.48	87.8867	4,438.48	86.3331	4,438.48	87.3262	4,438.48	85.0819	4,438.48	86.8466	4,438.48	82.4752	4,438.48	84.6157	4,438.48	80.1859	4,438.48	81.6962	4,438.48	77.7786	4,438.48	78.7547	4,438.48	74.987	4,438.48	76.6869	4,438.48	73.1376	4,438.48	73.6537	4,438.48	69.279	4,438.48	72.1976	4,438.48	71.0381	4,438.48	69.7726	4,438.48	67.9294	4,438.48	68.5149	4,438.48	66.8169	4,438.48	67.3234	4,438.48	65.2092	4,438.48	66.6107	4,438.48	68.0573	4,438.48	69.0882	4,438.48	66.6532	4,438.48	69.4194	4,438.48	65.6241	4,438.48	68.3303	4,438.48	52.2225
4,595.21	88.7131	4,595.21	88.3438	4,595.21	88.3481	4,595.21	87.6754	4,595.21	87.6381	4,595.21	87.4878	4,595.21	87.4915	4,595.21	86.8089	4,595.21	86.1092	4,595.21	84.2822	4,595.21	83.7685	4,595.21	81.2846	4,595.21	81.5188	4,595.21	78.874	4,595.21	79.9294	4,595.21	76.8861	4,595.21	76.5654	4,595.21	74.5089	4,595.21	74.7519	4,595.21	71.3708	4,595.21	71.9667	4,595.21	69.1048	4,595.21	70.3056	4,595.21	67.036	4,595.21	67.0376	4,595.21	66.5291	4,595.21	67.4317	4,595.21	64.4988	4,595.21	65.3584	4,595.21	69.2821	4,595.21	67.9875	4,595.21	68.6955	4,595.21	67.9794	4,595.21	64.9603	4,595.21	68.6199	4,595.21	56.1228
4,756.35	88.6622	4,756.35	87.6208	4,756.35	88.163	4,756.35	87.2258	4,756.35	87.4377	4,756.35	86.6092	4,756.35	87.2282	4,756.35	84.9474	4,756.35	86.6808	4,756.35	82.226	4,756.35	85.0166	4,756.35	80.757	4,756.35	81.9226	4,756.35	78.839	4,756.35	79.7003	4,756.35	76.5405	4,756.35	77.9453	4,756.35	72.3275	4,756.35	74.6797	4,756.35	70.2196	4,756.35	72.6137	4,756.35	68.4765	4,756.35	70.4107	4,756.35	67.4898	4,756.35	67.9238	4,756.35	63.7698	4,756.35	66.9136	4,756.35	67.0066	4,756.35	66.5769	4,756.35	69.6189	4,756.35	68.2621	4,756.35	65.967	4,756.35	69.7753	4,756.35	66.7649	4,756.35	68.2354	4,756.35	54.8698
4,924.8	88.2863	4,924.8	87.565	4,924.8	87.87	4,924.8	86.9277	4,924.8	87.3168	4,924.8	87.1352	4,924.8	87.3983	4,924.8	86.0305	4,924.8	86.457	4,924.8	84.0773	4,924.8	84.2244	4,924.8	82.1626	4,924.8	82.5493	4,924.8	79.6981	4,924.8	79.8752	4,924.8	76.8814	4,924.8	77.008	4,924.8	74.063	4,924.8	74.915	4,924.8	71.65	4,924.8	72.8167	4,924.8	70.9508	4,924.8	69.9678	4,924.8	67.0353	4,924.8	67.9031	4,924.8	67.6642	4,924.8	66.6909	4,924.8	65.1273	4,924.8	65.9782	4,924.8	68.2643	4,924.8	69.2422	4,924.8	69.5489	4,924.8	68.8174	4,924.8	64.9489	4,924.8	67.5656	4,924.8	56.7372
5,097.66	89.3274	5,097.66	88.5418	5,097.66	89.0346	5,097.66	88.067	5,097.66	88.1058	5,097.66	87.5012	5,097.66	88.0613	5,097.66	85.7275	5,097.66	86.8645	5,097.66	83.8238	5,097.66	85.2994	5,097.66	81.4335	5,097.66	83.1961	5,097.66	77.7555	5,097.66	80.9455	5,097.66	75.5138	5,097.66	77.7713	5,097.66	72.2211	5,097.66	74.2017	5,097.66	72.5298	5,097.66	72.1731	5,097.66	67.6464	5,097.66	69.6886	5,097.66	68.0025	5,097.66	68.8345	5,097.66	63.5701	5,097.66	66.5565	5,097.66	61.2821	5,097.66	65.5701	5,097.66	68.0191	5,097.66	66.1839	5,097.66	68.284	5,097.66	68.1067	5,097.66	63.6246	5,097.66	68.0905	5,097.66	55.8941
5,277.83	89.0208	5,277.83	88.3552	5,277.83	88.7901	5,277.83	87.6442	5,277.83	88.4963	5,277.83	86.9789	5,277.83	88.0963	5,277.83	85.7319	5,277.83	86.8322	5,277.83	84.1865	5,277.83	85.1645	5,277.83	82.5675	5,277.83	83.493	5,277.83	79.8154	5,277.83	80.6783	5,277.83	76.7748	5,277.83	76.6406	5,277.83	74.7582	5,277.83	74.8942	5,277.83	70.7681	5,277.83	71.6723	5,277.83	71.1272	5,277.83	70.7005	5,277.83	67.413	5,277.83	68.0926	5,277.83	69.1515	5,277.83	66.0083	5,277.83	66.2931	5,277.83	65.0014	5,277.83	68.8453	5,277.83	68.4728	5,277.83	69.5809	5,277.83	69.2727	5,277.83	66.5921	5,277.83	67.536	5,277.83	56.9985
5,463.87	90.1374	5,463.87	89.3489	5,463.87	89.7368	5,463.87	88.9581	5,463.87	88.872	5,463.87	88.2344	5,463.87	88.3797	5,463.87	87.2144	5,463.87	87.0581	5,463.87	85.5612	5,463.87	85.667	5,463.87	82.7083	5,463.87	83.4005	5,463.87	79.275	5,463.87	80.5048	5,463.87	75.9441	5,463.87	78.0595	5,463.87	73.16	5,463.87	75.0276	5,463.87	71.2191	5,463.87	72.6503	5,463.87	67.1631	5,463.87	71.1731	5,463.87	66.7312	5,463.87	68.5238	5,463.87	67.3051	5,463.87	68.1673	5,463.87	62.2777	5,463.87	65.4611	5,463.87	66.5774	5,463.87	66.2371	5,463.87	67.6003	5,463.87	68.2093	5,463.87	65.8957	5,463.87	66.7447	5,463.87	56.7482
5,657.23	89.9497	5,657.23	89.3594	5,657.23	89.491	5,657.23	88.9136	5,657.23	89.0073	5,657.23	87.8933	5,657.23	88.4757	5,657.23	86.6245	5,657.23	87.5401	5,657.23	85.2539	5,657.23	86.2377	5,657.23	82.5178	5,657.23	84.1598	5,657.23	79.7981	5,657.23	81.5343	5,657.23	77.3117	5,657.23	77.9045	5,657.23	74.7811	5,657.23	75.4166	5,657.23	72.8142	5,657.23	73.3392	5,657.23	70.2357	5,657.23	71.0072	5,657.23	69.1992	5,657.23	68.8513	5,657.23	67.8701	5,657.23	68.2896	5,657.23	66.0778	5,657.23	65.5245	5,657.23	68.793	5,657.23	67.575	5,657.23	69.3509	5,657.23	69.4338	5,657.23	65.935	5,657.23	66.6844	5,657.23	60.412
5,856.45	89.763	5,856.45	89.4094	5,856.45	89.8537	5,856.45	88.9711	5,856.45	89.6054	5,856.45	87.8764	5,856.45	88.8783	5,856.45	87.3312	5,856.45	88.1236	5,856.45	85.7285	5,856.45	87.1297	5,856.45	83.1875	5,856.45	84.2043	5,856.45	80.0382	5,856.45	80.6752	5,856.45	78.0836	5,856.45	79.1455	5,856.45	75.0264	5,856.45	76.4801	5,856.45	72.8864	5,856.45	73.4336	5,856.45	69.577	5,856.45	70.77	5,856.45	68.3952	5,856.45	69.5468	5,856.45	66.8569	5,856.45	66.4512	5,856.45	65.8827	5,856.45	66.8804	5,856.45	68.6058	5,856.45	67.3621	5,856.45	70.4687	5,856.45	69.5621	5,856.45	66.0115	5,856.45	64.9784	5,856.45	58.6939
6,062.99	89.9112	6,062.99	89.7855	6,062.99	90.026	6,062.99	88.9168	6,062.99	89.7171	6,062.99	88.2043	6,062.99	88.6144	6,062.99	87.7638	6,062.99	88.2681	6,062.99	85.7921	6,062.99	86.9127	6,062.99	83.1343	6,062.99	84.1894	6,062.99	80.6308	6,062.99	81.7328	6,062.99	76.9923	6,062.99	79.2563	6,062.99	74.2759	6,062.99	76.1051	6,062.99	72.3709	6,062.99	73.7902	6,062.99	69.7638	6,062.99	71.7781	6,062.99	68.7036	6,062.99	69.3418	6,062.99	66.0426	6,062.99	67.6573	6,062.99	63.9348	6,062.99	66.6643	6,062.99	67.1003	6,062.99	66.9965	6,062.99	69.7289	6,062.99	69.5958	6,062.99	64.2758	6,062.99	64.6987	6,062.99	58.0486
6,276.86	90.343	6,276.86	90.5704	6,276.86	90.4051	6,276.86	89.6242	6,276.86	89.9324	6,276.86	88.8393	6,276.86	88.9641	6,276.86	88.1846	6,276.86	88.683	6,276.86	86.0186	6,276.86	87.0105	6,276.86	83.8211	6,276.86	84.138	6,276.86	80.9979	6,276.86	81.67	6,276.86	77.3794	6,276.86	79.3912	6,276.86	74.806	6,276.86	76.0803	6,276.86	72.5051	6,276.86	73.0152	6,276.86	70.1375	6,276.86	71.8052	6,276.86	70.2127	6,276.86	69.4143	6,276.86	68.1476	6,276.86	63.3914	6,276.86	65.0566	6,276.86	66.6552	6,276.86	67.4665	6,276.86	66.8581	6,276.86	69.2881	6,276.86	70.3712	6,276.86	64.3933	6,276.86	65.3338	6,276.86	62.054
6,498.05	90.3908	6,498.05	90.541	6,498.05	90.6528	6,498.05	89.6028	6,498.05	90.2118	6,498.05	89.0092	6,498.05	89.3782	6,498.05	88.1146	6,498.05	88.9864	6,498.05	85.8395	6,498.05	86.9975	6,498.05	83.4804	6,498.05	85.066	6,498.05	80.5546	6,498.05	82.4987	6,498.05	77.1298	6,498.05	78.6293	6,498.05	74.7505	6,498.05	75.8423	6,498.05	72.4065	6,498.05	73.207	6,498.05	69.5636	6,498.05	71.4939	6,498.05	68.9089	6,498.05	68.6372	6,498.05	65.9012	6,498.05	66.4037	6,498.05	64.1858	6,498.05	66.9009	6,498.05	65.9716	6,498.05	67.1015	6,498.05	69.0438	6,498.05	70.9512	6,498.05	64.0936	6,498.05	65.188	6,498.05	61.209
6,726.56	89.9129	6,726.56	90.4832	6,726.56	90.6172	6,726.56	89.3708	6,726.56	90.0902	6,726.56	88.7495	6,726.56	89.5107	6,726.56	87.7019	6,726.56	88.9367	6,726.56	85.73	6,726.56	87.004	6,726.56	83.8125	6,726.56	84.9763	6,726.56	79.8112	6,726.56	82.0619	6,726.56	77.4788	6,726.56	79.1054	6,726.56	75.0925	6,726.56	75.6994	6,726.56	72.4793	6,726.56	73.4876	6,726.56	69.4104	6,726.56	70.3057	6,726.56	68.1864	6,726.56	70.1177	6,726.56	64.4322	6,726.56	65.4091	6,726.56	62.6257	6,726.56	66.4873	6,726.56	65.8986	6,726.56	66.3622	6,726.56	68.2579	6,726.56	69.9642	6,726.56	64.3653	6,726.56	64.808	6,726.56	61.6295
6,963.87	90.122	6,963.87	90.8061	6,963.87	90.7224	6,963.87	89.6629	6,963.87	90.092	6,963.87	89.2546	6,963.87	89.7058	6,963.87	88.1644	6,963.87	88.7682	6,963.87	86.7457	6,963.87	87.2572	6,963.87	84.3543	6,963.87	85.3793	6,963.87	80.5457	6,963.87	82.3533	6,963.87	77.4266	6,963.87	78.876	6,963.87	74.5623	6,963.87	75.9116	6,963.87	72.6305	6,963.87	73.4015	6,963.87	70.3446	6,963.87	71.6455	6,963.87	67.0266	6,963.87	70.0236	6,963.87	65.1193	6,963.87	64.6892	6,963.87	65.1017	6,963.87	64.8704	6,963.87	66.6354	6,963.87	66.3755	6,963.87	68.2096	6,963.87	70.2276	6,963.87	63.2169	6,963.87	63.7301	6,963.87	60.818
7,209.96	90.4854	7,209.96	90.7808	7,209.96	90.8426	7,209.96	90.1197	7,209.96	90.5535	7,209.96	89.7345	7,209.96	90.039	7,209.96	88.3923	7,209.96	89.076	7,209.96	87.0935	7,209.96	87.7383	7,209.96	84.4987	7,209.96	85.2354	7,209.96	81.4099	7,209.96	81.7467	7,209.96	77.2442	7,209.96	79.2935	7,209.96	75.2023	7,209.96	75.8763	7,209.96	72.4774	7,209.96	73.4804	7,209.96	69.4065	7,209.96	71.7737	7,209.96	68.4914	7,209.96	68.7188	7,209.96	65.0907	7,209.96	68.0509	7,209.96	64.6365	7,209.96	66.4099	7,209.96	66.4933	7,209.96	66.934	7,209.96	68.2096	7,209.96	70.2816	7,209.96	63.6697	7,209.96	62.9461	7,209.96	60.8099
7,464.84	90.0883	7,464.84	90.4499	7,464.84	90.5355	7,464.84	90.0973	7,464.84	90.3113	7,464.84	89.3582	7,464.84	89.9227	7,464.84	87.9279	7,464.84	88.3879	7,464.84	86.7194	7,464.84	87.3686	7,464.84	83.6376	7,464.84	84.7931	7,464.84	80.2203	7,464.84	81.3456	7,464.84	77.0299	7,464.84	78.7484	7,464.84	74.926	7,464.84	75.027	7,464.84	71.589	7,464.84	73.4359	7,464.84	68.3413	7,464.84	70.4829	7,464.84	67.9939	7,464.84	67.9859	7,464.84	64.887	7,464.84	66.5023	7,464.84	63.4806	7,464.84	64.8659	7,464.84	65.7854	7,464.84	65.3453	7,464.84	68.0132	7,464.84	69.4114	7,464.84	62.8585	7,464.84	59.2909	7,464.84	59.5718
7,727.05	89.705	7,727.05	89.903	7,727.05	90.0495	7,727.05	89.7275	7,727.05	89.7484	7,727.05	88.3153	7,727.05	89.1841	7,727.05	87.3635	7,727.05	87.8377	7,727.05	85.6014	7,727.05	86.9308	7,727.05	82.8009	7,727.05	84.0891	7,727.05	79.1845	7,727.05	81.0847	7,727.05	76.4631	7,727.05	78.1807	7,727.05	74.2574	7,727.05	74.3159	7,727.05	70.5435	7,727.05	71.5084	7,727.05	70.1549	7,727.05	69.6504	7,727.05	68.2679	7,727.05	67.1604	7,727.05	63.5602	7,727.05	67.6101	7,727.05	61.8652	7,727.05	64.1393	7,727.05	63.8143	7,727.05	64.1212	7,727.05	66.7634	7,727.05	67.7621	7,727.05	59.8139	7,727.05	58.6304	7,727.05	59.8433
7,999.51	89.6949	7,999.51	89.4287	7,999.51	89.6598	7,999.51	89.4723	7,999.51	89.7226	7,999.51	87.9095	7,999.51	88.8479	7,999.51	87.3609	7,999.51	88.069	7,999.51	85.3631	7,999.51	86.3305	7,999.51	82.5862	7,999.51	83.3264	7,999.51	79.6177	7,999.51	80.4366	7,999.51	75.8415	7,999.51	77.8334	7,999.51	73.1568	7,999.51	73.8595	7,999.51	70.8457	7,999.51	70.9679	7,999.51	69.3024	7,999.51	68.7283	7,999.51	66.3279	7,999.51	65.3872	7,999.51	62.2356	7,999.51	66.6772	7,999.51	62.0368	7,999.51	62.6747	7,999.51	63.6372	7,999.51	63.1877	7,999.51	66.2882	7,999.51	67.5308	7,999.51	57.9889	7,999.51	56.4071	7,999.51	60.1488
8,282.23	89.5299	8,282.23	89.1133	8,282.23	89.2721	8,282.23	89.3417	8,282.23	89.7825	8,282.23	88.1193	8,282.23	88.777	8,282.23	87.1285	8,282.23	87.9218	8,282.23	85.0891	8,282.23	85.8891	8,282.23	82.5464	8,282.23	83.4859	8,282.23	79.0616	8,282.23	80.0486	8,282.23	75.0136	8,282.23	76.2377	8,282.23	72.4002	8,282.23	73.388	8,282.23	70.0627	8,282.23	71.1019	8,282.23	66.499	8,282.23	67.5376	8,282.23	64.2844	8,282.23	66.1639	8,282.23	62.2774	8,282.23	67.4665	8,282.23	61.2866	8,282.23	63.0912	8,282.23	62.8434	8,282.23	62.7865	8,282.23	65.7878	8,282.23	67.0174	8,282.23	59.1244	8,282.23	56.4817	8,282.23	58.7928
8,573.73	89.1432	8,573.73	88.9339	8,573.73	89.1801	8,573.73	89.0596	8,573.73	89.4914	8,573.73	88.0495	8,573.73	88.6061	8,573.73	86.7159	8,573.73	87.9098	8,573.73	84.8596	8,573.73	85.6415	8,573.73	81.8401	8,573.73	83.5582	8,573.73	77.9388	8,573.73	80.3589	8,573.73	74.7673	8,573.73	76.6779	8,573.73	72.3139	8,573.73	73.9144	8,573.73	69.6631	8,573.73	70.3083	8,573.73	66.8976	8,573.73	67.226	8,573.73	64.3956	8,573.73	65.9804	8,573.73	62.7456	8,573.73	66.0459	8,573.73	60.9885	8,573.73	60.0513	8,573.73	60.6938	8,573.73	57.7681	8,573.73	64.8867	8,573.73	65.5988	8,573.73	59.8243	8,573.73	54.9081	8,573.73	58.0151
8,876.95	89.2035	8,876.95	88.6626	8,876.95	88.9036	8,876.95	88.7195	8,876.95	89.0918	8,876.95	87.8896	8,876.95	88.519	8,876.95	86.0023	8,876.95	87.3082	8,876.95	84.7194	8,876.95	85.3277	8,876.95	81.5575	8,876.95	83.3535	8,876.95	78.699	8,876.95	80.1033	8,876.95	74.9593	8,876.95	76.436	8,876.95	71.5741	8,876.95	73.2325	8,876.95	69.2853	8,876.95	69.2326	8,876.95	66.5398	8,876.95	68.1911	8,876.95	63.2612	8,876.95	65.7469	8,876.95	62.5197	8,876.95	62.9823	8,876.95	62.0628	8,876.95	58.5146	8,876.95	62.3331	8,876.95	55.6674	8,876.95	64.2061	8,876.95	65.7469	8,876.95	57.9902	8,876.95	47.2756	8,876.95	59.1863
9,188.96	88.6038	9,188.96	88.1866	9,188.96	88.491	9,188.96	88.1155	9,188.96	88.5761	9,188.96	87.3723	9,188.96	87.9772	9,188.96	85.3604	9,188.96	86.4296	9,188.96	83.9858	9,188.96	84.8203	9,188.96	81.0514	9,188.96	82.4829	9,188.96	78.122	9,188.96	79.241	9,188.96	73.9771	9,188.96	74.7562	9,188.96	70.1595	9,188.96	72.12	9,188.96	69.354	9,188.96	68.1151	9,188.96	65.3877	9,188.96	67.2119	9,188.96	62.4448	9,188.96	65.3744	9,188.96	62.7779	9,188.96	62.8363	9,188.96	60.9311	9,188.96	58.9136	9,188.96	62.2374	9,188.96	56.2025	9,188.96	62.5657	9,188.96	65.0907	9,188.96	56.7768	9,188.96	52.5911	9,188.96	58.3353
9,514.16	87.9942	9,514.16	87.7482	9,514.16	87.94	9,514.16	87.6067	9,514.16	87.9786	9,514.16	86.8236	9,514.16	87.4865	9,514.16	84.7151	9,514.16	85.9736	9,514.16	83.2756	9,514.16	84.4271	9,514.16	80.587	9,514.16	81.9439	9,514.16	76.5937	9,514.16	79.1262	9,514.16	71.9276	9,514.16	75.0809	9,514.16	70.2474	9,514.16	71.5277	9,514.16	66.8748	9,514.16	67.332	9,514.16	63.5832	9,514.16	66.6408	9,514.16	62.8418	9,514.16	62.5701	9,514.16	61.9848	9,514.16	61.011	9,514.16	59.1321	9,514.16	56.6801	9,514.16	59.3143	9,514.16	52.9425	9,514.16	59.9569	9,514.16	63.8212	9,514.16	53.583	9,514.16	55.4333	9,514.16	57.3201
9,849.61	87.9458	9,849.61	87.8066	9,849.61	88.0806	9,849.61	87.4779	9,849.61	87.818	9,849.61	86.552	9,849.61	87.3136	9,849.61	84.9784	9,849.61	85.8623	9,849.61	82.9716	9,849.61	83.8439	9,849.61	80.5763	9,849.61	81.8817	9,849.61	76.9211	9,849.61	78.4016	9,849.61	72.6795	9,849.61	74.0641	9,849.61	69.8245	9,849.61	71.1684	9,849.61	68.0281	9,849.61	68.3459	9,849.61	64.7901	9,849.61	66.7211	9,849.61	61.9191	9,849.61	62.9302	9,849.61	61.9249	9,849.61	61.4458	9,849.61	59.8342	9,849.61	57.7317	9,849.61	59.3162	9,849.61	53.9972	9,849.61	59.2181	9,849.61	62.4119	9,849.61	54.5229	9,849.61	52.9925	9,849.61	56.7004
10,196.8	88.1088	10,196.8	87.8347	10,196.8	88.1617	10,196.8	87.278	10,196.8	87.824	10,196.8	86.2424	10,196.8	87.256	10,196.8	84.7108	10,196.8	86.0108	10,196.8	82.7892	10,196.8	83.6888	10,196.8	79.8825	10,196.8	81.7184	10,196.8	76.5899	10,196.8	77.9596	10,196.8	73.1766	10,196.8	74.8968	10,196.8	70.2138	10,196.8	70.9281	10,196.8	67.0315	10,196.8	68.8781	10,196.8	65.068	10,196.8	65.7476	10,196.8	63.2362	10,196.8	64.0032	10,196.8	61.1598	10,196.8	61.3776	10,196.8	60.8992	10,196.8	57.6792	10,196.8	59.3518	10,196.8	53.2921	10,196.8	57.1366	10,196.8	62.4838	10,196.8	54.2895	10,196.8	53.5668	10,196.8	54.7808
10,555.7	87.8499	10,555.7	87.5205	10,555.7	87.9289	10,555.7	86.991	10,555.7	87.5504	10,555.7	86.1272	10,555.7	86.9184	10,555.7	84.0696	10,555.7	85.6667	10,555.7	82.6572	10,555.7	83.606	10,555.7	79.5242	10,555.7	81.3478	10,555.7	76.414	10,555.7	78.165	10,555.7	71.9218	10,555.7	74.9674	10,555.7	69.9208	10,555.7	70.6266	10,555.7	65.7721	10,555.7	67.8246	10,555.7	63.4925	10,555.7	65.495	10,555.7	61.4459	10,555.7	63.6637	10,555.7	59.7911	10,555.7	59.4606	10,555.7	59.1563	10,555.7	56.0336	10,555.7	56.3642	10,555.7	52.1255	10,555.7	56.5178	10,555.7	62.2944	10,555.7	51.1789	10,555.7	54.7829	10,555.7	51.3611
10,927.7	87.4877	10,927.7	87.2953	10,927.7	87.5597	10,927.7	86.9467	10,927.7	87.3828	10,927.7	85.7675	10,927.7	86.5625	10,927.7	84.0111	10,927.7	85.2666	10,927.7	82.2227	10,927.7	83.2423	10,927.7	79.4236	10,927.7	80.7315	10,927.7	75.8636	10,927.7	77.6145	10,927.7	71.6281	10,927.7	73.1479	10,927.7	68.1413	10,927.7	70.0393	10,927.7	66.4751	10,927.7	67.3394	10,927.7	62.454	10,927.7	64.781	10,927.7	61.7306	10,927.7	63.4076	10,927.7	58.7329	10,927.7	56.5762	10,927.7	56.331	10,927.7	54.9441	10,927.7	55.9206	10,927.7	53.2816	10,927.7	55.3856	10,927.7	61.2001	10,927.7	53.0514	10,927.7	45.0639	10,927.7	51.8313
11,313	89.1865	11,313	88.9498	11,313	89.0924	11,313	88.2255	11,313	88.8537	11,313	87.4359	11,313	88.2972	11,313	85.4583	11,313	86.6247	11,313	83.4538	11,313	84.7316	11,313	80.8921	11,313	82.0122	11,313	76.8235	11,313	78.9572	11,313	72.953	11,313	75.7473	11,313	69.4128	11,313	71.7025	11,313	67.9546	11,313	68.7505	11,313	63.9233	11,313	66.8295	11,313	63.5338	11,313	63.7311	11,313	59.9553	11,313	50.1018	11,313	58.7855	11,313	56.2383	11,313	56.6041	11,313	57.1772	11,313	54.1763	11,313	62.4093	11,313	54.1355	11,313	46.0374	11,313	54.0536
11,712.9	90.2902	11,712.9	89.9101	11,712.9	90.1983	11,712.9	89.1763	11,712.9	89.9182	11,712.9	88.3898	11,712.9	89.5579	11,712.9	86.4453	11,712.9	87.9963	11,712.9	84.3919	11,712.9	85.5874	11,712.9	81.4527	11,712.9	83.2576	11,712.9	78.2066	11,712.9	80.0033	11,712.9	74.5681	11,712.9	76.3455	11,712.9	70.3656	11,712.9	72.8755	11,712.9	68.6535	11,712.9	70.3388	11,712.9	64.5773	11,712.9	66.4888	11,712.9	64.2662	11,712.9	65.0415	11,712.9	61.3989	11,712.9	55.5592	11,712.9	60.5402	11,712.9	58.5924	11,712.9	57.5723	11,712.9	56.9806	11,712.9	53.4175	11,712.9	62.955	11,712.9	53.0232	11,712.9	46.5442	11,712.9	53.3745
12,126	90.2348	12,126	89.4738	12,126	90.1031	12,126	88.7203	12,126	90.098	12,126	88.0853	12,126	90.0551	12,126	85.9205	12,126	88.2509	12,126	83.5335	12,126	85.6793	12,126	80.4426	12,126	83.5299	12,126	77.701	12,126	80.6742	12,126	73.4134	12,126	77.4435	12,126	69.0526	12,126	72.7075	12,126	67.3222	12,126	69.5112	12,126	64.0157	12,126	67.0509	12,126	64.2983	12,126	65.2152	12,126	59.5085	12,126	44.5953	12,126	59.6031	12,126	56.2425	12,126	55.4224	12,126	52.7588	12,126	49.7966	12,126	61.8067	12,126	52.2764	12,126	53.4279	12,126	52.9563
12,553.7	89.4888	12,553.7	88.785	12,553.7	89.432	12,553.7	87.5646	12,553.7	89.1978	12,553.7	87.0294	12,553.7	88.9889	12,553.7	84.6624	12,553.7	87.2864	12,553.7	82.6195	12,553.7	84.7205	12,553.7	79.9254	12,553.7	82.3453	12,553.7	76.7767	12,553.7	79.6308	12,553.7	72.6186	12,553.7	75.5514	12,553.7	68.2394	12,553.7	71.4723	12,553.7	65.949	12,553.7	69.0128	12,553.7	64.4117	12,553.7	66.1994	12,553.7	63.1816	12,553.7	63.2819	12,553.7	58.3098	12,553.7	44.9307	12,553.7	56.6938	12,553.7	51.7424	12,553.7	49.9411	12,553.7	48.8392	12,553.7	43.1159	12,553.7	61.62	12,553.7	52.3903	12,553.7	53.6135	12,553.7	50.3348
12,996.1	90.0811	12,996.1	89.3849	12,996.1	89.836	12,996.1	88.7523	12,996.1	89.7193	12,996.1	87.8592	12,996.1	89.3049	12,996.1	85.8221	12,996.1	87.2782	12,996.1	83.2736	12,996.1	84.6773	12,996.1	81.1911	12,996.1	82.7525	12,996.1	77.8534	12,996.1	79.3396	12,996.1	73.3482	12,996.1	75.603	12,996.1	69.2852	12,996.1	70.0372	12,996.1	65.638	12,996.1	68.9855	12,996.1	63.443	12,996.1	65.5992	12,996.1	63.2405	12,996.1	61.9908	12,996.1	55.9029	12,996.1	50.6703	12,996.1	54.4356	12,996.1	49.7364	12,996.1	47.6164	12,996.1	45.8714	12,996.1	46.9117	12,996.1	61.6327	12,996.1	55.0126	12,996.1	54.9996	12,996.1	52.8869
13,454.6	91.242	13,454.6	90.8167	13,454.6	90.9297	13,454.6	90.0996	13,454.6	90.9098	13,454.6	89.5311	13,454.6	90.2781	13,454.6	87.3686	13,454.6	88.137	13,454.6	84.7615	13,454.6	85.2408	13,454.6	82.2267	13,454.6	83.3701	13,454.6	78.8848	13,454.6	79.7629	13,454.6	74.9827	13,454.6	75.625	13,454.6	68.9402	13,454.6	69.3977	13,454.6	66.3322	13,454.6	70.0886	13,454.6	65.556	13,454.6	64.8028	13,454.6	64.2127	13,454.6	60.8956	13,454.6	55.678	13,454.6	60.4408	13,454.6	51.927	13,454.6	43.3175	13,454.6	26.4266	13,454.6	42.453	13,454.6	52.0157	13,454.6	61.6402	13,454.6	60.7476	13,454.6	53.1472	13,454.6	53.9724
13,929.2	91.8161	13,929.2	91.3412	13,929.2	91.4385	13,929.2	91.0763	13,929.2	92.0022	13,929.2	90.4912	13,929.2	91.0043	13,929.2	88.3695	13,929.2	88.9235	13,929.2	85.5333	13,929.2	85.7139	13,929.2	82.4594	13,929.2	83.7468	13,929.2	78.8242	13,929.2	80.0564	13,929.2	74.9555	13,929.2	77.2492	13,929.2	70.5007	13,929.2	68.9651	13,929.2	66.2194	13,929.2	70.8059	13,929.2	67.4277	13,929.2	63.8655	13,929.2	64.1239	13,929.2	61.5737	13,929.2	54.4175	13,929.2	62.8597	13,929.2	43.7795	13,929.2	39.2054	13,929.2	52.7872	13,929.2	51.2311	13,929.2	57.3674	13,929.2	63.5372	13,929.2	64.9368	13,929.2	55.4828	13,929.2	58.8563
14,419.9	91.8384	14,419.9	91.2559	14,419.9	91.3539	14,419.9	91.1786	14,419.9	92.1837	14,419.9	90.6924	14,419.9	90.9555	14,419.9	88.315	14,419.9	88.7798	14,419.9	85.3209	14,419.9	85.4787	14,419.9	82.4893	14,419.9	83.4845	14,419.9	79.0244	14,419.9	80.0441	14,419.9	75.9239	14,419.9	77.7318	14,419.9	70.2134	14,419.9	69.3231	14,419.9	66.3397	14,419.9	71.5323	14,419.9	68.1967	14,419.9	62.3377	14,419.9	64.1221	14,419.9	60.0165	14,419.9	55.6243	14,419.9	66.5145	14,419.9	45.037	14,419.9	53.0792	14,419.9	56.635	14,419.9	58.5647	14,419.9	60.2437	14,419.9	66.0268	14,419.9	66.2169	14,419.9	55.9909	14,419.9	59.9561
14,928.2	90.8547	14,928.2	90.1981	14,928.2	90.4196	14,928.2	90.3759	14,928.2	91.4967	14,928.2	89.7006	14,928.2	89.9312	14,928.2	87.2787	14,928.2	87.4625	14,928.2	84.1281	14,928.2	84.0561	14,928.2	81.0753	14,928.2	82.7344	14,928.2	78.682	14,928.2	79.3272	14,928.2	74.7158	14,928.2	77.7895	14,928.2	68.3623	14,928.2	68.3494	14,928.2	65.0267	14,928.2	70.6154	14,928.2	67.4757	14,928.2	58.988	14,928.2	62.1925	14,928.2	58.5013	14,928.2	55.797	14,928.2	68.5966	14,928.2	37.39	14,928.2	57.6872	14,928.2	58.0597	14,928.2	61.8544	14,928.2	60.3536	14,928.2	66.1855	14,928.2	66.3984	14,928.2	54.4451	14,928.2	59.8923
15,455.6	89.0872	15,455.6	88.4434	15,455.6	88.9898	15,455.6	88.3996	15,455.6	90.1607	15,455.6	87.5643	15,455.6	88.3774	15,455.6	85.3014	15,455.6	85.8522	15,455.6	81.7996	15,455.6	82.0944	15,455.6	78.4794	15,455.6	81.3867	15,455.6	76.4144	15,455.6	77.3615	15,455.6	72.6927	15,455.6	76.5528	15,455.6	65.8811	15,455.6	68.1206	15,455.6	62.367	15,455.6	68.4232	15,455.6	65.6369	15,455.6	54.8093	15,455.6	57.6912	15,455.6	61.5378	15,455.6	59.1329	15,455.6	69.1211	15,455.6	53.4336	15,455.6	57.9951	15,455.6	59.0226	15,455.6	62.3556	15,455.6	59.4475	15,455.6	64.6493	15,455.6	64.3769	15,455.6	50.6419	15,455.6	59.1878
16,000.5	87.0189	16,000.5	86.5792	16,000.5	87.4176	16,000.5	86.8169	16,000.5	88.8023	16,000.5	85.4073	16,000.5	86.6507	16,000.5	83.1558	16,000.5	83.9618	16,000.5	79.4888	16,000.5	79.9805	16,000.5	76.2013	16,000.5	79.5506	16,000.5	73.9448	16,000.5	74.4343	16,000.5	71.1163	16,000.5	75.2071	16,000.5	64.5309	16,000.5	68.6051	16,000.5	60.8194	16,000.5	65.7939	16,000.5	62.7183	16,000.5	57.2186	16,000.5	51.6457	16,000.5	63.094	16,000.5	59.5971	16,000.5	68.158	16,000.5	56.4987	16,000.5	57.9147	16,000.5	59.907	16,000.5	62.5656	16,000.5	58.4838	16,000.5	63.3998	16,000.5	63.745	16,000.5	50.2226	16,000.5	60.8586
16,564.5	88.0987	16,564.5	88.3159	16,564.5	88.1853	16,564.5	89.1723	16,564.5	89.0387	16,564.5	87.6288	16,564.5	86.4041	16,564.5	85.7743	16,564.5	83.2229	16,564.5	81.8655	16,564.5	78.8543	16,564.5	78.881	16,564.5	78.6291	16,564.5	76.8879	16,564.5	74.1859	16,564.5	73.7157	16,564.5	75.0754	16,564.5	66.117	16,564.5	70.0018	16,564.5	65.9431	16,564.5	62.459	16,564.5	63.6714	16,564.5	59.4304	16,564.5	47.1383	16,564.5	61.816	16,564.5	62.2041	16,564.5	69.2147	16,564.5	54.9418	16,564.5	61.2241	16,564.5	60.3228	16,564.5	65.7524	16,564.5	58.9782	16,564.5	66.2321	16,564.5	64.4412	16,564.5	56.779	16,564.5	63.1362
17,148.9	88.2709	17,148.9	88.9647	17,148.9	88.4967	17,148.9	90.3139	17,148.9	88.5299	17,148.9	88.4114	17,148.9	85.0861	17,148.9	86.5781	17,148.9	81.3137	17,148.9	82.704	17,148.9	76.1766	17,148.9	79.4548	17,148.9	76.5456	17,148.9	77.3525	17,148.9	72.4123	17,148.9	75.1996	17,148.9	74.0118	17,148.9	66.7326	17,148.9	70.0596	17,148.9	66.4909	17,148.9	59.5117	17,148.9	63.5041	17,148.9	57.5702	17,148.9	48.4001	17,148.9	62.4613	17,148.9	63.5617	17,148.9	71.4463	17,148.9	55.9476	17,148.9	63.8402	17,148.9	61.4381	17,148.9	66.8181	17,148.9	56.854	17,148.9	68.1726	17,148.9	65.8716	17,148.9	61.5264	17,148.9	64.7624
17,752.4	87.5225	17,752.4	88.1128	17,752.4	88.4379	17,752.4	89.6671	17,752.4	88.0678	17,752.4	87.5322	17,752.4	84.0455	17,752.4	85.2875	17,752.4	80.4787	17,752.4	81.3382	17,752.4	75.147	17,752.4	78.1715	17,752.4	76.6463	17,752.4	75.8421	17,752.4	71.2708	17,752.4	74.46	17,752.4	74.69	17,752.4	66.6556	17,752.4	70.9537	17,752.4	64.1176	17,752.4	59.5467	17,752.4	61.9295	17,752.4	61.446	17,752.4	55.348	17,752.4	66.2489	17,752.4	65.3898	17,752.4	73.171	17,752.4	58.8696	17,752.4	64.863	17,752.4	62.725	17,752.4	67.3319	17,752.4	61.0117	17,752.4	68.9028	17,752.4	67.166	17,752.4	64.6092	17,752.4	64.1632
18,379.4	87.9408	18,379.4	88.2724	18,379.4	89.383	18,379.4	89.474	18,379.4	88.6697	18,379.4	87.2414	18,379.4	84.8329	18,379.4	84.3746	18,379.4	81.0093	18,379.4	80.695	18,379.4	76.8228	18,379.4	76.7881	18,379.4	78.7243	18,379.4	75.7435	18,379.4	68.3737	18,379.4	74.4687	18,379.4	75.6201	18,379.4	68.626	18,379.4	73.9438	18,379.4	63.5312	18,379.4	62.9184	18,379.4	61.5721	18,379.4	66.5272	18,379.4	61.4438	18,379.4	69.5934	18,379.4	68.1644	18,379.4	75.1443	18,379.4	62.5107	18,379.4	66.6738	18,379.4	65.0815	18,379.4	69.0818	18,379.4	63.6741	18,379.4	69.1391	18,379.4	68.8081	18,379.4	64.7103	18,379.4	63.2909
19,026.9	88.1266	19,026.9	88.6167	19,026.9	90.1432	19,026.9	88.9683	19,026.9	89.2147	19,026.9	85.8245	19,026.9	85.0624	19,026.9	82.2594	19,026.9	81.4007	19,026.9	78.5878	19,026.9	77.5026	19,026.9	75.0765	19,026.9	79.4913	19,026.9	73.8392	19,026.9	61.9362	19,026.9	73.2771	19,026.9	76.0102	19,026.9	68.1429	19,026.9	75.3717	19,026.9	62.9564	19,026.9	67.3172	19,026.9	59.9178	19,026.9	68.3946	19,026.9	64.1754	19,026.9	70.4145	19,026.9	69.5266	19,026.9	75.8577	19,026.9	63.345	19,026.9	67.675	19,026.9	65.9546	19,026.9	70.257	19,026.9	64.8446	19,026.9	69.3468	19,026.9	70.3026	19,026.9	66.2355	19,026.9	63.119
19,697.8	85.0117	19,697.8	85.8715	19,697.8	87.4618	19,697.8	85.5863	19,697.8	86.2599	19,697.8	81.3811	19,697.8	81.8673	19,697.8	77.7219	19,697.8	78.2655	19,697.8	74.5154	19,697.8	74.552	19,697.8	72.3004	19,697.8	77.3186	19,697.8	70.4501	19,697.8	62.5469	19,697.8	69.6826	19,697.8	72.9338	19,697.8	65.349	19,697.8	72.3813	19,697.8	61.5971	19,697.8	67.6347	19,697.8	54.2481	19,697.8	66.4607	19,697.8	63.8572	19,697.8	69.0405	19,697.8	67.9594	19,697.8	74.9123	19,697.8	62.1163	19,697.8	66.8496	19,697.8	62.9395	19,697.8	69.7402	19,697.8	62.0873	19,697.8	68.1232	19,697.8	67.5165	19,697.8	64.4485	19,697.8	58.4729
19,999.5	81.6295	19,999.5	82.7009	19,999.5	83.9197	19,999.5	82.2083	19,999.5	82.7152	19,999.5	78.2019	19,999.5	79.0275	19,999.5	75.4245	19,999.5	75.4457	19,999.5	72.2189	19,999.5	72.45	19,999.5	69.8663	19,999.5	75.3768	19,999.5	67.9448	19,999.5	68.4191	19,999.5	68.2037	19,999.5	69.6947	19,999.5	64.6565	19,999.5	67.7676	19,999.5	59.9106	19,999.5	66.3054	19,999.5	52.4542	19,999.5	62.8128	19,999.5	63.0256	19,999.5	66.1425	19,999.5	66.216	19,999.5	74.1789	19,999.5	60.692	19,999.5	64.4229	19,999.5	60.1115	19,999.5	68.5991	19,999.5	59.8219	19,999.5	66.1564	19,999.5	63.8467	19,999.5	60.1767	19,999.5	50.1795
