"SPL Vertical"
"On-Axis"		"10°"		"-10°"		"20°"		"-20°"		"30°"		"-30°"		"40°"		"-40°"		"50°"		"-50°"		"60°"		"-60°"		"70°"		"-70°"		"80°"		"-80°"		"90°"		"-90°"		"100°"		"-100°"		"110°"		"-110°"		"120°"		"-120°"		"130°"		"-130°"		"140°"		"-140°"		"150°"		"-150°"		"160°"		"-160°"		"170°"		"-170°"		"180°"
"Frequency / Hz"	"Sound Pressure Level / dB (re 20 µPa/V)  [2.83  V @ 1. m]"	"Frequency / Hz"	"Sound Pressure Level / dB (re 20 µPa/V)  [2.83  V @ 1. m]"	"Frequency / Hz"	"Sound Pressure Level / dB (re 20 µPa/V)  [2.83  V @ 1. m]"	"Frequency / Hz"	"Sound Pressure Level / dB (re 20 µPa/V)  [2.83  V @ 1. m]"	"Frequency / Hz"	"Sound Pressure Level / dB (re 20 µPa/V)  [2.83  V @ 1. m]"	"Frequency / Hz"	"Sound Pressure Level / dB (re 20 µPa/V)  [2.83  V @ 1. m]"	"Frequency / Hz"	"Sound Pressure Level / dB (re 20 µPa/V)  [2.83  V @ 1. m]"	"Frequency / Hz"	"Sound Pressure Level / dB (re 20 µPa/V)  [2.83  V @ 1. m]"	"Frequency / Hz"	"Sound Pressure Level / dB (re 20 µPa/V)  [2.83  V @ 1. m]"	"Frequency / Hz"	"Sound Pressure Level / dB (re 20 µPa/V)  [2.83  V @ 1. m]"	"Frequency / Hz"	"Sound Pressure Level / dB (re 20 µPa/V)  [2.83  V @ 1. m]"	"Frequency / Hz"	"Sound Pressure Level / dB (re 20 µPa/V)  [2.83  V @ 1. m]"	"Frequency / Hz"	"Sound Pressure Level / dB (re 20 µPa/V)  [2.83  V @ 1. m]"	"Frequency / Hz"	"Sound Pressure Level / dB (re 20 µPa/V)  [2.83  V @ 1. m]"	"Frequency / Hz"	"Sound Pressure Level / dB (re 20 µPa/V)  [2.83  V @ 1. m]"	"Frequency / Hz"	"Sound Pressure Level / dB (re 20 µPa/V)  [2.83  V @ 1. m]"	"Frequency / Hz"	"Sound Pressure Level / dB (re 20 µPa/V)  [2.83  V @ 1. m]"	"Frequency / Hz"	"Sound Pressure Level / dB (re 20 µPa/V)  [2.83  V @ 1. m]"	"Frequency / Hz"	"Sound Pressure Level / dB (re 20 µPa/V)  [2.83  V @ 1. m]"	"Frequency / Hz"	"Sound Pressure Level / dB (re 20 µPa/V)  [2.83  V @ 1. m]"	"Frequency / Hz"	"Sound Pressure Level / dB (re 20 µPa/V)  [2.83  V @ 1. m]"	"Frequency / Hz"	"Sound Pressure Level / dB (re 20 µPa/V)  [2.83  V @ 1. m]"	"Frequency / Hz"	"Sound Pressure Level / dB (re 20 µPa/V)  [2.83  V @ 1. m]"	"Frequency / Hz"	"Sound Pressure Level / dB (re 20 µPa/V)  [2.83  V @ 1. m]"	"Frequency / Hz"	"Sound Pressure Level / dB (re 20 µPa/V)  [2.83  V @ 1. m]"	"Frequency / Hz"	"Sound Pressure Level / dB (re 20 µPa/V)  [2.83  V @ 1. m]"	"Frequency / Hz"	"Sound Pressure Level / dB (re 20 µPa/V)  [2.83  V @ 1. m]"	"Frequency / Hz"	"Sound Pressure Level / dB (re 20 µPa/V)  [2.83  V @ 1. m]"	"Frequency / Hz"	"Sound Pressure Level / dB (re 20 µPa/V)  [2.83  V @ 1. m]"	"Frequency / Hz"	"Sound Pressure Level / dB (re 20 µPa/V)  [2.83  V @ 1. m]"	"Frequency / Hz"	"Sound Pressure Level / dB (re 20 µPa/V)  [2.83  V @ 1. m]"	"Frequency / Hz"	"Sound Pressure Level / dB (re 20 µPa/V)  [2.83  V @ 1. m]"	"Frequency / Hz"	"Sound Pressure Level / dB (re 20 µPa/V)  [2.83  V @ 1. m]"	"Frequency / Hz"	"Sound Pressure Level / dB (re 20 µPa/V)  [2.83  V @ 1. m]"	"Frequency / Hz"	"Sound Pressure Level / dB (re 20 µPa/V)  [2.83  V @ 1. m]"	"Frequency / Hz"	"Sound Pressure Level / dB (re 20 µPa/V)  [2.83  V @ 1. m]"
20.5078	60.4297	20.5078	59.7835	20.5078	61.0423	20.5078	59.101	20.5078	61.6223	20.5078	58.3836	20.5078	62.165	20.5078	57.6427	20.5078	62.6581	20.5078	56.907	20.5078	63.0813	20.5078	56.2281	20.5078	63.4084	20.5078	55.6807	20.5078	63.6109	20.5078	55.3457	20.5078	63.6616	20.5078	55.2751	20.5078	63.5391	20.5078	55.4595	20.5078	63.2307	20.5078	55.828	20.5078	62.7359	20.5078	56.2821	20.5078	62.0697	20.5078	56.7308	20.5078	61.2668	20.5078	57.1103	20.5078	60.3877	20.5078	57.3896	20.5078	59.5214	20.5078	57.5752	20.5078	58.774	20.5078	57.7155	20.5078	58.229	20.5078	57.8988
21.9727	65.3547	21.9727	64.9399	21.9727	65.8101	21.9727	64.5762	21.9727	66.2919	21.9727	64.2708	21.9727	66.7823	21.9727	64.0286	21.9727	67.2598	21.9727	63.8529	21.9727	67.7009	21.9727	63.7457	21.9727	68.0813	21.9727	63.7081	21.9727	68.3784	21.9727	63.7401	21.9727	68.5741	21.9727	63.8395	21.9727	68.6579	21.9727	64.0024	21.9727	68.6288	21.9727	64.2218	21.9727	68.4965	21.9727	64.4881	21.9727	68.2799	21.9727	64.7894	21.9727	68.0041	21.9727	65.1128	21.9727	67.6949	21.9727	65.4458	21.9727	67.3736	21.9727	65.7781	21.9727	67.0531	21.9727	66.104	21.9727	66.7371	21.9727	66.4225
23.4375	68.2274	23.4375	67.8666	23.4375	68.615	23.4375	67.538	23.4375	69.0207	23.4375	67.2452	23.4375	69.4322	23.4375	66.9909	23.4375	69.8335	23.4375	66.7773	23.4375	70.205	23.4375	66.6073	23.4375	70.5257	23.4375	66.484	23.4375	70.775	23.4375	66.411	23.4375	70.9355	23.4375	66.392	23.4375	70.996	23.4375	66.43	23.4375	70.9535	23.4375	66.5266	23.4375	70.8138	23.4375	66.6814	23.4375	70.5907	23.4375	66.8912	23.4375	70.3031	23.4375	67.15	23.4375	69.9713	23.4375	67.4494	23.4375	69.6133	23.4375	67.7797	23.4375	69.2426	23.4375	68.1312	23.4375	68.8683	23.4375	68.4962
24.9023	70.4949	24.9023	70.1395	24.9023	70.8718	24.9023	69.8117	24.9023	71.2615	24.9023	69.5157	24.9023	71.6525	24.9023	69.2547	24.9023	72.0296	24.9023	69.0314	24.9023	72.3755	24.9023	68.8484	24.9023	72.6707	24.9023	68.7085	24.9023	72.8967	24.9023	68.6146	24.9023	73.0373	24.9023	68.5698	24.9023	73.0818	24.9023	68.5769	24.9023	73.027	24.9023	68.6383	24.9023	72.8774	24.9023	68.7552	24.9023	72.6449	24.9023	68.9273	24.9023	72.3462	24.9023	69.1521	24.9023	72.0001	24.9023	69.4248	24.9023	71.6245	24.9023	69.7385	24.9023	71.2343	24.9023	70.0849	24.9023	70.8414	24.9023	70.4554
26.3672	72.6528	26.3672	72.3214	26.3672	73.0008	26.3672	72.0122	26.3672	73.3573	26.3672	71.7293	26.3672	73.7115	26.3672	71.4759	26.3672	74.0501	26.3672	71.2544	26.3672	74.3571	26.3672	71.0674	26.3672	74.6152	26.3672	70.9174	26.3672	74.8073	26.3672	70.8075	26.3672	74.919	26.3672	70.7407	26.3672	74.9405	26.3672	70.72	26.3672	74.8689	26.3672	70.7486	26.3672	74.7086	26.3672	70.8288	26.3672	74.4708	26.3672	70.9619	26.3672	74.1714	26.3672	71.1475	26.3672	73.8284	26.3672	71.3829	26.3672	73.4589	26.3672	71.6632	26.3672	73.078	26.3672	71.9814	26.3672	72.6981	26.3672	72.3294
27.832	74.2301	27.832	73.9174	27.832	74.5575	27.832	73.6247	27.832	74.892	27.832	73.356	27.832	75.2237	27.832	73.1143	27.832	75.5403	27.832	72.9021	27.832	75.8267	27.832	72.7219	27.832	76.0668	27.832	72.5759	27.832	76.2444	27.832	72.4668	27.832	76.3455	27.832	72.3973	27.832	76.3609	27.832	72.3701	27.832	76.2877	27.832	72.388	27.832	76.13	27.832	72.4535	27.832	75.8986	27.832	72.5684	27.832	75.6085	27.832	72.7333	27.832	75.2767	27.832	72.9469	27.832	74.9198	27.832	73.2057	27.832	74.5523	27.832	73.504	27.832	74.1867	27.832	73.834
29.2969	75.4473	29.2969	75.0949	29.2969	75.8126	29.2969	74.7628	29.2969	76.1814	29.2969	74.4562	29.2969	76.5422	29.2969	74.1795	29.2969	76.8811	29.2969	73.9355	29.2969	77.1823	29.2969	73.727	29.2969	77.4292	29.2969	73.5559	29.2969	77.6058	29.2969	73.4243	29.2969	77.6982	29.2969	73.3342	29.2969	77.6972	29.2969	73.2879	29.2969	77.5999	29.2969	73.2879	29.2969	77.4099	29.2969	73.3369	29.2969	77.1376	29.2969	73.4379	29.2969	76.7985	29.2969	73.593	29.2969	76.4108	29.2969	73.8038	29.2969	75.994	29.2969	74.0695	29.2969	75.567	29.2969	74.3869	29.2969	75.1469	29.2969	74.7493
30.7617	77.7407	30.7617	77.4294	30.7617	78.0652	30.7617	77.1378	30.7617	78.3945	30.7617	76.8708	30.7617	78.7182	30.7617	76.6324	30.7617	79.0237	30.7617	76.4252	30.7617	79.2967	30.7617	76.2517	30.7617	79.5222	30.7617	76.1134	30.7617	79.6858	30.7617	76.0122	30.7617	79.7753	30.7617	75.9492	30.7617	79.7826	30.7617	75.926	30.7617	79.7053	30.7617	75.9441	30.7617	79.5473	30.7617	76.0048	30.7617	79.3181	30.7617	76.1097	30.7617	79.0315	30.7617	76.2598	30.7617	78.7035	30.7617	76.4552	30.7617	78.3506	30.7617	76.6944	30.7617	77.9881	30.7617	76.9742	30.7617	77.6301	30.7617	77.2887
32.2266	79.0443	32.2266	78.7405	32.2266	79.3607	32.2266	78.4561	32.2266	79.6809	32.2266	78.1966	32.2266	79.9945	32.2266	77.966	32.2266	80.289	32.2266	77.7674	32.2266	80.5508	32.2266	77.603	32.2266	80.7655	32.2266	77.4744	32.2266	80.9198	32.2266	77.383	32.2266	81.0025	32.2266	77.3298	32.2266	81.0069	32.2266	77.3157	32.2266	80.9313	32.2266	77.3416	32.2266	80.7801	32.2266	77.4083	32.2266	80.5629	32.2266	77.5165	32.2266	80.293	32.2266	77.6666	32.2266	79.9852	32.2266	77.8582	32.2266	79.6544	32.2266	78.0896	32.2266	79.3146	32.2266	78.3573	32.2266	78.9782	32.2266	78.656
33.6914	80.4148	33.6914	80.1173	33.6914	80.7215	33.6914	79.8359	33.6914	81.0289	33.6914	79.5761	33.6914	81.3269	33.6914	79.3424	33.6914	81.604	33.6914	79.1381	33.6914	81.8471	33.6914	78.9662	33.6914	82.043	33.6914	78.8287	33.6914	82.179	33.6914	78.7271	33.6914	82.2447	33.6914	78.6627	33.6914	82.2336	33.6914	78.6365	33.6914	82.1446	33.6914	78.6493	33.6914	81.982	33.6914	78.7019	33.6914	81.7556	33.6914	78.7949	33.6914	81.4786	33.6914	78.9288	33.6914	81.1665	33.6914	79.1035	33.6914	80.8346	33.6914	79.3181	33.6914	80.4973	33.6914	79.5702	33.6914	80.1674	33.6914	79.8554
35.1562	81.9556	35.1562	81.6775	35.1562	82.2425	35.1562	81.4149	35.1562	82.5299	35.1562	81.1736	35.1562	82.8083	35.1562	80.958	35.1562	83.0668	35.1562	80.7718	35.1562	83.2936	35.1562	80.6174	35.1562	83.4766	35.1562	80.4969	35.1562	83.6046	35.1562	80.4116	35.1562	83.6682	35.1562	80.3623	35.1562	83.6621	35.1562	80.3496	35.1562	83.5856	35.1562	80.3737	35.1562	83.443	35.1562	80.4347	35.1562	83.2433	35.1562	80.5328	35.1562	82.9985	35.1562	80.6675	35.1562	82.7219	35.1562	80.8381	35.1562	82.4267	35.1562	81.0431	35.1562	82.1249	35.1562	81.2794	35.1562	81.8272	35.1562	81.5428
36.6211	83.004	36.6211	82.7602	36.6211	83.2546	36.6211	82.5294	36.6211	83.505	36.6211	82.3164	36.6211	83.7466	36.6211	82.1253	36.6211	83.9697	36.6211	81.9592	36.6211	84.1638	36.6211	81.8208	36.6211	84.3178	36.6211	81.7118	36.6211	84.4217	36.6211	81.6337	36.6211	84.4672	36.6211	81.5872	36.6211	84.4501	36.6211	81.573	36.6211	84.3706	36.6211	81.5911	36.6211	84.2337	36.6211	81.6415	36.6211	84.0487	36.6211	81.7238	36.6211	83.8275	36.6211	81.8373	36.6211	83.5825	36.6211	81.9809	36.6211	83.3253	36.6211	82.1531	36.6211	83.066	36.6211	82.3515	36.6211	82.8129	36.6211	82.5729
38.0859	83.1923	38.0859	82.9384	38.0859	83.4532	38.0859	82.698	38.0859	83.7134	38.0859	82.4764	38.0859	83.9637	38.0859	82.2782	38.0859	84.1942	38.0859	82.1066	38.0859	84.3937	38.0859	81.9643	38.0859	84.5512	38.0859	81.8533	38.0859	84.6565	38.0859	81.7748	38.0859	84.7017	38.0859	81.7296	38.0859	84.6827	38.0859	81.7181	38.0859	84.6002	38.0859	81.7404	38.0859	84.4595	38.0859	81.7961	38.0859	84.2705	38.0859	81.8845	38.0859	84.0453	38.0859	82.0048	38.0859	83.7963	38.0859	82.1556	38.0859	83.5352	38.0859	82.335	38.0859	83.2717	38.0859	82.5404	38.0859	83.0137	38.0859	82.7682
39.5508	83.6962	39.5508	83.4317	39.5508	83.9657	39.5508	83.1791	39.5508	84.2322	39.5508	82.9441	39.5508	84.4864	39.5508	82.7315	39.5508	84.7182	39.5508	82.5452	39.5508	84.9163	39.5508	82.3882	39.5508	85.0695	39.5508	82.2627	39.5508	85.1676	39.5508	82.1704	39.5508	85.2025	39.5508	82.1121	39.5508	85.17	39.5508	82.0883	39.5508	85.0704	39.5508	82.0989	39.5508	84.9096	39.5508	82.1436	39.5508	84.6978	39.5508	82.2219	39.5508	84.448	39.5508	82.333	39.5508	84.1746	39.5508	82.4762	39.5508	83.8909	39.5508	82.6503	39.5508	83.6087	39.5508	82.8536	39.5508	83.3372	39.5508	83.0838
41.0156	84.5388	41.0156	84.2938	41.0156	84.789	41.0156	84.0602	41.0156	85.0367	41.0156	83.8437	41.0156	85.2731	41.0156	83.6486	41.0156	85.4884	41.0156	83.4784	41.0156	85.6723	41.0156	83.3359	41.0156	85.8142	41.0156	83.2229	41.0156	85.9046	41.0156	83.1408	41.0156	85.9361	41.0156	83.09	41.0156	85.9048	41.0156	83.0707	41.0156	85.8115	41.0156	83.0825	41.0156	85.6616	41.0156	83.1248	41.0156	85.4646	41.0156	83.1969	41.0156	85.233	41.0156	83.2981	41.0156	84.9798	41.0156	83.4277	41.0156	84.7178	41.0156	83.585	41.0156	84.458	41.0156	83.769	41.0156	84.2092	41.0156	83.978
42.4805	84.902	42.4805	84.66	42.4805	85.148	42.4805	84.4285	42.4805	85.3906	42.4805	84.2124	42.4805	85.6213	42.4805	84.0162	42.4805	85.8303	42.4805	83.8431	42.4805	86.0075	42.4805	83.6958	42.4805	86.1424	42.4805	83.5759	42.4805	86.2257	42.4805	83.4849	42.4805	86.2501	42.4805	83.4235	42.4805	86.2118	42.4805	83.392	42.4805	86.1115	42.4805	83.3904	42.4805	85.9545	42.4805	83.4188	42.4805	85.75	42.4805	83.4772	42.4805	85.5102	42.4805	83.5656	42.4805	85.2485	42.4805	83.6844	42.4805	84.978	42.4805	83.8337	42.4805	84.7105	42.4805	84.0133	42.4805	84.4558	42.4805	84.2216
43.9453	85.1646	43.9453	84.9278	43.9453	85.4062	43.9453	84.7024	43.9453	85.6447	43.9453	84.4941	43.9453	85.8717	43.9453	84.3078	43.9453	86.0776	43.9453	84.1474	43.9453	86.2527	43.9453	84.0157	43.9453	86.3872	43.9453	83.9148	43.9453	86.4727	43.9453	83.846	43.9453	86.503	43.9453	83.8095	43.9453	86.4754	43.9453	83.8051	43.9453	86.3913	43.9453	83.8317	43.9453	86.2565	43.9453	83.888	43.9453	86.0802	43.9453	83.9721	43.9453	85.8736	43.9453	84.0821	43.9453	85.6485	43.9453	84.2164	43.9453	85.4153	43.9453	84.3729	43.9453	85.1829	43.9453	84.5502	43.9453	84.9582	43.9453	84.7461
45.4102	85.3346	45.4102	85.1022	45.4102	85.5682	45.4102	84.8773	45.4102	85.7958	45.4102	84.6653	45.4102	86.0095	45.4102	84.4709	45.4102	86.2003	45.4102	84.2978	45.4102	86.3591	45.4102	84.1492	45.4102	86.4767	45.4102	84.0274	45.4102	86.545	45.4102	83.9342	45.4102	86.558	45.4102	83.8708	45.4102	86.5128	45.4102	83.8375	45.4102	86.4105	45.4102	83.8343	45.4102	86.2566	45.4102	83.8609	45.4102	86.0599	45.4102	83.9169	45.4102	85.8318	45.4102	84.0015	45.4102	85.5844	45.4102	84.1146	45.4102	85.3298	45.4102	84.2559	45.4102	85.0787	45.4102	84.4249	45.4102	84.8399	45.4102	84.6205
46.875	85.5997	46.875	85.366	46.875	85.8332	46.875	85.138	46.875	86.0593	46.875	84.9208	46.875	86.2702	46.875	84.7187	46.875	86.4571	46.875	84.5351	46.875	86.6111	46.875	84.3727	46.875	86.7232	46.875	84.2338	46.875	86.7854	46.875	84.1203	46.875	86.7919	46.875	84.0338	46.875	86.7395	46.875	83.9758	46.875	86.6292	46.875	83.9476	46.875	86.4657	46.875	83.9507	46.875	86.2572	46.875	83.9866	46.875	86.0143	46.875	84.0569	46.875	85.749	46.875	84.163	46.875	85.4734	46.875	84.3056	46.875	85.199	46.875	84.4841	46.875	84.9369	46.875	84.6962
48.3398	85.6314	48.3398	85.4116	48.3398	85.854	48.3398	85.2012	48.3398	86.0717	48.3398	85.0059	48.3398	86.2763	48.3398	84.8304	48.3398	86.4591	48.3398	84.6783	48.3398	86.6112	48.3398	84.5522	48.3398	86.7243	48.3398	84.4541	48.3398	86.7915	48.3398	84.385	48.3398	86.8081	48.3398	84.3455	48.3398	86.7728	48.3398	84.3356	48.3398	86.6879	48.3398	84.3549	48.3398	86.5596	48.3398	84.4026	48.3398	86.3967	48.3398	84.4778	48.3398	86.2095	48.3398	84.5788	48.3398	86.0077	48.3398	84.7038	48.3398	85.7997	48.3398	84.8503	48.3398	85.5921	48.3398	85.0155	48.3398	85.3897	48.3398	85.1964
51.2695	85.5993	51.2695	85.378	51.2695	85.8249	51.2695	85.1681	51.2695	86.047	51.2695	84.9756	51.2695	86.2571	51.2695	84.8057	51.2695	86.4464	51.2695	84.6626	51.2695	86.6061	51.2695	84.5496	51.2695	86.7281	51.2695	84.4688	51.2695	86.8059	51.2695	84.4214	51.2695	86.8357	51.2695	84.4076	51.2695	86.8167	51.2695	84.4267	51.2695	86.7519	51.2695	84.477	51.2695	86.6473	51.2695	84.5562	51.2695	86.5111	51.2695	84.6611	51.2695	86.352	51.2695	84.7884	51.2695	86.1782	51.2695	84.9339	51.2695	85.9962	51.2695	85.0938	51.2695	85.8108	51.2695	85.2644	51.2695	85.6255	51.2695	85.4425
52.7344	85.8782	52.7344	85.6615	52.7344	86.094	52.7344	85.4511	52.7344	86.3013	52.7344	85.2538	52.7344	86.4925	52.7344	85.0758	52.7344	86.6595	52.7344	84.9224	52.7344	86.7948	52.7344	84.798	52.7344	86.8918	52.7344	84.706	52.7344	86.9454	52.7344	84.6484	52.7344	86.9532	52.7344	84.626	52.7344	86.9158	52.7344	84.6382	52.7344	86.8374	52.7344	84.6832	52.7344	86.725	52.7344	84.7581	52.7344	86.587	52.7344	84.8591	52.7344	86.4323	52.7344	84.9817	52.7344	86.2682	52.7344	85.121	52.7344	86.1	52.7344	85.2723	52.7344	85.9309	52.7344	85.4316	52.7344	85.7625	52.7344	85.5956
54.1992	86.5007	54.1992	86.2914	54.1992	86.696	54.1992	86.0744	54.1992	86.8709	54.1992	85.8565	54.1992	87.0192	54.1992	85.6445	54.1992	87.1351	54.1992	85.4453	54.1992	87.2131	54.1992	85.2652	54.1992	87.2487	54.1992	85.1101	54.1992	87.2386	54.1992	84.9848	54.1992	87.1821	54.1992	84.8929	54.1992	87.0813	54.1992	84.8365	54.1992	86.9415	54.1992	84.8162	54.1992	86.7711	54.1992	84.8307	54.1992	86.5803	54.1992	84.8776	54.1992	86.3795	54.1992	84.953	54.1992	86.1777	54.1992	85.0528	54.1992	85.9817	54.1992	85.1725	54.1992	85.7955	54.1992	85.3085	54.1992	85.6209	54.1992	85.4584
55.6641	86.354	55.6641	86.1564	55.6641	86.5318	55.6641	85.9441	55.6641	86.6846	55.6641	85.7225	55.6641	86.8073	55.6641	85.4969	55.6641	86.8946	55.6641	85.2733	55.6641	86.9412	55.6641	85.0574	55.6641	86.9424	55.6641	84.8551	55.6641	86.8948	55.6641	84.6719	55.6641	86.7965	55.6641	84.513	55.6641	86.6489	55.6641	84.3825	55.6641	86.4567	55.6641	84.2838	55.6641	86.228	55.6641	84.2194	55.6641	85.974	55.6641	84.1903	55.6641	85.7075	55.6641	84.197	55.6641	85.4413	55.6641	84.239	55.6641	85.1867	55.6641	84.3156	55.6641	84.9529	55.6641	84.4262	55.6641	84.7461	55.6641	84.5699
58.5938	86.0672	58.5938	85.8522	58.5938	86.2794	58.5938	85.641	58.5938	86.4817	58.5938	85.4391	58.5938	86.6661	58.5938	85.2512	58.5938	86.8245	58.5938	85.0811	58.5938	86.9487	58.5938	84.932	58.5938	87.031	58.5938	84.8059	58.5938	87.0653	58.5938	84.7043	58.5938	87.0475	58.5938	84.628	58.5938	86.9765	58.5938	84.5772	58.5938	86.8545	58.5938	84.5518	58.5938	86.6872	58.5938	84.5514	58.5938	86.4829	58.5938	84.5759	58.5938	86.2523	58.5938	84.6259	58.5938	86.0072	58.5938	84.7024	58.5938	85.7597	58.5938	84.807	58.5938	85.521	58.5938	84.9414	58.5938	85.3009	58.5938	85.1064
60.0586	86.1901	60.0586	85.9922	60.0586	86.3861	60.0586	85.7987	60.0586	86.5734	60.0586	85.6153	60.0586	86.7443	60.0586	85.4466	60.0586	86.8912	60.0586	85.2965	60.0586	87.0064	60.0586	85.168	60.0586	87.0832	60.0586	85.0635	60.0586	87.1163	60.0586	84.9841	60.0586	87.1029	60.0586	84.9305	60.0586	87.0428	60.0586	84.9026	60.0586	86.9392	60.0586	84.8995	60.0586	86.7984	60.0586	84.9204	60.0586	86.6285	60.0586	84.9639	60.0586	86.4392	60.0586	85.0292	60.0586	86.2397	60.0586	85.1154	60.0586	86.0391	60.0586	85.2222	60.0586	85.8447	60.0586	85.3494	60.0586	85.6624	60.0586	85.4965
62.9883	86.2223	62.9883	86.0282	62.9883	86.4107	62.9883	85.8341	62.9883	86.5873	62.9883	85.6451	62.9883	86.7457	62.9883	85.4663	62.9883	86.8792	62.9883	85.3022	62.9883	86.9809	62.9883	85.157	62.9883	87.0449	62.9883	85.0341	62.9883	87.0662	62.9883	84.9368	62.9883	87.0422	62.9883	84.8669	62.9883	86.9732	62.9883	84.8258	62.9883	86.8625	62.9883	84.8139	62.9883	86.7166	62.9883	84.8304	62.9883	86.5442	62.9883	84.8742	62.9883	86.3548	62.9883	84.9432	62.9883	86.1579	62.9883	85.0353	62.9883	85.9616	62.9883	85.1483	62.9883	85.772	62.9883	85.28	62.9883	85.5936	62.9883	85.429
64.4531	86.2453	64.4531	86.0419	64.4531	86.4439	64.4531	85.8397	64.4531	86.6309	64.4531	85.6448	64.4531	86.7994	64.4531	85.4623	64.4531	86.9423	64.4531	85.2971	64.4531	87.0528	64.4531	85.1534	64.4531	87.1246	64.4531	85.0347	64.4531	87.1531	64.4531	84.9436	64.4531	87.1358	64.4531	84.8819	64.4531	87.073	64.4531	84.8503	64.4531	86.9681	64.4531	84.8488	64.4531	86.8276	64.4531	84.8763	64.4531	86.6597	64.4531	84.9312	64.4531	86.4736	64.4531	85.0114	64.4531	86.2783	64.4531	85.1142	64.4531	86.0816	64.4531	85.2373	64.4531	85.8895	64.4531	85.3783	64.4531	85.7064	64.4531	85.5353
67.3828	86.4665	67.3828	86.2597	67.3828	86.668	67.3828	86.0542	67.3828	86.8576	67.3828	85.8561	67.3828	87.0283	67.3828	85.671	67.3828	87.1731	67.3828	85.504	67.3828	87.2855	67.3828	85.3599	67.3828	87.3597	67.3828	85.2422	67.3828	87.3915	67.3828	85.154	67.3828	87.379	67.3828	85.0969	67.3828	87.3226	67.3828	85.0716	67.3828	87.2258	67.3828	85.0779	67.3828	87.0943	67.3828	85.1144	67.3828	86.9353	67.3828	85.179	67.3828	86.757	67.3828	85.2689	67.3828	86.5676	67.3828	85.3812	67.3828	86.3743	67.3828	85.5128	67.3828	86.1831	67.3828	85.6611	67.3828	85.9985	67.3828	85.8237
68.8477	86.5676	68.8477	86.3624	68.8477	86.767	68.8477	86.1583	68.8477	86.9538	68.8477	85.9614	68.8477	87.121	68.8477	85.7776	68.8477	87.2617	68.8477	85.6122	68.8477	87.3695	68.8477	85.4698	68.8477	87.4394	68.8477	85.3544	68.8477	87.4677	68.8477	85.2686	68.8477	87.453	68.8477	85.2144	68.8477	87.3967	68.8477	85.1921	68.8477	87.3023	68.8477	85.2014	68.8477	87.1755	68.8477	85.2407	68.8477	87.0231	68.8477	85.3075	68.8477	86.8525	68.8477	85.399	68.8477	86.671	68.8477	85.5119	68.8477	86.485	68.8477	85.6431	68.8477	86.3001	68.8477	85.7898	68.8477	86.1206	68.8477	85.9497
71.7773	86.7513	71.7773	86.5546	71.7773	86.9399	71.7773	86.3566	71.7773	87.1136	71.7773	86.164	71.7773	87.2657	71.7773	85.9828	71.7773	87.3897	71.7773	85.8187	71.7773	87.4803	71.7773	85.6767	71.7773	87.5332	71.7773	85.5609	71.7773	87.5461	71.7773	85.4742	71.7773	87.519	71.7773	85.4186	71.7773	87.4543	71.7773	85.3946	71.7773	87.3567	71.7773	85.4018	71.7773	87.2327	71.7773	85.4384	71.7773	87.089	71.7773	85.5021	71.7773	86.9322	71.7773	85.5897	71.7773	86.7679	71.7773	85.6978	71.7773	86.6006	71.7773	85.823	71.7773	86.4337	71.7773	85.9621	71.7773	86.2699	71.7773	86.1119
74.707	86.8835	74.707	86.6903	74.707	87.0675	74.707	86.4949	74.707	87.2355	74.707	86.3039	74.707	87.3809	74.707	86.124	74.707	87.4977	74.707	85.9611	74.707	87.5809	74.707	85.8204	74.707	87.627	74.707	85.7064	74.707	87.6344	74.707	85.6222	74.707	87.604	74.707	85.5697	74.707	87.5387	74.707	85.5494	74.707	87.4438	74.707	85.5605	74.707	87.3255	74.707	85.601	74.707	87.1904	74.707	85.6679	74.707	87.044	74.707	85.7578	74.707	86.891	74.707	85.8667	74.707	86.7349	74.707	85.991	74.707	86.5782	74.707	86.1272	74.707	86.4232	74.707	86.2721
77.6367	87.0152	77.6367	86.8217	77.6367	87.1978	77.6367	86.6242	77.6367	87.3626	77.6367	86.4297	77.6367	87.5034	77.6367	86.2451	77.6367	87.6143	77.6367	86.0766	77.6367	87.6907	77.6367	85.9304	77.6367	87.7293	77.6367	85.8113	77.6367	87.7291	77.6367	85.7233	77.6367	87.6915	77.6367	85.6688	77.6367	87.6205	77.6367	85.649	77.6367	87.5223	77.6367	85.663	77.6367	87.4039	77.6367	85.7089	77.6367	87.2726	77.6367	85.783	77.6367	87.134	77.6367	85.8811	77.6367	86.9918	77.6367	85.998	77.6367	86.8479	77.6367	86.1285	77.6367	86.703	77.6367	86.2678	77.6367	86.5574	77.6367	86.4117
79.1016	87.1252	79.1016	86.931	79.1016	87.3079	79.1016	86.7322	79.1016	87.4723	79.1016	86.5355	79.1016	87.612	79.1016	86.3479	79.1016	87.7212	79.1016	86.1755	79.1016	87.7951	79.1016	86.0243	79.1016	87.8306	79.1016	85.8994	79.1016	87.8264	79.1016	85.8047	79.1016	87.784	79.1016	85.7429	79.1016	87.7073	79.1016	85.7155	79.1016	87.6026	79.1016	85.7219	79.1016	87.4774	79.1016	85.7606	79.1016	87.3389	79.1016	85.8285	79.1016	87.1931	79.1016	85.9213	79.1016	87.0441	79.1016	86.0344	79.1016	86.8941	79.1016	86.1626	79.1016	86.744	79.1016	86.3012	79.1016	86.5944	79.1016	86.4462
82.0312	87.3291	82.0312	87.1336	82.0312	87.5115	82.0312	86.9325	82.0312	87.6739	82.0312	86.7328	82.0312	87.8094	82.0312	86.5417	82.0312	87.9123	82.0312	86.3654	82.0312	87.9777	82.0312	86.2098	82.0312	88.0025	82.0312	86.0795	82.0312	87.9858	82.0312	85.9782	82.0312	87.9293	82.0312	85.9081	82.0312	87.8374	82.0312	85.8702	82.0312	87.7166	82.0312	85.864	82.0312	87.5751	82.0312	85.8882	82.0312	87.4208	82.0312	85.9402	82.0312	87.2607	82.0312	86.0166	82.0312	87.0997	82.0312	86.1138	82.0312	86.9409	82.0312	86.2278	82.0312	86.786	82.0312	86.3549	82.0312	86.636	82.0312	86.4917
84.9609	87.2857	84.9609	87.0887	84.9609	87.4724	84.9609	86.8892	84.9609	87.6417	84.9609	86.6948	84.9609	87.7867	84.9609	86.5132	84.9609	87.9018	84.9609	86.3515	84.9609	87.9824	84.9609	86.2157	84.9609	88.026	84.9609	86.1108	84.9609	88.032	84.9609	86.04	84.9609	88.0025	84.9609	86.0046	84.9609	87.9417	84.9609	86.004	84.9609	87.8557	84.9609	86.0361	84.9609	87.7509	84.9609	86.0971	84.9609	87.633	84.9609	86.1826	84.9609	87.5066	84.9609	86.2878	84.9609	87.3746	84.9609	86.4078	84.9609	87.2385	84.9609	86.5384	84.9609	87.0994	84.9609	86.6756	84.9609	86.9582	84.9609	86.8164
87.8906	87.5324	87.8906	87.3295	87.8906	87.7179	87.8906	87.1172	87.8906	87.8791	87.8906	86.9034	87.8906	88.0094	87.8906	86.6963	87.8906	88.1036	87.8906	86.504	87.8906	88.158	87.8906	86.3344	87.8906	88.171	87.8906	86.1943	87.8906	88.1437	87.8906	86.0894	87.8906	88.08	87.8906	86.0233	87.8906	87.9864	87.8906	85.9977	87.8906	87.8714	87.8906	86.0118	87.8906	87.7437	87.8906	86.0626	87.8906	87.6108	87.8906	86.1452	87.8906	87.4777	87.8906	86.2534	87.8906	87.346	87.8906	86.3802	87.8906	87.215	87.8906	86.5186	87.8906	87.0825	87.8906	86.6623	87.8906	86.9464	87.8906	86.806
90.8203	87.5839	90.8203	87.3735	90.8203	87.7769	90.8203	87.154	90.8203	87.9451	90.8203	86.934	90.8203	88.0817	90.8203	86.7224	90.8203	88.1814	90.8203	86.5276	90.8203	88.2408	90.8203	86.3577	90.8203	88.2585	90.8203	86.2198	90.8203	88.2359	90.8203	86.1193	90.8203	88.1772	90.8203	86.0598	90.8203	88.0894	90.8203	86.0424	90.8203	87.9809	90.8203	86.066	90.8203	87.8602	90.8203	86.1271	90.8203	87.734	90.8203	86.2204	90.8203	87.6064	90.8203	86.3392	90.8203	87.4783	90.8203	86.4763	90.8203	87.3483	90.8203	86.6243	90.8203	87.2142	90.8203	86.7766	90.8203	87.0741	90.8203	86.9277
95.2148	87.9898	95.2148	87.7904	95.2148	88.1646	95.2148	87.5745	95.2148	88.3077	95.2148	87.3506	95.2148	88.4132	95.2148	87.1275	95.2148	88.4764	95.2148	86.9142	95.2148	88.4949	95.2148	86.7191	95.2148	88.4685	95.2148	86.55	95.2148	88.4	95.2148	86.4139	95.2148	88.2955	95.2148	86.316	95.2148	88.1641	95.2148	86.2596	95.2148	88.017	95.2148	86.2458	95.2148	87.8655	95.2148	86.273	95.2148	87.7187	95.2148	86.3371	95.2148	87.5815	95.2148	86.4317	95.2148	87.4541	95.2148	86.5492	95.2148	87.3326	95.2148	86.6808	95.2148	87.2116	95.2148	86.8184	95.2148	87.0865	95.2148	86.955
98.1445	88.1654	98.1445	87.9901	98.1445	88.3169	98.1445	87.7978	98.1445	88.4384	98.1445	87.5963	98.1445	88.5246	98.1445	87.3933	98.1445	88.5717	98.1445	87.1965	98.1445	88.5774	98.1445	87.0135	98.1445	88.5416	98.1445	86.8512	98.1445	88.4665	98.1445	86.7155	98.1445	88.3572	98.1445	86.611	98.1445	88.2217	98.1445	86.5409	98.1445	88.0698	98.1445	86.5064	98.1445	87.9118	98.1445	86.5069	98.1445	87.7567	98.1445	86.5396	98.1445	87.6106	98.1445	86.6001	98.1445	87.4756	98.1445	86.6827	98.1445	87.3505	98.1445	86.7812	98.1445	87.2319	98.1445	86.8892	98.1445	87.1164	98.1445	87.002
101.074	87.9168	101.074	87.7406	101.074	88.0691	101.074	87.5473	101.074	88.1912	101.074	87.3449	101.074	88.2782	101.074	87.1417	101.074	88.3266	101.074	86.946	101.074	88.3348	101.074	86.766	101.074	88.3031	101.074	86.6088	101.074	88.2348	101.074	86.4807	101.074	88.1359	101.074	86.3861	101.074	88.0145	101.074	86.3278	101.074	87.8803	101.074	86.3065	101.074	87.7424	101.074	86.3209	101.074	87.6077	101.074	86.3675	101.074	87.4797	101.074	86.4416	101.074	87.3586	101.074	86.5371	101.074	87.2418	101.074	86.6474	101.074	87.1258	101.074	86.766	101.074	87.008	101.074	86.8875
105.469	87.997	105.469	87.797	105.469	88.1717	105.469	87.5802	105.469	88.3131	105.469	87.3564	105.469	88.4151	105.469	87.1352	105.469	88.4731	105.469	86.9266	105.469	88.4849	105.469	86.7394	105.469	88.4511	105.469	86.5817	105.469	88.3758	105.469	86.4596	105.469	88.2662	105.469	86.3771	105.469	88.1328	105.469	86.3359	105.469	87.9873	105.469	86.3353	105.469	87.8413	105.469	86.3724	105.469	87.7033	105.469	86.4421	105.469	87.5774	105.469	86.5379	105.469	87.4632	105.469	86.6519	105.469	87.3563	105.469	86.7761	105.469	87.251	105.469	86.9026	105.469	87.1418	105.469	87.0257
108.398	88.222	108.398	88.0176	108.398	88.3988	108.398	87.7945	108.398	88.54	108.398	87.5626	108.398	88.6392	108.398	87.3319	108.398	88.6917	108.398	87.1125	108.398	88.6952	108.398	86.9139	108.398	88.6502	108.398	86.7441	108.398	88.5607	108.398	86.6096	108.398	88.4345	108.398	86.5146	108.398	88.2825	108.398	86.4608	108.398	88.1175	108.398	86.4474	108.398	87.9522	108.398	86.4716	108.398	87.7961	108.398	86.5283	108.398	87.6541	108.398	86.6114	108.398	87.5261	108.398	86.7136	108.398	87.4082	108.398	86.8276	108.398	87.2951	108.398	86.9466	108.398	87.1818	108.398	87.0656
112.793	88.2354	112.793	88.0431	112.793	88.4019	112.793	87.8332	112.793	88.5359	112.793	87.6154	112.793	88.632	112.793	87.4	112.793	88.687	112.793	87.1975	112.793	88.6997	112.793	87.0181	112.793	88.6714	112.793	86.8703	112.793	88.606	112.793	86.7603	112.793	88.5105	112.793	86.6916	112.793	88.3937	112.793	86.6645	112.793	88.2656	112.793	86.6765	112.793	88.1352	112.793	86.7226	112.793	88.0089	112.793	86.7963	112.793	87.8895	112.793	86.8902	112.793	87.7767	112.793	86.9972	112.793	87.6681	112.793	87.111	112.793	87.5608	112.793	87.2266	112.793	87.4522	112.793	87.3409
117.188	88.3196	117.188	88.1177	117.188	88.49	117.188	87.8928	117.188	88.6215	117.188	87.6549	117.188	88.7082	117.188	87.4145	117.188	88.7461	117.188	87.1832	117.188	88.7338	117.188	86.9727	117.188	88.6735	117.188	86.7944	117.188	88.5713	117.188	86.6579	117.188	88.4384	117.188	86.5705	117.188	88.2898	117.188	86.5359	117.188	88.1422	117.188	86.5535	117.188	88.0104	117.188	86.6186	117.188	87.9031	117.188	86.7228	117.188	87.8205	117.188	86.8554	117.188	87.7548	117.188	87.0039	117.188	87.6937	117.188	87.1561	117.188	87.6247	117.188	87.3011	117.188	87.5384	117.188	87.4303
120.117	88.5132	120.117	88.308	120.117	88.6875	120.117	88.0811	120.117	88.8225	120.117	87.8424	120.117	88.9115	120.117	87.6025	120.117	88.9492	120.117	87.3719	120.117	88.9332	120.117	87.1611	120.117	88.8643	120.117	86.9799	120.117	88.7478	120.117	86.8366	120.117	88.5938	120.117	86.7375	120.117	88.4173	120.117	86.6858	120.117	88.2358	120.117	86.6817	120.117	88.0666	120.117	86.7217	120.117	87.9221	120.117	86.7989	120.117	87.8068	120.117	86.9041	120.117	87.7166	120.117	87.0262	120.117	87.641	120.117	87.1541	120.117	87.5677	120.117	87.2778	120.117	87.486	120.117	87.3897
124.512	88.5299	124.512	88.3126	124.512	88.7147	124.512	88.0728	124.512	88.858	124.512	87.8213	124.512	88.9523	124.512	87.5694	124.512	88.9922	124.512	87.3284	124.512	88.975	124.512	87.1093	124.512	88.9016	124.512	86.9221	124.512	88.7775	124.512	86.7754	124.512	88.6135	124.512	86.6751	124.512	88.4251	124.512	86.6244	124.512	88.2307	124.512	86.6228	124.512	88.0491	124.512	86.6663	124.512	87.8941	124.512	86.7479	124.512	87.7715	124.512	86.8577	124.512	87.6778	124.512	86.9842	124.512	87.6019	124.512	87.1158	124.512	87.53	124.512	87.2419	124.512	87.4501	124.512	87.3546
128.906	88.6926	128.906	88.4814	128.906	88.8659	128.906	88.2418	128.906	88.9933	128.906	87.9842	128.906	89.0689	128.906	87.7199	128.906	89.0886	128.906	87.4603	128.906	89.0511	128.906	87.2168	128.906	88.9579	128.906	86.9999	128.906	88.8138	128.906	86.8192	128.906	88.6278	128.906	86.6821	128.906	88.4126	128.906	86.5938	128.906	88.1849	128.906	86.5558	128.906	87.9628	128.906	86.5661	128.906	87.7635	128.906	86.6185	128.906	87.5982	128.906	86.7034	128.906	87.4698	128.906	86.8087	128.906	87.3719	128.906	86.9218	128.906	87.2917	128.906	87.0312	128.906	87.2146	128.906	87.1294
133.301	88.6444	133.301	88.436	133.301	88.8179	133.301	88.2018	133.301	88.9491	133.301	87.952	133.301	89.0327	133.301	87.6976	133.301	89.0654	133.301	87.4496	133.301	89.0468	133.301	87.2186	133.301	88.9787	133.301	87.0137	133.301	88.8659	133.301	86.8428	133.301	88.7158	133.301	86.7113	133.301	88.5376	133.301	86.6229	133.301	88.3423	133.301	86.5785	133.301	88.141	133.301	86.5763	133.301	87.9442	133.301	86.612	133.301	87.7604	133.301	86.6789	133.301	87.5951	133.301	86.7684	133.301	87.4497	133.301	86.8716	133.301	87.3212	133.301	86.9809	133.301	87.2038	133.301	87.0917
139.16	88.2874	139.16	88.0853	139.16	88.4538	139.16	87.8563	139.16	88.578	139.16	87.6119	139.16	88.6565	139.16	87.3652	139.16	88.6878	139.16	87.1303	139.16	88.6736	139.16	86.9206	139.16	88.6184	139.16	86.7474	139.16	88.5299	139.16	86.6184	139.16	88.4186	139.16	86.5373	139.16	88.296	139.16	86.5034	139.16	88.1728	139.16	86.5126	139.16	88.0554	139.16	86.5586	139.16	87.9452	139.16	86.6343	139.16	87.8389	139.16	86.7325	139.16	87.7314	139.16	86.8469	139.16	87.6181	139.16	86.972	139.16	87.4972	139.16	87.1033	139.16	87.3693	139.16	87.2369
143.555	88.2756	143.555	88.0455	143.555	88.4708	143.555	87.7918	143.555	88.6216	143.555	87.527	143.555	88.7206	143.555	87.2654	143.555	88.7631	143.555	87.0221	143.555	88.7478	143.555	86.8124	143.555	88.6785	143.555	86.6502	143.555	88.5645	143.555	86.546	143.555	88.4209	143.555	86.5047	143.555	88.2674	143.555	86.5252	143.555	88.1252	143.555	86.6	143.555	88.011	143.555	86.7174	143.555	87.9321	143.555	86.8638	143.555	87.8842	143.555	87.0254	143.555	87.8538	143.555	87.1904	143.555	87.8236	143.555	87.3485	143.555	87.7787	143.555	87.4917	143.555	87.7098	143.555	87.6137
147.949	88.7121	147.949	88.4672	147.949	88.9108	147.949	88.1856	147.949	89.0549	147.949	87.8785	147.949	89.1383	147.949	87.5589	147.949	89.1567	147.949	87.2413	147.949	89.1085	147.949	86.9419	147.949	88.9958	147.949	86.6777	147.949	88.8252	147.949	86.4654	147.949	88.6093	147.949	86.3191	147.949	88.3663	147.949	86.2473	147.949	88.1194	147.949	86.2514	147.949	87.8929	147.949	86.3241	147.949	87.7074	147.949	86.4512	147.949	87.5732	147.949	86.6135	147.949	87.4864	147.949	86.7904	147.949	87.4309	147.949	86.9627	147.949	87.3838	147.949	87.1146	147.949	87.3237	147.949	87.2359
153.809	88.5251	153.809	88.2955	153.809	88.7033	153.809	88.0245	153.809	88.8229	153.809	87.7243	153.809	88.8802	153.809	87.409	153.809	88.8747	153.809	87.0939	153.809	88.8104	153.809	86.7948	153.809	88.695	153.809	86.527	153.809	88.54	153.809	86.3046	153.809	88.3598	153.809	86.139	153.809	88.1693	153.809	86.0381	153.809	87.9817	153.809	86.0047	153.809	87.8068	153.809	86.0361	153.809	87.6494	153.809	86.1241	153.809	87.5101	153.809	86.2554	153.809	87.3859	153.809	86.4138	153.809	87.2709	153.809	86.5829	153.809	87.1571	153.809	86.7484	153.809	87.0359	153.809	86.9005
159.668	88.5573	159.668	88.3444	159.668	88.7172	159.668	88.0877	159.668	88.8178	159.668	87.7984	159.668	88.8552	159.668	87.4894	159.668	88.8288	159.668	87.1751	159.668	88.7419	159.668	86.8707	159.668	88.602	159.668	86.5917	159.668	88.4218	159.668	86.3526	159.668	88.2188	159.668	86.1663	159.668	88.0135	159.668	86.0425	159.668	87.8259	159.668	85.9866	159.668	87.6699	159.668	85.9989	159.668	87.5497	159.668	86.0741	159.668	87.4582	159.668	86.2017	159.668	87.3808	159.668	86.3671	159.668	87.3	159.668	86.5534	159.668	87.2012	159.668	86.7431	159.668	87.0753	159.668	86.9208
165.527	88.4191	165.527	88.2127	165.527	88.5747	165.527	87.9663	165.527	88.6714	165.527	87.6928	165.527	88.7035	165.527	87.4065	165.527	88.6688	165.527	87.1226	165.527	88.569	165.527	86.8563	165.527	88.4106	165.527	86.6216	165.527	88.2063	165.527	86.4305	165.527	87.9752	165.527	86.2923	165.527	87.7422	165.527	86.2124	165.527	87.5342	165.527	86.1919	165.527	87.3738	165.527	86.2277	165.527	87.2714	165.527	86.3124	165.527	87.2212	165.527	86.435	165.527	87.2035	165.527	86.5816	165.527	87.1923	165.527	86.7367	165.527	87.1647	165.527	86.8846	165.527	87.1059	165.527	87.0111
171.387	88.219	171.387	88.0068	171.387	88.3785	171.387	87.752	171.387	88.4784	171.387	87.4679	171.387	88.5145	171.387	87.1702	171.387	88.4855	171.387	86.876	171.387	88.3933	171.387	86.6032	171.387	88.2434	171.387	86.3681	171.387	88.0454	171.387	86.1842	171.387	87.8135	171.387	86.0613	171.387	87.5668	171.387	86.0041	171.387	87.3289	171.387	86.0122	171.387	87.1255	171.387	86.0796	171.387	86.9789	171.387	86.1954	171.387	86.9002	171.387	86.3439	171.387	86.8824	171.387	86.5064	171.387	86.9016	171.387	86.6624	171.387	86.9257	171.387	86.7929	171.387	86.9255	171.387	86.8828
177.246	88.2019	177.246	87.9467	177.246	88.4009	177.246	87.6487	177.246	88.533	177.246	87.3242	177.246	88.5913	177.246	86.9915	177.246	88.5731	177.246	86.6711	177.246	88.481	177.246	86.3846	177.246	88.3232	177.246	86.1523	177.246	88.1138	177.246	85.9907	177.246	87.8723	177.246	85.9097	177.246	87.622	177.246	85.9101	177.246	87.3874	177.246	85.9839	177.246	87.1912	177.246	86.1154	177.246	87.05	177.246	86.2841	177.246	86.9706	177.246	86.4678	177.246	86.9471	177.246	86.6451	177.246	86.9612	177.246	86.7975	177.246	86.9875	177.246	86.9109	177.246	86.9998	177.246	86.9779
183.105	88.2862	183.105	88.0279	183.105	88.4781	183.105	87.7139	183.105	88.5963	183.105	87.358	183.105	88.637	183.105	86.9775	183.105	88.6	183.105	86.5926	183.105	88.4892	183.105	86.2257	183.105	88.313	183.105	85.9004	183.105	88.0849	183.105	85.6396	183.105	87.8231	183.105	85.4623	183.105	87.55	183.105	85.3808	183.105	87.29	183.105	85.3972	183.105	87.0669	183.105	85.5025	183.105	86.8993	183.105	85.6771	183.105	86.7956	183.105	85.8944	183.105	86.7495	183.105	86.1246	183.105	86.7401	183.105	86.3398	183.105	86.7378	183.105	86.517	183.105	86.7125	183.105	86.6422
188.965	88.2991	188.965	88.045	188.965	88.4855	188.965	87.7346	188.965	88.5961	188.965	87.382	188.965	88.6269	188.965	87.0044	188.965	88.5779	188.965	86.6209	188.965	88.4544	188.965	86.2513	188.965	88.2672	188.965	85.9149	188.965	88.0329	188.965	85.6289	188.965	87.7729	188.965	85.4069	188.965	87.5103	188.965	85.2589	188.965	87.2673	188.965	85.1909	188.965	87.0606	188.965	85.2041	188.965	86.8986	188.965	85.2939	188.965	86.78	188.965	85.4482	188.965	86.6936	188.965	85.6478	188.965	86.6201	188.965	85.8681	188.965	86.5371	188.965	86.0839	188.965	86.4252	188.965	86.2738
196.289	88.5428	196.289	88.316	196.289	88.6963	196.289	88.0274	196.289	88.7691	196.289	87.6914	196.289	88.7576	196.289	87.3259	196.289	88.6622	196.289	86.9515	196.289	88.4881	196.289	86.5908	196.289	88.2454	196.289	86.2677	196.289	87.9497	196.289	86.004	196.289	87.6227	196.289	85.8171	196.289	87.2906	196.289	85.7157	196.289	86.9833	196.289	85.6987	196.289	86.7307	196.289	85.7555	196.289	86.5566	196.289	85.869	196.289	86.4712	196.289	86.0182	196.289	86.4634	196.289	86.1811	196.289	86.5028	196.289	86.3355	196.289	86.5498	196.289	86.4611	196.289	86.5697	196.289	86.5418
203.613	88.4558	203.613	88.2346	203.613	88.5957	203.613	87.9417	203.613	88.6484	203.613	87.5904	203.613	88.6123	203.613	87.1977	203.613	88.4908	203.613	86.7843	203.613	88.2931	203.613	86.3741	203.613	88.0348	203.613	85.9936	203.613	87.7372	203.613	85.6698	203.613	87.4251	203.613	85.4269	203.613	87.1227	203.613	85.282	203.613	86.8485	203.613	85.2412	203.613	86.6146	203.613	85.2971	203.613	86.4289	203.613	85.4296	203.613	86.2984	203.613	85.6098	203.613	86.2271	203.613	85.8046	203.613	86.2081	203.613	85.9824	203.613	86.2187	203.613	86.1183	203.613	86.226	203.613	86.1988
210.938	88.3908	210.938	88.1658	210.938	88.5423	210.938	87.8787	210.938	88.6116	210.938	87.5428	210.938	88.5928	210.938	87.1726	210.938	88.484	210.938	86.7837	210.938	88.2882	210.938	86.3919	210.938	88.0151	210.938	86.0133	210.938	87.6833	210.938	85.6646	210.938	87.321	210.938	85.3632	210.938	86.9623	210.938	85.127	210.938	86.639	210.938	84.973	210.938	86.3715	210.938	84.9129	210.938	86.165	210.938	84.9475	210.938	86.0148	210.938	85.0618	210.938	85.9127	210.938	85.2264	210.938	85.8481	210.938	85.4048	210.938	85.8042	210.938	85.5634	210.938	85.7569	210.938	85.6815
218.262	88.0529	218.262	87.7858	218.262	88.2493	218.262	87.4633	218.262	88.3636	218.262	87.1055	218.262	88.3894	218.262	86.7358	218.262	88.3246	218.262	86.379	218.262	88.1727	218.262	86.0576	218.262	87.9446	218.262	85.7886	218.262	87.6603	218.262	85.5806	218.262	87.349	218.262	85.434	218.262	87.0463	218.262	85.3437	218.262	86.7855	218.262	85.3034	218.262	86.5869	218.262	85.3087	218.262	86.451	218.262	85.3574	218.262	86.3619	218.262	85.4461	218.262	86.2971	218.262	85.567	218.262	86.2371	218.262	85.7065	218.262	86.1685	218.262	85.8476	218.262	86.083	218.262	85.9758
225.586	88.3563	225.586	88.0785	225.586	88.5474	225.586	87.7285	225.586	88.6419	225.586	87.3258	225.586	88.6346	225.586	86.8951	225.586	88.5253	225.586	86.4657	225.586	88.3197	225.586	86.0692	225.586	88.0303	225.586	85.7344	225.586	87.6783	225.586	85.4818	225.586	87.2933	225.586	85.3189	225.586	86.9128	225.586	85.2405	225.586	86.577	225.586	85.2329	225.586	86.32	225.586	85.2807	225.586	86.1599	225.586	85.3711	225.586	86.0915	225.586	85.4939	225.586	86.0886	225.586	85.6384	225.586	86.1133	225.586	85.7902	225.586	86.1287	225.586	85.9309	225.586	86.1087	225.586	86.0417
232.91	87.9462	232.91	87.6818	232.91	88.1191	232.91	87.3414	232.91	88.191	232.91	86.9469	232.91	88.1588	232.91	86.5265	232.91	88.0269	232.91	86.1144	232.91	87.8083	232.91	85.7477	232.91	87.5249	232.91	85.4601	232.91	87.2065	232.91	85.2725	232.91	86.8868	232.91	85.1869	232.91	86.5957	232.91	85.1857	232.91	86.3524	232.91	85.2403	232.91	86.1626	232.91	85.3216	232.91	86.0219	232.91	85.4081	232.91	85.9226	232.91	85.4887	232.91	85.8569	232.91	85.5604	232.91	85.8158	232.91	85.6239	232.91	85.7877	232.91	85.6794	232.91	85.7604	232.91	85.7253
241.699	87.9848	241.699	87.652	241.699	88.1877	241.699	87.2042	241.699	88.2526	241.699	86.6646	241.699	88.1776	241.699	86.068	241.699	87.9687	241.699	85.4655	241.699	87.6428	241.699	84.9266	241.699	87.2338	241.699	84.5322	241.699	86.7996	241.699	84.3506	241.699	86.4205	241.699	84.4051	241.699	86.1778	241.699	84.6601	241.699	86.112	241.699	85.0405	241.699	86.1972	241.699	85.466	241.699	86.3616	241.699	85.874	241.699	86.5349	241.699	86.2256	241.699	86.6774	241.699	86.5019	241.699	86.7801	241.699	86.6984	241.699	86.8474	241.699	86.8197	241.699	86.8815	241.699	86.8763
250.488	89.059	250.488	88.7278	250.488	89.2584	250.488	88.2706	250.488	89.3202	250.488	87.6938	250.488	89.2378	250.488	87.0076	250.488	89.0051	250.488	86.2299	250.488	88.619	250.488	85.3949	250.488	88.085	250.488	84.5639	250.488	87.428	250.488	83.8354	250.488	86.709	250.488	83.3354	250.488	86.0412	250.488	83.1703	250.488	85.5774	250.488	83.3598	250.488	85.4352	250.488	83.8211	250.488	85.6038	250.488	84.4244	250.488	85.9523	250.488	85.0548	250.488	86.3282	250.488	85.6353	250.488	86.6281	250.488	86.1219	250.488	86.803	250.488	86.4917	250.488	86.838	250.488	86.7327
259.277	88.7832	259.277	88.5263	259.277	88.9357	259.277	88.1717	259.277	88.9767	259.277	87.7253	259.277	88.9004	259.277	87.1926	259.277	88.7026	259.277	86.5823	259.277	88.3824	259.277	85.9118	259.277	87.9439	259.277	85.2171	259.277	87.4001	259.277	84.5627	259.277	86.7802	259.277	84.0422	259.277	86.139	259.277	83.7557	259.277	85.5645	259.277	83.7595	259.277	85.1669	259.277	84.0277	259.277	85.0327	259.277	84.4685	259.277	85.1649	259.277	84.9747	259.277	85.4732	259.277	85.46	259.277	85.8287	259.277	85.8656	259.277	86.1224	259.277	86.1538	259.277	86.2884	259.277	86.2994
268.066	88.6325	268.066	88.3348	268.066	88.8123	268.066	87.9304	268.066	88.865	268.066	87.4303	268.066	88.7837	268.066	86.8443	268.066	88.565	268.066	86.1819	268.066	88.2099	268.066	85.4557	268.066	87.7264	268.066	84.6914	268.066	87.1357	268.066	83.9426	268.066	86.4822	268.066	83.3059	268.066	85.8431	268.066	82.9127	268.066	85.3233	268.066	82.8711	268.066	85.018	268.066	83.1848	268.066	84.959	268.066	83.7411	268.066	85.0989	268.066	84.3865	268.066	85.3502	268.066	84.9959	268.066	85.6278	268.066	85.4903	268.066	85.8626	268.066	85.8288	268.066	85.9994	268.066	85.9965
276.855	88.846	276.855	88.5329	276.855	89.041	276.855	88.1135	276.855	89.1104	276.855	87.6034	276.855	89.0504	276.855	87.0208	276.855	88.8592	276.855	86.3841	276.855	88.5356	276.855	85.7094	276.855	88.0795	276.855	85.0119	276.855	87.4959	276.855	84.3119	276.855	86.8056	276.855	83.6487	276.855	86.0635	276.855	83.0952	276.855	85.3761	276.855	82.7562	276.855	84.8887	276.855	82.7257	276.855	84.7093	276.855	83.0175	276.855	84.8185	276.855	83.5396	276.855	85.0835	276.855	84.1486	276.855	85.357	276.855	84.7187	276.855	85.5402	276.855	85.1692	276.855	85.5823	276.855	85.4608
287.109	88.7785	287.109	88.5386	287.109	88.9085	287.109	88.195	287.109	88.9251	287.109	87.7561	287.109	88.8267	287.109	87.2314	287.109	88.6134	287.109	86.6321	287.109	88.2868	287.109	85.9728	287.109	87.8518	287.109	85.2772	287.109	87.3203	287.109	84.5853	287.109	86.7153	287.109	83.9617	287.109	86.0786	287.109	83.495	287.109	85.4802	287.109	83.2752	287.109	85.0226	287.109	83.3484	287.109	84.8129	287.109	83.6822	287.109	84.8915	287.109	84.1803	287.109	85.1815	287.109	84.7297	287.109	85.5333	287.109	85.2354	287.109	85.8106	287.109	85.6306	287.109	85.9329	287.109	85.8715
297.363	89.331	297.363	89.0909	297.363	89.4509	297.363	88.7453	297.363	89.4378	297.363	88.3086	297.363	89.2833	297.363	87.7918	297.363	88.9828	297.363	87.2005	297.363	88.535	297.363	86.5354	297.363	87.9432	297.363	85.7968	297.363	87.2211	297.363	84.9947	297.363	86.4078	297.363	84.1681	297.363	85.5878	297.363	83.4116	297.363	84.8965	297.363	82.8859	297.363	84.4764	297.363	82.7608	297.363	84.3916	297.363	83.0829	297.363	84.5908	297.363	83.7178	297.363	84.9561	297.363	84.4531	297.363	85.3626	297.363	85.115	297.363	85.7013	297.363	85.6002	297.363	85.8859	297.363	85.8602
307.617	88.8194	307.617	88.5488	307.617	88.9891	307.617	88.1868	307.617	89.051	307.617	87.7467	307.617	88.9978	307.617	87.2442	307.617	88.8192	307.617	86.6966	307.617	88.5001	307.617	86.1208	307.617	88.0222	307.617	85.5327	307.617	87.3691	307.617	84.9472	307.617	86.5377	307.617	84.3807	307.617	85.5634	307.617	83.8606	307.617	84.5652	307.617	83.4399	307.617	83.7858	307.617	83.2034	307.617	83.5068	307.617	83.2382	307.617	83.7875	307.617	83.5656	307.617	84.3826	307.617	84.1001	307.617	84.9889	307.617	84.6913	307.617	85.4202	307.617	85.1971	307.617	85.6012	307.617	85.5191
319.336	89.0838	319.336	88.8529	319.336	89.1959	319.336	88.5108	319.336	89.1852	319.336	88.0679	319.336	89.0513	319.336	87.5359	319.336	88.7961	319.336	86.928	319.336	88.4196	319.336	86.2608	319.336	87.9151	319.336	85.5577	319.336	87.2661	319.336	84.8536	319.336	86.4479	319.336	84.1984	319.336	85.443	319.336	83.6571	319.336	84.2815	319.336	83.3031	319.336	83.123	319.336	83.1997	319.336	82.3375	319.336	83.3692	319.336	82.3213	319.336	83.7684	319.336	83.0118	319.336	84.2937	319.336	83.9441	319.336	84.8143	319.336	84.7357	319.336	85.2055	319.336	85.2201	319.336	85.3652
329.59	89.0473	329.59	88.8357	329.59	89.1527	329.59	88.534	329.59	89.1436	329.59	88.1625	329.59	89.0211	329.59	87.7386	329.59	88.7932	329.59	87.271	329.59	88.47	329.59	86.7583	329.59	88.0569	329.59	86.1942	329.59	87.5489	329.59	85.5788	329.59	86.9288	329.59	84.9354	329.59	86.1717	329.59	84.327	329.59	85.2641	329.59	83.8591	329.59	84.2448	329.59	83.6449	329.59	83.276	329.59	83.7327	329.59	82.6792	329.59	84.0598	329.59	82.7337	329.59	84.4862	329.59	83.3318	329.59	84.8637	329.59	84.0882	329.59	85.0733	329.59	84.6985	329.59	85.0326
341.309	89.6034	341.309	89.3168	341.309	89.7473	341.309	88.9028	341.309	89.7465	341.309	88.3892	341.309	89.6113	341.309	87.814	341.309	89.3605	341.309	87.2204	341.309	89.0164	341.309	86.6473	341.309	88.5952	341.309	86.1177	341.309	88.0981	341.309	85.6327	341.309	87.5063	341.309	85.178	341.309	86.7887	341.309	84.7464	341.309	85.926	341.309	84.3685	341.309	84.962	341.309	84.1307	341.309	84.0791	341.309	84.1463	341.309	83.6152	341.309	84.4626	341.309	83.8123	341.309	84.9885	341.309	84.4963	341.309	85.5389	341.309	85.2637	341.309	85.9338	341.309	85.8216	341.309	86.0484
353.027	89.9112	353.027	89.6481	353.027	90.0217	353.027	89.2475	353.027	89.9735	353.027	88.7312	353.027	89.7722	353.027	88.1254	353.027	89.437	353.027	87.4582	353.027	89.0013	353.027	86.757	353.027	88.5098	353.027	86.0483	353.027	88.0087	353.027	85.3604	353.027	87.5241	353.027	84.7316	353.027	87.0413	353.027	84.2179	353.027	86.5043	353.027	83.8928	353.027	85.8538	353.027	83.8244	353.027	85.097	353.027	84.0322	353.027	84.3893	353.027	84.4539	353.027	84.0285	353.027	84.9603	353.027	84.2027	353.027	85.4022	353.027	84.7382	353.027	85.6508	353.027	85.2893	353.027	85.6204
366.211	90.9891	366.211	90.7124	366.211	91.1059	366.211	90.2835	366.211	91.0603	366.211	89.7122	366.211	90.8548	366.211	89.0091	366.211	90.4964	366.211	88.1854	366.211	89.9958	366.211	87.2576	366.211	89.3695	366.211	86.2538	366.211	88.6456	366.211	85.2218	366.211	87.869	366.211	84.2366	366.211	87.0956	366.211	83.4059	366.211	86.3676	366.211	82.866	366.211	85.6951	366.211	82.7439	366.211	85.0873	366.211	83.0749	366.211	84.6308	366.211	83.7445	366.211	84.5002	366.211	84.5403	366.211	84.7763	366.211	85.2538	366.211	85.2812	366.211	85.7349	366.211	85.7222	366.211	85.8975
379.395	90.4286	379.395	90.138	379.395	90.6012	379.395	89.7509	379.395	90.6426	379.395	89.2913	379.395	90.5467	379.395	88.7766	379.395	90.3118	379.395	88.2096	379.395	89.937	379.395	87.5788	379.395	89.4211	379.395	86.8698	379.395	88.7645	379.395	86.0818	379.395	87.9762	379.395	85.249	379.395	87.0863	379.395	84.4621	379.395	86.1684	379.395	83.8764	379.395	85.3581	379.395	83.6642	379.395	84.835	379.395	83.8979	379.395	84.7307	379.395	84.4751	379.395	85.0223	379.395	85.1898	379.395	85.5378	379.395	85.8478	379.395	86.0608	379.395	86.3145	379.395	86.4187	379.395	86.5133
392.578	90.3114	392.578	89.9796	392.578	90.4734	392.578	89.5051	392.578	90.4592	392.578	88.9334	392.578	90.2821	392.578	88.3214	392.578	89.9706	392.578	87.7214	392.578	89.559	392.578	87.1573	392.578	89.0734	392.578	86.6089	392.578	88.5215	392.578	86.0168	392.578	87.8888	392.578	85.3123	392.578	87.1482	392.578	84.4664	392.578	86.281	392.578	83.5672	392.578	85.3179	392.578	82.9122	392.578	84.4059	392.578	82.9236	392.578	83.861	392.578	83.6881	392.578	84.0032	392.578	84.7975	392.578	84.7573	392.578	85.8041	392.578	85.6811	392.578	86.4594	392.578	86.3804	392.578	86.6591
405.762	90.274	405.762	89.9496	405.762	90.3738	405.762	89.4202	405.762	90.2508	405.762	88.7233	405.762	89.9321	405.762	87.9134	405.762	89.467	405.762	87.063	405.762	88.9167	405.762	86.2548	405.762	88.3399	405.762	85.5568	405.762	87.7773	405.762	84.9845	405.762	87.2385	405.762	84.4878	405.762	86.694	405.762	83.9871	405.762	86.0864	405.762	83.4482	405.762	85.3712	405.762	82.9702	405.762	84.5901	405.762	82.8254	405.762	83.9627	405.762	83.2717	405.762	83.8546	405.762	84.202	405.762	84.3995	405.762	85.2076	405.762	85.2473	405.762	85.932	405.762	85.934	405.762	86.19
420.41	90.7458	420.41	90.4604	420.41	90.8492	420.41	90.0024	420.41	90.7825	420.41	89.3946	420.41	90.5758	420.41	88.6644	420.41	90.2646	420.41	87.8403	420.41	89.8746	420.41	86.9565	420.41	89.415	420.41	86.0601	420.41	88.8818	420.41	85.2093	420.41	88.2637	420.41	84.4514	420.41	87.5447	420.41	83.7962	420.41	86.7073	420.41	83.2227	420.41	85.7444	420.41	82.7452	420.41	84.6956	420.41	82.494	420.41	83.7312	420.41	82.6694	420.41	83.2099	420.41	83.2942	420.41	83.4066	420.41	84.0943	420.41	84.0761	420.41	84.7214	420.41	84.7015	420.41	84.9485
435.059	90.3268	435.059	90.041	435.059	90.433	435.059	89.5834	435.059	90.3672	435.059	88.978	435.059	90.1497	435.059	88.2613	435.059	89.8107	435.059	87.4763	435.059	89.3925	435.059	86.6698	435.059	88.9471	435.059	85.8903	435.059	88.5193	435.059	85.1839	435.059	88.1163	435.059	84.584	435.059	87.6931	435.059	84.1045	435.059	87.184	435.059	83.7568	435.059	86.5712	435.059	83.5909	435.059	85.955	435.059	83.7121	435.059	85.5504	435.059	84.1981	435.059	85.5334	435.059	84.9644	435.059	85.8588	435.059	85.7768	435.059	86.3051	435.059	86.4	435.059	86.639	435.059	86.6959
451.172	90.6689	451.172	90.2111	451.172	90.9082	451.172	89.5655	451.172	90.9208	451.172	88.7753	451.172	90.7211	451.172	87.8818	451.172	90.3363	451.172	86.912	451.172	89.7954	451.172	85.8769	451.172	89.1264	451.172	84.7848	451.172	88.3591	451.172	83.6612	451.172	87.5214	451.172	82.5658	451.172	86.6211	451.172	81.6103	451.172	85.6251	451.172	80.9811	451.172	84.4744	451.172	80.9255	451.172	83.1948	451.172	81.5834	451.172	82.176	451.172	82.7761	451.172	82.2242	451.172	84.1128	451.172	83.4116	451.172	85.2532	451.172	84.8186	451.172	85.9873	451.172	85.8065	451.172	86.1946
465.82	90.3487	465.82	89.83	465.82	90.6572	465.82	89.1621	465.82	90.7305	465.82	88.4228	465.82	90.5759	465.82	87.6653	465.82	90.2215	465.82	86.8857	465.82	89.715	465.82	86.03	465.82	89.1373	465.82	85.0285	465.82	88.5996	465.82	83.8257	465.82	88.1906	465.82	82.4046	465.82	87.8864	465.82	80.8362	465.82	87.5151	465.82	79.4278	465.82	86.8151	465.82	78.9138	465.82	85.5421	465.82	79.8932	465.82	83.6989	465.82	81.8141	465.82	82.2721	465.82	83.7843	465.82	82.9684	465.82	85.3473	465.82	84.7728	465.82	86.3216	465.82	86.1024	465.82	86.6042
483.398	90.4718	483.398	89.648	483.398	90.9876	483.398	88.5683	483.398	91.2002	483.398	87.3725	483.398	91.14	483.398	86.2861	483.398	90.8432	483.398	85.5245	483.398	90.348	483.398	85.1369	483.398	89.7073	483.398	84.9747	483.398	89.009	483.398	84.8103	483.398	88.3903	483.398	84.429	483.398	88.007	483.398	83.6358	483.398	87.9022	483.398	82.2428	483.398	87.8866	483.398	80.165	483.398	87.6258	483.398	78.1882	483.398	86.8413	483.398	78.9114	483.398	85.5199	483.398	81.6558	483.398	84.291	483.398	83.9653	483.398	84.2494	483.398	85.2855	483.398	85.0866	483.398	85.6138
499.512	91.1916	499.512	90.3424	499.512	91.7189	499.512	89.1739	499.512	91.9554	499.512	87.7495	499.512	91.9454	499.512	86.2241	499.512	91.733	499.512	84.8487	499.512	91.3553	499.512	83.8775	499.512	90.8393	499.512	83.3763	499.512	90.2095	499.512	83.1693	499.512	89.5168	499.512	83.001	499.512	88.8767	499.512	82.6585	499.512	88.4435	499.512	81.9689	499.512	88.2394	499.512	80.8056	499.512	88.0294	499.512	79.3739	499.512	87.4964	499.512	79.0832	499.512	86.5726	499.512	81.0929	499.512	85.7297	499.512	83.6148	499.512	85.6572	499.512	85.3712	499.512	86.0841	499.512	86.1497
517.09	90.3011	517.09	89.6136	517.09	90.7555	517.09	88.6926	517.09	91.0035	517.09	87.5614	517.09	91.0907	517.09	86.2756	517.09	91.0638	517.09	84.9566	517.09	90.9595	517.09	83.8315	517.09	90.807	517.09	83.1737	517.09	90.6179	517.09	83.0668	517.09	90.3571	517.09	83.2773	517.09	89.9408	517.09	83.4418	517.09	89.2962	517.09	83.2401	517.09	88.4698	517.09	82.4092	517.09	87.6919	517.09	80.7706	517.09	87.1953	517.09	78.7665	517.09	86.9022	517.09	78.864	517.09	86.5893	517.09	81.4464	517.09	86.2316	517.09	83.7828	517.09	85.8454	517.09	85.169
536.133	90.8975	536.133	90.2641	536.133	91.2343	536.133	89.3486	536.133	91.2719	536.133	88.183	536.133	91.0158	536.133	86.8253	536.133	90.4822	536.133	85.3852	536.133	89.7181	536.133	84.0731	536.133	88.8517	536.133	83.2074	536.133	88.1566	536.133	83.0086	536.133	87.9738	536.133	83.3068	536.133	88.3322	536.133	83.6605	536.133	88.8072	536.133	83.6687	536.133	88.9063	536.133	83.0606	536.133	88.3358	536.133	81.7272	536.133	87.093	536.133	80.1938	536.133	85.7545	536.133	80.5208	536.133	85.4733	536.133	82.9525	536.133	86.2174	536.133	85.229	536.133	86.7896	536.133	86.5242
555.176	90.3118	555.176	89.8799	555.176	90.5785	555.176	89.2998	555.176	90.6728	555.176	88.5831	555.176	90.5998	555.176	87.7204	555.176	90.3562	555.176	86.6834	555.176	89.9029	555.176	85.4605	555.176	89.1758	555.176	84.1505	555.176	88.1492	555.176	83.0812	555.176	86.9526	555.176	82.6869	555.176	86.0249	555.176	82.9556	555.176	85.9313	555.176	83.354	555.176	86.5262	555.176	83.3756	555.176	87.0061	555.176	82.7514	555.176	86.7987	555.176	81.4941	555.176	85.8399	555.176	80.3334	555.176	84.6771	555.176	80.7532	555.176	84.1539	555.176	82.3637	555.176	84.1003	555.176	83.6332
574.219	90.613	574.219	90.2108	574.219	90.8514	574.219	89.6466	574.219	90.9427	574.219	88.9517	574.219	90.8936	574.219	88.1849	574.219	90.6672	574.219	87.4063	574.219	90.1965	574.219	86.6301	574.219	89.4486	574.219	85.8076	574.219	88.4741	574.219	84.8996	574.219	87.3968	574.219	84.0059	574.219	86.4034	574.219	83.4045	574.219	85.7956	574.219	83.2503	574.219	85.8301	574.219	83.2085	574.219	86.1834	574.219	82.7228	574.219	86.1199	574.219	81.5101	574.219	85.2636	574.219	80.2082	574.219	84.1688	574.219	80.7898	574.219	84.0686	574.219	82.8354	574.219	84.5498	574.219	84.2831
594.727	90.6797	594.727	90.7905	594.727	90.3141	594.727	90.5847	594.727	89.8212	594.727	90.0732	594.727	89.3427	594.727	89.3293	594.727	88.9509	594.727	88.4732	594.727	88.6111	594.727	87.6294	594.727	88.2333	594.727	86.8536	594.727	87.7309	594.727	86.1133	594.727	87.0126	594.727	85.3814	594.727	85.9747	594.727	84.7378	594.727	84.6039	594.727	84.3087	594.727	83.2117	594.727	84.0452	594.727	82.5191	594.727	83.6644	594.727	82.8946	594.727	82.8898	594.727	83.7556	594.727	81.8002	594.727	84.4012	594.727	81.2234	594.727	84.5392	594.727	81.9475	594.727	84.1369	594.727	83.2072
615.234	92.1718	615.234	92.7371	615.234	91.112	615.234	92.7901	615.234	89.6458	615.234	92.3787	615.234	87.8945	615.234	91.6154	615.234	85.937	615.234	90.686	615.234	83.8487	615.234	89.808	615.234	81.9137	615.234	89.0871	615.234	80.6734	615.234	88.4361	615.234	80.3408	615.234	87.7271	615.234	80.4719	615.234	86.9916	615.234	80.7357	615.234	86.4234	615.234	81.1564	615.234	86.1139	615.234	81.4625	615.234	85.8742	615.234	80.992	615.234	85.4708	615.234	79.1744	615.234	84.8402	615.234	76.1539	615.234	84.0175	615.234	75.614	615.234	82.9316	615.234	78.7066	615.234	81.2945
637.207	94.8263	637.207	94.7494	637.207	94.4636	637.207	94.2176	637.207	93.7255	637.207	93.2756	637.207	92.6683	637.207	92.0093	637.207	91.3121	637.207	90.5421	637.207	89.6894	637.207	89.0911	637.207	87.8531	637.207	88.0262	637.207	85.767	637.207	87.6394	637.207	83.3091	637.207	87.7218	637.207	80.7939	637.207	87.7626	637.207	79.835	637.207	87.4453	637.207	80.9375	637.207	86.8052	637.207	82.2378	637.207	86.2114	637.207	82.6744	637.207	86.1612	637.207	81.7741	637.207	86.7259	637.207	80.0449	637.207	87.405	637.207	81.4108	637.207	87.6132	637.207	84.7781	637.207	86.8771
659.18	94.3633	659.18	94.3516	659.18	93.9344	659.18	93.8987	659.18	93.1335	659.18	93.0599	659.18	92.0815	659.18	91.9197	659.18	90.8984	659.18	90.5724	659.18	89.6415	659.18	89.1294	659.18	88.306	659.18	87.7482	659.18	86.8964	659.18	86.6242	659.18	85.457	659.18	85.8994	659.18	84.0106	659.18	85.5762	659.18	82.4731	659.18	85.5018	659.18	80.6949	659.18	85.3959	659.18	79.5832	659.18	85.026	659.18	81.4351	659.18	84.586	659.18	83.7488	659.18	84.7997	659.18	84.3967	659.18	85.7114	659.18	83.9762	659.18	86.2958	659.18	84.508	659.18	85.8183
682.617	94.5101	682.617	94.6143	682.617	93.9278	682.617	94.1475	682.617	93.0956	682.617	93.1693	682.617	92.197	682.617	91.8303	682.617	91.2263	682.617	90.2805	682.617	90.1574	682.617	88.5739	682.617	89.0992	682.617	86.7095	682.617	88.1901	682.617	84.9753	682.617	87.4673	682.617	84.1577	682.617	86.6873	682.617	84.3751	682.617	85.3783	682.617	84.6715	682.617	83.8706	682.617	84.3709	682.617	83.9467	682.617	83.3588	682.617	84.7006	682.617	82.3508	682.617	83.9408	682.617	83.0119	682.617	81.4871	682.617	84.7299	682.617	80.5295	682.617	85.6122	682.617	82.9576	682.617	85.0193
707.52	94.3279	707.52	94.0776	707.52	94.0779	707.52	93.2613	707.52	93.588	707.52	91.9954	707.52	93.0687	707.52	90.4305	707.52	92.4512	707.52	88.6755	707.52	91.5865	707.52	86.9688	707.52	90.4805	707.52	85.7283	707.52	89.238	707.52	84.9819	707.52	87.9769	707.52	84.3497	707.52	86.8275	707.52	83.753	707.52	85.7124	707.52	83.5089	707.52	84.3471	707.52	83.5114	707.52	83.3458	707.52	83.1031	707.52	83.9868	707.52	82.1699	707.52	84.6796	707.52	82.0241	707.52	83.896	707.52	83.9437	707.52	83.6939	707.52	86.1686	707.52	85.8453	707.52	86.992
732.422	92.5375	732.422	92.4257	732.422	92.4468	732.422	91.9299	732.422	92.3564	732.422	91.0312	732.422	92.1872	732.422	89.7642	732.422	91.7684	732.422	88.1659	732.422	91.2056	732.422	86.3681	732.422	90.6908	732.422	84.7448	732.422	90.1115	732.422	83.7881	732.422	89.2096	732.422	83.4583	732.422	87.9462	732.422	83.2362	732.422	86.5818	732.422	83.0297	732.422	85.4877	732.422	82.8774	732.422	84.7349	732.422	82.053	732.422	84.233	732.422	79.3526	732.422	84.4549	732.422	76.5979	732.422	84.8935	732.422	81.358	732.422	84.523	732.422	84.7159	732.422	84.544	732.422	85.3498
757.324	90.7007	757.324	91.6449	757.324	89.8247	757.324	92.0428	757.324	89.5794	757.324	91.5698	757.324	89.7585	757.324	90.1269	757.324	89.8129	757.324	88.0019	757.324	89.5577	757.324	86.2313	757.324	89.1131	757.324	85.5098	757.324	88.6754	757.324	84.9515	757.324	88.3272	757.324	84.1505	757.324	87.6774	757.324	83.8885	757.324	86.1296	757.324	84.4879	757.324	84.8664	757.324	85.2763	757.324	85.9154	757.324	85.6318	757.324	86.6134	757.324	84.8799	757.324	85.9988	757.324	82.2085	757.324	84.3917	757.324	78.3331	757.324	81.464	757.324	79.8637	757.324	80.604	757.324	81.5876
785.156	92.4123	785.156	93.1751	785.156	91.8115	785.156	93.9557	785.156	90.9214	785.156	94.2564	785.156	89.302	785.156	93.6988	785.156	87.1166	785.156	92.0634	785.156	85.3822	785.156	89.203	785.156	85.0416	785.156	85.0557	785.156	85.4613	785.156	81.6398	785.156	85.5816	785.156	83.2302	785.156	85.2956	785.156	84.6998	785.156	84.3249	785.156	84.4227	785.156	81.0678	785.156	84.1027	785.156	81.156	785.156	85.121	785.156	85.8936	785.156	86.2973	785.156	86.9094	785.156	86.1446	785.156	84.2277	785.156	84.578	785.156	77.9628	785.156	84.234	785.156	81.6041	785.156	84.5479
811.523	93.992	811.523	94.8124	811.523	93.4066	811.523	95.5401	811.523	92.7755	811.523	95.7298	811.523	91.6163	811.523	95.0689	811.523	90.1208	811.523	93.3925	811.523	88.9949	811.523	90.7549	811.523	88.0258	811.523	87.2715	811.523	86.3907	811.523	82.3276	811.523	84.3283	811.523	76.0605	811.523	83.2963	811.523	78.9619	811.523	83.3464	811.523	81.3019	811.523	82.619	811.523	81.6517	811.523	78.8469	811.523	82.3799	811.523	64.495	811.523	84.7283	811.523	80.2219	811.523	86.7918	811.523	84.1807	811.523	87.1275	811.523	83.4503	811.523	85.7131	811.523	80.1908	811.523	82.4119
840.82	94.5941	840.82	94.7097	840.82	94.9407	840.82	95.2979	840.82	94.6847	840.82	95.3988	840.82	93.3011	840.82	94.4213	840.82	91.357	840.82	92.2511	840.82	90.2088	840.82	89.1366	840.82	90.1196	840.82	85.381	840.82	90.3148	840.82	80.8247	840.82	90.2593	840.82	76.2451	840.82	89.5679	840.82	74.8484	840.82	87.5768	840.82	75.4694	840.82	82.765	840.82	77.9025	840.82	74.0442	840.82	81.2935	840.82	81.1351	840.82	83.0943	840.82	84.8533	840.82	82.6568	840.82	85.7032	840.82	82.6805	840.82	83.6548	840.82	83.9141	840.82	79.7229	840.82	82.4408
870.117	95.3825	870.117	94.6711	870.117	95.2796	870.117	94.0188	870.117	93.9137	870.117	93.9996	870.117	92.042	870.117	93.985	870.117	91.8246	870.117	93.1157	870.117	92.2166	870.117	91.3443	870.117	91.5361	870.117	89.3075	870.117	89.9995	870.117	86.9555	870.117	88.5808	870.117	82.4132	870.117	88.0281	870.117	78.1959	870.117	87.9881	870.117	81.4301	870.117	87.1959	870.117	81.4832	870.117	83.9572	870.117	80.7	870.117	75.3777	870.117	82.0455	870.117	78.94	870.117	84.5352	870.117	82.8243	870.117	85.7378	870.117	82.409	870.117	84.9805	870.117	79.6442	870.117	81.5653
900.879	95.2292	900.879	94.7097	900.879	94.9419	900.879	94.0721	900.879	93.8406	900.879	93.8048	900.879	93.0887	900.879	93.6278	900.879	93.1046	900.879	92.9202	900.879	92.6743	900.879	91.3839	900.879	91.4479	900.879	89.2729	900.879	89.8711	900.879	87.0841	900.879	88.1292	900.879	84.542	900.879	86.5049	900.879	81.582	900.879	86.5763	900.879	78.7835	900.879	87.4164	900.879	80.7083	900.879	87.2077	900.879	84.836	900.879	85.9926	900.879	84.7858	900.879	82.7948	900.879	81.5191	900.879	82.6607	900.879	83.2707	900.879	86.1707	900.879	83.8588	900.879	84.6752	900.879	80.9974
933.105	94.3532	933.105	94.7883	933.105	93.801	933.105	94.479	933.105	93.6414	933.105	93.4317	933.105	93.3962	933.105	92.0101	933.105	92.6984	933.105	90.5146	933.105	91.4691	933.105	89.0496	933.105	89.648	933.105	88.1648	933.105	87.9972	933.105	88.3045	933.105	87.7451	933.105	88.4913	933.105	87.8013	933.105	87.8719	933.105	85.9783	933.105	86.8118	933.105	82.7329	933.105	85.6934	933.105	79.9647	933.105	84.4598	933.105	75.0921	933.105	83.3502	933.105	82.5681	933.105	82.1138	933.105	83.1846	933.105	80.1833	933.105	73.1629	933.105	80.6845	933.105	80.0232	933.105	82.6244
965.332	94.7067	965.332	95.1822	965.332	94.1486	965.332	94.7554	965.332	94.352	965.332	93.3893	965.332	94.4641	965.332	91.7126	965.332	93.485	965.332	90.4884	965.332	91.7163	965.332	89.1542	965.332	90.608	965.332	86.8604	965.332	90.1478	965.332	84.2607	965.332	88.7988	965.332	83.0463	965.332	87.7821	965.332	81.4229	965.332	88.3439	965.332	78.7017	965.332	88.012	965.332	77.4657	965.332	87.1176	965.332	81.0538	965.332	84.9268	965.332	84.3021	965.332	77.1306	965.332	84.3406	965.332	81.4829	965.332	81.6301	965.332	81.8625	965.332	80.8586	965.332	78.6321	965.332	80.0557
1,000.49	93.5265	1,000.49	94.0117	1,000.49	93.8586	1,000.49	94.1287	1,000.49	94.0309	1,000.49	93.1934	1,000.49	93.1732	1,000.49	91.4225	1,000.49	92.4212	1,000.49	89.3446	1,000.49	92.0585	1,000.49	86.9432	1,000.49	90.8756	1,000.49	84.5911	1,000.49	88.7423	1,000.49	83.8408	1,000.49	86.8122	1,000.49	83.0295	1,000.49	85.3377	1,000.49	79.986	1,000.49	82.8871	1,000.49	78.6995	1,000.49	81.9328	1,000.49	82.9408	1,000.49	81.6789	1,000.49	85.6469	1,000.49	79.208	1,000.49	85.8417	1,000.49	82.6395	1,000.49	83.4292	1,000.49	81.9062	1,000.49	78.8129	1,000.49	78.1883	1,000.49	77.5753	1,000.49	81.4739	1,000.49	80.6926
1,035.64	92.9271	1,035.64	92.9759	1,035.64	93.8871	1,035.64	93.7607	1,035.64	93.7649	1,035.64	93.4468	1,035.64	92.9933	1,035.64	91.3978	1,035.64	93.059	1,035.64	88.4245	1,035.64	92.4913	1,035.64	86.3268	1,035.64	90.4937	1,035.64	84.3672	1,035.64	87.6206	1,035.64	79.9037	1,035.64	84.3021	1,035.64	72.8293	1,035.64	81.0026	1,035.64	57.1453	1,035.64	81.0851	1,035.64	72.2077	1,035.64	82.1961	1,035.64	68.5899	1,035.64	84.5069	1,035.64	79.4434	1,035.64	86.3408	1,035.64	82.7436	1,035.64	83.1338	1,035.64	81.4984	1,035.64	80.6576	1,035.64	78.7529	1,035.64	81.7052	1,035.64	79.7894	1,035.64	77.9526	1,035.64	79.9528
1,072.27	92.5949	1,072.27	91.9939	1,072.27	92.4023	1,072.27	91.279	1,072.27	93.0594	1,072.27	91.2396	1,072.27	94.2714	1,072.27	90.4772	1,072.27	93.7505	1,072.27	88.6668	1,072.27	91.5375	1,072.27	87.493	1,072.27	89.2296	1,072.27	86.9331	1,072.27	87.6468	1,072.27	85.3858	1,072.27	86.4365	1,072.27	84.7777	1,072.27	84.3469	1,072.27	85.1172	1,072.27	81.7636	1,072.27	84.1685	1,072.27	82.6703	1,072.27	82.0843	1,072.27	82.3168	1,072.27	82.6602	1,072.27	78.7238	1,072.27	81.3767	1,072.27	82.1141	1,072.27	78.864	1,072.27	84.7052	1,072.27	77.4184	1,072.27	82.5218	1,072.27	79.1502	1,072.27	77.1736	1,072.27	80.1527
1,108.89	91.4042	1,108.89	91.5736	1,108.89	92.3852	1,108.89	91.6702	1,108.89	93.2002	1,108.89	90.8632	1,108.89	93.2367	1,108.89	89.7738	1,108.89	92.9303	1,108.89	88.6409	1,108.89	91.987	1,108.89	86.4669	1,108.89	89.8055	1,108.89	82.9061	1,108.89	86.7049	1,108.89	78.8183	1,108.89	84.8381	1,108.89	77.098	1,108.89	84.0577	1,108.89	80.475	1,108.89	81.3689	1,108.89	82.4948	1,108.89	76.9634	1,108.89	81.219	1,108.89	81.8707	1,108.89	81.4643	1,108.89	83.9571	1,108.89	82.8506	1,108.89	80.8708	1,108.89	82.9614	1,108.89	80.1154	1,108.89	80.562	1,108.89	82.9169	1,108.89	79.2095	1,108.89	75.6048	1,108.89	76.4402
1,148.44	90.849	1,148.44	90.4236	1,148.44	92.3863	1,148.44	90.8576	1,148.44	93.0088	1,148.44	90.4195	1,148.44	92.7568	1,148.44	89.5316	1,148.44	92.1704	1,148.44	88.912	1,148.44	90.6088	1,148.44	87.4721	1,148.44	88.0994	1,148.44	84.2996	1,148.44	85.7435	1,148.44	79.0246	1,148.44	83.9696	1,148.44	70.9591	1,148.44	82.556	1,148.44	71.343	1,148.44	81.391	1,148.44	76.9257	1,148.44	77.738	1,148.44	81.0803	1,148.44	76.8197	1,148.44	82.5569	1,148.44	75.7274	1,148.44	83.2044	1,148.44	82.3326	1,148.44	81.0853	1,148.44	83.2071	1,148.44	77.0761	1,148.44	77.8488	1,148.44	74.1826	1,148.44	78.7141	1,148.44	76.0264
1,189.45	91.0776	1,189.45	90.2557	1,189.45	92.1457	1,189.45	90.7481	1,189.45	92.4436	1,189.45	90.8475	1,189.45	92.1589	1,189.45	90.0997	1,189.45	90.9331	1,189.45	89.5451	1,189.45	88.5447	1,189.45	88.5031	1,189.45	85.9786	1,189.45	85.7746	1,189.45	84.8703	1,189.45	82.007	1,189.45	84.9179	1,189.45	78.0248	1,189.45	83.7808	1,189.45	77.1944	1,189.45	81.0948	1,189.45	81.9416	1,189.45	77.4839	1,189.45	83.2505	1,189.45	74.3983	1,189.45	81.7296	1,189.45	79.752	1,189.45	83.0375	1,189.45	80.3709	1,189.45	83.3454	1,189.45	79.3137	1,189.45	79.7117	1,189.45	81.6414	1,189.45	74.9646	1,189.45	78.8986	1,189.45	68.0571
1,230.47	91.6868	1,230.47	90.801	1,230.47	92.3309	1,230.47	90.6816	1,230.47	92.3525	1,230.47	90.4124	1,230.47	91.7571	1,230.47	89.3493	1,230.47	89.6074	1,230.47	87.9711	1,230.47	86.2092	1,230.47	86.3137	1,230.47	83.3452	1,230.47	84.3941	1,230.47	82.1028	1,230.47	82.2486	1,230.47	82.0256	1,230.47	79.0227	1,230.47	80.8998	1,230.47	75.6146	1,230.47	78.3684	1,230.47	76.4686	1,230.47	75.6237	1,230.47	81.8133	1,230.47	78.6054	1,230.47	82.0607	1,230.47	78.6458	1,230.47	79.6276	1,230.47	59.0049	1,230.47	78.3581	1,230.47	78.727	1,230.47	75.5741	1,230.47	78.4436	1,230.47	71.5056	1,230.47	75.4853	1,230.47	72.6567
1,274.41	91.2415	1,274.41	89.8455	1,274.41	92.19	1,274.41	89.0203	1,274.41	92.3457	1,274.41	88.3596	1,274.41	91.6505	1,274.41	87.0499	1,274.41	89.9202	1,274.41	86.1294	1,274.41	86.7635	1,274.41	85.5497	1,274.41	82.59	1,274.41	83.7643	1,274.41	80.0581	1,274.41	80.5986	1,274.41	78.0929	1,274.41	77.7993	1,274.41	78.2678	1,274.41	77.0283	1,274.41	78.395	1,274.41	77.8799	1,274.41	77.6416	1,274.41	76.821	1,274.41	74.9673	1,274.41	76.6248	1,274.41	51.9503	1,274.41	80.6397	1,274.41	75.8232	1,274.41	80.5008	1,274.41	76.3185	1,274.41	75.0134	1,274.41	77.3743	1,274.41	71.8455	1,274.41	77.6147	1,274.41	70.2435
1,319.82	90.1939	1,319.82	88.6184	1,319.82	91.5004	1,319.82	88.3876	1,319.82	91.6349	1,319.82	88.3287	1,319.82	90.2479	1,319.82	87.3297	1,319.82	87.6412	1,319.82	86.6263	1,319.82	84.4218	1,319.82	85.9955	1,319.82	80.2394	1,319.82	84.6533	1,319.82	79.4214	1,319.82	82.6695	1,319.82	78.4016	1,319.82	77.2804	1,319.82	76.5186	1,319.82	74.7722	1,319.82	78.4567	1,319.82	78.5102	1,319.82	76.367	1,319.82	78.8028	1,319.82	70.4488	1,319.82	79.1751	1,319.82	76.5009	1,319.82	79.2368	1,319.82	76.2459	1,319.82	78.3289	1,319.82	73.0441	1,319.82	72.8038	1,319.82	77.4775	1,319.82	61.8941	1,319.82	76.8135	1,319.82	72.2025
1,366.7	89.5277	1,366.7	87.788	1,366.7	90.2699	1,366.7	86.9132	1,366.7	89.9423	1,366.7	86.99	1,366.7	88.7366	1,366.7	86.6572	1,366.7	85.3013	1,366.7	85.1989	1,366.7	81.1942	1,366.7	83.288	1,366.7	81.4618	1,366.7	82.1114	1,366.7	80.8435	1,366.7	81.229	1,366.7	79.9515	1,366.7	79.2296	1,366.7	79.8014	1,366.7	76.2265	1,366.7	78.9449	1,366.7	75.8424	1,366.7	75.0979	1,366.7	77.3923	1,366.7	73.6937	1,366.7	73.7401	1,366.7	76.2512	1,366.7	76.7767	1,366.7	71.9599	1,366.7	77.4913	1,366.7	74.1322	1,366.7	70.0561	1,366.7	78.4842	1,366.7	69.3354	1,366.7	77.2528	1,366.7	64.3764
1,413.57	89.4315	1,413.57	87.5696	1,413.57	90.2675	1,413.57	86.5123	1,413.57	89.0097	1,413.57	85.6791	1,413.57	86.6209	1,413.57	85.46	1,413.57	84.2488	1,413.57	84.7537	1,413.57	80.8349	1,413.57	82.0369	1,413.57	79.6756	1,413.57	80.7256	1,413.57	79.7148	1,413.57	80.1627	1,413.57	76.9224	1,413.57	79.6201	1,413.57	77.9569	1,413.57	78.9067	1,413.57	79.7721	1,413.57	73.5309	1,413.57	77.3653	1,413.57	75.5736	1,413.57	75.34	1,413.57	74.6506	1,413.57	64.6792	1,413.57	74.1599	1,413.57	73.5713	1,413.57	79.4568	1,413.57	72.3627	1,413.57	74.6444	1,413.57	74.5245	1,413.57	59.2656	1,413.57	74.2196	1,413.57	67.2681
1,463.38	89.9916	1,463.38	87.7062	1,463.38	90.2436	1,463.38	84.4174	1,463.38	89.2433	1,463.38	84.9827	1,463.38	85.1432	1,463.38	84.6165	1,463.38	81.1012	1,463.38	82.2865	1,463.38	80.4759	1,463.38	80.0685	1,463.38	80.3403	1,463.38	80.7235	1,463.38	81.424	1,463.38	80.492	1,463.38	81.3301	1,463.38	77.2717	1,463.38	82.5966	1,463.38	79.8028	1,463.38	81.8254	1,463.38	77.9199	1,463.38	80.0516	1,463.38	74.0385	1,463.38	71.4048	1,463.38	76.6466	1,463.38	75.1093	1,463.38	71.7425	1,463.38	72.5715	1,463.38	73.2434	1,463.38	69.2438	1,463.38	68.0982	1,463.38	75.6214	1,463.38	60.9099	1,463.38	74.6902	1,463.38	61.9841
1,516.11	89.84	1,516.11	87.8615	1,516.11	89.83	1,516.11	83.4336	1,516.11	88.6879	1,516.11	82.4335	1,516.11	85.0858	1,516.11	82.3775	1,516.11	78.5361	1,516.11	80.5993	1,516.11	81.7182	1,516.11	81.2729	1,516.11	81.7727	1,516.11	81.498	1,516.11	78.3717	1,516.11	80.7186	1,516.11	77.3389	1,516.11	77.7881	1,516.11	72.4574	1,516.11	76.6629	1,516.11	73.9744	1,516.11	77.7004	1,516.11	75.6872	1,516.11	72.1921	1,516.11	74.3775	1,516.11	65.5261	1,516.11	77.5954	1,516.11	73.3728	1,516.11	71.8931	1,516.11	74.9546	1,516.11	63.6449	1,516.11	68.0535	1,516.11	71.0361	1,516.11	64.6798	1,516.11	68.7545	1,516.11	67.1647
1,568.85	89.105	1,568.85	86.4749	1,568.85	88.7932	1,568.85	82.2267	1,568.85	88.0628	1,568.85	81.4617	1,568.85	84.7074	1,568.85	79.2202	1,568.85	77.6047	1,568.85	80.1707	1,568.85	83.6138	1,568.85	81.6031	1,568.85	81.7312	1,568.85	81.1553	1,568.85	75.6533	1,568.85	81.215	1,568.85	73.7109	1,568.85	81.4657	1,568.85	73.4841	1,568.85	79.3535	1,568.85	74.0136	1,568.85	75.1091	1,568.85	70.0749	1,568.85	70.4834	1,568.85	71.9809	1,568.85	72.1405	1,568.85	73.4239	1,568.85	72.6408	1,568.85	74.0386	1,568.85	76.8717	1,568.85	65.9195	1,568.85	66.7142	1,568.85	73.4871	1,568.85	65.8958	1,568.85	68.824	1,568.85	65.2311
1,624.51	88.1757	1,624.51	86.0681	1,624.51	87.8655	1,624.51	81.919	1,624.51	86.7651	1,624.51	79.3209	1,624.51	82.1598	1,624.51	78.2715	1,624.51	80.2569	1,624.51	77.7223	1,624.51	83.5247	1,624.51	80.1446	1,624.51	83.0981	1,624.51	81.0912	1,624.51	81.6924	1,624.51	80.6722	1,624.51	78.2237	1,624.51	80.1937	1,624.51	76.2435	1,624.51	77.6169	1,624.51	78.4728	1,624.51	71.4787	1,624.51	78.9807	1,624.51	64.9087	1,624.51	77.0898	1,624.51	77.7745	1,624.51	63.8241	1,624.51	75.9904	1,624.51	74.7332	1,624.51	62.9996	1,624.51	70.5595	1,624.51	55.8233	1,624.51	69.301	1,624.51	69.1772	1,624.51	66.465	1,624.51	62.7594
1,681.64	87.4079	1,681.64	85.3948	1,681.64	87.5583	1,681.64	78.3499	1,681.64	85.9049	1,681.64	73.0565	1,681.64	75.3966	1,681.64	76.5051	1,681.64	82.4363	1,681.64	76.2766	1,681.64	82.7301	1,681.64	79.1729	1,681.64	82.6047	1,681.64	77.4899	1,681.64	84.2772	1,681.64	75.4313	1,681.64	81.0377	1,681.64	75.8613	1,681.64	77.0535	1,681.64	70.8187	1,681.64	80.2469	1,681.64	69.7004	1,681.64	79.9117	1,681.64	64.8599	1,681.64	75.4179	1,681.64	65.6936	1,681.64	68.3664	1,681.64	73.7333	1,681.64	73.9546	1,681.64	73.433	1,681.64	60.7285	1,681.64	70.0312	1,681.64	71.3642	1,681.64	61.2828	1,681.64	69.5214	1,681.64	67.7058
1,741.7	88.5429	1,741.7	85.443	1,741.7	88.342	1,741.7	77.4111	1,741.7	82.877	1,741.7	72.6527	1,741.7	74.9091	1,741.7	78.8083	1,741.7	76.4876	1,741.7	80.5232	1,741.7	84.5437	1,741.7	74.9872	1,741.7	85.2759	1,741.7	71.2788	1,741.7	81.6739	1,741.7	72.5184	1,741.7	77.4344	1,741.7	66.5658	1,741.7	71.7767	1,741.7	72.5786	1,741.7	68.7824	1,741.7	78.6151	1,741.7	74.6881	1,741.7	72.9552	1,741.7	77.0794	1,741.7	77.9488	1,741.7	78.4233	1,741.7	70.8857	1,741.7	68.2048	1,741.7	65.9386	1,741.7	68.2602	1,741.7	68.8183	1,741.7	59.9934	1,741.7	65.3181	1,741.7	68.1952	1,741.7	66.8858
1,803.22	88.7317	1,803.22	86.6783	1,803.22	88.9615	1,803.22	78.1776	1,803.22	84.7881	1,803.22	72.99	1,803.22	70.2349	1,803.22	77.3809	1,803.22	81.8461	1,803.22	77.8906	1,803.22	83.5379	1,803.22	77.5191	1,803.22	84.4133	1,803.22	78.244	1,803.22	81.827	1,803.22	72.3774	1,803.22	78.9489	1,803.22	61.4749	1,803.22	76.0977	1,803.22	69.5125	1,803.22	70.8966	1,803.22	71.9999	1,803.22	73.4848	1,803.22	74.4209	1,803.22	73.8521	1,803.22	69.2027	1,803.22	74.9129	1,803.22	71.9156	1,803.22	69.549	1,803.22	70.5966	1,803.22	63.5867	1,803.22	66.7935	1,803.22	67.0144	1,803.22	60.7818	1,803.22	72.0555	1,803.22	71.5847
1,866.21	88.3338	1,866.21	86.7003	1,866.21	87.0568	1,866.21	79.3576	1,866.21	81.1551	1,866.21	70.7771	1,866.21	71.3319	1,866.21	75.1121	1,866.21	83.1392	1,866.21	76.6135	1,866.21	84.4675	1,866.21	77.8354	1,866.21	83.4506	1,866.21	76.2548	1,866.21	80.0955	1,866.21	76.8956	1,866.21	78.5085	1,866.21	72.4889	1,866.21	75.8558	1,866.21	72.1912	1,866.21	69.5477	1,866.21	73.4343	1,866.21	69.8468	1,866.21	68.6595	1,866.21	69.7879	1,866.21	72.7008	1,866.21	73.2867	1,866.21	73.0506	1,866.21	68.0647	1,866.21	68.3944	1,866.21	66.9391	1,866.21	65.4218	1,866.21	65.4853	1,866.21	60.1309	1,866.21	70.5574	1,866.21	65.7041
1,932.13	87.6494	1,932.13	85.637	1,932.13	85.8659	1,932.13	78.0355	1,932.13	77.6919	1,932.13	71.1741	1,932.13	77.4413	1,932.13	76.8221	1,932.13	84.1513	1,932.13	79.7107	1,932.13	84.7496	1,932.13	79.3243	1,932.13	83.4039	1,932.13	79.4514	1,932.13	80.5012	1,932.13	77.3941	1,932.13	75.5316	1,932.13	77.3154	1,932.13	73.6635	1,932.13	74.9492	1,932.13	62.9716	1,932.13	73.726	1,932.13	68.2398	1,932.13	72.4688	1,932.13	67.308	1,932.13	69.7891	1,932.13	69.6423	1,932.13	70.5092	1,932.13	67.8358	1,932.13	68.5551	1,932.13	64.9577	1,932.13	67.4595	1,932.13	54.6452	1,932.13	62.603	1,932.13	70.7712	1,932.13	68.4299
1,999.51	88.2834	1,999.51	86.056	1,999.51	85.8848	1,999.51	80.5667	1,999.51	74.4795	1,999.51	70.5956	1,999.51	79.7839	1,999.51	77.4116	1,999.51	85.2612	1,999.51	79.3595	1,999.51	85.1914	1,999.51	79.8693	1,999.51	82.6176	1,999.51	78.3702	1,999.51	78.8924	1,999.51	77.2402	1,999.51	74.7982	1,999.51	74.3416	1,999.51	70.4105	1,999.51	73.0241	1,999.51	64.5367	1,999.51	73.185	1,999.51	66.8725	1,999.51	72.4934	1,999.51	67.0479	1,999.51	71.1133	1,999.51	70.4997	1,999.51	73.4213	1,999.51	63.6039	1,999.51	68.4503	1,999.51	64.1321	1,999.51	66.8199	1,999.51	60.6509	1,999.51	62.5785	1,999.51	70.0244	1,999.51	68.4027
2,069.82	88.9117	2,069.82	87.7831	2,069.82	86.1923	2,069.82	81.8541	2,069.82	74.8104	2,069.82	74.4624	2,069.82	80.6549	2,069.82	77.4944	2,069.82	85.0306	2,069.82	80.5094	2,069.82	84.228	2,069.82	80.1544	2,069.82	81.9585	2,069.82	79.8362	2,069.82	77.2392	2,069.82	78.1128	2,069.82	74.0258	2,069.82	76.0795	2,069.82	70.3149	2,069.82	75.9059	2,069.82	60.507	2,069.82	72.4353	2,069.82	65.3225	2,069.82	71.4716	2,069.82	64.8854	2,069.82	70.7783	2,069.82	68.3369	2,069.82	72.4062	2,069.82	67.2615	2,069.82	70.81	2,069.82	61.7673	2,069.82	67.1503	2,069.82	61.9415	2,069.82	63.3546	2,069.82	69.243	2,069.82	69.7692
2,143.07	88.4542	2,143.07	88.1735	2,143.07	85.1372	2,143.07	83.5927	2,143.07	76.542	2,143.07	76.0685	2,143.07	81.6469	2,143.07	79.299	2,143.07	84.6385	2,143.07	80.7037	2,143.07	84.2199	2,143.07	81.4096	2,143.07	81.1299	2,143.07	79.3076	2,143.07	76.8805	2,143.07	78.3466	2,143.07	72.4821	2,143.07	77.5228	2,143.07	69.3207	2,143.07	74.1901	2,143.07	56.8173	2,143.07	73.8031	2,143.07	65.5582	2,143.07	71.9357	2,143.07	66.0022	2,143.07	71.5647	2,143.07	68.0606	2,143.07	73.0271	2,143.07	66.9818	2,143.07	70.5154	2,143.07	61.9057	2,143.07	64.7738	2,143.07	65.4868	2,143.07	62.8845	2,143.07	69.0594	2,143.07	70.9538
2,219.24	88.0809	2,219.24	87.8588	2,219.24	83.7239	2,219.24	83.5185	2,219.24	77.0118	2,219.24	77.8653	2,219.24	83.386	2,219.24	81.0499	2,219.24	84.6045	2,219.24	82.1523	2,219.24	83.4343	2,219.24	80.8976	2,219.24	79.9585	2,219.24	79.6261	2,219.24	76.1411	2,219.24	77.3384	2,219.24	70.836	2,219.24	72.7796	2,219.24	62.7901	2,219.24	73.3234	2,219.24	62.7954	2,219.24	72.6376	2,219.24	67.6947	2,219.24	71.003	2,219.24	66.7972	2,219.24	71.3141	2,219.24	68.6107	2,219.24	71.8484	2,219.24	68.2413	2,219.24	71.1921	2,219.24	64.3972	2,219.24	66.0006	2,219.24	67.2748	2,219.24	63.3371	2,219.24	67.3009	2,219.24	69.4071
2,296.88	89.2812	2,296.88	88.9006	2,296.88	84.0321	2,296.88	83.3649	2,296.88	78.0846	2,296.88	77.3725	2,296.88	84.9125	2,296.88	82.0832	2,296.88	85.2789	2,296.88	82.4976	2,296.88	82.6377	2,296.88	81.4571	2,296.88	78.8743	2,296.88	79.5437	2,296.88	74.5733	2,296.88	79.2499	2,296.88	73.3766	2,296.88	76.0216	2,296.88	60.3083	2,296.88	75.379	2,296.88	65.1688	2,296.88	73.0152	2,296.88	69.9266	2,296.88	70.9809	2,296.88	69.3937	2,296.88	70.0121	2,296.88	67.603	2,296.88	72.3465	2,296.88	67.9218	2,296.88	71.717	2,296.88	64.7183	2,296.88	64.8313	2,296.88	67.6837	2,296.88	63.9637	2,296.88	68.3583	2,296.88	69.5629
2,378.91	89.8583	2,378.91	89.9194	2,378.91	83.9562	2,378.91	83.8285	2,378.91	80.252	2,378.91	79.8136	2,378.91	85.3413	2,378.91	82.0968	2,378.91	85.3427	2,378.91	83.0985	2,378.91	82.1943	2,378.91	82.437	2,378.91	78.4039	2,378.91	80.8374	2,378.91	74.594	2,378.91	78.9156	2,378.91	74.8374	2,378.91	77.9256	2,378.91	63.1139	2,378.91	74.813	2,378.91	68.2837	2,378.91	73.9163	2,378.91	69.8832	2,378.91	71.3126	2,378.91	71.3175	2,378.91	71.696	2,378.91	66.4915	2,378.91	72.6836	2,378.91	65.9588	2,378.91	72.1051	2,378.91	63.5855	2,378.91	68.2816	2,378.91	66.5636	2,378.91	65.587	2,378.91	69.109	2,378.91	69.8728
2,462.4	90.5747	2,462.4	89.9206	2,462.4	84.3775	2,462.4	83.5695	2,462.4	80.3416	2,462.4	81.5673	2,462.4	86.5094	2,462.4	83.8762	2,462.4	85.9905	2,462.4	84.5602	2,462.4	81.9329	2,462.4	84.0225	2,462.4	77.5784	2,462.4	81.7337	2,462.4	74.2932	2,462.4	79.439	2,462.4	73.7227	2,462.4	76.6815	2,462.4	66.8016	2,462.4	74.313	2,462.4	71.0743	2,462.4	73.7644	2,462.4	71.0373	2,462.4	72.2976	2,462.4	69.9521	2,462.4	71.7461	2,462.4	63.8106	2,462.4	73.3978	2,462.4	68.0899	2,462.4	73.8774	2,462.4	63.7717	2,462.4	69.6903	2,462.4	67.5177	2,462.4	62.674	2,462.4	68.8649	2,462.4	70.5789
2,548.83	91.4946	2,548.83	88.5165	2,548.83	87.6868	2,548.83	80.7652	2,548.83	75.9352	2,548.83	84.1915	2,548.83	86.2285	2,548.83	86.5115	2,548.83	86.7376	2,548.83	85.8497	2,548.83	83.8588	2,548.83	84.8356	2,548.83	79.432	2,548.83	81.2669	2,548.83	74.059	2,548.83	79.2309	2,548.83	74.7058	2,548.83	73.6893	2,548.83	72.8412	2,548.83	73.2303	2,548.83	70.5528	2,548.83	70.2293	2,548.83	73.3605	2,548.83	69.1119	2,548.83	72.0784	2,548.83	67.6949	2,548.83	61.783	2,548.83	72.2616	2,548.83	70.2305	2,548.83	71.75	2,548.83	64.2523	2,548.83	69.748	2,548.83	63.3888	2,548.83	61.5445	2,548.83	69.9263	2,548.83	71.4804
2,639.65	89.4119	2,639.65	86.2945	2,639.65	88.2367	2,639.65	84.5451	2,639.65	83.1864	2,639.65	86.4254	2,639.65	85.7892	2,639.65	86.5794	2,639.65	85.7053	2,639.65	85.0636	2,639.65	84.1365	2,639.65	81.7792	2,639.65	82.508	2,639.65	78.1534	2,639.65	78.3616	2,639.65	73.6694	2,639.65	75.8074	2,639.65	71.8289	2,639.65	73.7362	2,639.65	70.9815	2,639.65	54.8454	2,639.65	67.9365	2,639.65	71.8699	2,639.65	66.2621	2,639.65	71.4102	2,639.65	63.1467	2,639.65	64.2621	2,639.65	64.5547	2,639.65	68.6221	2,639.65	65.4818	2,639.65	55.7327	2,639.65	68.0833	2,639.65	60.9084	2,639.65	60.9687	2,639.65	70.7627	2,639.65	67.4438
2,731.93	88.4484	2,731.93	87.4863	2,731.93	87.041	2,731.93	86.748	2,731.93	84.6302	2,731.93	86.4984	2,731.93	86.0703	2,731.93	84.9227	2,731.93	84.7739	2,731.93	83.1063	2,731.93	82.8328	2,731.93	79.7579	2,731.93	82.4593	2,731.93	74.7032	2,731.93	80.2793	2,731.93	73.9859	2,731.93	78.3844	2,731.93	73.4026	2,731.93	75.5021	2,731.93	71.8411	2,731.93	67.1061	2,731.93	69.5543	2,731.93	69.9675	2,731.93	70.6913	2,731.93	71.8689	2,731.93	67.7495	2,731.93	67.1648	2,731.93	66.9384	2,731.93	65.6517	2,731.93	67.3291	2,731.93	58.4149	2,731.93	63.3663	2,731.93	64.1529	2,731.93	62.052	2,731.93	70.5727	2,731.93	67.369
2,828.61	89.6538	2,828.61	89.1308	2,828.61	87.4344	2,828.61	88.2729	2,828.61	86.2133	2,828.61	86.3183	2,828.61	86.7739	2,828.61	84.9723	2,828.61	84.1011	2,828.61	82.6863	2,828.61	82.3148	2,828.61	79.2344	2,828.61	82.7574	2,828.61	75.7818	2,828.61	81.2467	2,828.61	74.6396	2,828.61	80.3008	2,828.61	75.9157	2,828.61	77.4234	2,828.61	74.4186	2,828.61	58.6541	2,828.61	73.3305	2,828.61	48.6832	2,828.61	71.973	2,828.61	71.2151	2,828.61	69.8634	2,828.61	63.8443	2,828.61	68.902	2,828.61	63.3354	2,828.61	68.3139	2,828.61	59.3084	2,828.61	63.5133	2,828.61	66.851	2,828.61	60.1069	2,828.61	70.6543	2,828.61	66.6216
2,928.22	89.407	2,928.22	89.577	2,928.22	87.519	2,928.22	88.5371	2,928.22	87.2537	2,928.22	86.3511	2,928.22	87.8847	2,928.22	85.3309	2,928.22	84.2064	2,928.22	82.9658	2,928.22	81.5332	2,928.22	77.3218	2,928.22	83.0393	2,928.22	79.3695	2,928.22	81.7725	2,928.22	76.2135	2,928.22	79.9423	2,928.22	76.107	2,928.22	72.3105	2,928.22	74.5011	2,928.22	68.9619	2,928.22	74.0411	2,928.22	71.0684	2,928.22	72.0505	2,928.22	69.7345	2,928.22	71.5466	2,928.22	66.1744	2,928.22	70.8612	2,928.22	63.2827	2,928.22	69.8633	2,928.22	60.7223	2,928.22	67.2729	2,928.22	67.4662	2,928.22	64.0991	2,928.22	71.112	2,928.22	66.4096
3,030.76	89.776	3,030.76	90.1236	3,030.76	87.4833	3,030.76	88.6898	3,030.76	86.8802	3,030.76	86.298	3,030.76	88.2288	3,030.76	85.1734	3,030.76	84.6212	3,030.76	81.9474	3,030.76	80.5293	3,030.76	80.8184	3,030.76	83.5561	3,030.76	80.4106	3,030.76	83.5499	3,030.76	78.798	3,030.76	80.3864	3,030.76	77.6759	3,030.76	71.33	3,030.76	76.3745	3,030.76	73.8385	3,030.76	74.4697	3,030.76	73.9218	3,030.76	73.7848	3,030.76	69.0287	3,030.76	71.9955	3,030.76	65.8808	3,030.76	70.8743	3,030.76	63.4808	3,030.76	71.7863	3,030.76	64.9193	3,030.76	67.7602	3,030.76	68.6066	3,030.76	62.8332	3,030.76	71.008	3,030.76	65.5042
3,137.7	89.9615	3,137.7	90.7029	3,137.7	88.53	3,137.7	88.5534	3,137.7	86.7637	3,137.7	86.7384	3,137.7	88.0947	3,137.7	84.6261	3,137.7	85.6761	3,137.7	82.664	3,137.7	81.102	3,137.7	82.054	3,137.7	83.9459	3,137.7	80.7448	3,137.7	85.2647	3,137.7	79.7693	3,137.7	81.1567	3,137.7	76.2285	3,137.7	77.1809	3,137.7	74.2874	3,137.7	76.3633	3,137.7	71.713	3,137.7	72.5335	3,137.7	72.185	3,137.7	71.8667	3,137.7	69.6532	3,137.7	64.1616	3,137.7	70.4261	3,137.7	65.9329	3,137.7	71.2535	3,137.7	65.7777	3,137.7	67.0577	3,137.7	65.3999	3,137.7	60.9942	3,137.7	71.2139	3,137.7	68.3148
3,249.02	89.6517	3,249.02	90.5406	3,249.02	88.7218	3,249.02	88.4014	3,249.02	87.6275	3,249.02	87.2383	3,249.02	88.071	3,249.02	84.0626	3,249.02	85.4005	3,249.02	83.5093	3,249.02	80.7508	3,249.02	81.8435	3,249.02	83.8796	3,249.02	80.3642	3,249.02	86.0761	3,249.02	75.3392	3,249.02	81.4877	3,249.02	76.27	3,249.02	79.0206	3,249.02	74.2624	3,249.02	76.0201	3,249.02	74.0343	3,249.02	73.809	3,249.02	71.6976	3,249.02	69.1696	3,249.02	70.8643	3,249.02	66.2915	3,249.02	69.5937	3,249.02	63.8789	3,249.02	69.533	3,249.02	65.897	3,249.02	65.1817	3,249.02	67.1529	3,249.02	57.646	3,249.02	70.612	3,249.02	66.7773
3,363.28	89.6946	3,363.28	90.528	3,363.28	88.7877	3,363.28	87.8369	3,363.28	87.2486	3,363.28	86.832	3,363.28	88.0143	3,363.28	83.9139	3,363.28	85.8441	3,363.28	83.9189	3,363.28	80.8517	3,363.28	81.2019	3,363.28	83.1467	3,363.28	77.4538	3,363.28	85.9457	3,363.28	77.3778	3,363.28	80.8848	3,363.28	76.1262	3,363.28	80.3392	3,363.28	73.9078	3,363.28	78.5184	3,363.28	71.935	3,363.28	72.9855	3,363.28	71.5562	3,363.28	67.4559	3,363.28	70.7513	3,363.28	65.3914	3,363.28	68.1276	3,363.28	65.9297	3,363.28	70.782	3,363.28	66.2858	3,363.28	64.3114	3,363.28	65.8683	3,363.28	55.1105	3,363.28	70.5797	3,363.28	66.9529
3,481.93	89.8819	3,481.93	90.7133	3,481.93	89.1815	3,481.93	88.4799	3,481.93	87.2033	3,481.93	86.5805	3,481.93	86.7563	3,481.93	84.0633	3,481.93	86.3087	3,481.93	83.5982	3,481.93	79.0214	3,481.93	78.6265	3,481.93	84.1476	3,481.93	79.7416	3,481.93	83.6188	3,481.93	76.9576	3,481.93	82.4321	3,481.93	77.0715	3,481.93	76.8206	3,481.93	76.128	3,481.93	71.9682	3,481.93	74.743	3,481.93	73.0149	3,481.93	72.3922	3,481.93	64.7761	3,481.93	72.3979	3,481.93	63.669	3,481.93	70.0494	3,481.93	64.3233	3,481.93	70.7612	3,481.93	66.6376	3,481.93	68.7785	3,481.93	65.1404	3,481.93	57.809	3,481.93	71.3493	3,481.93	66.3845
3,604.98	89.6611	3,604.98	89.8654	3,604.98	88.504	3,604.98	88.8441	3,604.98	88.4753	3,604.98	85.4376	3,604.98	85.7058	3,604.98	85.28	3,604.98	86.4054	3,604.98	82.2468	3,604.98	79.6853	3,604.98	81.0715	3,604.98	84.5347	3,604.98	80.5477	3,604.98	82.8127	3,604.98	78.4659	3,604.98	82.0086	3,604.98	76.4642	3,604.98	71.2326	3,604.98	73.1978	3,604.98	67.97	3,604.98	72.3433	3,604.98	72.9301	3,604.98	71.1882	3,604.98	57.6903	3,604.98	70.2185	3,604.98	59.4372	3,604.98	68.8119	3,604.98	63.1277	3,604.98	69.4541	3,604.98	65.0468	3,604.98	67.6258	3,604.98	64.6849	3,604.98	43.4704	3,604.98	70.1055	3,604.98	66.6931
3,732.42	90.3754	3,732.42	89.3389	3,732.42	87.82	3,732.42	88.0557	3,732.42	88.8277	3,732.42	85.7263	3,732.42	84.9039	3,732.42	84.248	3,732.42	85.7237	3,732.42	82.3122	3,732.42	80.4899	3,732.42	80.6653	3,732.42	83.9315	3,732.42	79.3065	3,732.42	81.054	3,732.42	75.396	3,732.42	80.5598	3,732.42	73.285	3,732.42	71.2611	3,732.42	72.3173	3,732.42	70.5513	3,732.42	70.6929	3,732.42	74.4448	3,732.42	69.6899	3,732.42	56.7088	3,732.42	70.2433	3,732.42	55.4129	3,732.42	68.2326	3,732.42	62.6147	3,732.42	69.6796	3,732.42	66.2418	3,732.42	66.1241	3,732.42	65.5363	3,732.42	56.0207	3,732.42	69.0371	3,732.42	63.019
3,864.26	90.2691	3,864.26	89.3284	3,864.26	88.2939	3,864.26	88.0903	3,864.26	88.7513	3,864.26	87.0338	3,864.26	84.8376	3,864.26	83.3973	3,864.26	85.3352	3,864.26	83.5365	3,864.26	81.313	3,864.26	80.0428	3,864.26	82.614	3,864.26	76.3927	3,864.26	81.0485	3,864.26	76.1907	3,864.26	78.6138	3,864.26	75.553	3,864.26	76.0721	3,864.26	73.1661	3,864.26	67.276	3,864.26	71.2876	3,864.26	72.2184	3,864.26	69.708	3,864.26	61.3338	3,864.26	69.5813	3,864.26	56.9556	3,864.26	68.6321	3,864.26	61.7047	3,864.26	69.6401	3,864.26	63.8936	3,864.26	67.7694	3,864.26	61.8591	3,864.26	60.3494	3,864.26	69.6303	3,864.26	61.7174
4,000.49	89.9705	4,000.49	88.9448	4,000.49	88.063	4,000.49	87.8384	4,000.49	88.2236	4,000.49	87.5624	4,000.49	84.5661	4,000.49	83.0248	4,000.49	85.2068	4,000.49	82.9523	4,000.49	81.7358	4,000.49	78.6534	4,000.49	81.0092	4,000.49	77.0843	4,000.49	80.4253	4,000.49	75.9736	4,000.49	78.0214	4,000.49	74.6642	4,000.49	76.9053	4,000.49	73.9876	4,000.49	67.6897	4,000.49	72.5421	4,000.49	63.369	4,000.49	69.6671	4,000.49	55.6118	4,000.49	70.6301	4,000.49	61.7978	4,000.49	69.9165	4,000.49	62.3536	4,000.49	71.3821	4,000.49	63.3261	4,000.49	69.4091	4,000.49	61.0207	4,000.49	59.1992	4,000.49	67.6506	4,000.49	60.5905
4,141.11	89.1499	4,141.11	89.2325	4,141.11	88.2732	4,141.11	88.0418	4,141.11	87.8927	4,141.11	86.3044	4,141.11	85.4166	4,141.11	84.1405	4,141.11	85.5443	4,141.11	81.8286	4,141.11	80.5616	4,141.11	80.2441	4,141.11	77.3856	4,141.11	77.8785	4,141.11	79.9505	4,141.11	78.2487	4,141.11	75.7711	4,141.11	75.173	4,141.11	74.9462	4,141.11	73.6108	4,141.11	70.088	4,141.11	71.3547	4,141.11	71.8267	4,141.11	71.3226	4,141.11	50.3275	4,141.11	69.9447	4,141.11	62.3008	4,141.11	69.3331	4,141.11	59.4984	4,141.11	71.2763	4,141.11	63.7612	4,141.11	68.4045	4,141.11	62.085	4,141.11	62.4158	4,141.11	65.8666	4,141.11	58.2359
4,287.6	89.3585	4,287.6	88.4007	4,287.6	88.3685	4,287.6	88.8155	4,287.6	87.4719	4,287.6	86.4229	4,287.6	86.3264	4,287.6	83.9756	4,287.6	84.1929	4,287.6	80.9424	4,287.6	80.3832	4,287.6	80.2847	4,287.6	71.3004	4,287.6	79.0312	4,287.6	80.3625	4,287.6	74.6225	4,287.6	79.8495	4,287.6	74.937	4,287.6	78.2418	4,287.6	72.9612	4,287.6	71.6762	4,287.6	71.9628	4,287.6	72.5888	4,287.6	67.7484	4,287.6	62.5624	4,287.6	68.5804	4,287.6	63.4995	4,287.6	69.0049	4,287.6	59.9666	4,287.6	70.7086	4,287.6	63.2824	4,287.6	67.5871	4,287.6	57.7954	4,287.6	62.1578	4,287.6	66.8721	4,287.6	56.1716
4,438.48	88.9281	4,438.48	89.0045	4,438.48	88.2326	4,438.48	88.4897	4,438.48	87.3383	4,438.48	85.3018	4,438.48	86.0175	4,438.48	84.0227	4,438.48	84.4015	4,438.48	82.4004	4,438.48	81.8478	4,438.48	79.8065	4,438.48	72.6625	4,438.48	76.9803	4,438.48	82.0682	4,438.48	76.084	4,438.48	78.5773	4,438.48	72.5448	4,438.48	77.0816	4,438.48	71.5198	4,438.48	66.8868	4,438.48	69.924	4,438.48	70.0791	4,438.48	70.1027	4,438.48	67.0498	4,438.48	68.2711	4,438.48	60.4968	4,438.48	68.8287	4,438.48	57.2469	4,438.48	70.309	4,438.48	60.4808	4,438.48	67.9222	4,438.48	60.3042	4,438.48	65.2571	4,438.48	66.5177	4,438.48	52.2225
4,595.21	88.7131	4,595.21	89.0571	4,595.21	89.2751	4,595.21	88.2558	4,595.21	87.6198	4,595.21	86.649	4,595.21	85.0645	4,595.21	82.3547	4,595.21	84.1823	4,595.21	82.7121	4,595.21	81.8077	4,595.21	78.7316	4,595.21	74.9776	4,595.21	77.8552	4,595.21	83.3619	4,595.21	74.6517	4,595.21	79.4769	4,595.21	74.5078	4,595.21	75.7172	4,595.21	72.091	4,595.21	61.3729	4,595.21	70.5165	4,595.21	65.3324	4,595.21	67.1863	4,595.21	69.7554	4,595.21	67.4236	4,595.21	53.6806	4,595.21	68.1396	4,595.21	58.8952	4,595.21	69.2874	4,595.21	65.1024	4,595.21	69.6026	4,595.21	53.7136	4,595.21	63.5989	4,595.21	64.407	4,595.21	56.1228
4,756.35	88.6622	4,756.35	89.3178	4,756.35	88.3945	4,756.35	88.0956	4,756.35	87.7325	4,756.35	85.8374	4,756.35	84.8776	4,756.35	83.5913	4,756.35	83.4219	4,756.35	81.9347	4,756.35	81.8059	4,756.35	79.4245	4,756.35	75.6108	4,756.35	76.6523	4,756.35	82.5154	4,756.35	74.6121	4,756.35	77.773	4,756.35	71.6049	4,756.35	74.0784	4,756.35	72.2548	4,756.35	72.6837	4,756.35	68.9775	4,756.35	59.1347	4,756.35	69.2042	4,756.35	62.6344	4,756.35	68.0034	4,756.35	50.7254	4,756.35	69.7529	4,756.35	54.888	4,756.35	69.8151	4,756.35	62.9536	4,756.35	69.2501	4,756.35	56.3533	4,756.35	67.0577	4,756.35	66.2497	4,756.35	54.8698
4,924.8	88.2863	4,924.8	89.2844	4,924.8	89.3599	4,924.8	88.2827	4,924.8	87.9913	4,924.8	85.4281	4,924.8	85.3439	4,924.8	83.1867	4,924.8	84.08	4,924.8	81.774	4,924.8	80.9172	4,924.8	79.1111	4,924.8	74.0609	4,924.8	77.3905	4,924.8	80.7646	4,924.8	76.713	4,924.8	76.5168	4,924.8	72.5061	4,924.8	70.1443	4,924.8	71.2046	4,924.8	73.1436	4,924.8	68.7845	4,924.8	67.0074	4,924.8	67.0489	4,924.8	61.6124	4,924.8	66.0362	4,924.8	49.424	4,924.8	67.2362	4,924.8	56.4279	4,924.8	69.3631	4,924.8	62.5486	4,924.8	69.4163	4,924.8	54.9658	4,924.8	61.5516	4,924.8	62.6003	4,924.8	56.7372
5,097.66	89.3274	5,097.66	89.4257	5,097.66	88.7769	5,097.66	88.3492	5,097.66	87.99	5,097.66	85.5564	5,097.66	86.3393	5,097.66	83.7483	5,097.66	83.0894	5,097.66	81.4781	5,097.66	81.6769	5,097.66	79.2794	5,097.66	74.3605	5,097.66	77.4528	5,097.66	74.8234	5,097.66	70.9116	5,097.66	77.7487	5,097.66	70.5934	5,097.66	73.5754	5,097.66	69.0657	5,097.66	73.6014	5,097.66	67.8454	5,097.66	66.8345	5,097.66	66.2451	5,097.66	53.4287	5,097.66	66.026	5,097.66	57.5405	5,097.66	66.6078	5,097.66	54.2423	5,097.66	68.5222	5,097.66	61.7199	5,097.66	68.5162	5,097.66	57.1103	5,097.66	67.3951	5,097.66	60.5716	5,097.66	55.8941
5,277.83	89.0208	5,277.83	89.6682	5,277.83	88.9207	5,277.83	88.7479	5,277.83	88.8355	5,277.83	86.1033	5,277.83	86.5706	5,277.83	83.676	5,277.83	84.3386	5,277.83	81.5232	5,277.83	82.6067	5,277.83	80.0939	5,277.83	76.7701	5,277.83	73.2804	5,277.83	72.9207	5,277.83	75.0694	5,277.83	77.8349	5,277.83	72.722	5,277.83	75.2957	5,277.83	72.3265	5,277.83	75.1425	5,277.83	70.3056	5,277.83	68.4086	5,277.83	66.7249	5,277.83	48.9806	5,277.83	66.2655	5,277.83	51.623	5,277.83	67.3752	5,277.83	54.3628	5,277.83	68.9222	5,277.83	58.4578	5,277.83	69.3275	5,277.83	45.8941	5,277.83	66.1273	5,277.83	62.1948	5,277.83	56.9985
5,463.87	90.1374	5,463.87	89.7678	5,463.87	89.4154	5,463.87	88.752	5,463.87	88.9786	5,463.87	86.4831	5,463.87	87.133	5,463.87	82.7887	5,463.87	85.3043	5,463.87	83.1597	5,463.87	81.8784	5,463.87	77.9122	5,463.87	74.3181	5,463.87	78.4382	5,463.87	73.6445	5,463.87	75.2365	5,463.87	75.6116	5,463.87	69.8701	5,463.87	73.1841	5,463.87	67.7229	5,463.87	73.6147	5,463.87	67.4524	5,463.87	67.639	5,463.87	67.4378	5,463.87	63.0739	5,463.87	64.0213	5,463.87	47.3213	5,463.87	67.9062	5,463.87	57.0498	5,463.87	68.7027	5,463.87	55.5515	5,463.87	67.8107	5,463.87	59.8612	5,463.87	68.4839	5,463.87	60.651	5,463.87	56.7482
5,657.23	89.9497	5,657.23	90.0224	5,657.23	88.9225	5,657.23	88.797	5,657.23	89.0719	5,657.23	86.8607	5,657.23	87.167	5,657.23	84.9943	5,657.23	85.2707	5,657.23	81.2412	5,657.23	82.1475	5,657.23	80.5933	5,657.23	75.848	5,657.23	74.1171	5,657.23	74.4889	5,657.23	70.8829	5,657.23	76.1668	5,657.23	73.2074	5,657.23	68.1547	5,657.23	70.8905	5,657.23	66.2745	5,657.23	69.8527	5,657.23	65.7224	5,657.23	67.5182	5,657.23	61.8856	5,657.23	67.0439	5,657.23	49.1794	5,657.23	68.7046	5,657.23	53.7288	5,657.23	67.6898	5,657.23	56.1782	5,657.23	69.0458	5,657.23	54.7512	5,657.23	68.8929	5,657.23	62.5486	5,657.23	60.412
5,856.45	89.763	5,856.45	90.1247	5,856.45	89.3364	5,856.45	88.8886	5,856.45	89.1424	5,856.45	86.5654	5,856.45	87.3067	5,856.45	85.4624	5,856.45	84.296	5,856.45	81.6629	5,856.45	82.6851	5,856.45	79.3489	5,856.45	73.634	5,856.45	76.517	5,856.45	74.0526	5,856.45	75.6366	5,856.45	78.2212	5,856.45	72.3849	5,856.45	72.6449	5,856.45	70.629	5,856.45	68.4463	5,856.45	70.7159	5,856.45	64.1663	5,856.45	67.6318	5,856.45	53.4519	5,856.45	66.656	5,856.45	41.8299	5,856.45	69.7055	5,856.45	55.2847	5,856.45	69.3213	5,856.45	50.4823	5,856.45	70.6911	5,856.45	54.2474	5,856.45	69.4287	5,856.45	58.6295	5,856.45	58.6939
6,062.99	89.9112	6,062.99	89.9161	6,062.99	89.3366	6,062.99	89.2615	6,062.99	88.5376	6,062.99	87.1338	6,062.99	86.7614	6,062.99	84.683	6,062.99	82.5483	6,062.99	82.7715	6,062.99	82.0777	6,062.99	78.609	6,062.99	78.0094	6,062.99	77.8204	6,062.99	71.4731	6,062.99	74.0822	6,062.99	78.0549	6,062.99	70.5425	6,062.99	67.8695	6,062.99	70.2011	6,062.99	72.1429	6,062.99	67.9256	6,062.99	65.3473	6,062.99	66.5123	6,062.99	54.2664	6,062.99	65.7812	6,062.99	52.5828	6,062.99	67.8397	6,062.99	42.546	6,062.99	69.0686	6,062.99	57.6264	6,062.99	68.7787	6,062.99	56.5609	6,062.99	67.7912	6,062.99	57.0149	6,062.99	58.0486
6,276.86	90.343	6,276.86	89.6872	6,276.86	89.6723	6,276.86	89.3678	6,276.86	88.645	6,276.86	87.751	6,276.86	87.6002	6,276.86	84.9871	6,276.86	83.1848	6,276.86	81.6117	6,276.86	81.4784	6,276.86	80.6372	6,276.86	79.5022	6,276.86	75.4306	6,276.86	70.569	6,276.86	74.9004	6,276.86	75.7542	6,276.86	73.2088	6,276.86	68.191	6,276.86	72.0739	6,276.86	70.3025	6,276.86	70.7827	6,276.86	60.9777	6,276.86	67.6395	6,276.86	51.449	6,276.86	67.9269	6,276.86	55.3128	6,276.86	69.0253	6,276.86	41.454	6,276.86	68.6236	6,276.86	55.6909	6,276.86	69.4757	6,276.86	54.1811	6,276.86	69.0618	6,276.86	58.3107	6,276.86	62.054
6,498.05	90.3908	6,498.05	90.3041	6,498.05	89.7444	6,498.05	88.9766	6,498.05	88.1339	6,498.05	87.5137	6,498.05	87.2902	6,498.05	84.9447	6,498.05	84.1955	6,498.05	81.3562	6,498.05	82.5744	6,498.05	80.0508	6,498.05	78.7579	6,498.05	77.816	6,498.05	73.7687	6,498.05	74.2324	6,498.05	70.894	6,498.05	71.6106	6,498.05	69.3271	6,498.05	69.146	6,498.05	68.2404	6,498.05	68.8393	6,498.05	64.8572	6,498.05	66.6586	6,498.05	55.5327	6,498.05	65.1584	6,498.05	34.3431	6,498.05	68.1873	6,498.05	55.48	6,498.05	68.0284	6,498.05	60.2938	6,498.05	68.427	6,498.05	57.1779	6,498.05	67.679	6,498.05	58.6941	6,498.05	61.209
6,726.56	89.9129	6,726.56	89.8271	6,726.56	89.9994	6,726.56	89.1386	6,726.56	88.6565	6,726.56	87.291	6,726.56	86.2781	6,726.56	84.1445	6,726.56	84.7932	6,726.56	82.011	6,726.56	83.9692	6,726.56	79.595	6,726.56	79.8608	6,726.56	75.8681	6,726.56	72.2401	6,726.56	73.9674	6,726.56	73.6642	6,726.56	72.0509	6,726.56	68.4209	6,726.56	70.9024	6,726.56	62.3863	6,726.56	68.1018	6,726.56	66.0478	6,726.56	67.9054	6,726.56	58.24	6,726.56	65.582	6,726.56	56.939	6,726.56	67.9941	6,726.56	45.6477	6,726.56	67.3975	6,726.56	59.2352	6,726.56	68.3819	6,726.56	58.0805	6,726.56	68.5068	6,726.56	56.5758	6,726.56	61.6295
6,963.87	90.122	6,963.87	89.3151	6,963.87	90.5576	6,963.87	89.1876	6,963.87	88.8098	6,963.87	87.2271	6,963.87	86.5825	6,963.87	84.5309	6,963.87	84.8187	6,963.87	81.6145	6,963.87	84.5536	6,963.87	80.3072	6,963.87	78.7483	6,963.87	77.1542	6,963.87	75.2036	6,963.87	74.6635	6,963.87	76.3428	6,963.87	71.5483	6,963.87	70.8033	6,963.87	70.8699	6,963.87	65.0832	6,963.87	67.4903	6,963.87	65.005	6,963.87	66.5979	6,963.87	59.7378	6,963.87	66.4782	6,963.87	59.5491	6,963.87	67.3835	6,963.87	48.798	6,963.87	67.3801	6,963.87	61.6623	6,963.87	68.1232	6,963.87	54.7518	6,963.87	67.4663	6,963.87	57.9318	6,963.87	60.818
7,209.96	90.4854	7,209.96	89.6378	7,209.96	90.46	7,209.96	89.483	7,209.96	88.2192	7,209.96	86.9127	7,209.96	86.9407	7,209.96	84.3782	7,209.96	85.3029	7,209.96	81.5987	7,209.96	83.5799	7,209.96	79.897	7,209.96	76.1091	7,209.96	76.4264	7,209.96	78.1321	7,209.96	72.9163	7,209.96	76.1104	7,209.96	70.3969	7,209.96	68.6449	7,209.96	70.0244	7,209.96	66.4119	7,209.96	67.8583	7,209.96	60.7718	7,209.96	66.24	7,209.96	54.3751	7,209.96	65.362	7,209.96	55.445	7,209.96	65.9764	7,209.96	52.9699	7,209.96	66.354	7,209.96	59.897	7,209.96	67.3599	7,209.96	54.2874	7,209.96	67.0222	7,209.96	58.1934	7,209.96	60.8099
7,464.84	90.0883	7,464.84	89.4309	7,464.84	90.0872	7,464.84	89.2382	7,464.84	88.3141	7,464.84	86.5089	7,464.84	86.2426	7,464.84	84.3242	7,464.84	85.8388	7,464.84	81.1403	7,464.84	82.7652	7,464.84	79.4499	7,464.84	75.8943	7,464.84	76.9708	7,464.84	78.4921	7,464.84	74.2787	7,464.84	69.5761	7,464.84	70.4651	7,464.84	68.4389	7,464.84	69.5746	7,464.84	66.4224	7,464.84	68.0004	7,464.84	64.5827	7,464.84	66.1003	7,464.84	61.378	7,464.84	64.6386	7,464.84	33.8584	7,464.84	66.9086	7,464.84	51.8119	7,464.84	65.9409	7,464.84	56.9168	7,464.84	65.5601	7,464.84	45.8085	7,464.84	65.233	7,464.84	58.0984	7,464.84	59.5718
7,727.05	89.705	7,727.05	88.8799	7,727.05	89.4407	7,727.05	88.8621	7,727.05	87.9487	7,727.05	86.2382	7,727.05	85.7112	7,727.05	83.9465	7,727.05	84.5268	7,727.05	80.7189	7,727.05	81.3667	7,727.05	79.2897	7,727.05	80.1236	7,727.05	75.125	7,727.05	77.6163	7,727.05	71.3907	7,727.05	62.6063	7,727.05	69.8616	7,727.05	63.8702	7,727.05	68.5147	7,727.05	67.4582	7,727.05	66.7292	7,727.05	68.4933	7,727.05	64.7511	7,727.05	62.1505	7,727.05	62.8261	7,727.05	50.2758	7,727.05	65.7482	7,727.05	56.1807	7,727.05	63.4048	7,727.05	55.9875	7,727.05	63.6365	7,727.05	49.763	7,727.05	63.4356	7,727.05	53.6077	7,727.05	59.8433
7,999.51	89.6949	7,999.51	89.1877	7,999.51	89.8216	7,999.51	88.6674	7,999.51	87.7686	7,999.51	86.0471	7,999.51	85.4448	7,999.51	83.4967	7,999.51	83.9794	7,999.51	80.4464	7,999.51	79.9949	7,999.51	78.3993	7,999.51	81.6515	7,999.51	75.1692	7,999.51	73.5435	7,999.51	72.6962	7,999.51	69.6606	7,999.51	68.8456	7,999.51	65.4301	7,999.51	67.4349	7,999.51	67.9755	7,999.51	66.6352	7,999.51	68.7259	7,999.51	65.4708	7,999.51	64.8334	7,999.51	62.7608	7,999.51	56.732	7,999.51	63.7712	7,999.51	59.2396	7,999.51	63.1707	7,999.51	57.2441	7,999.51	63.1113	7,999.51	53.5801	7,999.51	63.5848	7,999.51	56.081	7,999.51	60.1488
8,282.23	89.5299	8,282.23	89.565	8,282.23	89.9134	8,282.23	88.3734	8,282.23	87.7149	8,282.23	85.6434	8,282.23	85.7839	8,282.23	83.7542	8,282.23	84.0901	8,282.23	80.1514	8,282.23	80.1171	8,282.23	78.1251	8,282.23	79.674	8,282.23	74.6796	8,282.23	72.5613	8,282.23	71.1083	8,282.23	73.3221	8,282.23	68.0135	8,282.23	67.7876	8,282.23	66.0244	8,282.23	64.7159	8,282.23	65.8684	8,282.23	66.5305	8,282.23	64.1763	8,282.23	63.5474	8,282.23	62.0204	8,282.23	51.4329	8,282.23	62.9295	8,282.23	55.0067	8,282.23	62.936	8,282.23	52.0332	8,282.23	62.6933	8,282.23	52.4679	8,282.23	63.2363	8,282.23	55.6359	8,282.23	58.7928
8,573.73	89.1432	8,573.73	89.3351	8,573.73	89.3517	8,573.73	87.9453	8,573.73	87.8982	8,573.73	84.9869	8,573.73	85.1915	8,573.73	83.3906	8,573.73	82.153	8,573.73	80.4792	8,573.73	81.1181	8,573.73	77.8293	8,573.73	77.2022	8,573.73	73.8109	8,573.73	75.1978	8,573.73	70.906	8,573.73	67.5965	8,573.73	67.7738	8,573.73	63.1328	8,573.73	65.5362	8,573.73	66.4725	8,573.73	65.5243	8,573.73	69.228	8,573.73	63.7019	8,573.73	64.8693	8,573.73	61.9321	8,573.73	57.8575	8,573.73	63.5561	8,573.73	55.9675	8,573.73	62.8398	8,573.73	50.7826	8,573.73	61.5512	8,573.73	48.5327	8,573.73	60.7825	8,573.73	53.8674	8,573.73	58.0151
8,876.95	89.2035	8,876.95	88.9944	8,876.95	88.851	8,876.95	87.6304	8,876.95	87.6625	8,876.95	84.5445	8,876.95	84.721	8,876.95	83.1834	8,876.95	81.5374	8,876.95	80.2849	8,876.95	81.2464	8,876.95	77.9	8,876.95	77.4459	8,876.95	72.9845	8,876.95	73.6042	8,876.95	70.2704	8,876.95	64.1003	8,876.95	67.431	8,876.95	58.2059	8,876.95	64.7536	8,876.95	64.6192	8,876.95	63.898	8,876.95	69.3383	8,876.95	63.2904	8,876.95	62.2846	8,876.95	59.9433	8,876.95	60.798	8,876.95	63.6199	8,876.95	48.9819	8,876.95	63.2288	8,876.95	53.5204	8,876.95	62.0164	8,876.95	48.3196	8,876.95	61.8122	8,876.95	51.7543	8,876.95	59.1863
9,188.96	88.6038	9,188.96	88.4888	9,188.96	88.2737	9,188.96	87.2706	9,188.96	87.2685	9,188.96	84.0149	9,188.96	84.6535	9,188.96	82.5785	9,188.96	81.0254	9,188.96	80.0148	9,188.96	79.8605	9,188.96	76.1747	9,188.96	78.7641	9,188.96	71.896	9,188.96	64.4792	9,188.96	70.2213	9,188.96	66.415	9,188.96	68.1942	9,188.96	58.2495	9,188.96	65.3989	9,188.96	64.7409	9,188.96	63.9084	9,188.96	69.3681	9,188.96	61.8062	9,188.96	64.7232	9,188.96	57.4847	9,188.96	59.7362	9,188.96	63.2336	9,188.96	51.3038	9,188.96	63.3876	9,188.96	51.494	9,188.96	62.5069	9,188.96	36.4058	9,188.96	61.8198	9,188.96	50.947	9,188.96	58.3353
9,514.16	87.9942	9,514.16	87.7003	9,514.16	87.5309	9,514.16	86.4697	9,514.16	87.0147	9,514.16	83.4511	9,514.16	83.7151	9,514.16	82.3461	9,514.16	80.6258	9,514.16	78.3995	9,514.16	78.5194	9,514.16	74.8542	9,514.16	78.1431	9,514.16	72.6583	9,514.16	67.7853	9,514.16	69.4028	9,514.16	64.663	9,514.16	66.4268	9,514.16	62.4639	9,514.16	61.9082	9,514.16	63.2193	9,514.16	63.8069	9,514.16	69.4832	9,514.16	59.5049	9,514.16	65.0046	9,514.16	55.3984	9,514.16	60.1885	9,514.16	62.4137	9,514.16	48.824	9,514.16	61.86	9,514.16	50.4357	9,514.16	61.7093	9,514.16	34.12	9,514.16	61.7419	9,514.16	48.4778	9,514.16	57.3201
9,849.61	87.9458	9,849.61	87.6081	9,849.61	86.964	9,849.61	86.4271	9,849.61	86.8875	9,849.61	82.649	9,849.61	84.1287	9,849.61	82.3241	9,849.61	80.9141	9,849.61	78.0581	9,849.61	78.4032	9,849.61	75.3073	9,849.61	76.5329	9,849.61	71.2471	9,849.61	70.1558	9,849.61	68.9448	9,849.61	64.6513	9,849.61	65.5993	9,849.61	62.5399	9,849.61	59.8964	9,849.61	63.0186	9,849.61	62.4558	9,849.61	70.9091	9,849.61	58.3116	9,849.61	64.4689	9,849.61	56.7889	9,849.61	57.7571	9,849.61	61.068	9,849.61	52.6509	9,849.61	62.3675	9,849.61	42.6012	9,849.61	62.5516	9,849.61	49.0677	9,849.61	60.4169	9,849.61	48.3812	9,849.61	56.7004
10,196.8	88.1088	10,196.8	87.6623	10,196.8	86.5939	10,196.8	86.1074	10,196.8	86.5465	10,196.8	82.449	10,196.8	83.7426	10,196.8	82.1904	10,196.8	80.6433	10,196.8	77.5889	10,196.8	78.4949	10,196.8	74.8055	10,196.8	72.6084	10,196.8	70.595	10,196.8	67.953	10,196.8	66.0514	10,196.8	66.2071	10,196.8	63.8753	10,196.8	51.7221	10,196.8	60.0277	10,196.8	64.1528	10,196.8	61.2709	10,196.8	71.4161	10,196.8	56.2022	10,196.8	62.61	10,196.8	57.4171	10,196.8	54.5458	10,196.8	60.7986	10,196.8	49.6282	10,196.8	62.5896	10,196.8	52.9809	10,196.8	61.6942	10,196.8	47.1504	10,196.8	59.3496	10,196.8	46.235	10,196.8	54.7808
10,555.7	87.8499	10,555.7	87.4799	10,555.7	86.729	10,555.7	85.8623	10,555.7	85.9101	10,555.7	82.4287	10,555.7	83.117	10,555.7	81.2554	10,555.7	81.0369	10,555.7	78.0565	10,555.7	76.9652	10,555.7	74.6401	10,555.7	70.5296	10,555.7	69.1773	10,555.7	71.4872	10,555.7	65.7967	10,555.7	62.0851	10,555.7	63.5596	10,555.7	53.557	10,555.7	60.706	10,555.7	63.6373	10,555.7	61.168	10,555.7	72.7131	10,555.7	56.0277	10,555.7	64.1626	10,555.7	57.8465	10,555.7	55.3617	10,555.7	61.431	10,555.7	48.9526	10,555.7	62.2353	10,555.7	51.1836	10,555.7	60.5937	10,555.7	42.3415	10,555.7	57.6553	10,555.7	44.0015	10,555.7	51.3611
10,927.7	87.4877	10,927.7	87.5084	10,927.7	86.4449	10,927.7	85.3674	10,927.7	85.7559	10,927.7	82.4231	10,927.7	82.4412	10,927.7	80.8869	10,927.7	80.3923	10,927.7	78.2365	10,927.7	75.8985	10,927.7	73.5962	10,927.7	72.1481	10,927.7	69.6048	10,927.7	68.8841	10,927.7	65.5306	10,927.7	68.1422	10,927.7	63.9429	10,927.7	54.6524	10,927.7	60.6994	10,927.7	62.5956	10,927.7	59.7453	10,927.7	72.6032	10,927.7	55.4728	10,927.7	65.3404	10,927.7	58.6169	10,927.7	52.4044	10,927.7	61.7846	10,927.7	37.4878	10,927.7	62.3505	10,927.7	46.6358	10,927.7	60.8032	10,927.7	48.4687	10,927.7	55.7763	10,927.7	32.4209	10,927.7	51.8313
11,313	89.1865	11,313	89.2644	11,313	88.2984	11,313	86.8409	11,313	87.5246	11,313	83.7477	11,313	84.8386	11,313	82.6437	11,313	82.1192	11,313	79.7433	11,313	77.5654	11,313	75.7301	11,313	74.188	11,313	71.6385	11,313	72.3372	11,313	67.9193	11,313	69.611	11,313	64.784	11,313	55.8917	11,313	63.3281	11,313	63.8269	11,313	60.5808	11,313	73.2387	11,313	55.804	11,313	64.6714	11,313	60.9641	11,313	49.384	11,313	63.1959	11,313	40.5761	11,313	64.1026	11,313	46.1896	11,313	62.2682	11,313	50.002	11,313	58.4215	11,313	37.3639	11,313	54.0536
11,712.9	90.2902	11,712.9	90.5867	11,712.9	89.6916	11,712.9	88.024	11,712.9	88.4571	11,712.9	84.18	11,712.9	86.2166	11,712.9	83.7233	11,712.9	82.9187	11,712.9	80.9844	11,712.9	79.7088	11,712.9	77.0761	11,712.9	74.8986	11,712.9	73.2223	11,712.9	74.0599	11,712.9	68.2943	11,712.9	65.6424	11,712.9	65.3731	11,712.9	60.8164	11,712.9	63.4529	11,712.9	66.4571	11,712.9	60.1179	11,712.9	75.4688	11,712.9	57.7696	11,712.9	65.2758	11,712.9	63.3623	11,712.9	50.8324	11,712.9	63.7267	11,712.9	47.6722	11,712.9	64.713	11,712.9	38.5938	11,712.9	63.0153	11,712.9	54.2628	11,712.9	54.9359	11,712.9	37.6269	11,712.9	53.3745
12,126	90.2348	12,126	90.3521	12,126	89.8751	12,126	87.9161	12,126	88.0575	12,126	83.7408	12,126	86.8469	12,126	83.2585	12,126	83.6367	12,126	79.9667	12,126	80.2996	12,126	76.3315	12,126	74.788	12,126	72.6187	12,126	73.4716	12,126	68.1564	12,126	67.9164	12,126	63.8782	12,126	61.4262	12,126	62.8678	12,126	66.8293	12,126	57.6948	12,126	75.756	12,126	56.8299	12,126	65.3264	12,126	62.8541	12,126	45.5693	12,126	62.6837	12,126	49.9765	12,126	64.0507	12,126	45.2412	12,126	60.8438	12,126	53.1575	12,126	52.5235	12,126	41.4399	12,126	52.9563
12,553.7	89.4888	12,553.7	88.9743	12,553.7	89.2412	12,553.7	86.6032	12,553.7	87.2998	12,553.7	82.2466	12,553.7	85.9822	12,553.7	81.2814	12,553.7	82.8141	12,553.7	77.553	12,553.7	80.1489	12,553.7	73.9917	12,553.7	77.6951	12,553.7	70.677	12,553.7	71.906	12,553.7	65.581	12,553.7	68.6858	12,553.7	61.1834	12,553.7	62.627	12,553.7	60.8312	12,553.7	66.121	12,553.7	54.6872	12,553.7	75.2509	12,553.7	56.6357	12,553.7	63.4113	12,553.7	60.6199	12,553.7	45.9294	12,553.7	58.8889	12,553.7	50.1228	12,553.7	61.9956	12,553.7	50.8875	12,553.7	60.0949	12,553.7	51.2786	12,553.7	53.0935	12,553.7	47.0926	12,553.7	50.3348
12,996.1	90.0811	12,996.1	89.6453	12,996.1	89.8003	12,996.1	87.6463	12,996.1	87.5451	12,996.1	82.6908	12,996.1	86.0414	12,996.1	82.4593	12,996.1	83.7453	12,996.1	78.6887	12,996.1	78.7361	12,996.1	76.2184	12,996.1	77.1415	12,996.1	71.5379	12,996.1	73.9453	12,996.1	64.1403	12,996.1	66.663	12,996.1	62.102	12,996.1	62.7645	12,996.1	61.0185	12,996.1	65.1542	12,996.1	58.4305	12,996.1	75.3047	12,996.1	58.1379	12,996.1	64.543	12,996.1	60.6451	12,996.1	42.1589	12,996.1	58.3708	12,996.1	46.9219	12,996.1	61.5962	12,996.1	46.1549	12,996.1	60.9154	12,996.1	51.1507	12,996.1	56.9067	12,996.1	44.8076	12,996.1	52.8869
13,454.6	91.242	13,454.6	90.9595	13,454.6	90.8128	13,454.6	89.0137	13,454.6	87.998	13,454.6	83.8981	13,454.6	86.4882	13,454.6	84.0957	13,454.6	84.3377	13,454.6	80.9251	13,454.6	78.8796	13,454.6	77.9456	13,454.6	76.5618	13,454.6	72.2392	13,454.6	71.8592	13,454.6	66.2378	13,454.6	69.1575	13,454.6	65.5159	13,454.6	61.1374	13,454.6	61.2204	13,454.6	64.486	13,454.6	61.9448	13,454.6	75.4514	13,454.6	58.4744	13,454.6	63.3784	13,454.6	62.3114	13,454.6	35.8827	13,454.6	59.3847	13,454.6	45.482	13,454.6	62.6152	13,454.6	35.073	13,454.6	62.9807	13,454.6	51.7596	13,454.6	62.1324	13,454.6	47.7734	13,454.6	53.9724
13,929.2	91.8161	13,929.2	92.0488	13,929.2	91.3307	13,929.2	90.2803	13,929.2	87.7687	13,929.2	84.7233	13,929.2	86.6477	13,929.2	84.9923	13,929.2	84.3044	13,929.2	82.4063	13,929.2	79.5663	13,929.2	78.6294	13,929.2	76.7668	13,929.2	73.8783	13,929.2	71.6295	13,929.2	67.2626	13,929.2	63.6589	13,929.2	67.7786	13,929.2	63.4358	13,929.2	58.8685	13,929.2	65.3134	13,929.2	64.2817	13,929.2	75.1693	13,929.2	59.4746	13,929.2	61.8983	13,929.2	62.7682	13,929.2	47.6759	13,929.2	58.3102	13,929.2	53.587	13,929.2	63.9573	13,929.2	45.4635	13,929.2	66.9356	13,929.2	53.0689	13,929.2	66.2538	13,929.2	55.2698	13,929.2	58.8563
14,419.9	91.8384	14,419.9	92.118	14,419.9	91.6214	14,419.9	90.3379	14,419.9	88.0153	14,419.9	84.352	14,419.9	86.7988	14,419.9	84.0179	14,419.9	84.6301	14,419.9	81.9392	14,419.9	80.6111	14,419.9	77.7985	14,419.9	77.5118	14,419.9	73.979	14,419.9	68.0248	14,419.9	65.3147	14,419.9	67.731	14,419.9	67.8889	14,419.9	61.3528	14,419.9	55.489	14,419.9	64.5376	14,419.9	64.653	14,419.9	74.2755	14,419.9	58.0428	14,419.9	58.616	14,419.9	61.5423	14,419.9	55.908	14,419.9	53.6635	14,419.9	55.5885	14,419.9	63.3558	14,419.9	45.1616	14,419.9	67.4954	14,419.9	51.0524	14,419.9	68.7766	14,419.9	56.796	14,419.9	59.9561
14,928.2	90.8547	14,928.2	90.923	14,928.2	90.9332	14,928.2	88.9351	14,928.2	87.4605	14,928.2	82.6974	14,928.2	86.523	14,928.2	82.3338	14,928.2	84.5997	14,928.2	79.5754	14,928.2	79.4284	14,928.2	76.1038	14,928.2	75.0604	14,928.2	71.2978	14,928.2	72.5051	14,928.2	62.9333	14,928.2	58.7172	14,928.2	67.3248	14,928.2	62.7274	14,928.2	51.4005	14,928.2	62.1108	14,928.2	63.3049	14,928.2	71.9157	14,928.2	50.7325	14,928.2	56.7079	14,928.2	56.877	14,928.2	56.493	14,928.2	44.8419	14,928.2	54.9473	14,928.2	60.6568	14,928.2	41.2901	14,928.2	66.5777	14,928.2	54.1015	14,928.2	68.823	14,928.2	57.3463	14,928.2	59.8923
15,455.6	89.0872	15,455.6	88.8843	15,455.6	89.3302	15,455.6	86.6023	15,455.6	85.571	15,455.6	79.5326	15,455.6	85.1726	15,455.6	80.5532	15,455.6	83.1975	15,455.6	76.8103	15,455.6	78.9977	15,455.6	73.3315	15,455.6	72.3041	15,455.6	70.605	15,455.6	63.3483	15,455.6	63.238	15,455.6	64.5208	15,455.6	65.3749	15,455.6	61.1754	15,455.6	56.8643	15,455.6	59.5914	15,455.6	60.1529	15,455.6	69.5078	15,455.6	41.2923	15,455.6	56.6909	15,455.6	51.5024	15,455.6	55.0528	15,455.6	49.2967	15,455.6	45.4018	15,455.6	57.8333	15,455.6	44.7701	15,455.6	63.8042	15,455.6	56.7037	15,455.6	68.6099	15,455.6	59.4656	15,455.6	59.1878
16,000.5	87.0189	16,000.5	87.7267	16,000.5	87.1905	16,000.5	85.5373	16,000.5	82.6962	16,000.5	76.555	16,000.5	82.6944	16,000.5	79.171	16,000.5	79.9729	16,000.5	75.2593	16,000.5	75.6412	16,000.5	71.6877	16,000.5	70.4094	16,000.5	71.1444	16,000.5	67.6835	16,000.5	60.6115	16,000.5	60.6622	16,000.5	63.4214	16,000.5	54.7249	16,000.5	57.9375	16,000.5	58.4241	16,000.5	58.8962	16,000.5	65.5993	16,000.5	41.2469	16,000.5	59.4455	16,000.5	53.6454	16,000.5	55.8858	16,000.5	56.2439	16,000.5	52.0516	16,000.5	58.7081	16,000.5	43.4042	16,000.5	64.7803	16,000.5	56.7543	16,000.5	70.0305	16,000.5	60.9889	16,000.5	60.8586
16,564.5	88.0987	16,564.5	89.129	16,564.5	88.0528	16,564.5	86.7533	16,564.5	83.1556	16,564.5	75.7538	16,564.5	83.8535	16,564.5	79.4589	16,564.5	80.9912	16,564.5	74.971	16,564.5	75.8021	16,564.5	72.6141	16,564.5	71.702	16,564.5	72.2367	16,564.5	66.7396	16,564.5	62.6919	16,564.5	63.0765	16,564.5	63.2533	16,564.5	57.7186	16,564.5	61.225	16,564.5	57.8213	16,564.5	58.7433	16,564.5	65.4857	16,564.5	49.7356	16,564.5	62.6037	16,564.5	59.2261	16,564.5	58.2969	16,564.5	60.6935	16,564.5	55.3564	16,564.5	62.6432	16,564.5	50.7051	16,564.5	68.7984	16,564.5	59.5122	16,564.5	71.8432	16,564.5	62.8862	16,564.5	63.1362
17,148.9	88.2709	17,148.9	89.6273	17,148.9	88.17	17,148.9	87.2145	17,148.9	83.7021	17,148.9	74.9924	17,148.9	84.422	17,148.9	79.327	17,148.9	82.0329	17,148.9	73.0264	17,148.9	75.5954	17,148.9	72.7365	17,148.9	72.7756	17,148.9	72.4894	17,148.9	69.4533	17,148.9	65.4278	17,148.9	66.0631	17,148.9	62.5916	17,148.9	57.0395	17,148.9	63.0088	17,148.9	60.6471	17,148.9	60.9324	17,148.9	65.8319	17,148.9	57.2663	17,148.9	64.5502	17,148.9	63.5678	17,148.9	60.0907	17,148.9	63.2722	17,148.9	57.0058	17,148.9	65.9447	17,148.9	53.9749	17,148.9	70.1574	17,148.9	61.0104	17,148.9	71.6471	17,148.9	64.2925	17,148.9	64.7624
17,752.4	87.5225	17,752.4	88.7241	17,752.4	87.3386	17,752.4	86.3467	17,752.4	83.4353	17,752.4	73.1987	17,752.4	83.9313	17,752.4	78.1976	17,752.4	81.5727	17,752.4	69.7431	17,752.4	76.6564	17,752.4	71.0944	17,752.4	73.382	17,752.4	72.0614	17,752.4	71.0125	17,752.4	65.2647	17,752.4	63.7994	17,752.4	61.1852	17,752.4	59.0995	17,752.4	62.802	17,752.4	59.8393	17,752.4	62.9918	17,752.4	63.143	17,752.4	58.9534	17,752.4	64.6806	17,752.4	65.0019	17,752.4	60.4349	17,752.4	63.6338	17,752.4	57.3985	17,752.4	66.68	17,752.4	54.3514	17,752.4	69.5454	17,752.4	60.1946	17,752.4	70.2617	17,752.4	64.4309	17,752.4	64.1632
18,379.4	87.9408	18,379.4	88.1728	18,379.4	87.5677	18,379.4	85.6532	18,379.4	85.3986	18,379.4	67.4621	18,379.4	84.7736	18,379.4	75.9229	18,379.4	82.1825	18,379.4	64.6652	18,379.4	77.9285	18,379.4	69.3583	18,379.4	74.0676	18,379.4	70.7534	18,379.4	70.501	18,379.4	66.0994	18,379.4	66.223	18,379.4	62.4392	18,379.4	61.5237	18,379.4	62.6838	18,379.4	62.0168	18,379.4	65.2411	18,379.4	62.399	18,379.4	60.1502	18,379.4	63.99	18,379.4	66.0309	18,379.4	61.7048	18,379.4	64.1827	18,379.4	57.5274	18,379.4	66.8058	18,379.4	54.1841	18,379.4	68.4897	18,379.4	61.2811	18,379.4	70.5991	18,379.4	64.9038	18,379.4	63.2909
19,026.9	88.1266	19,026.9	88.0908	19,026.9	86.9665	19,026.9	85.3458	19,026.9	86.0262	19,026.9	57.345	19,026.9	84.2639	19,026.9	73.6706	19,026.9	81.6059	19,026.9	62.4688	19,026.9	76.9454	19,026.9	67.0379	19,026.9	73.8535	19,026.9	71.7473	19,026.9	69.6572	19,026.9	67.1872	19,026.9	67.5886	19,026.9	64.8975	19,026.9	63.2282	19,026.9	62.1266	19,026.9	63.1224	19,026.9	67.3772	19,026.9	60.3931	19,026.9	61.095	19,026.9	64.0989	19,026.9	67.5358	19,026.9	62.4861	19,026.9	65.374	19,026.9	60.45	19,026.9	67.1493	19,026.9	56.5851	19,026.9	69.1921	19,026.9	63.0808	19,026.9	71.9776	19,026.9	66.1925	19,026.9	63.119
19,697.8	85.0117	19,697.8	84.7543	19,697.8	83.5856	19,697.8	81.2769	19,697.8	83.3689	19,697.8	48.6896	19,697.8	81.8713	19,697.8	66.4533	19,697.8	78.6676	19,697.8	56.2381	19,697.8	73.4539	19,697.8	60.4773	19,697.8	69.6879	19,697.8	67.6531	19,697.8	67.4205	19,697.8	64.068	19,697.8	66.7973	19,697.8	62.9845	19,697.8	61.0996	19,697.8	57.3894	19,697.8	60.099	19,697.8	64.6667	19,697.8	54.4108	19,697.8	57.6014	19,697.8	61.1442	19,697.8	65.1315	19,697.8	59.8822	19,697.8	62.6125	19,697.8	58.9286	19,697.8	62.8022	19,697.8	48.7685	19,697.8	67.455	19,697.8	58.9602	19,697.8	69.3661	19,697.8	63.6583	19,697.8	58.4729
19,999.5	81.6295	19,999.5	80.8003	19,999.5	80.7629	19,999.5	76.6977	19,999.5	81.1115	19,999.5	49.222	19,999.5	79.8729	19,999.5	56.0652	19,999.5	75.8834	19,999.5	44.6578	19,999.5	71.7896	19,999.5	55.9042	19,999.5	67.4051	19,999.5	61.0522	19,999.5	64.74	19,999.5	59.611	19,999.5	60.9179	19,999.5	58.607	19,999.5	58.0289	19,999.5	50.3752	19,999.5	53.431	19,999.5	58.1832	19,999.5	35.3514	19,999.5	51.335	19,999.5	58.2967	19,999.5	59.7841	19,999.5	58.009	19,999.5	60.3017	19,999.5	56.68	19,999.5	56.3306	19,999.5	33.0012	19,999.5	61.5026	19,999.5	52.5289	19,999.5	66.5424	19,999.5	59.6211	19,999.5	50.1795
