"SPL Vertical"
"On-Axis"		"10°"		"-10°"		"20°"		"-20°"		"30°"		"-30°"		"40°"		"-40°"		"50°"		"-50°"		"60°"		"-60°"		"70°"		"-70°"		"80°"		"-80°"		"90°"		"-90°"		"100°"		"-100°"		"110°"		"-110°"		"120°"		"-120°"		"130°"		"-130°"		"140°"		"-140°"		"150°"		"-150°"		"160°"		"-160°"		"170°"		"-170°"		"180°"
"Frequency [Hz]"	"Sound Pessure Level [dB]  / [2.83V 1m] "	"Frequency [Hz]"	"Sound Pessure Level [dB]  / [2.83V 1m] "	"Frequency [Hz]"	"Sound Pessure Level [dB]  / [2.83V 1m] "	"Frequency [Hz]"	"Sound Pessure Level [dB]  / [2.83V 1m] "	"Frequency [Hz]"	"Sound Pessure Level [dB]  / [2.83V 1m] "	"Frequency [Hz]"	"Sound Pessure Level [dB]  / [2.83V 1m] "	"Frequency [Hz]"	"Sound Pessure Level [dB]  / [2.83V 1m] "	"Frequency [Hz]"	"Sound Pessure Level [dB]  / [2.83V 1m] "	"Frequency [Hz]"	"Sound Pessure Level [dB]  / [2.83V 1m] "	"Frequency [Hz]"	"Sound Pessure Level [dB]  / [2.83V 1m] "	"Frequency [Hz]"	"Sound Pessure Level [dB]  / [2.83V 1m] "	"Frequency [Hz]"	"Sound Pessure Level [dB]  / [2.83V 1m] "	"Frequency [Hz]"	"Sound Pessure Level [dB]  / [2.83V 1m] "	"Frequency [Hz]"	"Sound Pessure Level [dB]  / [2.83V 1m] "	"Frequency [Hz]"	"Sound Pessure Level [dB]  / [2.83V 1m] "	"Frequency [Hz]"	"Sound Pessure Level [dB]  / [2.83V 1m] "	"Frequency [Hz]"	"Sound Pessure Level [dB]  / [2.83V 1m] "	"Frequency [Hz]"	"Sound Pessure Level [dB]  / [2.83V 1m] "	"Frequency [Hz]"	"Sound Pessure Level [dB]  / [2.83V 1m] "	"Frequency [Hz]"	"Sound Pessure Level [dB]  / [2.83V 1m] "	"Frequency [Hz]"	"Sound Pessure Level [dB]  / [2.83V 1m] "	"Frequency [Hz]"	"Sound Pessure Level [dB]  / [2.83V 1m] "	"Frequency [Hz]"	"Sound Pessure Level [dB]  / [2.83V 1m] "	"Frequency [Hz]"	"Sound Pessure Level [dB]  / [2.83V 1m] "	"Frequency [Hz]"	"Sound Pessure Level [dB]  / [2.83V 1m] "	"Frequency [Hz]"	"Sound Pessure Level [dB]  / [2.83V 1m] "	"Frequency [Hz]"	"Sound Pessure Level [dB]  / [2.83V 1m] "	"Frequency [Hz]"	"Sound Pessure Level [dB]  / [2.83V 1m] "	"Frequency [Hz]"	"Sound Pessure Level [dB]  / [2.83V 1m] "	"Frequency [Hz]"	"Sound Pessure Level [dB]  / [2.83V 1m] "	"Frequency [Hz]"	"Sound Pessure Level [dB]  / [2.83V 1m] "	"Frequency [Hz]"	"Sound Pessure Level [dB]  / [2.83V 1m] "	"Frequency [Hz]"	"Sound Pessure Level [dB]  / [2.83V 1m] "	"Frequency [Hz]"	"Sound Pessure Level [dB]  / [2.83V 1m] "	"Frequency [Hz]"	"Sound Pessure Level [dB]  / [2.83V 1m] "	"Frequency [Hz]"	"Sound Pessure Level [dB]  / [2.83V 1m] "
20.5078	60.6444	20.5078	60.7609	20.5078	60.5338	20.5078	60.8763	20.5078	60.4369	20.5078	60.9852	20.5078	60.3606	20.5078	61.085	20.5078	60.3101	20.5078	61.1753	20.5078	60.2885	20.5078	61.2579	20.5078	60.2964	20.5078	61.335	20.5078	60.3331	20.5078	61.4089	20.5078	60.3962	20.5078	61.4804	20.5078	60.4825	20.5078	61.5488	20.5078	60.5876	20.5078	61.6113	20.5078	60.7063	20.5078	61.6639	20.5078	60.8334	20.5078	61.7013	20.5078	60.9637	20.5078	61.7184	20.5078	61.0932	20.5078	61.7114	20.5078	61.2186	20.5078	61.6789	20.5078	61.3374	20.5078	61.6216	20.5078	61.4466	20.5078	61.5428
21.9727	51.0306	21.9727	51.2465	21.9727	50.8612	21.9727	51.4968	21.9727	50.7457	21.9727	51.7688	21.9727	50.6848	21.9727	52.0522	21.9727	50.6756	21.9727	52.3412	21.9727	50.7145	21.9727	52.6329	21.9727	50.8011	21.9727	52.9252	21.9727	50.9381	21.9727	53.2156	21.9727	51.1309	21.9727	53.4992	21.9727	51.3842	21.9727	53.7695	21.9727	51.6993	21.9727	54.0184	21.9727	52.0704	21.9727	54.2376	21.9727	52.4827	21.9727	54.4192	21.9727	52.914	21.9727	54.5555	21.9727	53.3375	21.9727	54.6398	21.9727	53.7271	21.9727	54.6653	21.9727	54.0613	21.9727	54.6255	21.9727	54.3257	21.9727	54.5138
23.4375	58.0477	23.4375	58.1386	23.4375	58.0142	23.4375	58.2854	23.4375	58.0367	23.4375	58.4836	23.4375	58.1115	23.4375	58.7257	23.4375	58.2341	23.4375	59.003	23.4375	58.4003	23.4375	59.3062	23.4375	58.6067	23.4375	59.626	23.4375	58.8502	23.4375	59.9539	23.4375	59.1274	23.4375	60.282	23.4375	59.4341	23.4375	60.603	23.4375	59.7643	23.4375	60.9095	23.4375	60.1098	23.4375	61.1939	23.4375	60.46	23.4375	61.4478	23.4375	60.8025	23.4375	61.6616	23.4375	61.1238	23.4375	61.8255	23.4375	61.4096	23.4375	61.9298	23.4375	61.6465	23.4375	61.9666	23.4375	61.8232	23.4375	61.9312
24.9023	49.9962	24.9023	49.49	24.9023	50.3925	24.9023	48.8885	24.9023	50.6736	24.9023	48.225	24.9023	50.8412	24.9023	47.5706	24.9023	50.9043	24.9023	47.0588	24.9023	50.8834	24.9023	46.8847	24.9023	50.8163	24.9023	47.2188	24.9023	50.7639	24.9023	48.0664	24.9023	50.8098	24.9023	49.2567	24.9023	51.0418	24.9023	50.5776	24.9023	51.5124	24.9023	51.8758	24.9023	52.2049	24.9023	53.0654	24.9023	53.0394	24.9023	54.103	24.9023	53.9127	24.9023	54.966	24.9023	54.733	24.9023	55.6414	24.9023	55.4333	24.9023	56.1199	24.9023	55.9702	24.9023	56.3943	24.9023	56.3172	24.9023	56.4603
26.3672	54.7441	26.3672	55.0097	26.3672	54.6196	26.3672	55.3983	26.3672	54.6444	26.3672	55.8864	26.3672	54.8159	26.3672	56.4495	26.3672	55.1229	26.3672	57.0656	26.3672	55.55	26.3672	57.7156	26.3672	56.0805	26.3672	58.3832	26.3672	56.6972	26.3672	59.0541	26.3672	57.3819	26.3672	59.7146	26.3672	58.114	26.3672	60.3514	26.3672	58.8704	26.3672	60.9513	26.3672	59.6263	26.3672	61.5007	26.3672	60.3558	26.3672	61.9856	26.3672	61.0341	26.3672	62.3921	26.3672	61.6381	26.3672	62.7066	26.3672	62.1482	26.3672	62.9166	26.3672	62.5489	26.3672	63.0115	26.3672	62.8293	26.3672	62.9837
27.832	53.4264	27.832	52.9114	27.832	53.878	27.832	52.4138	27.832	54.2239	27.832	52.0634	27.832	54.448	27.832	52.0206	27.832	54.5552	27.832	52.4013	27.832	54.573	27.832	53.1938	27.832	54.5591	27.832	54.2687	27.832	54.6064	27.832	55.4698	27.832	54.8308	27.832	56.6785	27.832	55.3254	27.832	57.8236	27.832	56.103	27.832	58.8668	27.832	57.0845	27.832	59.7871	27.832	58.1478	27.832	60.5716	27.832	59.1823	27.832	61.2105	27.832	60.1111	27.832	61.6943	27.832	60.8881	27.832	62.0137	27.832	61.4885	27.832	62.1598	27.832	61.9015	27.832	62.1244
29.2969	58.4208	29.2969	58.4701	29.2969	58.4256	29.2969	58.595	29.2969	58.4695	29.2969	58.8182	29.2969	58.549	29.2969	59.1562	29.2969	58.6743	29.2969	59.6136	29.2969	58.8693	29.2969	60.1813	29.2969	59.1668	29.2969	60.8383	29.2969	59.5977	29.2969	61.5567	29.2969	60.177	29.2969	62.3064	29.2969	60.8931	29.2969	63.0587	29.2969	61.7089	29.2969	63.7871	29.2969	62.5724	29.2969	64.4681	29.2969	63.4297	29.2969	65.0798	29.2969	64.2338	29.2969	65.6022	29.2969	64.9473	29.2969	66.0168	29.2969	65.5425	29.2969	66.3069	29.2969	66.0001	29.2969	66.4583	29.2969	66.3081	29.2969	66.4607
30.7617	60.4419	30.7617	60.2727	30.7617	60.6722	30.7617	60.2058	30.7617	60.935	30.7617	60.2863	30.7617	61.2184	30.7617	60.5489	30.7617	61.5264	30.7617	61.0038	30.7617	61.8766	30.7617	61.6317	30.7617	62.294	30.7617	62.3905	30.7617	62.8015	30.7617	63.2298	30.7617	63.4096	30.7617	64.1019	30.7617	64.1101	30.7617	64.9678	30.7617	64.8768	30.7617	65.7969	30.7617	65.671	30.7617	66.5658	30.7617	66.4501	30.7617	67.2556	30.7617	67.1737	30.7617	67.8502	30.7617	67.8068	30.7617	68.3348	30.7617	68.3219	30.7617	68.6957	30.7617	68.6992	30.7617	68.9209	30.7617	68.9268	30.7617	69.0001
32.2266	64.6966	32.2266	64.6684	32.2266	64.7518	32.2266	64.6843	32.2266	64.8235	32.2266	64.7653	32.2266	64.9093	32.2266	64.9327	32.2266	65.0153	32.2266	65.203	32.2266	65.1556	32.2266	65.5836	32.2266	65.3508	32.2266	66.0697	32.2266	65.6238	32.2266	66.6442	32.2266	65.9939	32.2266	67.2812	32.2266	66.4693	32.2266	67.95	32.2266	67.0418	32.2266	68.619	32.2266	67.6866	32.2266	69.2579	32.2266	68.367	32.2266	69.8391	32.2266	69.0411	32.2266	70.3373	32.2266	69.6686	32.2266	70.7305	32.2266	70.2144	32.2266	71.0002	32.2266	70.6503	32.2266	71.1322	32.2266	70.9558	32.2266	71.1181
33.6914	67.8976	33.6914	67.849	33.6914	67.9725	33.6914	67.8404	33.6914	68.0643	33.6914	67.888	33.6914	68.1686	33.6914	68.0078	33.6914	68.2868	33.6914	68.2126	33.6914	68.4263	33.6914	68.509	33.6914	68.5996	33.6914	68.8949	33.6914	68.8226	33.6914	69.3589	33.6914	69.111	33.6914	69.8821	33.6914	69.4752	33.6914	70.4406	33.6914	69.9156	33.6914	71.0079	33.6914	70.4194	33.6914	71.5576	33.6914	70.962	33.6914	72.0643	33.6914	71.5106	33.6914	72.5045	33.6914	72.0297	33.6914	72.8571	33.6914	72.4859	33.6914	73.1045	33.6914	72.8511	33.6914	73.2328	33.6914	73.1046	33.6914	73.2335
35.1562	70.5056	35.1562	70.442	35.1562	70.5798	35.1562	70.4037	35.1562	70.6549	35.1562	70.4086	35.1562	70.7269	35.1562	70.4765	35.1562	70.7985	35.1562	70.6255	35.1562	70.88	35.1562	70.8684	35.1562	70.9893	35.1562	71.2087	35.1562	71.1499	35.1562	71.6391	35.1562	71.3862	35.1562	72.1423	35.1562	71.716	35.1562	72.6933	35.1562	72.1432	35.1562	73.2635	35.1562	72.6534	35.1562	73.8237	35.1562	73.2161	35.1562	74.3456	35.1562	73.7911	35.1562	74.8032	35.1562	74.3365	35.1562	75.1734	35.1562	74.8145	35.1562	75.4364	35.1562	75.1947	35.1562	75.5767	35.1562	75.4555	35.1562	75.5842
36.6211	72.1516	36.6211	72.1374	36.6211	72.1949	36.6211	72.1631	36.6211	72.2605	36.6211	72.2423	36.6211	72.347	36.6211	72.3886	36.6211	72.4587	36.6211	72.6126	36.6211	72.6055	36.6211	72.9197	36.6211	72.8013	36.6211	73.3076	36.6211	73.0615	36.6211	73.7659	36.6211	73.398	36.6211	74.2779	36.6211	73.8151	36.6211	74.8223	36.6211	74.3054	36.6211	75.3754	36.6211	74.8497	36.6211	75.9134	36.6211	75.419	36.6211	76.4127	36.6211	75.9799	36.6211	76.8511	36.6211	76.4982	36.6211	77.2082	36.6211	76.9435	36.6211	77.466	36.6211	77.2912	36.6211	77.6102	36.6211	77.5236	36.6211	77.6308
38.0859	75.5968	38.0859	75.6052	38.0859	75.6171	38.0859	75.6472	38.0859	75.6629	38.0859	75.7289	38.0859	75.7334	38.0859	75.8565	38.0859	75.8308	38.0859	76.0354	38.0859	75.9601	38.0859	76.269	38.0859	76.1284	38.0859	76.5578	38.0859	76.344	38.0859	76.8985	38.0859	76.6141	38.0859	77.2833	38.0859	76.9417	38.0859	77.7006	38.0859	77.3237	38.0859	78.1345	38.0859	77.7491	38.0859	78.5669	38.0859	78.1992	38.0859	78.9775	38.0859	78.6494	38.0859	79.3452	38.0859	79.0725	38.0859	79.6497	38.0859	79.4415	38.0859	79.8725	38.0859	79.733	38.0859	79.9989	38.0859	79.9291	38.0859	80.019
39.5508	77.5018	39.5508	77.514	39.5508	77.5182	39.5508	77.5591	39.5508	77.5612	39.5508	77.6427	39.5508	77.6311	39.5508	77.7714	39.5508	77.731	39.5508	77.9511	39.5508	77.8665	39.5508	78.1861	39.5508	78.0443	39.5508	78.4771	39.5508	78.2713	39.5508	78.8207	39.5508	78.5528	39.5508	79.2089	39.5508	78.8896	39.5508	79.629	39.5508	79.277	39.5508	80.065	39.5508	79.7032	39.5508	80.4981	39.5508	80.1499	39.5508	80.908	39.5508	80.594	39.5508	81.2738	39.5508	81.0098	39.5508	81.5758	39.5508	81.3721	39.5508	81.7961	39.5508	81.6583	39.5508	81.9206	39.5508	81.8513	39.5508	81.94
41.0156	80.0639	41.0156	80.0073	41.0156	80.1412	41.0156	79.9765	41.0156	80.2359	41.0156	79.9773	41.0156	80.3465	41.0156	80.0162	41.0156	80.473	41.0156	80.0993	41.0156	80.6172	41.0156	80.2314	41.0156	80.782	41.0156	80.4151	41.0156	80.9711	41.0156	80.6499	41.0156	81.1878	41.0156	80.9317	41.0156	81.434	41.0156	81.2525	41.0156	81.7087	41.0156	81.6006	41.0156	82.0062	41.0156	81.9611	41.0156	82.3156	41.0156	82.317	41.0156	82.6207	41.0156	82.6499	41.0156	82.9017	41.0156	82.9415	41.0156	83.138	41.0156	83.1749	41.0156	83.3106	41.0156	83.3359	41.0156	83.4055	41.0156	83.4144
42.4805	81.3025	42.4805	81.284	42.4805	81.3414	42.4805	81.2898	42.4805	81.3977	42.4805	81.3249	42.4805	81.47	42.4805	81.3941	42.4805	81.5582	42.4805	81.5018	42.4805	81.6641	42.4805	81.6512	42.4805	81.7911	42.4805	81.8435	42.4805	81.9432	42.4805	82.0773	42.4805	82.125	42.4805	82.3482	42.4805	82.3395	42.4805	82.6485	42.4805	82.5869	42.4805	82.9671	42.4805	82.863	42.4805	83.2901	42.4805	83.1586	42.4805	83.6012	42.4805	83.4593	42.4805	83.883	42.4805	83.7474	42.4805	84.1183	42.4805	84.0034	42.4805	84.2919	42.4805	84.2089	42.4805	84.3918	42.4805	84.3484	42.4805	84.411
43.9453	82.777	43.9453	82.7646	43.9453	82.8111	43.9453	82.7771	43.9453	82.8648	43.9453	82.8179	43.9453	82.9369	43.9453	82.8906	43.9453	83.0273	43.9453	82.9987	43.9453	83.1372	43.9453	83.1446	43.9453	83.269	43.9453	83.3294	43.9453	83.4256	43.9453	83.5522	43.9453	83.6099	43.9453	83.8093	43.9453	83.8238	43.9453	84.0944	43.9453	84.0669	43.9453	84.3976	43.9453	84.3349	43.9453	84.7064	43.9453	84.6194	43.9453	85.0058	43.9453	84.9075	43.9453	85.2791	43.9453	85.1827	43.9453	85.5096	43.9453	85.4266	43.9453	85.6819	43.9453	85.6215	43.9453	85.7837	43.9453	85.752	43.9453	85.8076
45.4102	84.0571	45.4102	84.046	45.4102	84.0896	45.4102	84.0584	45.4102	84.1418	45.4102	84.0971	45.4102	84.2129	45.4102	84.165	45.4102	84.3027	45.4102	84.2649	45.4102	84.4121	45.4102	84.3992	45.4102	84.5424	45.4102	84.569	45.4102	84.6956	45.4102	84.7736	45.4102	84.8734	45.4102	85.0102	45.4102	85.0766	45.4102	85.2733	45.4102	85.3043	45.4102	85.5544	45.4102	85.5529	45.4102	85.8422	45.4102	85.8149	45.4102	86.1228	45.4102	86.0791	45.4102	86.3808	45.4102	86.3309	45.4102	86.6001	45.4102	86.5536	45.4102	86.7661	45.4102	86.7306	45.4102	86.8667	45.4102	86.8476	45.4102	86.8944
46.875	85.1604	46.875	85.1517	46.875	85.1919	46.875	85.1676	46.875	85.2448	46.875	85.2099	46.875	85.3183	46.875	85.2807	46.875	85.4119	46.875	85.3817	46.875	85.5257	46.875	85.5143	46.875	85.6601	46.875	85.6786	46.875	85.8159	46.875	85.8739	46.875	85.9936	46.875	86.0972	46.875	86.1929	46.875	86.3438	46.875	86.4123	46.875	86.6062	46.875	86.6481	46.875	86.8745	46.875	86.8934	46.875	87.1365	46.875	87.1382	46.875	87.3783	46.875	87.3695	46.875	87.5853	46.875	87.5725	46.875	87.7437	46.875	87.7321	46.875	87.8422	46.875	87.8355	46.875	87.8734
48.3398	86.1503	48.3398	86.1423	48.3398	86.1808	48.3398	86.1581	48.3398	86.2328	48.3398	86.1986	48.3398	86.3057	48.3398	86.2652	48.3398	86.3988	48.3398	86.359	48.3398	86.5115	48.3398	86.4808	48.3398	86.6437	48.3398	86.6308	48.3398	86.795	48.3398	86.8081	48.3398	86.965	48.3398	87.0107	48.3398	87.1527	48.3398	87.2344	48.3398	87.3563	48.3398	87.4731	48.3398	87.5721	48.3398	87.7184	48.3398	87.7942	48.3398	87.9592	48.3398	88.0139	48.3398	88.1831	48.3398	88.22	48.3398	88.3764	48.3398	88.3997	48.3398	88.5263	48.3398	88.5395	48.3398	88.622	48.3398	88.6279	48.3398	88.6565
51.2695	87.7955	51.2695	87.7856	51.2695	87.8273	51.2695	87.798	51.2695	87.8802	51.2695	87.8333	51.2695	87.9537	51.2695	87.8919	51.2695	88.0467	51.2695	87.9741	51.2695	88.1581	51.2695	88.08	51.2695	88.2869	51.2695	88.2095	51.2695	88.4313	51.2695	88.3616	51.2695	88.5897	51.2695	88.5347	51.2695	88.76	51.2695	88.7257	51.2695	88.9396	51.2695	88.93	51.2695	89.1251	51.2695	89.1411	51.2695	89.3116	51.2695	89.3502	51.2695	89.4925	51.2695	89.5467	51.2695	89.6594	51.2695	89.7192	51.2695	89.8023	51.2695	89.8562	51.2695	89.9107	51.2695	89.948	51.2695	89.9749	51.2695	89.9883
52.7344	88.4423	52.7344	88.4345	52.7344	88.4722	52.7344	88.449	52.7344	88.5239	52.7344	88.4856	52.7344	88.5967	52.7344	88.5444	52.7344	88.6896	52.7344	88.6249	52.7344	88.8012	52.7344	88.727	52.7344	88.9297	52.7344	88.8501	52.7344	89.073	52.7344	88.9932	52.7344	89.2286	52.7344	89.1548	52.7344	89.3938	52.7344	89.3322	52.7344	89.5657	52.7344	89.5215	52.7344	89.7406	52.7344	89.717	52.7344	89.914	52.7344	89.911	52.7344	90.0801	52.7344	90.0942	52.7344	90.2315	52.7344	90.256	52.7344	90.3595	52.7344	90.3859	52.7344	90.4549	52.7344	90.4748	52.7344	90.5093	52.7344	90.5166
54.1992	89.0768	54.1992	89.0707	54.1992	89.1051	54.1992	89.0868	54.1992	89.1557	54.1992	89.1243	54.1992	89.228	54.1992	89.1826	54.1992	89.3208	54.1992	89.261	54.1992	89.4322	54.1992	89.3585	54.1992	89.56	54.1992	89.4743	54.1992	89.7013	54.1992	89.6074	54.1992	89.8529	54.1992	89.7562	54.1992	90.0117	54.1992	89.9187	54.1992	90.1741	54.1992	90.0915	54.1992	90.3366	54.1992	90.2698	54.1992	90.495	54.1992	90.4471	54.1992	90.6442	54.1992	90.6153	54.1992	90.7781	54.1992	90.7649	54.1992	90.8895	54.1992	90.8865	54.1992	90.9704	54.1992	90.9717	54.1992	91.0139	54.1992	91.0149
55.6641	89.6486	55.6641	89.6419	55.6641	89.677	55.6641	89.6564	55.6641	89.7272	55.6641	89.6913	55.6641	89.7986	55.6641	89.7454	55.6641	89.8897	55.6641	89.8176	55.6641	89.9986	55.6641	89.9069	55.6641	90.1225	55.6641	90.0123	55.6641	90.2581	55.6641	90.1327	55.6641	90.4019	55.6641	90.267	55.6641	90.5503	55.6641	90.4134	55.6641	90.6998	55.6641	90.5692	55.6641	90.8468	55.6641	90.7303	55.6641	90.9877	55.6641	90.8913	55.6641	91.1183	55.6641	91.0449	55.6641	91.2337	55.6641	91.1828	55.6641	91.3278	55.6641	91.2962	55.6641	91.3942	55.6641	91.3778	55.6641	91.4271	55.6641	91.4221
58.5938	90.5929	58.5938	90.5831	58.5938	90.6243	58.5938	90.5938	58.5938	90.6772	58.5938	90.6239	58.5938	90.7513	58.5938	90.6718	58.5938	90.8449	58.5938	90.7361	58.5938	90.9556	58.5938	90.8151	58.5938	91.08	58.5938	90.9076	58.5938	91.2141	58.5938	91.0123	58.5938	91.3537	58.5938	91.1281	58.5938	91.4941	58.5938	91.2535	58.5938	91.6312	58.5938	91.3867	58.5938	91.761	58.5938	91.5249	58.5938	91.8801	58.5938	91.6642	58.5938	91.9851	58.5938	91.7993	58.5938	92.0722	58.5938	91.9236	58.5938	92.1376	58.5938	92.0303	58.5938	92.1773	58.5938	92.1128	58.5938	92.1875	58.5938	92.166
60.0586	91.0023	60.0586	90.9908	60.0586	91.0349	60.0586	90.9993	60.0586	91.0888	60.0586	91.0264	60.0586	91.1635	60.0586	91.0703	60.0586	91.2572	60.0586	91.1292	60.0586	91.3674	60.0586	91.2013	60.0586	91.4903	60.0586	91.2852	60.0586	91.6215	60.0586	91.3796	60.0586	91.7562	60.0586	91.4833	60.0586	91.8897	60.0586	91.5952	60.0586	92.0173	60.0586	91.7139	60.0586	92.1351	60.0586	91.8373	60.0586	92.2398	60.0586	91.9623	60.0586	92.3284	60.0586	92.0849	60.0586	92.3981	60.0586	92.1995	60.0586	92.4464	60.0586	92.3003	60.0586	92.4706	60.0586	92.3815	60.0586	92.4683	60.0586	92.4383
62.9883	91.598	62.9883	91.5842	62.9883	91.6316	62.9883	91.5892	62.9883	91.6854	62.9883	91.6112	62.9883	91.7585	62.9883	91.6483	62.9883	91.8492	62.9883	91.6982	62.9883	91.9545	62.9883	91.759	62.9883	92.0705	62.9883	91.8288	62.9883	92.1926	62.9883	91.9062	62.9883	92.3156	62.9883	91.9901	62.9883	92.4345	62.9883	92.0798	62.9883	92.5446	62.9883	92.1746	62.9883	92.6418	62.9883	92.2734	62.9883	92.7232	62.9883	92.3746	62.9883	92.7866	62.9883	92.4757	62.9883	92.8306	62.9883	92.573	62.9883	92.8543	62.9883	92.6621	62.9883	92.8568	62.9883	92.7384	62.9883	92.838	62.9883	92.798
64.4531	91.8361	64.4531	91.8211	64.4531	91.8704	64.4531	91.8241	64.4531	91.9242	64.4531	91.8435	64.4531	91.9968	64.4531	91.877	64.4531	92.0864	64.4531	91.9225	64.4531	92.1901	64.4531	91.9778	64.4531	92.3036	64.4531	92.041	64.4531	92.4222	64.4531	92.1107	64.4531	92.5406	64.4531	92.1858	64.4531	92.6535	64.4531	92.2655	64.4531	92.7559	64.4531	92.3495	64.4531	92.8438	64.4531	92.4372	64.4531	92.9143	64.4531	92.5275	64.4531	92.9656	64.4531	92.6185	64.4531	92.9968	64.4531	92.7076	64.4531	93.008	64.4531	92.7912	64.4531	92.9995	64.4531	92.8654	64.4531	92.972	64.4531	92.9266
67.3828	92.1309	67.3828	92.1125	67.3828	92.1684	67.3828	92.1122	67.3828	92.2254	67.3828	92.128	67.3828	92.3011	67.3828	92.1577	67.3828	92.3936	67.3828	92.1988	67.3828	92.4997	67.3828	92.249	67.3828	92.6151	67.3828	92.3061	67.3828	92.7346	67.3828	92.3684	67.3828	92.8524	67.3828	92.4346	67.3828	92.9626	67.3828	92.5041	67.3828	93.0599	67.3828	92.5768	67.3828	93.1398	67.3828	92.6525	67.3828	93.1992	67.3828	92.7314	67.3828	93.2364	67.3828	92.8126	67.3828	93.2514	67.3828	92.8948	67.3828	93.2451	67.3828	92.9755	67.3828	93.2195	67.3828	93.0517	67.3828	93.1769	67.3828	93.12
68.8477	92.2627	68.8477	92.2445	68.8477	92.3005	68.8477	92.2447	68.8477	92.358	68.8477	92.2611	68.8477	92.4345	68.8477	92.2914	68.8477	92.5278	68.8477	92.3329	68.8477	92.6346	68.8477	92.3828	68.8477	92.7503	68.8477	92.4386	68.8477	92.8695	68.8477	92.4984	68.8477	92.9864	68.8477	92.5608	68.8477	93.0948	68.8477	92.6253	68.8477	93.1893	68.8477	92.6917	68.8477	93.2653	68.8477	92.7606	68.8477	93.3196	68.8477	92.8323	68.8477	93.3508	68.8477	92.907	68.8477	93.3591	68.8477	92.9838	68.8477	93.3459	68.8477	93.0611	68.8477	93.3139	68.8477	93.1361	68.8477	93.266	68.8477	93.2055
71.7773	92.5014	71.7773	92.4841	71.7773	92.5363	71.7773	92.4833	71.7773	92.5892	71.7773	92.4967	71.7773	92.6592	71.7773	92.5219	71.7773	92.7443	71.7773	92.5559	71.7773	92.8412	71.7773	92.5959	71.7773	92.9456	71.7773	92.6393	71.7773	93.0521	71.7773	92.684	71.7773	93.1548	71.7773	92.7288	71.7773	93.2479	71.7773	92.7733	71.7773	93.3257	71.7773	92.8179	71.7773	93.3837	71.7773	92.8638	71.7773	93.419	71.7773	92.9126	71.7773	93.4305	71.7773	92.9656	71.7773	93.4195	71.7773	93.0236	71.7773	93.3886	71.7773	93.0864	71.7773	93.3419	71.7773	93.1526	71.7773	93.2841	71.7773	93.2196
74.707	92.6002	74.707	92.584	74.707	92.6338	74.707	92.5836	74.707	92.685	74.707	92.5968	74.707	92.753	74.707	92.6206	74.707	92.8358	74.707	92.6519	74.707	92.9299	74.707	92.6873	74.707	93.0308	74.707	92.7241	74.707	93.1331	74.707	92.7597	74.707	93.2304	74.707	92.793	74.707	93.3164	74.707	92.8233	74.707	93.3852	74.707	92.8516	74.707	93.432	74.707	92.8797	74.707	93.4538	74.707	92.9102	74.707	93.4499	74.707	92.9458	74.707	93.4221	74.707	92.9891	74.707	93.3745	74.707	93.0414	74.707	93.3126	74.707	93.1027	74.707	93.2427	74.707	93.171
77.6367	92.6558	77.6367	92.6362	77.6367	92.6921	77.6367	92.6319	77.6367	92.7454	77.6367	92.6405	77.6367	92.8147	77.6367	92.6594	77.6367	92.8982	77.6367	92.6851	77.6367	92.9924	77.6367	92.7144	77.6367	93.0928	77.6367	92.7443	77.6367	93.194	77.6367	92.7724	77.6367	93.2895	77.6367	92.797	77.6367	93.3727	77.6367	92.8181	77.6367	93.4374	77.6367	92.8365	77.6367	93.4782	77.6367	92.8547	77.6367	93.492	77.6367	92.876	77.6367	93.4778	77.6367	92.9041	77.6367	93.4376	77.6367	92.9426	77.6367	93.3761	77.6367	92.9939	77.6367	93.3	77.6367	93.0584	77.6367	93.2168	77.6367	93.1342
79.1016	92.6848	79.1016	92.6646	79.1016	92.7212	79.1016	92.6591	79.1016	92.774	79.1016	92.666	79.1016	92.8426	79.1016	92.6824	79.1016	92.9249	79.1016	92.7049	79.1016	93.0176	79.1016	92.7302	79.1016	93.1164	79.1016	92.7553	79.1016	93.2156	79.1016	92.7779	79.1016	93.3087	79.1016	92.7964	79.1016	93.3892	79.1016	92.8109	79.1016	93.4505	79.1016	92.8225	79.1016	93.4873	79.1016	92.8338	79.1016	93.496	79.1016	92.8488	79.1016	93.4759	79.1016	92.8717	79.1016	93.429	79.1016	92.9065	79.1016	93.3604	79.1016	92.9561	79.1016	93.2771	79.1016	93.0212	79.1016	93.1875	79.1016	93.0999
82.0312	92.7286	82.0312	92.707	82.0312	92.7656	82.0312	92.6993	82.0312	92.8183	82.0312	92.7031	82.0312	92.8859	82.0312	92.7152	82.0312	92.9666	82.0312	92.7322	82.0312	93.057	82.0312	92.7506	82.0312	93.1525	82.0312	92.7672	82.0312	93.2477	82.0312	92.7796	82.0312	93.3359	82.0312	92.7865	82.0312	93.4102	82.0312	92.788	82.0312	93.4639	82.0312	92.7856	82.0312	93.4915	82.0312	92.7826	82.0312	93.4892	82.0312	92.7838	82.0312	93.4563	82.0312	92.7946	82.0312	93.3951	82.0312	92.8203	82.0312	93.3114	82.0312	92.865	82.0312	93.2134	82.0312	92.9301	82.0312	93.111	82.0312	93.0139
84.9609	92.7744	84.9609	92.7524	84.9609	92.8099	84.9609	92.7425	84.9609	92.8592	84.9609	92.7425	84.9609	92.9217	84.9609	92.7496	84.9609	92.9957	84.9609	92.7603	84.9609	93.0784	84.9609	92.7711	84.9609	93.1655	84.9609	92.7787	84.9609	93.2519	84.9609	92.7807	84.9609	93.3311	84.9609	92.7756	84.9609	93.3962	84.9609	92.7634	84.9609	93.4404	84.9609	92.7461	84.9609	93.4576	84.9609	92.7274	84.9609	93.4441	84.9609	92.7129	84.9609	93.3991	84.9609	92.7091	84.9609	93.3252	84.9609	92.7227	84.9609	93.2288	84.9609	92.7589	84.9609	93.1193	84.9609	92.8202	84.9609	93.0077	84.9609	92.9049
87.8906	92.7563	87.8906	92.7392	87.8906	92.7871	87.8906	92.734	87.8906	92.8326	87.8906	92.7382	87.8906	92.8925	87.8906	92.7487	87.8906	92.9658	87.8906	92.7619	87.8906	93.0498	87.8906	92.7743	87.8906	93.1405	87.8906	92.7826	87.8906	93.2324	87.8906	92.7842	87.8906	93.3185	87.8906	92.7777	87.8906	93.3911	87.8906	92.7633	87.8906	93.4424	87.8906	92.743	87.8906	93.4656	87.8906	92.7209	87.8906	93.456	87.8906	92.7028	87.8906	93.4122	87.8906	92.696	87.8906	93.3369	87.8906	92.7077	87.8906	93.2367	87.8906	92.7438	87.8906	93.1217	87.8906	92.8069	87.8906	93.004	87.8906	92.8957
90.8203	92.6895	90.8203	92.6719	90.8203	92.7219	90.8203	92.6672	90.8203	92.7696	90.8203	92.6729	90.8203	92.8323	90.8203	92.6858	90.8203	92.9084	90.8203	92.7023	90.8203	92.9952	90.8203	92.7185	90.8203	93.0883	90.8203	92.7308	90.8203	93.1821	90.8203	92.7364	90.8203	93.2698	90.8203	92.7335	90.8203	93.3435	90.8203	92.7219	90.8203	93.3956	90.8203	92.7035	90.8203	93.4193	90.8203	92.6821	90.8203	93.4099	90.8203	92.6638	90.8203	93.3661	90.8203	92.6558	90.8203	93.2906	90.8203	92.6659	90.8203	93.1901	90.8203	92.7002	90.8203	93.0749	90.8203	92.7618	90.8203	92.9573	90.8203	92.8496
95.2148	92.7436	95.2148	92.7247	95.2148	92.7755	95.2148	92.7172	95.2148	92.821	95.2148	92.7185	95.2148	92.8801	95.2148	92.7256	95.2148	92.9512	95.2148	92.7348	95.2148	93.0319	95.2148	92.7425	95.2148	93.1182	95.2148	92.7451	95.2148	93.2047	95.2148	92.7396	95.2148	93.2846	95.2148	92.7244	95.2148	93.3501	95.2148	92.6993	95.2148	93.3934	95.2148	92.6664	95.2148	93.4073	95.2148	92.6301	95.2148	93.3869	95.2148	92.5973	95.2148	93.3308	95.2148	92.5763	95.2148	93.2418	95.2148	92.576	95.2148	93.1273	95.2148	92.6037	95.2148	92.9988	95.2148	92.6636	95.2148	92.87	95.2148	92.7545
98.1445	92.7967	98.1445	92.7788	98.1445	92.8257	98.1445	92.7706	98.1445	92.8664	98.1445	92.7697	98.1445	92.9189	98.1445	92.7732	98.1445	92.9819	98.1445	92.7776	98.1445	93.0535	98.1445	92.7794	98.1445	93.1301	98.1445	92.7749	98.1445	93.2071	98.1445	92.7615	98.1445	93.2782	98.1445	92.7375	98.1445	93.3362	98.1445	92.7032	98.1445	93.3733	98.1445	92.6609	98.1445	93.3823	98.1445	92.6155	98.1445	93.3583	98.1445	92.5743	98.1445	93.2994	98.1445	92.5462	98.1445	93.2081	98.1445	92.5405	98.1445	93.0915	98.1445	92.5648	98.1445	92.961	98.1445	92.623	98.1445	92.8305	98.1445	92.7139
101.074	92.7394	101.074	92.7251	101.074	92.7643	101.074	92.72	101.074	92.8002	101.074	92.7219	101.074	92.8466	101.074	92.7274	101.074	92.9023	101.074	92.7328	101.074	92.9652	101.074	92.7338	101.074	93.0322	101.074	92.7266	101.074	93.0993	101.074	92.708	101.074	93.1608	101.074	92.6763	101.074	93.2101	101.074	92.6319	101.074	93.24	101.074	92.5776	101.074	93.2435	101.074	92.519	101.074	93.2155	101.074	92.4644	101.074	93.1538	101.074	92.4237	101.074	93.0605	101.074	92.4072	101.074	92.9425	101.074	92.4233	101.074	92.811	101.074	92.4763	101.074	92.6801	101.074	92.5644
105.469	92.8228	105.469	92.8033	105.469	92.8465	105.469	92.7875	105.469	92.8745	105.469	92.7745	105.469	92.9068	105.469	92.7627	105.469	92.9431	105.469	92.75	105.469	92.9826	105.469	92.7336	105.469	93.0238	105.469	92.7109	105.469	93.0639	105.469	92.6797	105.469	93.0988	105.469	92.6386	105.469	93.1231	105.469	92.5879	105.469	93.1305	105.469	92.5299	105.469	93.1154	105.469	92.4692	105.469	93.0737	105.469	92.4127	105.469	93.0041	105.469	92.3688	105.469	92.9095	105.469	92.3462	105.469	92.7969	105.469	92.3523	105.469	92.6766	105.469	92.3913	105.469	92.5611	105.469	92.4627
108.398	92.7206	108.398	92.7043	108.398	92.7467	108.398	92.6968	108.398	92.7829	108.398	92.6962	108.398	92.8287	108.398	92.6999	108.398	92.8828	108.398	92.7045	108.398	92.9429	108.398	92.7063	108.398	93.0055	108.398	92.7012	108.398	93.0662	108.398	92.6858	108.398	93.1187	108.398	92.6577	108.398	93.1561	108.398	92.6161	108.398	93.1712	108.398	92.5628	108.398	93.1576	108.398	92.5023	108.398	93.1116	108.398	92.4417	108.398	93.0331	108.398	92.3903	108.398	92.9269	108.398	92.3583	108.398	92.8024	108.398	92.3547	108.398	92.6725	108.398	92.3857	108.398	92.5515	108.398	92.4527
112.793	92.6837	112.793	92.6498	112.793	92.7285	112.793	92.6274	112.793	92.7828	112.793	92.6156	112.793	92.8443	112.793	92.612	112.793	92.9106	112.793	92.6127	112.793	92.9793	112.793	92.6127	112.793	93.0473	112.793	92.607	112.793	93.1105	112.793	92.5908	112.793	93.1637	112.793	92.5611	112.793	93.2002	112.793	92.517	112.793	93.2128	112.793	92.4601	112.793	93.1947	112.793	92.3957	112.793	93.1414	112.793	92.3318	112.793	93.0522	112.793	92.2789	112.793	92.9314	112.793	92.2486	112.793	92.7887	112.793	92.2513	112.793	92.638	112.793	92.2937	112.793	92.4956	112.793	92.3769
117.188	92.7644	117.188	92.7383	117.188	92.7965	117.188	92.7187	117.188	92.8337	117.188	92.7053	117.188	92.8754	117.188	92.6968	117.188	92.921	117.188	92.6906	117.188	92.9697	117.188	92.683	117.188	93.0202	117.188	92.6697	117.188	93.0699	117.188	92.6466	117.188	93.1144	117.188	92.6108	117.188	93.1472	117.188	92.5611	117.188	93.1607	117.188	92.4994	117.188	93.1473	117.188	92.4304	117.188	93.1013	117.188	92.362	117.188	93.0207	117.188	92.3046	117.188	92.9087	117.188	92.2695	117.188	92.7743	117.188	92.2673	117.188	92.631	117.188	92.3045	117.188	92.4952	117.188	92.3824
120.117	92.6574	120.117	92.6356	120.117	92.6853	120.117	92.62	120.117	92.7191	120.117	92.6103	120.117	92.7586	120.117	92.6053	120.117	92.8038	120.117	92.6029	120.117	92.8546	120.117	92.5999	120.117	92.91	120.117	92.5927	120.117	92.9679	120.117	92.578	120.117	93.0237	120.117	92.553	120.117	93.0711	120.117	92.5171	120.117	93.102	120.117	92.4718	120.117	93.1085	120.117	92.4215	120.117	93.084	120.117	92.3734	120.117	93.0257	120.117	92.3362	120.117	92.9355	120.117	92.3198	120.117	92.8207	120.117	92.3324	120.117	92.6935	120.117	92.3791	120.117	92.5684	120.117	92.4598
124.512	92.7419	124.512	92.6901	124.512	92.7959	124.512	92.6427	124.512	92.8499	124.512	92.6014	124.512	92.9022	124.512	92.5667	124.512	92.952	124.512	92.5376	124.512	92.999	124.512	92.512	124.512	93.0431	124.512	92.487	124.512	93.0832	124.512	92.4596	124.512	93.1169	124.512	92.4275	124.512	93.1397	124.512	92.3899	124.512	93.1456	124.512	92.348	124.512	93.1284	124.512	92.3055	124.512	93.083	124.512	92.2683	124.512	93.0074	124.512	92.2437	124.512	92.904	124.512	92.2396	124.512	92.78	124.512	92.2629	124.512	92.6467	124.512	92.3178	124.512	92.5172	124.512	92.4043
128.906	92.9507	128.906	92.9117	128.906	92.9861	128.906	92.8698	128.906	93.017	128.906	92.8254	128.906	93.043	128.906	92.7778	128.906	93.0645	128.906	92.7253	128.906	93.0819	128.906	92.6654	128.906	93.0955	128.906	92.5953	128.906	93.1044	128.906	92.5132	128.906	93.1058	128.906	92.4189	128.906	93.0948	128.906	92.3149	128.906	93.0651	128.906	92.2063	128.906	93.0104	128.906	92.101	128.906	92.9261	128.906	92.0088	128.906	92.8109	128.906	91.9405	128.906	92.6688	128.906	91.906	128.906	92.5086	128.906	91.9126	128.906	92.3435	128.906	91.9637	128.906	92.1884	128.906	92.058
133.301	92.7839	133.301	92.7451	133.301	92.8204	133.301	92.7051	133.301	92.8539	133.301	92.6646	133.301	92.8845	133.301	92.6237	133.301	92.9131	133.301	92.581	133.301	92.9409	133.301	92.5339	133.301	92.9685	133.301	92.4792	133.301	92.9948	133.301	92.4138	133.301	93.0163	133.301	92.3359	133.301	93.0267	133.301	92.2461	133.301	93.0179	133.301	92.1479	133.301	92.981	133.301	92.0483	133.301	92.9093	133.301	91.9572	133.301	92.8002	133.301	91.8864	133.301	92.6569	133.301	91.8481	133.301	92.4893	133.301	91.8522	133.301	92.3127	133.301	91.9045	133.301	92.1453	133.301	92.0047
139.16	92.5524	139.16	92.4969	139.16	92.6062	139.16	92.4418	139.16	92.6571	139.16	92.3892	139.16	92.7044	139.16	92.3406	139.16	92.7481	139.16	92.2967	139.16	92.7889	139.16	92.2567	139.16	92.8271	139.16	92.2183	139.16	92.8619	139.16	92.1787	139.16	92.8909	139.16	92.1346	139.16	92.9091	139.16	92.0841	139.16	92.9095	139.16	92.0274	139.16	92.8843	139.16	91.9677	139.16	92.8268	139.16	91.9113	139.16	92.7338	139.16	91.8675	139.16	92.6078	139.16	91.8471	139.16	92.4571	139.16	91.8603	139.16	92.2958	139.16	91.914	139.16	92.1411	139.16	92.0096
143.555	92.5834	143.555	92.4899	143.555	92.6691	143.555	92.3939	143.555	92.743	143.555	92.3008	143.555	92.8024	143.555	92.2154	143.555	92.8465	143.555	92.1414	143.555	92.8766	143.555	92.0807	143.555	92.8948	143.555	92.0332	143.555	92.9037	143.555	91.9966	143.555	92.9044	143.555	91.9676	143.555	92.8958	143.555	91.9423	143.555	92.8745	143.555	91.9178	143.555	92.8349	143.555	91.8933	143.555	92.7714	143.555	91.8709	143.555	92.6809	143.555	91.8559	143.555	92.5641	143.555	91.8562	143.555	92.4276	143.555	91.8805	143.555	92.2827	143.555	91.9359	143.555	92.1439	143.555	92.025
147.949	92.8894	147.949	92.8039	147.949	92.9581	147.949	92.7041	147.949	93.0084	147.949	92.5927	147.949	93.0397	147.949	92.4725	147.949	93.0528	147.949	92.3466	147.949	93.0495	147.949	92.2183	147.949	93.0326	147.949	92.0915	147.949	93.0044	147.949	91.9704	147.949	92.9664	147.949	91.8594	147.949	92.9183	147.949	91.7631	147.949	92.8576	147.949	91.6851	147.949	92.7806	147.949	91.6282	147.949	92.6833	147.949	91.5941	147.949	92.564	147.949	91.5842	147.949	92.4241	147.949	91.6004	147.949	92.2695	147.949	91.645	147.949	92.1104	147.949	91.7201	147.949	91.9587	147.949	91.8259
153.809	92.8564	153.809	92.7832	153.809	92.9118	153.809	92.6934	153.809	92.9483	153.809	92.5872	153.809	92.9646	153.809	92.4639	153.809	92.9606	153.809	92.3229	153.809	92.9367	153.809	92.164	153.809	92.8945	153.809	91.9891	153.809	92.8356	153.809	91.8028	153.809	92.7614	153.809	91.6133	153.809	92.6722	153.809	91.4318	153.809	92.5677	153.809	91.2713	153.809	92.4476	153.809	91.1444	153.809	92.3122	153.809	91.0614	153.809	92.1631	153.809	91.028	153.809	92.0033	153.809	91.0453	153.809	91.8365	153.809	91.1095	153.809	91.6674	153.809	91.2133	153.809	91.5019	153.809	91.3475
159.668	92.7398	159.668	92.6918	159.668	92.774	159.668	92.6295	159.668	92.795	159.668	92.5516	159.668	92.8042	159.668	92.4557	159.668	92.8041	159.668	92.3382	159.668	92.7976	159.668	92.1953	159.668	92.7871	159.668	92.0247	159.668	92.7733	159.668	91.8276	159.668	92.7532	159.668	91.6104	159.668	92.7205	159.668	91.3858	159.668	92.666	159.668	91.1725	159.668	92.5803	159.668	90.9921	159.668	92.4561	159.668	90.865	159.668	92.2916	159.668	90.8046	159.668	92.0915	159.668	90.8149	159.668	91.8669	159.668	90.8909	159.668	91.6328	159.668	91.0223	159.668	91.405	159.668	91.1974
165.527	92.645	165.527	92.5749	165.527	92.7025	165.527	92.4964	165.527	92.7442	165.527	92.413	165.527	92.7681	165.527	92.3268	165.527	92.7746	165.527	92.2372	165.527	92.7658	165.527	92.1414	165.527	92.7452	165.527	92.0349	165.527	92.7166	165.527	91.9135	165.527	92.6819	165.527	91.7751	165.527	92.6404	165.527	91.6225	165.527	92.5882	165.527	91.464	165.527	92.519	165.527	91.3143	165.527	92.4259	165.527	91.1917	165.527	92.3038	165.527	91.1142	165.527	92.1515	165.527	91.0953	165.527	91.973	165.527	91.1398	165.527	91.7778	165.527	91.2438	165.527	91.5797	165.527	91.3958
171.387	92.5731	171.387	92.4746	171.387	92.6512	171.387	92.3609	171.387	92.7047	171.387	92.2372	171.387	92.7317	171.387	92.1083	171.387	92.7327	171.387	91.9771	171.387	92.7114	171.387	91.8448	171.387	92.6728	171.387	91.7108	171.387	92.622	171.387	91.5737	171.387	92.5619	171.387	91.4327	171.387	92.4917	171.387	91.2898	171.387	92.4071	171.387	91.1503	171.387	92.302	171.387	91.0237	171.387	92.1718	171.387	90.9223	171.387	92.015	171.387	90.8585	171.387	91.8353	171.387	90.8422	171.387	91.6413	171.387	90.8779	171.387	91.4444	171.387	90.9638	171.387	91.2577	171.387	91.0936
177.246	92.4949	177.246	92.3825	177.246	92.5911	177.246	92.2621	177.246	92.6651	177.246	92.1417	177.246	92.7148	177.246	92.0274	177.246	92.7418	177.246	91.9215	177.246	92.7509	177.246	91.823	177.246	92.7475	177.246	91.7274	177.246	92.7352	177.246	91.6293	177.246	92.714	177.246	91.5244	177.246	92.6798	177.246	91.412	177.246	92.6251	177.246	91.2964	177.246	92.5418	177.246	91.187	177.246	92.4236	177.246	91.0967	177.246	92.2686	177.246	91.0387	177.246	92.0813	177.246	91.0239	177.246	91.8726	177.246	91.0589	177.246	91.6579	177.246	91.1452	177.246	91.4549	177.246	91.2798
183.105	92.545	183.105	92.4136	183.105	92.6441	183.105	92.2562	183.105	92.7081	183.105	92.0823	183.105	92.7373	183.105	91.9035	183.105	92.7347	183.105	91.7319	183.105	92.7059	183.105	91.5781	183.105	92.6576	183.105	91.4492	183.105	92.5965	183.105	91.3475	183.105	92.5281	183.105	91.2708	183.105	92.4547	183.105	91.2139	183.105	92.3754	183.105	91.1716	183.105	92.2864	183.105	91.1409	183.105	92.1834	183.105	91.1227	183.105	92.064	183.105	91.1212	183.105	91.929	183.105	91.1419	183.105	91.7835	183.105	91.1894	183.105	91.6356	183.105	91.2655	183.105	91.4944	183.105	91.3687
188.965	92.5788	188.965	92.4857	188.965	92.6381	188.965	92.3631	188.965	92.661	188.965	92.2152	188.965	92.647	188.965	92.0455	188.965	92.5994	188.965	91.857	188.965	92.5248	188.965	91.6527	188.965	92.432	188.965	91.4372	188.965	92.3295	188.965	91.2182	188.965	92.2236	188.965	91.0059	188.965	92.116	188.965	90.8134	188.965	92.0047	188.965	90.6537	188.965	91.8854	188.965	90.5379	188.965	91.7541	188.965	90.4727	188.965	91.6091	188.965	90.4594	188.965	91.4522	188.965	90.4942	188.965	91.2878	188.965	90.5701	188.965	91.122	188.965	90.6785	188.965	90.961	188.965	90.8111
196.289	92.4593	196.289	92.4093	196.289	92.4797	196.289	92.3331	196.289	92.4688	196.289	92.2342	196.289	92.4278	196.289	92.1151	196.289	92.3611	196.289	91.9764	196.289	92.2771	196.289	91.8172	196.289	92.1861	196.289	91.6365	196.289	92.0988	196.289	91.4356	196.289	92.022	196.289	91.2198	196.289	91.956	196.289	91.0005	196.289	91.8933	196.289	90.7941	196.289	91.8207	196.289	90.6197	196.289	91.7245	196.289	90.4942	196.289	91.596	196.289	90.4281	196.289	91.4354	196.289	90.4234	196.289	91.2519	196.289	90.4749	196.289	91.06	196.289	90.5735	196.289	90.8751	196.289	90.7098
203.613	92.3878	203.613	92.277	203.613	92.464	203.613	92.1391	203.613	92.4995	203.613	91.9816	203.613	92.491	203.613	91.8105	203.613	92.4387	203.613	91.6296	203.613	92.3473	203.613	91.4403	203.613	92.2255	203.613	91.2435	203.613	92.086	203.613	91.0418	203.613	91.9427	203.613	90.8419	203.613	91.8083	203.613	90.6555	203.613	91.6906	203.613	90.4982	203.613	91.5901	203.613	90.3859	203.613	91.5002	203.613	90.3301	203.613	91.4101	203.613	90.334	203.613	91.3096	203.613	90.392	203.613	91.1927	203.613	90.4924	203.613	91.0595	203.613	90.6212	203.613	90.9146	203.613	90.7655
210.938	92.323	210.938	92.2174	210.938	92.3912	210.938	92.0818	210.938	92.416	210.938	91.9237	210.938	92.3935	210.938	91.7497	210.938	92.3231	210.938	91.5644	210.938	92.2085	210.938	91.3702	210.938	92.0581	210.938	91.1678	210.938	91.8842	210.938	90.9584	210.938	91.7018	210.938	90.7468	210.938	91.5266	210.938	90.5433	210.938	91.3717	210.938	90.3643	210.938	91.2455	210.938	90.2293	210.938	91.148	210.938	90.1551	210.938	91.0707	210.938	90.1486	210.938	90.9993	210.938	90.2045	210.938	90.9194	210.938	90.3068	210.938	90.8219	210.938	90.4357	210.938	90.7049	210.938	90.5731
218.262	92.1089	218.262	92.0201	218.262	92.1591	218.262	91.9022	218.262	92.1645	218.262	91.7644	218.262	92.1239	218.262	91.6131	218.262	92.0427	218.262	91.4502	218.262	91.9309	218.262	91.2739	218.262	91.8006	218.262	91.0809	218.262	91.662	218.262	90.8704	218.262	91.5208	218.262	90.6476	218.262	91.3778	218.262	90.4266	218.262	91.2311	218.262	90.2293	218.262	91.0814	218.262	90.0809	218.262	90.935	218.262	90.0008	218.262	90.8026	218.262	89.9947	218.262	90.6933	218.262	90.0519	218.262	90.6072	218.262	90.1498	218.262	90.5341	218.262	90.2623	218.262	90.4586	218.262	90.3687
225.586	92.0017	225.586	91.916	225.586	92.0436	225.586	91.7932	225.586	92.0384	225.586	91.6426	225.586	91.9872	225.586	91.4742	225.586	91.895	225.586	91.2963	225.586	91.7707	225.586	91.1133	225.586	91.6261	225.586	90.9261	225.586	91.4738	225.586	90.7334	225.586	91.3238	225.586	90.5363	225.586	91.1809	225.586	90.3419	225.586	91.0453	225.586	90.1658	225.586	90.9155	225.586	90.0296	225.586	90.7923	225.586	89.9545	225.586	90.6813	225.586	89.9508	225.586	90.5894	225.586	90.0115	225.586	90.5189	225.586	90.1132	225.586	90.4621	225.586	90.2262	225.586	90.403	225.586	90.3262
232.91	92.0277	232.91	91.9037	232.91	92.1029	232.91	91.7407	232.91	92.1223	232.91	91.5507	232.91	92.0839	232.91	91.3467	232.91	91.9909	232.91	91.1425	232.91	91.8526	232.91	90.9507	232.91	91.6829	232.91	90.7806	232.91	91.4986	232.91	90.6363	232.91	91.3159	232.91	90.516	232.91	91.1481	232.91	90.4148	232.91	91.0037	232.91	90.329	232.91	90.8855	232.91	90.2601	232.91	90.7914	232.91	90.2149	232.91	90.7155	232.91	90.2015	232.91	90.6508	232.91	90.2225	232.91	90.5914	232.91	90.2719	232.91	90.5329	232.91	90.3373	232.91	90.472	232.91	90.4064
241.699	91.9054	241.699	91.7429	241.699	92.0184	241.699	91.5413	241.699	92.0756	241.699	91.314	241.699	92.0748	241.699	91.0754	241.699	92.0175	241.699	90.8388	241.699	91.9086	241.699	90.6149	241.699	91.7568	241.699	90.4119	241.699	91.5744	241.699	90.2365	241.699	91.3762	241.699	90.0946	241.699	91.1753	241.699	89.9923	241.699	90.98	241.699	89.9336	241.699	90.7927	241.699	89.9184	241.699	90.6136	241.699	89.9406	241.699	90.4476	241.699	89.988	241.699	90.3074	241.699	90.0443	241.699	90.2075	241.699	90.093	241.699	90.1539	241.699	90.123	241.699	90.1366	241.699	90.1336
250.488	92.2589	250.488	92.04	250.488	92.4287	250.488	91.7832	250.488	92.5384	250.488	91.4977	250.488	92.5786	250.488	91.1905	250.488	92.5436	250.488	90.8665	250.488	92.4323	250.488	90.5296	250.488	92.2491	250.488	90.1856	250.488	92.0027	250.488	89.8456	250.488	91.7066	250.488	89.5285	250.488	91.3808	250.488	89.2607	250.488	91.0529	250.488	89.0713	250.488	90.7551	250.488	88.9824	250.488	90.5127	250.488	88.998	250.488	90.3325	250.488	89.1001	250.488	90.2003	250.488	89.2556	250.488	90.0918	250.488	89.4294	250.488	89.9868	250.488	89.5962	250.488	89.8733	250.488	89.7445
259.277	92.2455	259.277	92.0467	259.277	92.3874	259.277	91.8039	259.277	92.463	259.277	91.5299	259.277	92.4696	259.277	91.2349	259.277	92.4124	259.277	90.9253	259.277	92.3015	259.277	90.6063	259.277	92.148	259.277	90.2847	259.277	91.9573	259.277	89.9728	259.277	91.7272	259.277	89.6889	259.277	91.45	259.277	89.4554	259.277	91.1208	259.277	89.2931	259.277	90.7488	259.277	89.2153	259.277	90.3672	259.277	89.2219	259.277	90.0307	259.277	89.2972	259.277	89.7944	259.277	89.4128	259.277	89.6803	259.277	89.5341	259.277	89.6609	259.277	89.629	259.277	89.6779	259.277	89.6769
268.066	92.1281	268.066	91.9665	268.066	92.1938	268.066	91.7076	268.066	92.1743	268.066	91.359	268.066	92.088	268.066	90.9356	268.066	91.9566	268.066	90.4577	268.066	91.802	268.066	89.9509	268.066	91.6417	268.066	89.447	268.066	91.4868	268.066	88.9841	268.066	91.3385	268.066	88.6026	268.066	91.1866	268.066	88.3342	268.066	91.0129	268.066	88.1902	268.066	90.7985	268.066	88.1583	268.066	90.5321	268.066	88.2099	268.066	90.2165	268.066	88.3124	268.066	89.8718	268.066	88.4377	268.066	89.5325	268.066	88.5666	268.066	89.2357	268.066	88.6937	268.066	89.0033	268.066	88.8308
276.855	91.8453	276.855	91.6348	276.855	92.0139	276.855	91.4009	276.855	92.1216	276.855	91.1555	276.855	92.1535	276.855	90.8993	276.855	92.1036	276.855	90.6194	276.855	91.9763	276.855	90.2932	276.855	91.7872	276.855	89.8987	276.855	91.5592	276.855	89.4313	276.855	91.3175	276.855	88.9212	276.855	91.0823	276.855	88.4424	276.855	90.8639	276.855	88.0966	276.855	90.6617	276.855	87.964	276.855	90.4697	276.855	88.0524	276.855	90.2845	276.855	88.2993	276.855	90.1096	276.855	88.6193	276.855	89.9506	276.855	88.9439	276.855	89.804	276.855	89.2322	276.855	89.6513	276.855	89.467
287.109	91.8756	287.109	91.6817	287.109	91.9782	287.109	91.4069	287.109	91.9897	287.109	91.0731	287.109	91.9194	287.109	90.7092	287.109	91.7815	287.109	90.3432	287.109	91.5932	287.109	89.9909	287.109	91.3733	287.109	89.65	287.109	91.1398	287.109	89.3033	287.109	90.9081	287.109	88.9363	287.109	90.6878	287.109	88.5604	287.109	90.4844	287.109	88.2301	287.109	90.3024	287.109	88.0354	287.109	90.147	287.109	88.0506	287.109	90.0219	287.109	88.2735	287.109	89.9247	287.109	88.6205	287.109	89.8456	287.109	88.9855	287.109	89.7679	287.109	89.294	287.109	89.6684	287.109	89.5189
297.363	92.0215	297.363	91.8262	297.363	92.1685	297.363	91.5932	297.363	92.2535	297.363	91.3242	297.363	92.2672	297.363	91.0133	297.363	92.21	297.363	90.6533	297.363	92.0917	297.363	90.2455	297.363	91.9259	297.363	89.8067	297.363	91.7225	297.363	89.3681	297.363	91.4822	297.363	88.9633	297.363	91.2005	297.363	88.6134	297.363	90.8811	297.363	88.3274	297.363	90.5528	297.363	88.1213	297.363	90.2729	297.363	88.0342	297.363	90.0978	297.363	88.1116	297.363	90.034	297.363	88.3633	297.363	90.0209	297.363	88.7409	297.363	89.9697	297.363	89.1599	297.363	89.815	297.363	89.5372
307.617	91.9154	307.617	91.7501	307.617	92.0249	307.617	91.5546	307.617	92.0618	307.617	91.3546	307.617	92.02	307.617	91.1627	307.617	91.9025	307.617	90.9685	307.617	91.7212	307.617	90.741	307.617	91.498	307.617	90.4437	307.617	91.2621	307.617	90.0557	307.617	91.0404	307.617	89.5914	307.617	90.8401	307.617	89.1108	307.617	90.6388	307.617	88.7074	307.617	90.3937	307.617	88.4674	307.617	90.0751	307.617	88.4225	307.617	89.7057	307.617	88.5379	307.617	89.374	307.617	88.7424	307.617	89.1823	307.617	88.9614	307.617	89.1521	307.617	89.1321	307.617	89.1988	307.617	89.2121
319.336	91.9743	319.336	91.7988	319.336	92.0588	319.336	91.547	319.336	92.047	319.336	91.2402	319.336	91.9441	319.336	90.9012	319.336	91.7638	319.336	90.5491	319.336	91.5241	319.336	90.1948	319.336	91.2408	319.336	89.842	319.336	90.9232	319.336	89.4926	319.336	90.5752	319.336	89.157	319.336	90.2077	319.336	88.8614	319.336	89.8523	319.336	88.6468	319.336	89.5608	319.336	88.5525	319.336	89.3751	319.336	88.5897	319.336	89.2921	319.336	88.7262	319.336	89.2671	319.336	88.8998	319.336	89.2551	319.336	89.0513	319.336	89.2394	319.336	89.1504	319.336	89.2225	319.336	89.1998
329.59	91.5872	329.59	91.4097	329.59	91.7041	329.59	91.1918	329.59	91.746	329.59	90.9542	329.59	91.7076	329.59	90.7101	329.59	91.5939	329.59	90.4574	329.59	91.4196	329.59	90.1755	329.59	91.2045	329.59	89.832	329.59	90.966	329.59	89.3996	329.59	90.7119	329.59	88.8812	329.59	90.44	329.59	88.3364	329.59	90.1461	329.59	87.8904	329.59	89.838	329.59	87.6827	329.59	89.5452	329.59	87.762	329.59	89.3129	329.59	88.0436	329.59	89.1767	329.59	88.391	329.59	89.1341	329.59	88.7039	329.59	89.1415	329.59	88.937	329.59	89.1391	329.59	89.0796
341.309	92.002	341.309	91.803	341.309	92.0888	341.309	91.4974	341.309	92.0692	341.309	91.1035	341.309	91.9579	341.309	90.6531	341.309	91.7755	341.309	90.1877	341.309	91.544	341.309	89.7465	341.309	91.2825	341.309	89.3468	341.309	91.0023	341.309	88.9732	341.309	90.7028	341.309	88.5895	341.309	90.374	341.309	88.1753	341.309	90.0106	341.309	87.7633	341.309	89.6318	341.309	87.4512	341.309	89.2927	341.309	87.3598	341.309	89.0682	341.309	87.5463	341.309	89.0053	341.309	87.9515	341.309	89.0795	341.309	88.4384	341.309	89.1985	341.309	88.869	341.309	89.2502	341.309	89.1504
353.027	91.8673	353.027	91.6762	353.027	91.9421	353.027	91.3781	353.027	91.9	353.027	90.9913	353.027	91.7475	353.027	90.5421	353.027	91.4985	353.027	90.0628	353.027	91.1768	353.027	89.5846	353.027	90.8192	353.027	89.1255	353.027	90.4679	353.027	88.6797	353.027	90.1482	353.027	88.2238	353.027	89.8466	353.027	87.7457	353.027	89.5189	353.027	87.2848	353.027	89.1312	353.027	86.9502	353.027	88.7069	353.027	86.8704	353.027	88.3397	353.027	87.0799	353.027	88.1356	353.027	87.4695	353.027	88.12	353.027	87.8729	353.027	88.2153	353.027	88.169	353.027	88.3086	353.027	88.3106
366.211	92.1959	366.211	91.9676	366.211	92.3218	366.211	91.6658	366.211	92.3256	366.211	91.3204	366.211	92.1929	366.211	90.9443	366.211	91.9094	366.211	90.5208	366.211	91.4671	366.211	90.0149	366.211	90.8825	366.211	89.4046	366.211	90.218	366.211	88.7172	366.211	89.5894	366.211	88.0433	366.211	89.1259	366.211	87.5065	366.211	88.8781	366.211	87.1907	366.211	88.7655	366.211	87.0927	366.211	88.6524	366.211	87.1532	366.211	88.4692	366.211	87.312	366.211	88.2588	366.211	87.5237	366.211	88.1155	366.211	87.7454	366.211	88.0754	366.211	87.9318	366.211	88.0799	366.211	88.0459
379.395	92.227	379.395	91.9769	379.395	92.3949	379.395	91.6664	379.395	92.4661	379.395	91.3261	379.395	92.4292	379.395	90.9879	379.395	92.2752	379.395	90.6654	379.395	92.0007	379.395	90.3382	379.395	91.6076	379.395	89.955	379.395	91.1017	379.395	89.4602	379.395	90.4944	379.395	88.8311	379.395	89.8121	379.395	88.112	379.395	89.1114	379.395	87.4344	379.395	88.4833	379.395	86.9935	379.395	88.0347	379.395	86.9373	379.395	87.8461	379.395	87.2411	379.395	87.9303	379.395	87.7345	379.395	88.2104	379.395	88.2353	379.395	88.5411	379.395	88.6174	379.395	88.7719	379.395	88.8063
392.578	92.2329	392.578	91.9424	392.578	92.404	392.578	91.5494	392.578	92.4455	392.578	91.0794	392.578	92.3581	392.578	90.5692	392.578	92.1561	392.578	90.0677	392.578	91.866	392.578	89.6227	392.578	91.5158	392.578	89.2549	392.578	91.1205	392.578	88.9384	392.578	90.6778	392.578	88.6143	392.578	90.183	392.578	88.2341	392.578	89.6524	392.578	87.8077	392.578	89.1295	392.578	87.4288	392.578	88.6588	392.578	87.237	392.578	88.2629	392.578	87.3092	392.578	87.9686	392.578	87.5848	392.578	87.8361	392.578	87.9127	392.578	87.8992	392.578	88.1446	392.578	88.0732	392.578	88.1944
405.762	92.5157	405.762	92.3632	405.762	92.5422	405.762	92.1042	405.762	92.4241	405.762	91.7488	405.762	92.1613	405.762	91.2986	405.762	91.7863	405.762	90.7551	405.762	91.3658	405.762	90.1333	405.762	90.9785	405.762	89.4713	405.762	90.6726	405.762	88.8242	405.762	90.4295	405.762	88.2411	405.762	90.1755	405.762	87.7534	405.762	89.8436	405.762	87.3987	405.762	89.4379	405.762	87.2473	405.762	89.0452	405.762	87.3658	405.762	88.7669	405.762	87.7318	405.762	88.6381	405.762	88.2116	405.762	88.6343	405.762	88.6376	405.762	88.7237	405.762	88.8936	405.762	88.8592	405.762	88.9498
420.41	92.5441	420.41	92.3324	420.41	92.6196	420.41	92.0299	420.41	92.5437	420.41	91.6934	420.41	92.3352	420.41	91.3643	420.41	92.0353	420.41	91.0486	420.41	91.6883	420.41	90.7143	420.41	91.3291	420.41	90.3094	420.41	90.9815	420.41	89.79	420.41	90.6547	420.41	89.1508	420.41	90.33	420.41	88.4488	420.41	89.9609	420.41	87.8131	420.41	89.5143	420.41	87.4137	420.41	89.0369	420.41	87.3715	420.41	88.68	420.41	87.6646	420.41	88.5966	420.41	88.144	420.41	88.7738	420.41	88.6362	420.41	89.0381	420.41	89.0158	420.41	89.2159	420.41	89.2161
435.059	92.3964	435.059	92.2561	435.059	92.411	435.059	91.9811	435.059	92.3254	435.059	91.5834	435.059	92.1644	435.059	91.0902	435.059	91.9384	435.059	90.5384	435.059	91.6533	435.059	89.9701	435.059	91.3327	435.059	89.4249	435.059	91.0118	435.059	88.9273	435.059	90.6966	435.059	88.4791	435.059	90.3411	435.059	88.0784	435.059	89.8889	435.059	87.7568	435.059	89.3531	435.059	87.5947	435.059	88.8695	435.059	87.6736	435.059	88.635	435.059	87.9855	435.059	88.7172	435.059	88.4141	435.059	88.9749	435.059	88.8233	435.059	89.2164	435.059	89.1302	435.059	89.3349	435.059	89.3044
451.172	92.7538	451.172	92.4339	451.172	92.9732	451.172	92.0578	451.172	93.048	451.172	91.6611	451.172	92.9402	451.172	91.2498	451.172	92.6268	451.172	90.7845	451.172	92.1118	451.172	90.1893	451.172	91.4336	451.172	89.385	451.172	90.6693	451.172	88.3316	451.172	89.936	451.172	87.0789	451.172	89.3634	451.172	85.8478	451.172	88.9898	451.172	85.0889	451.172	88.6584	451.172	85.1973	451.172	88.1079	451.172	86.009	451.172	87.2442	451.172	87.0531	451.172	86.4745	451.172	88.03	451.172	86.6204	451.172	88.8027	451.172	87.6566	451.172	89.2568	451.172	88.7043	451.172	89.2589
465.82	92.4126	465.82	92.121	465.82	92.5314	465.82	91.6889	465.82	92.4711	465.82	91.1712	465.82	92.2524	465.82	90.6379	465.82	91.9203	465.82	90.1466	465.82	91.531	465.82	89.7021	465.82	91.1303	465.82	89.2375	465.82	90.7316	465.82	88.6421	465.82	90.3106	465.82	87.821	465.82	89.8345	465.82	86.7679	465.82	89.3152	465.82	85.6849	465.82	88.8379	465.82	85.075	465.82	88.4972	465.82	85.3676	465.82	88.2853	465.82	86.3129	465.82	88.1231	465.82	87.3551	465.82	88.0282	465.82	88.1583	465.82	88.1246	465.82	88.5918	465.82	88.4044	465.82	88.6392
483.398	92.2157	483.398	92.0866	483.398	92.1972	483.398	91.8252	483.398	92.0415	483.398	91.4645	483.398	91.7773	483.398	91.0407	483.398	91.4411	483.398	90.5844	483.398	91.0735	483.398	90.1113	483.398	90.7202	483.398	89.6064	483.398	90.4147	483.398	89.007	483.398	90.1479	483.398	88.2072	483.398	89.863	483.398	87.1037	483.398	89.4984	483.398	85.7266	483.398	89.0507	483.398	84.5276	483.398	88.6126	483.398	84.4118	483.398	88.3458	483.398	85.505	483.398	88.3731	483.398	86.9321	483.398	88.6611	483.398	88.1148	483.398	89.0339	483.398	88.898	483.398	89.2893	483.398	89.2747
499.512	92.5758	499.512	92.3044	499.512	92.702	499.512	91.9143	499.512	92.6729	499.512	91.4528	499.512	92.4867	499.512	90.9725	499.512	92.1568	499.512	90.5091	499.512	91.7257	499.512	90.0726	499.512	91.2581	499.512	89.6451	499.512	90.8029	499.512	89.1638	499.512	90.351	499.512	88.5119	499.512	89.8279	499.512	87.556	499.512	89.1396	499.512	86.2449	499.512	88.2631	499.512	84.8184	499.512	87.3792	499.512	84.0823	499.512	86.9424	499.512	84.7544	499.512	87.2853	499.512	86.2363	499.512	88.0961	499.512	87.6507	499.512	88.8379	499.512	88.651	499.512	89.2258	499.512	89.1727
517.09	92.4994	517.09	92.2229	517.09	92.5375	517.09	91.7519	517.09	92.3545	517.09	91.1945	517.09	92.0128	517.09	90.6974	517.09	91.5984	517.09	90.3732	517.09	91.2036	517.09	90.2221	517.09	90.9165	517.09	90.1284	517.09	90.7828	517.09	89.9325	517.09	90.7449	517.09	89.4957	517.09	90.6376	517.09	88.7243	517.09	90.2575	517.09	87.6104	517.09	89.4448	517.09	86.3857	517.09	88.1925	517.09	85.72	517.09	86.8892	517.09	86.2228	517.09	86.4823	517.09	87.4961	517.09	87.374	517.09	88.7786	517.09	88.6814	517.09	89.658	517.09	89.631	517.09	89.9651
536.133	93.2215	536.133	92.7382	536.133	93.3609	536.133	91.946	536.133	93.1624	536.133	90.9486	536.133	92.6491	536.133	89.9264	536.133	91.8562	536.133	89.0952	536.133	90.846	536.133	88.6114	536.133	89.7583	536.133	88.4755	536.133	88.8787	536.133	88.5073	536.133	88.5588	536.133	88.4286	536.133	88.8411	536.133	87.9962	536.133	89.3051	536.133	87.0999	536.133	89.4429	536.133	85.8891	536.133	88.9544	536.133	85.0454	536.133	87.8962	536.133	85.4653	536.133	86.9949	536.133	86.8282	536.133	87.2671	536.133	88.1772	536.133	88.3131	536.133	89.0693	536.133	89.1424	536.133	89.4016
555.176	93.6289	555.176	93.3234	555.176	93.6776	555.176	92.763	555.176	93.5051	555.176	91.9923	555.176	93.1481	555.176	91.0886	555.176	92.603	555.176	90.1505	555.176	91.8436	555.176	89.2807	555.176	90.8919	555.176	88.5429	555.176	89.8453	555.176	87.9069	555.176	88.8193	555.176	87.2425	555.176	87.8933	555.176	86.377	555.176	87.1548	555.176	85.1969	555.176	86.7084	555.176	83.87	555.176	86.476	555.176	83.1712	555.176	86.1682	555.176	83.8791	555.176	85.7451	555.176	85.4407	555.176	85.7991	555.176	86.9385	555.176	86.7155	555.176	87.9345	555.176	87.7673	555.176	88.236
574.219	93.2008	574.219	92.7504	574.219	93.4399	574.219	92.124	574.219	93.4531	574.219	91.4182	574.219	93.2119	574.219	90.7611	574.219	92.7009	574.219	90.2098	574.219	91.9778	574.219	89.6976	574.219	91.193	574.219	89.136	574.219	90.5204	574.219	88.5338	574.219	90.0376	574.219	87.9511	574.219	89.6625	574.219	87.3253	574.219	89.1888	574.219	86.3997	574.219	88.3639	574.219	84.8551	574.219	86.9777	574.219	82.6628	574.219	85.0766	574.219	81.1671	574.219	83.4875	574.219	82.4277	574.219	83.5428	574.219	84.6289	574.219	84.7871	574.219	86.0625	574.219	85.9599	574.219	86.4707
594.727	92.9493	594.727	92.5697	594.727	93.0599	594.727	91.9069	594.727	92.9103	594.727	90.9879	594.727	92.4925	594.727	89.9399	594.727	91.8071	594.727	89.0041	594.727	90.8951	594.727	88.3952	594.727	89.8779	594.727	88.0838	594.727	89.0205	594.727	87.8628	594.727	88.6609	594.727	87.5932	594.727	88.8562	594.727	87.2398	594.727	89.257	594.727	86.7459	594.727	89.4067	594.727	85.9896	594.727	88.9169	594.727	84.9397	594.727	87.4958	594.727	83.9928	594.727	85.2315	594.727	84.0044	594.727	83.7437	594.727	85.0106	594.727	84.6874	594.727	86.0461	594.727	86.0061	594.727	86.4643
615.234	93.2194	615.234	92.9367	615.234	93.224	615.234	92.3591	615.234	93.0007	615.234	91.519	615.234	92.596	615.234	90.4956	615.234	92.022	615.234	89.4135	615.234	91.2675	615.234	88.4392	615.234	90.3509	615.234	87.7333	615.234	89.368	615.234	87.3872	615.234	88.4792	615.234	87.3828	615.234	87.8652	615.234	87.5403	615.234	87.719	615.234	87.542	615.234	88.0932	615.234	87.097	615.234	88.6264	615.234	86.1505	615.234	88.7569	615.234	85.0852	615.234	88.1306	615.234	84.6425	615.234	86.7952	615.234	84.9935	615.234	85.4714	615.234	85.4454	615.234	85.1504	615.234	85.4497
637.207	92.8155	637.207	92.4145	637.207	92.9811	637.207	91.7833	637.207	92.9287	637.207	90.9554	637.207	92.6746	637.207	89.9909	637.207	92.2044	637.207	88.981	637.207	91.482	637.207	88.0732	637.207	90.5148	637.207	87.4539	637.207	89.4196	637.207	87.1634	637.207	88.3942	637.207	86.9905	637.207	87.5742	637.207	86.6784	637.207	86.9382	637.207	86.0814	637.207	86.4166	637.207	85.1951	637.207	86.103	637.207	84.2278	637.207	86.1463	637.207	83.6644	637.207	86.3698	637.207	83.9706	637.207	86.4736	637.207	84.9436	637.207	86.4766	637.207	85.9112	637.207	86.5228	637.207	86.4361
659.18	91.5036	659.18	91.4441	659.18	91.4471	659.18	91.1741	659.18	91.3073	659.18	90.6518	659.18	90.9753	659.18	89.9076	659.18	90.3371	659.18	89.0143	659.18	89.4885	659.18	88.0653	659.18	88.7499	659.18	87.1969	659.18	88.3626	659.18	86.6357	659.18	88.1937	659.18	86.5474	659.18	87.9277	659.18	86.7212	659.18	87.4735	659.18	86.6754	659.18	87.0285	659.18	86.1135	659.18	86.6295	659.18	85.1432	659.18	85.9937	659.18	84.1938	659.18	85.2682	659.18	83.7835	659.18	85.2369	659.18	84.1401	659.18	85.771	659.18	84.9317	659.18	85.9943	659.18	85.6565
682.617	92.0911	682.617	91.7606	682.617	92.1701	682.617	91.2294	682.617	91.9195	682.617	90.4899	682.617	91.3236	682.617	89.511	682.617	90.4616	682.617	88.3005	682.617	89.3781	682.617	87.0003	682.617	88.0362	682.617	85.9646	682.617	86.8991	682.617	85.5721	682.617	87.1815	682.617	85.8275	682.617	88.4	682.617	86.3742	682.617	88.9799	682.617	86.8256	682.617	88.4092	682.617	86.966	682.617	87.1951	682.617	86.8283	682.617	86.7314	682.617	86.6857	682.617	87.2458	682.617	86.8342	682.617	87.6408	682.617	87.2657	682.617	87.7797	682.617	87.7207	682.617	87.9309	682.617	87.9661
707.52	94.2782	707.52	93.5811	707.52	94.7602	707.52	92.7479	707.52	94.924	707.52	91.8882	707.52	94.6553	707.52	91.151	707.52	93.8857	707.52	90.5813	707.52	92.6212	707.52	90.0015	707.52	90.927	707.52	89.1829	707.52	89.0134	707.52	88.1553	707.52	87.6093	707.52	87.2808	707.52	87.6233	707.52	86.8603	707.52	88.3101	707.52	86.7568	707.52	88.2253	707.52	86.7099	707.52	86.7995	707.52	86.7017	707.52	85.0588	707.52	86.9499	707.52	85.5728	707.52	87.66	707.52	87.1308	707.52	88.6579	707.52	88.2243	707.52	89.4334	707.52	89.0628	707.52	89.5763
732.422	94.6236	732.422	94.2267	732.422	94.8445	732.422	93.7206	732.422	94.8012	732.422	93.1255	732.422	94.4063	732.422	92.4182	732.422	93.588	732.422	91.6101	732.422	92.3361	732.422	90.8119	732.422	90.7918	732.422	90.0196	732.422	89.2601	732.422	89.1305	732.422	88.0305	732.422	88.3707	732.422	87.4226	732.422	88.0969	732.422	87.9506	732.422	88.1123	732.422	89.0948	732.422	87.949	732.422	89.4514	732.422	87.6214	732.422	88.1915	732.422	87.5471	732.422	85.7925	732.422	87.9241	732.422	86.0168	732.422	88.5885	732.422	88.3116	732.422	89.2939	732.422	89.577	732.422	89.7516
757.324	94.6265	757.324	94.2279	757.324	94.8046	757.324	93.6719	757.324	94.7994	757.324	93.057	757.324	94.6328	757.324	92.3552	757.324	94.1979	757.324	91.4125	757.324	93.3346	757.324	90.181	757.324	91.9402	757.324	88.7989	757.324	90.0194	757.324	87.3501	757.324	88.1097	757.324	86.0294	757.324	87.5623	757.324	85.8169	757.324	88.1529	757.324	86.7583	757.324	88.3687	757.324	87.2943	757.324	87.9753	757.324	86.9462	757.324	87.6923	757.324	86.44	757.324	87.9341	757.324	86.9808	757.324	88.5334	757.324	88.3465	757.324	89.3	757.324	89.4404	757.324	89.8652	757.324	89.9343
785.156	93.8435	785.156	93.453	785.156	94.047	785.156	92.9213	785.156	94.0324	785.156	92.4308	785.156	93.5912	785.156	92.0292	785.156	92.6372	785.156	91.4606	785.156	91.5493	785.156	90.5291	785.156	90.5862	785.156	89.4586	785.156	89.2509	785.156	88.5325	785.156	87.2887	785.156	87.4478	785.156	85.7286	785.156	85.8231	785.156	85.9607	785.156	84.5786	785.156	86.8322	785.156	85.1599	785.156	86.4226	785.156	86.2824	785.156	83.9236	785.156	86.6075	785.156	82.1582	785.156	86.2218	785.156	84.6523	785.156	86.0711	785.156	86.3072	785.156	86.4885	785.156	86.7522	785.156	86.7952
811.523	94.695	811.523	94.4641	811.523	94.7696	811.523	93.9977	811.523	94.6207	811.523	93.2597	811.523	94.1919	811.523	92.3968	811.523	93.6689	811.523	91.6388	811.523	93.0339	811.523	90.9525	811.523	91.7899	811.523	90.0587	811.523	89.7546	811.523	88.956	811.523	87.5565	811.523	87.9224	811.523	86.0367	811.523	87.0062	811.523	86.0922	811.523	86.0755	811.523	87.4617	811.523	85.4481	811.523	88.1395	811.523	85.7022	811.523	87.1006	811.523	86.6849	811.523	84.6356	811.523	87.8022	811.523	84.7344	811.523	88.6936	811.523	87.467	811.523	89.2536	811.523	89.0375	811.523	89.4471
840.82	94.7566	840.82	94.4766	840.82	94.7331	840.82	94.0655	840.82	94.3934	840.82	93.6637	840.82	93.9012	840.82	93.1931	840.82	93.2939	840.82	92.4076	840.82	92.3196	840.82	91.1656	840.82	91.0043	840.82	89.6961	840.82	89.8801	840.82	88.5274	840.82	89.0052	840.82	87.7534	840.82	88.0552	840.82	86.816	840.82	87.1664	840.82	85.6088	840.82	86.3054	840.82	85.2416	840.82	84.7165	840.82	86.0623	840.82	82.4383	840.82	86.8101	840.82	83.0009	840.82	87.0721	840.82	85.4142	840.82	87.5019	840.82	87.3437	840.82	88.4367	840.82	88.7414	840.82	89.1143
870.117	94.2415	870.117	94.0389	870.117	94.0837	870.117	93.4826	870.117	93.5858	870.117	92.5829	870.117	92.8592	870.117	91.3519	870.117	92.2123	870.117	90.011	870.117	91.7263	870.117	89.0551	870.117	90.6523	870.117	88.4748	870.117	88.2465	870.117	87.787	870.117	85.0638	870.117	86.9109	870.117	84.2857	870.117	86.1676	870.117	86.3051	870.117	85.6625	870.117	87.9266	870.117	85.0451	870.117	88.2284	870.117	84.3722	870.117	86.5717	870.117	84.6294	870.117	81.4684	870.117	86.2122	870.117	82.316	870.117	87.9409	870.117	87.7361	870.117	89.1677	870.117	89.6806	870.117	89.8384
900.879	93.6131	900.879	93.8583	900.879	93.2293	900.879	93.7164	900.879	92.8467	900.879	93.0447	900.879	92.4392	900.879	91.6477	900.879	92.0282	900.879	89.3748	900.879	91.5397	900.879	86.9442	900.879	90.7319	900.879	86.1029	900.879	89.2856	900.879	86.5512	900.879	86.6158	900.879	85.9873	900.879	81.6321	900.879	83.1604	900.879	79.9696	900.879	81.1226	900.879	85.0776	900.879	83.8191	900.879	86.7459	900.879	86.3417	900.879	84.4314	900.879	87.3628	900.879	78.0453	900.879	87.688	900.879	83.3188	900.879	88.5183	900.879	87.9157	900.879	89.8666	900.879	90.0957	900.879	90.6528
933.105	94.0866	933.105	94.2773	933.105	93.2802	933.105	94.1144	933.105	92.1019	933.105	93.5414	933.105	91.3756	933.105	92.1821	933.105	90.9423	933.105	90.0426	933.105	90.328	933.105	88.0837	933.105	90.0809	933.105	87.3808	933.105	90.0058	933.105	87.0271	933.105	88.6504	933.105	85.8593	933.105	85.5948	933.105	84.3492	933.105	82.546	933.105	82.6499	933.105	85.1958	933.105	80.2329	933.105	88.991	933.105	80.5815	933.105	89.7902	933.105	83.9088	933.105	86.4998	933.105	86.6608	933.105	72.8971	933.105	88.5872	933.105	83.5723	933.105	89.7268	933.105	88.3595	933.105	89.8091
965.332	93.7387	965.332	94.0589	965.332	93.3801	965.332	94.046	965.332	92.8512	965.332	93.4716	965.332	91.709	965.332	92.2106	965.332	90.344	965.332	90.1991	965.332	89.8233	965.332	87.6204	965.332	89.6663	965.332	85.7859	965.332	88.5901	965.332	86.3924	965.332	86.5241	965.332	87.9361	965.332	84.0429	965.332	88.0343	965.332	81.6831	965.332	85.7602	965.332	81.9643	965.332	81.6206	965.332	84.5419	965.332	80.402	965.332	86.269	965.332	83.3132	965.332	85.7616	965.332	85.585	965.332	83.3378	965.332	86.8509	965.332	83.6501	965.332	87.6922	965.332	86.4056	965.332	87.8144
1,000.49	92.8677	1,000.49	93.1739	1,000.49	92.4414	1,000.49	93.2647	1,000.49	92.0054	1,000.49	92.9764	1,000.49	91.3929	1,000.49	91.9576	1,000.49	90.5239	1,000.49	89.8394	1,000.49	89.805	1,000.49	86.8894	1,000.49	89.2406	1,000.49	84.5652	1,000.49	88.4147	1,000.49	84.9857	1,000.49	87.6174	1,000.49	86.6772	1,000.49	86.4724	1,000.49	86.8412	1,000.49	83.1701	1,000.49	85.9483	1,000.49	81.6763	1,000.49	84.1656	1,000.49	84.8079	1,000.49	82.0075	1,000.49	85.4709	1,000.49	82.1931	1,000.49	83.104	1,000.49	83.6326	1,000.49	77.5852	1,000.49	85.6023	1,000.49	80.5685	1,000.49	87.4937	1,000.49	85.7892	1,000.49	87.8727
1,035.64	91.984	1,035.64	92.5663	1,035.64	91.3332	1,035.64	92.4792	1,035.64	90.9591	1,035.64	91.4995	1,035.64	90.3599	1,035.64	90.2084	1,035.64	89.0874	1,035.64	89.0517	1,035.64	88.1856	1,035.64	87.001	1,035.64	88.0897	1,035.64	82.3629	1,035.64	86.8864	1,035.64	78.1223	1,035.64	84.9466	1,035.64	78.5655	1,035.64	84.658	1,035.64	79.6914	1,035.64	84.6695	1,035.64	81.4799	1,035.64	82.5283	1,035.64	83.7963	1,035.64	81.6573	1,035.64	83.989	1,035.64	82.9725	1,035.64	83.4078	1,035.64	82.1986	1,035.64	84.089	1,035.64	80.9943	1,035.64	85.7272	1,035.64	83.3925	1,035.64	86.58	1,035.64	85.3566	1,035.64	86.3423
1,072.27	92.6407	1,072.27	92.3938	1,072.27	92.7474	1,072.27	92.6076	1,072.27	92.275	1,072.27	93.1011	1,072.27	91.0319	1,072.27	92.5568	1,072.27	89.4257	1,072.27	89.9956	1,072.27	88.488	1,072.27	86.1802	1,072.27	88.2452	1,072.27	83.6511	1,072.27	87.9668	1,072.27	81.7709	1,072.27	88.0487	1,072.27	78.8112	1,072.27	87.3995	1,072.27	79.6221	1,072.27	83.0837	1,072.27	80.4024	1,072.27	83.0412	1,072.27	78.5925	1,072.27	87.6727	1,072.27	79.7399	1,072.27	88.8819	1,072.27	84.91	1,072.27	85.9722	1,072.27	87.6342	1,072.27	67.4555	1,072.27	88.5122	1,072.27	84.1508	1,072.27	88.6177	1,072.27	87.9575	1,072.27	88.5495
1,108.89	94.6843	1,108.89	94.2934	1,108.89	94.6751	1,108.89	93.8036	1,108.89	94.3094	1,108.89	93.568	1,108.89	93.5161	1,108.89	93.2171	1,108.89	92.4248	1,108.89	92.1309	1,108.89	91.4093	1,108.89	90.3875	1,108.89	89.7891	1,108.89	88.1524	1,108.89	87.0918	1,108.89	86.3237	1,108.89	86.4036	1,108.89	85.7967	1,108.89	87.2558	1,108.89	84.889	1,108.89	84.5979	1,108.89	83.2163	1,108.89	78.2091	1,108.89	80.6502	1,108.89	84.4387	1,108.89	77.2533	1,108.89	87.287	1,108.89	81.6176	1,108.89	87.539	1,108.89	86.0463	1,108.89	83.514	1,108.89	88.1108	1,108.89	71.7341	1,108.89	88.7062	1,108.89	86.2205	1,108.89	88.5677
1,148.44	94.1053	1,148.44	93.9512	1,148.44	94.1659	1,148.44	93.7989	1,148.44	93.5881	1,148.44	92.8818	1,148.44	92.7492	1,148.44	91.3346	1,148.44	92.233	1,148.44	90.6459	1,148.44	91.7445	1,148.44	90.6516	1,148.44	90.8607	1,148.44	89.2735	1,148.44	88.7361	1,148.44	86.3591	1,148.44	85.5439	1,148.44	85.292	1,148.44	83.8622	1,148.44	85.3037	1,148.44	83.6161	1,148.44	83.4635	1,148.44	81.7002	1,148.44	81.3768	1,148.44	84.7392	1,148.44	82.4123	1,148.44	89.0734	1,148.44	82.8241	1,148.44	89.0536	1,148.44	82.8934	1,148.44	84.198	1,148.44	85.2142	1,148.44	75.5292	1,148.44	86.3799	1,148.44	81.4777	1,148.44	85.2374
1,189.45	93.2955	1,189.45	93.2563	1,189.45	92.9405	1,189.45	92.6752	1,189.45	92.8001	1,189.45	91.9055	1,189.45	92.3659	1,189.45	90.766	1,189.45	91.1447	1,189.45	89.5014	1,189.45	89.8708	1,189.45	88.7854	1,189.45	88.8476	1,189.45	87.5266	1,189.45	88.0856	1,189.45	85.9963	1,189.45	87.5742	1,189.45	86.4079	1,189.45	86.2856	1,189.45	86.9076	1,189.45	82.2818	1,189.45	85.4103	1,189.45	76.9879	1,189.45	83.8005	1,189.45	81.0858	1,189.45	82.3151	1,189.45	82.827	1,189.45	75.4812	1,189.45	84.1957	1,189.45	66.7685	1,189.45	84.2436	1,189.45	78.2081	1,189.45	76.0203	1,189.45	83.9451	1,189.45	81.8102	1,189.45	85.5957
1,230.47	94.2968	1,230.47	94.1516	1,230.47	94.0928	1,230.47	93.5027	1,230.47	93.5688	1,230.47	92.4684	1,230.47	92.5454	1,230.47	91.0513	1,230.47	90.5847	1,230.47	89.4101	1,230.47	89.2403	1,230.47	88.8048	1,230.47	89.895	1,230.47	88.6561	1,230.47	89.2756	1,230.47	86.1904	1,230.47	86.6367	1,230.47	81.8303	1,230.47	85.1927	1,230.47	84.4728	1,230.47	85.4756	1,230.47	85.9625	1,230.47	81.3852	1,230.47	85.2848	1,230.47	73.3594	1,230.47	83.5005	1,230.47	84.46	1,230.47	83.4101	1,230.47	88.024	1,230.47	83.4591	1,230.47	85.6397	1,230.47	84.0429	1,230.47	72.4266	1,230.47	84.6689	1,230.47	81.048	1,230.47	83.9931
1,274.41	94.8916	1,274.41	94.6252	1,274.41	94.4427	1,274.41	93.91	1,274.41	93.4478	1,274.41	92.5949	1,274.41	92.0711	1,274.41	90.9548	1,274.41	90.8038	1,274.41	90.1359	1,274.41	90.5454	1,274.41	89.8412	1,274.41	90.235	1,274.41	88.569	1,274.41	89.4582	1,274.41	86.1859	1,274.41	87.048	1,274.41	83.4575	1,274.41	84.7229	1,274.41	81.9215	1,274.41	83.2717	1,274.41	81.7235	1,274.41	81.2706	1,274.41	82.0956	1,274.41	81.4723	1,274.41	82.9448	1,274.41	85.7358	1,274.41	82.2998	1,274.41	85.6967	1,274.41	77.5805	1,274.41	82.2559	1,274.41	78.593	1,274.41	79.7297	1,274.41	84.3488	1,274.41	77.1053	1,274.41	84.4859
1,319.82	94.9471	1,319.82	95.6153	1,319.82	94.0736	1,319.82	95.0494	1,319.82	93.6615	1,319.82	93.4136	1,319.82	93.1864	1,319.82	91.4856	1,319.82	92.3094	1,319.82	90.482	1,319.82	90.7147	1,319.82	89.8961	1,319.82	89.1335	1,319.82	86.6981	1,319.82	88.1075	1,319.82	83.8764	1,319.82	87.0988	1,319.82	85.6478	1,319.82	85.3102	1,319.82	83.8547	1,319.82	80.2392	1,319.82	77.938	1,319.82	79.8332	1,319.82	81.8938	1,319.82	79.8593	1,319.82	85.9393	1,319.82	80.5918	1,319.82	86.2946	1,319.82	84.6281	1,319.82	83.3797	1,319.82	86.2019	1,319.82	81.4101	1,319.82	82.8963	1,319.82	86.0388	1,319.82	81.4117	1,319.82	85.3821
1,366.7	95.0758	1,366.7	95.8616	1,366.7	94.7236	1,366.7	95.6617	1,366.7	94.8062	1,366.7	93.8611	1,366.7	94.3564	1,366.7	92.5104	1,366.7	92.7755	1,366.7	91.2593	1,366.7	90.8985	1,366.7	87.9632	1,366.7	88.599	1,366.7	85.7236	1,366.7	88.49	1,366.7	82.1929	1,366.7	88.4169	1,366.7	82.3482	1,366.7	86.1645	1,366.7	84.798	1,366.7	84.6244	1,366.7	84.9415	1,366.7	81.6972	1,366.7	79.5566	1,366.7	73.6655	1,366.7	82.7899	1,366.7	81.9721	1,366.7	85.6597	1,366.7	87.1509	1,366.7	84.8168	1,366.7	84.4939	1,366.7	82.8072	1,366.7	83.094	1,366.7	85.2675	1,366.7	83.1587	1,366.7	86.024
1,413.57	94.2488	1,413.57	95.5167	1,413.57	93.9379	1,413.57	95.829	1,413.57	94.1016	1,413.57	93.6746	1,413.57	94.0847	1,413.57	91.5256	1,413.57	92.9174	1,413.57	91.3303	1,413.57	90.643	1,413.57	88.9998	1,413.57	90.4585	1,413.57	84.4844	1,413.57	89.3518	1,413.57	83.3885	1,413.57	88.9381	1,413.57	78.3284	1,413.57	88.6988	1,413.57	80.894	1,413.57	85.9682	1,413.57	82.5376	1,413.57	83.1474	1,413.57	77.3577	1,413.57	80.3947	1,413.57	78.1811	1,413.57	82.079	1,413.57	83.858	1,413.57	83.9922	1,413.57	84.5334	1,413.57	85.5662	1,413.57	82.1985	1,413.57	82.8916	1,413.57	82.1427	1,413.57	82.6696	1,413.57	84.7301
1,463.38	94.7712	1,463.38	95.5258	1,463.38	94.2586	1,463.38	95.0277	1,463.38	94.2363	1,463.38	94.1784	1,463.38	93.7336	1,463.38	93.936	1,463.38	92.8529	1,463.38	90.6402	1,463.38	91.7557	1,463.38	87.4233	1,463.38	88.961	1,463.38	87.101	1,463.38	88.3901	1,463.38	85.7814	1,463.38	87.5328	1,463.38	84.1163	1,463.38	84.818	1,463.38	84.1952	1,463.38	85.7617	1,463.38	80.0459	1,463.38	82.7369	1,463.38	80.1762	1,463.38	80.8772	1,463.38	76.8334	1,463.38	82.8234	1,463.38	83.7904	1,463.38	79.4726	1,463.38	84.5315	1,463.38	84.8637	1,463.38	82.1532	1,463.38	80.6479	1,463.38	84.0495	1,463.38	79.3526	1,463.38	81.4887
1,516.11	93.9106	1,516.11	93.7062	1,516.11	93.6017	1,516.11	93.5774	1,516.11	93.8151	1,516.11	93.4717	1,516.11	93.9836	1,516.11	92.7556	1,516.11	93.2193	1,516.11	89.9697	1,516.11	91.9482	1,516.11	84.6729	1,516.11	89.5903	1,516.11	85.3832	1,516.11	86.7798	1,516.11	86.4008	1,516.11	88.1683	1,516.11	82.2835	1,516.11	87.5767	1,516.11	85.2036	1,516.11	85.2645	1,516.11	86.1352	1,516.11	83.4803	1,516.11	85.1486	1,516.11	83.3829	1,516.11	80.8461	1,516.11	77.5679	1,516.11	75.7334	1,516.11	84.158	1,516.11	83.1605	1,516.11	86.8466	1,516.11	80.0632	1,516.11	82.1279	1,516.11	77.3446	1,516.11	79.2647	1,516.11	80.8736
1,568.85	93.5873	1,568.85	93.0713	1,568.85	93.4036	1,568.85	92.5657	1,568.85	93.423	1,568.85	93.8938	1,568.85	93.3067	1,568.85	93.4381	1,568.85	93.4754	1,568.85	88.5749	1,568.85	93.0367	1,568.85	86.0509	1,568.85	90.9281	1,568.85	87.5759	1,568.85	87.5956	1,568.85	86.3107	1,568.85	83.8947	1,568.85	80.5371	1,568.85	86.1546	1,568.85	77.431	1,568.85	84.9264	1,568.85	87.1031	1,568.85	83.8782	1,568.85	87.0027	1,568.85	82.3095	1,568.85	83.4557	1,568.85	77.8383	1,568.85	79.4754	1,568.85	84.8268	1,568.85	85.889	1,568.85	81.8612	1,568.85	82.2979	1,568.85	83.5836	1,568.85	73.0406	1,568.85	80.9627	1,568.85	79.3548
1,624.51	95.2766	1,624.51	93.4944	1,624.51	95.0645	1,624.51	92.9419	1,624.51	93.5265	1,624.51	93.5669	1,624.51	93.3647	1,624.51	94.4701	1,624.51	92.7568	1,624.51	91.4303	1,624.51	92.2987	1,624.51	90.5676	1,624.51	90.473	1,624.51	88.3072	1,624.51	88.8543	1,624.51	81.5022	1,624.51	86.7247	1,624.51	83.4769	1,624.51	84.7709	1,624.51	75.1777	1,624.51	86.5542	1,624.51	76.8853	1,624.51	84.1782	1,624.51	86.35	1,624.51	76.2744	1,624.51	87.8778	1,624.51	84.4175	1,624.51	82.1901	1,624.51	83.8692	1,624.51	78.243	1,624.51	79.747	1,624.51	80.8866	1,624.51	84.7915	1,624.51	78.0459	1,624.51	79.3748	1,624.51	77.7425
1,681.64	94.694	1,681.64	94.2397	1,681.64	95.3641	1,681.64	92.7991	1,681.64	94.643	1,681.64	92.9372	1,681.64	93.7022	1,681.64	90.4926	1,681.64	92.9178	1,681.64	87.4483	1,681.64	91.8826	1,681.64	91.6992	1,681.64	89.445	1,681.64	88.5415	1,681.64	88.5014	1,681.64	85.1722	1,681.64	88.1996	1,681.64	86.1955	1,681.64	86.8519	1,681.64	80.5113	1,681.64	81.6283	1,681.64	74.5734	1,681.64	86.1672	1,681.64	82.6424	1,681.64	75.8506	1,681.64	87.6628	1,681.64	88.4181	1,681.64	86.5144	1,681.64	84.4399	1,681.64	79.4826	1,681.64	84.1669	1,681.64	80.4339	1,681.64	84.048	1,681.64	79.9156	1,681.64	81.781	1,681.64	75.3311
1,741.7	94.6731	1,741.7	94.1462	1,741.7	95.4021	1,741.7	93.694	1,741.7	94.9706	1,741.7	92.5495	1,741.7	94.8004	1,741.7	90.8531	1,741.7	93.8532	1,741.7	89.8672	1,741.7	90.9347	1,741.7	87.3017	1,741.7	90.0572	1,741.7	87.6849	1,741.7	87.4396	1,741.7	85.422	1,741.7	83.8703	1,741.7	82.9719	1,741.7	86.3042	1,741.7	80.5021	1,741.7	78.0945	1,741.7	74.7159	1,741.7	82.0711	1,741.7	67.7822	1,741.7	81.6622	1,741.7	79.0212	1,741.7	84.6863	1,741.7	85.2194	1,741.7	80.7786	1,741.7	85.5946	1,741.7	83.9497	1,741.7	82.9648	1,741.7	82.1848	1,741.7	79.3577	1,741.7	81.655	1,741.7	78.6437
1,803.22	93.7425	1,803.22	93.367	1,803.22	95.4836	1,803.22	92.3031	1,803.22	95.5037	1,803.22	90.0439	1,803.22	94.4521	1,803.22	86.75	1,803.22	92.2191	1,803.22	90.1633	1,803.22	92.4409	1,803.22	87.611	1,803.22	88.9728	1,803.22	83.5887	1,803.22	86.869	1,803.22	81.6984	1,803.22	86.5084	1,803.22	81.2864	1,803.22	84.4002	1,803.22	86.6872	1,803.22	82.9429	1,803.22	83.0422	1,803.22	83.2661	1,803.22	75.0254	1,803.22	80.9282	1,803.22	70.6729	1,803.22	85.0419	1,803.22	84.5232	1,803.22	76.5065	1,803.22	85.0392	1,803.22	85.1421	1,803.22	83.3188	1,803.22	78.3395	1,803.22	77.1271	1,803.22	81.5312	1,803.22	73.45
1,866.21	93.5467	1,866.21	93.7264	1,866.21	93.6944	1,866.21	94.1922	1,866.21	95.2341	1,866.21	93.8823	1,866.21	94.8124	1,866.21	90.8822	1,866.21	92.4894	1,866.21	90.3782	1,866.21	91.9767	1,866.21	88.45	1,866.21	89.8678	1,866.21	83.7425	1,866.21	86.6184	1,866.21	81.9707	1,866.21	84.4735	1,866.21	85.7585	1,866.21	82.8228	1,866.21	87.7262	1,866.21	85.8619	1,866.21	83.8736	1,866.21	80.2721	1,866.21	86.4009	1,866.21	79.9218	1,866.21	69.2636	1,866.21	80.7555	1,866.21	84.8586	1,866.21	80.9455	1,866.21	82.8766	1,866.21	83.7819	1,866.21	83.0751	1,866.21	83.3984	1,866.21	79.0678	1,866.21	81.0531	1,866.21	74.875
1,932.13	92.6453	1,932.13	92.3955	1,932.13	93.5376	1,932.13	93.1354	1,932.13	95.153	1,932.13	92.6432	1,932.13	95.7511	1,932.13	91.878	1,932.13	92.3093	1,932.13	92.0511	1,932.13	90.5147	1,932.13	88.2961	1,932.13	87.2018	1,932.13	86.1181	1,932.13	85.3513	1,932.13	84.3639	1,932.13	85.4208	1,932.13	84.4399	1,932.13	85.654	1,932.13	83.9643	1,932.13	85.8957	1,932.13	83.7487	1,932.13	71.8892	1,932.13	83.3835	1,932.13	71.7229	1,932.13	74.5965	1,932.13	77.5005	1,932.13	76.4054	1,932.13	80.7199	1,932.13	78.2889	1,932.13	82.82	1,932.13	79.3051	1,932.13	84.5207	1,932.13	76.145	1,932.13	82.3493	1,932.13	71.5365
1,999.51	93.5086	1,999.51	92.4526	1,999.51	93.6937	1,999.51	91.4776	1,999.51	93.6293	1,999.51	92.0901	1,999.51	93.8367	1,999.51	92.9685	1,999.51	91.7726	1,999.51	90.193	1,999.51	89.0974	1,999.51	86.8192	1,999.51	86.2284	1,999.51	86.6297	1,999.51	86.5919	1,999.51	85.0441	1,999.51	87.7652	1,999.51	85.6037	1,999.51	85.5533	1,999.51	81.4119	1,999.51	84.0036	1,999.51	82.8273	1,999.51	79.8945	1,999.51	85.0112	1,999.51	78.0766	1,999.51	82.4968	1,999.51	80.2018	1,999.51	82.3886	1,999.51	82.1629	1,999.51	83.3763	1,999.51	80.9448	1,999.51	78.5566	1,999.51	85.5327	1,999.51	74.6353	1,999.51	80.6023	1,999.51	68.4127
2,069.82	94.2536	2,069.82	92.6693	2,069.82	94.3106	2,069.82	89.9486	2,069.82	94.6301	2,069.82	91.4227	2,069.82	92.8756	2,069.82	92.4145	2,069.82	91.0586	2,069.82	86.297	2,069.82	88.0845	2,069.82	86.3172	2,069.82	85.2958	2,069.82	89.2809	2,069.82	84.8532	2,069.82	84.7416	2,069.82	85.2396	2,069.82	83.5898	2,069.82	81.468	2,069.82	79.0213	2,069.82	79.7569	2,069.82	71.3696	2,069.82	78.3205	2,069.82	75.8129	2,069.82	78.9885	2,069.82	87.3254	2,069.82	72.118	2,069.82	86.939	2,069.82	84.5598	2,069.82	87.9503	2,069.82	77.0645	2,069.82	79.6728	2,069.82	85.9463	2,069.82	77.8616	2,069.82	80.6577	2,069.82	79.0235
2,143.07	94.0249	2,143.07	91.8169	2,143.07	96.2249	2,143.07	90.8897	2,143.07	95.1856	2,143.07	90.5112	2,143.07	92.7987	2,143.07	90.7847	2,143.07	93.3125	2,143.07	89.3049	2,143.07	86.2443	2,143.07	88.665	2,143.07	85.2307	2,143.07	89.0508	2,143.07	87.5398	2,143.07	75.7661	2,143.07	86.2736	2,143.07	79.2368	2,143.07	85.1061	2,143.07	83.3506	2,143.07	83.6841	2,143.07	82.8242	2,143.07	74.4887	2,143.07	77.5135	2,143.07	85.0602	2,143.07	85.1489	2,143.07	71.1268	2,143.07	83.2619	2,143.07	82.4257	2,143.07	84.6825	2,143.07	74.8448	2,143.07	80.6483	2,143.07	86.4221	2,143.07	80.0321	2,143.07	82.9104	2,143.07	81.9593
2,219.24	93.2163	2,219.24	90.7314	2,219.24	95.2041	2,219.24	89.4342	2,219.24	95.5833	2,219.24	90.7436	2,219.24	94.1358	2,219.24	89.2027	2,219.24	92.9829	2,219.24	89.4614	2,219.24	83.1974	2,219.24	89.7009	2,219.24	83.8297	2,219.24	77.7927	2,219.24	86.2928	2,219.24	83.5874	2,219.24	83.1505	2,219.24	82.536	2,219.24	83.5292	2,219.24	80.8555	2,219.24	84.4493	2,219.24	87.3496	2,219.24	75.7905	2,219.24	79.2173	2,219.24	86.0365	2,219.24	78.4246	2,219.24	72.0357	2,219.24	80.9228	2,219.24	82.8978	2,219.24	77.7529	2,219.24	79.4417	2,219.24	78.183	2,219.24	78.5054	2,219.24	79.7692	2,219.24	81.3853	2,219.24	82.1779
2,296.88	92.8464	2,296.88	89.431	2,296.88	93.9358	2,296.88	88.9906	2,296.88	94.3658	2,296.88	90.4852	2,296.88	92.8642	2,296.88	88.0628	2,296.88	91.4038	2,296.88	89.4653	2,296.88	85.0908	2,296.88	86.8071	2,296.88	82.0678	2,296.88	85.1609	2,296.88	76.3529	2,296.88	82.5604	2,296.88	75.9463	2,296.88	85.2519	2,296.88	77.7755	2,296.88	75.6236	2,296.88	79.6292	2,296.88	83.7708	2,296.88	80.9761	2,296.88	81.9661	2,296.88	81.2559	2,296.88	73.8572	2,296.88	78.685	2,296.88	80.6688	2,296.88	76.6534	2,296.88	82.4575	2,296.88	80.9086	2,296.88	79.667	2,296.88	69.6226	2,296.88	76.8554	2,296.88	83.3952	2,296.88	78.1253
2,378.91	93.444	2,378.91	89.4209	2,378.91	95.2233	2,378.91	87.5897	2,378.91	93.5394	2,378.91	88.7628	2,378.91	91.2595	2,378.91	87.4626	2,378.91	88.865	2,378.91	87.8831	2,378.91	81.0062	2,378.91	88.5628	2,378.91	80.0113	2,378.91	87.8594	2,378.91	75.2013	2,378.91	80.4919	2,378.91	66.0082	2,378.91	83.3943	2,378.91	82.7047	2,378.91	77.4966	2,378.91	82.1825	2,378.91	80.1993	2,378.91	76.9308	2,378.91	83.45	2,378.91	75.0805	2,378.91	84.0368	2,378.91	68.7642	2,378.91	75.1523	2,378.91	73.4473	2,378.91	79.6814	2,378.91	74.38	2,378.91	80.0219	2,378.91	79.4129	2,378.91	70.5265	2,378.91	83.6606	2,378.91	67.1604
2,462.4	94.8342	2,462.4	91.663	2,462.4	95.8935	2,462.4	87.3042	2,462.4	94.0681	2,462.4	88.1466	2,462.4	89.0673	2,462.4	88.925	2,462.4	85.1675	2,462.4	87.4705	2,462.4	83.0512	2,462.4	85.0897	2,462.4	83.7429	2,462.4	86.5075	2,462.4	82.8889	2,462.4	82.3668	2,462.4	76.4793	2,462.4	80.0091	2,462.4	77.7997	2,462.4	79.4428	2,462.4	77.3221	2,462.4	78.3677	2,462.4	77.4817	2,462.4	79.8358	2,462.4	67.2083	2,462.4	75.7197	2,462.4	76.1845	2,462.4	79.1131	2,462.4	62.7343	2,462.4	77.3171	2,462.4	73.8602	2,462.4	76.3016	2,462.4	73.5987	2,462.4	63.9724	2,462.4	77.8384	2,462.4	75.7547
2,548.83	94.3919	2,548.83	92.2744	2,548.83	95.7842	2,548.83	88.595	2,548.83	94.5644	2,548.83	86.2147	2,548.83	90.2142	2,548.83	87.7262	2,548.83	81.5193	2,548.83	85.7315	2,548.83	80.1738	2,548.83	85.5781	2,548.83	83.1887	2,548.83	84.7611	2,548.83	79.6931	2,548.83	82.2858	2,548.83	82.0722	2,548.83	82.5896	2,548.83	83.3965	2,548.83	76.8682	2,548.83	80.8474	2,548.83	78.9614	2,548.83	72.2599	2,548.83	78.8838	2,548.83	73.1765	2,548.83	77.0144	2,548.83	76.1843	2,548.83	78.2268	2,548.83	74.3263	2,548.83	75.8019	2,548.83	70.9499	2,548.83	70.3072	2,548.83	73.2947	2,548.83	70.3444	2,548.83	80.4132	2,548.83	74.306
2,639.65	93.1808	2,639.65	91.0731	2,639.65	94.3609	2,639.65	87.8859	2,639.65	93.4712	2,639.65	82.1739	2,639.65	90.6016	2,639.65	86.2832	2,639.65	84.4177	2,639.65	86.3183	2,639.65	83.3707	2,639.65	86.441	2,639.65	83.9724	2,639.65	85.4151	2,639.65	84.665	2,639.65	83.2954	2,639.65	82.9013	2,639.65	80.4217	2,639.65	84.1655	2,639.65	77.4979	2,639.65	81.4695	2,639.65	78.974	2,639.65	80.1788	2,639.65	74.0089	2,639.65	77.28	2,639.65	79.3942	2,639.65	77.4875	2,639.65	78.5483	2,639.65	75.107	2,639.65	76.82	2,639.65	77.343	2,639.65	65.1463	2,639.65	72.771	2,639.65	75.2458	2,639.65	81.7128	2,639.65	75.0616
2,731.93	93.1469	2,731.93	90.6358	2,731.93	93.9335	2,731.93	84.0163	2,731.93	92.2635	2,731.93	78.4144	2,731.93	88.8228	2,731.93	85.5786	2,731.93	83.8237	2,731.93	85.5783	2,731.93	86.1569	2,731.93	87.0117	2,731.93	85.3757	2,731.93	81.5172	2,731.93	84.3951	2,731.93	81.0219	2,731.93	83.3414	2,731.93	78.1756	2,731.93	82.4051	2,731.93	77.4073	2,731.93	79.0777	2,731.93	78.5834	2,731.93	80.4411	2,731.93	76.8155	2,731.93	78.7559	2,731.93	76.759	2,731.93	82.3971	2,731.93	78.763	2,731.93	67.1127	2,731.93	75.0589	2,731.93	76.534	2,731.93	57.3966	2,731.93	69.0586	2,731.93	73.3255	2,731.93	79.6015	2,731.93	74.8064
2,828.61	94.4873	2,828.61	91.8872	2,828.61	94.1961	2,828.61	84.4042	2,828.61	91.5626	2,828.61	78.9364	2,828.61	84.5782	2,828.61	83.4952	2,828.61	82.8744	2,828.61	86.2562	2,828.61	88.3553	2,828.61	84.2893	2,828.61	87.0192	2,828.61	82.5317	2,828.61	86.0645	2,828.61	79.122	2,828.61	85.9184	2,828.61	79.1537	2,828.61	82.8936	2,828.61	79.2723	2,828.61	72.3004	2,828.61	77.9849	2,828.61	77.2114	2,828.61	75.8333	2,828.61	82.3331	2,828.61	74.033	2,828.61	81.3927	2,828.61	78.4015	2,828.61	69.9918	2,828.61	74.3155	2,828.61	76.0653	2,828.61	65.5802	2,828.61	62.7774	2,828.61	77.6088	2,828.61	80.9529	2,828.61	76.7007
2,928.22	94.3846	2,928.22	92.7872	2,928.22	94.2484	2,928.22	87.6268	2,928.22	91.5519	2,928.22	74.5466	2,928.22	83.9615	2,928.22	81.3311	2,928.22	84.8182	2,928.22	85.541	2,928.22	88.9021	2,928.22	82.8883	2,928.22	89.4112	2,928.22	81.8384	2,928.22	88.1123	2,928.22	84.0343	2,928.22	86.2709	2,928.22	81.1078	2,928.22	77.3021	2,928.22	77.8674	2,928.22	78.4231	2,928.22	71.6503	2,928.22	79.0489	2,928.22	78.3814	2,928.22	82.0189	2,928.22	71.9802	2,928.22	75.6746	2,928.22	76.641	2,928.22	77.2222	2,928.22	75.5305	2,928.22	76.4299	2,928.22	68.442	2,928.22	62.5703	2,928.22	76.1613	2,928.22	78.9653	2,928.22	78.8092
3,030.76	94.1747	3,030.76	92.7357	3,030.76	93.1171	3,030.76	88.3215	3,030.76	89.8804	3,030.76	64.5613	3,030.76	83.3606	3,030.76	80.0573	3,030.76	88.3707	3,030.76	83.4151	3,030.76	89.4947	3,030.76	81.8938	3,030.76	88.9983	3,030.76	83.4951	3,030.76	88.9858	3,030.76	80.7963	3,030.76	86.0106	3,030.76	74.1082	3,030.76	70.7363	3,030.76	75.0292	3,030.76	79.6561	3,030.76	74.9211	3,030.76	81.3796	3,030.76	77.5369	3,030.76	78.0958	3,030.76	71.3522	3,030.76	78.6854	3,030.76	75.9741	3,030.76	77.9938	3,030.76	72.6832	3,030.76	72.034	3,030.76	64.8314	3,030.76	65.7606	3,030.76	75.8115	3,030.76	77.362	3,030.76	73.0793
3,137.7	92.929	3,137.7	91.4866	3,137.7	92.1694	3,137.7	87.3169	3,137.7	87.4928	3,137.7	70.0518	3,137.7	81.5787	3,137.7	81.3539	3,137.7	87.63	3,137.7	83.0942	3,137.7	90.1452	3,137.7	82.7907	3,137.7	86.9344	3,137.7	81.6585	3,137.7	87.0628	3,137.7	75.0481	3,137.7	82.9371	3,137.7	77.3409	3,137.7	74.9382	3,137.7	78.4682	3,137.7	79.0133	3,137.7	74.3123	3,137.7	71.6787	3,137.7	75.1777	3,137.7	76.8596	3,137.7	73.9172	3,137.7	78.8886	3,137.7	74.8718	3,137.7	77.3106	3,137.7	74.1167	3,137.7	68.7465	3,137.7	62.8083	3,137.7	60.5173	3,137.7	74.8252	3,137.7	77.1617	3,137.7	71.9342
3,249.02	92.0861	3,249.02	91.0522	3,249.02	92.0941	3,249.02	85.9041	3,249.02	87.2703	3,249.02	63.4026	3,249.02	80.3157	3,249.02	82.5133	3,249.02	85.9375	3,249.02	83.5009	3,249.02	89.8933	3,249.02	83.304	3,249.02	87.3179	3,249.02	78.8925	3,249.02	86.5586	3,249.02	82.9168	3,249.02	78.4301	3,249.02	80.0199	3,249.02	79.8551	3,249.02	77.8608	3,249.02	75.9707	3,249.02	74.3506	3,249.02	74.22	3,249.02	73.7341	3,249.02	72.9033	3,249.02	75.5036	3,249.02	79.1786	3,249.02	73.5709	3,249.02	79.4931	3,249.02	74.746	3,249.02	68.6168	3,249.02	63.0217	3,249.02	64.0229	3,249.02	73.888	3,249.02	77.0326	3,249.02	75.0864
3,363.28	92.5957	3,363.28	91.3093	3,363.28	91.6069	3,363.28	83.7048	3,363.28	87.5419	3,363.28	76.3938	3,363.28	73.7964	3,363.28	83.7382	3,363.28	86.4068	3,363.28	84.2592	3,363.28	89.1033	3,363.28	83.7711	3,363.28	88.1338	3,363.28	84.8356	3,363.28	87.9606	3,363.28	82.3138	3,363.28	77.3745	3,363.28	78.5699	3,363.28	84.0444	3,363.28	77.1388	3,363.28	78.8695	3,363.28	77.5867	3,363.28	71.7316	3,363.28	77.0267	3,363.28	70.2494	3,363.28	75.3032	3,363.28	79.64	3,363.28	74.8198	3,363.28	79.2761	3,363.28	74.9134	3,363.28	68.7949	3,363.28	70.7542	3,363.28	61.2182	3,363.28	66.276	3,363.28	74.8606	3,363.28	73.7099
3,481.93	92.9967	3,481.93	92.57	3,481.93	91.2219	3,481.93	86.879	3,481.93	87.1349	3,481.93	81.4178	3,481.93	70.2932	3,481.93	84.3133	3,481.93	87.6289	3,481.93	86.2296	3,481.93	89.2963	3,481.93	85.8572	3,481.93	88.779	3,481.93	85.7237	3,481.93	88.9268	3,481.93	81.3106	3,481.93	77.759	3,481.93	81.6139	3,481.93	85.1981	3,481.93	78.3996	3,481.93	79.796	3,481.93	77.7217	3,481.93	76.6977	3,481.93	77.3766	3,481.93	62.2375	3,481.93	77.4111	3,481.93	77.4732	3,481.93	76.0371	3,481.93	77.7765	3,481.93	75.4739	3,481.93	68.2281	3,481.93	73.0416	3,481.93	56.7753	3,481.93	70.6363	3,481.93	72.6438	3,481.93	73.3441
3,604.98	93.7492	3,604.98	92.8419	3,604.98	90.7467	3,604.98	88.0297	3,604.98	85.7663	3,604.98	85.6683	3,604.98	81.8228	3,604.98	85.7561	3,604.98	89.4203	3,604.98	87.5123	3,604.98	88.9775	3,604.98	87.621	3,604.98	91.4009	3,604.98	85.0412	3,604.98	87.4249	3,604.98	83.8373	3,604.98	83.4061	3,604.98	81.0474	3,604.98	84.8571	3,604.98	79.0607	3,604.98	78.918	3,604.98	78.7679	3,604.98	76.1284	3,604.98	75.8439	3,604.98	72.5574	3,604.98	77.3342	3,604.98	74.9149	3,604.98	74.1522	3,604.98	77.0686	3,604.98	76.4657	3,604.98	64.6501	3,604.98	71.4409	3,604.98	53.342	3,604.98	71.0543	3,604.98	73.1888	3,604.98	75.3654
3,732.42	94.2758	3,732.42	93.7274	3,732.42	91.96	3,732.42	88.7961	3,732.42	86.3893	3,732.42	86.0429	3,732.42	85.9578	3,732.42	87.7884	3,732.42	90.3793	3,732.42	88.9929	3,732.42	87.5753	3,732.42	87.1949	3,732.42	91.6301	3,732.42	85.8632	3,732.42	86.7638	3,732.42	83.5737	3,732.42	85.0286	3,732.42	80.2101	3,732.42	81.9659	3,732.42	79.4836	3,732.42	75.7527	3,732.42	75.8419	3,732.42	76.4568	3,732.42	75.7018	3,732.42	73.4106	3,732.42	77.1531	3,732.42	74.3168	3,732.42	74.8845	3,732.42	74.5935	3,732.42	77.8809	3,732.42	64.8613	3,732.42	68.8085	3,732.42	64.8578	3,732.42	73.237	3,732.42	74.0576	3,732.42	77.0842
3,864.26	93.8272	3,864.26	93.0203	3,864.26	90.6971	3,864.26	90.2497	3,864.26	88.6036	3,864.26	85.5317	3,864.26	89.2263	3,864.26	89.2167	3,864.26	90.4453	3,864.26	88.3969	3,864.26	88.6556	3,864.26	88.1458	3,864.26	91.6932	3,864.26	85.3208	3,864.26	85.5717	3,864.26	82.5227	3,864.26	83.9082	3,864.26	79.8363	3,864.26	79.212	3,864.26	77.7368	3,864.26	71.8885	3,864.26	74.7184	3,864.26	78.6539	3,864.26	75.6506	3,864.26	74.6586	3,864.26	76.5373	3,864.26	76.4936	3,864.26	73.3834	3,864.26	71.017	3,864.26	78.0789	3,864.26	72.5311	3,864.26	73.1787	3,864.26	67.2538	3,864.26	69.4935	3,864.26	72.2252	3,864.26	76.6799
4,000.49	94.3956	4,000.49	93.7406	4,000.49	90.661	4,000.49	91.3698	4,000.49	88.5033	4,000.49	89.7434	4,000.49	92.393	4,000.49	89.9683	4,000.49	89.7947	4,000.49	89.5198	4,000.49	89.7918	4,000.49	87.3508	4,000.49	90.1894	4,000.49	86.4588	4,000.49	84.6304	4,000.49	85.0312	4,000.49	85.01	4,000.49	81.3475	4,000.49	84.8875	4,000.49	78.9297	4,000.49	77.4889	4,000.49	76.8515	4,000.49	77.7253	4,000.49	77.1568	4,000.49	76.7602	4,000.49	73.239	4,000.49	74.9702	4,000.49	74.927	4,000.49	62.2424	4,000.49	76.4106	4,000.49	74.9842	4,000.49	74.1389	4,000.49	60.5423	4,000.49	70.2056	4,000.49	72.6467	4,000.49	75.4487
4,141.11	94.6479	4,141.11	95.7536	4,141.11	91.5023	4,141.11	91.7027	4,141.11	88.1092	4,141.11	89.4968	4,141.11	93.9847	4,141.11	89.9777	4,141.11	90.5699	4,141.11	88.8344	4,141.11	89.7179	4,141.11	87.0231	4,141.11	88.6608	4,141.11	86.8908	4,141.11	85.6212	4,141.11	78.1294	4,141.11	85.5618	4,141.11	81.7843	4,141.11	84.8815	4,141.11	76.6378	4,141.11	78.0815	4,141.11	78.3919	4,141.11	65.3356	4,141.11	75.5361	4,141.11	77.3039	4,141.11	72.5456	4,141.11	73.9419	4,141.11	75.4139	4,141.11	64.2792	4,141.11	76.5261	4,141.11	74.4547	4,141.11	73.8586	4,141.11	61.1204	4,141.11	72.1358	4,141.11	73.7246	4,141.11	75.6766
4,287.6	93.4355	4,287.6	93.815	4,287.6	89.5049	4,287.6	90.6423	4,287.6	87.7753	4,287.6	88.9102	4,287.6	92.3156	4,287.6	88.4974	4,287.6	91.265	4,287.6	87.4777	4,287.6	88.4761	4,287.6	87.4199	4,287.6	87.6594	4,287.6	82.5272	4,287.6	84.8635	4,287.6	83.295	4,287.6	84.1051	4,287.6	80.3738	4,287.6	78.7363	4,287.6	75.1154	4,287.6	73.1059	4,287.6	76.178	4,287.6	73.2844	4,287.6	73.1093	4,287.6	77.1872	4,287.6	73.7498	4,287.6	72.049	4,287.6	72.9451	4,287.6	68.8676	4,287.6	72.0755	4,287.6	73.3416	4,287.6	73.1073	4,287.6	64.9348	4,287.6	71.5532	4,287.6	70.6092	4,287.6	75.9656
4,438.48	93.6611	4,438.48	91.791	4,438.48	89.8446	4,438.48	89.4652	4,438.48	88.4834	4,438.48	89.9168	4,438.48	91.0063	4,438.48	88.292	4,438.48	89.5866	4,438.48	87.0195	4,438.48	88.5174	4,438.48	84.9272	4,438.48	87.7795	4,438.48	84.3276	4,438.48	86.4205	4,438.48	80.1812	4,438.48	82.1921	4,438.48	75.8446	4,438.48	68.5487	4,438.48	75.1384	4,438.48	72.8135	4,438.48	71.3687	4,438.48	74.9979	4,438.48	73.4397	4,438.48	74.032	4,438.48	72.1476	4,438.48	69.9101	4,438.48	71.7749	4,438.48	70.8435	4,438.48	68.3733	4,438.48	70.5488	4,438.48	73.311	4,438.48	68.1872	4,438.48	70.8931	4,438.48	69.1065	4,438.48	73.7072
4,595.21	93.0439	4,595.21	93.6933	4,595.21	90.1169	4,595.21	91.4135	4,595.21	89.5776	4,595.21	88.7189	4,595.21	91.6361	4,595.21	88.9068	4,595.21	89.0278	4,595.21	87.6347	4,595.21	88.1266	4,595.21	85.2998	4,595.21	88.4973	4,595.21	79.6134	4,595.21	86.7336	4,595.21	79.5317	4,595.21	81.2792	4,595.21	77.9659	4,595.21	77.6452	4,595.21	73.6167	4,595.21	71.0796	4,595.21	75.3385	4,595.21	72.3398	4,595.21	68.8486	4,595.21	75.5201	4,595.21	73.0837	4,595.21	75.6334	4,595.21	70.2585	4,595.21	68.0058	4,595.21	67.4485	4,595.21	67.7546	4,595.21	70.3057	4,595.21	72.0936	4,595.21	70.2766	4,595.21	63.1762	4,595.21	73.5265
4,756.35	93.8851	4,756.35	93.0456	4,756.35	91.1317	4,756.35	92.3903	4,756.35	91.1167	4,756.35	91.9136	4,756.35	92.7695	4,756.35	90.3238	4,756.35	88.9187	4,756.35	87.2114	4,756.35	86.1749	4,756.35	85.6285	4,756.35	88.855	4,756.35	84.6548	4,756.35	86.4801	4,756.35	81.5498	4,756.35	80.7803	4,756.35	77.2843	4,756.35	80.6559	4,756.35	79.3772	4,756.35	72.4312	4,756.35	72.4489	4,756.35	66.2829	4,756.35	74.365	4,756.35	76.1745	4,756.35	74.0014	4,756.35	74.8822	4,756.35	69.4517	4,756.35	58.2256	4,756.35	68.9441	4,756.35	70.7119	4,756.35	70.3853	4,756.35	68.8192	4,756.35	65.524	4,756.35	68.4255	4,756.35	72.7983
4,924.8	95.3159	4,924.8	95.2965	4,924.8	93.1847	4,924.8	93.7204	4,924.8	92.8379	4,924.8	92.0326	4,924.8	93.5392	4,924.8	90.5931	4,924.8	90.1826	4,924.8	89.3571	4,924.8	84.0984	4,924.8	86.3397	4,924.8	89.6376	4,924.8	83.958	4,924.8	84.8025	4,924.8	80.9211	4,924.8	77.8921	4,924.8	80.3091	4,924.8	80.939	4,924.8	75.1866	4,924.8	71.1576	4,924.8	75.8416	4,924.8	73.1648	4,924.8	74.4869	4,924.8	77.3341	4,924.8	73.799	4,924.8	77.8733	4,924.8	69.5793	4,924.8	62.3621	4,924.8	73.5636	4,924.8	71.4255	4,924.8	72.4263	4,924.8	67.0821	4,924.8	73.0819	4,924.8	70.2516	4,924.8	74.0972
5,097.66	96.307	5,097.66	96.0016	5,097.66	94.7512	5,097.66	95.0215	5,097.66	94.202	5,097.66	93.1038	5,097.66	94.9691	5,097.66	92.2024	5,097.66	91.0742	5,097.66	90.1539	5,097.66	83.8858	5,097.66	86.9494	5,097.66	89.0148	5,097.66	85.802	5,097.66	84.0575	5,097.66	82.0213	5,097.66	84.0439	5,097.66	79.3097	5,097.66	80.543	5,097.66	77.9764	5,097.66	62.3924	5,097.66	75.9964	5,097.66	74.4834	5,097.66	75.0964	5,097.66	78.8508	5,097.66	71.9936	5,097.66	78.3464	5,097.66	72.3884	5,097.66	68.3205	5,097.66	71.6669	5,097.66	71.0958	5,097.66	68.5219	5,097.66	68.9309	5,097.66	73.2314	5,097.66	70.4602	5,097.66	72.5144
5,277.83	96.5114	5,277.83	96.5438	5,277.83	95.5434	5,277.83	94.8447	5,277.83	94.2256	5,277.83	94.6072	5,277.83	96.4701	5,277.83	92.4222	5,277.83	93.2039	5,277.83	89.692	5,277.83	84.3287	5,277.83	87.7861	5,277.83	85.5056	5,277.83	84.4448	5,277.83	85.5465	5,277.83	81.8377	5,277.83	86.1306	5,277.83	78.4751	5,277.83	82.2732	5,277.83	77.6013	5,277.83	72.2068	5,277.83	73.4785	5,277.83	73.547	5,277.83	75.7405	5,277.83	77.6327	5,277.83	72.0658	5,277.83	75.5201	5,277.83	72.0052	5,277.83	63.9844	5,277.83	70.1391	5,277.83	71.7882	5,277.83	70.5363	5,277.83	68.2631	5,277.83	71.9802	5,277.83	69.4129	5,277.83	74.9395
5,463.87	96.1665	5,463.87	96.3578	5,463.87	95.8026	5,463.87	95.1008	5,463.87	94.8586	5,463.87	93.7504	5,463.87	96.6494	5,463.87	91.9634	5,463.87	94.7183	5,463.87	89.8151	5,463.87	83.2151	5,463.87	86.3468	5,463.87	84.573	5,463.87	85.4488	5,463.87	86.4073	5,463.87	79.8655	5,463.87	84.8881	5,463.87	80.2702	5,463.87	82.7134	5,463.87	75.5377	5,463.87	72.0312	5,463.87	73.9797	5,463.87	70.5496	5,463.87	73.1074	5,463.87	76.6601	5,463.87	69.117	5,463.87	77.4646	5,463.87	72.2738	5,463.87	62.2772	5,463.87	70.2521	5,463.87	65.1887	5,463.87	69.3892	5,463.87	66.5376	5,463.87	64.3302	5,463.87	72.4687	5,463.87	73.3393
5,657.23	96.3511	5,657.23	96.342	5,657.23	96.466	5,657.23	94.6725	5,657.23	95.8731	5,657.23	94.5476	5,657.23	95.3861	5,657.23	92.4667	5,657.23	93.9862	5,657.23	89.2144	5,657.23	83.5517	5,657.23	86.9014	5,657.23	83.0389	5,657.23	83.2217	5,657.23	87.8436	5,657.23	81.4742	5,657.23	86.1355	5,657.23	78.4673	5,657.23	78.9171	5,657.23	76.0162	5,657.23	66.9117	5,657.23	72.9791	5,657.23	73.7078	5,657.23	74.0095	5,657.23	77.2801	5,657.23	70.8642	5,657.23	76.046	5,657.23	72.0299	5,657.23	62.7689	5,657.23	70.2429	5,657.23	68.8624	5,657.23	61.551	5,657.23	59.7811	5,657.23	70.6889	5,657.23	66.9416	5,657.23	72.5802
5,856.45	96.0186	5,856.45	96.2409	5,856.45	95.3183	5,856.45	94.8612	5,856.45	94.8549	5,856.45	93.9082	5,856.45	94.6338	5,856.45	91.2301	5,856.45	92.8894	5,856.45	89.7254	5,856.45	83.6409	5,856.45	86.1411	5,856.45	84.7794	5,856.45	84.1959	5,856.45	88.3631	5,856.45	80.1687	5,856.45	84.5581	5,856.45	76.8156	5,856.45	74.317	5,856.45	75.3072	5,856.45	66.8144	5,856.45	74.3765	5,856.45	72.2476	5,856.45	73.3149	5,856.45	76.7941	5,856.45	73.132	5,856.45	70.4016	5,856.45	72.0404	5,856.45	72.2699	5,856.45	65.6745	5,856.45	68.0014	5,856.45	71.8491	5,856.45	72.0457	5,856.45	65.4678	5,856.45	67.6687	5,856.45	72.6842
6,062.99	96.0628	6,062.99	96.1368	6,062.99	95.8027	6,062.99	94.679	6,062.99	92.812	6,062.99	94.2673	6,062.99	93.1638	6,062.99	91.7453	6,062.99	91.5144	6,062.99	88.4957	6,062.99	81.6222	6,062.99	87.4931	6,062.99	86.1848	6,062.99	83.3952	6,062.99	87.7383	6,062.99	81.1805	6,062.99	82.4272	6,062.99	78.9323	6,062.99	80.009	6,062.99	75.1613	6,062.99	62.3651	6,062.99	72.9556	6,062.99	72.5719	6,062.99	72.7419	6,062.99	70.3907	6,062.99	71.0907	6,062.99	68.6846	6,062.99	69.9089	6,062.99	73.1748	6,062.99	66.3883	6,062.99	67.1899	6,062.99	70.688	6,062.99	71.4663	6,062.99	66.5822	6,062.99	69.5312	6,062.99	73.0733
6,276.86	96.0486	6,276.86	95.2162	6,276.86	95.3379	6,276.86	94.2267	6,276.86	95.0168	6,276.86	93.0358	6,276.86	90.0679	6,276.86	91.0569	6,276.86	91.4429	6,276.86	87.7448	6,276.86	80.2611	6,276.86	86.2851	6,276.86	86.5054	6,276.86	82.3961	6,276.86	86.3796	6,276.86	78.481	6,276.86	78.4711	6,276.86	74.979	6,276.86	79.3711	6,276.86	74.2267	6,276.86	73.2659	6,276.86	71.2284	6,276.86	72.9608	6,276.86	70.3071	6,276.86	69.614	6,276.86	69.6816	6,276.86	72.1713	6,276.86	70.3835	6,276.86	69.6298	6,276.86	63.2896	6,276.86	66.6351	6,276.86	65.3677	6,276.86	68.7246	6,276.86	64.8022	6,276.86	67.4604	6,276.86	70.3523
6,498.05	96.3054	6,498.05	95.6859	6,498.05	95.2547	6,498.05	94.2299	6,498.05	95.0892	6,498.05	93.0051	6,498.05	90.0955	6,498.05	90.5668	6,498.05	89.4205	6,498.05	87.9974	6,498.05	81.9951	6,498.05	84.9157	6,498.05	84.778	6,498.05	81.8442	6,498.05	85.8782	6,498.05	78.4673	6,498.05	80.732	6,498.05	75.3178	6,498.05	80.048	6,498.05	73.6765	6,498.05	62.4115	6,498.05	72.2345	6,498.05	68.7399	6,498.05	70.9324	6,498.05	67.1376	6,498.05	66.7748	6,498.05	68.0632	6,498.05	68.1342	6,498.05	65.4353	6,498.05	67.9913	6,498.05	63.6773	6,498.05	64.6167	6,498.05	63.831	6,498.05	64.1714	6,498.05	63.007	6,498.05	70.3784
6,726.56	96.0009	6,726.56	94.994	6,726.56	95.1753	6,726.56	93.7459	6,726.56	94.0274	6,726.56	92.5207	6,726.56	90.5541	6,726.56	89.2529	6,726.56	87.4847	6,726.56	86.7015	6,726.56	82.5481	6,726.56	84.1094	6,726.56	81.9569	6,726.56	80.0669	6,726.56	83.914	6,726.56	75.2357	6,726.56	81.5067	6,726.56	73.4907	6,726.56	79.3468	6,726.56	68.1162	6,726.56	75.2966	6,726.56	71.2229	6,726.56	64.0891	6,726.56	69.0003	6,726.56	56.0683	6,726.56	60.9675	6,726.56	61.3692	6,726.56	69.2609	6,726.56	58.3947	6,726.56	65.4162	6,726.56	62.5086	6,726.56	56.5513	6,726.56	65.3579	6,726.56	52.4288	6,726.56	66.3527	6,726.56	67.2546
6,963.87	95.9396	6,963.87	94.6326	6,963.87	94.5584	6,963.87	93.0754	6,963.87	93.2616	6,963.87	91.6458	6,963.87	91.1336	6,963.87	88.3031	6,963.87	86.6252	6,963.87	85.4818	6,963.87	83.81	6,963.87	82.8921	6,963.87	80.7893	6,963.87	78.367	6,963.87	82.1561	6,963.87	74.6209	6,963.87	81.7956	6,963.87	71.3749	6,963.87	76.2375	6,963.87	70.1958	6,963.87	66.0351	6,963.87	67.3766	6,963.87	56.4631	6,963.87	70.0966	6,963.87	58.3412	6,963.87	64.549	6,963.87	57.5127	6,963.87	67.7594	6,963.87	59.735	6,963.87	63.9408	6,963.87	53.3504	6,963.87	65.6232	6,963.87	67.8151	6,963.87	54.5411	6,963.87	66.9276	6,963.87	66.5104
7,209.96	96.1043	7,209.96	94.6036	7,209.96	95.6095	7,209.96	93.2243	7,209.96	92.7455	7,209.96	90.6661	7,209.96	91.1924	7,209.96	86.9584	7,209.96	86.1733	7,209.96	85.6581	7,209.96	85.0805	7,209.96	82.2408	7,209.96	71.7178	7,209.96	78.4992	7,209.96	83.6252	7,209.96	75.4487	7,209.96	80.8168	7,209.96	69.6715	7,209.96	72.0122	7,209.96	67.2752	7,209.96	73.4758	7,209.96	68.7358	7,209.96	64.8954	7,209.96	67.4954	7,209.96	68.0072	7,209.96	62.9257	7,209.96	63.4976	7,209.96	67.7152	7,209.96	64.0628	7,209.96	64.3811	7,209.96	62.8391	7,209.96	60.8329	7,209.96	65.8259	7,209.96	31.7906	7,209.96	61.6368	7,209.96	65.5916
7,464.84	95.5225	7,464.84	95.21	7,464.84	95.9958	7,464.84	92.6269	7,464.84	94.0625	7,464.84	90.5368	7,464.84	89.7565	7,464.84	87.5043	7,464.84	88.326	7,464.84	84.4024	7,464.84	85.6278	7,464.84	81.6508	7,464.84	72.2468	7,464.84	76.261	7,464.84	82.1694	7,464.84	69.7094	7,464.84	79.5827	7,464.84	66.7007	7,464.84	77.6603	7,464.84	62.9593	7,464.84	75.5826	7,464.84	64.7349	7,464.84	68.1445	7,464.84	63.0449	7,464.84	68.5375	7,464.84	66.9605	7,464.84	64.1012	7,464.84	64.7492	7,464.84	63.5826	7,464.84	58.0923	7,464.84	65.3518	7,464.84	64.3838	7,464.84	63.5524	7,464.84	51.6192	7,464.84	56.9142	7,464.84	64.6602
7,727.05	96.4659	7,727.05	95.6833	7,727.05	96.1408	7,727.05	93.0473	7,727.05	93.8684	7,727.05	91.284	7,727.05	90.0789	7,727.05	87.3802	7,727.05	89.5996	7,727.05	82.9367	7,727.05	85.5044	7,727.05	80.5247	7,727.05	70.8075	7,727.05	73.6272	7,727.05	83.2418	7,727.05	74.6633	7,727.05	76.6995	7,727.05	73.9552	7,727.05	78.1899	7,727.05	69.1848	7,727.05	68.4909	7,727.05	69.7878	7,727.05	68.6756	7,727.05	68.1394	7,727.05	65.326	7,727.05	67.8489	7,727.05	67.0106	7,727.05	65.7947	7,727.05	63.7182	7,727.05	65.0029	7,727.05	66.6773	7,727.05	67.6258	7,727.05	69.1379	7,727.05	63.2454	7,727.05	61.8886	7,727.05	62.9822
7,999.51	95.9253	7,999.51	95.2521	7,999.51	96.1694	7,999.51	93.0873	7,999.51	94.1053	7,999.51	90.6112	7,999.51	90.1217	7,999.51	86.3037	7,999.51	90.7607	7,999.51	82.1564	7,999.51	85.2169	7,999.51	79.1114	7,999.51	69.5504	7,999.51	76.4734	7,999.51	79.364	7,999.51	72.768	7,999.51	73.1263	7,999.51	71.4079	7,999.51	75.4324	7,999.51	68.4566	7,999.51	73.7409	7,999.51	64.4979	7,999.51	71.8309	7,999.51	64.5436	7,999.51	60.3356	7,999.51	69.4032	7,999.51	62.7967	7,999.51	66.9093	7,999.51	61.468	7,999.51	61.2022	7,999.51	59.6494	7,999.51	69.3987	7,999.51	66.3529	7,999.51	62.16	7,999.51	63.0042	7,999.51	62.5433
8,282.23	96.1992	8,282.23	95.5084	8,282.23	95.9918	8,282.23	92.7639	8,282.23	94.5682	8,282.23	90.5705	8,282.23	92.0997	8,282.23	86.0256	8,282.23	88.8641	8,282.23	80.7338	8,282.23	85.6697	8,282.23	79.9265	8,282.23	72.4783	8,282.23	75.9952	8,282.23	77.8911	8,282.23	72.9274	8,282.23	77.1959	8,282.23	71.669	8,282.23	77.5823	8,282.23	68.1634	8,282.23	76.3247	8,282.23	69.2493	8,282.23	71.4718	8,282.23	64.123	8,282.23	58.2983	8,282.23	65.8365	8,282.23	66.042	8,282.23	68.2272	8,282.23	59.8133	8,282.23	66.5835	8,282.23	62.6757	8,282.23	69.4545	8,282.23	68.3138	8,282.23	62.0878	8,282.23	54.5225	8,282.23	62.9459
8,573.73	96.0339	8,573.73	95.3891	8,573.73	96.0662	8,573.73	92.8126	8,573.73	94.7133	8,573.73	90.4665	8,573.73	92.6786	8,573.73	86.8979	8,573.73	86.1422	8,573.73	80.1376	8,573.73	85.7865	8,573.73	80.5577	8,573.73	75.8906	8,573.73	78.874	8,573.73	77.8831	8,573.73	76.2881	8,573.73	81.3356	8,573.73	71.6283	8,573.73	78.885	8,573.73	70.672	8,573.73	73.7096	8,573.73	69.2322	8,573.73	70.759	8,573.73	68.2465	8,573.73	59.0414	8,573.73	68.9083	8,573.73	55.4178	8,573.73	68.3991	8,573.73	68.1633	8,573.73	67.8947	8,573.73	63.0358	8,573.73	70.2394	8,573.73	64.2087	8,573.73	64.5468	8,573.73	57.9205	8,573.73	62.7187
8,876.95	96.5117	8,876.95	95.4826	8,876.95	95.647	8,876.95	93.5741	8,876.95	93.8758	8,876.95	91.1372	8,876.95	91.4353	8,876.95	86.1004	8,876.95	82.932	8,876.95	82.8636	8,876.95	84.0248	8,876.95	80.9876	8,876.95	73.7855	8,876.95	79.1523	8,876.95	74.948	8,876.95	76.0727	8,876.95	80.4858	8,876.95	71.9555	8,876.95	70.8369	8,876.95	69.9167	8,876.95	69.6306	8,876.95	66.7485	8,876.95	61.2091	8,876.95	69.8008	8,876.95	61.7481	8,876.95	68.3998	8,876.95	51.6542	8,876.95	66.9489	8,876.95	62.6306	8,876.95	67.9086	8,876.95	63.8505	8,876.95	69.6129	8,876.95	64.7135	8,876.95	63.6437	8,876.95	52.3835	8,876.95	58.5895
9,188.96	96.1917	9,188.96	95.5534	9,188.96	95.7458	9,188.96	93.724	9,188.96	93.6469	9,188.96	90.9076	9,188.96	90.2418	9,188.96	85.2291	9,188.96	83.4675	9,188.96	82.5377	9,188.96	82.8623	9,188.96	80.822	9,188.96	72.8676	9,188.96	78.0849	9,188.96	75.1874	9,188.96	74.9034	9,188.96	79.6131	9,188.96	70.3035	9,188.96	71.5314	9,188.96	71.8125	9,188.96	68.9274	9,188.96	68.4643	9,188.96	62.2946	9,188.96	66.8435	9,188.96	59.4846	9,188.96	66.4228	9,188.96	59.5258	9,188.96	67.4946	9,188.96	60.3599	9,188.96	66.5986	9,188.96	58.6414	9,188.96	68.3775	9,188.96	63.6645	9,188.96	65.128	9,188.96	58.1258	9,188.96	61.3424
9,514.16	96.2442	9,514.16	95.4305	9,514.16	95.4351	9,514.16	93.2307	9,514.16	93.7541	9,514.16	89.592	9,514.16	88.9541	9,514.16	84.5053	9,514.16	84.0416	9,514.16	81.0633	9,514.16	78.6874	9,514.16	81.4582	9,514.16	78.2514	9,514.16	78.4111	9,514.16	72.6394	9,514.16	73.697	9,514.16	77.7409	9,514.16	71.5668	9,514.16	68.8751	9,514.16	64.781	9,514.16	67.5215	9,514.16	66.3954	9,514.16	64.8618	9,514.16	69.4172	9,514.16	57.4158	9,514.16	63.7138	9,514.16	61.8431	9,514.16	64.513	9,514.16	59.2304	9,514.16	65.2432	9,514.16	58.3517	9,514.16	69.0695	9,514.16	63.2812	9,514.16	63.1194	9,514.16	55.0026	9,514.16	59.2179
9,849.61	95.5616	9,849.61	95.3706	9,849.61	95.4487	9,849.61	92.763	9,849.61	93.3515	9,849.61	88.8065	9,849.61	89.2445	9,849.61	83.3206	9,849.61	85.9641	9,849.61	81.468	9,849.61	74.5756	9,849.61	81.7894	9,849.61	79.8035	9,849.61	78.006	9,849.61	67.2068	9,849.61	73.7835	9,849.61	75.4839	9,849.61	70.7192	9,849.61	63.041	9,849.61	71.871	9,849.61	63.7769	9,849.61	64.9733	9,849.61	61.5876	9,849.61	63.3864	9,849.61	52.279	9,849.61	65.9284	9,849.61	58.7166	9,849.61	62.8149	9,849.61	59.1759	9,849.61	60.8705	9,849.61	57.0009	9,849.61	67.1472	9,849.61	58.0605	9,849.61	66.4411	9,849.61	60.1572	9,849.61	57.6047
10,196.8	95.6463	10,196.8	95.5397	10,196.8	95.1777	10,196.8	92.7827	10,196.8	93.1322	10,196.8	88.1594	10,196.8	90.2178	10,196.8	83.8811	10,196.8	85.2705	10,196.8	82.2748	10,196.8	80.4401	10,196.8	81.6175	10,196.8	79.8814	10,196.8	77.4094	10,196.8	49.323	10,196.8	73.3139	10,196.8	74.1019	10,196.8	66.138	10,196.8	70.1554	10,196.8	64.0843	10,196.8	66.6061	10,196.8	67.6862	10,196.8	61.4285	10,196.8	64.3002	10,196.8	42.9544	10,196.8	61.1465	10,196.8	52.0536	10,196.8	63.5136	10,196.8	59.378	10,196.8	62.6613	10,196.8	45.3909	10,196.8	65.4732	10,196.8	58.3049	10,196.8	64.306	10,196.8	58.8478	10,196.8	50.8504
10,555.7	95.1489	10,555.7	95.0951	10,555.7	94.4551	10,555.7	92.3469	10,555.7	92.1602	10,555.7	88.0451	10,555.7	89.1442	10,555.7	85.0067	10,555.7	83.9621	10,555.7	82.4884	10,555.7	82.4184	10,555.7	81.557	10,555.7	77.5058	10,555.7	77.2059	10,555.7	64.9708	10,555.7	71.1587	10,555.7	73.9073	10,555.7	69.2012	10,555.7	68.3153	10,555.7	67.7003	10,555.7	67.8621	10,555.7	56.9369	10,555.7	49.8798	10,555.7	64.5249	10,555.7	50.234	10,555.7	63.7275	10,555.7	45.5066	10,555.7	59.5714	10,555.7	55.8654	10,555.7	64.3364	10,555.7	46.8098	10,555.7	65.9812	10,555.7	56.25	10,555.7	65.1131	10,555.7	60.9825	10,555.7	58.0766
10,927.7	95.3173	10,927.7	95.1029	10,927.7	94.5828	10,927.7	92.4657	10,927.7	91.3561	10,927.7	88.4911	10,927.7	88.2416	10,927.7	84.739	10,927.7	82.0413	10,927.7	81.6453	10,927.7	82.4239	10,927.7	79.7599	10,927.7	74.6413	10,927.7	74.208	10,927.7	66.8136	10,927.7	69.1236	10,927.7	70.4331	10,927.7	66.4706	10,927.7	58.834	10,927.7	65.3301	10,927.7	62.7601	10,927.7	64.5092	10,927.7	54.7195	10,927.7	61.7796	10,927.7	58.7612	10,927.7	61.3258	10,927.7	48.7927	10,927.7	60.6535	10,927.7	59.4067	10,927.7	64.1175	10,927.7	54.3676	10,927.7	64.6223	10,927.7	57.7696	10,927.7	64.1983	10,927.7	58.6705	10,927.7	56.0163
11,313	95.969	11,313	95.9709	11,313	95.1982	11,313	92.764	11,313	92.2589	11,313	88.0614	11,313	86.2528	11,313	83.0975	11,313	79.9907	11,313	80.7454	11,313	79.6325	11,313	77.0778	11,313	72.0215	11,313	73.6228	11,313	61.2547	11,313	68.3246	11,313	66.0377	11,313	60.3001	11,313	60.7062	11,313	51.8027	11,313	63.4095	11,313	61.746	11,313	59.5661	11,313	63.34	11,313	57.705	11,313	61.764	11,313	56.3809	11,313	62.5908	11,313	57.6483	11,313	62.0903	11,313	50.0665	11,313	63.6938	11,313	59.7565	11,313	62.9212	11,313	60.278	11,313	54.0391
11,712.9	95.9862	11,712.9	95.757	11,712.9	94.8291	11,712.9	92.2752	11,712.9	91.3157	11,712.9	87.2201	11,712.9	86.8353	11,712.9	83.922	11,712.9	80.3626	11,712.9	81.3988	11,712.9	80.001	11,712.9	79.3541	11,712.9	75.3335	11,712.9	73.9887	11,712.9	64.5273	11,712.9	69.9424	11,712.9	68.0586	11,712.9	70.6036	11,712.9	63.9101	11,712.9	66.9894	11,712.9	67.4059	11,712.9	62.6219	11,712.9	61.6112	11,712.9	64.6624	11,712.9	58.3262	11,712.9	64.6828	11,712.9	52.6354	11,712.9	63.9575	11,712.9	59.801	11,712.9	63.049	11,712.9	46.3056	11,712.9	63.9738	11,712.9	57.4358	11,712.9	65.1137	11,712.9	59.9554	11,712.9	53.3344
12,126	95.8233	12,126	95.2669	12,126	94.4899	12,126	91.7711	12,126	90.9148	12,126	87.2274	12,126	88.2547	12,126	84.8901	12,126	81.6225	12,126	82.0382	12,126	79.9981	12,126	79.6027	12,126	74.6707	12,126	74.9851	12,126	67.5072	12,126	71.2493	12,126	62.3014	12,126	69.1612	12,126	58.4573	12,126	61.5183	12,126	66.8657	12,126	66.4199	12,126	63.7261	12,126	65.2246	12,126	56.2406	12,126	63.9691	12,126	46.8787	12,126	64.1137	12,126	53.7881	12,126	61.6275	12,126	51.2698	12,126	62.7488	12,126	60.7822	12,126	64.2631	12,126	60.2662	12,126	53.4333
12,553.7	95.4431	12,553.7	94.9267	12,553.7	93.9331	12,553.7	91.1654	12,553.7	90.3634	12,553.7	87.533	12,553.7	87.6744	12,553.7	84.5529	12,553.7	83.4231	12,553.7	81.5353	12,553.7	78.5971	12,553.7	79.1668	12,553.7	72.8588	12,553.7	74.7277	12,553.7	70.0707	12,553.7	70.0348	12,553.7	54.275	12,553.7	62.4673	12,553.7	55.9897	12,553.7	59.3695	12,553.7	67.208	12,553.7	62.2586	12,553.7	67.2872	12,553.7	63.3851	12,553.7	56.7843	12,553.7	63.5239	12,553.7	38.4481	12,553.7	60.4528	12,553.7	44.5931	12,553.7	61.181	12,553.7	49.2858	12,553.7	59.2625	12,553.7	59.688	12,553.7	61.52	12,553.7	58.4067	12,553.7	53.1917
12,996.1	95.5039	12,996.1	94.8852	12,996.1	94.0858	12,996.1	91.4703	12,996.1	90.465	12,996.1	87.8812	12,996.1	86.846	12,996.1	85.028	12,996.1	84.3896	12,996.1	81.627	12,996.1	78.0834	12,996.1	79.7247	12,996.1	71.6108	12,996.1	74.1994	12,996.1	70.6247	12,996.1	69.1245	12,996.1	50.9816	12,996.1	68.5348	12,996.1	55.3907	12,996.1	65.0755	12,996.1	68.778	12,996.1	62.868	12,996.1	67.206	12,996.1	63.0301	12,996.1	58.347	12,996.1	63.7013	12,996.1	53.8166	12,996.1	60.7603	12,996.1	50.9984	12,996.1	63.2669	12,996.1	50.0562	12,996.1	60.6681	12,996.1	55.5101	12,996.1	61.8634	12,996.1	57.6831	12,996.1	51.9362
13,454.6	95.2702	13,454.6	94.6422	13,454.6	93.9216	13,454.6	91.6857	13,454.6	91.1356	13,454.6	88.7563	13,454.6	88.4008	13,454.6	84.0526	13,454.6	84.3034	13,454.6	80.016	13,454.6	76.8489	13,454.6	77.5384	13,454.6	72.3621	13,454.6	72.1395	13,454.6	71.8994	13,454.6	64.9492	13,454.6	54.1561	13,454.6	66.9182	13,454.6	57.1899	13,454.6	60.022	13,454.6	68.3897	13,454.6	61.017	13,454.6	67.3104	13,454.6	60.6649	13,454.6	59.2267	13,454.6	61.6374	13,454.6	55.839	13,454.6	59.6	13,454.6	52.6843	13,454.6	60.1725	13,454.6	46.6765	13,454.6	58.7559	13,454.6	46.8866	13,454.6	57.3909	13,454.6	56.028	13,454.6	49.6398
13,929.2	96.1	13,929.2	95.1838	13,929.2	94.2972	13,929.2	91.8944	13,929.2	90.8577	13,929.2	88.4578	13,929.2	86.7874	13,929.2	83.7873	13,929.2	79.7135	13,929.2	78.8092	13,929.2	73.2694	13,929.2	75.521	13,929.2	73.5683	13,929.2	70.7812	13,929.2	73.2009	13,929.2	67.0453	13,929.2	63.5178	13,929.2	65.0356	13,929.2	60.4803	13,929.2	55.9704	13,929.2	67.525	13,929.2	59.0169	13,929.2	68.1682	13,929.2	60.4573	13,929.2	56.7763	13,929.2	61.7093	13,929.2	52.1944	13,929.2	59.4072	13,929.2	45.8123	13,929.2	57.6687	13,929.2	41.7887	13,929.2	56.0322	13,929.2	50.5879	13,929.2	56.2681	13,929.2	57.795	13,929.2	47.7611
14,419.9	95.7743	14,419.9	94.5471	14,419.9	93.7839	14,419.9	91.825	14,419.9	89.598	14,419.9	88.3934	14,419.9	85.8765	14,419.9	83.5385	14,419.9	79.8397	14,419.9	77.3501	14,419.9	76.9531	14,419.9	71.8767	14,419.9	76.8641	14,419.9	68.7537	14,419.9	73.4057	14,419.9	65.3453	14,419.9	67.0431	14,419.9	61.0788	14,419.9	51.0278	14,419.9	54.572	14,419.9	65.6752	14,419.9	56.847	14,419.9	68.0302	14,419.9	57.2134	14,419.9	50.4937	14,419.9	57.1069	14,419.9	38.4514	14,419.9	56.0634	14,419.9	51.2748	14,419.9	51.8228	14,419.9	48.6533	14,419.9	51.5535	14,419.9	56.5247	14,419.9	55.3235	14,419.9	58.0445	14,419.9	47.9008
14,928.2	95.3998	14,928.2	94.3692	14,928.2	93.8445	14,928.2	91.7941	14,928.2	90.0815	14,928.2	87.4653	14,928.2	85.9915	14,928.2	80.616	14,928.2	81.7192	14,928.2	71.095	14,928.2	77.5142	14,928.2	69.8701	14,928.2	74.1858	14,928.2	70.7243	14,928.2	70.5893	14,928.2	66.2852	14,928.2	57.6549	14,928.2	61.9598	14,928.2	53.4328	14,928.2	57.782	14,928.2	65.1491	14,928.2	57.7612	14,928.2	65.7314	14,928.2	56.7873	14,928.2	56.2886	14,928.2	57.0528	14,928.2	48.4426	14,928.2	53.9759	14,928.2	49.9763	14,928.2	50.8644	14,928.2	48.574	14,928.2	50.3107	14,928.2	53.3899	14,928.2	53.0749	14,928.2	55.6072	14,928.2	44.6085
15,455.6	95.366	15,455.6	94.2631	15,455.6	93.8229	15,455.6	91.3466	15,455.6	89.8643	15,455.6	86.3439	15,455.6	86.181	15,455.6	78.8444	15,455.6	79.9233	15,455.6	73.1447	15,455.6	74.2379	15,455.6	74.086	15,455.6	71.4625	15,455.6	72.3588	15,455.6	70.4123	15,455.6	66.6875	15,455.6	65.8003	15,455.6	63.8139	15,455.6	52.2378	15,455.6	58.332	15,455.6	65.3955	15,455.6	60.374	15,455.6	65.7905	15,455.6	58.5679	15,455.6	54.826	15,455.6	57.5171	15,455.6	45.2209	15,455.6	54.6193	15,455.6	50.6907	15,455.6	52.4299	15,455.6	45.0166	15,455.6	51.7077	15,455.6	50.7864	15,455.6	51.6614	15,455.6	56.5946	15,455.6	47.6542
16,000.5	94.3152	16,000.5	93.6183	16,000.5	92.9775	16,000.5	90.7787	16,000.5	89.6333	16,000.5	86.0816	16,000.5	85.2556	16,000.5	77.9813	16,000.5	76.0413	16,000.5	70.2817	16,000.5	69.527	16,000.5	69.1345	16,000.5	71.6102	16,000.5	67.8191	16,000.5	65.9494	16,000.5	60.7071	16,000.5	62.684	16,000.5	58.4281	16,000.5	48.1379	16,000.5	50.3358	16,000.5	64.777	16,000.5	54.7991	16,000.5	64.6146	16,000.5	52.6353	16,000.5	50.6899	16,000.5	50.82	16,000.5	44.3543	16,000.5	42.1579	16,000.5	48.0625	16,000.5	39.222	16,000.5	41.6588	16,000.5	43.8617	16,000.5	47.1243	16,000.5	36.1317	16,000.5	52.7689	16,000.5	49.5256
16,564.5	93.7469	16,564.5	92.6848	16,564.5	91.5406	16,564.5	89.04	16,564.5	85.7752	16,564.5	83.421	16,564.5	78.274	16,564.5	72.3759	16,564.5	71.0486	16,564.5	69.7497	16,564.5	76.5403	16,564.5	72.0242	16,564.5	75.3122	16,564.5	67.8187	16,564.5	72.2345	16,564.5	63.2046	16,564.5	65.9234	16,564.5	55.9877	16,564.5	45.578	16,564.5	53.4254	16,564.5	66.0234	16,564.5	54.8933	16,564.5	66.0049	16,564.5	55.5028	16,564.5	52.7913	16,564.5	55.6714	16,564.5	51.8387	16,564.5	50.5387	16,564.5	52.5869	16,564.5	44.6591	16,564.5	42.7874	16,564.5	52.1601	16,564.5	43.8744	16,564.5	52.1043	16,564.5	53.7011	16,564.5	40.0755
17,148.9	93.7324	17,148.9	93.6267	17,148.9	92.0397	17,148.9	90.6934	17,148.9	88.3236	17,148.9	85.3609	17,148.9	84.752	17,148.9	76.5005	17,148.9	78.8633	17,148.9	74.8877	17,148.9	77.8738	17,148.9	73.7267	17,148.9	74.643	17,148.9	68.0921	17,148.9	70.7631	17,148.9	62.7887	17,148.9	68.191	17,148.9	60.2446	17,148.9	57.1144	17,148.9	56.3011	17,148.9	66.3387	17,148.9	56.2685	17,148.9	68.9143	17,148.9	54.1355	17,148.9	52.354	17,148.9	49.9395	17,148.9	53.4901	17,148.9	40.8965	17,148.9	54.0633	17,148.9	47.7524	17,148.9	44.9879	17,148.9	40.0272	17,148.9	46.9354	17,148.9	38.535	17,148.9	53.5258	17,148.9	42.9863
17,752.4	94.0953	17,752.4	93.753	17,752.4	93.1273	17,752.4	90.4881	17,752.4	89.9154	17,752.4	84.7653	17,752.4	84.5394	17,752.4	75.2412	17,752.4	78.5564	17,752.4	70.0605	17,752.4	75.6227	17,752.4	66.8901	17,752.4	72.6598	17,752.4	62.1158	17,752.4	61.8041	17,752.4	55.3858	17,752.4	65.0797	17,752.4	54.5968	17,752.4	56.4019	17,752.4	50.3613	17,752.4	64.9224	17,752.4	50.5572	17,752.4	67.9968	17,752.4	51.1744	17,752.4	51.4125	17,752.4	49.8839	17,752.4	49.6002	17,752.4	39.9831	17,752.4	52.6751	17,752.4	49.9651	17,752.4	43.3003	17,752.4	44.8937	17,752.4	38.4139	17,752.4	51.1008	17,752.4	45.4786	17,752.4	44.5833
18,379.4	94.6325	18,379.4	93.8072	18,379.4	93.2475	18,379.4	89.7153	18,379.4	89.0644	18,379.4	82.5383	18,379.4	82.4925	18,379.4	66.5751	18,379.4	72.896	18,379.4	62.2704	18,379.4	67.2814	18,379.4	65.3795	18,379.4	62.9252	18,379.4	60.5624	18,379.4	59.1575	18,379.4	56.6369	18,379.4	52.7388	18,379.4	45.7983	18,379.4	47.5968	18,379.4	47.1021	18,379.4	58.8477	18,379.4	48.5617	18,379.4	63.0327	18,379.4	45.9881	18,379.4	45.2082	18,379.4	36.4991	18,379.4	43.052	18,379.4	37.6838	18,379.4	44.6311	18,379.4	34.6741	18,379.4	35.7833	18,379.4	38.9022	18,379.4	35.9153	18,379.4	45.7003	18,379.4	38.4635	18,379.4	39.1517
19,026.9	94.4328	19,026.9	93.6723	19,026.9	92.598	19,026.9	89.1321	19,026.9	87.9061	19,026.9	79.9528	19,026.9	79.7533	19,026.9	65.6474	19,026.9	66.716	19,026.9	69.8604	19,026.9	67.1974	19,026.9	69.3058	19,026.9	65.8589	19,026.9	63.3844	19,026.9	58.5311	19,026.9	59.0492	19,026.9	50.891	19,026.9	53.2839	19,026.9	45.6019	19,026.9	48.8178	19,026.9	65.3202	19,026.9	53.182	19,026.9	65.8104	19,026.9	48.987	19,026.9	49.2998	19,026.9	39.1156	19,026.9	46.0933	19,026.9	34.9041	19,026.9	41.1877	19,026.9	47.149	19,026.9	31.5625	19,026.9	37.4402	19,026.9	34.7776	19,026.9	33.8406	19,026.9	39.0165	19,026.9	37.4921
19,697.8	93.7603	19,697.8	93.0334	19,697.8	91.7829	19,697.8	88.3569	19,697.8	87.0086	19,697.8	78.5035	19,697.8	78.9849	19,697.8	63.5374	19,697.8	67.3682	19,697.8	66.8257	19,697.8	66.7298	19,697.8	67.3492	19,697.8	64.1543	19,697.8	61.7477	19,697.8	54.2485	19,697.8	55.8951	19,697.8	48.2002	19,697.8	49.0917	19,697.8	44.5012	19,697.8	48.1442	19,697.8	65.0713	19,697.8	50.8908	19,697.8	65.488	19,697.8	45.1109	19,697.8	49.8251	19,697.8	41.7091	19,697.8	44.7281	19,697.8	31.2294	19,697.8	45.4377	19,697.8	49.849	19,697.8	29.4714	19,697.8	40.3121	19,697.8	40.5593	19,697.8	42.4572	19,697.8	43.259	19,697.8	40.4118
19,999.5	93.707	19,999.5	92.7892	19,999.5	91.7897	19,999.5	87.7005	19,999.5	86.6997	19,999.5	76.7563	19,999.5	78.0513	19,999.5	65.5269	19,999.5	65.7416	19,999.5	67.8792	19,999.5	65.4286	19,999.5	67.002	19,999.5	60.4225	19,999.5	63.1531	19,999.5	49.9889	19,999.5	55.7918	19,999.5	58.3562	19,999.5	56.5271	19,999.5	55.4322	19,999.5	51.3764	19,999.5	62.3113	19,999.5	50.0843	19,999.5	59.9448	19,999.5	58.4756	19,999.5	60.8201	19,999.5	59.3969	19,999.5	46.7256	19,999.5	49.8943	19,999.5	37.6123	19,999.5	61.3858	19,999.5	60.0439	19,999.5	51.1339	19,999.5	57.9504	19,999.5	44.579	19,999.5	60.4713	19,999.5	51.3129
