"SPL Horizontal"
"On-Axis"		"10°"		"-10°"		"20°"		"-20°"		"30°"		"-30°"		"40°"		"-40°"		"50°"		"-50°"		"60°"		"-60°"		"70°"		"-70°"		"80°"		"-80°"		"90°"		"-90°"		"100°"		"-100°"		"110°"		"-110°"		"120°"		"-120°"		"130°"		"-130°"		"140°"		"-140°"		"150°"		"-150°"		"160°"		"-160°"		"170°"		"-170°"		"180°"
"Frequency [Hz]"	"Sound Pessure Level [dB]  / [2.83V 1m] "	"Frequency [Hz]"	"Sound Pessure Level [dB]  / [2.83V 1m] "	"Frequency [Hz]"	"Sound Pessure Level [dB]  / [2.83V 1m] "	"Frequency [Hz]"	"Sound Pessure Level [dB]  / [2.83V 1m] "	"Frequency [Hz]"	"Sound Pessure Level [dB]  / [2.83V 1m] "	"Frequency [Hz]"	"Sound Pessure Level [dB]  / [2.83V 1m] "	"Frequency [Hz]"	"Sound Pessure Level [dB]  / [2.83V 1m] "	"Frequency [Hz]"	"Sound Pessure Level [dB]  / [2.83V 1m] "	"Frequency [Hz]"	"Sound Pessure Level [dB]  / [2.83V 1m] "	"Frequency [Hz]"	"Sound Pessure Level [dB]  / [2.83V 1m] "	"Frequency [Hz]"	"Sound Pessure Level [dB]  / [2.83V 1m] "	"Frequency [Hz]"	"Sound Pessure Level [dB]  / [2.83V 1m] "	"Frequency [Hz]"	"Sound Pessure Level [dB]  / [2.83V 1m] "	"Frequency [Hz]"	"Sound Pessure Level [dB]  / [2.83V 1m] "	"Frequency [Hz]"	"Sound Pessure Level [dB]  / [2.83V 1m] "	"Frequency [Hz]"	"Sound Pessure Level [dB]  / [2.83V 1m] "	"Frequency [Hz]"	"Sound Pessure Level [dB]  / [2.83V 1m] "	"Frequency [Hz]"	"Sound Pessure Level [dB]  / [2.83V 1m] "	"Frequency [Hz]"	"Sound Pessure Level [dB]  / [2.83V 1m] "	"Frequency [Hz]"	"Sound Pessure Level [dB]  / [2.83V 1m] "	"Frequency [Hz]"	"Sound Pessure Level [dB]  / [2.83V 1m] "	"Frequency [Hz]"	"Sound Pessure Level [dB]  / [2.83V 1m] "	"Frequency [Hz]"	"Sound Pessure Level [dB]  / [2.83V 1m] "	"Frequency [Hz]"	"Sound Pessure Level [dB]  / [2.83V 1m] "	"Frequency [Hz]"	"Sound Pessure Level [dB]  / [2.83V 1m] "	"Frequency [Hz]"	"Sound Pessure Level [dB]  / [2.83V 1m] "	"Frequency [Hz]"	"Sound Pessure Level [dB]  / [2.83V 1m] "	"Frequency [Hz]"	"Sound Pessure Level [dB]  / [2.83V 1m] "	"Frequency [Hz]"	"Sound Pessure Level [dB]  / [2.83V 1m] "	"Frequency [Hz]"	"Sound Pessure Level [dB]  / [2.83V 1m] "	"Frequency [Hz]"	"Sound Pessure Level [dB]  / [2.83V 1m] "	"Frequency [Hz]"	"Sound Pessure Level [dB]  / [2.83V 1m] "	"Frequency [Hz]"	"Sound Pessure Level [dB]  / [2.83V 1m] "	"Frequency [Hz]"	"Sound Pessure Level [dB]  / [2.83V 1m] "	"Frequency [Hz]"	"Sound Pessure Level [dB]  / [2.83V 1m] "	"Frequency [Hz]"	"Sound Pessure Level [dB]  / [2.83V 1m] "
20.5078	60.6444	20.5078	60.1679	20.5078	61.1831	20.5078	59.7663	20.5078	61.7652	20.5078	59.4465	20.5078	62.3653	20.5078	59.2101	20.5078	62.953	20.5078	59.0556	20.5078	63.4942	20.5078	58.9796	20.5078	63.9554	20.5078	58.9774	20.5078	64.3073	20.5078	59.0435	20.5078	64.5296	20.5078	59.1703	20.5078	64.613	20.5078	59.3478	20.5078	64.5593	20.5078	59.5641	20.5078	64.3798	20.5078	59.8066	20.5078	64.0924	20.5078	60.0645	20.5078	63.7197	20.5078	60.3305	20.5078	63.2881	20.5078	60.6034	20.5078	62.827	20.5078	60.8887	20.5078	62.3667	20.5078	61.1974	20.5078	61.9334	20.5078	61.5428
21.9727	51.0306	21.9727	50.928	21.9727	51.1588	21.9727	50.8389	21.9727	51.333	21.9727	50.7607	21.9727	51.5762	21.9727	50.6994	21.9727	51.9048	21.9727	50.6671	21.9727	52.32	21.9727	50.6798	21.9727	52.8042	21.9727	50.7543	21.9727	53.3248	21.9727	50.9061	21.9727	53.842	21.9727	51.1462	21.9727	54.3152	21.9727	51.4775	21.9727	54.7078	21.9727	51.8892	21.9727	54.992	21.9727	52.3556	21.9727	55.1535	21.9727	52.8399	21.9727	55.1954	21.9727	53.3027	21.9727	55.138	21.9727	53.7113	21.9727	55.0138	21.9727	54.0465	21.9727	54.857	21.9727	54.3081	21.9727	54.6901	21.9727	54.5138
23.4375	58.0477	23.4375	57.7061	23.4375	58.506	23.4375	57.4877	23.4375	59.0617	23.4375	57.3883	23.4375	59.6831	23.4375	57.3964	23.4375	60.3297	23.4375	57.4975	23.4375	60.957	23.4375	57.6765	23.4375	61.523	23.4375	57.919	23.4375	61.9945	23.4375	58.2122	23.4375	62.3519	23.4375	58.5451	23.4375	62.5913	23.4375	58.9091	23.4375	62.7233	23.4375	59.2976	23.4375	62.768	23.4375	59.705	23.4375	62.749	23.4375	60.1239	23.4375	62.6869	23.4375	60.5433	23.4375	62.5954	23.4375	60.9486	23.4375	62.4793	23.4375	61.3234	23.4375	62.3358	23.4375	61.6536	23.4375	62.1564	23.4375	61.9312
24.9023	49.9962	24.9023	49.738	24.9023	50.156	24.9023	49.4029	24.9023	50.2071	24.9023	49.0291	24.9023	50.148	24.9023	48.6785	24.9023	49.9859	24.9023	48.443	24.9023	49.7431	24.9023	48.436	24.9023	49.4719	24.9023	48.7549	24.9023	49.2757	24.9023	49.4231	24.9023	49.3085	24.9023	50.3681	24.9023	49.7054	24.9023	51.4627	24.9023	50.4722	24.9023	52.5846	24.9023	51.4737	24.9023	53.6439	24.9023	52.5406	24.9023	54.5815	24.9023	53.5526	24.9023	55.3583	24.9023	54.4481	24.9023	55.9472	24.9023	55.2002	24.9023	56.3306	24.9023	55.795	24.9023	56.5008	24.9023	56.22	24.9023	56.4603
26.3672	54.7441	26.3672	54.9546	26.3672	54.7148	26.3672	55.3006	26.3672	54.901	26.3672	55.7408	26.3672	55.3058	26.3672	56.245	26.3672	55.8923	26.3672	56.7935	26.3672	56.5954	26.3672	57.3746	26.3672	57.3448	26.3672	57.9808	26.3672	58.0857	26.3672	58.6059	26.3672	58.7877	26.3672	59.2428	26.3672	59.4427	26.3672	59.8813	26.3672	60.0551	26.3672	60.5072	26.3672	60.6305	26.3672	61.1025	26.3672	61.1683	26.3672	61.6468	26.3672	61.6604	26.3672	62.1193	26.3672	62.0944	26.3672	62.5012	26.3672	62.4564	26.3672	62.7778	26.3672	62.7332	26.3672	62.9397	26.3672	62.9125	26.3672	62.9837
27.832	53.4264	27.832	53.6273	27.832	53.1436	27.832	53.7762	27.832	52.7647	27.832	53.9176	27.832	52.2936	27.832	54.1089	27.832	51.7649	27.832	54.4115	27.832	51.2695	27.832	54.8743	27.832	50.9844	27.832	55.5158	27.832	51.147	27.832	56.3158	27.832	51.901	27.832	57.2241	27.832	53.1483	27.832	58.1777	27.832	54.6375	27.832	59.1156	27.832	56.1473	27.832	59.9862	27.832	57.5499	27.832	60.7483	27.832	58.7874	27.832	61.3709	27.832	59.8389	27.832	61.8319	27.832	60.6987	27.832	62.1163	27.832	61.3662	27.832	62.2154	27.832	61.8415	27.832	62.1244
29.2969	58.4208	29.2969	58.6264	29.2969	58.23	29.2969	58.8422	29.2969	58.0782	29.2969	59.0783	29.2969	58.0113	29.2969	59.3533	29.2969	58.0904	29.2969	59.6889	29.2969	58.371	29.2969	60.1038	29.2969	58.8758	29.2969	60.6091	29.2969	59.58	29.2969	61.2043	29.2969	60.4224	29.2969	61.8756	29.2969	61.332	29.2969	62.5975	29.2969	62.2477	29.2969	63.337	29.2969	63.1258	29.2969	64.0588	29.2969	63.9368	29.2969	64.7295	29.2969	64.6603	29.2969	65.3198	29.2969	65.2802	29.2969	65.8054	29.2969	65.7821	29.2969	66.1663	29.2969	66.1529	29.2969	66.3878	29.2969	66.3816	29.2969	66.4607
30.7617	60.4419	30.7617	60.6761	30.7617	60.2323	30.7617	60.9403	30.7617	60.0541	30.7617	61.2475	30.7617	59.9306	30.7617	61.6149	30.7617	59.9038	30.7617	62.0584	30.7617	60.0311	30.7617	62.5878	30.7617	60.3698	30.7617	63.2031	30.7617	60.9499	30.7617	63.8926	30.7617	61.7534	30.7617	64.6345	30.7617	62.7174	30.7617	65.4002	30.7617	63.7589	30.7617	66.1585	30.7617	64.8009	30.7617	66.8781	30.7617	65.7847	30.7617	67.5298	30.7617	66.6708	30.7617	68.0872	30.7617	67.4336	30.7617	68.5283	30.7617	68.0569	30.7617	68.8354	30.7617	68.5296	30.7617	68.9954	30.7617	68.845	30.7617	69.0001
32.2266	64.6966	32.2266	64.7863	32.2266	64.6143	32.2266	64.889	32.2266	64.5418	32.2266	65.0168	32.2266	64.4911	32.2266	65.1865	32.2266	64.4849	32.2266	65.4172	32.2266	64.5554	32.2266	65.7261	32.2266	64.7395	32.2266	66.124	32.2266	65.0676	32.2266	66.6117	32.2266	65.5507	32.2266	67.1774	32.2266	66.1724	32.2266	67.7988	32.2266	66.8925	32.2266	68.4458	32.2266	67.6591	32.2266	69.085	32.2266	68.4215	32.2266	69.6826	32.2266	69.1374	32.2266	70.2072	32.2266	69.7739	32.2266	70.6314	32.2266	70.3063	32.2266	70.9337	32.2266	70.7159	32.2266	71.0988	32.2266	70.9894	32.2266	71.1181
33.6914	67.8976	33.6914	67.9526	33.6914	67.8543	33.6914	68.0247	33.6914	67.8233	33.6914	68.1234	33.6914	67.8115	33.6914	68.2618	33.6914	67.8326	33.6914	68.4537	33.6914	67.9063	33.6914	68.7114	33.6914	68.0561	33.6914	69.0423	33.6914	68.3034	33.6914	69.4463	33.6914	68.6611	33.6914	69.9146	33.6914	69.1264	33.6914	70.4303	33.6914	69.679	33.6914	70.9701	33.6914	70.2859	33.6914	71.5065	33.6914	70.9084	33.6914	72.0109	33.6914	71.5089	33.6914	72.4559	33.6914	72.0543	33.6914	72.8176	33.6914	72.5177	33.6914	73.0765	33.6914	72.8777	33.6914	73.2181	33.6914	73.1192	33.6914	73.2335
35.1562	70.5056	35.1562	70.5305	35.1562	70.4827	35.1562	70.5624	35.1562	70.4632	35.1562	70.6114	35.1562	70.4543	35.1562	70.6925	35.1562	70.4701	35.1562	70.8231	35.1562	70.5303	35.1562	71.0209	35.1562	70.6579	35.1562	71.2995	35.1562	70.8749	35.1562	71.6646	35.1562	71.1957	35.1562	72.1109	35.1562	71.6214	35.1562	72.6215	35.1562	72.1368	35.1562	73.1703	35.1562	72.7135	35.1562	73.7257	35.1562	73.3145	35.1562	74.2545	35.1562	73.9013	35.1562	74.7257	35.1562	74.4382	35.1562	75.1127	35.1562	74.895	35.1562	75.3939	35.1562	75.2481	35.1562	75.5542	35.1562	75.4811	35.1562	75.5842
36.6211	72.1516	36.6211	72.1912	36.6211	72.1333	36.6211	72.2563	36.6211	72.1373	36.6211	72.355	36.6211	72.1699	36.6211	72.4988	36.6211	72.2426	36.6211	72.6997	36.6211	72.3709	36.6211	72.9681	36.6211	72.5721	36.6211	73.3098	36.6211	72.8611	36.6211	73.7235	36.6211	73.2451	36.6211	74.2001	36.6211	73.7196	36.6211	74.7227	36.6211	74.2668	36.6211	75.2688	36.6211	74.8581	36.6211	75.812	36.6211	75.459	36.6211	76.325	36.6211	76.0347	36.6211	76.7813	36.6211	76.5539	36.6211	77.1573	36.6211	76.9903	36.6211	77.4331	36.6211	77.3237	36.6211	77.594	36.6211	77.5399	36.6211	77.6308
38.0859	75.5968	38.0859	75.5768	38.0859	75.6427	38.0859	75.5862	38.0859	75.7139	38.0859	75.6306	38.0859	75.812	38.0859	75.7178	38.0859	75.9408	38.0859	75.8558	38.0859	76.1051	38.0859	76.0518	38.0859	76.3101	38.0859	76.3102	38.0859	76.5602	38.0859	76.6309	38.0859	76.8577	38.0859	77.0081	38.0859	77.2018	38.0859	77.4305	38.0859	77.5873	38.0859	77.8816	38.0859	78.0031	38.0859	78.3406	38.0859	78.4322	38.0859	78.7845	38.0859	78.8526	38.0859	79.1892	38.0859	79.2393	38.0859	79.5322	38.0859	79.5678	38.0859	79.7937	38.0859	79.8168	38.0859	79.9591	38.0859	79.9705	38.0859	80.019
39.5508	77.5018	39.5508	77.5224	39.5508	77.5065	39.5508	77.5705	39.5508	77.5363	39.5508	77.6508	39.5508	77.5941	39.5508	77.7691	39.5508	77.6856	39.5508	77.9315	39.5508	77.8187	39.5508	78.1432	39.5508	78.0025	39.5508	78.4074	39.5508	78.2455	39.5508	78.7236	39.5508	78.5521	39.5508	79.0872	39.5508	78.9208	39.5508	79.4889	39.5508	79.3417	39.5508	79.9151	39.5508	79.7975	39.5508	80.3482	39.5508	80.2647	39.5508	80.7677	39.5508	80.7166	39.5508	81.1519	39.5508	81.1264	39.5508	81.4787	39.5508	81.4699	39.5508	81.7285	39.5508	81.7278	39.5508	81.8857	39.5508	81.8869	39.5508	81.94
41.0156	80.0639	41.0156	80.0608	41.0156	80.0884	41.0156	80.0802	41.0156	80.1352	41.0156	80.1244	41.0156	80.2064	41.0156	80.1973	41.0156	80.305	41.0156	80.3034	41.0156	80.4343	41.0156	80.4473	41.0156	80.597	41.0156	80.6326	41.0156	80.7943	41.0156	80.8616	41.0156	81.0264	41.0156	81.1335	41.0156	81.291	41.0156	81.4436	41.0156	81.5836	41.0156	81.7818	41.0156	81.8962	41.0156	82.1328	41.0156	82.2169	41.0156	82.4768	41.0156	82.5299	41.0156	82.7918	41.0156	82.8177	41.0156	83.0569	41.0156	83.0631	41.0156	83.2552	41.0156	83.2515	41.0156	83.3759	41.0156	83.3713	41.0156	83.4144
42.4805	81.3025	42.4805	81.3215	42.4805	81.303	42.4805	81.3615	42.4805	81.3228	42.4805	81.4252	42.4805	81.3631	42.4805	81.516	42.4805	81.426	42.4805	81.6382	42.4805	81.5145	42.4805	81.7955	42.4805	81.6321	42.4805	81.9907	42.4805	81.7822	42.4805	82.2243	42.4805	81.9678	42.4805	82.4937	42.4805	82.1899	42.4805	82.7918	42.4805	82.4472	42.4805	83.1073	42.4805	82.7344	42.4805	83.4246	42.4805	83.0416	42.4805	83.7255	42.4805	83.355	42.4805	83.9913	42.4805	83.6574	42.4805	84.2045	42.4805	83.9305	42.4805	84.3511	42.4805	84.1567	42.4805	84.4214	42.4805	84.3206	42.4805	84.411
43.9453	82.777	43.9453	82.7992	43.9453	82.7757	43.9453	82.8433	43.9453	82.7956	43.9453	82.9112	43.9453	82.8377	43.9453	83.0054	43.9453	82.9039	43.9453	83.1289	43.9453	82.9968	43.9453	83.2844	43.9453	83.1191	43.9453	83.4738	43.9453	83.2732	43.9453	83.6972	43.9453	83.4607	43.9453	83.9521	43.9453	83.6818	43.9453	84.2326	43.9453	83.9343	43.9453	84.5293	43.9453	84.2128	43.9453	84.8291	43.9453	84.5086	43.9453	85.1162	43.9453	84.8089	43.9453	85.3735	43.9453	85.0981	43.9453	85.584	43.9453	85.3588	43.9453	85.7331	43.9453	85.5735	43.9453	85.8096	43.9453	85.7269	43.9453	85.8076
45.4102	84.0571	45.4102	84.0722	45.4102	84.0641	45.4102	84.1101	45.4102	84.0932	45.4102	84.172	45.4102	84.145	45.4102	84.2596	45.4102	84.2205	45.4102	84.375	45.4102	84.3208	45.4102	84.5197	45.4102	84.4472	45.4102	84.6948	45.4102	84.6008	45.4102	84.9	45.4102	84.782	45.4102	85.133	45.4102	84.9905	45.4102	85.3892	45.4102	85.2244	45.4102	85.6608	45.4102	85.4792	45.4102	85.9372	45.4102	85.7475	45.4102	86.205	45.4102	86.0184	45.4102	86.4486	45.4102	86.278	45.4102	86.6523	45.4102	86.5103	45.4102	86.8013	45.4102	86.6995	45.4102	86.8843	45.4102	86.831	45.4102	86.8944
46.875	85.1604	46.875	85.1784	46.875	85.1652	46.875	85.2195	46.875	85.1931	46.875	85.284	46.875	85.2445	46.875	85.3729	46.875	85.3202	46.875	85.4869	46.875	85.4212	46.875	85.6271	46.875	85.5481	46.875	85.7939	46.875	85.7014	46.875	85.9871	46.875	85.8811	46.875	86.2048	46.875	86.086	46.875	86.4433	46.875	86.3133	46.875	86.6964	46.875	86.5584	46.875	86.9548	46.875	86.8137	46.875	87.2064	46.875	87.0691	46.875	87.4369	46.875	87.3117	46.875	87.6313	46.875	87.5271	46.875	87.7756	46.875	87.7006	46.875	87.8585	46.875	87.8192	46.875	87.8734
48.3398	86.1503	48.3398	86.1633	48.3398	86.1599	48.3398	86.1989	48.3398	86.1921	48.3398	86.2576	48.3398	86.2471	48.3398	86.3396	48.3398	86.3252	48.3398	86.4457	48.3398	86.4265	48.3398	86.5762	48.3398	86.551	48.3398	86.7313	48.3398	86.6984	48.3398	86.9104	48.3398	86.8678	48.3398	87.1118	48.3398	87.0577	48.3398	87.3319	48.3398	87.2656	48.3398	87.5649	48.3398	87.4872	48.3398	87.8026	48.3398	87.7166	48.3398	88.0341	48.3398	87.9449	48.3398	88.2465	48.3398	88.1612	48.3398	88.4263	48.3398	88.3528	48.3398	88.5607	48.3398	88.5066	48.3398	88.6395	48.3398	88.6108	48.3398	88.6565
51.2695	87.7955	51.2695	87.8108	51.2695	87.8022	51.2695	87.848	51.2695	87.831	51.2695	87.9069	51.2695	87.8818	51.2695	87.987	51.2695	87.9543	51.2695	88.088	51.2695	88.0481	51.2695	88.2091	51.2695	88.1626	51.2695	88.3497	51.2695	88.2969	51.2695	88.5084	51.2695	88.4495	51.2695	88.6834	51.2695	88.6185	51.2695	88.8716	51.2695	88.8013	51.2695	89.0687	51.2695	88.994	51.2695	89.2682	51.2695	89.1915	51.2695	89.4621	51.2695	89.3867	51.2695	89.6402	51.2695	89.5708	51.2695	89.7915	51.2695	89.7332	51.2695	89.9054	51.2695	89.8631	51.2695	89.9728	51.2695	89.9505	51.2695	89.9883
52.7344	88.4423	52.7344	88.4585	52.7344	88.4487	52.7344	88.4968	52.7344	88.4775	52.7344	88.5569	52.7344	88.5286	52.7344	88.6377	52.7344	88.6013	52.7344	88.7382	52.7344	88.6947	52.7344	88.8574	52.7344	88.8075	52.7344	88.9938	52.7344	88.9385	52.7344	89.1457	52.7344	89.0857	52.7344	89.3112	52.7344	89.2471	52.7344	89.4874	52.7344	89.4198	52.7344	89.6703	52.7344	89.6003	52.7344	89.8545	52.7344	89.784	52.7344	90.0328	52.7344	89.9646	52.7344	90.1963	52.7344	90.134	52.7344	90.3353	52.7344	90.2832	52.7344	90.4399	52.7344	90.4023	52.7344	90.5021	52.7344	90.4824	52.7344	90.5166
54.1992	89.0768	54.1992	89.0946	54.1992	89.0816	54.1992	89.1346	54.1992	89.1092	54.1992	89.1961	54.1992	89.1589	54.1992	89.2777	54.1992	89.2298	54.1992	89.3779	54.1992	89.3208	54.1992	89.495	54.1992	89.4302	54.1992	89.627	54.1992	89.556	54.1992	89.772	54.1992	89.6962	54.1992	89.9275	54.1992	89.8483	54.1992	90.0907	54.1992	90.0096	54.1992	90.2583	54.1992	90.1767	54.1992	90.4253	54.1992	90.3455	54.1992	90.5858	54.1992	90.5104	54.1992	90.7323	54.1992	90.6647	54.1992	90.8562	54.1992	90.8005	54.1992	90.949	54.1992	90.909	54.1992	91.0034	54.1992	90.9825	54.1992	91.0149
55.6641	89.6486	55.6641	89.6665	55.6641	89.6525	55.6641	89.7057	55.6641	89.6782	55.6641	89.7652	55.6641	89.7251	55.6641	89.8436	55.6641	89.7923	55.6641	89.9392	55.6641	89.8782	55.6641	90.0499	55.6641	89.9811	55.6641	90.1735	55.6641	90.0989	55.6641	90.3078	55.6641	90.2293	55.6641	90.4505	55.6641	90.3698	55.6641	90.5989	55.6641	90.5176	55.6641	90.7499	55.6641	90.6696	55.6641	90.8996	55.6641	90.822	55.6641	91.0427	55.6641	90.9701	55.6641	91.1728	55.6641	91.1083	55.6641	91.2827	55.6641	91.2296	55.6641	91.3647	55.6641	91.3266	55.6641	91.4125	55.6641	91.3926	55.6641	91.4221
58.5938	90.5929	58.5938	90.6085	58.5938	90.5989	58.5938	90.6449	58.5938	90.6261	58.5938	90.7012	58.5938	90.6739	58.5938	90.7755	58.5938	90.7407	58.5938	90.8658	58.5938	90.8248	58.5938	90.9694	58.5938	90.924	58.5938	91.0838	58.5938	91.0357	58.5938	91.2062	58.5938	91.1572	58.5938	91.334	58.5938	91.2856	58.5938	91.4646	58.5938	91.418	58.5938	91.5951	58.5938	91.5512	58.5938	91.7224	58.5938	91.682	58.5938	91.8427	58.5938	91.8065	58.5938	91.9515	58.5938	91.9202	58.5938	92.0434	58.5938	92.0182	58.5938	92.1128	58.5938	92.095	58.5938	92.1548	58.5938	92.1455	58.5938	92.166
60.0586	91.0023	60.0586	91.018	60.0586	91.0077	60.0586	91.0542	60.0586	91.034	60.0586	91.1096	60.0586	91.0804	60.0586	91.1822	60.0586	91.1452	60.0586	91.2695	60.0586	91.2263	60.0586	91.3686	60.0586	91.3214	60.0586	91.4766	60.0586	91.4275	60.0586	91.5905	60.0586	91.5419	60.0586	91.7076	60.0586	91.6614	60.0586	91.8255	60.0586	91.783	60.0586	91.9416	60.0586	91.9038	60.0586	92.0534	60.0586	92.0206	60.0586	92.1581	60.0586	92.1302	60.0586	92.2522	60.0586	92.2292	60.0586	92.3315	60.0586	92.3135	60.0586	92.3914	60.0586	92.379	60.0586	92.428	60.0586	92.4216	60.0586	92.4383
62.9883	91.598	62.9883	91.6145	62.9883	91.6016	62.9883	91.6504	62.9883	91.6253	62.9883	91.7041	62.9883	91.6678	62.9883	91.7734	62.9883	91.7276	62.9883	91.8551	62.9883	91.802	62.9883	91.9463	62.9883	91.8882	62.9883	92.0433	62.9883	91.983	62.9883	92.1432	62.9883	92.0832	62.9883	92.2431	62.9883	92.1857	62.9883	92.3405	62.9883	92.2874	62.9883	92.4334	62.9883	92.3858	62.9883	92.5201	62.9883	92.4786	62.9883	92.5989	62.9883	92.5638	62.9883	92.6679	62.9883	92.6393	62.9883	92.7248	62.9883	92.7029	62.9883	92.767	62.9883	92.7521	62.9883	92.792	62.9883	92.7844	62.9883	92.798
64.4531	91.8361	64.4531	91.8524	64.4531	91.8396	64.4531	91.8875	64.4531	91.8625	64.4531	91.9399	64.4531	91.9037	64.4531	92.0072	64.4531	91.9615	64.4531	92.0862	64.4531	92.0331	64.4531	92.1736	64.4531	92.1156	64.4531	92.2659	64.4531	92.2055	64.4531	92.3597	64.4531	92.2995	64.4531	92.4519	64.4531	92.3943	64.4531	92.5402	64.4531	92.4869	64.4531	92.6227	64.4531	92.5749	64.4531	92.6979	64.4531	92.6564	64.4531	92.7647	64.4531	92.7299	64.4531	92.8221	64.4531	92.794	64.4531	92.8686	64.4531	92.8472	64.4531	92.9026	64.4531	92.8881	64.4531	92.9223	64.4531	92.915	64.4531	92.9266
67.3828	92.1309	67.3828	92.1463	67.3828	92.1351	67.3828	92.1807	67.3828	92.1589	67.3828	92.2323	67.3828	92.2009	67.3828	92.2984	67.3828	92.2592	67.3828	92.3758	67.3828	92.3308	67.3828	92.4607	67.3828	92.4125	67.3828	92.5493	67.3828	92.5004	67.3828	92.6377	67.3828	92.5907	67.3828	92.7229	67.3828	92.6801	67.3828	92.8022	67.3828	92.7652	67.3828	92.8739	67.3828	92.8437	67.3828	92.937	67.3828	92.9139	67.3828	92.9912	67.3828	92.9747	67.3828	93.0364	67.3828	93.0254	67.3828	93.0724	67.3828	93.0658	67.3828	93.0988	67.3828	93.0953	67.3828	93.1149	67.3828	93.1135	67.3828	93.12
68.8477	92.2627	68.8477	92.2764	68.8477	92.269	68.8477	92.3094	68.8477	92.2948	68.8477	92.3597	68.8477	92.339	68.8477	92.4248	68.8477	92.399	68.8477	92.5011	68.8477	92.472	68.8477	92.5849	68.8477	92.5541	68.8477	92.672	68.8477	92.6415	68.8477	92.7587	68.8477	92.7302	68.8477	92.8414	68.8477	92.8166	68.8477	92.9175	68.8477	92.8977	68.8477	92.9852	68.8477	92.9711	68.8477	93.0436	68.8477	93.0352	68.8477	93.0924	68.8477	93.0891	68.8477	93.132	68.8477	93.1326	68.8477	93.163	68.8477	93.1657	68.8477	93.1857	68.8477	93.1887	68.8477	93.2	68.8477	93.2019	68.8477	93.2055
71.7773	92.5014	71.7773	92.5106	71.7773	92.5104	71.7773	92.5375	71.7773	92.5373	71.7773	92.5803	71.7773	92.5809	71.7773	92.6363	71.7773	92.6387	71.7773	92.7022	71.7773	92.7076	71.7773	92.774	71.7773	92.7838	71.7773	92.8477	71.7773	92.8631	71.7773	92.9192	71.7773	92.9414	71.7773	92.985	71.7773	93.0146	71.7773	93.0424	71.7773	93.0796	71.7773	93.0898	71.7773	93.1337	71.7773	93.1269	71.7773	93.1755	71.7773	93.1545	71.7773	93.2048	71.7773	93.1744	71.7773	93.2225	71.7773	93.1891	71.7773	93.2306	71.7773	93.2007	71.7773	93.2313	71.7773	93.2107	71.7773	93.227	71.7773	93.2196
74.707	92.6002	74.707	92.6152	74.707	92.6029	74.707	92.647	74.707	92.6233	74.707	92.6935	74.707	92.6601	74.707	92.7518	74.707	92.7111	74.707	92.8182	74.707	92.7731	74.707	92.8885	74.707	92.8423	74.707	92.9584	74.707	92.9142	74.707	93.0235	74.707	92.9843	74.707	93.0802	74.707	93.0481	74.707	93.1257	74.707	93.1022	74.707	93.1584	74.707	93.1438	74.707	93.1783	74.707	93.172	74.707	93.1869	74.707	93.1872	74.707	93.1869	74.707	93.1915	74.707	93.1819	74.707	93.1883	74.707	93.1757	74.707	93.1815	74.707	93.1714	74.707	93.1748	74.707	93.171
77.6367	92.6558	77.6367	92.6724	77.6367	92.6566	77.6367	92.7052	77.6367	92.6743	77.6367	92.7525	77.6367	92.7078	77.6367	92.8113	77.6367	92.7548	77.6367	92.8778	77.6367	92.8119	77.6367	92.9477	77.6367	92.8753	77.6367	93.0163	77.6367	92.9405	77.6367	93.0789	77.6367	93.003	77.6367	93.1318	77.6367	93.0585	77.6367	93.1717	77.6367	93.1035	77.6367	93.1969	77.6367	93.1358	77.6367	93.2075	77.6367	93.1547	77.6367	93.205	77.6367	93.1612	77.6367	93.1927	77.6367	93.1581	77.6367	93.1751	77.6367	93.1494	77.6367	93.1568	77.6367	93.1399	77.6367	93.1422	77.6367	93.1338	77.6367	93.1342
79.1016	92.6848	79.1016	92.7016	79.1016	92.6847	79.1016	92.7342	79.1016	92.7009	79.1016	92.7806	79.1016	92.7321	79.1016	92.838	79.1016	92.7762	79.1016	92.9026	79.1016	92.8297	79.1016	92.9702	79.1016	92.8889	79.1016	93.0359	79.1016	92.9495	79.1016	93.0953	79.1016	93.0068	79.1016	93.1442	79.1016	93.0569	79.1016	93.1795	79.1016	93.0964	79.1016	93.1995	79.1016	93.1232	79.1016	93.2042	79.1016	93.1367	79.1016	93.1954	79.1016	93.1382	79.1016	93.1767	79.1016	93.1306	79.1016	93.1528	79.1016	93.1183	79.1016	93.1291	79.1016	93.1062	79.1016	93.1103	79.1016	93.099	79.1016	93.0999
82.0312	92.7286	82.0312	92.7471	82.0312	92.7259	82.0312	92.7804	82.0312	92.7389	82.0312	92.8265	82.0312	92.7664	82.0312	92.8823	82.0312	92.806	82.0312	92.944	82.0312	92.8545	82.0312	93.0071	82.0312	92.908	82.0312	93.0669	82.0312	92.9617	82.0312	93.1187	82.0312	93.0111	82.0312	93.1585	82.0312	93.052	82.0312	93.1832	82.0312	93.081	82.0312	93.1912	82.0312	93.0961	82.0312	93.1827	82.0312	93.0973	82.0312	93.1598	82.0312	93.0864	82.0312	93.1269	82.0312	93.0671	82.0312	93.0898	82.0312	93.0446	82.0312	93.0549	82.0312	93.0248	82.0312	93.0283	82.0312	93.0132	82.0312	93.0139
84.9609	92.7744	84.9609	92.7904	84.9609	92.7729	84.9609	92.8201	84.9609	92.7859	84.9609	92.8614	84.9609	92.8122	84.9609	92.9114	84.9609	92.8493	84.9609	92.9661	84.9609	92.894	84.9609	93.0212	84.9609	92.9422	84.9609	93.0719	84.9609	92.9891	84.9609	93.1135	84.9609	93.0301	84.9609	93.1416	84.9609	93.061	84.9609	93.1533	84.9609	93.0783	84.9609	93.147	84.9609	93.0802	84.9609	93.1234	84.9609	93.0668	84.9609	93.0856	84.9609	93.0403	84.9609	93.0388	84.9609	93.0049	84.9609	92.9902	84.9609	92.9669	84.9609	92.9475	84.9609	92.9333	84.9609	92.9175	84.9609	92.9109	84.9609	92.9049
87.8906	92.7563	87.8906	92.7642	87.8906	92.7632	87.8906	92.786	87.8906	92.7847	87.8906	92.8201	87.8906	92.8193	87.8906	92.8636	87.8906	92.8647	87.8906	92.9129	87.8906	92.9173	87.8906	92.9635	87.8906	92.9729	87.8906	93.0108	87.8906	93.0267	87.8906	93.05	87.8906	93.0737	87.8906	93.077	87.8906	93.1093	87.8906	93.0887	87.8906	93.1296	87.8906	93.0837	87.8906	93.1323	87.8906	93.063	87.8906	93.117	87.8906	93.0296	87.8906	93.0858	87.8906	92.9891	87.8906	93.0428	87.8906	92.9484	87.8906	92.9948	87.8906	92.9153	87.8906	92.9494	87.8906	92.8963	87.8906	92.9144	87.8906	92.8957
90.8203	92.6895	90.8203	92.7075	90.8203	92.6872	90.8203	92.7399	90.8203	92.7004	90.8203	92.7847	90.8203	92.7282	90.8203	92.8388	90.8203	92.7681	90.8203	92.8982	90.8203	92.817	90.8203	92.9582	90.8203	92.8706	90.8203	93.0137	90.8203	92.9238	90.8203	93.0597	90.8203	92.9716	90.8203	93.0917	90.8203	93.0089	90.8203	93.1062	90.8203	93.0317	90.8203	93.1017	90.8203	93.0375	90.8203	93.0787	90.8203	93.0257	90.8203	93.0402	90.8203	92.9984	90.8203	92.9917	90.8203	92.9604	90.8203	92.9406	90.8203	92.9187	90.8203	92.8952	90.8203	92.8814	90.8203	92.8631	90.8203	92.8564	90.8203	92.8496
95.2148	92.7436	95.2148	92.7571	95.2148	92.7427	95.2148	92.7828	95.2148	92.7543	95.2148	92.8191	95.2148	92.7774	95.2148	92.8637	95.2148	92.8102	95.2148	92.9134	95.2148	92.8503	95.2148	92.9639	95.2148	92.8941	95.2148	93.0102	95.2148	92.9375	95.2148	93.0472	95.2148	92.9755	95.2148	93.0699	95.2148	93.0035	95.2148	93.0747	95.2148	93.0171	95.2148	93.0595	95.2148	93.0132	95.2148	93.0248	95.2148	92.9912	95.2148	92.9742	95.2148	92.953	95.2148	92.914	95.2148	92.9033	95.2148	92.853	95.2148	92.8498	95.2148	92.8009	95.2148	92.8014	95.2148	92.7662	95.2148	92.7673	95.2148	92.7545
98.1445	92.7967	98.1445	92.814	98.1445	92.79	98.1445	92.8411	98.1445	92.794	98.1445	92.8766	98.1445	92.808	98.1445	92.9184	98.1445	92.8309	98.1445	92.9633	98.1445	92.8605	98.1445	93.0074	98.1445	92.8941	98.1445	93.0462	98.1445	92.9277	98.1445	93.0748	98.1445	92.9571	98.1445	93.0886	98.1445	92.9776	98.1445	93.0841	98.1445	92.985	98.1445	93.0596	98.1445	92.9764	98.1445	93.0158	98.1445	92.951	98.1445	92.9568	98.1445	92.9105	98.1445	92.8893	98.1445	92.8598	98.1445	92.8224	98.1445	92.8061	98.1445	92.7657	98.1445	92.7583	98.1445	92.7278	98.1445	92.7252	98.1445	92.7139
101.074	92.7394	101.074	92.7535	101.074	92.7362	101.074	92.7781	101.074	92.7435	101.074	92.8119	101.074	92.7599	101.074	92.8523	101.074	92.7835	101.074	92.896	101.074	92.8113	101.074	92.9385	101.074	92.8401	101.074	92.9746	101.074	92.8659	101.074	92.9991	101.074	92.8847	101.074	93.0073	101.074	92.8924	101.074	92.9955	101.074	92.8861	101.074	92.9624	101.074	92.8639	101.074	92.9092	101.074	92.8262	101.074	92.8404	101.074	92.7755	101.074	92.7635	101.074	92.7171	101.074	92.6881	101.074	92.6583	101.074	92.6246	101.074	92.6079	101.074	92.5815	101.074	92.5743	101.074	92.5644
105.469	92.8228	105.469	92.8338	105.469	92.8216	105.469	92.8546	105.469	92.8297	105.469	92.884	105.469	92.8457	105.469	92.9202	105.469	92.8675	105.469	92.96	105.469	92.892	105.469	92.9995	105.469	92.9154	105.469	93.0334	105.469	92.9333	105.469	93.0561	105.469	92.9408	105.469	93.0619	105.469	92.9336	105.469	93.0458	105.469	92.9086	105.469	93.0051	105.469	92.8643	105.469	92.9398	105.469	92.8019	105.469	92.8536	105.469	92.7257	105.469	92.7542	105.469	92.6433	105.469	92.653	105.469	92.5649	105.469	92.5629	105.469	92.502	105.469	92.4964	105.469	92.4654	105.469	92.4627
108.398	92.7206	108.398	92.7162	108.398	92.7353	108.398	92.7221	108.398	92.7598	108.398	92.7374	108.398	92.7928	108.398	92.7609	108.398	92.8321	108.398	92.7903	108.398	92.8743	108.398	92.8221	108.398	92.9153	108.398	92.8521	108.398	92.9499	108.398	92.8752	108.398	92.9728	108.398	92.886	108.398	92.9788	108.398	92.8798	108.398	92.9638	108.398	92.8532	108.398	92.9256	108.398	92.8056	108.398	92.8647	108.398	92.7397	108.398	92.7853	108.398	92.6621	108.398	92.6949	108.398	92.5827	108.398	92.6045	108.398	92.5139	108.398	92.5268	108.398	92.4675	108.398	92.4734	108.398	92.4527
112.793	92.6837	112.793	92.6921	112.793	92.6845	112.793	92.7097	112.793	92.6943	112.793	92.7357	112.793	92.7123	112.793	92.7682	112.793	92.7373	112.793	92.8042	112.793	92.7674	112.793	92.8394	112.793	92.7993	112.793	92.8689	112.793	92.8288	112.793	92.8869	112.793	92.8507	112.793	92.8885	112.793	92.8593	112.793	92.87	112.793	92.8494	112.793	92.8297	112.793	92.8177	112.793	92.7686	112.793	92.7637	112.793	92.691	112.793	92.6905	112.793	92.6041	112.793	92.6055	112.793	92.5181	112.793	92.5195	112.793	92.4445	112.793	92.4452	112.793	92.3946	112.793	92.3948	112.793	92.3769
117.188	92.7644	117.188	92.7878	117.188	92.7477	117.188	92.8167	117.188	92.7384	117.188	92.85	117.188	92.7371	117.188	92.8859	117.188	92.7437	117.188	92.9224	117.188	92.7568	117.188	92.9561	117.188	92.774	117.188	92.9827	117.188	92.7917	117.188	92.9974	117.188	92.805	117.188	92.9947	117.188	92.8086	117.188	92.9706	117.188	92.7975	117.188	92.9225	117.188	92.7678	117.188	92.8512	117.188	92.7187	117.188	92.7611	117.188	92.6524	117.188	92.6601	117.188	92.5755	117.188	92.5596	117.188	92.4982	117.188	92.4724	117.188	92.4326	117.188	92.4105	117.188	92.391	117.188	92.3824
120.117	92.6574	120.117	92.6759	120.117	92.6451	120.117	92.7001	120.117	92.6394	120.117	92.7293	120.117	92.6408	120.117	92.7626	120.117	92.6492	120.117	92.7985	120.117	92.6639	120.117	92.8343	120.117	92.6829	120.117	92.8663	120.117	92.7034	120.117	92.8898	120.117	92.7214	120.117	92.9	120.117	92.7324	120.117	92.8923	120.117	92.7323	120.117	92.864	120.117	92.718	120.117	92.8151	120.117	92.6884	120.117	92.7491	120.117	92.6452	120.117	92.6728	120.117	92.5933	120.117	92.5958	120.117	92.54	120.117	92.5289	120.117	92.4942	120.117	92.4815	120.117	92.4652	120.117	92.4598
124.512	92.7419	124.512	92.7553	124.512	92.7286	124.512	92.7683	124.512	92.7168	124.512	92.7805	124.512	92.7081	124.512	92.792	124.512	92.7037	124.512	92.8026	124.512	92.7041	124.512	92.8116	124.512	92.7083	124.512	92.8177	124.512	92.7138	124.512	92.8185	124.512	92.7166	124.512	92.8114	124.512	92.7123	124.512	92.7936	124.512	92.6967	124.512	92.7632	124.512	92.6674	124.512	92.7197	124.512	92.6245	124.512	92.6648	124.512	92.5711	124.512	92.6022	124.512	92.5136	124.512	92.5377	124.512	92.4604	124.512	92.4783	124.512	92.4202	124.512	92.4317	124.512	92.4003	124.512	92.4043
128.906	92.9507	128.906	92.9366	128.906	92.9592	128.906	92.9182	128.906	92.9614	128.906	92.8967	128.906	92.9569	128.906	92.8727	128.906	92.9463	128.906	92.8462	128.906	92.9303	128.906	92.8159	128.906	92.9092	128.906	92.7795	128.906	92.8828	128.906	92.7343	128.906	92.8494	128.906	92.6773	128.906	92.8062	128.906	92.6066	128.906	92.7502	128.906	92.5221	128.906	92.6791	128.906	92.4263	128.906	92.5921	128.906	92.3248	128.906	92.4916	128.906	92.2261	128.906	92.383	128.906	92.1408	128.906	92.2747	128.906	92.0793	128.906	92.1775	128.906	92.0501	128.906	92.1022	128.906	92.058
133.301	92.7839	133.301	92.7925	133.301	92.7739	133.301	92.7999	133.301	92.7625	133.301	92.806	133.301	92.7496	133.301	92.8107	133.301	92.7354	133.301	92.8128	133.301	92.7195	133.301	92.8102	133.301	92.701	133.301	92.7997	133.301	92.6783	133.301	92.7773	133.301	92.649	133.301	92.7388	133.301	92.6103	133.301	92.6808	133.301	92.5595	133.301	92.602	133.301	92.495	133.301	92.5041	133.301	92.4171	133.301	92.3927	133.301	92.3288	133.301	92.2771	133.301	92.236	133.301	92.1692	133.301	92.1471	133.301	92.0816	133.301	92.0724	133.301	92.0247	133.301	92.0221	133.301	92.0047
139.16	92.5524	139.16	92.5625	139.16	92.5406	139.16	92.5712	139.16	92.5278	139.16	92.5792	139.16	92.515	139.16	92.587	139.16	92.5031	139.16	92.5948	139.16	92.4924	139.16	92.6016	139.16	92.4822	139.16	92.6051	139.16	92.4701	139.16	92.6016	139.16	92.453	139.16	92.5871	139.16	92.427	139.16	92.5577	139.16	92.389	139.16	92.5113	139.16	92.3376	139.16	92.4476	139.16	92.274	139.16	92.3692	139.16	92.2026	139.16	92.2816	139.16	92.1306	139.16	92.1925	139.16	92.0671	139.16	92.1115	139.16	92.0213	139.16	92.048	139.16	92.0007	139.16	92.0096
143.555	92.5834	143.555	92.5784	143.555	92.5778	143.555	92.5644	143.555	92.5625	143.555	92.544	143.555	92.5398	143.555	92.5211	143.555	92.5136	143.555	92.4992	143.555	92.4874	143.555	92.4808	143.555	92.4641	143.555	92.4665	143.555	92.444	143.555	92.455	143.555	92.4249	143.555	92.4431	143.555	92.4025	143.555	92.4269	143.555	92.3718	143.555	92.402	143.555	92.329	143.555	92.3652	143.555	92.2732	143.555	92.315	143.555	92.2077	143.555	92.2531	143.555	92.1396	143.555	92.1844	143.555	92.0786	143.555	92.1171	143.555	92.0346	143.555	92.0609	143.555	92.0156	143.555	92.025
147.949	92.8894	147.949	92.8624	147.949	92.8939	147.949	92.8157	147.949	92.8752	147.949	92.7541	147.949	92.8354	147.949	92.6835	147.949	92.7787	147.949	92.6097	147.949	92.7108	147.949	92.5375	147.949	92.6378	147.949	92.4693	147.949	92.5649	147.949	92.405	147.949	92.4949	147.949	92.3423	147.949	92.428	147.949	92.2777	147.949	92.362	147.949	92.2084	147.949	92.2935	147.949	92.1335	147.949	92.2197	147.949	92.0551	147.949	92.1399	147.949	91.978	147.949	92.0567	147.949	91.9092	147.949	91.9758	147.949	91.8567	147.949	91.905	147.949	91.8274	147.949	91.8528	147.949	91.8259
153.809	92.8564	153.809	92.8272	153.809	92.866	153.809	92.78	153.809	92.8554	153.809	92.7166	153.809	92.8244	153.809	92.6394	153.809	92.7739	153.809	92.5513	153.809	92.7057	153.809	92.4555	153.809	92.6226	153.809	92.3549	153.809	92.5277	153.809	92.2513	153.809	92.4237	153.809	92.1453	153.809	92.3125	153.809	92.036	153.809	92.1945	153.809	91.9226	153.809	92.0697	153.809	91.8055	153.809	91.9382	153.809	91.6882	153.809	91.8028	153.809	91.5765	153.809	91.6693	153.809	91.4784	153.809	91.5471	153.809	91.4024	153.809	91.4468	153.809	91.3566	153.809	91.3781	153.809	91.3475
159.668	92.7398	159.668	92.7582	159.668	92.7087	159.668	92.764	159.668	92.6645	159.668	92.7564	159.668	92.607	159.668	92.7337	159.668	92.536	159.668	92.6925	159.668	92.452	159.668	92.6294	159.668	92.3555	159.668	92.5413	159.668	92.2477	159.668	92.4275	159.668	92.1301	159.668	92.2907	159.668	92.005	159.668	92.1369	159.668	91.8752	159.668	91.9742	159.668	91.744	159.668	91.8117	159.668	91.6153	159.668	91.657	159.668	91.4937	159.668	91.5166	159.668	91.3847	159.668	91.3959	159.668	91.2947	159.668	91.2997	159.668	91.2303	159.668	91.2323	159.668	91.1969	159.668	91.1974
165.527	92.645	165.527	92.6306	165.527	92.6453	165.527	92.6034	165.527	92.6315	165.527	92.5659	165.527	92.6045	165.527	92.5212	165.527	92.5649	165.527	92.4715	165.527	92.5129	165.527	92.4179	165.527	92.4473	165.527	92.3588	165.527	92.3659	165.527	92.291	165.527	92.2671	165.527	92.2112	165.527	92.1509	165.527	92.1172	165.527	92.0202	165.527	92.0105	165.527	91.8815	165.527	91.896	165.527	91.7443	165.527	91.7808	165.527	91.6189	165.527	91.6723	165.527	91.515	165.527	91.5763	165.527	91.4391	165.527	91.4965	165.527	91.3945	165.527	91.4354	165.527	91.3809	165.527	91.3958
171.387	92.5731	171.387	92.561	171.387	92.5667	171.387	92.5296	171.387	92.5441	171.387	92.4797	171.387	92.5087	171.387	92.4133	171.387	92.4647	171.387	92.3334	171.387	92.416	171.387	92.2433	171.387	92.365	171.387	92.146	171.387	92.3114	171.387	92.0434	171.387	92.2512	171.387	91.9357	171.387	92.1779	171.387	91.8222	171.387	92.0838	171.387	91.7021	171.387	91.964	171.387	91.5763	171.387	91.8191	171.387	91.4489	171.387	91.6567	171.387	91.3277	171.387	91.4911	171.387	91.2224	171.387	91.3392	171.387	91.1432	171.387	91.2163	171.387	91.0982	171.387	91.1329	171.387	91.0936
177.246	92.4949	177.246	92.5035	177.246	92.4715	177.246	92.4977	177.246	92.434	177.246	92.4784	177.246	92.3842	177.246	92.4466	177.246	92.3248	177.246	92.4027	177.246	92.2586	177.246	92.3464	177.246	92.1884	177.246	92.2771	177.246	92.1161	177.246	92.1943	177.246	92.0426	177.246	92.0984	177.246	91.9674	177.246	91.9917	177.246	91.8887	177.246	91.8775	177.246	91.8035	177.246	91.7604	177.246	91.7097	177.246	91.6452	177.246	91.6082	177.246	91.5367	177.246	91.5046	177.246	91.44	177.246	91.4092	177.246	91.3607	177.246	91.334	177.246	91.3052	177.246	91.2892	177.246	91.2798
183.105	92.545	183.105	92.5225	183.105	92.5398	183.105	92.4737	183.105	92.5077	183.105	92.4019	183.105	92.4518	183.105	92.3121	183.105	92.3771	183.105	92.2096	183.105	92.2895	183.105	92.0997	183.105	92.1949	183.105	91.9867	183.105	92.0982	183.105	91.8744	183.105	92.0024	183.105	91.7659	183.105	91.9091	183.105	91.6644	183.105	91.8186	183.105	91.5737	183.105	91.7317	183.105	91.4976	183.105	91.6497	183.105	91.4385	183.105	91.575	183.105	91.3971	183.105	91.5102	183.105	91.3718	183.105	91.4572	183.105	91.3601	183.105	91.4165	183.105	91.3595	183.105	91.3874	183.105	91.3687
188.965	92.5788	188.965	92.5749	188.965	92.5559	188.965	92.5456	188.965	92.5056	188.965	92.4928	188.965	92.428	188.965	92.4186	188.965	92.3243	188.965	92.3254	188.965	92.1972	188.965	92.2151	188.965	92.051	188.965	92.0895	188.965	91.8918	188.965	91.95	188.965	91.7265	188.965	91.799	188.965	91.5623	188.965	91.6403	188.965	91.4053	188.965	91.4798	188.965	91.2599	188.965	91.3252	188.965	91.1299	188.965	91.1843	188.965	91.0181	188.965	91.0633	188.965	90.9276	188.965	90.9656	188.965	90.861	188.965	90.8917	188.965	90.8198	188.965	90.8405	188.965	90.8037	188.965	90.8111
196.289	92.4593	196.289	92.463	196.289	92.4233	196.289	92.4349	196.289	92.3568	196.289	92.3773	196.289	92.2634	196.289	92.2947	196.289	92.1477	196.289	92.1925	196.289	92.0144	196.289	92.0768	196.289	91.8675	196.289	91.9532	196.289	91.7105	196.289	91.8259	196.289	91.5463	196.289	91.6972	196.289	91.3783	196.289	91.5681	196.289	91.2115	196.289	91.4394	196.289	91.0522	196.289	91.3123	196.289	90.9087	196.289	91.1887	196.289	90.7897	196.289	91.0713	196.289	90.703	196.289	90.9626	196.289	90.6531	196.289	90.8646	196.289	90.6404	196.289	90.7792	196.289	90.6614	196.289	90.7098
203.613	92.3878	203.613	92.3537	203.613	92.3857	203.613	92.2851	203.613	92.348	203.613	92.1862	203.613	92.2779	203.613	92.0622	203.613	92.1804	203.613	91.9191	203.613	92.0622	203.613	91.7623	203.613	91.9305	203.613	91.5969	203.613	91.7919	203.613	91.4277	203.613	91.6516	203.613	91.2609	203.613	91.5132	203.613	91.1049	203.613	91.3785	203.613	90.9701	203.613	91.249	203.613	90.8661	203.613	91.1273	203.613	90.7979	203.613	91.0174	203.613	90.7628	203.613	90.9248	203.613	90.7516	203.613	90.8541	203.613	90.7527	203.613	90.8067	203.613	90.758	203.613	90.7794	203.613	90.7655
210.938	92.323	210.938	92.2985	210.938	92.311	210.938	92.2376	210.938	92.2641	210.938	92.1419	210.938	92.1858	210.938	92.015	210.938	92.081	210.938	91.8616	210.938	91.9556	210.938	91.6881	210.938	91.8157	210.938	91.5011	210.938	91.6668	210.938	91.3078	210.938	91.5129	210.938	91.1159	210.938	91.3572	210.938	90.9344	210.938	91.203	210.938	90.774	210.938	91.0553	210.938	90.646	210.938	90.921	210.938	90.5587	210.938	90.808	210.938	90.5139	210.938	90.7219	210.938	90.5051	210.938	90.6629	210.938	90.5202	210.938	90.625	210.938	90.5461	210.938	90.5981	210.938	90.5731
218.262	92.1089	218.262	92.1226	218.262	92.0621	218.262	92.101	218.262	91.9851	218.262	92.043	218.262	91.8814	218.262	91.949	218.262	91.755	218.262	91.8221	218.262	91.6113	218.262	91.6678	218.262	91.4561	218.262	91.4936	218.262	91.2958	218.262	91.3085	218.262	91.1366	218.262	91.1216	218.262	90.9837	218.262	90.9421	218.262	90.8411	218.262	90.7789	218.262	90.7121	218.262	90.6402	218.262	90.5996	218.262	90.532	218.262	90.5073	218.262	90.4564	218.262	90.4388	218.262	90.4101	218.262	90.3953	218.262	90.3856	218.262	90.3738	218.262	90.3741	218.262	90.3674	218.262	90.3687
225.586	92.0017	225.586	92.0295	225.586	91.9372	225.586	92.0231	225.586	91.8352	225.586	91.9864	225.586	91.6971	225.586	91.9234	225.586	91.5269	225.586	91.8377	225.586	91.3311	225.586	91.7318	225.586	91.1193	225.586	91.6069	225.586	90.9037	225.586	91.4649	225.586	90.6984	225.586	91.309	225.586	90.517	225.586	91.146	225.586	90.3694	225.586	90.9857	225.586	90.2595	225.586	90.8395	225.586	90.1854	225.586	90.7157	225.586	90.1433	225.586	90.6168	225.586	90.1306	225.586	90.5376	225.586	90.1467	225.586	90.4682	225.586	90.1898	225.586	90.3992	225.586	90.2532	225.586	90.3262
232.91	92.0277	232.91	91.9955	232.91	92.0208	232.91	91.9273	232.91	91.972	232.91	91.8273	232.91	91.8793	232.91	91.7012	232.91	91.7417	232.91	91.5556	232.91	91.5597	232.91	91.3975	232.91	91.3372	232.91	91.2326	232.91	91.0825	232.91	91.0657	232.91	90.81	232.91	90.9017	232.91	90.5411	232.91	90.7496	232.91	90.3022	232.91	90.623	232.91	90.1201	232.91	90.5349	232.91	90.0137	232.91	90.4902	232.91	89.9868	232.91	90.4802	232.91	90.0271	232.91	90.4857	232.91	90.1126	232.91	90.485	232.91	90.2183	232.91	90.4612	232.91	90.3221	232.91	90.4064
241.699	91.9054	241.699	91.8773	241.699	91.891	241.699	91.8075	241.699	91.8358	241.699	91.6982	241.699	91.7441	241.699	91.5525	241.699	91.6218	241.699	91.3753	241.699	91.4742	241.699	91.1744	241.699	91.3043	241.699	90.9624	241.699	91.1121	241.699	90.7554	241.699	90.8963	241.699	90.5691	241.699	90.6588	241.699	90.4156	241.699	90.4093	241.699	90.3014	241.699	90.1687	241.699	90.2286	241.699	89.9677	241.699	90.1952	241.699	89.8375	241.699	90.1932	241.699	89.7959	241.699	90.2062	241.699	89.8363	241.699	90.2125	241.699	89.9301	241.699	90.192	241.699	90.04	241.699	90.1336
250.488	92.2589	250.488	92.2095	250.488	92.2525	250.488	92.1071	250.488	92.1903	250.488	91.9564	250.488	92.0751	250.488	91.7632	250.488	91.9125	250.488	91.5327	250.488	91.7102	250.488	91.2703	250.488	91.4771	250.488	90.9825	250.488	91.2225	250.488	90.6801	250.488	90.9549	250.488	90.3805	250.488	90.6829	250.488	90.1069	250.488	90.4175	250.488	89.8832	250.488	90.1738	250.488	89.7252	250.488	89.9709	250.488	89.6356	250.488	89.8275	250.488	89.6055	250.488	89.7519	250.488	89.6196	250.488	89.7337	250.488	89.6603	250.488	89.7457	250.488	89.7084	250.488	89.7562	250.488	89.7445
259.277	92.2455	259.277	92.2137	259.277	92.2199	259.277	92.1268	259.277	92.138	259.277	91.9898	259.277	92.0047	259.277	91.8093	259.277	91.8275	259.277	91.5919	259.277	91.6142	259.277	91.3436	259.277	91.3702	259.277	91.0687	259.277	91.0979	259.277	90.7716	259.277	90.7986	259.277	90.4605	259.277	90.4776	259.277	90.1537	259.277	90.1506	259.277	89.8821	259.277	89.8458	259.277	89.6822	259.277	89.5993	259.277	89.5785	259.277	89.4434	259.277	89.5656	259.277	89.3912	259.277	89.609	259.277	89.4284	259.277	89.6638	259.277	89.5173	259.277	89.6932	259.277	89.6123	259.277	89.6769
268.066	92.1281	268.066	92.0778	268.066	92.1148	268.066	91.967	268.066	92.035	268.066	91.7987	268.066	91.8882	268.066	91.5773	268.066	91.6794	268.066	91.3111	268.066	91.4218	268.066	91.0136	268.066	91.1362	268.066	90.7044	268.066	90.846	268.066	90.4064	268.066	90.5679	268.066	90.1402	268.066	90.305	268.066	89.9172	268.066	90.0458	268.066	89.7352	268.066	89.7737	268.066	89.5829	268.066	89.4815	268.066	89.4485	268.066	89.1849	268.066	89.3241	268.066	88.9249	268.066	89.2043	268.066	88.7506	268.066	89.0832	268.066	88.689	268.066	88.9568	268.066	88.7285	268.066	88.8308
276.855	91.8453	276.855	91.8274	276.855	91.8231	276.855	91.7682	276.855	91.7581	276.855	91.6639	276.855	91.6449	276.855	91.5079	276.855	91.476	276.855	91.2922	276.855	91.2461	276.855	91.0082	276.855	90.9561	276.855	90.6501	276.855	90.6193	276.855	90.2239	276.855	90.2653	276.855	89.7603	276.855	89.9374	276.855	89.3254	276.855	89.6816	276.855	89.0076	276.855	89.5245	276.855	88.8727	276.855	89.4579	276.855	88.9162	276.855	89.4452	276.855	89.0681	276.855	89.4482	276.855	89.2415	276.855	89.4495	276.855	89.3752	276.855	89.4519	276.855	89.4472	276.855	89.4607	276.855	89.467
287.109	91.8756	287.109	91.8292	287.109	91.8745	287.109	91.752	287.109	91.8149	287.109	91.6603	287.109	91.6941	287.109	91.5635	287.109	91.5159	287.109	91.4607	287.109	91.286	287.109	91.3395	287.109	91.0071	287.109	91.1773	287.109	90.6772	287.109	90.944	287.109	90.2907	287.109	90.6119	287.109	89.8459	287.109	90.179	287.109	89.3606	287.109	89.7008	287.109	88.8903	287.109	89.3041	287.109	88.5301	287.109	89.1284	287.109	88.3729	287.109	89.2018	287.109	88.4439	287.109	89.4044	287.109	88.6829	287.109	89.5768	287.109	88.9942	287.109	89.622	287.109	89.2937	287.109	89.5189
297.363	92.0215	297.363	92.0306	297.363	91.9796	297.363	91.9959	297.363	91.9065	297.363	91.9045	297.363	91.7937	297.363	91.7519	297.363	91.6286	297.363	91.5483	297.363	91.4018	297.363	91.3185	297.363	91.1094	297.363	91.0952	297.363	90.7544	297.363	90.9041	297.363	90.3487	297.363	90.7451	297.363	89.9201	297.363	90.5829	297.363	89.5168	297.363	90.3633	297.363	89.1982	297.363	90.0533	297.363	89.0102	297.363	89.6824	297.363	88.9661	297.363	89.355	297.363	89.0496	297.363	89.197	297.363	89.2206	297.363	89.2465	297.363	89.412	297.363	89.4087	297.363	89.5392	297.363	89.5372
307.617	91.9154	307.617	91.9358	307.617	91.8555	307.617	91.9054	307.617	91.7695	307.617	91.8124	307.617	91.6709	307.617	91.6445	307.617	91.5653	307.617	91.3917	307.617	91.4462	307.617	91.0529	307.617	91.2999	307.617	90.6426	307.617	91.1114	307.617	90.2022	307.617	90.8639	307.617	89.8057	307.617	90.5357	307.617	89.5396	307.617	90.1121	307.617	89.4488	307.617	89.6161	307.617	89.4966	307.617	89.1328	307.617	89.5896	307.617	88.7865	307.617	89.6413	307.617	88.6554	307.617	89.6132	307.617	88.7113	307.617	89.5141	307.617	88.8635	307.617	89.3729	307.617	89.0401	307.617	89.2121
319.336	91.9743	319.336	91.8443	319.336	92.0143	319.336	91.6402	319.336	91.9664	319.336	91.39	319.336	91.8477	319.336	91.1205	319.336	91.6775	319.336	90.8436	319.336	91.4651	319.336	90.5496	319.336	91.2055	319.336	90.2105	319.336	90.8927	319.336	89.7953	319.336	90.5414	319.336	89.3012	319.336	90.1947	319.336	88.7967	319.336	89.9017	319.336	88.4357	319.336	89.6801	319.336	88.3658	319.336	89.5103	319.336	88.5686	319.336	89.3705	319.336	88.8658	319.336	89.2629	319.336	89.0931	319.336	89.1999	319.336	89.1986	319.336	89.1785	319.336	89.2161	319.336	89.1829	319.336	89.1998
329.59	91.5872	329.59	91.5455	329.59	91.5692	329.59	91.4462	329.59	91.4874	329.59	91.2899	329.59	91.3407	329.59	91.0801	329.59	91.1382	329.59	90.8271	329.59	90.8995	329.59	90.5467	329.59	90.644	329.59	90.2502	329.59	90.3736	329.59	89.9301	329.59	90.0669	329.59	89.561	329.59	89.6995	329.59	89.128	329.59	89.2739	329.59	88.6775	329.59	88.8381	329.59	88.3436	329.59	88.4728	329.59	88.2727	329.59	88.2558	329.59	88.4719	329.59	88.2251	329.59	88.7871	329.59	88.3646	329.59	89.044	329.59	88.6115	329.59	89.1468	329.59	88.8786	329.59	89.0796
341.309	92.002	341.309	91.9401	341.309	91.9582	341.309	91.7845	341.309	91.7992	341.309	91.5476	341.309	91.521	341.309	91.2426	341.309	91.1294	341.309	90.886	341.309	90.6457	341.309	90.5008	341.309	90.1141	341.309	90.1151	341.309	89.6011	341.309	89.748	341.309	89.1783	341.309	89.3908	341.309	88.8913	341.309	89.011	341.309	88.7425	341.309	88.5999	341.309	88.7034	341.309	88.2305	341.309	88.7407	341.309	88.0482	341.309	88.829	341.309	88.1448	341.309	88.9461	341.309	88.4435	341.309	89.0645	341.309	88.7741	341.309	89.1535	341.309	89.0186	341.309	89.1882	341.309	89.1504
353.027	91.8673	353.027	91.8072	353.027	91.8488	353.027	91.6773	353.027	91.749	353.027	91.4868	353.027	91.573	353.027	91.2412	353.027	91.3301	353.027	90.939	353.027	91.0236	353.027	90.574	353.027	90.6414	353.027	90.1476	353.027	90.1558	353.027	89.6863	353.027	89.5363	353.027	89.245	353.027	88.7765	353.027	88.875	353.027	87.9339	353.027	88.5877	353.027	87.1641	353.027	88.3656	353.027	86.6772	353.027	88.2124	353.027	86.5818	353.027	88.1664	353.027	86.8014	353.027	88.2398	353.027	87.1887	353.027	88.3626	353.027	87.6289	353.027	88.416	353.027	88.0309	353.027	88.3106
366.211	92.1959	366.211	92.1009	366.211	92.1945	366.211	91.9081	366.211	92.1037	366.211	91.6189	366.211	91.9332	366.211	91.2392	366.211	91.6898	366.211	90.7846	366.211	91.3748	366.211	90.2802	366.211	90.991	366.211	89.741	366.211	90.5505	366.211	89.1558	366.211	90.0695	366.211	88.5203	366.211	89.5496	366.211	87.8997	366.211	88.9669	366.211	87.4339	366.211	88.3053	366.211	87.2289	366.211	87.6311	366.211	87.2637	366.211	87.1366	366.211	87.4412	366.211	87.0202	366.211	87.6725	366.211	87.2581	366.211	87.8881	366.211	87.6222	366.211	88.0282	366.211	87.9108	366.211	88.0459
379.395	92.227	379.395	92.2292	379.395	92.1409	379.395	92.142	379.395	91.9769	379.395	91.9586	379.395	91.743	379.395	91.6699	379.395	91.4513	379.395	91.2653	379.395	91.1169	379.395	90.7446	379.395	90.7555	379.395	90.1362	379.395	90.3804	379.395	89.4947	379.395	89.9996	379.395	88.8644	379.395	89.6161	379.395	88.2539	379.395	89.24	379.395	87.6866	379.395	88.9017	379.395	87.2743	379.395	88.6441	379.395	87.1745	379.395	88.4957	379.395	87.4222	379.395	88.4595	379.395	87.8753	379.395	88.5223	379.395	88.3381	379.395	88.6502	379.395	88.6679	379.395	88.775	379.395	88.8063
392.578	92.2329	392.578	92.1026	392.578	92.2696	392.578	91.8988	392.578	92.2003	392.578	91.6443	392.578	92.0179	392.578	91.3543	392.578	91.7153	392.578	91.0297	392.578	91.2897	392.578	90.6607	392.578	90.7552	392.578	90.2387	392.578	90.1541	392.578	89.7751	392.578	89.5487	392.578	89.3037	392.578	88.9891	392.578	88.8568	392.578	88.492	392.578	88.4467	392.578	88.0694	392.578	88.0978	392.578	87.7753	392.578	87.8738	392.578	87.6807	392.578	87.8163	392.578	87.7806	392.578	87.8803	392.578	87.9746	392.578	87.9887	392.578	88.1454	392.578	88.1018	392.578	88.2218	392.578	88.1944
405.762	92.5157	405.762	92.3723	405.762	92.5463	405.762	92.1221	405.762	92.4632	405.762	91.7761	405.762	92.2708	405.762	91.3505	405.762	91.9726	405.762	90.8675	405.762	91.5592	405.762	90.3495	405.762	91.002	405.762	89.8111	405.762	90.2724	405.762	89.2652	405.762	89.3998	405.762	88.7512	405.762	88.54	405.762	88.3478	405.762	87.9406	405.762	88.1158	405.762	87.7124	405.762	88.0348	405.762	87.7259	405.762	88.0496	405.762	87.8475	405.762	88.1522	405.762	88.0747	405.762	88.3541	405.762	88.401	405.762	88.6109	405.762	88.7206	405.762	88.8337	405.762	88.9174	405.762	88.9498
420.41	92.5441	420.41	92.4964	420.41	92.5378	420.41	92.3858	420.41	92.4722	420.41	92.1947	420.41	92.333	420.41	91.9041	420.41	92.1111	420.41	91.4982	420.41	91.8093	420.41	90.9667	420.41	91.4275	420.41	90.3093	420.41	90.9358	420.41	89.5374	420.41	90.2668	420.41	88.6826	420.41	89.3556	420.41	87.8391	420.41	88.2321	420.41	87.2222	420.41	87.129	420.41	87.0935	420.41	86.4431	420.41	87.4809	420.41	86.3939	420.41	88.1201	420.41	86.8268	420.41	88.7321	420.41	87.4873	420.41	89.1628	420.41	88.1958	420.41	89.3366	420.41	88.8117	420.41	89.2161
435.059	92.3964	435.059	92.2956	435.059	92.3962	435.059	92.1137	435.059	92.2973	435.059	91.8706	435.059	92.1217	435.059	91.5575	435.059	91.8891	435.059	91.1349	435.059	91.5954	435.059	90.5636	435.059	91.2127	435.059	89.841	435.059	90.7094	435.059	89.0101	435.059	90.0672	435.059	88.1417	435.059	89.2872	435.059	87.3328	435.059	88.4073	435.059	86.7534	435.059	87.5592	435.059	86.6401	435.059	87.0005	435.059	87.0721	435.059	86.9561	435.059	87.8066	435.059	87.373	435.059	88.5183	435.059	87.9969	435.059	89.0297	435.059	88.6053	435.059	89.2936	435.059	89.0653	435.059	89.3044
451.172	92.7538	451.172	92.6244	451.172	92.8	451.172	92.4286	451.172	92.7595	451.172	92.187	451.172	92.6388	451.172	91.9118	451.172	92.4412	451.172	91.5993	451.172	92.1571	451.172	91.2207	451.172	91.7695	451.172	90.7141	451.172	91.2624	451.172	89.9956	451.172	90.6145	451.172	88.9994	451.172	89.7805	451.172	87.7281	451.172	88.7036	451.172	86.3417	451.172	87.4228	451.172	85.3374	451.172	86.2896	451.172	85.415	451.172	85.9436	451.172	86.4904	451.172	86.5139	451.172	87.7622	451.172	87.4419	451.172	88.7151	451.172	88.298	451.172	89.209	451.172	88.9295	451.172	89.2589
465.82	92.4126	465.82	92.3796	465.82	92.3982	465.82	92.2947	465.82	92.3436	465.82	92.163	465.82	92.2495	465.82	91.9919	465.82	92.1142	465.82	91.7712	465.82	91.9392	465.82	91.4624	465.82	91.718	465.82	91.0095	465.82	91.4168	465.82	90.3597	465.82	90.9809	465.82	89.4802	465.82	90.3598	465.82	88.3891	465.82	89.5189	465.82	87.2276	465.82	88.4478	465.82	86.3421	465.82	87.2502	465.82	86.1427	465.82	86.3231	465.82	86.6471	465.82	86.2207	465.82	87.4356	465.82	86.9048	465.82	88.1212	465.82	87.7709	465.82	88.5382	465.82	88.3892	465.82	88.6392
483.398	92.2157	483.398	92.1173	483.398	92.236	483.398	91.9715	483.398	92.175	483.398	91.8157	483.398	92.0529	483.398	91.6712	483.398	91.8873	483.398	91.5297	483.398	91.6757	483.398	91.3476	483.398	91.4026	483.398	91.0597	483.398	91.0477	483.398	90.6054	483.398	90.5747	483.398	89.9322	483.398	89.9173	483.398	88.9757	483.398	88.9844	483.398	87.6951	483.398	87.7159	483.398	86.2897	483.398	86.2735	483.398	85.5285	483.398	85.372	483.398	86.0819	483.398	85.7951	483.398	87.3216	483.398	87.0448	483.398	88.4221	483.398	88.2242	483.398	89.0887	483.398	88.9853	483.398	89.2747
499.512	92.5758	499.512	92.3689	499.512	92.6287	499.512	92.0562	499.512	92.5122	499.512	91.6934	499.512	92.2491	499.512	91.312	499.512	91.8983	499.512	90.9223	499.512	91.543	499.512	90.534	499.512	91.2462	499.512	90.1265	499.512	90.9816	499.512	89.6106	499.512	90.6207	499.512	88.8869	499.512	90.0203	499.512	87.9634	499.512	89.1288	499.512	87.0171	499.512	88.0297	499.512	86.3595	499.512	86.9312	499.512	86.328	499.512	86.1581	499.512	86.9986	499.512	86.0728	499.512	87.9979	499.512	86.7199	499.512	88.8475	499.512	87.7059	499.512	89.267	499.512	88.6076	499.512	89.1727
517.09	92.4994	517.09	92.4666	517.09	92.3879	517.09	92.2487	517.09	92.1763	517.09	91.862	517.09	91.8952	517.09	91.4037	517.09	91.575	517.09	90.989	517.09	91.2436	517.09	90.6484	517.09	90.9097	517.09	90.2936	517.09	90.5804	517.09	89.7547	517.09	90.2691	517.09	88.8572	517.09	89.914	517.09	87.5598	517.09	89.327	517.09	86.1623	517.09	88.3291	517.09	85.3724	517.09	87.0401	517.09	85.6478	517.09	86.1879	517.09	86.6561	517.09	86.5422	517.09	87.9016	517.09	87.6862	517.09	89.0224	517.09	88.8382	517.09	89.7541	517.09	89.6411	517.09	89.9651
536.133	93.2215	536.133	93.0057	536.133	93.2395	536.133	92.6238	536.133	93.0425	536.133	92.1179	536.133	92.6312	536.133	91.5611	536.133	92.0241	536.133	91.0652	536.133	91.282	536.133	90.6936	536.133	90.52	536.133	90.3691	536.133	89.8195	536.133	89.94	536.133	89.1088	536.133	89.2613	536.133	88.2472	536.133	88.1393	536.133	87.2346	536.133	86.3653	536.133	86.2178	536.133	84.3405	536.133	85.3213	536.133	84.1313	536.133	84.8802	536.133	85.9549	536.133	85.599	536.133	87.6561	536.133	87.1697	536.133	88.6743	536.133	88.5252	536.133	89.1985	536.133	89.2404	536.133	89.4016
555.176	93.6289	555.176	93.5225	555.176	93.583	555.176	93.2547	555.176	93.4084	555.176	92.8306	555.176	93.1292	555.176	92.2502	555.176	92.7627	555.176	91.4973	555.176	92.3083	555.176	90.5752	555.176	91.7385	555.176	89.5604	555.176	91.0405	555.176	88.5707	555.176	90.2686	555.176	87.6179	555.176	89.4386	555.176	86.5629	555.176	88.3283	555.176	85.3206	555.176	86.5536	555.176	84.0857	555.176	84.0333	555.176	83.4119	555.176	81.993	555.176	83.9813	555.176	82.4446	555.176	85.6167	555.176	84.2931	555.176	87.2509	555.176	86.1133	555.176	88.179	555.176	87.4954	555.176	88.236
574.219	93.2008	574.219	93.0043	574.219	93.2302	574.219	92.6931	574.219	93.0612	574.219	92.3128	574.219	92.7056	574.219	91.8997	574.219	92.2197	574.219	91.5047	574.219	91.7026	574.219	91.1759	574.219	91.2626	574.219	90.8528	574.219	90.8969	574.219	90.3252	574.219	90.4276	574.219	89.3615	574.219	89.6731	574.219	87.8117	574.219	88.6112	574.219	85.5312	574.219	87.2438	574.219	82.3275	574.219	85.3567	574.219	79.3119	574.219	82.685	574.219	80.4977	574.219	80.2008	574.219	83.2189	574.219	81.1476	574.219	85.1036	574.219	83.8503	574.219	86.1909	574.219	85.741	574.219	86.4707
594.727	92.9493	594.727	93.0123	594.727	92.8067	594.727	92.9137	594.727	92.6272	594.727	92.588	594.727	92.4032	594.727	92.0239	594.727	92.0972	594.727	91.2579	594.727	91.6358	594.727	90.3613	594.727	90.9613	594.727	89.446	594.727	90.1997	594.727	88.6299	594.727	89.6317	594.727	87.9102	594.727	89.246	594.727	87.1117	594.727	88.6533	594.727	86.0445	594.727	87.5348	594.727	84.7686	594.727	85.7467	594.727	83.8931	594.727	83.1813	594.727	84.2634	594.727	80.8217	594.727	85.5357	594.727	81.621	594.727	86.6171	594.727	83.7934	594.727	86.936	594.727	85.4047	594.727	86.4643
615.234	93.2194	615.234	93.1358	615.234	93.2288	615.234	93.0246	615.234	93.1193	615.234	92.8713	615.234	92.8807	615.234	92.6232	615.234	92.5232	615.234	92.2611	615.234	92.0747	615.234	91.7909	615.234	91.5474	615.234	91.1832	615.234	90.8993	615.234	90.3834	615.234	90.1208	615.234	89.3585	615.234	89.3021	615.234	88.0554	615.234	88.4548	615.234	86.3374	615.234	87.4051	615.234	84.1495	615.234	86.081	615.234	82.2953	615.234	84.695	615.234	82.486	615.234	83.529	615.234	83.9446	615.234	83.0971	615.234	85.1	615.234	83.7534	615.234	85.5856	615.234	84.7732	615.234	85.4497
637.207	92.8155	637.207	92.685	637.207	92.7403	637.207	92.4126	637.207	92.5035	637.207	92.123	637.207	92.1826	637.207	91.8697	637.207	91.805	637.207	91.587	637.207	91.3828	637.207	91.2084	637.207	90.9727	637.207	90.7815	637.207	90.5632	637.207	90.3692	637.207	89.9931	637.207	89.8241	637.207	89.1706	637.207	88.8213	637.207	88.2034	637.207	87.1284	637.207	87.0595	637.207	84.8711	637.207	85.465	637.207	82.7184	637.207	83.6589	637.207	81.7395	637.207	82.9304	637.207	82.4783	637.207	83.8632	637.207	84.0735	637.207	85.3398	637.207	85.5599	637.207	86.3624	637.207	86.4361
659.18	91.5036	659.18	91.3976	659.18	91.5513	659.18	91.2345	659.18	91.5336	659.18	91.0145	659.18	91.4361	659.18	90.7479	659.18	91.2275	659.18	90.4242	659.18	90.8727	659.18	89.9837	659.18	90.3887	659.18	89.3369	659.18	89.8791	659.18	88.4022	659.18	89.4047	659.18	87.2224	659.18	88.8096	659.18	86.0503	659.18	87.8579	659.18	84.9838	659.18	86.464	659.18	83.7107	659.18	84.734	659.18	82.6227	659.18	83.1155	659.18	83.4189	659.18	82.6259	659.18	85.3038	659.18	83.3606	659.18	86.4223	659.18	84.1748	659.18	86.4095	659.18	84.8302	659.18	85.6565
682.617	92.0911	682.617	91.922	682.617	92.1423	682.617	91.6814	682.617	92.0398	682.617	91.4562	682.617	91.7325	682.617	91.2483	682.617	91.3029	682.617	91.0321	682.617	91.0063	682.617	90.8858	682.617	90.9697	682.617	90.7752	682.617	90.9469	682.617	90.3405	682.617	90.5628	682.617	89.1212	682.617	89.6206	682.617	86.826	682.617	88.1019	682.617	83.4898	682.617	85.9634	682.617	80.4507	682.617	83.0781	682.617	81.1695	682.617	80.8542	682.617	83.7217	682.617	82.7885	682.617	85.6738	682.617	85.4409	682.617	86.9751	682.617	86.9205	682.617	87.7564	682.617	87.6593	682.617	87.9661
707.52	94.2782	707.52	94.0379	707.52	94.2707	707.52	93.5934	707.52	93.9621	707.52	92.9641	707.52	93.4521	707.52	92.3237	707.52	92.9617	707.52	91.9452	707.52	92.5815	707.52	91.8471	707.52	92.2774	707.52	91.8676	707.52	92.1544	707.52	91.8939	707.52	92.2346	707.52	91.7311	707.52	92.088	707.52	91.0559	707.52	91.2154	707.52	89.4129	707.52	89.4337	707.52	86.2828	707.52	86.7531	707.52	82.3667	707.52	83.3486	707.52	82.6865	707.52	81.7954	707.52	85.3713	707.52	84.8911	707.52	87.3719	707.52	87.9142	707.52	88.7892	707.52	89.4072	707.52	89.5763
732.422	94.6236	732.422	94.5533	732.422	94.4691	732.422	94.2114	732.422	94.1786	732.422	93.6049	732.422	93.7948	732.422	92.8082	732.422	93.2139	732.422	92.0036	732.422	92.3768	732.422	91.4664	732.422	91.6459	732.422	91.3245	732.422	91.5093	732.422	91.3789	732.422	91.7241	732.422	91.225	732.422	91.7709	732.422	90.3821	732.422	91.4599	732.422	88.4693	732.422	90.5877	732.422	85.497	732.422	88.6351	732.422	82.6202	732.422	85.0041	732.422	83.1173	732.422	81.9535	732.422	86.4096	732.422	84.5097	732.422	89.0328	732.422	87.0472	732.422	90.0741	732.422	88.6337	732.422	89.7516
757.324	94.6265	757.324	94.4361	757.324	94.6471	757.324	94.0321	757.324	94.4317	757.324	93.3256	757.324	93.8979	757.324	92.3543	757.324	93.1339	757.324	91.3977	757.324	92.3392	757.324	90.7941	757.324	91.5284	757.324	90.6753	757.324	90.7909	757.324	90.8319	757.324	90.671	757.324	90.6918	757.324	91.0454	757.324	89.7638	757.324	90.8692	757.324	87.8081	757.324	89.5421	757.324	84.4466	757.324	87.1135	757.324	79.8052	757.324	83.6514	757.324	81.5836	757.324	80.2787	757.324	85.9764	757.324	83.0284	757.324	88.6799	757.324	86.6614	757.324	89.95	757.324	88.8241	757.324	89.9343
785.156	93.8435	785.156	93.5182	785.156	94.0045	785.156	93.1384	785.156	93.8757	785.156	92.7233	785.156	93.3594	785.156	92.0866	785.156	92.4658	785.156	91.0025	785.156	91.4368	785.156	89.8008	785.156	90.6387	785.156	89.3502	785.156	90.1632	785.156	89.5334	785.156	89.9978	785.156	89.6534	785.156	90.1739	785.156	89.378	785.156	90.1517	785.156	88.1819	785.156	89.2773	785.156	84.9932	785.156	87.232	785.156	78.6428	785.156	83.9436	785.156	78.9223	785.156	80.7062	785.156	83.2995	785.156	82.0434	785.156	85.1969	785.156	85.294	785.156	86.0806	785.156	86.8565	785.156	86.7952
811.523	94.695	811.523	94.6218	811.523	94.5638	811.523	94.2034	811.523	94.2511	811.523	93.3927	811.523	93.807	811.523	92.4185	811.523	93.288	811.523	91.526	811.523	92.463	811.523	90.7351	811.523	91.2509	811.523	90.2965	811.523	90.4913	811.523	90.5459	811.523	90.5508	811.523	90.8256	811.523	90.5631	811.523	90.284	811.523	90.3684	811.523	88.5618	811.523	89.9834	811.523	85.4996	811.523	88.4082	811.523	81.4154	811.523	84.5404	811.523	81.0568	811.523	79.7542	811.523	85.3917	811.523	82.4643	811.523	88.334	811.523	86.1026	811.523	89.537	811.523	88.3	811.523	89.4471
840.82	94.7566	840.82	94.4855	840.82	94.7953	840.82	94.1068	840.82	94.541	840.82	93.6071	840.82	93.9826	840.82	92.6578	840.82	93.1385	840.82	91.0239	840.82	92.0729	840.82	89.2681	840.82	90.8642	840.82	88.2994	840.82	89.6708	840.82	87.9194	840.82	89.2125	840.82	88.1777	840.82	89.7782	840.82	88.94	840.82	89.9873	840.82	88.7891	840.82	89.1532	840.82	86.4164	840.82	87.3455	840.82	81.1514	840.82	84.1397	840.82	81.3262	840.82	79.8917	840.82	84.978	840.82	82.9863	840.82	87.3321	840.82	86.3945	840.82	88.8903	840.82	88.1454	840.82	89.1143
870.117	94.2415	870.117	94.2434	870.117	94.1764	870.117	94.0287	870.117	93.8904	870.117	93.219	870.117	93.4004	870.117	92.0757	870.117	92.7091	870.117	91.185	870.117	91.6397	870.117	90.0538	870.117	90.3517	870.117	88.4098	870.117	89.3896	870.117	88.5074	870.117	88.8585	870.117	89.5282	870.117	88.8951	870.117	88.8977	870.117	89.3974	870.117	86.3814	870.117	89.046	870.117	82.6046	870.117	86.6005	870.117	78.0455	870.117	81.8207	870.117	78.7497	870.117	79.707	870.117	84.6809	870.117	82.9816	870.117	87.9796	870.117	86.8501	870.117	89.3001	870.117	89.2992	870.117	89.8384
900.879	93.6131	900.879	93.6357	900.879	93.5331	900.879	93.5314	900.879	93.6997	900.879	93.4184	900.879	93.766	900.879	92.892	900.879	93.214	900.879	91.4466	900.879	92.1044	900.879	89.2653	900.879	90.4803	900.879	87.3399	900.879	88.2525	900.879	86.4923	900.879	87.1059	900.879	87.084	900.879	88.0602	900.879	88.5677	900.879	88.4833	900.879	88.6673	900.879	87.8118	900.879	85.658	900.879	85.8579	900.879	74.0228	900.879	81.0756	900.879	79.6324	900.879	56.8616	900.879	86.1946	900.879	83.6527	900.879	89.147	900.879	88.3628	900.879	90.6216	900.879	89.9289	900.879	90.6528
933.105	94.0866	933.105	94.0459	933.105	94.0828	933.105	93.8115	933.105	93.7096	933.105	93.3412	933.105	93.2523	933.105	93.1227	933.105	93.0524	933.105	92.7322	933.105	92.5318	933.105	91.156	933.105	91.3881	933.105	88.1397	933.105	89.4489	933.105	86.0462	933.105	86.3029	933.105	87.6481	933.105	85.9821	933.105	89.4218	933.105	89.0489	933.105	89.6845	933.105	90.1316	933.105	87.997	933.105	89.408	933.105	82.2045	933.105	86.6798	933.105	73.4512	933.105	78.0158	933.105	83.8078	933.105	79.159	933.105	87.4138	933.105	85.3133	933.105	89.34	933.105	88.603	933.105	89.8091
965.332	93.7387	965.332	93.6014	965.332	93.5583	965.332	93.4002	965.332	93.5403	965.332	93.344	965.332	93.449	965.332	92.8679	965.332	92.9408	965.332	92.0165	965.332	92.3615	965.332	91.0382	965.332	91.2504	965.332	89.4539	965.332	89.0838	965.332	87.2278	965.332	86.9802	965.332	86.2715	965.332	86.0402	965.332	87.444	965.332	86.7289	965.332	88.313	965.332	88.6998	965.332	87.5788	965.332	88.6006	965.332	84.3591	965.332	85.4955	965.332	72.7043	965.332	79.2073	965.332	78.9314	965.332	72.4112	965.332	85.0851	965.332	83.8767	965.332	87.0243	965.332	87.3092	965.332	87.8144
1,000.49	92.8677	1,000.49	92.8256	1,000.49	92.6999	1,000.49	92.3011	1,000.49	92.2972	1,000.49	91.5174	1,000.49	91.9153	1,000.49	91.1612	1,000.49	91.7149	1,000.49	91.0263	1,000.49	91.1937	1,000.49	90.3948	1,000.49	90.3586	1,000.49	88.8444	1,000.49	89.1863	1,000.49	86.5135	1,000.49	86.9459	1,000.49	85.8676	1,000.49	84.321	1,000.49	87.3802	1,000.49	85.2118	1,000.49	88.1062	1,000.49	86.11	1,000.49	87.2207	1,000.49	86.2225	1,000.49	84.0062	1,000.49	85.0312	1,000.49	73.0253	1,000.49	77.935	1,000.49	76.5875	1,000.49	73.1233	1,000.49	84.3037	1,000.49	82.3991	1,000.49	87.4256	1,000.49	86.16	1,000.49	87.8727
1,035.64	91.984	1,035.64	91.5792	1,035.64	92.0238	1,035.64	91.3968	1,035.64	91.3185	1,035.64	90.8739	1,035.64	90.6409	1,035.64	89.9761	1,035.64	89.9928	1,035.64	89.2033	1,035.64	89.2929	1,035.64	88.217	1,035.64	88.9585	1,035.64	87.2466	1,035.64	87.8864	1,035.64	86.5942	1,035.64	85.278	1,035.64	85.1703	1,035.64	83.2875	1,035.64	83.8229	1,035.64	84.0191	1,035.64	84.2939	1,035.64	84.7409	1,035.64	83.6501	1,035.64	83.6718	1,035.64	81.0583	1,035.64	80.7167	1,035.64	75.08	1,035.64	75.4323	1,035.64	78.8439	1,035.64	70.0974	1,035.64	84.0286	1,035.64	82.1659	1,035.64	85.6885	1,035.64	85.6132	1,035.64	86.3423
1,072.27	92.6407	1,072.27	92.658	1,072.27	92.4732	1,072.27	92.2048	1,072.27	92.1166	1,072.27	91.1934	1,072.27	91.4478	1,072.27	90.1263	1,072.27	90.6911	1,072.27	89.7743	1,072.27	89.8666	1,072.27	89.1308	1,072.27	89.438	1,072.27	86.6443	1,072.27	88.7117	1,072.27	82.7626	1,072.27	85.8058	1,072.27	82.3518	1,072.27	81.6493	1,072.27	85.9507	1,072.27	83.7751	1,072.27	87.7927	1,072.27	86.1709	1,072.27	86.3984	1,072.27	87.0608	1,072.27	80.2449	1,072.27	85.968	1,072.27	52.1987	1,072.27	78.5447	1,072.27	80.1359	1,072.27	77.8247	1,072.27	85.5844	1,072.27	84.5073	1,072.27	87.6611	1,072.27	87.614	1,072.27	88.5495
1,108.89	94.6843	1,108.89	93.8561	1,108.89	94.7647	1,108.89	92.9905	1,108.89	93.9236	1,108.89	91.9595	1,108.89	92.7666	1,108.89	90.6049	1,108.89	91.5504	1,108.89	89.8279	1,108.89	90.3616	1,108.89	89.3689	1,108.89	89.6596	1,108.89	88.0317	1,108.89	89.0462	1,108.89	85.7307	1,108.89	88.0215	1,108.89	82.8333	1,108.89	85.7592	1,108.89	84.1963	1,108.89	81.4309	1,108.89	87.3429	1,108.89	83.3694	1,108.89	87.9409	1,108.89	86.8993	1,108.89	85.4972	1,108.89	86.892	1,108.89	78.6487	1,108.89	83.7222	1,108.89	78.2138	1,108.89	78.3756	1,108.89	86.2631	1,108.89	82.2367	1,108.89	88.5554	1,108.89	87.5439	1,108.89	88.5677
1,148.44	94.1053	1,148.44	94.0985	1,148.44	94.0604	1,148.44	93.513	1,148.44	93.9108	1,148.44	92.3256	1,148.44	92.9854	1,148.44	90.6764	1,148.44	91.6128	1,148.44	88.8886	1,148.44	90.3098	1,148.44	87.9248	1,148.44	88.9413	1,148.44	87.7301	1,148.44	88.3567	1,148.44	85.9778	1,148.44	87.4298	1,148.44	81.6367	1,148.44	84.9154	1,148.44	80.449	1,148.44	82.5902	1,148.44	84.4947	1,148.44	82.7889	1,148.44	86.057	1,148.44	84.2853	1,148.44	84.4157	1,148.44	85.4776	1,148.44	76.8332	1,148.44	82.8502	1,148.44	73.5679	1,148.44	70.5772	1,148.44	82.1935	1,148.44	77.4351	1,148.44	84.429	1,148.44	83.6229	1,148.44	85.2374
1,189.45	93.2955	1,189.45	93.3645	1,189.45	93.5805	1,189.45	93.2945	1,189.45	93.3858	1,189.45	92.458	1,189.45	92.9546	1,189.45	91.4563	1,189.45	92.5559	1,189.45	90.3391	1,189.45	91.1843	1,189.45	88.3969	1,189.45	89.4168	1,189.45	86.2692	1,189.45	88.196	1,189.45	84.9789	1,189.45	86.5589	1,189.45	82.5134	1,189.45	84.9424	1,189.45	80.5546	1,189.45	83.1729	1,189.45	81.9315	1,189.45	81.8908	1,189.45	82.7087	1,189.45	83.8772	1,189.45	81.4861	1,189.45	83.9184	1,189.45	75.9426	1,189.45	82.2007	1,189.45	73.6124	1,189.45	76.4587	1,189.45	81.0551	1,189.45	72.7215	1,189.45	86.1191	1,189.45	80.9698	1,189.45	85.5957
1,230.47	94.2968	1,230.47	94.0876	1,230.47	94.2842	1,230.47	93.8011	1,230.47	93.7864	1,230.47	92.6438	1,230.47	93.3079	1,230.47	91.4122	1,230.47	92.3666	1,230.47	90.6245	1,230.47	90.9697	1,230.47	89.7007	1,230.47	90.1818	1,230.47	88.9143	1,230.47	89.8499	1,230.47	86.4969	1,230.47	88.9606	1,230.47	81.3456	1,230.47	86.898	1,230.47	80.6698	1,230.47	83.4557	1,230.47	84.3866	1,230.47	83.1766	1,230.47	86.1646	1,230.47	86.1434	1,230.47	84.7259	1,230.47	87.3623	1,230.47	80.1111	1,230.47	84.1112	1,230.47	64.3333	1,230.47	74.7891	1,230.47	79.784	1,230.47	72.3328	1,230.47	82.7646	1,230.47	81.8612	1,230.47	83.9931
1,274.41	94.8916	1,274.41	94.3417	1,274.41	94.9772	1,274.41	93.652	1,274.41	94.5872	1,274.41	93.2399	1,274.41	93.7884	1,274.41	92.3847	1,274.41	92.8177	1,274.41	90.4273	1,274.41	91.6515	1,274.41	88.9175	1,274.41	90.1666	1,274.41	88.6918	1,274.41	88.6739	1,274.41	87.8503	1,274.41	87.6969	1,274.41	86.4565	1,274.41	86.4753	1,274.41	83.3457	1,274.41	83.8963	1,274.41	79.2028	1,274.41	81.74	1,274.41	83.5127	1,274.41	83.0608	1,274.41	84.7753	1,274.41	84.8405	1,274.41	80.2875	1,274.41	84.6324	1,274.41	65.7341	1,274.41	79.6604	1,274.41	77.3503	1,274.41	69.8412	1,274.41	83.3384	1,274.41	81.9687	1,274.41	84.4859
1,319.82	94.9471	1,319.82	94.9417	1,319.82	94.7243	1,319.82	94.3776	1,319.82	94.4567	1,319.82	93.7221	1,319.82	93.9434	1,319.82	92.5599	1,319.82	92.8898	1,319.82	91.1768	1,319.82	91.3267	1,319.82	89.8579	1,319.82	90.2353	1,319.82	88.6151	1,319.82	88.9187	1,319.82	88.2201	1,319.82	87.9135	1,319.82	86.3782	1,319.82	86.244	1,319.82	80.8844	1,319.82	84.3565	1,319.82	80.7479	1,319.82	82.5414	1,319.82	82.67	1,319.82	83.2596	1,319.82	82.5213	1,319.82	85.6041	1,319.82	80.0688	1,319.82	82.6654	1,319.82	65.7677	1,319.82	74.9072	1,319.82	79.9718	1,319.82	73.2335	1,319.82	84.6146	1,319.82	82.5696	1,319.82	85.3821
1,366.7	95.0758	1,366.7	94.6199	1,366.7	94.6578	1,366.7	94.457	1,366.7	94.2579	1,366.7	93.4521	1,366.7	94.0145	1,366.7	91.9997	1,366.7	92.8141	1,366.7	90.8566	1,366.7	91.5588	1,366.7	88.8892	1,366.7	89.5111	1,366.7	87.8658	1,366.7	88.1736	1,366.7	86.6128	1,366.7	87.468	1,366.7	84.6806	1,366.7	86.7227	1,366.7	82.4039	1,366.7	85.5961	1,366.7	79.6482	1,366.7	83.0364	1,366.7	82.7776	1,366.7	83.913	1,366.7	84.9427	1,366.7	84.8229	1,366.7	79.5412	1,366.7	84.2105	1,366.7	72.3961	1,366.7	75.5782	1,366.7	80.1417	1,366.7	76.1145	1,366.7	84.7641	1,366.7	82.6289	1,366.7	86.024
1,413.57	94.2488	1,413.57	94.6277	1,413.57	94.7466	1,413.57	94.0907	1,413.57	94.4207	1,413.57	93.2356	1,413.57	93.5934	1,413.57	92.8957	1,413.57	92.9279	1,413.57	90.8744	1,413.57	92.1914	1,413.57	89.3951	1,413.57	89.8347	1,413.57	87.8889	1,413.57	87.1181	1,413.57	85.6322	1,413.57	86.9806	1,413.57	85.1299	1,413.57	85.9592	1,413.57	83.7065	1,413.57	84.1562	1,413.57	79.9331	1,413.57	80.5537	1,413.57	84.155	1,413.57	82.3805	1,413.57	83.5013	1,413.57	83.7689	1,413.57	82.0799	1,413.57	83.6931	1,413.57	73.714	1,413.57	82.3428	1,413.57	81.1827	1,413.57	76.5611	1,413.57	83.5506	1,413.57	83.7221	1,413.57	84.7301
1,463.38	94.7712	1,463.38	94.0333	1,463.38	94.5695	1,463.38	93.3943	1,463.38	93.9644	1,463.38	93.0583	1,463.38	92.842	1,463.38	91.3652	1,463.38	92.2752	1,463.38	90.9588	1,463.38	90.6038	1,463.38	89.3386	1,463.38	89.3148	1,463.38	87.1762	1,463.38	87.4629	1,463.38	87.4712	1,463.38	84.8619	1,463.38	85.5576	1,463.38	86.3109	1,463.38	82.2908	1,463.38	83.7343	1,463.38	80.9482	1,463.38	79.6212	1,463.38	83.9767	1,463.38	79.3602	1,463.38	85.0211	1,463.38	83.0454	1,463.38	81.1426	1,463.38	83.8337	1,463.38	73.643	1,463.38	79.0292	1,463.38	75.6424	1,463.38	74.1361	1,463.38	80.7542	1,463.38	79.5608	1,463.38	81.4887
1,516.11	93.9106	1,516.11	93.3534	1,516.11	93.6259	1,516.11	92.5096	1,516.11	93.3816	1,516.11	91.4216	1,516.11	92.7916	1,516.11	90.7615	1,516.11	90.9436	1,516.11	89.4298	1,516.11	90.3155	1,516.11	87.4924	1,516.11	89.1431	1,516.11	86.4023	1,516.11	87.5375	1,516.11	85.227	1,516.11	85.7101	1,516.11	84.5666	1,516.11	81.9945	1,516.11	82.5864	1,516.11	81.4623	1,516.11	80.8285	1,516.11	81.1329	1,516.11	79.5414	1,516.11	77.7008	1,516.11	82.7182	1,516.11	82.5553	1,516.11	80.9592	1,516.11	84.0807	1,516.11	68.595	1,516.11	78.4904	1,516.11	76.4326	1,516.11	59.9427	1,516.11	81.1832	1,516.11	76.3543	1,516.11	80.8736
1,568.85	93.5873	1,568.85	93.3811	1,568.85	93.1895	1,568.85	92.0238	1,568.85	92.9794	1,568.85	90.8393	1,568.85	91.9589	1,568.85	89.6786	1,568.85	91.2452	1,568.85	88.1116	1,568.85	90.0903	1,568.85	86.2376	1,568.85	88.8145	1,568.85	83.3092	1,568.85	86.8451	1,568.85	84.5569	1,568.85	84.5896	1,568.85	82.9146	1,568.85	84.1613	1,568.85	82.0664	1,568.85	82.7125	1,568.85	82.4522	1,568.85	81.3399	1,568.85	79.8164	1,568.85	79.2977	1,568.85	82.7248	1,568.85	79.5685	1,568.85	82.6613	1,568.85	81.6949	1,568.85	77.9243	1,568.85	80.482	1,568.85	69.1892	1,568.85	74.553	1,568.85	80.2049	1,568.85	64.3468	1,568.85	79.3548
1,624.51	95.2766	1,624.51	94.2622	1,624.51	94.4617	1,624.51	92.8189	1,624.51	93.2061	1,624.51	91.8872	1,624.51	92.9081	1,624.51	89.7643	1,624.51	92.2892	1,624.51	87.9638	1,624.51	90.0634	1,624.51	86.6763	1,624.51	88.9518	1,624.51	84.1382	1,624.51	86.914	1,624.51	83.1274	1,624.51	85.3673	1,624.51	81.1213	1,624.51	83.5844	1,624.51	77.4834	1,624.51	82.344	1,624.51	78.3483	1,624.51	81.1494	1,624.51	79.942	1,624.51	81.215	1,624.51	78.1335	1,624.51	78.8402	1,624.51	81.1546	1,624.51	81.6109	1,624.51	78.6659	1,624.51	80.7153	1,624.51	66.1538	1,624.51	76.1278	1,624.51	76.3213	1,624.51	72.2042	1,624.51	77.7425
1,681.64	94.694	1,681.64	94.0865	1,681.64	94.8179	1,681.64	93.9314	1,681.64	93.718	1,681.64	92.6473	1,681.64	92.8516	1,681.64	91.1403	1,681.64	92.8682	1,681.64	90.5924	1,681.64	91.3532	1,681.64	86.998	1,681.64	90.0698	1,681.64	86.3876	1,681.64	86.7902	1,681.64	84.0758	1,681.64	87.47	1,681.64	80.9095	1,681.64	86.1733	1,681.64	80.3019	1,681.64	84.4208	1,681.64	77.5529	1,681.64	81.4994	1,681.64	79.9213	1,681.64	83.0066	1,681.64	78.0302	1,681.64	81.91	1,681.64	79.8422	1,681.64	77.1039	1,681.64	81.6935	1,681.64	75.5852	1,681.64	72.2987	1,681.64	64.4603	1,681.64	72.9231	1,681.64	76.2405	1,681.64	75.3311
1,741.7	94.6731	1,741.7	94.9371	1,741.7	94.6059	1,741.7	93.6503	1,741.7	93.8717	1,741.7	92.4592	1,741.7	92.8358	1,741.7	91.2872	1,741.7	91.6671	1,741.7	90.7185	1,741.7	90.7077	1,741.7	87.6635	1,741.7	89.1206	1,741.7	87.0998	1,741.7	88.5193	1,741.7	84.9775	1,741.7	84.7533	1,741.7	87.0036	1,741.7	83.4392	1,741.7	83.0917	1,741.7	83.3039	1,741.7	80.5362	1,741.7	79.3803	1,741.7	78.9203	1,741.7	81.0543	1,741.7	81.0416	1,741.7	81.4391	1,741.7	81.006	1,741.7	81.3631	1,741.7	77.6189	1,741.7	80.9063	1,741.7	70.6885	1,741.7	71.4214	1,741.7	69.5361	1,741.7	81.4589	1,741.7	78.6437
1,803.22	93.7425	1,803.22	93.9919	1,803.22	93.1239	1,803.22	92.6729	1,803.22	93.1203	1,803.22	92.0036	1,803.22	92.1294	1,803.22	90.2678	1,803.22	89.2164	1,803.22	89.1448	1,803.22	88.2332	1,803.22	88.6349	1,803.22	87.2389	1,803.22	85.4153	1,803.22	87.2482	1,803.22	82.2112	1,803.22	84.9765	1,803.22	84.7026	1,803.22	84.4313	1,803.22	77.1332	1,803.22	81.6799	1,803.22	74.9162	1,803.22	78.2139	1,803.22	71.8821	1,803.22	78.1163	1,803.22	74.641	1,803.22	81.2599	1,803.22	78.7961	1,803.22	83.816	1,803.22	79.7755	1,803.22	75.8067	1,803.22	70.7481	1,803.22	76.0684	1,803.22	77.8448	1,803.22	76.4805	1,803.22	73.45
1,866.21	93.5467	1,866.21	93.1156	1,866.21	93.4311	1,866.21	92.9232	1,866.21	93.6007	1,866.21	91.8254	1,866.21	92.7366	1,866.21	89.4321	1,866.21	88.6911	1,866.21	86.8774	1,866.21	88.8597	1,866.21	86.546	1,866.21	86.6906	1,866.21	86.4447	1,866.21	85.9045	1,866.21	84.8112	1,866.21	83.8417	1,866.21	87.1695	1,866.21	84.0016	1,866.21	84.1353	1,866.21	84.3187	1,866.21	77.6753	1,866.21	77.7408	1,866.21	79.3285	1,866.21	77.8969	1,866.21	80.1515	1,866.21	79.3362	1,866.21	79.7909	1,866.21	84.1914	1,866.21	78.1374	1,866.21	80.1759	1,866.21	68.2748	1,866.21	80.8721	1,866.21	75.725	1,866.21	74.4566	1,866.21	74.875
1,932.13	92.6453	1,932.13	92.7294	1,932.13	94.028	1,932.13	92.0648	1,932.13	93.104	1,932.13	90.1088	1,932.13	92.1018	1,932.13	87.9784	1,932.13	90.8338	1,932.13	85.4905	1,932.13	88.445	1,932.13	82.8496	1,932.13	85.9192	1,932.13	84.2531	1,932.13	84.8597	1,932.13	83.8322	1,932.13	83.5046	1,932.13	84.1937	1,932.13	82.5921	1,932.13	82.8163	1,932.13	81.8285	1,932.13	80.2189	1,932.13	79.2769	1,932.13	79.7715	1,932.13	76.4018	1,932.13	72.9099	1,932.13	78.4621	1,932.13	74.8588	1,932.13	77.9909	1,932.13	70.2272	1,932.13	80.1209	1,932.13	68.2477	1,932.13	81.9498	1,932.13	77.1113	1,932.13	71.4701	1,932.13	71.5365
1,999.51	93.5086	1,999.51	93.61	1,999.51	94.2584	1,999.51	93.2964	1,999.51	93.939	1,999.51	90.9349	1,999.51	92.2271	1,999.51	90.5967	1,999.51	91.5856	1,999.51	86.3542	1,999.51	88.3011	1,999.51	85.0751	1,999.51	87.5944	1,999.51	84.6552	1,999.51	87.6513	1,999.51	82.2461	1,999.51	80.4191	1,999.51	81.4249	1,999.51	77.0429	1,999.51	81.809	1,999.51	80.94	1,999.51	76.638	1,999.51	79.2813	1,999.51	73.1307	1,999.51	79.2988	1,999.51	78.5742	1,999.51	80.6893	1,999.51	75.3207	1,999.51	79.9097	1,999.51	80.4837	1,999.51	77.5644	1,999.51	69.7638	1,999.51	79.33	1,999.51	76.6174	1,999.51	68.24	1,999.51	68.4127
2,069.82	94.2536	2,069.82	93.7225	2,069.82	93.4199	2,069.82	93.2798	2,069.82	93.4026	2,069.82	92.3145	2,069.82	93.0254	2,069.82	91.6665	2,069.82	92.4273	2,069.82	88.4855	2,069.82	89.8473	2,069.82	86.825	2,069.82	86.658	2,069.82	86.1225	2,069.82	85.666	2,069.82	80.2812	2,069.82	80.729	2,069.82	80.0327	2,069.82	81.6431	2,069.82	82.193	2,069.82	83.4698	2,069.82	81.4571	2,069.82	80.817	2,069.82	81.8572	2,069.82	73.5861	2,069.82	80.3831	2,069.82	80.0384	2,069.82	76.7573	2,069.82	79.1438	2,069.82	79.586	2,069.82	78.8229	2,069.82	69.7978	2,069.82	77.046	2,069.82	60.1356	2,069.82	76.9538	2,069.82	79.0235
2,143.07	94.0249	2,143.07	92.3132	2,143.07	93.619	2,143.07	92.5674	2,143.07	91.5862	2,143.07	92.3496	2,143.07	91.6383	2,143.07	91.6704	2,143.07	90.7112	2,143.07	89.6325	2,143.07	88.8634	2,143.07	84.7712	2,143.07	85.9526	2,143.07	83.8378	2,143.07	86.6572	2,143.07	85.6082	2,143.07	85.7063	2,143.07	83.1806	2,143.07	67.3509	2,143.07	84.623	2,143.07	83.7907	2,143.07	78.6553	2,143.07	77.018	2,143.07	78.37	2,143.07	78.0883	2,143.07	79.0754	2,143.07	79.0909	2,143.07	77.6586	2,143.07	79.3117	2,143.07	75.3563	2,143.07	76.8607	2,143.07	62.0749	2,143.07	77.5332	2,143.07	80.9783	2,143.07	78.6364	2,143.07	81.9593
2,219.24	93.2163	2,219.24	91.743	2,219.24	92.5215	2,219.24	90.3594	2,219.24	92.3507	2,219.24	91.3868	2,219.24	90.9801	2,219.24	90.6233	2,219.24	89.6605	2,219.24	88.2541	2,219.24	88.585	2,219.24	87.0483	2,219.24	87.1987	2,219.24	86.8723	2,219.24	85.6502	2,219.24	87.0571	2,219.24	83.2084	2,219.24	78.133	2,219.24	83.4278	2,219.24	82.9679	2,219.24	74.7861	2,219.24	76.9183	2,219.24	82.5053	2,219.24	74.6731	2,219.24	75.7288	2,219.24	81.9393	2,219.24	79.8711	2,219.24	77.6961	2,219.24	83.7611	2,219.24	74.2614	2,219.24	73.1722	2,219.24	61.0673	2,219.24	74.0092	2,219.24	84.6866	2,219.24	75.7782	2,219.24	82.1779
2,296.88	92.8464	2,296.88	92.4144	2,296.88	92.0054	2,296.88	92.0764	2,296.88	92.5277	2,296.88	90.0132	2,296.88	92.0973	2,296.88	88.765	2,296.88	89.0708	2,296.88	88.404	2,296.88	89.1755	2,296.88	87.3073	2,296.88	87.5913	2,296.88	83.5948	2,296.88	85.068	2,296.88	85.2075	2,296.88	81.6531	2,296.88	80.6164	2,296.88	83.0481	2,296.88	80.6319	2,296.88	76.555	2,296.88	80.3313	2,296.88	78.1696	2,296.88	75.3414	2,296.88	81.0071	2,296.88	81.9554	2,296.88	55.226	2,296.88	76.6646	2,296.88	80.5936	2,296.88	76.33	2,296.88	79.6321	2,296.88	61.92	2,296.88	74.1875	2,296.88	80.1939	2,296.88	71.4727	2,296.88	78.1253
2,378.91	93.444	2,378.91	93.243	2,378.91	93.6426	2,378.91	92.8792	2,378.91	93.3409	2,378.91	91.5962	2,378.91	91.6519	2,378.91	90.0536	2,378.91	91.0464	2,378.91	88.1027	2,378.91	89.5643	2,378.91	86.1491	2,378.91	89.5352	2,378.91	83.3466	2,378.91	87.559	2,378.91	82.2929	2,378.91	86.8401	2,378.91	84.1553	2,378.91	84.3546	2,378.91	79.5451	2,378.91	80.7235	2,378.91	79.882	2,378.91	83.1319	2,378.91	74.0848	2,378.91	80.0171	2,378.91	76.2891	2,378.91	80.171	2,378.91	79.8315	2,378.91	73.5844	2,378.91	78.35	2,378.91	81.1314	2,378.91	61.0349	2,378.91	77.2447	2,378.91	70.6583	2,378.91	69.5242	2,378.91	67.1604
2,462.4	94.8342	2,462.4	94.6302	2,462.4	94.6869	2,462.4	93.8684	2,462.4	94.1923	2,462.4	92.6992	2,462.4	93.3733	2,462.4	91.21	2,462.4	91.9116	2,462.4	89.4914	2,462.4	90.637	2,462.4	87.4755	2,462.4	89.4336	2,462.4	85.3212	2,462.4	87.6734	2,462.4	84.611	2,462.4	85.8583	2,462.4	83.1924	2,462.4	84.5839	2,462.4	80.1308	2,462.4	82.2903	2,462.4	80.2634	2,462.4	80.3407	2,462.4	78.0305	2,462.4	79.5622	2,462.4	76.2771	2,462.4	77.2218	2,462.4	78.7853	2,462.4	78.15	2,462.4	80.4226	2,462.4	79.5462	2,462.4	74.5939	2,462.4	78.6931	2,462.4	71.5133	2,462.4	69.1848	2,462.4	75.7547
2,548.83	94.3919	2,548.83	94.285	2,548.83	94.5375	2,548.83	93.8811	2,548.83	93.8109	2,548.83	92.735	2,548.83	93.2049	2,548.83	91.5183	2,548.83	91.5202	2,548.83	90.2082	2,548.83	90.0286	2,548.83	88.1606	2,548.83	88.7402	2,548.83	85.204	2,548.83	86.679	2,548.83	85.7661	2,548.83	85.0855	2,548.83	83.2158	2,548.83	83.5879	2,548.83	81.636	2,548.83	80.9163	2,548.83	80.7438	2,548.83	80.5322	2,548.83	78.3596	2,548.83	78.0711	2,548.83	78.8822	2,548.83	77.1439	2,548.83	76.6674	2,548.83	76.2498	2,548.83	79.7029	2,548.83	78.2541	2,548.83	76.7696	2,548.83	79.3249	2,548.83	69.968	2,548.83	72.5789	2,548.83	74.306
2,639.65	93.1808	2,639.65	93.1249	2,639.65	93.0413	2,639.65	92.6251	2,639.65	92.8758	2,639.65	92.104	2,639.65	92.3406	2,639.65	90.8864	2,639.65	91.2293	2,639.65	89.4003	2,639.65	89.3933	2,639.65	88.1252	2,639.65	87.8389	2,639.65	85.8878	2,639.65	86.2401	2,639.65	85.2251	2,639.65	83.8867	2,639.65	82.9383	2,639.65	83.5868	2,639.65	79.1123	2,639.65	78.8014	2,639.65	80.8513	2,639.65	79.8488	2,639.65	76.0169	2,639.65	79.8028	2,639.65	78.2598	2,639.65	75.8747	2,639.65	73.9949	2,639.65	78.0138	2,639.65	76.3227	2,639.65	75.0056	2,639.65	74.6513	2,639.65	77.2334	2,639.65	76.4472	2,639.65	74.0623	2,639.65	75.0616
2,731.93	93.1469	2,731.93	93.0749	2,731.93	93.3356	2,731.93	92.0434	2,731.93	92.7868	2,731.93	91.5596	2,731.93	92.1204	2,731.93	90.5768	2,731.93	91.3495	2,731.93	89.3265	2,731.93	90.0282	2,731.93	87.4676	2,731.93	88.0472	2,731.93	86.1598	2,731.93	87.2358	2,731.93	84.5398	2,731.93	84.5897	2,731.93	83.2366	2,731.93	82.662	2,731.93	78.3233	2,731.93	80.2702	2,731.93	79.2541	2,731.93	79.3655	2,731.93	75.6593	2,731.93	80.2665	2,731.93	77.9867	2,731.93	74.2721	2,731.93	72.9814	2,731.93	80.4879	2,731.93	76.8796	2,731.93	74.4056	2,731.93	76.2126	2,731.93	76.9301	2,731.93	75.6902	2,731.93	76.0306	2,731.93	74.8064
2,828.61	94.4873	2,828.61	94.118	2,828.61	93.8597	2,828.61	93.1417	2,828.61	93.7826	2,828.61	92.3169	2,828.61	92.6	2,828.61	91.1041	2,828.61	91.7105	2,828.61	88.9936	2,828.61	90.7649	2,828.61	87.6531	2,828.61	89.1434	2,828.61	87.4304	2,828.61	87.7338	2,828.61	83.4556	2,828.61	85.4934	2,828.61	83.9597	2,828.61	82.081	2,828.61	78.2521	2,828.61	82.7003	2,828.61	78.4877	2,828.61	78.3898	2,828.61	77.0178	2,828.61	80.7393	2,828.61	78.6247	2,828.61	74.543	2,828.61	78.411	2,828.61	80.7193	2,828.61	66.8874	2,828.61	74.9768	2,828.61	73.9487	2,828.61	74.4149	2,828.61	77.4561	2,828.61	75.9515	2,828.61	76.7007
2,928.22	94.3846	2,928.22	94.3511	2,928.22	94.4375	2,928.22	93.9873	2,928.22	94.1242	2,928.22	92.8199	2,928.22	93.4761	2,928.22	91.0704	2,928.22	92.3199	2,928.22	89.1267	2,928.22	91.0344	2,928.22	87.6489	2,928.22	89.0898	2,928.22	86.3711	2,928.22	87.1585	2,928.22	82.801	2,928.22	86.0644	2,928.22	82.7908	2,928.22	83.5907	2,928.22	80.4428	2,928.22	83.308	2,928.22	77.0968	2,928.22	74.8217	2,928.22	77.8447	2,928.22	78.5054	2,928.22	77.424	2,928.22	74.051	2,928.22	79.1591	2,928.22	76.651	2,928.22	72.6366	2,928.22	77.467	2,928.22	72.865	2,928.22	69.6313	2,928.22	79.0329	2,928.22	69.9591	2,928.22	78.8092
3,030.76	94.1747	3,030.76	94.2652	3,030.76	93.7093	3,030.76	93.8552	3,030.76	93.598	3,030.76	92.8611	3,030.76	92.9377	3,030.76	91.1134	3,030.76	91.842	3,030.76	89.0993	3,030.76	90.0738	3,030.76	87.3968	3,030.76	88.5884	3,030.76	84.4612	3,030.76	85.5982	3,030.76	82.6219	3,030.76	84.4717	3,030.76	81.2469	3,030.76	81.7176	3,030.76	79.4564	3,030.76	81.4702	3,030.76	76.5505	3,030.76	77.803	3,030.76	76.0408	3,030.76	77.2733	3,030.76	73.4519	3,030.76	73.4812	3,030.76	77.8892	3,030.76	76.714	3,030.76	73.7086	3,030.76	76.3326	3,030.76	70.8652	3,030.76	72.6285	3,030.76	66.541	3,030.76	69.5626	3,030.76	73.0793
3,137.7	92.929	3,137.7	92.6136	3,137.7	93.1212	3,137.7	92.3965	3,137.7	92.537	3,137.7	91.6941	3,137.7	92.0139	3,137.7	90.1978	3,137.7	90.5758	3,137.7	87.88	3,137.7	88.741	3,137.7	85.8868	3,137.7	86.8492	3,137.7	83.0312	3,137.7	84.7256	3,137.7	82.6051	3,137.7	82.6983	3,137.7	79.1464	3,137.7	80.6195	3,137.7	78.9382	3,137.7	79.3188	3,137.7	76.5515	3,137.7	77.7855	3,137.7	75.9181	3,137.7	76.6404	3,137.7	73.1889	3,137.7	72.6556	3,137.7	77.0526	3,137.7	74.3536	3,137.7	73.0261	3,137.7	73.5792	3,137.7	69.7086	3,137.7	72.4447	3,137.7	69.1597	3,137.7	67.443	3,137.7	71.9342
3,249.02	92.0861	3,249.02	91.8023	3,249.02	92.3818	3,249.02	91.4368	3,249.02	91.9284	3,249.02	90.5316	3,249.02	91.5025	3,249.02	89.3408	3,249.02	90.1814	3,249.02	87.455	3,249.02	88.5352	3,249.02	85.3109	3,249.02	86.3952	3,249.02	82.4093	3,249.02	84.9936	3,249.02	81.5398	3,249.02	82.6436	3,249.02	78.8463	3,249.02	81.0624	3,249.02	78.066	3,249.02	78.2846	3,249.02	73.8186	3,249.02	77.153	3,249.02	74.6334	3,249.02	75.1057	3,249.02	70.9294	3,249.02	75.0962	3,249.02	75.7342	3,249.02	71.1868	3,249.02	74.7869	3,249.02	74.3954	3,249.02	68.1412	3,249.02	72.8912	3,249.02	72.9742	3,249.02	68.5081	3,249.02	75.0864
3,363.28	92.5957	3,363.28	92.045	3,363.28	93.1292	3,363.28	91.5668	3,363.28	91.8585	3,363.28	90.6865	3,363.28	91.3337	3,363.28	88.8579	3,363.28	90.164	3,363.28	87.6473	3,363.28	88.8484	3,363.28	85.4242	3,363.28	86.7157	3,363.28	83.4214	3,363.28	84.8904	3,363.28	80.9636	3,363.28	82.3703	3,363.28	77.4771	3,363.28	81.0588	3,363.28	76.7155	3,363.28	78.4936	3,363.28	74.9649	3,363.28	76.9724	3,363.28	74.1006	3,363.28	72.9752	3,363.28	72.3026	3,363.28	75.1246	3,363.28	73.8059	3,363.28	73.8499	3,363.28	73.5882	3,363.28	73.1192	3,363.28	70.8999	3,363.28	75.1486	3,363.28	72.685	3,363.28	72.5922	3,363.28	73.7099
3,481.93	92.9967	3,481.93	92.9026	3,481.93	92.9254	3,481.93	91.9951	3,481.93	93.1026	3,481.93	90.9731	3,481.93	91.9939	3,481.93	89.9148	3,481.93	91.0578	3,481.93	89.3253	3,481.93	89.3835	3,481.93	87.0255	3,481.93	87.1199	3,481.93	85.056	3,481.93	85.2582	3,481.93	82.5149	3,481.93	82.5384	3,481.93	79.7193	3,481.93	80.774	3,481.93	77.1764	3,481.93	79.1924	3,481.93	76.0012	3,481.93	78.5318	3,481.93	75.5139	3,481.93	74.9705	3,481.93	74.2061	3,481.93	74.954	3,481.93	74.8864	3,481.93	74.3432	3,481.93	75.6511	3,481.93	72.8941	3,481.93	74.3821	3,481.93	73.6771	3,481.93	71.7204	3,481.93	69.8512	3,481.93	73.3441
3,604.98	93.7492	3,604.98	93.7166	3,604.98	93.3213	3,604.98	93.3492	3,604.98	93.7537	3,604.98	91.68	3,604.98	92.9297	3,604.98	90.6775	3,604.98	91.8165	3,604.98	88.851	3,604.98	90.1095	3,604.98	87.009	3,604.98	88.9757	3,604.98	85.9382	3,604.98	87.3889	3,604.98	83.6116	3,604.98	84.1163	3,604.98	81.1652	3,604.98	82.4074	3,604.98	76.647	3,604.98	80.6091	3,604.98	76.818	3,604.98	78.8709	3,604.98	74.3089	3,604.98	76.7879	3,604.98	71.8567	3,604.98	75.3549	3,604.98	76.7239	3,604.98	73.812	3,604.98	75.2537	3,604.98	76.662	3,604.98	74.3204	3,604.98	75.0662	3,604.98	72.4884	3,604.98	70.9732	3,604.98	75.3654
3,732.42	94.2758	3,732.42	94.5326	3,732.42	93.7934	3,732.42	93.9889	3,732.42	94.0022	3,732.42	92.7024	3,732.42	93.1907	3,732.42	91.9193	3,732.42	91.8963	3,732.42	89.415	3,732.42	90.2489	3,732.42	87.402	3,732.42	89.3547	3,732.42	86.0859	3,732.42	87.6417	3,732.42	83.8628	3,732.42	85.2651	3,732.42	81.8078	3,732.42	82.9555	3,732.42	78.552	3,732.42	80.9204	3,732.42	79.0275	3,732.42	78.7814	3,732.42	74.5265	3,732.42	76.3213	3,732.42	74.6587	3,732.42	73.9349	3,732.42	76.048	3,732.42	69.0756	3,732.42	75.4284	3,732.42	76.6113	3,732.42	74.1957	3,732.42	75.9485	3,732.42	74.027	3,732.42	69.0848	3,732.42	77.0842
3,864.26	93.8272	3,864.26	93.5593	3,864.26	93.9724	3,864.26	92.8558	3,864.26	93.0289	3,864.26	92.3141	3,864.26	92.2922	3,864.26	90.907	3,864.26	91.3335	3,864.26	88.8202	3,864.26	90.1838	3,864.26	87.1297	3,864.26	89.2615	3,864.26	85.7855	3,864.26	87.201	3,864.26	83.9675	3,864.26	84.4554	3,864.26	80.6369	3,864.26	82.9019	3,864.26	79.9524	3,864.26	80.096	3,864.26	77.916	3,864.26	78.9521	3,864.26	73.8506	3,864.26	77.13	3,864.26	73.7992	3,864.26	72.6204	3,864.26	73.0975	3,864.26	74.4097	3,864.26	76.9253	3,864.26	73.0179	3,864.26	75.4702	3,864.26	75.7272	3,864.26	72.0063	3,864.26	69.8544	3,864.26	76.6799
4,000.49	94.3956	4,000.49	93.4453	4,000.49	94.9241	4,000.49	93.1741	4,000.49	93.5866	4,000.49	92.4317	4,000.49	93.3718	4,000.49	90.6544	4,000.49	92.5246	4,000.49	90.0941	4,000.49	91.5756	4,000.49	87.9173	4,000.49	90.1244	4,000.49	86.6372	4,000.49	87.5129	4,000.49	85.0165	4,000.49	86.4569	4,000.49	81.8226	4,000.49	84.6802	4,000.49	79.0795	4,000.49	81.1446	4,000.49	76.8883	4,000.49	79.2728	4,000.49	75.2229	4,000.49	77.2341	4,000.49	71.4136	4,000.49	74.928	4,000.49	72.8876	4,000.49	73.5444	4,000.49	75.9397	4,000.49	75.4765	4,000.49	76.4456	4,000.49	75.7546	4,000.49	70.0502	4,000.49	73.805	4,000.49	75.4487
4,141.11	94.6479	4,141.11	94.3117	4,141.11	94.3707	4,141.11	93.4601	4,141.11	94.2594	4,141.11	92.6465	4,141.11	93.522	4,141.11	92.1836	4,141.11	93.3066	4,141.11	91.0048	4,141.11	92.354	4,141.11	89.4214	4,141.11	90.3919	4,141.11	87.8626	4,141.11	87.7154	4,141.11	85.0134	4,141.11	86.5732	4,141.11	82.2244	4,141.11	84.3237	4,141.11	80.3907	4,141.11	81.665	4,141.11	78.7025	4,141.11	78.337	4,141.11	75.2039	4,141.11	78.5128	4,141.11	76.058	4,141.11	74.5879	4,141.11	73.3006	4,141.11	68.8204	4,141.11	73.0441	4,141.11	72.8725	4,141.11	76.0098	4,141.11	76.0837	4,141.11	73.3139	4,141.11	71.7039	4,141.11	75.6766
4,287.6	93.4355	4,287.6	93.2914	4,287.6	93.3669	4,287.6	91.7235	4,287.6	93.2676	4,287.6	91.2251	4,287.6	92.6145	4,287.6	91.0829	4,287.6	91.7886	4,287.6	89.6379	4,287.6	91.026	4,287.6	87.3372	4,287.6	89.0323	4,287.6	85.127	4,287.6	87.1945	4,287.6	81.8531	4,287.6	85.8126	4,287.6	81.5028	4,287.6	83.5112	4,287.6	80.5897	4,287.6	81.3449	4,287.6	74.4024	4,287.6	78.3908	4,287.6	74.6424	4,287.6	75.9211	4,287.6	70.0385	4,287.6	75.0523	4,287.6	70.2751	4,287.6	74.4296	4,287.6	72.3735	4,287.6	71.0531	4,287.6	73.3451	4,287.6	75.3387	4,287.6	70.2442	4,287.6	71.9776	4,287.6	75.9656
4,438.48	93.6611	4,438.48	92.3888	4,438.48	93.5503	4,438.48	92.5342	4,438.48	91.9298	4,438.48	91.4825	4,438.48	92.0372	4,438.48	90.7038	4,438.48	90.592	4,438.48	89.6072	4,438.48	88.7501	4,438.48	87.5528	4,438.48	88.4993	4,438.48	84.9868	4,438.48	87.2666	4,438.48	82.8576	4,438.48	83.9701	4,438.48	80.3594	4,438.48	82.5732	4,438.48	78.9077	4,438.48	79.5655	4,438.48	74.1672	4,438.48	77.3051	4,438.48	74.3316	4,438.48	75.5328	4,438.48	72.0051	4,438.48	74.0005	4,438.48	71.6192	4,438.48	72.8449	4,438.48	69.8869	4,438.48	73.044	4,438.48	74.1925	4,438.48	73.908	4,438.48	65.6713	4,438.48	73.5651	4,438.48	73.7072
4,595.21	93.0439	4,595.21	92.3665	4,595.21	92.4475	4,595.21	91.7171	4,595.21	92.1111	4,595.21	90.4884	4,595.21	90.362	4,595.21	89.116	4,595.21	90.8493	4,595.21	87.5206	4,595.21	90.249	4,595.21	87.1838	4,595.21	88.2403	4,595.21	85.3331	4,595.21	87.3016	4,595.21	82.2261	4,595.21	85.6651	4,595.21	80.0939	4,595.21	82.2261	4,595.21	75.3775	4,595.21	79.8544	4,595.21	76.8078	4,595.21	76.8104	4,595.21	75.2025	4,595.21	76.3056	4,595.21	73.3703	4,595.21	73.9403	4,595.21	71.7744	4,595.21	69.2233	4,595.21	72.0239	4,595.21	74.1351	4,595.21	74.0642	4,595.21	72.3327	4,595.21	68.0766	4,595.21	73.352	4,595.21	73.5265
4,756.35	93.8851	4,756.35	93.4675	4,756.35	93.743	4,756.35	91.3837	4,756.35	93.2934	4,756.35	91.1949	4,756.35	92.1068	4,756.35	89.8916	4,756.35	91.8921	4,756.35	88.4484	4,756.35	91.4091	4,756.35	86.5331	4,756.35	89.7012	4,756.35	84.1102	4,756.35	87.2067	4,756.35	80.7761	4,756.35	85.0348	4,756.35	79.8781	4,756.35	82.9091	4,756.35	78.3705	4,756.35	80.3031	4,756.35	74.6937	4,756.35	79.5835	4,756.35	71.8684	4,756.35	75.8179	4,756.35	73.7029	4,756.35	74.0767	4,756.35	70.2976	4,756.35	73.6179	4,756.35	71.9019	4,756.35	73.458	4,756.35	72.3654	4,756.35	74.834	4,756.35	67.5747	4,756.35	72.9868	4,756.35	72.7983
4,924.8	95.3159	4,924.8	94.5097	4,924.8	95.6716	4,924.8	94.5771	4,924.8	94.1471	4,924.8	92.7385	4,924.8	93.7183	4,924.8	92.6343	4,924.8	92.0137	4,924.8	91.3431	4,924.8	90.7404	4,924.8	89.756	4,924.8	89.7345	4,924.8	85.9296	4,924.8	87.8245	4,924.8	85.262	4,924.8	84.0327	4,924.8	82.0042	4,924.8	83.6554	4,924.8	82.865	4,924.8	81.0435	4,924.8	78.6749	4,924.8	77.6779	4,924.8	75.2144	4,924.8	74.7824	4,924.8	68.0205	4,924.8	77.3612	4,924.8	73.8075	4,924.8	72.2518	4,924.8	73.587	4,924.8	72.2041	4,924.8	76.457	4,924.8	74.016	4,924.8	70.2798	4,924.8	73.9638	4,924.8	74.0972
5,097.66	96.307	5,097.66	95.8085	5,097.66	96.1788	5,097.66	95.2458	5,097.66	95.3938	5,097.66	93.866	5,097.66	94.076	5,097.66	92.8648	5,097.66	93.1565	5,097.66	90.915	5,097.66	91.5748	5,097.66	89.0151	5,097.66	89.915	5,097.66	85.7366	5,097.66	87.7814	5,097.66	85.4187	5,097.66	86.3589	5,097.66	79.9347	5,097.66	83.3199	5,097.66	80.5307	5,097.66	82.1139	5,097.66	77.8152	5,097.66	78.6637	5,097.66	75.2757	5,097.66	76.8595	5,097.66	72.4763	5,097.66	75.2681	5,097.66	61.1636	5,097.66	72.2874	5,097.66	73.258	5,097.66	75.0326	5,097.66	75.7555	5,097.66	71.7358	5,097.66	69.7063	5,097.66	73.2241	5,097.66	72.5144
5,277.83	96.5114	5,277.83	96.0116	5,277.83	95.7064	5,277.83	94.9902	5,277.83	95.6826	5,277.83	94.309	5,277.83	94.0714	5,277.83	92.5392	5,277.83	93.4875	5,277.83	91.7851	5,277.83	92.443	5,277.83	90.1871	5,277.83	90.1528	5,277.83	89.5637	5,277.83	87.927	5,277.83	85.541	5,277.83	86.8189	5,277.83	84.5839	5,277.83	83.4853	5,277.83	76.6767	5,277.83	82.2021	5,277.83	77.4178	5,277.83	80.6239	5,277.83	73.0414	5,277.83	75.7707	5,277.83	73.5563	5,277.83	73.6857	5,277.83	72.8417	5,277.83	71.987	5,277.83	75.6858	5,277.83	71.4159	5,277.83	74.5482	5,277.83	73.3806	5,277.83	70.7514	5,277.83	75.2337	5,277.83	74.9395
5,463.87	96.1665	5,463.87	95.989	5,463.87	96.6025	5,463.87	94.8044	5,463.87	95.3939	5,463.87	92.9205	5,463.87	95.1878	5,463.87	91.5627	5,463.87	93.199	5,463.87	90.0292	5,463.87	91.209	5,463.87	88.4077	5,463.87	90.3994	5,463.87	88.0405	5,463.87	88.9537	5,463.87	84.5008	5,463.87	84.1073	5,463.87	83.824	5,463.87	83.3012	5,463.87	81.7655	5,463.87	80.81	5,463.87	78.6727	5,463.87	78.6205	5,463.87	74.71	5,463.87	77.7579	5,463.87	72.7353	5,463.87	74.9645	5,463.87	70.5465	5,463.87	74.2348	5,463.87	73.6358	5,463.87	74.2048	5,463.87	74.4798	5,463.87	76.591	5,463.87	72.8721	5,463.87	76.5312	5,463.87	73.3393
5,657.23	96.3511	5,657.23	96.3359	5,657.23	96.1695	5,657.23	95.8056	5,657.23	95.7954	5,657.23	94.4951	5,657.23	94.6113	5,657.23	93.4069	5,657.23	93.2451	5,657.23	91.369	5,657.23	91.2043	5,657.23	89.8856	5,657.23	89.8109	5,657.23	86.1892	5,657.23	86.9185	5,657.23	85.7296	5,657.23	86.969	5,657.23	81.3909	5,657.23	84.2665	5,657.23	81.2282	5,657.23	81.0309	5,657.23	76.2183	5,657.23	79.8745	5,657.23	76.3832	5,657.23	78.34	5,657.23	74.2663	5,657.23	74.6362	5,657.23	66.4541	5,657.23	70.1058	5,657.23	72.3781	5,657.23	72.2864	5,657.23	74.6374	5,657.23	75.9101	5,657.23	66.9674	5,657.23	74.1559	5,657.23	72.5802
5,856.45	96.0186	5,856.45	95.8449	5,856.45	95.9339	5,856.45	94.8946	5,856.45	96.1147	5,856.45	93.593	5,856.45	94.5142	5,856.45	91.9334	5,856.45	93.0794	5,856.45	90.7146	5,856.45	91.6609	5,856.45	89.4912	5,856.45	89.9405	5,856.45	88.0148	5,856.45	88.6688	5,856.45	85.8272	5,856.45	86.8812	5,856.45	83.2628	5,856.45	84.113	5,856.45	80.2168	5,856.45	81.2973	5,856.45	78.3546	5,856.45	80.1084	5,856.45	77.6495	5,856.45	76.7725	5,856.45	75.7154	5,856.45	73.8012	5,856.45	72.2627	5,856.45	73.9118	5,856.45	76.3969	5,856.45	66.0369	5,856.45	72.9914	5,856.45	71.4587	5,856.45	70.1167	5,856.45	74.8308	5,856.45	72.6842
6,062.99	96.0628	6,062.99	96.0294	6,062.99	96.2228	6,062.99	95.6153	6,062.99	95.6636	6,062.99	94.3339	6,062.99	95.1236	6,062.99	92.6208	6,062.99	92.6464	6,062.99	91.6537	6,062.99	90.9908	6,062.99	89.9762	6,062.99	90.2455	6,062.99	89.4109	6,062.99	89.0767	6,062.99	85.3837	6,062.99	86.5651	6,062.99	83.579	6,062.99	84.7053	6,062.99	80.2657	6,062.99	82.298	6,062.99	78.1774	6,062.99	80.3102	6,062.99	76.9351	6,062.99	77.142	6,062.99	73.8452	6,062.99	72.7919	6,062.99	71.7029	6,062.99	75.0808	6,062.99	72.8182	6,062.99	72.2552	6,062.99	73.861	6,062.99	72.7356	6,062.99	69.8587	6,062.99	75.2505	6,062.99	73.0733
6,276.86	96.0486	6,276.86	95.9234	6,276.86	96.012	6,276.86	95.1975	6,276.86	95.7842	6,276.86	93.3196	6,276.86	94.4609	6,276.86	91.8326	6,276.86	93.4125	6,276.86	90.0764	6,276.86	91.3492	6,276.86	88.6343	6,276.86	89.7054	6,276.86	86.2428	6,276.86	87.0277	6,276.86	84.7401	6,276.86	86.8089	6,276.86	82.1712	6,276.86	84.0854	6,276.86	81.6036	6,276.86	81.1762	6,276.86	80.2508	6,276.86	79.3335	6,276.86	76.0026	6,276.86	75.9668	6,276.86	74.9064	6,276.86	74.5382	6,276.86	74.8618	6,276.86	72.5947	6,276.86	72.2837	6,276.86	67.2159	6,276.86	74.4032	6,276.86	72.7532	6,276.86	68.6684	6,276.86	73.8831	6,276.86	70.3523
6,498.05	96.3054	6,498.05	96.2811	6,498.05	96.284	6,498.05	95.6125	6,498.05	96.2528	6,498.05	93.671	6,498.05	94.5234	6,498.05	92.1761	6,498.05	93.3292	6,498.05	91.0964	6,498.05	92.3133	6,498.05	90.1477	6,498.05	91.0088	6,498.05	87.2045	6,498.05	89.0199	6,498.05	85.5434	6,498.05	87.4175	6,498.05	83.2945	6,498.05	84.3677	6,498.05	80.3718	6,498.05	83.2528	6,498.05	80.0705	6,498.05	79.8024	6,498.05	76.879	6,498.05	76.0061	6,498.05	74.2117	6,498.05	75.1712	6,498.05	73.4551	6,498.05	72.8541	6,498.05	71.6496	6,498.05	66.9205	6,498.05	70.6825	6,498.05	70.2839	6,498.05	66.5457	6,498.05	73.9915	6,498.05	70.3784
6,726.56	96.0009	6,726.56	95.8925	6,726.56	96.034	6,726.56	95.2566	6,726.56	95.2435	6,726.56	93.2986	6,726.56	94.257	6,726.56	91.895	6,726.56	92.1654	6,726.56	91.5506	6,726.56	90.806	6,726.56	89.1391	6,726.56	90.2682	6,726.56	87.2833	6,726.56	88.6751	6,726.56	85.9791	6,726.56	86.5656	6,726.56	83.8322	6,726.56	83.212	6,726.56	80.4306	6,726.56	82.1425	6,726.56	79.4017	6,726.56	78.1045	6,726.56	74.1855	6,726.56	75.9961	6,726.56	75.4245	6,726.56	73.8605	6,726.56	73.2163	6,726.56	73.8212	6,726.56	70.1339	6,726.56	71.3335	6,726.56	71.8454	6,726.56	74.2579	6,726.56	68.5729	6,726.56	73.5446	6,726.56	67.2546
6,963.87	95.9396	6,963.87	95.3512	6,963.87	95.6528	6,963.87	94.5943	6,963.87	95.0705	6,963.87	92.6057	6,963.87	93.578	6,963.87	91.2913	6,963.87	92.4845	6,963.87	89.2296	6,963.87	91.2803	6,963.87	88.6295	6,963.87	89.837	6,963.87	86.7577	6,963.87	87.6695	6,963.87	84.0704	6,963.87	85.6607	6,963.87	80.7674	6,963.87	82.4735	6,963.87	77.7586	6,963.87	80.9142	6,963.87	73.9316	6,963.87	77.0178	6,963.87	73.5294	6,963.87	75.9632	6,963.87	70.2737	6,963.87	73.7181	6,963.87	70.5352	6,963.87	71.1697	6,963.87	70.7969	6,963.87	67.0158	6,963.87	69.4566	6,963.87	70.2719	6,963.87	63.3211	6,963.87	72.8448	6,963.87	66.5104
7,209.96	96.1043	7,209.96	95.5264	7,209.96	95.9409	7,209.96	94.2626	7,209.96	95.2894	7,209.96	92.663	7,209.96	93.7512	7,209.96	91.1773	7,209.96	92.5789	7,209.96	89.3905	7,209.96	91.7111	7,209.96	88.2323	7,209.96	90.2283	7,209.96	86.067	7,209.96	88.8745	7,209.96	83.7176	7,209.96	84.8593	7,209.96	80.9689	7,209.96	82.6946	7,209.96	76.7828	7,209.96	79.8941	7,209.96	75.1769	7,209.96	78.3913	7,209.96	72.4645	7,209.96	75.4808	7,209.96	70.0148	7,209.96	72.7501	7,209.96	65.6915	7,209.96	72.4928	7,209.96	68.1632	7,209.96	67.6442	7,209.96	68.5924	7,209.96	71.4907	7,209.96	65.4406	7,209.96	72.529	7,209.96	65.5916
7,464.84	95.5225	7,464.84	95.0311	7,464.84	95.523	7,464.84	94.1412	7,464.84	94.8801	7,464.84	92.3036	7,464.84	93.8325	7,464.84	91.4014	7,464.84	92.2438	7,464.84	90.022	7,464.84	90.2555	7,464.84	87.486	7,464.84	89.5235	7,464.84	85.6607	7,464.84	87.7309	7,464.84	82.8262	7,464.84	84.2526	7,464.84	80.7855	7,464.84	82.2727	7,464.84	76.6639	7,464.84	78.8468	7,464.84	72.0761	7,464.84	76.8498	7,464.84	71.9774	7,464.84	75.1324	7,464.84	70.2192	7,464.84	73.2404	7,464.84	65.8455	7,464.84	68.4169	7,464.84	68.7039	7,464.84	66.7587	7,464.84	69.6052	7,464.84	72.3209	7,464.84	66.3504	7,464.84	71.6741	7,464.84	64.6602
7,727.05	96.4659	7,727.05	95.6535	7,727.05	96.2519	7,727.05	94.4815	7,727.05	95.4386	7,727.05	93.2459	7,727.05	94.4729	7,727.05	91.2607	7,727.05	93.7254	7,727.05	89.3631	7,727.05	91.8232	7,727.05	87.1162	7,727.05	90.5728	7,727.05	85.4704	7,727.05	87.9469	7,727.05	81.6646	7,727.05	85.2201	7,727.05	79.339	7,727.05	83.252	7,727.05	75.4024	7,727.05	79.6605	7,727.05	72.0194	7,727.05	78.4121	7,727.05	71.5342	7,727.05	76.1609	7,727.05	69.2583	7,727.05	72.6321	7,727.05	65.2231	7,727.05	70.4202	7,727.05	66.1327	7,727.05	62.728	7,727.05	68.5512	7,727.05	71.9725	7,727.05	65.0844	7,727.05	70.2644	7,727.05	62.9822
7,999.51	95.9253	7,999.51	94.8785	7,999.51	95.8634	7,999.51	93.7792	7,999.51	94.7907	7,999.51	92.9135	7,999.51	93.9828	7,999.51	91.1965	7,999.51	92.6451	7,999.51	89.3961	7,999.51	90.6356	7,999.51	87.1935	7,999.51	88.9046	7,999.51	85.7426	7,999.51	87.5303	7,999.51	82.4376	7,999.51	85.1182	7,999.51	79.5731	7,999.51	82.9223	7,999.51	77.3912	7,999.51	78.6468	7,999.51	74.8866	7,999.51	78.1026	7,999.51	73.9113	7,999.51	73.8238	7,999.51	71.5051	7,999.51	70.7254	7,999.51	69.4997	7,999.51	67.3443	7,999.51	69.2051	7,999.51	69.7277	7,999.51	69.6342	7,999.51	73.2045	7,999.51	67.7589	7,999.51	70.4772	7,999.51	62.5433
8,282.23	96.1992	8,282.23	94.8392	8,282.23	96.0841	8,282.23	94.1256	8,282.23	94.8616	8,282.23	92.9593	8,282.23	94.3529	8,282.23	91.0498	8,282.23	93.2235	8,282.23	89.4392	8,282.23	91.2926	8,282.23	87.2377	8,282.23	89.3818	8,282.23	85.0806	8,282.23	86.7387	8,282.23	82.3881	8,282.23	85.6238	8,282.23	79.3686	8,282.23	81.9676	8,282.23	77.3833	8,282.23	79.6724	8,282.23	74.3113	8,282.23	77.0491	8,282.23	72.7619	8,282.23	75.7488	8,282.23	69.5789	8,282.23	70.882	8,282.23	67.7163	8,282.23	68.5099	8,282.23	64.6443	8,282.23	65.9956	8,282.23	68.9681	8,282.23	70.0206	8,282.23	63.9719	8,282.23	69.5174	8,282.23	62.9459
8,573.73	96.0339	8,573.73	95.0674	8,573.73	95.6708	8,573.73	94.4368	8,573.73	94.81	8,573.73	93.4598	8,573.73	93.9324	8,573.73	91.9083	8,573.73	92.7218	8,573.73	89.8929	8,573.73	90.728	8,573.73	87.6919	8,573.73	88.3814	8,573.73	84.5873	8,573.73	86.2101	8,573.73	82.3619	8,573.73	83.3745	8,573.73	79.0986	8,573.73	80.8915	8,573.73	76.806	8,573.73	78.1053	8,573.73	74.1683	8,573.73	75.9179	8,573.73	73.875	8,573.73	71.9041	8,573.73	69.3943	8,573.73	69.9533	8,573.73	68.7176	8,573.73	66.5418	8,573.73	65.9615	8,573.73	67.0903	8,573.73	67.5654	8,573.73	71.0303	8,573.73	67.0266	8,573.73	69.5827	8,573.73	62.7187
8,876.95	96.5117	8,876.95	95.445	8,876.95	96.2689	8,876.95	94.8513	8,876.95	95.2875	8,876.95	93.6517	8,876.95	94.552	8,876.95	91.7071	8,876.95	93.4985	8,876.95	89.1777	8,876.95	90.9805	8,876.95	86.9304	8,876.95	88.8801	8,876.95	83.7872	8,876.95	86.0506	8,876.95	81.7044	8,876.95	83.7915	8,876.95	78.007	8,876.95	80.4766	8,876.95	76.8206	8,876.95	78.7562	8,876.95	72.798	8,876.95	75.2681	8,876.95	72.8354	8,876.95	72.9268	8,876.95	70.8596	8,876.95	71.3585	8,876.95	67.3241	8,876.95	69.4333	8,876.95	61.3908	8,876.95	66.7712	8,876.95	67.8226	8,876.95	71.7	8,876.95	63.5954	8,876.95	69.2557	8,876.95	58.5895
9,188.96	96.1917	9,188.96	95.3511	9,188.96	96.0297	9,188.96	94.6627	9,188.96	95.363	9,188.96	93.1897	9,188.96	94.2886	9,188.96	91.3773	9,188.96	92.9989	9,188.96	88.9065	9,188.96	90.9467	9,188.96	86.8146	9,188.96	88.5554	9,188.96	84.3933	9,188.96	86.1714	9,188.96	81.6618	9,188.96	82.9617	9,188.96	79.6246	9,188.96	80.7817	9,188.96	76.1398	9,188.96	78.0579	9,188.96	73.8834	9,188.96	75.1903	9,188.96	72.6271	9,188.96	73.1652	9,188.96	67.675	9,188.96	69.0874	9,188.96	66.6562	9,188.96	67.6268	9,188.96	65.3152	9,188.96	67.421	9,188.96	67.1506	9,188.96	69.1796	9,188.96	66.5164	9,188.96	68.8107	9,188.96	61.3424
9,514.16	96.2442	9,514.16	95.4028	9,514.16	96.2624	9,514.16	94.3647	9,514.16	95.5043	9,514.16	92.8399	9,514.16	94.4365	9,514.16	90.7774	9,514.16	93.2911	9,514.16	87.9038	9,514.16	90.8991	9,514.16	85.6542	9,514.16	88.6151	9,514.16	83.6524	9,514.16	86.1675	9,514.16	80.4176	9,514.16	83.8678	9,514.16	78.0033	9,514.16	80.9556	9,514.16	75.1416	9,514.16	77.6422	9,514.16	73.635	9,514.16	75.5381	9,514.16	70.0069	9,514.16	72.7187	9,514.16	66.0569	9,514.16	71.2894	9,514.16	62.5443	9,514.16	68.9919	9,514.16	59.8882	9,514.16	65.6512	9,514.16	66.6813	9,514.16	69.6629	9,514.16	65.8362	9,514.16	67.9456	9,514.16	59.2179
9,849.61	95.5616	9,849.61	95.109	9,849.61	95.4702	9,849.61	94.0713	9,849.61	94.7663	9,849.61	92.8345	9,849.61	93.8004	9,849.61	90.4525	9,849.61	92.5232	9,849.61	87.8556	9,849.61	89.7835	9,849.61	85.3774	9,849.61	86.8125	9,849.61	82.9902	9,849.61	84.1551	9,849.61	81.0171	9,849.61	82.0038	9,849.61	77.7988	9,849.61	78.7755	9,849.61	75.2784	9,849.61	76.6118	9,849.61	72.417	9,849.61	74.1479	9,849.61	68.9655	9,849.61	70.4072	9,849.61	68.964	9,849.61	68.5459	9,849.61	65.4947	9,849.61	66.9605	9,849.61	59.6293	9,849.61	65.6136	9,849.61	64.5642	9,849.61	64.3871	9,849.61	66.6583	9,849.61	68.032	9,849.61	57.6047
10,196.8	95.6463	10,196.8	95.3643	10,196.8	95.5396	10,196.8	94.3737	10,196.8	94.8409	10,196.8	92.7994	10,196.8	93.5982	10,196.8	90.0318	10,196.8	91.9413	10,196.8	87.3968	10,196.8	88.6431	10,196.8	85.1493	10,196.8	86.1199	10,196.8	82.4194	10,196.8	83.2163	10,196.8	80.6358	10,196.8	81.3867	10,196.8	77.5979	10,196.8	78.0316	10,196.8	75.2362	10,196.8	76.3983	10,196.8	72.2639	10,196.8	71.7641	10,196.8	70.1641	10,196.8	70.0595	10,196.8	68.1366	10,196.8	70.348	10,196.8	65.9121	10,196.8	67.4551	10,196.8	53.3298	10,196.8	62.4746	10,196.8	64.3694	10,196.8	63.3011	10,196.8	66.4097	10,196.8	66.0849	10,196.8	50.8504
10,555.7	95.1489	10,555.7	94.7843	10,555.7	95.1802	10,555.7	93.658	10,555.7	94.4325	10,555.7	91.772	10,555.7	93.1979	10,555.7	89.7854	10,555.7	91.6347	10,555.7	87.1769	10,555.7	88.8796	10,555.7	85.2039	10,555.7	86.473	10,555.7	82.8393	10,555.7	83.5052	10,555.7	79.8014	10,555.7	81.2505	10,555.7	77.7702	10,555.7	77.9303	10,555.7	72.945	10,555.7	74.5956	10,555.7	71.8653	10,555.7	72.8235	10,555.7	70.0431	10,555.7	69.3959	10,555.7	66.6896	10,555.7	69.3004	10,555.7	67.2224	10,555.7	66.4917	10,555.7	60.172	10,555.7	63.6978	10,555.7	60.785	10,555.7	63.2424	10,555.7	65.9106	10,555.7	64.152	10,555.7	58.0766
10,927.7	95.3173	10,927.7	94.9856	10,927.7	95.1308	10,927.7	94.1119	10,927.7	94.6346	10,927.7	92.4015	10,927.7	93.3671	10,927.7	90.2577	10,927.7	91.4816	10,927.7	87.2791	10,927.7	88.5386	10,927.7	85.0452	10,927.7	85.5899	10,927.7	83.6722	10,927.7	83.2387	10,927.7	79.9726	10,927.7	80.9342	10,927.7	77.7914	10,927.7	77.7824	10,927.7	73.401	10,927.7	74.3809	10,927.7	71.8287	10,927.7	72.3224	10,927.7	69.3418	10,927.7	69.4929	10,927.7	64.6255	10,927.7	66.5299	10,927.7	66.1033	10,927.7	67.0339	10,927.7	61.3195	10,927.7	62.7966	10,927.7	61.8303	10,927.7	63.2802	10,927.7	63.7651	10,927.7	62.2811	10,927.7	56.0163
11,313	95.969	11,313	95.7225	11,313	95.841	11,313	94.8728	11,313	95.5059	11,313	92.6795	11,313	93.9209	11,313	90.3876	11,313	91.8551	11,313	87.4078	11,313	88.6898	11,313	85.3446	11,313	85.8049	11,313	83.4407	11,313	83.4285	11,313	80.7188	11,313	80.8361	11,313	76.9939	11,313	77.8917	11,313	73.7062	11,313	74.8416	11,313	70.6134	11,313	72.8399	11,313	68.6623	11,313	68.9801	11,313	65.4315	11,313	68.8045	11,313	65.4847	11,313	67.1985	11,313	60.11	11,313	64.4983	11,313	61.1639	11,313	61.6977	11,313	64.6362	11,313	62.4856	11,313	54.0391
11,712.9	95.9862	11,712.9	95.7857	11,712.9	95.7719	11,712.9	94.7376	11,712.9	95.2835	11,712.9	92.3957	11,712.9	93.2785	11,712.9	90.2158	11,712.9	90.8257	11,712.9	87.2442	11,712.9	87.4182	11,712.9	84.757	11,712.9	84.2806	11,712.9	82.3335	11,712.9	81.5284	11,712.9	79.8964	11,712.9	78.3176	11,712.9	76.8517	11,712.9	75.959	11,712.9	74.5473	11,712.9	72.9648	11,712.9	69.6354	11,712.9	69.7021	11,712.9	69.0647	11,712.9	67.1339	11,712.9	66.4209	11,712.9	68.175	11,712.9	65.7498	11,712.9	66.0506	11,712.9	60.7895	11,712.9	60.423	11,712.9	60.7707	11,712.9	57.3527	11,712.9	64.5881	11,712.9	61.3714	11,712.9	53.3344
12,126	95.8233	12,126	95.5463	12,126	95.737	12,126	94.408	12,126	95.114	12,126	92.0764	12,126	92.9842	12,126	89.6325	12,126	90.5778	12,126	86.5608	12,126	87.0728	12,126	84.5498	12,126	83.9134	12,126	81.9697	12,126	81.5403	12,126	79.4446	12,126	78.6268	12,126	76.3652	12,126	75.5094	12,126	73.1486	12,126	72.408	12,126	70.5423	12,126	68.2561	12,126	66.9679	12,126	66.9425	12,126	65.5894	12,126	67.6539	12,126	66.984	12,126	65.9053	12,126	61.7121	12,126	60.2316	12,126	62.0233	12,126	55.8863	12,126	64.2452	12,126	60.6247	12,126	53.4333
12,553.7	95.4431	12,553.7	95.1297	12,553.7	95.4591	12,553.7	94.1471	12,553.7	94.8194	12,553.7	91.5092	12,553.7	92.4663	12,553.7	89.1941	12,553.7	89.7566	12,553.7	86.1566	12,553.7	86.5738	12,553.7	83.6039	12,553.7	83.5339	12,553.7	81.9575	12,553.7	80.9313	12,553.7	77.8943	12,553.7	78.0261	12,553.7	75.4522	12,553.7	74.4009	12,553.7	71.2622	12,553.7	70.6739	12,553.7	68.7096	12,553.7	69.1062	12,553.7	65.9494	12,553.7	67.0543	12,553.7	63.8066	12,553.7	65.9362	12,553.7	65.7008	12,553.7	64.7474	12,553.7	62.6718	12,553.7	58.4453	12,553.7	60.8858	12,553.7	48.5215	12,553.7	64.174	12,553.7	60.7506	12,553.7	53.1917
12,996.1	95.5039	12,996.1	95.3486	12,996.1	95.4213	12,996.1	94.2399	12,996.1	94.7742	12,996.1	91.7372	12,996.1	92.4056	12,996.1	89.5621	12,996.1	89.7745	12,996.1	86.8592	12,996.1	86.4002	12,996.1	83.8124	12,996.1	83.326	12,996.1	81.6089	12,996.1	80.2446	12,996.1	78.3603	12,996.1	77.3634	12,996.1	74.9498	12,996.1	74.846	12,996.1	72.6243	12,996.1	71.2533	12,996.1	68.4017	12,996.1	69.4113	12,996.1	67.1913	12,996.1	65.7489	12,996.1	64.7196	12,996.1	65.9553	12,996.1	63.0632	12,996.1	63.6284	12,996.1	61.9674	12,996.1	59.3164	12,996.1	60.9922	12,996.1	44.1883	12,996.1	64.3786	12,996.1	62.4034	12,996.1	51.9362
13,454.6	95.2702	13,454.6	95.3348	13,454.6	95.093	13,454.6	94.1321	13,454.6	94.4501	13,454.6	91.6011	13,454.6	92.3389	13,454.6	89.0034	13,454.6	89.5939	13,454.6	85.9858	13,454.6	86.8835	13,454.6	82.3919	13,454.6	83.3248	13,454.6	79.3637	13,454.6	80.1117	13,454.6	76.7915	13,454.6	77.3485	13,454.6	73.7003	13,454.6	74.9892	13,454.6	70.2323	13,454.6	71.693	13,454.6	66.503	13,454.6	68.118	13,454.6	65.1647	13,454.6	66.1243	13,454.6	61.9904	13,454.6	65.1267	13,454.6	62.7341	13,454.6	60.8764	13,454.6	60.2365	13,454.6	58.0255	13,454.6	59.7891	13,454.6	51.2751	13,454.6	62.3884	13,454.6	60.2616	13,454.6	49.6398
13,929.2	96.1	13,929.2	96.0032	13,929.2	95.8772	13,929.2	94.5774	13,929.2	94.8417	13,929.2	91.5015	13,929.2	92.4358	13,929.2	88.5921	13,929.2	89.3599	13,929.2	84.9027	13,929.2	86.4939	13,929.2	81.5103	13,929.2	82.251	13,929.2	79.4521	13,929.2	79.4422	13,929.2	76.7081	13,929.2	77.3412	13,929.2	74.6524	13,929.2	74.63	13,929.2	70.541	13,929.2	70.7049	13,929.2	67.272	13,929.2	68.5019	13,929.2	65.8628	13,929.2	65.6353	13,929.2	64.7332	13,929.2	62.1242	13,929.2	61.5543	13,929.2	59.7915	13,929.2	59.2041	13,929.2	55.7801	13,929.2	60.791	13,929.2	47.1861	13,929.2	62.9679	13,929.2	57.2768	13,929.2	47.7611
14,419.9	95.7743	14,419.9	95.4527	14,419.9	95.5697	14,419.9	94.0845	14,419.9	94.4249	14,419.9	91.138	14,419.9	92.0746	14,419.9	88.4328	14,419.9	89.0406	14,419.9	85.0296	14,419.9	85.875	14,419.9	82.0269	14,419.9	82.2418	14,419.9	80.1955	14,419.9	79.125	14,419.9	77.5191	14,419.9	77.0369	14,419.9	74.7513	14,419.9	74.4875	14,419.9	71.0569	14,419.9	71.3632	14,419.9	67.8528	14,419.9	69.0438	14,419.9	66.6666	14,419.9	65.2106	14,419.9	64.4928	14,419.9	62.6473	14,419.9	62.4749	14,419.9	59.4042	14,419.9	58.0281	14,419.9	54.6476	14,419.9	60.6698	14,419.9	43.8458	14,419.9	63.2199	14,419.9	57.0219	14,419.9	47.9008
14,928.2	95.3998	14,928.2	95.0836	14,928.2	95.193	14,928.2	93.7354	14,928.2	94.1831	14,928.2	91.0631	14,928.2	91.7033	14,928.2	88.352	14,928.2	88.5461	14,928.2	85.1716	14,928.2	84.4493	14,928.2	82.1258	14,928.2	79.8403	14,928.2	80.38	14,928.2	76.2129	14,928.2	77.8892	14,928.2	74.9633	14,928.2	74.8127	14,928.2	72.6356	14,928.2	70.6237	14,928.2	69.2351	14,928.2	68.0024	14,928.2	66.7562	14,928.2	66.0331	14,928.2	63.7233	14,928.2	62.1766	14,928.2	59.529	14,928.2	62.3525	14,928.2	55.9474	14,928.2	56.9437	14,928.2	50.0561	14,928.2	57.6867	14,928.2	35.8206	14,928.2	61.9657	14,928.2	55.1572	14,928.2	44.6085
15,455.6	95.366	15,455.6	94.9352	15,455.6	95.0451	15,455.6	93.7029	15,455.6	93.9025	15,455.6	90.9306	15,455.6	91.2408	15,455.6	88.0301	15,455.6	88.1369	15,455.6	84.803	15,455.6	84.2179	15,455.6	81.8551	15,455.6	80.0527	15,455.6	79.9739	15,455.6	78.2826	15,455.6	77.4768	15,455.6	76.8727	15,455.6	74.5433	15,455.6	73.6079	15,455.6	69.6643	15,455.6	70.0684	15,455.6	66.9484	15,455.6	67.5569	15,455.6	65.7779	15,455.6	64.9134	15,455.6	62.7705	15,455.6	58.2905	15,455.6	61.5307	15,455.6	55.9935	15,455.6	56.0249	15,455.6	52.7681	15,455.6	56.9931	15,455.6	46.6174	15,455.6	62.6032	15,455.6	55.3486	15,455.6	47.6542
16,000.5	94.3152	16,000.5	93.9758	16,000.5	93.934	16,000.5	93.0835	16,000.5	92.5995	16,000.5	90.4353	16,000.5	89.8715	16,000.5	87.3762	16,000.5	86.3847	16,000.5	84.3308	16,000.5	82.1952	16,000.5	81.4145	16,000.5	78.6974	16,000.5	79.1267	16,000.5	77.2684	16,000.5	76.4866	16,000.5	74.808	16,000.5	73.4324	16,000.5	71.5957	16,000.5	68.2717	16,000.5	68.4227	16,000.5	66.7611	16,000.5	65.4715	16,000.5	65.9783	16,000.5	63.0887	16,000.5	61.5772	16,000.5	52.4446	16,000.5	58.2543	16,000.5	54.8928	16,000.5	51.6058	16,000.5	50.242	16,000.5	55.6505	16,000.5	41.6214	16,000.5	60.4304	16,000.5	43.7291	16,000.5	49.5256
16,564.5	93.7469	16,564.5	93.1186	16,564.5	93.2851	16,564.5	92.0414	16,564.5	91.9845	16,564.5	89.608	16,564.5	89.6427	16,564.5	86.6231	16,564.5	86.3468	16,564.5	83.1315	16,564.5	82.5792	16,564.5	80.6269	16,564.5	80.0043	16,564.5	78.0145	16,564.5	77.3994	16,564.5	75.4821	16,564.5	75.7796	16,564.5	72.3336	16,564.5	72.6287	16,564.5	67.4539	16,564.5	69.3936	16,564.5	64.7096	16,564.5	66.2247	16,564.5	62.82	16,564.5	63.8013	16,564.5	58.8279	16,564.5	53.9078	16,564.5	55.4178	16,564.5	55.939	16,564.5	51.8884	16,564.5	44.5143	16,564.5	51.9527	16,564.5	44.4916	16,564.5	58.7584	16,564.5	50.9998	16,564.5	40.0755
17,148.9	93.7324	17,148.9	93.1076	17,148.9	93.1572	17,148.9	92.2091	17,148.9	91.75	17,148.9	89.8727	17,148.9	89.873	17,148.9	86.1405	17,148.9	86.5993	17,148.9	83.164	17,148.9	82.5352	17,148.9	79.5168	17,148.9	78.669	17,148.9	76.8591	17,148.9	74.0493	17,148.9	74.6242	17,148.9	73.01	17,148.9	71.4741	17,148.9	69.5974	17,148.9	66.3609	17,148.9	66.44	17,148.9	63.7485	17,148.9	64.5693	17,148.9	61.4339	17,148.9	59.3122	17,148.9	56.1164	17,148.9	49.5469	17,148.9	56.1474	17,148.9	48.7338	17,148.9	49.0039	17,148.9	44.2513	17,148.9	52.2376	17,148.9	34.0162	17,148.9	55.0226	17,148.9	49.3183	17,148.9	42.9863
17,752.4	94.0953	17,752.4	93.299	17,752.4	93.3561	17,752.4	92.223	17,752.4	91.6722	17,752.4	89.5195	17,752.4	89.1844	17,752.4	85.5468	17,752.4	84.8588	17,752.4	82.0426	17,752.4	79.8332	17,752.4	78.3494	17,752.4	73.714	17,752.4	75.2432	17,752.4	69.9747	17,752.4	73.2961	17,752.4	67.9635	17,752.4	69.7432	17,752.4	65.7626	17,752.4	66.4315	17,752.4	62.5992	17,752.4	62.9828	17,752.4	59.95	17,752.4	61.9095	17,752.4	56.7644	17,752.4	53.413	17,752.4	47.8626	17,752.4	52.7272	17,752.4	49.1151	17,752.4	42.3409	17,752.4	37.3993	17,752.4	39.6104	17,752.4	45.6338	17,752.4	49.7839	17,752.4	31.2926	17,752.4	44.5833
18,379.4	94.6325	18,379.4	93.6545	18,379.4	93.9115	18,379.4	92.4039	18,379.4	92.0467	18,379.4	89.4958	18,379.4	89.2731	18,379.4	85.3165	18,379.4	84.4581	18,379.4	81.442	18,379.4	79.3191	18,379.4	77.7504	18,379.4	73.4404	18,379.4	74.2531	18,379.4	69.7209	18,379.4	72.5355	18,379.4	69.2241	18,379.4	68.9362	18,379.4	66.018	18,379.4	65.2724	18,379.4	63.2835	18,379.4	62.6056	18,379.4	59.7533	18,379.4	59.4983	18,379.4	56.1964	18,379.4	53.486	18,379.4	51.4548	18,379.4	49.0007	18,379.4	46.9305	18,379.4	42.3773	18,379.4	46.4763	18,379.4	35.2031	18,379.4	43.4659	18,379.4	45.9105	18,379.4	36.8885	18,379.4	39.1517
19,026.9	94.4328	19,026.9	92.8061	19,026.9	94.3147	19,026.9	90.9245	19,026.9	92.8789	19,026.9	87.5538	19,026.9	89.9492	19,026.9	83.0995	19,026.9	84.8423	19,026.9	78.3867	19,026.9	78.4165	19,026.9	74.2431	19,026.9	72.1031	19,026.9	69.6894	19,026.9	69.8046	19,026.9	67.119	19,026.9	69.4295	19,026.9	64.1036	19,026.9	67.6479	19,026.9	59.1316	19,026.9	64.3715	19,026.9	57.5417	19,026.9	61.3146	19,026.9	55.3288	19,026.9	57.915	19,026.9	48.8418	19,026.9	48.5598	19,026.9	42.6801	19,026.9	48.3023	19,026.9	47.3039	19,026.9	45.136	19,026.9	43.4857	19,026.9	44.5428	19,026.9	36.5442	19,026.9	41.983	19,026.9	37.4921
19,697.8	93.7603	19,697.8	91.9386	19,697.8	93.6021	19,697.8	89.1868	19,697.8	92.1484	19,697.8	84.6024	19,697.8	88.8547	19,697.8	79.2311	19,697.8	83.2507	19,697.8	72.2469	19,697.8	75.48	19,697.8	65.2987	19,697.8	70.0716	19,697.8	59.3832	19,697.8	69.0187	19,697.8	55.2561	19,697.8	68.4485	19,697.8	51.6532	19,697.8	66.1602	19,697.8	49.417	19,697.8	62.4176	19,697.8	48.8446	19,697.8	59.8905	19,697.8	43.1475	19,697.8	56.6129	19,697.8	41.6673	19,697.8	48.7427	19,697.8	39.2604	19,697.8	48.5213	19,697.8	43.4119	19,697.8	49.8835	19,697.8	36.7489	19,697.8	41.7602	19,697.8	30.7559	19,697.8	27.8385	19,697.8	40.4118
19,999.5	93.707	19,999.5	92.0883	19,999.5	93.1785	19,999.5	89.5752	19,999.5	91.6658	19,999.5	84.5751	19,999.5	87.6208	19,999.5	78.4918	19,999.5	81.8475	19,999.5	70.5627	19,999.5	72.3207	19,999.5	63.1177	19,999.5	70.3791	19,999.5	57.1218	19,999.5	67.9049	19,999.5	54.7877	19,999.5	68.1685	19,999.5	58.067	19,999.5	65.8813	19,999.5	53.916	19,999.5	61.8616	19,999.5	53.8397	19,999.5	62.1263	19,999.5	51.9181	19,999.5	55.2921	19,999.5	63.1056	19,999.5	47.5835	19,999.5	55.9907	19,999.5	47.2932	19,999.5	54.0733	19,999.5	57.6139	19,999.5	53.3843	19,999.5	50.2548	19,999.5	51.7928	19,999.5	62.0362	19,999.5	51.3129
