"SPL Vertical"
"On-Axis"		"10°"		"-10°"		"20°"		"-20°"		"30°"		"-30°"		"40°"		"-40°"		"50°"		"-50°"		"60°"		"-60°"		"70°"		"-70°"		"80°"		"-80°"		"90°"		"-90°"		"100°"		"-100°"		"110°"		"-110°"		"120°"		"-120°"		"130°"		"-130°"		"140°"		"-140°"		"150°"		"-150°"		"160°"		"-160°"		"170°"		"-170°"		"180°"
"Frequency [Hz]"	"Sound Pessure Level [dB]  / [2.83V 1m] "	"Frequency [Hz]"	"Sound Pessure Level [dB]  / [2.83V 1m] "	"Frequency [Hz]"	"Sound Pessure Level [dB]  / [2.83V 1m] "	"Frequency [Hz]"	"Sound Pessure Level [dB]  / [2.83V 1m] "	"Frequency [Hz]"	"Sound Pessure Level [dB]  / [2.83V 1m] "	"Frequency [Hz]"	"Sound Pessure Level [dB]  / [2.83V 1m] "	"Frequency [Hz]"	"Sound Pessure Level [dB]  / [2.83V 1m] "	"Frequency [Hz]"	"Sound Pessure Level [dB]  / [2.83V 1m] "	"Frequency [Hz]"	"Sound Pessure Level [dB]  / [2.83V 1m] "	"Frequency [Hz]"	"Sound Pessure Level [dB]  / [2.83V 1m] "	"Frequency [Hz]"	"Sound Pessure Level [dB]  / [2.83V 1m] "	"Frequency [Hz]"	"Sound Pessure Level [dB]  / [2.83V 1m] "	"Frequency [Hz]"	"Sound Pessure Level [dB]  / [2.83V 1m] "	"Frequency [Hz]"	"Sound Pessure Level [dB]  / [2.83V 1m] "	"Frequency [Hz]"	"Sound Pessure Level [dB]  / [2.83V 1m] "	"Frequency [Hz]"	"Sound Pessure Level [dB]  / [2.83V 1m] "	"Frequency [Hz]"	"Sound Pessure Level [dB]  / [2.83V 1m] "	"Frequency [Hz]"	"Sound Pessure Level [dB]  / [2.83V 1m] "	"Frequency [Hz]"	"Sound Pessure Level [dB]  / [2.83V 1m] "	"Frequency [Hz]"	"Sound Pessure Level [dB]  / [2.83V 1m] "	"Frequency [Hz]"	"Sound Pessure Level [dB]  / [2.83V 1m] "	"Frequency [Hz]"	"Sound Pessure Level [dB]  / [2.83V 1m] "	"Frequency [Hz]"	"Sound Pessure Level [dB]  / [2.83V 1m] "	"Frequency [Hz]"	"Sound Pessure Level [dB]  / [2.83V 1m] "	"Frequency [Hz]"	"Sound Pessure Level [dB]  / [2.83V 1m] "	"Frequency [Hz]"	"Sound Pessure Level [dB]  / [2.83V 1m] "	"Frequency [Hz]"	"Sound Pessure Level [dB]  / [2.83V 1m] "	"Frequency [Hz]"	"Sound Pessure Level [dB]  / [2.83V 1m] "	"Frequency [Hz]"	"Sound Pessure Level [dB]  / [2.83V 1m] "	"Frequency [Hz]"	"Sound Pessure Level [dB]  / [2.83V 1m] "	"Frequency [Hz]"	"Sound Pessure Level [dB]  / [2.83V 1m] "	"Frequency [Hz]"	"Sound Pessure Level [dB]  / [2.83V 1m] "	"Frequency [Hz]"	"Sound Pessure Level [dB]  / [2.83V 1m] "	"Frequency [Hz]"	"Sound Pessure Level [dB]  / [2.83V 1m] "	"Frequency [Hz]"	"Sound Pessure Level [dB]  / [2.83V 1m] "	"Frequency [Hz]"	"Sound Pessure Level [dB]  / [2.83V 1m] "
20.5078	51.1637	20.5078	50.2272	20.5078	51.7047	20.5078	48.8679	20.5078	51.8601	20.5078	47.1223	20.5078	51.6032	20.5078	45.4489	20.5078	50.8547	20.5078	45.3177	20.5078	49.4505	20.5078	47.3926	20.5078	47.0832	20.5078	50.1624	20.5078	43.5048	20.5078	52.7082	20.5078	42.5104	20.5078	54.8822	20.5078	47.4392	20.5078	56.7234	20.5078	51.8402	20.5078	58.2867	20.5078	55.0822	20.5078	59.6131	20.5078	57.5324	20.5078	60.7278	20.5078	59.4151	20.5078	61.6435	20.5078	60.8532	20.5078	62.363	20.5078	61.9177	20.5078	62.8813	20.5078	62.6539	20.5078	63.187	20.5078	63.0941	20.5078	63.2644
21.9727	56.018	21.9727	55.6051	21.9727	56.2731	21.9727	55.0781	21.9727	56.3418	21.9727	54.5156	21.9727	56.1991	21.9727	54.0565	21.9727	55.8212	21.9727	53.9006	21.9727	55.1953	21.9727	54.2272	21.9727	54.3589	21.9727	55.0591	21.9727	53.5112	21.9727	56.2434	21.9727	53.1744	21.9727	57.5797	21.9727	53.947	21.9727	58.9204	21.9727	55.686	21.9727	60.1827	21.9727	57.7203	21.9727	61.3249	21.9727	59.6147	21.9727	62.3256	21.9727	61.2196	21.9727	63.1709	21.9727	62.506	21.9727	63.8483	21.9727	63.4817	21.9727	64.3438	21.9727	64.1636	21.9727	64.6416	21.9727	64.5711	21.9727	64.7238
23.4375	55.0491	23.4375	54.5421	23.4375	55.3681	23.4375	53.9273	23.4375	55.4554	23.4375	53.3659	23.4375	55.2795	23.4375	53.1293	23.4375	54.8143	23.4375	53.4995	23.4375	54.06	23.4375	54.5243	23.4375	53.1303	23.4375	55.9708	23.4375	52.4737	23.4375	57.5591	23.4375	52.9251	23.4375	59.1138	23.4375	54.7065	23.4375	60.5545	23.4375	57.0352	23.4375	61.8512	23.4375	59.2729	23.4375	62.9941	23.4375	61.2047	23.4375	63.979	23.4375	62.7964	23.4375	64.8012	23.4375	64.0615	23.4375	65.4535	23.4375	65.0212	23.4375	65.925	23.4375	65.6961	23.4375	66.202	23.4375	66.1055	23.4375	66.268
24.9023	58.9633	24.9023	58.6433	24.9023	59.1779	24.9023	58.2716	24.9023	59.2521	24.9023	57.931	24.9023	59.1631	24.9023	57.7379	24.9023	58.8997	24.9023	57.8205	24.9023	58.4746	24.9023	58.2617	24.9023	57.9564	24.9023	59.0454	24.9023	57.5287	24.9023	60.0699	24.9023	57.5169	24.9023	61.2104	24.9023	58.2066	24.9023	62.366	24.9023	59.5286	24.9023	63.4702	24.9023	61.135	24.9023	64.4825	24.9023	62.7224	24.9023	65.3769	24.9023	64.1333	24.9023	66.1347	24.9023	65.3059	24.9023	66.7394	24.9023	66.222	24.9023	67.1746	24.9023	66.8817	24.9023	67.4234	24.9023	67.293	24.9023	67.4685
26.3672	61.0475	26.3672	60.8438	26.3672	61.1802	26.3672	60.6138	26.3672	61.2125	26.3672	60.4197	26.3672	61.1269	26.3672	60.3408	26.3672	60.9209	26.3672	60.4589	26.3672	60.6171	26.3672	60.8297	26.3672	60.2853	26.3672	61.4551	26.3672	60.071	26.3672	62.2828	26.3672	60.1867	26.3672	63.233	26.3672	60.7982	26.3672	64.2274	26.3672	61.871	26.3672	65.2043	26.3672	63.1966	26.3672	66.1192	26.3672	64.555	26.3672	66.9405	26.3672	65.8025	26.3672	67.6437	26.3672	66.8653	26.3672	68.2084	26.3672	67.7108	26.3672	68.6156	26.3672	68.328	26.3672	68.8473	26.3672	68.7173	26.3672	68.8863
27.832	63.4519	27.832	63.261	27.832	63.5802	27.832	63.0409	27.832	63.6231	27.832	62.8384	27.832	63.5672	27.832	62.7131	27.832	63.411	27.832	62.7317	27.832	63.1715	27.832	62.9496	27.832	62.8991	27.832	63.39	27.832	62.6953	27.832	64.0319	27.832	62.7126	27.832	64.8204	27.832	63.096	27.832	65.6877	27.832	63.8772	27.832	66.5714	27.832	64.9397	27.832	67.4212	27.832	66.105	27.832	68.1987	27.832	67.2245	27.832	68.8743	27.832	68.2054	27.832	69.4232	27.832	68.9983	27.832	69.8239	27.832	69.5812	27.832	70.0564	27.832	69.948	27.832	70.1028
29.2969	64.7735	29.2969	64.6028	29.2969	64.891	29.2969	64.4111	29.2969	64.9338	29.2969	64.242	29.2969	64.8901	29.2969	64.1502	29.2969	64.761	29.2969	64.1944	29.2969	64.567	29.2969	64.4222	29.2969	64.3598	29.2969	64.8529	29.2969	64.2345	29.2969	65.468	29.2969	64.3225	29.2969	66.2196	29.2969	64.737	29.2969	67.0475	29.2969	65.4939	29.2969	67.8942	29.2969	66.4917	29.2969	68.7121	29.2969	67.5793	29.2969	69.464	29.2969	68.6265	29.2969	70.1199	29.2969	69.548	29.2969	70.6553	29.2969	70.2953	29.2969	71.0482	29.2969	70.845	29.2969	71.2793	29.2969	71.1895	29.2969	71.3311
30.7617	66.7949	30.7617	66.6439	30.7617	66.9022	30.7617	66.4743	30.7617	66.949	30.7617	66.3198	30.7617	66.9263	30.7617	66.2218	30.7617	66.8356	30.7617	66.2262	30.7617	66.6936	30.7617	66.3737	30.7617	66.5397	30.7617	66.688	30.7617	66.4436	30.7617	67.1663	30.7617	66.5003	30.7617	67.78	30.7617	66.7992	30.7617	68.4837	30.7617	67.3725	30.7617	69.2273	30.7617	68.1675	30.7617	69.9645	30.7617	69.0758	30.7617	70.6557	30.7617	69.9842	30.7617	71.2682	30.7617	70.8058	30.7617	71.7743	30.7617	71.4843	30.7617	72.1501	30.7617	71.9883	30.7617	72.3747	30.7617	72.3042	30.7617	72.4306
32.2266	68.0431	32.2266	67.9221	32.2266	68.1301	32.2266	67.79	32.2266	68.1679	32.2266	67.6767	32.2266	68.1489	32.2266	67.6184	32.2266	68.0762	32.2266	67.6535	32.2266	67.967	32.2266	67.8153	32.2266	67.8584	32.2266	68.1229	32.2266	67.8123	32.2266	68.5744	32.2266	67.9085	32.2266	69.1466	32.2266	68.2186	32.2266	69.8017	32.2266	68.7665	32.2266	70.4964	32.2266	69.5082	32.2266	71.1886	32.2266	70.3528	32.2266	71.8412	32.2266	71.2019	32.2266	72.4221	32.2266	71.9755	32.2266	72.9036	32.2266	72.6192	32.2266	73.2617	32.2266	73.1005	32.2266	73.4752	32.2266	73.4041	32.2266	73.5269
33.6914	69.5221	33.6914	69.4173	33.6914	69.6013	33.6914	69.3067	33.6914	69.6414	33.6914	69.2158	33.6914	69.6364	33.6914	69.1747	33.6914	69.589	33.6914	69.2152	33.6914	69.5146	33.6914	69.3648	33.6914	69.4451	33.6914	69.6403	33.6914	69.4317	33.6914	70.0423	33.6914	69.5387	33.6914	70.5539	33.6914	69.824	33.6914	71.1451	33.6914	70.3098	33.6914	71.779	33.6914	70.9656	33.6914	72.4179	33.6914	71.7198	33.6914	73.0264	33.6914	72.4882	33.6914	73.573	33.6914	73.1969	33.6914	74.0298	33.6914	73.792	33.6914	74.3721	33.6914	74.2392	33.6914	74.5788	33.6914	74.5209	33.6914	74.6325
35.1562	70.7921	35.1562	70.6988	35.1562	70.864	35.1562	70.6012	35.1562	70.903	35.1562	70.5215	35.1562	70.904	35.1562	70.4858	35.1562	70.8703	35.1562	70.5213	35.1562	70.8162	35.1562	70.6524	35.1562	70.77	35.1562	70.8954	35.1562	70.7757	35.1562	71.253	35.1562	70.8876	35.1562	71.7133	35.1562	71.1539	35.1562	72.2519	35.1562	71.5947	35.1562	72.8365	35.1562	72.1869	35.1562	73.4325	35.1562	72.8713	35.1562	74.0059	35.1562	73.5744	35.1562	74.5256	35.1562	74.2281	35.1562	74.9634	35.1562	74.7801	35.1562	75.2946	35.1562	75.1957	35.1562	75.4977	35.1562	75.4561	35.1562	75.5554
36.6211	71.9443	36.6211	71.8634	36.6211	72.0102	36.6211	71.7828	36.6211	72.051	36.6211	71.7213	36.6211	72.0624	36.6211	71.7013	36.6211	72.0474	36.6211	71.7458	36.6211	72.0185	36.6211	71.8751	36.6211	72	36.6211	72.103	36.6211	72.029	36.6211	72.4327	36.6211	72.15	36.6211	72.855	36.6211	72.4033	36.6211	73.3499	36.6211	72.8065	36.6211	73.8898	36.6211	73.343	36.6211	74.4439	36.6211	73.9646	36.6211	74.9805	36.6211	74.6081	36.6211	75.4698	36.6211	75.2116	36.6211	75.8843	36.6211	75.7251	36.6211	76.1993	36.6211	76.1138	36.6211	76.3935	36.6211	76.3578	36.6211	76.45
38.0859	72.9696	38.0859	72.9082	38.0859	73.0232	38.0859	72.852	38.0859	73.0601	38.0859	72.8171	38.0859	73.0767	38.0859	72.8222	38.0859	73.0761	38.0859	72.8859	38.0859	73.0695	38.0859	73.0247	38.0859	73.0784	38.0859	73.2496	38.0859	73.134	38.0859	73.563	38.0859	73.2734	38.0859	73.9575	38.0859	73.5292	38.0859	74.4168	38.0859	73.9152	38.0859	74.9176	38.0859	74.4173	38.0859	75.4327	38.0859	74.9949	38.0859	75.9336	38.0859	75.593	38.0859	76.3923	38.0859	76.1557	38.0859	76.7825	38.0859	76.6365	38.0859	77.08	38.0859	77.0017	38.0859	77.264	38.0859	77.2314	38.0859	77.318
39.5508	74.1507	39.5508	74.0992	39.5508	74.1973	39.5508	74.0532	39.5508	74.2322	39.5508	74.0256	39.5508	74.2525	39.5508	74.0313	39.5508	74.2613	39.5508	74.0855	39.5508	74.2678	39.5508	74.2021	39.5508	74.2897	39.5508	74.3914	39.5508	74.3521	39.5508	74.6574	39.5508	74.4846	39.5508	74.9964	39.5508	74.7136	39.5508	75.3969	39.5508	75.0518	39.5508	75.8403	39.5508	75.4897	39.5508	76.3033	39.5508	75.996	39.5508	76.7599	39.5508	76.5248	39.5508	77.1834	39.5508	77.0268	39.5508	77.548	39.5508	77.4586	39.5508	77.8297	39.5508	77.7872	39.5508	78.0074	39.5508	77.9922	39.5508	78.065
41.0156	75.056	41.0156	75.007	41.0156	75.1019	41.0156	74.9633	41.0156	75.1394	41.0156	74.9362	41.0156	75.1668	41.0156	74.9387	41.0156	75.1871	41.0156	74.9845	41.0156	75.2088	41.0156	75.0863	41.0156	75.2467	41.0156	75.254	41.0156	75.3215	41.0156	75.4922	41.0156	75.457	41.0156	75.7986	41.0156	75.6741	41.0156	76.164	41.0156	75.9825	41.0156	76.5721	41.0156	76.3746	41.0156	77.0017	41.0156	76.8247	41.0156	77.4286	41.0156	77.2948	41.0156	77.8271	41.0156	77.7426	41.0156	78.1722	41.0156	78.1295	41.0156	78.4404	41.0156	78.4249	41.0156	78.6116	41.0156	78.6084	41.0156	78.6705
42.4805	75.6669	42.4805	75.6031	42.4805	75.724	42.4805	75.5413	42.4805	75.7687	42.4805	75.4924	42.4805	75.7986	42.4805	75.4693	42.4805	75.8152	42.4805	75.4858	42.4805	75.8256	42.4805	75.5555	42.4805	75.843	42.4805	75.6893	42.4805	75.887	42.4805	75.8932	42.4805	75.9814	42.4805	76.1667	42.4805	76.1486	42.4805	76.5019	42.4805	76.402	42.4805	76.8833	42.4805	76.7394	42.4805	77.2901	42.4805	77.1404	42.4805	77.6979	42.4805	77.5705	42.4805	78.0805	42.4805	77.9893	42.4805	78.4124	42.4805	78.3572	42.4805	78.6699	42.4805	78.6423	42.4805	78.8328	42.4805	78.8224	42.4805	78.8862
43.9453	76.3364	43.9453	76.2842	43.9453	76.3874	43.9453	76.238	43.9453	76.4323	43.9453	76.2071	43.9453	76.4695	43.9453	76.2024	43.9453	76.5006	43.9453	76.2354	43.9453	76.5319	43.9453	76.3173	43.9453	76.5748	43.9453	76.4567	43.9453	76.6454	43.9453	76.6586	43.9453	76.7623	43.9453	76.9222	43.9453	76.9429	43.9453	77.2407	43.9453	77.1966	43.9453	77.6007	43.9453	77.5204	43.9453	77.984	43.9453	77.8967	43.9453	78.3685	43.9453	78.2959	43.9453	78.7305	43.9453	78.6828	43.9453	79.0458	43.9453	79.0222	43.9453	79.2919	43.9453	79.2846	43.9453	79.4495	43.9453	79.449	43.9453	79.5044
45.4102	77.0043	45.4102	76.96	45.4102	77.0505	45.4102	76.9238	45.4102	77.0942	45.4102	76.9037	45.4102	77.1339	45.4102	76.9091	45.4102	77.1708	45.4102	76.9497	45.4102	77.2106	45.4102	77.0347	45.4102	77.2631	45.4102	77.1717	45.4102	77.342	45.4102	77.3647	45.4102	77.4634	45.4102	77.6132	45.4102	77.6418	45.4102	77.9114	45.4102	77.8852	45.4102	78.2478	45.4102	78.1907	45.4102	78.6062	45.4102	78.5427	45.4102	78.9667	45.4102	78.9153	45.4102	79.307	45.4102	79.2762	45.4102	79.6047	45.4102	79.5931	45.4102	79.8379	45.4102	79.8382	45.4102	79.9883	45.4102	79.9913	45.4102	80.0418
46.875	77.6746	46.875	77.6357	46.875	77.7161	46.875	77.6046	46.875	77.7568	46.875	77.588	46.875	77.7954	46.875	77.5937	46.875	77.8334	46.875	77.6301	46.875	77.8755	46.875	77.7054	46.875	77.9301	46.875	77.8264	46.875	78.0088	46.875	77.9973	46.875	78.1251	46.875	78.2186	46.875	78.291	46.875	78.486	46.875	78.5135	46.875	78.7901	46.875	78.7901	46.875	79.117	46.875	79.1081	46.875	79.4486	46.875	79.4448	46.875	79.7644	46.875	79.7718	46.875	80.0428	46.875	80.0595	46.875	80.2631	46.875	80.2817	46.875	80.4072	46.875	80.4191	46.875	80.4614
48.3398	78.1064	48.3398	78.0724	48.3398	78.1464	48.3398	78.0489	48.3398	78.1895	48.3398	78.0416	48.3398	78.2346	48.3398	78.0572	48.3398	78.283	48.3398	78.1027	48.3398	78.3388	48.3398	78.1848	48.3398	78.4089	48.3398	78.309	48.3398	78.5029	48.3398	78.4787	48.3398	78.6316	48.3398	78.6939	48.3398	78.8043	48.3398	78.9509	48.3398	79.026	48.3398	79.2412	48.3398	79.2938	48.3398	79.5523	48.3398	79.5958	48.3398	79.868	48.3398	79.9119	48.3398	80.1694	48.3398	80.2168	48.3398	80.4362	48.3398	80.4835	48.3398	80.6489	48.3398	80.688	48.3398	80.7901	48.3398	80.8123	48.3398	80.8468
51.2695	79.1642	51.2695	79.1359	51.2695	79.2014	51.2695	79.1193	51.2695	79.2457	51.2695	79.1181	51.2695	79.2965	51.2695	79.1366	51.2695	79.3545	51.2695	79.1794	51.2695	79.4223	51.2695	79.2514	51.2695	79.5041	51.2695	79.3565	51.2695	79.6057	51.2695	79.4975	51.2695	79.7336	51.2695	79.6753	51.2695	79.893	51.2695	79.8878	51.2695	80.0865	51.2695	80.1296	51.2695	80.3115	51.2695	80.3915	51.2695	80.5595	51.2695	80.6608	51.2695	80.8156	51.2695	80.9218	51.2695	81.0607	51.2695	81.157	51.2695	81.2734	51.2695	81.3488	51.2695	81.4337	51.2695	81.4813	51.2695	81.5263	51.2695	81.5426
52.7344	79.6303	52.7344	79.6048	52.7344	79.6655	52.7344	79.591	52.7344	79.709	52.7344	79.5918	52.7344	79.7603	52.7344	79.6105	52.7344	79.8203	52.7344	79.6512	52.7344	79.8907	52.7344	79.7176	52.7344	79.9752	52.7344	79.8133	52.7344	80.078	52.7344	79.9411	52.7344	80.204	52.7344	80.1019	52.7344	80.357	52.7344	80.2946	52.7344	80.5386	52.7344	80.5147	52.7344	80.746	52.7344	80.7546	52.7344	80.9718	52.7344	81.003	52.7344	81.2031	52.7344	81.2457	52.7344	81.423	52.7344	81.4664	52.7344	81.6124	52.7344	81.6486	52.7344	81.7535	52.7344	81.7771	52.7344	81.8321	52.7344	81.8402
54.1992	80.0723	54.1992	80.0487	54.1992	80.1061	54.1992	80.0369	54.1992	80.1492	54.1992	80.0392	54.1992	80.2014	54.1992	80.0584	54.1992	80.2632	54.1992	80.0976	54.1992	80.3363	54.1992	80.1603	54.1992	80.4232	54.1992	80.2495	54.1992	80.5274	54.1992	80.3677	54.1992	80.6521	54.1992	80.5161	54.1992	80.8002	54.1992	80.6938	54.1992	80.9722	54.1992	80.8974	54.1992	81.1655	54.1992	81.12	54.1992	81.3734	54.1992	81.3517	54.1992	81.5845	54.1992	81.5794	54.1992	81.7839	54.1992	81.788	54.1992	81.9547	54.1992	81.9618	54.1992	82.0804	54.1992	82.0863	54.1992	82.1481	54.1992	82.1503
55.6641	80.4395	55.6641	80.419	55.6641	80.4716	55.6641	80.411	55.6641	80.5145	55.6641	80.4173	55.6641	80.5683	55.6641	80.4399	55.6641	80.6335	55.6641	80.4813	55.6641	80.7113	55.6641	80.5443	55.6641	80.8035	55.6641	80.6315	55.6641	80.9123	55.6641	80.7449	55.6641	81.0399	55.6641	80.8856	55.6641	81.1877	55.6641	81.0528	55.6641	81.3553	55.6641	81.2438	55.6641	81.5396	55.6641	81.4525	55.6641	81.7343	55.6641	81.6701	55.6641	81.9295	55.6641	81.8848	55.6641	82.1119	55.6641	82.0825	55.6641	82.2665	55.6641	82.2485	55.6641	82.3788	55.6641	82.3691	55.6641	82.4368	55.6641	82.4337
58.5938	81.2301	58.5938	81.2106	58.5938	81.2624	58.5938	81.2042	58.5938	81.3075	58.5938	81.2114	58.5938	81.3655	58.5938	81.2331	58.5938	81.4366	58.5938	81.2705	58.5938	81.521	58.5938	81.3253	58.5938	81.6191	58.5938	81.3989	58.5938	81.7309	58.5938	81.493	58.5938	81.8561	58.5938	81.6083	58.5938	81.9937	58.5938	81.745	58.5938	82.1417	58.5938	81.9012	58.5938	82.2967	58.5938	82.0733	58.5938	82.4534	58.5938	82.2547	58.5938	82.6045	58.5938	82.4365	58.5938	82.7408	58.5938	82.6075	58.5938	82.8517	58.5938	82.7553	58.5938	82.9265	58.5938	82.8683	58.5938	82.9566	58.5938	82.9372
60.0586	81.569	60.0586	81.552	60.0586	81.5993	60.0586	81.5481	60.0586	81.6434	60.0586	81.5574	60.0586	81.7014	60.0586	81.5798	60.0586	81.7735	60.0586	81.6159	60.0586	81.8592	60.0586	81.6665	60.0586	81.9579	60.0586	81.7324	60.0586	82.0686	60.0586	81.815	60.0586	82.1896	60.0586	81.9152	60.0586	82.3188	60.0586	82.0333	60.0586	82.4535	60.0586	82.1684	60.0586	82.5904	60.0586	82.3178	60.0586	82.7249	60.0586	82.4767	60.0586	82.8512	60.0586	82.6374	60.0586	82.9623	60.0586	82.7904	60.0586	83.05	60.0586	82.9248	60.0586	83.1059	60.0586	83.03	60.0586	83.1231	60.0586	83.0977
62.9883	82.3112	62.9883	82.2916	62.9883	82.3437	62.9883	82.2845	62.9883	82.3895	62.9883	82.2891	62.9883	82.4488	62.9883	82.3053	62.9883	82.5213	62.9883	82.3326	62.9883	82.6062	62.9883	82.3714	62.9883	82.702	62.9883	82.4221	62.9883	82.8068	62.9883	82.4856	62.9883	82.9178	62.9883	82.5629	62.9883	83.0322	62.9883	82.6547	62.9883	83.1466	62.9883	82.7611	62.9883	83.2574	62.9883	82.8808	62.9883	83.3608	62.9883	83.0106	62.9883	83.4528	62.9883	83.1451	62.9883	83.5285	62.9883	83.2768	62.9883	83.5826	62.9883	83.3968	62.9883	83.6098	62.9883	83.496	62.9883	83.6054	62.9883	83.5671
64.4531	82.5892	64.4531	82.5692	64.4531	82.6224	64.4531	82.5619	64.4531	82.6694	64.4531	82.5664	64.4531	82.7303	64.4531	82.5821	64.4531	82.8047	64.4531	82.6085	64.4531	82.8916	64.4531	82.6455	64.4531	82.9895	64.4531	82.6934	64.4531	83.096	64.4531	82.7526	64.4531	83.2078	64.4531	82.8242	64.4531	83.3215	64.4531	82.9087	64.4531	83.4331	64.4531	83.0066	64.4531	83.5387	64.4531	83.1171	64.4531	83.6343	64.4531	83.2376	64.4531	83.716	64.4531	83.3636	64.4531	83.7798	64.4531	83.4887	64.4531	83.8215	64.4531	83.6048	64.4531	83.8369	64.4531	83.7035	64.4531	83.8228	64.4531	83.7778
67.3828	83.1227	67.3828	83.1038	67.3828	83.1565	67.3828	83.0988	67.3828	83.206	67.3828	83.1063	67.3828	83.2714	67.3828	83.1249	67.3828	83.3524	67.3828	83.1534	67.3828	83.4475	67.3828	83.191	67.3828	83.5543	67.3828	83.2371	67.3828	83.6692	67.3828	83.2916	67.3828	83.7879	67.3828	83.3552	67.3828	83.9053	67.3828	83.4284	67.3828	84.0159	67.3828	83.512	67.3828	84.1147	67.3828	83.6059	67.3828	84.1972	67.3828	83.7092	67.3828	84.2602	67.3828	83.8192	67.3828	84.3012	67.3828	83.9313	67.3828	84.3182	67.3828	84.0396	67.3828	84.3101	67.3828	84.1372	67.3828	84.2763	67.3828	84.2178
68.8477	83.3872	68.8477	83.3687	68.8477	83.4211	68.8477	83.3641	68.8477	83.4711	68.8477	83.372	68.8477	83.5377	68.8477	83.3907	68.8477	83.6202	68.8477	83.4187	68.8477	83.7172	68.8477	83.4548	68.8477	83.8261	68.8477	83.4981	68.8477	83.9429	68.8477	83.5485	68.8477	84.0628	68.8477	83.6064	68.8477	84.1799	68.8477	83.6723	68.8477	84.2884	68.8477	83.7472	68.8477	84.3825	68.8477	83.8317	68.8477	84.4577	68.8477	83.9253	68.8477	84.5109	68.8477	84.0264	68.8477	84.5401	68.8477	84.1314	68.8477	84.5447	68.8477	84.2353	68.8477	84.5247	68.8477	84.3321	68.8477	84.4811	68.8477	84.4157
71.7773	84.0047	71.7773	83.9905	71.7773	84.0336	71.7773	83.9893	71.7773	84.0784	71.7773	83.9991	71.7773	84.1397	71.7773	84.0178	71.7773	84.2171	71.7773	84.0433	71.7773	84.309	71.7773	84.0739	71.7773	84.4125	71.7773	84.1083	71.7773	84.5232	71.7773	84.1459	71.7773	84.6356	71.7773	84.1867	71.7773	84.7428	71.7773	84.2314	71.7773	84.8382	71.7773	84.2815	71.7773	84.9156	71.7773	84.3385	71.7773	84.9701	71.7773	84.4035	71.7773	84.9995	71.7773	84.4768	71.7773	85.0033	71.7773	84.5575	71.7773	84.9831	71.7773	84.6427	71.7773	84.9417	71.7773	84.7285	71.7773	84.8827	71.7773	84.8102
74.707	84.6103	74.707	84.5962	74.707	84.6379	74.707	84.5938	74.707	84.6805	74.707	84.6008	74.707	84.7385	74.707	84.6151	74.707	84.8117	74.707	84.6341	74.707	84.8985	74.707	84.6559	74.707	84.9958	74.707	84.6788	74.707	85.0991	74.707	84.702	74.707	85.2021	74.707	84.7254	74.707	85.2978	74.707	84.7499	74.707	85.3788	74.707	84.7773	74.707	85.4385	74.707	84.8099	74.707	85.4724	74.707	84.8504	74.707	85.4786	74.707	84.9007	74.707	85.4578	74.707	84.9617	74.707	85.4137	74.707	85.0328	74.707	85.3511	74.707	85.1117	74.707	85.2761	74.707	85.1944
77.6367	85.1335	77.6367	85.1172	77.6367	85.162	77.6367	85.1113	77.6367	85.2041	77.6367	85.1133	77.6367	85.2606	77.6367	85.1209	77.6367	85.3312	77.6367	85.1316	77.6367	85.4146	77.6367	85.143	77.6367	85.5075	77.6367	85.1535	77.6367	85.6052	77.6367	85.162	77.6367	85.7012	77.6367	85.1685	77.6367	85.7878	77.6367	85.174	77.6367	85.8569	77.6367	85.1808	77.6367	85.9016	77.6367	85.1919	77.6367	85.9168	77.6367	85.2113	77.6367	85.9009	77.6367	85.2423	77.6367	85.8559	77.6367	85.2879	77.6367	85.7869	77.6367	85.3492	77.6367	85.7013	77.6367	85.4252	77.6367	85.6073	77.6367	85.513
79.1016	85.3533	79.1016	85.3356	79.1016	85.3827	79.1016	85.3276	79.1016	85.4251	79.1016	85.3272	79.1016	85.4814	79.1016	85.3318	79.1016	85.5514	79.1016	85.3389	79.1016	85.6337	79.1016	85.3462	79.1016	85.7252	79.1016	85.352	79.1016	85.8213	79.1016	85.355	79.1016	85.9152	79.1016	85.3554	79.1016	85.9992	79.1016	85.3541	79.1016	86.0647	79.1016	85.3534	79.1016	86.1044	79.1016	85.3568	79.1016	86.1132	79.1016	85.3685	79.1016	86.0892	79.1016	85.3927	79.1016	86.0348	79.1016	85.4329	79.1016	85.9557	79.1016	85.4911	79.1016	85.8604	79.1016	85.567	79.1016	85.758	79.1016	85.6577
82.0312	85.7932	82.0312	85.7711	82.0312	85.8272	82.0312	85.7591	82.0312	85.8744	82.0312	85.7551	82.0312	85.9353	82.0312	85.7564	82.0312	86.0095	82.0312	85.7604	82.0312	86.0954	82.0312	85.7645	82.0312	86.1896	82.0312	85.7665	82.0312	86.287	82.0312	85.7651	82.0312	86.3808	82.0312	85.7598	82.0312	86.4626	82.0312	85.7515	82.0312	86.5236	82.0312	85.7425	82.0312	86.556	82.0312	85.7365	82.0312	86.5542	82.0312	85.7382	82.0312	86.5167	82.0312	85.753	82.0312	86.4464	82.0312	85.7856	82.0312	86.3503	82.0312	85.8394	82.0312	86.2383	82.0312	85.9154	82.0312	86.1219	82.0312	86.0114
84.9609	86.1585	84.9609	86.1419	84.9609	86.1869	84.9609	86.1351	84.9609	86.2284	84.9609	86.1356	84.9609	86.2839	84.9609	86.1407	84.9609	86.3534	84.9609	86.1477	84.9609	86.4357	84.9609	86.1537	84.9609	86.5279	84.9609	86.1563	84.9609	86.6254	84.9609	86.1539	84.9609	86.7213	84.9609	86.1458	84.9609	86.8069	84.9609	86.1328	84.9609	86.8725	84.9609	86.1172	84.9609	86.9091	84.9609	86.1031	84.9609	86.9102	84.9609	86.0957	84.9609	86.8732	84.9609	86.1013	84.9609	86.8006	84.9609	86.1259	84.9609	86.6998	84.9609	86.1741	84.9609	86.5819	84.9609	86.2477	84.9609	86.4595	84.9609	86.3448
87.8906	86.5026	87.8906	86.4857	87.8906	86.5305	87.8906	86.4775	87.8906	86.5713	87.8906	86.4757	87.8906	86.6266	87.8906	86.4775	87.8906	86.6973	87.8906	86.4803	87.8906	86.7832	87.8906	86.4812	87.8906	86.8821	87.8906	86.4781	87.8906	86.9892	87.8906	86.4693	87.8906	87.0967	87.8906	86.4542	87.8906	87.1946	87.8906	86.4339	87.8906	87.271	87.8906	86.4108	87.8906	87.3151	87.8906	86.3897	87.8906	87.3184	87.8906	86.3769	87.8906	87.2774	87.8906	86.3796	87.8906	87.1942	87.8906	86.4052	87.8906	87.077	87.8906	86.4594	87.8906	86.9385	87.8906	86.5447	87.8906	86.7941	87.8906	86.6588
90.8203	87.0021	90.8203	86.9819	90.8203	87.0288	90.8203	86.9662	90.8203	87.064	90.8203	86.9526	90.8203	87.1092	90.8203	86.9388	90.8203	87.1656	90.8203	86.922	90.8203	87.233	90.8203	86.8996	90.8203	87.3097	90.8203	86.8696	90.8203	87.3912	90.8203	86.8304	90.8203	87.4701	90.8203	86.7818	90.8203	87.5367	90.8203	86.7251	90.8203	87.5797	90.8203	86.6638	90.8203	87.5885	90.8203	86.6035	90.8203	87.5553	90.8203	86.5521	90.8203	87.4772	90.8203	86.519	90.8203	87.3577	90.8203	86.514	90.8203	87.207	90.8203	86.5454	90.8203	87.0404	90.8203	86.6178	90.8203	86.8757	90.8203	86.7304
95.2148	87.4321	95.2148	87.4077	95.2148	87.4613	95.2148	87.3869	95.2148	87.4964	95.2148	87.3685	95.2148	87.5387	95.2148	87.3507	95.2148	87.5895	95.2148	87.3314	95.2148	87.6495	95.2148	87.3081	95.2148	87.7177	95.2148	87.2784	95.2148	87.7907	95.2148	87.2403	95.2148	87.8619	95.2148	87.1928	95.2148	87.9217	95.2148	87.1363	95.2148	87.9586	95.2148	87.0736	95.2148	87.9615	95.2148	87.0097	95.2148	87.9221	95.2148	86.9521	95.2148	87.8377	95.2148	86.9103	95.2148	87.7122	95.2148	86.8949	95.2148	87.5566	95.2148	86.9154	95.2148	87.3875	95.2148	86.9777	95.2148	87.2236	95.2148	87.0826
98.1445	87.6462	98.1445	87.6224	98.1445	87.6746	98.1445	87.6019	98.1445	87.7093	98.1445	87.5834	98.1445	87.7518	98.1445	87.5652	98.1445	87.8039	98.1445	87.5454	98.1445	87.8662	98.1445	87.5215	98.1445	87.9378	98.1445	87.4914	98.1445	88.0149	98.1445	87.453	98.1445	88.0905	98.1445	87.4052	98.1445	88.1542	98.1445	87.3484	98.1445	88.1941	98.1445	87.2849	98.1445	88.1983	98.1445	87.2197	98.1445	88.1582	98.1445	87.1602	98.1445	88.071	98.1445	87.1164	98.1445	87.941	98.1445	87.0993	98.1445	87.7796	98.1445	87.1188	98.1445	87.6042	98.1445	87.1818	98.1445	87.4345	98.1445	87.2892
101.074	87.7124	101.074	87.6893	101.074	87.7416	101.074	87.6708	101.074	87.7782	101.074	87.6557	101.074	87.8238	101.074	87.6421	101.074	87.8798	101.074	87.6277	101.074	87.9473	101.074	87.61	101.074	88.0257	101.074	87.5862	101.074	88.1116	101.074	87.5542	101.074	88.1982	101.074	87.5126	101.074	88.2751	101.074	87.4617	101.074	88.3297	101.074	87.404	101.074	88.349	101.074	87.3448	101.074	88.3234	101.074	87.292	101.074	88.2483	101.074	87.2558	101.074	88.127	101.074	87.2473	101.074	87.97	101.074	87.2766	101.074	87.7944	101.074	87.35	101.074	87.6203	101.074	87.4671
105.469	88.1678	105.469	88.1436	105.469	88.1903	105.469	88.1172	105.469	88.212	105.469	88.0878	105.469	88.2345	105.469	88.0545	105.469	88.26	105.469	88.0155	105.469	88.291	105.469	87.9687	105.469	88.329	105.469	87.9118	105.469	88.373	105.469	87.8429	105.469	88.4183	105.469	87.7612	105.469	88.4562	105.469	87.6675	105.469	88.4748	105.469	87.5654	105.469	88.4612	105.469	87.4612	105.469	88.4048	105.469	87.3648	105.469	88.3008	105.469	87.2885	105.469	88.1518	105.469	87.2461	105.469	87.9693	105.469	87.25	105.469	87.7719	105.469	87.3084	105.469	87.582	105.469	87.4219
108.398	88.5502	108.398	88.5211	108.398	88.575	108.398	88.4873	108.398	88.5959	108.398	88.4487	108.398	88.6147	108.398	88.4046	108.398	88.6335	108.398	88.354	108.398	88.6552	108.398	88.295	108.398	88.6814	108.398	88.2257	108.398	88.7118	108.398	88.1443	108.398	88.7424	108.398	88.0503	108.398	88.7651	108.398	87.9445	108.398	88.7687	108.398	87.8307	108.398	88.741	108.398	87.7154	108.398	88.6717	108.398	87.6088	108.398	88.5561	108.398	87.5236	108.398	88.397	108.398	87.4741	108.398	88.206	108.398	87.4733	108.398	88.0016	108.398	87.5296	108.398	87.8067	108.398	87.6436
112.793	88.9799	112.793	88.9504	112.793	89.0025	112.793	88.9143	112.793	89.0186	112.793	88.8715	112.793	89.0295	112.793	88.8216	112.793	89.0375	112.793	88.7631	112.793	89.0455	112.793	88.694	112.793	89.0559	112.793	88.6117	112.793	89.0691	112.793	88.5141	112.793	89.0815	112.793	88.4003	112.793	89.0854	112.793	88.2712	112.793	89.0691	112.793	88.1307	112.793	89.02	112.793	87.9863	112.793	88.9276	112.793	87.8493	112.793	88.7874	112.793	87.7345	112.793	88.6033	112.793	87.6582	112.793	88.3885	112.793	87.636	112.793	88.1643	112.793	87.6786	112.793	87.956	112.793	87.7881
117.188	88.9861	117.188	88.9454	117.188	89.0142	117.188	88.8933	117.188	89.03	117.188	88.8317	117.188	89.0353	117.188	88.7619	117.188	89.0342	117.188	88.6847	117.188	89.032	117.188	88.5999	117.188	89.0338	117.188	88.5067	117.188	89.0425	117.188	88.4039	117.188	89.0561	117.188	88.2909	117.188	89.0673	117.188	88.1688	117.188	89.0638	117.188	88.0408	117.188	89.031	117.188	87.9137	117.188	88.956	117.188	87.7976	117.188	88.8319	117.188	87.7057	117.188	88.6606	117.188	87.653	117.188	88.4538	117.188	87.6534	117.188	88.2316	117.188	87.7158	117.188	88.0191	117.188	87.8409
120.117	89.1248	120.117	89.0781	120.117	89.1612	120.117	89.0224	120.117	89.1867	120.117	88.9593	120.117	89.2022	120.117	88.8894	120.117	89.2099	120.117	88.8124	120.117	89.2134	120.117	88.727	120.117	89.2162	120.117	88.6315	120.117	89.2197	120.117	88.5238	120.117	89.2218	120.117	88.403	120.117	89.2157	120.117	88.27	120.117	89.1906	120.117	88.1288	120.117	89.1338	120.117	87.9867	120.117	89.035	120.117	87.855	120.117	88.889	120.117	87.7483	120.117	88.6993	120.117	87.6828	120.117	88.4785	120.117	87.673	120.117	88.2469	120.117	87.7286	120.117	88.0295	120.117	87.8506
124.512	89.3834	124.512	89.341	124.512	89.4152	124.512	89.2894	124.512	89.4359	124.512	89.2299	124.512	89.4466	124.512	89.1633	124.512	89.4501	124.512	89.089	124.512	89.4505	124.512	89.0054	124.512	89.4514	124.512	88.9102	124.512	89.4542	124.512	88.8011	124.512	89.4559	124.512	88.6766	124.512	89.4487	124.512	88.5374	124.512	89.4205	124.512	88.3871	124.512	89.3579	124.512	88.2332	124.512	89.2504	124.512	88.0874	124.512	89.0934	124.512	87.9652	124.512	88.8918	124.512	87.8839	124.512	88.6598	124.512	87.86	124.512	88.4198	124.512	87.9046	124.512	88.1982	124.512	88.0202
128.906	89.194	128.906	89.1435	128.906	89.2337	128.906	89.0849	128.906	89.2616	128.906	89.0215	128.906	89.2795	128.906	88.9559	128.906	89.2919	128.906	88.8892	128.906	89.3049	128.906	88.8211	128.906	89.3245	128.906	88.7494	128.906	89.3537	128.906	88.6714	128.906	89.3899	128.906	88.5847	128.906	89.4238	128.906	88.4883	128.906	89.4403	128.906	88.384	128.906	89.4229	128.906	88.2771	128.906	89.3576	128.906	88.1769	128.906	89.2375	128.906	88.0963	128.906	89.0661	128.906	88.0506	128.906	88.8572	128.906	88.0542	128.906	88.6329	128.906	88.1171	128.906	88.4195	128.906	88.2416
133.301	89.2311	133.301	89.1724	133.301	89.2761	133.301	89.1031	133.301	89.3064	133.301	89.0265	133.301	89.3234	133.301	88.9455	133.301	89.3312	133.301	88.8618	133.301	89.3361	133.301	88.7754	133.301	89.3447	133.301	88.685	133.301	89.3615	133.301	88.5887	133.301	89.3854	133.301	88.4852	133.301	89.4087	133.301	88.3747	133.301	89.4177	133.301	88.2602	133.301	89.3956	133.301	88.1482	133.301	89.3281	133.301	88.049	133.301	89.2073	133.301	87.9756	133.301	89.0352	133.301	87.9424	133.301	88.8242	133.301	87.962	133.301	88.5949	133.301	88.0421	133.301	88.3729	133.301	88.1823
139.16	89.3275	139.16	89.2698	139.16	89.3664	139.16	89.1964	139.16	89.3852	139.16	89.111	139.16	89.3854	139.16	89.0168	139.16	89.3723	139.16	88.9155	139.16	89.3541	139.16	88.807	139.16	89.3395	139.16	88.6902	139.16	89.3352	139.16	88.5632	139.16	89.3415	139.16	88.4253	139.16	89.3509	139.16	88.2779	139.16	89.3484	139.16	88.1256	139.16	89.3156	139.16	87.9773	139.16	89.2361	139.16	87.8462	139.16	89.1004	139.16	87.7484	139.16	88.9096	139.16	87.7007	139.16	88.6762	139.16	87.7172	139.16	88.4222	139.16	87.805	139.16	88.175	139.16	87.9619
143.555	89.3109	143.555	89.2523	143.555	89.3455	143.555	89.1739	143.555	89.3546	143.555	89.0809	143.555	89.3407	143.555	88.9782	143.555	89.3108	143.555	88.8692	143.555	89.2756	143.555	88.7554	143.555	89.247	143.555	88.6363	143.555	89.2343	143.555	88.5106	143.555	89.2394	143.555	88.3771	143.555	89.2548	143.555	88.2365	143.555	89.2638	143.555	88.0923	143.555	89.2454	143.555	87.952	143.555	89.1803	143.555	87.8278	143.555	89.0572	143.555	87.7347	143.555	88.8762	143.555	87.6895	143.555	88.6498	143.555	87.7061	143.555	88.4007	143.555	87.7925	143.555	88.1572	143.555	87.947
147.949	89.3499	147.949	89.2817	147.949	89.3883	147.949	89.1889	147.949	89.3948	147.949	89.0781	147.949	89.3718	147.949	88.9559	147.949	89.3272	147.949	88.8272	147.949	89.2734	147.949	88.6951	147.949	89.225	147.949	88.5611	147.949	89.1949	147.949	88.4252	147.949	89.1884	147.949	88.288	147.949	89.2006	147.949	88.1511	147.949	89.216	147.949	88.019	147.949	89.2129	147.949	87.8994	147.949	89.1703	147.949	87.8033	147.949	89.074	147.949	87.7433	147.949	88.9212	147.949	87.7322	147.949	88.7211	147.949	87.7792	147.949	88.493	147.949	87.8878	147.949	88.2619	147.949	88.0532
153.809	89.3448	153.809	89.271	153.809	89.3833	153.809	89.1674	153.809	89.3843	153.809	89.0412	153.809	89.3504	153.809	88.8993	153.809	89.2903	153.809	88.747	153.809	89.2173	153.809	88.5879	153.809	89.1474	153.809	88.4235	153.809	89.0948	153.809	88.2542	153.809	89.0659	153.809	88.0812	153.809	89.0564	153.809	87.9073	153.809	89.0509	153.809	87.739	153.809	89.0273	153.809	87.5863	153.809	88.9639	153.809	87.4631	153.809	88.8462	153.809	87.3848	153.809	88.6713	153.809	87.3657	153.809	88.4486	153.809	87.4148	153.809	88.198	153.809	87.5341	153.809	87.945	153.809	87.7161
159.668	89.39	159.668	89.3199	159.668	89.4227	159.668	89.2183	159.668	89.4157	159.668	89.0931	159.668	89.3725	159.668	88.9522	159.668	89.3022	159.668	88.8016	159.668	89.2192	159.668	88.6452	159.668	89.1405	159.668	88.4842	159.668	89.0809	159.668	88.3185	159.668	89.0477	159.668	88.1482	159.668	89.0369	159.668	87.9753	159.668	89.0334	159.668	87.8056	159.668	89.0149	159.668	87.6493	159.668	88.9589	159.668	87.521	159.668	88.8501	159.668	87.4371	159.668	88.6845	159.668	87.4129	159.668	88.4704	159.668	87.4583	159.668	88.2269	159.668	87.5747	159.668	87.9792	159.668	87.754
165.527	89.2813	165.527	89.2187	165.527	89.3065	165.527	89.1255	165.527	89.2911	165.527	89.0103	165.527	89.2379	165.527	88.8814	165.527	89.1565	165.527	88.7447	165.527	89.0625	165.527	88.6035	165.527	88.9748	165.527	88.4584	165.527	88.9107	165.527	88.3089	165.527	88.8794	165.527	88.1544	165.527	88.8777	165.527	87.997	165.527	88.8897	165.527	87.8423	165.527	88.8918	165.527	87.7006	165.527	88.8605	165.527	87.5859	165.527	88.7795	165.527	87.5135	165.527	88.6437	165.527	87.4972	165.527	88.4604	165.527	87.5447	165.527	88.2468	165.527	87.6557	165.527	88.0258	165.527	87.8215
171.387	89.1415	171.387	89.063	171.387	89.1747	171.387	88.9477	171.387	89.1586	171.387	88.8065	171.387	89.0959	171.387	88.65	171.387	88.9969	171.387	88.4871	171.387	88.8795	171.387	88.3234	171.387	88.7663	171.387	88.1614	171.387	88.6789	171.387	88.0016	171.387	88.631	171.387	87.8442	171.387	88.6225	171.387	87.6911	171.387	88.6382	171.387	87.5479	171.387	88.6531	171.387	87.4244	171.387	88.6408	171.387	87.3335	171.387	88.5817	171.387	87.289	171.387	88.4681	171.387	87.3017	171.387	88.3044	171.387	87.3758	171.387	88.1053	171.387	87.5074	171.387	87.8914	171.387	87.6851
177.246	89.1592	177.246	89.0695	177.246	89.1973	177.246	88.937	177.246	89.179	177.246	88.7726	177.246	89.1063	177.246	88.5871	177.246	88.9882	177.246	88.3895	177.246	88.8411	177.246	88.1861	177.246	88.6866	177.246	87.9803	177.246	88.5468	177.246	87.7744	177.246	88.4376	177.246	87.5708	177.246	88.3634	177.246	87.3741	177.246	88.3153	177.246	87.1927	177.246	88.2748	177.246	87.0388	177.246	88.2207	177.246	86.9273	177.246	88.1362	177.246	86.8723	177.246	88.0133	177.246	86.8826	177.246	87.8532	177.246	86.9585	177.246	87.6651	177.246	87.0913	177.246	87.4634	177.246	87.2659
183.105	88.83	183.105	88.7441	183.105	88.8591	183.105	88.6111	183.105	88.8272	183.105	88.4433	183.105	88.7376	183.105	88.2528	183.105	88.6027	183.105	88.0498	183.105	88.4431	183.105	87.8411	183.105	88.2844	183.105	87.6304	183.105	88.1509	183.105	87.4194	183.105	88.0571	183.105	87.2105	183.105	88.0026	183.105	87.0087	183.105	87.9721	183.105	86.8235	183.105	87.9421	183.105	86.6687	183.105	87.8906	183.105	86.5605	183.105	87.8031	183.105	86.5131	183.105	87.6759	183.105	86.5337	183.105	87.514	183.105	86.6197	183.105	87.3279	183.105	86.7593	183.105	87.1303	183.105	86.9354
188.965	88.5523	188.965	88.4806	188.965	88.5613	188.965	88.3574	188.965	88.5026	188.965	88.1964	188.965	88.3796	188.965	88.0116	188.965	88.2066	188.965	87.8145	188.965	88.0098	188.965	87.6123	188.965	87.824	188.965	87.4082	188.965	87.6848	188.965	87.2026	188.965	87.6151	188.965	86.9958	188.965	87.6143	188.965	86.7909	188.965	87.657	188.965	86.5968	188.965	87.7034	188.965	86.4287	188.965	87.7151	188.965	86.3061	188.965	87.6674	188.965	86.2481	188.965	87.5536	188.965	86.2664	188.965	87.3826	188.965	86.3605	188.965	87.1728	188.965	86.518	188.965	86.945	188.965	86.7199
196.289	88.7026	196.289	88.582	196.289	88.7547	196.289	88.4072	196.289	88.729	196.289	88.195	196.289	88.6243	196.289	87.9617	196.289	88.4493	196.289	87.7208	196.289	88.2239	196.289	87.4813	196.289	87.9773	196.289	87.2477	196.289	87.7425	196.289	87.0212	196.289	87.5476	196.289	86.8023	196.289	87.4069	196.289	86.5937	196.289	87.3164	196.289	86.4023	196.289	87.2577	196.289	86.2404	196.289	87.2067	196.289	86.124	196.289	87.1425	196.289	86.068	196.289	87.0522	196.289	86.0805	196.289	86.932	196.289	86.1582	196.289	86.7849	196.289	86.2873	196.289	86.6193	196.289	86.4478
203.613	88.4492	203.613	88.3206	203.613	88.4983	203.613	88.1281	203.613	88.4588	203.613	87.8909	203.613	88.3313	203.613	87.628	203.613	88.1285	203.613	87.3563	203.613	87.8763	203.613	87.088	203.613	87.6109	203.613	86.8298	203.613	87.3709	203.613	86.5844	203.613	87.1849	203.613	86.3524	203.613	87.0605	203.613	86.1354	203.613	86.9824	203.613	85.939	203.613	86.9214	203.613	85.7742	203.613	86.8494	203.613	85.6555	203.613	86.7498	203.613	85.597	203.613	86.6201	203.613	85.6064	203.613	86.4674	203.613	85.68	203.613	86.301	203.613	85.804	203.613	86.1289	203.613	85.9593
210.938	88.3854	210.938	88.2553	210.938	88.4291	210.938	88.0533	210.938	88.3787	210.938	87.798	210.938	88.2357	210.938	87.5095	210.938	88.0131	210.938	87.2068	210.938	87.7363	210.938	86.9052	210.938	87.4412	210.938	86.6151	210.938	87.1682	210.938	86.3421	210.938	86.9505	210.938	86.0886	210.938	86.8016	210.938	85.857	210.938	86.7097	210.938	85.6518	210.938	86.6447	210.938	85.4819	210.938	86.573	210.938	85.3595	210.938	86.4714	210.938	85.2967	210.938	86.3337	210.938	85.2998	210.938	86.1677	210.938	85.3656	210.938	85.9874	210.938	85.4823	210.938	85.8059	210.938	85.6338
218.262	88.0722	218.262	87.9225	218.262	88.1336	218.262	87.7015	218.262	88.0968	218.262	87.4296	218.262	87.9624	218.262	87.127	218.262	87.7449	218.262	86.8109	218.262	87.4737	218.262	86.4944	218.262	87.1904	218.262	86.1863	218.262	86.9391	218.262	85.8932	218.262	86.7525	218.262	85.6219	218.262	86.639	218.262	85.3817	218.262	86.5805	218.262	85.1853	218.262	86.5429	218.262	85.0474	218.262	86.4925	218.262	84.9803	218.262	86.4082	218.262	84.989	218.262	86.2848	218.262	85.0684	218.262	86.1288	218.262	85.2039	218.262	85.9509	218.262	85.3759	218.262	85.7607	218.262	85.566
225.586	87.8588	225.586	87.6961	225.586	87.925	225.586	87.4557	225.586	87.8836	225.586	87.1608	225.586	87.7348	225.586	86.8348	225.586	87.4932	225.586	86.498	225.586	87.1899	225.586	86.1647	225.586	86.8707	225.586	85.8435	225.586	86.5876	225.586	85.5395	225.586	86.3826	225.586	85.2581	225.586	86.2702	225.586	85.0094	225.586	86.232	225.586	84.8098	225.586	86.2291	225.586	84.6808	225.586	86.2228	225.586	84.6415	225.586	86.1888	225.586	84.6997	225.586	86.119	225.586	84.8451	225.586	86.0148	225.586	85.0508	225.586	85.8785	225.586	85.2822	225.586	85.7096	225.586	85.5084
232.91	87.9402	232.91	87.7718	232.91	87.9914	232.91	87.5069	232.91	87.9115	232.91	87.1693	232.91	87.6971	232.91	86.7829	232.91	87.3605	232.91	86.3685	232.91	86.9334	232.91	85.9413	232.91	86.4672	232.91	85.5104	232.91	86.0234	232.91	85.0808	232.91	85.6546	232.91	84.6577	232.91	85.3832	232.91	84.2526	232.91	85.1946	232.91	83.8872	232.91	85.0508	232.91	83.594	232.91	84.9157	232.91	83.4077	232.91	84.7712	232.91	83.3504	232.91	84.6188	232.91	83.4172	232.91	84.4667	232.91	83.5745	232.91	84.3161	232.91	83.7747	232.91	84.1565	232.91	83.9759
241.699	88.1332	241.699	87.9454	241.699	88.1656	241.699	87.6212	241.699	88.0355	241.699	87.1895	241.699	87.7504	241.699	86.6866	241.699	87.3354	241.699	86.1535	241.699	86.8356	241.699	85.6298	241.699	86.315	241.699	85.1473	241.699	85.8445	241.699	84.7239	241.699	85.4779	241.699	84.3608	241.699	85.2238	241.699	84.0454	241.699	85.0395	241.699	83.759	241.699	84.8561	241.699	83.4865	241.699	84.616	241.699	83.2246	241.699	84.2969	241.699	82.9846	241.699	83.9168	241.699	82.7902	241.699	83.522	241.699	82.6679	241.699	83.1658	241.699	82.6381	241.699	82.8888	241.699	82.711
250.488	90.1462	250.488	89.9634	250.488	90.2004	250.488	89.6686	250.488	90.1128	250.488	89.2808	250.488	89.8768	250.488	88.8195	250.488	89.497	250.488	88.3047	250.488	88.9962	250.488	87.7571	250.488	88.4231	250.488	87.1998	250.488	87.8555	250.488	86.6597	250.488	87.3883	250.488	86.17	250.488	87.0966	250.488	85.7681	250.488	86.9928	250.488	85.4893	250.488	87.0186	250.488	85.3552	250.488	87.0849	250.488	85.3641	250.488	87.1195	250.488	85.4903	250.488	87.0877	250.488	85.6941	250.488	86.9875	250.488	85.9355	250.488	86.8333	250.488	86.1844	250.488	86.6413	250.488	86.4227
259.277	89.7435	259.277	89.5681	259.277	89.8044	259.277	89.2963	259.277	89.7365	259.277	88.9472	259.277	89.5339	259.277	88.5384	259.277	89.2034	259.277	88.0848	259.277	88.7691	259.277	87.5989	259.277	88.2741	259.277	87.0921	259.277	87.779	259.277	86.5788	259.277	87.3518	259.277	86.0803	259.277	87.0471	259.277	85.629	259.277	86.8822	259.277	85.2668	259.277	86.8282	259.277	85.0378	259.277	86.8284	259.277	84.9713	259.277	86.8289	259.277	85.0666	259.277	86.7974	259.277	85.2897	259.277	86.7213	259.277	85.5855	259.277	86.5965	259.277	85.8978	259.277	86.4183	259.277	86.1833
268.066	88.9989	268.066	88.8092	268.066	89.067	268.066	88.5154	268.066	89.0028	268.066	88.1393	268.066	88.8049	268.066	87.704	268.066	88.4844	268.066	87.2314	268.066	88.068	268.066	86.7402	268.066	87.6005	268.066	86.2457	268.066	87.1425	268.066	85.7629	268.066	86.7615	268.066	85.3112	268.066	86.511	268.066	84.9202	268.066	86.4064	268.066	84.6305	268.066	86.4167	268.066	84.4845	268.066	86.4819	268.066	84.5079	268.066	86.5432	268.066	84.6918	268.066	86.5619	268.066	84.9917	268.066	86.521	268.066	85.3456	268.066	86.4156	268.066	85.6956	268.066	86.2431	268.066	86.0015
276.855	88.6462	276.855	88.4619	276.855	88.6971	276.855	88.1625	276.855	88.6047	276.855	87.7725	276.855	88.3703	276.855	87.3189	276.855	88.0083	276.855	86.8271	276.855	87.5491	276.855	86.3171	276.855	87.0394	276.855	85.8021	276.855	86.5396	276.855	85.2915	276.855	86.1158	276.855	84.7989	276.855	85.8228	276.855	84.3524	276.855	85.6837	276.855	84.0003	276.855	85.6786	276.855	83.804	276.855	85.7562	276.855	83.8107	276.855	85.8571	276.855	84.0199	276.855	85.9342	276.855	84.3759	276.855	85.9566	276.855	84.794	276.855	85.9051	276.855	85.1955	276.855	85.765	276.855	85.5275
287.109	88.3487	287.109	88.1622	287.109	88.3922	287.109	87.8518	287.109	88.2848	287.109	87.4451	287.109	88.0314	287.109	86.9739	287.109	87.652	287.109	86.4697	287.109	87.1823	287.109	85.9582	287.109	86.6743	287.109	85.4572	287.109	86.1924	287.109	84.9774	287.109	85.8027	287.109	84.5289	287.109	85.5526	287.109	84.131	287.109	85.4521	287.109	83.8192	287.109	85.4723	287.109	83.6437	287.109	85.5634	287.109	83.6512	287.109	85.677	287.109	83.854	287.109	85.7748	287.109	84.2125	287.109	85.8256	287.109	84.6483	287.109	85.8003	287.109	85.0758	287.109	85.673	287.109	85.4293
297.363	88.3387	297.363	88.154	297.363	88.3627	297.363	87.8327	297.363	88.2119	297.363	87.4044	297.363	87.8865	297.363	86.9	297.363	87.4057	297.363	86.3468	297.363	86.8127	297.363	85.7658	297.363	86.178	297.363	85.1719	297.363	85.5935	297.363	84.5798	297.363	85.1511	297.363	84.0128	297.363	84.9079	297.363	83.5139	297.363	84.8637	297.363	83.1495	297.363	84.9691	297.363	82.9945	297.363	85.1561	297.363	83.0953	297.363	85.3625	297.363	83.4339	297.363	85.5415	297.363	83.928	297.363	85.6573	297.363	84.4689	297.363	85.6795	297.363	84.9609	297.363	85.5803	297.363	85.3409
307.617	88.5055	307.617	88.3018	307.617	88.5446	307.617	87.9588	307.617	88.4028	307.617	87.5078	307.617	88.0759	307.617	86.9816	307.617	87.5748	307.617	86.4104	307.617	86.9311	307.617	85.8165	307.617	86.2025	307.617	85.2131	307.617	85.4742	307.617	84.6066	307.617	84.8475	307.617	84.0052	307.617	84.409	307.617	83.4327	307.617	84.1971	307.617	82.944	307.617	84.1934	307.617	82.6264	307.617	84.3447	307.617	82.5685	307.617	84.5849	307.617	82.7997	307.617	84.8424	307.617	83.2557	307.617	85.0432	307.617	83.813	307.617	85.1225	307.617	84.3489	307.617	85.0374	307.617	84.7739
319.336	88.1834	319.336	87.9379	319.336	88.2678	319.336	87.5624	319.336	88.1659	319.336	87.0905	319.336	87.8615	319.336	86.5557	319.336	87.3527	319.336	85.9865	319.336	86.6589	319.336	85.4034	319.336	85.8309	319.336	84.8173	319.336	84.9596	319.336	84.2328	319.336	84.1775	319.336	83.6561	319.336	83.6323	319.336	83.1085	319.336	83.4172	319.336	82.642	319.336	83.5087	319.336	82.3444	319.336	83.7929	319.336	82.3122	319.336	84.1468	319.336	82.5839	319.336	84.4841	319.336	83.092	319.336	84.7482	319.336	83.6948	319.336	84.8916	319.336	84.2489	319.336	84.8706	319.336	84.656
329.59	87.8925	329.59	87.6418	329.59	87.9807	329.59	87.2616	329.59	87.8847	329.59	86.7904	329.59	87.5993	329.59	86.2649	329.59	87.1376	329.59	85.7134	329.59	86.5314	329.59	85.1523	329.59	85.828	329.59	84.5872	329.59	85.0837	329.59	84.0186	329.59	84.3583	329.59	83.4515	329.59	83.7098	329.59	82.9058	329.59	83.1923	329.59	82.4257	329.59	82.8549	329.59	82.0807	329.59	82.7349	329.59	81.9468	329.59	82.8341	329.59	82.0633	329.59	83.0928	329.59	82.3947	329.59	83.3987	329.59	82.8375	329.59	83.6309	329.59	83.2661	329.59	83.7021	329.59	83.5754
341.309	87.6909	341.309	87.3713	341.309	87.8342	341.309	86.9105	341.309	87.7784	341.309	86.351	341.309	87.5161	341.309	85.7355	341.309	87.0586	341.309	85.0983	341.309	86.4403	341.309	84.459	341.309	85.7204	341.309	83.8237	341.309	84.9799	341.309	83.1937	341.309	84.3072	341.309	82.5804	341.309	83.7742	341.309	82.023	341.309	83.4181	341.309	81.5986	341.309	83.2435	341.309	81.4094	341.309	83.2428	341.309	81.5302	341.309	83.3997	341.309	81.9456	341.309	83.6695	341.309	82.5447	341.309	83.9669	341.309	83.1794	341.309	84.1876	341.309	83.7229	341.309	84.2448	341.309	84.0912
353.027	87.5417	353.027	87.1964	353.027	87.6923	353.027	86.6982	353.027	87.6228	353.027	86.1016	353.027	87.327	353.027	85.4635	353.027	86.8181	353.027	84.8293	353.027	86.1315	353.027	84.2212	353.027	85.3273	353.027	83.6365	353.027	84.4893	353.027	83.0584	353.027	83.7151	353.027	82.4757	353.027	83.0934	353.027	81.9062	353.027	82.681	353.027	81.4174	353.027	82.4968	353.027	81.1297	353.027	82.5355	353.027	81.1686	353.027	82.7739	353.027	81.5668	353.027	83.1549	353.027	82.2149	353.027	83.5749	353.027	82.9263	353.027	83.9071	353.027	83.5317	353.027	84.043	353.027	83.9203
366.211	87.3592	366.211	87.1022	366.211	87.4096	366.211	86.6668	366.211	87.2375	366.211	86.0894	366.211	86.845	366.211	85.4105	366.211	86.2574	366.211	84.6694	366.211	85.5303	366.211	83.9	366.211	84.7516	366.211	83.1269	366.211	84.0303	366.211	82.3687	366.211	83.4581	366.211	81.649	366.211	83.0629	366.211	81.0162	366.211	82.8049	366.211	80.5603	366.211	82.6334	366.211	80.3969	366.211	82.5476	366.211	80.5968	366.211	82.5952	366.211	81.1133	366.211	82.8009	366.211	81.7975	366.211	83.102	366.211	82.4819	366.211	83.3715	366.211	83.037	366.211	83.4892	366.211	83.3834
379.395	87.7941	379.395	87.4998	379.395	87.8893	379.395	87.0484	379.395	87.755	379.395	86.4858	379.395	87.3771	379.395	85.8535	379.395	86.7638	379.395	85.1808	379.395	85.9496	379.395	84.4813	379.395	85.0011	379.395	83.7569	379.395	84.02	379.395	83.0053	379.395	83.1413	379.395	82.229	379.395	82.5049	379.395	81.4492	379.395	82.1869	379.395	80.7259	379.395	82.1471	379.395	80.1779	379.395	82.2781	379.395	79.9671	379.395	82.4976	379.395	80.2006	379.395	82.765	379.395	80.816	379.395	83.0301	379.395	81.6058	379.395	83.2019	379.395	82.3492	379.395	83.179	379.395	82.8962
392.578	87.1161	392.578	86.7505	392.578	87.2538	392.578	86.2033	392.578	87.1403	392.578	85.5412	392.578	86.774	392.578	84.8389	392.578	86.176	392.578	84.1555	392.578	85.3942	392.578	83.5115	392.578	84.5092	392.578	82.8857	392.578	83.63	392.578	82.2403	392.578	82.8664	392.578	81.5599	392.578	82.286	392.578	80.8927	392.578	81.8981	392.578	80.3731	392.578	81.6938	392.578	80.1835	392.578	81.6991	392.578	80.4263	392.578	81.958	392.578	81.0253	392.578	82.4396	392.578	81.7915	392.578	82.9955	392.578	82.5447	392.578	83.4385	392.578	83.1559	392.578	83.6365	392.578	83.5381
405.762	87.3432	405.762	86.9664	405.762	87.4767	405.762	86.3829	405.762	87.3419	405.762	85.6401	405.762	86.9273	405.762	84.7933	405.762	86.2417	405.762	83.8952	405.762	85.3268	405.762	82.9824	405.762	84.2691	405.762	82.0645	405.762	83.1998	405.762	81.1305	405.762	82.2637	405.762	80.1748	405.762	81.5633	405.762	79.2464	405.762	81.1191	405.762	78.5147	405.762	80.9004	405.762	78.2758	405.762	80.9034	405.762	78.7339	405.762	81.171	405.762	79.7348	405.762	81.6989	405.762	80.9106	405.762	82.3504	405.762	81.9674	405.762	82.9148	405.762	82.7459	405.762	83.2194	405.762	83.1713
420.41	87.2442	420.41	86.9	420.41	87.3233	420.41	86.328	420.41	87.1171	420.41	85.5831	420.41	86.6239	420.41	84.7347	420.41	85.8637	420.41	83.856	420.41	84.8862	420.41	83.0051	420.41	83.7791	420.41	82.2073	420.41	82.676	420.41	81.4481	420.41	81.7463	420.41	80.6849	420.41	81.1328	420.41	79.8806	420.41	80.8509	420.41	79.0627	420.41	80.7853	420.41	78.4072	420.41	80.8283	420.41	78.2532	420.41	80.9957	420.41	78.8328	420.41	81.3745	420.41	79.9399	420.41	81.9372	420.41	81.1346	420.41	82.4796	420.41	82.091	420.41	82.7659	420.41	82.6505
435.059	86.6992	435.059	86.2932	435.059	86.8324	435.059	85.6666	435.059	86.6627	435.059	84.8915	435.059	86.1855	435.059	84.0507	435.059	85.4294	435.059	83.2154	435.059	84.4659	435.059	82.4194	435.059	83.413	435.059	81.6487	435.059	82.4164	435.059	80.8587	435.059	81.6042	435.059	80.0114	435.059	81.0349	435.059	79.1249	435.059	80.6888	435.059	78.3376	435.059	80.5261	435.059	77.9433	435.059	80.5657	435.059	78.2314	435.059	80.8841	435.059	79.1598	435.059	81.4886	435.059	80.3764	435.059	82.2151	435.059	81.5394	435.059	82.8158	435.059	82.4429	435.059	83.1003	435.059	82.9792
451.172	87.1254	451.172	86.635	451.172	87.3053	451.172	85.8802	451.172	87.1548	451.172	84.9396	451.172	86.6737	451.172	83.9177	451.172	85.8783	451.172	82.9191	451.172	84.81	451.172	82.0088	451.172	83.5519	451.172	81.1853	451.172	82.2509	451.172	80.3847	451.172	81.1178	451.172	79.5119	451.172	80.3514	451.172	78.4853	451.172	79.9852	451.172	77.3251	451.172	79.8734	451.172	76.3476	451.172	79.9115	451.172	76.2827	451.172	80.2066	451.172	77.4875	451.172	80.9072	451.172	79.2909	451.172	81.8595	451.172	80.973	451.172	82.6824	451.172	82.2229	451.172	83.0832	451.172	82.9371
465.82	87.1578	465.82	86.6333	465.82	87.3478	465.82	85.8257	465.82	87.1868	465.82	84.8325	465.82	86.6831	465.82	83.7961	465.82	85.8676	465.82	82.8637	465.82	84.7952	465.82	82.1138	465.82	83.5463	465.82	81.5132	465.82	82.229	465.82	80.9455	465.82	80.994	465.82	80.2662	465.82	80.0325	465.82	79.347	465.82	79.4691	465.82	78.1257	465.82	79.224	465.82	76.7386	465.82	79.1217	465.82	75.8182	465.82	79.1628	465.82	76.2976	465.82	79.5642	465.82	77.9458	465.82	80.3783	465.82	79.716	465.82	81.2557	465.82	81.0357	465.82	81.7826	465.82	81.7329
483.398	87.0881	483.398	86.5557	483.398	87.2105	483.398	85.6834	483.398	86.8913	483.398	84.5913	483.398	86.1342	483.398	83.4489	483.398	84.992	483.398	82.4322	483.398	83.5936	483.398	81.6431	483.398	82.1617	483.398	81.0639	483.398	80.9672	483.398	80.5981	483.398	80.1836	483.398	80.1432	483.398	79.7722	483.398	79.6325	483.398	79.5652	483.398	79.0424	483.398	79.4247	483.398	78.4053	483.398	79.3271	483.398	77.8813	483.398	79.4058	483.398	77.8382	483.398	79.8801	483.398	78.5947	483.398	80.738	483.398	79.8991	483.398	81.6059	483.398	81.1515	483.398	82.0755	483.398	81.9317
499.512	87.2749	499.512	86.611	499.512	87.4868	499.512	85.5303	499.512	87.2328	499.512	84.1122	499.512	86.5141	499.512	82.5226	499.512	85.3545	499.512	81.039	499.512	83.8219	499.512	79.9518	499.512	82.0686	499.512	79.3297	499.512	80.383	499.512	78.9655	499.512	79.1724	499.512	78.5981	499.512	78.7089	499.512	78.0916	499.512	78.8307	499.512	77.4888	499.512	79.128	499.512	77.0306	499.512	79.3354	499.512	77.0805	499.512	79.4967	499.512	77.8233	499.512	79.896	499.512	79.0453	499.512	80.6696	499.512	80.3498	499.512	81.52	499.512	81.4078	499.512	82.0368	499.512	82.0061
517.09	87.5658	517.09	86.9898	517.09	87.6913	517.09	85.9963	517.09	87.3632	517.09	84.6638	517.09	86.6011	517.09	83.1374	517.09	85.4496	517.09	81.6337	517.09	83.9883	517.09	80.3753	517.09	82.3443	517.09	79.4484	517.09	80.6979	517.09	78.7339	517.09	79.279	517.09	78.0163	517.09	78.3216	517.09	77.1315	517.09	77.9376	517.09	76.0626	517.09	78.0291	517.09	75.0741	517.09	78.4152	517.09	74.8637	517.09	79.0349	517.09	76.0052	517.09	79.9362	517.09	77.9896	517.09	81.0231	517.09	79.9596	517.09	81.9728	517.09	81.4563	517.09	82.4604	517.09	82.3052
536.133	87.8764	536.133	87.2507	536.133	87.9812	536.133	86.1519	536.133	87.5335	536.133	84.6569	536.133	86.5159	536.133	82.8975	536.133	84.936	536.133	81.093	536.133	82.86	536.133	79.5433	536.133	80.5075	536.133	78.4823	536.133	78.449	536.133	77.8677	536.133	77.5305	536.133	77.4318	536.133	77.8761	536.133	76.9245	536.133	78.6911	536.133	76.2553	536.133	79.2733	536.133	75.5815	536.133	79.3209	536.133	75.4036	536.133	78.987	536.133	76.2362	536.133	79.0258	536.133	77.8654	536.133	79.9946	536.133	79.6248	536.133	81.2228	536.133	81.0394	536.133	81.9263	536.133	81.8547
555.176	88.0102	555.176	87.3836	555.176	88.1437	555.176	86.3025	555.176	87.7602	555.176	84.8404	555.176	86.8409	555.176	83.142	555.176	85.3709	555.176	81.4636	555.176	83.345	555.176	80.1322	555.176	80.7758	555.176	79.321	555.176	77.7361	555.176	78.886	555.176	74.7208	555.176	78.5411	555.176	73.5609	555.176	78.0756	555.176	74.9491	555.176	77.3967	555.176	76.6987	555.176	76.5183	555.176	77.7732	555.176	75.6724	555.176	78.2135	555.176	75.5722	555.176	78.6089	555.176	76.8795	555.176	79.5875	555.176	78.9245	555.176	80.8519	555.176	80.6647	555.176	81.6577	555.176	81.6192
574.219	88.1826	574.219	87.5396	574.219	88.3229	574.219	86.4039	574.219	87.9609	574.219	84.803	574.219	87.1049	574.219	82.801	574.219	85.7714	574.219	80.5583	574.219	83.9907	574.219	78.4423	574.219	81.8024	574.219	76.9859	574.219	79.2421	574.219	76.3738	574.219	76.4588	574.219	76.2062	574.219	74.3804	574.219	76.0351	574.219	74.5731	574.219	75.6682	574.219	76.0697	574.219	75.1868	574.219	77.2199	574.219	75.0108	574.219	77.7115	574.219	75.7161	574.219	78.0907	574.219	77.299	574.219	79.0774	574.219	79.1179	574.219	80.4037	574.219	80.5825	574.219	81.2891	574.219	81.3579
594.727	88.2032	594.727	87.6457	594.727	88.263	594.727	86.5978	594.727	87.826	594.727	85.0823	594.727	86.9012	594.727	83.1601	594.727	85.5033	594.727	80.9625	594.727	83.6466	594.727	78.7112	594.727	81.3287	594.727	76.7047	594.727	78.4996	594.727	75.2367	594.727	75.0475	594.727	74.4092	594.727	71.302	594.727	74.0246	594.727	70.7543	594.727	73.8166	594.727	74.0085	594.727	73.769	594.727	76.7332	594.727	74.2498	594.727	78.2522	594.727	75.6383	594.727	79.1014	594.727	77.6428	594.727	80.0354	594.727	79.6114	594.727	81.1494	594.727	81.1048	594.727	81.8952	594.727	81.9001
615.234	88.4308	615.234	87.8647	615.234	88.4171	615.234	86.7375	615.234	87.8259	615.234	85.1049	615.234	86.6709	615.234	83.0774	615.234	84.9788	615.234	80.8509	615.234	82.8018	615.234	78.753	615.234	80.2115	615.234	77.1493	615.234	77.2389	615.234	76.0744	615.234	73.8923	615.234	75.2355	615.234	70.9586	615.234	74.4772	615.234	71.2102	615.234	73.8947	615.234	73.7949	615.234	73.6439	615.234	75.7612	615.234	73.8489	615.234	76.3507	615.234	74.658	615.234	75.9929	615.234	76.1301	615.234	76.4484	615.234	77.9233	615.234	78.2863	615.234	79.4275	615.234	79.7752	615.234	80.1435
637.207	88.7458	637.207	88.1076	637.207	88.7512	637.207	86.8848	637.207	88.1056	637.207	85.145	637.207	86.8467	637.207	82.9672	637.207	85.0982	637.207	80.4416	637.207	83.0516	637.207	77.7194	637.207	80.8242	637.207	75.1435	637.207	78.2845	637.207	73.2266	637.207	75.0789	637.207	72.2047	637.207	70.7779	637.207	71.8594	637.207	67.172	637.207	71.8188	637.207	71.5227	637.207	71.8137	637.207	76.0022	637.207	72.1251	637.207	78.5746	637.207	73.6041	637.207	79.881	637.207	76.1431	637.207	80.6391	637.207	78.6718	637.207	81.3238	637.207	80.5555	637.207	81.7781	637.207	81.592
659.18	89.2867	659.18	88.6811	659.18	89.2874	659.18	87.4929	659.18	88.688	659.18	85.7573	659.18	87.5218	659.18	83.499	659.18	85.8404	659.18	80.7494	659.18	83.7064	659.18	77.6885	659.18	81.2233	659.18	74.8344	659.18	78.5828	659.18	72.7691	659.18	75.9468	659.18	71.4153	659.18	73.0124	659.18	70.2359	659.18	68.4725	659.18	69.3479	659.18	64.9236	659.18	69.846	659.18	71.7188	659.18	71.7015	659.18	75.7951	659.18	73.9452	659.18	77.7656	659.18	76.247	659.18	79.0001	659.18	78.4058	659.18	80.147	659.18	80.0702	659.18	80.9345	659.18	80.9501
682.617	89.2841	682.617	88.6534	682.617	89.2864	682.617	87.448	682.617	88.6169	682.617	85.6945	682.617	87.2685	682.617	83.365	682.617	85.2864	682.617	80.4499	682.617	82.7556	682.617	77.2599	682.617	79.809	682.617	74.7333	682.617	76.7628	682.617	73.4206	682.617	74.1914	682.617	72.4844	682.617	72.3561	682.617	71.1687	682.617	70.5212	682.617	69.3627	682.617	68.6238	682.617	67.4852	682.617	70.052	682.617	67.5932	682.617	73.4537	682.617	71.0626	682.617	76.4345	682.617	75.1488	682.617	78.9414	682.617	78.3825	682.617	80.7828	682.617	80.5421	682.617	81.7158	682.617	81.6442
707.52	89.0028	707.52	88.3508	707.52	89.0231	707.52	87.0986	707.52	88.3971	707.52	85.292	707.52	87.1224	707.52	82.994	707.52	85.1968	707.52	80.2897	707.52	82.649	707.52	77.2848	707.52	79.6535	707.52	74.1873	707.52	76.5619	707.52	71.5159	707.52	73.6293	707.52	69.6521	707.52	71.1228	707.52	68.2333	707.52	70.0789	707.52	67.2363	707.52	70.9802	707.52	67.1751	707.52	72.8961	707.52	68.5174	707.52	75.4964	707.52	70.8278	707.52	78.2471	707.52	74.0301	707.52	80.612	707.52	77.7111	707.52	82.2911	707.52	80.696	707.52	82.9768	707.52	82.4702
732.422	89.1955	732.422	88.4761	732.422	89.3102	732.422	87.2458	732.422	88.7197	732.422	85.548	732.422	87.3649	732.422	83.3392	732.422	85.2676	732.422	80.4927	732.422	82.5205	732.422	76.9496	732.422	79.1978	732.422	73.1955	732.422	75.2815	732.422	70.3251	732.422	71.0744	732.422	68.1108	732.422	68.3556	732.422	65.6788	732.422	68.1825	732.422	63.6144	732.422	67.57	732.422	64.625	732.422	67.7002	732.422	68.3667	732.422	73.0546	732.422	71.6748	732.422	76.7446	732.422	74.4609	732.422	78.8033	732.422	77.1373	732.422	80.2952	732.422	79.437	732.422	81.1236	732.422	80.8589
757.324	89.4284	757.324	88.7127	757.324	89.5068	757.324	87.4089	757.324	88.8868	757.324	85.5087	757.324	87.4888	757.324	82.8804	757.324	85.1761	757.324	79.312	757.324	81.7307	757.324	74.8606	757.324	76.9916	757.324	70.5663	757.324	71.5812	757.324	67.9513	757.324	67.7536	757.324	67.1018	757.324	65.6965	757.324	67.1593	757.324	63.1833	757.324	66.8317	757.324	62.2626	757.324	64.7777	757.324	67.0807	757.324	62.1228	757.324	68.9203	757.324	68.1008	757.324	71.8266	757.324	74.037	757.324	76.7468	757.324	78.0267	757.324	80.054	757.324	80.5341	757.324	81.6026	757.324	81.7204
785.156	89.5685	785.156	89.0867	785.156	89.321	785.156	87.8019	785.156	88.4124	785.156	85.6326	785.156	86.8767	785.156	82.4821	785.156	84.687	785.156	78.2226	785.156	81.8098	785.156	72.6606	785.156	78.1685	785.156	66.5477	785.156	73.1454	785.156	65.1601	785.156	64.7375	785.156	65.7593	785.156	43.1503	785.156	64.8328	785.156	61.9498	785.156	62.3386	785.156	65.9838	785.156	56.2527	785.156	66.786	785.156	62.7252	785.156	69.341	785.156	67.4586	785.156	73.2266	785.156	71.3369	785.156	78.2614	785.156	76.9515	785.156	81.9421	785.156	81.128	785.156	83.5415	785.156	83.2589
811.523	89.291	811.523	88.5417	811.523	89.2809	811.523	87.0563	811.523	88.4688	811.523	84.7625	811.523	86.8197	811.523	81.4713	811.523	84.26	811.523	76.9658	811.523	80.6256	811.523	70.9654	811.523	75.7994	811.523	61.9934	811.523	70.6138	811.523	43.9358	811.523	67.7145	811.523	47.7966	811.523	66.8841	811.523	55.0374	811.523	63.7113	811.523	62.8356	811.523	56.8953	811.523	63.1616	811.523	63.152	811.523	59.0385	811.523	68.4632	811.523	65.6883	811.523	72.9286	811.523	72.9185	811.523	75.8346	811.523	77.4777	811.523	78.1888	811.523	80.0916	811.523	80.1449	811.523	80.9349
840.82	89.2321	840.82	88.1391	840.82	89.4502	840.82	86.4067	840.82	88.636	840.82	84.244	840.82	86.74	840.82	81.6264	840.82	83.7794	840.82	78.0741	840.82	79.667	840.82	72.4724	840.82	73.8157	840.82	61.6984	840.82	63.3722	840.82	52.6814	840.82	54.7921	840.82	56.4172	840.82	60.6204	840.82	53.305	840.82	57.893	840.82	62.5107	840.82	56.9565	840.82	64.7272	840.82	59.4792	840.82	59.6418	840.82	64.0464	840.82	56.7212	840.82	65.9072	840.82	68.9435	840.82	74.438	840.82	74.6924	840.82	79.2123	840.82	78.3788	840.82	80.8448	840.82	80.4295
870.117	89.6462	870.117	88.4449	870.117	89.7092	870.117	86.2805	870.117	88.5582	870.117	83.3479	870.117	86.2734	870.117	79.687	870.117	83.088	870.117	75.075	870.117	79.1738	870.117	69.1841	870.117	74.4921	870.117	61.1267	870.117	68.7277	870.117	53.6229	870.117	59.9223	870.117	60.6147	870.117	53.6188	870.117	61.8088	870.117	53.5644	870.117	61.0686	870.117	56.0939	870.117	61.0941	870.117	55.589	870.117	61.6814	870.117	62.7012	870.117	63.2545	870.117	68.9609	870.117	64.5598	870.117	73.3026	870.117	70.5647	870.117	77.0674	870.117	76.3269	870.117	79.25	870.117	79.1226
900.879	89.2657	900.879	88.358	900.879	89.2047	900.879	86.528	900.879	88.1153	900.879	83.8032	900.879	86.0025	900.879	80.2336	900.879	82.846	900.879	75.503	900.879	78.1984	900.879	67.3231	900.879	70.0735	900.879	61.2155	900.879	60.8443	900.879	68.6566	900.879	69.6241	900.879	69.4569	900.879	71.3032	900.879	67.1492	900.879	69.5485	900.879	61.8542	900.879	63.2611	900.879	51.18	900.879	53.5463	900.879	56.1463	900.879	61.1618	900.879	54.593	900.879	63.7431	900.879	63.5138	900.879	73.3643	900.879	72.3861	900.879	78.3166	900.879	77.2851	900.879	80.1264	900.879	79.7325
933.105	89.22	933.105	88.0825	933.105	89.1762	933.105	85.8216	933.105	87.9626	933.105	82.5322	933.105	85.6271	933.105	78.2692	933.105	82.1171	933.105	73.0087	933.105	77.3703	933.105	66.209	933.105	71.7193	933.105	50.9472	933.105	61.9812	933.105	60.6055	933.105	61.876	933.105	66.6776	933.105	67.5724	933.105	68.1468	933.105	65.0565	933.105	66.3978	933.105	64.7987	933.105	61.229	933.105	63.4725	933.105	51.0013	933.105	64.77	933.105	51.9744	933.105	68.2603	933.105	64.4885	933.105	73.0778	933.105	72.3123	933.105	77.946	933.105	77.5462	933.105	80.2905	933.105	80.1527
965.332	88.8885	965.332	88.055	965.332	88.7207	965.332	86.1763	965.332	87.5342	965.332	83.0162	965.332	85.2227	965.332	78.0256	965.332	81.3433	965.332	70.181	965.332	74.865	965.332	62.2453	965.332	60.6866	965.332	66.5032	965.332	65.6389	965.332	70.3482	965.332	71.6785	965.332	71.8254	965.332	73.0228	965.332	71.1147	965.332	71.2298	965.332	70.0832	965.332	65.4009	965.332	69.1621	965.332	61.6405	965.332	64.8079	965.332	61.6413	965.332	45.1815	965.332	61.9843	965.332	62.5397	965.332	73.2199	965.332	69.4117	965.332	77.7894	965.332	75.8115	965.332	79.5429	965.332	79.0184
1,000.49	88.6953	1,000.49	87.5047	1,000.49	88.8935	1,000.49	85.4477	1,000.49	87.8743	1,000.49	82.4596	1,000.49	85.4363	1,000.49	78.2374	1,000.49	81.2026	1,000.49	71.8416	1,000.49	73.673	1,000.49	60.4899	1,000.49	50.8985	1,000.49	64.7257	1,000.49	64.6758	1,000.49	68.4684	1,000.49	66.1129	1,000.49	68.6917	1,000.49	66.9469	1,000.49	68.2311	1,000.49	65.619	1,000.49	67.4792	1,000.49	62.6769	1,000.49	64.0392	1,000.49	61.613	1,000.49	53.544	1,000.49	56.3425	1,000.49	56.592	1,000.49	64.2511	1,000.49	64.9984	1,000.49	74.4593	1,000.49	70.6866	1,000.49	79.3389	1,000.49	76.1409	1,000.49	80.9678	1,000.49	79.8213
1,035.64	88.7673	1,035.64	87.9288	1,035.64	88.419	1,035.64	85.5106	1,035.64	87.0626	1,035.64	80.9313	1,035.64	84.6165	1,035.64	73.3047	1,035.64	80.4004	1,035.64	64.7373	1,035.64	72.4041	1,035.64	68.7463	1,035.64	64.5481	1,035.64	70.3852	1,035.64	70.1342	1,035.64	69.73	1,035.64	72.269	1,035.64	70.4482	1,035.64	73.6397	1,035.64	71.0044	1,035.64	73.1677	1,035.64	70.5278	1,035.64	69.3857	1,035.64	70.125	1,035.64	65.9213	1,035.64	68.7432	1,035.64	66.5933	1,035.64	63.2984	1,035.64	57.9557	1,035.64	67.0284	1,035.64	73.3329	1,035.64	72.7412	1,035.64	78.6894	1,035.64	76.2619	1,035.64	80.176	1,035.64	79.0844
1,072.27	88.3545	1,072.27	87.7538	1,072.27	87.7608	1,072.27	85.6557	1,072.27	86.2512	1,072.27	81.8382	1,072.27	83.6227	1,072.27	75.4981	1,072.27	78.5883	1,072.27	65.6893	1,072.27	66.5695	1,072.27	71.1685	1,072.27	70.1794	1,072.27	72.2392	1,072.27	73.1704	1,072.27	69.9806	1,072.27	73.2137	1,072.27	68.0007	1,072.27	72.886	1,072.27	65.9175	1,072.27	69.6622	1,072.27	60.9129	1,072.27	67.4691	1,072.27	65.8486	1,072.27	64.2551	1,072.27	67.6332	1,072.27	61.6402	1,072.27	63.6461	1,072.27	59.414	1,072.27	64.9166	1,072.27	70.9487	1,072.27	72.1226	1,072.27	76.2022	1,072.27	76.6795	1,072.27	78.5545	1,072.27	78.7916
1,108.89	88.5542	1,108.89	87.6677	1,108.89	87.8955	1,108.89	85.2428	1,108.89	85.8731	1,108.89	81.0644	1,108.89	82.6895	1,108.89	73.5048	1,108.89	77.243	1,108.89	65.1964	1,108.89	56.1236	1,108.89	73.5416	1,108.89	73.2251	1,108.89	75.2473	1,108.89	76.6388	1,108.89	74.2097	1,108.89	76.2435	1,108.89	71.762	1,108.89	74.1063	1,108.89	69.4457	1,108.89	71.2606	1,108.89	69.6797	1,108.89	66.9195	1,108.89	68.2956	1,108.89	51.532	1,108.89	64.7858	1,108.89	61.2066	1,108.89	66.0615	1,108.89	64.1332	1,108.89	64.3117	1,108.89	73.1942	1,108.89	65.5561	1,108.89	78.2593	1,108.89	74.7324	1,108.89	79.9614	1,108.89	78.908
1,148.44	88.5735	1,148.44	86.7692	1,148.44	88.9192	1,148.44	84.0293	1,148.44	87.3435	1,148.44	80.4421	1,148.44	83.7484	1,148.44	75.2316	1,148.44	78.2547	1,148.44	67.3879	1,148.44	67.0558	1,148.44	72.2707	1,148.44	69.588	1,148.44	75.7077	1,148.44	76.3731	1,148.44	75.5234	1,148.44	78.202	1,148.44	74.0196	1,148.44	77.981	1,148.44	73.9424	1,148.44	74.8892	1,148.44	73.353	1,148.44	69.7126	1,148.44	70.4913	1,148.44	62.9173	1,148.44	66.3484	1,148.44	68.5747	1,148.44	61.8267	1,148.44	73.1794	1,148.44	60.8322	1,148.44	73.855	1,148.44	62.4066	1,148.44	78.1884	1,148.44	75.7365	1,148.44	80.943	1,148.44	80.3343
1,189.45	89.1889	1,189.45	86.7973	1,189.45	89.3075	1,189.45	82.4757	1,189.45	87.0096	1,189.45	77.1194	1,189.45	82.4686	1,189.45	71.7621	1,189.45	77.2125	1,189.45	69.4981	1,189.45	70.8786	1,189.45	73.524	1,189.45	66.4192	1,189.45	76.2421	1,189.45	75.9186	1,189.45	77.3389	1,189.45	78.7151	1,189.45	76.7183	1,189.45	78.2147	1,189.45	75.4038	1,189.45	76.4414	1,189.45	75.4542	1,189.45	73.5984	1,189.45	74.1383	1,189.45	65.3652	1,189.45	66.5131	1,189.45	65.4285	1,189.45	61.525	1,189.45	72.3776	1,189.45	65.6866	1,189.45	71.8168	1,189.45	58.2381	1,189.45	77.5113	1,189.45	75.6966	1,189.45	81.56	1,189.45	80.9403
1,230.47	89.8965	1,230.47	87.5763	1,230.47	90.0712	1,230.47	83.1907	1,230.47	87.574	1,230.47	75.8365	1,230.47	81.6417	1,230.47	71.8888	1,230.47	72.1523	1,230.47	73.714	1,230.47	73.3246	1,230.47	74.4144	1,230.47	73.4731	1,230.47	76.0763	1,230.47	75.2459	1,230.47	76.7831	1,230.47	77.9022	1,230.47	75.9886	1,230.47	78.7036	1,230.47	76.2277	1,230.47	77.7815	1,230.47	77.0214	1,230.47	75.9278	1,230.47	76.1364	1,230.47	71.3102	1,230.47	72.0973	1,230.47	66.7597	1,230.47	61.408	1,230.47	74.8752	1,230.47	69.7436	1,230.47	72.5781	1,230.47	69.91	1,230.47	73.4669	1,230.47	71.054	1,230.47	79.8079	1,230.47	79.1156
1,274.41	90.3442	1,274.41	88.1561	1,274.41	90.2878	1,274.41	83.6803	1,274.41	87.6477	1,274.41	74.903	1,274.41	81.6015	1,274.41	72.2083	1,274.41	69.0111	1,274.41	76.9835	1,274.41	71.3546	1,274.41	76.8995	1,274.41	75.9424	1,274.41	76.0771	1,274.41	77.4086	1,274.41	75.9001	1,274.41	76.2967	1,274.41	74.1874	1,274.41	76.6495	1,274.41	72.244	1,274.41	77.5981	1,274.41	75.4781	1,274.41	77.5071	1,274.41	77.5462	1,274.41	75.231	1,274.41	76.084	1,274.41	59.8412	1,274.41	69.1621	1,274.41	71.2077	1,274.41	67.023	1,274.41	65.8948	1,274.41	69.7635	1,274.41	75.9213	1,274.41	71.4042	1,274.41	81.0014	1,274.41	79.2524
1,319.82	90.3525	1,319.82	88.5449	1,319.82	90.1838	1,319.82	83.7612	1,319.82	87.7682	1,319.82	71.2539	1,319.82	81.8377	1,319.82	71.0885	1,319.82	65.6992	1,319.82	75.4084	1,319.82	73.8876	1,319.82	76.3023	1,319.82	77.3307	1,319.82	77.1967	1,319.82	77.6137	1,319.82	77.4446	1,319.82	77.5237	1,319.82	75.4791	1,319.82	77.3823	1,319.82	72.5792	1,319.82	75.4091	1,319.82	73.6243	1,319.82	75.1742	1,319.82	75.8784	1,319.82	73.8145	1,319.82	74.4483	1,319.82	54.1089	1,319.82	66.4786	1,319.82	73.2229	1,319.82	65.4144	1,319.82	65.5974	1,319.82	69.483	1,319.82	76.7063	1,319.82	70.4658	1,319.82	81.1849	1,319.82	78.9294
1,366.7	90.3898	1,366.7	88.7529	1,366.7	90.215	1,366.7	84.4162	1,366.7	87.8783	1,366.7	74.0361	1,366.7	81.8327	1,366.7	68.9296	1,366.7	61.9172	1,366.7	76.6518	1,366.7	75.0966	1,366.7	78.3335	1,366.7	77.8127	1,366.7	78.1331	1,366.7	78.3386	1,366.7	77.8784	1,366.7	77.6258	1,366.7	76.9939	1,366.7	77.5354	1,366.7	75.4072	1,366.7	76.9659	1,366.7	74.347	1,366.7	76.072	1,366.7	73.8753	1,366.7	73.876	1,366.7	73.5605	1,366.7	60.6983	1,366.7	70.0278	1,366.7	75.9649	1,366.7	68.0277	1,366.7	67.3553	1,366.7	73.1165	1,366.7	77.1101	1,366.7	74.9393	1,366.7	81.8902	1,366.7	79.9517
1,413.57	89.8199	1,413.57	88.1902	1,413.57	89.7553	1,413.57	84.5208	1,413.57	87.1719	1,413.57	75.125	1,413.57	80.4653	1,413.57	70.9956	1,413.57	64.8501	1,413.57	78.3755	1,413.57	73.1902	1,413.57	79.2991	1,413.57	75.2909	1,413.57	77.6609	1,413.57	76.1844	1,413.57	75.0938	1,413.57	77.4872	1,413.57	72.8542	1,413.57	77.8615	1,413.57	69.5484	1,413.57	74.2937	1,413.57	70.1916	1,413.57	73.7772	1,413.57	74.9293	1,413.57	75.9586	1,413.57	75.5371	1,413.57	59.539	1,413.57	72.8121	1,413.57	74.9952	1,413.57	69.739	1,413.57	69.258	1,413.57	74.065	1,413.57	76.0504	1,413.57	74.1284	1,413.57	81.2251	1,413.57	79.3277
1,463.38	88.8245	1,463.38	87.4104	1,463.38	88.8273	1,463.38	83.7598	1,463.38	87.047	1,463.38	74.0686	1,463.38	81.6265	1,463.38	70.7035	1,463.38	61.1314	1,463.38	76.9845	1,463.38	76.4546	1,463.38	76.9204	1,463.38	75.9635	1,463.38	73.5337	1,463.38	72.6843	1,463.38	69.7092	1,463.38	75.3391	1,463.38	70.8978	1,463.38	74.2166	1,463.38	70.7377	1,463.38	70.7371	1,463.38	70.5458	1,463.38	74.7743	1,463.38	74.1846	1,463.38	74.9719	1,463.38	73.1465	1,463.38	70.1782	1,463.38	68.7238	1,463.38	75.6321	1,463.38	62.6213	1,463.38	72.2689	1,463.38	73.0177	1,463.38	75.4214	1,463.38	74.5358	1,463.38	80.0013	1,463.38	78.3284
1,516.11	87.8169	1,516.11	86.5545	1,516.11	87.1595	1,516.11	82.2602	1,516.11	85.5345	1,516.11	72.3007	1,516.11	80.9059	1,516.11	65.6793	1,516.11	62.3033	1,516.11	73.5478	1,516.11	76.7588	1,516.11	72.4978	1,516.11	77.2214	1,516.11	70.2384	1,516.11	73.9025	1,516.11	73.486	1,516.11	73.2969	1,516.11	71.4473	1,516.11	75.6676	1,516.11	61.1707	1,516.11	72.0968	1,516.11	67.1801	1,516.11	70.8901	1,516.11	70.9714	1,516.11	75.5866	1,516.11	72.2457	1,516.11	71.9864	1,516.11	68.1778	1,516.11	76.4413	1,516.11	69.1229	1,516.11	73.6163	1,516.11	73.5134	1,516.11	76.7138	1,516.11	75.4636	1,516.11	80.4941	1,516.11	78.9987
1,568.85	87.3058	1,568.85	84.6342	1,568.85	86.7019	1,568.85	79.5808	1,568.85	83.5747	1,568.85	73.9641	1,568.85	79.1648	1,568.85	60.2205	1,568.85	67.8171	1,568.85	71.7741	1,568.85	73.4731	1,568.85	71.9484	1,568.85	75.6172	1,568.85	64.6238	1,568.85	74.3943	1,568.85	70.292	1,568.85	69.7167	1,568.85	71.4627	1,568.85	73.2981	1,568.85	62.9391	1,568.85	74.64	1,568.85	67.7419	1,568.85	62.4499	1,568.85	70.2397	1,568.85	77.5843	1,568.85	71.9555	1,568.85	76.1967	1,568.85	73.4775	1,568.85	75.6241	1,568.85	72.4501	1,568.85	75.0459	1,568.85	73.3051	1,568.85	75.0745	1,568.85	75.5851	1,568.85	80.3745	1,568.85	78.5788
1,624.51	87.0395	1,624.51	83.8929	1,624.51	86.7766	1,624.51	78.4242	1,624.51	82.7802	1,624.51	74.6777	1,624.51	75.8978	1,624.51	72.5059	1,624.51	70.3117	1,624.51	68.0187	1,624.51	67.6984	1,624.51	70.0088	1,624.51	69.6083	1,624.51	70.2338	1,624.51	72.8173	1,624.51	64.2719	1,624.51	68.6763	1,624.51	67.0297	1,624.51	71.3051	1,624.51	66.695	1,624.51	74.3469	1,624.51	50.3179	1,624.51	66.9914	1,624.51	70.0024	1,624.51	74.337	1,624.51	72.4059	1,624.51	77.4125	1,624.51	73.2388	1,624.51	73.9144	1,624.51	73.284	1,624.51	73.1634	1,624.51	73.6959	1,624.51	73.0679	1,624.51	74.4565	1,624.51	79.9887	1,624.51	78.9593
1,681.64	87.2364	1,681.64	85.4888	1,681.64	86.4953	1,681.64	79.6896	1,681.64	83.4118	1,681.64	74.7501	1,681.64	76.6491	1,681.64	76.7338	1,681.64	72.8576	1,681.64	74.4915	1,681.64	74.0151	1,681.64	72.7571	1,681.64	71.5614	1,681.64	72.4344	1,681.64	68.4482	1,681.64	68.4059	1,681.64	68.8135	1,681.64	62.4472	1,681.64	69.8301	1,681.64	70.128	1,681.64	72.265	1,681.64	62.3556	1,681.64	67.0056	1,681.64	71.1079	1,681.64	74.3552	1,681.64	75.3225	1,681.64	77.4179	1,681.64	74.0885	1,681.64	76.4916	1,681.64	74.625	1,681.64	72.8404	1,681.64	73.2571	1,681.64	70.077	1,681.64	74.7022	1,681.64	78.5355	1,681.64	78.7147
1,741.7	88.3184	1,741.7	85.7362	1,741.7	87.267	1,741.7	78.9211	1,741.7	83.0336	1,741.7	75.9148	1,741.7	76.2464	1,741.7	78.7317	1,741.7	73.5852	1,741.7	74.4131	1,741.7	77.3549	1,741.7	75.0899	1,741.7	77.5598	1,741.7	75.9923	1,741.7	72.2184	1,741.7	71.5668	1,741.7	71.3004	1,741.7	71.854	1,741.7	65.8073	1,741.7	73.3657	1,741.7	73.3725	1,741.7	66.7258	1,741.7	73.0426	1,741.7	63.2087	1,741.7	70.5951	1,741.7	75.8638	1,741.7	76.9804	1,741.7	77.4039	1,741.7	74.2984	1,741.7	73.6219	1,741.7	61.6256	1,741.7	71.6354	1,741.7	69.0349	1,741.7	73.0973	1,741.7	78.3986	1,741.7	77.2377
1,803.22	88.7928	1,803.22	86.8676	1,803.22	87.7544	1,803.22	80.6136	1,803.22	84.0911	1,803.22	73.8153	1,803.22	77.405	1,803.22	79.5872	1,803.22	75.2773	1,803.22	80.1196	1,803.22	78.1703	1,803.22	78.1168	1,803.22	79.4179	1,803.22	73.199	1,803.22	76.2606	1,803.22	73.2941	1,803.22	71.4729	1,803.22	73.2025	1,803.22	71.8681	1,803.22	72.9116	1,803.22	74.8653	1,803.22	71.0696	1,803.22	71.7572	1,803.22	63.4121	1,803.22	65.9724	1,803.22	72.4508	1,803.22	74.7121	1,803.22	73.1566	1,803.22	76.2688	1,803.22	75.7176	1,803.22	61.7677	1,803.22	71.2019	1,803.22	66.219	1,803.22	72.1103	1,803.22	75.22	1,803.22	78.0086
1,866.21	87.9123	1,866.21	85.9822	1,866.21	87.613	1,866.21	80.8805	1,866.21	83.8914	1,866.21	73.7085	1,866.21	77.2904	1,866.21	76.4307	1,866.21	77.3655	1,866.21	78.1927	1,866.21	76.6067	1,866.21	78.4915	1,866.21	78.3152	1,866.21	75.4773	1,866.21	75.3796	1,866.21	75.6446	1,866.21	69.1834	1,866.21	74.2097	1,866.21	73.56	1,866.21	70.9265	1,866.21	66.9413	1,866.21	72.9795	1,866.21	71.1946	1,866.21	68.1837	1,866.21	56.2139	1,866.21	71.409	1,866.21	75.6168	1,866.21	74.8019	1,866.21	75.2531	1,866.21	72.4846	1,866.21	63.1245	1,866.21	68.9682	1,866.21	52.7468	1,866.21	68.9814	1,866.21	74.7614	1,866.21	76.0408
1,932.13	87.8484	1,932.13	85.1685	1,932.13	86.9743	1,932.13	79.5617	1,932.13	82.1844	1,932.13	76.558	1,932.13	77.1319	1,932.13	79.3523	1,932.13	78.0813	1,932.13	78.2006	1,932.13	79.4506	1,932.13	76.5366	1,932.13	78.7551	1,932.13	75.4305	1,932.13	75.7092	1,932.13	71.935	1,932.13	72.6124	1,932.13	71.7044	1,932.13	72.1433	1,932.13	70.629	1,932.13	70.1635	1,932.13	66.0673	1,932.13	67.53	1,932.13	66.7913	1,932.13	64.8378	1,932.13	67.0427	1,932.13	71.8609	1,932.13	72.2425	1,932.13	71.9634	1,932.13	69.3499	1,932.13	58.3731	1,932.13	65.4365	1,932.13	61.6355	1,932.13	69.0489	1,932.13	73.4844	1,932.13	73.6144
1,999.51	88.1539	1,999.51	84.0901	1,999.51	87.6065	1,999.51	78.6295	1,999.51	82.3974	1,999.51	79.5338	1,999.51	77.8081	1,999.51	79.3998	1,999.51	79.9605	1,999.51	77.5651	1,999.51	81.0524	1,999.51	75.9431	1,999.51	78.6437	1,999.51	71.657	1,999.51	76.1025	1,999.51	71.3175	1,999.51	71.8235	1,999.51	64.387	1,999.51	72.1754	1,999.51	66.566	1,999.51	71.9395	1,999.51	67.7484	1,999.51	72.1578	1,999.51	67.2175	1,999.51	65.8425	1,999.51	65.8067	1,999.51	71.533	1,999.51	73.3208	1,999.51	69.9253	1,999.51	71.6646	1,999.51	64.2281	1,999.51	62.0165	1,999.51	63.0465	1,999.51	63.5001	1,999.51	74.598	1,999.51	73.733
2,069.82	89.1558	2,069.82	84.6775	2,069.82	88.9626	2,069.82	78.7794	2,069.82	82.2873	2,069.82	80.1732	2,069.82	78.4122	2,069.82	78.365	2,069.82	81.5453	2,069.82	76.7996	2,069.82	82.2684	2,069.82	74.6173	2,069.82	81.1443	2,069.82	74.3405	2,069.82	78.5785	2,069.82	74.8735	2,069.82	72.0984	2,069.82	71.7577	2,069.82	70.4255	2,069.82	70.7472	2,069.82	72.8512	2,069.82	70.9737	2,069.82	73.8797	2,069.82	64.2499	2,069.82	69.0795	2,069.82	70.4055	2,069.82	70.4054	2,069.82	70.8493	2,069.82	68.7123	2,069.82	73.342	2,069.82	63.3745	2,069.82	65.6388	2,069.82	55.9036	2,069.82	61.9189	2,069.82	76.0759	2,069.82	75.3265
2,143.07	89.3504	2,143.07	85.8628	2,143.07	89.4612	2,143.07	76.5312	2,143.07	83.5278	2,143.07	77.1018	2,143.07	77.1914	2,143.07	78.0359	2,143.07	81.8608	2,143.07	77.385	2,143.07	81.1038	2,143.07	76.9285	2,143.07	79.6637	2,143.07	73.6963	2,143.07	78.0804	2,143.07	71.174	2,143.07	74.8154	2,143.07	72.0388	2,143.07	71.6463	2,143.07	65.9398	2,143.07	73.3731	2,143.07	71.5317	2,143.07	73.7548	2,143.07	66.8033	2,143.07	70.5922	2,143.07	70.2008	2,143.07	64.8108	2,143.07	71.0257	2,143.07	69.607	2,143.07	72.1234	2,143.07	45.664	2,143.07	68.6101	2,143.07	60.5516	2,143.07	60.5147	2,143.07	75.2289	2,143.07	73.2576
2,219.24	88.7269	2,219.24	85.5171	2,219.24	88.7084	2,219.24	75.8786	2,219.24	84.183	2,219.24	74.9874	2,219.24	75.9477	2,219.24	78.2045	2,219.24	82.1537	2,219.24	78.8589	2,219.24	80.3207	2,219.24	75.4434	2,219.24	78.9781	2,219.24	76.0543	2,219.24	78.1241	2,219.24	75.9734	2,219.24	68.2827	2,219.24	71.6072	2,219.24	66.0075	2,219.24	71.7523	2,219.24	70.9085	2,219.24	67.943	2,219.24	75.0829	2,219.24	69.5663	2,219.24	71.6605	2,219.24	68.6696	2,219.24	64.2484	2,219.24	72.239	2,219.24	68.8345	2,219.24	71.138	2,219.24	56.2839	2,219.24	68.8199	2,219.24	65.711	2,219.24	57.9757	2,219.24	74.1643	2,219.24	71.8739
2,296.88	88.4675	2,296.88	84.4054	2,296.88	87.8464	2,296.88	76.9238	2,296.88	83.5592	2,296.88	78.1137	2,296.88	76.7508	2,296.88	80.2074	2,296.88	81.029	2,296.88	78.8301	2,296.88	79.6298	2,296.88	78.1182	2,296.88	79.1937	2,296.88	75.5464	2,296.88	78.6697	2,296.88	75.1361	2,296.88	74.6188	2,296.88	74.2334	2,296.88	64.5996	2,296.88	71.111	2,296.88	68.1785	2,296.88	72.8714	2,296.88	74.4436	2,296.88	70.9728	2,296.88	71.7687	2,296.88	68.8504	2,296.88	66.6885	2,296.88	73.8141	2,296.88	66.6608	2,296.88	72.1561	2,296.88	59.054	2,296.88	70.4734	2,296.88	64.9981	2,296.88	54.977	2,296.88	74.2643	2,296.88	71.6663
2,378.91	89.2404	2,378.91	83.1301	2,378.91	88.1003	2,378.91	75.2473	2,378.91	80.5603	2,378.91	80.0745	2,378.91	78.3209	2,378.91	78.8035	2,378.91	81.3837	2,378.91	80.1694	2,378.91	79.9948	2,378.91	79.7845	2,378.91	79.5394	2,378.91	80.4738	2,378.91	79.2919	2,378.91	78.3081	2,378.91	77.4546	2,378.91	74.9368	2,378.91	71.7013	2,378.91	74.7072	2,378.91	73.0502	2,378.91	70.4848	2,378.91	72.0892	2,378.91	72.8506	2,378.91	73.6988	2,378.91	69.4026	2,378.91	70.6184	2,378.91	74.0947	2,378.91	70.4565	2,378.91	73.3142	2,378.91	63.6399	2,378.91	71.232	2,378.91	58.1396	2,378.91	54.1631	2,378.91	73.3495	2,378.91	68.9194
2,462.4	91.0577	2,462.4	85.2843	2,462.4	90.1888	2,462.4	75.2009	2,462.4	81.7076	2,462.4	80.2988	2,462.4	74.5291	2,462.4	81.2048	2,462.4	81.0815	2,462.4	81.2104	2,462.4	80.3237	2,462.4	81.8153	2,462.4	80.8407	2,462.4	80.208	2,462.4	80.5155	2,462.4	77.3655	2,462.4	76.3119	2,462.4	77.2865	2,462.4	68.2436	2,462.4	71.1611	2,462.4	73.7404	2,462.4	73.3884	2,462.4	75.7067	2,462.4	68.0797	2,462.4	72.3217	2,462.4	73.2508	2,462.4	73.2724	2,462.4	73.3463	2,462.4	72.7392	2,462.4	74.2456	2,462.4	67.434	2,462.4	72.3851	2,462.4	60.7691	2,462.4	53.8419	2,462.4	73.4409	2,462.4	68.8149
2,548.83	91.0865	2,548.83	86.9293	2,548.83	90.9928	2,548.83	73.6568	2,548.83	83.1792	2,548.83	78.0173	2,548.83	72.263	2,548.83	83.0646	2,548.83	80.7554	2,548.83	82.0965	2,548.83	79.7392	2,548.83	81.7296	2,548.83	80.9528	2,548.83	79.2941	2,548.83	78.9893	2,548.83	79.0516	2,548.83	79.776	2,548.83	75.3558	2,548.83	74.3302	2,548.83	71.9437	2,548.83	75.2016	2,548.83	72.2311	2,548.83	76.5323	2,548.83	70.9182	2,548.83	72.1312	2,548.83	73.2737	2,548.83	73.4667	2,548.83	74.4194	2,548.83	74.0419	2,548.83	74.6501	2,548.83	71.2759	2,548.83	72.3418	2,548.83	60.9218	2,548.83	60.5645	2,548.83	76.1016	2,548.83	72.8011
2,639.65	90.255	2,639.65	86.2893	2,639.65	90.0368	2,639.65	73.0844	2,639.65	84.1655	2,639.65	78.753	2,639.65	71.8681	2,639.65	83.2599	2,639.65	80.3155	2,639.65	83.7114	2,639.65	82.6516	2,639.65	81.8666	2,639.65	83.0391	2,639.65	81.2001	2,639.65	80.5977	2,639.65	79.395	2,639.65	79.3888	2,639.65	78.2503	2,639.65	74.2366	2,639.65	74.2906	2,639.65	74.8246	2,639.65	73.8213	2,639.65	71.7959	2,639.65	72.5935	2,639.65	73.1359	2,639.65	73.6169	2,639.65	71.8545	2,639.65	75.9341	2,639.65	73.5907	2,639.65	75.7384	2,639.65	67.554	2,639.65	73.8137	2,639.65	41.9614	2,639.65	59.9591	2,639.65	76.3689	2,639.65	71.5614
2,731.93	88.8934	2,731.93	84.2254	2,731.93	87.9025	2,731.93	74.3363	2,731.93	81.8545	2,731.93	80.2942	2,731.93	70.9685	2,731.93	82.7197	2,731.93	79.9827	2,731.93	84.4163	2,731.93	84.2586	2,731.93	82.8841	2,731.93	84.1325	2,731.93	83.5045	2,731.93	80.8279	2,731.93	79.8054	2,731.93	79.3106	2,731.93	78.0336	2,731.93	70.6672	2,731.93	76.0912	2,731.93	74.0533	2,731.93	72.3242	2,731.93	57.5665	2,731.93	72.5584	2,731.93	71.6616	2,731.93	72.5379	2,731.93	72.354	2,731.93	75.4027	2,731.93	72.8145	2,731.93	76.3907	2,731.93	69.5854	2,731.93	73.2421	2,731.93	61.3412	2,731.93	57.2351	2,731.93	74.6546	2,731.93	70.7673
2,828.61	89.3848	2,828.61	84.9469	2,828.61	87.9741	2,828.61	76.4813	2,828.61	81.9482	2,828.61	79.386	2,828.61	68.2924	2,828.61	83.1977	2,828.61	82.3002	2,828.61	84.3853	2,828.61	85.3478	2,828.61	84.598	2,828.61	84.0312	2,828.61	82.3772	2,828.61	83.6622	2,828.61	80.6752	2,828.61	80.8113	2,828.61	77.315	2,828.61	64.2519	2,828.61	74.1228	2,828.61	68.3144	2,828.61	70.4818	2,828.61	66.8433	2,828.61	72.6722	2,828.61	72.5392	2,828.61	72.4991	2,828.61	72.5075	2,828.61	75.9159	2,828.61	70.7651	2,828.61	75.6706	2,828.61	71.441	2,828.61	73.4232	2,828.61	60.1133	2,828.61	49.5671	2,828.61	74.5585	2,828.61	71.9766
2,928.22	89.9696	2,928.22	87.3349	2,928.22	89.0518	2,928.22	77.0377	2,928.22	83.5151	2,928.22	79.1499	2,928.22	73.104	2,928.22	83.391	2,928.22	82.725	2,928.22	84.8322	2,928.22	85.7798	2,928.22	85.5514	2,928.22	85.0097	2,928.22	82.7746	2,928.22	84.9261	2,928.22	79.9126	2,928.22	79.8253	2,928.22	76.37	2,928.22	71.4766	2,928.22	75.7967	2,928.22	61.0552	2,928.22	73.8234	2,928.22	75.4283	2,928.22	74.0647	2,928.22	74.7453	2,928.22	73.4477	2,928.22	68.477	2,928.22	76.6765	2,928.22	70.9532	2,928.22	76.8809	2,928.22	72.5145	2,928.22	74.5427	2,928.22	63.0057	2,928.22	60.581	2,928.22	72.9001	2,928.22	68.5423
3,030.76	90.0057	3,030.76	88.3825	3,030.76	89.3195	3,030.76	80.1869	3,030.76	85.2462	3,030.76	77.3073	3,030.76	73.6193	3,030.76	84.2828	3,030.76	81.8661	3,030.76	85.9397	3,030.76	86.7672	3,030.76	85.2388	3,030.76	86.1702	3,030.76	82.9943	3,030.76	86.3006	3,030.76	81.6019	3,030.76	80.9059	3,030.76	79.7851	3,030.76	79.1526	3,030.76	76.8654	3,030.76	67.3725	3,030.76	72.0804	3,030.76	76.9871	3,030.76	73.0143	3,030.76	72.1257	3,030.76	73.739	3,030.76	68.6852	3,030.76	76.0768	3,030.76	73.2797	3,030.76	76.5908	3,030.76	71.9028	3,030.76	75.2728	3,030.76	64.4586	3,030.76	44.3593	3,030.76	72.0102	3,030.76	72.5999
3,137.7	89.2408	3,137.7	87.7855	3,137.7	88.9383	3,137.7	81.0459	3,137.7	85.8424	3,137.7	76.533	3,137.7	75.6481	3,137.7	84.3376	3,137.7	79.7749	3,137.7	86.2164	3,137.7	86.9736	3,137.7	85.8522	3,137.7	86.4185	3,137.7	85.1119	3,137.7	86.1408	3,137.7	81.8906	3,137.7	81.8201	3,137.7	77.085	3,137.7	81.1932	3,137.7	73.3901	3,137.7	73.2036	3,137.7	72.5766	3,137.7	73.314	3,137.7	73.6001	3,137.7	68.1576	3,137.7	73.2394	3,137.7	68.8924	3,137.7	75.8876	3,137.7	72.544	3,137.7	78.2297	3,137.7	69.1004	3,137.7	75.4553	3,137.7	70.577	3,137.7	63.4405	3,137.7	72.2467	3,137.7	71.1353
3,249.02	88.0633	3,249.02	87.6938	3,249.02	88.4667	3,249.02	81.5241	3,249.02	86.993	3,249.02	78.0631	3,249.02	76.5855	3,249.02	83.8448	3,249.02	78.2624	3,249.02	87.5008	3,249.02	86.1511	3,249.02	86.4086	3,249.02	86.6691	3,249.02	84.8852	3,249.02	87.9643	3,249.02	79.8949	3,249.02	85.4297	3,249.02	79.3651	3,249.02	82.4413	3,249.02	75.1697	3,249.02	71.952	3,249.02	72.5019	3,249.02	72.7287	3,249.02	75.3979	3,249.02	54.6422	3,249.02	73.2438	3,249.02	72.0956	3,249.02	76.7678	3,249.02	73.6709	3,249.02	77.5935	3,249.02	66.8687	3,249.02	73.85	3,249.02	73.1903	3,249.02	64.6683	3,249.02	70.5712	3,249.02	70.3166
3,363.28	87.9388	3,363.28	86.6304	3,363.28	87.9061	3,363.28	81.9881	3,363.28	87.3262	3,363.28	74.9181	3,363.28	78.8379	3,363.28	83.914	3,363.28	80.213	3,363.28	86.9453	3,363.28	86.1692	3,363.28	87.6498	3,363.28	87.7293	3,363.28	84.1252	3,363.28	89.0061	3,363.28	83.6373	3,363.28	86.866	3,363.28	80.6511	3,363.28	82.4476	3,363.28	75.6755	3,363.28	71.5786	3,363.28	72.0387	3,363.28	60.4308	3,363.28	72.7374	3,363.28	70.2802	3,363.28	74.5314	3,363.28	71.0143	3,363.28	75.9039	3,363.28	71.7193	3,363.28	77.6484	3,363.28	68.2531	3,363.28	72.5675	3,363.28	73.1131	3,363.28	68.5084	3,363.28	70.5226	3,363.28	70.9607
3,481.93	87.9162	3,481.93	88.0034	3,481.93	88.4322	3,481.93	84.4795	3,481.93	87.4739	3,481.93	75.4018	3,481.93	81.6452	3,481.93	83.8964	3,481.93	79.4326	3,481.93	87.7297	3,481.93	85.9813	3,481.93	87.2528	3,481.93	88.7532	3,481.93	86.2324	3,481.93	87.3002	3,481.93	83.0757	3,481.93	87.5483	3,481.93	76.2055	3,481.93	79.8102	3,481.93	74.5862	3,481.93	62.2908	3,481.93	72.8219	3,481.93	71.1024	3,481.93	71.3356	3,481.93	70.9021	3,481.93	76.3544	3,481.93	71.1464	3,481.93	75.4629	3,481.93	72.2723	3,481.93	77.8151	3,481.93	66.1633	3,481.93	72.1965	3,481.93	72.3319	3,481.93	63.7881	3,481.93	69.1643	3,481.93	73.6844
3,604.98	88.2346	3,604.98	88.4037	3,604.98	88.0036	3,604.98	85.2338	3,604.98	86.6673	3,604.98	77.9055	3,604.98	83.552	3,604.98	84.0659	3,604.98	82.016	3,604.98	87.7669	3,604.98	85.7693	3,604.98	87.5851	3,604.98	89.6285	3,604.98	85.2328	3,604.98	87.4717	3,604.98	79.5211	3,604.98	84.8703	3,604.98	80.8722	3,604.98	75.0142	3,604.98	73.8202	3,604.98	64.881	3,604.98	72.0255	3,604.98	72.7252	3,604.98	74.8441	3,604.98	72.4251	3,604.98	76.7154	3,604.98	69.9793	3,604.98	76.6784	3,604.98	71.471	3,604.98	77.2998	3,604.98	66.2112	3,604.98	72.1669	3,604.98	72.5622	3,604.98	67.6463	3,604.98	68.9775	3,604.98	73.581
3,732.42	89.2945	3,732.42	88.4193	3,732.42	88.7477	3,732.42	85.4707	3,732.42	87.025	3,732.42	81.9995	3,732.42	83.5918	3,732.42	82.3532	3,732.42	83.2966	3,732.42	87.1745	3,732.42	84.2495	3,732.42	87.0951	3,732.42	88.9353	3,732.42	85.1852	3,732.42	86.5474	3,732.42	83.7337	3,732.42	83.6413	3,732.42	80.7673	3,732.42	67.229	3,732.42	75.1051	3,732.42	72.1265	3,732.42	74.1359	3,732.42	73.5743	3,732.42	70.0382	3,732.42	70.7082	3,732.42	74.9242	3,732.42	66.8899	3,732.42	76.5726	3,732.42	73.2761	3,732.42	77.358	3,732.42	57.4482	3,732.42	69.9794	3,732.42	73.9598	3,732.42	69.6404	3,732.42	66.094	3,732.42	73.2202
3,864.26	88.9354	3,864.26	86.7562	3,864.26	88.3886	3,864.26	86.2069	3,864.26	87.7939	3,864.26	83.1272	3,864.26	86.2163	3,864.26	83.0284	3,864.26	80.6383	3,864.26	87.4779	3,864.26	86.3341	3,864.26	88.1862	3,864.26	89.3675	3,864.26	87.3348	3,864.26	87.4549	3,864.26	83.8869	3,864.26	81.6573	3,864.26	78.7851	3,864.26	77.2257	3,864.26	77.1738	3,864.26	67.8691	3,864.26	73.2879	3,864.26	62.2532	3,864.26	70.6913	3,864.26	65.7251	3,864.26	76.1409	3,864.26	73.4033	3,864.26	77.1729	3,864.26	72.8116	3,864.26	77.8974	3,864.26	68.2479	3,864.26	70.1548	3,864.26	73.442	3,864.26	70.1981	3,864.26	68.1361	3,864.26	70.9418
4,000.49	88.1786	4,000.49	85.377	4,000.49	88.3158	4,000.49	87.2906	4,000.49	86.206	4,000.49	85.2233	4,000.49	88.0231	4,000.49	81.0205	4,000.49	81.3871	4,000.49	87.4506	4,000.49	87.4183	4,000.49	88.6759	4,000.49	89.7535	4,000.49	85.8936	4,000.49	86.2091	4,000.49	81.8514	4,000.49	81.2738	4,000.49	79.5107	4,000.49	75.5232	4,000.49	72.4607	4,000.49	71.9409	4,000.49	67.6407	4,000.49	67.0517	4,000.49	72.7164	4,000.49	73.9644	4,000.49	76.456	4,000.49	74.7607	4,000.49	77.9234	4,000.49	71.8416	4,000.49	76.8596	4,000.49	68.0687	4,000.49	66.4931	4,000.49	71.0508	4,000.49	70.6869	4,000.49	66.7547	4,000.49	68.9452
4,141.11	90.4287	4,141.11	86.0615	4,141.11	88.726	4,141.11	88.7432	4,141.11	85.758	4,141.11	86.5025	4,141.11	87.8115	4,141.11	83.7435	4,141.11	85.0004	4,141.11	88.3167	4,141.11	88.0558	4,141.11	87.9343	4,141.11	89.3472	4,141.11	86.1994	4,141.11	82.1991	4,141.11	83.7891	4,141.11	82.025	4,141.11	78.8928	4,141.11	80.8587	4,141.11	75.3262	4,141.11	77.5958	4,141.11	70.7868	4,141.11	71.2187	4,141.11	72.1025	4,141.11	72.4788	4,141.11	76.0585	4,141.11	71.7114	4,141.11	77.318	4,141.11	70.491	4,141.11	76.4406	4,141.11	70.2698	4,141.11	65.346	4,141.11	71.6732	4,141.11	72.8476	4,141.11	67.8934	4,141.11	73.0597
4,287.6	90.3795	4,287.6	87.0142	4,287.6	88.7635	4,287.6	87.0318	4,287.6	86.8586	4,287.6	87.2545	4,287.6	88.7362	4,287.6	81.9702	4,287.6	87.492	4,287.6	87.1187	4,287.6	88.3143	4,287.6	87.6264	4,287.6	87.5115	4,287.6	86.5683	4,287.6	83.8475	4,287.6	79.587	4,287.6	84.079	4,287.6	79.1682	4,287.6	82.7578	4,287.6	74.5895	4,287.6	70.7151	4,287.6	70.566	4,287.6	67.0494	4,287.6	68.1244	4,287.6	71.8933	4,287.6	73.1755	4,287.6	64.478	4,287.6	77.047	4,287.6	71.2523	4,287.6	77.2576	4,287.6	68.1915	4,287.6	65.6366	4,287.6	71.4482	4,287.6	72.8559	4,287.6	70.9375	4,287.6	74.0528
4,438.48	90.1735	4,438.48	84.2152	4,438.48	90.1218	4,438.48	88.4251	4,438.48	87.1785	4,438.48	89.4547	4,438.48	89.2736	4,438.48	85.0786	4,438.48	88.0627	4,438.48	86.7512	4,438.48	86.4128	4,438.48	87.2332	4,438.48	80.7805	4,438.48	84.0098	4,438.48	84.1665	4,438.48	83.7137	4,438.48	85.7853	4,438.48	78.497	4,438.48	80.7424	4,438.48	74.6997	4,438.48	61.3595	4,438.48	69.7858	4,438.48	67.3819	4,438.48	67.2855	4,438.48	70.8954	4,438.48	74.5976	4,438.48	75.3184	4,438.48	78.0314	4,438.48	68.8119	4,438.48	76.9922	4,438.48	68.0484	4,438.48	56.6748	4,438.48	72.7748	4,438.48	72.923	4,438.48	71.1733	4,438.48	73.156
4,595.21	90.9478	4,595.21	87.7784	4,595.21	90.1199	4,595.21	88.7694	4,595.21	87.6306	4,595.21	90.0088	4,595.21	90.167	4,595.21	82.5122	4,595.21	88.5201	4,595.21	84.9831	4,595.21	83.9625	4,595.21	85.3272	4,595.21	82.844	4,595.21	86.8093	4,595.21	87.6904	4,595.21	81.801	4,595.21	86.6665	4,595.21	78.7595	4,595.21	78.6281	4,595.21	75.6849	4,595.21	69.1375	4,595.21	68.6913	4,595.21	69.0354	4,595.21	70.6789	4,595.21	71.6575	4,595.21	75.4716	4,595.21	77.2687	4,595.21	78.3759	4,595.21	68.1622	4,595.21	75.3358	4,595.21	73.0684	4,595.21	56.2156	4,595.21	71.3302	4,595.21	72.1236	4,595.21	70.5418	4,595.21	70.6271
4,756.35	91.1795	4,756.35	90.0525	4,756.35	91.0747	4,756.35	87.5828	4,756.35	86.2211	4,756.35	90.2519	4,756.35	91.5055	4,756.35	82.9298	4,756.35	88.0284	4,756.35	83.3996	4,756.35	78.5712	4,756.35	86.7831	4,756.35	87.0124	4,756.35	85.1361	4,756.35	88.913	4,756.35	84.822	4,756.35	84.33	4,756.35	80.8132	4,756.35	75.6305	4,756.35	75.9469	4,756.35	74.2122	4,756.35	72.0349	4,756.35	67.7683	4,756.35	66.1236	4,756.35	71.4331	4,756.35	73.7077	4,756.35	77.8923	4,756.35	76.8748	4,756.35	72.7857	4,756.35	75.9471	4,756.35	73.9929	4,756.35	63.1016	4,756.35	70.8641	4,756.35	75.3946	4,756.35	71.3518	4,756.35	70.9087
4,924.8	91.4845	4,924.8	88.6631	4,924.8	91.9386	4,924.8	88.2209	4,924.8	87.2758	4,924.8	91.2517	4,924.8	90.8255	4,924.8	83.4256	4,924.8	89.2221	4,924.8	82.4511	4,924.8	77.3882	4,924.8	86.9336	4,924.8	89.9713	4,924.8	86.8969	4,924.8	88.344	4,924.8	82.7387	4,924.8	81.9621	4,924.8	78.9002	4,924.8	79.0763	4,924.8	76.8648	4,924.8	75.3829	4,924.8	66.6404	4,924.8	63.1477	4,924.8	70.7869	4,924.8	64.427	4,924.8	74.3638	4,924.8	76.0806	4,924.8	77.5675	4,924.8	73.637	4,924.8	74.6002	4,924.8	72.4345	4,924.8	65.1664	4,924.8	69.3364	4,924.8	76.2357	4,924.8	72.587	4,924.8	73.0992
5,097.66	92.3207	5,097.66	89.8664	5,097.66	92.5298	5,097.66	89.2329	5,097.66	89.9737	5,097.66	89.5049	5,097.66	90.5625	5,097.66	86.7305	5,097.66	89.4145	5,097.66	81.5875	5,097.66	84.4538	5,097.66	87.3092	5,097.66	90.1773	5,097.66	85.5852	5,097.66	86.4793	5,097.66	84.0784	5,097.66	81.5365	5,097.66	80.7899	5,097.66	81.3215	5,097.66	72.9529	5,097.66	69.3585	5,097.66	73.0667	5,097.66	56.5572	5,097.66	70.691	5,097.66	67.6609	5,097.66	73.2382	5,097.66	71.3041	5,097.66	76.6315	5,097.66	68.7934	5,097.66	72.9812	5,097.66	69.9884	5,097.66	58.0055	5,097.66	71.6028	5,097.66	72.5597	5,097.66	72.0382	5,097.66	71.9192
5,277.83	92.5357	5,277.83	90.9742	5,277.83	92.4375	5,277.83	88.921	5,277.83	89.3281	5,277.83	89.9769	5,277.83	91.0471	5,277.83	88.0403	5,277.83	89.9639	5,277.83	82.6286	5,277.83	86.2916	5,277.83	87.2873	5,277.83	88.1679	5,277.83	86.4879	5,277.83	84.3517	5,277.83	82.5733	5,277.83	82.7225	5,277.83	78.2496	5,277.83	79.7034	5,277.83	74.9067	5,277.83	71.4143	5,277.83	72.5607	5,277.83	61.7504	5,277.83	66.2756	5,277.83	72.5073	5,277.83	72.4513	5,277.83	71.9551	5,277.83	75.7404	5,277.83	65.6301	5,277.83	70.735	5,277.83	71.6396	5,277.83	43.7738	5,277.83	72.388	5,277.83	74.5061	5,277.83	67.1141	5,277.83	71.3958
5,463.87	92.5638	5,463.87	90.8295	5,463.87	92.1264	5,463.87	89.0446	5,463.87	90.5271	5,463.87	90.7895	5,463.87	90.9488	5,463.87	88.3724	5,463.87	91.8469	5,463.87	81.2508	5,463.87	85.3746	5,463.87	87.0128	5,463.87	85.9723	5,463.87	86.5406	5,463.87	83.1374	5,463.87	83.481	5,463.87	82.3262	5,463.87	80.2052	5,463.87	80.1528	5,463.87	75.0722	5,463.87	69.9945	5,463.87	71.0683	5,463.87	58.7371	5,463.87	68.1358	5,463.87	68.7113	5,463.87	72.9418	5,463.87	64.8469	5,463.87	75.8895	5,463.87	66.3806	5,463.87	68.7193	5,463.87	72.9914	5,463.87	58.7657	5,463.87	71.2835	5,463.87	76.3137	5,463.87	69.82	5,463.87	68.2965
5,657.23	92.419	5,657.23	91.3435	5,657.23	92.1043	5,657.23	88.9764	5,657.23	91.3045	5,657.23	90.7608	5,657.23	89.2499	5,657.23	88.9402	5,657.23	91.9812	5,657.23	81.3323	5,657.23	83.3834	5,657.23	86.0825	5,657.23	84.2503	5,657.23	87.0606	5,657.23	85.6144	5,657.23	83.1876	5,657.23	82.0111	5,657.23	78.3003	5,657.23	77.7354	5,657.23	76.371	5,657.23	61.9799	5,657.23	71.6096	5,657.23	63.3386	5,657.23	69.7574	5,657.23	66.7541	5,657.23	72.2741	5,657.23	67.3678	5,657.23	74.8648	5,657.23	67.1168	5,657.23	67.9497	5,657.23	73.4301	5,657.23	59.7936	5,657.23	69.6079	5,657.23	77.5734	5,657.23	70.5595	5,657.23	70.7388
5,856.45	92.033	5,856.45	91.2481	5,856.45	91.7973	5,856.45	88.5002	5,856.45	90.3169	5,856.45	91.2048	5,856.45	88.76	5,856.45	88.7564	5,856.45	90.8515	5,856.45	80.1178	5,856.45	82.8649	5,856.45	86.4453	5,856.45	84.511	5,856.45	86.2197	5,856.45	85.9411	5,856.45	84.0703	5,856.45	82.682	5,856.45	79.1414	5,856.45	76.6359	5,856.45	76.7382	5,856.45	57.8647	5,856.45	70.1951	5,856.45	70.2902	5,856.45	67.2864	5,856.45	59.8043	5,856.45	70.0312	5,856.45	70.2627	5,856.45	74.7393	5,856.45	71.8004	5,856.45	68.2386	5,856.45	70.3443	5,856.45	64.4918	5,856.45	69.3337	5,856.45	75.4188	5,856.45	70.8803	5,856.45	69.8298
6,062.99	91.8827	6,062.99	90.2597	6,062.99	91.9181	6,062.99	89.4231	6,062.99	87.6772	6,062.99	89.7595	6,062.99	89.3085	6,062.99	88.8471	6,062.99	89.0671	6,062.99	80.943	6,062.99	84.473	6,062.99	85.3124	6,062.99	83.9924	6,062.99	85.2049	6,062.99	85.9922	6,062.99	82.1533	6,062.99	84.0717	6,062.99	78.5875	6,062.99	76.4129	6,062.99	75.2502	6,062.99	60.9083	6,062.99	69.6658	6,062.99	72.247	6,062.99	65.3812	6,062.99	59.0332	6,062.99	66.1266	6,062.99	64.3758	6,062.99	74.2492	6,062.99	69.0991	6,062.99	65.5815	6,062.99	66.1383	6,062.99	62.3906	6,062.99	66.718	6,062.99	75.6615	6,062.99	65.9732	6,062.99	64.9649
6,276.86	91.2649	6,276.86	90.1881	6,276.86	90.884	6,276.86	88.7114	6,276.86	90.7946	6,276.86	89.9044	6,276.86	88.3452	6,276.86	89.7986	6,276.86	89.804	6,276.86	79.0371	6,276.86	82.8395	6,276.86	83.4894	6,276.86	81.477	6,276.86	83.8491	6,276.86	85.6191	6,276.86	81.5006	6,276.86	84.4519	6,276.86	76.3252	6,276.86	77.242	6,276.86	75.4155	6,276.86	70.1453	6,276.86	68.1829	6,276.86	72.2584	6,276.86	65.8318	6,276.86	64.5914	6,276.86	63.8316	6,276.86	68.1458	6,276.86	74.0969	6,276.86	53.0701	6,276.86	59.9142	6,276.86	70.1973	6,276.86	62.5071	6,276.86	57.9074	6,276.86	75.494	6,276.86	67.5997	6,276.86	67.287
6,498.05	91.3643	6,498.05	89.1564	6,498.05	89.0828	6,498.05	88.896	6,498.05	91.0184	6,498.05	87.8488	6,498.05	87.4312	6,498.05	89.4567	6,498.05	89.9043	6,498.05	77.9611	6,498.05	84.2079	6,498.05	82.2458	6,498.05	77.9457	6,498.05	83.6058	6,498.05	84.4688	6,498.05	80.3347	6,498.05	81.1751	6,498.05	74.7312	6,498.05	74.3293	6,498.05	74.4487	6,498.05	72.6961	6,498.05	57.6863	6,498.05	70.9015	6,498.05	62.1556	6,498.05	51.2807	6,498.05	58.7236	6,498.05	56.3616	6,498.05	72.962	6,498.05	62.2598	6,498.05	57.9355	6,498.05	70.2226	6,498.05	64.7606	6,498.05	45.0002	6,498.05	74.9714	6,498.05	70.9911	6,498.05	66.3682
6,726.56	91.0943	6,726.56	89.2318	6,726.56	89.4531	6,726.56	90.0209	6,726.56	90.5475	6,726.56	87.4821	6,726.56	88.223	6,726.56	89.4239	6,726.56	90.0313	6,726.56	82.5373	6,726.56	87.1491	6,726.56	81.402	6,726.56	77.4516	6,726.56	83.144	6,726.56	83.2832	6,726.56	80.7486	6,726.56	74.3251	6,726.56	75.6407	6,726.56	72.8749	6,726.56	75.4421	6,726.56	60.771	6,726.56	58.5833	6,726.56	68.6109	6,726.56	65.3539	6,726.56	52.6292	6,726.56	61.0215	6,726.56	66.8907	6,726.56	71.6921	6,726.56	63.8403	6,726.56	60.4933	6,726.56	67.936	6,726.56	63.0795	6,726.56	58.0394	6,726.56	72.8651	6,726.56	70.0032	6,726.56	61.434
6,963.87	90.7109	6,963.87	89.7262	6,963.87	89.3753	6,963.87	90.1757	6,963.87	89.6281	6,963.87	86.6186	6,963.87	87.8637	6,963.87	88.8709	6,963.87	89.2647	6,963.87	85.0759	6,963.87	88.5036	6,963.87	80.3105	6,963.87	80.1196	6,963.87	83.9585	6,963.87	78.9041	6,963.87	81.3369	6,963.87	81.0622	6,963.87	78.1301	6,963.87	78.994	6,963.87	75.572	6,963.87	68.6273	6,963.87	65.0508	6,963.87	60.6842	6,963.87	66.8935	6,963.87	63.6081	6,963.87	63.2937	6,963.87	56.1447	6,963.87	70.222	6,963.87	61.8263	6,963.87	64.3661	6,963.87	66.1299	6,963.87	65.9408	6,963.87	62.6603	6,963.87	70.4444	6,963.87	67.3762	6,963.87	63.7998
7,209.96	90.3861	7,209.96	90.9733	7,209.96	91.0142	7,209.96	90.0782	7,209.96	89.8258	7,209.96	86.2918	7,209.96	88.3834	7,209.96	89.1943	7,209.96	85.4371	7,209.96	86.0766	7,209.96	89.5609	7,209.96	79.8897	7,209.96	76.7618	7,209.96	84.4956	7,209.96	82.333	7,209.96	82.1471	7,209.96	83.8375	7,209.96	79.0091	7,209.96	77.6196	7,209.96	75.1909	7,209.96	68.3169	7,209.96	69.0859	7,209.96	60.153	7,209.96	64.4268	7,209.96	66.5443	7,209.96	63.8465	7,209.96	65.6449	7,209.96	67.9686	7,209.96	69.3883	7,209.96	68.3305	7,209.96	68.5801	7,209.96	65.4433	7,209.96	55.1082	7,209.96	68.0799	7,209.96	67.4072	7,209.96	66.3726
7,464.84	90.5127	7,464.84	90.3396	7,464.84	90.6425	7,464.84	89.7089	7,464.84	91.5173	7,464.84	87.0476	7,464.84	87.8839	7,464.84	88.9642	7,464.84	86.2276	7,464.84	86.4067	7,464.84	89.0742	7,464.84	78.5347	7,464.84	71.1032	7,464.84	83.7232	7,464.84	85.4553	7,464.84	79.9915	7,464.84	82.551	7,464.84	78.2327	7,464.84	79.1315	7,464.84	72.109	7,464.84	69.82	7,464.84	70.0011	7,464.84	65.5626	7,464.84	64.8518	7,464.84	59.6415	7,464.84	63.5819	7,464.84	61.0339	7,464.84	65.5869	7,464.84	70.3181	7,464.84	67.5034	7,464.84	68.0957	7,464.84	66.2965	7,464.84	58.8197	7,464.84	62.1285	7,464.84	66.1916	7,464.84	65.6804
7,727.05	91.0835	7,727.05	90.5421	7,727.05	90.2323	7,727.05	89.4993	7,727.05	89.8196	7,727.05	86.8943	7,727.05	89.0828	7,727.05	87.7341	7,727.05	87.1599	7,727.05	87.0059	7,727.05	89.5245	7,727.05	77.7055	7,727.05	75.7652	7,727.05	81.9476	7,727.05	85.1354	7,727.05	80.4128	7,727.05	75.7626	7,727.05	79.2641	7,727.05	80.2744	7,727.05	72.7579	7,727.05	71.2039	7,727.05	71.758	7,727.05	46.7213	7,727.05	64.6638	7,727.05	64.4814	7,727.05	63.9934	7,727.05	63.221	7,727.05	63.9824	7,727.05	60.0069	7,727.05	66.209	7,727.05	66.8541	7,727.05	66.057	7,727.05	59.5641	7,727.05	58.9792	7,727.05	65.1702	7,727.05	64.7519
7,999.51	90.4188	7,999.51	89.8514	7,999.51	91.5869	7,999.51	89.1877	7,999.51	88.036	7,999.51	86.88	7,999.51	90.1049	7,999.51	86.1373	7,999.51	86.4343	7,999.51	87.6183	7,999.51	89.734	7,999.51	74.7242	7,999.51	79.6975	7,999.51	82.334	7,999.51	84.7076	7,999.51	79.0372	7,999.51	74.389	7,999.51	77.5827	7,999.51	78.6974	7,999.51	69.9234	7,999.51	55.1307	7,999.51	72.968	7,999.51	63.8805	7,999.51	67.8242	7,999.51	60.6026	7,999.51	60.0274	7,999.51	63.3396	7,999.51	59.3953	7,999.51	71.3118	7,999.51	66.7462	7,999.51	67.3229	7,999.51	67.4576	7,999.51	57.2138	7,999.51	54.5954	7,999.51	66.9468	7,999.51	63.6723
8,282.23	90.2471	8,282.23	89.8981	8,282.23	91.3818	8,282.23	88.7392	8,282.23	88.0002	8,282.23	85.8443	8,282.23	90.812	8,282.23	85.977	8,282.23	85.9633	8,282.23	86.3727	8,282.23	88.3542	8,282.23	73.1903	8,282.23	79.5538	8,282.23	81.3454	8,282.23	80.7918	8,282.23	77.3293	8,282.23	81.0128	8,282.23	76.6177	8,282.23	77.9864	8,282.23	66.4508	8,282.23	63.4123	8,282.23	72.0266	8,282.23	67.199	8,282.23	65.2961	8,282.23	61.6181	8,282.23	42.4458	8,282.23	65.3841	8,282.23	43.6507	8,282.23	72.004	8,282.23	66.5217	8,282.23	65.0485	8,282.23	65.84	8,282.23	46.8517	8,282.23	55.8613	8,282.23	61.4399	8,282.23	64.3161
8,573.73	90.3674	8,573.73	89.1786	8,573.73	90.8928	8,573.73	88.5149	8,573.73	87.753	8,573.73	86.2198	8,573.73	89.9375	8,573.73	84.8653	8,573.73	85.3361	8,573.73	84.8909	8,573.73	87.3278	8,573.73	72.1991	8,573.73	80.2896	8,573.73	79.0431	8,573.73	78.1152	8,573.73	77.003	8,573.73	80.0876	8,573.73	74.1987	8,573.73	76.8248	8,573.73	56.2394	8,573.73	60.1465	8,573.73	72.2213	8,573.73	68.6294	8,573.73	65.2835	8,573.73	67.8564	8,573.73	53.5106	8,573.73	65.0386	8,573.73	54.4682	8,573.73	73.0516	8,573.73	67.6335	8,573.73	67.5581	8,573.73	65.7471	8,573.73	53.1676	8,573.73	58.2389	8,573.73	65.9712	8,573.73	63.7251
8,876.95	90.86	8,876.95	89.5245	8,876.95	90.9359	8,876.95	89.4782	8,876.95	89.0439	8,876.95	86.6275	8,876.95	88.3741	8,876.95	83.3346	8,876.95	85.2707	8,876.95	85.6513	8,876.95	86.7841	8,876.95	74.2239	8,876.95	82.7731	8,876.95	78.5037	8,876.95	81.1069	8,876.95	79.559	8,876.95	80.0644	8,876.95	74.5872	8,876.95	75.5696	8,876.95	67.423	8,876.95	70.5455	8,876.95	73.196	8,876.95	61.9672	8,876.95	65.4921	8,876.95	67.0631	8,876.95	43.075	8,876.95	56.96	8,876.95	57.378	8,876.95	69.465	8,876.95	67.6584	8,876.95	64.2203	8,876.95	66.3196	8,876.95	55.4729	8,876.95	60.4832	8,876.95	63.3128	8,876.95	60.827
9,188.96	90.3948	9,188.96	90.0547	9,188.96	90.9848	9,188.96	89.7875	9,188.96	90.1473	9,188.96	86.5386	9,188.96	90.062	9,188.96	83.4251	9,188.96	85.206	9,188.96	85.4584	9,188.96	87.974	9,188.96	77.923	9,188.96	83.1578	9,188.96	76.7573	9,188.96	77.1939	9,188.96	80.0798	9,188.96	79.9238	9,188.96	72.1037	9,188.96	73.487	9,188.96	69.3402	9,188.96	71.0505	9,188.96	71.8737	9,188.96	53.6779	9,188.96	66.0584	9,188.96	52.0019	9,188.96	47.9979	9,188.96	64.1613	9,188.96	59.5574	9,188.96	69.8464	9,188.96	67.6491	9,188.96	68.4408	9,188.96	66.0768	9,188.96	55.4253	9,188.96	61.124	9,188.96	63.5789	9,188.96	63.649
9,514.16	90.2245	9,514.16	90.9177	9,514.16	90.795	9,514.16	89.5498	9,514.16	90.7216	9,514.16	87.3834	9,514.16	90.2705	9,514.16	84.7344	9,514.16	84.9751	9,514.16	84.3298	9,514.16	86.0066	9,514.16	80.8255	9,514.16	84.3416	9,514.16	73.7625	9,514.16	73.4892	9,514.16	79.2716	9,514.16	82.3763	9,514.16	71.5994	9,514.16	74.2091	9,514.16	69.1683	9,514.16	69.2685	9,514.16	72.4023	9,514.16	61.8263	9,514.16	59.5631	9,514.16	55.9173	9,514.16	60.3929	9,514.16	58.9767	9,514.16	57.033	9,514.16	68.3796	9,514.16	66.2858	9,514.16	65.9998	9,514.16	63.2477	9,514.16	54.0784	9,514.16	64.2094	9,514.16	59.9202	9,514.16	60.7189
9,849.61	90.1447	9,849.61	90.7489	9,849.61	91.2176	9,849.61	89.5304	9,849.61	89.544	9,849.61	88.2783	9,849.61	89.4763	9,849.61	84.7678	9,849.61	85.493	9,849.61	83.7698	9,849.61	82.3303	9,849.61	81.0965	9,849.61	85.4462	9,849.61	75.4277	9,849.61	62.9036	9,849.61	79.8572	9,849.61	81.742	9,849.61	73.6573	9,849.61	72.8121	9,849.61	68.3087	9,849.61	66.8322	9,849.61	72.0377	9,849.61	52.8196	9,849.61	62.6396	9,849.61	63.8125	9,849.61	63.771	9,849.61	63.6323	9,849.61	60.0386	9,849.61	65.8698	9,849.61	63.8393	9,849.61	64.0028	9,849.61	53.9429	9,849.61	61.5733	9,849.61	66.1383	9,849.61	59.7035	9,849.61	59.7118
10,196.8	91.2767	10,196.8	90.7979	10,196.8	91.3975	10,196.8	89.9107	10,196.8	90.7008	10,196.8	88.4493	10,196.8	89.5268	10,196.8	84.8114	10,196.8	86.4249	10,196.8	83.5682	10,196.8	82.6717	10,196.8	81.4859	10,196.8	85.3666	10,196.8	72.4731	10,196.8	72.509	10,196.8	78.7023	10,196.8	81.0023	10,196.8	71.6501	10,196.8	72.244	10,196.8	65.22	10,196.8	60.5631	10,196.8	71.3371	10,196.8	65.4821	10,196.8	58.3948	10,196.8	59.2578	10,196.8	64.8113	10,196.8	52.4017	10,196.8	63.3848	10,196.8	58.6549	10,196.8	59.4846	10,196.8	63.8565	10,196.8	47.4545	10,196.8	55.5632	10,196.8	64.9639	10,196.8	59.8246	10,196.8	58.2152
10,555.7	91.893	10,555.7	91.2151	10,555.7	91.9819	10,555.7	89.9687	10,555.7	90.9671	10,555.7	88.5603	10,555.7	88.4391	10,555.7	85.4286	10,555.7	87.1732	10,555.7	82.3448	10,555.7	84.5721	10,555.7	81.7866	10,555.7	82.932	10,555.7	69.1983	10,555.7	74.0777	10,555.7	76.308	10,555.7	78.806	10,555.7	69.9068	10,555.7	70.1473	10,555.7	65.5134	10,555.7	61.22	10,555.7	67.9779	10,555.7	63.1398	10,555.7	59.3474	10,555.7	60.9203	10,555.7	60.3925	10,555.7	44.8698	10,555.7	61.7306	10,555.7	63.2321	10,555.7	54.5413	10,555.7	62.2962	10,555.7	58.1118	10,555.7	54.0268	10,555.7	60.852	10,555.7	59.7162	10,555.7	52.9769
10,927.7	92.753	10,927.7	91.9448	10,927.7	92.5332	10,927.7	90.4549	10,927.7	91.2953	10,927.7	88.5683	10,927.7	89.4717	10,927.7	85.0073	10,927.7	87.247	10,927.7	82.0278	10,927.7	83.9706	10,927.7	80.7662	10,927.7	82.3674	10,927.7	68.5664	10,927.7	75.4628	10,927.7	74.1454	10,927.7	72.8247	10,927.7	66.0138	10,927.7	63.4958	10,927.7	66.2223	10,927.7	64.6824	10,927.7	65.8608	10,927.7	62.138	10,927.7	54.1533	10,927.7	51.0446	10,927.7	60.0974	10,927.7	58.3664	10,927.7	59.1156	10,927.7	60.6511	10,927.7	48.9034	10,927.7	56.9709	10,927.7	59.3629	10,927.7	49.4254	10,927.7	51.0411	10,927.7	50.7408	10,927.7	50.675
11,313	93.0651	11,313	92.3561	11,313	92.7181	11,313	90.8374	11,313	91.5362	11,313	88.2172	11,313	90.0552	11,313	84.7827	11,313	87.431	11,313	81.2152	11,313	83.814	11,313	79.1052	11,313	79.4476	11,313	69.3652	11,313	71.7858	11,313	70.3521	11,313	67.1628	11,313	59.9897	11,313	60.001	11,313	52.191	11,313	61.3897	11,313	58.9193	11,313	64.3251	11,313	52.5775	11,313	56.4854	11,313	58.6046	11,313	52.2628	11,313	54.2503	11,313	51.6024	11,313	46.1996	11,313	52.6403	11,313	60.573	11,313	51.574	11,313	52.0393	11,313	54.8173	11,313	50.5856
11,712.9	92.9231	11,712.9	92.4267	11,712.9	93.1933	11,712.9	90.723	11,712.9	91.0857	11,712.9	87.7736	11,712.9	89.3335	11,712.9	84.1538	11,712.9	85.1535	11,712.9	79.6589	11,712.9	81.0933	11,712.9	77.2466	11,712.9	76.6938	11,712.9	66.3783	11,712.9	68.8191	11,712.9	67.8134	11,712.9	65.0418	11,712.9	58.9725	11,712.9	49.5015	11,712.9	59.355	11,712.9	62.7365	11,712.9	58.4728	11,712.9	63.1488	11,712.9	53.9026	11,712.9	52.4299	11,712.9	49.9464	11,712.9	36.6181	11,712.9	51.9033	11,712.9	52.8207	11,712.9	40.1789	11,712.9	49.8496	11,712.9	59.061	11,712.9	54.102	11,712.9	56.4143	11,712.9	49.5956	11,712.9	52.8206
12,126	93.4833	12,126	92.7829	12,126	93.3789	12,126	90.7482	12,126	91.8293	12,126	87.3602	12,126	88.7157	12,126	83.5718	12,126	84.9199	12,126	79.0954	12,126	80.5026	12,126	76.4671	12,126	74.4109	12,126	64.1395	12,126	57.3409	12,126	66.5746	12,126	60.7151	12,126	63.0475	12,126	53.815	12,126	60.7982	12,126	64.8578	12,126	48.8096	12,126	65.4781	12,126	50.795	12,126	48.8571	12,126	48.9207	12,126	38.2924	12,126	53.0348	12,126	54.4912	12,126	49.0129	12,126	52.6455	12,126	54.726	12,126	54.9662	12,126	56.6829	12,126	44.491	12,126	54.8381
12,553.7	94.2053	12,553.7	93.3111	12,553.7	93.5492	12,553.7	91.1159	12,553.7	91.624	12,553.7	87.7171	12,553.7	89.1895	12,553.7	83.8517	12,553.7	85.778	12,553.7	79.4612	12,553.7	80.602	12,553.7	76.7258	12,553.7	69.5962	12,553.7	67.928	12,553.7	57.9543	12,553.7	67.0872	12,553.7	58.2621	12,553.7	63.7519	12,553.7	61.8309	12,553.7	54.8457	12,553.7	67.6476	12,553.7	56.6575	12,553.7	67.9897	12,553.7	51.4327	12,553.7	54.5832	12,553.7	53.9398	12,553.7	47.5308	12,553.7	54.2105	12,553.7	54.5246	12,553.7	53.3409	12,553.7	54.0091	12,553.7	51.3536	12,553.7	48.8392	12,553.7	57.8924	12,553.7	43.7443	12,553.7	55.0882
12,996.1	94.6263	12,996.1	93.7358	12,996.1	93.616	12,996.1	91.2698	12,996.1	91.7553	12,996.1	88.5158	12,996.1	89.9281	12,996.1	84.012	12,996.1	85.1309	12,996.1	78.9484	12,996.1	78.9398	12,996.1	77.1962	12,996.1	67.0774	12,996.1	67.5603	12,996.1	71.5264	12,996.1	66.1812	12,996.1	58.8131	12,996.1	62.4205	12,996.1	66.6831	12,996.1	60.1608	12,996.1	69.4596	12,996.1	50.7646	12,996.1	69.1749	12,996.1	52.7976	12,996.1	56.4535	12,996.1	51.3466	12,996.1	45.8376	12,996.1	56.4864	12,996.1	51.9099	12,996.1	51.9802	12,996.1	46.1386	12,996.1	47.1122	12,996.1	53.1473	12,996.1	55.7434	12,996.1	41.1218	12,996.1	47.0295
13,454.6	94.5795	13,454.6	93.9805	13,454.6	94.0503	13,454.6	91.6999	13,454.6	91.6266	13,454.6	89.0524	13,454.6	90.0392	13,454.6	83.9275	13,454.6	83.4662	13,454.6	78.9066	13,454.6	76.5048	13,454.6	75.8729	13,454.6	69.2425	13,454.6	68.2031	13,454.6	72.7935	13,454.6	65.1318	13,454.6	56.4006	13,454.6	62.8802	13,454.6	65.3151	13,454.6	58.5479	13,454.6	70.196	13,454.6	49.2899	13,454.6	69.7039	13,454.6	51.8192	13,454.6	53.0564	13,454.6	30.3666	13,454.6	45.635	13,454.6	58.0982	13,454.6	51.2364	13,454.6	48.9369	13,454.6	55.1987	13,454.6	57.4523	13,454.6	47.1516	13,454.6	56.3788	13,454.6	48.3941	13,454.6	51.9915
13,929.2	94.6361	13,929.2	93.5656	13,929.2	94.1528	13,929.2	92.3461	13,929.2	92.0464	13,929.2	88.988	13,929.2	88.9213	13,929.2	83.3304	13,929.2	82.0702	13,929.2	77.6816	13,929.2	69.7919	13,929.2	73.0165	13,929.2	70.9147	13,929.2	65.7194	13,929.2	73.7309	13,929.2	59.064	13,929.2	58.1279	13,929.2	61.0064	13,929.2	64.4494	13,929.2	47.1725	13,929.2	69.6916	13,929.2	58.1177	13,929.2	68.0372	13,929.2	53.3926	13,929.2	60.3816	13,929.2	45.8713	13,929.2	48.635	13,929.2	57.7052	13,929.2	38.9335	13,929.2	47.114	13,929.2	54.8272	13,929.2	57.2588	13,929.2	55.9944	13,929.2	54.5534	13,929.2	53.1706	13,929.2	54.8023
14,419.9	94.8045	14,419.9	93.4486	14,419.9	93.7498	14,419.9	92.2488	14,419.9	91.0605	14,419.9	89.0097	14,419.9	87.8563	14,419.9	82.225	14,419.9	77.5599	14,419.9	76.7579	14,419.9	69.2412	14,419.9	71.8261	14,419.9	73.7554	14,419.9	67.8259	14,419.9	74.5304	14,419.9	58.2962	14,419.9	60.0999	14,419.9	51.614	14,419.9	64.6902	14,419.9	46.5855	14,419.9	72.0199	14,419.9	56.3484	14,419.9	66.8017	14,419.9	52.0983	14,419.9	60.3402	14,419.9	46.8128	14,419.9	38.3928	14,419.9	55.6991	14,419.9	40.4952	14,419.9	45.6767	14,419.9	55.2201	14,419.9	52.5404	14,419.9	52.1128	14,419.9	53.77	14,419.9	54.766	14,419.9	56.3003
14,928.2	94.0027	14,928.2	92.8408	14,928.2	92.3901	14,928.2	91.5178	14,928.2	89.3299	14,928.2	87.7175	14,928.2	85.3139	14,928.2	83.1527	14,928.2	76.7594	14,928.2	77.822	14,928.2	77.3566	14,928.2	74.7883	14,928.2	78.8232	14,928.2	71.2885	14,928.2	74.0676	14,928.2	61.0327	14,928.2	58.6158	14,928.2	52.1962	14,928.2	60.0013	14,928.2	40.3991	14,928.2	73.4508	14,928.2	53.6782	14,928.2	64.9174	14,928.2	51.8365	14,928.2	62.4376	14,928.2	43.1401	14,928.2	48.7999	14,928.2	48.2586	14,928.2	53.5878	14,928.2	43.7308	14,928.2	50.8348	14,928.2	53.3327	14,928.2	52.9637	14,928.2	51.0942	14,928.2	55.3886	14,928.2	53.4107
15,455.6	92.0483	15,455.6	91.3693	15,455.6	91.0992	15,455.6	89.9369	15,455.6	87.6245	15,455.6	85.827	15,455.6	80.141	15,455.6	82.4352	15,455.6	79.3901	15,455.6	77.4413	15,455.6	80.2168	15,455.6	75.5612	15,455.6	77.1145	15,455.6	71.6033	15,455.6	74.4003	15,455.6	61.9077	15,455.6	64.1521	15,455.6	55.2366	15,455.6	58.7235	15,455.6	52.5893	15,455.6	73.1639	15,455.6	58.1119	15,455.6	58.9921	15,455.6	46.307	15,455.6	61.7994	15,455.6	48.4512	15,455.6	43.9855	15,455.6	49.0355	15,455.6	57.9443	15,455.6	30.837	15,455.6	51.8317	15,455.6	52.7428	15,455.6	52.0943	15,455.6	44.7979	15,455.6	56.8833	15,455.6	53.5939
16,000.5	88.852	16,000.5	89.0033	16,000.5	87.4969	16,000.5	86.8148	16,000.5	82.8121	16,000.5	82.9729	16,000.5	78.4379	16,000.5	81.804	16,000.5	81.6167	16,000.5	76.6235	16,000.5	80.9324	16,000.5	75.9767	16,000.5	77.563	16,000.5	72.1221	16,000.5	72.875	16,000.5	61.6286	16,000.5	67.7397	16,000.5	59.6734	16,000.5	57.7458	16,000.5	53.767	16,000.5	72.7064	16,000.5	55.928	16,000.5	61.3411	16,000.5	46.2197	16,000.5	61.0155	16,000.5	41.7421	16,000.5	43.4759	16,000.5	47.2344	16,000.5	57.5757	16,000.5	41.1778	16,000.5	56.4857	16,000.5	51.4215	16,000.5	53.406	16,000.5	42.4914	16,000.5	58.4346	16,000.5	54.6056
16,564.5	87.7249	16,564.5	88.1013	16,564.5	87.3933	16,564.5	86.4851	16,564.5	87.0894	16,564.5	85.1286	16,564.5	86.052	16,564.5	82.3978	16,564.5	84.0861	16,564.5	78.6515	16,564.5	81.8453	16,564.5	76.808	16,564.5	78.3997	16,564.5	73.3267	16,564.5	72.5013	16,564.5	65.4162	16,564.5	67.8944	16,564.5	61.4981	16,564.5	58.0657	16,564.5	52.7263	16,564.5	69.6999	16,564.5	51.9248	16,564.5	64.7664	16,564.5	38.7551	16,564.5	56.1693	16,564.5	39.8549	16,564.5	47.0526	16,564.5	43.2568	16,564.5	52.3347	16,564.5	43.8409	16,564.5	54.3192	16,564.5	49.5277	16,564.5	36.9253	16,564.5	45.2049	16,564.5	52.0835	16,564.5	44.9038
17,148.9	90.2839	17,148.9	89.376	17,148.9	90.2127	17,148.9	87.2551	17,148.9	88.3151	17,148.9	83.5983	17,148.9	86.2306	17,148.9	79.113	17,148.9	80.9612	17,148.9	74.5511	17,148.9	74.8157	17,148.9	71.1158	17,148.9	67.959	17,148.9	65.6379	17,148.9	62.5614	17,148.9	56.9756	17,148.9	59.5792	17,148.9	53.5705	17,148.9	45.6906	17,148.9	46.4526	17,148.9	60.1143	17,148.9	32.9383	17,148.9	61.8389	17,148.9	36.4836	17,148.9	59.9749	17,148.9	43.2103	17,148.9	43.6001	17,148.9	38.0147	17,148.9	46.0128	17,148.9	31.2753	17,148.9	42.9278	17,148.9	43.0838	17,148.9	48.9114	17,148.9	44.2243	17,148.9	46.8913	17,148.9	41.2868
17,752.4	89.2794	17,752.4	87.863	17,752.4	89.5589	17,752.4	85.309	17,752.4	87.0699	17,752.4	81.1865	17,752.4	83.9195	17,752.4	76.7175	17,752.4	76.704	17,752.4	70.9505	17,752.4	67.8875	17,752.4	63.9861	17,752.4	58.8451	17,752.4	59.9524	17,752.4	53.7164	17,752.4	52.2697	17,752.4	55.5441	17,752.4	49.1237	17,752.4	46.1795	17,752.4	45.4139	17,752.4	59.5815	17,752.4	41.7752	17,752.4	58.917	17,752.4	39.9811	17,752.4	58.5671	17,752.4	43.6749	17,752.4	44.5072	17,752.4	39.0229	17,752.4	40.4575	17,752.4	33.4856	17,752.4	38.9002	17,752.4	40.8281	17,752.4	39.8428	17,752.4	31.6266	17,752.4	44.7162	17,752.4	40.6016
18,379.4	88.7738	18,379.4	87.0096	18,379.4	88.9322	18,379.4	83.5532	18,379.4	86.6564	18,379.4	78.6969	18,379.4	81.6715	18,379.4	73.4243	18,379.4	73.2329	18,379.4	64.8648	18,379.4	58.7891	18,379.4	57.0063	18,379.4	58.4076	18,379.4	48.6227	18,379.4	56.12	18,379.4	39.06	18,379.4	55.5795	18,379.4	43.5021	18,379.4	50.9069	18,379.4	36.9036	18,379.4	61.7902	18,379.4	29.0142	18,379.4	57.6228	18,379.4	36.4878	18,379.4	57.3728	18,379.4	35.405	18,379.4	46.4641	18,379.4	32.6472	18,379.4	30.9953	18,379.4	30.6469	18,379.4	44.4044	18,379.4	43.1611	18,379.4	41.3869	18,379.4	35.4406	18,379.4	42.8766	18,379.4	37.8879
19,026.9	88.1098	19,026.9	86.1455	19,026.9	88.1359	19,026.9	81.2132	19,026.9	85.715	19,026.9	74.4225	19,026.9	80.2995	19,026.9	67.4792	19,026.9	69.5215	19,026.9	61.8306	19,026.9	58.2121	19,026.9	57.6219	19,026.9	61.3209	19,026.9	54.3724	19,026.9	59.9054	19,026.9	52.877	19,026.9	53.7572	19,026.9	37.2072	19,026.9	51.5562	19,026.9	25.6527	19,026.9	62.1636	19,026.9	25.6727	19,026.9	54.5539	19,026.9	30.901	19,026.9	54.0068	19,026.9	23.3405	19,026.9	38.0786	19,026.9	36.1273	19,026.9	38.7383	19,026.9	28.4137	19,026.9	42.4985	19,026.9	41.6999	19,026.9	43.5931	19,026.9	37.7186	19,026.9	38.1108	19,026.9	36.7525
19,697.8	87.2602	19,697.8	85.2353	19,697.8	87.1618	19,697.8	79.6737	19,697.8	83.8526	19,697.8	68.2957	19,697.8	76.9398	19,697.8	58.7165	19,697.8	62.1425	19,697.8	64.0935	19,697.8	65.3308	19,697.8	62.0151	19,697.8	63.6242	19,697.8	59.5062	19,697.8	59.5706	19,697.8	55.8639	19,697.8	49.9475	19,697.8	42.012	19,697.8	47.3658	19,697.8	38.1903	19,697.8	61.7544	19,697.8	39.5518	19,697.8	53.5287	19,697.8	38.1121	19,697.8	54.1807	19,697.8	30.3197	19,697.8	34.1314	19,697.8	39.4692	19,697.8	45.8435	19,697.8	21.6219	19,697.8	38.2373	19,697.8	41.0125	19,697.8	43.0562	19,697.8	32.7416	19,697.8	40.251	19,697.8	36.9964
19,999.5	86.809	19,999.5	84.836	19,999.5	86.5921	19,999.5	79.4523	19,999.5	83.0975	19,999.5	66.741	19,999.5	74.1567	19,999.5	57.9416	19,999.5	59.6689	19,999.5	63.7717	19,999.5	64.7738	19,999.5	62.8279	19,999.5	64.5576	19,999.5	59.3911	19,999.5	64.2557	19,999.5	56.9411	19,999.5	47.7422	19,999.5	45.2428	19,999.5	45.4689	19,999.5	41.5474	19,999.5	61.2103	19,999.5	51.5542	19,999.5	56.7052	19,999.5	42.7262	19,999.5	54.1198	19,999.5	52.5668	19,999.5	50.9629	19,999.5	55.7589	19,999.5	43.404	19,999.5	41.0411	19,999.5	47.0007	19,999.5	38.1738	19,999.5	43.0593	19,999.5	46.1822	19,999.5	45.7034	19,999.5	44.3105
