"SPL Horizontal"
"On-Axis"		"10°"		"-10°"		"20°"		"-20°"		"30°"		"-30°"		"40°"		"-40°"		"50°"		"-50°"		"60°"		"-60°"		"70°"		"-70°"		"80°"		"-80°"		"90°"		"-90°"		"100°"		"-100°"		"110°"		"-110°"		"120°"		"-120°"		"130°"		"-130°"		"140°"		"-140°"		"150°"		"-150°"		"160°"		"-160°"		"170°"		"-170°"		"180°"
"Frequency [Hz]"	"Sound Pessure Level [dB]  / [2.83V 1m] "	"Frequency [Hz]"	"Sound Pessure Level [dB]  / [2.83V 1m] "	"Frequency [Hz]"	"Sound Pessure Level [dB]  / [2.83V 1m] "	"Frequency [Hz]"	"Sound Pessure Level [dB]  / [2.83V 1m] "	"Frequency [Hz]"	"Sound Pessure Level [dB]  / [2.83V 1m] "	"Frequency [Hz]"	"Sound Pessure Level [dB]  / [2.83V 1m] "	"Frequency [Hz]"	"Sound Pessure Level [dB]  / [2.83V 1m] "	"Frequency [Hz]"	"Sound Pessure Level [dB]  / [2.83V 1m] "	"Frequency [Hz]"	"Sound Pessure Level [dB]  / [2.83V 1m] "	"Frequency [Hz]"	"Sound Pessure Level [dB]  / [2.83V 1m] "	"Frequency [Hz]"	"Sound Pessure Level [dB]  / [2.83V 1m] "	"Frequency [Hz]"	"Sound Pessure Level [dB]  / [2.83V 1m] "	"Frequency [Hz]"	"Sound Pessure Level [dB]  / [2.83V 1m] "	"Frequency [Hz]"	"Sound Pessure Level [dB]  / [2.83V 1m] "	"Frequency [Hz]"	"Sound Pessure Level [dB]  / [2.83V 1m] "	"Frequency [Hz]"	"Sound Pessure Level [dB]  / [2.83V 1m] "	"Frequency [Hz]"	"Sound Pessure Level [dB]  / [2.83V 1m] "	"Frequency [Hz]"	"Sound Pessure Level [dB]  / [2.83V 1m] "	"Frequency [Hz]"	"Sound Pessure Level [dB]  / [2.83V 1m] "	"Frequency [Hz]"	"Sound Pessure Level [dB]  / [2.83V 1m] "	"Frequency [Hz]"	"Sound Pessure Level [dB]  / [2.83V 1m] "	"Frequency [Hz]"	"Sound Pessure Level [dB]  / [2.83V 1m] "	"Frequency [Hz]"	"Sound Pessure Level [dB]  / [2.83V 1m] "	"Frequency [Hz]"	"Sound Pessure Level [dB]  / [2.83V 1m] "	"Frequency [Hz]"	"Sound Pessure Level [dB]  / [2.83V 1m] "	"Frequency [Hz]"	"Sound Pessure Level [dB]  / [2.83V 1m] "	"Frequency [Hz]"	"Sound Pessure Level [dB]  / [2.83V 1m] "	"Frequency [Hz]"	"Sound Pessure Level [dB]  / [2.83V 1m] "	"Frequency [Hz]"	"Sound Pessure Level [dB]  / [2.83V 1m] "	"Frequency [Hz]"	"Sound Pessure Level [dB]  / [2.83V 1m] "	"Frequency [Hz]"	"Sound Pessure Level [dB]  / [2.83V 1m] "	"Frequency [Hz]"	"Sound Pessure Level [dB]  / [2.83V 1m] "	"Frequency [Hz]"	"Sound Pessure Level [dB]  / [2.83V 1m] "	"Frequency [Hz]"	"Sound Pessure Level [dB]  / [2.83V 1m] "	"Frequency [Hz]"	"Sound Pessure Level [dB]  / [2.83V 1m] "	"Frequency [Hz]"	"Sound Pessure Level [dB]  / [2.83V 1m] "
20.5078	51.1637	20.5078	50.8471	20.5078	51.0975	20.5078	50.1091	20.5078	50.6495	20.5078	48.8678	20.5078	49.7881	20.5078	47.0163	20.5078	48.4671	20.5078	44.6849	20.5078	46.7338	20.5078	43.6247	20.5078	45.2468	20.5078	46.1239	20.5078	45.8335	20.5078	49.6972	20.5078	48.5581	20.5078	52.7709	20.5078	51.587	20.5078	55.2651	20.5078	54.2279	20.5078	57.2998	20.5078	56.4349	20.5078	58.9699	20.5078	58.2683	20.5078	60.3344	20.5078	59.7812	20.5078	61.4265	20.5078	61.0069	20.5078	62.2626	20.5078	61.9627	20.5078	62.8482	20.5078	62.6559	20.5078	63.183	20.5078	63.0894	20.5078	63.2644
21.9727	56.018	21.9727	55.8312	21.9727	56.019	21.9727	55.4555	21.9727	55.845	21.9727	54.9021	21.9727	55.5175	21.9727	54.2192	21.9727	55.082	21.9727	53.5405	21.9727	54.6327	21.9727	53.1434	21.9727	54.343	21.9727	53.3858	21.9727	54.4476	21.9727	54.3947	21.9727	55.1086	21.9727	55.912	21.9727	56.2638	21.9727	57.5845	21.9727	57.686	21.9727	59.1907	21.9727	59.1563	21.9727	60.6327	21.9727	60.5386	21.9727	61.8734	21.9727	61.7634	21.9727	62.8989	21.9727	62.7967	21.9727	63.7022	21.9727	63.6197	21.9727	64.2773	21.9727	64.2204	21.9727	64.6191	21.9727	64.5903	21.9727	64.7238
23.4375	55.0491	23.4375	54.8733	23.4375	54.9887	23.4375	54.4715	23.4375	54.6963	23.4375	53.8855	23.4375	54.1982	23.4375	53.2368	23.4375	53.5772	23.4375	52.8063	23.4375	53.0448	23.4375	53.013	23.4375	52.9878	23.4375	54.0717	23.4375	53.7531	23.4375	55.7247	23.4375	55.252	23.4375	57.5639	23.4375	57.0777	23.4375	59.3368	23.4375	58.9047	23.4375	60.9411	23.4375	60.5816	23.4375	62.3449	23.4375	62.0561	23.4375	63.5407	23.4375	63.3144	23.4375	64.5256	23.4375	64.3536	23.4375	65.296	23.4375	65.172	23.4375	65.8467	23.4375	65.7661	23.4375	66.1721	23.4375	66.1325	23.4375	66.268
24.9023	58.9633	24.9023	58.817	24.9023	58.9716	24.9023	58.5398	24.9023	58.8498	24.9023	58.1603	24.9023	58.6223	24.9023	57.7456	24.9023	58.3398	24.9023	57.423	24.9023	58.0941	24.9023	57.3801	24.9023	58.0245	24.9023	57.7882	24.9023	58.2829	24.9023	58.6728	24.9023	58.9477	24.9023	59.8896	24.9023	59.9614	24.9023	61.2425	24.9023	61.175	24.9023	62.5819	24.9023	62.4389	24.9023	63.8204	24.9023	63.6475	24.9023	64.9111	24.9023	64.7376	24.9023	65.8275	24.9023	65.6721	24.9023	66.5525	24.9023	66.4272	24.9023	67.0733	24.9023	66.9859	24.9023	67.3806	24.9023	67.3357	24.9023	67.4685
26.3672	61.0475	26.3672	60.9415	26.3672	61.0555	26.3672	60.7466	26.3672	60.9723	26.3672	60.4914	26.3672	60.8205	26.3672	60.2337	26.3672	60.6442	26.3672	60.0685	26.3672	60.5151	26.3672	60.1189	26.3672	60.5308	26.3672	60.4917	26.3672	60.7907	26.3672	61.2113	26.3672	61.3492	26.3672	62.2007	26.3672	62.1802	26.3672	63.332	26.3672	63.1925	26.3672	64.4869	26.3672	64.2775	26.3672	65.5813	26.3672	65.3444	26.3672	66.5618	26.3672	66.3288	26.3672	67.3949	26.3672	67.1878	26.3672	68.0579	26.3672	67.8915	26.3672	68.5343	26.3672	68.4186	26.3672	68.8128	26.3672	68.7535	26.3672	68.8863
27.832	63.4519	27.832	63.3801	27.832	63.4415	27.832	63.234	27.832	63.3529	27.832	63.0358	27.832	63.203	27.832	62.8275	27.832	63.0251	27.832	62.6747	27.832	62.8736	27.832	62.6641	27.832	62.8248	27.832	62.881	27.832	62.9639	27.832	63.371	27.832	63.353	27.832	64.1114	27.832	63.9972	27.832	65.0236	27.832	64.8389	27.832	66.0101	27.832	65.7877	27.832	66.9857	27.832	66.7543	27.832	67.8869	27.832	67.6681	27.832	68.6691	27.832	68.4783	27.832	69.3009	27.832	69.1489	27.832	69.7596	27.832	69.6542	27.832	70.0299	27.832	69.976	27.832	70.1028
29.2969	64.7735	29.2969	64.7026	29.2969	64.7735	29.2969	64.5678	29.2969	64.7071	29.2969	64.3908	29.2969	64.592	29.2969	64.2114	29.2969	64.4606	29.2969	64.0911	29.2969	64.3639	29.2969	64.1091	29.2969	64.3692	29.2969	64.3415	29.2969	64.5476	29.2969	64.8271	29.2969	64.9473	29.2969	65.5446	29.2969	65.5693	29.2969	66.4223	29.2969	66.3644	29.2969	67.3708	29.2969	67.2556	29.2969	68.3101	29.2969	68.1645	29.2969	69.1795	29.2969	69.0267	29.2969	69.9354	29.2969	69.7937	29.2969	70.5471	29.2969	70.4299	29.2969	70.9926	29.2969	70.9094	29.2969	71.2568	29.2969	71.2137	29.2969	71.3311
30.7617	66.7949	30.7617	66.7445	30.7617	66.7886	30.7617	66.6433	30.7617	66.7296	30.7617	66.5079	30.7617	66.6316	30.7617	66.3682	30.7617	66.5202	30.7617	66.2695	30.7617	66.4341	30.7617	66.2698	30.7617	66.4244	30.7617	66.4279	30.7617	66.5466	30.7617	66.783	30.7617	66.8441	30.7617	67.3352	30.7617	67.3297	30.7617	68.0435	30.7617	67.977	30.7617	68.8417	30.7617	68.7305	30.7617	69.6602	30.7617	69.5241	30.7617	70.4385	30.7617	70.2963	30.7617	71.1289	30.7617	70.9964	30.7617	71.6956	30.7617	71.5853	30.7617	72.1122	30.7617	72.0335	30.7617	72.3606	30.7617	72.3197	30.7617	72.4306
32.2266	68.0431	32.2266	68	32.2266	68.041	32.2266	67.9174	32.2266	67.9969	32.2266	67.8112	32.2266	67.9236	32.2266	67.7092	32.2266	67.8443	32.2266	67.6515	32.2266	67.7933	32.2266	67.6876	32.2266	67.815	32.2266	67.8659	32.2266	67.956	32.2266	68.2177	32.2266	68.2524	32.2266	68.7423	32.2266	68.7148	32.2266	69.4053	32.2266	69.3215	32.2266	70.1506	32.2266	70.0254	32.2266	70.9166	32.2266	70.7686	32.2266	71.6478	32.2266	71.4952	32.2266	72.2987	32.2266	72.1573	32.2266	72.8342	32.2266	72.7169	32.2266	73.2281	32.2266	73.1446	32.2266	73.4625	32.2266	73.4191	32.2266	73.5269
33.6914	69.5221	33.6914	69.4787	33.6914	69.5295	33.6914	69.4044	33.6914	69.5041	33.6914	69.313	33.6914	69.4573	33.6914	69.2286	33.6914	69.4092	33.6914	69.1853	33.6914	69.3887	33.6914	69.2246	33.6914	69.4319	33.6914	69.3873	33.6914	69.5763	33.6914	69.7009	33.6914	69.851	33.6914	70.1681	33.6914	70.2659	33.6914	70.7631	33.6914	70.8062	33.6914	71.4401	33.6914	71.4356	33.6914	72.1451	33.6914	72.1061	33.6914	72.8267	33.6914	72.7678	33.6914	73.4407	33.6914	73.3759	33.6914	73.9515	33.6914	73.8924	33.6914	74.3319	33.6914	74.2875	33.6914	74.5626	33.6914	74.5389	33.6914	74.6325
35.1562	70.7921	35.1562	70.7562	35.1562	70.7984	35.1562	70.6954	35.1562	70.7778	35.1562	70.6221	35.1562	70.7399	35.1562	70.5573	35.1562	70.7021	35.1562	70.53	35.1562	70.6893	35.1562	70.5754	35.1562	70.7326	35.1562	70.7278	35.1562	70.8646	35.1562	71.0113	35.1562	71.1117	35.1562	71.4302	35.1562	71.485	35.1562	71.9655	35.1562	71.9744	35.1562	72.5797	35.1562	72.5501	35.1562	73.226	35.1562	73.17	35.1562	73.8572	35.1562	73.7877	35.1562	74.4308	35.1562	74.3599	35.1562	74.9114	35.1562	74.8492	35.1562	75.271	35.1562	75.2251	35.1562	75.4896	35.1562	75.4653	35.1562	75.5554
36.6211	71.9443	36.6211	71.9166	36.6211	71.9498	36.6211	71.8708	36.6211	71.9355	36.6211	71.8181	36.6211	71.9099	36.6211	71.7763	36.6211	71.8885	36.6211	71.7704	36.6211	71.8926	36.6211	71.8295	36.6211	71.9485	36.6211	71.9822	36.6211	72.0832	36.6211	72.2486	36.6211	72.3186	36.6211	72.6334	36.6211	72.664	36.6211	73.1222	36.6211	73.112	36.6211	73.6843	36.6211	73.6385	36.6211	74.2793	36.6211	74.208	36.6211	74.8643	36.6211	74.7799	36.6211	75.3993	36.6211	75.314	36.6211	75.8494	36.6211	75.7745	36.6211	76.1866	36.6211	76.1313	36.6211	76.3908	36.6211	76.3614	36.6211	76.45
38.0859	72.9696	38.0859	72.9485	38.0859	72.9763	38.0859	72.9167	38.0859	72.9701	38.0859	72.8843	38.0859	72.9585	38.0859	72.8671	38.0859	72.9544	38.0859	72.8861	38.0859	72.976	38.0859	72.9659	38.0859	73.0455	38.0859	73.1296	38.0859	73.1855	38.0859	73.3934	38.0859	73.4147	38.0859	73.7607	38.0859	73.7415	38.0859	74.219	38.0859	74.1608	38.0859	74.7422	38.0859	74.6526	38.0859	75.295	38.0859	75.1862	38.0859	75.8394	38.0859	75.7246	38.0859	76.3384	38.0859	76.2302	38.0859	76.7592	38.0859	76.6683	38.0859	77.0747	38.0859	77.0093	38.0859	77.2649	38.0859	77.2308	38.0859	77.318
39.5508	74.1507	39.5508	74.1337	39.5508	74.1583	39.5508	74.1102	39.5508	74.158	39.5508	74.0883	39.5508	74.1558	39.5508	74.0805	39.5508	74.1621	39.5508	74.1037	39.5508	74.1914	39.5508	74.1775	39.5508	74.2611	39.5508	74.3211	39.5508	74.3895	39.5508	74.5485	39.5508	74.5921	39.5508	74.8645	39.5508	74.8773	39.5508	75.2615	39.5508	75.2427	39.5508	75.7197	39.5508	75.6736	39.5508	76.2104	39.5508	76.145	39.5508	76.6998	39.5508	76.6251	39.5508	77.1539	39.5508	77.0799	39.5508	77.5409	39.5508	77.4766	39.5508	77.8339	39.5508	77.7867	39.5508	78.0126	39.5508	77.9877	39.5508	78.065
41.0156	75.056	41.0156	75.0287	41.0156	75.0765	41.0156	74.9977	41.0156	75.0916	41.0156	74.97	41.0156	75.1066	41.0156	74.9569	41.0156	75.1306	41.0156	74.9732	41.0156	75.1764	41.0156	75.0361	41.0156	75.2593	41.0156	75.1622	41.0156	75.3948	41.0156	75.3641	41.0156	75.596	41.0156	75.6466	41.0156	75.8691	41.0156	76.0043	41.0156	76.2109	41.0156	76.4209	41.0156	76.6068	41.0156	76.8718	41.0156	77.0333	41.0156	77.327	41.0156	77.4614	41.0156	77.755	41.0156	77.8606	41.0156	78.126	41.0156	78.2028	41.0156	78.414	41.0156	78.4634	41.0156	78.5995	41.0156	78.6235	41.0156	78.6705
42.4805	75.6669	42.4805	75.6452	42.4805	75.6778	42.4805	75.6154	42.4805	75.6792	42.4805	75.5842	42.4805	75.676	42.4805	75.5623	42.4805	75.6772	42.4805	75.564	42.4805	75.6947	42.4805	75.6061	42.4805	75.7432	42.4805	75.7056	42.4805	75.8378	42.4805	75.8763	42.4805	75.992	42.4805	76.1249	42.4805	76.2136	42.4805	76.4482	42.4805	76.5028	42.4805	76.8317	42.4805	76.8498	42.4805	77.2514	42.4805	77.2361	42.4805	77.6775	42.4805	77.6366	42.4805	78.0777	42.4805	78.0226	42.4805	78.4214	42.4805	78.365	42.4805	78.6824	42.4805	78.6368	42.4805	78.8411	42.4805	78.8157	42.4805	78.8862
43.9453	76.3364	43.9453	76.3203	43.9453	76.348	43.9453	76.3022	43.9453	76.3558	43.9453	76.288	43.9453	76.3641	43.9453	76.2872	43.9453	76.3802	43.9453	76.3118	43.9453	76.4142	43.9453	76.3754	43.9453	76.4781	43.9453	76.4915	43.9453	76.5847	43.9453	76.6703	43.9453	76.7448	43.9453	76.9165	43.9453	76.9652	43.9453	77.2262	43.9453	77.2456	43.9453	77.587	43.9453	77.5777	43.9453	77.9783	43.9453	77.9449	43.9453	78.3743	43.9453	78.3243	43.9453	78.7466	43.9453	78.6894	43.9453	79.0673	43.9453	79.0131	43.9453	79.3119	43.9453	79.2697	43.9453	79.4613	43.9453	79.4384	43.9453	79.5044
45.4102	77.0043	45.4102	76.9923	45.4102	77.0155	45.4102	76.9815	45.4102	77.0264	45.4102	76.9773	45.4102	77.0406	45.4102	76.9877	45.4102	77.0643	45.4102	77.0227	45.4102	77.1061	45.4102	77.0941	45.4102	77.1761	45.4102	77.2129	45.4102	77.2849	45.4102	77.3879	45.4102	77.4418	45.4102	77.6229	45.4102	77.6523	45.4102	77.9146	45.4102	77.9166	45.4102	78.2522	45.4102	78.2276	45.4102	78.6175	45.4102	78.571	45.4102	78.9871	45.4102	78.9264	45.4102	79.3349	45.4102	79.2695	45.4102	79.6347	45.4102	79.5747	45.4102	79.8634	45.4102	79.8176	45.4102	80.0027	45.4102	79.978	45.4102	80.0418
46.875	77.6746	46.875	77.6679	46.875	77.682	46.875	77.6638	46.875	77.6906	46.875	77.6668	46.875	77.7034	46.875	77.6833	46.875	77.7256	46.875	77.7219	46.875	77.7645	46.875	77.7921	46.875	77.8289	46.875	77.9032	46.875	77.9278	46.875	78.0629	46.875	78.0695	46.875	78.2745	46.875	78.2594	46.875	78.5362	46.875	78.4983	46.875	78.8391	46.875	78.7804	46.875	79.168	46.875	79.0937	46.875	79.5023	46.875	79.42	46.875	79.8183	46.875	79.7371	46.875	80.0919	46.875	80.0209	46.875	80.3008	46.875	80.2483	46.875	80.4276	46.875	80.3997	46.875	80.4614
48.3398	78.1064	48.3398	78.1002	48.3398	78.1171	48.3398	78.1003	48.3398	78.1328	48.3398	78.1104	48.3398	78.1558	48.3398	78.1361	48.3398	78.1905	48.3398	78.1844	48.3398	78.2429	48.3398	78.2631	48.3398	78.32	48.3398	78.3799	48.3398	78.4293	48.3398	78.5409	48.3398	78.5772	48.3398	78.7486	48.3398	78.7678	48.3398	79.0011	48.3398	79.0011	48.3398	79.2907	48.3398	79.2719	48.3398	79.6037	48.3398	79.5693	48.3398	79.9217	48.3398	79.877	48.3398	80.2231	48.3398	80.1748	48.3398	80.4851	48.3398	80.4405	48.3398	80.6866	48.3398	80.6525	48.3398	80.8107	48.3398	80.7922	48.3398	80.8468
51.2695	79.1642	51.2695	79.1618	51.2695	79.1751	51.2695	79.169	51.2695	79.1946	51.2695	79.1883	51.2695	79.2241	51.2695	79.2233	51.2695	79.2663	51.2695	79.2782	51.2695	79.3245	51.2695	79.3582	51.2695	79.4032	51.2695	79.4679	51.2695	79.5069	51.2695	79.6112	51.2695	79.6395	51.2695	79.7898	51.2695	79.8038	51.2695	80.0023	51.2695	80	51.2695	80.2435	51.2695	80.2247	51.2695	80.5033	51.2695	80.4704	51.2695	80.7677	51.2695	80.7251	51.2695	81.0193	51.2695	80.9732	51.2695	81.239	51.2695	81.1963	51.2695	81.4085	51.2695	81.3758	51.2695	81.5129	51.2695	81.4951	51.2695	81.5426
52.7344	79.6303	52.7344	79.6286	52.7344	79.6419	52.7344	79.6377	52.7344	79.6632	52.7344	79.6596	52.7344	79.6952	52.7344	79.697	52.7344	79.7398	52.7344	79.7534	52.7344	79.7995	52.7344	79.8325	52.7344	79.8776	52.7344	79.9379	52.7344	79.9777	52.7344	80.0725	52.7344	80.1028	52.7344	80.2377	52.7344	80.2552	52.7344	80.4323	52.7344	80.4351	52.7344	80.6519	52.7344	80.6398	52.7344	80.888	52.7344	80.8632	52.7344	81.1286	52.7344	81.0948	52.7344	81.3581	52.7344	81.3208	52.7344	81.5594	52.7344	81.5244	52.7344	81.7154	52.7344	81.6884	52.7344	81.8121	52.7344	81.7974	52.7344	81.8402
54.1992	80.0723	54.1992	80.0739	54.1992	80.0816	54.1992	80.0871	54.1992	80.1018	54.1992	80.1135	54.1992	80.1337	54.1992	80.1549	54.1992	80.1785	54.1992	80.2139	54.1992	80.2381	54.1992	80.2934	54.1992	80.315	54.1992	80.396	54.1992	80.4119	54.1992	80.5241	54.1992	80.5311	54.1992	80.6789	54.1992	80.6745	54.1992	80.8592	54.1992	80.8423	54.1992	81.0614	54.1992	81.0322	54.1992	81.2782	54.1992	81.2391	54.1992	81.4988	54.1992	81.4538	54.1992	81.7094	54.1992	81.6636	54.1992	81.8941	54.1992	81.8533	54.1992	82.0373	54.1992	82.0067	54.1992	82.1256	54.1992	82.1092	54.1992	82.1503
55.6641	80.4395	55.6641	80.4399	55.6641	80.4515	55.6641	80.4532	55.6641	80.4757	55.6641	80.4803	55.6641	80.5127	55.6641	80.5228	55.6641	80.5633	55.6641	80.5824	55.6641	80.6288	55.6641	80.6614	55.6641	80.7107	55.6641	80.7617	55.6641	80.8107	55.6641	80.8851	55.6641	80.9305	55.6641	81.0324	55.6641	81.0711	55.6641	81.2028	55.6641	81.2323	55.6641	81.3928	55.6641	81.4121	55.6641	81.5965	55.6641	81.6056	55.6641	81.8041	55.6641	81.8046	55.6641	82.0033	55.6641	81.9977	55.6641	82.1794	55.6641	82.171	55.6641	82.3177	55.6641	82.3097	55.6641	82.4053	55.6641	82.4005	55.6641	82.4337
58.5938	81.2301	58.5938	81.2308	58.5938	81.2441	58.5938	81.2464	58.5938	81.2723	58.5938	81.2771	58.5938	81.3146	58.5938	81.3234	58.5938	81.3707	58.5938	81.3855	58.5938	81.4402	58.5938	81.464	58.5938	81.5233	58.5938	81.5591	58.5938	81.6199	58.5938	81.6711	58.5938	81.73	58.5938	81.7998	58.5938	81.8534	58.5938	81.9439	58.5938	81.9896	58.5938	82.1009	58.5938	82.1367	58.5938	82.2662	58.5938	82.2914	58.5938	82.4329	58.5938	82.4481	58.5938	82.592	58.5938	82.599	58.5938	82.7324	58.5938	82.734	58.5938	82.8429	58.5938	82.8419	58.5938	82.9134	58.5938	82.9122	58.5938	82.9372
60.0586	81.569	60.0586	81.5691	60.0586	81.5845	60.0586	81.5852	60.0586	81.6154	60.0586	81.6168	60.0586	81.6607	60.0586	81.6637	60.0586	81.7194	60.0586	81.7252	60.0586	81.7903	60.0586	81.8009	60.0586	81.8724	60.0586	81.8903	60.0586	81.9647	60.0586	81.993	60.0586	82.0665	60.0586	82.1086	60.0586	82.1773	60.0586	82.2359	60.0586	82.2963	60.0586	82.373	60.0586	82.4225	60.0586	82.5164	60.0586	82.5536	60.0586	82.6606	60.0586	82.6856	60.0586	82.798	60.0586	82.8126	60.0586	82.9195	60.0586	82.9263	60.0586	83.0153	60.0586	83.0175	60.0586	83.0767	60.0586	83.0769	60.0586	83.0977
62.9883	82.3112	62.9883	82.3104	62.9883	82.328	62.9883	82.3257	62.9883	82.3603	62.9883	82.3563	62.9883	82.4067	62.9883	82.4012	62.9883	82.4656	62.9883	82.4589	62.9883	82.5348	62.9883	82.5278	62.9883	82.6123	62.9883	82.6065	62.9883	82.6963	62.9883	82.6939	62.9883	82.7853	62.9883	82.7889	62.9883	82.8783	62.9883	82.8907	62.9883	82.9745	62.9883	82.998	62.9883	83.0731	62.9883	83.1087	62.9883	83.1729	62.9883	83.2195	62.9883	83.2717	62.9883	83.3256	62.9883	83.3654	62.9883	83.4204	62.9883	83.4485	62.9883	83.4965	62.9883	83.5141	62.9883	83.547	62.9883	83.5554	62.9883	83.5671
64.4531	82.5892	64.4531	82.5886	64.4531	82.6064	64.4531	82.6048	64.4531	82.6396	64.4531	82.6367	64.4531	82.6874	64.4531	82.6831	64.4531	82.7476	64.4531	82.7421	64.4531	82.818	64.4531	82.8119	64.4531	82.8962	64.4531	82.8904	64.4531	82.9798	64.4531	82.9761	64.4531	83.067	64.4531	83.0677	64.4531	83.1564	64.4531	83.1639	64.4531	83.2472	64.4531	83.2635	64.4531	83.3386	64.4531	83.3648	64.4531	83.4296	64.4531	83.4651	64.4531	83.5183	64.4531	83.5604	64.4531	83.6016	64.4531	83.6453	64.4531	83.6749	64.4531	83.7135	64.4531	83.7324	64.4531	83.7591	64.4531	83.7682	64.4531	83.7778
67.3828	83.1227	67.3828	83.1196	67.3828	83.1445	67.3828	83.1351	67.3828	83.1843	67.3828	83.1682	67.3828	83.2401	67.3828	83.217	67.3828	83.3093	67.3828	83.2789	67.3828	83.3887	67.3828	83.3511	67.3828	83.475	67.3828	83.4308	67.3828	83.5648	67.3828	83.5155	67.3828	83.6553	67.3828	83.603	67.3828	83.7439	67.3828	83.6915	67.3828	83.8289	67.3828	83.7796	67.3828	83.9091	67.3828	83.8663	67.3828	83.9838	67.3828	83.9499	67.3828	84.052	67.3828	84.0282	67.3828	84.1123	67.3828	84.0982	67.3828	84.1623	67.3828	84.1556	67.3828	84.1987	67.3828	84.1965	67.3828	84.2182	67.3828	84.2178
68.8477	83.3872	68.8477	83.3801	68.8477	83.4139	68.8477	83.3926	68.8477	83.4589	68.8477	83.4235	68.8477	83.5202	68.8477	83.4708	68.8477	83.5948	68.8477	83.5318	68.8477	83.6789	68.8477	83.6032	68.8477	83.7689	68.8477	83.6819	68.8477	83.8607	68.8477	83.7646	68.8477	83.9509	68.8477	83.8488	68.8477	84.0366	68.8477	83.9324	68.8477	84.1158	68.8477	84.014	68.8477	84.1874	68.8477	84.0929	68.8477	84.2509	68.8477	84.1679	68.8477	84.306	68.8477	84.2379	68.8477	84.3522	68.8477	84.3006	68.8477	84.3884	68.8477	84.3531	68.8477	84.4125	68.8477	84.3923	68.8477	84.4222	68.8477	84.4157
71.7773	84.0047	71.7773	83.9988	71.7773	84.0298	71.7773	84.0119	71.7773	84.0731	71.7773	84.0426	71.7773	84.1324	71.7773	84.0885	71.7773	84.2044	71.7773	84.1462	71.7773	84.2852	71.7773	84.2121	71.7773	84.3704	71.7773	84.2822	71.7773	84.4556	71.7773	84.353	71.7773	84.5365	71.7773	84.4215	71.7773	84.6099	71.7773	84.4855	71.7773	84.6732	71.7773	84.5441	71.7773	84.7252	71.7773	84.5971	71.7773	84.7656	71.7773	84.645	71.7773	84.7951	71.7773	84.6884	71.7773	84.8148	71.7773	84.7273	71.7773	84.8257	71.7773	84.7613	71.7773	84.8285	71.7773	84.7892	71.7773	84.8233	71.7773	84.8102
74.707	84.6103	74.707	84.6046	74.707	84.6347	74.707	84.6173	74.707	84.6768	74.707	84.6469	74.707	84.7342	74.707	84.6906	74.707	84.8034	74.707	84.7447	74.707	84.88	74.707	84.805	74.707	84.9592	74.707	84.8673	74.707	85.036	74.707	84.9273	74.707	85.1058	74.707	84.9818	74.707	85.165	74.707	85.0284	74.707	85.2108	74.707	85.066	74.707	85.242	74.707	85.0951	74.707	85.2589	74.707	85.1172	74.707	85.2631	74.707	85.1344	74.707	85.2574	74.707	85.1492	74.707	85.2449	74.707	85.1635	74.707	85.2289	74.707	85.1784	74.707	85.2115	74.707	85.1944
77.6367	85.1335	77.6367	85.1333	77.6367	85.1521	77.6367	85.1509	77.6367	85.1882	77.6367	85.1843	77.6367	85.2393	77.6367	85.2304	77.6367	85.3019	77.6367	85.285	77.6367	85.3715	77.6367	85.3432	77.6367	85.4428	77.6367	85.4003	77.6367	85.5106	77.6367	85.4517	77.6367	85.5699	77.6367	85.4935	77.6367	85.6164	77.6367	85.5234	77.6367	85.6472	77.6367	85.5403	77.6367	85.661	77.6367	85.5451	77.6367	85.6583	77.6367	85.5403	77.6367	85.6416	77.6367	85.5297	77.6367	85.6151	77.6367	85.5177	77.6367	85.5841	77.6367	85.5087	77.6367	85.554	77.6367	85.5064	77.6367	85.5292	77.6367	85.513
79.1016	85.3533	79.1016	85.3568	79.1016	85.368	79.1016	85.3778	79.1016	85.4002	79.1016	85.4143	79.1016	85.4475	79.1016	85.4628	79.1016	85.5063	79.1016	85.519	79.1016	85.572	79.1016	85.5779	79.1016	85.6395	79.1016	85.6343	79.1016	85.7033	79.1016	85.6835	79.1016	85.7583	79.1016	85.7215	79.1016	85.8	79.1016	85.7455	79.1016	85.8254	79.1016	85.7547	79.1016	85.8332	79.1016	85.7498	79.1016	85.824	79.1016	85.7339	79.1016	85.8005	79.1016	85.7113	79.1016	85.7676	79.1016	85.6874	79.1016	85.7311	79.1016	85.6676	79.1016	85.6974	79.1016	85.6567	79.1016	85.6717	79.1016	85.6577
82.0312	85.7932	82.0312	85.7994	82.0312	85.8058	82.0312	85.8237	82.0312	85.8365	82.0312	85.8639	82.0312	85.8829	82.0312	85.9162	82.0312	85.9412	82.0312	85.9758	82.0312	86.0065	82.0312	86.0372	82.0312	86.0733	82.0312	86.0948	82.0312	86.1357	82.0312	86.1431	82.0312	86.1881	82.0312	86.1777	82.0312	86.2258	82.0312	86.1953	82.0312	86.2452	82.0312	86.195	82.0312	86.245	82.0312	86.1777	82.0312	86.2259	82.0312	86.1471	82.0312	86.1912	82.0312	86.1086	82.0312	86.1465	82.0312	86.0691	82.0312	86.0991	82.0312	86.0359	82.0312	86.0566	82.0312	86.0153	82.0312	86.0258	82.0312	86.0114
84.9609	86.1585	84.9609	86.1572	84.9609	86.1795	84.9609	86.1747	84.9609	86.219	84.9609	86.2091	84.9609	86.2745	84.9609	86.2567	84.9609	86.342	84.9609	86.3125	84.9609	86.4163	84.9609	86.3711	84.9609	86.4914	84.9609	86.4263	84.9609	86.5609	84.9609	86.4724	84.9609	86.6187	84.9609	86.5045	84.9609	86.6594	84.9609	86.5193	84.9609	86.679	84.9609	86.5156	84.9609	86.6756	84.9609	86.4947	84.9609	86.6497	84.9609	86.4607	84.9609	86.6047	84.9609	86.4199	84.9609	86.5463	84.9609	86.3804	84.9609	86.4826	84.9609	86.3505	84.9609	86.4224	84.9609	86.3371	84.9609	86.3743	84.9609	86.3448
87.8906	86.5026	87.8906	86.5007	87.8906	86.5237	87.8906	86.5175	87.8906	86.563	87.8906	86.551	87.8906	86.6181	87.8906	86.598	87.8906	86.6851	87.8906	86.654	87.8906	86.7591	87.8906	86.7137	87.8906	86.834	87.8906	86.7711	87.8906	86.9033	87.8906	86.8204	87.8906	86.9605	87.8906	86.8564	87.8906	87.0001	87.8906	86.8749	87.8906	87.0175	87.8906	86.8738	87.8906	87.0106	87.8906	86.8536	87.8906	86.9799	87.8906	86.8174	87.8906	86.9288	87.8906	86.7711	87.8906	86.864	87.8906	86.7231	87.8906	86.7947	87.8906	86.6828	87.8906	86.7314	87.8906	86.6592	87.8906	86.6837	87.8906	86.6588
90.8203	87.0021	90.8203	87.0217	90.8203	86.9968	90.8203	87.0546	90.8203	87.0056	90.8203	87.0986	90.8203	87.0268	90.8203	87.1503	90.8203	87.0576	90.8203	87.2051	90.8203	87.0941	90.8203	87.2574	90.8203	87.1312	90.8203	87.3014	90.8203	87.1634	90.8203	87.3309	90.8203	87.1849	90.8203	87.3403	90.8203	87.1904	90.8203	87.3253	90.8203	87.1758	90.8203	87.2839	90.8203	87.1392	90.8203	87.2168	90.8203	87.0813	90.8203	87.1283	90.8203	87.0065	90.8203	87.0265	90.8203	86.9228	90.8203	86.923	90.8203	86.8414	90.8203	86.8311	90.8203	86.7748	90.8203	86.7638	90.8203	86.735	90.8203	86.7304
95.2148	87.4321	95.2148	87.4309	95.2148	87.448	95.2148	87.4439	95.2148	87.4773	95.2148	87.4698	95.2148	87.5178	95.2148	87.5054	95.2148	87.5658	95.2148	87.5465	95.2148	87.6167	95.2148	87.5877	95.2148	87.6646	95.2148	87.6227	95.2148	87.7034	95.2148	87.6451	95.2148	87.7266	95.2148	87.6489	95.2148	87.7288	95.2148	87.6294	95.2148	87.7059	95.2148	87.5844	95.2148	87.6562	95.2148	87.5146	95.2148	87.5811	95.2148	87.425	95.2148	87.4856	95.2148	87.3249	95.2148	87.3785	95.2148	87.2271	95.2148	87.2715	95.2148	87.146	95.2148	87.1782	95.2148	87.0948	95.2148	87.1119	95.2148	87.0826
98.1445	87.6462	98.1445	87.646	98.1445	87.6608	98.1445	87.66	98.1445	87.6894	98.1445	87.6862	98.1445	87.7298	98.1445	87.7217	98.1445	87.779	98.1445	87.7622	98.1445	87.8326	98.1445	87.8024	98.1445	87.8848	98.1445	87.836	98.1445	87.9295	98.1445	87.8568	98.1445	87.9598	98.1445	87.8587	98.1445	87.9694	98.1445	87.8369	98.1445	87.9532	98.1445	87.7889	98.1445	87.9083	98.1445	87.7159	98.1445	87.8352	98.1445	87.6232	98.1445	87.738	98.1445	87.5205	98.1445	87.6253	98.1445	87.4215	98.1445	87.5095	98.1445	87.3415	98.1445	87.4055	98.1445	87.2944	98.1445	87.3281	98.1445	87.2892
101.074	87.7124	101.074	87.722	101.074	87.7207	101.074	87.7482	101.074	87.7466	101.074	87.7882	101.074	87.7884	101.074	87.8379	101.074	87.8428	101.074	87.8922	101.074	87.905	101.074	87.9449	101.074	87.9688	101.074	87.9892	101.074	88.0272	101.074	88.0183	101.074	88.0726	101.074	88.0261	101.074	88.0979	101.074	88.0081	101.074	88.0969	101.074	87.9624	101.074	88.0657	101.074	87.8904	101.074	88.0036	101.074	87.7979	101.074	87.9144	101.074	87.6952	101.074	87.8063	101.074	87.5963	101.074	87.6921	101.074	87.5167	101.074	87.5874	101.074	87.4705	101.074	87.5082	101.074	87.4671
105.469	88.1678	105.469	88.18	105.469	88.1681	105.469	88.2033	105.469	88.1809	105.469	88.2353	105.469	88.205	105.469	88.2721	105.469	88.2379	105.469	88.3084	105.469	88.2758	105.469	88.338	105.469	88.3131	105.469	88.3538	105.469	88.3431	105.469	88.3491	105.469	88.3582	105.469	88.3179	105.469	88.3507	105.469	88.2564	105.469	88.3143	105.469	88.1639	105.469	88.2449	105.469	88.0433	105.469	88.1424	105.469	87.9021	105.469	88.0112	105.469	87.7529	105.469	87.8614	105.469	87.6124	105.469	87.7086	105.469	87.4997	105.469	87.5719	105.469	87.4323	105.469	87.4711	105.469	87.4219
108.398	88.5502	108.398	88.557	108.398	88.5526	108.398	88.573	108.398	88.5628	108.398	88.5975	108.398	88.579	108.398	88.6279	108.398	88.5984	108.398	88.6599	108.398	88.6176	108.398	88.6876	108.398	88.632	108.398	88.7039	108.398	88.6361	108.398	88.7009	108.398	88.624	108.398	88.6715	108.398	88.5897	108.398	88.6103	108.398	88.5286	108.398	88.5149	108.398	88.4381	108.398	88.3873	108.398	88.3196	108.398	88.2345	108.398	88.1788	108.398	88.0688	108.398	88.0266	108.398	87.9077	108.398	87.8786	108.398	87.7713	108.398	87.7537	108.398	87.6787	108.398	87.6706	108.398	87.6436
112.793	88.9799	112.793	88.9794	112.793	88.985	112.793	88.9834	112.793	88.9945	112.793	88.991	112.793	89.0077	112.793	89.0002	112.793	89.0227	112.793	89.0079	112.793	89.0369	112.793	89.0093	112.793	89.0457	112.793	88.9983	112.793	89.0436	112.793	88.9677	112.793	89.024	112.793	88.9107	112.793	88.9802	112.793	88.8224	112.793	88.9064	112.793	88.7008	112.793	88.799	112.793	88.5488	112.793	88.6583	112.793	88.3749	112.793	88.4897	112.793	88.1934	112.793	88.3046	112.793	88.0236	112.793	88.1206	112.793	87.8871	112.793	87.9592	112.793	87.804	112.793	87.8425	112.793	87.7881
117.188	88.9861	117.188	88.9809	117.188	88.9946	117.188	88.9799	117.188	89.0055	117.188	88.9829	117.188	89.0174	117.188	88.9889	117.188	89.0286	117.188	88.9956	117.188	89.0369	117.188	88.9985	117.188	89.039	117.188	88.9918	117.188	89.0304	117.188	88.9683	117.188	89.0057	117.188	88.9209	117.188	88.9592	117.188	88.8437	117.188	88.8852	117.188	88.7339	117.188	88.7806	117.188	88.593	117.188	88.6454	117.188	88.4285	117.188	88.4849	117.188	88.2537	117.188	88.3103	117.188	88.0874	117.188	88.1383	117.188	87.9509	117.188	87.9897	117.188	87.8641	117.188	87.8852	117.188	87.8409
120.117	89.1248	120.117	89.1025	120.117	89.1505	120.117	89.0846	120.117	89.1778	120.117	89.0716	120.117	89.2048	120.117	89.0625	120.117	89.2286	120.117	89.0549	120.117	89.2458	120.117	89.0444	120.117	89.2523	120.117	89.025	120.117	89.243	120.117	88.9894	120.117	89.2124	120.117	88.9304	120.117	89.1548	120.117	88.8422	120.117	89.0656	120.117	88.7225	120.117	88.9422	120.117	88.5738	120.117	88.7858	120.117	88.4042	120.117	88.6025	120.117	88.2281	120.117	88.4044	120.117	88.0645	120.117	88.2091	120.117	87.9348	120.117	88.038	120.117	87.859	120.117	87.9129	120.117	87.8506
124.512	89.3834	124.512	89.3623	124.512	89.4099	124.512	89.3463	124.512	89.441	124.512	89.3344	124.512	89.475	124.512	89.3244	124.512	89.509	124.512	89.3129	124.512	89.5384	124.512	89.2947	124.512	89.5573	124.512	89.2636	124.512	89.5588	124.512	89.2127	124.512	89.5352	124.512	89.1356	124.512	89.4796	124.512	89.0279	124.512	89.3865	124.512	88.8892	124.512	89.2535	124.512	88.7237	124.512	89.0827	124.512	88.5417	124.512	88.8814	124.512	88.3589	124.512	88.6627	124.512	88.1953	124.512	88.4454	124.512	88.0728	124.512	88.2515	124.512	88.0104	124.512	88.1038	124.512	88.0202
128.906	89.194	128.906	89.1918	128.906	89.2055	128.906	89.1981	128.906	89.2266	128.906	89.2117	128.906	89.2566	128.906	89.2303	128.906	89.2936	128.906	89.2505	128.906	89.3337	128.906	89.2671	128.906	89.371	128.906	89.2734	128.906	89.3979	128.906	89.2618	128.906	89.4056	128.906	89.2247	128.906	89.3853	128.906	89.1562	128.906	89.3303	128.906	89.0537	128.906	89.2367	128.906	88.9197	128.906	89.1055	128.906	88.7626	128.906	88.9431	128.906	88.597	128.906	88.7622	128.906	88.4422	128.906	88.5807	128.906	88.3196	128.906	88.4201	128.906	88.2485	128.906	88.3015	128.906	88.2416
133.301	89.2311	133.301	89.2469	133.301	89.22	133.301	89.2668	133.301	89.2142	133.301	89.29	133.301	89.2142	133.301	89.3148	133.301	89.2198	133.301	89.3384	133.301	89.2293	133.301	89.3559	133.301	89.2391	133.301	89.3608	133.301	89.2435	133.301	89.3456	133.301	89.2349	133.301	89.3026	133.301	89.2055	133.301	89.226	133.301	89.148	133.301	89.1134	133.301	89.058	133.301	88.9672	133.301	88.9355	133.301	88.7961	133.301	88.7858	133.301	88.6147	133.301	88.6209	133.301	88.4426	133.301	88.458	133.301	88.3013	133.301	88.3178	133.301	88.2103	133.301	88.2206	133.301	88.1823
139.16	89.3275	139.16	89.3389	139.16	89.3152	139.16	89.3498	139.16	89.3021	139.16	89.3611	139.16	89.2891	139.16	89.3732	139.16	89.277	139.16	89.385	139.16	89.2652	139.16	89.3926	139.16	89.2513	139.16	89.3894	139.16	89.2305	139.16	89.3665	139.16	89.1957	139.16	89.3147	139.16	89.1391	139.16	89.2259	139.16	89.0533	139.16	89.0961	139.16	88.9339	139.16	88.9273	139.16	88.7815	139.16	88.7281	139.16	88.6031	139.16	88.5147	139.16	88.413	139.16	88.3086	139.16	88.2314	139.16	88.1338	139.16	88.082	139.16	88.0129	139.16	87.9868	139.16	87.9619
143.555	89.3109	143.555	89.3067	143.555	89.3099	143.555	89.2977	143.555	89.3045	143.555	89.2855	143.555	89.2964	143.555	89.2718	143.555	89.2868	143.555	89.2577	143.555	89.2764	143.555	89.2421	143.555	89.2635	143.555	89.2211	143.555	89.2441	143.555	89.1877	143.555	89.2117	143.555	89.1331	143.555	89.1587	143.555	89.0492	143.555	89.0775	143.555	88.9309	143.555	88.963	143.555	88.7788	143.555	88.8146	143.555	88.6003	143.555	88.638	143.555	88.4099	143.555	88.4462	143.555	88.2277	143.555	88.2587	143.555	88.0765	143.555	88.099	143.555	87.9778	143.555	87.9896	143.555	87.947
147.949	89.3499	147.949	89.3307	147.949	89.3608	147.949	89.3039	147.949	89.3641	147.949	89.2711	147.949	89.3615	147.949	89.2341	147.949	89.355	147.949	89.1946	147.949	89.3458	147.949	89.1524	147.949	89.3335	147.949	89.105	147.949	89.3152	147.949	89.0482	147.949	89.2857	147.949	88.976	147.949	89.2381	147.949	88.8833	147.949	89.1654	147.949	88.7675	147.949	89.0626	147.949	88.6306	147.949	88.9283	147.949	88.4802	147.949	88.7667	147.949	88.3291	147.949	88.5882	147.949	88.1943	147.949	88.4086	147.949	88.0939	147.949	88.2473	147.949	88.0436	147.949	88.1237	147.949	88.0532
153.809	89.3448	153.809	89.3438	153.809	89.3343	153.809	89.3314	153.809	89.3134	153.809	89.3086	153.809	89.2841	153.809	89.2767	153.809	89.2489	153.809	89.2365	153.809	89.2094	153.809	89.187	153.809	89.1659	153.809	89.1255	153.809	89.1164	153.809	89.0468	153.809	89.0568	153.809	88.9456	153.809	88.981	153.809	88.8174	153.809	88.8831	153.809	88.6614	153.809	88.7583	153.809	88.4818	153.809	88.6057	153.809	88.2886	153.809	88.4299	153.809	88.0973	153.809	88.2414	153.809	87.9267	153.809	88.0565	153.809	87.7965	153.809	87.8949	153.809	87.7231	153.809	87.7762	153.809	87.7161
159.668	89.39	159.668	89.3919	159.668	89.3751	159.668	89.3802	159.668	89.3486	159.668	89.3558	159.668	89.3129	159.668	89.3201	159.668	89.2703	159.668	89.2746	159.668	89.2224	159.668	89.2194	159.668	89.1691	159.668	89.1528	159.668	89.1087	159.668	89.0705	159.668	89.0375	159.668	88.9674	159.668	88.951	159.668	88.8395	159.668	88.8445	159.668	88.6857	159.668	88.7151	159.668	88.5104	159.668	88.5631	159.668	88.3232	159.668	88.3935	159.668	88.1386	159.668	88.2164	159.668	87.9737	159.668	88.0468	159.668	87.8459	159.668	87.9024	159.668	87.7697	159.668	87.8004	159.668	87.754
165.527	89.2813	165.527	89.279	165.527	89.276	165.527	89.2695	165.527	89.2634	165.527	89.254	165.527	89.2445	165.527	89.2334	165.527	89.2203	165.527	89.2077	165.527	89.1909	165.527	89.1746	165.527	89.1546	165.527	89.1294	165.527	89.1077	165.527	89.0657	165.527	89.0452	165.527	88.9768	165.527	88.962	165.527	88.8582	165.527	88.8546	165.527	88.7103	165.527	88.7226	165.527	88.5391	165.527	88.5696	165.527	88.3566	165.527	88.4035	165.527	88.1788	165.527	88.2358	165.527	88.023	165.527	88.0803	165.527	87.9049	165.527	87.9514	165.527	87.8359	165.527	87.8619	165.527	87.8215
171.387	89.1415	171.387	89.1054	171.387	89.1603	171.387	89.0524	171.387	89.1634	171.387	88.9858	171.387	89.1546	171.387	88.9104	171.387	89.1377	171.387	88.8315	171.387	89.1154	171.387	88.7531	171.387	89.0876	171.387	88.6758	171.387	89.0507	171.387	88.5959	171.387	88.998	171.387	88.5074	171.387	88.9218	171.387	88.4042	171.387	88.816	171.387	88.2837	171.387	88.6792	171.387	88.1496	171.387	88.5157	171.387	88.0114	171.387	88.3358	171.387	87.8822	171.387	88.1542	171.387	87.7758	171.387	87.9864	171.387	87.7031	171.387	87.8463	171.387	87.6717	171.387	87.744	171.387	87.6851
177.246	89.1592	177.246	89.1665	177.246	89.13	177.246	89.1503	177.246	89.0823	177.246	89.1104	177.246	89.0211	177.246	89.0477	177.246	88.9524	177.246	88.964	177.246	88.8819	177.246	88.8606	177.246	88.8131	177.246	88.7381	177.246	88.7459	177.246	88.5963	177.246	88.6756	177.246	88.4338	177.246	88.5941	177.246	88.2508	177.246	88.4924	177.246	88.0506	177.246	88.3641	177.246	87.842	177.246	88.2083	177.246	87.6396	177.246	88.0305	177.246	87.4616	177.246	87.8423	177.246	87.3259	177.246	87.658	177.246	87.2456	177.246	87.4922	177.246	87.2262	177.246	87.3577	177.246	87.2659
183.105	88.83	183.105	88.8504	183.105	88.7882	183.105	88.8495	183.105	88.7271	183.105	88.8293	183.105	88.6513	183.105	88.792	183.105	88.5663	183.105	88.7392	183.105	88.4774	183.105	88.6701	183.105	88.3877	183.105	88.5814	183.105	88.2965	183.105	88.4677	183.105	88.1997	183.105	88.324	183.105	88.0906	183.105	88.1479	183.105	87.9628	183.105	87.9433	183.105	87.8136	183.105	87.7214	183.105	87.6463	183.105	87.4996	183.105	87.4709	183.105	87.2977	183.105	87.3021	183.105	87.133	183.105	87.1547	183.105	87.0162	183.105	87.0405	183.105	86.951	183.105	86.9663	183.105	86.9354
188.965	88.5523	188.965	88.5699	188.965	88.5118	188.965	88.5677	188.965	88.4486	188.965	88.5501	188.965	88.3662	188.965	88.5219	188.965	88.2705	188.965	88.4865	188.965	88.1686	188.965	88.4437	188.965	88.0663	188.965	88.3895	188.965	87.9657	188.965	88.3154	188.965	87.8636	188.965	88.211	188.965	87.7531	188.965	88.0677	188.965	87.6262	188.965	87.8841	188.965	87.4783	188.965	87.6686	188.965	87.3121	188.965	87.4392	188.965	87.139	188.965	87.2187	188.965	86.9763	188.965	87.0276	188.965	86.8428	188.965	86.8784	188.965	86.7524	188.965	86.7757	188.965	86.7114	188.965	86.7199
196.289	88.7026	196.289	88.6806	196.289	88.6941	196.289	88.6321	196.289	88.654	196.289	88.5637	196.289	88.5846	196.289	88.4829	196.289	88.4899	196.289	88.3955	196.289	88.3746	196.289	88.3046	196.289	88.2421	196.289	88.2089	196.289	88.0941	196.289	88.1025	196.289	87.9299	196.289	87.9767	196.289	87.7477	196.289	87.8224	196.289	87.547	196.289	87.6349	196.289	87.3309	196.289	87.4179	196.289	87.1091	196.289	87.1855	196.289	86.8968	196.289	86.9593	196.289	86.7122	196.289	86.7615	196.289	86.5704	196.289	86.6077	196.289	86.4793	196.289	86.5034	196.289	86.4393	196.289	86.4478
203.613	88.4492	203.613	88.4154	203.613	88.4484	203.613	88.3509	203.613	88.4132	203.613	88.2623	203.613	88.3474	203.613	88.1576	203.613	88.2576	203.613	88.044	203.613	88.1504	203.613	87.9259	203.613	88.0302	203.613	87.8035	203.613	87.8962	203.613	87.6721	203.613	87.7426	203.613	87.524	203.613	87.561	203.613	87.3516	203.613	87.3443	203.613	87.1515	203.613	87.0926	203.613	86.9286	203.613	86.8171	203.613	86.6968	203.613	86.5407	203.613	86.4756	203.613	86.2941	203.613	86.2837	203.613	86.1049	203.613	86.132	203.613	85.9885	203.613	86.0237	203.613	85.9438	203.613	85.9593
210.938	88.3854	210.938	88.3266	210.938	88.4099	210.938	88.2364	210.938	88.3993	210.938	88.119	210.938	88.3556	210.938	87.98	210.938	88.2838	210.938	87.8256	210.938	88.1911	210.938	87.6617	210.938	88.0842	210.938	87.4924	210.938	87.9658	210.938	87.3176	210.938	87.832	210.938	87.1327	210.938	87.6721	210.938	86.9315	210.938	87.4728	210.938	86.7112	210.938	87.2254	210.938	86.4768	210.938	86.9325	210.938	86.2427	210.938	86.6119	210.938	86.0287	210.938	86.2948	210.938	85.8526	210.938	86.0176	210.938	85.7253	210.938	85.8095	210.938	85.6509	210.938	85.6829	210.938	85.6338
218.262	88.0722	218.262	88.0544	218.262	88.0529	218.262	88.0013	218.262	88.0006	218.262	87.9197	218.262	87.9233	218.262	87.8186	218.262	87.8308	218.262	87.7053	218.262	87.7318	218.262	87.5826	218.262	87.632	218.262	87.4469	218.262	87.5323	218.262	87.2899	218.262	87.429	218.262	87.1017	218.262	87.3137	218.262	86.8764	218.262	87.1753	218.262	86.6161	218.262	87.0045	218.262	86.3352	218.262	86.7977	218.262	86.0592	218.262	86.5606	218.262	85.8192	218.262	86.3088	218.262	85.6418	218.262	86.0639	218.262	85.541	218.262	85.848	218.262	85.5178	218.262	85.6785	218.262	85.566
225.586	87.8588	225.586	87.8688	225.586	87.7929	225.586	87.8262	225.586	87.6764	225.586	87.7412	225.586	87.5235	225.586	87.6281	225.586	87.3548	225.586	87.5015	225.586	87.1918	225.586	87.3725	225.586	87.0492	225.586	87.2449	225.586	86.9295	225.586	87.1126	225.586	86.8215	225.586	86.9615	225.586	86.7062	225.586	86.7756	225.586	86.5656	225.586	86.5467	225.586	86.3924	225.586	86.2836	225.586	86.1955	225.586	86.0145	225.586	85.9971	225.586	85.7791	225.586	85.8235	225.586	85.6112	225.586	85.6917	225.586	85.5211	225.586	85.6024	225.586	85.4948	225.586	85.5447	225.586	85.5084
232.91	87.9402	232.91	87.9201	232.91	87.8913	232.91	87.842	232.91	87.7693	232.91	87.721	232.91	87.5782	232.91	87.5738	232.91	87.3318	232.91	87.4161	232.91	87.0529	232.91	87.2583	232.91	86.7686	232.91	87.1014	232.91	86.5021	232.91	86.9345	232.91	86.2628	232.91	86.7353	232.91	86.0403	232.91	86.4779	232.91	85.8095	232.91	86.1437	232.91	85.5449	232.91	85.7344	232.91	85.2362	232.91	85.2792	232.91	84.8981	232.91	84.8324	232.91	84.5686	232.91	84.4549	232.91	84.2927	232.91	84.1871	232.91	84.1009	232.91	84.0336	232.91	83.9981	232.91	83.9759
241.699	88.1332	241.699	88.0538	241.699	88.0927	241.699	87.8599	241.699	87.9379	241.699	87.5687	241.699	87.6843	241.699	87.2107	241.699	87.3573	241.699	86.8292	241.699	86.9914	241.699	86.4761	241.699	86.6263	241.699	86.1999	241.699	86.2979	241.699	86.0244	241.699	86.0252	241.699	85.9296	241.699	85.7993	241.699	85.853	241.699	85.5853	241.699	85.7147	241.699	85.3357	241.699	85.4487	241.699	85.0111	241.699	85.0264	241.699	84.5955	241.699	84.4686	241.699	84.1056	241.699	83.8484	241.699	83.5918	241.699	83.2772	241.699	83.1309	241.699	82.8717	241.699	82.8113	241.699	82.711
250.488	90.1462	250.488	90.0813	250.488	90.106	250.488	89.9142	250.488	89.9582	250.488	89.6479	250.488	89.7013	250.488	89.2872	250.488	89.337	250.488	88.8405	250.488	88.8748	250.488	88.3269	250.488	88.3386	250.488	87.784	250.488	87.7737	250.488	87.2741	250.488	87.2448	250.488	86.8715	250.488	86.819	250.488	86.6291	250.488	86.5357	250.488	86.5435	250.488	86.3881	250.488	86.5574	250.488	86.3342	250.488	86.598	250.488	86.327	250.488	86.6148	250.488	86.3351	250.488	86.5916	250.488	86.3462	250.488	86.5387	250.488	86.3608	250.488	86.4767	250.488	86.3844	250.488	86.4227
259.277	89.7435	259.277	89.6862	259.277	89.7363	259.277	89.5636	259.277	89.6637	259.277	89.3746	259.277	89.5221	259.277	89.1182	259.277	89.3059	259.277	88.794	259.277	89.0096	259.277	88.4031	259.277	88.6328	259.277	87.9547	259.277	88.1854	259.277	87.4755	259.277	87.6943	259.277	87.0154	259.277	87.206	259.277	86.6368	259.277	86.7777	259.277	86.3841	259.277	86.4568	259.277	86.2572	259.277	86.2593	259.277	86.2157	259.277	86.1662	259.277	86.2106	259.277	86.14	259.277	86.2097	259.277	86.1454	259.277	86.2032	259.277	86.1596	259.277	86.1933	259.277	86.1727	259.277	86.1833
268.066	88.9989	268.066	88.9503	268.066	88.9849	268.066	88.838	268.066	88.9088	268.066	88.6621	268.066	88.7698	268.066	88.4253	268.066	88.5656	268.066	88.132	268.066	88.2931	268.066	87.7872	268.066	87.9519	268.066	87.3977	268.066	87.548	268.066	86.9794	268.066	87.1002	268.066	86.5668	268.066	86.6441	268.066	86.2135	268.066	86.2277	268.066	85.9729	268.066	85.8981	268.066	85.8677	268.066	85.6844	268.066	85.8745	268.066	85.59	268.066	85.9409	268.066	85.5966	268.066	86.0141	268.066	85.6743	268.066	86.0579	268.066	85.7887	268.066	86.0547	268.066	85.9067	268.066	86.0015
276.855	88.6462	276.855	88.6068	276.855	88.6384	276.855	88.5114	276.855	88.5873	276.855	88.3494	276.855	88.4914	276.855	88.1137	276.855	88.3463	276.855	87.8029	276.855	88.1462	276.855	87.4197	276.855	87.8841	276.855	86.968	276.855	87.5522	276.855	86.455	276.855	87.1476	276.855	85.9048	276.855	86.6829	276.855	85.3746	276.855	86.1968	276.855	84.9555	276.855	85.7538	276.855	84.7343	276.855	85.4231	276.855	84.7354	276.855	85.2435	276.855	84.9023	276.855	85.2065	276.855	85.1372	276.855	85.2691	276.855	85.3514	276.855	85.3775	276.855	85.4884	276.855	85.4792	276.855	85.5275
287.109	88.3487	287.109	88.2759	287.109	88.3648	287.109	88.1545	287.109	88.3157	287.109	87.9904	287.109	88.1941	287.109	87.786	287.109	87.9958	287.109	87.5405	287.109	87.724	287.109	87.2523	287.109	87.3911	287.109	86.9228	287.109	87.017	287.109	86.5596	287.109	86.6215	287.109	86.1786	287.109	86.2177	287.109	85.8076	287.109	85.8158	287.109	85.4874	287.109	85.4362	287.109	85.264	287.109	85.1196	287.109	85.1676	287.109	84.9189	287.109	85.191	287.109	84.8698	287.109	85.2886	287.109	84.9615	287.109	85.3963	287.109	85.1351	287.109	85.4555	287.109	85.3122	287.109	85.4293
297.363	88.3387	297.363	88.4248	297.363	88.1972	297.363	88.4309	297.363	88.0235	297.363	88.3413	297.363	87.8297	297.363	88.1544	297.363	87.6093	297.363	87.882	297.363	87.3387	297.363	87.5387	297.363	86.989	297.363	87.1306	297.363	86.5469	297.363	86.6543	297.363	86.0345	297.363	86.1118	297.363	85.5185	297.363	85.5363	297.363	85.0945	297.363	85.0063	297.363	84.8437	297.363	84.6259	297.363	84.7888	297.363	84.4683	297.363	84.8872	297.363	84.528	297.363	85.0616	297.363	84.7296	297.363	85.2359	297.363	84.9776	297.363	85.3564	297.363	85.196	297.363	85.3949	297.363	85.3409
307.617	88.5055	307.617	88.3942	307.617	88.5561	307.617	88.2367	307.617	88.5335	307.617	88.0419	307.617	88.4334	307.617	87.8093	307.617	88.2612	307.617	87.5324	307.617	88.0255	307.617	87.2058	307.617	87.7274	307.617	86.8306	307.617	87.3523	307.617	86.4133	307.617	86.8739	307.617	85.9644	307.617	86.2723	307.617	85.5042	307.617	85.5592	307.617	85.0774	307.617	84.8023	307.617	84.7545	307.617	84.1323	307.617	84.5975	307.617	83.7071	307.617	84.6089	307.617	83.6199	307.617	84.7209	307.617	83.8266	307.617	84.8366	307.617	84.1812	307.617	84.8718	307.617	84.5306	307.617	84.7739
319.336	88.1834	319.336	88.1187	319.336	88.1686	319.336	87.9757	319.336	88.0751	319.336	87.7557	319.336	87.9064	319.336	87.4568	319.336	87.6676	319.336	87.0742	319.336	87.3652	319.336	86.6021	319.336	87.0081	319.336	86.0375	319.336	86.6073	319.336	85.3876	319.336	86.1736	319.336	84.6842	319.336	85.7176	319.336	84.0042	319.336	85.2563	319.336	83.4719	319.336	84.8244	319.336	83.212	319.336	84.477	319.336	83.2643	319.336	84.272	319.336	83.5529	319.336	84.233	319.336	83.9424	319.336	84.3276	319.336	84.3055	319.336	84.4829	319.336	84.5558	319.336	84.6161	319.336	84.656
329.59	87.8925	329.59	87.8695	329.59	87.8729	329.59	87.8078	329.59	87.8062	329.59	87.7071	329.59	87.6893	329.59	87.5591	329.59	87.5189	329.59	87.3485	329.59	87.2875	329.59	87.0582	329.59	86.9809	329.59	86.674	329.59	86.5796	329.59	86.1877	329.59	86.0664	329.59	85.5984	329.59	85.4384	329.59	84.9223	329.59	84.7235	329.59	84.2165	329.59	83.9952	329.59	83.6026	329.59	83.3699	329.59	83.2355	329.59	82.9661	329.59	83.1852	329.59	82.8352	329.59	83.3515	329.59	82.9306	329.59	83.5474	329.59	83.1505	329.59	83.636	329.59	83.3929	329.59	83.5754
341.309	87.6909	341.309	87.6749	341.309	87.6438	341.309	87.5899	341.309	87.5383	341.309	87.4305	341.309	87.3778	341.309	87.1952	341.309	87.1664	341.309	86.8894	341.309	86.9106	341.309	86.5214	341.309	86.619	341.309	86.0944	341.309	86.2964	341.309	85.5989	341.309	85.9376	341.309	85.0196	341.309	85.5295	341.309	84.3599	341.309	85.0712	341.309	83.6771	341.309	84.6	341.309	83.103	341.309	84.2024	341.309	82.7989	341.309	83.9764	341.309	82.8354	341.309	83.9527	341.309	83.1247	341.309	84.0587	341.309	83.5055	341.309	84.1727	341.309	83.8504	341.309	84.1982	341.309	84.0912
353.027	87.5417	353.027	87.4876	353.027	87.5432	353.027	87.401	353.027	87.4758	353.027	87.2953	353.027	87.3309	353.027	87.1647	353.027	87.1035	353.027	86.9833	353.027	86.7854	353.027	86.7157	353.027	86.3617	353.027	86.333	353.027	85.8146	353.027	85.8269	353.027	85.1315	353.027	85.2187	353.027	84.3183	353.027	84.564	353.027	83.4241	353.027	83.9471	353.027	82.5819	353.027	83.4625	353.027	82.0242	353.027	83.1872	353.027	81.9609	353.027	83.1521	353.027	82.3579	353.027	83.3185	353.027	82.9522	353.027	83.5826	353.027	83.4847	353.027	83.8185	353.027	83.8185	353.027	83.9203
366.211	87.3592	366.211	87.2121	366.211	87.4411	366.211	87.0011	366.211	87.4612	366.211	86.7409	366.211	87.418	366.211	86.4549	366.211	87.3032	366.211	86.159	366.211	87.1062	366.211	85.8478	366.211	86.817	366.211	85.4995	366.211	86.4206	366.211	85.0913	366.211	85.8893	366.211	84.6107	366.211	85.1822	366.211	84.0651	366.211	84.2692	366.211	83.5033	366.211	83.1871	366.211	83.0333	366.211	82.1232	366.211	82.7883	366.211	81.4332	366.211	82.8245	366.211	81.3896	366.211	83.057	366.211	81.8654	366.211	83.3202	366.211	82.5081	366.211	83.4609	366.211	83.0549	366.211	83.3834
379.395	87.7941	379.395	87.7712	379.395	87.7734	379.395	87.6887	379.395	87.7275	379.395	87.5305	379.395	87.6697	379.395	87.2763	379.395	87.5954	379.395	86.9042	379.395	87.4768	379.395	86.3967	379.395	87.2747	379.395	85.7441	379.395	86.9591	379.395	84.9439	379.395	86.5207	379.395	84.0041	379.395	85.967	379.395	82.9695	379.395	85.3071	379.395	81.9835	379.395	84.543	379.395	81.3288	379.395	83.6945	379.395	81.2592	379.395	82.8619	379.395	81.6886	379.395	82.2591	379.395	82.2697	379.395	82.0833	379.395	82.7245	379.395	82.2931	379.395	82.9383	379.395	82.6408	379.395	82.8962
392.578	87.1161	392.578	87.1606	392.578	87.0227	392.578	87.1608	392.578	86.8824	392.578	87.1224	392.578	86.7068	392.578	87.0457	392.578	86.5134	392.578	86.9154	392.578	86.3134	392.578	86.6943	392.578	86.0991	392.578	86.3287	392.578	85.8386	392.578	85.7671	392.578	85.4786	392.578	84.9859	392.578	84.9598	392.578	84.0218	392.578	84.2568	392.578	83.0042	392.578	83.4407	392.578	82.1642	392.578	82.7303	392.578	81.7552	392.578	82.4077	392.578	81.8648	392.578	82.5507	392.578	82.324	392.578	82.9466	392.578	82.8669	392.578	83.3298	392.578	83.3017	392.578	83.5457	392.578	83.5381
405.762	87.3432	405.762	87.2939	405.762	87.3008	405.762	87.1746	405.762	87.1598	405.762	87.0117	405.762	86.9328	405.762	86.8276	405.762	86.644	405.762	86.6324	405.762	86.3118	405.762	86.4121	405.762	85.9358	405.762	86.1195	405.762	85.4992	405.762	85.6797	405.762	84.9851	405.762	85.0158	405.762	84.3881	405.762	84.0904	405.762	83.716	405.762	82.9595	405.762	83.0054	405.762	81.8423	405.762	82.3684	405.762	81.1256	405.762	82.014	405.762	81.0945	405.762	82.0981	405.762	81.6047	405.762	82.5086	405.762	82.2798	405.762	82.9538	405.762	82.8455	405.762	83.2059	405.762	83.1713
420.41	87.2442	420.41	87.1365	420.41	87.3031	420.41	86.9768	420.41	87.3218	420.41	86.7728	420.41	87.3043	420.41	86.5352	420.41	87.2437	420.41	86.2604	420.41	87.1193	420.41	85.9228	420.41	86.893	420.41	85.4861	420.41	86.5121	420.41	84.9229	420.41	85.9204	420.41	84.2286	420.41	85.0685	420.41	83.4287	420.41	83.9233	420.41	82.5995	420.41	82.4969	420.41	81.9043	420.41	80.9431	420.41	81.5675	420.41	79.7259	420.41	81.6868	420.41	79.485	420.41	82.0974	420.41	80.2245	420.41	82.5234	420.41	81.2843	420.41	82.7513	420.41	82.1557	420.41	82.6505
435.059	86.6992	435.059	86.7208	435.059	86.647	435.059	86.6999	435.059	86.5749	435.059	86.6238	435.059	86.4963	435.059	86.481	435.059	86.4266	435.059	86.2594	435.059	86.3712	435.059	85.9393	435.059	86.3086	435.059	85.4879	435.059	86.1846	435.059	84.854	435.059	85.922	435.059	83.9754	435.059	85.4409	435.059	82.8176	435.059	84.6849	435.059	81.4654	435.059	83.6613	435.059	80.265	435.059	82.5142	435.059	79.7931	435.059	81.5944	435.059	80.2682	435.059	81.3045	435.059	81.2363	435.059	81.6586	435.059	82.1664	435.059	82.272	435.059	82.7787	435.059	82.7795	435.059	82.9792
451.172	87.1254	451.172	87.0327	451.172	87.1324	451.172	86.8741	451.172	87.05	451.172	86.6865	451.172	86.8905	451.172	86.5149	451.172	86.6822	451.172	86.3869	451.172	86.462	451.172	86.2766	451.172	86.2488	451.172	86.0912	451.172	86.0074	451.172	85.6954	451.172	85.6423	451.172	84.9518	451.172	85.0346	451.172	83.7611	451.172	84.0966	451.172	82.1372	451.172	82.8273	451.172	80.433	451.172	81.3968	451.172	79.58	451.172	80.2564	451.172	80.1249	451.172	79.9881	451.172	81.2836	451.172	80.647	451.172	82.2833	451.172	81.6658	451.172	82.8576	451.172	82.5144	451.172	82.9371
465.82	87.1578	465.82	87.0499	465.82	87.1406	465.82	86.8336	465.82	87.0243	465.82	86.5765	465.82	86.8481	465.82	86.367	465.82	86.643	465.82	86.2555	465.82	86.4337	465.82	86.2141	465.82	86.2446	465.82	86.1501	465.82	86.074	465.82	85.9424	465.82	85.849	465.82	85.4668	465.82	85.4241	465.82	84.6049	465.82	84.6358	465.82	83.2564	465.82	83.3736	465.82	81.405	465.82	81.6968	465.82	79.4011	465.82	80.1064	465.82	78.4247	465.82	79.5648	465.82	79.1853	465.82	80.1805	465.82	80.4814	465.82	81.0396	465.82	81.383	465.82	81.5985	465.82	81.7329
483.398	87.0881	483.398	87.0437	483.398	87.0051	483.398	86.8868	483.398	86.8015	483.398	86.6384	483.398	86.5207	483.398	86.3365	483.398	86.2295	483.398	86.0554	483.398	85.9809	483.398	85.8692	483.398	85.7883	483.398	85.7563	483.398	85.6248	483.398	85.5641	483.398	85.4265	483.398	85.0926	483.398	85.0924	483.398	84.1965	483.398	84.5017	483.398	82.8589	483.398	83.556	483.398	81.3018	483.398	82.2504	483.398	80.1131	483.398	80.8225	483.398	79.8871	483.398	79.9126	483.398	80.4435	483.398	80.0746	483.398	81.1896	483.398	80.8964	483.398	81.7497	483.398	81.6333	483.398	81.9317
499.512	87.2749	499.512	87.1503	499.512	87.2483	499.512	86.8783	499.512	87.0856	499.512	86.4858	499.512	86.8238	499.512	86.0274	499.512	86.5216	499.512	85.5779	499.512	86.2444	499.512	85.208	499.512	86.0291	499.512	84.9487	499.512	85.8524	499.512	84.7519	499.512	85.6311	499.512	84.4748	499.512	85.2416	499.512	83.9169	499.512	84.5339	499.512	82.8917	499.512	83.356	499.512	81.3492	499.512	81.6563	499.512	79.6896	499.512	79.7886	499.512	79.0483	499.512	78.8559	499.512	79.8822	499.512	79.4654	499.512	81.0892	499.512	80.6383	499.512	81.8593	499.512	81.5674	499.512	82.0061
517.09	87.5658	517.09	87.4845	517.09	87.4997	517.09	87.2593	517.09	87.3066	517.09	86.9234	517.09	87.0276	517.09	86.5427	517.09	86.7245	517.09	86.1989	517.09	86.4773	517.09	85.9433	517.09	86.3559	517.09	85.7474	517.09	86.3535	517.09	85.4949	517.09	86.3379	517.09	85.0189	517.09	86.0984	517.09	84.1497	517.09	85.442	517.09	82.7637	517.09	84.2518	517.09	80.8918	517.09	82.5231	517.09	79.0922	517.09	80.4975	517.09	78.7368	517.09	79.0359	517.09	79.9781	517.09	79.2432	517.09	81.3718	517.09	80.5491	517.09	82.1882	517.09	81.7293	517.09	82.3052
536.133	87.8764	536.133	87.7317	536.133	87.8068	536.133	87.4166	536.133	87.5067	536.133	86.9878	536.133	86.9959	536.133	86.5086	536.133	86.329	536.133	86.0629	536.133	85.6037	536.133	85.7626	536.133	84.9773	536.133	85.665	536.133	84.6151	536.133	85.6382	536.133	84.532	536.133	85.4028	536.133	84.5269	536.133	84.7181	536.133	84.3168	536.133	83.4833	536.133	83.6713	536.133	81.761	536.133	82.4858	536.133	79.9137	536.133	80.9549	536.133	78.8962	536.133	79.8894	536.133	79.425	536.133	80.0891	536.133	80.6195	536.133	80.9633	536.133	81.5163	536.133	81.6486	536.133	81.8547
555.176	88.0102	555.176	87.9069	555.176	87.9707	555.176	87.6327	555.176	87.8119	555.176	87.1843	555.176	87.5374	555.176	86.5936	555.176	87.1505	555.176	85.9252	555.176	86.6914	555.176	85.2921	555.176	86.2496	555.176	84.8499	555.176	85.9144	555.176	84.6658	555.176	85.6684	555.176	84.5568	555.176	85.3497	555.176	84.1574	555.176	84.745	555.176	83.1228	555.176	83.6945	555.176	81.2722	555.176	82.1236	555.176	78.8629	555.176	80.0997	555.176	77.4124	555.176	78.2414	555.176	78.4017	555.176	78.075	555.176	80.1679	555.176	79.5518	555.176	81.3384	555.176	80.9815	555.176	81.6192
574.219	88.1826	574.219	88.0472	574.219	88.179	574.219	87.8007	574.219	87.9997	574.219	87.4468	574.219	87.6514	574.219	87.01	574.219	87.2013	574.219	86.5705	574.219	86.748	574.219	86.2217	574.219	86.3938	574.219	85.9824	574.219	86.2217	574.219	85.7743	574.219	86.2174	574.219	85.4681	574.219	86.197	574.219	84.882	574.219	85.8663	574.219	83.7596	574.219	84.9331	574.219	81.8807	574.219	83.1613	574.219	79.5173	574.219	80.498	574.219	78.2327	574.219	77.9036	574.219	78.9333	574.219	77.9655	574.219	80.1368	574.219	79.7321	574.219	81.011	574.219	80.9861	574.219	81.3579
594.727	88.2032	594.727	88.0643	594.727	88.1362	594.727	87.7202	594.727	87.9054	594.727	87.2275	594.727	87.5316	594.727	86.6354	594.727	86.994	594.727	85.9754	594.727	86.3036	594.727	85.4136	594.727	85.6153	594.727	85.2617	594.727	85.1964	594.727	85.5081	594.727	85.123	594.727	85.6904	594.727	85.1381	594.727	85.4048	594.727	84.9117	594.727	84.5011	594.727	84.21	594.727	82.9559	594.727	82.9096	594.727	80.8142	594.727	81.1174	594.727	78.6273	594.727	79.5463	594.727	78.269	594.727	79.3926	594.727	79.9018	594.727	80.4545	594.727	81.3748	594.727	81.5078	594.727	81.9001
615.234	88.4308	615.234	88.4171	615.234	88.3493	615.234	88.2403	615.234	88.1637	615.234	87.8119	615.234	87.8247	615.234	87.136	615.234	87.2993	615.234	86.3401	615.234	86.6056	615.234	85.5625	615.234	85.8465	615.234	84.9084	615.234	85.2353	615.234	84.5481	615.234	84.9823	615.234	84.5383	615.234	85.0396	615.234	84.564	615.234	85.0924	615.234	84.1414	615.234	84.7975	615.234	82.8435	615.234	83.8806	615.234	80.3797	615.234	82.1691	615.234	77.2892	615.234	79.8597	615.234	76.66	615.234	78.1555	615.234	78.4868	615.234	78.372	615.234	79.8476	615.234	79.4816	615.234	80.1435
637.207	88.7458	637.207	88.5388	637.207	88.739	637.207	88.1918	637.207	88.4756	637.207	87.7471	637.207	87.974	637.207	87.1873	637.207	87.292	637.207	86.5	637.207	86.4831	637.207	85.7705	637.207	85.6123	637.207	85.1947	637.207	84.9043	637.207	84.9731	637.207	84.7604	637.207	85.0477	637.207	85.171	637.207	85.0165	637.207	85.513	637.207	84.4879	637.207	85.2236	637.207	83.3458	637.207	84.0802	637.207	81.8141	637.207	82.1486	637.207	80.5791	637.207	79.9169	637.207	80.4905	637.207	78.6746	637.207	81.2453	637.207	79.3123	637.207	81.7844	637.207	80.6525	637.207	81.592
659.18	89.2867	659.18	89.2185	659.18	89.1791	659.18	88.9329	659.18	88.9422	659.18	88.4377	659.18	88.5558	659.18	87.7496	659.18	87.9664	659.18	86.8704	659.18	87.204	659.18	85.8584	659.18	86.4022	659.18	84.868	659.18	85.6435	659.18	84.0443	659.18	84.8971	659.18	83.4594	659.18	84.1984	659.18	83.0959	659.18	83.6363	659.18	82.7211	659.18	83.0903	659.18	81.9557	659.18	82.2588	659.18	80.616	659.18	80.9525	659.18	79.159	659.18	79.5956	659.18	78.6426	659.18	79.4183	659.18	79.2529	659.18	80.3364	659.18	80.2299	659.18	81.0212	659.18	80.9501
682.617	89.2841	682.617	89.1715	682.617	89.2442	682.617	88.946	682.617	88.9823	682.617	88.5538	682.617	88.481	682.617	87.9214	682.617	87.7589	682.617	87.0929	682.617	86.8558	682.617	86.2982	682.617	85.9226	682.617	85.8032	682.617	85.212	682.617	85.5873	682.617	84.7972	682.617	85.3985	682.617	84.5494	682.617	85.0127	682.617	84.3366	682.617	84.1306	682.617	83.8223	682.617	82.4047	682.617	82.5093	682.617	79.8444	682.617	80.3484	682.617	77.4925	682.617	78.4572	682.617	77.709	682.617	78.4951	682.617	79.7703	682.617	79.8965	682.617	81.2332	682.617	81.151	682.617	81.6442
707.52	89.0028	707.52	88.9594	707.52	88.8887	707.52	88.6619	707.52	88.6476	707.52	88.09	707.52	88.2379	707.52	87.3751	707.52	87.6169	707.52	86.6038	707.52	86.7621	707.52	85.685	707.52	85.6854	707.52	84.7891	707.52	84.6675	707.52	84.5474	707.52	84.4219	707.52	84.8263	707.52	84.9655	707.52	84.7884	707.52	85.2315	707.52	84.0242	707.52	84.5068	707.52	82.3905	707.52	82.7205	707.52	79.9231	707.52	80.2069	707.52	77.8929	707.52	77.8799	707.52	78.7438	707.52	77.5239	707.52	80.883	707.52	79.3864	707.52	82.2704	707.52	81.428	707.52	82.4702
732.422	89.1955	732.422	89.1122	732.422	89.1245	732.422	88.9185	732.422	88.8875	732.422	88.5879	732.422	88.5004	732.422	87.9812	732.422	87.952	732.422	86.9987	732.422	87.1961	732.422	85.745	732.422	86.2355	732.422	84.5309	732.422	85.2087	732.422	83.7792	732.422	84.3234	732.422	83.7524	732.422	83.8486	732.422	84.0838	732.422	83.9392	732.422	84.0021	732.422	84.0253	732.422	82.9271	732.422	83.2047	732.422	80.693	732.422	80.9097	732.422	78.3143	732.422	77.6355	732.422	78.241	732.422	77.0392	732.422	79.4803	732.422	79.041	732.422	80.4345	732.422	80.4712	732.422	80.8589
757.324	89.4284	757.324	89.3666	757.324	89.3793	757.324	89.1411	757.324	89.2055	757.324	88.6987	757.324	88.8286	757.324	88.0632	757.324	88.1674	757.324	87.3036	757.324	87.2433	757.324	86.4895	757.324	86.1772	757.324	85.7702	757.324	85.1295	757.324	85.3732	757.324	84.3965	757.324	85.1912	757.324	84.2003	757.324	84.799	757.324	84.2817	757.324	84.0035	757.324	84.188	757.324	82.6942	757.324	83.5072	757.324	80.7203	757.324	81.7985	757.324	78.8432	757.324	78.9076	757.324	78.8314	757.324	77.1502	757.324	80.2247	757.324	79.1402	757.324	81.4104	757.324	81.0294	757.324	81.7204
785.156	89.5685	785.156	89.2832	785.156	89.7279	785.156	88.8961	785.156	89.6567	785.156	88.4077	785.156	89.3127	785.156	87.8154	785.156	88.8214	785.156	86.9826	785.156	88.2042	785.156	85.679	785.156	87.1983	785.156	83.9833	785.156	85.7467	785.156	82.6515	785.156	84.635	785.156	82.4719	785.156	84.3863	785.156	83.2126	785.156	84.149	785.156	83.6899	785.156	83.508	785.156	82.8333	785.156	82.408	785.156	80.5478	785.156	80.5258	785.156	78.5321	785.156	78.2388	785.156	79.1065	785.156	78.0525	785.156	81.0042	785.156	80.4183	785.156	82.6209	785.156	82.5275	785.156	83.2589
811.523	89.291	811.523	89.4113	811.523	88.9965	811.523	89.1907	811.523	88.6297	811.523	88.5583	811.523	88.27	811.523	87.7353	811.523	87.9002	811.523	86.9888	811.523	87.2747	811.523	86.1734	811.523	86.1746	811.523	85.1228	811.523	84.7916	811.523	84.3404	811.523	83.6713	811.523	84.2215	811.523	83.4013	811.523	83.971	811.523	84.0264	811.523	83.1689	811.523	84.4409	811.523	81.8697	811.523	83.6282	811.523	79.3249	811.523	81.4616	811.523	75.1218	811.523	78.5227	811.523	75.0712	811.523	76.6613	811.523	78.5171	811.523	78.0865	811.523	80.5066	811.523	80.0585	811.523	80.9349
840.82	89.2321	840.82	89.115	840.82	89.2446	840.82	88.9036	840.82	89.1212	840.82	88.5366	840.82	88.7478	840.82	87.8275	840.82	88.129	840.82	86.7398	840.82	87.4711	840.82	85.4545	840.82	86.7081	840.82	83.8529	840.82	85.5027	840.82	81.8243	840.82	84.1367	840.82	80.8445	840.82	83.5345	840.82	81.6673	840.82	83.3983	840.82	82.1927	840.82	83.0546	840.82	81.6507	840.82	82.2683	840.82	79.8616	840.82	80.3897	840.82	76.5462	840.82	77.1075	840.82	75.3005	840.82	75.2175	840.82	78.0361	840.82	77.4912	840.82	79.949	840.82	79.614	840.82	80.4295
870.117	89.6462	870.117	89.5232	870.117	89.4903	870.117	89.1503	870.117	89.0888	870.117	88.6712	870.117	88.4651	870.117	88.1421	870.117	87.6953	870.117	87.3426	870.117	86.9376	870.117	86.082	870.117	86.2067	870.117	84.5712	870.117	85.2939	870.117	83.4196	870.117	84.2541	870.117	82.587	870.117	83.7992	870.117	81.9057	870.117	84.0782	870.117	82.0786	870.117	83.9946	870.117	81.841	870.117	83.0998	870.117	79.7565	870.117	81.5378	870.117	75.9307	870.117	79.0974	870.117	74.134	870.117	76.9544	870.117	77.0941	870.117	77.4418	870.117	78.9179	870.117	78.5383	870.117	79.1226
900.879	89.2657	900.879	89.0128	900.879	89.148	900.879	88.4874	900.879	88.8908	900.879	88.0151	900.879	88.6518	900.879	87.613	900.879	88.3072	900.879	86.9437	900.879	87.7016	900.879	85.8119	900.879	86.7305	900.879	84.169	900.879	85.2295	900.879	82.1201	900.879	83.3164	900.879	80.9561	900.879	82.0843	900.879	81.5637	900.879	82.2621	900.879	82.1081	900.879	82.7004	900.879	81.5247	900.879	82.3709	900.879	79.6496	900.879	80.8385	900.879	75.9043	900.879	78.0776	900.879	72.3214	900.879	75.1804	900.879	76.0846	900.879	76.1892	900.879	78.7071	900.879	78.9581	900.879	79.7325
933.105	89.22	933.105	89.135	933.105	89.2141	933.105	88.9252	933.105	88.8867	933.105	88.3161	933.105	88.2675	933.105	87.2882	933.105	87.5903	933.105	86.2861	933.105	86.7053	933.105	85.5592	933.105	85.5981	933.105	84.6819	933.105	84.6917	933.105	83.2915	933.105	83.7945	933.105	81.9368	933.105	83.047	933.105	81.6665	933.105	83.2288	933.105	82.1062	933.105	83.4816	933.105	81.8616	933.105	82.6486	933.105	79.8948	933.105	80.7602	933.105	76.3689	933.105	78.612	933.105	75.141	933.105	76.8054	933.105	77.4812	933.105	77.3955	933.105	79.4865	933.105	79.2779	933.105	80.1527
965.332	88.8885	965.332	88.612	965.332	88.7537	965.332	88.0647	965.332	88.3618	965.332	87.5438	965.332	87.8407	965.332	86.9221	965.332	87.1711	965.332	85.9651	965.332	86.4665	965.332	84.9904	965.332	85.7253	965.332	83.8448	965.332	84.4548	965.332	81.9479	965.332	82.5086	965.332	80.1892	965.332	80.6534	965.332	80.5004	965.332	79.9758	965.332	81.1229	965.332	80.674	965.332	80.8448	965.332	81.2488	965.332	79.7551	965.332	80.1743	965.332	77.2062	965.332	77.372	965.332	75.2791	965.332	75.2522	965.332	77.9897	965.332	76.655	965.332	79.5278	965.332	78.0492	965.332	79.0184
1,000.49	88.6953	1,000.49	88.5548	1,000.49	88.5829	1,000.49	88.1757	1,000.49	88.2154	1,000.49	87.499	1,000.49	87.563	1,000.49	86.558	1,000.49	86.6565	1,000.49	85.6207	1,000.49	85.6236	1,000.49	84.7102	1,000.49	84.4915	1,000.49	83.5072	1,000.49	83.2868	1,000.49	82.2037	1,000.49	82.0622	1,000.49	81.08	1,000.49	81.1402	1,000.49	80.3629	1,000.49	80.9059	1,000.49	80.8032	1,000.49	80.9772	1,000.49	80.8552	1,000.49	80.6987	1,000.49	78.9606	1,000.49	79.5998	1,000.49	75.866	1,000.49	77.6656	1,000.49	75.1394	1,000.49	75.3228	1,000.49	77.3161	1,000.49	75.9326	1,000.49	79.2792	1,000.49	78.7166	1,000.49	79.8213
1,035.64	88.7673	1,035.64	88.6833	1,035.64	88.497	1,035.64	88.1509	1,035.64	87.9539	1,035.64	87.3021	1,035.64	87.1457	1,035.64	86.4058	1,035.64	86.1297	1,035.64	85.4197	1,035.64	85.1803	1,035.64	84.267	1,035.64	84.3898	1,035.64	83.3041	1,035.64	83.2512	1,035.64	81.9855	1,035.64	81.3583	1,035.64	80.0424	1,035.64	79.2592	1,035.64	79.883	1,035.64	78.591	1,035.64	80.5489	1,035.64	79.5847	1,035.64	80.2346	1,035.64	80.4707	1,035.64	78.8719	1,035.64	79.8104	1,035.64	75.8964	1,035.64	76.8527	1,035.64	72.2584	1,035.64	74.6005	1,035.64	75.2594	1,035.64	75.4908	1,035.64	78.2771	1,035.64	77.7376	1,035.64	79.0844
1,072.27	88.3545	1,072.27	88.2612	1,072.27	88.2289	1,072.27	87.747	1,072.27	87.9093	1,072.27	86.7907	1,072.27	87.1712	1,072.27	85.6641	1,072.27	85.9876	1,072.27	84.4435	1,072.27	84.7768	1,072.27	83.1663	1,072.27	83.6303	1,072.27	82.0032	1,072.27	82.3587	1,072.27	81.0399	1,072.27	80.7499	1,072.27	80.0151	1,072.27	79.6518	1,072.27	79.3674	1,072.27	79.5754	1,072.27	80.3158	1,072.27	79.7644	1,072.27	80.7732	1,072.27	80.6765	1,072.27	79.3595	1,072.27	80.523	1,072.27	76.4161	1,072.27	77.9077	1,072.27	74.853	1,072.27	75.1674	1,072.27	76.5145	1,072.27	75.9845	1,072.27	78.1565	1,072.27	77.9597	1,072.27	78.7916
1,108.89	88.5542	1,108.89	88.125	1,108.89	88.5957	1,108.89	87.5494	1,108.89	88.1541	1,108.89	86.9888	1,108.89	87.186	1,108.89	85.9831	1,108.89	86.0585	1,108.89	84.6049	1,108.89	84.8808	1,108.89	83.6966	1,108.89	83.6646	1,108.89	82.72	1,108.89	82.7977	1,108.89	80.8887	1,108.89	81.5514	1,108.89	79.4555	1,108.89	79.5833	1,108.89	78.5938	1,108.89	77.8877	1,108.89	79.0846	1,108.89	78	1,108.89	80.019	1,108.89	79.4227	1,108.89	78.761	1,108.89	79.1854	1,108.89	75.8858	1,108.89	77.6096	1,108.89	74.268	1,108.89	74.4748	1,108.89	76.3843	1,108.89	74.2401	1,108.89	78.0655	1,108.89	77.627	1,108.89	78.908
1,148.44	88.5735	1,148.44	88.5997	1,148.44	88.4285	1,148.44	88.3446	1,148.44	88.1233	1,148.44	87.6564	1,148.44	87.6295	1,148.44	86.8392	1,148.44	86.5318	1,148.44	85.5326	1,148.44	85.2829	1,148.44	83.714	1,148.44	84.3922	1,148.44	82.2505	1,148.44	83.0844	1,148.44	80.9678	1,148.44	81.3048	1,148.44	79.0899	1,148.44	78.4898	1,148.44	77.5438	1,148.44	77.9075	1,148.44	77.9153	1,148.44	78.1233	1,148.44	79.0159	1,148.44	78.234	1,148.44	77.9964	1,148.44	79.4577	1,148.44	76.0061	1,148.44	78.028	1,148.44	74.9386	1,148.44	76.3081	1,148.44	77.303	1,148.44	77.7952	1,148.44	79.0966	1,148.44	80.1377	1,148.44	80.3343
1,189.45	89.1889	1,189.45	88.885	1,189.45	89.124	1,189.45	88.4669	1,189.45	88.5823	1,189.45	87.8523	1,189.45	88.074	1,189.45	87.077	1,189.45	87.55	1,189.45	86.1299	1,189.45	86.4884	1,189.45	84.5849	1,189.45	85.0186	1,189.45	82.5537	1,189.45	83.9787	1,189.45	80.647	1,189.45	83.3653	1,189.45	78.7858	1,189.45	81.3949	1,189.45	78.4151	1,189.45	79.0801	1,189.45	77.4193	1,189.45	76.8336	1,189.45	77.0296	1,189.45	77.8989	1,189.45	76.9271	1,189.45	78.8494	1,189.45	76.0038	1,189.45	77.5889	1,189.45	74.1538	1,189.45	76.9824	1,189.45	77.7985	1,189.45	77.988	1,189.45	80.3597	1,189.45	79.7883	1,189.45	80.9403
1,230.47	89.8965	1,230.47	89.5632	1,230.47	89.7292	1,230.47	89.0082	1,230.47	89.1432	1,230.47	87.9788	1,230.47	88.458	1,230.47	86.6515	1,230.47	87.4592	1,230.47	85.4248	1,230.47	86.2505	1,230.47	84.2401	1,230.47	85.0208	1,230.47	82.7317	1,230.47	83.2288	1,230.47	80.6161	1,230.47	81.5469	1,230.47	78.8775	1,230.47	79.8479	1,230.47	77.9361	1,230.47	78.1167	1,230.47	76.6695	1,230.47	78.3814	1,230.47	75.41	1,230.47	77.4339	1,230.47	73.3144	1,230.47	75.7853	1,230.47	71.4369	1,230.47	74.8773	1,230.47	72.4323	1,230.47	75.2157	1,230.47	76.206	1,230.47	77.058	1,230.47	78.3097	1,230.47	78.8743	1,230.47	79.1156
1,274.41	90.3442	1,274.41	90.1619	1,274.41	90.179	1,274.41	89.4839	1,274.41	89.7294	1,274.41	88.2892	1,274.41	89.065	1,274.41	86.9677	1,274.41	88.0249	1,274.41	85.6203	1,274.41	86.4155	1,274.41	84.0453	1,274.41	85.0645	1,274.41	83.2389	1,274.41	84.1332	1,274.41	82.076	1,274.41	82.9369	1,274.41	78.7434	1,274.41	80.653	1,274.41	76.3966	1,274.41	79.5901	1,274.41	76.9543	1,274.41	78.6865	1,274.41	77.1934	1,274.41	77.5809	1,274.41	76.6406	1,274.41	77.0418	1,274.41	74.475	1,274.41	75.2181	1,274.41	73.633	1,274.41	73.2698	1,274.41	76.1619	1,274.41	77.2184	1,274.41	78.6515	1,274.41	79.1395	1,274.41	79.2524
1,319.82	90.3525	1,319.82	90.0683	1,319.82	90.3239	1,319.82	89.5897	1,319.82	89.8053	1,319.82	88.7871	1,319.82	88.9295	1,319.82	87.6789	1,319.82	87.8495	1,319.82	86.3457	1,319.82	86.3931	1,319.82	84.548	1,319.82	84.7373	1,319.82	83.0471	1,319.82	83.4293	1,319.82	81.424	1,319.82	82.5956	1,319.82	78.1519	1,319.82	80.8177	1,319.82	76.7355	1,319.82	77.8203	1,319.82	77.835	1,319.82	77.9231	1,319.82	77.5957	1,319.82	79.2726	1,319.82	76.8742	1,319.82	78.7608	1,319.82	74.6636	1,319.82	75.644	1,319.82	73.743	1,319.82	73.8101	1,319.82	76.1135	1,319.82	75.8755	1,319.82	78.9722	1,319.82	78.122	1,319.82	78.9294
1,366.7	90.3898	1,366.7	90.1693	1,366.7	90.2888	1,366.7	89.6319	1,366.7	89.9209	1,366.7	88.8664	1,366.7	89.236	1,366.7	87.682	1,366.7	87.9854	1,366.7	86.3206	1,366.7	86.0466	1,366.7	84.6658	1,366.7	84.457	1,366.7	83.3811	1,366.7	83.1577	1,366.7	82.3433	1,366.7	82.1177	1,366.7	80.127	1,366.7	80.4067	1,366.7	79.0659	1,366.7	77.5714	1,366.7	78.4682	1,366.7	78.5877	1,366.7	78.3298	1,366.7	78.0335	1,366.7	76.9225	1,366.7	76.9245	1,366.7	74.4212	1,366.7	74.6801	1,366.7	74.4557	1,366.7	72.5803	1,366.7	76.5896	1,366.7	75.4915	1,366.7	79.0178	1,366.7	78.8784	1,366.7	79.9517
1,413.57	89.8199	1,413.57	89.6186	1,413.57	89.6501	1,413.57	89.2081	1,413.57	89.1718	1,413.57	88.4523	1,413.57	88.4595	1,413.57	87.264	1,413.57	87.3275	1,413.57	85.7721	1,413.57	85.3907	1,413.57	84.192	1,413.57	83.4391	1,413.57	83.1829	1,413.57	81.7842	1,413.57	82.3099	1,413.57	81.194	1,413.57	81.2158	1,413.57	79.6234	1,413.57	78.3276	1,413.57	77.3522	1,413.57	76.3806	1,413.57	76.7604	1,413.57	75.0248	1,413.57	76.6442	1,413.57	74.9137	1,413.57	76.5995	1,413.57	73.203	1,413.57	75.2846	1,413.57	73.9749	1,413.57	72.8669	1,413.57	76.626	1,413.57	76.5926	1,413.57	79.0091	1,413.57	78.7741	1,413.57	79.3277
1,463.38	88.8245	1,463.38	88.7864	1,463.38	88.6138	1,463.38	88.5745	1,463.38	88.2432	1,463.38	87.6878	1,463.38	87.554	1,463.38	86.5098	1,463.38	86.4609	1,463.38	84.9953	1,463.38	85.0488	1,463.38	82.4927	1,463.38	83.4312	1,463.38	81.3104	1,463.38	81.7083	1,463.38	80.7898	1,463.38	80.5736	1,463.38	78.7549	1,463.38	79.3063	1,463.38	76.8288	1,463.38	74.4286	1,463.38	77.7023	1,463.38	74.8904	1,463.38	77.3682	1,463.38	76.8263	1,463.38	74.3765	1,463.38	75.154	1,463.38	70.5769	1,463.38	72.6723	1,463.38	73.0651	1,463.38	72.1326	1,463.38	76.5679	1,463.38	75.252	1,463.38	78.7136	1,463.38	77.7821	1,463.38	78.3284
1,516.11	87.8169	1,516.11	87.5675	1,516.11	87.7751	1,516.11	87.0218	1,516.11	87.1829	1,516.11	86.2225	1,516.11	86.2696	1,516.11	85.1833	1,516.11	85.4023	1,516.11	83.0488	1,516.11	84.6283	1,516.11	80.9583	1,516.11	82.4424	1,516.11	79.8358	1,516.11	80.6869	1,516.11	80.4545	1,516.11	80.0257	1,516.11	78.4423	1,516.11	78.723	1,516.11	75.0568	1,516.11	73.6415	1,516.11	75.8035	1,516.11	73.0038	1,516.11	77.7141	1,516.11	75.5378	1,516.11	75.0119	1,516.11	74.8238	1,516.11	66.9983	1,516.11	70.43	1,516.11	70.3488	1,516.11	69.9858	1,516.11	74.928	1,516.11	75.2179	1,516.11	78.1105	1,516.11	78.2371	1,516.11	78.9987
1,568.85	87.3058	1,568.85	86.6097	1,568.85	87.0897	1,568.85	85.6063	1,568.85	85.9686	1,568.85	84.285	1,568.85	85.4313	1,568.85	83.3672	1,568.85	84.1499	1,568.85	82.3283	1,568.85	83.3527	1,568.85	80.5557	1,568.85	81.6871	1,568.85	77.1177	1,568.85	78.1214	1,568.85	76.6381	1,568.85	76.989	1,568.85	77.4199	1,568.85	77.8386	1,568.85	72.6748	1,568.85	76.7575	1,568.85	71.6507	1,568.85	72.797	1,568.85	76.7531	1,568.85	73.2478	1,568.85	74.9346	1,568.85	74.7815	1,568.85	68.3947	1,568.85	69.6424	1,568.85	70.2041	1,568.85	60.9444	1,568.85	76.1337	1,568.85	73.7501	1,568.85	79.058	1,568.85	76.9497	1,568.85	78.5788
1,624.51	87.0395	1,624.51	86.5454	1,624.51	86.8972	1,624.51	85.0574	1,624.51	85.8996	1,624.51	83.4733	1,624.51	84.7435	1,624.51	81.7183	1,624.51	83.1222	1,624.51	82.087	1,624.51	82.0518	1,624.51	80.4877	1,624.51	81.6024	1,624.51	76.4929	1,624.51	80.048	1,624.51	75.2293	1,624.51	78.3069	1,624.51	77.0114	1,624.51	78.6657	1,624.51	74.2903	1,624.51	78.2599	1,624.51	68.5383	1,624.51	72.8033	1,624.51	74.7236	1,624.51	74.3559	1,624.51	75.4338	1,624.51	75.8047	1,624.51	71.7093	1,624.51	73.1439	1,624.51	62.4768	1,624.51	62.3889	1,624.51	74.07	1,624.51	70.8374	1,624.51	77.5692	1,624.51	76.9117	1,624.51	78.9593
1,681.64	87.2364	1,681.64	86.9323	1,681.64	87.2166	1,681.64	85.7815	1,681.64	86.486	1,681.64	84.455	1,681.64	84.9676	1,681.64	82.4297	1,681.64	83.0234	1,681.64	81.2251	1,681.64	82.0361	1,681.64	80.7858	1,681.64	81.9195	1,681.64	79.2902	1,681.64	80.7669	1,681.64	76.726	1,681.64	77.6807	1,681.64	75.4898	1,681.64	78.1316	1,681.64	75.1818	1,681.64	78.4348	1,681.64	67.495	1,681.64	71.5806	1,681.64	73.0584	1,681.64	73.6966	1,681.64	75.94	1,681.64	76.8327	1,681.64	74.8213	1,681.64	76.3174	1,681.64	62.678	1,681.64	66.9841	1,681.64	72.3042	1,681.64	69.3339	1,681.64	76.4179	1,681.64	76.8523	1,681.64	78.7147
1,741.7	88.3184	1,741.7	88.142	1,741.7	88.3765	1,741.7	87.2622	1,741.7	87.5302	1,741.7	86.3586	1,741.7	86.2651	1,741.7	84.2161	1,741.7	84.9197	1,741.7	82.4031	1,741.7	82.4564	1,741.7	81.478	1,741.7	81.8451	1,741.7	81.4403	1,741.7	80.8361	1,741.7	78.3722	1,741.7	78.9877	1,741.7	75.8149	1,741.7	77.1044	1,741.7	76.0988	1,741.7	77.8266	1,741.7	73.8104	1,741.7	72.1955	1,741.7	71.908	1,741.7	72.8486	1,741.7	75.7459	1,741.7	77.2473	1,741.7	75.5672	1,741.7	75.9549	1,741.7	67.4523	1,741.7	67.7762	1,741.7	68.5246	1,741.7	66.7069	1,741.7	76.1039	1,741.7	76.2418	1,741.7	77.2377
1,803.22	88.7928	1,803.22	88.4234	1,803.22	88.5563	1,803.22	88.0754	1,803.22	87.8783	1,803.22	87.7412	1,803.22	86.6707	1,803.22	86.1836	1,803.22	85.8055	1,803.22	83.9622	1,803.22	83.0892	1,803.22	82.9553	1,803.22	82.2251	1,803.22	81.9184	1,803.22	80.7261	1,803.22	81.0251	1,803.22	79.269	1,803.22	78.2449	1,803.22	77.8705	1,803.22	78.4842	1,803.22	76.539	1,803.22	76.3722	1,803.22	75.816	1,803.22	71.5945	1,803.22	74.1799	1,803.22	76.161	1,803.22	74.7414	1,803.22	76.3332	1,803.22	75.4288	1,803.22	72.7188	1,803.22	70.2613	1,803.22	69.9477	1,803.22	65.3516	1,803.22	74.3798	1,803.22	74.1801	1,803.22	78.0086
1,866.21	87.9123	1,866.21	87.6562	1,866.21	87.7304	1,866.21	87.7949	1,866.21	87.1666	1,866.21	87.0781	1,866.21	86.1693	1,866.21	86.0236	1,866.21	84.5399	1,866.21	84.4599	1,866.21	82.932	1,866.21	82.8431	1,866.21	80.7722	1,866.21	81.7621	1,866.21	79.4782	1,866.21	80.2299	1,866.21	78.8305	1,866.21	78.1074	1,866.21	75.4154	1,866.21	78.4026	1,866.21	75.3227	1,866.21	75.692	1,866.21	76.8278	1,866.21	73.1373	1,866.21	70.7519	1,866.21	75.3319	1,866.21	71.4767	1,866.21	75.6645	1,866.21	73.9238	1,866.21	73.67	1,866.21	73.3453	1,866.21	65.2585	1,866.21	61.3017	1,866.21	71.9118	1,866.21	69.4848	1,866.21	76.0408
1,932.13	87.8484	1,932.13	87.5704	1,932.13	87.3715	1,932.13	87.1939	1,932.13	86.8991	1,932.13	86.5363	1,932.13	86.0574	1,932.13	85.5526	1,932.13	84.8944	1,932.13	83.8406	1,932.13	83.0352	1,932.13	82.3871	1,932.13	81.3736	1,932.13	81.5226	1,932.13	79.9863	1,932.13	79.8133	1,932.13	78.2896	1,932.13	78.8008	1,932.13	77.4587	1,932.13	78.0388	1,932.13	76.9962	1,932.13	75.3777	1,932.13	73.7501	1,932.13	73.1763	1,932.13	74.0679	1,932.13	74.8587	1,932.13	73.3153	1,932.13	76.2678	1,932.13	74.0729	1,932.13	74.9444	1,932.13	73.5519	1,932.13	69.5319	1,932.13	67.4161	1,932.13	73.7821	1,932.13	69.2184	1,932.13	73.6144
1,999.51	88.1539	1,999.51	88.1125	1,999.51	88.1551	1,999.51	87.4544	1,999.51	87.4723	1,999.51	86.7482	1,999.51	86.5825	1,999.51	85.775	1,999.51	85.7729	1,999.51	83.9922	1,999.51	84.2143	1,999.51	82.2227	1,999.51	82.3038	1,999.51	80.8701	1,999.51	80.4446	1,999.51	79.1982	1,999.51	79.6525	1,999.51	77.2999	1,999.51	77.1203	1,999.51	77.6866	1,999.51	77.0748	1,999.51	75.6435	1,999.51	75.2373	1,999.51	73.7188	1,999.51	73.2456	1,999.51	74.0414	1,999.51	74.0653	1,999.51	73.8337	1,999.51	73.8891	1,999.51	72.6715	1,999.51	74.3435	1,999.51	69.9371	1,999.51	70.6239	1,999.51	72.4093	1,999.51	71.7476	1,999.51	73.733
2,069.82	89.1558	2,069.82	88.8462	2,069.82	88.9766	2,069.82	88.055	2,069.82	88.223	2,069.82	87.0878	2,069.82	87.2349	2,069.82	86.2477	2,069.82	86.1767	2,069.82	84.782	2,069.82	85.0825	2,069.82	82.5014	2,069.82	83.4133	2,069.82	80.4533	2,069.82	81.8744	2,069.82	79.4821	2,069.82	80.4385	2,069.82	76.4171	2,069.82	78.6407	2,069.82	76.6549	2,069.82	77.2791	2,069.82	75.1506	2,069.82	75.6468	2,069.82	72.5161	2,069.82	73.6844	2,069.82	73.2988	2,069.82	74.7146	2,069.82	73.2437	2,069.82	74.1324	2,069.82	72.6415	2,069.82	72.2975	2,069.82	67.1409	2,069.82	68.3375	2,069.82	73.2358	2,069.82	71.9022	2,069.82	75.3265
2,143.07	89.3504	2,143.07	89.0789	2,143.07	88.9073	2,143.07	88.3668	2,143.07	88.3134	2,143.07	87.2635	2,143.07	87.4095	2,143.07	86.377	2,143.07	86.4958	2,143.07	85.3219	2,143.07	85.4626	2,143.07	83.7986	2,143.07	83.941	2,143.07	81.698	2,143.07	81.9974	2,143.07	79.7039	2,143.07	81.1082	2,143.07	77.4253	2,143.07	79.0207	2,143.07	77.0967	2,143.07	77.0004	2,143.07	76.4412	2,143.07	76.9044	2,143.07	73.5507	2,143.07	72.5666	2,143.07	72.8175	2,143.07	73.6038	2,143.07	73.7713	2,143.07	74.8009	2,143.07	73.1986	2,143.07	74.0301	2,143.07	67.545	2,143.07	67.9285	2,143.07	72.0372	2,143.07	70.5327	2,143.07	73.2576
2,219.24	88.7269	2,219.24	88.6194	2,219.24	88.6513	2,219.24	87.9841	2,219.24	88.0154	2,219.24	87.1601	2,219.24	87.0801	2,219.24	85.8839	2,219.24	85.9335	2,219.24	84.8624	2,219.24	84.9011	2,219.24	83.9242	2,219.24	83.3335	2,219.24	81.9696	2,219.24	81.5033	2,219.24	80.3255	2,219.24	80.2351	2,219.24	78.168	2,219.24	77.8644	2,219.24	76.6837	2,219.24	76.231	2,219.24	76.4785	2,219.24	75.5676	2,219.24	75.5511	2,219.24	72.7924	2,219.24	74.2619	2,219.24	71.0471	2,219.24	73.6486	2,219.24	72.5323	2,219.24	74.6715	2,219.24	72.3181	2,219.24	70.1796	2,219.24	69.0911	2,219.24	68.5356	2,219.24	67.0357	2,219.24	71.8739
2,296.88	88.4675	2,296.88	88.1034	2,296.88	88.5103	2,296.88	87.4489	2,296.88	88.0969	2,296.88	86.4493	2,296.88	87.3568	2,296.88	85.1864	2,296.88	86.1132	2,296.88	84.1411	2,296.88	84.9036	2,296.88	82.9407	2,296.88	83.4701	2,296.88	81.3318	2,296.88	81.7205	2,296.88	80.1549	2,296.88	80.1065	2,296.88	78.1261	2,296.88	78.3956	2,296.88	76.1809	2,296.88	75.9014	2,296.88	74.9122	2,296.88	74.9887	2,296.88	74.3535	2,296.88	72.9919	2,296.88	72.9564	2,296.88	72.2427	2,296.88	72.8783	2,296.88	70.5007	2,296.88	75.0188	2,296.88	73.4359	2,296.88	70.4703	2,296.88	70.1226	2,296.88	68.0147	2,296.88	65.2243	2,296.88	71.6663
2,378.91	89.2404	2,378.91	88.7669	2,378.91	89.3577	2,378.91	87.9513	2,378.91	89.1085	2,378.91	86.8884	2,378.91	88.6357	2,378.91	85.4128	2,378.91	87.3177	2,378.91	83.9186	2,378.91	85.9732	2,378.91	82.6795	2,378.91	84.7051	2,378.91	80.7112	2,378.91	82.9791	2,378.91	79.8933	2,378.91	80.9082	2,378.91	76.8945	2,378.91	79.5803	2,378.91	74.3877	2,378.91	76.7617	2,378.91	74.4933	2,378.91	76.8623	2,378.91	72.6788	2,378.91	73.6609	2,378.91	73.8485	2,378.91	73.1762	2,378.91	70.7962	2,378.91	73.7113	2,378.91	73.3145	2,378.91	73.5952	2,378.91	69.3125	2,378.91	73.4825	2,378.91	68.4007	2,378.91	68.7495	2,378.91	68.9194
2,462.4	91.0577	2,462.4	90.4337	2,462.4	90.9607	2,462.4	89.8878	2,462.4	90.6121	2,462.4	88.965	2,462.4	89.9118	2,462.4	87.8269	2,462.4	88.7346	2,462.4	85.9582	2,462.4	87.3449	2,462.4	84.031	2,462.4	85.5676	2,462.4	82.3755	2,462.4	83.8885	2,462.4	80.2537	2,462.4	81.9283	2,462.4	78.2672	2,462.4	79.8173	2,462.4	74.9765	2,462.4	77.2837	2,462.4	75.0863	2,462.4	76.9664	2,462.4	71.0458	2,462.4	73.4454	2,462.4	73.7904	2,462.4	74.4913	2,462.4	71.3746	2,462.4	72.878	2,462.4	73.9831	2,462.4	74.9333	2,462.4	72.3716	2,462.4	73.5517	2,462.4	64.9965	2,462.4	69.1196	2,462.4	68.8149
2,548.83	91.0865	2,548.83	90.778	2,548.83	90.8953	2,548.83	90.5234	2,548.83	90.5189	2,548.83	89.9745	2,548.83	89.6605	2,548.83	88.9474	2,548.83	88.791	2,548.83	87.5372	2,548.83	87.1904	2,548.83	85.415	2,548.83	85.5693	2,548.83	83.891	2,548.83	84.0207	2,548.83	80.6057	2,548.83	81.2993	2,548.83	79.9868	2,548.83	80.1087	2,548.83	76.5874	2,548.83	77.8671	2,548.83	76.8922	2,548.83	76.5537	2,548.83	74.3793	2,548.83	72.6432	2,548.83	74.042	2,548.83	74.9515	2,548.83	71.8239	2,548.83	71.085	2,548.83	75.0438	2,548.83	74.216	2,548.83	73.6404	2,548.83	73.4386	2,548.83	72.3151	2,548.83	68.5091	2,548.83	72.8011
2,639.65	90.255	2,639.65	89.9659	2,639.65	90.0542	2,639.65	89.7266	2,639.65	89.1993	2,639.65	88.9277	2,639.65	88.4435	2,639.65	88.3228	2,639.65	87.5887	2,639.65	87.6133	2,639.65	86.7997	2,639.65	85.4753	2,639.65	85.2765	2,639.65	84.3338	2,639.65	83.9089	2,639.65	82.3108	2,639.65	81.3977	2,639.65	80.9048	2,639.65	79.0483	2,639.65	78.1939	2,639.65	77.754	2,639.65	77.4705	2,639.65	75.9786	2,639.65	74.7562	2,639.65	75.2995	2,639.65	75.1982	2,639.65	71.6204	2,639.65	71.2581	2,639.65	72.4367	2,639.65	73.8756	2,639.65	70.2931	2,639.65	73.4041	2,639.65	73.9232	2,639.65	67.7694	2,639.65	69.6632	2,639.65	71.5614
2,731.93	88.8934	2,731.93	89.1591	2,731.93	89.3172	2,731.93	88.8084	2,731.93	88.9308	2,731.93	88.278	2,731.93	88.4725	2,731.93	87.4417	2,731.93	87.6501	2,731.93	86.2709	2,731.93	86.6414	2,731.93	84.6277	2,731.93	84.9666	2,731.93	82.39	2,731.93	82.9788	2,731.93	81.4438	2,731.93	82.1228	2,731.93	79.8734	2,731.93	80.0768	2,731.93	77.6407	2,731.93	78.1578	2,731.93	76.1022	2,731.93	74.8285	2,731.93	74.3881	2,731.93	75.8176	2,731.93	72.3684	2,731.93	69.1881	2,731.93	72.6808	2,731.93	71.8051	2,731.93	71.7969	2,731.93	70.3461	2,731.93	70.8333	2,731.93	72.499	2,731.93	68.2152	2,731.93	66.0247	2,731.93	70.7673
2,828.61	89.3848	2,828.61	89.7857	2,828.61	89.6246	2,828.61	89.0913	2,828.61	89.764	2,828.61	88.8475	2,828.61	89.4544	2,828.61	87.7136	2,828.61	88.8875	2,828.61	86.4825	2,828.61	87.5794	2,828.61	85.1459	2,828.61	86.1091	2,828.61	82.8536	2,828.61	83.9885	2,828.61	81.4903	2,828.61	82.9414	2,828.61	77.7957	2,828.61	80.3513	2,828.61	77.7264	2,828.61	78.019	2,828.61	73.6772	2,828.61	76.0136	2,828.61	73.2248	2,828.61	76.7126	2,828.61	72.5668	2,828.61	71.8477	2,828.61	71.3705	2,828.61	71.8141	2,828.61	72.1862	2,828.61	70.4825	2,828.61	73.8847	2,828.61	73.6696	2,828.61	68.6796	2,828.61	70.9499	2,828.61	71.9766
2,928.22	89.9696	2,928.22	90.0346	2,928.22	89.9667	2,928.22	89.8447	2,928.22	90.1185	2,928.22	89.6096	2,928.22	90.1609	2,928.22	88.477	2,928.22	89.7224	2,928.22	87.0069	2,928.22	88.4865	2,928.22	86.0995	2,928.22	87.1739	2,928.22	84.1309	2,928.22	85.0569	2,928.22	81.3672	2,928.22	82.7617	2,928.22	78.7048	2,928.22	80.614	2,928.22	78.4087	2,928.22	78.9983	2,928.22	74.1355	2,928.22	76.3304	2,928.22	75.1572	2,928.22	75.9969	2,928.22	70.7609	2,928.22	75.0229	2,928.22	73.4008	2,928.22	73.6667	2,928.22	70.9496	2,928.22	73.3865	2,928.22	72.3141	2,928.22	73.6708	2,928.22	67.4522	2,928.22	68.7722	2,928.22	68.5423
3,030.76	90.0057	3,030.76	89.8832	3,030.76	90.0944	3,030.76	89.7949	3,030.76	90.329	3,030.76	89.43	3,030.76	90.0981	3,030.76	88.5655	3,030.76	89.7521	3,030.76	87.5116	3,030.76	88.7107	3,030.76	85.8592	3,030.76	87.1989	3,030.76	84.2153	3,030.76	85.2393	3,030.76	80.9948	3,030.76	82.8504	3,030.76	80.2119	3,030.76	81.1636	3,030.76	78.0839	3,030.76	79.0207	3,030.76	73.8279	3,030.76	75.7403	3,030.76	74.3373	3,030.76	73.9657	3,030.76	72.1359	3,030.76	74.0653	3,030.76	70.2536	3,030.76	72.0589	3,030.76	72.9839	3,030.76	73.6374	3,030.76	74.1466	3,030.76	73.5669	3,030.76	71.3882	3,030.76	66.0315	3,030.76	72.5999
3,137.7	89.2408	3,137.7	89.2359	3,137.7	89.5617	3,137.7	89.849	3,137.7	89.8145	3,137.7	89.781	3,137.7	89.8217	3,137.7	89.103	3,137.7	89.2769	3,137.7	87.2282	3,137.7	88.4292	3,137.7	86.2012	3,137.7	86.9697	3,137.7	83.6399	3,137.7	84.7891	3,137.7	81.4132	3,137.7	82.9652	3,137.7	80.19	3,137.7	80.8105	3,137.7	77.7908	3,137.7	79.1345	3,137.7	76.6141	3,137.7	77.8441	3,137.7	75.038	3,137.7	75.426	3,137.7	71.6316	3,137.7	73.3139	3,137.7	71.2876	3,137.7	72.1827	3,137.7	71.7025	3,137.7	72.1348	3,137.7	73.4362	3,137.7	73.2588	3,137.7	65.754	3,137.7	64.6547	3,137.7	71.1353
3,249.02	88.0633	3,249.02	88.4804	3,249.02	88.6134	3,249.02	88.9947	3,249.02	89.0945	3,249.02	89.17	3,249.02	89.6884	3,249.02	88.659	3,249.02	89.2618	3,249.02	87.6347	3,249.02	88.3401	3,249.02	85.3853	3,249.02	86.7908	3,249.02	83.5294	3,249.02	85.1514	3,249.02	81.7828	3,249.02	82.766	3,249.02	80.5402	3,249.02	81.5369	3,249.02	77.8666	3,249.02	78.9291	3,249.02	76.729	3,249.02	78.0599	3,249.02	74.0206	3,249.02	76.1179	3,249.02	71.402	3,249.02	73.3384	3,249.02	71.9351	3,249.02	72.5697	3,249.02	70.4106	3,249.02	71.1075	3,249.02	73.6713	3,249.02	73.6157	3,249.02	66.8289	3,249.02	66.181	3,249.02	70.3166
3,363.28	87.9388	3,363.28	88.357	3,363.28	88.7402	3,363.28	89.0828	3,363.28	88.8704	3,363.28	88.9995	3,363.28	89.6488	3,363.28	88.1299	3,363.28	88.7124	3,363.28	86.7444	3,363.28	88.0915	3,363.28	84.826	3,363.28	85.9325	3,363.28	83.1649	3,363.28	84.8247	3,363.28	81.635	3,363.28	82.0404	3,363.28	79.4209	3,363.28	80.8284	3,363.28	76.5532	3,363.28	78.3618	3,363.28	75.9865	3,363.28	76.916	3,363.28	72.641	3,363.28	73.2854	3,363.28	72.4471	3,363.28	73.8797	3,363.28	71.9322	3,363.28	70.3958	3,363.28	67.7093	3,363.28	68.7859	3,363.28	69.4002	3,363.28	71.1278	3,363.28	62.5867	3,363.28	62.3199	3,363.28	70.9607
3,481.93	87.9162	3,481.93	88.8774	3,481.93	88.2149	3,481.93	89.2984	3,481.93	89.2166	3,481.93	89.5184	3,481.93	89.6464	3,481.93	88.8688	3,481.93	89.4365	3,481.93	88.0677	3,481.93	87.8429	3,481.93	85.1795	3,481.93	85.635	3,481.93	83.2433	3,481.93	83.914	3,481.93	81.6646	3,481.93	82.138	3,481.93	78.9357	3,481.93	80.3862	3,481.93	76.8801	3,481.93	77.7236	3,481.93	76.2534	3,481.93	77.5362	3,481.93	72.5543	3,481.93	73.2542	3,481.93	70.8484	3,481.93	72.9927	3,481.93	72.1172	3,481.93	72.0126	3,481.93	68.8758	3,481.93	71.4798	3,481.93	70.3508	3,481.93	72.2309	3,481.93	67.6455	3,481.93	67.3562	3,481.93	73.6844
3,604.98	88.2346	3,604.98	88.7304	3,604.98	88.1703	3,604.98	89.4032	3,604.98	89.2899	3,604.98	89.6082	3,604.98	89.4843	3,604.98	89.072	3,604.98	89.6173	3,604.98	87.2804	3,604.98	88.3724	3,604.98	85.622	3,604.98	86.9978	3,604.98	83.4939	3,604.98	84.9066	3,604.98	81.9258	3,604.98	82.8682	3,604.98	78.9576	3,604.98	80.0585	3,604.98	76.6042	3,604.98	77.7992	3,604.98	75.938	3,604.98	77.5365	3,604.98	74.0894	3,604.98	75.69	3,604.98	73.7054	3,604.98	75.0726	3,604.98	70.1428	3,604.98	69.7229	3,604.98	67.5138	3,604.98	72.0362	3,604.98	71.5133	3,604.98	72.5768	3,604.98	67.3822	3,604.98	68.3577	3,604.98	73.581
3,732.42	89.2945	3,732.42	89.3464	3,732.42	89.008	3,732.42	90.0196	3,732.42	90.2251	3,732.42	89.8167	3,732.42	90.0494	3,732.42	89.2452	3,732.42	89.6373	3,732.42	87.7211	3,732.42	88.4173	3,732.42	86.2599	3,732.42	87.0304	3,732.42	84.6275	3,732.42	85.3678	3,732.42	82.0763	3,732.42	82.2312	3,732.42	79.614	3,732.42	80.0902	3,732.42	77.3864	3,732.42	78.1727	3,732.42	76.2481	3,732.42	77.1924	3,732.42	74.6076	3,732.42	75.7216	3,732.42	72.7019	3,732.42	75.6414	3,732.42	69.9458	3,732.42	67.522	3,732.42	71.9184	3,732.42	72.2292	3,732.42	72.4942	3,732.42	72.7252	3,732.42	65.3872	3,732.42	68.0449	3,732.42	73.2202
3,864.26	88.9354	3,864.26	89.2384	3,864.26	89.3773	3,864.26	90.1579	3,864.26	88.6126	3,864.26	90.1752	3,864.26	89.1744	3,864.26	89.517	3,864.26	88.6975	3,864.26	87.7497	3,864.26	87.9111	3,864.26	87.2882	3,864.26	86.5772	3,864.26	84.6816	3,864.26	84.4456	3,864.26	82.2048	3,864.26	82.7816	3,864.26	80.5297	3,864.26	80.9712	3,864.26	77.983	3,864.26	78.413	3,864.26	77.1662	3,864.26	75.9115	3,864.26	76.1785	3,864.26	72.4025	3,864.26	75.1117	3,864.26	75.6054	3,864.26	72.2437	3,864.26	68.696	3,864.26	72.7054	3,864.26	72.0098	3,864.26	70.2041	3,864.26	72.7865	3,864.26	62.626	3,864.26	61.9882	3,864.26	70.9418
4,000.49	88.1786	4,000.49	89.0816	4,000.49	89.4205	4,000.49	89.3302	4,000.49	89.4737	4,000.49	89.7393	4,000.49	89.9891	4,000.49	88.9191	4,000.49	89.4949	4,000.49	87.9893	4,000.49	88.2414	4,000.49	85.7533	4,000.49	86.3853	4,000.49	84.1944	4,000.49	84.2134	4,000.49	82.7699	4,000.49	82.9503	4,000.49	80.0781	4,000.49	80.7925	4,000.49	79.2629	4,000.49	79.1493	4,000.49	75.7397	4,000.49	76.9788	4,000.49	74.3998	4,000.49	76.7027	4,000.49	75.0897	4,000.49	74.0702	4,000.49	70.116	4,000.49	70.2231	4,000.49	70.9698	4,000.49	73.1822	4,000.49	70.4874	4,000.49	69.6925	4,000.49	59.4188	4,000.49	45.2922	4,000.49	68.9452
4,141.11	90.4287	4,141.11	89.832	4,141.11	90.4898	4,141.11	90.3025	4,141.11	91.226	4,141.11	90.2314	4,141.11	91.2056	4,141.11	89.2322	4,141.11	91.044	4,141.11	89.5526	4,141.11	89.4587	4,141.11	86.7759	4,141.11	87.7799	4,141.11	85.6732	4,141.11	85.8984	4,141.11	83.1843	4,141.11	84.8226	4,141.11	81.4775	4,141.11	82.2026	4,141.11	79.6221	4,141.11	79.7505	4,141.11	76.9084	4,141.11	77.1829	4,141.11	75.6758	4,141.11	75.3511	4,141.11	75.1193	4,141.11	75.8483	4,141.11	71.7279	4,141.11	72.3934	4,141.11	74.4916	4,141.11	74.1237	4,141.11	71.2875	4,141.11	71.1752	4,141.11	58.4076	4,141.11	61.2212	4,141.11	73.0597
4,287.6	90.3795	4,287.6	91.0352	4,287.6	89.53	4,287.6	91.3421	4,287.6	90.9416	4,287.6	90.8607	4,287.6	90.8633	4,287.6	90.9824	4,287.6	90.8232	4,287.6	89.6955	4,287.6	89.5041	4,287.6	88.7373	4,287.6	87.8829	4,287.6	86.589	4,287.6	85.7041	4,287.6	83.7012	4,287.6	83.9887	4,287.6	81.5437	4,287.6	81.9429	4,287.6	78.7887	4,287.6	80.118	4,287.6	78.5767	4,287.6	77.2979	4,287.6	76.0639	4,287.6	76.1755	4,287.6	76.6991	4,287.6	75.2286	4,287.6	74.6915	4,287.6	72.7045	4,287.6	74.6292	4,287.6	75.0528	4,287.6	74.436	4,287.6	73.757	4,287.6	58.9114	4,287.6	62.5227	4,287.6	74.0528
4,438.48	90.1735	4,438.48	91.2567	4,438.48	90.3639	4,438.48	90.6293	4,438.48	90.2905	4,438.48	91.2033	4,438.48	90.6201	4,438.48	91.4647	4,438.48	90.0347	4,438.48	89.4688	4,438.48	89.5187	4,438.48	88.0824	4,438.48	87.8982	4,438.48	85.2918	4,438.48	86.3672	4,438.48	83.096	4,438.48	84.7919	4,438.48	81.5716	4,438.48	81.7801	4,438.48	79.1514	4,438.48	80.6489	4,438.48	77.981	4,438.48	78.7174	4,438.48	76.5538	4,438.48	76.9017	4,438.48	75.5603	4,438.48	73.1014	4,438.48	71.5972	4,438.48	73.2092	4,438.48	73.7105	4,438.48	74.2249	4,438.48	74.0022	4,438.48	73.9057	4,438.48	58.9874	4,438.48	66.4149	4,438.48	73.156
4,595.21	90.9478	4,595.21	89.2678	4,595.21	91.4568	4,595.21	90.1946	4,595.21	89.8406	4,595.21	90.7223	4,595.21	89.9768	4,595.21	90.0352	4,595.21	89.4886	4,595.21	89.5357	4,595.21	88.9458	4,595.21	87.905	4,595.21	88.2042	4,595.21	86.1977	4,595.21	86.7237	4,595.21	84.1645	4,595.21	83.4858	4,595.21	81.1263	4,595.21	82.4218	4,595.21	79.235	4,595.21	79.4892	4,595.21	75.1859	4,595.21	76.7472	4,595.21	74.6376	4,595.21	73.9698	4,595.21	74.6645	4,595.21	75.0717	4,595.21	68.3379	4,595.21	74.9338	4,595.21	73.8256	4,595.21	73.755	4,595.21	73.3839	4,595.21	73.023	4,595.21	64.5935	4,595.21	65.0666	4,595.21	70.6271
4,756.35	91.1795	4,756.35	90.2586	4,756.35	90.439	4,756.35	89.7836	4,756.35	90.5184	4,756.35	89.4151	4,756.35	90.0073	4,756.35	88.8302	4,756.35	90.5291	4,756.35	89.0877	4,756.35	90.3408	4,756.35	87.9048	4,756.35	88.7513	4,756.35	86.5803	4,756.35	87.0415	4,756.35	84.1906	4,756.35	85.4611	4,756.35	81.9816	4,756.35	82.19	4,756.35	79.759	4,756.35	78.6674	4,756.35	78.3142	4,756.35	78.7502	4,756.35	75.7378	4,756.35	76.4978	4,756.35	75.039	4,756.35	75.8134	4,756.35	75.1411	4,756.35	74.6423	4,756.35	76.2571	4,756.35	73.4349	4,756.35	73.589	4,756.35	75.358	4,756.35	62.9733	4,756.35	69.6723	4,756.35	70.9087
4,924.8	91.4845	4,924.8	91.3978	4,924.8	90.6165	4,924.8	88.9527	4,924.8	89.9881	4,924.8	89.7677	4,924.8	89.419	4,924.8	90.8611	4,924.8	90.3694	4,924.8	89.6295	4,924.8	90.0829	4,924.8	88.7705	4,924.8	89.364	4,924.8	86.2403	4,924.8	87.0411	4,924.8	83.8756	4,924.8	84.6606	4,924.8	81.7485	4,924.8	81.7656	4,924.8	79.0569	4,924.8	79.3733	4,924.8	78.3594	4,924.8	79.3279	4,924.8	74.1471	4,924.8	76.2343	4,924.8	74.635	4,924.8	73.7562	4,924.8	71.1258	4,924.8	74.055	4,924.8	74.4408	4,924.8	72.4987	4,924.8	71.2286	4,924.8	73.3245	4,924.8	66.7369	4,924.8	72.4218	4,924.8	73.0992
5,097.66	92.3207	5,097.66	90.817	5,097.66	92.1249	5,097.66	90.406	5,097.66	88.9107	5,097.66	89.5632	5,097.66	89.7807	5,097.66	90.0672	5,097.66	89.0243	5,097.66	90.1374	5,097.66	89.0435	5,097.66	88.7657	5,097.66	88.3904	5,097.66	86.6136	5,097.66	87.3967	5,097.66	84.5309	5,097.66	84.6825	5,097.66	82.6819	5,097.66	82.3586	5,097.66	80.753	5,097.66	79.364	5,097.66	78.7993	5,097.66	77.574	5,097.66	76.7133	5,097.66	75.023	5,097.66	72.3842	5,097.66	73.0756	5,097.66	73.3172	5,097.66	75.4949	5,097.66	74.1251	5,097.66	72.5211	5,097.66	71.4244	5,097.66	72.8595	5,097.66	63.9232	5,097.66	67.083	5,097.66	71.9192
5,277.83	92.5357	5,277.83	91.2564	5,277.83	91.2253	5,277.83	90.068	5,277.83	89.8274	5,277.83	89.1397	5,277.83	87.9333	5,277.83	88.9111	5,277.83	89.5706	5,277.83	89.4727	5,277.83	89.6133	5,277.83	87.1888	5,277.83	88.4388	5,277.83	85.1029	5,277.83	87.0615	5,277.83	84.4571	5,277.83	85.138	5,277.83	79.9947	5,277.83	83.0126	5,277.83	79.1366	5,277.83	79.9689	5,277.83	75.0662	5,277.83	77.1046	5,277.83	73.5844	5,277.83	75.0577	5,277.83	70.9255	5,277.83	73.9177	5,277.83	68.2874	5,277.83	74.7121	5,277.83	71.3215	5,277.83	70.5632	5,277.83	72.3933	5,277.83	73.2629	5,277.83	53.5915	5,277.83	64.5834	5,277.83	71.3958
5,463.87	92.5638	5,463.87	91.4155	5,463.87	91.4126	5,463.87	87.7928	5,463.87	89.9032	5,463.87	88.885	5,463.87	88.6284	5,463.87	89.8366	5,463.87	89.7863	5,463.87	88.848	5,463.87	89.8067	5,463.87	88.7676	5,463.87	88.5058	5,463.87	86.6025	5,463.87	86.1909	5,463.87	83.1943	5,463.87	83.7635	5,463.87	80.0146	5,463.87	81.4928	5,463.87	73.8065	5,463.87	79.5292	5,463.87	76.2733	5,463.87	77.0103	5,463.87	76.4327	5,463.87	75.0597	5,463.87	75.4827	5,463.87	71.2428	5,463.87	70.9206	5,463.87	72.6873	5,463.87	71.9078	5,463.87	73.2744	5,463.87	72.6575	5,463.87	73.4467	5,463.87	66.7182	5,463.87	67.7138	5,463.87	68.2965
5,657.23	92.419	5,657.23	91.0978	5,657.23	92.4784	5,657.23	90.2775	5,657.23	90.0954	5,657.23	88.9945	5,657.23	89.7343	5,657.23	89.5475	5,657.23	89.2575	5,657.23	88.6637	5,657.23	88.8024	5,657.23	87.0826	5,657.23	87.5845	5,657.23	84.5489	5,657.23	85.7368	5,657.23	81.1409	5,657.23	82.5992	5,657.23	79.9386	5,657.23	80.8688	5,657.23	77.6399	5,657.23	78.1826	5,657.23	76.2024	5,657.23	75.9249	5,657.23	73.4909	5,657.23	75.2591	5,657.23	72.7687	5,657.23	72.1333	5,657.23	74.4407	5,657.23	74.289	5,657.23	71.177	5,657.23	71.2221	5,657.23	69.4867	5,657.23	69.8867	5,657.23	67.7697	5,657.23	71.8929	5,657.23	70.7388
5,856.45	92.033	5,856.45	90.8601	5,856.45	91.2975	5,856.45	90.0536	5,856.45	90.6193	5,856.45	89.67	5,856.45	89.2551	5,856.45	89.8092	5,856.45	89.4293	5,856.45	89.0029	5,856.45	88.6642	5,856.45	86.7432	5,856.45	87.1015	5,856.45	83.5536	5,856.45	84.564	5,856.45	82.1197	5,856.45	83.7381	5,856.45	78.0765	5,856.45	79.6628	5,856.45	77.3011	5,856.45	78.1448	5,856.45	73.2038	5,856.45	75.5536	5,856.45	72.4136	5,856.45	74.8309	5,856.45	72.8075	5,856.45	70.8332	5,856.45	69.6786	5,856.45	73.5072	5,856.45	67.4475	5,856.45	71.9473	5,856.45	72.225	5,856.45	69.8407	5,856.45	67.465	5,856.45	70.925	5,856.45	69.8298
6,062.99	91.8827	6,062.99	91.5868	6,062.99	91.8345	6,062.99	90.6932	6,062.99	90.9344	6,062.99	90.0516	6,062.99	90.1576	6,062.99	89.4143	6,062.99	90.7066	6,062.99	87.9849	6,062.99	90.0028	6,062.99	86.1375	6,062.99	87.768	6,062.99	84.1783	6,062.99	85.24	6,062.99	82.6347	6,062.99	83.4584	6,062.99	78.8883	6,062.99	79.027	6,062.99	76.6506	6,062.99	76.3119	6,062.99	75.5336	6,062.99	77.1151	6,062.99	74.1498	6,062.99	74.2633	6,062.99	74.6249	6,062.99	69.7501	6,062.99	66.3921	6,062.99	62.5582	6,062.99	68.7978	6,062.99	70.158	6,062.99	70.0575	6,062.99	70.8413	6,062.99	65.392	6,062.99	68.4033	6,062.99	64.9649
6,276.86	91.2649	6,276.86	91.1597	6,276.86	91.5807	6,276.86	91.5085	6,276.86	91.1224	6,276.86	90.0643	6,276.86	90.993	6,276.86	89.2695	6,276.86	89.398	6,276.86	88.0589	6,276.86	87.981	6,276.86	85.7754	6,276.86	87.0202	6,276.86	84.0202	6,276.86	84.7421	6,276.86	80.4499	6,276.86	81.2017	6,276.86	78.0869	6,276.86	79.2414	6,276.86	74.3602	6,276.86	75.2613	6,276.86	72.8275	6,276.86	76.3266	6,276.86	72.3485	6,276.86	72.7578	6,276.86	69.9814	6,276.86	70.6992	6,276.86	70.4965	6,276.86	70.9892	6,276.86	71.0887	6,276.86	67.7133	6,276.86	68.7567	6,276.86	67.7464	6,276.86	68.6412	6,276.86	68.697	6,276.86	67.287
6,498.05	91.3643	6,498.05	91.8199	6,498.05	91.052	6,498.05	91.7041	6,498.05	91.9836	6,498.05	90.6573	6,498.05	90.8669	6,498.05	88.9597	6,498.05	90.2481	6,498.05	87.4902	6,498.05	88.8331	6,498.05	84.8939	6,498.05	86.7232	6,498.05	82.0567	6,498.05	83.2939	6,498.05	80.9866	6,498.05	81.6867	6,498.05	77.4322	6,498.05	79.175	6,498.05	77.0879	6,498.05	76.3188	6,498.05	73.38	6,498.05	73.4812	6,498.05	72.1261	6,498.05	68.695	6,498.05	69.8312	6,498.05	72.4613	6,498.05	67.0402	6,498.05	71.3386	6,498.05	67.7077	6,498.05	69.0005	6,498.05	67.4207	6,498.05	64.6652	6,498.05	66.8981	6,498.05	67.3186	6,498.05	66.3682
6,726.56	91.0943	6,726.56	91.6538	6,726.56	91.3185	6,726.56	91.7413	6,726.56	91.7098	6,726.56	90.639	6,726.56	91.348	6,726.56	89.2563	6,726.56	90.0053	6,726.56	88.1167	6,726.56	88.7567	6,726.56	86.4818	6,726.56	86.8404	6,726.56	84.6223	6,726.56	85.3985	6,726.56	81.6956	6,726.56	82.1856	6,726.56	77.8231	6,726.56	79.5121	6,726.56	75.5711	6,726.56	77.4633	6,726.56	72.5205	6,726.56	74.8824	6,726.56	70.36	6,726.56	70.6633	6,726.56	71.5143	6,726.56	74.5163	6,726.56	69.6436	6,726.56	70.3096	6,726.56	65.0537	6,726.56	69.0807	6,726.56	66.6906	6,726.56	68.9832	6,726.56	68.764	6,726.56	69.0762	6,726.56	61.434
6,963.87	90.7109	6,963.87	91.3453	6,963.87	91.0998	6,963.87	91.1843	6,963.87	91.5935	6,963.87	89.9964	6,963.87	90.5512	6,963.87	88.592	6,963.87	89.06	6,963.87	87.6628	6,963.87	87.8455	6,963.87	86.4499	6,963.87	86.309	6,963.87	84.5865	6,963.87	84.2768	6,963.87	81.233	6,963.87	81.3224	6,963.87	79.0398	6,963.87	79.1528	6,963.87	76.151	6,963.87	76.6311	6,963.87	72.8607	6,963.87	73.4415	6,963.87	71.8852	6,963.87	68.9819	6,963.87	70.7188	6,963.87	72.5233	6,963.87	69.0284	6,963.87	70.0576	6,963.87	68.0773	6,963.87	64.8969	6,963.87	67.1739	6,963.87	66.8579	6,963.87	68.5695	6,963.87	67.962	6,963.87	63.7998
7,209.96	90.3861	7,209.96	91.1501	7,209.96	91.1089	7,209.96	91.0832	7,209.96	91.6871	7,209.96	89.4216	7,209.96	89.8693	7,209.96	88.7579	7,209.96	89.3913	7,209.96	87.9557	7,209.96	89.2726	7,209.96	86.9774	7,209.96	87.0906	7,209.96	84.0131	7,209.96	84.76	7,209.96	82.3592	7,209.96	82.3611	7,209.96	78.1639	7,209.96	78.8771	7,209.96	76.0294	7,209.96	75.5178	7,209.96	71.3719	7,209.96	72.1195	7,209.96	70.2248	7,209.96	73.4929	7,209.96	72.3979	7,209.96	73.2206	7,209.96	70.5314	7,209.96	70.3116	7,209.96	67.408	7,209.96	68.2491	7,209.96	67.6152	7,209.96	68.0535	7,209.96	68.5029	7,209.96	65.8053	7,209.96	66.3726
7,464.84	90.5127	7,464.84	90.6631	7,464.84	91.2008	7,464.84	90.2486	7,464.84	90.2553	7,464.84	88.9166	7,464.84	88.8071	7,464.84	88.1307	7,464.84	87.6771	7,464.84	87.6262	7,464.84	86.7447	7,464.84	85.0221	7,464.84	86.2476	7,464.84	82.8154	7,464.84	84.1356	7,464.84	79.4674	7,464.84	80.0633	7,464.84	77.2141	7,464.84	77.1234	7,464.84	73.0501	7,464.84	73.6621	7,464.84	71.9533	7,464.84	72.6635	7,464.84	72.6194	7,464.84	70.063	7,464.84	68.2321	7,464.84	69.7569	7,464.84	65.748	7,464.84	65.8887	7,464.84	66.2024	7,464.84	64.5123	7,464.84	70.1166	7,464.84	68.5546	7,464.84	64.3457	7,464.84	66.2141	7,464.84	65.6804
7,727.05	91.0835	7,727.05	90.7634	7,727.05	90.7923	7,727.05	89.6439	7,727.05	90.5236	7,727.05	86.9239	7,727.05	87.9515	7,727.05	86.8757	7,727.05	87.7582	7,727.05	86.9313	7,727.05	87.1788	7,727.05	85.0339	7,727.05	85.2068	7,727.05	83.2044	7,727.05	82.9977	7,727.05	81.153	7,727.05	81.1153	7,727.05	78.1069	7,727.05	78.0802	7,727.05	75.1756	7,727.05	74.81	7,727.05	71.5032	7,727.05	72.1432	7,727.05	69.6244	7,727.05	72.4492	7,727.05	70.2165	7,727.05	64.2455	7,727.05	68.2289	7,727.05	68.5104	7,727.05	65.1321	7,727.05	69.8498	7,727.05	69.064	7,727.05	65.6259	7,727.05	61.5233	7,727.05	63.9592	7,727.05	64.7519
7,999.51	90.4188	7,999.51	90.501	7,999.51	90.2585	7,999.51	89.2776	7,999.51	89.0596	7,999.51	86.8975	7,999.51	86.7911	7,999.51	86.3798	7,999.51	85.8368	7,999.51	86.142	7,999.51	85.9169	7,999.51	85.3849	7,999.51	85.6828	7,999.51	83.6061	7,999.51	83.6427	7,999.51	80.7819	7,999.51	80.3236	7,999.51	76.8981	7,999.51	79.4482	7,999.51	73.4063	7,999.51	75.9367	7,999.51	72.746	7,999.51	72.1269	7,999.51	71.0046	7,999.51	71.4226	7,999.51	66.8696	7,999.51	68.8013	7,999.51	68.2294	7,999.51	65.542	7,999.51	66.8017	7,999.51	68.531	7,999.51	68.6182	7,999.51	68.7174	7,999.51	61.6591	7,999.51	67.6215	7,999.51	63.6723
8,282.23	90.2471	8,282.23	89.7042	8,282.23	89.6282	8,282.23	88.3706	8,282.23	89.6013	8,282.23	86.551	8,282.23	87.071	8,282.23	86.5039	8,282.23	86.612	8,282.23	86.3671	8,282.23	85.9247	8,282.23	85.4587	8,282.23	84.7812	8,282.23	83.3643	8,282.23	82.6771	8,282.23	80.329	8,282.23	81.109	8,282.23	76.6995	8,282.23	78.3047	8,282.23	74.5055	8,282.23	74.1013	8,282.23	73.1818	8,282.23	71.7245	8,282.23	71.7972	8,282.23	70.1087	8,282.23	68.1994	8,282.23	65.94	8,282.23	68.1732	8,282.23	67.5321	8,282.23	65.2609	8,282.23	66.2825	8,282.23	68.2633	8,282.23	64.9372	8,282.23	56.1877	8,282.23	67.8046	8,282.23	64.3161
8,573.73	90.3674	8,573.73	89.3455	8,573.73	90.1508	8,573.73	87.9688	8,573.73	88.4175	8,573.73	87.0343	8,573.73	86.74	8,573.73	86.4311	8,573.73	86.2248	8,573.73	86.4401	8,573.73	85.8448	8,573.73	85.8143	8,573.73	84.9543	8,573.73	83.1576	8,573.73	83.2102	8,573.73	81.3556	8,573.73	80.4804	8,573.73	77.974	8,573.73	76.6955	8,573.73	75.0478	8,573.73	73.8953	8,573.73	72.8037	8,573.73	70.1354	8,573.73	69.2302	8,573.73	70.1811	8,573.73	65.881	8,573.73	66.5015	8,573.73	68.9133	8,573.73	66.7143	8,573.73	68.8742	8,573.73	69.2939	8,573.73	69.4557	8,573.73	66.6204	8,573.73	59.9965	8,573.73	63.7599	8,573.73	63.7251
8,876.95	90.86	8,876.95	89.0884	8,876.95	89.8771	8,876.95	88.4696	8,876.95	88.6603	8,876.95	86.6612	8,876.95	86.3753	8,876.95	86.4378	8,876.95	85.1781	8,876.95	87.3499	8,876.95	85.2533	8,876.95	86.7455	8,876.95	84.6071	8,876.95	83.8992	8,876.95	82.499	8,876.95	81.3338	8,876.95	80.3691	8,876.95	78.818	8,876.95	76.8666	8,876.95	75.6003	8,876.95	72.885	8,876.95	72.6982	8,876.95	70.08	8,876.95	71.3781	8,876.95	69.4496	8,876.95	69.363	8,876.95	64.0766	8,876.95	68.7505	8,876.95	66.971	8,876.95	66.1814	8,876.95	66.6371	8,876.95	67.3836	8,876.95	65.2905	8,876.95	57.7713	8,876.95	66.5191	8,876.95	60.827
9,188.96	90.3948	9,188.96	88.9132	9,188.96	89.2348	9,188.96	87.2616	9,188.96	87.406	9,188.96	85.7149	9,188.96	85.5732	9,188.96	85.4603	9,188.96	84.1561	9,188.96	86.5552	9,188.96	84.7338	9,188.96	86.6667	9,188.96	85.2788	9,188.96	84.5722	9,188.96	83.7359	9,188.96	82.107	9,188.96	80.5765	9,188.96	78.4024	9,188.96	76.2934	9,188.96	74.9757	9,188.96	73.5354	9,188.96	72.4372	9,188.96	71.4614	9,188.96	69.7547	9,188.96	69.9071	9,188.96	68.063	9,188.96	60.1962	9,188.96	67.6583	9,188.96	65.9842	9,188.96	65.5083	9,188.96	67.3703	9,188.96	67.9698	9,188.96	65.8038	9,188.96	61.3791	9,188.96	63.0444	9,188.96	63.649
9,514.16	90.2245	9,514.16	88.5217	9,514.16	88.4121	9,514.16	87.472	9,514.16	87.18	9,514.16	86.5481	9,514.16	85.7492	9,514.16	86.3155	9,514.16	84.1017	9,514.16	87.0404	9,514.16	85.6801	9,514.16	86.5449	9,514.16	85.4195	9,514.16	84.3743	9,514.16	83.6764	9,514.16	81.3101	9,514.16	80.753	9,514.16	77.5224	9,514.16	78.4652	9,514.16	72.959	9,514.16	73.6936	9,514.16	71.7927	9,514.16	71.7969	9,514.16	68.0932	9,514.16	68.013	9,514.16	68.971	9,514.16	62.147	9,514.16	67.8982	9,514.16	61.7478	9,514.16	64.7236	9,514.16	66.3402	9,514.16	62.9437	9,514.16	63.7593	9,514.16	61.4526	9,514.16	65.4336	9,514.16	60.7189
9,849.61	90.1447	9,849.61	88.7385	9,849.61	89.0721	9,849.61	88.0425	9,849.61	87.7625	9,849.61	87.3505	9,849.61	86.7565	9,849.61	86.3336	9,849.61	84.9997	9,849.61	86.391	9,849.61	85.0297	9,849.61	85.0341	9,849.61	84.7525	9,849.61	82.9179	9,849.61	83.449	9,849.61	79.8278	9,849.61	80.4704	9,849.61	74.3719	9,849.61	77.1704	9,849.61	72.6103	9,849.61	72.8502	9,849.61	69.7736	9,849.61	71.2858	9,849.61	67.0768	9,849.61	66.5044	9,849.61	65.8743	9,849.61	65.6191	9,849.61	65.6124	9,849.61	61.2175	9,849.61	63.7154	9,849.61	62.3445	9,849.61	63.3296	9,849.61	64.7365	9,849.61	61.5379	9,849.61	62.3289	9,849.61	59.7118
10,196.8	91.2767	10,196.8	90.6257	10,196.8	91.0217	10,196.8	89.9495	10,196.8	89.532	10,196.8	88.1719	10,196.8	87.9006	10,196.8	85.9176	10,196.8	86.1642	10,196.8	85.4735	10,196.8	84.8178	10,196.8	83.8859	10,196.8	84.4645	10,196.8	80.7668	10,196.8	82.1881	10,196.8	78.5819	10,196.8	79.9986	10,196.8	73.7803	10,196.8	75.2674	10,196.8	71.2681	10,196.8	72.3497	10,196.8	66.7769	10,196.8	69.4336	10,196.8	61.9872	10,196.8	63.0205	10,196.8	65.3459	10,196.8	65.3542	10,196.8	60.6156	10,196.8	62.9465	10,196.8	59.5273	10,196.8	59.9022	10,196.8	62.6204	10,196.8	65.069	10,196.8	62.0851	10,196.8	63.1065	10,196.8	58.2152
10,555.7	91.893	10,555.7	91.2011	10,555.7	91.6658	10,555.7	90.3	10,555.7	90.5793	10,555.7	89.1198	10,555.7	88.8762	10,555.7	86.5633	10,555.7	86.7578	10,555.7	84.5098	10,555.7	84.5333	10,555.7	82.1982	10,555.7	83.3588	10,555.7	78.7209	10,555.7	80.7388	10,555.7	75.7704	10,555.7	77.2832	10,555.7	71.087	10,555.7	72.3356	10,555.7	69.6954	10,555.7	71.4777	10,555.7	65.0663	10,555.7	65.6907	10,555.7	62.9438	10,555.7	64.332	10,555.7	60.1511	10,555.7	61.1125	10,555.7	60.1368	10,555.7	63.8475	10,555.7	60.9164	10,555.7	60.8535	10,555.7	62.656	10,555.7	63.9554	10,555.7	54.8874	10,555.7	61.863	10,555.7	52.9769
10,927.7	92.753	10,927.7	92.138	10,927.7	92.5496	10,927.7	90.8479	10,927.7	91.5619	10,927.7	89.3862	10,927.7	89.8637	10,927.7	86.4078	10,927.7	87.3655	10,927.7	83.3899	10,927.7	84.1245	10,927.7	80.4375	10,927.7	81.9921	10,927.7	77.4876	10,927.7	79.747	10,927.7	73.1569	10,927.7	75.97	10,927.7	67.4072	10,927.7	71.3838	10,927.7	65.2866	10,927.7	68.121	10,927.7	60.4519	10,927.7	65.1546	10,927.7	59.9882	10,927.7	59.7909	10,927.7	58.0617	10,927.7	62.857	10,927.7	59.3261	10,927.7	54.6065	10,927.7	63.4465	10,927.7	60.2659	10,927.7	55.844	10,927.7	59.9726	10,927.7	51.6553	10,927.7	60.4185	10,927.7	50.675
11,313	93.0651	11,313	92.817	11,313	92.9307	11,313	91.8624	11,313	92.08	11,313	89.5336	11,313	90.2319	11,313	86.0162	11,313	87.2632	11,313	82.5351	11,313	83.5635	11,313	79.4641	11,313	80.5912	11,313	76.1543	11,313	76.8854	11,313	73.0633	11,313	72.5381	11,313	68.0893	11,313	67.3328	11,313	65.511	11,313	63.4568	11,313	62.7573	11,313	62.6219	11,313	60.7081	11,313	58.4403	11,313	61.2966	11,313	60.392	11,313	59.6702	11,313	55.0315	11,313	61.6072	11,313	54.2824	11,313	58.7021	11,313	56.5336	11,313	59.4004	11,313	56.5493	11,313	50.5856
11,712.9	92.9231	11,712.9	93.036	11,712.9	92.8686	11,712.9	91.994	11,712.9	92.0198	11,712.9	89.4764	11,712.9	90.1716	11,712.9	85.2648	11,712.9	86.726	11,712.9	81.9784	11,712.9	82.4819	11,712.9	79.25	11,712.9	78.7373	11,712.9	76.2807	11,712.9	73.9503	11,712.9	74.5511	11,712.9	70.9969	11,712.9	69.4267	11,712.9	65.9227	11,712.9	68.1301	11,712.9	63.7453	11,712.9	63.6792	11,712.9	62.091	11,712.9	61.9868	11,712.9	54.9555	11,712.9	61.9271	11,712.9	59.7026	11,712.9	59.2503	11,712.9	55.3271	11,712.9	59.634	11,712.9	55.5432	11,712.9	57.7911	11,712.9	57.53	11,712.9	59.2205	11,712.9	55.6092	11,712.9	52.8206
12,126	93.4833	12,126	93.555	12,126	93.2958	12,126	92.506	12,126	92.5051	12,126	89.4388	12,126	90.2187	12,126	84.81	12,126	86.1623	12,126	80.7619	12,126	80.9568	12,126	78.557	12,126	76.961	12,126	75.6027	12,126	73.5985	12,126	73.5334	12,126	70.4949	12,126	68.2744	12,126	67.6996	12,126	65.0689	12,126	65.4112	12,126	62.0157	12,126	61.6375	12,126	58.6687	12,126	56.9793	12,126	60.2921	12,126	60.6991	12,126	55.9127	12,126	55.0546	12,126	55.3713	12,126	57.5038	12,126	55.6981	12,126	57.4454	12,126	57.9056	12,126	47.2793	12,126	54.8381
12,553.7	94.2053	12,553.7	94.1103	12,553.7	94.0238	12,553.7	92.9117	12,553.7	93.4175	12,553.7	88.9206	12,553.7	90.5716	12,553.7	83.4063	12,553.7	85.8066	12,553.7	79.005	12,553.7	79.3482	12,553.7	75.4906	12,553.7	75.5545	12,553.7	71.9924	12,553.7	72.9408	12,553.7	68.3581	12,553.7	69.2528	12,553.7	63.1816	12,553.7	64.5714	12,553.7	59.6408	12,553.7	62.8644	12,553.7	51.1388	12,553.7	57.3444	12,553.7	54.4018	12,553.7	55.3518	12,553.7	54.0078	12,553.7	59.0201	12,553.7	52.7106	12,553.7	52.8753	12,553.7	48.5758	12,553.7	54.4659	12,553.7	51.7852	12,553.7	52.7599	12,553.7	53.9257	12,553.7	35.5861	12,553.7	55.0882
12,996.1	94.6263	12,996.1	94.573	12,996.1	94.3907	12,996.1	92.7051	12,996.1	93.9104	12,996.1	87.9066	12,996.1	90.9034	12,996.1	81.6719	12,996.1	85.5986	12,996.1	77.0007	12,996.1	78.4693	12,996.1	74.7459	12,996.1	74.2979	12,996.1	72.7182	12,996.1	72.3188	12,996.1	65.1643	12,996.1	69.8428	12,996.1	62.3256	12,996.1	63.5382	12,996.1	57.215	12,996.1	58.5832	12,996.1	57.2992	12,996.1	58.7391	12,996.1	56.2183	12,996.1	54.2552	12,996.1	50.2074	12,996.1	56.0809	12,996.1	52.3194	12,996.1	47.9406	12,996.1	50.148	12,996.1	48.2045	12,996.1	45.9071	12,996.1	50.187	12,996.1	42.5289	12,996.1	42.9991	12,996.1	47.0295
13,454.6	94.5795	13,454.6	94.7241	13,454.6	94.5835	13,454.6	92.8718	13,454.6	94.3723	13,454.6	87.8613	13,454.6	91.0192	13,454.6	81.9261	13,454.6	85.2842	13,454.6	77.036	13,454.6	79.0125	13,454.6	74.0233	13,454.6	75.7927	13,454.6	70.1268	13,454.6	69.9051	13,454.6	69.373	13,454.6	65.6722	13,454.6	66.3537	13,454.6	62.0126	13,454.6	60.4456	13,454.6	59.7118	13,454.6	60.9845	13,454.6	55.5699	13,454.6	60.704	13,454.6	54.3018	13,454.6	54.3019	13,454.6	55.9116	13,454.6	55.0766	13,454.6	49.2993	13,454.6	55.1246	13,454.6	53.8782	13,454.6	55.9005	13,454.6	53.5629	13,454.6	54.2541	13,454.6	46.2276	13,454.6	51.9915
13,929.2	94.6361	13,929.2	94.4956	13,929.2	94.8933	13,929.2	92.6264	13,929.2	94.2206	13,929.2	87.9644	13,929.2	90.8607	13,929.2	83.6294	13,929.2	86.4267	13,929.2	79.037	13,929.2	82.1067	13,929.2	76.5913	13,929.2	77.5103	13,929.2	75.4087	13,929.2	71.652	13,929.2	72.7132	13,929.2	68.6926	13,929.2	70.0487	13,929.2	64.7476	13,929.2	64.2856	13,929.2	60.806	13,929.2	63.0326	13,929.2	59.146	13,929.2	62.1061	13,929.2	58.6224	13,929.2	58.0993	13,929.2	62.1333	13,929.2	56.0942	13,929.2	44.6357	13,929.2	58.9276	13,929.2	60.7639	13,929.2	57.2983	13,929.2	52.262	13,929.2	57.318	13,929.2	50.4332	13,929.2	54.8023
14,419.9	94.8045	14,419.9	93.7191	14,419.9	94.4937	14,419.9	91.409	14,419.9	93.4365	14,419.9	87.8505	14,419.9	90.5461	14,419.9	84.3056	14,419.9	87.0864	14,419.9	79.7645	14,419.9	82.7761	14,419.9	78.9584	14,419.9	76.8886	14,419.9	77.9198	14,419.9	72.8142	14,419.9	74.4606	14,419.9	72.5787	14,419.9	70.5804	14,419.9	67.8138	14,419.9	65.4775	14,419.9	64.3636	14,419.9	65.9062	14,419.9	61.7654	14,419.9	63.3835	14,419.9	60.348	14,419.9	59.9507	14,419.9	62.2457	14,419.9	57.0803	14,419.9	40.9694	14,419.9	55.711	14,419.9	61.3277	14,419.9	56.6927	14,419.9	54.0805	14,419.9	56.2262	14,419.9	51.2381	14,419.9	56.3003
14,928.2	94.0027	14,928.2	92.2006	14,928.2	93.0928	14,928.2	88.9023	14,928.2	91.7941	14,928.2	86.3715	14,928.2	89.6043	14,928.2	83.839	14,928.2	87.3229	14,928.2	79.5701	14,928.2	81.8086	14,928.2	79.1536	14,928.2	77.7134	14,928.2	78.1567	14,928.2	75.3183	14,928.2	75.7417	14,928.2	71.8446	14,928.2	69.9031	14,928.2	69.9874	14,928.2	66.0689	14,928.2	66.3222	14,928.2	66.4443	14,928.2	61.4268	14,928.2	63.0804	14,928.2	60.2191	14,928.2	58.0927	14,928.2	57.5713	14,928.2	52.9056	14,928.2	53.7187	14,928.2	47.0174	14,928.2	54.2932	14,928.2	55.5554	14,928.2	53.8284	14,928.2	52.8808	14,928.2	52.8925	14,928.2	53.4107
15,455.6	92.0483	15,455.6	89.6825	15,455.6	91.5672	15,455.6	86.4632	15,455.6	89.2593	15,455.6	84.8306	15,455.6	87.5719	15,455.6	82.8824	15,455.6	86.1952	15,455.6	79.7949	15,455.6	80.565	15,455.6	79.6062	15,455.6	77.3917	15,455.6	79.1654	15,455.6	75.9747	15,455.6	75.3512	15,455.6	72.127	15,455.6	70.599	15,455.6	66.9176	15,455.6	66.9267	15,455.6	64.7627	15,455.6	66.0022	15,455.6	62.0995	15,455.6	60.8807	15,455.6	58.145	15,455.6	55.5507	15,455.6	52.9514	15,455.6	46.3331	15,455.6	51.2723	15,455.6	49.6363	15,455.6	61.7177	15,455.6	53.3261	15,455.6	46.858	15,455.6	56.0929	15,455.6	53.6597	15,455.6	53.5939
16,000.5	88.852	16,000.5	85.8523	16,000.5	88.8941	16,000.5	82.8549	16,000.5	85.9039	16,000.5	81.8517	16,000.5	84.4136	16,000.5	81.5806	16,000.5	82.5419	16,000.5	81.3583	16,000.5	77.7258	16,000.5	81.8575	16,000.5	77.6592	16,000.5	79.7874	16,000.5	76.7716	16,000.5	75.1881	16,000.5	73.508	16,000.5	71.2403	16,000.5	68.8742	16,000.5	66.2875	16,000.5	65.2109	16,000.5	64.042	16,000.5	62.5532	16,000.5	60.5724	16,000.5	59.4838	16,000.5	56.3172	16,000.5	54.4705	16,000.5	48.4215	16,000.5	47.8554	16,000.5	45.5237	16,000.5	61.8017	16,000.5	47.9435	16,000.5	48.4729	16,000.5	56.6845	16,000.5	56.3511	16,000.5	54.6056
16,564.5	87.7249	16,564.5	86.6246	16,564.5	86.767	16,564.5	86.6883	16,564.5	84.9892	16,564.5	85.4382	16,564.5	81.723	16,564.5	84.6279	16,564.5	80.2814	16,564.5	81.9853	16,564.5	78.4665	16,564.5	80.3168	16,564.5	75.8357	16,564.5	77.8552	16,564.5	71.2396	16,564.5	72.893	16,564.5	64.895	16,564.5	68.1048	16,564.5	63.1534	16,564.5	63.3883	16,564.5	60.3505	16,564.5	62.4758	16,564.5	56.7783	16,564.5	59.0283	16,564.5	55.5385	16,564.5	51.7569	16,564.5	44.3639	16,564.5	43.554	16,564.5	42.1323	16,564.5	41.5786	16,564.5	54.0047	16,564.5	43.0995	16,564.5	51.3785	16,564.5	52.8835	16,564.5	50.963	16,564.5	44.9038
17,148.9	90.2839	17,148.9	89.2028	17,148.9	89.5413	17,148.9	88.1751	17,148.9	87.0737	17,148.9	85.5234	17,148.9	82.1413	17,148.9	82.3959	17,148.9	74.9901	17,148.9	78.384	17,148.9	62.9429	17,148.9	73.0339	17,148.9	58.0215	17,148.9	64.7511	17,148.9	69.2538	17,148.9	52.5246	17,148.9	68.0438	17,148.9	53.7814	17,148.9	64.6417	17,148.9	49.5743	17,148.9	58.8932	17,148.9	46.2077	17,148.9	54.4402	17,148.9	41.9004	17,148.9	50.9326	17,148.9	38.6283	17,148.9	42.6078	17,148.9	40.1372	17,148.9	45.6805	17,148.9	35.6655	17,148.9	53.4684	17,148.9	39.6369	17,148.9	44.9396	17,148.9	41.7222	17,148.9	40.1794	17,148.9	41.2868
17,752.4	89.2794	17,752.4	88.2966	17,752.4	88.3884	17,752.4	86.9475	17,752.4	85.5134	17,752.4	83.3357	17,752.4	79.9588	17,752.4	79.4774	17,752.4	70.4359	17,752.4	74.2057	17,752.4	65.2133	17,752.4	67.7068	17,752.4	69.3018	17,752.4	65.1404	17,752.4	72.716	17,752.4	64.3302	17,752.4	70.0156	17,752.4	60.5884	17,752.4	67.2103	17,752.4	54.4181	17,752.4	61.2461	17,752.4	51.9048	17,752.4	58.4042	17,752.4	46.3428	17,752.4	54.5452	17,752.4	43.4615	17,752.4	47.1409	17,752.4	41.4193	17,752.4	45.4699	17,752.4	33.4958	17,752.4	56.2031	17,752.4	44.1926	17,752.4	42.9087	17,752.4	39.6078	17,752.4	39.8228	17,752.4	40.6016
18,379.4	88.7738	18,379.4	87.7926	18,379.4	87.4788	18,379.4	85.8269	18,379.4	84.7538	18,379.4	81.7074	18,379.4	78.1889	18,379.4	76.9568	18,379.4	69.7405	18,379.4	67.7429	18,379.4	69.0054	18,379.4	64.4741	18,379.4	70.691	18,379.4	68.2085	18,379.4	73.3226	18,379.4	66.8632	18,379.4	70.5869	18,379.4	61.3785	18,379.4	67.3269	18,379.4	56.7905	18,379.4	61.6042	18,379.4	55.1394	18,379.4	58.1461	18,379.4	50.2562	18,379.4	53.6564	18,379.4	49.0697	18,379.4	43.8673	18,379.4	42.8599	18,379.4	45.0344	18,379.4	44.1372	18,379.4	55.6808	18,379.4	45.5195	18,379.4	41.309	18,379.4	42.8417	18,379.4	41.8561	18,379.4	37.8879
19,026.9	88.1098	19,026.9	87.1544	19,026.9	86.8035	19,026.9	84.549	19,026.9	83.7244	19,026.9	79.8524	19,026.9	76.6722	19,026.9	73.1994	19,026.9	67.7291	19,026.9	62.0294	19,026.9	71.2002	19,026.9	67.3051	19,026.9	71.3159	19,026.9	69.0381	19,026.9	73.065	19,026.9	65.6757	19,026.9	70.643	19,026.9	60.6989	19,026.9	66.1381	19,026.9	57.1364	19,026.9	61.4975	19,026.9	53.5318	19,026.9	57.6224	19,026.9	47.4142	19,026.9	51.9349	19,026.9	46.7408	19,026.9	46.9689	19,026.9	40.2121	19,026.9	39.9189	19,026.9	45.1405	19,026.9	54.0082	19,026.9	46.7134	19,026.9	41.6725	19,026.9	39.7592	19,026.9	43.5857	19,026.9	36.7525
19,697.8	87.2602	19,697.8	86.2618	19,697.8	86.0532	19,697.8	83.2583	19,697.8	82.2868	19,697.8	77.1127	19,697.8	74.205	19,697.8	68.9183	19,697.8	61.9049	19,697.8	63.8307	19,697.8	71.7497	19,697.8	67.9424	19,697.8	71.8137	19,697.8	66.7511	19,697.8	72.5167	19,697.8	63.2001	19,697.8	69.6552	19,697.8	56.5033	19,697.8	64.332	19,697.8	53.5825	19,697.8	59.4983	19,697.8	49.7421	19,697.8	56.1502	19,697.8	41.8418	19,697.8	50.252	19,697.8	45.0914	19,697.8	45.8397	19,697.8	40.6319	19,697.8	41.507	19,697.8	40.6894	19,697.8	50.9435	19,697.8	44.931	19,697.8	38.0571	19,697.8	36.9983	19,697.8	43.364	19,697.8	36.9964
19,999.5	86.809	19,999.5	85.8261	19,999.5	85.6773	19,999.5	82.696	19,999.5	81.4009	19,999.5	75.4873	19,999.5	72.6215	19,999.5	66.1318	19,999.5	61.2516	19,999.5	66.9156	19,999.5	71.3537	19,999.5	67.8951	19,999.5	72.1027	19,999.5	66.5187	19,999.5	71.6931	19,999.5	64.2371	19,999.5	69.2563	19,999.5	54.8437	19,999.5	63.0187	19,999.5	50.6495	19,999.5	59.2623	19,999.5	46.98	19,999.5	56.9944	19,999.5	53.757	19,999.5	53.3777	19,999.5	40.0765	19,999.5	45.1413	19,999.5	46.6384	19,999.5	47.7469	19,999.5	50.8816	19,999.5	47.3533	19,999.5	48.0585	19,999.5	35.088	19,999.5	10.8302	19,999.5	43.999	19,999.5	44.3105
