"SPL Horizontal"
"On-Axis"		"10°"		"-10°"		"20°"		"-20°"		"30°"		"-30°"		"40°"		"-40°"		"50°"		"-50°"		"60°"		"-60°"		"70°"		"-70°"		"80°"		"-80°"		"90°"		"-90°"		"100°"		"-100°"		"110°"		"-110°"		"120°"		"-120°"		"130°"		"-130°"		"140°"		"-140°"		"150°"		"-150°"		"160°"		"-160°"		"170°"		"-170°"		"180°"
"Frequency [Hz]"	"Sound Pessure Level [dB]  / [2.83V 1m] "	"Frequency [Hz]"	"Sound Pessure Level [dB]  / [2.83V 1m] "	"Frequency [Hz]"	"Sound Pessure Level [dB]  / [2.83V 1m] "	"Frequency [Hz]"	"Sound Pessure Level [dB]  / [2.83V 1m] "	"Frequency [Hz]"	"Sound Pessure Level [dB]  / [2.83V 1m] "	"Frequency [Hz]"	"Sound Pessure Level [dB]  / [2.83V 1m] "	"Frequency [Hz]"	"Sound Pessure Level [dB]  / [2.83V 1m] "	"Frequency [Hz]"	"Sound Pessure Level [dB]  / [2.83V 1m] "	"Frequency [Hz]"	"Sound Pessure Level [dB]  / [2.83V 1m] "	"Frequency [Hz]"	"Sound Pessure Level [dB]  / [2.83V 1m] "	"Frequency [Hz]"	"Sound Pessure Level [dB]  / [2.83V 1m] "	"Frequency [Hz]"	"Sound Pessure Level [dB]  / [2.83V 1m] "	"Frequency [Hz]"	"Sound Pessure Level [dB]  / [2.83V 1m] "	"Frequency [Hz]"	"Sound Pessure Level [dB]  / [2.83V 1m] "	"Frequency [Hz]"	"Sound Pessure Level [dB]  / [2.83V 1m] "	"Frequency [Hz]"	"Sound Pessure Level [dB]  / [2.83V 1m] "	"Frequency [Hz]"	"Sound Pessure Level [dB]  / [2.83V 1m] "	"Frequency [Hz]"	"Sound Pessure Level [dB]  / [2.83V 1m] "	"Frequency [Hz]"	"Sound Pessure Level [dB]  / [2.83V 1m] "	"Frequency [Hz]"	"Sound Pessure Level [dB]  / [2.83V 1m] "	"Frequency [Hz]"	"Sound Pessure Level [dB]  / [2.83V 1m] "	"Frequency [Hz]"	"Sound Pessure Level [dB]  / [2.83V 1m] "	"Frequency [Hz]"	"Sound Pessure Level [dB]  / [2.83V 1m] "	"Frequency [Hz]"	"Sound Pessure Level [dB]  / [2.83V 1m] "	"Frequency [Hz]"	"Sound Pessure Level [dB]  / [2.83V 1m] "	"Frequency [Hz]"	"Sound Pessure Level [dB]  / [2.83V 1m] "	"Frequency [Hz]"	"Sound Pessure Level [dB]  / [2.83V 1m] "	"Frequency [Hz]"	"Sound Pessure Level [dB]  / [2.83V 1m] "	"Frequency [Hz]"	"Sound Pessure Level [dB]  / [2.83V 1m] "	"Frequency [Hz]"	"Sound Pessure Level [dB]  / [2.83V 1m] "	"Frequency [Hz]"	"Sound Pessure Level [dB]  / [2.83V 1m] "	"Frequency [Hz]"	"Sound Pessure Level [dB]  / [2.83V 1m] "	"Frequency [Hz]"	"Sound Pessure Level [dB]  / [2.83V 1m] "	"Frequency [Hz]"	"Sound Pessure Level [dB]  / [2.83V 1m] "	"Frequency [Hz]"	"Sound Pessure Level [dB]  / [2.83V 1m] "	"Frequency [Hz]"	"Sound Pessure Level [dB]  / [2.83V 1m] "
20.5078	51.0178	20.5078	50.7252	20.5078	51.3644	20.5078	50.4887	20.5078	51.7603	20.5078	50.3078	20.5078	52.195	20.5078	50.1781	20.5078	52.649	20.5078	50.0904	20.5078	53.0932	20.5078	50.0315	20.5078	53.4898	20.5078	49.9889	20.5078	53.7973	20.5078	49.9583	20.5078	53.9744	20.5078	49.9489	20.5078	53.987	20.5078	49.9837	20.5078	53.8153	20.5078	50.0884	20.5078	53.4653	20.5078	50.2738	20.5078	52.9798	20.5078	50.5242	20.5078	52.4445	20.5078	50.8016	20.5078	51.9722	20.5078	51.0614	20.5078	51.6545	20.5078	51.2675	20.5078	51.5078	20.5078	51.3993	20.5078	51.4712	20.5078	51.4571
21.9727	57.5346	21.9727	57.4115	21.9727	57.6697	21.9727	57.2942	21.9727	57.8184	21.9727	57.1737	21.9727	57.9762	21.9727	57.0395	21.9727	58.1303	21.9727	56.8798	21.9727	58.2605	21.9727	56.6819	21.9727	58.3404	21.9727	56.434	21.9727	58.3393	21.9727	56.1279	21.9727	58.226	21.9727	55.7622	21.9727	57.9736	21.9727	55.3449	21.9727	57.5658	21.9727	54.8937	21.9727	57.0035	21.9727	54.4333	21.9727	56.3117	21.9727	53.9907	21.9727	55.5415	21.9727	53.5916	21.9727	54.7659	21.9727	53.2598	21.9727	54.0649	21.9727	53.02	21.9727	53.505	21.9727	52.8993	21.9727	53.123	21.9727	52.9256
23.4375	57.8051	23.4375	57.7368	23.4375	57.8894	23.4375	57.6859	23.4375	57.9856	23.4375	57.652	23.4375	58.0877	23.4375	57.6336	23.4375	58.1877	23.4375	57.629	23.4375	58.2761	23.4375	57.6363	23.4375	58.3425	23.4375	57.6543	23.4375	58.3756	23.4375	57.682	23.4375	58.3653	23.4375	57.7183	23.4375	58.3054	23.4375	57.7619	23.4375	58.1966	23.4375	57.8098	23.4375	58.0499	23.4375	57.8558	23.4375	57.8858	23.4375	57.8901	23.4375	57.7309	23.4375	57.9017	23.4375	57.6117	23.4375	57.882	23.4375	57.5462	23.4375	57.8293	23.4375	57.5399	23.4375	57.7508	23.4375	57.5845	23.4375	57.6622
24.9023	57.8395	24.9023	57.774	24.9023	57.8947	24.9023	57.7036	24.9023	57.9353	24.9023	57.6334	24.9023	57.959	24.9023	57.5673	24.9023	57.9662	24.9023	57.5084	24.9023	57.96	24.9023	57.459	24.9023	57.9447	24.9023	57.4214	24.9023	57.9249	24.9023	57.3982	24.9023	57.9044	24.9023	57.3926	24.9023	57.887	24.9023	57.4083	24.9023	57.8769	24.9023	57.4484	24.9023	57.879	24.9023	57.5135	24.9023	57.897	24.9023	57.5998	24.9023	57.9304	24.9023	57.6991	24.9023	57.9727	24.9023	57.8003	24.9023	58.0128	24.9023	57.8926	24.9023	58.0389	24.9023	57.9672	24.9023	58.042	24.9023	58.0181
26.3672	59.6606	26.3672	59.6274	26.3672	59.6848	26.3672	59.5857	26.3672	59.7008	26.3672	59.537	26.3672	59.7107	26.3672	59.4835	26.3672	59.7186	26.3672	59.4287	26.3672	59.7293	26.3672	59.3767	26.3672	59.7472	26.3672	59.3325	26.3672	59.7752	26.3672	59.3017	26.3672	59.8141	26.3672	59.2906	26.3672	59.8637	26.3672	59.3058	26.3672	59.9231	26.3672	59.353	26.3672	59.9915	26.3672	59.4341	26.3672	60.0668	26.3672	59.5461	26.3672	60.1439	26.3672	59.6811	26.3672	60.214	26.3672	59.8276	26.3672	60.2653	26.3672	59.9724	26.3672	60.2854	26.3672	60.1018	26.3672	60.2655	26.3672	60.2028
27.832	62.6379	27.832	62.6086	27.832	62.6572	27.832	62.5712	27.832	62.6665	27.832	62.5282	27.832	62.6675	27.832	62.4828	27.832	62.664	27.832	62.4385	27.832	62.6613	27.832	62.399	27.832	62.6659	27.832	62.3677	27.832	62.6839	27.832	62.3479	27.832	62.7201	27.832	62.3432	27.832	62.7775	27.832	62.3574	27.832	62.8552	27.832	62.3943	27.832	62.9486	27.832	62.4565	27.832	63.0484	27.832	62.5441	27.832	63.1418	27.832	62.6538	27.832	63.2152	27.832	62.7785	27.832	63.2563	27.832	62.9086	27.832	63.2574	27.832	63.0327	27.832	63.217	27.832	63.1392
29.2969	64.2393	29.2969	64.2473	29.2969	64.2069	29.2969	64.2333	29.2969	64.1483	29.2969	64.1994	29.2969	64.0622	29.2969	64.1471	29.2969	63.95	29.2969	64.0775	29.2969	63.8154	29.2969	63.991	29.2969	63.6656	29.2969	63.8881	29.2969	63.5106	29.2969	63.7693	29.2969	63.3621	29.2969	63.6365	29.2969	63.2321	29.2969	63.494	29.2969	63.1299	29.2969	63.3489	29.2969	63.0595	29.2969	63.2112	29.2969	63.018	29.2969	63.0909	29.2969	62.9968	29.2969	62.9962	29.2969	62.9843	29.2969	62.9315	29.2969	62.9704	29.2969	62.8969	29.2969	62.9501	29.2969	62.889	29.2969	62.9248	29.2969	62.9013
30.7617	67.7664	30.7617	67.7774	30.7617	67.7342	30.7617	67.7695	30.7617	67.6786	30.7617	67.745	30.7617	67.5987	30.7617	67.7053	30.7617	67.4954	30.7617	67.6509	30.7617	67.3714	30.7617	67.582	30.7617	67.2315	30.7617	67.498	30.7617	67.0818	30.7617	67.3985	30.7617	66.9295	30.7617	67.2835	30.7617	66.7816	30.7617	67.1545	30.7617	66.6449	30.7617	67.0148	30.7617	66.5239	30.7617	66.8701	30.7617	66.4212	30.7617	66.7271	30.7617	66.3372	30.7617	66.5925	30.7617	66.272	30.7617	66.4719	30.7617	66.2267	30.7617	66.3695	30.7617	66.2033	30.7617	66.2891	30.7617	66.205	30.7617	66.2336
32.2266	69.8702	32.2266	69.8545	32.2266	69.871	32.2266	69.8241	32.2266	69.8565	32.2266	69.7794	32.2266	69.8272	32.2266	69.7211	32.2266	69.7839	32.2266	69.6497	32.2266	69.7284	32.2266	69.5665	32.2266	69.6629	32.2266	69.4731	32.2266	69.5903	32.2266	69.3716	32.2266	69.5136	32.2266	69.2645	32.2266	69.4356	32.2266	69.1549	32.2266	69.3585	32.2266	69.0467	32.2266	69.2824	32.2266	68.9445	32.2266	69.2062	32.2266	68.8539	32.2266	69.1278	32.2266	68.7809	32.2266	69.0458	32.2266	68.7307	32.2266	68.9613	32.2266	68.7077	32.2266	68.8786	32.2266	68.7136	32.2266	68.8047	32.2266	68.7474
33.6914	71.8476	33.6914	71.8658	33.6914	71.8137	33.6914	71.8682	33.6914	71.7648	33.6914	71.855	33.6914	71.7025	33.6914	71.8272	33.6914	71.6291	33.6914	71.7857	33.6914	71.5473	33.6914	71.7318	33.6914	71.4608	33.6914	71.6663	33.6914	71.3731	33.6914	71.5904	33.6914	71.2881	33.6914	71.5056	33.6914	71.2095	33.6914	71.4142	33.6914	71.1405	33.6914	71.3199	33.6914	71.0832	33.6914	71.2275	33.6914	71.0379	33.6914	71.1422	33.6914	71.0035	33.6914	71.0691	33.6914	70.9778	33.6914	71.0113	33.6914	70.9585	33.6914	70.9706	33.6914	70.9446	33.6914	70.9462	33.6914	70.9363	33.6914	70.9358
35.1562	73.4981	35.1562	73.4852	35.1562	73.4984	35.1562	73.4606	35.1562	73.486	35.1562	73.4253	35.1562	73.4608	35.1562	73.3809	35.1562	73.4238	35.1562	73.3289	35.1562	73.3766	35.1562	73.2716	35.1562	73.3216	35.1562	73.2108	35.1562	73.2617	35.1562	73.1486	35.1562	73.1999	35.1562	73.0869	35.1562	73.1391	35.1562	73.0277	35.1562	73.0811	35.1562	72.9727	35.1562	73.0267	35.1562	72.9238	35.1562	72.976	35.1562	72.8819	35.1562	72.9287	35.1562	72.8474	35.1562	72.8853	35.1562	72.8201	35.1562	72.8471	35.1562	72.8002	35.1562	72.8166	35.1562	72.7886	35.1562	72.7961	35.1562	72.7868
36.6211	75.1482	36.6211	75.1381	36.6211	75.149	36.6211	75.1184	36.6211	75.1409	36.6211	75.089	36.6211	75.1245	36.6211	75.0504	36.6211	75.1004	36.6211	75.0035	36.6211	75.0692	36.6211	74.9494	36.6211	75.0314	36.6211	74.8895	36.6211	74.9876	36.6211	74.8252	36.6211	74.9385	36.6211	74.7582	36.6211	74.8847	36.6211	74.6903	36.6211	74.8267	36.6211	74.6239	36.6211	74.7652	36.6211	74.5614	36.6211	74.7013	36.6211	74.5057	36.6211	74.6366	36.6211	74.4593	36.6211	74.5736	36.6211	74.4244	36.6211	74.5155	36.6211	74.4026	36.6211	74.4657	36.6211	74.3955	36.6211	74.4277	36.6211	74.4039
38.0859	76.906	38.0859	76.8773	38.0859	76.9258	38.0859	76.8395	38.0859	76.9369	38.0859	76.793	38.0859	76.9402	38.0859	76.7385	38.0859	76.9361	38.0859	76.6775	38.0859	76.9252	38.0859	76.6117	38.0859	76.9079	38.0859	76.5436	38.0859	76.8844	38.0859	76.4755	38.0859	76.8547	38.0859	76.4104	38.0859	76.8186	38.0859	76.3507	38.0859	76.7757	38.0859	76.2989	38.0859	76.7255	38.0859	76.257	38.0859	76.6675	38.0859	76.2263	38.0859	76.602	38.0859	76.2077	38.0859	76.5308	38.0859	76.2017	38.0859	76.4571	38.0859	76.2094	38.0859	76.3856	38.0859	76.2317	38.0859	76.3215	38.0859	76.2693
39.5508	78.4023	39.5508	78.3768	39.5508	78.4198	39.5508	78.3434	39.5508	78.4293	39.5508	78.3028	39.5508	78.4307	39.5508	78.256	39.5508	78.4243	39.5508	78.2043	39.5508	78.4103	39.5508	78.1496	39.5508	78.389	39.5508	78.0938	39.5508	78.3607	39.5508	78.0389	39.5508	78.3259	39.5508	77.9868	39.5508	78.2848	39.5508	77.9391	39.5508	78.2376	39.5508	77.8972	39.5508	78.1842	39.5508	77.8615	39.5508	78.125	39.5508	77.8322	39.5508	78.0614	39.5508	77.8094	39.5508	77.996	39.5508	77.7933	39.5508	77.9328	39.5508	77.7852	39.5508	77.8769	39.5508	77.7874	39.5508	77.8326	39.5508	77.8026
41.0156	79.142	41.0156	79.085	41.0156	79.1969	41.0156	79.0252	41.0156	79.2512	41.0156	78.9626	41.0156	79.3065	41.0156	78.8983	41.0156	79.3645	41.0156	78.8347	41.0156	79.4262	41.0156	78.7754	41.0156	79.4918	41.0156	78.7252	41.0156	79.5611	41.0156	78.6904	41.0156	79.6332	41.0156	78.6787	41.0156	79.7065	41.0156	78.6981	41.0156	79.7788	41.0156	78.7551	41.0156	79.8465	41.0156	78.8523	41.0156	79.9051	41.0156	78.9859	41.0156	79.9489	41.0156	79.1457	41.0156	79.9719	41.0156	79.3177	41.0156	79.9687	41.0156	79.4871	41.0156	79.9351	41.0156	79.6409	41.0156	79.8689	41.0156	79.7701
42.4805	80.0349	42.4805	80.043	42.4805	80.0162	42.4805	80.0405	42.4805	79.9874	42.4805	80.0273	42.4805	79.9492	42.4805	80.0038	42.4805	79.9029	42.4805	79.9704	42.4805	79.85	42.4805	79.9277	42.4805	79.7921	42.4805	79.8763	42.4805	79.7312	42.4805	79.817	42.4805	79.6691	42.4805	79.7512	42.4805	79.6082	42.4805	79.681	42.4805	79.5508	42.4805	79.6095	42.4805	79.4996	42.4805	79.5408	42.4805	79.4567	42.4805	79.4793	42.4805	79.4232	42.4805	79.4291	42.4805	79.3987	42.4805	79.3927	42.4805	79.3819	42.4805	79.3704	42.4805	79.3704	42.4805	79.3602	42.4805	79.3628	42.4805	79.3588
43.9453	81.4167	43.9453	81.4151	43.9453	81.4085	43.9453	81.4036	43.9453	81.3912	43.9453	81.3823	43.9453	81.3654	43.9453	81.3515	43.9453	81.3319	43.9453	81.3118	43.9453	81.2919	43.9453	81.264	43.9453	81.2462	43.9453	81.2096	43.9453	81.196	43.9453	81.1501	43.9453	81.1425	43.9453	81.0878	43.9453	81.0871	43.9453	81.0254	43.9453	81.0318	43.9453	80.9659	43.9453	80.9787	43.9453	80.9126	43.9453	80.9302	43.9453	80.868	43.9453	80.8886	43.9453	80.8342	43.9453	80.8552	43.9453	80.8115	43.9453	80.8304	43.9453	80.7989	43.9453	80.8131	43.9453	80.7944	43.9453	80.8021	43.9453	80.7958
45.4102	82.5134	45.4102	82.5113	45.4102	82.5063	45.4102	82.5001	45.4102	82.4906	45.4102	82.4798	45.4102	82.4672	45.4102	82.4513	45.4102	82.437	45.4102	82.4154	45.4102	82.4014	45.4102	82.3736	45.4102	82.3617	45.4102	82.3277	45.4102	82.3195	45.4102	82.2796	45.4102	82.2765	45.4102	82.2319	45.4102	82.2344	45.4102	82.1869	45.4102	82.195	45.4102	82.147	45.4102	82.1598	45.4102	82.114	45.4102	82.13	45.4102	82.089	45.4102	82.1065	45.4102	82.0723	45.4102	82.0894	45.4102	82.0631	45.4102	82.0779	45.4102	82.0597	45.4102	82.0707	45.4102	82.0601	45.4102	82.066	45.4102	82.0626
46.875	83.6389	46.875	83.6356	46.875	83.6321	46.875	83.6223	46.875	83.6155	46.875	83.5994	46.875	83.59	46.875	83.5678	46.875	83.5564	46.875	83.5287	46.875	83.5163	46.875	83.4835	46.875	83.4709	46.875	83.4341	46.875	83.4221	46.875	83.3825	46.875	83.3716	46.875	83.3308	46.875	83.3212	46.875	83.2812	46.875	83.2728	46.875	83.2357	46.875	83.2282	46.875	83.1959	46.875	83.1888	46.875	83.1626	46.875	83.1558	46.875	83.1361	46.875	83.1298	46.875	83.1162	46.875	83.1109	46.875	83.1025	46.875	83.0986	46.875	83.0941	46.875	83.0921	46.875	83.0907
48.3398	84.7892	48.3398	84.7853	48.3398	84.7816	48.3398	84.7702	48.3398	84.7628	48.3398	84.7442	48.3398	84.7335	48.3398	84.7083	48.3398	84.6948	48.3398	84.6638	48.3398	84.6479	48.3398	84.6123	48.3398	84.5946	48.3398	84.5557	48.3398	84.5364	48.3398	84.4964	48.3398	84.4757	48.3398	84.4366	48.3398	84.4145	48.3398	84.3789	48.3398	84.3552	48.3398	84.3257	48.3398	84.3001	48.3398	84.2786	48.3398	84.2514	48.3398	84.2388	48.3398	84.2109	48.3398	84.2066	48.3398	84.1797	48.3398	84.1816	48.3398	84.1581	48.3398	84.1631	48.3398	84.1455	48.3398	84.1502	48.3398	84.1408	48.3398	84.1427
51.2695	86.6181	51.2695	86.6126	51.2695	86.6134	51.2695	86.5969	51.2695	86.5988	51.2695	86.5714	51.2695	86.575	51.2695	86.5366	51.2695	86.5426	51.2695	86.4936	51.2695	86.5028	51.2695	86.4439	51.2695	86.4565	51.2695	86.3891	51.2695	86.4053	51.2695	86.3311	51.2695	86.3505	51.2695	86.2721	51.2695	86.294	51.2695	86.2141	51.2695	86.2376	51.2695	86.1596	51.2695	86.1835	51.2695	86.1105	51.2695	86.1334	51.2695	86.0682	51.2695	86.089	51.2695	86.0339	51.2695	86.0515	51.2695	86.0079	51.2695	86.0216	51.2695	85.9902	51.2695	85.9995	51.2695	85.9807	51.2695	85.9853	51.2695	85.9791
52.7344	87.549	52.7344	87.5446	52.7344	87.5432	52.7344	87.5299	52.7344	87.5275	52.7344	87.5053	52.7344	87.5025	52.7344	87.4716	52.7344	87.469	52.7344	87.4298	52.7344	87.4282	52.7344	87.3814	52.7344	87.3813	52.7344	87.3281	52.7344	87.33	52.7344	87.272	52.7344	87.2757	52.7344	87.2152	52.7344	87.2205	52.7344	87.1599	52.7344	87.1663	52.7344	87.1083	52.7344	87.1148	52.7344	87.062	52.7344	87.0681	52.7344	87.0224	52.7344	87.0274	52.7344	86.9902	52.7344	86.9939	52.7344	86.9656	52.7344	86.968	52.7344	86.9484	52.7344	86.9498	52.7344	86.9383	52.7344	86.9389	52.7344	86.9352
54.1992	88.4315	54.1992	88.4254	54.1992	88.4272	54.1992	88.4091	54.1992	88.4126	54.1992	88.383	54.1992	88.3885	54.1992	88.3483	54.1992	88.3558	54.1992	88.3064	54.1992	88.316	54.1992	88.2589	54.1992	88.2705	54.1992	88.2077	54.1992	88.2211	54.1992	88.1551	54.1992	88.1697	54.1992	88.1031	54.1992	88.1182	54.1992	88.0538	54.1992	88.0684	54.1992	88.0088	54.1992	88.0221	54.1992	87.9696	54.1992	87.9809	54.1992	87.937	54.1992	87.946	54.1992	87.9113	54.1992	87.9179	54.1992	87.8924	54.1992	87.8969	54.1992	87.8798	54.1992	87.8824	54.1992	87.8727	54.1992	87.874	54.1992	87.8708
55.6641	89.3474	55.6641	89.3404	55.6641	89.3433	55.6641	89.3229	55.6641	89.3285	55.6641	89.2955	55.6641	89.3034	55.6641	89.2594	55.6641	89.2689	55.6641	89.216	55.6641	89.2265	55.6641	89.167	55.6641	89.1778	55.6641	89.1145	55.6641	89.1249	55.6641	89.0606	55.6641	89.07	55.6641	89.0074	55.6641	89.0153	55.6641	88.9569	55.6641	88.9631	55.6641	88.9108	55.6641	88.9152	55.6641	88.8704	55.6641	88.8732	55.6641	88.8366	55.6641	88.8382	55.6641	88.8098	55.6641	88.8106	55.6641	88.7899	55.6641	88.7902	55.6641	88.7764	55.6641	88.7766	55.6641	88.7688	55.6641	88.7688	55.6641	88.7663
58.5938	90.9068	58.5938	90.8958	58.5938	90.9054	58.5938	90.8728	58.5938	90.8916	58.5938	90.8387	58.5938	90.8658	58.5938	90.7948	58.5938	90.8289	58.5938	90.7429	58.5938	90.7822	58.5938	90.6848	58.5938	90.7273	58.5938	90.623	58.5938	90.6665	58.5938	90.5598	58.5938	90.6021	58.5938	90.4976	58.5938	90.5367	58.5938	90.4386	58.5938	90.473	58.5938	90.3846	58.5938	90.4133	58.5938	90.337	58.5938	90.3598	58.5938	90.2966	58.5938	90.3139	58.5938	90.2638	58.5938	90.2764	58.5938	90.2388	58.5938	90.2474	58.5938	90.2215	58.5938	90.2269	58.5938	90.2117	58.5938	90.2143	58.5938	90.2093
60.0586	91.6305	60.0586	91.618	60.0586	91.6306	60.0586	91.5936	60.0586	91.6183	60.0586	91.558	60.0586	91.594	60.0586	91.5125	60.0586	91.5586	60.0586	91.4589	60.0586	91.5132	60.0586	91.3991	60.0586	91.4594	60.0586	91.3356	60.0586	91.3992	60.0586	91.2706	60.0586	91.3346	60.0586	91.2067	60.0586	91.268	60.0586	91.1458	60.0586	91.2018	60.0586	91.0899	60.0586	91.1383	60.0586	91.0403	60.0586	91.0796	60.0586	90.9978	60.0586	91.0278	60.0586	90.9631	60.0586	90.9842	60.0586	90.9362	60.0586	90.9498	60.0586	90.9173	60.0586	90.9251	60.0586	90.9064	60.0586	90.9099	60.0586	90.9038
62.9883	93.011	62.9883	92.9978	62.9883	93.0104	62.9883	92.9713	62.9883	92.9958	62.9883	92.9322	62.9883	92.968	62.9883	92.8822	62.9883	92.9276	62.9883	92.8228	62.9883	92.8762	62.9883	92.7564	62.9883	92.8154	62.9883	92.6853	62.9883	92.7476	62.9883	92.6122	62.9883	92.6751	62.9883	92.5395	62.9883	92.6007	62.9883	92.4698	62.9883	92.5272	62.9883	92.4051	62.9883	92.457	62.9883	92.3472	62.9883	92.3926	62.9883	92.2977	62.9883	92.3358	62.9883	92.2573	62.9883	92.2879	62.9883	92.2268	62.9883	92.2496	62.9883	92.2061	62.9883	92.2213	62.9883	92.1953	62.9883	92.2029	62.9883	92.1943
64.4531	93.6115	64.4531	93.6002	64.4531	93.6089	64.4531	93.5752	64.4531	93.5923	64.4531	93.5374	64.4531	93.5625	64.4531	93.488	64.4531	93.5204	64.4531	93.4288	64.4531	93.4675	64.4531	93.3621	64.4531	93.4056	64.4531	93.2902	64.4531	93.3368	64.4531	93.2159	64.4531	93.2637	64.4531	93.1418	64.4531	93.1889	64.4531	93.0705	64.4531	93.115	64.4531	93.0041	64.4531	93.0445	64.4531	92.9447	64.4531	92.9798	64.4531	92.8935	64.4531	92.9227	64.4531	92.8517	64.4531	92.8746	64.4531	92.8197	64.4531	92.8364	64.4531	92.7978	64.4531	92.8085	64.4531	92.7857	64.4531	92.7909	64.4531	92.7834
67.3828	94.5872	67.3828	94.5736	67.3828	94.5873	67.3828	94.5465	67.3828	94.5738	67.3828	94.5068	67.3828	94.5474	67.3828	94.4557	67.3828	94.5092	67.3828	94.3951	67.3828	94.4605	67.3828	94.327	67.3828	94.4033	67.3828	94.2541	67.3828	94.3396	67.3828	94.1792	67.3828	94.2716	67.3828	94.1056	67.3828	94.2019	67.3828	94.0359	67.3828	94.1328	67.3828	93.9729	67.3828	94.0666	67.3828	93.9186	67.3828	94.0054	67.3828	93.8742	67.3828	93.9509	67.3828	93.8404	67.3828	93.9042	67.3828	93.8171	67.3828	93.8661	67.3828	93.8036	67.3828	93.8367	67.3828	93.7992	67.3828	93.8158	67.3828	93.8034
68.8477	95.0042	68.8477	94.989	68.8477	95.0061	68.8477	94.9609	68.8477	94.9949	68.8477	94.9206	68.8477	94.9712	68.8477	94.8694	68.8477	94.936	68.8477	94.809	68.8477	94.8907	68.8477	94.7417	68.8477	94.837	68.8477	94.6699	68.8477	94.7768	68.8477	94.5964	68.8477	94.7122	68.8477	94.5243	68.8477	94.6455	68.8477	94.4562	68.8477	94.5787	68.8477	94.3946	68.8477	94.5139	68.8477	94.3415	68.8477	94.4531	68.8477	94.2982	68.8477	94.3979	68.8477	94.2655	68.8477	94.3496	68.8477	94.2435	68.8477	94.3089	68.8477	94.2317	68.8477	94.2765	68.8477	94.2297	68.8477	94.2523	68.8477	94.2367
71.7773	95.5844	71.7773	95.5747	71.7773	95.5826	71.7773	95.5537	71.7773	95.5696	71.7773	95.522	71.7773	95.5462	71.7773	95.4808	71.7773	95.5136	71.7773	95.4316	71.7773	95.4735	71.7773	95.3765	71.7773	95.4279	71.7773	95.3176	71.7773	95.3788	71.7773	95.2575	71.7773	95.3285	71.7773	95.1988	71.7773	95.279	71.7773	95.1438	71.7773	95.2318	71.7773	95.0949	71.7773	95.1883	71.7773	95.0538	71.7773	95.1491	71.7773	95.022	71.7773	95.1144	71.7773	95	71.7773	95.0841	71.7773	94.9879	71.7773	95.0577	71.7773	94.9849	71.7773	95.035	71.7773	94.9896	71.7773	95.0158	71.7773	95.0004
74.707	96.1399	74.707	96.1296	74.707	96.1381	74.707	96.1076	74.707	96.1245	74.707	96.0748	74.707	96.0998	74.707	96.0327	74.707	96.0652	74.707	95.9831	74.707	96.0227	74.707	95.9285	74.707	95.9743	74.707	95.8712	74.707	95.9224	74.707	95.8141	74.707	95.8693	74.707	95.7595	74.707	95.8172	74.707	95.7098	74.707	95.768	74.707	95.6666	74.707	95.7233	74.707	95.6312	74.707	95.6841	74.707	95.6039	74.707	95.6511	74.707	95.5845	74.707	95.6243	74.707	95.5723	74.707	95.6033	74.707	95.5663	74.707	95.5876	74.707	95.5655	74.707	95.5763	74.707	95.5689
77.6367	96.6173	77.6367	96.6062	77.6367	96.6155	77.6367	96.5827	77.6367	96.601	77.6367	96.5479	77.6367	96.5745	77.6367	96.5034	77.6367	96.5374	77.6367	96.451	77.6367	96.4915	77.6367	96.3934	77.6367	96.439	77.6367	96.3332	77.6367	96.3826	77.6367	96.2732	77.6367	96.3249	77.6367	96.216	77.6367	96.2683	77.6367	96.1639	77.6367	96.2151	77.6367	96.1189	77.6367	96.167	77.6367	96.082	77.6367	96.1252	77.6367	96.0536	77.6367	96.0904	77.6367	96.0331	77.6367	96.0625	77.6367	96.0196	77.6367	96.0414	77.6367	96.012	77.6367	96.0262	77.6367	96.0092	77.6367	96.0162	77.6367	96.0106
79.1016	96.8427	79.1016	96.8294	79.1016	96.8424	79.1016	96.803	79.1016	96.8286	79.1016	96.7645	79.1016	96.8021	79.1016	96.7158	79.1016	96.7641	79.1016	96.6588	79.1016	96.7166	79.1016	96.5962	79.1016	96.6619	79.1016	96.5308	79.1016	96.6027	79.1016	96.4657	79.1016	96.5418	79.1016	96.4037	79.1016	96.4818	79.1016	96.3476	79.1016	96.425	79.1016	96.2993	79.1016	96.3734	79.1016	96.2601	79.1016	96.3282	79.1016	96.2303	79.1016	96.29	79.1016	96.2096	79.1016	96.2591	79.1016	96.197	79.1016	96.2348	79.1016	96.1911	79.1016	96.2166	79.1016	96.1907	79.1016	96.2035	79.1016	96.1949
82.0312	97.1829	82.0312	97.1682	82.0312	97.1829	82.0312	97.1393	82.0312	97.1681	82.0312	97.0973	82.0312	97.1394	82.0312	97.044	82.0312	97.0981	82.0312	96.9817	82.0312	97.0462	82.0312	96.9135	82.0312	96.986	82.0312	96.8423	82.0312	96.9203	82.0312	96.7717	82.0312	96.8522	82.0312	96.7048	82.0312	96.7847	82.0312	96.6445	82.0312	96.7205	82.0312	96.5929	82.0312	96.6621	82.0312	96.5511	82.0312	96.6111	82.0312	96.5193	82.0312	96.5685	82.0312	96.4966	82.0312	96.5345	82.0312	96.4818	82.0312	96.5089	82.0312	96.4734	82.0312	96.4906	82.0312	96.4704	82.0312	96.4786	82.0312	96.4721
84.9609	97.4302	84.9609	97.4196	84.9609	97.428	84.9609	97.3969	84.9609	97.4133	84.9609	97.3629	84.9609	97.3867	84.9609	97.3191	84.9609	97.3492	84.9609	97.2675	84.9609	97.3023	84.9609	97.2102	84.9609	97.2482	84.9609	97.1498	84.9609	97.189	84.9609	97.089	84.9609	97.1273	84.9609	97.0302	84.9609	97.0657	84.9609	96.9757	84.9609	97.0067	84.9609	96.9274	84.9609	96.9525	84.9609	96.8863	84.9609	96.9049	84.9609	96.8529	84.9609	96.8651	84.9609	96.8267	84.9609	96.8336	84.9609	96.8071	84.9609	96.8101	84.9609	96.7934	84.9609	96.7942	84.9609	96.7851	84.9609	96.7851	84.9609	96.7823
87.8906	97.6148	87.8906	97.5927	87.8906	97.6246	87.8906	97.5593	87.8906	97.6225	87.8906	97.5159	87.8906	97.609	87.8906	97.4648	87.8906	97.5857	87.8906	97.409	87.8906	97.5546	87.8906	97.3518	87.8906	97.5179	87.8906	97.2967	87.8906	97.4782	87.8906	97.2472	87.8906	97.4381	87.8906	97.206	87.8906	97.3995	87.8906	97.1752	87.8906	97.3643	87.8906	97.1557	87.8906	97.3334	87.8906	97.1471	87.8906	97.3072	87.8906	97.1478	87.8906	97.2855	87.8906	97.1556	87.8906	97.2676	87.8906	97.168	87.8906	97.2524	87.8906	97.1825	87.8906	97.2388	87.8906	97.1974	87.8906	97.2255	87.8906	97.2118
90.8203	97.8753	90.8203	97.8541	90.8203	97.8837	90.8203	97.8204	90.8203	97.8795	90.8203	97.7755	90.8203	97.8638	90.8203	97.7215	90.8203	97.8382	90.8203	97.6614	90.8203	97.8051	90.8203	97.5988	90.8203	97.7669	90.8203	97.538	90.8203	97.7263	90.8203	97.4832	90.8203	97.6861	90.8203	97.4385	90.8203	97.6486	90.8203	97.407	90.8203	97.6158	90.8203	97.3902	90.8203	97.5888	90.8203	97.3879	90.8203	97.5681	90.8203	97.3981	90.8203	97.5531	90.8203	97.4173	90.8203	97.5425	90.8203	97.4411	90.8203	97.5345	90.8203	97.4654	90.8203	97.5269	90.8203	97.4872	90.8203	97.5176	90.8203	97.5046
95.2148	98.3325	95.2148	98.3286	95.2148	98.3177	95.2148	98.3064	95.2148	98.2842	95.2148	98.2676	95.2148	98.2333	95.2148	98.2141	95.2148	98.1671	95.2148	98.1488	95.2148	98.0886	95.2148	98.075	95.2148	98.0014	95.2148	97.9962	95.2148	97.91	95.2148	97.9163	95.2148	97.8188	95.2148	97.8388	95.2148	97.7321	95.2148	97.7667	95.2148	97.6539	95.2148	97.7024	95.2148	97.5871	95.2148	97.6472	95.2148	97.5332	95.2148	97.601	95.2148	97.4931	95.2148	97.563	95.2148	97.4664	95.2148	97.5315	95.2148	97.4519	95.2148	97.5051	95.2148	97.448	95.2148	97.483	95.2148	97.4532	95.2148	97.4654
98.1445	98.3161	98.1445	98.3111	98.1445	98.305	98.1445	98.2908	98.1445	98.2782	98.1445	98.2567	98.1445	98.2368	98.1445	98.2107	98.1445	98.1829	98.1445	98.1559	98.1445	98.1191	98.1445	98.0954	98.1445	98.0489	98.1445	98.0325	98.1445	97.9762	98.1445	97.9706	98.1445	97.9052	98.1445	97.9126	98.1445	97.8396	98.1445	97.8609	98.1445	97.783	98.1445	97.8171	98.1445	97.7375	98.1445	97.7818	98.1445	97.7041	98.1445	97.7549	98.1445	97.6826	98.1445	97.735	98.1445	97.6715	98.1445	97.7204	98.1445	97.669	98.1445	97.7089	98.1445	97.6726	98.1445	97.6989	98.1445	97.68	98.1445	97.6892
101.074	98.2484	101.074	98.2381	101.074	98.2437	101.074	98.2135	101.074	98.2243	101.074	98.1763	101.074	98.1908	101.074	98.1287	101.074	98.145	101.074	98.0735	101.074	98.0891	101.074	98.014	101.074	98.026	101.074	97.9536	101.074	97.9595	101.074	97.8953	101.074	97.8936	101.074	97.8422	101.074	97.8322	101.074	97.7965	101.074	97.7793	101.074	97.7598	101.074	97.7374	101.074	97.7329	101.074	97.7081	101.074	97.7158	101.074	97.6912	101.074	97.7073	101.074	97.6851	101.074	97.7052	101.074	97.687	101.074	97.7062	101.074	97.6933	101.074	97.7071	101.074	97.7004	101.074	97.7054
105.469	98.2038	105.469	98.202	105.469	98.188	105.469	98.1827	105.469	98.1556	105.469	98.1471	105.469	98.1086	105.469	98.0981	105.469	98.0502	105.469	98.0394	105.469	97.9841	105.469	97.9759	105.469	97.9147	105.469	97.9129	105.469	97.8465	105.469	97.8557	105.469	97.7842	105.469	97.8086	105.469	97.7317	105.469	97.7745	105.469	97.692	105.469	97.7539	105.469	97.6667	105.469	97.7455	105.469	97.6559	105.469	97.746	105.469	97.6581	105.469	97.7512	105.469	97.6705	105.469	97.7569	105.469	97.6893	105.469	97.7594	105.469	97.7105	105.469	97.7562	105.469	97.7306	105.469	97.7464
108.398	98.1973	108.398	98.19	108.398	98.182	108.398	98.1605	108.398	98.1449	108.398	98.1106	108.398	98.0882	108.398	98.0434	108.398	98.0156	108.398	97.9633	108.398	97.9319	108.398	97.8756	108.398	97.8427	108.398	97.7866	108.398	97.7543	108.398	97.7026	108.398	97.6726	108.398	97.6298	108.398	97.6029	108.398	97.573	108.398	97.5488	108.398	97.5347	108.398	97.5121	108.398	97.515	108.398	97.4923	108.398	97.5108	108.398	97.4873	108.398	97.5169	108.398	97.4931	108.398	97.5274	108.398	97.5052	108.398	97.5367	108.398	97.5193	108.398	97.5412	108.398	97.5316	108.398	97.5395
112.793	98.2062	112.793	98.1978	112.793	98.1918	112.793	98.1676	112.793	98.1548	112.793	98.1181	112.793	98.0965	112.793	98.0522	112.793	98.0196	112.793	97.9739	112.793	97.9282	112.793	97.8875	112.793	97.8273	112.793	97.7979	112.793	97.7227	112.793	97.7098	112.793	97.6203	112.793	97.6273	112.793	97.5257	112.793	97.554	112.793	97.4434	112.793	97.492	112.793	97.3764	112.793	97.442	112.793	97.326	112.793	97.4031	112.793	97.292	112.793	97.3731	112.793	97.2731	112.793	97.3493	112.793	97.2667	112.793	97.3292	112.793	97.27	112.793	97.311	112.793	97.2801	112.793	97.2944
117.188	97.9711	117.188	97.9556	117.188	97.9616	117.188	97.9164	117.188	97.9274	117.188	97.8559	117.188	97.8702	117.188	97.7782	117.188	97.7936	117.188	97.6884	117.188	97.7023	117.188	97.5925	117.188	97.6029	117.188	97.4974	117.188	97.5026	117.188	97.4096	117.188	97.4089	117.188	97.3351	117.188	97.3285	117.188	97.2779	117.188	97.2659	117.188	97.2397	117.188	97.2233	117.188	97.2195	117.188	97.1996	117.188	97.2138	117.188	97.1916	117.188	97.2178	117.188	97.1948	117.188	97.226	117.188	97.2045	117.188	97.2335	117.188	97.2167	117.188	97.2371	117.188	97.2277	117.188	97.2351
120.117	97.9137	120.117	97.8902	120.117	97.9086	120.117	97.8397	120.117	97.8745	120.117	97.7649	120.117	97.8127	120.117	97.6698	120.117	97.7258	120.117	97.5597	120.117	97.6181	120.117	97.4409	120.117	97.4958	120.117	97.3206	120.117	97.3665	120.117	97.2063	120.117	97.2391	120.117	97.1049	120.117	97.1226	120.117	97.0222	120.117	97.0253	120.117	96.9615	120.117	96.9531	120.117	96.9237	120.117	96.9082	120.117	96.9067	120.117	96.8889	120.117	96.9061	120.117	96.8898	120.117	96.9157	120.117	96.9031	120.117	96.9289	120.117	96.9206	120.117	96.9391	120.117	96.9351	120.117	96.9418
124.512	97.7771	124.512	97.7532	124.512	97.7733	124.512	97.7024	124.512	97.7418	124.512	97.6266	124.512	97.684	124.512	97.5291	124.512	97.602	124.512	97.4144	124.512	97.4993	124.512	97.2883	124.512	97.3803	124.512	97.1578	124.512	97.2508	124.512	97.0302	124.512	97.1175	124.512	96.9123	124.512	96.9876	124.512	96.8098	124.512	96.8682	124.512	96.7262	124.512	96.7654	124.512	96.6627	124.512	96.6833	124.512	96.6178	124.512	96.6234	124.512	96.5885	124.512	96.5844	124.512	96.5709	124.512	96.5625	124.512	96.5611	124.512	96.5529	124.512	96.5556	124.512	96.5507	124.512	96.5522
128.906	97.3358	128.906	97.3322	128.906	97.317	128.906	97.306	128.906	97.2768	128.906	97.2579	128.906	97.2172	128.906	97.1897	128.906	97.1406	128.906	97.1043	128.906	97.0503	128.906	97.0059	128.906	96.9503	128.906	96.8998	128.906	96.8453	128.906	96.7921	128.906	96.7406	128.906	96.6892	128.906	96.6418	128.906	96.5972	128.906	96.5541	128.906	96.5207	128.906	96.482	128.906	96.462	128.906	96.4279	128.906	96.421	128.906	96.3921	128.906	96.3953	128.906	96.3722	128.906	96.3812	128.906	96.3644	128.906	96.3745	128.906	96.3639	128.906	96.3715	128.906	96.3664	128.906	96.3692
133.301	97.0832	133.301	97.0912	133.301	97.0509	133.301	97.0755	133.301	96.9951	133.301	97.0379	133.301	96.9176	133.301	96.9812	133.301	96.8217	133.301	96.9092	133.301	96.712	133.301	96.8264	133.301	96.5939	133.301	96.738	133.301	96.4743	133.301	96.6489	133.301	96.3599	133.301	96.564	133.301	96.258	133.301	96.4872	133.301	96.1746	133.301	96.4212	133.301	96.1143	133.301	96.3672	133.301	96.0794	133.301	96.3248	133.301	96.0693	133.301	96.2924	133.301	96.08	133.301	96.2673	133.301	96.1054	133.301	96.246	133.301	96.1379	133.301	96.2247	133.301	96.171	133.301	96.2003
139.16	96.8987	139.16	96.8811	139.16	96.8892	139.16	96.8381	139.16	96.8525	139.16	96.7727	139.16	96.7899	139.16	96.6894	139.16	96.7041	139.16	96.5943	139.16	96.5992	139.16	96.4943	139.16	96.4809	139.16	96.3974	139.16	96.3557	139.16	96.3107	139.16	96.2311	139.16	96.24	139.16	96.1145	139.16	96.1879	139.16	96.0127	139.16	96.1534	139.16	95.9312	139.16	96.1321	139.16	95.8735	139.16	96.1172	139.16	95.8411	139.16	96.1018	139.16	95.8334	139.16	96.0803	139.16	95.8475	139.16	96.0501	139.16	95.8784	139.16	96.0113	139.16	95.9202	139.16	95.9665
143.555	96.7878	143.555	96.7566	143.555	96.7893	143.555	96.6974	143.555	96.7606	143.555	96.6133	143.555	96.7031	143.555	96.5086	143.555	96.6195	143.555	96.389	143.555	96.5144	143.555	96.2618	143.555	96.394	143.555	96.1354	143.555	96.2656	143.555	96.0189	143.555	96.1375	143.555	95.9209	143.555	96.0182	143.555	95.8478	143.555	95.9147	143.555	95.8018	143.555	95.8324	143.555	95.7805	143.555	95.7736	143.555	95.7772	143.555	95.7377	143.555	95.783	143.555	95.7219	143.555	95.7894	143.555	95.7219	143.555	95.7902	143.555	95.7331	143.555	95.783	143.555	95.7504	143.555	95.7686
147.949	96.621	147.949	96.5976	147.949	96.6141	147.949	96.5453	147.949	96.5767	147.949	96.4668	147.949	96.5105	147.949	96.3662	147.949	96.4186	147.949	96.2485	147.949	96.3056	147.949	96.1201	147.949	96.1777	147.949	95.9884	147.949	96.0423	147.949	95.8621	147.949	95.9077	147.949	95.7495	147.949	95.7824	147.949	95.6582	147.949	95.674	147.949	95.5927	147.949	95.5881	147.949	95.5536	147.949	95.5271	147.949	95.5365	147.949	95.4906	147.949	95.534	147.949	95.4752	147.949	95.537	147.949	95.4759	147.949	95.5381	147.949	95.4874	147.949	95.5329	147.949	95.504	147.949	95.5207
153.809	96.1429	153.809	96.1317	153.809	96.1285	153.809	96.0967	153.809	96.0883	153.809	96.0406	153.809	96.023	153.809	95.967	153.809	95.9352	153.809	95.8799	153.809	95.8292	153.809	95.7842	153.809	95.711	153.809	95.6853	153.809	95.5883	153.809	95.5893	153.809	95.4701	153.809	95.503	153.809	95.3657	153.809	95.4329	153.809	95.2839	153.809	95.384	153.809	95.2309	153.809	95.3586	153.809	95.209	153.809	95.3547	153.809	95.2161	153.809	95.3664	153.809	95.2455	153.809	95.3849	153.809	95.2877	153.809	95.4007	153.809	95.3324	153.809	95.406	153.809	95.3708	153.809	95.3963
159.668	95.9832	159.668	95.9573	159.668	95.9788	159.668	95.9023	159.668	95.9443	159.668	95.8215	159.668	95.8819	159.668	95.7201	159.668	95.7951	159.668	95.6051	159.668	95.6891	159.668	95.4846	159.668	95.5702	159.668	95.3678	159.668	95.446	159.668	95.2636	159.668	95.3252	159.668	95.1795	159.668	95.2172	159.668	95.1212	159.668	95.1305	159.668	95.0911	159.668	95.0719	159.668	95.0878	159.668	95.0445	159.668	95.106	159.668	95.0467	159.668	95.1376	159.668	95.0727	159.668	95.1729	159.668	95.1131	159.668	95.2022	159.668	95.1568	159.668	95.2179	159.668	95.1935	159.668	95.2151
165.527	95.8035	165.527	95.7838	165.527	95.7901	165.527	95.7314	165.527	95.7445	165.527	95.6491	165.527	95.6699	165.527	95.5413	165.527	95.5711	165.527	95.415	165.527	95.4549	165.527	95.2792	165.527	95.3302	165.527	95.1447	165.527	95.207	165.527	95.0232	165.527	95.0956	165.527	94.9256	165.527	95.0051	165.527	94.8597	165.527	94.9419	165.527	94.8288	165.527	94.9084	165.527	94.8302	165.527	94.9022	165.527	94.8565	165.527	94.9172	165.527	94.8971	165.527	94.9447	165.527	94.9414	165.527	94.9755	165.527	94.9802	165.527	95.002	165.527	95.0077	165.527	95.0182	165.527	95.0206
171.387	95.6757	171.387	95.6452	171.387	95.6716	171.387	95.5812	171.387	95.6333	171.387	95.4862	171.387	95.5626	171.387	95.3648	171.387	95.4628	171.387	95.2237	171.387	95.3389	171.387	95.0716	171.387	95.1976	171.387	94.9194	171.387	95.0479	171.387	94.7791	171.387	94.9003	171.387	94.6627	171.387	94.767	171.387	94.5803	171.387	94.6599	171.387	94.5377	171.387	94.5885	171.387	94.5344	171.387	94.5575	171.387	94.5638	171.387	94.5645	171.387	94.614	171.387	94.6004	171.387	94.6707	171.387	94.6514	171.387	94.7202	171.387	94.7027	171.387	94.7517	171.387	94.7415	171.387	94.7592
177.246	95.525	177.246	95.5059	177.246	95.5037	177.246	95.447	177.246	95.4439	177.246	95.3513	177.246	95.3496	177.246	95.224	177.246	95.2271	177.246	95.0728	177.246	95.0846	177.246	94.9077	177.246	94.9321	177.246	94.7402	177.246	94.7807	177.246	94.5835	177.246	94.6417	177.246	94.4508	177.246	94.5253	177.246	94.3534	177.246	94.4387	177.246	94.2982	177.246	94.3856	177.246	94.2852	177.246	94.3654	177.246	94.3072	177.246	94.3733	177.246	94.3517	177.246	94.4011	177.246	94.4046	177.246	94.4382	177.246	94.4531	177.246	94.4736	177.246	94.4878	177.246	94.4975	177.246	94.5031
183.105	95.3264	183.105	95.3198	183.105	95.2935	183.105	95.2749	183.105	95.2219	183.105	95.1944	183.105	95.1142	183.105	95.0831	183.105	94.9749	183.105	94.9473	183.105	94.8107	183.105	94.7953	183.105	94.63	183.105	94.6366	183.105	94.4435	183.105	94.4819	183.105	94.2636	183.105	94.3426	183.105	94.103	183.105	94.2288	183.105	93.9734	183.105	94.1479	183.105	93.8831	183.105	94.1019	183.105	93.8361	183.105	94.0872	183.105	93.831	183.105	94.0941	183.105	93.8615	183.105	94.1099	183.105	93.917	183.105	94.1215	183.105	93.9834	183.105	94.118	183.105	94.0461	183.105	94.0931
188.965	94.9374	188.965	94.918	188.965	94.9184	188.965	94.8635	188.965	94.8596	188.965	94.7786	188.965	94.7621	188.965	94.6698	188.965	94.6298	188.965	94.5447	188.965	94.4701	188.965	94.4119	188.965	94.2941	188.965	94.2813	188.965	94.1161	188.965	94.163	188.965	93.9523	188.965	94.067	188.965	93.8183	188.965	94.0022	188.965	93.7261	188.965	93.9736	188.965	93.6811	188.965	93.9802	188.965	93.6807	188.965	94.0136	188.965	93.7168	188.965	94.059	188.965	93.7782	188.965	94.0991	188.965	93.8543	188.965	94.1193	188.965	93.9354	188.965	94.111	188.965	94.0117	188.965	94.0733
196.289	94.8723	196.289	94.8321	196.289	94.8676	196.289	94.7503	196.289	94.8175	196.289	94.6326	196.289	94.7236	196.289	94.4875	196.289	94.5899	196.289	94.326	196.289	94.4225	196.289	94.1605	196.289	94.2306	196.289	94.0037	196.289	94.0267	196.289	93.8672	196.289	93.8262	196.289	93.7595	196.289	93.6468	196.289	93.6858	196.289	93.506	196.289	93.6475	196.289	93.4173	196.289	93.6423	196.289	93.3864	196.289	93.6641	196.289	93.4095	196.289	93.7025	196.289	93.4733	196.289	93.7448	196.289	93.559	196.289	93.777	196.289	93.6471	196.289	93.7876	196.289	93.7209	196.289	93.7694
203.613	94.7425	203.613	94.6989	203.613	94.739	203.613	94.6087	203.613	94.6897	203.613	94.4746	203.613	94.5971	203.613	94.3027	203.613	94.4648	203.613	94.103	203.613	94.2978	203.613	93.8892	203.613	94.1032	203.613	93.6781	203.613	93.8907	203.613	93.4881	203.613	93.6733	203.613	93.3355	203.613	93.4669	203.613	93.2315	203.613	93.2894	203.613	93.1797	203.613	93.1576	203.613	93.1759	203.613	93.0823	203.613	93.2093	203.613	93.0648	203.613	93.2637	203.613	93.0961	203.613	93.3208	203.613	93.1594	203.613	93.3626	203.613	93.2356	203.613	93.3762	203.613	93.3063	203.613	93.3564
210.938	94.4639	210.938	94.4138	210.938	94.4712	210.938	94.3226	210.938	94.4354	210.938	94.1932	210.938	94.3581	210.938	94.0305	210.938	94.2429	210.938	93.842	210.938	94.0965	210.938	93.6383	210.938	93.9283	210.938	93.4338	210.938	93.7495	210.938	93.2455	210.938	93.5717	210.938	93.0908	210.938	93.4055	210.938	92.9833	210.938	93.2596	210.938	92.9284	210.938	93.1413	210.938	92.9221	210.938	93.0568	210.938	92.9518	210.938	93.0096	210.938	93.0006	210.938	92.9982	210.938	93.0515	210.938	93.0149	210.938	93.0903	210.938	93.0471	210.938	93.1087	210.938	93.081	210.938	93.1044
218.262	94.28	218.262	94.2489	218.262	94.2681	218.262	94.1751	218.262	94.2138	218.262	94.0603	218.262	94.119	218.262	93.9088	218.262	93.9874	218.262	93.7287	218.262	93.8259	218.262	93.5326	218.262	93.6457	218.262	93.3379	218.262	93.4625	218.262	93.1647	218.262	93.2955	218.262	93.0329	218.262	93.1639	218.262	92.9571	218.262	93.0816	218.262	92.9433	218.262	93.0533	218.262	92.9862	218.262	93.0738	218.262	93.0713	218.262	93.1309	218.262	93.1779	218.262	93.2089	218.262	93.2843	218.262	93.2924	218.262	93.3713	218.262	93.3669	218.262	93.4258	218.262	93.42	218.262	93.4418
225.586	94.484	225.586	94.4765	225.586	94.4397	225.586	94.4177	225.586	94.3452	225.586	94.31	225.586	94.2039	225.586	94.1585	225.586	94.0219	225.586	93.9721	225.586	93.8083	225.586	93.7652	225.586	93.576	225.586	93.5576	225.586	93.3408	225.586	93.3727	225.586	93.1208	225.586	93.2316	225.586	92.9345	225.586	93.1467	225.586	92.7983	225.586	93.1189	225.586	92.7246	225.586	93.139	225.586	92.7195	225.586	93.1935	225.586	92.7804	225.586	93.267	225.586	92.8939	225.586	93.3421	225.586	93.0377	225.586	93.3992	225.586	93.1846	225.586	93.4194	225.586	93.3086	225.586	93.39
232.91	94.5172	232.91	94.4843	232.91	94.4944	232.91	94.4016	232.91	94.4115	232.91	94.276	232.91	94.2673	232.91	94.1142	232.91	94.064	232.91	93.9231	232.91	93.8095	232.91	93.7112	232.91	93.5181	232.91	93.4921	232.91	93.2131	232.91	93.286	232.91	92.9253	232.91	93.1185	232.91	92.6895	232.91	93.0117	232.91	92.5343	232.91	92.974	232.91	92.4731	232.91	92.9947	232.91	92.5004	232.91	93.0499	232.91	92.5955	232.91	93.1147	232.91	92.7306	232.91	93.1705	232.91	92.8778	232.91	93.2063	232.91	93.0132	232.91	93.2139	232.91	93.1192	232.91	93.1864
241.699	94.4746	241.699	94.4106	241.699	94.4847	241.699	94.2963	241.699	94.4403	241.699	94.1387	241.699	94.3436	241.699	93.9471	241.699	94.199	241.699	93.7321	241.699	94.0119	241.699	93.5048	241.699	93.7889	241.699	93.2783	241.699	93.5392	241.699	93.0691	241.699	93.2771	241.699	92.8982	241.699	93.0228	241.699	92.7869	241.699	92.8006	241.699	92.747	241.699	92.6338	241.699	92.7712	241.699	92.5391	241.699	92.8353	241.699	92.5214	241.699	92.9089	241.699	92.5714	241.699	92.9678	241.699	92.6673	241.699	92.9985	241.699	92.7799	241.699	92.9955	241.699	92.8822	241.699	92.9566
250.488	94.6169	250.488	94.5874	250.488	94.5829	250.488	94.4961	250.488	94.4866	250.488	94.3474	250.488	94.3326	250.488	94.1488	250.488	94.1286	250.488	93.9115	250.488	93.8861	250.488	93.6513	250.488	93.6197	250.488	93.3875	250.488	93.3478	250.488	93.1418	250.488	93.0922	250.488	92.9344	250.488	92.8761	250.488	92.7797	250.488	92.7197	250.488	92.6835	250.488	92.6336	250.488	92.6421	250.488	92.6146	250.488	92.6444	250.488	92.6468	250.488	92.6769	250.488	92.7075	250.488	92.7268	250.488	92.7744	250.488	92.7821	250.488	92.8294	250.488	92.8306	250.488	92.8598	250.488	92.8595
259.277	94.5739	259.277	94.5219	259.277	94.5443	259.277	94.3951	259.277	94.4321	259.277	94.2059	259.277	94.2418	259.277	93.9718	259.277	93.9819	259.277	93.7128	259.277	93.6658	259.277	93.4493	259.277	93.3109	259.277	93.2006	259.277	92.9395	259.277	92.9853	259.277	92.5794	259.277	92.8215	259.277	92.2633	259.277	92.7243	259.277	92.0268	259.277	92.6989	259.277	91.9008	259.277	92.7352	259.277	91.8996	259.277	92.8079	259.277	92.0102	259.277	92.8857	259.277	92.1951	259.277	92.9424	259.277	92.4065	259.277	92.9632	259.277	92.6042	259.277	92.9421	259.277	92.764	259.277	92.8766
268.066	94.4184	268.066	94.2908	268.066	94.4694	268.066	94.0897	268.066	94.4445	268.066	93.8238	268.066	94.3459	268.066	93.5086	268.066	94.1761	268.066	93.166	268.066	93.938	268.066	92.8224	268.066	93.6372	268.066	92.5068	268.066	93.2851	268.066	92.2494	268.066	92.9013	268.066	92.0793	268.066	92.5144	268.066	92.019	268.066	92.1589	268.066	92.0729	268.066	91.8699	268.066	92.2183	268.066	91.6762	268.066	92.4079	268.066	91.5964	268.066	92.5853	268.066	91.6344	268.066	92.7013	268.066	91.777	268.066	92.7247	268.066	91.9941	268.066	92.6453	268.066	92.2426	268.066	92.4744
276.855	94.4596	276.855	94.3792	276.855	94.4747	276.855	94.2302	276.855	94.4287	276.855	94.012	276.855	94.3247	276.855	93.7306	276.855	94.1645	276.855	93.4007	276.855	93.9493	276.855	93.0466	276.855	93.6817	276.855	92.6998	276.855	93.3687	276.855	92.3919	276.855	93.0291	276.855	92.146	276.855	92.7016	276.855	91.9761	276.855	92.4452	276.855	91.8933	276.855	92.3199	276.855	91.9112	276.855	92.3496	276.855	92.0369	276.855	92.5011	276.855	92.2536	276.855	92.7056	276.855	92.5165	276.855	92.8981	276.855	92.7693	276.855	93.037	276.855	92.9652	276.855	93.1007	276.855	93.0782
287.109	94.2442	287.109	94.2226	287.109	94.2209	287.109	94.1544	287.109	94.1501	287.109	94.0328	287.109	94.0278	287.109	93.8485	287.109	93.8517	287.109	93.5966	287.109	93.6256	287.109	93.2863	287.109	93.3627	287.109	92.9479	287.109	93.0832	287.109	92.6324	287.109	92.8037	287.109	92.3945	287.109	92.5284	287.109	92.2668	287.109	92.2567	287.109	92.2481	287.109	92.0057	287.109	92.3176	287.109	91.8244	287.109	92.4534	287.109	91.7744	287.109	92.6315	287.109	91.8858	287.109	92.8137	287.109	92.1281	287.109	92.9481	287.109	92.4283	287.109	92.987	287.109	92.7075	287.109	92.9052
297.363	94.7411	297.363	94.671	297.363	94.7172	297.363	94.5122	297.363	94.6	297.363	94.2752	297.363	94.3954	297.363	93.9729	297.363	94.1101	297.363	93.6179	297.363	93.7457	297.363	93.2248	297.363	93.2998	297.363	92.821	297.363	92.7792	297.363	92.4593	297.363	92.2227	297.363	92.2172	297.363	91.7156	297.363	92.158	297.363	91.3675	297.363	92.2736	297.363	91.2468	297.363	92.4764	297.363	91.3296	297.363	92.6617	297.363	91.5281	297.363	92.7692	297.363	91.7628	297.363	92.7949	297.363	91.9973	297.363	92.7637	297.363	92.221	297.363	92.6934	297.363	92.4216	297.363	92.5816
307.617	94.5474	307.617	94.4952	307.617	94.5313	307.617	94.3668	307.617	94.452	307.617	94.1567	307.617	94.3101	307.617	93.868	307.617	94.1076	307.617	93.511	307.617	93.8555	307.617	93.0978	307.617	93.5741	307.617	92.639	307.617	93.2821	307.617	92.152	307.617	92.9819	307.617	91.6833	307.617	92.6604	307.617	91.3243	307.617	92.315	307.617	91.1848	307.617	91.9847	307.617	91.3097	307.617	91.7528	307.617	91.6227	307.617	91.6939	307.617	91.9788	307.617	91.8054	307.617	92.2604	307.617	92.0067	307.617	92.4214	307.617	92.2068	307.617	92.4731	307.617	92.3562	307.617	92.4454
319.336	94.6633	319.336	94.5349	319.336	94.6859	319.336	94.307	319.336	94.6054	319.336	93.9942	319.336	94.4307	319.336	93.6162	319.336	94.1716	319.336	93.1941	319.336	93.833	319.336	92.7466	319.336	93.4162	319.336	92.2877	319.336	92.9281	319.336	91.8306	319.336	92.3994	319.336	91.4004	319.336	91.8964	319.336	91.0543	319.336	91.5126	319.336	90.8821	319.336	91.3286	319.336	90.9572	319.336	91.3635	319.336	91.2626	319.336	91.564	319.336	91.6832	319.336	91.8427	319.336	92.0829	319.336	92.1218	319.336	92.3748	319.336	92.3512	319.336	92.5337	319.336	92.5052	319.336	92.5707
329.59	94.2852	329.59	94.1837	329.59	94.3336	329.59	94.0362	329.59	94.3131	329.59	93.8386	329.59	94.2068	329.59	93.58	329.59	94.0055	329.59	93.2527	329.59	93.7132	329.59	92.8623	329.59	93.3473	329.59	92.4317	329.59	92.9319	329.59	91.9935	329.59	92.4886	329.59	91.5774	329.59	92.0299	329.59	91.2064	329.59	91.5651	329.59	90.9108	329.59	91.12	329.59	90.7407	329.59	90.7583	329.59	90.7516	329.59	90.5742	329.59	90.9527	329.59	90.6327	329.59	91.2713	329.59	90.9034	329.59	91.5825	329.59	91.2688	329.59	91.7726	329.59	91.5938	329.59	91.7781
341.309	94.4536	341.309	94.3858	341.309	94.4184	341.309	94.2195	341.309	94.2808	341.309	93.9633	341.309	94.044	341.309	93.6275	341.309	93.7112	341.309	93.2229	341.309	93.2869	341.309	92.7661	341.309	92.7832	341.309	92.2884	341.309	92.2327	341.309	91.8377	341.309	91.7025	341.309	91.4646	341.309	91.2956	341.309	91.2026	341.309	91.1132	341.309	91.0625	341.309	91.1807	341.309	91.0431	341.309	91.4184	341.309	91.1372	341.309	91.7049	341.309	91.3266	341.309	91.9549	341.309	91.5771	341.309	92.1369	341.309	91.8412	341.309	92.2459	341.309	92.0678	341.309	92.2765	341.309	92.2183
353.027	94.2728	353.027	94.2304	353.027	94.2554	353.027	94.1166	353.027	94.1856	353.027	93.9209	353.027	94.0627	353.027	93.6375	353.027	93.8781	353.027	93.2653	353.027	93.6176	353.027	92.8064	353.027	93.263	353.027	92.2765	353.027	92.7914	353.027	91.7275	353.027	92.1791	353.027	91.2545	353.027	91.4223	353.027	90.9522	353.027	90.5866	353.027	90.8497	353.027	89.8562	353.027	90.9077	353.027	89.4815	353.027	91.0727	353.027	89.5677	353.027	91.299	353.027	89.9774	353.027	91.534	353.027	90.5044	353.027	91.7138	353.027	91.0116	353.027	91.7779	353.027	91.4214	353.027	91.6843
366.211	94.383	366.211	94.2809	366.211	94.4028	366.211	94.0906	366.211	94.3418	366.211	93.8094	366.211	94.1962	366.211	93.4461	366.211	93.9615	366.211	93.022	366.211	93.6387	366.211	92.5618	366.211	93.2375	366.211	92.0763	366.211	92.7787	366.211	91.5565	366.211	92.2906	366.211	91.0012	366.211	91.7985	366.211	90.4743	366.211	91.3209	366.211	90.1234	366.211	90.8856	366.211	90.0792	366.211	90.5531	366.211	90.3184	366.211	90.4058	366.211	90.6899	366.211	90.485	366.211	91.0462	366.211	90.7351	366.211	91.3041	366.211	91.0367	366.211	91.4313	366.211	91.2844	366.211	91.4227
379.395	94.3955	379.395	94.3427	379.395	94.378	379.395	94.2172	379.395	94.2866	379.395	94.005	379.395	94.119	379.395	93.6835	379.395	93.8796	379.395	93.2355	379.395	93.5768	379.395	92.6723	379.395	93.2163	379.395	92.0502	379.395	92.7939	379.395	91.4577	379.395	92.2987	379.395	90.9645	379.395	91.7341	379.395	90.5908	379.395	91.1446	379.395	90.3502	379.395	90.6292	379.395	90.2985	379.395	90.3133	379.395	90.4807	379.395	90.2795	379.395	90.8372	379.395	90.5078	379.395	91.2288	379.395	90.8861	379.395	91.5374	379.395	91.2754	379.395	91.7064	379.395	91.5702	379.395	91.7184
392.578	93.8824	392.578	93.7845	392.578	93.9033	392.578	93.6272	392.578	93.8346	392.578	93.4308	392.578	93.667	392.578	93.2046	392.578	93.3932	392.578	92.9313	392.578	93.0153	392.578	92.5646	392.578	92.5559	392.578	92.0613	392.578	92.0624	392.578	91.4381	392.578	91.5898	392.578	90.8099	392.578	91.1686	392.578	90.3313	392.578	90.7954	392.578	90.0596	392.578	90.4633	392.578	89.9395	392.578	90.201	392.578	89.9355	392.578	90.0686	392.578	90.0715	392.578	90.1104	392.578	90.3385	392.578	90.3103	392.578	90.6456	392.578	90.5882	392.578	90.8747	392.578	90.832	392.578	90.9433
405.762	93.949	405.762	93.7542	405.762	94.0126	405.762	93.4337	405.762	93.9451	405.762	93.0126	405.762	93.7454	405.762	92.5475	405.762	93.4103	405.762	92.1096	405.762	92.936	405.762	91.7306	405.762	92.3266	405.762	91.3675	405.762	91.6138	405.762	90.9548	405.762	90.8789	405.762	90.5086	405.762	90.2442	405.762	90.1603	405.762	89.8141	405.762	90.0347	405.762	89.6137	405.762	90.0983	405.762	89.6006	405.762	90.2172	405.762	89.7184	405.762	90.3171	405.762	89.9146	405.762	90.4073	405.762	90.1374	405.762	90.5003	405.762	90.3419	405.762	90.5686	405.762	90.4947	405.762	90.5729
420.41	93.9422	420.41	93.8481	420.41	93.9526	420.41	93.642	420.41	93.8926	420.41	93.2945	420.41	93.7591	420.41	92.7917	420.41	93.5425	420.41	92.1528	420.41	93.2358	420.41	91.4491	420.41	92.8249	420.41	90.7886	420.41	92.2732	420.41	90.2349	420.41	91.5308	420.41	89.7489	420.41	90.5864	420.41	89.2911	420.41	89.5455	420.41	88.9886	420.41	88.6588	420.41	89.0691	420.41	88.1743	420.41	89.5299	420.41	88.1288	420.41	90.1021	420.41	88.4245	420.41	90.5574	420.41	88.9781	420.41	90.8203	420.41	89.665	420.41	90.8807	420.41	90.294	420.41	90.7139
435.059	93.7809	435.059	93.6711	435.059	93.7942	435.059	93.4803	435.059	93.7089	435.059	93.2192	435.059	93.5387	435.059	92.8676	435.059	93.3008	435.059	92.3699	435.059	92.9993	435.059	91.6723	435.059	92.6212	435.059	90.7872	435.059	92.1469	435.059	89.833	435.059	91.5599	435.059	89.005	435.059	90.8508	435.059	88.4758	435.059	90.0495	435.059	88.3156	435.059	89.298	435.059	88.4977	435.059	88.8638	435.059	88.9339	435.059	88.9265	435.059	89.5035	435.059	89.3549	435.059	90.081	435.059	89.8782	435.059	90.5505	435.059	90.3345	435.059	90.8207	435.059	90.6726	435.059	90.853
451.172	94.1533	451.172	93.9666	451.172	94.2121	451.172	93.6461	451.172	94.1567	451.172	93.1962	451.172	94.0029	451.172	92.6391	451.172	93.7562	451.172	92.0161	451.172	93.407	451.172	91.3659	451.172	92.9441	451.172	90.6962	451.172	92.3806	451.172	89.993	451.172	91.7623	451.172	89.2738	451.172	91.1306	451.172	88.6259	451.172	90.4604	451.172	88.175	451.172	89.676	451.172	88.0108	451.172	88.7962	451.172	88.14	451.172	88.0743	451.172	88.4637	451.172	87.8133	451.172	88.8017	451.172	87.9568	451.172	88.9888	451.172	88.2289	451.172	88.9607	451.172	88.5029	451.172	88.7656
465.82	94.8939	465.82	94.7576	465.82	94.881	465.82	94.4622	465.82	94.7221	465.82	93.9926	465.82	94.4244	465.82	93.3441	465.82	94.0048	465.82	92.5293	465.82	93.4799	465.82	91.5641	465.82	92.8542	465.82	90.458	465.82	92.1346	465.82	89.2627	465.82	91.3754	465.82	88.1738	465.82	90.7024	465.82	87.5034	465.82	90.2278	465.82	87.3645	465.82	89.9114	465.82	87.5306	465.82	89.6026	465.82	87.7654	465.82	89.2423	465.82	88.0243	465.82	88.955	465.82	88.3459	465.82	88.8944	465.82	88.7025	465.82	89.0232	465.82	89.0015	465.82	89.1592	465.82	89.1643
483.398	95.4173	483.398	95.3097	483.398	95.4139	483.398	95.0996	483.398	95.2945	483.398	94.7995	483.398	95.0468	483.398	94.412	483.398	94.6558	483.398	93.9196	483.398	94.1202	483.398	93.2882	483.398	93.4535	483.398	92.4796	483.398	92.6604	483.398	91.4663	483.398	91.7237	483.398	90.2578	483.398	90.6436	483.398	88.9609	483.398	89.5341	483.398	87.8955	483.398	88.6946	483.398	87.5547	483.398	88.4421	483.398	88.0469	483.398	88.7529	483.398	88.8788	483.398	89.3191	483.398	89.5945	483.398	89.8767	483.398	90.0669	483.398	90.2863	483.398	90.3491	483.398	90.4897	483.398	90.4953
499.512	95.3054	499.512	95.1655	499.512	95.3525	499.512	94.9712	499.512	95.2819	499.512	94.7424	499.512	95.091	499.512	94.4524	499.512	94.7849	499.512	94.0354	499.512	94.3582	499.512	93.4301	499.512	93.7901	499.512	92.6244	499.512	93.0485	499.512	91.6681	499.512	92.1074	499.512	90.6758	499.512	91.0006	499.512	89.8396	499.512	89.9105	499.512	89.3854	499.512	89.1727	499.512	89.4191	499.512	89.0163	499.512	89.8442	499.512	89.3281	499.512	90.4709	499.512	89.8569	499.512	91.1184	499.512	90.4506	499.512	91.6362	499.512	91.0417	499.512	91.9078	499.512	91.5529	499.512	91.8729
517.09	94.5095	517.09	94.5325	517.09	94.4317	517.09	94.4239	517.09	94.3458	517.09	94.118	517.09	94.2599	517.09	93.6113	517.09	94.1418	517.09	92.9716	517.09	93.9239	517.09	92.2698	517.09	93.5407	517.09	91.4815	517.09	92.9839	517.09	90.4859	517.09	92.3004	517.09	89.2539	517.09	91.5101	517.09	88.1462	517.09	90.5635	517.09	87.8139	517.09	89.4805	517.09	88.2998	517.09	88.6003	517.09	89.0692	517.09	88.4765	517.09	89.8405	517.09	89.1325	517.09	90.5696	517.09	90.0387	517.09	91.176	517.09	90.8114	517.09	91.5351	517.09	91.334	517.09	91.5839
536.133	94.4321	536.133	94.3169	536.133	94.4388	536.133	94.1185	536.133	94.3272	536.133	93.8697	536.133	94.0917	536.133	93.5868	536.133	93.7204	536.133	93.2404	536.133	93.2006	536.133	92.7424	536.133	92.5264	536.133	91.9842	536.133	91.6878	536.133	90.8999	536.133	90.6569	536.133	89.4776	536.133	89.4323	536.133	87.7458	536.133	88.1673	536.133	86.0671	536.133	87.2563	536.133	85.7057	536.133	87.0923	536.133	87.0681	536.133	87.6668	536.133	88.6539	536.133	88.6479	536.133	89.6952	536.133	89.6475	536.133	90.2533	536.133	90.3719	536.133	90.5633	536.133	90.7151	536.133	90.737
555.176	93.9855	555.176	93.9172	555.176	94.0503	555.176	93.8638	555.176	94.0929	555.176	93.8101	555.176	94.0892	555.176	93.6754	555.176	94.0069	555.176	93.3396	555.176	93.8187	555.176	92.7009	555.176	93.4974	555.176	91.7145	555.176	93.0031	555.176	90.4072	555.176	92.2885	555.176	88.89	555.176	91.2785	555.176	87.3669	555.176	89.8271	555.176	86.1169	555.176	87.817	555.176	85.4998	555.176	85.6606	555.176	85.8374	555.176	84.7953	555.176	86.9646	555.176	85.6333	555.176	88.2852	555.176	86.93	555.176	89.3005	555.176	88.115	555.176	89.7781	555.176	89.0754	555.176	89.6777
574.219	94.2111	574.219	94.0346	574.219	94.3551	574.219	93.8787	574.219	94.3659	574.219	93.7203	574.219	94.201	574.219	93.5261	574.219	93.9244	574.219	93.3061	574.219	93.6395	574.219	93.0674	574.219	93.3783	574.219	92.7124	574.219	93.0431	574.219	92.0252	574.219	92.4478	574.219	90.8028	574.219	91.4581	574.219	89.0296	574.219	90.1395	574.219	87.0354	574.219	88.7704	574.219	85.61	574.219	87.6732	574.219	85.5851	574.219	87.1063	574.219	86.7178	574.219	87.2739	574.219	88.0976	574.219	88.0869	574.219	89.241	574.219	89.1241	574.219	90.0001	574.219	89.9447	574.219	90.2625
594.727	94.5169	594.727	94.4982	594.727	94.439	594.727	94.3434	594.727	94.3384	594.727	94.0716	594.727	94.2529	594.727	93.7395	594.727	94.1385	594.727	93.3802	594.727	93.9018	594.727	92.9363	594.727	93.4822	594.727	92.3028	594.727	92.9116	594.727	91.4468	594.727	92.2627	594.727	90.4005	594.727	91.5059	594.727	89.163	594.727	90.469	594.727	87.8228	594.727	88.9616	594.727	86.9492	594.727	87.0204	594.727	87.2662	594.727	85.6238	594.727	88.4236	594.727	86.3551	594.727	89.5951	594.727	88.0906	594.727	90.3798	594.727	89.3802	594.727	90.6752	594.727	90.119	594.727	90.5422
615.234	95.017	615.234	94.9491	615.234	94.9932	615.234	94.8173	615.234	94.8994	615.234	94.6509	615.234	94.7567	615.234	94.4122	615.234	94.5486	615.234	94.0502	615.234	94.2727	615.234	93.5674	615.234	93.9452	615.234	92.9487	615.234	93.5036	615.234	92.0884	615.234	92.8094	615.234	90.8927	615.234	91.7853	615.234	89.4291	615.234	90.448	615.234	87.9276	615.234	88.8194	615.234	86.7453	615.234	87.0753	615.234	86.4709	615.234	85.9769	615.234	87.3237	615.234	86.2778	615.234	88.5721	615.234	87.4621	615.234	89.5314	615.234	88.6816	615.234	89.9926	615.234	89.5448	615.234	89.9806
637.207	94.7075	637.207	94.6544	637.207	94.6429	637.207	94.4816	637.207	94.5033	637.207	94.2747	637.207	94.3452	637.207	94.1446	637.207	94.2166	637.207	94.0659	637.207	94.1342	637.207	93.9124	637.207	94.075	637.207	93.6314	637.207	93.9374	637.207	93.1671	637.207	93.5446	637.207	92.2621	637.207	92.761	637.207	90.5941	637.207	91.5921	637.207	88.2168	637.207	90.0953	637.207	86.2067	637.207	88.2476	637.207	85.9707	637.207	86.3778	637.207	86.8724	637.207	85.9587	637.207	87.9303	637.207	87.3688	637.207	88.825	637.207	88.8422	637.207	89.4463	637.207	89.6137	637.207	89.7475
659.18	94.5851	659.18	94.3974	659.18	94.7011	659.18	94.2192	659.18	94.6648	659.18	94.0104	659.18	94.5046	659.18	93.7648	659.18	94.2839	659.18	93.5927	659.18	94.0178	659.18	93.3912	659.18	93.7335	659.18	92.8548	659.18	93.5404	659.18	91.9524	659.18	93.4429	659.18	91	659.18	93.1364	659.18	90.0365	659.18	92.2353	659.18	88.5979	659.18	90.6064	659.18	86.7787	659.18	88.5389	659.18	86.4988	659.18	86.8201	659.18	88.2558	659.18	86.5116	659.18	90.0463	659.18	87.8024	659.18	91.1686	659.18	89.4911	659.18	91.605	659.18	90.7463	659.18	91.4436
682.617	95.2174	682.617	94.9745	682.617	95.2792	682.617	94.603	682.617	95.1516	682.617	94.256	682.617	94.7985	682.617	93.9526	682.617	94.2729	682.617	93.581	682.617	93.8089	682.617	93.2498	682.617	93.6251	682.617	93.0991	682.617	93.5734	682.617	92.7582	682.617	93.2784	682.617	91.6621	682.617	92.588	682.617	89.6949	682.617	91.6191	682.617	87.5414	682.617	90.3657	682.617	86.3683	682.617	88.592	682.617	86.6574	682.617	86.6871	682.617	87.9643	682.617	86.3484	682.617	89.4347	682.617	87.5158	682.617	90.5766	682.617	88.859	682.617	91.1503	682.617	90.0964	682.617	90.9721
707.52	94.9398	707.52	94.8094	707.52	94.7981	707.52	94.4626	707.52	94.3965	707.52	93.9832	707.52	93.9037	707.52	93.5154	707.52	93.538	707.52	93.1897	707.52	93.2907	707.52	92.9687	707.52	92.9914	707.52	92.6869	707.52	92.6753	707.52	92.1956	707.52	92.4622	707.52	91.4344	707.52	92.1677	707.52	90.3773	707.52	91.5235	707.52	88.793	707.52	90.4191	707.52	86.3421	707.52	88.7405	707.52	84.1867	707.52	86.5568	707.52	85.3591	707.52	85.3834	707.52	87.4552	707.52	86.7607	707.52	88.6556	707.52	88.5096	707.52	89.2703	707.52	89.4122	707.52	89.57
732.422	93.9541	732.422	93.8225	732.422	93.9137	732.422	93.4905	732.422	93.7639	732.422	92.9519	732.422	93.5063	732.422	92.3521	732.422	93.0127	732.422	91.9246	732.422	92.3065	732.422	91.606	732.422	91.7232	732.422	91.225	732.422	91.479	732.422	90.8735	732.422	91.3971	732.422	90.439	732.422	91.1979	732.422	89.2718	732.422	90.6424	732.422	86.9025	732.422	89.575	732.422	84.066	732.422	88.0067	732.422	83.1222	732.422	86.0824	732.422	84.4096	732.422	84.6114	732.422	86.6511	732.422	85.1969	732.422	88.6714	732.422	86.9853	732.422	89.6244	732.422	88.5359	732.422	89.4803
757.324	92.9377	757.324	92.513	757.324	93.1821	757.324	91.9848	757.324	93.1111	757.324	91.4068	757.324	92.6605	757.324	90.8007	757.324	92.0008	757.324	90.2601	757.324	91.3262	757.324	90.0006	757.324	90.6347	757.324	89.9583	757.324	90.0576	757.324	89.6938	757.324	89.8576	757.324	88.8849	757.324	89.7729	757.324	87.5335	757.324	89.2229	757.324	85.7122	757.324	87.8999	757.324	83.2515	757.324	85.8002	757.324	80.6929	757.324	83.2993	757.324	81.7931	757.324	82.1129	757.324	84.8937	757.324	83.6735	757.324	87.0596	757.324	85.8476	757.324	88.0999	757.324	87.3732	757.324	88.1431
785.156	91.8928	785.156	91.6258	785.156	91.8346	785.156	90.9657	785.156	91.5467	785.156	90.0802	785.156	91.0251	785.156	89.1517	785.156	90.3315	785.156	88.1004	785.156	89.6532	785.156	87.2087	785.156	89.0926	785.156	87.1376	785.156	88.6513	785.156	87.3845	785.156	88.3677	785.156	87.2198	785.156	88.0541	785.156	86.6595	785.156	87.358	785.156	85.4806	785.156	86.2352	785.156	82.6291	785.156	84.8582	785.156	78.8797	785.156	83.2229	785.156	80.6229	785.156	81.4041	785.156	83.0572	785.156	81.2818	785.156	84.1089	785.156	83.3665	785.156	84.7212	785.156	84.8688	785.156	85.1527
811.523	92.0276	811.523	91.889	811.523	91.9618	811.523	91.5774	811.523	91.6498	811.523	90.8775	811.523	91.2724	811.523	89.7039	811.523	90.8028	811.523	88.6007	811.523	89.9029	811.523	88.0703	811.523	88.8345	811.523	87.7148	811.523	88.47	811.523	87.4977	811.523	88.4401	811.523	87.4472	811.523	88.0605	811.523	86.5437	811.523	87.6158	811.523	84.1491	811.523	87.0943	811.523	81.3554	811.523	85.457	811.523	80.283	811.523	82.1312	811.523	80.475	811.523	79.0975	811.523	83.1841	811.523	81.1369	811.523	85.8893	811.523	84.0915	811.523	86.9028	811.523	85.83	811.523	86.716
840.82	94.4003	840.82	94.1821	840.82	94.446	840.82	93.7504	840.82	94.2311	840.82	93.0521	840.82	93.6795	840.82	92.087	840.82	92.9067	840.82	90.7948	840.82	92.0692	840.82	89.5032	840.82	91.0892	840.82	89.1093	840.82	90.0267	840.82	89.1969	840.82	89.6042	840.82	89.0198	840.82	89.8306	840.82	88.8186	840.82	89.5413	840.82	88.3862	840.82	88.4892	840.82	86.2008	840.82	87.0814	840.82	80.9555	840.82	84.9221	840.82	80.7362	840.82	81.7355	840.82	84.0696	840.82	82.4917	840.82	85.6997	840.82	85.23	840.82	87.0168	840.82	86.8248	840.82	87.477
870.117	96.1815	870.117	96.0636	870.117	96.0259	870.117	95.6014	870.117	95.7112	870.117	94.6705	870.117	95.2995	870.117	93.4856	870.117	94.5419	870.117	92.5915	870.117	93.3003	870.117	91.6983	870.117	92.1128	870.117	90.31	870.117	91.3607	870.117	89.7343	870.117	90.4061	870.117	90.2498	870.117	89.5222	870.117	89.6846	870.117	89.5644	870.117	87.7037	870.117	89.2686	870.117	85.5643	870.117	87.3575	870.117	83.258	870.117	84.7254	870.117	81.2299	870.117	83.5916	870.117	84.8016	870.117	83.9123	870.117	88.1837	870.117	86.3103	870.117	89.5684	870.117	88.7901	870.117	89.772
900.879	96.3141	900.879	96.2452	900.879	96.1816	900.879	95.8356	900.879	96.1553	900.879	95.4901	900.879	95.8251	900.879	94.9034	900.879	95.0819	900.879	93.5896	900.879	94.2867	900.879	92.3432	900.879	93.153	900.879	91.7308	900.879	91.7995	900.879	90.7727	900.879	91.491	900.879	89.9618	900.879	91.3971	900.879	90.4331	900.879	90.2185	900.879	90.3362	900.879	89.038	900.879	87.8946	900.879	88.2351	900.879	83.0223	900.879	85.4267	900.879	81.0164	900.879	79.7052	900.879	84.5839	900.879	82.7461	900.879	87.6682	900.879	86.1808	900.879	89.021	900.879	87.8945	900.879	88.9053
933.105	95.7368	933.105	95.6689	933.105	95.8038	933.105	95.3888	933.105	95.2694	933.105	94.3478	933.105	94.4333	933.105	93.3971	933.105	93.5731	933.105	92.7875	933.105	92.2131	933.105	91.1945	933.105	91.2277	933.105	89.5404	933.105	90.8585	933.105	90.0884	933.105	89.5718	933.105	90.6113	933.105	89.1045	933.105	89.9366	933.105	90.2769	933.105	88.9058	933.105	90.3044	933.105	87.4549	933.105	88.6656	933.105	83.7118	933.105	86.0615	933.105	77.9887	933.105	80.8017	933.105	80.5185	933.105	75.4827	933.105	84.2405	933.105	82.5802	933.105	86.9021	933.105	86.0257	933.105	87.4981
965.332	96.9301	965.332	96.7532	965.332	96.6705	965.332	96.3546	965.332	96.6859	965.332	96.1329	965.332	96.5845	965.332	95.3041	965.332	95.7543	965.332	93.8699	965.332	94.6909	965.332	92.7292	965.332	93.1181	965.332	91.4619	965.332	90.7713	965.332	89.7836	965.332	90.0334	965.332	89.3227	965.332	90.4219	965.332	89.8338	965.332	89.6233	965.332	89.97	965.332	88.8707	965.332	88.5769	965.332	88.1632	965.332	84.581	965.332	85.9521	965.332	80.1285	965.332	82.5172	965.332	83.0785	965.332	81.9492	965.332	85.9854	965.332	85.3556	965.332	87.1962	965.332	87.833	965.332	88.0091
1,000.49	96.8761	1,000.49	96.8549	1,000.49	97.0678	1,000.49	96.5179	1,000.49	96.74	1,000.49	95.5867	1,000.49	95.7746	1,000.49	94.9163	1,000.49	94.9417	1,000.49	94.2334	1,000.49	94.147	1,000.49	92.5967	1,000.49	93.0383	1,000.49	91.0762	1,000.49	91.6335	1,000.49	90.8644	1,000.49	89.8284	1,000.49	90.9508	1,000.49	89.1409	1,000.49	91.1224	1,000.49	89.8854	1,000.49	90.7698	1,000.49	90.1578	1,000.49	89.2629	1,000.49	89.4297	1,000.49	86.8659	1,000.49	87.2082	1,000.49	83.2565	1,000.49	82.5465	1,000.49	81.5382	1,000.49	78.0125	1,000.49	85.4372	1,000.49	81.2216	1,000.49	87.6395	1,000.49	84.9565	1,000.49	87.2644
1,035.64	96.8709	1,035.64	96.3995	1,035.64	96.4295	1,035.64	95.9132	1,035.64	95.9212	1,035.64	95.7091	1,035.64	96.0101	1,035.64	94.8607	1,035.64	95.5478	1,035.64	93.6606	1,035.64	94.1993	1,035.64	92.674	1,035.64	92.6765	1,035.64	91.295	1,035.64	90.93	1,035.64	89.6718	1,035.64	89.2549	1,035.64	88.5804	1,035.64	88.7054	1,035.64	88.0912	1,035.64	88.5767	1,035.64	88.377	1,035.64	87.6968	1,035.64	88.2169	1,035.64	86.4656	1,035.64	85.2162	1,035.64	86.0406	1,035.64	80.3167	1,035.64	84.1297	1,035.64	81.544	1,035.64	78.7028	1,035.64	84.5011	1,035.64	83.451	1,035.64	85.95	1,035.64	85.9944	1,035.64	86.3584
1,072.27	95.9795	1,072.27	95.8306	1,072.27	96.1167	1,072.27	95.5785	1,072.27	96.255	1,072.27	95.0781	1,072.27	95.5504	1,072.27	94.0524	1,072.27	94.344	1,072.27	93.1206	1,072.27	93.7014	1,072.27	91.8308	1,072.27	92.6975	1,072.27	89.1762	1,072.27	90.9245	1,072.27	87.2237	1,072.27	88.8969	1,072.27	86.5897	1,072.27	86.8648	1,072.27	87.5789	1,072.27	87.0825	1,072.27	88.8591	1,072.27	87.799	1,072.27	87.1771	1,072.27	87.6362	1,072.27	84.3185	1,072.27	86.668	1,072.27	82.9201	1,072.27	82.9152	1,072.27	81.9302	1,072.27	77.5966	1,072.27	84.4679	1,072.27	80.2803	1,072.27	85.8594	1,072.27	84.8407	1,072.27	86.2991
1,108.89	96.2132	1,108.89	95.8473	1,108.89	96.3054	1,108.89	95.5733	1,108.89	95.5921	1,108.89	94.5197	1,108.89	95.1527	1,108.89	93.446	1,108.89	94.6455	1,108.89	92.7892	1,108.89	93.4336	1,108.89	91.2959	1,108.89	92.4373	1,108.89	89.5696	1,108.89	90.9661	1,108.89	88.8283	1,108.89	88.707	1,108.89	88.4026	1,108.89	87.8299	1,108.89	87.4353	1,108.89	87.4204	1,108.89	86.7963	1,108.89	86.9712	1,108.89	86.618	1,108.89	86.4276	1,108.89	84.3101	1,108.89	84.6868	1,108.89	78.8258	1,108.89	82.8096	1,108.89	79.6178	1,108.89	78.9448	1,108.89	84.243	1,108.89	82.0379	1,108.89	85.8352	1,108.89	84.7421	1,108.89	85.2053
1,148.44	95.6821	1,148.44	95.2842	1,148.44	95.6706	1,148.44	94.643	1,148.44	95.3615	1,148.44	93.9279	1,148.44	94.8844	1,148.44	93.2134	1,148.44	94.0182	1,148.44	92.2647	1,148.44	93.0983	1,148.44	90.7937	1,148.44	92.3405	1,148.44	88.9637	1,148.44	90.9642	1,148.44	86.8773	1,148.44	88.7076	1,148.44	84.6422	1,148.44	86.0089	1,148.44	85.2899	1,148.44	85.7352	1,148.44	86.4108	1,148.44	86.7574	1,148.44	85.1585	1,148.44	85.8802	1,148.44	82.4063	1,148.44	85.0995	1,148.44	79.1799	1,148.44	82.4828	1,148.44	81.0318	1,148.44	73.7559	1,148.44	82.5853	1,148.44	78.5952	1,148.44	83.6047	1,148.44	82.9524	1,148.44	84.659
1,189.45	94.6246	1,189.45	94.3938	1,189.45	95.084	1,189.45	94.1711	1,189.45	95.1402	1,189.45	93.5367	1,189.45	94.6632	1,189.45	92.7798	1,189.45	94.2889	1,189.45	92.0236	1,189.45	93.561	1,189.45	90.5954	1,189.45	92.2694	1,189.45	88.457	1,189.45	90.8278	1,189.45	85.8732	1,189.45	88.6713	1,189.45	83.8231	1,189.45	86.8197	1,189.45	85.0123	1,189.45	85.9334	1,189.45	85.4049	1,189.45	85.689	1,189.45	85.1459	1,189.45	86.9337	1,189.45	83.1597	1,189.45	85.6283	1,189.45	76.4765	1,189.45	82.284	1,189.45	76.258	1,189.45	77.7998	1,189.45	83.1154	1,189.45	76.1852	1,189.45	86.3168	1,189.45	81.7522	1,189.45	85.2598
1,230.47	93.4195	1,230.47	93.133	1,230.47	93.4797	1,230.47	92.7715	1,230.47	93.2109	1,230.47	91.7393	1,230.47	92.9329	1,230.47	90.8543	1,230.47	92.2774	1,230.47	90.174	1,230.47	91.4761	1,230.47	89.1939	1,230.47	90.6115	1,230.47	87.9564	1,230.47	89.4714	1,230.47	85.0531	1,230.47	87.8991	1,230.47	81.7684	1,230.47	85.7147	1,230.47	82.1276	1,230.47	83.9813	1,230.47	84.2227	1,230.47	83.9682	1,230.47	83.5047	1,230.47	84.9077	1,230.47	80.3402	1,230.47	84.575	1,230.47	78.1766	1,230.47	81.4876	1,230.47	76.4062	1,230.47	75.2539	1,230.47	81.5159	1,230.47	74.1467	1,230.47	82.1385	1,230.47	81.522	1,230.47	82.5529
1,274.41	93.6808	1,274.41	93.2713	1,274.41	93.4625	1,274.41	92.1934	1,274.41	93.3921	1,274.41	91.5631	1,274.41	92.4142	1,274.41	90.6504	1,274.41	91.4448	1,274.41	89.4774	1,274.41	91.0169	1,274.41	88.4708	1,274.41	89.9315	1,274.41	87.58	1,274.41	88.8249	1,274.41	86.0855	1,274.41	87.1418	1,274.41	83.9679	1,274.41	84.5437	1,274.41	82.5719	1,274.41	83.3621	1,274.41	80.7531	1,274.41	83.7516	1,274.41	81.8836	1,274.41	83.6917	1,274.41	81.7171	1,274.41	83.1141	1,274.41	73.6656	1,274.41	81.6424	1,274.41	74.699	1,274.41	76.21	1,274.41	79.94	1,274.41	78.9575	1,274.41	83.4027	1,274.41	81.4708	1,274.41	83.1569
1,319.82	94.5267	1,319.82	94.3044	1,319.82	94.6574	1,319.82	93.8552	1,319.82	94.19	1,319.82	92.7872	1,319.82	93.2922	1,319.82	91.8572	1,319.82	92.5679	1,319.82	90.9695	1,319.82	91.158	1,319.82	89.5863	1,319.82	90.1328	1,319.82	88.4984	1,319.82	89.3731	1,319.82	87.0895	1,319.82	87.8379	1,319.82	85.1799	1,319.82	85.4608	1,319.82	81.9829	1,319.82	82.497	1,319.82	83.3336	1,319.82	82.8502	1,319.82	84.2904	1,319.82	83.7806	1,319.82	81.7076	1,319.82	84.2444	1,319.82	78.1176	1,319.82	80.0606	1,319.82	71.4732	1,319.82	66.7104	1,319.82	80.8375	1,319.82	75.0466	1,319.82	84.1313	1,319.82	82.1716	1,319.82	85.2772
1,366.7	96.1076	1,366.7	95.5351	1,366.7	96.257	1,366.7	94.9016	1,366.7	95.7793	1,366.7	93.9874	1,366.7	94.3273	1,366.7	92.2585	1,366.7	92.8723	1,366.7	91.424	1,366.7	92.1533	1,366.7	90.2281	1,366.7	91.2829	1,366.7	88.4704	1,366.7	89.6879	1,366.7	87.069	1,366.7	88.0532	1,366.7	83.7944	1,366.7	86.227	1,366.7	83.5355	1,366.7	82.9348	1,366.7	85.7349	1,366.7	82.1642	1,366.7	85.3347	1,366.7	84.8049	1,366.7	85.0943	1,366.7	85.6399	1,366.7	80.4608	1,366.7	84.7142	1,366.7	71.1209	1,366.7	76.4265	1,366.7	77.3714	1,366.7	73.6282	1,366.7	84.9137	1,366.7	79.8041	1,366.7	86.0895
1,413.57	96.0417	1,413.57	96.0912	1,413.57	95.7004	1,413.57	94.9791	1,413.57	95.1896	1,413.57	93.8237	1,413.57	94.9478	1,413.57	92.5441	1,413.57	93.1692	1,413.57	90.2107	1,413.57	91.5113	1,413.57	89.5224	1,413.57	89.5404	1,413.57	88.1942	1,413.57	87.9792	1,413.57	84.7158	1,413.57	86.528	1,413.57	83.1926	1,413.57	84.3107	1,413.57	83.9714	1,413.57	81.0355	1,413.57	80.9118	1,413.57	78.4622	1,413.57	83.2956	1,413.57	83.258	1,413.57	82.1876	1,413.57	83.0921	1,413.57	78.6015	1,413.57	82.1627	1,413.57	72.1929	1,413.57	77.6909	1,413.57	82.2577	1,413.57	66.2679	1,413.57	81.4134	1,413.57	81.2775	1,413.57	83.9997
1,463.38	95.0294	1,463.38	94.0154	1,463.38	95.1973	1,463.38	93.5365	1,463.38	94.354	1,463.38	92.546	1,463.38	92.8266	1,463.38	90.0686	1,463.38	92.4559	1,463.38	88.3101	1,463.38	90.4249	1,463.38	86.0698	1,463.38	88.4053	1,463.38	84.2368	1,463.38	85.4113	1,463.38	83.4104	1,463.38	82.279	1,463.38	81.8093	1,463.38	84.0195	1,463.38	77.5631	1,463.38	80.0317	1,463.38	71.8596	1,463.38	72.5482	1,463.38	76.2209	1,463.38	71.7744	1,463.38	73.761	1,463.38	79.2745	1,463.38	71.2686	1,463.38	78.2735	1,463.38	61.9688	1,463.38	75.1625	1,463.38	78.9048	1,463.38	60.2331	1,463.38	80.0968	1,463.38	77.9872	1,463.38	80.8211
1,516.11	93.711	1,516.11	93.3653	1,516.11	92.5472	1,516.11	92.5121	1,516.11	92.8322	1,516.11	91.1777	1,516.11	92.7214	1,516.11	88.8132	1,516.11	90.4365	1,516.11	87.2594	1,516.11	88.9073	1,516.11	86.3762	1,516.11	86.0873	1,516.11	85.9829	1,516.11	83.5868	1,516.11	84.2672	1,516.11	84.2742	1,516.11	81.6136	1,516.11	81.7953	1,516.11	76.5875	1,516.11	78.9776	1,516.11	76.1269	1,516.11	76.6488	1,516.11	71.8256	1,516.11	64.7741	1,516.11	72.635	1,516.11	61.0444	1,516.11	69.6838	1,516.11	74.6036	1,516.11	65.4806	1,516.11	69.4916	1,516.11	76.2939	1,516.11	67.0039	1,516.11	76.2364	1,516.11	53.0899	1,516.11	71.378
1,568.85	95.1103	1,568.85	94.712	1,568.85	95.3552	1,568.85	94.2997	1,568.85	95.2277	1,568.85	92.8182	1,568.85	94.538	1,568.85	92.0435	1,568.85	93.2591	1,568.85	90.4835	1,568.85	92.2107	1,568.85	87.3148	1,568.85	90.9963	1,568.85	86.8877	1,568.85	88.5384	1,568.85	87.0708	1,568.85	87.6018	1,568.85	83.0511	1,568.85	86.3721	1,568.85	81.9935	1,568.85	84.8179	1,568.85	81.5402	1,568.85	84.2935	1,568.85	81.7327	1,568.85	83.1311	1,568.85	81.7599	1,568.85	81.9783	1,568.85	76.7065	1,568.85	81.5637	1,568.85	68.5258	1,568.85	78.7591	1,568.85	68.9386	1,568.85	68.629	1,568.85	79.6313	1,568.85	75.7334	1,568.85	78.6353
1,624.51	96.5705	1,624.51	96.4039	1,624.51	96.1252	1,624.51	95.3926	1,624.51	96.0889	1,624.51	94.9136	1,624.51	95.5591	1,624.51	93.3786	1,624.51	94.5644	1,624.51	91.6952	1,624.51	93.2917	1,624.51	90.6048	1,624.51	91.7761	1,624.51	88.7785	1,624.51	90.4815	1,624.51	87.0557	1,624.51	88.4471	1,624.51	85.4507	1,624.51	87.7218	1,624.51	84.7273	1,624.51	85.5826	1,624.51	82.4321	1,624.51	82.9653	1,624.51	82.5771	1,624.51	82.4926	1,624.51	82.1783	1,624.51	81.6656	1,624.51	80.4384	1,624.51	81.4495	1,624.51	73.5025	1,624.51	78.8908	1,624.51	76.4836	1,624.51	64.0563	1,624.51	81.078	1,624.51	77.4004	1,624.51	83.3724
1,681.64	96.8104	1,681.64	96.3163	1,681.64	96.5418	1,681.64	95.4731	1,681.64	95.9102	1,681.64	94.8114	1,681.64	95.5994	1,681.64	93.2135	1,681.64	94.0486	1,681.64	91.6012	1,681.64	92.6584	1,681.64	90.2863	1,681.64	91.174	1,681.64	88.1189	1,681.64	89.2356	1,681.64	87.0019	1,681.64	89.0731	1,681.64	84.7977	1,681.64	86.5741	1,681.64	82.4412	1,681.64	84.8611	1,681.64	80.1916	1,681.64	82.0749	1,681.64	80.898	1,681.64	81.1555	1,681.64	82.6982	1,681.64	81.9208	1,681.64	76.6546	1,681.64	82.0016	1,681.64	75.4888	1,681.64	78.7829	1,681.64	65.0793	1,681.64	68.7564	1,681.64	79.1595	1,681.64	71.6467	1,681.64	77.3539
1,741.7	96.3986	1,741.7	96.1979	1,741.7	96.2907	1,741.7	95.7242	1,741.7	95.7025	1,741.7	94.4896	1,741.7	94.7842	1,741.7	93.0394	1,741.7	93.7413	1,741.7	92.0872	1,741.7	91.6269	1,741.7	88.3781	1,741.7	90.7116	1,741.7	87.8718	1,741.7	88.4954	1,741.7	85.5552	1,741.7	87.5947	1,741.7	84.9257	1,741.7	85.3501	1,741.7	81.5076	1,741.7	83.7187	1,741.7	80.9127	1,741.7	81.3037	1,741.7	81.7872	1,741.7	79.3053	1,741.7	81.8765	1,741.7	79.6184	1,741.7	81.9849	1,741.7	81.9267	1,741.7	78.1958	1,741.7	78.75	1,741.7	73.6695	1,741.7	70.3421	1,741.7	69.7577	1,741.7	72.0981	1,741.7	73.7303
1,803.22	95.121	1,803.22	94.8298	1,803.22	95.0834	1,803.22	94.2057	1,803.22	94.3889	1,803.22	93.219	1,803.22	93.3145	1,803.22	91.8539	1,803.22	92.0457	1,803.22	90.5107	1,803.22	90.4043	1,803.22	88.1763	1,803.22	88.4352	1,803.22	86.8662	1,803.22	86.966	1,803.22	85.2016	1,803.22	84.3977	1,803.22	83.5668	1,803.22	83.0756	1,803.22	82.0341	1,803.22	82.0515	1,803.22	80.0027	1,803.22	79.6825	1,803.22	77.1701	1,803.22	76.7492	1,803.22	79.8127	1,803.22	76.8852	1,803.22	78.7419	1,803.22	79.6154	1,803.22	74.8448	1,803.22	78.8892	1,803.22	67.9602	1,803.22	75.1566	1,803.22	76.0076	1,803.22	62.4724	1,803.22	75.5594
1,866.21	93.5915	1,866.21	93.0086	1,866.21	93.3537	1,866.21	92.6217	1,866.21	92.8018	1,866.21	91.4905	1,866.21	91.6598	1,866.21	90.0853	1,866.21	90.4309	1,866.21	88.2446	1,866.21	88.8321	1,866.21	85.9738	1,866.21	86.4351	1,866.21	84.1676	1,866.21	85.0339	1,866.21	82.9603	1,866.21	82.316	1,866.21	81.8019	1,866.21	80.4507	1,866.21	79.9859	1,866.21	78.7436	1,866.21	77.0966	1,866.21	77.2496	1,866.21	75.3794	1,866.21	73.2509	1,866.21	77.2669	1,866.21	71.1573	1,866.21	77.7375	1,866.21	76.0387	1,866.21	73.7065	1,866.21	77.13	1,866.21	71.0634	1,866.21	74.3246	1,866.21	74.3818	1,866.21	65.6056	1,866.21	72.1636
1,932.13	92.2849	1,932.13	91.8701	1,932.13	92.5729	1,932.13	91.0751	1,932.13	92.0417	1,932.13	89.6642	1,932.13	91.0289	1,932.13	88.0323	1,932.13	89.5913	1,932.13	86.0343	1,932.13	87.7807	1,932.13	84.3547	1,932.13	85.6889	1,932.13	81.9996	1,932.13	83.586	1,932.13	80.2646	1,932.13	81.3506	1,932.13	79.1667	1,932.13	78.0827	1,932.13	78.148	1,932.13	76.9068	1,932.13	75.0276	1,932.13	75.8579	1,932.13	73.0609	1,932.13	72.6043	1,932.13	74.9428	1,932.13	71.477	1,932.13	74.828	1,932.13	72.8511	1,932.13	69.6275	1,932.13	75.8054	1,932.13	66.1937	1,932.13	73.4578	1,932.13	73.1064	1,932.13	54.4999	1,932.13	69.8284
1,999.51	93.168	1,999.51	92.844	1,999.51	93.3386	1,999.51	91.6695	1,999.51	92.6889	1,999.51	90.1206	1,999.51	91.5609	1,999.51	88.5696	1,999.51	90.1166	1,999.51	86.0411	1,999.51	88.3174	1,999.51	84.789	1,999.51	86.2652	1,999.51	81.5108	1,999.51	83.7014	1,999.51	78.8182	1,999.51	81.9299	1,999.51	77.8801	1,999.51	78.6375	1,999.51	76.446	1,999.51	78.2925	1,999.51	73.1113	1,999.51	74.7197	1,999.51	69.9718	1,999.51	73.5059	1,999.51	74.4103	1,999.51	71.7474	1,999.51	74.3752	1,999.51	73.2968	1,999.51	71.6359	1,999.51	73.8814	1,999.51	67.7778	1,999.51	72.2691	1,999.51	70.7571	1,999.51	69.3414	1,999.51	72.5074
2,069.82	93.5678	2,069.82	93.1862	2,069.82	93.6368	2,069.82	91.9452	2,069.82	92.7936	2,069.82	90.452	2,069.82	91.8223	2,069.82	88.911	2,069.82	90.1401	2,069.82	86.8169	2,069.82	88.2609	2,069.82	84.5925	2,069.82	86.4914	2,069.82	81.6774	2,069.82	83.7466	2,069.82	80.0456	2,069.82	81.9697	2,069.82	77.3577	2,069.82	79.3525	2,069.82	77.2921	2,069.82	78.0318	2,069.82	76.6099	2,069.82	76.6791	2,069.82	73.1881	2,069.82	75.3405	2,069.82	73.0108	2,069.82	70.4883	2,069.82	74.7965	2,069.82	72.5262	2,069.82	73.4059	2,069.82	73.648	2,069.82	64.8592	2,069.82	71.0453	2,069.82	72.237	2,069.82	67.8918	2,069.82	73.1837
2,143.07	92.8686	2,143.07	92.5113	2,143.07	92.83	2,143.07	91.5247	2,143.07	92.2485	2,143.07	90.1379	2,143.07	90.7988	2,143.07	88.6409	2,143.07	89.4217	2,143.07	86.535	2,143.07	87.1675	2,143.07	84.4273	2,143.07	85.2848	2,143.07	81.6259	2,143.07	82.2393	2,143.07	78.4854	2,143.07	80.9553	2,143.07	76.1135	2,143.07	77.9735	2,143.07	75.0151	2,143.07	76.5233	2,143.07	73.7725	2,143.07	75.5892	2,143.07	73.9605	2,143.07	74.0854	2,143.07	71.2334	2,143.07	68.9048	2,143.07	73.1211	2,143.07	71.7327	2,143.07	68.955	2,143.07	73.0976	2,143.07	66.6986	2,143.07	69.5117	2,143.07	73.0238	2,143.07	69.3128	2,143.07	72.4039
2,219.24	91.0591	2,219.24	90.6982	2,219.24	91.23	2,219.24	90.0046	2,219.24	90.1886	2,219.24	88.4843	2,219.24	89.2256	2,219.24	87.0902	2,219.24	87.7429	2,219.24	85.7322	2,219.24	85.4434	2,219.24	83.7155	2,219.24	83.6175	2,219.24	81.2483	2,219.24	81.6546	2,219.24	79.3176	2,219.24	78.8014	2,219.24	75.0833	2,219.24	76.1767	2,219.24	74.103	2,219.24	74.8851	2,219.24	73.1845	2,219.24	73.6179	2,219.24	69.4307	2,219.24	72.7684	2,219.24	70.7908	2,219.24	70.1546	2,219.24	72.0392	2,219.24	69.2329	2,219.24	70.0955	2,219.24	70.9868	2,219.24	64.2878	2,219.24	68.7025	2,219.24	70.0899	2,219.24	57.2873	2,219.24	72.3614
2,296.88	90.238	2,296.88	89.7004	2,296.88	90.0247	2,296.88	88.6874	2,296.88	89.5333	2,296.88	87.641	2,296.88	88.7404	2,296.88	85.4866	2,296.88	87.5978	2,296.88	83.7109	2,296.88	85.585	2,296.88	81.7912	2,296.88	83.5944	2,296.88	79.2703	2,296.88	81.6246	2,296.88	77.0165	2,296.88	79.2237	2,296.88	74.9174	2,296.88	76.0328	2,296.88	70.6373	2,296.88	74.29	2,296.88	67.6694	2,296.88	72.5336	2,296.88	68.0489	2,296.88	71.9052	2,296.88	67.3379	2,296.88	70.2533	2,296.88	69.1053	2,296.88	63.6283	2,296.88	69.5969	2,296.88	68.3072	2,296.88	64.2796	2,296.88	66.6831	2,296.88	70.2233	2,296.88	56.004	2,296.88	68.1519
2,378.91	90.273	2,378.91	89.6923	2,378.91	90.1414	2,378.91	88.8716	2,378.91	89.7454	2,378.91	87.0772	2,378.91	88.9687	2,378.91	85.39	2,378.91	87.4914	2,378.91	83.2288	2,378.91	85.781	2,378.91	80.7092	2,378.91	83.6736	2,378.91	78.542	2,378.91	81.7918	2,378.91	77.6978	2,378.91	79.234	2,378.91	73.2091	2,378.91	75.9791	2,378.91	69.3396	2,378.91	71.6189	2,378.91	68.8369	2,378.91	70.3459	2,378.91	68.8943	2,378.91	69.7404	2,378.91	68.4703	2,378.91	69.7424	2,378.91	68.8196	2,378.91	67.6128	2,378.91	62.9187	2,378.91	67.3157	2,378.91	61.1017	2,378.91	63.2491	2,378.91	68.9039	2,378.91	61.0253	2,378.91	65.0762
2,462.4	91.0217	2,462.4	90.5847	2,462.4	90.7944	2,462.4	89.5347	2,462.4	90.3842	2,462.4	88.6048	2,462.4	89.1283	2,462.4	86.4942	2,462.4	87.6316	2,462.4	84.681	2,462.4	85.5808	2,462.4	81.3995	2,462.4	82.923	2,462.4	79.7564	2,462.4	81.0195	2,462.4	76.4431	2,462.4	78.6773	2,462.4	73.4259	2,462.4	75.7692	2,462.4	71.1655	2,462.4	71.9728	2,462.4	67.149	2,462.4	67.3226	2,462.4	66.6869	2,462.4	63.7732	2,462.4	66.4417	2,462.4	64.9086	2,462.4	68.7588	2,462.4	64.267	2,462.4	60.5272	2,462.4	64.265	2,462.4	58.7495	2,462.4	57.7575	2,462.4	66.228	2,462.4	59.6598	2,462.4	65.1954
2,548.83	90.59	2,548.83	89.9814	2,548.83	89.8348	2,548.83	89.2073	2,548.83	89.5058	2,548.83	88.4862	2,548.83	88.2035	2,548.83	86.1965	2,548.83	86.8142	2,548.83	83.7646	2,548.83	84.422	2,548.83	80.9302	2,548.83	81.9451	2,548.83	78.8447	2,548.83	78.9878	2,548.83	73.8008	2,548.83	76.3748	2,548.83	74.0966	2,548.83	74.1251	2,548.83	71.3518	2,548.83	71.4683	2,548.83	67.2817	2,548.83	67.8912	2,548.83	66.5651	2,548.83	64.8153	2,548.83	65.5079	2,548.83	62.186	2,548.83	67.4653	2,548.83	54.3344	2,548.83	64.229	2,548.83	62.1133	2,548.83	53.101	2,548.83	63.8148	2,548.83	62.9914	2,548.83	58.5633	2,548.83	62.4315
2,639.65	88.8845	2,639.65	88.3778	2,639.65	89.2256	2,639.65	87.9394	2,639.65	88.1815	2,639.65	86.5625	2,639.65	87.5178	2,639.65	84.9452	2,639.65	85.534	2,639.65	83.1219	2,639.65	83.8446	2,639.65	80.2135	2,639.65	81.0142	2,639.65	75.8026	2,639.65	78.7066	2,639.65	74.6007	2,639.65	75.4716	2,639.65	72.6088	2,639.65	72.9017	2,639.65	71.5475	2,639.65	70.1694	2,639.65	66.1516	2,639.65	67.5818	2,639.65	61.9786	2,639.65	64.7449	2,639.65	63.2935	2,639.65	63.7374	2,639.65	62.1703	2,639.65	52.5408	2,639.65	61.3132	2,639.65	58.2803	2,639.65	58.9243	2,639.65	60.6848	2,639.65	52.3947	2,639.65	56.8657	2,639.65	52.15
2,731.93	89.1211	2,731.93	88.9108	2,731.93	89.9389	2,731.93	87.8962	2,731.93	89.1388	2,731.93	86.0566	2,731.93	88.0547	2,731.93	84.2901	2,731.93	86.2669	2,731.93	81.9303	2,731.93	84.2865	2,731.93	80.6472	2,731.93	81.2635	2,731.93	76.4275	2,731.93	79.4855	2,731.93	74.6156	2,731.93	75.7123	2,731.93	70.3702	2,731.93	73.7566	2,731.93	70.0092	2,731.93	69.6972	2,731.93	64.7085	2,731.93	66.1157	2,731.93	62.8927	2,731.93	64.7555	2,731.93	61.9785	2,731.93	64.4019	2,731.93	58.594	2,731.93	60.806	2,731.93	58.3804	2,731.93	48.7512	2,731.93	55.284	2,731.93	58.7254	2,731.93	61.4375	2,731.93	58.2095	2,731.93	62.014
2,828.61	91.1531	2,828.61	90.8812	2,828.61	91.1278	2,828.61	89.1826	2,828.61	90.8989	2,828.61	87.7287	2,828.61	89.5981	2,828.61	85.5879	2,828.61	88.1182	2,828.61	83.776	2,828.61	85.908	2,828.61	80.8922	2,828.61	82.7426	2,828.61	79.5228	2,828.61	80.0466	2,828.61	77.0673	2,828.61	76.9577	2,828.61	71.9058	2,828.61	74.7073	2,828.61	71.4562	2,828.61	70.6153	2,828.61	68.6444	2,828.61	68.9394	2,828.61	67.5082	2,828.61	61.3871	2,828.61	64.0849	2,828.61	67.3044	2,828.61	63.8609	2,828.61	65.7381	2,828.61	61.7287	2,828.61	59.8469	2,828.61	59.7227	2,828.61	59.1559	2,828.61	59.6332	2,828.61	57.6195	2,828.61	62.4565
2,928.22	93.0951	2,928.22	92.4761	2,928.22	92.3907	2,928.22	90.7981	2,928.22	92.333	2,928.22	89.6069	2,928.22	91.0058	2,928.22	87.6645	2,928.22	89.5274	2,928.22	85.2831	2,928.22	87.5883	2,928.22	82.5778	2,928.22	85.3451	2,928.22	81.7759	2,928.22	81.8102	2,928.22	77.3994	2,928.22	78.3055	2,928.22	74.7442	2,928.22	74.8545	2,928.22	71.7625	2,928.22	73.1845	2,928.22	70.2767	2,928.22	72.6014	2,928.22	70.0359	2,928.22	66.5212	2,928.22	69.163	2,928.22	68.3343	2,928.22	65.1868	2,928.22	64.8962	2,928.22	60.3782	2,928.22	61.8276	2,928.22	58.823	2,928.22	61.7393	2,928.22	68.2814	2,928.22	55.5073	2,928.22	65.5426
3,030.76	93.9768	3,030.76	93.3089	3,030.76	93.9802	3,030.76	91.9652	3,030.76	93.1445	3,030.76	90.5461	3,030.76	91.8281	3,030.76	88.3584	3,030.76	90.3834	3,030.76	86.1337	3,030.76	88.5208	3,030.76	83.904	3,030.76	86.5359	3,030.76	82.2985	3,030.76	83.5665	3,030.76	78.1446	3,030.76	80.625	3,030.76	77.1094	3,030.76	78.3899	3,030.76	74.2836	3,030.76	74.6147	3,030.76	71.0218	3,030.76	73.1213	3,030.76	70.0397	3,030.76	69.9103	3,030.76	70.3006	3,030.76	69.2113	3,030.76	66.0889	3,030.76	69.8932	3,030.76	65.5549	3,030.76	64.7854	3,030.76	61.6121	3,030.76	66.2399	3,030.76	69.2799	3,030.76	54.8112	3,030.76	66.9839
3,137.7	94.2336	3,137.7	93.578	3,137.7	94.0682	3,137.7	92.3284	3,137.7	93.3475	3,137.7	90.9343	3,137.7	92.3131	3,137.7	89.1338	3,137.7	90.9171	3,137.7	86.9761	3,137.7	89.0294	3,137.7	85.3562	3,137.7	87.1639	3,137.7	83.6575	3,137.7	84.4876	3,137.7	78.9274	3,137.7	81.9022	3,137.7	78.3834	3,137.7	79.5556	3,137.7	76.3566	3,137.7	76.409	3,137.7	73.9887	3,137.7	74.2331	3,137.7	68.5776	3,137.7	72.2588	3,137.7	70.7597	3,137.7	69.3083	3,137.7	69.0865	3,137.7	70.8756	3,137.7	63.8474	3,137.7	66.0589	3,137.7	59.6924	3,137.7	68.033	3,137.7	68.6608	3,137.7	54.6249	3,137.7	68.3032
3,249.02	93.5452	3,249.02	92.8004	3,249.02	93.7273	3,249.02	91.8689	3,249.02	93.1637	3,249.02	90.2804	3,249.02	92.3791	3,249.02	88.8741	3,249.02	90.8077	3,249.02	86.7503	3,249.02	89.312	3,249.02	85.13	3,249.02	87.7148	3,249.02	82.3027	3,249.02	85.4723	3,249.02	79.1025	3,249.02	83.1915	3,249.02	78.6936	3,249.02	81.1474	3,249.02	77.3612	3,249.02	78.8149	3,249.02	76.6981	3,249.02	75.3453	3,249.02	69.8622	3,249.02	73.99	3,249.02	71.0199	3,249.02	68.4415	3,249.02	71.6303	3,249.02	69.3583	3,249.02	66.3415	3,249.02	68.3372	3,249.02	57.1243	3,249.02	65.5327	3,249.02	66.9558	3,249.02	52.2335	3,249.02	66.8119
3,363.28	92.9732	3,363.28	92.7021	3,363.28	93.367	3,363.28	91.9678	3,363.28	92.8543	3,363.28	90.2449	3,363.28	92.2736	3,363.28	89.3401	3,363.28	90.5912	3,363.28	86.7847	3,363.28	89.1035	3,363.28	85.8615	3,363.28	87.8436	3,363.28	82.6417	3,363.28	86.4538	3,363.28	80.8413	3,363.28	83.919	3,363.28	78.9045	3,363.28	81.3198	3,363.28	76.5474	3,363.28	79.5786	3,363.28	76.5055	3,363.28	76.924	3,363.28	73.2583	3,363.28	76.4825	3,363.28	73.673	3,363.28	67.3406	3,363.28	71.6502	3,363.28	72.2482	3,363.28	71.2762	3,363.28	69.3134	3,363.28	59.2642	3,363.28	67.8174	3,363.28	68.8084	3,363.28	59.8071	3,363.28	72.0285
3,481.93	92.6976	3,481.93	91.9506	3,481.93	93.5718	3,481.93	91.9579	3,481.93	91.6514	3,481.93	91.3461	3,481.93	91.4744	3,481.93	89.6606	3,481.93	90.3336	3,481.93	87.9041	3,481.93	89.6953	3,481.93	86.828	3,481.93	88.6799	3,481.93	84.1119	3,481.93	87.4044	3,481.93	83.6384	3,481.93	85.9137	3,481.93	80.6587	3,481.93	82.8181	3,481.93	76.3071	3,481.93	80.8862	3,481.93	77.9726	3,481.93	78.302	3,481.93	75.4284	3,481.93	79.1921	3,481.93	75.4261	3,481.93	73.1477	3,481.93	73.2406	3,481.93	75.8405	3,481.93	69.6967	3,481.93	72.6151	3,481.93	64.5846	3,481.93	72.1778	3,481.93	72.0741	3,481.93	64.6341	3,481.93	73.6791
3,604.98	92.1527	3,604.98	91.7661	3,604.98	92.4052	3,604.98	91.1102	3,604.98	92.6966	3,604.98	91.1871	3,604.98	92.2605	3,604.98	89.9991	3,604.98	92.3565	3,604.98	90.1818	3,604.98	91.8261	3,604.98	88.3327	3,604.98	90.1075	3,604.98	85.5944	3,604.98	88.4977	3,604.98	84.6216	3,604.98	87.3351	3,604.98	82.5357	3,604.98	84.7539	3,604.98	81.1074	3,604.98	83.2729	3,604.98	76.521	3,604.98	80.2018	3,604.98	77.3456	3,604.98	79.3078	3,604.98	74.8366	3,604.98	77.6056	3,604.98	72.5701	3,604.98	78.1176	3,604.98	73.5946	3,604.98	75.828	3,604.98	67.9802	3,604.98	73.1191	3,604.98	73.5299	3,604.98	67.2688	3,604.98	75.2639
3,732.42	92.4296	3,732.42	91.9113	3,732.42	92.1174	3,732.42	92.0629	3,732.42	93.0013	3,732.42	91.9042	3,732.42	92.8124	3,732.42	91.4521	3,732.42	92.424	3,732.42	91.5855	3,732.42	91.7441	3,732.42	89.935	3,732.42	90.3591	3,732.42	88.1127	3,732.42	89.129	3,732.42	86.2732	3,732.42	87.6448	3,732.42	83.9531	3,732.42	85.0956	3,732.42	82.9373	3,732.42	83.7195	3,732.42	77.7806	3,732.42	80.1221	3,732.42	79.2233	3,732.42	79.3065	3,732.42	71.7814	3,732.42	78.0527	3,732.42	77.3402	3,732.42	74.8829	3,732.42	76.0074	3,732.42	76.6165	3,732.42	70.8123	3,732.42	73.7931	3,732.42	74.2349	3,732.42	61.4633	3,732.42	74.9565
3,864.26	92.2344	3,864.26	92.3271	3,864.26	91.0186	3,864.26	91.9114	3,864.26	92.0074	3,864.26	91.1625	3,864.26	91.9404	3,864.26	91.8516	3,864.26	91.8525	3,864.26	91.1615	3,864.26	91.0604	3,864.26	89.1895	3,864.26	89.2296	3,864.26	88.3872	3,864.26	88.3428	3,864.26	85.7184	3,864.26	87.5304	3,864.26	84.4258	3,864.26	84.5866	3,864.26	80.7413	3,864.26	83.0036	3,864.26	80.2745	3,864.26	79.9176	3,864.26	80.1798	3,864.26	79.5473	3,864.26	76.2139	3,864.26	79.5181	3,864.26	76.8821	3,864.26	70.3199	3,864.26	77.5344	3,864.26	77.3773	3,864.26	70.8205	3,864.26	74.4567	3,864.26	75.0971	3,864.26	70.1804	3,864.26	71.5936
4,000.49	93.8527	4,000.49	93.8119	4,000.49	93.5633	4,000.49	92.5672	4,000.49	92.6368	4,000.49	91.1937	4,000.49	91.4185	4,000.49	91.3899	4,000.49	90.9615	4,000.49	89.8712	4,000.49	90.5143	4,000.49	87.8629	4,000.49	90.3594	4,000.49	86.0069	4,000.49	89.2575	4,000.49	83.2998	4,000.49	85.904	4,000.49	81.5739	4,000.49	83.8427	4,000.49	78.0552	4,000.49	82.5712	4,000.49	77.0603	4,000.49	80.5445	4,000.49	76.732	4,000.49	80.4382	4,000.49	72.1346	4,000.49	78.6805	4,000.49	75.0732	4,000.49	73.5272	4,000.49	74.336	4,000.49	77.1724	4,000.49	72.034	4,000.49	74.9078	4,000.49	69.7141	4,000.49	73.1025	4,000.49	67.751
4,141.11	95.2424	4,141.11	94.0737	4,141.11	95.5839	4,141.11	92.4866	4,141.11	92.8939	4,141.11	91.1076	4,141.11	91.3373	4,141.11	91.3508	4,141.11	90.1588	4,141.11	89.1136	4,141.11	89.3193	4,141.11	87.1668	4,141.11	89.3598	4,141.11	86.0674	4,141.11	88.751	4,141.11	84.3991	4,141.11	84.8803	4,141.11	80.717	4,141.11	83.6086	4,141.11	78.3693	4,141.11	81.9554	4,141.11	78.0144	4,141.11	80.604	4,141.11	74.4098	4,141.11	76.7918	4,141.11	74.1525	4,141.11	77.4237	4,141.11	73.8115	4,141.11	74.5454	4,141.11	72.4618	4,141.11	75.198	4,141.11	69.263	4,141.11	75.8096	4,141.11	68.9804	4,141.11	74.7635	4,141.11	71.773
4,287.6	95.9367	4,287.6	94.0288	4,287.6	96.2225	4,287.6	92.4644	4,287.6	93.5992	4,287.6	90.8317	4,287.6	91.7182	4,287.6	89.083	4,287.6	90.1502	4,287.6	87.2189	4,287.6	88.4618	4,287.6	85.8278	4,287.6	88.1678	4,287.6	84.0411	4,287.6	86.4554	4,287.6	83.3942	4,287.6	84.227	4,287.6	77.937	4,287.6	82.0447	4,287.6	77.8192	4,287.6	80.3302	4,287.6	77.1135	4,287.6	78.1961	4,287.6	73.5927	4,287.6	75.2818	4,287.6	74.4871	4,287.6	76.0648	4,287.6	73.4829	4,287.6	70.9256	4,287.6	66.9629	4,287.6	72.484	4,287.6	69.6647	4,287.6	72.9466	4,287.6	68.9227	4,287.6	71.0655	4,287.6	72.6516
4,438.48	95.3124	4,438.48	93.9284	4,438.48	95.0519	4,438.48	92.3466	4,438.48	93.7073	4,438.48	89.8792	4,438.48	91.0923	4,438.48	87.1847	4,438.48	89.6756	4,438.48	85.7569	4,438.48	88.4239	4,438.48	84.5593	4,438.48	86.6913	4,438.48	83.0085	4,438.48	85.4233	4,438.48	80.9547	4,438.48	81.3152	4,438.48	77.8699	4,438.48	80.3119	4,438.48	74.6845	4,438.48	77.7019	4,438.48	73.5053	4,438.48	76.2814	4,438.48	71.3259	4,438.48	75.6782	4,438.48	74.0938	4,438.48	72.1985	4,438.48	73.1017	4,438.48	68.6463	4,438.48	66.2906	4,438.48	71.3949	4,438.48	70.0488	4,438.48	58.7159	4,438.48	66.9266	4,438.48	56.957	4,438.48	71.1786
4,595.21	93.4817	4,595.21	92.3468	4,595.21	93.2368	4,595.21	89.1748	4,595.21	93.0293	4,595.21	87.928	4,595.21	90.7016	4,595.21	85.5646	4,595.21	89.1033	4,595.21	84.535	4,595.21	87.9988	4,595.21	82.0352	4,595.21	84.6918	4,595.21	80.5541	4,595.21	82.2437	4,595.21	78.8333	4,595.21	81.4425	4,595.21	76.6658	4,595.21	79.7646	4,595.21	75.1946	4,595.21	76.3232	4,595.21	73.1562	4,595.21	75.7712	4,595.21	71.8486	4,595.21	71.8815	4,595.21	70.062	4,595.21	71.0843	4,595.21	69.3366	4,595.21	71.1272	4,595.21	66.4748	4,595.21	68.2952	4,595.21	68.802	4,595.21	66.9254	4,595.21	66.5215	4,595.21	66.1034	4,595.21	67.7032
4,756.35	94.3535	4,756.35	93.2448	4,756.35	94.3216	4,756.35	90.2311	4,756.35	93.2269	4,756.35	88.8056	4,756.35	91.5986	4,756.35	87.1132	4,756.35	89.1867	4,756.35	85.2362	4,756.35	87.4719	4,756.35	82.4258	4,756.35	85.0241	4,756.35	79.8364	4,756.35	82.3105	4,756.35	74.9216	4,756.35	80.4962	4,756.35	75.1858	4,756.35	79.2794	4,756.35	76.5888	4,756.35	76.4799	4,756.35	71.0231	4,756.35	74.8629	4,756.35	69.624	4,756.35	72.5554	4,756.35	69.0057	4,756.35	70.8631	4,756.35	67.387	4,756.35	70.1706	4,756.35	65.1937	4,756.35	67.9003	4,756.35	68.7064	4,756.35	66.8347	4,756.35	63.9675	4,756.35	65.1087	4,756.35	68.5472
4,924.8	95.8564	4,924.8	94.3204	4,924.8	95.7868	4,924.8	92.782	4,924.8	94.0359	4,924.8	90.0553	4,924.8	92.5707	4,924.8	88.7723	4,924.8	88.9756	4,924.8	87.2414	4,924.8	86.2391	4,924.8	84.3343	4,924.8	84.1739	4,924.8	81.2865	4,924.8	82.5237	4,924.8	78.7839	4,924.8	81.4844	4,924.8	76.9982	4,924.8	79.3641	4,924.8	79.5994	4,924.8	76.3705	4,924.8	72.7073	4,924.8	73.6658	4,924.8	72.253	4,924.8	72.0381	4,924.8	66.3502	4,924.8	71.9161	4,924.8	68.6811	4,924.8	70.1249	4,924.8	67.5633	4,924.8	67.3848	4,924.8	69.1678	4,924.8	66.1376	4,924.8	57.1144	4,924.8	65.4621	4,924.8	66.7336
5,097.66	95.4102	5,097.66	93.8107	5,097.66	94.9595	5,097.66	91.9364	5,097.66	93.6336	5,097.66	89.1477	5,097.66	90.925	5,097.66	87.1707	5,097.66	88.5844	5,097.66	84.4841	5,097.66	85.7361	5,097.66	81.9114	5,097.66	83.8745	5,097.66	78.3403	5,097.66	82.0786	5,097.66	78.1147	5,097.66	80.5418	5,097.66	74.8049	5,097.66	78.3614	5,097.66	75.1157	5,097.66	76.1543	5,097.66	70.6659	5,097.66	73.6599	5,097.66	71.9918	5,097.66	69.4878	5,097.66	69.1113	5,097.66	69.3343	5,097.66	66.714	5,097.66	63.9447	5,097.66	64.6716	5,097.66	67.6079	5,097.66	63.4327	5,097.66	62.5471	5,097.66	55.9921	5,097.66	63.5341	5,097.66	64.0954
5,277.83	95.0099	5,277.83	93.678	5,277.83	94.1836	5,277.83	90.7076	5,277.83	93.108	5,277.83	88.7227	5,277.83	89.5599	5,277.83	85.5055	5,277.83	87.6896	5,277.83	82.8957	5,277.83	86.0797	5,277.83	82.5687	5,277.83	83.0511	5,277.83	81.8776	5,277.83	80.6152	5,277.83	77.272	5,277.83	79.7619	5,277.83	76.9235	5,277.83	77.0031	5,277.83	67.4686	5,277.83	74.2341	5,277.83	72.4492	5,277.83	74.8315	5,277.83	70.8807	5,277.83	71.1431	5,277.83	66.803	5,277.83	69.397	5,277.83	69.4514	5,277.83	70.1419	5,277.83	66.0765	5,277.83	66.2625	5,277.83	63.4321	5,277.83	67.0064	5,277.83	59.2278	5,277.83	64.0861	5,277.83	62.4937
5,463.87	94.4491	5,463.87	92.7403	5,463.87	94.5891	5,463.87	88.2284	5,463.87	92.3732	5,463.87	85.1691	5,463.87	89.2702	5,463.87	81.4236	5,463.87	86.2315	5,463.87	80.6674	5,463.87	84.7558	5,463.87	80.0575	5,463.87	83.0575	5,463.87	80.3382	5,463.87	81.6888	5,463.87	76.3113	5,463.87	77.5147	5,463.87	77.4666	5,463.87	76.2297	5,463.87	74.2751	5,463.87	75.2565	5,463.87	71.9982	5,463.87	72.2632	5,463.87	70.2479	5,463.87	72.0382	5,463.87	62.1802	5,463.87	71.4798	5,463.87	68.1592	5,463.87	69.7911	5,463.87	65.6692	5,463.87	69.4355	5,463.87	63.8679	5,463.87	68.5324	5,463.87	60.7039	5,463.87	64.987	5,463.87	61.5053
5,657.23	94.2222	5,657.23	92.2473	5,657.23	94.5277	5,657.23	88.4326	5,657.23	91.4001	5,657.23	84.0848	5,657.23	88.1322	5,657.23	82.1083	5,657.23	83.6601	5,657.23	80.8562	5,657.23	81.1076	5,657.23	79.7997	5,657.23	81.5912	5,657.23	78.7466	5,657.23	80.9155	5,657.23	76.4053	5,657.23	76.2503	5,657.23	75.0167	5,657.23	76.0023	5,657.23	74.2014	5,657.23	75.6124	5,657.23	70.0859	5,657.23	71.4808	5,657.23	67.8027	5,657.23	70.6257	5,657.23	69.0459	5,657.23	71.3306	5,657.23	64.6361	5,657.23	68.0226	5,657.23	69.5807	5,657.23	68.5039	5,657.23	64.591	5,657.23	66.697	5,657.23	52.9165	5,657.23	61.575	5,657.23	58.3341
5,856.45	94.1753	5,856.45	91.3113	5,856.45	94.1454	5,856.45	86.9911	5,856.45	91.5037	5,856.45	81.9086	5,856.45	86.0456	5,856.45	80.8699	5,856.45	81.4968	5,856.45	79.5074	5,856.45	79.006	5,856.45	79.7011	5,856.45	78.8707	5,856.45	74.7502	5,856.45	77.104	5,856.45	75.5828	5,856.45	78.1591	5,856.45	70.257	5,856.45	74.4269	5,856.45	72.278	5,856.45	72.5346	5,856.45	69.4492	5,856.45	70.1017	5,856.45	68.0665	5,856.45	70.5539	5,856.45	66.1354	5,856.45	68.1436	5,856.45	61.4726	5,856.45	65.0479	5,856.45	68.4247	5,856.45	63.0268	5,856.45	63.6526	5,856.45	63.0827	5,856.45	50.7911	5,856.45	64.7142	5,856.45	49.6092
6,062.99	94.8384	6,062.99	92.0501	6,062.99	94.3766	6,062.99	87.8409	6,062.99	92.1529	6,062.99	83.5019	6,062.99	86.6615	6,062.99	81.3468	6,062.99	81.9219	6,062.99	80.0452	6,062.99	80.1949	6,062.99	79.485	6,062.99	78.9129	6,062.99	77.0269	6,062.99	78.9054	6,062.99	74.7727	6,062.99	77.0804	6,062.99	72.6073	6,062.99	74.2565	6,062.99	62.513	6,062.99	71.0028	6,062.99	62.3894	6,062.99	70.2673	6,062.99	64.8861	6,062.99	68.4472	6,062.99	64.4896	6,062.99	60.6492	6,062.99	58.3035	6,062.99	64.0056	6,062.99	63.9438	6,062.99	64.2771	6,062.99	55.5336	6,062.99	64.5884	6,062.99	49.9704	6,062.99	61.257	6,062.99	54.5879
6,276.86	94.59	6,276.86	91.9344	6,276.86	94.6354	6,276.86	87.5814	6,276.86	91.9744	6,276.86	84.0026	6,276.86	87.9956	6,276.86	80.7454	6,276.86	82.6564	6,276.86	79.7744	6,276.86	79.2587	6,276.86	77.2864	6,276.86	78.3305	6,276.86	77.6094	6,276.86	78.8341	6,276.86	71.7357	6,276.86	74.639	6,276.86	71.3452	6,276.86	73.3518	6,276.86	67.7088	6,276.86	70.0864	6,276.86	66.8519	6,276.86	68.4967	6,276.86	62.849	6,276.86	66.9997	6,276.86	63.3297	6,276.86	61.2778	6,276.86	65.8698	6,276.86	61.9857	6,276.86	62.9402	6,276.86	65.1906	6,276.86	56.6877	6,276.86	62.3408	6,276.86	45.7844	6,276.86	56.4798	6,276.86	38.7829
6,498.05	95.3372	6,498.05	92.875	6,498.05	95.5933	6,498.05	89.5539	6,498.05	92.6277	6,498.05	86.6047	6,498.05	89.444	6,498.05	83.8816	6,498.05	86.113	6,498.05	81.7827	6,498.05	82.937	6,498.05	76.9994	6,498.05	80.0188	6,498.05	76.7312	6,498.05	77.1663	6,498.05	71.5765	6,498.05	75.3811	6,498.05	70.4251	6,498.05	73.7535	6,498.05	71.3565	6,498.05	69.5936	6,498.05	67.9685	6,498.05	68.1766	6,498.05	65.3082	6,498.05	67.3236	6,498.05	65.1064	6,498.05	65.9435	6,498.05	66.7734	6,498.05	65.7005	6,498.05	63.7575	6,498.05	60.0766	6,498.05	60.0276	6,498.05	62.9146	6,498.05	51.0411	6,498.05	61.6459	6,498.05	47.8713
6,726.56	95.9141	6,726.56	93.5917	6,726.56	95.4701	6,726.56	90.6726	6,726.56	93.3592	6,726.56	87.0584	6,726.56	89.3457	6,726.56	85.1133	6,726.56	87.5735	6,726.56	81.0607	6,726.56	84.6472	6,726.56	79.7895	6,726.56	81.6787	6,726.56	73.0631	6,726.56	77.5684	6,726.56	73.614	6,726.56	76.6284	6,726.56	70.9808	6,726.56	74.136	6,726.56	69.9748	6,726.56	70.9144	6,726.56	68.9907	6,726.56	68.8549	6,726.56	68.5038	6,726.56	62.8582	6,726.56	65.9003	6,726.56	67.4064	6,726.56	56.6893	6,726.56	64.7806	6,726.56	62.8139	6,726.56	56.0511	6,726.56	64.2506	6,726.56	64.5939	6,726.56	54.8429	6,726.56	62.0614	6,726.56	54.2151
6,963.87	95.9926	6,963.87	93.7025	6,963.87	95.8031	6,963.87	90.7583	6,963.87	93.9307	6,963.87	88.4394	6,963.87	90.4897	6,963.87	86.2198	6,963.87	88.2869	6,963.87	83.7458	6,963.87	86.5412	6,963.87	81.3764	6,963.87	84.022	6,963.87	76.1899	6,963.87	81.3195	6,963.87	76.1898	6,963.87	77.9632	6,963.87	72.093	6,963.87	75.2216	6,963.87	69.0007	6,963.87	73.3876	6,963.87	69.5471	6,963.87	69.7054	6,963.87	66.2039	6,963.87	67.3714	6,963.87	64.4522	6,963.87	67.6409	6,963.87	64.025	6,963.87	64.849	6,963.87	63.2884	6,963.87	64.3163	6,963.87	61.507	6,963.87	65.5273	6,963.87	54.1076	6,963.87	60.9132	6,963.87	49.2791
7,209.96	96.492	7,209.96	94.0119	7,209.96	96.8179	7,209.96	90.9315	7,209.96	93.9558	7,209.96	89.3374	7,209.96	91.928	7,209.96	86.6734	7,209.96	88.9907	7,209.96	85.4307	7,209.96	86.8146	7,209.96	81.2858	7,209.96	84.9252	7,209.96	79.6122	7,209.96	82.318	7,209.96	77.9463	7,209.96	79.7392	7,209.96	75.6425	7,209.96	76.735	7,209.96	72.5649	7,209.96	76.8367	7,209.96	71.5344	7,209.96	70.3568	7,209.96	67.3517	7,209.96	71.4644	7,209.96	66.3084	7,209.96	68.4695	7,209.96	66.7377	7,209.96	66.614	7,209.96	66.7152	7,209.96	68.2537	7,209.96	63.8492	7,209.96	68.5024	7,209.96	54.8292	7,209.96	66.5235	7,209.96	48.6374
7,464.84	96.1663	7,464.84	93.4383	7,464.84	96.0472	7,464.84	91.5483	7,464.84	93.4655	7,464.84	89.137	7,464.84	91.3716	7,464.84	86.3765	7,464.84	88.849	7,464.84	83.6071	7,464.84	86.1834	7,464.84	80.0963	7,464.84	83.4189	7,464.84	80.2855	7,464.84	79.5408	7,464.84	77.9202	7,464.84	79.5793	7,464.84	74.7104	7,464.84	75.7089	7,464.84	72.4839	7,464.84	75.7015	7,464.84	70.607	7,464.84	70.3604	7,464.84	59.9641	7,464.84	71.396	7,464.84	66.2805	7,464.84	67.6067	7,464.84	61.6453	7,464.84	64.2497	7,464.84	63.0716	7,464.84	61.164	7,464.84	64.7796	7,464.84	67.2601	7,464.84	42.7923	7,464.84	65.5695	7,464.84	45.613
7,727.05	97.0409	7,727.05	94.9422	7,727.05	96.5518	7,727.05	93.4701	7,727.05	95.2683	7,727.05	91.4314	7,727.05	93.3231	7,727.05	88.1051	7,727.05	91.4163	7,727.05	82.1418	7,727.05	88.453	7,727.05	81.5026	7,727.05	84.8484	7,727.05	79.3631	7,727.05	82.0267	7,727.05	75.326	7,727.05	78.4712	7,727.05	70.2981	7,727.05	75.5956	7,727.05	66.1758	7,727.05	74.1	7,727.05	66.5091	7,727.05	72.4805	7,727.05	59.7894	7,727.05	70.1394	7,727.05	68.934	7,727.05	61.816	7,727.05	63.2118	7,727.05	65.8561	7,727.05	61.4319	7,727.05	66.8495	7,727.05	63.0113	7,727.05	65.852	7,727.05	55.5046	7,727.05	66.5961	7,727.05	57.7796
7,999.51	96.1402	7,999.51	94.1107	7,999.51	96.303	7,999.51	93.2762	7,999.51	94.5588	7,999.51	91.7051	7,999.51	93.7034	7,999.51	88.0111	7,999.51	91.2172	7,999.51	84.9807	7,999.51	88.0955	7,999.51	81.933	7,999.51	84.7437	7,999.51	80.1145	7,999.51	83.6249	7,999.51	76.6755	7,999.51	79.1126	7,999.51	74.4427	7,999.51	77.5755	7,999.51	71.6571	7,999.51	72.2575	7,999.51	68.4979	7,999.51	72.4319	7,999.51	66.8084	7,999.51	69.8342	7,999.51	68.1936	7,999.51	66.7252	7,999.51	66.7171	7,999.51	67.0108	7,999.51	68.091	7,999.51	65.9093	7,999.51	61.787	7,999.51	68.5287	7,999.51	57.1466	7,999.51	65.9793	7,999.51	56.9008
8,282.23	94.9164	8,282.23	94.2021	8,282.23	95.2901	8,282.23	94.0109	8,282.23	95.0711	8,282.23	91.008	8,282.23	94.3585	8,282.23	87.6322	8,282.23	91.5075	8,282.23	84.3552	8,282.23	86.541	8,282.23	80.6628	8,282.23	84.2903	8,282.23	79.2055	8,282.23	81.3016	8,282.23	76.6396	8,282.23	80.774	8,282.23	74.4945	8,282.23	78.3724	8,282.23	72.306	8,282.23	75.6331	8,282.23	66.9052	8,282.23	73.1632	8,282.23	68.4233	8,282.23	72.5724	8,282.23	68.873	8,282.23	66.3479	8,282.23	65.3156	8,282.23	64.5319	8,282.23	67.3715	8,282.23	67.5035	8,282.23	61.7307	8,282.23	68.2435	8,282.23	56.5677	8,282.23	70.298	8,282.23	59.4469
8,573.73	91.3978	8,573.73	94.3802	8,573.73	92.032	8,573.73	94.1766	8,573.73	93.9551	8,573.73	90.7977	8,573.73	94.4937	8,573.73	85.3756	8,573.73	91.3208	8,573.73	82.3194	8,573.73	86.0476	8,573.73	81.154	8,573.73	82.8378	8,573.73	78.5683	8,573.73	81.3923	8,573.73	75.772	8,573.73	78.3074	8,573.73	74.1256	8,573.73	77.8606	8,573.73	71.6205	8,573.73	73.4597	8,573.73	65.0416	8,573.73	73.6571	8,573.73	68.8398	8,573.73	68.927	8,573.73	69.457	8,573.73	66.1964	8,573.73	62.4183	8,573.73	66.675	8,573.73	65.427	8,573.73	64.9702	8,573.73	63.718	8,573.73	65.9783	8,573.73	61.7947	8,573.73	66.6944	8,573.73	55.1224
8,876.95	87.7131	8,876.95	94.9019	8,876.95	85.1508	8,876.95	94.9061	8,876.95	93.1561	8,876.95	90.0855	8,876.95	94.1494	8,876.95	84.8705	8,876.95	90.7432	8,876.95	81.4539	8,876.95	85.542	8,876.95	80.395	8,876.95	82.2957	8,876.95	77.9377	8,876.95	80.0756	8,876.95	75.9632	8,876.95	77.7528	8,876.95	72.3951	8,876.95	76.2387	8,876.95	69.3933	8,876.95	70.8447	8,876.95	68.1171	8,876.95	69.8965	8,876.95	69.7512	8,876.95	64.5742	8,876.95	68.1563	8,876.95	67.6938	8,876.95	62.6693	8,876.95	61.2912	8,876.95	64.8203	8,876.95	63.3772	8,876.95	62.5935	8,876.95	63.6582	8,876.95	59.3636	8,876.95	60.6035	8,876.95	48.6322
9,188.96	91.2782	9,188.96	94.8734	9,188.96	90.466	9,188.96	94.8802	9,188.96	93.2693	9,188.96	90.1145	9,188.96	93.4161	9,188.96	84.1585	9,188.96	89.9831	9,188.96	81.8366	9,188.96	85.2927	9,188.96	78.9173	9,188.96	83.006	9,188.96	77.8406	9,188.96	78.9141	9,188.96	74.8474	9,188.96	77.6559	9,188.96	72.3455	9,188.96	73.1835	9,188.96	70.2598	9,188.96	72.9149	9,188.96	66.6785	9,188.96	68.6808	9,188.96	67.5606	9,188.96	65.2423	9,188.96	64.0065	9,188.96	63.8681	9,188.96	59.3636	9,188.96	63.2	9,188.96	60.6849	9,188.96	61.9433	9,188.96	57.5825	9,188.96	64.5232	9,188.96	56.9013	9,188.96	62.0014	9,188.96	43.1945
9,514.16	94.6528	9,514.16	95.1613	9,514.16	94.9241	9,514.16	93.5731	9,514.16	94.8075	9,514.16	89.0815	9,514.16	92.3074	9,514.16	86.5335	9,514.16	87.8414	9,514.16	85.6319	9,514.16	85.8544	9,514.16	83.7009	9,514.16	83.647	9,514.16	79.8718	9,514.16	81.6433	9,514.16	76.2455	9,514.16	78.5537	9,514.16	74.0619	9,514.16	75.4972	9,514.16	68.6575	9,514.16	73.3369	9,514.16	68.3863	9,514.16	69.3123	9,514.16	66.3127	9,514.16	67.7443	9,514.16	61.3526	9,514.16	65.8159	9,514.16	59.4672	9,514.16	65.2532	9,514.16	57.267	9,514.16	58.7246	9,514.16	60.9985	9,514.16	64.9274	9,514.16	58.8139	9,514.16	61.7465	9,514.16	51.9609
9,849.61	95.6892	9,849.61	94.307	9,849.61	96.194	9,849.61	91.2161	9,849.61	95.9391	9,849.61	88.0974	9,849.61	91.9611	9,849.61	88.5025	9,849.61	86.6799	9,849.61	87.3726	9,849.61	86.1119	9,849.61	84.2992	9,849.61	85.1673	9,849.61	80.6204	9,849.61	82.0522	9,849.61	77.2682	9,849.61	80.5583	9,849.61	72.1594	9,849.61	76.2449	9,849.61	69.6304	9,849.61	73.2677	9,849.61	70.1747	9,849.61	69.0056	9,849.61	64.9418	9,849.61	67.0657	9,849.61	59.4604	9,849.61	65.904	9,849.61	60.6014	9,849.61	60.5113	9,849.61	55.4607	9,849.61	59.3996	9,849.61	61.2358	9,849.61	57.507	9,849.61	60.148	9,849.61	56.3333	9,849.61	48.2726
10,196.8	95.1885	10,196.8	94.0573	10,196.8	95.6093	10,196.8	90.747	10,196.8	94.7767	10,196.8	88.9951	10,196.8	90.6074	10,196.8	88.5595	10,196.8	87.5845	10,196.8	86.9094	10,196.8	87.9827	10,196.8	83.7393	10,196.8	85.8043	10,196.8	79.9831	10,196.8	82.7592	10,196.8	76.682	10,196.8	79.6196	10,196.8	73.4639	10,196.8	75.4666	10,196.8	70.3842	10,196.8	72.8198	10,196.8	69.8932	10,196.8	69.4412	10,196.8	59.8764	10,196.8	67.7888	10,196.8	61.1357	10,196.8	62.9754	10,196.8	63.0759	10,196.8	62.9635	10,196.8	60.3888	10,196.8	60.1817	10,196.8	60.9274	10,196.8	59.0969	10,196.8	59.9889	10,196.8	61.389	10,196.8	42.9926
10,555.7	94.648	10,555.7	93.9496	10,555.7	94.3354	10,555.7	90.6028	10,555.7	93.3337	10,555.7	88.9784	10,555.7	89.2288	10,555.7	88.3966	10,555.7	88.644	10,555.7	85.6946	10,555.7	88.1456	10,555.7	83.012	10,555.7	85.6189	10,555.7	79.1993	10,555.7	82.2466	10,555.7	77.7118	10,555.7	79.4763	10,555.7	72.8539	10,555.7	75.3863	10,555.7	70.383	10,555.7	73.0992	10,555.7	68.2163	10,555.7	69.0447	10,555.7	63.7923	10,555.7	68.1829	10,555.7	64.8924	10,555.7	64.5479	10,555.7	63.1745	10,555.7	62.2223	10,555.7	62.0241	10,555.7	63.8141	10,555.7	57.6554	10,555.7	53.3427	10,555.7	58.1324	10,555.7	60.1449	10,555.7	49.419
10,927.7	94.4068	10,927.7	93.5485	10,927.7	93.7214	10,927.7	90.0962	10,927.7	92.5864	10,927.7	89.2833	10,927.7	89.9311	10,927.7	88.2242	10,927.7	89.7952	10,927.7	85.4268	10,927.7	88.5117	10,927.7	83.0902	10,927.7	86.8716	10,927.7	80.9316	10,927.7	84.0223	10,927.7	77.483	10,927.7	80.5809	10,927.7	73.8914	10,927.7	77.5842	10,927.7	71.5844	10,927.7	74.6239	10,927.7	67.3715	10,927.7	70.9508	10,927.7	66.4008	10,927.7	69.9661	10,927.7	65.3913	10,927.7	63.8502	10,927.7	64.549	10,927.7	64.6624	10,927.7	60.1273	10,927.7	64.6458	10,927.7	63.0808	10,927.7	59.5463	10,927.7	61.7859	10,927.7	60.7493	10,927.7	49.895
11,313	93.3069	11,313	91.6194	11,313	92.518	11,313	91.0603	11,313	91.0368	11,313	90.4708	11,313	91.0148	11,313	88.0756	11,313	90.5875	11,313	85.7909	11,313	87.4559	11,313	84.2751	11,313	86.0933	11,313	82.5425	11,313	84.5513	11,313	78.3357	11,313	80.8539	11,313	76.0133	11,313	78.7694	11,313	71.5247	11,313	73.207	11,313	67.9956	11,313	72.4526	11,313	65.3768	11,313	69.5952	11,313	66.828	11,313	66.9251	11,313	65.0851	11,313	68.4649	11,313	64.0612	11,313	66.3426	11,313	62.7921	11,313	59.3959	11,313	56.1261	11,313	60.2345	11,313	49.5898
11,712.9	92.9002	11,712.9	89.1246	11,712.9	92.4049	11,712.9	91.6403	11,712.9	89.3733	11,712.9	91.2545	11,712.9	92.0672	11,712.9	87.4444	11,712.9	91.0091	11,712.9	86.7095	11,712.9	87.4637	11,712.9	85.842	11,712.9	86.9556	11,712.9	82.5878	11,712.9	85.5155	11,712.9	79.3933	11,712.9	82.065	11,712.9	74.94	11,712.9	79.3405	11,712.9	70.99	11,712.9	75.4818	11,712.9	66.238	11,712.9	71.7021	11,712.9	64.8472	11,712.9	69.2493	11,712.9	64.7719	11,712.9	66.391	11,712.9	60.1619	11,712.9	65.8956	11,712.9	57.7496	11,712.9	64.9076	11,712.9	59.373	11,712.9	60.668	11,712.9	59.8185	11,712.9	56.1293	11,712.9	50.9343
12,126	94.6064	12,126	89.7324	12,126	94.6651	12,126	91.842	12,126	89.8401	12,126	88.8171	12,126	91.521	12,126	88.2003	12,126	89.7043	12,126	88.0895	12,126	87.3784	12,126	84.4115	12,126	86.5605	12,126	81.8993	12,126	84.6903	12,126	76.0553	12,126	81.4034	12,126	75.3359	12,126	78.1241	12,126	68.4685	12,126	73.3269	12,126	63.6884	12,126	72.1188	12,126	63.82	12,126	67.7634	12,126	65.688	12,126	67.3479	12,126	62.1835	12,126	64.8734	12,126	60.8802	12,126	64.8914	12,126	58.5404	12,126	62.1479	12,126	51.938	12,126	60.8238	12,126	35.2775
12,553.7	95.9131	12,553.7	91.9353	12,553.7	96.0868	12,553.7	91.2225	12,553.7	91.9441	12,553.7	91.4363	12,553.7	91.3301	12,553.7	88.4429	12,553.7	90.0252	12,553.7	86.135	12,553.7	88.8961	12,553.7	81.7902	12,553.7	86.2485	12,553.7	78.2195	12,553.7	81.9306	12,553.7	75.7743	12,553.7	78.114	12,553.7	70.8559	12,553.7	73.7115	12,553.7	70.2061	12,553.7	72.2961	12,553.7	67.4715	12,553.7	67.8193	12,553.7	61.7556	12,553.7	65.7042	12,553.7	62.5498	12,553.7	64.4738	12,553.7	60.439	12,553.7	60.1222	12,553.7	56.212	12,553.7	57.7563	12,553.7	59.9756	12,553.7	54.0397	12,553.7	53.4416	12,553.7	57.4767	12,553.7	50.2849
12,996.1	96.7385	12,996.1	92.3627	12,996.1	96.624	12,996.1	91.6799	12,996.1	93.0049	12,996.1	91.0129	12,996.1	91.0158	12,996.1	89.1051	12,996.1	90.6451	12,996.1	83.8427	12,996.1	88.6965	12,996.1	78.4785	12,996.1	84.6314	12,996.1	74.2448	12,996.1	78.8962	12,996.1	71.6702	12,996.1	74.7997	12,996.1	68.5834	12,996.1	71.8183	12,996.1	64.6717	12,996.1	67.8617	12,996.1	57.5355	12,996.1	65.4111	12,996.1	62.9512	12,996.1	64.2227	12,996.1	60.9256	12,996.1	63.5522	12,996.1	57.9516	12,996.1	57.8754	12,996.1	55.587	12,996.1	52.9937	12,996.1	57.8053	12,996.1	51.4922	12,996.1	51.5557	12,996.1	46.5163	12,996.1	50.1355
13,454.6	95.7481	13,454.6	92.8334	13,454.6	96.0706	13,454.6	91.0414	13,454.6	93.2746	13,454.6	90.6947	13,454.6	91.5875	13,454.6	87.7176	13,454.6	90.8786	13,454.6	83.334	13,454.6	88.2338	13,454.6	80.4188	13,454.6	83.4481	13,454.6	77.6905	13,454.6	79.5553	13,454.6	74.6063	13,454.6	76.6886	13,454.6	70.2876	13,454.6	74.4222	13,454.6	66.6844	13,454.6	70.4959	13,454.6	65.1424	13,454.6	66.947	13,454.6	60.5964	13,454.6	66.2395	13,454.6	58.6179	13,454.6	60.3884	13,454.6	52.7485	13,454.6	58.4262	13,454.6	51.0506	13,454.6	53.6222	13,454.6	55.9684	13,454.6	58.3032	13,454.6	58.9845	13,454.6	55.85	13,454.6	29.2146
13,929.2	94.2548	13,929.2	93.0452	13,929.2	94.0942	13,929.2	91.4922	13,929.2	93.3275	13,929.2	90.49	13,929.2	92.2463	13,929.2	87.5147	13,929.2	91.2928	13,929.2	83.4771	13,929.2	87.2668	13,929.2	82.0919	13,929.2	83.4055	13,929.2	79.2549	13,929.2	81.3138	13,929.2	75.0483	13,929.2	79.4138	13,929.2	71.2577	13,929.2	75.2952	13,929.2	67.2244	13,929.2	72.0793	13,929.2	64.4558	13,929.2	68.3706	13,929.2	61.9392	13,929.2	66.4912	13,929.2	61.4885	13,929.2	60.6994	13,929.2	57.7824	13,929.2	59.0487	13,929.2	50.0605	13,929.2	49.5426	13,929.2	59.2416	13,929.2	55.832	13,929.2	59.586	13,929.2	50.2047	13,929.2	49.3919
14,419.9	91.5496	14,419.9	93.6497	14,419.9	91.3808	14,419.9	91.7925	14,419.9	93.7251	14,419.9	90.8664	14,419.9	92.5692	14,419.9	87.2335	14,419.9	91.0908	14,419.9	85.403	14,419.9	87.505	14,419.9	83.7448	14,419.9	85.4757	14,419.9	80.0981	14,419.9	83.4762	14,419.9	75.584	14,419.9	80.1411	14,419.9	72.3914	14,419.9	75.4625	14,419.9	67.6945	14,419.9	72.5307	14,419.9	63.4596	14,419.9	68.0908	14,419.9	58.9206	14,419.9	66.3144	14,419.9	63.3883	14,419.9	63.9335	14,419.9	57.519	14,419.9	60.9626	14,419.9	55.997	14,419.9	55.4641	14,419.9	51.54	14,419.9	57.5698	14,419.9	56.4134	14,419.9	42.1861	14,419.9	54.1432
14,928.2	90.1301	14,928.2	93.7262	14,928.2	89.8959	14,928.2	91.897	14,928.2	93.9033	14,928.2	90.7379	14,928.2	92.147	14,928.2	86.7656	14,928.2	91.0361	14,928.2	85.957	14,928.2	87.0294	14,928.2	82.8536	14,928.2	85.9568	14,928.2	78.4821	14,928.2	83.9264	14,928.2	73.8116	14,928.2	79.6172	14,928.2	71.2706	14,928.2	75.0452	14,928.2	65.0414	14,928.2	71.1495	14,928.2	61.5345	14,928.2	67.542	14,928.2	60.2756	14,928.2	66.9834	14,928.2	60.3261	14,928.2	59.9508	14,928.2	56.6291	14,928.2	59.6879	14,928.2	52.2757	14,928.2	56.7026	14,928.2	48.204	14,928.2	54.3443	14,928.2	53.5849	14,928.2	41.8256	14,928.2	56.1434
15,455.6	91.2145	15,455.6	93.0359	15,455.6	90.4178	15,455.6	91.908	15,455.6	93.4784	15,455.6	90.1529	15,455.6	92.1894	15,455.6	87.7966	15,455.6	90.5427	15,455.6	85.6534	15,455.6	87.057	15,455.6	80.9622	15,455.6	86.0874	15,455.6	76.2013	15,455.6	82.6263	15,455.6	74.0154	15,455.6	77.4874	15,455.6	70.7639	15,455.6	73.6528	15,455.6	66.6473	15,455.6	69.6423	15,455.6	62.5299	15,455.6	67.3802	15,455.6	62.0824	15,455.6	66.0723	15,455.6	63.0653	15,455.6	61.4798	15,455.6	54.8311	15,455.6	57.224	15,455.6	49.4465	15,455.6	51.892	15,455.6	44.6853	15,455.6	51.9465	15,455.6	53.9595	15,455.6	38.8903	15,455.6	52.2821
16,000.5	89.7142	16,000.5	91.3224	16,000.5	91.2553	16,000.5	91.5492	16,000.5	93.5588	16,000.5	89.9891	16,000.5	92.1981	16,000.5	87.811	16,000.5	89.5029	16,000.5	82.8664	16,000.5	88.6087	16,000.5	81.4535	16,000.5	84.093	16,000.5	79.4761	16,000.5	76.7534	16,000.5	76.6899	16,000.5	74.3953	16,000.5	73.266	16,000.5	71.7741	16,000.5	66.3084	16,000.5	67.8796	16,000.5	65.5456	16,000.5	65.0333	16,000.5	63.9661	16,000.5	61.7948	16,000.5	63.8358	16,000.5	49.1023	16,000.5	55.6462	16,000.5	50.336	16,000.5	51.0094	16,000.5	53.504	16,000.5	34.8257	16,000.5	56.3599	16,000.5	54.0047	16,000.5	47.6259	16,000.5	51.103
16,564.5	89.8893	16,564.5	91.9768	16,564.5	89.4797	16,564.5	91.1639	16,564.5	92.677	16,564.5	89.503	16,564.5	91.556	16,564.5	87.8281	16,564.5	89.7451	16,564.5	83.0175	16,564.5	87.2349	16,564.5	79.9986	16,564.5	82.6292	16,564.5	76.9265	16,564.5	80.5883	16,564.5	72.3028	16,564.5	76.877	16,564.5	68.6569	16,564.5	73.2513	16,564.5	62.1824	16,564.5	67.6911	16,564.5	62.9269	16,564.5	63.7337	16,564.5	60.4484	16,564.5	59.8433	16,564.5	59.0282	16,564.5	56.9783	16,564.5	52.9988	16,564.5	58.7724	16,564.5	51.2426	16,564.5	55.268	16,564.5	49.2458	16,564.5	59.2194	16,564.5	56.192	16,564.5	35.5426	16,564.5	54.1322
17,148.9	91.4765	17,148.9	91.2217	17,148.9	91.274	17,148.9	91.0796	17,148.9	91.9571	17,148.9	89.3863	17,148.9	91.5107	17,148.9	86.4747	17,148.9	89.041	17,148.9	83.4034	17,148.9	84.9671	17,148.9	81.0995	17,148.9	82.5472	17,148.9	75.9295	17,148.9	80.1684	17,148.9	71.1238	17,148.9	74.8757	17,148.9	65.4925	17,148.9	70.0867	17,148.9	60.8603	17,148.9	64.6204	17,148.9	58.3684	17,148.9	61.216	17,148.9	53.1535	17,148.9	58.9385	17,148.9	51.6452	17,148.9	54.3373	17,148.9	47.4851	17,148.9	53.0333	17,148.9	44.7695	17,148.9	49.8036	17,148.9	45.9159	17,148.9	53.4389	17,148.9	59.5455	17,148.9	46.5098	17,148.9	51.8876
17,752.4	92.5875	17,752.4	91.1427	17,752.4	92.8586	17,752.4	91.5757	17,752.4	91.5341	17,752.4	89.4284	17,752.4	91.3795	17,752.4	86.153	17,752.4	89.1065	17,752.4	84.0515	17,752.4	85.0772	17,752.4	80.4015	17,752.4	82.3244	17,752.4	75.1059	17,752.4	78.7327	17,752.4	67.7926	17,752.4	71.3319	17,752.4	63.9948	17,752.4	67.1133	17,752.4	61.3646	17,752.4	61.3361	17,752.4	55.2535	17,752.4	60.2024	17,752.4	48.1295	17,752.4	57.5953	17,752.4	46.584	17,752.4	54.2471	17,752.4	41.995	17,752.4	53.3485	17,752.4	44.4557	17,752.4	53.6504	17,752.4	46.7816	17,752.4	50.5629	17,752.4	57.6555	17,752.4	50.1649	17,752.4	53.4987
18,379.4	93.1406	18,379.4	91.1231	18,379.4	93.3058	18,379.4	91.1504	18,379.4	91.4715	18,379.4	89.0357	18,379.4	90.82	18,379.4	85.5441	18,379.4	88.3093	18,379.4	83.2042	18,379.4	84.4813	18,379.4	78.4808	18,379.4	81.7943	18,379.4	74.0943	18,379.4	76.5045	18,379.4	68.1762	18,379.4	70.536	18,379.4	65.4179	18,379.4	66.724	18,379.4	61.4118	18,379.4	61.6075	18,379.4	57.8413	18,379.4	58.6712	18,379.4	52.5041	18,379.4	57.0953	18,379.4	52.1395	18,379.4	53.8816	18,379.4	50.5752	18,379.4	52.4072	18,379.4	39.9295	18,379.4	47.7792	18,379.4	51.4157	18,379.4	48.3744	18,379.4	56.6098	18,379.4	51.2668	18,379.4	52.114
19,026.9	92.8175	19,026.9	91.0801	19,026.9	92.9122	19,026.9	89.9748	19,026.9	91.941	19,026.9	87.4305	19,026.9	90.1204	19,026.9	84.4356	19,026.9	87.3034	19,026.9	80.7815	19,026.9	83.3114	19,026.9	75.2299	19,026.9	78.4638	19,026.9	70.7668	19,026.9	73.2287	19,026.9	64.5688	19,026.9	68.5301	19,026.9	61.6437	19,026.9	64.5953	19,026.9	56.7968	19,026.9	59.6701	19,026.9	56.7221	19,026.9	56.4068	19,026.9	50.2878	19,026.9	56.9939	19,026.9	45.9075	19,026.9	54.5817	19,026.9	50.2152	19,026.9	50.3142	19,026.9	47.3094	19,026.9	44.1507	19,026.9	44.4399	19,026.9	48.1468	19,026.9	54.8994	19,026.9	51.7012	19,026.9	51.4474
19,697.8	91.4349	19,697.8	91.0102	19,697.8	91.4417	19,697.8	89.148	19,697.8	91.5142	19,697.8	86.5666	19,697.8	89.7291	19,697.8	83.6938	19,697.8	85.8809	19,697.8	78.0183	19,697.8	81.6803	19,697.8	72.193	19,697.8	75.2283	19,697.8	68.3205	19,697.8	69.6457	19,697.8	59.3239	19,697.8	65.2804	19,697.8	56.1748	19,697.8	61.7336	19,697.8	53.712	19,697.8	57.2463	19,697.8	51.1606	19,697.8	54.8652	19,697.8	43.0488	19,697.8	50.7657	19,697.8	46.5563	19,697.8	46.563	19,697.8	42.6882	19,697.8	44.3098	19,697.8	43.6882	19,697.8	43.5879	19,697.8	46.8142	19,697.8	50.7208	19,697.8	48.7575	19,697.8	53.5759	19,697.8	43.8181
19,999.5	90.3497	19,999.5	90.7537	19,999.5	90.2706	19,999.5	89.2804	19,999.5	90.8779	19,999.5	86.6322	19,999.5	89.2563	19,999.5	83.5185	19,999.5	85.477	19,999.5	76.4545	19,999.5	81.2533	19,999.5	72.6419	19,999.5	74.7317	19,999.5	69.9249	19,999.5	69.9062	19,999.5	59.6153	19,999.5	65.4042	19,999.5	61.4562	19,999.5	62.7366	19,999.5	59.2626	19,999.5	61.0999	19,999.5	53.6977	19,999.5	58.6459	19,999.5	58.7251	19,999.5	53.9403	19,999.5	56.222	19,999.5	55.3526	19,999.5	59.9605	19,999.5	59.0053	19,999.5	54.5524	19,999.5	50.4427	19,999.5	56.523	19,999.5	55.2533	19,999.5	52.5725	19,999.5	46.9655	19,999.5	47.8003
