"SPL Vertical"
"On-Axis"		"10°"		"-10°"		"20°"		"-20°"		"30°"		"-30°"		"40°"		"-40°"		"50°"		"-50°"		"60°"		"-60°"		"70°"		"-70°"		"80°"		"-80°"		"90°"		"-90°"		"100°"		"-100°"		"110°"		"-110°"		"120°"		"-120°"		"130°"		"-130°"		"140°"		"-140°"		"150°"		"-150°"		"160°"		"-160°"		"170°"		"-170°"		"180°"
"Frequency [Hz]"	"Sound Pessure Level [dB]  / [2.83V 1m] "	"Frequency [Hz]"	"Sound Pessure Level [dB]  / [2.83V 1m] "	"Frequency [Hz]"	"Sound Pessure Level [dB]  / [2.83V 1m] "	"Frequency [Hz]"	"Sound Pessure Level [dB]  / [2.83V 1m] "	"Frequency [Hz]"	"Sound Pessure Level [dB]  / [2.83V 1m] "	"Frequency [Hz]"	"Sound Pessure Level [dB]  / [2.83V 1m] "	"Frequency [Hz]"	"Sound Pessure Level [dB]  / [2.83V 1m] "	"Frequency [Hz]"	"Sound Pessure Level [dB]  / [2.83V 1m] "	"Frequency [Hz]"	"Sound Pessure Level [dB]  / [2.83V 1m] "	"Frequency [Hz]"	"Sound Pessure Level [dB]  / [2.83V 1m] "	"Frequency [Hz]"	"Sound Pessure Level [dB]  / [2.83V 1m] "	"Frequency [Hz]"	"Sound Pessure Level [dB]  / [2.83V 1m] "	"Frequency [Hz]"	"Sound Pessure Level [dB]  / [2.83V 1m] "	"Frequency [Hz]"	"Sound Pessure Level [dB]  / [2.83V 1m] "	"Frequency [Hz]"	"Sound Pessure Level [dB]  / [2.83V 1m] "	"Frequency [Hz]"	"Sound Pessure Level [dB]  / [2.83V 1m] "	"Frequency [Hz]"	"Sound Pessure Level [dB]  / [2.83V 1m] "	"Frequency [Hz]"	"Sound Pessure Level [dB]  / [2.83V 1m] "	"Frequency [Hz]"	"Sound Pessure Level [dB]  / [2.83V 1m] "	"Frequency [Hz]"	"Sound Pessure Level [dB]  / [2.83V 1m] "	"Frequency [Hz]"	"Sound Pessure Level [dB]  / [2.83V 1m] "	"Frequency [Hz]"	"Sound Pessure Level [dB]  / [2.83V 1m] "	"Frequency [Hz]"	"Sound Pessure Level [dB]  / [2.83V 1m] "	"Frequency [Hz]"	"Sound Pessure Level [dB]  / [2.83V 1m] "	"Frequency [Hz]"	"Sound Pessure Level [dB]  / [2.83V 1m] "	"Frequency [Hz]"	"Sound Pessure Level [dB]  / [2.83V 1m] "	"Frequency [Hz]"	"Sound Pessure Level [dB]  / [2.83V 1m] "	"Frequency [Hz]"	"Sound Pessure Level [dB]  / [2.83V 1m] "	"Frequency [Hz]"	"Sound Pessure Level [dB]  / [2.83V 1m] "	"Frequency [Hz]"	"Sound Pessure Level [dB]  / [2.83V 1m] "	"Frequency [Hz]"	"Sound Pessure Level [dB]  / [2.83V 1m] "	"Frequency [Hz]"	"Sound Pessure Level [dB]  / [2.83V 1m] "	"Frequency [Hz]"	"Sound Pessure Level [dB]  / [2.83V 1m] "	"Frequency [Hz]"	"Sound Pessure Level [dB]  / [2.83V 1m] "	"Frequency [Hz]"	"Sound Pessure Level [dB]  / [2.83V 1m] "	"Frequency [Hz]"	"Sound Pessure Level [dB]  / [2.83V 1m] "
20.5078	51.0178	20.5078	50.6197	20.5078	51.4638	20.5078	50.2794	20.5078	51.9353	20.5078	49.9907	20.5078	52.4044	20.5078	49.7343	20.5078	52.8446	20.5078	49.4855	20.5078	53.2345	20.5078	49.2222	20.5078	53.559	20.5078	48.9315	20.5078	53.8087	20.5078	48.614	20.5078	53.9788	20.5078	48.2888	20.5078	54.0682	20.5078	47.9977	20.5078	54.0789	20.5078	47.8067	20.5078	54.0144	20.5078	47.7952	20.5078	53.879	20.5078	48.0257	20.5078	53.6753	20.5078	48.5065	20.5078	53.4023	20.5078	49.1806	20.5078	53.0538	20.5078	49.9535	20.5078	52.6197	20.5078	50.7339	20.5078	52.0891	20.5078	51.4571
21.9727	57.5346	21.9727	57.273	21.9727	57.7744	21.9727	56.995	21.9727	57.9846	21.9727	56.7033	21.9727	58.156	21.9727	56.3978	21.9727	58.2788	21.9727	56.0759	21.9727	58.3435	21.9727	55.7333	21.9727	58.3413	21.9727	55.3648	21.9727	58.2646	21.9727	54.9665	21.9727	58.1068	21.9727	54.5372	21.9727	57.863	21.9727	54.0817	21.9727	57.5303	21.9727	53.6133	21.9727	57.1091	21.9727	53.1566	21.9727	56.6043	21.9727	52.7499	21.9727	56.0263	21.9727	52.442	21.9727	55.3931	21.9727	52.2834	21.9727	54.7302	21.9727	52.3102	21.9727	54.0707	21.9727	52.5311	21.9727	53.4542	21.9727	52.9256
23.4375	57.8051	23.4375	57.5228	23.4375	58.1029	23.4375	57.2672	23.4375	58.402	23.4375	57.0452	23.4375	58.6878	23.4375	56.8584	23.4375	58.9471	23.4375	56.7046	23.4375	59.1694	23.4375	56.5798	23.4375	59.3467	23.4375	56.4805	23.4375	59.4738	23.4375	56.4047	23.4375	59.5476	23.4375	56.3529	23.4375	59.5669	23.4375	56.3281	23.4375	59.5318	23.4375	56.3352	23.4375	59.4437	23.4375	56.3805	23.4375	59.3051	23.4375	56.4708	23.4375	59.1187	23.4375	56.6118	23.4375	58.8881	23.4375	56.8067	23.4375	58.6182	23.4375	57.0533	23.4375	58.316	23.4375	57.3433	23.4375	57.9924	23.4375	57.6622
24.9023	57.8395	24.9023	57.5176	24.9023	58.1677	24.9023	57.2142	24.9023	58.4883	24.9023	56.9382	24.9023	58.7875	24.9023	56.6954	24.9023	59.0531	24.9023	56.4897	24.9023	59.2758	24.9023	56.3245	24.9023	59.4486	24.9023	56.2033	24.9023	59.5674	24.9023	56.1305	24.9023	59.6307	24.9023	56.11	24.9023	59.6394	24.9023	56.1449	24.9023	59.5968	24.9023	56.2366	24.9023	59.508	24.9023	56.3844	24.9023	59.3791	24.9023	56.5845	24.9023	59.2165	24.9023	56.8297	24.9023	59.0252	24.9023	57.1093	24.9023	58.8084	24.9023	57.4099	24.9023	58.5675	24.9023	57.7171	24.9023	58.3033	24.9023	58.0181
26.3672	59.6606	26.3672	59.3785	26.3672	59.9592	26.3672	59.1206	26.3672	60.2638	26.3672	58.8925	26.3672	60.5624	26.3672	58.6982	26.3672	60.8421	26.3672	58.541	26.3672	61.0911	26.3672	58.4246	26.3672	61.299	26.3672	58.352	26.3672	61.4583	26.3672	58.3256	26.3672	61.5644	26.3672	58.3465	26.3672	61.6156	26.3672	58.4146	26.3672	61.6131	26.3672	58.5284	26.3672	61.5606	26.3672	58.6853	26.3672	61.4628	26.3672	58.8815	26.3672	61.3254	26.3672	59.1114	26.3672	61.1535	26.3672	59.3678	26.3672	60.9513	26.3672	59.6418	26.3672	60.7227	26.3672	59.9234	26.3672	60.4715	26.3672	60.2028
27.832	62.6379	27.832	62.3182	27.832	62.9569	27.832	62.0121	27.832	63.2617	27.832	61.7329	27.832	63.5401	27.832	61.493	27.832	63.782	27.832	61.3027	27.832	63.9802	27.832	61.1698	27.832	64.1299	27.832	61.0998	27.832	64.2289	27.832	61.0944	27.832	64.2778	27.832	61.1525	27.832	64.2796	27.832	61.2695	27.832	64.2399	27.832	61.4383	27.832	64.1656	27.832	61.6495	27.832	64.0648	27.832	61.8919	27.832	63.945	27.832	62.1528	27.832	63.8115	27.832	62.419	27.832	63.6666	27.832	62.678	27.832	63.5089	27.832	62.92	27.832	63.3346	27.832	63.1392
29.2969	64.2393	29.2969	63.9187	29.2969	64.542	29.2969	63.5914	29.2969	64.8166	29.2969	63.2693	29.2969	65.0538	29.2969	62.9638	29.2969	65.2451	29.2969	62.686	29.2969	65.3838	29.2969	62.4453	29.2969	65.4642	29.2969	62.2484	29.2969	65.4825	29.2969	62.0995	29.2969	65.437	29.2969	61.9999	29.2969	65.3285	29.2969	61.9486	29.2969	65.1606	29.2969	61.9428	29.2969	64.9398	29.2969	61.979	29.2969	64.6758	29.2969	62.0532	29.2969	64.3806	29.2969	62.1617	29.2969	64.068	29.2969	62.3018	29.2969	63.7522	29.2969	62.4719	29.2969	63.4464	29.2969	62.6716	29.2969	63.1605	29.2969	62.9013
30.7617	67.7664	30.7617	67.5844	30.7617	67.9389	30.7617	67.3966	30.7617	68.0973	30.7617	67.2063	30.7617	68.2361	30.7617	67.0166	30.7617	68.3488	30.7617	66.831	30.7617	68.4289	30.7617	66.653	30.7617	68.47	30.7617	66.4862	30.7617	68.467	30.7617	66.3334	30.7617	68.4163	30.7617	66.1974	30.7617	68.3167	30.7617	66.0806	30.7617	68.1693	30.7617	65.9852	30.7617	67.9781	30.7617	65.9143	30.7617	67.7496	30.7617	65.8712	30.7617	67.4932	30.7617	65.8606	30.7617	67.2204	30.7617	65.8874	30.7617	66.9444	30.7617	65.9567	30.7617	66.6794	30.7617	66.0718	30.7617	66.4387	30.7617	66.2336
32.2266	69.8702	32.2266	69.6861	32.2266	70.0476	32.2266	69.5003	32.2266	70.2128	32.2266	69.3179	32.2266	70.3597	32.2266	69.143	32.2266	70.4824	32.2266	68.9794	32.2266	70.5747	32.2266	68.8301	32.2266	70.6313	32.2266	68.6971	32.2266	70.6476	32.2266	68.5817	32.2266	70.6207	32.2266	68.4848	32.2266	70.5493	32.2266	68.4072	32.2266	70.4346	32.2266	68.35	32.2266	70.2797	32.2266	68.3151	32.2266	70.0901	32.2266	68.3052	32.2266	69.8736	32.2266	68.3238	32.2266	69.6394	32.2266	68.3747	32.2266	69.3984	32.2266	68.4614	32.2266	69.1622	32.2266	68.5859	32.2266	68.9419	32.2266	68.7474
33.6914	71.8476	33.6914	71.6854	33.6914	72.0045	33.6914	71.5229	33.6914	72.1504	33.6914	71.3646	33.6914	72.2791	33.6914	71.2141	33.6914	72.3845	33.6914	71.0746	33.6914	72.461	33.6914	70.9487	33.6914	72.504	33.6914	70.8382	33.6914	72.5103	33.6914	70.7445	33.6914	72.4783	33.6914	70.6685	33.6914	72.4084	33.6914	70.611	33.6914	72.3029	33.6914	70.5727	33.6914	72.166	33.6914	70.5546	33.6914	72.0036	33.6914	70.5578	33.6914	71.8232	33.6914	70.5835	33.6914	71.6329	33.6914	70.6333	33.6914	71.4413	33.6914	70.7082	33.6914	71.2566	33.6914	70.8092	33.6914	71.0862	33.6914	70.9358
35.1562	73.4981	35.1562	73.3767	35.1562	73.6173	35.1562	73.2566	35.1562	73.7302	35.1562	73.1407	35.1562	73.8321	35.1562	73.0312	35.1562	73.9177	35.1562	72.93	35.1562	73.982	35.1562	72.8384	35.1562	74.0207	35.1562	72.7573	35.1562	74.0304	35.1562	72.6874	35.1562	74.0091	35.1562	72.629	35.1562	73.9566	35.1562	72.5825	35.1562	73.8747	35.1562	72.5486	35.1562	73.7666	35.1562	72.5281	35.1562	73.6374	35.1562	72.5226	35.1562	73.4931	35.1562	72.534	35.1562	73.3406	35.1562	72.5645	35.1562	73.1871	35.1562	72.616	35.1562	73.0396	35.1562	72.6901	35.1562	72.9045	35.1562	72.7868
36.6211	75.1482	36.6211	75.0186	36.6211	75.276	36.6211	74.8914	36.6211	75.397	36.6211	74.7701	36.6211	75.5058	36.6211	74.6572	36.6211	75.5969	36.6211	74.5543	36.6211	75.6653	36.6211	74.4623	36.6211	75.7068	36.6211	74.3811	36.6211	75.718	36.6211	74.3106	36.6211	75.6972	36.6211	74.2507	36.6211	75.6442	36.6211	74.2015	36.6211	75.5606	36.6211	74.1637	36.6211	75.4494	36.6211	74.1386	36.6211	75.3153	36.6211	74.1287	36.6211	75.1642	36.6211	74.1367	36.6211	75.0028	36.6211	74.166	36.6211	74.8386	36.6211	74.2195	36.6211	74.6793	36.6211	74.2988	36.6211	74.5323	36.6211	74.4039
38.0859	76.906	38.0859	76.7985	38.0859	77.011	38.0859	76.6919	38.0859	77.1095	38.0859	76.5896	38.0859	77.1971	38.0859	76.4938	38.0859	77.2697	38.0859	76.4065	38.0859	77.3231	38.0859	76.3286	38.0859	77.3539	38.0859	76.2605	38.0859	77.3597	38.0859	76.2019	38.0859	77.3392	38.0859	76.1525	38.0859	77.2926	38.0859	76.1122	38.0859	77.2212	38.0859	76.0809	38.0859	77.128	38.0859	76.0598	38.0859	77.0167	38.0859	76.0504	38.0859	76.8921	38.0859	76.0553	38.0859	76.7597	38.0859	76.0776	38.0859	76.6252	38.0859	76.1198	38.0859	76.4948	38.0859	76.1838	38.0859	76.3744	38.0859	76.2693
39.5508	78.4023	39.5508	78.3054	39.5508	78.4963	39.5508	78.2086	39.5508	78.584	39.5508	78.1143	39.5508	78.6619	39.5508	78.0247	39.5508	78.7263	39.5508	77.9414	39.5508	78.7735	39.5508	77.8655	39.5508	78.8007	39.5508	77.7978	39.5508	78.8056	39.5508	77.7383	39.5508	78.7872	39.5508	77.6873	39.5508	78.7454	39.5508	77.645	39.5508	78.6816	39.5508	77.6121	39.5508	78.5981	39.5508	77.5897	39.5508	78.4982	39.5508	77.5799	39.5508	78.3858	39.5508	77.5854	39.5508	78.2652	39.5508	77.6089	39.5508	78.1413	39.5508	77.6527	39.5508	78.0194	39.5508	77.7176	39.5508	77.9047	39.5508	77.8026
41.0156	79.142	41.0156	79.1244	41.0156	79.1667	41.0156	79.115	41.0156	79.1968	41.0156	79.1144	41.0156	79.2301	41.0156	79.1225	41.0156	79.2645	41.0156	79.1392	41.0156	79.2978	41.0156	79.164	41.0156	79.3288	41.0156	79.1964	41.0156	79.3575	41.0156	79.2358	41.0156	79.3848	41.0156	79.2816	41.0156	79.4134	41.0156	79.3334	41.0156	79.446	41.0156	79.3908	41.0156	79.4853	41.0156	79.4532	41.0156	79.5328	41.0156	79.5194	41.0156	79.5873	41.0156	79.5868	41.0156	79.645	41.0156	79.6514	41.0156	79.6993	41.0156	79.7077	41.0156	79.7426	41.0156	79.749	41.0156	79.7676	41.0156	79.7701
42.4805	80.0349	42.4805	79.9201	42.4805	80.1447	42.4805	79.8045	42.4805	80.2448	42.4805	79.6918	42.4805	80.3306	42.4805	79.5849	42.4805	80.3974	42.4805	79.4862	42.4805	80.4414	42.4805	79.3971	42.4805	80.4594	42.4805	79.319	42.4805	80.4495	42.4805	79.2525	42.4805	80.4116	42.4805	79.1985	42.4805	80.347	42.4805	79.1576	42.4805	80.2588	42.4805	79.1306	42.4805	80.1519	42.4805	79.1184	42.4805	80.0321	42.4805	79.1213	42.4805	79.9059	42.4805	79.1398	42.4805	79.7798	42.4805	79.1734	42.4805	79.6589	42.4805	79.2216	42.4805	79.5471	42.4805	79.2836	42.4805	79.4468	42.4805	79.3588
43.9453	81.4167	43.9453	81.3142	43.9453	81.5138	43.9453	81.2097	43.9453	81.602	43.9453	81.1063	43.9453	81.6774	43.9453	81.0065	43.9453	81.7364	43.9453	80.9124	43.9453	81.7757	43.9453	80.8258	43.9453	81.7928	43.9453	80.7481	43.9453	81.7859	43.9453	80.6808	43.9453	81.7548	43.9453	80.6252	43.9453	81.7005	43.9453	80.5827	43.9453	81.6253	43.9453	80.5548	43.9453	81.533	43.9453	80.5424	43.9453	81.4281	43.9453	80.5463	43.9453	81.3157	43.9453	80.5666	43.9453	81.2011	43.9453	80.6029	43.9453	81.0887	43.9453	80.6541	43.9453	80.9822	43.9453	80.7188	43.9453	80.884	43.9453	80.7958
45.4102	82.5134	45.4102	82.4161	45.4102	82.606	45.4102	82.3178	45.4102	82.6902	45.4102	82.2218	45.4102	82.762	45.4102	82.1309	45.4102	82.8179	45.4102	82.0472	45.4102	82.8552	45.4102	81.9726	45.4102	82.8716	45.4102	81.9083	45.4102	82.8664	45.4102	81.8556	45.4102	82.8399	45.4102	81.8155	45.4102	82.7937	45.4102	81.7889	45.4102	82.7306	45.4102	81.7767	45.4102	82.6545	45.4102	81.7795	45.4102	82.5698	45.4102	81.7972	45.4102	82.4806	45.4102	81.8291	45.4102	82.3906	45.4102	81.8737	45.4102	82.3026	45.4102	81.9289	45.4102	82.2181	45.4102	81.9924	45.4102	82.138	45.4102	82.0626
46.875	83.6389	46.875	83.548	46.875	83.7242	46.875	83.4552	46.875	83.8005	46.875	83.3632	46.875	83.8642	46.875	83.2748	46.875	83.9119	46.875	83.192	46.875	83.941	46.875	83.1164	46.875	83.9496	46.875	83.0496	46.875	83.9369	46.875	82.9925	46.875	83.9033	46.875	82.9464	46.875	83.8504	46.875	82.912	46.875	83.781	46.875	82.8901	46.875	83.6989	46.875	82.8814	46.875	83.6084	46.875	82.8859	46.875	83.5137	46.875	82.9035	46.875	83.419	46.875	82.9338	46.875	83.3273	46.875	82.9757	46.875	83.2411	46.875	83.0284	46.875	83.1619	46.875	83.0907
48.3398	84.7892	48.3398	84.7041	48.3398	84.8665	48.3398	84.6145	48.3398	84.9326	48.3398	84.5236	48.3398	84.9844	48.3398	84.4342	48.3398	85.0191	48.3398	84.3487	48.3398	85.0345	48.3398	84.2692	48.3398	85.0294	48.3398	84.1975	48.3398	85.0035	48.3398	84.1349	48.3398	84.9576	48.3398	84.0827	48.3398	84.894	48.3398	84.0418	48.3398	84.8156	48.3398	84.0128	48.3398	84.7267	48.3398	83.9962	48.3398	84.6318	48.3398	83.9921	48.3398	84.5354	48.3398	84.0001	48.3398	84.4417	48.3398	84.0198	48.3398	84.3539	48.3398	84.0505	48.3398	84.2742	48.3398	84.0916	48.3398	84.2036	48.3398	84.1427
51.2695	86.6181	51.2695	86.5384	51.2695	86.69	51.2695	86.4539	51.2695	86.7512	51.2695	86.3674	51.2695	86.7989	51.2695	86.2814	51.2695	86.8307	51.2695	86.1983	51.2695	86.8448	51.2695	86.1204	51.2695	86.84	51.2695	86.0493	51.2695	86.816	51.2695	85.9869	51.2695	86.7736	51.2695	85.9342	51.2695	86.7145	51.2695	85.8923	51.2695	86.6414	51.2695	85.8619	51.2695	86.5575	51.2695	85.8434	51.2695	86.4669	51.2695	85.8368	51.2695	86.3736	51.2695	85.8421	51.2695	86.2813	51.2695	85.8593	51.2695	86.1935	51.2695	85.888	51.2695	86.1127	51.2695	85.928	51.2695	86.0409	51.2695	85.9791
52.7344	87.549	52.7344	87.4723	52.7344	87.6173	52.7344	87.3899	52.7344	87.6746	52.7344	87.3046	52.7344	87.7183	52.7344	87.2192	52.7344	87.7465	52.7344	87.1361	52.7344	87.7576	52.7344	87.0576	52.7344	87.751	52.7344	86.9858	52.7344	87.7267	52.7344	86.9226	52.7344	87.6855	52.7344	86.8695	52.7344	87.6292	52.7344	86.8277	52.7344	87.5605	52.7344	86.7981	52.7344	87.4823	52.7344	86.7813	52.7344	87.3983	52.7344	86.7773	52.7344	87.3118	52.7344	86.7861	52.7344	87.226	52.7344	86.807	52.7344	87.1437	52.7344	86.8394	52.7344	87.0668	52.7344	86.8824	52.7344	86.9969	52.7344	86.9352
54.1992	88.4315	54.1992	88.3621	54.1992	88.4924	54.1992	88.2866	54.1992	88.5423	54.1992	88.2076	54.1992	88.5791	54.1992	88.1279	54.1992	88.6014	54.1992	88.0498	54.1992	88.608	54.1992	87.9758	54.1992	88.5985	54.1992	87.908	54.1992	88.5733	54.1992	87.8485	54.1992	88.5334	54.1992	87.7988	54.1992	88.4808	54.1992	87.7601	54.1992	88.4181	54.1992	87.7335	54.1992	88.3482	54.1992	87.7193	54.1992	88.2742	54.1992	87.7175	54.1992	88.199	54.1992	87.7278	54.1992	88.1251	54.1992	87.7494	54.1992	88.0542	54.1992	87.7813	54.1992	87.9876	54.1992	87.8222	54.1992	87.9263	54.1992	87.8708
55.6641	89.3474	55.6641	89.2834	55.6641	89.4023	55.6641	89.2129	55.6641	89.4461	55.6641	89.1384	55.6641	89.4768	55.6641	89.0624	55.6641	89.4931	55.6641	88.9874	55.6641	89.4939	55.6641	88.9156	55.6641	89.479	55.6641	88.8492	55.6641	89.4491	55.6641	88.79	55.6641	89.4053	55.6641	88.7397	55.6641	89.3498	55.6641	88.6993	55.6641	89.2854	55.6641	88.6699	55.6641	89.215	55.6641	88.6519	55.6641	89.1418	55.6641	88.6454	55.6641	89.0687	55.6641	88.6501	55.6641	88.9981	55.6641	88.6655	55.6641	88.9316	55.6641	88.6906	55.6641	88.8704	55.6641	88.7245	55.6641	88.8151	55.6641	88.7663
58.5938	90.9068	58.5938	90.848	58.5938	90.9547	58.5938	90.7804	58.5938	90.9899	58.5938	90.7062	58.5938	91.011	58.5938	90.6277	58.5938	91.0167	58.5938	90.5476	58.5938	91.0065	58.5938	90.4684	58.5938	90.9804	58.5938	90.3926	58.5938	90.9393	58.5938	90.3227	58.5938	90.8848	58.5938	90.2609	58.5938	90.8193	58.5938	90.2088	58.5938	90.7458	58.5938	90.1679	58.5938	90.6678	58.5938	90.1389	58.5938	90.5885	58.5938	90.1224	58.5938	90.5108	58.5938	90.118	58.5938	90.4373	58.5938	90.1254	58.5938	90.3696	58.5938	90.1437	58.5938	90.3086	58.5938	90.1719	58.5938	90.255	58.5938	90.2093
60.0586	91.6305	60.0586	91.5714	60.0586	91.6782	60.0586	91.503	60.0586	91.7126	60.0586	91.4277	60.0586	91.7321	60.0586	91.3481	60.0586	91.7357	60.0586	91.2669	60.0586	91.7229	60.0586	91.1866	60.0586	91.694	60.0586	91.1098	60.0586	91.6497	60.0586	91.0389	60.0586	91.592	60.0586	90.9761	60.0586	91.5233	60.0586	90.9229	60.0586	91.4467	60.0586	90.8806	60.0586	91.3657	60.0586	90.8499	60.0586	91.2838	60.0586	90.8313	60.0586	91.2039	60.0586	90.8244	60.0586	91.1289	60.0586	90.8289	60.0586	91.0604	60.0586	90.844	60.0586	90.9997	60.0586	90.8692	60.0586	90.9474	60.0586	90.9038
62.9883	93.011	62.9883	92.9554	62.9883	93.0536	62.9883	92.8888	62.9883	93.0814	62.9883	92.8136	62.9883	93.0933	62.9883	92.7324	62.9883	93.0884	62.9883	92.6479	62.9883	93.0668	62.9883	92.5629	62.9883	93.0289	62.9883	92.4801	62.9883	92.9762	62.9883	92.4021	62.9883	92.9105	62.9883	92.3312	62.9883	92.8347	62.9883	92.2693	62.9883	92.7519	62.9883	92.2181	62.9883	92.6656	62.9883	92.1785	62.9883	92.5792	62.9883	92.1513	62.9883	92.4959	62.9883	92.1365	62.9883	92.4183	62.9883	92.1338	62.9883	92.3482	62.9883	92.1429	62.9883	92.2871	62.9883	92.1632	62.9883	92.2356	62.9883	92.1943
64.4531	93.6115	64.4531	93.557	64.4531	93.6525	64.4531	93.4909	64.4531	93.6783	64.4531	93.4156	64.4531	93.6881	64.4531	93.3337	64.4531	93.6814	64.4531	93.2482	64.4531	93.6584	64.4531	93.1619	64.4531	93.6197	64.4531	93.0778	64.4531	93.5668	64.4531	92.9984	64.4531	93.5017	64.4531	92.9262	64.4531	93.4269	64.4531	92.8631	64.4531	93.3455	64.4531	92.8106	64.4531	93.2605	64.4531	92.7698	64.4531	93.175	64.4531	92.7412	64.4531	93.092	64.4531	92.7252	64.4531	93.0139	64.4531	92.7217	64.4531	92.9426	64.4531	92.7305	64.4531	92.8798	64.4531	92.7512	64.4531	92.8264	64.4531	92.7834
67.3828	94.5872	67.3828	94.5386	67.3828	94.6224	67.3828	94.478	67.3828	94.6428	67.3828	94.4077	67.3828	94.6477	67.3828	94.3301	67.3828	94.637	67.3828	94.248	67.3828	94.6111	67.3828	94.1644	67.3828	94.571	67.3828	94.0821	67.3828	94.5183	67.3828	94.004	67.3828	94.4552	67.3828	93.9328	67.3828	94.3844	67.3828	93.8706	67.3828	94.3088	67.3828	93.8191	67.3828	94.2313	67.3828	93.7797	67.3828	94.1546	67.3828	93.7531	67.3828	94.0809	67.3828	93.7394	67.3828	94.0121	67.3828	93.7384	67.3828	93.9492	67.3828	93.7494	67.3828	93.8931	67.3828	93.7714	67.3828	93.8442	67.3828	93.8034
68.8477	95.0042	68.8477	94.9587	68.8477	95.0362	68.8477	94.9014	68.8477	95.0537	68.8477	94.8342	68.8477	95.0561	68.8477	94.7596	68.8477	95.0433	68.8477	94.6803	68.8477	95.016	68.8477	94.599	68.8477	94.9751	68.8477	94.5188	68.8477	94.9226	68.8477	94.4424	68.8477	94.8606	68.8477	94.3724	68.8477	94.7917	68.8477	94.311	68.8477	94.7187	68.8477	94.2599	68.8477	94.6444	68.8477	94.2205	68.8477	94.5711	68.8477	94.1935	68.8477	94.5009	68.8477	94.179	68.8477	94.4353	68.8477	94.1769	68.8477	94.3753	68.8477	94.1864	68.8477	94.3218	68.8477	94.2067	68.8477	94.2753	68.8477	94.2367
71.7773	95.5844	71.7773	95.5439	71.7773	95.6128	71.7773	95.493	71.7773	95.628	71.7773	95.4337	71.7773	95.6295	71.7773	95.3683	71.7773	95.6174	71.7773	95.2997	71.7773	95.5924	71.7773	95.2306	71.7773	95.556	71.7773	95.1639	71.7773	95.5103	71.7773	95.1021	71.7773	95.4579	71.7773	95.0477	71.7773	95.4017	71.7773	95.0025	71.7773	95.3443	71.7773	94.9677	71.7773	95.2883	71.7773	94.944	71.7773	95.2353	71.7773	94.9314	71.7773	95.1863	71.7773	94.9294	71.7773	95.1417	71.7773	94.9368	71.7773	95.1012	71.7773	94.9521	71.7773	95.0644	71.7773	94.9738	71.7773	95.0307	71.7773	95.0004
74.707	96.1399	74.707	96.1023	74.707	96.1654	74.707	96.0545	74.707	96.1772	74.707	95.9989	74.707	96.1747	74.707	95.938	74.707	96.1579	74.707	95.8745	74.707	96.1275	74.707	95.8113	74.707	96.0853	74.707	95.7509	74.707	96.0336	74.707	95.6956	74.707	95.9754	74.707	95.6474	74.707	95.9141	74.707	95.6077	74.707	95.853	74.707	95.577	74.707	95.7951	74.707	95.5557	74.707	95.7428	74.707	95.5431	74.707	95.6975	74.707	95.5382	74.707	95.6597	74.707	95.5397	74.707	95.629	74.707	95.546	74.707	95.6045	74.707	95.556	74.707	95.5849	74.707	95.5689
77.6367	96.6173	77.6367	96.5809	77.6367	96.6403	77.6367	96.5332	77.6367	96.6486	77.6367	96.4765	77.6367	96.6417	77.6367	96.4138	77.6367	96.62	77.6367	96.348	77.6367	96.5845	77.6367	96.282	77.6367	96.5375	77.6367	96.2187	77.6367	96.4815	77.6367	96.1606	77.6367	96.4198	77.6367	96.1096	77.6367	96.3559	77.6367	96.0673	77.6367	96.2931	77.6367	96.0343	77.6367	96.2343	77.6367	96.0106	77.6367	96.1816	77.6367	95.9956	77.6367	96.1363	77.6367	95.9883	77.6367	96.0987	77.6367	95.9873	77.6367	96.0684	77.6367	95.9913	77.6367	96.0444	77.6367	95.9992	77.6367	96.0255	77.6367	96.0106
79.1016	96.8427	79.1016	96.8075	79.1016	96.8638	79.1016	96.7603	79.1016	96.8696	79.1016	96.7032	79.1016	96.8596	79.1016	96.6393	79.1016	96.8343	79.1016	96.5713	79.1016	96.795	79.1016	96.5023	79.1016	96.7439	79.1016	96.4353	79.1016	96.6839	79.1016	96.3729	79.1016	96.6183	79.1016	96.3173	79.1016	96.5508	79.1016	96.2703	79.1016	96.4848	79.1016	96.2328	79.1016	96.4234	79.1016	96.2051	79.1016	96.3687	79.1016	96.1867	79.1016	96.3219	79.1016	96.1768	79.1016	96.2835	79.1016	96.1739	79.1016	96.2527	79.1016	96.1767	79.1016	96.2285	79.1016	96.1839	79.1016	96.2096	79.1016	96.1949
82.0312	97.1829	82.0312	97.1487	82.0312	97.2018	82.0312	97.1009	82.0312	97.2041	82.0312	97.0422	82.0312	97.1895	82.0312	96.9754	82.0312	97.1585	82.0312	96.9036	82.0312	97.1129	82.0312	96.8301	82.0312	97.0552	82.0312	96.758	82.0312	96.9886	82.0312	96.6902	82.0312	96.917	82.0312	96.6292	82.0312	96.8441	82.0312	96.5767	82.0312	96.7736	82.0312	96.5339	82.0312	96.7085	82.0312	96.5011	82.0312	96.651	82.0312	96.478	82.0312	96.6022	82.0312	96.4637	82.0312	96.5621	82.0312	96.4572	82.0312	96.5303	82.0312	96.457	82.0312	96.5054	82.0312	96.4623	82.0312	96.4863	82.0312	96.4721
84.9609	97.4302	84.9609	97.3994	84.9609	97.4471	84.9609	97.3564	84.9609	97.4494	84.9609	97.3035	84.9609	97.4367	84.9609	97.2434	84.9609	97.4097	84.9609	97.1789	84.9609	97.3699	84.9609	97.1132	84.9609	97.3195	84.9609	97.0492	84.9609	97.2613	84.9609	96.9896	84.9609	97.1982	84.9609	96.9364	84.9609	97.1334	84.9609	96.8911	84.9609	97.0697	84.9609	96.8542	84.9609	97.0094	84.9609	96.8258	84.9609	96.9546	84.9609	96.805	84.9609	96.9065	84.9609	96.7907	84.9609	96.8661	84.9609	96.7818	84.9609	96.8338	84.9609	96.7775	84.9609	96.8095	84.9609	96.7775	84.9609	96.7926	84.9609	96.7823
87.8906	97.6148	87.8906	97.5947	87.8906	97.6217	87.8906	97.5625	87.8906	97.6153	87.8906	97.5201	87.8906	97.5963	87.8906	97.4701	87.8906	97.5666	87.8906	97.4154	87.8906	97.5288	87.8906	97.3595	87.8906	97.486	87.8906	97.3056	87.8906	97.4418	87.8906	97.2569	87.8906	97.3996	87.8906	97.216	87.8906	97.3621	87.8906	97.1846	87.8906	97.3309	87.8906	97.1635	87.8906	97.3067	87.8906	97.1523	87.8906	97.2886	87.8906	97.15	87.8906	97.2749	87.8906	97.1551	87.8906	97.2637	87.8906	97.1656	87.8906	97.2528	87.8906	97.1797	87.8906	97.2409	87.8906	97.1956	87.8906	97.2272	87.8906	97.2118
90.8203	97.8753	90.8203	97.855	90.8203	97.881	90.8203	97.8211	90.8203	97.872	90.8203	97.7757	90.8203	97.8495	90.8203	97.7217	90.8203	97.8155	90.8203	97.6625	90.8203	97.773	90.8203	97.6023	90.8203	97.7258	90.8203	97.5449	90.8203	97.6778	90.8203	97.494	90.8203	97.6329	90.8203	97.4528	90.8203	97.5945	90.8203	97.4233	90.8203	97.5648	90.8203	97.4064	90.8203	97.5446	90.8203	97.4018	90.8203	97.5334	90.8203	97.4081	90.8203	97.529	90.8203	97.4227	90.8203	97.5283	90.8203	97.4427	90.8203	97.5281	90.8203	97.465	90.8203	97.5252	90.8203	97.4865	90.8203	97.5177	90.8203	97.5046
95.2148	98.3325	95.2148	98.3128	95.2148	98.3307	95.2148	98.272	95.2148	98.308	95.2148	98.2121	95.2148	98.2663	95.2148	98.1359	95.2148	98.2084	95.2148	98.0474	95.2148	98.1378	95.2148	97.9512	95.2148	98.0589	95.2148	97.8522	95.2148	97.9761	95.2148	97.7556	95.2148	97.8939	95.2148	97.6659	95.2148	97.8166	95.2148	97.5871	95.2148	97.7473	95.2148	97.5223	95.2148	97.688	95.2148	97.4733	95.2148	97.6391	95.2148	97.4407	95.2148	97.5994	95.2148	97.4237	95.2148	97.5669	95.2148	97.4205	95.2148	97.5389	95.2148	97.4284	95.2148	97.5133	95.2148	97.4444	95.2148	97.4888	95.2148	97.4654
98.1445	98.3161	98.1445	98.2964	98.1445	98.3171	98.1445	98.2595	98.1445	98.2994	98.1445	98.2077	98.1445	98.2643	98.1445	98.1445	98.1445	98.2142	98.1445	98.0738	98.1445	98.1525	98.1445	97.9999	98.1445	98.0836	98.1445	97.9269	98.1445	98.0124	98.1445	97.8587	98.1445	97.9438	98.1445	97.7983	98.1445	97.8821	98.1445	97.748	98.1445	97.8305	98.1445	97.7091	98.1445	97.7907	98.1445	97.6817	98.1445	97.7622	98.1445	97.6653	98.1445	97.7431	98.1445	97.6585	98.1445	97.7304	98.1445	97.6596	98.1445	97.7207	98.1445	97.6665	98.1445	97.7114	98.1445	97.6771	98.1445	97.7009	98.1445	97.6892
101.074	98.2484	101.074	98.2283	101.074	98.2505	101.074	98.1918	101.074	98.2344	101.074	98.1414	101.074	98.2008	101.074	98.0807	101.074	98.1519	101.074	98.0136	101.074	98.0907	101.074	97.9444	101.074	98.0216	101.074	97.8772	101.074	97.9494	101.074	97.8159	101.074	97.8795	101.074	97.7634	101.074	97.817	101.074	97.7219	101.074	97.7661	101.074	97.6923	101.074	97.7292	101.074	97.6747	101.074	97.7068	101.074	97.6679	101.074	97.697	101.074	97.6699	101.074	97.6964	101.074	97.6778	101.074	97.7007	101.074	97.6884	101.074	97.7056	101.074	97.6985	101.074	97.7078	101.074	97.7054
105.469	98.2038	105.469	98.1758	105.469	98.2134	105.469	98.1321	105.469	98.203	105.469	98.0766	105.469	98.1726	105.469	98.0139	105.469	98.124	105.469	97.9488	105.469	98.0604	105.469	97.8864	105.469	97.9868	105.469	97.8312	105.469	97.9091	105.469	97.7867	105.469	97.8338	105.469	97.7551	105.469	97.7669	105.469	97.7368	105.469	97.7135	105.469	97.7305	105.469	97.6767	105.469	97.7335	105.469	97.6575	105.469	97.7421	105.469	97.6545	105.469	97.7521	105.469	97.6646	105.469	97.7599	105.469	97.6833	105.469	97.7625	105.469	97.706	105.469	97.7582	105.469	97.7282	105.469	97.7464
108.398	98.1973	108.398	98.1714	108.398	98.1982	108.398	98.1219	108.398	98.1736	108.398	98.0522	108.398	98.1253	108.398	97.9665	108.398	98.0562	108.398	97.8708	108.398	97.9712	108.398	97.7716	108.398	97.8766	108.398	97.6761	108.398	97.7796	108.398	97.5915	108.398	97.6879	108.398	97.5236	108.398	97.6086	108.398	97.4761	108.398	97.5472	108.398	97.4501	108.398	97.5066	108.398	97.4437	108.398	97.4869	108.398	97.4528	108.398	97.4849	108.398	97.4718	108.398	97.4951	108.398	97.4947	108.398	97.5113	108.398	97.5162	108.398	97.5271	108.398	97.5321	108.398	97.5375	108.398	97.5395
112.793	98.2062	112.793	98.186	112.793	98.2014	112.793	98.1421	112.793	98.1715	112.793	98.0768	112.793	98.118	112.793	97.9936	112.793	98.0435	112.793	97.897	112.793	97.9522	112.793	97.7921	112.793	97.8492	112.793	97.6848	112.793	97.7409	112.793	97.5811	112.793	97.6341	112.793	97.4871	112.793	97.5353	112.793	97.4077	112.793	97.4502	112.793	97.3462	112.793	97.3831	112.793	97.3041	112.793	97.3355	112.793	97.2802	112.793	97.3067	112.793	97.2716	112.793	97.2934	112.793	97.2735	112.793	97.2908	112.793	97.281	112.793	97.2931	112.793	97.2891	112.793	97.2954	112.793	97.2944
117.188	97.9711	117.188	97.9621	117.188	97.9522	117.188	97.9262	117.188	97.9063	117.188	97.8658	117.188	97.8359	117.188	97.7849	117.188	97.7453	117.188	97.6888	117.188	97.6406	117.188	97.5839	117.188	97.529	117.188	97.4773	117.188	97.4189	117.188	97.3765	117.188	97.3185	117.188	97.2887	117.188	97.2355	117.188	97.2195	117.188	97.1754	117.188	97.1728	117.188	97.1407	117.188	97.1494	117.188	97.1304	117.188	97.147	117.188	97.1401	117.188	97.1605	117.188	97.1628	117.188	97.1831	117.188	97.1904	117.188	97.2073	117.188	97.2152	117.188	97.2263	117.188	97.2312	117.188	97.2351
120.117	97.9137	120.117	97.8986	120.117	97.8997	120.117	97.8556	120.117	97.8566	120.117	97.7873	120.117	97.786	120.117	97.6976	120.117	97.6912	120.117	97.5912	120.117	97.5768	120.117	97.4741	120.117	97.4493	120.117	97.3529	120.117	97.3165	120.117	97.2348	120.117	97.1872	120.117	97.1272	120.117	97.0703	120.117	97.0369	120.117	96.974	120.117	96.9688	120.117	96.9042	120.117	96.9255	120.117	96.8635	120.117	96.9059	120.117	96.8503	120.117	96.9055	120.117	96.8589	120.117	96.917	120.117	96.8811	120.117	96.9318	120.117	96.9075	120.117	96.9419	120.117	96.9296	120.117	96.9418
124.512	97.7771	124.512	97.7593	124.512	97.7652	124.512	97.7129	124.512	97.7237	124.512	97.6402	124.512	97.6545	124.512	97.5448	124.512	97.5606	124.512	97.4315	124.512	97.4467	124.512	97.3057	124.512	97.3185	124.512	97.1737	124.512	97.1831	124.512	97.0421	124.512	97.0479	124.512	96.9177	124.512	96.9206	124.512	96.8065	124.512	96.8081	124.512	96.7134	124.512	96.7157	124.512	96.6417	124.512	96.6461	124.512	96.5921	124.512	96.5993	124.512	96.5627	124.512	96.5722	124.512	96.5493	124.512	96.5595	124.512	96.5467	124.512	96.5553	124.512	96.5491	124.512	96.554	124.512	96.5522
128.906	97.3358	128.906	97.3166	128.906	97.3275	128.906	97.2713	128.906	97.2922	128.906	97.2028	128.906	97.2318	128.906	97.1156	128.906	97.1498	128.906	97.0151	128.906	97.0508	128.906	96.9071	128.906	96.9406	128.906	96.7978	128.906	96.8254	128.906	96.6928	128.906	96.7122	128.906	96.5972	128.906	96.6075	128.906	96.5153	128.906	96.5173	128.906	96.4501	128.906	96.4459	128.906	96.4031	128.906	96.3956	128.906	96.3741	128.906	96.3658	128.906	96.3607	128.906	96.3535	128.906	96.3586	128.906	96.3535	128.906	96.3626	128.906	96.3596	128.906	96.3675	128.906	96.3661	128.906	96.3692
133.301	97.0832	133.301	97.0526	133.301	97.0873	133.301	96.998	133.301	97.0645	133.301	96.9231	133.301	97.0155	133.301	96.8327	133.301	96.9428	133.301	96.7329	133.301	96.8505	133.301	96.6296	133.301	96.7442	133.301	96.529	133.301	96.6305	133.301	96.4364	133.301	96.517	133.301	96.3561	133.301	96.411	133.301	96.291	133.301	96.3194	133.301	96.2427	133.301	96.2472	133.301	96.2111	133.301	96.1973	133.301	96.1948	133.301	96.1696	133.301	96.1905	133.301	96.161	133.301	96.1938	133.301	96.1661	133.301	96.1995	133.301	96.1784	133.301	96.2027	133.301	96.1914	133.301	96.2003
139.16	96.8987	139.16	96.861	139.16	96.9077	139.16	96.797	139.16	96.8875	139.16	96.7104	139.16	96.8396	139.16	96.6064	139.16	96.7673	139.16	96.4917	139.16	96.6756	139.16	96.3735	139.16	96.5709	139.16	96.2593	139.16	96.4605	139.16	96.1566	139.16	96.3516	139.16	96.071	139.16	96.2508	139.16	96.0063	139.16	96.163	139.16	95.9635	139.16	96.0915	139.16	95.9407	139.16	96.0376	139.16	95.934	139.16	96.0007	139.16	95.938	139.16	95.9788	139.16	95.9471	139.16	95.9685	139.16	95.9567	139.16	95.9658	139.16	95.9636	139.16	95.9664	139.16	95.9665
143.555	96.7878	143.555	96.7566	143.555	96.787	143.555	96.6951	143.555	96.7544	143.555	96.6064	143.555	96.692	143.555	96.4954	143.555	96.6044	143.555	96.3682	143.555	96.4979	143.555	96.2321	143.555	96.3802	143.555	96.0955	143.555	96.2601	143.555	95.9672	143.555	96.146	143.555	95.8554	143.555	96.045	143.555	95.7668	143.555	95.9621	143.555	95.7052	143.555	95.8993	143.555	95.671	143.555	95.8559	143.555	95.6615	143.555	95.8287	143.555	95.6711	143.555	95.8131	143.555	95.6929	143.555	95.8038	143.555	95.7199	143.555	95.7957	143.555	95.7464	143.555	95.7848	143.555	95.7686
147.949	96.621	147.949	96.58	147.949	96.626	147.949	96.5048	147.949	96.5952	147.949	96.3997	147.949	96.5316	147.949	96.2708	147.949	96.4407	147.949	96.1255	147.949	96.3302	147.949	95.9727	147.949	96.2091	147.949	95.8218	147.949	96.0867	147.949	95.6825	147.949	95.9715	147.949	95.5633	147.949	95.8702	147.949	95.4708	147.949	95.7866	147.949	95.4083	147.949	95.7216	147.949	95.376	147.949	95.6738	147.949	95.3704	147.949	95.6397	147.949	95.3856	147.949	95.6146	147.949	95.4145	147.949	95.5939	147.949	95.4503	147.949	95.5732	147.949	95.487	147.949	95.5494	147.949	95.5207
153.809	96.1429	153.809	96.133	153.809	96.1158	153.809	96.0872	153.809	96.0536	153.809	96.0088	153.809	95.961	153.809	95.9029	153.809	95.8452	153.809	95.7764	153.809	95.7162	153.809	95.6372	153.809	95.5854	153.809	95.4949	153.809	95.4648	153.809	95.3598	153.809	95.3653	153.809	95.2427	153.809	95.2954	153.809	95.1535	153.809	95.2593	153.809	95.0996	153.809	95.256	153.809	95.0838	153.809	95.2795	153.809	95.1037	153.809	95.3196	153.809	95.1516	153.809	95.3643	153.809	95.2165	153.809	95.4018	153.809	95.2862	153.809	95.4229	153.809	95.3492	153.809	95.4216	153.809	95.3963
159.668	95.9832	159.668	95.9599	159.668	95.9738	159.668	95.9056	159.668	95.9323	159.668	95.8241	159.668	95.8617	159.668	95.7211	159.668	95.7675	159.668	95.6033	159.668	95.6572	159.668	95.4781	159.668	95.54	159.668	95.3529	159.668	95.4261	159.668	95.2347	159.668	95.3257	159.668	95.1306	159.668	95.2473	159.668	95.0472	159.668	95.1963	159.668	94.9903	159.668	95.1734	159.668	94.9637	159.668	95.175	159.668	94.968	159.668	95.1934	159.668	94.9997	159.668	95.2188	159.668	95.0509	159.668	95.2409	159.668	95.1111	159.668	95.251	159.668	95.1691	159.668	95.2431	159.668	95.2151
165.527	95.8035	165.527	95.7699	165.527	95.7992	165.527	95.7019	165.527	95.756	165.527	95.605	165.527	95.6764	165.527	95.4868	165.527	95.5658	165.527	95.3558	165.527	95.4333	165.527	95.2215	165.527	95.2905	165.527	95.0935	165.527	95.1508	165.527	94.9812	165.527	95.0276	165.527	94.8921	165.527	94.9325	165.527	94.8315	165.527	94.8732	165.527	94.8012	165.527	94.8512	165.527	94.7996	165.527	94.8622	165.527	94.8218	165.527	94.8964	165.527	94.8607	165.527	94.9411	165.527	94.9081	165.527	94.9839	165.527	94.9554	165.527	95.0148	165.527	94.995	165.527	95.0277	165.527	95.0206
171.387	95.6757	171.387	95.6449	171.387	95.6694	171.387	95.5797	171.387	95.6253	171.387	95.4848	171.387	95.5455	171.387	95.3663	171.387	95.4348	171.387	95.2313	171.387	95.3005	171.387	95.0874	171.387	95.1521	171.387	94.943	171.387	95.0009	171.387	94.8069	171.387	94.8591	171.387	94.6883	171.387	94.7388	171.387	94.5955	171.387	94.6505	171.387	94.5356	171.387	94.6006	171.387	94.5118	171.387	94.5896	171.387	94.5228	171.387	94.6116	171.387	94.562	171.387	94.6545	171.387	94.6182	171.387	94.7035	171.387	94.678	171.387	94.7439	171.387	94.7285	171.387	94.7644	171.387	94.7592
177.246	95.525	177.246	95.4851	177.246	95.5215	177.246	95.4039	177.246	95.4756	177.246	95.2861	177.246	95.3904	177.246	95.139	177.246	95.2718	177.246	94.9727	177.246	95.1279	177.246	94.7997	177.246	94.9688	177.246	94.634	177.246	94.8063	177.246	94.4893	177.246	94.6525	177.246	94.3773	177.246	94.5195	177.246	94.3051	177.246	94.4171	177.246	94.2739	177.246	94.352	177.246	94.2794	177.246	94.3257	177.246	94.3123	177.246	94.3339	177.246	94.3614	177.246	94.3673	177.246	94.4146	177.246	94.4133	177.246	94.4613	177.246	94.4582	177.246	94.4927	177.246	94.4907	177.246	94.5031
183.105	95.3264	183.105	95.3132	183.105	95.2976	183.105	95.2587	183.105	95.2288	183.105	95.1658	183.105	95.1246	183.105	95.0396	183.105	94.9926	183.105	94.8872	183.105	94.8424	183.105	94.717	183.105	94.6852	183.105	94.5394	183.105	94.5324	183.105	94.3663	183.105	94.3937	183.105	94.2106	183.105	94.2761	183.105	94.0844	183.105	94.1832	183.105	93.9966	183.105	94.1157	183.105	93.951	183.105	94.0726	183.105	93.9444	183.105	94.0517	183.105	93.9674	183.105	94.0496	183.105	94.0064	183.105	94.0607	183.105	94.0472	183.105	94.0776	183.105	94.0783	183.105	94.0912	183.105	94.0931
188.965	94.9374	188.965	94.9319	188.965	94.8927	188.965	94.8767	188.965	94.8001	188.965	94.7747	188.965	94.6655	188.965	94.6312	188.965	94.4991	188.965	94.4546	188.965	94.3162	188.965	94.2568	188.965	94.136	188.965	94.0532	188.965	93.9798	188.965	93.8618	188.965	93.8669	188.965	93.701	188.965	93.8099	188.965	93.5867	188.965	93.8109	188.965	93.5285	188.965	93.8604	188.965	93.5277	188.965	93.9398	188.965	93.5773	188.965	94.0267	188.965	93.6638	188.965	94.1006	188.965	93.7711	188.965	94.1467	188.965	93.8835	188.965	94.1576	188.965	93.9877	188.965	94.132	188.965	94.0733
196.289	94.8723	196.289	94.8507	196.289	94.845	196.289	94.7829	196.289	94.7692	196.289	94.6739	196.289	94.6484	196.289	94.5315	196.289	94.4892	196.289	94.3651	196.289	94.3022	196.289	94.1856	196.289	94.1016	196.289	94.0044	196.289	93.9044	196.289	93.8331	196.289	93.7292	196.289	93.6827	196.289	93.5928	196.289	93.5634	196.289	93.5077	196.289	93.4832	196.289	93.4784	196.289	93.4468	196.289	93.4998	196.289	93.4543	196.289	93.5585	196.289	93.4993	196.289	93.6351	196.289	93.5698	196.289	93.7091	196.289	93.6495	196.289	93.7628	196.289	93.721	196.289	93.7844	196.289	93.7694
203.613	94.7425	203.613	94.719	203.613	94.7105	203.613	94.6426	203.613	94.6226	203.613	94.5175	203.613	94.4814	203.613	94.3494	203.613	94.2937	203.613	94.1461	203.613	94.0705	203.613	93.9179	203.613	93.8273	203.613	93.679	203.613	93.5826	203.613	93.4472	203.613	93.3563	203.613	93.2428	203.613	93.1679	203.613	93.0855	203.613	93.0338	203.613	92.9898	203.613	92.9641	203.613	92.9608	203.613	92.9597	203.613	92.9918	203.613	93.0111	203.613	93.0663	203.613	93.0993	203.613	93.1617	203.613	93.1996	203.613	93.2546	203.613	93.2875	203.613	93.3245	203.613	93.3435	203.613	93.3564
210.938	94.4639	210.938	94.469	210.938	94.4049	210.938	94.4217	210.938	94.2939	210.938	94.3262	210.938	94.1364	210.938	94.189	210.938	93.9424	210.938	94.0182	210.938	93.7262	210.938	93.8236	210.938	93.5055	210.938	93.6164	210.938	93.2996	210.938	93.4088	210.938	93.1271	210.938	93.2145	210.938	93.0018	210.938	93.048	210.938	92.93	210.938	92.9233	210.938	92.9088	210.938	92.8506	210.938	92.9275	210.938	92.8327	210.938	92.9713	210.938	92.8623	210.938	93.0247	210.938	92.9236	210.938	93.074	210.938	92.9962	210.938	93.1086	210.938	93.0609	210.938	93.1202	210.938	93.1044
218.262	94.28	218.262	94.2875	218.262	94.2202	218.262	94.2454	218.262	94.1087	218.262	94.1591	218.262	93.9498	218.262	94.036	218.262	93.7523	218.262	93.8854	218.262	93.5293	218.262	93.7176	218.262	93.2985	218.262	93.5441	218.262	93.0813	218.262	93.3776	218.262	92.9009	218.262	93.2312	218.262	92.779	218.262	93.1178	218.262	92.7312	218.262	93.0478	218.262	92.7616	218.262	93.027	218.262	92.8597	218.262	93.0542	218.262	93.0018	218.262	93.1208	218.262	93.1574	218.262	93.212	218.262	93.2966	218.262	93.3089	218.262	93.3969	218.262	93.3915	218.262	93.4459	218.262	93.4418
225.586	94.484	225.586	94.4664	225.586	94.4375	225.586	94.3879	225.586	94.328	225.586	94.2556	225.586	94.161	225.586	94.0803	225.586	93.9471	225.586	93.8758	225.586	93.702	225.586	93.6586	225.586	93.4463	225.586	93.4458	225.586	93.2033	225.586	93.2539	225.586	92.9969	225.586	93.0971	225.586	92.847	225.586	92.9862	225.586	92.766	225.586	92.9284	225.586	92.7566	225.586	92.9262	225.586	92.8117	225.586	92.976	225.586	92.9156	225.586	93.0657	225.586	93.0466	225.586	93.1755	225.586	93.1806	225.586	93.2809	225.586	93.2941	225.586	93.3583	225.586	93.3678	225.586	93.39
232.91	94.5172	232.91	94.5116	232.91	94.4562	232.91	94.4418	232.91	94.3281	232.91	94.3125	232.91	94.136	232.91	94.1308	232.91	93.8871	232.91	93.9068	232.91	93.5952	232.91	93.655	232.91	93.2814	232.91	93.3944	232.91	92.9749	232.91	93.1478	232.91	92.71	232.91	92.9389	232.91	92.5203	232.91	92.7879	232.91	92.4292	232.91	92.7066	232.91	92.4412	232.91	92.6958	232.91	92.5391	232.91	92.7453	232.91	92.6902	232.91	92.8372	232.91	92.8574	232.91	92.949	232.91	93.0081	232.91	93.0575	232.91	93.1198	232.91	93.142	232.91	93.1804	232.91	93.1864
241.699	94.4746	241.699	94.4409	241.699	94.442	241.699	94.3427	241.699	94.3437	241.699	94.1853	241.699	94.1834	241.699	93.9781	241.699	93.9679	241.699	93.7343	241.699	93.7078	241.699	93.4716	241.699	93.418	241.699	93.2109	241.699	93.1187	241.699	92.9737	241.699	92.8346	241.699	92.7794	241.699	92.5939	241.699	92.6411	241.699	92.4236	241.699	92.5649	241.699	92.3429	241.699	92.5491	241.699	92.3555	241.699	92.5857	241.699	92.4458	241.699	92.6616	241.699	92.583	241.699	92.7582	241.699	92.7301	241.699	92.8538	241.699	92.8543	241.699	92.9262	241.699	92.9332	241.699	92.9566
250.488	94.6169	250.488	94.5492	250.488	94.6189	250.488	94.4214	250.488	94.5523	250.488	94.2401	250.488	94.4173	250.488	94.0131	250.488	94.2189	250.488	93.7489	250.488	93.9684	250.488	93.4573	250.488	93.6833	250.488	93.1504	250.488	93.3866	250.488	92.845	250.488	93.1049	250.488	92.564	250.488	92.8638	250.488	92.3351	250.488	92.6844	250.488	92.1856	250.488	92.5789	250.488	92.1338	250.488	92.5489	250.488	92.1795	250.488	92.5843	250.488	92.3025	250.488	92.6641	250.488	92.4679	250.488	92.76	250.488	92.6368	250.488	92.841	250.488	92.7751	250.488	92.88	250.488	92.8595
259.277	94.5739	259.277	94.4941	259.277	94.5712	259.277	94.3358	259.277	94.4866	259.277	94.1075	259.277	94.326	259.277	93.8219	259.277	94.1001	259.277	93.4968	259.277	93.825	259.277	93.1544	259.277	93.5209	259.277	92.8217	259.277	93.2112	259.277	92.5294	259.277	92.9205	259.277	92.3076	259.277	92.6728	259.277	92.1786	259.277	92.4892	259.277	92.1492	259.277	92.3852	259.277	92.2073	259.277	92.3658	259.277	92.3271	259.277	92.422	259.277	92.4771	259.277	92.5307	259.277	92.6278	259.277	92.6595	259.277	92.7555	259.277	92.7757	259.277	92.8424	259.277	92.8531	259.277	92.8766
268.066	94.4184	268.066	94.3658	268.066	94.3913	268.066	94.2351	268.066	94.286	268.066	94.0285	268.066	94.1093	268.066	93.7485	268.066	93.8747	268.066	93.3983	268.066	93.6036	268.066	92.986	268.066	93.3236	268.066	92.5296	268.066	93.065	268.066	92.0642	268.066	92.8555	268.066	91.6437	268.066	92.7129	268.066	91.3329	268.066	92.64	268.066	91.1834	268.066	92.6241	268.066	91.2069	268.066	92.6427	268.066	91.369	268.066	92.6719	268.066	91.6097	268.066	92.6919	268.066	91.8712	268.066	92.6894	268.066	92.1139	268.066	92.6561	268.066	92.3172	268.066	92.5861	268.066	92.4744
276.855	94.4596	276.855	94.4725	276.855	94.3712	276.855	94.4118	276.855	94.2107	276.855	94.2847	276.855	93.9861	276.855	94.1013	276.855	93.7103	276.855	93.8718	276.855	93.4014	276.855	93.6021	276.855	93.0832	276.855	93.2924	276.855	92.7856	276.855	92.9422	276.855	92.5408	276.855	92.5613	276.855	92.3776	276.855	92.1844	276.855	92.3138	276.855	91.8766	276.855	92.3506	276.855	91.7158	276.855	92.4728	276.855	91.7493	276.855	92.6514	276.855	91.9592	276.855	92.8488	276.855	92.2729	276.855	93.0238	276.855	92.6044	276.855	93.1381	276.855	92.8865	276.855	93.1618	276.855	93.0782
287.109	94.2442	287.109	94.2611	287.109	94.1485	287.109	94.2009	287.109	93.9756	287.109	94.0684	287.109	93.7313	287.109	93.8723	287.109	93.4269	287.109	93.625	287.109	93.0816	287.109	93.3427	287.109	92.7238	287.109	93.0426	287.109	92.3923	287.109	92.74	287.109	92.1308	287.109	92.4475	287.109	91.9771	287.109	92.1805	287.109	91.9492	287.109	91.9659	287.109	92.0361	287.109	91.8441	287.109	92.2039	287.109	91.8527	287.109	92.4098	287.109	91.9984	287.109	92.6159	287.109	92.2426	287.109	92.7922	287.109	92.5165	287.109	92.9136	287.109	92.7524	287.109	92.9573	287.109	92.9052
297.363	94.7411	297.363	94.7715	297.363	94.617	297.363	94.7093	297.363	94.3985	297.363	94.555	297.363	94.0883	297.363	94.3089	297.363	93.6964	297.363	93.9741	297.363	93.2417	297.363	93.5622	297.363	92.754	297.363	93.0985	297.363	92.2749	297.363	92.6253	297.363	91.8575	297.363	92.1982	297.363	91.5617	297.363	91.8713	297.363	91.4372	297.363	91.6783	297.363	91.4974	297.363	91.624	297.363	91.7043	297.363	91.69	297.363	91.9836	297.363	91.845	297.363	92.2578	297.363	92.0508	297.363	92.4717	297.363	92.2662	297.363	92.599	297.363	92.4529	297.363	92.6339	297.363	92.5816
307.617	94.5474	307.617	94.5027	307.617	94.5115	307.617	94.3946	307.617	94.3804	307.617	94.2381	307.617	94.1461	307.617	94.0409	307.617	93.8095	307.617	93.8008	307.617	93.3844	307.617	93.5087	307.617	92.8993	307.617	93.1554	307.617	92.3989	307.617	92.7426	307.617	91.9397	307.617	92.2945	307.617	91.579	307.617	91.865	307.617	91.3614	307.617	91.5302	307.617	91.3079	307.617	91.3601	307.617	91.4109	307.617	91.3791	307.617	91.6337	307.617	91.5522	307.617	91.9157	307.617	91.8091	307.617	92.187	307.617	92.0784	307.617	92.3866	307.617	92.3038	307.617	92.4765	307.617	92.4454
319.336	94.6633	319.336	94.5824	319.336	94.6468	319.336	94.4186	319.336	94.5238	319.336	94.1911	319.336	94.2919	319.336	93.9197	319.336	93.9547	319.336	93.6194	319.336	93.5216	319.336	93.2964	319.336	93.0083	319.336	92.9475	319.336	92.4413	319.336	92.5677	319.336	91.8661	319.336	92.1638	319.336	91.3574	319.336	91.7694	319.336	91.0139	319.336	91.4494	319.336	90.9193	319.336	91.282	319.336	91.085	319.336	91.3136	319.336	91.4331	319.336	91.5233	319.336	91.844	319.336	91.8338	319.336	92.2125	319.336	92.155	319.336	92.4724	319.336	92.4158	319.336	92.5935	319.336	92.5707
329.59	94.2852	329.59	94.2431	329.59	94.2358	329.59	94.1142	329.59	94.0954	329.59	93.9086	329.59	93.8683	329.59	93.6425	329.59	93.5607	329.59	93.335	329.59	93.1814	329.59	93.0034	329.59	92.7425	329.59	92.6579	329.59	92.2628	329.59	92.2969	329.59	91.7715	329.59	91.9128	329.59	91.3109	329.59	91.5073	329.59	90.9334	329.59	91.113	329.59	90.6915	329.59	90.8033	329.59	90.6224	329.59	90.6677	329.59	90.7319	329.59	90.7518	329.59	90.9829	329.59	91.0131	329.59	91.2991	329.59	91.3428	329.59	91.5866	329.59	91.6254	329.59	91.7628	329.59	91.7781
341.309	94.4536	341.309	94.4186	341.309	94.3908	341.309	94.2899	341.309	94.2305	341.309	94.0734	341.309	93.9798	341.309	93.7743	341.309	93.6528	341.309	93.3982	341.309	93.2673	341.309	92.9563	341.309	92.8415	341.309	92.4715	341.309	92.3914	341.309	91.983	341.309	91.9366	341.309	91.5403	341.309	91.5125	341.309	91.1908	341.309	91.1815	341.309	90.9669	341.309	91.0204	341.309	90.8853	341.309	91.0742	341.309	90.9503	341.309	91.3115	341.309	91.149	341.309	91.6378	341.309	91.4414	341.309	91.9493	341.309	91.762	341.309	92.1715	341.309	92.0398	341.309	92.2654	341.309	92.2183
353.027	94.2728	353.027	94.2089	353.027	94.2338	353.027	94.0593	353.027	94.083	353.027	93.8435	353.027	93.8237	353.027	93.5769	353.027	93.4722	353.027	93.2672	353.027	93.0541	353.027	92.9151	353.027	92.6001	353.027	92.5188	353.027	92.1383	353.027	92.0803	353.027	91.6906	353.027	91.6119	353.027	91.275	353.027	91.1429	353.027	90.9192	353.027	90.7261	353.027	90.6727	353.027	90.4367	353.027	90.5965	353.027	90.3475	353.027	90.7191	353.027	90.4821	353.027	90.9961	353.027	90.7867	353.027	91.3238	353.027	91.1556	353.027	91.5917	353.027	91.4811	353.027	91.7231	353.027	91.6843
366.211	94.383	366.211	94.3648	366.211	94.2958	366.211	94.2458	366.211	94.1009	366.211	94.0346	366.211	93.7973	366.211	93.7429	366.211	93.3861	366.211	93.3846	366.211	92.876	366.211	92.9742	366.211	92.2956	366.211	92.5244	366.211	91.7039	366.211	92.0463	366.211	91.1864	366.211	91.5554	366.211	90.823	366.211	91.0818	366.211	90.6449	366.211	90.6789	366.211	90.6256	366.211	90.4139	366.211	90.7173	366.211	90.3351	366.211	90.8826	366.211	90.4399	366.211	91.0912	366.211	90.6742	366.211	91.3	366.211	90.9619	366.211	91.4528	366.211	91.2304	366.211	91.5007	366.211	91.4227
379.395	94.3955	379.395	94.2879	379.395	94.4255	379.395	94.1085	379.395	94.3708	379.395	93.8647	379.395	94.2197	379.395	93.565	379.395	93.9557	379.395	93.2178	379.395	93.5594	379.395	92.8315	379.395	93.0161	379.395	92.4175	379.395	92.3248	379.395	91.9912	379.395	91.5141	379.395	91.5708	379.395	90.666	379.395	91.176	379.395	89.9391	379.395	90.8323	379.395	89.541	379.395	90.5799	379.395	89.5985	379.395	90.4722	379.395	90.0351	379.395	90.5494	379.395	90.6348	379.395	90.7996	379.395	91.1943	379.395	91.1484	379.395	91.5889	379.395	91.4885	379.395	91.7645	379.395	91.7184
392.578	93.8824	392.578	93.7503	392.578	93.9178	392.578	93.5419	392.578	93.8373	392.578	93.2798	392.578	93.6253	392.578	92.989	392.578	93.2746	392.578	92.6924	392.578	92.794	392.578	92.4028	392.578	92.2131	392.578	92.1147	392.578	91.5817	392.578	91.8023	392.578	90.9635	392.578	91.4308	392.578	90.4243	392.578	90.9831	392.578	90.0156	392.578	90.4925	392.578	89.7617	392.578	90.0632	392.578	89.6611	392.578	89.8407	392.578	89.7068	392.578	89.9083	392.578	89.8961	392.578	90.2047	392.578	90.2045	392.578	90.5693	392.578	90.5542	392.578	90.847	392.578	90.8323	392.578	90.9433
405.762	93.949	405.762	93.8628	405.762	93.9078	405.762	93.6641	405.762	93.7274	405.762	93.3627	405.762	93.408	405.762	92.9602	405.762	92.9653	405.762	92.4589	405.762	92.4295	405.762	91.8797	405.762	91.8366	405.762	91.2764	405.762	91.2172	405.762	90.7266	405.762	90.596	405.762	90.2892	405.762	90.0143	405.762	89.9626	405.762	89.5637	405.762	89.6993	405.762	89.3706	405.762	89.4734	405.762	89.4896	405.762	89.3332	405.762	89.8236	405.762	89.3698	405.762	90.2012	405.762	89.6119	405.762	90.4969	405.762	89.9738	405.762	90.6609	405.762	90.3244	405.762	90.6862	405.762	90.5729
420.41	93.9422	420.41	93.835	420.41	93.9084	420.41	93.6058	420.41	93.728	420.41	93.2795	420.41	93.4153	420.41	92.8801	420.41	93.0061	420.41	92.425	420.41	92.5479	420.41	91.9219	420.41	92.0788	420.41	91.3746	420.41	91.6066	420.41	90.8044	420.41	91.1038	420.41	90.2729	420.41	90.5302	420.41	89.874	420.41	89.8887	420.41	89.6688	420.41	89.2944	420.41	89.6294	420.41	88.9835	420.41	89.6796	420.41	89.1342	420.41	89.7792	420.41	89.6415	420.41	89.9446	420.41	90.2151	420.41	90.192	420.41	90.6268	420.41	90.4802	420.41	90.7881	420.41	90.7139
435.059	93.7809	435.059	93.7645	435.059	93.6719	435.059	93.6073	435.059	93.463	435.059	93.3045	435.059	93.1852	435.059	92.8617	435.059	92.8645	435.059	92.2969	435.059	92.5122	435.059	91.6436	435.059	92.1244	435.059	90.9498	435.059	91.6894	435.059	90.2713	435.059	91.1986	435.059	89.6659	435.059	90.6553	435.059	89.1963	435.059	90.0871	435.059	88.9302	435.059	89.5682	435.059	88.9146	435.059	89.2341	435.059	89.1365	435.059	89.2296	435.059	89.5176	435.059	89.5695	435.059	89.9564	435.059	90.0831	435.059	90.3674	435.059	90.5463	435.059	90.6856	435.059	90.8159	435.059	90.853
451.172	94.1533	451.172	94.0538	451.172	94.145	451.172	93.8371	451.172	94.0274	451.172	93.4919	451.172	93.7825	451.172	93.0126	451.172	93.381	451.172	92.4017	451.172	92.7972	451.172	91.6713	451.172	92.0293	451.172	90.8419	451.172	91.1192	451.172	89.9368	451.172	90.1666	451.172	88.9775	451.172	89.3105	451.172	87.999	451.172	88.6427	451.172	87.1055	451.172	88.1192	451.172	86.516	451.172	87.6289	451.172	86.4505	451.172	87.1912	451.172	86.8858	451.172	87.037	451.172	87.5613	451.172	87.3556	451.172	88.2079	451.172	87.9716	451.172	88.646	451.172	88.5205	451.172	88.7656
465.82	94.8939	465.82	94.875	465.82	94.7482	465.82	94.6934	465.82	94.4467	465.82	94.3537	465.82	94.0175	465.82	93.8621	465.82	93.5066	465.82	93.2287	465.82	92.9583	465.82	92.469	465.82	92.3848	465.82	91.6041	465.82	91.7537	465.82	90.6597	465.82	91.0194	465.82	89.6716	465.82	90.1855	465.82	88.7056	465.82	89.355	465.82	87.8857	465.82	88.7126	465.82	87.3923	465.82	88.3943	465.82	87.3604	465.82	88.3615	465.82	87.7322	465.82	88.4729	465.82	88.2808	465.82	88.6409	465.82	88.7773	465.82	88.8473	465.82	89.0854	465.82	89.0532	465.82	89.1643
483.398	95.4173	483.398	95.4092	483.398	95.2655	483.398	95.2554	483.398	94.9553	483.398	94.9847	483.398	94.4992	483.398	94.6313	483.398	93.9161	483.398	94.2191	483.398	93.2343	483.398	93.7489	483.398	92.4991	483.398	93.1956	483.398	91.7738	483.398	92.5185	483.398	91.1311	483.398	91.6803	483.398	90.6439	483.398	90.6731	483.398	90.3769	483.398	89.56	483.398	90.356	483.398	88.5375	483.398	90.5253	483.398	87.9358	483.398	90.7641	483.398	87.9851	483.398	90.9591	483.398	88.5494	483.398	91.0483	483.398	89.2947	483.398	91.0105	483.398	89.9772	483.398	90.8333	483.398	90.4953
499.512	95.3054	499.512	95.1919	499.512	95.2862	499.512	94.9647	499.512	95.1291	499.512	94.6541	499.512	94.8398	499.512	94.2901	499.512	94.4279	499.512	93.8895	499.512	93.9011	499.512	93.4491	499.512	93.2624	499.512	92.9531	499.512	92.5115	499.512	92.3897	499.512	91.6541	499.512	91.7614	499.512	90.7265	499.512	91.0804	499.512	89.8544	499.512	90.3686	499.512	89.3076	499.512	89.6965	499.512	89.3712	499.512	89.246	499.512	90.0077	499.512	89.259	499.512	90.8548	499.512	89.7849	499.512	91.5767	499.512	90.5783	499.512	92.0099	499.512	91.3362	499.512	92.1076	499.512	91.8729
517.09	94.5095	517.09	94.411	517.09	94.4777	517.09	94.1836	517.09	94.3342	517.09	93.8562	517.09	94.1054	517.09	93.4794	517.09	93.8138	517.09	93.1074	517.09	93.4742	517.09	92.7707	517.09	93.0955	517.09	92.4582	517.09	92.6774	517.09	92.1196	517.09	92.1985	517.09	91.6848	517.09	91.611	517.09	91.0889	517.09	90.8654	517.09	90.3051	517.09	89.9902	517.09	89.4079	517.09	89.229	517.09	88.6679	517.09	89.0486	517.09	88.5135	517.09	89.6379	517.09	89.1075	517.09	90.572	517.09	90.0933	517.09	91.3441	517.09	91.0091	517.09	91.7039	517.09	91.5839
536.133	94.4321	536.133	94.1877	536.133	94.4328	536.133	93.7238	536.133	94.1964	536.133	93.0958	536.133	93.7557	536.133	92.3848	536.133	93.1614	536.133	91.6763	536.133	92.4731	536.133	91.036	536.133	91.7621	536.133	90.5018	536.133	91.1238	536.133	90.081	536.133	90.661	536.133	89.7322	536.133	90.4142	536.133	89.3618	536.133	90.3034	536.133	88.8733	536.133	90.1823	536.133	88.2667	536.133	89.9794	536.133	87.7551	536.133	89.807	536.133	87.726	536.133	89.8944	536.133	88.3329	536.133	90.2887	536.133	89.2722	536.133	90.7326	536.133	90.1512	536.133	90.9297	536.133	90.737
555.176	93.9855	555.176	93.7893	555.176	93.9826	555.176	93.4141	555.176	93.7955	555.176	92.9154	555.176	93.4556	555.176	92.3659	555.176	92.9846	555.176	91.8249	555.176	92.378	555.176	91.3208	555.176	91.6072	555.176	90.8574	555.176	90.643	555.176	90.4229	555.176	89.5092	555.176	89.9774	555.176	88.3968	555.176	89.4483	555.176	87.7512	555.176	88.7747	555.176	87.9039	555.176	88.0047	555.176	88.5461	555.176	87.3766	555.176	89.1631	555.176	87.2209	555.176	89.5572	555.176	87.6343	555.176	89.7883	555.176	88.3764	555.176	89.9309	555.176	89.1297	555.176	89.9318	555.176	89.6777
574.219	94.2111	574.219	93.9012	574.219	94.3755	574.219	93.4708	574.219	94.3861	574.219	92.971	574.219	94.2302	574.219	92.4578	574.219	93.8879	574.219	91.9541	574.219	93.3525	574.219	91.4436	574.219	92.6473	574.219	90.9162	574.219	91.8105	574.219	90.4159	574.219	90.8565	574.219	90.0187	574.219	89.7644	574.219	89.7245	574.219	88.5599	574.219	89.3775	574.219	87.5059	574.219	88.769	574.219	87.1589	574.219	87.885	574.219	87.7528	574.219	87.1712	574.219	88.7908	574.219	87.3504	574.219	89.7343	574.219	88.3755	574.219	90.3447	574.219	89.5025	574.219	90.5373	574.219	90.2625
594.727	94.5169	594.727	94.2859	594.727	94.5321	594.727	93.8529	594.727	94.3469	594.727	93.2645	594.727	93.9983	594.727	92.5981	594.727	93.5358	594.727	91.9479	594.727	93.0079	594.727	91.3872	594.727	92.4477	594.727	90.9266	594.727	91.8718	594.727	90.5163	594.727	91.2857	594.727	90.102	594.727	90.6701	594.727	89.6802	594.727	89.945	594.727	89.2754	594.727	88.9861	594.727	88.8655	594.727	87.8223	594.727	88.4291	594.727	87.072	594.727	88.108	594.727	87.6597	594.727	88.2179	594.727	89.0989	594.727	88.8901	594.727	90.2747	594.727	89.8143	594.727	90.7547	594.727	90.5422
615.234	95.017	615.234	94.8099	615.234	95.0056	615.234	94.4309	615.234	94.7606	615.234	93.9356	615.234	94.3112	615.234	93.3722	615.234	93.7239	615.234	92.7827	615.234	93.0791	615.234	92.2055	615.234	92.4395	615.234	91.6528	615.234	91.8127	615.234	91.0933	615.234	91.1402	615.234	90.4918	615.234	90.3689	615.234	89.875	615.234	89.603	615.234	89.3116	615.234	89.1673	615.234	88.8145	615.234	89.2322	615.234	88.3619	615.234	89.4784	615.234	88.0752	615.234	89.5794	615.234	88.2261	615.234	89.5986	615.234	88.8478	615.234	89.7556	615.234	89.5627	615.234	89.9852	615.234	89.9806
637.207	94.7075	637.207	94.3988	637.207	94.8185	637.207	93.8957	637.207	94.7772	637.207	93.2695	637.207	94.6403	637.207	92.6553	637.207	94.4091	637.207	92.1819	637.207	93.9918	637.207	91.8748	637.207	93.2727	637.207	91.66	637.207	92.2535	637.207	91.459	637.207	91.141	637.207	91.2254	637.207	90.2186	637.207	90.8909	637.207	89.5298	637.207	90.3419	637.207	88.8593	637.207	89.5045	637.207	88.1994	637.207	88.48	637.207	88.0291	637.207	87.6326	637.207	88.6132	637.207	87.4511	637.207	89.4487	637.207	88.0421	637.207	90.0152	637.207	88.969	637.207	90.1225	637.207	89.7475
659.18	94.5851	659.18	94.255	659.18	94.7047	659.18	93.7311	659.18	94.6392	659.18	93.097	659.18	94.4072	659.18	92.474	659.18	93.9983	659.18	91.9683	659.18	93.4008	659.18	91.6346	659.18	92.636	659.18	91.4452	659.18	91.7555	659.18	91.2854	659.18	90.8218	659.18	91.021	659.18	89.9171	659.18	90.6028	659.18	89.1982	659.18	90.1129	659.18	88.793	659.18	89.6611	659.18	88.5783	659.18	89.2658	659.18	88.5251	659.18	88.9708	659.18	89.0387	659.18	89.0344	659.18	90.1584	659.18	89.6878	659.18	91.2073	659.18	90.6648	659.18	91.6709	659.18	91.4436
682.617	95.2174	682.617	95.0079	682.617	95.1509	682.617	94.5585	682.617	94.8109	682.617	93.9169	682.617	94.2457	682.617	93.1337	682.617	93.5369	682.617	92.294	682.617	92.8181	682.617	91.5417	682.617	92.3086	682.617	91.0053	682.617	92.1871	682.617	90.6821	682.617	92.3082	682.617	90.4539	682.617	92.2283	682.617	90.1982	682.617	91.6184	682.617	89.8582	682.617	90.6261	682.617	89.4463	682.617	89.9272	682.617	89.0387	682.617	89.9757	682.617	88.7871	682.617	90.3863	682.617	88.9025	682.617	90.7534	682.617	89.4917	682.617	91.0392	682.617	90.3251	682.617	91.1841	682.617	90.9721
707.52	94.9398	707.52	94.5765	707.52	95.141	707.52	94.0803	707.52	95.1585	707.52	93.5352	707.52	94.9492	707.52	93.0479	707.52	94.462	707.52	92.6316	707.52	93.6811	707.52	92.2167	707.52	92.6834	707.52	91.8189	707.52	91.6741	707.52	91.5173	707.52	90.8767	707.52	91.2167	707.52	90.2694	707.52	90.6671	707.52	89.528	707.52	89.7231	707.52	88.3584	707.52	88.5149	707.52	87.087	707.52	87.4412	707.52	86.9484	707.52	86.8626	707.52	88.1356	707.52	86.8808	707.52	89.3969	707.52	87.5206	707.52	90.0901	707.52	88.577	707.52	90.1282	707.52	89.57
732.422	93.9541	732.422	93.7359	732.422	94.0149	732.422	93.4617	732.422	93.8857	732.422	93.2099	732.422	93.5864	732.422	92.9294	732.422	93.1298	732.422	92.5167	732.422	92.5046	732.422	91.9809	732.422	91.6827	732.422	91.4077	732.422	90.6242	732.422	90.8565	732.422	89.3418	732.422	90.4139	732.422	88.0897	732.422	90.1549	732.422	87.4564	732.422	89.9488	732.422	87.5214	732.422	89.508	732.422	87.4312	732.422	88.6959	732.422	86.739	732.422	87.7878	732.422	86.4279	732.422	87.4197	732.422	87.6199	732.422	87.8764	732.422	89.0565	732.422	88.7414	732.422	89.6855	732.422	89.4803
757.324	92.9377	757.324	92.9071	757.324	92.8799	757.324	92.7955	757.324	92.7162	757.324	92.6103	757.324	92.3839	757.324	92.3107	757.324	91.7761	757.324	91.7839	757.324	90.8303	757.324	90.9573	757.324	89.7194	757.324	89.9655	757.324	88.9353	757.324	89.0906	757.324	88.7615	757.324	88.4306	757.324	88.6904	757.324	87.8621	757.324	88.0195	757.324	87.4083	757.324	86.7914	757.324	87.1633	757.324	86.094	757.324	86.9184	757.324	86.4358	757.324	86.4422	757.324	87.0203	757.324	85.9822	757.324	87.5329	757.324	86.254	757.324	88.0647	757.324	87.2608	757.324	88.3921	757.324	88.1431
785.156	91.8928	785.156	91.671	785.156	91.9005	785.156	91.3677	785.156	91.6689	785.156	91.1304	785.156	91.2058	785.156	90.9092	785.156	90.5045	785.156	90.4747	785.156	89.6231	785.156	89.7357	785.156	88.7723	785.156	88.9671	785.156	88.1671	785.156	88.5609	785.156	87.7666	785.156	88.4606	785.156	87.3842	785.156	88.2061	785.156	86.6905	785.156	87.5296	785.156	85.205	785.156	86.64	785.156	82.5512	785.156	85.9885	785.156	80.0755	785.156	85.6379	785.156	82.1791	785.156	85.1937	785.156	84.8795	785.156	84.634	785.156	85.9557	785.156	84.5527	785.156	85.8395	785.156	85.1527
811.523	92.0276	811.523	92.2167	811.523	91.7407	811.523	92.2504	811.523	91.3102	811.523	91.996	811.523	90.648	811.523	91.3441	811.523	89.7506	811.523	90.3493	811.523	88.7111	811.523	89.2623	811.523	87.5662	811.523	88.3756	811.523	86.3193	811.523	87.8904	811.523	85.165	811.523	87.8059	811.523	84.5183	811.523	87.8279	811.523	84.7037	811.523	87.5529	811.523	85.3153	811.523	86.8103	811.523	85.2971	811.523	85.8951	811.523	83.7512	811.523	85.5163	811.523	81.0254	811.523	85.9358	811.523	81.5231	811.523	86.5404	811.523	84.344	811.523	86.836	811.523	86.034	811.523	86.716
840.82	94.4003	840.82	94.4092	840.82	94.1354	840.82	94.2107	840.82	93.6776	840.82	93.8988	840.82	93.0773	840.82	93.41	840.82	92.2411	840.82	92.4998	840.82	91.0559	840.82	91.0688	840.82	89.7181	840.82	89.5655	840.82	88.7584	840.82	88.8438	840.82	88.3136	840.82	89.024	840.82	87.6903	840.82	89.1922	840.82	86.149	840.82	88.6391	840.82	83.7608	840.82	87.47	840.82	82.3144	840.82	86.4367	840.82	83.2897	840.82	86.1946	840.82	84.7568	840.82	86.5248	840.82	85.7207	840.82	86.9614	840.82	86.482	840.82	87.3361	840.82	87.1674	840.82	87.477
870.117	96.1815	870.117	96.1457	870.117	95.774	870.117	95.7655	870.117	94.975	870.117	95.166	870.117	93.92	870.117	94.204	870.117	92.7897	870.117	92.598	870.117	91.725	870.117	90.4786	870.117	90.611	870.117	88.6391	870.117	89.3788	870.117	87.8166	870.117	88.6005	870.117	87.8549	870.117	88.6135	870.117	88.3545	870.117	88.894	870.117	88.6662	870.117	88.882	870.117	88.32	870.117	88.0802	870.117	87.1225	870.117	86.08	870.117	85.5712	870.117	83.792	870.117	85.8057	870.117	85.2667	870.117	87.5659	870.117	88.1105	870.117	89.0379	870.117	89.5802	870.117	89.772
900.879	96.3141	900.879	96.1908	900.879	96.3329	900.879	95.9961	900.879	96.1662	900.879	95.565	900.879	95.7451	900.879	94.6023	900.879	94.9938	900.879	92.9835	900.879	93.8186	900.879	90.9435	900.879	92.1647	900.879	88.8749	900.879	90.1652	900.879	87.2094	900.879	88.3222	900.879	86.3897	900.879	87.3308	900.879	86.1538	900.879	87.1775	900.879	86.3115	900.879	87.2055	900.879	86.6852	900.879	87.1939	900.879	86.6529	900.879	87.2101	900.879	85.8091	900.879	87.1628	900.879	85.0765	900.879	87.3052	900.879	85.9925	900.879	88.0928	900.879	87.764	900.879	88.9294	900.879	88.9053
933.105	95.7368	933.105	95.699	933.105	95.3821	933.105	95.3225	933.105	94.7945	933.105	94.7203	933.105	94.1206	933.105	93.8505	933.105	93.2083	933.105	92.5829	933.105	91.919	933.105	90.9748	933.105	90.6468	933.105	89.4011	933.105	89.9605	933.105	88.1221	933.105	89.6412	933.105	87.1664	933.105	89.134	933.105	86.9767	933.105	88.3598	933.105	87.1522	933.105	87.561	933.105	86.8691	933.105	86.6429	933.105	85.8264	933.105	85.2535	933.105	84.0311	933.105	84.1749	933.105	82.245	933.105	85.1285	933.105	83.0228	933.105	86.8393	933.105	85.7297	933.105	87.7863	933.105	87.4981
965.332	96.9301	965.332	96.9466	965.332	96.8077	965.332	96.8116	965.332	96.4803	965.332	96.3434	965.332	95.7874	965.332	95.3123	965.332	94.7433	965.332	93.6353	965.332	93.5645	965.332	91.6083	965.332	92.1854	965.332	89.9623	965.332	90.3143	965.332	89.2758	965.332	88.5044	965.332	89.2679	965.332	87.8062	965.332	89.1546	965.332	87.9154	965.332	88.5478	965.332	87.7379	965.332	87.6751	965.332	86.9512	965.332	87.1276	965.332	86.2008	965.332	87.1665	965.332	86.2946	965.332	87.1933	965.332	87.1479	965.332	86.9573	965.332	88.0172	965.332	87.2172	965.332	88.3807	965.332	88.0091
1,000.49	96.8761	1,000.49	96.7783	1,000.49	96.7686	1,000.49	96.6379	1,000.49	96.3389	1,000.49	96.3239	1,000.49	95.6387	1,000.49	95.3388	1,000.49	94.7489	1,000.49	93.1921	1,000.49	93.6861	1,000.49	90.2617	1,000.49	92.3544	1,000.49	88.2274	1,000.49	90.6141	1,000.49	87.6624	1,000.49	88.3897	1,000.49	87.3825	1,000.49	86.2869	1,000.49	86.33	1,000.49	86.6229	1,000.49	86.1031	1,000.49	87.9776	1,000.49	87.0683	1,000.49	88.2621	1,000.49	87.0023	1,000.49	86.7896	1,000.49	85.0971	1,000.49	83.1203	1,000.49	83.2792	1,000.49	81.9796	1,000.49	84.404	1,000.49	85.136	1,000.49	86.3161	1,000.49	86.9161	1,000.49	87.2644
1,035.64	96.8709	1,035.64	96.8074	1,035.64	96.6283	1,035.64	96.3185	1,035.64	96.4258	1,035.64	95.3866	1,035.64	96.2245	1,035.64	93.9079	1,035.64	95.4722	1,035.64	92.0972	1,035.64	94.0928	1,035.64	90.6459	1,035.64	92.8212	1,035.64	89.1615	1,035.64	91.5224	1,035.64	86.6902	1,035.64	89.576	1,035.64	84.0641	1,035.64	87.7411	1,035.64	83.1071	1,035.64	87.256	1,035.64	83.3214	1,035.64	87.8541	1,035.64	84.1627	1,035.64	88.7708	1,035.64	85.1631	1,035.64	89.2044	1,035.64	85.2174	1,035.64	88.5257	1,035.64	84.0724	1,035.64	87.2001	1,035.64	84.355	1,035.64	86.3574	1,035.64	85.8092	1,035.64	86.2934	1,035.64	86.3584
1,072.27	95.9795	1,072.27	95.604	1,072.27	96.5078	1,072.27	95.5563	1,072.27	96.7173	1,072.27	95.0892	1,072.27	96.5009	1,072.27	93.4595	1,072.27	95.9338	1,072.27	91.3224	1,072.27	95.059	1,072.27	90.6159	1,072.27	93.883	1,072.27	90.7668	1,072.27	92.1146	1,072.27	89.6804	1,072.27	89.3637	1,072.27	86.7971	1,072.27	86.724	1,072.27	84.3053	1,072.27	86.6907	1,072.27	85.5035	1,072.27	88.5857	1,072.27	85.7914	1,072.27	89.8491	1,072.27	83.62	1,072.27	89.0994	1,072.27	80.788	1,072.27	86.6526	1,072.27	81.457	1,072.27	86.2434	1,072.27	83.0657	1,072.27	87.465	1,072.27	84.6911	1,072.27	87.3423	1,072.27	86.2991
1,108.89	96.2132	1,108.89	95.7238	1,108.89	96.5201	1,108.89	95.2934	1,108.89	96.524	1,108.89	94.8225	1,108.89	96.2118	1,108.89	93.8616	1,108.89	95.5595	1,108.89	92.4655	1,108.89	94.6367	1,108.89	91.6466	1,108.89	93.6336	1,108.89	90.8553	1,108.89	92.5165	1,108.89	89.854	1,108.89	91.1159	1,108.89	88.7875	1,108.89	89.2035	1,108.89	86.7374	1,108.89	86.7916	1,108.89	84.4102	1,108.89	86.9335	1,108.89	84.9909	1,108.89	87.9585	1,108.89	85.7894	1,108.89	87.4293	1,108.89	84.921	1,108.89	87.6137	1,108.89	82.8021	1,108.89	88.3776	1,108.89	82.1978	1,108.89	87.862	1,108.89	83.6014	1,108.89	86.5359	1,108.89	85.2053
1,148.44	95.6821	1,148.44	95.1212	1,148.44	96.0188	1,148.44	94.6771	1,148.44	95.9768	1,148.44	93.9816	1,148.44	95.7679	1,148.44	92.4653	1,148.44	95.2745	1,148.44	91.0988	1,148.44	94.1699	1,148.44	91.3026	1,148.44	92.7844	1,148.44	91.2976	1,148.44	91.5041	1,148.44	89.1839	1,148.44	89.7151	1,148.44	86.7252	1,148.44	87.0257	1,148.44	86.8964	1,148.44	85.4014	1,148.44	86.9995	1,148.44	86.8871	1,148.44	86.2358	1,148.44	88.7129	1,148.44	86.7838	1,148.44	88.5995	1,148.44	86.033	1,148.44	86.5285	1,148.44	81.467	1,148.44	85.8839	1,148.44	79.2445	1,148.44	87.2872	1,148.44	82.6668	1,148.44	86.6177	1,148.44	84.659
1,189.45	94.6246	1,189.45	94.4009	1,189.45	94.9309	1,189.45	93.858	1,189.45	95.0812	1,189.45	92.5675	1,189.45	94.7607	1,189.45	91.1875	1,189.45	93.9155	1,189.45	90.9645	1,189.45	92.7569	1,189.45	89.973	1,189.45	91.742	1,189.45	88.0672	1,189.45	90.9747	1,189.45	85.9781	1,189.45	89.8287	1,189.45	83.7825	1,189.45	87.7036	1,189.45	82.152	1,189.45	85.3342	1,189.45	84.0602	1,189.45	85.4129	1,189.45	84.7034	1,189.45	84.6842	1,189.45	84.7493	1,189.45	82.9666	1,189.45	85.3942	1,189.45	84.9521	1,189.45	84.1345	1,189.45	86.2615	1,189.45	80.1389	1,189.45	85.8734	1,189.45	82.2769	1,189.45	86.0117	1,189.45	85.2598
1,230.47	93.4195	1,230.47	92.8444	1,230.47	93.8269	1,230.47	91.871	1,230.47	93.6147	1,230.47	90.1404	1,230.47	92.7748	1,230.47	88.4791	1,230.47	92.0098	1,230.47	87.7955	1,230.47	91.3247	1,230.47	86.6457	1,230.47	90.2117	1,230.47	84.6024	1,230.47	88.8188	1,230.47	82.5107	1,230.47	87.1236	1,230.47	80.0525	1,230.47	84.8868	1,230.47	75.95	1,230.47	82.6345	1,230.47	73.7427	1,230.47	82.4839	1,230.47	78.9255	1,230.47	84.0946	1,230.47	81.0918	1,230.47	85.2337	1,230.47	81.966	1,230.47	84.9713	1,230.47	81.0575	1,230.47	83.729	1,230.47	79.3529	1,230.47	83.8202	1,230.47	80.6525	1,230.47	83.6194	1,230.47	82.5529
1,274.41	93.6808	1,274.41	93.0492	1,274.41	93.6191	1,274.41	91.6233	1,274.41	92.8491	1,274.41	89.5846	1,274.41	91.7988	1,274.41	88.1943	1,274.41	91.0381	1,274.41	88.1012	1,274.41	89.9755	1,274.41	86.796	1,274.41	88.1773	1,274.41	82.5826	1,274.41	86.7326	1,274.41	79.9782	1,274.41	85.5145	1,274.41	81.9689	1,274.41	82.7289	1,274.41	81.2964	1,274.41	79.1213	1,274.41	76.9061	1,274.41	81.3682	1,274.41	75.2637	1,274.41	83.6109	1,274.41	80.4577	1,274.41	82.0974	1,274.41	83.6669	1,274.41	77.1175	1,274.41	83.4348	1,274.41	80.0215	1,274.41	79.2447	1,274.41	82.8495	1,274.41	79.5312	1,274.41	83.6791	1,274.41	83.1569
1,319.82	94.5267	1,319.82	93.9845	1,319.82	94.9188	1,319.82	92.7298	1,319.82	94.8256	1,319.82	90.3076	1,319.82	93.6523	1,319.82	88.5663	1,319.82	91.3138	1,319.82	88.1224	1,319.82	89.0334	1,319.82	85.7845	1,319.82	88.5129	1,319.82	81.1301	1,319.82	87.82	1,319.82	80.0305	1,319.82	84.0241	1,319.82	81.2061	1,319.82	77.7316	1,319.82	81.7621	1,319.82	77.4579	1,319.82	81.0887	1,319.82	79.8403	1,319.82	78.1887	1,319.82	81.6633	1,319.82	79.7513	1,319.82	82.177	1,319.82	82.6828	1,319.82	82.4864	1,319.82	82.8727	1,319.82	81.8959	1,319.82	77.7191	1,319.82	82.7102	1,319.82	78.9263	1,319.82	85.6552	1,319.82	85.2772
1,366.7	96.1076	1,366.7	95.9398	1,366.7	96.4128	1,366.7	94.2626	1,366.7	96.6072	1,366.7	90.5649	1,366.7	95.7675	1,366.7	89.3838	1,366.7	94.1473	1,366.7	89.1417	1,366.7	92.3583	1,366.7	84.9334	1,366.7	90.7384	1,366.7	82.0317	1,366.7	89.9052	1,366.7	79.0733	1,366.7	88.4635	1,366.7	74.5871	1,366.7	86.0253	1,366.7	80.3994	1,366.7	84.0901	1,366.7	83.2125	1,366.7	80.2599	1,366.7	78.7118	1,366.7	81.1957	1,366.7	68.6889	1,366.7	86.5699	1,366.7	73.396	1,366.7	87.1807	1,366.7	80.0709	1,366.7	85.5733	1,366.7	80.2141	1,366.7	85.6738	1,366.7	80.7466	1,366.7	86.597	1,366.7	86.0895
1,413.57	96.0417	1,413.57	95.2627	1,413.57	96.7895	1,413.57	92.864	1,413.57	97.3442	1,413.57	90.0295	1,413.57	97.3358	1,413.57	91.2235	1,413.57	96.4864	1,413.57	89.2691	1,413.57	94.6003	1,413.57	86.0608	1,413.57	92.8021	1,413.57	90.5012	1,413.57	91.8391	1,413.57	90.1645	1,413.57	90.2977	1,413.57	87.2919	1,413.57	88.604	1,413.57	85.1834	1,413.57	88.0278	1,413.57	82.7149	1,413.57	85.541	1,413.57	83.3451	1,413.57	82.8203	1,413.57	81.3625	1,413.57	84.0237	1,413.57	80.1975	1,413.57	83.3099	1,413.57	85.3709	1,413.57	86.8409	1,413.57	84.2579	1,413.57	88.5322	1,413.57	68.3235	1,413.57	88.091	1,413.57	83.9997
1,463.38	95.0294	1,463.38	94.305	1,463.38	95.3051	1,463.38	91.9451	1,463.38	96.7315	1,463.38	93.3882	1,463.38	97.6349	1,463.38	93.4241	1,463.38	96.8926	1,463.38	89.1782	1,463.38	94.9773	1,463.38	89.8188	1,463.38	93.4656	1,463.38	93.2679	1,463.38	92.7989	1,463.38	93.5969	1,463.38	92.0047	1,463.38	90.5804	1,463.38	91.6686	1,463.38	89.3737	1,463.38	89.6806	1,463.38	89.8541	1,463.38	88.2396	1,463.38	88.6128	1,463.38	87.6292	1,463.38	86.8591	1,463.38	82.3471	1,463.38	82.2382	1,463.38	86.723	1,463.38	84.9678	1,463.38	88.1136	1,463.38	87.3338	1,463.38	89.4039	1,463.38	80.5404	1,463.38	88.5894	1,463.38	80.8211
1,516.11	93.711	1,516.11	93.9087	1,516.11	94.2069	1,516.11	95.6915	1,516.11	95.4675	1,516.11	97.5397	1,516.11	96.3502	1,516.11	95.6497	1,516.11	96.1072	1,516.11	93.267	1,516.11	94.3228	1,516.11	95.2177	1,516.11	93.5476	1,516.11	93.7628	1,516.11	93.4704	1,516.11	90.8136	1,516.11	91.6349	1,516.11	89.0348	1,516.11	90.0757	1,516.11	84.5804	1,516.11	88.0721	1,516.11	87.9428	1,516.11	87.7704	1,516.11	91.0021	1,516.11	89.0399	1,516.11	90.878	1,516.11	86.5181	1,516.11	88.8225	1,516.11	84.844	1,516.11	88.2055	1,516.11	84.3171	1,516.11	88.5402	1,516.11	88.1477	1,516.11	84.5346	1,516.11	84.3123	1,516.11	71.378
1,568.85	95.1103	1,568.85	96.2441	1,568.85	93.6223	1,568.85	97.9098	1,568.85	90.5627	1,568.85	98.729	1,568.85	89.9702	1,568.85	97.7047	1,568.85	91.259	1,568.85	96.0596	1,568.85	89.6853	1,568.85	94.7455	1,568.85	88.1967	1,568.85	92.8475	1,568.85	89.6039	1,568.85	90.5362	1,568.85	89.1478	1,568.85	90.3272	1,568.85	88.6624	1,568.85	86.6703	1,568.85	88.1282	1,568.85	81.8143	1,568.85	85.8214	1,568.85	87.2256	1,568.85	87.3352	1,568.85	89.4112	1,568.85	88.655	1,568.85	88.3919	1,568.85	81.3509	1,568.85	85.7918	1,568.85	77.9534	1,568.85	87.3644	1,568.85	83.9833	1,568.85	86.2379	1,568.85	80.6208	1,568.85	78.6353
1,624.51	96.5705	1,624.51	96.3701	1,624.51	95.5116	1,624.51	96.2516	1,624.51	93.1122	1,624.51	96.6686	1,624.51	91.3839	1,624.51	95.4322	1,624.51	89.7631	1,624.51	93.3627	1,624.51	87.2335	1,624.51	92.0459	1,624.51	85.2856	1,624.51	87.9933	1,624.51	80.57	1,624.51	85.2139	1,624.51	80.2288	1,624.51	85.9395	1,624.51	82.801	1,624.51	83.4311	1,624.51	79.7788	1,624.51	80.4736	1,624.51	74.1228	1,624.51	81.6393	1,624.51	80.1816	1,624.51	83.5316	1,624.51	81.0494	1,624.51	83.4963	1,624.51	66.3556	1,624.51	83.2647	1,624.51	74.1641	1,624.51	83.8547	1,624.51	72.0261	1,624.51	83.4518	1,624.51	80.0364	1,624.51	83.3724
1,681.64	96.8104	1,681.64	95.6653	1,681.64	96.4416	1,681.64	95.5638	1,681.64	94.0119	1,681.64	95.3147	1,681.64	92.4086	1,681.64	92.7836	1,681.64	91.6635	1,681.64	92.6589	1,681.64	90.4174	1,681.64	90.9114	1,681.64	89.0605	1,681.64	85.0837	1,681.64	84.3022	1,681.64	82.7744	1,681.64	78.9362	1,681.64	82.2742	1,681.64	79.4159	1,681.64	81.8364	1,681.64	76.8993	1,681.64	80.2989	1,681.64	76.9054	1,681.64	77.8106	1,681.64	77.7799	1,681.64	66.7031	1,681.64	74.2431	1,681.64	79.7214	1,681.64	74.3417	1,681.64	80.7925	1,681.64	73.613	1,681.64	79.3602	1,681.64	73.037	1,681.64	75.5001	1,681.64	79.1267	1,681.64	77.3539
1,741.7	96.3986	1,741.7	95.8626	1,741.7	96.1987	1,741.7	95.3708	1,741.7	94.7403	1,741.7	92.9704	1,741.7	92.1757	1,741.7	90.1809	1,741.7	89.4118	1,741.7	90.8642	1,741.7	89.1032	1,741.7	87.5665	1,741.7	87.3961	1,741.7	79.8934	1,741.7	83.5298	1,741.7	80.3372	1,741.7	81.1718	1,741.7	76.5563	1,741.7	80.1889	1,741.7	80.5095	1,741.7	83.0451	1,741.7	82.2007	1,741.7	79.5491	1,741.7	79.9292	1,741.7	73.3918	1,741.7	69.5119	1,741.7	73.1663	1,741.7	77.3872	1,741.7	80.5804	1,741.7	81.0164	1,741.7	80.8474	1,741.7	83.0825	1,741.7	78.3723	1,741.7	79.6001	1,741.7	76.7626	1,741.7	73.7303
1,803.22	95.121	1,803.22	95.5988	1,803.22	95.2198	1,803.22	94.6659	1,803.22	94.9209	1,803.22	91.9366	1,803.22	92.7831	1,803.22	90.3118	1,803.22	90.002	1,803.22	88.1181	1,803.22	88.2091	1,803.22	86.4163	1,803.22	86.6044	1,803.22	84.2449	1,803.22	82.3734	1,803.22	81.5584	1,803.22	74.681	1,803.22	81.7349	1,803.22	77.0356	1,803.22	74.1357	1,803.22	76.9652	1,803.22	72.9939	1,803.22	78.8627	1,803.22	80.0932	1,803.22	74.9528	1,803.22	75.2851	1,803.22	73.1874	1,803.22	78.5067	1,803.22	78.1213	1,803.22	76.2419	1,803.22	77.2827	1,803.22	75.9407	1,803.22	75.1164	1,803.22	78.1868	1,803.22	76.2924	1,803.22	75.5594
1,866.21	93.5915	1,866.21	94.2738	1,866.21	93.5494	1,866.21	93.3703	1,866.21	93.6821	1,866.21	91.9603	1,866.21	92.3322	1,866.21	90.1571	1,866.21	89.919	1,866.21	86.5816	1,866.21	86.7103	1,866.21	85.5491	1,866.21	85.1379	1,866.21	82.6483	1,866.21	83.4162	1,866.21	80.0903	1,866.21	77.7842	1,866.21	78.8946	1,866.21	76.0402	1,866.21	76.8102	1,866.21	81.0673	1,866.21	75.0108	1,866.21	77.9697	1,866.21	76.2341	1,866.21	66.8895	1,866.21	79.183	1,866.21	70.4347	1,866.21	71.8521	1,866.21	77.9715	1,866.21	77.9703	1,866.21	77.1287	1,866.21	76.234	1,866.21	75.9747	1,866.21	77.8437	1,866.21	75.3528	1,866.21	72.1636
1,932.13	92.2849	1,932.13	92.3533	1,932.13	91.7907	1,932.13	91.5339	1,932.13	91.5938	1,932.13	91.8314	1,932.13	90.7081	1,932.13	89.0113	1,932.13	88.8509	1,932.13	85.6119	1,932.13	84.2478	1,932.13	84.6692	1,932.13	83.028	1,932.13	78.8577	1,932.13	80.9696	1,932.13	80.4476	1,932.13	78.9026	1,932.13	69.7465	1,932.13	78.9766	1,932.13	72.1406	1,932.13	78.8278	1,932.13	73.2411	1,932.13	73.0706	1,932.13	70.4933	1,932.13	67.6712	1,932.13	75.0634	1,932.13	69.3081	1,932.13	69.5699	1,932.13	77.3082	1,932.13	74.7227	1,932.13	75.2287	1,932.13	75.7234	1,932.13	71.9919	1,932.13	72.5808	1,932.13	71.8971	1,932.13	69.8284
1,999.51	93.168	1,999.51	91.9721	1,999.51	92.4048	1,999.51	91.144	1,999.51	91.2424	1,999.51	91.22	1,999.51	90.7092	1,999.51	88.1723	1,999.51	88.4131	1,999.51	85.6085	1,999.51	84.0963	1,999.51	81.6935	1,999.51	82.1811	1,999.51	79.8391	1,999.51	78.2829	1,999.51	78.9318	1,999.51	75.7507	1,999.51	79.0256	1,999.51	73.529	1,999.51	76.6262	1,999.51	72.0963	1,999.51	71.8571	1,999.51	75.6765	1,999.51	70.0871	1,999.51	72.9518	1,999.51	75.7956	1,999.51	72.2692	1,999.51	71.8117	1,999.51	74.8804	1,999.51	72.371	1,999.51	73.8041	1,999.51	73.6714	1,999.51	70.382	1,999.51	73.1598	1,999.51	71.2507	1,999.51	72.5074
2,069.82	93.5678	2,069.82	92.8745	2,069.82	93.3311	2,069.82	90.8326	2,069.82	91.8514	2,069.82	89.1533	2,069.82	90.291	2,069.82	87.712	2,069.82	87.5156	2,069.82	85.3271	2,069.82	83.6834	2,069.82	82.8614	2,069.82	82.165	2,069.82	81.7261	2,069.82	77.6613	2,069.82	79.0064	2,069.82	73.5979	2,069.82	74.731	2,069.82	76.3392	2,069.82	74.9263	2,069.82	75.4474	2,069.82	76.0085	2,069.82	77.6925	2,069.82	71.0528	2,069.82	74.9571	2,069.82	74.6708	2,069.82	73.4725	2,069.82	74.0329	2,069.82	73.6509	2,069.82	71.9231	2,069.82	70.9628	2,069.82	73.8888	2,069.82	71.0278	2,069.82	75.2556	2,069.82	71.8036	2,069.82	73.1837
2,143.07	92.8686	2,143.07	92.9055	2,143.07	93.3442	2,143.07	91.138	2,143.07	92.0619	2,143.07	88.4812	2,143.07	89.9973	2,143.07	87.0657	2,143.07	86.6656	2,143.07	86.6946	2,143.07	83.5457	2,143.07	84.049	2,143.07	82.7331	2,143.07	80.8456	2,143.07	78.0252	2,143.07	81.0208	2,143.07	73.498	2,143.07	78.675	2,143.07	69.7501	2,143.07	77.9202	2,143.07	74.9579	2,143.07	74.5219	2,143.07	77.6341	2,143.07	74.6767	2,143.07	75.6943	2,143.07	73.4897	2,143.07	74.428	2,143.07	76.8122	2,143.07	73.6847	2,143.07	72.0612	2,143.07	71.4995	2,143.07	75.5544	2,143.07	71.5338	2,143.07	75.819	2,143.07	71.8799	2,143.07	72.4039
2,219.24	91.0591	2,219.24	91.5154	2,219.24	91.5193	2,219.24	90.9791	2,219.24	91.6949	2,219.24	89.2607	2,219.24	89.6808	2,219.24	86.5585	2,219.24	85.6686	2,219.24	87.0883	2,219.24	83.2911	2,219.24	84.0347	2,219.24	81.907	2,219.24	82.4555	2,219.24	78.9714	2,219.24	77.6664	2,219.24	74.0298	2,219.24	77.9014	2,219.24	71.3006	2,219.24	75.6228	2,219.24	71.575	2,219.24	75.2414	2,219.24	76.0073	2,219.24	73.1455	2,219.24	77.2443	2,219.24	72.5372	2,219.24	73.7863	2,219.24	74.9655	2,219.24	72.5136	2,219.24	71.2271	2,219.24	71.99	2,219.24	74.9776	2,219.24	68.1457	2,219.24	75.0825	2,219.24	69.7523	2,219.24	72.3614
2,296.88	90.238	2,296.88	89.925	2,296.88	89.5373	2,296.88	90.5825	2,296.88	90.4215	2,296.88	89.8109	2,296.88	90.0873	2,296.88	87.2238	2,296.88	86.4097	2,296.88	85.2571	2,296.88	83.8376	2,296.88	83.4282	2,296.88	82.0171	2,296.88	80.8713	2,296.88	78.5554	2,296.88	76.4138	2,296.88	78.9081	2,296.88	77.1859	2,296.88	76.1156	2,296.88	71.5553	2,296.88	64.9627	2,296.88	73.7147	2,296.88	71.0106	2,296.88	71.0539	2,296.88	74.9565	2,296.88	70.4099	2,296.88	70.9588	2,296.88	72.1338	2,296.88	68.4782	2,296.88	71.4506	2,296.88	71.6529	2,296.88	70.6968	2,296.88	65.2612	2,296.88	71.2225	2,296.88	67.9685	2,296.88	68.1519
2,378.91	90.273	2,378.91	89.5842	2,378.91	89.3247	2,378.91	88.7789	2,378.91	88.1426	2,378.91	89.2049	2,378.91	88.8822	2,378.91	87.2378	2,378.91	86.5712	2,378.91	83.8011	2,378.91	83.9845	2,378.91	82.3055	2,378.91	81.835	2,378.91	81.525	2,378.91	77.1301	2,378.91	78.8224	2,378.91	80.2369	2,378.91	76.0444	2,378.91	79.763	2,378.91	73.3024	2,378.91	75.5873	2,378.91	69.3025	2,378.91	66.5367	2,378.91	67.3604	2,378.91	73.4705	2,378.91	71.5315	2,378.91	72.616	2,378.91	69.6858	2,378.91	66.9376	2,378.91	70.3517	2,378.91	71.4526	2,378.91	69.7871	2,378.91	65.4018	2,378.91	69.4598	2,378.91	62.8096	2,378.91	65.0762
2,462.4	91.0217	2,462.4	90.3619	2,462.4	90.0687	2,462.4	89.6936	2,462.4	87.4649	2,462.4	88.2616	2,462.4	86.3346	2,462.4	87.1111	2,462.4	85.6706	2,462.4	83.074	2,462.4	84.7378	2,462.4	83.4614	2,462.4	81.0232	2,462.4	79.2656	2,462.4	76.2275	2,462.4	77.1816	2,462.4	74.2079	2,462.4	75.3703	2,462.4	77.933	2,462.4	69.6028	2,462.4	76.0644	2,462.4	68.9939	2,462.4	71.5176	2,462.4	66.6759	2,462.4	72.6344	2,462.4	69.8165	2,462.4	71.5324	2,462.4	64.9585	2,462.4	66.1664	2,462.4	70.4109	2,462.4	71.0695	2,462.4	67.1501	2,462.4	63.5561	2,462.4	70.3497	2,462.4	61.1171	2,462.4	65.1954
2,548.83	90.59	2,548.83	90.4282	2,548.83	90.5615	2,548.83	90.4696	2,548.83	89.4535	2,548.83	87.3514	2,548.83	85.4556	2,548.83	86.6678	2,548.83	83.6757	2,548.83	84.6792	2,548.83	84.8233	2,548.83	82.6463	2,548.83	80.6934	2,548.83	78.5728	2,548.83	73.7955	2,548.83	77.4473	2,548.83	74.8767	2,548.83	64.1189	2,548.83	76.6245	2,548.83	73.7365	2,548.83	73.4581	2,548.83	68.0836	2,548.83	66.4993	2,548.83	67.0527	2,548.83	72.7691	2,548.83	66.7172	2,548.83	66.1081	2,548.83	68.4178	2,548.83	63.0549	2,548.83	68.1307	2,548.83	69.9986	2,548.83	66.3554	2,548.83	61.3848	2,548.83	69.7871	2,548.83	64.6331	2,548.83	62.4315
2,639.65	88.8845	2,639.65	89.3385	2,639.65	89.6071	2,639.65	89.4272	2,639.65	89.9712	2,639.65	88.3069	2,639.65	87.3772	2,639.65	86.8776	2,639.65	84.6681	2,639.65	84.5409	2,639.65	85.0396	2,639.65	80.626	2,639.65	80.6677	2,639.65	78.1669	2,639.65	78.739	2,639.65	75.6906	2,639.65	77.0371	2,639.65	73.5285	2,639.65	76.1453	2,639.65	71.4683	2,639.65	71.285	2,639.65	68.5022	2,639.65	63.3037	2,639.65	67.7003	2,639.65	70.308	2,639.65	61.1493	2,639.65	62.9802	2,639.65	68.5493	2,639.65	63.9031	2,639.65	60.8061	2,639.65	69.6182	2,639.65	66.6666	2,639.65	62.3624	2,639.65	66.4245	2,639.65	64.6974	2,639.65	52.15
2,731.93	89.1211	2,731.93	88.9715	2,731.93	89.0366	2,731.93	88.6344	2,731.93	88.9131	2,731.93	88.8375	2,731.93	87.9116	2,731.93	85.2438	2,731.93	85.7793	2,731.93	84.2082	2,731.93	83.821	2,731.93	78.5738	2,731.93	81.7498	2,731.93	78.0142	2,731.93	78.1808	2,731.93	74.5134	2,731.93	77.0276	2,731.93	73.2801	2,731.93	74.2313	2,731.93	71.5684	2,731.93	68.6475	2,731.93	67.7225	2,731.93	68.8647	2,731.93	60.4635	2,731.93	72.1424	2,731.93	66.7416	2,731.93	64.7664	2,731.93	64.5037	2,731.93	64.2299	2,731.93	60.8384	2,731.93	69.0414	2,731.93	64.3465	2,731.93	61.5522	2,731.93	62.0721	2,731.93	62.7809	2,731.93	62.014
2,828.61	91.1531	2,828.61	91.046	2,828.61	90.2476	2,828.61	89.6407	2,828.61	88.8978	2,828.61	89.2088	2,828.61	88.5157	2,828.61	86.2388	2,828.61	87.014	2,828.61	83.8548	2,828.61	83.7485	2,828.61	81.1268	2,828.61	81.1059	2,828.61	78.3123	2,828.61	79.1926	2,828.61	74.9517	2,828.61	79.4322	2,828.61	72.4068	2,828.61	73.8765	2,828.61	65.9409	2,828.61	56.8695	2,828.61	66.1395	2,828.61	63.5853	2,828.61	67.1561	2,828.61	72.9985	2,828.61	65.2177	2,828.61	64.9191	2,828.61	63.1483	2,828.61	66.7734	2,828.61	63.3338	2,828.61	66.9406	2,828.61	64.4133	2,828.61	56.0384	2,828.61	63.0257	2,828.61	58.5801	2,828.61	62.4565
2,928.22	93.0951	2,928.22	93.0672	2,928.22	91.9297	2,928.22	92.128	2,928.22	90.3779	2,928.22	89.8505	2,928.22	89.9488	2,928.22	88.29	2,928.22	87.4063	2,928.22	84.4117	2,928.22	85.2147	2,928.22	83.4622	2,928.22	82.2556	2,928.22	79.7628	2,928.22	80.4096	2,928.22	75.1647	2,928.22	78.2944	2,928.22	72.2464	2,928.22	71.8383	2,928.22	71.4241	2,928.22	58.5397	2,928.22	71.6123	2,928.22	71.8748	2,928.22	64.7358	2,928.22	70.8293	2,928.22	68.3933	2,928.22	71.2546	2,928.22	65.4714	2,928.22	66.7798	2,928.22	65.6496	2,928.22	65.8549	2,928.22	67.241	2,928.22	60.1123	2,928.22	66.7527	2,928.22	57.6118	2,928.22	65.5426
3,030.76	93.9768	3,030.76	93.6416	3,030.76	93.538	3,030.76	93.1699	3,030.76	91.9463	3,030.76	90.7032	3,030.76	90.1964	3,030.76	88.8278	3,030.76	88.4306	3,030.76	86.5056	3,030.76	86.6228	3,030.76	84.3815	3,030.76	82.6888	3,030.76	80.538	3,030.76	81.1899	3,030.76	80.4575	3,030.76	79.6402	3,030.76	77.3112	3,030.76	50.1697	3,030.76	76.1113	3,030.76	68.935	3,030.76	69.3794	3,030.76	70.2156	3,030.76	67.9518	3,030.76	66.6759	3,030.76	69.6946	3,030.76	73.4489	3,030.76	68.0709	3,030.76	64.7881	3,030.76	69.3447	3,030.76	65.9269	3,030.76	68.9808	3,030.76	56.3521	3,030.76	67.2837	3,030.76	55.6317	3,030.76	66.9839
3,137.7	94.2336	3,137.7	93.6121	3,137.7	94.0964	3,137.7	93.2513	3,137.7	93.5859	3,137.7	91.54	3,137.7	90.9117	3,137.7	89.4234	3,137.7	89.06	3,137.7	87.8715	3,137.7	87.8222	3,137.7	86.4223	3,137.7	82.2735	3,137.7	84.3711	3,137.7	82.4755	3,137.7	83.4425	3,137.7	77.2131	3,137.7	77.6783	3,137.7	69.0817	3,137.7	75.7952	3,137.7	72.8511	3,137.7	72.6028	3,137.7	66.2272	3,137.7	74.2852	3,137.7	68.8531	3,137.7	69.4105	3,137.7	72.4738	3,137.7	71.5053	3,137.7	67.0438	3,137.7	72.5908	3,137.7	68.2302	3,137.7	70.5677	3,137.7	59.9556	3,137.7	69.4515	3,137.7	47.8983	3,137.7	68.3032
3,249.02	93.5452	3,249.02	93.5248	3,249.02	93.6718	3,249.02	92.5261	3,249.02	93.9548	3,249.02	91.8737	3,249.02	92.1798	3,249.02	90.3655	3,249.02	89.6927	3,249.02	89.5798	3,249.02	88.2403	3,249.02	86.7998	3,249.02	83.9398	3,249.02	86.2144	3,249.02	83.9347	3,249.02	80.1365	3,249.02	72.4514	3,249.02	78.7457	3,249.02	76.5802	3,249.02	76.9675	3,249.02	78.2597	3,249.02	76.642	3,249.02	72.4365	3,249.02	74.1493	3,249.02	66.0578	3,249.02	72.8402	3,249.02	74.5019	3,249.02	74.9954	3,249.02	72.1287	3,249.02	73.3966	3,249.02	71.5774	3,249.02	72.4247	3,249.02	66.6652	3,249.02	72.2633	3,249.02	58.0468	3,249.02	66.8119
3,363.28	92.9732	3,363.28	92.9144	3,363.28	93.0293	3,363.28	91.0588	3,363.28	93.0251	3,363.28	90.7362	3,363.28	92.1359	3,363.28	90.8054	3,363.28	91.0159	3,363.28	89.6393	3,363.28	88.1123	3,363.28	87.4044	3,363.28	85.292	3,363.28	84.5429	3,363.28	85.42	3,363.28	81.3088	3,363.28	77.4535	3,363.28	82.0864	3,363.28	81.3032	3,363.28	77.6998	3,363.28	80.0814	3,363.28	74.2662	3,363.28	69.7435	3,363.28	71.6536	3,363.28	67.0452	3,363.28	75.4057	3,363.28	75.7112	3,363.28	74.3915	3,363.28	76.298	3,363.28	75.2083	3,363.28	73.9891	3,363.28	73.2609	3,363.28	70.6866	3,363.28	73.9715	3,363.28	63.2653	3,363.28	72.0285
3,481.93	92.6976	3,481.93	91.1056	3,481.93	91.8982	3,481.93	91.4881	3,481.93	92.4553	3,481.93	91.2738	3,481.93	92.2053	3,481.93	91.2045	3,481.93	91.7036	3,481.93	90.3245	3,481.93	87.9359	3,481.93	88.9442	3,481.93	87.989	3,481.93	85.7984	3,481.93	87.4426	3,481.93	84.9532	3,481.93	81.0446	3,481.93	79.9798	3,481.93	83.7586	3,481.93	78.3047	3,481.93	82.1024	3,481.93	76.4781	3,481.93	80.8352	3,481.93	76.0376	3,481.93	73.7231	3,481.93	75.1327	3,481.93	75.5734	3,481.93	75.0261	3,481.93	77.2091	3,481.93	77.285	3,481.93	74.7709	3,481.93	75.1071	3,481.93	74.0441	3,481.93	74.7208	3,481.93	56.9327	3,481.93	73.6791
3,604.98	92.1527	3,604.98	91.1278	3,604.98	91.2626	3,604.98	90.7691	3,604.98	91.1801	3,604.98	91.4972	3,604.98	93.1204	3,604.98	91.2653	3,604.98	92.7008	3,604.98	91.5654	3,604.98	88.5375	3,604.98	88.7102	3,604.98	91.2122	3,604.98	88.2843	3,604.98	88.1606	3,604.98	84.3282	3,604.98	86.7844	3,604.98	80.5411	3,604.98	85.6575	3,604.98	79.1729	3,604.98	82.9651	3,604.98	75.9688	3,604.98	83.7982	3,604.98	77.6761	3,604.98	75.7629	3,604.98	75.3357	3,604.98	78.3483	3,604.98	77.8422	3,604.98	79.5683	3,604.98	78.8176	3,604.98	75.5814	3,604.98	76.0595	3,604.98	75.2676	3,604.98	77.5331	3,604.98	51.4329	3,604.98	75.2639
3,732.42	92.4296	3,732.42	91.0918	3,732.42	93.1492	3,732.42	89.8781	3,732.42	89.8376	3,732.42	92.0609	3,732.42	92.109	3,732.42	91.5674	3,732.42	92.5955	3,732.42	90.7496	3,732.42	89.7181	3,732.42	89.5739	3,732.42	91.7671	3,732.42	87.6116	3,732.42	89.3438	3,732.42	83.1559	3,732.42	87.6291	3,732.42	83.096	3,732.42	83.8913	3,732.42	79.0531	3,732.42	83.3282	3,732.42	78.0764	3,732.42	81.8905	3,732.42	75.8575	3,732.42	71.2013	3,732.42	74.3912	3,732.42	79.6603	3,732.42	79.429	3,732.42	80.6178	3,732.42	79.0602	3,732.42	76.3405	3,732.42	78.7882	3,732.42	75.8837	3,732.42	78.8411	3,732.42	59.6722	3,732.42	74.9565
3,864.26	92.2344	3,864.26	91.5804	3,864.26	93.7641	3,864.26	90.7507	3,864.26	93.1124	3,864.26	91.7588	3,864.26	90.4724	3,864.26	91.4164	3,864.26	92.264	3,864.26	90.9585	3,864.26	90.9493	3,864.26	90.2688	3,864.26	92.2678	3,864.26	86.0175	3,864.26	87.6229	3,864.26	85.9822	3,864.26	87.4919	3,864.26	83.2644	3,864.26	81.2331	3,864.26	81.2514	3,864.26	80.8177	3,864.26	79.64	3,864.26	78.9112	3,864.26	76.4091	3,864.26	76.5033	3,864.26	77.6784	3,864.26	80.1174	3,864.26	79.142	3,864.26	80.4933	3,864.26	78.025	3,864.26	78.1726	3,864.26	79.9873	3,864.26	75.522	3,864.26	78.3829	3,864.26	63.3506	3,864.26	71.5936
4,000.49	93.8527	4,000.49	92.3977	4,000.49	93.0953	4,000.49	92.3578	4,000.49	92.7414	4,000.49	90.6187	4,000.49	90.9517	4,000.49	91.2251	4,000.49	90.1265	4,000.49	89.2084	4,000.49	91.8223	4,000.49	88.6598	4,000.49	91.4587	4,000.49	87.8951	4,000.49	85.713	4,000.49	85.5773	4,000.49	86.9782	4,000.49	77.3135	4,000.49	85.296	4,000.49	79.5812	4,000.49	75.5351	4,000.49	73.2355	4,000.49	75.3478	4,000.49	77.0024	4,000.49	78.3548	4,000.49	76.6024	4,000.49	77.8177	4,000.49	78.0574	4,000.49	79.0192	4,000.49	76.0665	4,000.49	76.0281	4,000.49	79.765	4,000.49	74.1074	4,000.49	78.0192	4,000.49	66.759	4,000.49	67.751
4,141.11	95.2424	4,141.11	94.3032	4,141.11	95.5255	4,141.11	93.0943	4,141.11	92.6329	4,141.11	91.5968	4,141.11	91.2528	4,141.11	90.057	4,141.11	89.0051	4,141.11	88.9137	4,141.11	90.0556	4,141.11	86.7671	4,141.11	88.3113	4,141.11	85.8689	4,141.11	83.8836	4,141.11	78.9966	4,141.11	84.4805	4,141.11	81.6386	4,141.11	82.8852	4,141.11	76.2925	4,141.11	65.1592	4,141.11	72.532	4,141.11	80.4912	4,141.11	75.4029	4,141.11	79.2139	4,141.11	71.1782	4,141.11	74.2142	4,141.11	75.6972	4,141.11	73.6202	4,141.11	76.6098	4,141.11	75.0747	4,141.11	79.729	4,141.11	74.1638	4,141.11	76.407	4,141.11	48.0242	4,141.11	71.773
4,287.6	95.9367	4,287.6	95.3218	4,287.6	94.751	4,287.6	94.4714	4,287.6	93.8237	4,287.6	91.7784	4,287.6	90.708	4,287.6	88.3129	4,287.6	89.1033	4,287.6	87.2501	4,287.6	88.1491	4,287.6	85.4114	4,287.6	88.1833	4,287.6	79.5152	4,287.6	83.4003	4,287.6	81.3776	4,287.6	83.7556	4,287.6	79.2327	4,287.6	78.5337	4,287.6	70.0437	4,287.6	75.875	4,287.6	76.5084	4,287.6	81.2791	4,287.6	69.7376	4,287.6	76.3958	4,287.6	55.1352	4,287.6	63.0004	4,287.6	69.7371	4,287.6	75.8968	4,287.6	76.1849	4,287.6	72.8272	4,287.6	75.8958	4,287.6	71.9542	4,287.6	71.1256	4,287.6	63.8556	4,287.6	72.6516
4,438.48	95.3124	4,438.48	95.376	4,438.48	95.1041	4,438.48	94.1153	4,438.48	93.0635	4,438.48	91.0351	4,438.48	91.0569	4,438.48	89.0393	4,438.48	86.86	4,438.48	84.8805	4,438.48	87.8054	4,438.48	82.9597	4,438.48	85.4137	4,438.48	82.8125	4,438.48	83.6889	4,438.48	78.1359	4,438.48	79.5036	4,438.48	74.7248	4,438.48	66.1108	4,438.48	76.6034	4,438.48	78.1699	4,438.48	64.9439	4,438.48	77.0498	4,438.48	69.4919	4,438.48	67.3849	4,438.48	70.0059	4,438.48	67.8146	4,438.48	69.9792	4,438.48	74.0745	4,438.48	71.2946	4,438.48	69.5017	4,438.48	71.35	4,438.48	71.228	4,438.48	71.2658	4,438.48	66.567	4,438.48	71.1786
4,595.21	93.4817	4,595.21	94.9458	4,595.21	93.7103	4,595.21	92.5712	4,595.21	92.8386	4,595.21	89.9458	4,595.21	90.7778	4,595.21	86.6725	4,595.21	85.8556	4,595.21	86.0073	4,595.21	86.7868	4,595.21	81.9995	4,595.21	83.7615	4,595.21	79.6284	4,595.21	81.5866	4,595.21	77.4093	4,595.21	75.3274	4,595.21	76.7202	4,595.21	61.9617	4,595.21	69.2533	4,595.21	77.4953	4,595.21	73.4193	4,595.21	70.8613	4,595.21	69.8928	4,595.21	71.467	4,595.21	64.0191	4,595.21	71.6506	4,595.21	66.2704	4,595.21	73.2393	4,595.21	71.0813	4,595.21	68.8628	4,595.21	71.156	4,595.21	66.8525	4,595.21	70.1129	4,595.21	65.6548	4,595.21	67.7032
4,756.35	94.3535	4,756.35	93.4776	4,756.35	92.076	4,756.35	92.052	4,756.35	91.1962	4,756.35	90.0566	4,756.35	90.132	4,756.35	87.4155	4,756.35	86.2456	4,756.35	84.777	4,756.35	85.3384	4,756.35	83.8679	4,756.35	81.91	4,756.35	81.745	4,756.35	80.2978	4,756.35	80.4817	4,756.35	72.9157	4,756.35	73.2786	4,756.35	73.6152	4,756.35	75.4939	4,756.35	70.2825	4,756.35	69.4761	4,756.35	67.5723	4,756.35	67.961	4,756.35	73.4395	4,756.35	69.2997	4,756.35	71.5556	4,756.35	68.8676	4,756.35	71.735	4,756.35	70.0316	4,756.35	68.5932	4,756.35	71.2589	4,756.35	67.1928	4,756.35	68.8453	4,756.35	64.9764	4,756.35	68.5472
4,924.8	95.8564	4,924.8	95.0644	4,924.8	94.7747	4,924.8	92.2462	4,924.8	92.5366	4,924.8	90.0578	4,924.8	89.7591	4,924.8	86.1595	4,924.8	88.4348	4,924.8	84.4911	4,924.8	86.7354	4,924.8	81.9759	4,924.8	82.4416	4,924.8	81.3956	4,924.8	78.4975	4,924.8	74.5653	4,924.8	74.0438	4,924.8	75.7633	4,924.8	75.4888	4,924.8	72.2561	4,924.8	51.2906	4,924.8	69.9735	4,924.8	70.4109	4,924.8	68.1808	4,924.8	74.7853	4,924.8	66.976	4,924.8	71.3734	4,924.8	66.2878	4,924.8	69.4411	4,924.8	68.5858	4,924.8	71.4076	4,924.8	70.0982	4,924.8	63.1422	4,924.8	68.5764	4,924.8	67.8623	4,924.8	66.7336
5,097.66	95.4102	5,097.66	94.1685	5,097.66	94.029	5,097.66	92.2195	5,097.66	93.0868	5,097.66	88.5971	5,097.66	89.256	5,097.66	86.4655	5,097.66	87.8483	5,097.66	84.625	5,097.66	86.9743	5,097.66	81.7662	5,097.66	81.5112	5,097.66	78.1247	5,097.66	74.9037	5,097.66	77.415	5,097.66	73.2834	5,097.66	74.3696	5,097.66	70.5025	5,097.66	69.5437	5,097.66	54.8284	5,097.66	69.4392	5,097.66	61.8426	5,097.66	62.6803	5,097.66	70.9422	5,097.66	67.5523	5,097.66	69.0207	5,097.66	65.2479	5,097.66	70.8403	5,097.66	67.6194	5,097.66	70.1756	5,097.66	70.2543	5,097.66	63.7484	5,097.66	70.3703	5,097.66	67.2211	5,097.66	64.0954
5,277.83	95.0099	5,277.83	94.0891	5,277.83	93.6738	5,277.83	91.5227	5,277.83	91.7436	5,277.83	89.399	5,277.83	90.173	5,277.83	85.8881	5,277.83	87.7393	5,277.83	83.3148	5,277.83	86.0691	5,277.83	80.6067	5,277.83	78.6432	5,277.83	80.1582	5,277.83	75.9507	5,277.83	74.4459	5,277.83	74.0217	5,277.83	69.1441	5,277.83	69.246	5,277.83	70.3429	5,277.83	67.5708	5,277.83	68.8186	5,277.83	62.2716	5,277.83	66.2534	5,277.83	65.5205	5,277.83	68.5589	5,277.83	68.2219	5,277.83	63.9592	5,277.83	65.8519	5,277.83	66.2386	5,277.83	67.8841	5,277.83	69.2092	5,277.83	64.9504	5,277.83	71.5128	5,277.83	64.7606	5,277.83	62.4937
5,463.87	94.4491	5,463.87	93.276	5,463.87	93.0844	5,463.87	90.7312	5,463.87	90.6927	5,463.87	88.1463	5,463.87	89.5665	5,463.87	83.8648	5,463.87	87.4323	5,463.87	82.2858	5,463.87	82.758	5,463.87	80.2134	5,463.87	75.9305	5,463.87	77.1023	5,463.87	75.2546	5,463.87	75.8832	5,463.87	75.9282	5,463.87	74.987	5,463.87	75.4131	5,463.87	70.8026	5,463.87	75.2229	5,463.87	68.2329	5,463.87	66.6019	5,463.87	68.1122	5,463.87	62.6123	5,463.87	65.8825	5,463.87	71.8833	5,463.87	60.4992	5,463.87	66.0578	5,463.87	65.9396	5,463.87	70.4655	5,463.87	70.7952	5,463.87	59.4682	5,463.87	70.2922	5,463.87	64.94	5,463.87	61.5053
5,657.23	94.2222	5,657.23	93.2066	5,657.23	93.1226	5,657.23	89.7297	5,657.23	90.6553	5,657.23	85.2859	5,657.23	87.2492	5,657.23	82.2617	5,657.23	85.4564	5,657.23	81.7602	5,657.23	80.3913	5,657.23	80.3482	5,657.23	75.13	5,657.23	78.5363	5,657.23	77.5557	5,657.23	75.9898	5,657.23	77.6693	5,657.23	71.0161	5,657.23	71.8901	5,657.23	69.3883	5,657.23	72.6567	5,657.23	65.6981	5,657.23	60.609	5,657.23	66.9244	5,657.23	68.65	5,657.23	63.7616	5,657.23	72.2937	5,657.23	62.3612	5,657.23	72.2251	5,657.23	67.3482	5,657.23	68.4988	5,657.23	69.3654	5,657.23	52.4834	5,657.23	63.4023	5,657.23	64.2875	5,657.23	58.3341
5,856.45	94.1753	5,856.45	93.4154	5,856.45	92.2654	5,856.45	88.5453	5,856.45	89.3263	5,856.45	81.8408	5,856.45	84.626	5,856.45	80.7264	5,856.45	80.5497	5,856.45	79.6092	5,856.45	78.1405	5,856.45	78.4733	5,856.45	76.7968	5,856.45	75.143	5,856.45	78.3998	5,856.45	73.3988	5,856.45	77.6042	5,856.45	70.9949	5,856.45	71.652	5,856.45	67.9684	5,856.45	68.8897	5,856.45	67.4402	5,856.45	51.4462	5,856.45	62.7107	5,856.45	65.09	5,856.45	60.6675	5,856.45	65.3853	5,856.45	61.1021	5,856.45	71.0723	5,856.45	65.6007	5,856.45	66.028	5,856.45	69.8086	5,856.45	56.2464	5,856.45	67.6309	5,856.45	63.1607	5,856.45	49.6092
6,062.99	94.8384	6,062.99	93.3971	6,062.99	92.923	6,062.99	87.5337	6,062.99	86.411	6,062.99	83.1334	6,062.99	83.9133	6,062.99	77.5706	6,062.99	77.0707	6,062.99	78.0866	6,062.99	75.1018	6,062.99	74.8846	6,062.99	79.2025	6,062.99	75.6889	6,062.99	78.0271	6,062.99	72.6187	6,062.99	76.9048	6,062.99	71.0446	6,062.99	72.8122	6,062.99	68.2638	6,062.99	54.0989	6,062.99	65.4916	6,062.99	53.3172	6,062.99	66.8541	6,062.99	41.3414	6,062.99	63.0997	6,062.99	56.2468	6,062.99	61.0774	6,062.99	67.0653	6,062.99	64.6727	6,062.99	63.0317	6,062.99	64.9786	6,062.99	58.8431	6,062.99	65.525	6,062.99	61.3553	6,062.99	54.5879
6,276.86	94.59	6,276.86	92.8651	6,276.86	93.1632	6,276.86	89.1067	6,276.86	87.8008	6,276.86	85.223	6,276.86	81.634	6,276.86	81.5603	6,276.86	76.9136	6,276.86	77.7542	6,276.86	75.4175	6,276.86	78.5928	6,276.86	79.6132	6,276.86	75.6915	6,276.86	77.0496	6,276.86	73.4414	6,276.86	72.9944	6,276.86	71.3726	6,276.86	73.8479	6,276.86	66.0561	6,276.86	67.3125	6,276.86	64.3251	6,276.86	55.7227	6,276.86	64.4423	6,276.86	59.0818	6,276.86	60.7903	6,276.86	53.8296	6,276.86	57.839	6,276.86	65.5178	6,276.86	62.7252	6,276.86	53.2044	6,276.86	63.0896	6,276.86	56.2506	6,276.86	62.8997	6,276.86	59.0352	6,276.86	38.7829
6,498.05	95.3372	6,498.05	94.0812	6,498.05	93.2674	6,498.05	90.4816	6,498.05	89.6442	6,498.05	86.41	6,498.05	84.8923	6,498.05	82.6751	6,498.05	78.8853	6,498.05	81.188	6,498.05	79.0095	6,498.05	79.4306	6,498.05	81.3512	6,498.05	77.2798	6,498.05	75.2277	6,498.05	74.5815	6,498.05	66.9536	6,498.05	69.5669	6,498.05	68.8769	6,498.05	67.6861	6,498.05	69.4027	6,498.05	63.9201	6,498.05	58.5171	6,498.05	65.1416	6,498.05	58.7136	6,498.05	62.0234	6,498.05	51.5747	6,498.05	55.9692	6,498.05	59.2863	6,498.05	61.0285	6,498.05	59.1956	6,498.05	65.0636	6,498.05	49.1774	6,498.05	63.1393	6,498.05	53.4772	6,498.05	47.8713
6,726.56	95.9141	6,726.56	94.2617	6,726.56	94.8913	6,726.56	90.6254	6,726.56	91.3852	6,726.56	87.8737	6,726.56	87.7146	6,726.56	84.1598	6,726.56	81.5081	6,726.56	81.7873	6,726.56	82.5247	6,726.56	81.0635	6,726.56	80.5542	6,726.56	76.7577	6,726.56	77.1123	6,726.56	71.924	6,726.56	66.5649	6,726.56	71.2649	6,726.56	70.8543	6,726.56	62.849	6,726.56	62.8096	6,726.56	67.5638	6,726.56	56.0516	6,726.56	63.6468	6,726.56	58.4452	6,726.56	57.9979	6,726.56	56.268	6,726.56	56.28	6,726.56	61.1957	6,726.56	61.7902	6,726.56	59.3523	6,726.56	64.8743	6,726.56	44.7557	6,726.56	61.7581	6,726.56	57.8846	6,726.56	54.2151
6,963.87	95.9926	6,963.87	94.7785	6,963.87	95.3085	6,963.87	91.575	6,963.87	93.3275	6,963.87	88.9463	6,963.87	89.2504	6,963.87	85.8447	6,963.87	84.0917	6,963.87	83.7082	6,963.87	84.7892	6,963.87	80.262	6,963.87	79.4953	6,963.87	77.0252	6,963.87	76.0139	6,963.87	72.9305	6,963.87	74.4481	6,963.87	67.8392	6,963.87	67.3316	6,963.87	66.1379	6,963.87	52.9921	6,963.87	64.5015	6,963.87	57.6688	6,963.87	61.1526	6,963.87	58.8008	6,963.87	63.6025	6,963.87	62.692	6,963.87	47.6907	6,963.87	60.9304	6,963.87	56.4327	6,963.87	61.5258	6,963.87	63.3787	6,963.87	52.4539	6,963.87	61.625	6,963.87	62.4054	6,963.87	49.2791
7,209.96	96.492	7,209.96	95.1166	7,209.96	95.2112	7,209.96	92.9833	7,209.96	92.6308	7,209.96	90.5433	7,209.96	90.3745	7,209.96	87.546	7,209.96	86.422	7,209.96	85.4753	7,209.96	85.5048	7,209.96	82.2031	7,209.96	79.415	7,209.96	78.035	7,209.96	77.1322	7,209.96	74.1028	7,209.96	73.5879	7,209.96	69.6403	7,209.96	65.6946	7,209.96	68.2605	7,209.96	60.2254	7,209.96	64.9686	7,209.96	54.7005	7,209.96	63.2557	7,209.96	62.1664	7,209.96	62.6128	7,209.96	57.6317	7,209.96	58.5378	7,209.96	63.3141	7,209.96	58.1013	7,209.96	62.2918	7,209.96	63.5043	7,209.96	54.2048	7,209.96	63.8873	7,209.96	64.9177	7,209.96	48.6374
7,464.84	96.1663	7,464.84	94.8893	7,464.84	94.1603	7,464.84	93.0194	7,464.84	91.6508	7,464.84	91.3009	7,464.84	91.4121	7,464.84	89.6721	7,464.84	88.1631	7,464.84	86.9314	7,464.84	86.5739	7,464.84	83.9971	7,464.84	81.3396	7,464.84	79.5151	7,464.84	78.096	7,464.84	71.594	7,464.84	76.5629	7,464.84	70.1929	7,464.84	66.2163	7,464.84	67.9349	7,464.84	65.855	7,464.84	62.6678	7,464.84	50.8247	7,464.84	64.849	7,464.84	56.8845	7,464.84	61.7478	7,464.84	58.4348	7,464.84	63.3079	7,464.84	64.969	7,464.84	63.1825	7,464.84	65.9528	7,464.84	66.8252	7,464.84	54.3404	7,464.84	64.8794	7,464.84	67.4803	7,464.84	45.613
7,727.05	97.0409	7,727.05	94.5808	7,727.05	94.9383	7,727.05	92.8014	7,727.05	90.9804	7,727.05	90.517	7,727.05	91.8742	7,727.05	87.9676	7,727.05	88.7171	7,727.05	87.3148	7,727.05	86.2059	7,727.05	83.0764	7,727.05	82.7816	7,727.05	78.7257	7,727.05	74.0282	7,727.05	75.6595	7,727.05	74.3651	7,727.05	71.0649	7,727.05	68.8324	7,727.05	68.9405	7,727.05	70.6712	7,727.05	68.074	7,727.05	68.5435	7,727.05	69.2682	7,727.05	63.7383	7,727.05	63.7815	7,727.05	63.4879	7,727.05	63.7697	7,727.05	66.4263	7,727.05	62.2417	7,727.05	65.9007	7,727.05	67.2523	7,727.05	62.9748	7,727.05	67.08	7,727.05	66.6538	7,727.05	57.7796
7,999.51	96.1402	7,999.51	94.3244	7,999.51	95.9009	7,999.51	93.2199	7,999.51	93.0442	7,999.51	91.0316	7,999.51	91.3044	7,999.51	87.9345	7,999.51	88.0254	7,999.51	84.4671	7,999.51	83.1315	7,999.51	80.0807	7,999.51	80.7998	7,999.51	76.1874	7,999.51	73.3757	7,999.51	72.8581	7,999.51	60.2581	7,999.51	73.4631	7,999.51	68.5396	7,999.51	67.2984	7,999.51	72.4801	7,999.51	69.8369	7,999.51	70.3924	7,999.51	67.2394	7,999.51	62.8911	7,999.51	62.012	7,999.51	60.5712	7,999.51	62.6868	7,999.51	58.9606	7,999.51	58.8613	7,999.51	56.1233	7,999.51	66.2259	7,999.51	59.7253	7,999.51	63.797	7,999.51	59.661	7,999.51	56.9008
8,282.23	94.9164	8,282.23	94.8295	8,282.23	94.8787	8,282.23	94.753	8,282.23	94.9298	8,282.23	92.869	8,282.23	92.5379	8,282.23	86.5289	8,282.23	86.7551	8,282.23	80.9551	8,282.23	80.5596	8,282.23	80.1091	8,282.23	78.2616	8,282.23	78.0764	8,282.23	74.8467	8,282.23	77.7801	8,282.23	70.8375	8,282.23	72.8721	8,282.23	70.9031	8,282.23	68.2655	8,282.23	71.2413	8,282.23	71.0822	8,282.23	70.8962	8,282.23	68.0178	8,282.23	56.2914	8,282.23	62.8315	8,282.23	63.066	8,282.23	61.9979	8,282.23	62.2374	8,282.23	59.4556	8,282.23	59.7086	8,282.23	67.1948	8,282.23	61.8136	8,282.23	63.425	8,282.23	57.9628	8,282.23	59.4469
8,573.73	91.3978	8,573.73	93.3024	8,573.73	92.4485	8,573.73	95.4075	8,573.73	95.0953	8,573.73	93.6345	8,573.73	93.311	8,573.73	86.2515	8,573.73	86.6636	8,573.73	80.3476	8,573.73	82.1934	8,573.73	81.5625	8,573.73	77.3934	8,573.73	79.2052	8,573.73	78.9901	8,573.73	76.3011	8,573.73	74.5524	8,573.73	71.864	8,573.73	63.5831	8,573.73	66.7854	8,573.73	67.5955	8,573.73	68.8626	8,573.73	71.2014	8,573.73	68.6633	8,573.73	62.2072	8,573.73	64.8967	8,573.73	60.4349	8,573.73	61.4317	8,573.73	65.1786	8,573.73	57.2347	8,573.73	53.757	8,573.73	65.5678	8,573.73	58.9904	8,573.73	63.5714	8,573.73	58.3844	8,573.73	55.1224
8,876.95	87.7131	8,876.95	93.587	8,876.95	90.3733	8,876.95	96.1622	8,876.95	94.5945	8,876.95	93.6597	8,876.95	92.4203	8,876.95	87.1359	8,876.95	85.7373	8,876.95	82.7084	8,876.95	84.6424	8,876.95	81.0908	8,876.95	77.4035	8,876.95	77.6435	8,876.95	79.3891	8,876.95	75.4489	8,876.95	73.8866	8,876.95	70.8274	8,876.95	69.4442	8,876.95	69.7949	8,876.95	63.1805	8,876.95	64.3648	8,876.95	70.3646	8,876.95	62.1925	8,876.95	64.0175	8,876.95	64.2934	8,876.95	55.3638	8,876.95	59.592	8,876.95	61.2537	8,876.95	51.8741	8,876.95	54.6902	8,876.95	59.0108	8,876.95	54.0439	8,876.95	64.0686	8,876.95	56.4861	8,876.95	48.6322
9,188.96	91.2782	9,188.96	93.1369	9,188.96	93.3613	9,188.96	94.9424	9,188.96	92.8255	9,188.96	93.4747	9,188.96	91.59	9,188.96	87.1228	9,188.96	85.671	9,188.96	83.5369	9,188.96	86.2676	9,188.96	82.9786	9,188.96	78.9291	9,188.96	79.224	9,188.96	81.5826	9,188.96	74.0534	9,188.96	75.5648	9,188.96	70.8258	9,188.96	74.973	9,188.96	65.9456	9,188.96	70.0113	9,188.96	66.2192	9,188.96	70.4241	9,188.96	63.1149	9,188.96	62.5024	9,188.96	61.6137	9,188.96	58.3917	9,188.96	59.5496	9,188.96	54.9478	9,188.96	57.748	9,188.96	58.7545	9,188.96	63.5174	9,188.96	54.1435	9,188.96	60.4804	9,188.96	56.026	9,188.96	43.1945
9,514.16	94.6528	9,514.16	94.4824	9,514.16	95.2286	9,514.16	93.9861	9,514.16	93.8112	9,514.16	91.4341	9,514.16	89.9418	9,514.16	85.74	9,514.16	85.4651	9,514.16	85.1459	9,514.16	82.5614	9,514.16	84.6007	9,514.16	82.4305	9,514.16	80.0516	9,514.16	79.6311	9,514.16	73.1803	9,514.16	76.5117	9,514.16	70.2493	9,514.16	74.6953	9,514.16	67.1567	9,514.16	66.3277	9,514.16	60.8414	9,514.16	67.765	9,514.16	65.2981	9,514.16	62.8449	9,514.16	66.0196	9,514.16	56.0964	9,514.16	61.3882	9,514.16	56.2333	9,514.16	56.2824	9,514.16	55.2561	9,514.16	65.5459	9,514.16	52.3868	9,514.16	61.6792	9,514.16	51.3943	9,514.16	51.9609
9,849.61	95.6892	9,849.61	94.7015	9,849.61	95.6246	9,849.61	92.7416	9,849.61	93.7637	9,849.61	88.9682	9,849.61	86.6043	9,849.61	86.9185	9,849.61	86.2971	9,849.61	86.4107	9,849.61	78.5029	9,849.61	84.0016	9,849.61	83.8225	9,849.61	79.0597	9,849.61	76.5527	9,849.61	74.6055	9,849.61	71.5633	9,849.61	69.3418	9,849.61	72.3016	9,849.61	67.438	9,849.61	69.3687	9,849.61	67.0261	9,849.61	69.8582	9,849.61	63.63	9,849.61	61.4945	9,849.61	66.0143	9,849.61	56.9681	9,849.61	57.8733	9,849.61	53.8204	9,849.61	55.9163	9,849.61	61.4959	9,849.61	62.8751	9,849.61	52.9836	9,849.61	61.051	9,849.61	56.4688	9,849.61	48.2726
10,196.8	95.1885	10,196.8	94.4496	10,196.8	94.8254	10,196.8	92.5665	10,196.8	93.7058	10,196.8	88.5159	10,196.8	88.7241	10,196.8	86.9254	10,196.8	85.7168	10,196.8	85.4987	10,196.8	82.298	10,196.8	83.017	10,196.8	83.5071	10,196.8	77.9143	10,196.8	73.0191	10,196.8	73.0698	10,196.8	66.996	10,196.8	68.152	10,196.8	67.6445	10,196.8	52.6698	10,196.8	61.963	10,196.8	65.2987	10,196.8	61.6009	10,196.8	65.5582	10,196.8	57.2062	10,196.8	65.1415	10,196.8	52.3254	10,196.8	50.5765	10,196.8	58.3843	10,196.8	57.1951	10,196.8	59.9346	10,196.8	61.4898	10,196.8	48.1362	10,196.8	59.6492	10,196.8	58.4059	10,196.8	42.9926
10,555.7	94.648	10,555.7	94.5268	10,555.7	93.9677	10,555.7	92.7198	10,555.7	92.2908	10,555.7	89.0044	10,555.7	89.8905	10,555.7	87.2044	10,555.7	84.9091	10,555.7	84.6439	10,555.7	83.88	10,555.7	81.8217	10,555.7	80.2597	10,555.7	77.156	10,555.7	74.6085	10,555.7	71.3821	10,555.7	71.3563	10,555.7	69.0854	10,555.7	61.5011	10,555.7	66.5704	10,555.7	67.2648	10,555.7	65.397	10,555.7	50.4001	10,555.7	60.1778	10,555.7	53.5483	10,555.7	60.4347	10,555.7	49.0987	10,555.7	50.4548	10,555.7	54.6147	10,555.7	60.4612	10,555.7	60.7982	10,555.7	54.8878	10,555.7	54.8785	10,555.7	60.1872	10,555.7	59.1384	10,555.7	49.419
10,927.7	94.4068	10,927.7	94.0543	10,927.7	93.5402	10,927.7	92.1034	10,927.7	90.513	10,927.7	88.0507	10,927.7	89.9245	10,927.7	87.5013	10,927.7	84.3991	10,927.7	84.0475	10,927.7	86.7276	10,927.7	81.7891	10,927.7	75.3664	10,927.7	76.8587	10,927.7	79.2779	10,927.7	73.6478	10,927.7	72.4561	10,927.7	65.7446	10,927.7	67.3404	10,927.7	63.5456	10,927.7	69.3457	10,927.7	65.5206	10,927.7	65.503	10,927.7	63.565	10,927.7	59.919	10,927.7	60.5523	10,927.7	55.2528	10,927.7	51.1955	10,927.7	58.6721	10,927.7	57.7485	10,927.7	55.7653	10,927.7	61.4113	10,927.7	47.2206	10,927.7	62.2551	10,927.7	61.723	10,927.7	49.895
11,313	93.3069	11,313	93.615	11,313	93.015	11,313	90.5812	11,313	89.432	11,313	88.5963	11,313	89.269	11,313	87.2134	11,313	85.8616	11,313	83.7219	11,313	86.4084	11,313	81.9703	11,313	80.824	11,313	77.6943	11,313	78.5868	11,313	73.7265	11,313	74.8876	11,313	71.5055	11,313	70.3694	11,313	68.3762	11,313	72.5753	11,313	62.5689	11,313	67.3323	11,313	63.1445	11,313	60.692	11,313	61.6085	11,313	60.0699	11,313	53.7501	11,313	62.9885	11,313	53.3305	11,313	56.4651	11,313	62.1791	11,313	60.3204	11,313	61.7706	11,313	54.6322	11,313	49.5898
11,712.9	92.9002	11,712.9	92.52	11,712.9	91.3801	11,712.9	89.0444	11,712.9	88.1497	11,712.9	90.2653	11,712.9	88.9321	11,712.9	86.4353	11,712.9	86.5917	11,712.9	82.399	11,712.9	84.743	11,712.9	82.441	11,712.9	83.8065	11,712.9	78.3973	11,712.9	75.5987	11,712.9	75.145	11,712.9	74.2904	11,712.9	72.153	11,712.9	64.1582	11,712.9	66.4038	11,712.9	72.0768	11,712.9	64.9778	11,712.9	62.0093	11,712.9	66.9717	11,712.9	62.3467	11,712.9	63.7518	11,712.9	56.1807	11,712.9	55.1668	11,712.9	61.1716	11,712.9	52.9695	11,712.9	61.084	11,712.9	60.0614	11,712.9	56.2936	11,712.9	62.1745	11,712.9	63.8843	11,712.9	50.9343
12,126	94.6064	12,126	91.3481	12,126	91.4026	12,126	88.5044	12,126	89.5229	12,126	90.749	12,126	89.8666	12,126	85.8948	12,126	86.0111	12,126	82.5621	12,126	83.0927	12,126	83.6823	12,126	82.3175	12,126	79.2266	12,126	76.9521	12,126	73.1225	12,126	74.6557	12,126	64.6589	12,126	66.6817	12,126	55.9583	12,126	63.5373	12,126	64.0125	12,126	63.048	12,126	64.823	12,126	59.8334	12,126	62.9877	12,126	52.6716	12,126	55.1483	12,126	62.428	12,126	47.6374	12,126	61.2483	12,126	58.7152	12,126	51.6636	12,126	60.6479	12,126	58.691	12,126	35.2775
12,553.7	95.9131	12,553.7	92.6991	12,553.7	93.0372	12,553.7	89.8732	12,553.7	92.1246	12,553.7	90.3627	12,553.7	89.2811	12,553.7	86.319	12,553.7	87.889	12,553.7	82.7297	12,553.7	84.1479	12,553.7	82.8949	12,553.7	80.2888	12,553.7	76.1554	12,553.7	77.6738	12,553.7	68.8037	12,553.7	72.6533	12,553.7	62.7743	12,553.7	63.7216	12,553.7	61.3073	12,553.7	69.2027	12,553.7	64.5935	12,553.7	68.3508	12,553.7	61.3861	12,553.7	54.768	12,553.7	59.0197	12,553.7	42.2475	12,553.7	52.4088	12,553.7	57.6032	12,553.7	51.9685	12,553.7	57.173	12,553.7	59.157	12,553.7	47.784	12,553.7	57.1997	12,553.7	28.1834	12,553.7	50.2849
12,996.1	96.7385	12,996.1	92.9931	12,996.1	93.6887	12,996.1	90.9149	12,996.1	91.2436	12,996.1	89.9407	12,996.1	89.9452	12,996.1	86.7015	12,996.1	87.9857	12,996.1	84.0431	12,996.1	84.7348	12,996.1	81.0879	12,996.1	77.9088	12,996.1	70.6275	12,996.1	75.3793	12,996.1	65.6081	12,996.1	66.2975	12,996.1	66.1715	12,996.1	63.2675	12,996.1	63.2234	12,996.1	70.0428	12,996.1	63.315	12,996.1	68.5101	12,996.1	57.0079	12,996.1	55.8042	12,996.1	47.9638	12,996.1	46.4062	12,996.1	46.1653	12,996.1	35.553	12,996.1	52.1058	12,996.1	52.1708	12,996.1	52.2723	12,996.1	51.5127	12,996.1	53.3232	12,996.1	46.7196	12,996.1	50.1355
13,454.6	95.7481	13,454.6	91.8494	13,454.6	93.6667	13,454.6	91.9381	13,454.6	92.4423	13,454.6	90.2815	13,454.6	91.0831	13,454.6	86.9744	13,454.6	87.3508	13,454.6	84.0994	13,454.6	83.3719	13,454.6	78.369	13,454.6	75.2913	13,454.6	74.4635	13,454.6	74.5072	13,454.6	70.7648	13,454.6	68.1175	13,454.6	67.0104	13,454.6	61.1975	13,454.6	59.1403	13,454.6	70.3285	13,454.6	60.5842	13,454.6	69.8642	13,454.6	58.1885	13,454.6	57.6959	13,454.6	56.0815	13,454.6	55.5001	13,454.6	47.1257	13,454.6	52.5285	13,454.6	47.4663	13,454.6	54.0536	13,454.6	52.4699	13,454.6	53.1371	13,454.6	54.2839	13,454.6	51.19	13,454.6	29.2146
13,929.2	94.2548	13,929.2	91.7438	13,929.2	93.3686	13,929.2	92.589	13,929.2	92.702	13,929.2	90.3858	13,929.2	91.9354	13,929.2	87.2325	13,929.2	85.934	13,929.2	82.1215	13,929.2	82.8724	13,929.2	79.7265	13,929.2	77.5391	13,929.2	76.319	13,929.2	74.1235	13,929.2	69.714	13,929.2	73.1478	13,929.2	63.2196	13,929.2	67.5911	13,929.2	60.6752	13,929.2	71.7796	13,929.2	59.5413	13,929.2	71.7971	13,929.2	55.8203	13,929.2	60.3332	13,929.2	54.4762	13,929.2	58.6244	13,929.2	52.0249	13,929.2	51.3773	13,929.2	52.6239	13,929.2	48.0989	13,929.2	54.6437	13,929.2	55.4894	13,929.2	47.0418	13,929.2	51.4094	13,929.2	49.3919
14,419.9	91.5496	14,419.9	92.2271	14,419.9	91.9076	14,419.9	92.6097	14,419.9	92.4022	14,419.9	89.9672	14,419.9	91.89	14,419.9	87.2591	14,419.9	85.94	14,419.9	78.8596	14,419.9	83.0323	14,419.9	81.5892	14,419.9	80.2935	14,419.9	75.5089	14,419.9	74.7446	14,419.9	68.5725	14,419.9	73.4733	14,419.9	62.0253	14,419.9	57.4594	14,419.9	61.9777	14,419.9	72.6597	14,419.9	59.4705	14,419.9	72.1575	14,419.9	54.9285	14,419.9	58.926	14,419.9	54.9346	14,419.9	55.9209	14,419.9	54.317	14,419.9	49.6327	14,419.9	59.6545	14,419.9	46.2502	14,419.9	54.8238	14,419.9	49.3365	14,419.9	52.7614	14,419.9	50.6877	14,419.9	54.1432
14,928.2	90.1301	14,928.2	92.8874	14,928.2	91.5056	14,928.2	92.0033	14,928.2	91.3439	14,928.2	89.3034	14,928.2	89.8889	14,928.2	86.1992	14,928.2	85.5724	14,928.2	80.1642	14,928.2	79.6455	14,928.2	79.6932	14,928.2	79.2998	14,928.2	73.6693	14,928.2	72.304	14,928.2	67.1977	14,928.2	67.3132	14,928.2	59.9795	14,928.2	53.185	14,928.2	58.724	14,928.2	72.2434	14,928.2	57.8298	14,928.2	71.7334	14,928.2	54.3218	14,928.2	51.8139	14,928.2	50.9038	14,928.2	48.0231	14,928.2	56.448	14,928.2	49.1011	14,928.2	59.1194	14,928.2	44.442	14,928.2	57.7992	14,928.2	53.5046	14,928.2	56.5832	14,928.2	51.3667	14,928.2	56.1434
15,455.6	91.2145	15,455.6	93.2608	15,455.6	91.0792	15,455.6	90.6541	15,455.6	90.1461	15,455.6	89.735	15,455.6	87.2111	15,455.6	84.5886	15,455.6	81.6489	15,455.6	80.5145	15,455.6	80.5925	15,455.6	78.1994	15,455.6	76.7975	15,455.6	71.6709	15,455.6	70.7571	15,455.6	61.3128	15,455.6	60.394	15,455.6	56.7023	15,455.6	57.4625	15,455.6	53.6069	15,455.6	71.8607	15,455.6	50.0453	15,455.6	71.3641	15,455.6	40.3619	15,455.6	59.203	15,455.6	47.7157	15,455.6	53.3298	15,455.6	53.471	15,455.6	40.6543	15,455.6	57.522	15,455.6	44.5419	15,455.6	55.6137	15,455.6	49.6825	15,455.6	49.6691	15,455.6	43.0053	15,455.6	52.2821
16,000.5	89.7142	16,000.5	91.5353	16,000.5	92.1627	16,000.5	89.8899	16,000.5	89.2148	16,000.5	89.6418	16,000.5	87.9965	16,000.5	84.6324	16,000.5	83.6444	16,000.5	79.51	16,000.5	82.7932	16,000.5	77.9124	16,000.5	74.2172	16,000.5	69.8782	16,000.5	63.9119	16,000.5	63.9509	16,000.5	64.2631	16,000.5	64.799	16,000.5	60.5158	16,000.5	59.135	16,000.5	71.4661	16,000.5	53.3148	16,000.5	71.3666	16,000.5	32.7843	16,000.5	61.3024	16,000.5	49.6726	16,000.5	54.7757	16,000.5	51.7636	16,000.5	43.3728	16,000.5	59.4946	16,000.5	44.9237	16,000.5	58.4269	16,000.5	46.0594	16,000.5	54.29	16,000.5	53.5918	16,000.5	51.103
16,564.5	89.8893	16,564.5	92.6107	16,564.5	91.8943	16,564.5	90.6478	16,564.5	90.7827	16,564.5	88.8615	16,564.5	88.309	16,564.5	85.5877	16,564.5	85.1772	16,564.5	79.4101	16,564.5	81.248	16,564.5	73.7607	16,564.5	76.5223	16,564.5	72.0821	16,564.5	72.1226	16,564.5	66.3991	16,564.5	70.8908	16,564.5	64.7055	16,564.5	60.8489	16,564.5	59.2652	16,564.5	73.1379	16,564.5	56.0571	16,564.5	74.0341	16,564.5	39.9287	16,564.5	62.3803	16,564.5	40.4827	16,564.5	55.8733	16,564.5	45.5811	16,564.5	41.0489	16,564.5	56.8838	16,564.5	38.6988	16,564.5	56.5038	16,564.5	52.1601	16,564.5	52.8637	16,564.5	54.4807	16,564.5	54.1322
17,148.9	91.4765	17,148.9	92.3995	17,148.9	91.5566	17,148.9	90.6314	17,148.9	89.6245	17,148.9	88.0036	17,148.9	88.7025	17,148.9	84.8921	17,148.9	84.9371	17,148.9	78.8439	17,148.9	78.8369	17,148.9	76.4023	17,148.9	77.2987	17,148.9	72.9901	17,148.9	73.3443	17,148.9	61.406	17,148.9	65.9182	17,148.9	61.1608	17,148.9	58.8239	17,148.9	52.7707	17,148.9	74.0659	17,148.9	54.4072	17,148.9	75.1744	17,148.9	47.8372	17,148.9	62.1286	17,148.9	47.283	17,148.9	47.0716	17,148.9	44.3605	17,148.9	46.3002	17,148.9	51.6203	17,148.9	44.1938	17,148.9	50.8437	17,148.9	55.2428	17,148.9	51.0102	17,148.9	57.1166	17,148.9	51.8876
17,752.4	92.5875	17,752.4	91.1814	17,752.4	91.2197	17,752.4	90.5595	17,752.4	89.7701	17,752.4	87.8196	17,752.4	89.5669	17,752.4	84.3824	17,752.4	83.2835	17,752.4	79.1071	17,752.4	78.7755	17,752.4	76.7081	17,752.4	77.7877	17,752.4	68.0447	17,752.4	70.5214	17,752.4	59.091	17,752.4	65.342	17,752.4	61.2537	17,752.4	55.5651	17,752.4	41.3324	17,752.4	74.0817	17,752.4	54.7766	17,752.4	74.3777	17,752.4	48.2004	17,752.4	61.6631	17,752.4	38.7023	17,752.4	48.8223	17,752.4	36.3791	17,752.4	42.1627	17,752.4	58.4941	17,752.4	46.0712	17,752.4	56.169	17,752.4	51.9688	17,752.4	50.8435	17,752.4	56.4009	17,752.4	53.4987
18,379.4	93.1406	18,379.4	90.7985	18,379.4	90.7814	18,379.4	91.5219	18,379.4	89.67	18,379.4	88.5016	18,379.4	88.6746	18,379.4	85.2154	18,379.4	84.8388	18,379.4	81.2326	18,379.4	79.616	18,379.4	76.5805	18,379.4	76.0827	18,379.4	70.4296	18,379.4	71.3277	18,379.4	63.2513	18,379.4	57.5563	18,379.4	61.7367	18,379.4	55.9281	18,379.4	51.9261	18,379.4	73.2771	18,379.4	54.95	18,379.4	74.657	18,379.4	51.0978	18,379.4	61.9969	18,379.4	50.9071	18,379.4	51.4186	18,379.4	47.2796	18,379.4	31.6439	18,379.4	57.637	18,379.4	47.1501	18,379.4	51.8614	18,379.4	52.0361	18,379.4	43.6894	18,379.4	54.0076	18,379.4	52.114
19,026.9	92.8175	19,026.9	90.9718	19,026.9	90.9083	19,026.9	91.4517	19,026.9	90.5943	19,026.9	89.1344	19,026.9	87.7666	19,026.9	85.7761	19,026.9	84.3044	19,026.9	81.7583	19,026.9	81.1725	19,026.9	77.0533	19,026.9	72.8334	19,026.9	70.8405	19,026.9	65.3515	19,026.9	64.6583	19,026.9	54.8576	19,026.9	62.6749	19,026.9	53.1528	19,026.9	54.7876	19,026.9	72.9011	19,026.9	55.4398	19,026.9	74.8954	19,026.9	53.4536	19,026.9	62.079	19,026.9	53.5989	19,026.9	52.7433	19,026.9	51.0885	19,026.9	47.183	19,026.9	56.5977	19,026.9	49.8502	19,026.9	47.864	19,026.9	54.1756	19,026.9	51.2794	19,026.9	51.2765	19,026.9	51.4474
19,697.8	91.4349	19,697.8	91.4047	19,697.8	91.2008	19,697.8	91.1524	19,697.8	91.7475	19,697.8	89.1899	19,697.8	88.4677	19,697.8	86.1917	19,697.8	83.0342	19,697.8	80.8541	19,697.8	80.6671	19,697.8	77.3346	19,697.8	68.0775	19,697.8	71.5714	19,697.8	60.6289	19,697.8	64.5393	19,697.8	59.6592	19,697.8	62.0571	19,697.8	58.1821	19,697.8	54.512	19,697.8	73.5084	19,697.8	48.4078	19,697.8	74.6637	19,697.8	49.2644	19,697.8	62.2402	19,697.8	51.8719	19,697.8	52.5512	19,697.8	51.0819	19,697.8	46.2127	19,697.8	43.6195	19,697.8	49.8898	19,697.8	44.3951	19,697.8	50.0982	19,697.8	48.6891	19,697.8	44.4677	19,697.8	43.8181
19,999.5	90.3497	19,999.5	91.3072	19,999.5	91.1789	19,999.5	90.7059	19,999.5	90.9934	19,999.5	88.97	19,999.5	88.7405	19,999.5	86.5718	19,999.5	82.8281	19,999.5	78.7681	19,999.5	79.3262	19,999.5	77.0612	19,999.5	66.5265	19,999.5	70.5425	19,999.5	63.0261	19,999.5	61.1831	19,999.5	60.1235	19,999.5	63.2377	19,999.5	48.5847	19,999.5	53.3733	19,999.5	75.1516	19,999.5	62.6835	19,999.5	75.1904	19,999.5	52.8129	19,999.5	63.8368	19,999.5	58.2189	19,999.5	57.1395	19,999.5	52.9294	19,999.5	59.9532	19,999.5	62.3126	19,999.5	53.4313	19,999.5	65.0374	19,999.5	56.3894	19,999.5	56.0444	19,999.5	56.2589	19,999.5	47.8003
