"SPL Horizontal"
"On-Axis"		"10°"		"-10°"		"20°"		"-20°"		"30°"		"-30°"		"40°"		"-40°"		"50°"		"-50°"		"60°"		"-60°"		"70°"		"-70°"		"80°"		"-80°"		"90°"		"-90°"		"100°"		"-100°"		"110°"		"-110°"		"120°"		"-120°"		"130°"		"-130°"		"140°"		"-140°"		"150°"		"-150°"		"160°"		"-160°"		"170°"		"-170°"		"180°"
"Frequency [Hz]"	"Sound Pessure Level [dB]  / [2.83V 1m] "	"Frequency [Hz]"	"Sound Pessure Level [dB]  / [2.83V 1m] "	"Frequency [Hz]"	"Sound Pessure Level [dB]  / [2.83V 1m] "	"Frequency [Hz]"	"Sound Pessure Level [dB]  / [2.83V 1m] "	"Frequency [Hz]"	"Sound Pessure Level [dB]  / [2.83V 1m] "	"Frequency [Hz]"	"Sound Pessure Level [dB]  / [2.83V 1m] "	"Frequency [Hz]"	"Sound Pessure Level [dB]  / [2.83V 1m] "	"Frequency [Hz]"	"Sound Pessure Level [dB]  / [2.83V 1m] "	"Frequency [Hz]"	"Sound Pessure Level [dB]  / [2.83V 1m] "	"Frequency [Hz]"	"Sound Pessure Level [dB]  / [2.83V 1m] "	"Frequency [Hz]"	"Sound Pessure Level [dB]  / [2.83V 1m] "	"Frequency [Hz]"	"Sound Pessure Level [dB]  / [2.83V 1m] "	"Frequency [Hz]"	"Sound Pessure Level [dB]  / [2.83V 1m] "	"Frequency [Hz]"	"Sound Pessure Level [dB]  / [2.83V 1m] "	"Frequency [Hz]"	"Sound Pessure Level [dB]  / [2.83V 1m] "	"Frequency [Hz]"	"Sound Pessure Level [dB]  / [2.83V 1m] "	"Frequency [Hz]"	"Sound Pessure Level [dB]  / [2.83V 1m] "	"Frequency [Hz]"	"Sound Pessure Level [dB]  / [2.83V 1m] "	"Frequency [Hz]"	"Sound Pessure Level [dB]  / [2.83V 1m] "	"Frequency [Hz]"	"Sound Pessure Level [dB]  / [2.83V 1m] "	"Frequency [Hz]"	"Sound Pessure Level [dB]  / [2.83V 1m] "	"Frequency [Hz]"	"Sound Pessure Level [dB]  / [2.83V 1m] "	"Frequency [Hz]"	"Sound Pessure Level [dB]  / [2.83V 1m] "	"Frequency [Hz]"	"Sound Pessure Level [dB]  / [2.83V 1m] "	"Frequency [Hz]"	"Sound Pessure Level [dB]  / [2.83V 1m] "	"Frequency [Hz]"	"Sound Pessure Level [dB]  / [2.83V 1m] "	"Frequency [Hz]"	"Sound Pessure Level [dB]  / [2.83V 1m] "	"Frequency [Hz]"	"Sound Pessure Level [dB]  / [2.83V 1m] "	"Frequency [Hz]"	"Sound Pessure Level [dB]  / [2.83V 1m] "	"Frequency [Hz]"	"Sound Pessure Level [dB]  / [2.83V 1m] "	"Frequency [Hz]"	"Sound Pessure Level [dB]  / [2.83V 1m] "	"Frequency [Hz]"	"Sound Pessure Level [dB]  / [2.83V 1m] "	"Frequency [Hz]"	"Sound Pessure Level [dB]  / [2.83V 1m] "	"Frequency [Hz]"	"Sound Pessure Level [dB]  / [2.83V 1m] "	"Frequency [Hz]"	"Sound Pessure Level [dB]  / [2.83V 1m] "	"Frequency [Hz]"	"Sound Pessure Level [dB]  / [2.83V 1m] "
20.5078	60.2639	20.5078	60.3624	20.5078	60.2554	20.5078	60.5574	20.5078	60.3358	20.5078	60.8581	20.5078	60.5101	20.5078	61.272	20.5078	60.7867	20.5078	61.7996	20.5078	61.1731	20.5078	62.4319	20.5078	61.6719	20.5078	63.1511	20.5078	62.2773	20.5078	63.9324	20.5078	62.9745	20.5078	64.7483	20.5078	63.7413	20.5078	65.5703	20.5078	64.5512	20.5078	66.3707	20.5078	65.3757	20.5078	67.1222	20.5078	66.1861	20.5078	67.7981	20.5078	66.954	20.5078	68.3729	20.5078	67.652	20.5078	68.823	20.5078	68.2535	20.5078	69.1286	20.5078	68.7343	20.5078	69.2757	20.5078	69.074	20.5078	69.2572
21.9727	64.5372	21.9727	64.5651	21.9727	64.5628	21.9727	64.6549	21.9727	64.6387	21.9727	64.8192	21.9727	64.7676	21.9727	65.0709	21.9727	64.9571	21.9727	65.42	21.9727	65.2175	21.9727	65.8693	21.9727	65.5583	21.9727	66.4122	21.9727	65.9848	21.9727	67.0326	21.9727	66.4947	21.9727	67.7068	21.9727	67.0765	21.9727	68.4064	21.9727	67.7109	21.9727	69.1013	21.9727	68.373	21.9727	69.7614	21.9727	69.0362	21.9727	70.3583	21.9727	69.6735	21.9727	70.8661	21.9727	70.2593	21.9727	71.2624	21.9727	70.7693	21.9727	71.5296	21.9727	71.1813	21.9727	71.656	21.9727	71.4757	21.9727	71.6371
23.4375	67.3027	23.4375	67.3626	23.4375	67.2843	23.4375	67.4707	23.4375	67.3067	23.4375	67.638	23.4375	67.3753	23.4375	67.8774	23.4375	67.5006	23.4375	68.2	23.4375	67.6965	23.4375	68.6112	23.4375	67.9758	23.4375	69.1076	23.4375	68.3471	23.4375	69.6759	23.4375	68.8101	23.4375	70.2951	23.4375	69.3548	23.4375	70.9387	23.4375	69.9619	23.4375	71.5784	23.4375	70.6062	23.4375	72.1861	23.4375	71.2594	23.4375	72.7351	23.4375	71.8928	23.4375	73.2012	23.4375	72.4787	23.4375	73.5629	23.4375	72.9913	23.4375	73.8032	23.4375	73.4073	23.4375	73.9101	23.4375	73.7076	23.4375	73.8778
24.9023	70.3118	24.9023	70.3534	24.9023	70.3115	24.9023	70.4417	24.9023	70.3515	24.9023	70.5855	24.9023	70.4353	24.9023	70.795	24.9023	70.57	24.9023	71.0794	24.9023	70.7651	24.9023	71.4432	24.9023	71.0298	24.9023	71.8844	24.9023	71.3702	24.9023	72.3931	24.9023	71.7866	24.9023	72.952	24.9023	72.2719	24.9023	73.5386	24.9023	72.8115	24.9023	74.1274	24.9023	73.3851	24.9023	74.6919	24.9023	73.9686	24.9023	75.2063	24.9023	74.5364	24.9023	75.6465	24.9023	75.0631	24.9023	75.9915	24.9023	75.5243	24.9023	76.2244	24.9023	75.8981	24.9023	76.3335	24.9023	76.1657	24.9023	76.3135
26.3672	73.573	26.3672	73.6189	26.3672	73.556	26.3672	73.6975	26.3672	73.5678	26.3672	73.8153	26.3672	73.6113	26.3672	73.9806	26.3672	73.6928	26.3672	74.2016	26.3672	73.8208	26.3672	74.4843	26.3672	74.0044	26.3672	74.8301	26.3672	74.2513	26.3672	75.2347	26.3672	74.5654	26.3672	75.687	26.3672	74.9451	26.3672	76.1702	26.3672	75.3818	26.3672	76.6633	26.3672	75.8608	26.3672	77.1426	26.3672	76.362	26.3672	77.584	26.3672	76.8621	26.3672	77.9639	26.3672	77.3362	26.3672	78.2613	26.3672	77.7595	26.3672	78.4589	26.3672	78.1089	26.3672	78.5446	26.3672	78.3648	26.3672	78.5128
27.832	75.9833	27.832	76.022	27.832	75.982	27.832	76.1007	27.832	76.0177	27.832	76.2241	27.832	76.0929	27.832	76.3975	27.832	76.2117	27.832	76.6264	27.832	76.3796	27.832	76.9137	27.832	76.602	27.832	77.2593	27.832	76.8827	27.832	77.658	27.832	77.2218	27.832	78.0999	27.832	77.615	27.832	78.5701	27.832	78.0527	27.832	79.0501	27.832	78.5204	27.832	79.5185	27.832	78.9995	27.832	79.9529	27.832	79.4692	27.832	80.3312	27.832	79.9073	27.832	80.6331	27.832	80.2919	27.832	80.842	27.832	80.6028	27.832	80.9461	27.832	80.8228	27.832	80.9395
29.2969	78.3245	29.2969	78.3574	29.2969	78.3244	29.2969	78.4253	29.2969	78.3569	29.2969	78.5316	29.2969	78.4233	29.2969	78.6803	29.2969	78.5265	29.2969	78.8758	29.2969	78.6702	29.2969	79.1209	29.2969	78.8583	29.2969	79.4161	29.2969	79.0937	29.2969	79.7582	29.2969	79.3772	29.2969	80.1398	29.2969	79.7064	29.2969	80.5489	29.2969	80.0749	29.2969	80.9695	29.2969	80.4721	29.2969	81.3824	29.2969	80.8836	29.2969	81.7666	29.2969	81.2922	29.2969	82.1013	29.2969	81.6783	29.2969	82.3672	29.2969	82.0221	29.2969	82.5487	29.2969	82.3043	29.2969	82.6349	29.2969	82.5082	29.2969	82.6209
30.7617	80.3482	30.7617	80.3825	30.7617	80.3444	30.7617	80.4488	30.7617	80.371	30.7617	80.5493	30.7617	80.4287	30.7617	80.6867	30.7617	80.5196	30.7617	80.8639	30.7617	80.6465	30.7617	81.0826	30.7617	80.8121	30.7617	81.3432	30.7617	81.0189	30.7617	81.6433	30.7617	81.2676	30.7617	81.9776	30.7617	81.5565	30.7617	82.3366	30.7617	81.8806	30.7617	82.7072	30.7617	82.2316	30.7617	83.073	30.7617	82.5973	30.7617	83.4153	30.7617	82.9628	30.7617	83.7148	30.7617	83.3109	30.7617	83.9533	30.7617	83.6231	30.7617	84.1156	30.7617	83.8814	30.7617	84.1913	30.7617	84.0698	30.7617	84.1755
32.2266	81.8341	32.2266	81.8646	32.2266	81.8322	32.2266	81.9248	32.2266	81.8587	32.2266	82.0164	32.2266	81.9142	32.2266	82.1415	32.2266	82.0003	32.2266	82.3023	32.2266	82.1187	32.2266	82.5003	32.2266	82.2716	32.2266	82.7355	32.2266	82.4605	32.2266	83.0061	32.2266	82.6858	32.2266	83.3072	32.2266	82.946	32.2266	83.6305	32.2266	83.2371	32.2266	83.9647	32.2266	83.5523	32.2266	84.2953	32.2266	83.8814	32.2266	84.606	32.2266	84.2115	32.2266	84.8793	32.2266	84.5269	32.2266	85.0986	32.2266	84.8106	32.2266	85.2496	32.2266	85.0454	32.2266	85.3219	32.2266	85.216	32.2266	85.3104
33.6914	82.961	33.6914	82.9935	33.6914	82.9554	33.6914	83.0536	33.6914	82.9764	33.6914	83.1425	33.6914	83.0245	33.6914	83.2618	33.6914	83.1006	33.6914	83.4129	33.6914	83.2063	33.6914	83.5968	33.6914	83.3429	33.6914	83.8133	33.6914	83.5117	33.6914	84.0605	33.6914	83.7131	33.6914	84.334	33.6914	83.9463	33.6914	84.6269	33.6914	84.2082	33.6914	84.9293	33.6914	84.4932	33.6914	85.2284	33.6914	84.793	33.6914	85.5096	33.6914	85.0959	33.6914	85.7568	33.6914	85.3879	33.6914	85.9544	33.6914	85.653	33.6914	86.0886	33.6914	85.8749	33.6914	86.1495	33.6914	86.0386	33.6914	86.1325
35.1562	84.053	35.1562	84.0826	35.1562	84.049	35.1562	84.138	35.1562	84.0704	35.1562	84.2199	35.1562	84.1176	35.1562	84.3292	35.1562	84.191	35.1562	84.4665	35.1562	84.2915	35.1562	84.6322	35.1562	84.4199	35.1562	84.8259	35.1562	84.5765	35.1562	85.0459	35.1562	84.7612	35.1562	85.2887	35.1562	84.9726	35.1562	85.5488	35.1562	85.2078	35.1562	85.8177	35.1562	85.462	35.1562	86.0846	35.1562	85.7277	35.1562	86.3364	35.1562	85.9954	35.1562	86.5588	35.1562	86.2528	35.1562	86.7376	35.1562	86.4862	35.1562	86.8604	35.1562	86.6812	35.1562	86.9178	35.1562	86.8245	35.1562	86.9055
36.6211	84.8055	36.6211	84.8317	36.6211	84.803	36.6211	84.8819	36.6211	84.8242	36.6211	84.9565	36.6211	84.8691	36.6211	85.0558	36.6211	84.9378	36.6211	85.1802	36.6211	85.0305	36.6211	85.3298	36.6211	85.1477	36.6211	85.5039	36.6211	85.2892	36.6211	85.7011	36.6211	85.4547	36.6211	85.9185	36.6211	85.643	36.6211	86.1513	36.6211	85.8517	36.6211	86.3924	36.6211	86.077	36.6211	86.6322	36.6211	86.3128	36.6211	86.8592	36.6211	86.5511	36.6211	87.0602	36.6211	86.7815	36.6211	87.2221	36.6211	86.9915	36.6211	87.3331	36.6211	87.1681	36.6211	87.3847	36.6211	87.2986	36.6211	87.3728
38.0859	85.3582	38.0859	85.3839	38.0859	85.3547	38.0859	85.432	38.0859	85.3733	38.0859	85.5024	38.0859	85.4139	38.0859	85.5952	38.0859	85.4764	38.0859	85.7103	38.0859	85.5608	38.0859	85.8473	38.0859	85.667	38.0859	86.0057	38.0859	85.795	38.0859	86.184	38.0859	85.9443	38.0859	86.3799	38.0859	86.1137	38.0859	86.5893	38.0859	86.3013	38.0859	86.8059	38.0859	86.5037	38.0859	87.0215	38.0859	86.716	38.0859	87.2256	38.0859	86.9309	38.0859	87.4062	38.0859	87.1393	38.0859	87.5512	38.0859	87.3302	38.0859	87.6501	38.0859	87.4916	38.0859	87.6947	38.0859	87.6119	38.0859	87.6816
39.5508	85.6817	39.5508	85.7072	39.5508	85.677	39.5508	85.7533	39.5508	85.693	39.5508	85.8201	39.5508	85.7294	39.5508	85.907	39.5508	85.7859	39.5508	86.0137	39.5508	85.8623	39.5508	86.1394	39.5508	85.9582	39.5508	86.2834	39.5508	86.0733	39.5508	86.4444	39.5508	86.2071	39.5508	86.6201	39.5508	86.3585	39.5508	86.807	39.5508	86.5257	39.5508	86.9997	39.5508	86.7059	39.5508	87.191	39.5508	86.895	39.5508	87.3715	39.5508	87.0867	39.5508	87.5309	39.5508	87.2734	39.5508	87.6584	39.5508	87.4452	39.5508	87.7442	39.5508	87.5914	39.5508	87.7814	39.5508	87.7016	39.5508	87.7668
41.0156	85.8994	41.0156	85.9236	41.0156	85.8948	41.0156	85.9672	41.0156	85.9097	41.0156	86.03	41.0156	85.9439	41.0156	86.1114	41.0156	85.9969	41.0156	86.2111	41.0156	86.0684	41.0156	86.3281	41.0156	86.1576	41.0156	86.4616	41.0156	86.2638	41.0156	86.61	41.0156	86.3861	41.0156	86.7708	41.0156	86.5232	41.0156	86.9404	41.0156	86.6736	41.0156	87.1137	41.0156	86.8351	41.0156	87.2842	41.0156	87.0044	41.0156	87.4441	41.0156	87.1766	41.0156	87.5846	41.0156	87.3447	41.0156	87.6969	41.0156	87.4999	41.0156	87.7724	41.0156	87.6324	41.0156	87.805	41.0156	87.7323	41.0156	87.7914
42.4805	86.1319	42.4805	86.1566	42.4805	86.1254	42.4805	86.1991	42.4805	86.1371	42.4805	86.2591	42.4805	86.1671	42.4805	86.3356	42.4805	86.2147	42.4805	86.4279	42.4805	86.2796	42.4805	86.5346	42.4805	86.3608	42.4805	86.6544	42.4805	86.4575	42.4805	86.7853	42.4805	86.5687	42.4805	86.925	42.4805	86.6931	42.4805	87.0705	42.4805	86.8293	42.4805	87.218	42.4805	86.9748	42.4805	87.3627	42.4805	87.1265	42.4805	87.4987	42.4805	87.2796	42.4805	87.6194	42.4805	87.4277	42.4805	87.7171	42.4805	87.5629	42.4805	87.7848	42.4805	87.6766	42.4805	87.8163	42.4805	87.7606	42.4805	87.8083
43.9453	86.3225	43.9453	86.3459	43.9453	86.3162	43.9453	86.3859	43.9453	86.3271	43.9453	86.4418	43.9453	86.3551	43.9453	86.513	43.9453	86.3999	43.9453	86.5983	43.9453	86.4607	43.9453	86.6963	43.9453	86.5367	43.9453	86.8055	43.9453	86.6266	43.9453	86.9238	43.9453	86.7292	43.9453	87.0487	43.9453	86.8431	43.9453	87.1773	43.9453	86.9667	43.9453	87.3062	43.9453	87.0977	43.9453	87.4315	43.9453	87.233	43.9453	87.5486	43.9453	87.3683	43.9453	87.6522	43.9453	87.4979	43.9453	87.7365	43.9453	87.6149	43.9453	87.7958	43.9453	87.7118	43.9453	87.8249	43.9453	87.782	43.9453	87.8205
45.4102	86.5305	45.4102	86.5549	45.4102	86.5226	45.4102	86.595	45.4102	86.5312	45.4102	86.6503	45.4102	86.5563	45.4102	86.7195	45.4102	86.5973	45.4102	86.8015	45.4102	86.6535	45.4102	86.8945	45.4102	86.7238	45.4102	86.9967	45.4102	86.8069	45.4102	87.1059	45.4102	86.9014	45.4102	87.2198	45.4102	87.0057	45.4102	87.3357	45.4102	87.1183	45.4102	87.4506	45.4102	87.2368	45.4102	87.5611	45.4102	87.3585	45.4102	87.6633	45.4102	87.4796	45.4102	87.7526	45.4102	87.5952	45.4102	87.8243	45.4102	87.6997	45.4102	87.8733	45.4102	87.7869	45.4102	87.8954	45.4102	87.8512	45.4102	87.8881
46.875	86.6275	46.875	86.6498	46.875	86.6214	46.875	86.6874	46.875	86.6314	46.875	86.7396	46.875	86.6573	46.875	86.805	46.875	86.6986	46.875	86.8821	46.875	86.754	46.875	86.969	46.875	86.8224	46.875	87.0638	46.875	86.9021	46.875	87.1644	46.875	86.9914	46.875	87.2686	46.875	87.0885	46.875	87.3741	46.875	87.1916	46.875	87.4782	46.875	87.2986	46.875	87.5781	46.875	87.4069	46.875	87.6703	46.875	87.5135	46.875	87.7507	46.875	87.6146	46.875	87.8149	46.875	87.7057	46.875	87.8584	46.875	87.7819	46.875	87.8778	46.875	87.8383	46.875	87.871
48.3398	86.7402	48.3398	86.7593	48.3398	86.7355	48.3398	86.792	48.3398	86.7452	48.3398	86.8374	48.3398	86.7691	48.3398	86.8943	48.3398	86.8064	48.3398	86.9608	48.3398	86.8561	48.3398	87.0354	48.3398	86.9168	48.3398	87.116	48.3398	86.9868	48.3398	87.2007	48.3398	87.0643	48.3398	87.2876	48.3398	87.1476	48.3398	87.3746	48.3398	87.2346	48.3398	87.4597	48.3398	87.3234	48.3398	87.5407	48.3398	87.4117	48.3398	87.6148	48.3398	87.4972	48.3398	87.6791	48.3398	87.5772	48.3398	87.7302	48.3398	87.6484	48.3398	87.7649	48.3398	87.7074	48.3398	87.7806	48.3398	87.7509	48.3398	87.7758
51.2695	86.8795	51.2695	86.8962	51.2695	86.8748	51.2695	86.9243	51.2695	86.8821	51.2695	86.9629	51.2695	86.9012	51.2695	87.0107	51.2695	86.9312	51.2695	87.0659	51.2695	86.9711	51.2695	87.1268	51.2695	87.0194	51.2695	87.1915	51.2695	87.0747	51.2695	87.258	51.2695	87.135	51.2695	87.3245	51.2695	87.1987	51.2695	87.3894	51.2695	87.2641	51.2695	87.4509	51.2695	87.3296	51.2695	87.5075	51.2695	87.3938	51.2695	87.5575	51.2695	87.455	51.2695	87.5994	51.2695	87.5116	51.2695	87.6313	51.2695	87.5618	51.2695	87.6518	51.2695	87.6035	51.2695	87.6594	51.2695	87.6347	51.2695	87.6537
52.7344	86.9482	52.7344	86.963	52.7344	86.9446	52.7344	86.9886	52.7344	86.9524	52.7344	87.024	52.7344	86.9711	52.7344	87.068	52.7344	86.9999	52.7344	87.1188	52.7344	87.0377	52.7344	87.1744	52.7344	87.083	52.7344	87.233	52.7344	87.1341	52.7344	87.2924	52.7344	87.1892	52.7344	87.3509	52.7344	87.2465	52.7344	87.4067	52.7344	87.3042	52.7344	87.4583	52.7344	87.3608	52.7344	87.5045	52.7344	87.4149	52.7344	87.5442	52.7344	87.4652	52.7344	87.5764	52.7344	87.5104	52.7344	87.6005	52.7344	87.5495	52.7344	87.6158	52.7344	87.581	52.7344	87.6217	52.7344	87.6041	52.7344	87.6178
54.1992	87.0506	54.1992	87.0652	54.1992	87.046	54.1992	87.0891	54.1992	87.0514	54.1992	87.1213	54.1992	87.0665	54.1992	87.1604	54.1992	87.0906	54.1992	87.2047	54.1992	87.1226	54.1992	87.2523	54.1992	87.1609	54.1992	87.3012	54.1992	87.2039	54.1992	87.3494	54.1992	87.2496	54.1992	87.3951	54.1992	87.2962	54.1992	87.4368	54.1992	87.3421	54.1992	87.4736	54.1992	87.3858	54.1992	87.5046	54.1992	87.4261	54.1992	87.5297	54.1992	87.4623	54.1992	87.5488	54.1992	87.4939	54.1992	87.562	54.1992	87.5204	54.1992	87.5694	54.1992	87.5416	54.1992	87.5711	54.1992	87.5572	54.1992	87.5671
55.6641	87.0374	55.6641	87.0515	55.6641	87.0328	55.6641	87.0745	55.6641	87.038	55.6641	87.1054	55.6641	87.0526	55.6641	87.1426	55.6641	87.0758	55.6641	87.1843	55.6641	87.1063	55.6641	87.2286	55.6641	87.1426	55.6641	87.2734	55.6641	87.1828	55.6641	87.3165	55.6641	87.2248	55.6641	87.3562	55.6641	87.2665	55.6641	87.3912	55.6641	87.3064	55.6641	87.4205	55.6641	87.3428	55.6641	87.4437	55.6641	87.375	55.6641	87.4611	55.6641	87.4026	55.6641	87.4729	55.6641	87.4256	55.6641	87.48	55.6641	87.4443	55.6641	87.4829	55.6641	87.4591	55.6641	87.4821	55.6641	87.4702	55.6641	87.4779
58.5938	87.1733	58.5938	87.1852	58.5938	87.17	58.5938	87.2051	58.5938	87.1753	58.5938	87.2319	58.5938	87.1888	58.5938	87.2643	58.5938	87.2096	58.5938	87.3003	58.5938	87.2364	58.5938	87.3377	58.5938	87.2676	58.5938	87.3743	58.5938	87.3013	58.5938	87.4079	58.5938	87.3354	58.5938	87.4367	58.5938	87.3679	58.5938	87.4593	58.5938	87.397	58.5938	87.475	58.5938	87.4212	58.5938	87.4838	58.5938	87.4397	58.5938	87.4865	58.5938	87.4522	58.5938	87.4847	58.5938	87.4595	58.5938	87.48	58.5938	87.4628	58.5938	87.4744	58.5938	87.4638	58.5938	87.4694	58.5938	87.4644	58.5938	87.4661
60.0586	87.2482	60.0586	87.2564	60.0586	87.2474	60.0586	87.2715	60.0586	87.2539	60.0586	87.2925	60.0586	87.2673	60.0586	87.3182	60.0586	87.2869	60.0586	87.3469	60.0586	87.3113	60.0586	87.3768	60.0586	87.339	60.0586	87.4055	60.0586	87.3681	60.0586	87.4312	60.0586	87.3965	60.0586	87.4519	60.0586	87.4219	60.0586	87.4664	60.0586	87.4426	60.0586	87.4741	60.0586	87.457	60.0586	87.475	60.0586	87.4646	60.0586	87.4704	60.0586	87.4656	60.0586	87.462	60.0586	87.4612	60.0586	87.452	60.0586	87.4535	60.0586	87.443	60.0586	87.4451	60.0586	87.4371	60.0586	87.4384	60.0586	87.4354
62.9883	87.3601	62.9883	87.3649	62.9883	87.3609	62.9883	87.3751	62.9883	87.3674	62.9883	87.3897	62.9883	87.3792	62.9883	87.4075	62.9883	87.3957	62.9883	87.427	62.9883	87.4155	62.9883	87.4464	62.9883	87.4374	62.9883	87.4637	62.9883	87.4593	62.9883	87.4772	62.9883	87.4795	62.9883	87.4851	62.9883	87.4959	62.9883	87.4866	62.9883	87.5067	62.9883	87.4813	62.9883	87.5106	62.9883	87.4702	62.9883	87.507	62.9883	87.4549	62.9883	87.4963	62.9883	87.4381	62.9883	87.4798	62.9883	87.4228	62.9883	87.46	62.9883	87.412	62.9883	87.4401	62.9883	87.408	62.9883	87.423	62.9883	87.4118
64.4531	87.4	64.4531	87.4029	64.4531	87.4019	64.4531	87.4103	64.4531	87.4086	64.4531	87.4214	64.4531	87.4197	64.4531	87.4352	64.4531	87.4345	64.4531	87.45	64.4531	87.4518	64.4531	87.4642	64.4531	87.4702	64.4531	87.476	64.4531	87.4879	64.4531	87.4835	64.4531	87.5031	64.4531	87.4854	64.4531	87.5137	64.4531	87.4806	64.4531	87.5182	64.4531	87.4691	64.4531	87.5152	64.4531	87.4518	64.4531	87.5043	64.4531	87.4307	64.4531	87.4861	64.4531	87.4086	64.4531	87.4623	64.4531	87.389	64.4531	87.4358	64.4531	87.3753	64.4531	87.4099	64.4531	87.37	64.4531	87.3885	64.4531	87.3745
67.3828	87.4142	67.3828	87.4186	67.3828	87.4142	67.3828	87.427	67.3828	87.4189	67.3828	87.4387	67.3828	87.4278	67.3828	87.4523	67.3828	87.4404	67.3828	87.4665	67.3828	87.4556	67.3828	87.4794	67.3828	87.4721	67.3828	87.4893	67.3828	87.488	67.3828	87.4941	67.3828	87.5014	67.3828	87.4923	67.3828	87.5102	67.3828	87.4832	67.3828	87.5127	67.3828	87.4665	67.3828	87.5075	67.3828	87.4436	67.3828	87.4942	67.3828	87.4167	67.3828	87.4734	67.3828	87.3893	67.3828	87.4467	67.3828	87.3653	67.3828	87.4172	67.3828	87.3488	67.3828	87.3882	67.3828	87.3426	67.3828	87.3639	67.3828	87.3479
68.8477	87.4988	68.8477	87.5006	68.8477	87.5012	68.8477	87.506	68.8477	87.5076	68.8477	87.5144	68.8477	87.5179	68.8477	87.525	68.8477	87.5313	68.8477	87.5364	68.8477	87.547	68.8477	87.547	68.8477	87.5636	68.8477	87.5551	68.8477	87.5794	68.8477	87.5588	68.8477	87.5926	68.8477	87.5566	68.8477	87.6012	68.8477	87.5473	68.8477	87.6036	68.8477	87.5307	68.8477	87.5982	68.8477	87.508	68.8477	87.5846	68.8477	87.4813	68.8477	87.5629	68.8477	87.4544	68.8477	87.5347	68.8477	87.4314	68.8477	87.5026	68.8477	87.4166	68.8477	87.4703	68.8477	87.4131	68.8477	87.442	68.8477	87.4219
71.7773	87.6707	71.7773	87.6656	71.7773	87.6777	71.7773	87.662	71.7773	87.6863	71.7773	87.6597	71.7773	87.6964	71.7773	87.6579	71.7773	87.7073	71.7773	87.6556	71.7773	87.718	71.7773	87.6516	71.7773	87.7274	71.7773	87.6443	71.7773	87.7339	71.7773	87.632	71.7773	87.7359	71.7773	87.6135	71.7773	87.7316	71.7773	87.5881	71.7773	87.7197	71.7773	87.5558	71.7773	87.6992	71.7773	87.5186	71.7773	87.6698	71.7773	87.4796	71.7773	87.6321	71.7773	87.4432	71.7773	87.5877	71.7773	87.4149	71.7773	87.5395	71.7773	87.3994	71.7773	87.4916	71.7773	87.3999	71.7773	87.4491	71.7773	87.4172
74.707	87.7308	74.707	87.7253	74.707	87.7378	74.707	87.7215	74.707	87.7462	74.707	87.7189	74.707	87.7556	74.707	87.717	74.707	87.7654	74.707	87.715	74.707	87.7748	74.707	87.7114	74.707	87.7824	74.707	87.7048	74.707	87.7869	74.707	87.6935	74.707	87.7866	74.707	87.6762	74.707	87.78	74.707	87.6522	74.707	87.7656	74.707	87.6219	74.707	87.7425	74.707	87.5867	74.707	87.7106	74.707	87.5493	74.707	87.6709	74.707	87.5136	74.707	87.6256	74.707	87.4841	74.707	87.5783	74.707	87.4652	74.707	87.5335	74.707	87.4603	74.707	87.4963	74.707	87.4709
77.6367	87.8148	77.6367	87.8162	77.6367	87.8131	77.6367	87.8174	77.6367	87.8113	77.6367	87.8179	77.6367	87.8093	77.6367	87.8173	77.6367	87.807	77.6367	87.8145	77.6367	87.8038	77.6367	87.8085	77.6367	87.7993	77.6367	87.7979	77.6367	87.7924	77.6367	87.7812	77.6367	87.782	77.6367	87.7575	77.6367	87.7666	77.6367	87.7261	77.6367	87.745	77.6367	87.6873	77.6367	87.7163	77.6367	87.6427	77.6367	87.6806	77.6367	87.5951	77.6367	87.6388	77.6367	87.5484	77.6367	87.5935	77.6367	87.5074	77.6367	87.5484	77.6367	87.4769	77.6367	87.5082	77.6367	87.4608	77.6367	87.4777	77.6367	87.4611
79.1016	87.8236	79.1016	87.8268	79.1016	87.8195	79.1016	87.8289	79.1016	87.8144	79.1016	87.8296	79.1016	87.8086	79.1016	87.8284	79.1016	87.8019	79.1016	87.8245	79.1016	87.7943	79.1016	87.817	79.1016	87.7854	79.1016	87.8045	79.1016	87.7743	79.1016	87.7858	79.1016	87.7602	79.1016	87.7597	79.1016	87.7418	79.1016	87.7257	79.1016	87.7179	79.1016	87.6842	79.1016	87.6878	79.1016	87.6366	79.1016	87.6513	79.1016	87.5858	79.1016	87.6095	79.1016	87.5359	79.1016	87.5647	79.1016	87.4918	79.1016	87.5206	79.1016	87.4584	79.1016	87.4816	79.1016	87.4397	79.1016	87.4526	79.1016	87.4378
82.0312	87.8565	82.0312	87.859	82.0312	87.8519	82.0312	87.8592	82.0312	87.8451	82.0312	87.8571	82.0312	87.8364	82.0312	87.8524	82.0312	87.8257	82.0312	87.8445	82.0312	87.8131	82.0312	87.8326	82.0312	87.7985	82.0312	87.8156	82.0312	87.7813	82.0312	87.7921	82.0312	87.7609	82.0312	87.7611	82.0312	87.7363	82.0312	87.7218	82.0312	87.7064	82.0312	87.6746	82.0312	87.6706	82.0312	87.6211	82.0312	87.6289	82.0312	87.5643	82.0312	87.5822	82.0312	87.5088	82.0312	87.5331	82.0312	87.4598	82.0312	87.4854	82.0312	87.4225	82.0312	87.4437	82.0312	87.4013	82.0312	87.4132	82.0312	87.3982
84.9609	87.8978	84.9609	87.8971	84.9609	87.8955	84.9609	87.8936	84.9609	87.8902	84.9609	87.8874	84.9609	87.8819	84.9609	87.8784	84.9609	87.8706	84.9609	87.8663	84.9609	87.8563	84.9609	87.8504	84.9609	87.839	84.9609	87.8297	84.9609	87.8183	84.9609	87.8028	84.9609	87.7936	84.9609	87.7686	84.9609	87.7639	84.9609	87.7263	84.9609	87.7285	84.9609	87.6762	84.9609	87.6869	84.9609	87.6197	84.9609	87.6392	84.9609	87.5599	84.9609	87.5867	84.9609	87.5015	84.9609	87.5322	84.9609	87.45	84.9609	87.4798	84.9609	87.4108	84.9609	87.4345	84.9609	87.3884	84.9609	87.4016	84.9609	87.3854
87.8906	87.9041	87.8906	87.8995	87.8906	87.9044	87.8906	87.8908	87.8906	87.9002	87.8906	87.8782	87.8906	87.8917	87.8906	87.8621	87.8906	87.8791	87.8906	87.8424	87.8906	87.8627	87.8906	87.819	87.8906	87.8426	87.8906	87.7913	87.8906	87.8185	87.8906	87.7582	87.8906	87.79	87.8906	87.7189	87.8906	87.7564	87.8906	87.6727	87.8906	87.717	87.8906	87.6197	87.8906	87.6711	87.8906	87.5617	87.8906	87.6191	87.8906	87.5014	87.8906	87.5621	87.8906	87.4434	87.8906	87.5027	87.8906	87.3931	87.8906	87.4452	87.8906	87.3559	87.8906	87.3948	87.8906	87.3363	87.8906	87.357	87.8906	87.3366
90.8203	87.848	90.8203	87.847	90.8203	87.844	90.8203	87.8408	90.8203	87.835	90.8203	87.8298	90.8203	87.8214	90.8203	87.8143	90.8203	87.8039	90.8203	87.7944	90.8203	87.7827	90.8203	87.7699	90.8203	87.7584	90.8203	87.7406	90.8203	87.7308	90.8203	87.7056	90.8203	87.6997	90.8203	87.6642	90.8203	87.6644	90.8203	87.616	90.8203	87.6241	90.8203	87.5614	90.8203	87.5783	90.8203	87.5017	90.8203	87.5271	90.8203	87.4398	90.8203	87.4717	90.8203	87.3801	90.8203	87.4147	90.8203	87.3278	90.8203	87.3602	90.8203	87.2882	90.8203	87.3133	90.8203	87.2655	90.8203	87.2793	90.8203	87.2625
95.2148	87.8136	95.2148	87.8031	95.2148	87.8163	95.2148	87.7855	95.2148	87.811	95.2148	87.7616	95.2148	87.798	95.2148	87.7325	95.2148	87.7777	95.2148	87.699	95.2148	87.7509	95.2148	87.6614	95.2148	87.7184	95.2148	87.6195	95.2148	87.6807	95.2148	87.5729	95.2148	87.6378	95.2148	87.5206	95.2148	87.5894	95.2148	87.4621	95.2148	87.535	95.2148	87.3977	95.2148	87.4743	95.2148	87.3287	95.2148	87.4076	95.2148	87.2582	95.2148	87.3364	95.2148	87.1908	95.2148	87.2638	95.2148	87.1325	95.2148	87.1946	95.2148	87.0892	95.2148	87.1346	95.2148	87.0661	95.2148	87.0902	95.2148	87.0664
98.1445	87.7095	98.1445	87.6936	98.1445	87.7181	98.1445	87.6711	98.1445	87.7192	98.1445	87.6432	98.1445	87.7129	98.1445	87.6112	98.1445	87.7	98.1445	87.5764	98.1445	87.6812	98.1445	87.5394	98.1445	87.657	98.1445	87.5003	98.1445	87.6279	98.1445	87.4587	98.1445	87.5937	98.1445	87.4135	98.1445	87.5536	98.1445	87.3641	98.1445	87.507	98.1445	87.3103	98.1445	87.4532	98.1445	87.2533	98.1445	87.3921	98.1445	87.1956	98.1445	87.3252	98.1445	87.1412	98.1445	87.2555	98.1445	87.095	98.1445	87.1877	98.1445	87.0624	98.1445	87.1278	98.1445	87.0479	98.1445	87.0817	98.1445	87.0543
101.074	87.5122	101.074	87.4889	101.074	87.5271	101.074	87.458	101.074	87.5333	101.074	87.4214	101.074	87.5314	101.074	87.3809	101.074	87.5224	101.074	87.3387	101.074	87.5077	101.074	87.2964	101.074	87.4886	101.074	87.2548	101.074	87.4657	101.074	87.214	101.074	87.4392	101.074	87.1733	101.074	87.4083	101.074	87.1319	101.074	87.3715	101.074	87.0895	101.074	87.3276	101.074	87.0464	101.074	87.2757	101.074	87.0045	101.074	87.2164	101.074	86.9671	101.074	87.152	101.074	86.9381	101.074	87.0868	101.074	86.9218	101.074	87.026	101.074	86.9217	101.074	86.9754	101.074	86.9398
105.469	87.4932	105.469	87.4598	105.469	87.5107	105.469	87.4113	105.469	87.5122	105.469	87.3492	105.469	87.4985	105.469	87.2756	105.469	87.471	105.469	87.1929	105.469	87.4318	105.469	87.1039	105.469	87.3831	105.469	87.0117	105.469	87.327	105.469	86.9191	105.469	87.265	105.469	86.8289	105.469	87.198	105.469	86.7436	105.469	87.1261	105.469	86.6652	105.469	87.0491	105.469	86.5958	105.469	86.9672	105.469	86.5379	105.469	86.8812	105.469	86.4941	105.469	86.7933	105.469	86.467	105.469	86.7072	105.469	86.4593	105.469	86.6274	105.469	86.4723	105.469	86.5589	105.469	86.506
108.398	87.5054	108.398	87.4882	108.398	87.507	108.398	87.4561	108.398	87.4931	108.398	87.4099	108.398	87.464	108.398	87.3505	108.398	87.4209	108.398	87.2789	108.398	87.3656	108.398	87.1963	108.398	87.3003	108.398	87.1038	108.398	87.2271	108.398	87.0035	108.398	87.148	108.398	86.8981	108.398	87.0644	108.398	86.7908	108.398	86.9769	108.398	86.6859	108.398	86.8858	108.398	86.5876	108.398	86.7914	108.398	86.5002	108.398	86.6953	108.398	86.4276	108.398	86.6005	108.398	86.373	108.398	86.512	108.398	86.339	108.398	86.4356	108.398	86.3277	108.398	86.377	108.398	86.3403
112.793	87.484	112.793	87.4601	112.793	87.4914	112.793	87.4213	112.793	87.482	112.793	87.37	112.793	87.4563	112.793	87.3091	112.793	87.4159	112.793	87.2412	112.793	87.363	112.793	87.1683	112.793	87.3001	112.793	87.0913	112.793	87.229	112.793	87.0098	112.793	87.1513	112.793	86.9229	112.793	87.0677	112.793	86.8298	112.793	86.9784	112.793	86.7312	112.793	86.8835	112.793	86.6298	112.793	86.7837	112.793	86.5306	112.793	86.681	112.793	86.4405	112.793	86.5791	112.793	86.367	112.793	86.4837	112.793	86.3167	112.793	86.4014	112.793	86.2944	112.793	86.339	112.793	86.3021
117.188	87.3505	117.188	87.3234	117.188	87.3599	117.188	87.2804	117.188	87.3511	117.188	87.2241	117.188	87.3243	117.188	87.1574	117.188	87.2809	117.188	87.0837	117.188	87.2232	117.188	87.0059	117.188	87.1539	117.188	86.9263	117.188	87.0763	117.188	86.8461	117.188	86.9933	117.188	86.7655	117.188	86.9076	117.188	86.6843	117.188	86.8215	117.188	86.6024	117.188	86.7364	117.188	86.5212	117.188	86.6532	117.188	86.4436	117.188	86.5728	117.188	86.3743	117.188	86.496	117.188	86.319	117.188	86.4247	117.188	86.283	117.188	86.362	117.188	86.2697	117.188	86.3122	117.188	86.2801
120.117	87.2615	120.117	87.22	120.117	87.2846	120.117	87.1619	120.117	87.2886	120.117	87.0897	120.117	87.2737	120.117	87.0064	120.117	87.2408	120.117	86.9159	120.117	87.1916	120.117	86.8218	120.117	87.1283	120.117	86.7278	120.117	87.0532	120.117	86.6364	120.117	86.9687	120.117	86.5494	120.117	86.877	120.117	86.4674	120.117	86.7805	120.117	86.3908	120.117	86.6815	120.117	86.3199	120.117	86.5826	120.117	86.2562	120.117	86.4868	120.117	86.2024	120.117	86.397	120.117	86.1623	120.117	86.3161	120.117	86.1395	120.117	86.2469	120.117	86.1367	120.117	86.1921	120.117	86.1546
124.512	87.1162	124.512	87.0715	124.512	87.1402	124.512	87.007	124.512	87.1434	124.512	86.9248	124.512	87.1273	124.512	86.8281	124.512	87.0941	124.512	86.7207	124.512	87.0467	124.512	86.6073	124.512	86.9883	124.512	86.4922	124.512	86.9217	124.512	86.3801	124.512	86.8495	124.512	86.2749	124.512	86.7732	124.512	86.1802	124.512	86.6936	124.512	86.0989	124.512	86.611	124.512	86.0336	124.512	86.5258	124.512	85.9865	124.512	86.4389	124.512	85.9591	124.512	86.3516	124.512	85.9524	124.512	86.2663	124.512	85.9662	124.512	86.1853	124.512	85.9991	124.512	86.1118	124.512	86.0486
128.906	87.0389	128.906	87.0153	128.906	87.0398	128.906	86.9692	128.906	87.0189	128.906	86.9023	128.906	86.9786	128.906	86.8171	128.906	86.9222	128.906	86.717	128.906	86.8538	128.906	86.6063	128.906	86.7778	128.906	86.4894	128.906	86.6981	128.906	86.3709	128.906	86.618	128.906	86.2557	128.906	86.5394	128.906	86.1485	128.906	86.4633	128.906	86.0536	128.906	86.3898	128.906	85.975	128.906	86.3184	128.906	85.9159	128.906	86.2486	128.906	85.8786	128.906	86.1803	128.906	85.8637	128.906	86.1136	128.906	85.8704	128.906	86.0495	128.906	85.8962	128.906	85.9898	128.906	85.9374
133.301	87.0387	133.301	87.0274	133.301	87.0233	133.301	86.9903	133.301	86.9817	133.301	86.9295	133.301	86.9159	133.301	86.8478	133.301	86.8293	133.301	86.7489	133.301	86.7263	133.301	86.6368	133.301	86.6124	133.301	86.5156	133.301	86.493	133.301	86.3893	133.301	86.3734	133.301	86.2622	133.301	86.2579	133.301	86.1386	133.301	86.1499	133.301	86.0228	133.301	86.0518	133.301	85.9192	133.301	85.965	133.301	85.8317	133.301	85.8902	133.301	85.7632	133.301	85.8273	133.301	85.7151	133.301	85.7757	133.301	85.6872	133.301	85.7347	133.301	85.6779	133.301	85.704	133.301	85.6844
139.16	86.9215	139.16	86.8963	139.16	86.9162	139.16	86.8426	139.16	86.8802	139.16	86.7636	139.16	86.8151	139.16	86.6639	139.16	86.724	139.16	86.5486	139.16	86.6115	139.16	86.4233	139.16	86.4832	139.16	86.2937	139.16	86.3455	139.16	86.1647	139.16	86.2044	139.16	86.0408	139.16	86.0657	139.16	85.9254	139.16	85.9344	139.16	85.8215	139.16	85.8148	139.16	85.731	139.16	85.7108	139.16	85.6549	139.16	85.6252	139.16	85.5936	139.16	85.5597	139.16	85.5463	139.16	85.5142	139.16	85.5118	139.16	85.487	139.16	85.4888	139.16	85.4754	139.16	85.4766
143.555	86.7929	143.555	86.75	143.555	86.8042	143.555	86.6774	143.555	86.7834	143.555	86.5788	143.555	86.7317	143.555	86.4591	143.555	86.6521	143.555	86.3241	143.555	86.5491	143.555	86.1802	143.555	86.4282	143.555	86.034	143.555	86.2951	143.555	85.8919	143.555	86.1559	143.555	85.7594	143.555	86.0159	143.555	85.6413	143.555	85.8795	143.555	85.5405	143.555	85.7508	143.555	85.4585	143.555	85.6333	143.555	85.395	143.555	85.5302	143.555	85.3483	143.555	85.4444	143.555	85.3157	143.555	85.3777	143.555	85.2952	143.555	85.3303	143.555	85.2854	143.555	85.3008	143.555	85.2867
147.949	86.6094	147.949	86.5651	147.949	86.6202	147.949	86.4894	147.949	86.5975	147.949	86.3859	147.949	86.543	147.949	86.2599	147.949	86.4607	147.949	86.1176	147.949	86.3557	147.949	85.9659	147.949	86.2347	147.949	85.812	147.949	86.1046	147.949	85.6629	147.949	85.9722	147.949	85.5256	147.949	85.8432	147.949	85.406	147.949	85.722	147.949	85.309	147.949	85.6114	147.949	85.2373	147.949	85.5133	147.949	85.1909	147.949	85.4286	147.949	85.1671	147.949	85.3581	147.949	85.1609	147.949	85.3015	147.949	85.1669	147.949	85.2578	147.949	85.1806	147.949	85.2248	147.949	85.1998
153.809	86.5534	153.809	86.5164	153.809	86.5471	153.809	86.4385	153.809	86.4975	153.809	86.3244	153.809	86.4072	153.809	86.1807	153.809	86.2812	153.809	86.0157	153.809	86.1269	153.809	85.8387	153.809	85.9538	153.809	85.6594	153.809	85.7732	153.809	85.4872	153.809	85.597	153.809	85.3309	153.809	85.4368	153.809	85.1981	153.809	85.3015	153.809	85.0943	153.809	85.1964	153.809	85.0228	153.809	85.1216	153.809	84.983	153.809	85.0733	153.809	84.9704	153.809	85.0454	153.809	84.9765	153.809	85.0314	153.809	84.9914	153.809	85.0253	153.809	85.0063	153.809	85.0219	153.809	85.0166
159.668	86.7666	159.668	86.7258	159.668	86.7638	159.668	86.6437	159.668	86.7173	159.668	86.5243	159.668	86.6291	159.668	86.3738	159.668	86.5031	159.668	86.1997	159.668	86.3451	159.668	86.0111	159.668	86.1627	159.668	85.8179	159.668	85.9647	159.668	85.6302	159.668	85.7613	159.668	85.4581	159.668	85.5641	159.668	85.3101	159.668	85.3852	159.668	85.1928	159.668	85.2366	159.668	85.1098	159.668	85.1272	159.668	85.0612	159.668	85.0608	159.668	85.0424	159.668	85.0337	159.668	85.0451	159.668	85.0352	159.668	85.0584	159.668	85.0511	159.668	85.0713	159.668	85.0677	159.668	85.0755
165.527	86.5796	165.527	86.5271	165.527	86.5867	165.527	86.4317	165.527	86.5483	165.527	86.298	165.527	86.4663	165.527	86.1328	165.527	86.345	165.527	85.9452	165.527	86.1911	165.527	85.7461	165.527	86.0135	165.527	85.5481	165.527	85.823	165.527	85.3644	165.527	85.6316	165.527	85.2071	165.527	85.4512	165.527	85.0856	165.527	85.2927	165.527	85.005	165.527	85.1648	165.527	84.9646	165.527	85.0728	165.527	84.9583	165.527	85.0181	165.527	84.9756	165.527	84.9971	165.527	85.0042	165.527	85.0016	165.527	85.0319	165.527	85.0202	165.527	85.0496	165.527	85.0406	165.527	85.0523
171.387	86.6414	171.387	86.5718	171.387	86.6608	171.387	86.4538	171.387	86.6301	171.387	86.2909	171.387	86.551	171.387	86.0886	171.387	86.4274	171.387	85.8544	171.387	86.2651	171.387	85.5989	171.387	86.0717	171.387	85.3357	171.387	85.8563	171.387	85.0817	171.387	85.6295	171.387	84.8557	171.387	85.4032	171.387	84.6758	171.387	85.1906	171.387	84.5551	171.387	85.0055	171.387	84.4978	171.387	84.8603	171.387	84.4978	171.387	84.7627	171.387	84.5391	171.387	84.7127	171.387	84.6009	171.387	84.701	171.387	84.6621	171.387	84.7116	171.387	84.7069	171.387	84.7259	171.387	84.7277
177.246	86.4244	177.246	86.386	177.246	86.4132	177.246	86.2988	177.246	86.3533	177.246	86.1648	177.246	86.2478	177.246	85.9877	177.246	86.1021	177.246	85.7726	177.246	85.9239	177.246	85.5268	177.246	85.7232	177.246	85.2605	177.246	85.5114	177.246	84.9875	177.246	85.3002	177.246	84.7258	177.246	85.1	177.246	84.4959	177.246	84.9191	177.246	84.3177	177.246	84.7635	177.246	84.2047	177.246	84.6377	177.246	84.1588	177.246	84.5439	177.246	84.1694	177.246	84.4815	177.246	84.2164	177.246	84.445	177.246	84.2778	177.246	84.4242	177.246	84.3353	177.246	84.406	177.246	84.3785
183.105	86.2911	183.105	86.2704	183.105	86.2582	183.105	86.1984	183.105	86.1716	183.105	86.079	183.105	86.0334	183.105	85.9177	183.105	85.8486	183.105	85.722	183.105	85.6253	183.105	85.5007	183.105	85.3751	183.105	85.2654	183.105	85.1132	183.105	85.0294	183.105	84.8571	183.105	84.8081	183.105	84.6248	183.105	84.6174	183.105	84.4321	183.105	84.4707	183.105	84.2899	183.105	84.3754	183.105	84.2026	183.105	84.3304	183.105	84.1678	183.105	84.3255	183.105	84.1773	183.105	84.3434	183.105	84.2177	183.105	84.365	183.105	84.2725	183.105	84.3741	183.105	84.3248	183.105	84.3611
188.965	86.4548	188.965	86.4002	188.965	86.4499	188.965	86.2915	188.965	86.3824	188.965	86.136	188.965	86.2513	188.965	85.9426	188.965	86.0593	188.965	85.7221	188.965	85.8134	188.965	85.4866	188.965	85.5258	188.965	85.2493	188.965	85.2152	188.965	85.0244	188.965	84.906	188.965	84.826	188.965	84.625	188.965	84.6671	188.965	84.3965	188.965	84.5575	188.965	84.2356	188.965	84.5002	188.965	84.1454	188.965	84.4883	188.965	84.119	188.965	84.5051	188.965	84.1436	188.965	84.5279	188.965	84.2054	188.965	84.5355	188.965	84.2895	188.965	84.5136	188.965	84.3798	188.965	84.4592
196.289	86.4456	196.289	86.3688	196.289	86.4526	196.289	86.225	196.289	86.3896	196.289	86.0202	196.289	86.2589	196.289	85.7639	196.289	86.0645	196.289	85.4701	196.289	85.813	196.289	85.1572	196.289	85.5142	196.289	84.8481	196.289	85.182	196.289	84.5683	196.289	84.8368	196.289	84.3432	196.289	84.5072	196.289	84.1927	196.289	84.2281	196.289	84.1258	196.289	84.0343	196.289	84.1376	196.289	83.9476	196.289	84.2096	196.289	83.9666	196.289	84.3145	196.289	84.0656	196.289	84.4224	196.289	84.2056	196.289	84.5062	196.289	84.348	196.289	84.5463	196.289	84.4632	196.289	84.5322
203.613	86.7476	203.613	86.6534	203.613	86.7615	203.613	86.4789	203.613	86.6969	203.613	86.2268	203.613	86.5567	203.613	85.904	203.613	86.3445	203.613	85.5225	203.613	86.0648	203.613	85.1009	203.613	85.7246	203.613	84.6662	203.613	85.3346	203.613	84.254	203.613	84.9118	203.613	83.906	203.613	84.4821	203.613	83.6614	203.613	84.083	203.613	83.5447	203.613	83.7609	203.613	83.5541	203.613	83.5593	203.613	83.6607	203.613	83.4999	203.613	83.8187	203.613	83.568	203.613	83.9793	203.613	83.7179	203.613	84.1017	203.613	83.8931	203.613	84.1588	203.613	84.0445	203.613	84.1388
210.938	86.4439	210.938	86.3526	210.938	86.4709	210.938	86.1973	210.938	86.4338	210.938	85.9785	210.938	86.3339	210.938	85.6981	210.938	86.1741	210.938	85.3592	210.938	85.9598	210.938	84.9684	210.938	85.6987	210.938	84.537	210.938	85.4007	210.938	84.0848	210.938	85.0764	210.938	83.6444	210.938	84.737	210.938	83.2624	210.938	84.3964	210.938	82.9911	210.938	84.0745	210.938	82.8683	210.938	83.7998	210.938	82.8954	210.938	83.6032	210.938	83.033	210.938	83.5036	210.938	83.2198	210.938	83.4927	210.938	83.3971	210.938	83.534	210.938	83.5245	210.938	83.5785	210.938	83.5837
218.262	86.1937	218.262	86.149	218.262	86.1649	218.262	86.0304	218.262	86.0643	218.262	85.8399	218.262	85.8954	218.262	85.5823	218.262	85.6632	218.262	85.2666	218.262	85.3761	218.262	84.9066	218.262	85.0475	218.262	84.5217	218.262	84.6984	218.262	84.136	218.262	84.3583	218.262	83.7781	218.262	84.061	218.262	83.4796	218.262	83.8349	218.262	83.2715	218.262	83.6933	218.262	83.176	218.262	83.6302	218.262	83.1951	218.262	83.6271	218.262	83.3043	218.262	83.663	218.262	83.4597	218.262	83.718	218.262	83.6143	218.262	83.7724	218.262	83.7323	218.262	83.8051	218.262	83.796
225.586	86.6917	225.586	86.6579	225.586	86.6423	225.586	86.5416	225.586	86.5102	225.586	86.3447	225.586	86.2971	225.586	86.0713	225.586	86.0061	225.586	85.7291	225.586	85.6422	225.586	85.3324	225.586	85.2128	225.586	84.9048	225.586	84.7309	225.586	84.4802	225.586	84.2196	225.586	84.1005	225.586	83.719	225.586	83.8077	225.586	83.289	225.586	83.6339	225.586	83.0001	225.586	83.5924	225.586	82.9043	225.586	83.6713	225.586	83.0042	225.586	83.8335	225.586	83.2485	225.586	84.0243	225.586	83.559	225.586	84.1849	225.586	83.8616	225.586	84.2666	225.586	84.1005	225.586	84.2405
232.91	86.8826	232.91	86.7787	232.91	86.8947	232.91	86.5883	232.91	86.8113	232.91	86.3174	232.91	86.6301	232.91	85.9732	232.91	86.3503	232.91	85.5638	232.91	85.9737	232.91	85.1002	232.91	85.5056	232.91	84.6008	232.91	84.958	232.91	84.0969	232.91	84.355	232.91	83.6366	232.91	83.739	232.91	83.2801	232.91	83.1758	232.91	83.0805	232.91	82.7492	232.91	83.058	232.91	82.5339	232.91	83.1865	232.91	82.5558	232.91	83.4053	232.91	82.7727	232.91	83.6413	232.91	83.0969	232.91	83.8282	232.91	83.4345	232.91	83.9167	232.91	83.7111	232.91	83.8789
241.699	86.4439	241.699	86.3367	241.699	86.4749	241.699	86.1561	241.699	86.4282	241.699	85.9059	241.699	86.3034	241.699	85.5912	241.699	86.1014	241.699	85.2178	241.699	85.8251	241.699	84.7914	241.699	85.4787	241.699	84.319	241.699	85.0675	241.699	83.814	241.699	84.597	241.699	83.3048	241.699	84.0754	241.699	82.8434	241.699	83.5224	241.699	82.5007	241.699	82.9813	241.699	82.3394	241.699	82.5266	241.699	82.3746	241.699	82.2483	241.699	82.5575	241.699	82.2036	241.699	82.7994	241.699	82.3683	241.699	83.0087	241.699	82.6436	241.699	83.116	241.699	82.9117	241.699	83.0836
250.488	87.098	250.488	87.0082	250.488	87.0905	250.488	86.8216	250.488	86.9851	250.488	86.5383	250.488	86.7817	250.488	86.1592	250.488	86.4823	250.488	85.6892	250.488	86.0915	250.488	85.1419	250.488	85.6187	250.488	84.5425	250.488	85.0802	250.488	83.9292	250.488	84.503	250.488	83.3496	250.488	83.9287	250.488	82.8551	250.488	83.413	250.488	82.4931	250.488	83.0155	250.488	82.2964	250.488	82.7772	250.488	82.2703	250.488	82.7004	250.488	82.3844	250.488	82.7473	250.488	82.5803	250.488	82.8588	250.488	82.7908	250.488	82.9758	250.488	82.9588	250.488	83.0499	250.488	83.0487
259.277	87.0995	259.277	87.0124	259.277	87.0944	259.277	86.8347	259.277	86.9954	259.277	86.5674	259.277	86.8014	259.277	86.2106	259.277	86.5133	259.277	85.7661	259.277	86.1334	259.277	85.2401	259.277	85.6661	259.277	84.6493	259.277	85.1176	259.277	84.0277	259.277	84.4984	259.277	83.4317	259.277	83.8292	259.277	82.937	259.277	83.1533	259.277	82.6182	259.277	82.5528	259.277	82.5146	259.277	82.1441	259.277	82.6052	259.277	82.0247	259.277	82.8185	259.277	82.1924	259.277	83.0666	259.277	82.5351	259.277	83.2733	259.277	82.9076	259.277	83.3841	259.277	83.2021	259.277	83.3651
268.066	86.5101	268.066	86.3951	268.066	86.5377	268.066	86.194	268.066	86.4769	268.066	85.9066	268.066	86.3277	268.066	85.5303	268.066	86.0907	268.066	85.061	268.066	85.7663	268.066	84.4986	268.066	85.3546	268.066	83.856	268.066	84.8603	268.066	83.173	268.066	84.2976	268.066	82.5281	268.066	83.6943	268.066	82.032	268.066	83.088	268.066	81.7823	268.066	82.5218	268.066	81.7953	268.066	82.0466	268.066	81.989	268.066	81.7251	268.066	82.2399	268.066	81.6126	268.066	82.4482	268.066	81.7106	268.066	82.5599	268.066	81.9473	268.066	82.5557	268.066	82.2176	268.066	82.4359
276.855	86.3324	276.855	86.264	276.855	86.3336	276.855	86.126	276.855	86.2678	276.855	85.9135	276.855	86.1333	276.855	85.6179	276.855	85.926	276.855	85.2256	276.855	85.6378	276.855	84.7172	276.855	85.2533	276.855	84.0723	276.855	84.7531	276.855	83.2837	276.855	84.1294	276.855	82.3848	276.855	83.4154	276.855	81.4902	276.855	82.7167	276.855	80.822	276.855	82.1988	276.855	80.6224	276.855	81.9888	276.855	80.9322	276.855	82.0674	276.855	81.5308	276.855	82.3025	276.855	82.147	276.855	82.5669	276.855	82.6178	276.855	82.7905	276.855	82.8928	276.855	82.9402	276.855	82.9871
287.109	86.4555	287.109	86.415	287.109	86.397	287.109	86.277	287.109	86.239	287.109	86.0458	287.109	85.9821	287.109	85.7307	287.109	85.6302	287.109	85.3475	287.109	85.1938	287.109	84.9147	287.109	84.6893	287.109	84.4427	287.109	84.1295	287.109	83.9237	287.109	83.5081	287.109	83.3348	287.109	82.7972	287.109	82.6674	287.109	81.9841	287.109	81.9814	287.109	81.1499	287.109	81.4569	287.109	80.5419	287.109	81.3384	287.109	80.4706	287.109	81.6983	287.109	80.9708	287.109	82.3149	287.109	81.74	287.109	82.8847	287.109	82.4673	287.109	83.2189	287.109	82.993	287.109	83.2537
297.363	87.1352	297.363	87.0963	297.363	87.0761	297.363	86.9462	297.363	86.9311	297.363	86.674	297.363	86.7029	297.363	86.2698	297.363	86.3792	297.363	85.7231	297.363	85.9324	297.363	85.0284	297.363	85.3284	297.363	84.208	297.363	84.5439	297.363	83.3482	297.363	83.5887	297.363	82.6136	297.363	82.5276	297.363	82.1705	297.363	81.4846	297.363	82.039	297.363	80.6078	297.363	82.0747	297.363	80.0164	297.363	82.128	297.363	79.8028	297.363	82.1614	297.363	80.0318	297.363	82.2237	297.363	80.6348	297.363	82.3362	297.363	81.3728	297.363	82.4202	297.363	81.988	297.363	82.3381
307.617	87.2082	307.617	87.1141	307.617	87.2248	307.617	86.946	307.617	87.1526	307.617	86.6982	307.617	86.978	307.617	86.359	307.617	86.6919	307.617	85.914	307.617	86.2918	307.617	85.3455	307.617	85.779	307.617	84.6305	307.617	85.1507	307.617	83.7517	307.617	84.3941	307.617	82.7358	307.617	83.4929	307.617	81.7276	307.617	82.4595	307.617	81.0351	307.617	81.3953	307.617	80.9463	307.617	80.5449	307.617	81.3892	307.617	80.2094	307.617	82.0161	307.617	80.4684	307.617	82.5478	307.617	81.092	307.617	82.8651	307.617	81.7898	307.617	82.9394	307.617	82.3785	307.617	82.7729
319.336	87.1878	319.336	86.9887	319.336	87.284	319.336	86.7002	319.336	87.2622	319.336	86.3273	319.336	87.1129	319.336	85.8648	319.336	86.8343	319.336	85.3009	319.336	86.4288	319.336	84.6221	319.336	85.8941	319.336	83.8181	319.336	85.2174	319.336	82.8898	319.336	84.3776	319.336	81.8762	319.336	83.3599	319.336	80.9138	319.336	82.186	319.336	80.2776	319.336	80.9738	319.336	80.2327	319.336	80.0085	319.336	80.7305	319.336	79.6639	319.336	81.4483	319.336	80.0305	319.336	82.0971	319.336	80.7884	319.336	82.5298	319.336	81.5752	319.336	82.6938	319.336	82.197	319.336	82.5793
329.59	87.0138	329.59	86.8698	329.59	87.0946	329.59	86.672	329.59	87.0937	329.59	86.4164	329.59	86.9911	329.59	86.0849	329.59	86.7714	329.59	85.65	329.59	86.4258	329.59	85.0804	329.59	85.9459	329.59	84.3453	329.59	85.316	329.59	83.4176	329.59	84.5075	329.59	82.2897	329.59	83.4824	329.59	81.0318	329.59	82.211	329.59	79.9181	329.59	80.7179	329.59	79.4538	329.59	79.2039	329.59	79.8857	329.59	78.219	329.59	80.8074	329.59	78.3616	329.59	81.6922	329.59	79.4075	329.59	82.2742	329.59	80.6419	329.59	82.4692	329.59	81.6386	329.59	82.2576
341.309	86.8885	341.309	86.8615	341.309	86.8363	341.309	86.7402	341.309	86.718	341.309	86.5075	341.309	86.5402	341.309	86.1416	341.309	86.2959	341.309	85.615	341.309	85.9607	341.309	84.8977	341.309	85.4961	341.309	83.9637	341.309	84.8579	341.309	82.7987	341.309	84.0071	341.309	81.4178	341.309	82.9238	341.309	79.9159	341.309	81.6341	341.309	78.5881	341.309	80.2728	341.309	77.987	341.309	79.1788	341.309	78.4386	341.309	78.8213	341.309	79.5307	341.309	79.318	341.309	80.667	341.309	80.2547	341.309	81.5341	341.309	81.1732	341.309	82.0277	341.309	81.8286	341.309	82.1242
353.027	86.5131	353.027	86.4337	353.027	86.5697	353.027	86.3278	353.027	86.5983	353.027	86.1834	353.027	86.5873	353.027	85.9785	353.027	86.5223	353.027	85.678	353.027	86.3868	353.027	85.2324	353.027	86.1541	353.027	84.5829	353.027	85.7735	353.027	83.6701	353.027	85.1591	353.027	82.4435	353.027	84.1891	353.027	80.8894	353.027	82.7117	353.027	79.1568	353.027	80.5511	353.027	77.8681	353.027	77.5742	353.027	77.9414	353.027	74.3884	353.027	79.1377	353.027	74.1407	353.027	80.4378	353.027	76.7201	353.027	81.3227	353.027	79.0595	353.027	81.6656	353.027	80.6017	353.027	81.4395
366.211	86.6643	366.211	86.5511	366.211	86.7347	366.211	86.3882	366.211	86.7664	366.211	86.1696	366.211	86.7565	366.211	85.8881	366.211	86.6912	366.211	85.5243	366.211	86.5494	366.211	85.0328	366.211	86.3114	366.211	84.3376	366.211	85.9664	366.211	83.3495	366.211	85.5039	366.211	82.0058	366.211	84.8853	366.211	80.3274	366.211	84.0155	366.211	78.5192	366.211	82.7375	366.211	77.1113	366.211	80.8538	366.211	76.7961	366.211	78.2193	366.211	77.5987	366.211	75.3319	366.211	78.7909	366.211	74.7099	366.211	79.7322	366.211	76.7025	366.211	80.1065	366.211	78.6403	366.211	79.7719
379.395	86.9045	379.395	86.8329	379.395	86.9309	379.395	86.7125	379.395	86.9196	379.395	86.5374	379.395	86.8819	379.395	86.2949	379.395	86.8234	379.395	85.9683	379.395	86.7315	379.395	85.5397	379.395	86.5703	379.395	84.9827	379.395	86.2872	379.395	84.2375	379.395	85.8251	379.395	83.1866	379.395	85.1308	379.395	81.6597	379.395	84.1568	379.395	79.5131	379.395	82.857	379.395	77.006	379.395	81.1896	379.395	75.7371	379.395	79.1764	379.395	76.799	379.395	77.1596	379.395	78.3331	379.395	76.1635	379.395	79.255	379.395	76.7946	379.395	79.4627	379.395	78.0487	379.395	79.0304
392.578	86.113	392.578	86.0507	392.578	86.1506	392.578	85.9928	392.578	86.1371	392.578	85.9522	392.578	86.0638	392.578	85.9109	392.578	85.944	392.578	85.8186	392.578	85.8063	392.578	85.6057	392.578	85.6731	392.578	85.1993	392.578	85.532	392.578	84.5312	392.578	85.3158	392.578	83.533	392.578	84.9157	392.578	82.1238	392.578	84.2165	392.578	80.2127	392.578	83.1275	392.578	77.8141	392.578	81.604	392.578	75.6161	392.578	79.7103	392.578	75.4356	392.578	77.858	392.578	77.0696	392.578	77.0662	392.578	78.6599	392.578	77.7769	392.578	79.534	392.578	78.9207	392.578	79.6027
405.762	86.2487	405.762	86.0814	405.762	86.3052	405.762	85.8425	405.762	86.234	405.762	85.5923	405.762	86.0438	405.762	85.3959	405.762	85.7689	405.762	85.2826	405.762	85.4566	405.762	85.2033	405.762	85.1468	405.762	85.0348	405.762	84.8583	405.762	84.6303	405.762	84.5789	405.762	83.8692	405.762	84.2461	405.762	82.6794	405.762	83.7315	405.762	81.0417	405.762	82.864	405.762	79.0413	405.762	81.4964	405.762	77.148	405.762	79.6305	405.762	76.5154	405.762	77.7322	405.762	77.4631	405.762	76.9647	405.762	78.7209	405.762	77.6915	405.762	79.4493	405.762	78.7872	405.762	79.4565
420.41	86.4164	420.41	86.2727	420.41	86.4616	420.41	86.0366	420.41	86.4117	420.41	85.7255	420.41	86.2792	420.41	85.3701	420.41	86.088	420.41	85.0119	420.41	85.8673	420.41	84.6867	420.41	85.6301	420.41	84.3836	420.41	85.349	420.41	84.0078	420.41	84.9602	420.41	83.3931	420.41	84.3929	420.41	82.3548	420.41	83.5867	420.41	80.7413	420.41	82.4757	420.41	78.5335	420.41	80.95	420.41	76.2016	420.41	78.8297	420.41	75.1484	420.41	75.9319	420.41	75.8725	420.41	72.7962	420.41	76.906	420.41	72.5115	420.41	77.266	420.41	74.8348	420.41	76.616
435.059	86.4797	435.059	86.3675	435.059	86.4991	435.059	86.1619	435.059	86.4404	435.059	85.8826	435.059	86.3153	435.059	85.5545	435.059	86.1266	435.059	85.1799	435.059	85.8822	435.059	84.7276	435.059	85.6113	435.059	84.1501	435.059	85.3516	435.059	83.4032	435.059	85.1019	435.059	82.4457	435.059	84.7904	435.059	81.2347	435.059	84.2967	435.059	79.7468	435.059	83.4993	435.059	78.0521	435.059	82.3156	435.059	76.4667	435.059	80.7479	435.059	75.6366	435.059	78.9938	435.059	75.9222	435.059	77.5988	435.059	76.7687	435.059	77.1501	435.059	77.4565	435.059	77.4153	435.059	77.6597
451.172	85.7905	451.172	85.6212	451.172	85.8504	451.172	85.3774	451.172	85.7913	451.172	85.1211	451.172	85.6319	451.172	84.9355	451.172	85.4216	451.172	84.8839	451.172	85.233	451.172	84.9416	451.172	85.1293	451.172	84.9814	451.172	85.1103	451.172	84.8348	451.172	85.0878	451.172	84.3544	451.172	84.9241	451.172	83.4201	451.172	84.4861	451.172	81.9038	451.172	83.6639	451.172	79.6503	451.172	82.3617	451.172	76.6555	451.172	80.4915	451.172	74.1519	451.172	78.0352	451.172	74.5652	451.172	75.4367	451.172	76.11	451.172	74.3317	451.172	76.8319	451.172	75.3044	451.172	76.4833
465.82	86.5544	465.82	86.2186	465.82	86.6742	465.82	85.7153	465.82	86.5498	465.82	85.0977	465.82	86.1898	465.82	84.4329	465.82	85.6388	465.82	83.8323	465.82	84.9585	465.82	83.4432	465.82	84.2284	465.82	83.3306	465.82	83.5878	465.82	83.3656	465.82	83.2377	465.82	83.3075	465.82	83.2543	465.82	82.9482	465.82	83.4096	465.82	82.1514	465.82	83.3351	465.82	80.8373	465.82	82.7588	465.82	79.028	465.82	81.5564	465.82	77.0835	465.82	79.7694	465.82	75.9357	465.82	77.7952	465.82	76.0396	465.82	76.5438	465.82	76.5209	465.82	76.4286	465.82	76.6498
483.398	86.3532	483.398	86.1103	483.398	86.4467	483.398	85.7224	483.398	86.3798	483.398	85.1985	483.398	86.1322	483.398	84.5618	483.398	85.6839	483.398	83.8561	483.398	85.0416	483.398	83.159	483.398	84.2706	483.398	82.5986	483.398	83.5004	483.398	82.2856	483.398	82.8605	483.398	82.1348	483.398	82.3822	483.398	81.8331	483.398	81.9867	483.398	81.0566	483.398	81.5573	483.398	79.6947	483.398	80.9857	483.398	78.0608	483.398	80.1927	483.398	76.954	483.398	79.1822	483.398	76.7977	483.398	78.1285	483.398	77.0555	483.398	77.3716	483.398	77.2163	483.398	77.1209	483.398	77.1815
499.512	87.8392	499.512	87.6441	499.512	87.8469	499.512	87.2597	499.512	87.687	499.512	86.6945	499.512	87.394	499.512	85.9662	499.512	86.9961	499.512	85.1071	499.512	86.4911	499.512	84.1613	499.512	85.8484	499.512	83.1664	499.512	85.045	499.512	82.1518	499.512	84.1081	499.512	81.1775	499.512	83.1296	499.512	80.3359	499.512	82.2298	499.512	79.6326	499.512	81.4607	499.512	78.943	499.512	80.7299	499.512	78.2831	499.512	79.8852	499.512	78.0455	499.512	78.9327	499.512	78.4975	499.512	78.2134	499.512	79.1909	499.512	78.1914	499.512	79.5531	499.512	78.7734	499.512	79.3735
517.09	87.4222	517.09	87.331	517.09	87.3708	517.09	87.0706	517.09	87.2094	517.09	86.6556	517.09	86.9564	517.09	86.1525	517.09	86.6256	517.09	85.6456	517.09	86.2336	517.09	85.1732	517.09	85.7874	517.09	84.6824	517.09	85.2851	517.09	84.0532	517.09	84.7408	517.09	83.1742	517.09	84.1672	517.09	81.9995	517.09	83.4834	517.09	80.5361	517.09	82.4774	517.09	78.7978	517.09	80.9192	517.09	76.9991	517.09	78.7847	517.09	76.2773	517.09	76.7595	517.09	77.5331	517.09	76.4401	517.09	79.2409	517.09	77.7935	517.09	80.197	517.09	79.2906	517.09	80.1803
536.133	87.4436	536.133	87.1696	536.133	87.5476	536.133	86.7824	536.133	87.4459	536.133	86.3093	536.133	87.1493	536.133	85.7432	536.133	86.6907	536.133	85.0983	536.133	86.1	536.133	84.4564	536.133	85.4148	536.133	83.9154	536.133	84.6974	536.133	83.4479	536.133	84.0137	536.133	82.8421	536.133	83.3958	536.133	81.8246	536.133	82.8215	536.133	80.215	536.133	82.1843	536.133	78.1147	536.133	81.2741	536.133	76.3316	536.133	79.8838	536.133	76.0375	536.133	78.1528	536.133	76.8708	536.133	77.0482	536.133	77.8331	536.133	77.3551	536.133	78.4751	536.133	78.1656	536.133	78.6062
555.176	87.1392	555.176	87.001	555.176	87.1331	555.176	86.6864	555.176	87.0154	555.176	86.195	555.176	86.8005	555.176	85.5692	555.176	86.4835	555.176	84.8638	555.176	86.0454	555.176	84.1044	555.176	85.4786	555.176	83.2954	555.176	84.8252	555.176	82.4759	555.176	84.162	555.176	81.7126	555.176	83.4937	555.176	80.953	555.176	82.6854	555.176	79.9103	555.176	81.5592	555.176	78.2242	555.176	80.0354	555.176	75.8626	555.176	78.142	555.176	74.0787	555.176	75.9612	555.176	74.8734	555.176	74.0635	555.176	76.6105	555.176	74.1436	555.176	77.5211	555.176	75.895	555.176	77.2614
574.219	86.995	574.219	86.7383	574.219	87.0514	574.219	86.3107	574.219	86.8986	574.219	85.7782	574.219	86.5288	574.219	85.2158	574.219	85.9731	574.219	84.6834	574.219	85.3539	574.219	84.2296	574.219	84.8177	574.219	83.8634	574.219	84.3653	574.219	83.4842	574.219	83.8796	574.219	82.8933	574.219	83.3545	574.219	81.901	574.219	82.8929	574.219	80.3453	574.219	82.4002	574.219	77.9593	574.219	81.4878	574.219	74.4438	574.219	79.7117	574.219	71.8052	574.219	76.8874	574.219	74.0153	574.219	74.3318	574.219	76.5126	574.219	75.0622	574.219	77.728	574.219	76.9186	574.219	77.8529
594.727	86.9068	594.727	86.7034	594.727	86.8902	594.727	86.2618	594.727	86.7071	594.727	85.5997	594.727	86.4201	594.727	84.7926	594.727	86.0309	594.727	83.9771	594.727	85.4572	594.727	83.2715	594.727	84.6463	594.727	82.7125	594.727	83.7351	594.727	82.3102	594.727	83.0276	594.727	82.0006	594.727	82.6547	594.727	81.5123	594.727	82.3401	594.727	80.4745	594.727	81.6365	594.727	78.6847	594.727	80.1836	594.727	76.4423	594.727	77.7699	594.727	74.9965	594.727	74.506	594.727	75.4353	594.727	71.8815	594.727	76.5873	594.727	72.4274	594.727	77.0348	594.727	74.5646	594.727	76.3141
615.234	86.3728	615.234	86.1173	615.234	86.4637	615.234	85.7425	615.234	86.3534	615.234	85.2761	615.234	86.0149	615.234	84.6854	615.234	85.4515	615.234	83.9153	615.234	84.725	615.234	83.0254	615.234	83.9381	615.234	82.2334	615.234	83.1764	615.234	81.684	615.234	82.4932	615.234	81.2602	615.234	81.9397	615.234	80.7532	615.234	81.5271	615.234	79.9767	615.234	81.143	615.234	78.6722	615.234	80.5827	615.234	76.4936	615.234	79.6292	615.234	73.3595	615.234	78.0447	615.234	70.8458	615.234	75.6485	615.234	71.4987	615.234	73.2086	615.234	73.1128	615.234	72.9906	615.234	73.654
637.207	87.0188	637.207	86.7364	637.207	87.0665	637.207	86.2185	637.207	86.8677	637.207	85.4667	637.207	86.4297	637.207	84.5449	637.207	85.7907	637.207	83.5832	637.207	85.0056	637.207	82.7022	637.207	84.1502	637.207	82.0103	637.207	83.3208	637.207	81.6408	637.207	82.59	637.207	81.5406	637.207	82.0084	637.207	81.3526	637.207	81.6599	637.207	80.7203	637.207	81.4632	637.207	79.4537	637.207	80.9765	637.207	77.4794	637.207	79.6928	637.207	75.2347	637.207	77.4185	637.207	74.9613	637.207	75.122	637.207	76.8689	637.207	75.2232	637.207	78.1594	637.207	76.8597	637.207	78.0674
659.18	86.6914	659.18	86.5424	659.18	86.7022	659.18	86.2077	659.18	86.6011	659.18	85.6792	659.18	86.3528	659.18	84.985	659.18	85.9275	659.18	84.1676	659.18	85.3575	659.18	83.2834	659.18	84.6561	659.18	82.393	659.18	83.762	659.18	81.5281	659.18	82.7169	659.18	80.6718	659.18	81.8024	659.18	79.7343	659.18	81.1585	659.18	78.4834	659.18	80.4019	659.18	76.6567	659.18	79.0582	659.18	74.6523	659.18	77.1023	659.18	74.2203	659.18	74.9602	659.18	75.3517	659.18	73.3602	659.18	76.2779	659.18	73.66	659.18	76.5937	659.18	75.2646	659.18	76.3326
682.617	86.6294	682.617	86.2856	682.617	86.6995	682.617	85.7229	682.617	86.5152	682.617	85.0275	682.617	86.1389	682.617	84.2925	682.617	85.5651	682.617	83.5947	682.617	84.745	682.617	82.9365	682.617	83.8022	682.617	82.2561	682.617	83.0463	682.617	81.5469	682.617	82.5423	682.617	80.8887	682.617	81.992	682.617	80.2684	682.617	81.244	682.617	79.4215	682.617	80.4864	682.617	77.9393	682.617	79.7571	682.617	75.5562	682.617	78.6344	682.617	73.101	682.617	76.5893	682.617	73.3646	682.617	73.6238	682.617	75.1989	682.617	72.2862	682.617	76.2093	682.617	74.2335	682.617	75.9075
707.52	86.5298	707.52	86.2162	707.52	86.6007	707.52	85.7122	707.52	86.3902	707.52	85.0411	707.52	85.9103	707.52	84.1768	707.52	85.2604	707.52	83.1285	707.52	84.5447	707.52	82.0552	707.52	83.711	707.52	81.2765	707.52	82.6761	707.52	81.0099	707.52	81.6869	707.52	80.9446	707.52	81.162	707.52	80.5026	707.52	80.9412	707.52	79.3857	707.52	80.4781	707.52	77.5145	707.52	79.4894	707.52	74.7487	707.52	77.8732	707.52	71.42	707.52	75.4064	707.52	71.7849	707.52	71.8405	707.52	75.3771	707.52	70.5146	707.52	77.3935	707.52	74.4574	707.52	77.1221
732.422	86.3492	732.422	86.1259	732.422	86.2977	732.422	85.5529	732.422	86.1016	732.422	84.7243	732.422	85.7749	732.422	83.8259	732.422	85.2037	732.422	82.9386	732.422	84.3551	732.422	82.0314	732.422	83.4232	732.422	81.1674	732.422	82.6165	732.422	80.4878	732.422	81.8697	732.422	79.9243	732.422	81.0926	732.422	79.2011	732.422	80.4905	732.422	78.0386	732.422	80.1603	732.422	76.1097	732.422	79.6559	732.422	72.9418	732.422	78.3066	732.422	69.0549	732.422	75.4653	732.422	70.2825	732.422	70.5879	732.422	73.6781	732.422	67.4554	732.422	75.1031	732.422	71.3912	732.422	74.3344
757.324	86.3461	757.324	86.0689	757.324	86.4135	757.324	85.5309	757.324	86.2889	757.324	84.6912	757.324	85.9403	757.324	83.6122	757.324	85.3012	757.324	82.4692	757.324	84.359	757.324	81.3703	757.324	83.2256	757.324	80.44	757.324	82.0714	757.324	80.0748	757.324	81.0781	757.324	80.2393	757.324	80.5032	757.324	80.1462	757.324	80.399	757.324	79.2259	757.324	80.3295	757.324	77.3197	757.324	79.8772	757.324	74.021	757.324	78.9015	757.324	69.129	757.324	77.108	757.324	70.3182	757.324	73.6591	757.324	73.4481	757.324	69.1782	757.324	74.1444	757.324	70.9359	757.324	73.3049
785.156	86.9128	785.156	86.489	785.156	87.0568	785.156	85.9059	785.156	86.8417	785.156	85.1955	785.156	86.2683	785.156	84.1931	785.156	85.4342	785.156	82.7783	785.156	84.4642	785.156	81.233	785.156	83.4238	785.156	79.9916	785.156	82.3634	785.156	78.9977	785.156	81.397	785.156	78.3691	785.156	80.5422	785.156	78.6755	785.156	79.6895	785.156	79.0499	785.156	79.0373	785.156	77.8607	785.156	78.8282	785.156	74.1498	785.156	78.5025	785.156	68.6568	785.156	76.8334	785.156	69.0863	785.156	72.4819	785.156	72.3818	785.156	68.3958	785.156	74.7296	785.156	72.8567	785.156	75.1333
811.523	87.1889	811.523	86.845	811.523	87.188	811.523	86.1918	811.523	86.8594	811.523	85.2597	811.523	86.3399	811.523	84.1483	811.523	85.7033	811.523	82.9488	811.523	84.8224	811.523	81.5647	811.523	83.5746	811.523	80.1135	811.523	82.072	811.523	79.4994	811.523	80.622	811.523	79.7934	811.523	79.6914	811.523	79.8951	811.523	79.8131	811.523	79.4655	811.523	80.6523	811.523	78.3851	811.523	81.0334	811.523	75.9552	811.523	80.0037	811.523	71.285	811.523	77.263	811.523	68.6555	811.523	73.3581	811.523	72.1917	811.523	69.7836	811.523	73.7424	811.523	70.0438	811.523	72.7687
840.82	87.6872	840.82	87.4133	840.82	87.7269	840.82	86.8818	840.82	87.4968	840.82	85.9417	840.82	87.075	840.82	84.615	840.82	86.4645	840.82	83.1912	840.82	85.487	840.82	81.7723	840.82	84.1108	840.82	80.0832	840.82	82.5816	840.82	78.2715	840.82	81.0343	840.82	77.5203	840.82	79.5316	840.82	78.2168	840.82	78.6098	840.82	78.663	840.82	78.4242	840.82	78.0632	840.82	78.2974	840.82	76.1839	840.82	77.9718	840.82	72.1463	840.82	77.273	840.82	67.6013	840.82	75.254	840.82	71.5124	840.82	71.387	840.82	74.1004	840.82	71.408	840.82	73.9335
870.117	88.1405	870.117	87.7953	870.117	88.1744	870.117	87.0465	870.117	87.974	870.117	86.1484	870.117	87.4057	870.117	85.2362	870.117	86.5451	870.117	83.9897	870.117	85.6509	870.117	82.2857	870.117	84.5791	870.117	80.6896	870.117	83.0293	870.117	79.8725	870.117	81.2914	870.117	79.4787	870.117	79.8453	870.117	79.2274	870.117	78.8017	870.117	79.2782	870.117	78.9797	870.117	78.9041	870.117	80.189	870.117	76.9695	870.117	80.5021	870.117	72.7271	870.117	78.683	870.117	66.7617	870.117	74.615	870.117	70.4999	870.117	70.1863	870.117	74.129	870.117	71.2246	870.117	74.0565
900.879	88.112	900.879	87.7626	900.879	88.1713	900.879	87.316	900.879	87.8027	900.879	86.491	900.879	87.28	900.879	85.144	900.879	86.5397	900.879	83.8112	900.879	85.192	900.879	82.711	900.879	83.4726	900.879	80.958	900.879	81.9823	900.879	78.2688	900.879	80.2107	900.879	76.6791	900.879	77.6757	900.879	77.9298	900.879	76.4808	900.879	79.2552	900.879	77.5191	900.879	79.6238	900.879	78.3872	900.879	78.8016	900.879	78.7217	900.879	75.2795	900.879	78.3201	900.879	66.5134	900.879	75.9179	900.879	63.2906	900.879	69.2966	900.879	65.7814	900.879	63.069	900.879	66.1418
933.105	88.3482	933.105	87.9475	933.105	88.4395	933.105	87.1426	933.105	88.1415	933.105	86.1081	933.105	87.3846	933.105	85.0485	933.105	86.3566	933.105	83.6042	933.105	85.2016	933.105	81.7208	933.105	83.7867	933.105	80.246	933.105	82.0993	933.105	79.0164	933.105	80.4269	933.105	76.7083	933.105	78.8971	933.105	75.2787	933.105	77.1821	933.105	76.834	933.105	75.643	933.105	78.3256	933.105	75.6517	933.105	78.071	933.105	76.2456	933.105	75.8573	933.105	75.9931	933.105	71.5147	933.105	74.5489	933.105	68.5424	933.105	72.3729	933.105	72.1248	933.105	70.9701	933.105	72.3351
965.332	87.862	965.332	87.5658	965.332	87.7462	965.332	86.7962	965.332	87.6069	965.332	85.7696	965.332	87.3106	965.332	84.5722	965.332	86.3335	965.332	83.4446	965.332	84.7903	965.332	82.2827	965.332	83.2586	965.332	80.2809	965.332	81.8044	965.332	77.7933	965.332	79.9507	965.332	77.1665	965.332	77.6661	965.332	77.6315	965.332	76.0238	965.332	76.4868	965.332	75.551	965.332	74.5218	965.332	75.9313	965.332	73.6011	965.332	76.2052	965.332	71.8262	965.332	75.0343	965.332	69.7844	965.332	72.0453	965.332	72.2566	965.332	68.0697	965.332	73.7864	965.332	70.748	965.332	73.3398
1,000.49	87.1573	1,000.49	86.8435	1,000.49	87.2528	1,000.49	86.2248	1,000.49	86.974	1,000.49	85.3931	1,000.49	86.3757	1,000.49	84.4986	1,000.49	85.6818	1,000.49	83.2166	1,000.49	84.7665	1,000.49	81.3506	1,000.49	83.4726	1,000.49	79.2317	1,000.49	81.8683	1,000.49	77.0492	1,000.49	79.906	1,000.49	75.2086	1,000.49	77.613	1,000.49	74.7568	1,000.49	75.1775	1,000.49	75.6515	1,000.49	74.099	1,000.49	76.3295	1,000.49	74.0656	1,000.49	75.7698	1,000.49	74.3297	1,000.49	72.7836	1,000.49	74.6366	1,000.49	68.7414	1,000.49	72.0832	1,000.49	72.4685	1,000.49	63.6104	1,000.49	74.9698	1,000.49	70.4313	1,000.49	74.6773
1,035.64	86.6201	1,035.64	86.4612	1,035.64	86.8832	1,035.64	86.0086	1,035.64	86.9366	1,035.64	85.0708	1,035.64	86.2416	1,035.64	83.8859	1,035.64	85.0556	1,035.64	82.6673	1,035.64	84.0643	1,035.64	81.2249	1,035.64	83.016	1,035.64	79.3667	1,035.64	81.4638	1,035.64	77.269	1,035.64	79.6992	1,035.64	75.203	1,035.64	77.5263	1,035.64	74.1345	1,035.64	74.8682	1,035.64	74.987	1,035.64	73.6792	1,035.64	75.0139	1,035.64	75.3497	1,035.64	71.9676	1,035.64	76.3406	1,035.64	65.7258	1,035.64	74.5404	1,035.64	58.2861	1,035.64	70.3427	1,035.64	66.0402	1,035.64	61.6067	1,035.64	69.823	1,035.64	61.8858	1,035.64	69.1852
1,072.27	86.1213	1,072.27	85.8542	1,072.27	86.0941	1,072.27	85.0373	1,072.27	85.781	1,072.27	83.8383	1,072.27	85.0096	1,072.27	82.7004	1,072.27	83.9508	1,072.27	81.6504	1,072.27	82.8976	1,072.27	80.3993	1,072.27	81.9469	1,072.27	78.5538	1,072.27	80.8112	1,072.27	75.8513	1,072.27	79.0721	1,072.27	72.8279	1,072.27	76.6637	1,072.27	73.0863	1,072.27	73.8443	1,072.27	74.8037	1,072.27	72.1437	1,072.27	75.8125	1,072.27	72.9827	1,072.27	75.6181	1,072.27	74.3363	1,072.27	73.382	1,072.27	75.3553	1,072.27	63.641	1,072.27	74.5537	1,072.27	69.8495	1,072.27	67.9051	1,072.27	73.4913	1,072.27	61.1336	1,072.27	70.6779
1,108.89	86.2372	1,108.89	85.5432	1,108.89	86.4489	1,108.89	84.6013	1,108.89	86.0452	1,108.89	83.1071	1,108.89	85.3276	1,108.89	81.1539	1,108.89	84.3283	1,108.89	79.7381	1,108.89	82.6575	1,108.89	78.9451	1,108.89	80.3958	1,108.89	77.7058	1,108.89	78.6244	1,108.89	75.5308	1,108.89	77.6673	1,108.89	72.3647	1,108.89	76.3524	1,108.89	68.3832	1,108.89	74.0569	1,108.89	69.8115	1,108.89	71.2013	1,108.89	73.4378	1,108.89	71.0386	1,108.89	73.434	1,108.89	74.5414	1,108.89	69.743	1,108.89	76.1911	1,108.89	62.5476	1,108.89	74.6969	1,108.89	49.8923	1,108.89	70.0168	1,108.89	65.9106	1,108.89	56.8247	1,108.89	64.3653
1,148.44	85.8951	1,148.44	85.4018	1,148.44	86.0391	1,148.44	84.5857	1,148.44	85.6197	1,148.44	83.0252	1,148.44	84.7805	1,148.44	80.9929	1,148.44	83.5401	1,148.44	79.2651	1,148.44	81.8358	1,148.44	77.7133	1,148.44	80.0013	1,148.44	76.5916	1,148.44	78.6076	1,148.44	75.7731	1,148.44	77.8695	1,148.44	73.9003	1,148.44	76.709	1,148.44	69.5049	1,148.44	73.8483	1,148.44	68.9314	1,148.44	69.535	1,148.44	73.8745	1,148.44	65.4377	1,148.44	74.9989	1,148.44	68.8909	1,148.44	71.8726	1,148.44	73.2866	1,148.44	63.8908	1,148.44	74.1852	1,148.44	54.0429	1,148.44	71.1354	1,148.44	57.6139	1,148.44	63.461	1,148.44	53.2691
1,189.45	86.1909	1,189.45	85.6059	1,189.45	86.2579	1,189.45	84.0318	1,189.45	86.1173	1,189.45	82.5214	1,189.45	85.0999	1,189.45	81.1744	1,189.45	83.6703	1,189.45	79.0877	1,189.45	82.4302	1,189.45	77.0128	1,189.45	80.9815	1,189.45	75.9108	1,189.45	79.3238	1,189.45	75.0497	1,189.45	77.0353	1,189.45	72.8289	1,189.45	74.8204	1,189.45	68.4755	1,189.45	73.9741	1,189.45	68.0249	1,189.45	71.7714	1,189.45	73.0353	1,189.45	70.1303	1,189.45	74.6987	1,189.45	73.9266	1,189.45	73.451	1,189.45	75.7587	1,189.45	72.6276	1,189.45	75.5176	1,189.45	68.4765	1,189.45	73.4611	1,189.45	63.6423	1,189.45	71.6429	1,189.45	68.5678
1,230.47	86.5775	1,230.47	85.9121	1,230.47	86.7712	1,230.47	84.9455	1,230.47	86.4885	1,230.47	83.7876	1,230.47	85.6666	1,230.47	82.0932	1,230.47	84.4222	1,230.47	79.6664	1,230.47	82.8964	1,230.47	76.6401	1,230.47	80.8167	1,230.47	74.4079	1,230.47	78.2844	1,230.47	74.2917	1,230.47	76.2077	1,230.47	74.3221	1,230.47	75.2388	1,230.47	71.6848	1,230.47	74.6961	1,230.47	60.1576	1,230.47	72.8105	1,230.47	66.6344	1,230.47	67.0447	1,230.47	71.8011	1,230.47	64.7247	1,230.47	74.7956	1,230.47	71.7848	1,230.47	74.1964	1,230.47	74.7902	1,230.47	69.42	1,230.47	74.8928	1,230.47	66.9312	1,230.47	71.7648	1,230.47	68.7739
1,274.41	86.352	1,274.41	85.8561	1,274.41	86.4948	1,274.41	84.7531	1,274.41	86.0978	1,274.41	83.4501	1,274.41	85.1758	1,274.41	82.1938	1,274.41	84.0157	1,274.41	80.0344	1,274.41	82.735	1,274.41	77.4058	1,274.41	81.0439	1,274.41	74.8909	1,274.41	78.6055	1,274.41	73.655	1,274.41	75.7732	1,274.41	74.2896	1,274.41	73.161	1,274.41	74.0185	1,274.41	73.4662	1,274.41	69.4537	1,274.41	72.9165	1,274.41	61.9102	1,274.41	69.1224	1,274.41	71.1032	1,274.41	59.4444	1,274.41	73.8767	1,274.41	70.8819	1,274.41	74.6772	1,274.41	74.4904	1,274.41	73.9551	1,274.41	74.9852	1,274.41	72.3081	1,274.41	74.3768	1,274.41	72.7415
1,319.82	86.691	1,319.82	85.8549	1,319.82	86.8319	1,319.82	84.5748	1,319.82	86.0245	1,319.82	83.319	1,319.82	84.7192	1,319.82	81.7996	1,319.82	83.5465	1,319.82	80.1764	1,319.82	82.0677	1,319.82	78.6911	1,319.82	80.3917	1,319.82	76.3609	1,319.82	78.6017	1,319.82	72.1823	1,319.82	75.9022	1,319.82	71.1347	1,319.82	72.4977	1,319.82	74.0781	1,319.82	70.9404	1,319.82	73.7105	1,319.82	72.8777	1,319.82	66.7036	1,319.82	72.9508	1,319.82	65.0932	1,319.82	65.8768	1,319.82	74.2622	1,319.82	62.1972	1,319.82	76.871	1,319.82	73.12	1,319.82	77.0047	1,319.82	75.7947	1,319.82	77.3527	1,319.82	76.7433	1,319.82	77.6634
1,366.7	87.6922	1,366.7	86.7527	1,366.7	87.705	1,366.7	85.2862	1,366.7	86.8851	1,366.7	83.5402	1,366.7	85.5081	1,366.7	81.2458	1,366.7	83.6078	1,366.7	79.8844	1,366.7	81.3299	1,366.7	79.579	1,366.7	80.0003	1,366.7	78.2111	1,366.7	79.0276	1,366.7	74.6527	1,366.7	78.0362	1,366.7	69.7762	1,366.7	76.2635	1,366.7	72.9352	1,366.7	71.3697	1,366.7	74.4281	1,366.7	71.5443	1,366.7	72.4088	1,366.7	74.5633	1,366.7	65.3568	1,366.7	73.4546	1,366.7	67.0307	1,366.7	65.3843	1,366.7	74.9147	1,366.7	67.7071	1,366.7	78.68	1,366.7	74.5603	1,366.7	79.463	1,366.7	77.8365	1,366.7	78.8066
1,413.57	87.688	1,413.57	87.0339	1,413.57	87.7839	1,413.57	85.9398	1,413.57	86.8604	1,413.57	84.197	1,413.57	85.6941	1,413.57	81.9084	1,413.57	84.2509	1,413.57	79.3951	1,413.57	81.8198	1,413.57	78.2711	1,413.57	78.9607	1,413.57	77.6747	1,413.57	78.2819	1,413.57	75.5237	1,413.57	78.3999	1,413.57	73.595	1,413.57	76.1592	1,413.57	72.9258	1,413.57	73.7237	1,413.57	74.9304	1,413.57	71.2064	1,413.57	75.8722	1,413.57	72.2741	1,413.57	71.6045	1,413.57	73.2472	1,413.57	61.5967	1,413.57	71.145	1,413.57	67.6583	1,413.57	63.6603	1,413.57	74.381	1,413.57	64.1075	1,413.57	75.703	1,413.57	73.0213	1,413.57	76.3467
1,463.38	86.5251	1,463.38	86.1169	1,463.38	86.3317	1,463.38	85.2184	1,463.38	86.0521	1,463.38	83.6602	1,463.38	85.3283	1,463.38	81.4782	1,463.38	84.104	1,463.38	79.6505	1,463.38	81.8819	1,463.38	77.5198	1,463.38	79.601	1,463.38	77.4676	1,463.38	77.1986	1,463.38	76.9206	1,463.38	76.0951	1,463.38	73.6446	1,463.38	76.5615	1,463.38	69.9733	1,463.38	74.3085	1,463.38	74.0721	1,463.38	67.902	1,463.38	75.7087	1,463.38	68.8324	1,463.38	72.8844	1,463.38	73.306	1,463.38	64.8909	1,463.38	72.1409	1,463.38	68.9525	1,463.38	69.4379	1,463.38	75.7617	1,463.38	65.4817	1,463.38	78.0939	1,463.38	73.8631	1,463.38	76.8949
1,516.11	85.6162	1,516.11	85.2874	1,516.11	85.3823	1,516.11	83.7571	1,516.11	85.141	1,516.11	82.3821	1,516.11	84.5644	1,516.11	81.7255	1,516.11	83.0126	1,516.11	79.3248	1,516.11	82.1965	1,516.11	76.8489	1,516.11	80.6934	1,516.11	76.3246	1,516.11	77.5554	1,516.11	76.078	1,516.11	75.3075	1,516.11	73.8743	1,516.11	74.237	1,516.11	70.3302	1,516.11	74.7311	1,516.11	71.218	1,516.11	70.8966	1,516.11	73.4277	1,516.11	68.2927	1,516.11	75.1895	1,516.11	71.868	1,516.11	69.389	1,516.11	73.7929	1,516.11	62.8624	1,516.11	73.2605	1,516.11	72.2408	1,516.11	68.006	1,516.11	75.1555	1,516.11	63.6295	1,516.11	72.6578
1,568.85	85.3355	1,568.85	84.7706	1,568.85	85.7504	1,568.85	83.231	1,568.85	85.4289	1,568.85	81.9421	1,568.85	84.078	1,568.85	80.5302	1,568.85	83.059	1,568.85	77.8125	1,568.85	81.8863	1,568.85	75.2963	1,568.85	79.3067	1,568.85	74.1003	1,568.85	77.7949	1,568.85	73.4148	1,568.85	75.5612	1,568.85	73.6365	1,568.85	74.9862	1,568.85	70.0434	1,568.85	74.3617	1,568.85	63.6138	1,568.85	72.4669	1,568.85	69.097	1,568.85	68.9186	1,568.85	73.2448	1,568.85	69.9544	1,568.85	72.5988	1,568.85	73.3909	1,568.85	66.5636	1,568.85	72.7443	1,568.85	68.1976	1,568.85	67.4001	1,568.85	73.3384	1,568.85	64.1182	1,568.85	71.5497
1,624.51	86.0635	1,624.51	85.0067	1,624.51	86.1139	1,624.51	83.9264	1,624.51	85.5898	1,624.51	82.3018	1,624.51	84.4487	1,624.51	79.9488	1,624.51	83.342	1,624.51	78.2853	1,624.51	81.2663	1,624.51	77.7109	1,624.51	80.2711	1,624.51	73.0236	1,624.51	78.7725	1,624.51	73.1756	1,624.51	77.4123	1,624.51	73.9212	1,624.51	76.1073	1,624.51	73.1413	1,624.51	73.2157	1,624.51	70.2932	1,624.51	74.8861	1,624.51	63.5632	1,624.51	71.5998	1,624.51	72.5197	1,624.51	68.0633	1,624.51	71.1565	1,624.51	71.999	1,624.51	68.1316	1,624.51	73.2631	1,624.51	67.2168	1,624.51	70.918	1,624.51	69.3272	1,624.51	65.8034	1,624.51	69.9789
1,681.64	86.6023	1,681.64	85.7657	1,681.64	86.8395	1,681.64	85.2227	1,681.64	86.4246	1,681.64	83.3108	1,681.64	85.9085	1,681.64	81.3308	1,681.64	83.4126	1,681.64	79.5047	1,681.64	80.6527	1,681.64	75.8107	1,681.64	79.5651	1,681.64	75.9238	1,681.64	77.2072	1,681.64	71.5415	1,681.64	76.2424	1,681.64	71.1668	1,681.64	72.1283	1,681.64	73.3085	1,681.64	71.3366	1,681.64	66.7962	1,681.64	73.2663	1,681.64	69.2034	1,681.64	73.6872	1,681.64	71.4667	1,681.64	69.7181	1,681.64	75.1794	1,681.64	72.1838	1,681.64	72.5573	1,681.64	76.3402	1,681.64	62.6085	1,681.64	73.442	1,681.64	60.6041	1,681.64	69.8726	1,681.64	61.8774
1,741.7	86.6387	1,741.7	86.2369	1,741.7	86.7713	1,741.7	85.0016	1,741.7	86.2676	1,741.7	82.8968	1,741.7	85.883	1,741.7	81.6527	1,741.7	84.2421	1,741.7	80.0444	1,741.7	82.4144	1,741.7	78.3121	1,741.7	79.8742	1,741.7	77.2989	1,741.7	78.7547	1,741.7	76.2659	1,741.7	76.4639	1,741.7	73.6777	1,741.7	75.2312	1,741.7	72.8762	1,741.7	74.2131	1,741.7	73.3118	1,741.7	74.3317	1,741.7	69.3672	1,741.7	72.7654	1,741.7	67.6945	1,741.7	69.5947	1,741.7	70.9983	1,741.7	66.8265	1,741.7	68.5159	1,741.7	70.4033	1,741.7	60.3204	1,741.7	72.5789	1,741.7	46.981	1,741.7	65.8326	1,741.7	65.3568
1,803.22	86.1739	1,803.22	85.523	1,803.22	86.0793	1,803.22	84.3417	1,803.22	85.8132	1,803.22	83.136	1,803.22	84.6665	1,803.22	81.5521	1,803.22	83.2599	1,803.22	79.8267	1,803.22	81.4551	1,803.22	78.0721	1,803.22	78.963	1,803.22	75.6539	1,803.22	77.2185	1,803.22	74.4346	1,803.22	74.8109	1,803.22	73.0474	1,803.22	73.9617	1,803.22	71.3536	1,803.22	72.6559	1,803.22	70.546	1,803.22	71.3866	1,803.22	68.935	1,803.22	70.6552	1,803.22	67.7159	1,803.22	68.3652	1,803.22	69.7218	1,803.22	66.1116	1,803.22	69.1561	1,803.22	69.3961	1,803.22	62.3136	1,803.22	68.9671	1,803.22	68.9238	1,803.22	63.1778	1,803.22	67.8362
1,866.21	84.6601	1,866.21	84.117	1,866.21	84.7002	1,866.21	83.3273	1,866.21	84.1291	1,866.21	81.7339	1,866.21	83.5206	1,866.21	80.052	1,866.21	82.0294	1,866.21	78.545	1,866.21	80.7123	1,866.21	77.4019	1,866.21	78.5423	1,866.21	75.3882	1,866.21	77.0936	1,866.21	73.3361	1,866.21	74.9302	1,866.21	71.5316	1,866.21	72.1853	1,866.21	71.3703	1,866.21	70.7536	1,866.21	71.0262	1,866.21	69.7987	1,866.21	69.9591	1,866.21	71.4421	1,866.21	69.1088	1,866.21	69.8362	1,866.21	69.74	1,866.21	65.6918	1,866.21	66.7799	1,866.21	68.7351	1,866.21	55.833	1,866.21	71.5246	1,866.21	59.2392	1,866.21	64.6878	1,866.21	53.0057
1,932.13	84.1336	1,932.13	83.9192	1,932.13	84.2894	1,932.13	82.4012	1,932.13	83.7351	1,932.13	81.3792	1,932.13	83.0623	1,932.13	80.0238	1,932.13	82.0691	1,932.13	77.8495	1,932.13	80.3938	1,932.13	75.8979	1,932.13	78.9793	1,932.13	74.3519	1,932.13	76.4752	1,932.13	72.8336	1,932.13	75.3684	1,932.13	70.2004	1,932.13	73.3333	1,932.13	67.5834	1,932.13	71.0817	1,932.13	69.5604	1,932.13	67.7342	1,932.13	67.4953	1,932.13	71.0519	1,932.13	65.8205	1,932.13	69.8837	1,932.13	71.6262	1,932.13	67.738	1,932.13	72.1262	1,932.13	68.2127	1,932.13	63.1649	1,932.13	69.4102	1,932.13	62.3233	1,932.13	67.8526	1,932.13	62.3936
1,999.51	84.8357	1,999.51	83.9886	1,999.51	84.7681	1,999.51	83.3092	1,999.51	84.4828	1,999.51	81.7932	1,999.51	83.5234	1,999.51	80.1645	1,999.51	82.3207	1,999.51	78.7451	1,999.51	81.1111	1,999.51	76.752	1,999.51	79.9978	1,999.51	74.3863	1,999.51	77.9276	1,999.51	71.9874	1,999.51	75.5355	1,999.51	70.5465	1,999.51	74.3837	1,999.51	71.4201	1,999.51	71.8576	1,999.51	71.2452	1,999.51	71.5663	1,999.51	69.645	1,999.51	69.1304	1,999.51	65.4452	1,999.51	71.2829	1,999.51	67.6745	1,999.51	67.1345	1,999.51	68.4708	1,999.51	68.0953	1,999.51	65.3776	1,999.51	69.9368	1,999.51	63.6609	1,999.51	67.8761	1,999.51	60.7127
2,069.82	85.4347	2,069.82	85.0033	2,069.82	85.5524	2,069.82	83.9895	2,069.82	85.0268	2,069.82	82.3881	2,069.82	84.1365	2,069.82	80.9588	2,069.82	83.0158	2,069.82	79.3684	2,069.82	81.6627	2,069.82	77.5322	2,069.82	80.0151	2,069.82	75.5126	2,069.82	78.816	2,069.82	73.2515	2,069.82	75.9456	2,069.82	70.7023	2,069.82	72.9423	2,069.82	68.5174	2,069.82	72.4558	2,069.82	68.9738	2,069.82	69.6782	2,069.82	68.0198	2,069.82	70.9962	2,069.82	65.7956	2,069.82	71.0924	2,069.82	68.2966	2,069.82	67.4933	2,069.82	70.2678	2,069.82	65.0516	2,069.82	63.572	2,069.82	69.6049	2,069.82	59.4959	2,069.82	67.5282	2,069.82	65.182
2,143.07	85.6427	2,143.07	85.3157	2,143.07	85.4779	2,143.07	84.5035	2,143.07	85.11	2,143.07	83.3763	2,143.07	84.0722	2,143.07	81.8476	2,143.07	82.9358	2,143.07	79.9544	2,143.07	81.2736	2,143.07	77.84	2,143.07	79.6471	2,143.07	75.9964	2,143.07	77.9353	2,143.07	74.37	2,143.07	76.5372	2,143.07	73.0536	2,143.07	74.7851	2,143.07	69.5342	2,143.07	71.3695	2,143.07	71.1509	2,143.07	69.9523	2,143.07	71.4823	2,143.07	69.7273	2,143.07	66.8435	2,143.07	71.0749	2,143.07	64.4596	2,143.07	69.6793	2,143.07	67.3354	2,143.07	66.2703	2,143.07	68.5464	2,143.07	68.2266	2,143.07	67.1765	2,143.07	68.7269	2,143.07	66.1742
2,219.24	84.9044	2,219.24	84.3715	2,219.24	84.8641	2,219.24	84.009	2,219.24	84.3757	2,219.24	82.9233	2,219.24	83.7916	2,219.24	81.2686	2,219.24	82.4926	2,219.24	79.6982	2,219.24	81.0122	2,219.24	77.8986	2,219.24	78.2767	2,219.24	76.1188	2,219.24	76.9768	2,219.24	74.1751	2,219.24	75.5981	2,219.24	71.6836	2,219.24	71.9637	2,219.24	72.3747	2,219.24	70.6498	2,219.24	69.6596	2,219.24	69.5517	2,219.24	70.8275	2,219.24	66.8202	2,219.24	68.7568	2,219.24	68.8222	2,219.24	64.6471	2,219.24	69.4858	2,219.24	68.2541	2,219.24	63.2307	2,219.24	68.2562	2,219.24	66.2337	2,219.24	66.653	2,219.24	68.4837	2,219.24	67.638
2,296.88	85.0503	2,296.88	84.4837	2,296.88	85.2319	2,296.88	83.5708	2,296.88	84.8179	2,296.88	82.233	2,296.88	84.0654	2,296.88	80.8014	2,296.88	82.9614	2,296.88	78.4935	2,296.88	81.9063	2,296.88	76.7496	2,296.88	80.0582	2,296.88	75.1901	2,296.88	77.9337	2,296.88	73.6235	2,296.88	75.0801	2,296.88	72.6115	2,296.88	73.7943	2,296.88	70.9538	2,296.88	72.126	2,296.88	68.6558	2,296.88	69.2169	2,296.88	69.0408	2,296.88	68.6845	2,296.88	69.7627	2,296.88	66.8883	2,296.88	68.0278	2,296.88	70.0624	2,296.88	65.4749	2,296.88	67.4712	2,296.88	66.6047	2,296.88	63.5077	2,296.88	69.1836	2,296.88	62.9859	2,296.88	66.0539
2,378.91	86.7386	2,378.91	86.127	2,378.91	87.002	2,378.91	84.8577	2,378.91	86.7085	2,378.91	83.6068	2,378.91	85.8652	2,378.91	81.6875	2,378.91	84.7039	2,378.91	79.382	2,378.91	83.5437	2,378.91	76.9226	2,378.91	81.8094	2,378.91	74.6888	2,378.91	79.6353	2,378.91	73.3147	2,378.91	77.5667	2,378.91	71.7371	2,378.91	76.5782	2,378.91	70.8145	2,378.91	73.5163	2,378.91	69.2431	2,378.91	72.6164	2,378.91	68.3453	2,378.91	71.4419	2,378.91	66.327	2,378.91	69.6843	2,378.91	66.2658	2,378.91	70.071	2,378.91	65.7681	2,378.91	69.7762	2,378.91	63.6968	2,378.91	68.897	2,378.91	64.6987	2,378.91	68.1167	2,378.91	60.8872
2,462.4	88.6075	2,462.4	88.1105	2,462.4	88.5587	2,462.4	86.9321	2,462.4	88.142	2,462.4	85.7172	2,462.4	87.2208	2,462.4	83.8953	2,462.4	86.3163	2,462.4	82.0374	2,462.4	84.7223	2,462.4	79.8227	2,462.4	83.1013	2,462.4	77.1163	2,462.4	80.7354	2,462.4	74.6519	2,462.4	78.6793	2,462.4	72.5716	2,462.4	76.5712	2,462.4	70.9733	2,462.4	74.5293	2,462.4	69.2303	2,462.4	73.2826	2,462.4	69.4614	2,462.4	71.7216	2,462.4	68.2621	2,462.4	70.7991	2,462.4	65.5635	2,462.4	70.7302	2,462.4	66.9014	2,462.4	70.1345	2,462.4	66.035	2,462.4	70.4226	2,462.4	65.5797	2,462.4	69.8921	2,462.4	69.3634
2,548.83	88.5302	2,548.83	88.0491	2,548.83	88.466	2,548.83	87.1515	2,548.83	87.9191	2,548.83	86.1398	2,548.83	86.9289	2,548.83	84.5364	2,548.83	85.7918	2,548.83	82.6435	2,548.83	84.3072	2,548.83	80.7523	2,548.83	82.7639	2,548.83	78.7619	2,548.83	80.5246	2,548.83	76.5697	2,548.83	78.0181	2,548.83	74.0627	2,548.83	75.8565	2,548.83	72.5076	2,548.83	74.256	2,548.83	71.1986	2,548.83	72.9092	2,548.83	70.2906	2,548.83	71.4743	2,548.83	71.3332	2,548.83	68.144	2,548.83	69.1946	2,548.83	70.1988	2,548.83	68.8947	2,548.83	67.7675	2,548.83	68.2451	2,548.83	69.4001	2,548.83	67.6025	2,548.83	70.2515	2,548.83	68.2749
2,639.65	86.9271	2,639.65	86.2895	2,639.65	87.0907	2,639.65	86.0046	2,639.65	86.5742	2,639.65	84.8734	2,639.65	86.3268	2,639.65	83.7881	2,639.65	84.9369	2,639.65	81.9937	2,639.65	83.686	2,639.65	79.4697	2,639.65	81.6287	2,639.65	77.289	2,639.65	79.6619	2,639.65	76.4884	2,639.65	77.6114	2,639.65	74.1078	2,639.65	76.5512	2,639.65	72.4628	2,639.65	74.0553	2,639.65	71.3002	2,639.65	70.6183	2,639.65	69.5808	2,639.65	70.516	2,639.65	69.8726	2,639.65	68.1591	2,639.65	69.3347	2,639.65	67.2866	2,639.65	68.149	2,639.65	67.4957	2,639.65	64.3974	2,639.65	68.0561	2,639.65	67.7013	2,639.65	67.4304	2,639.65	66.8971
2,731.93	86.3758	2,731.93	86.2016	2,731.93	86.5411	2,731.93	85.2697	2,731.93	86.4724	2,731.93	84.3615	2,731.93	85.9806	2,731.93	82.7761	2,731.93	85.1731	2,731.93	81.2831	2,731.93	83.6872	2,731.93	78.8739	2,731.93	82.0315	2,731.93	77.3406	2,731.93	80.0288	2,731.93	74.6862	2,731.93	77.7021	2,731.93	71.8891	2,731.93	75.8313	2,731.93	71.628	2,731.93	72.8306	2,731.93	71.5013	2,731.93	72.9756	2,731.93	68.7299	2,731.93	72.623	2,731.93	69.6112	2,731.93	70.4251	2,731.93	68.4291	2,731.93	68.1659	2,731.93	69.6344	2,731.93	69.5073	2,731.93	64.8742	2,731.93	68.1744	2,731.93	67.3835	2,731.93	67.6145	2,731.93	65.5834
2,828.61	87.258	2,828.61	87.0519	2,828.61	87.0539	2,828.61	86.1611	2,828.61	87.227	2,828.61	85.3078	2,828.61	86.6145	2,828.61	83.3025	2,828.61	85.836	2,828.61	80.8511	2,828.61	84.3341	2,828.61	79.4377	2,828.61	82.6938	2,828.61	76.9827	2,828.61	80.562	2,828.61	74.0402	2,828.61	78.2723	2,828.61	72.1299	2,828.61	75.9206	2,828.61	71.7873	2,828.61	73.2459	2,828.61	70.2908	2,828.61	72.466	2,828.61	67.5606	2,828.61	72.3899	2,828.61	67.5292	2,828.61	70.7419	2,828.61	66.7206	2,828.61	69.1029	2,828.61	68.7001	2,828.61	69.8567	2,828.61	65.756	2,828.61	69.2293	2,828.61	62.906	2,828.61	68.4292	2,828.61	63.8235
2,928.22	87.9503	2,928.22	87.5285	2,928.22	87.8497	2,928.22	87.0551	2,928.22	87.6328	2,928.22	86.0179	2,928.22	87.1697	2,928.22	84.3742	2,928.22	86.1887	2,928.22	81.7875	2,928.22	85.0081	2,928.22	79.843	2,928.22	83.2341	2,928.22	77.1474	2,928.22	81.0782	2,928.22	75.0949	2,928.22	78.7523	2,928.22	72.9074	2,928.22	76.5322	2,928.22	71.6757	2,928.22	74.481	2,928.22	70.4012	2,928.22	71.8455	2,928.22	67.7908	2,928.22	71.5628	2,928.22	68.8456	2,928.22	69.9255	2,928.22	68.9289	2,928.22	68.8075	2,928.22	70.9797	2,928.22	70.1505	2,928.22	66.5161	2,928.22	67.2291	2,928.22	64.5662	2,928.22	69.209	2,928.22	61.9424
3,030.76	87.9122	3,030.76	87.5363	3,030.76	88.3036	3,030.76	86.9524	3,030.76	87.5271	3,030.76	85.775	3,030.76	87.2129	3,030.76	83.9925	3,030.76	86.1484	3,030.76	83.0096	3,030.76	84.9358	3,030.76	80.2907	3,030.76	82.9915	3,030.76	77.1745	3,030.76	81.1533	3,030.76	75.6349	3,030.76	78.6459	3,030.76	72.0145	3,030.76	76.2531	3,030.76	71.7452	3,030.76	74.304	3,030.76	70.3145	3,030.76	71.6669	3,030.76	67.292	3,030.76	70.7395	3,030.76	67.8323	3,030.76	70.0601	3,030.76	65.8173	3,030.76	67.9827	3,030.76	69.2014	3,030.76	69.0074	3,030.76	67.3732	3,030.76	66.6094	3,030.76	59.6816	3,030.76	68.2869	3,030.76	60.7198
3,137.7	87.7327	3,137.7	87.5173	3,137.7	87.7141	3,137.7	86.7926	3,137.7	87.7168	3,137.7	85.7329	3,137.7	87.0929	3,137.7	84.599	3,137.7	85.9825	3,137.7	82.7807	3,137.7	84.2984	3,137.7	80.3083	3,137.7	82.7645	3,137.7	78.3145	3,137.7	80.8146	3,137.7	76.0998	3,137.7	78.3106	3,137.7	73.0958	3,137.7	76.1084	3,137.7	70.3888	3,137.7	73.9075	3,137.7	70.9071	3,137.7	71.9717	3,137.7	69.0773	3,137.7	70.5023	3,137.7	66.4815	3,137.7	70.1227	3,137.7	66.638	3,137.7	67.6733	3,137.7	68.6124	3,137.7	68.729	3,137.7	64.8701	3,137.7	66.4426	3,137.7	63.4936	3,137.7	66.8215	3,137.7	61.8983
3,249.02	87.3355	3,249.02	87.0219	3,249.02	87.4691	3,249.02	86.1692	3,249.02	87.4137	3,249.02	84.806	3,249.02	86.7717	3,249.02	83.2216	3,249.02	85.8439	3,249.02	81.6381	3,249.02	84.2897	3,249.02	79.3114	3,249.02	82.6481	3,249.02	77.4909	3,249.02	80.5755	3,249.02	75.7172	3,249.02	78.4955	3,249.02	72.3547	3,249.02	76.3447	3,249.02	70.8945	3,249.02	73.8031	3,249.02	69.8032	3,249.02	71.5412	3,249.02	68.8342	3,249.02	70.7821	3,249.02	67.231	3,249.02	68.3806	3,249.02	67.9301	3,249.02	68.8561	3,249.02	69.4003	3,249.02	68.2555	3,249.02	67.582	3,249.02	66.9117	3,249.02	66.9422	3,249.02	70.4363	3,249.02	64.5723
3,363.28	87.1489	3,363.28	87.0359	3,363.28	86.9731	3,363.28	86.4593	3,363.28	87.0787	3,363.28	85.4039	3,363.28	86.4692	3,363.28	83.803	3,363.28	85.5285	3,363.28	80.7943	3,363.28	84.1535	3,363.28	79.1554	3,363.28	82.709	3,363.28	76.5255	3,363.28	80.5846	3,363.28	75.1652	3,363.28	77.8904	3,363.28	73.3995	3,363.28	75.4026	3,363.28	69.9243	3,363.28	73.9719	3,363.28	68.6743	3,363.28	71.3153	3,363.28	67.2567	3,363.28	69.6588	3,363.28	65.9939	3,363.28	67.8547	3,363.28	67.0816	3,363.28	65.2361	3,363.28	67.9257	3,363.28	67.3302	3,363.28	67.6286	3,363.28	67.6758	3,363.28	63.5312	3,363.28	69.044	3,363.28	61.5598
3,481.93	87.1285	3,481.93	86.7433	3,481.93	87.1857	3,481.93	86.2607	3,481.93	86.6688	3,481.93	85.5451	3,481.93	86.2883	3,481.93	83.6264	3,481.93	85.6011	3,481.93	81.7367	3,481.93	84.7052	3,481.93	79.1621	3,481.93	82.8436	3,481.93	76.7845	3,481.93	79.917	3,481.93	74.8105	3,481.93	78.3501	3,481.93	72.9748	3,481.93	75.6465	3,481.93	70.8413	3,481.93	73.871	3,481.93	68.3814	3,481.93	70.5894	3,481.93	67.9497	3,481.93	70.6649	3,481.93	67.0815	3,481.93	68.1331	3,481.93	68.9263	3,481.93	64.9924	3,481.93	67.3815	3,481.93	64.8562	3,481.93	64.7718	3,481.93	67.0631	3,481.93	61.7595	3,481.93	68.2568	3,481.93	59.5192
3,604.98	87.8008	3,604.98	87.0898	3,604.98	87.9775	3,604.98	86.5806	3,604.98	87.5138	3,604.98	85.6647	3,604.98	87.3664	3,604.98	83.5321	3,604.98	86.7672	3,604.98	81.7871	3,604.98	85.7234	3,604.98	79.6401	3,604.98	83.5685	3,604.98	77.1531	3,604.98	81.2118	3,604.98	74.4293	3,604.98	79.1884	3,604.98	72.8532	3,604.98	76.9881	3,604.98	70.7886	3,604.98	75.0928	3,604.98	68.3819	3,604.98	72.8251	3,604.98	65.5976	3,604.98	71.0457	3,604.98	68.5566	3,604.98	69.1991	3,604.98	68.0979	3,604.98	69.0283	3,604.98	65.0897	3,604.98	67.5163	3,604.98	65.5588	3,604.98	67.8175	3,604.98	60.081	3,604.98	68.1993	3,604.98	59.3197
3,732.42	87.988	3,732.42	88.1008	3,732.42	87.9021	3,732.42	87.5427	3,732.42	88.2139	3,732.42	86.3832	3,732.42	87.8914	3,732.42	85.2025	3,732.42	87.1048	3,732.42	82.7837	3,732.42	85.5261	3,732.42	80.1615	3,732.42	83.3431	3,732.42	77.5033	3,732.42	81.298	3,732.42	74.9104	3,732.42	79.1483	3,732.42	73.6711	3,732.42	76.3707	3,732.42	69.8503	3,732.42	74.0972	3,732.42	68.0875	3,732.42	71.5732	3,732.42	66.5379	3,732.42	68.6689	3,732.42	67.9663	3,732.42	68.4878	3,732.42	67.4969	3,732.42	68.2396	3,732.42	65.1506	3,732.42	68.1919	3,732.42	66.9632	3,732.42	66.9689	3,732.42	50.8763	3,732.42	68.5604	3,732.42	57.0326
3,864.26	86.9065	3,864.26	87.0126	3,864.26	87.0928	3,864.26	86.5882	3,864.26	87.1183	3,864.26	85.4835	3,864.26	86.8353	3,864.26	83.8702	3,864.26	85.752	3,864.26	81.3802	3,864.26	84.2532	3,864.26	79.1521	3,864.26	82.5238	3,864.26	76.5495	3,864.26	80.3108	3,864.26	74.5391	3,864.26	77.3599	3,864.26	71.6252	3,864.26	75.7064	3,864.26	69.923	3,864.26	72.452	3,864.26	67.226	3,864.26	69.574	3,864.26	66.9884	3,864.26	68.4427	3,864.26	67.3403	3,864.26	68.699	3,864.26	67.0589	3,864.26	66.4696	3,864.26	66.9273	3,864.26	67.154	3,864.26	66.7617	3,864.26	68.4027	3,864.26	54.7953	3,864.26	65.3296	3,864.26	58.0051
4,000.49	87.5265	4,000.49	87.0088	4,000.49	87.9811	4,000.49	86.5716	4,000.49	87.5376	4,000.49	85.0602	4,000.49	87.0786	4,000.49	82.4421	4,000.49	86.2568	4,000.49	80.4514	4,000.49	84.9869	4,000.49	78.3919	4,000.49	83.0138	4,000.49	75.9392	4,000.49	80.5861	4,000.49	74.3312	4,000.49	78.2522	4,000.49	70.5091	4,000.49	76.0433	4,000.49	68.3398	4,000.49	73.758	4,000.49	66.969	4,000.49	72.1388	4,000.49	66.7286	4,000.49	68.9858	4,000.49	66.0865	4,000.49	67.4877	4,000.49	64.336	4,000.49	66.4887	4,000.49	64.8996	4,000.49	69.4735	4,000.49	65.6862	4,000.49	67.3549	4,000.49	53.4731	4,000.49	67.2438	4,000.49	62.3292
4,141.11	87.6496	4,141.11	87.6477	4,141.11	87.7792	4,141.11	86.5747	4,141.11	87.8353	4,141.11	85.5124	4,141.11	87.309	4,141.11	84.3062	4,141.11	86.7283	4,141.11	82.0242	4,141.11	85.139	4,141.11	79.5184	4,141.11	82.8415	4,141.11	76.8319	4,141.11	80.0665	4,141.11	74.2229	4,141.11	78.4744	4,141.11	72.0788	4,141.11	75.3589	4,141.11	69.4942	4,141.11	72.8461	4,141.11	67.3686	4,141.11	70.8021	4,141.11	67.3514	4,141.11	68.6631	4,141.11	66.367	4,141.11	68.1993	4,141.11	66.0388	4,141.11	66.1092	4,141.11	64.7927	4,141.11	66.2721	4,141.11	66.504	4,141.11	65.0984	4,141.11	62.3898	4,141.11	67.1546	4,141.11	62.2827
4,287.6	87.4256	4,287.6	87.0696	4,287.6	87.691	4,287.6	86.4827	4,287.6	87.477	4,287.6	85.3888	4,287.6	87.3068	4,287.6	83.6555	4,287.6	86.1687	4,287.6	81.963	4,287.6	84.4362	4,287.6	79.3811	4,287.6	83.0243	4,287.6	76.3908	4,287.6	81.0849	4,287.6	74.5001	4,287.6	78.913	4,287.6	72.1264	4,287.6	76.1136	4,287.6	70.3639	4,287.6	74.3072	4,287.6	67.2746	4,287.6	70.561	4,287.6	67.0588	4,287.6	68.5389	4,287.6	62.1262	4,287.6	66.7975	4,287.6	63.9422	4,287.6	66.3178	4,287.6	65.6638	4,287.6	66.2527	4,287.6	66.9352	4,287.6	65.7354	4,287.6	57.289	4,287.6	65.6168	4,287.6	59.0071
4,438.48	87.3454	4,438.48	87.0846	4,438.48	87.3196	4,438.48	86.2614	4,438.48	87.1475	4,438.48	85.5456	4,438.48	86.5466	4,438.48	83.4418	4,438.48	86.0976	4,438.48	81.1712	4,438.48	84.9579	4,438.48	79.4896	4,438.48	83.0321	4,438.48	77.0896	4,438.48	80.8868	4,438.48	73.7407	4,438.48	78.2537	4,438.48	70.5234	4,438.48	75.1609	4,438.48	65.981	4,438.48	73.0994	4,438.48	67.4242	4,438.48	70.4563	4,438.48	66.9876	4,438.48	68.5773	4,438.48	63.7112	4,438.48	65.8377	4,438.48	63.5576	4,438.48	65.377	4,438.48	65.4012	4,438.48	64.7266	4,438.48	65.3841	4,438.48	65.354	4,438.48	50.4379	4,438.48	66.6789	4,438.48	59.5759
4,595.21	86.5121	4,595.21	86.2837	4,595.21	86.9069	4,595.21	85.2141	4,595.21	86.7373	4,595.21	84.1674	4,595.21	86.3661	4,595.21	82.7347	4,595.21	85.5925	4,595.21	80.9361	4,595.21	84.3945	4,595.21	78.178	4,595.21	82.7753	4,595.21	75.5289	4,595.21	80.3007	4,595.21	73.0764	4,595.21	76.768	4,595.21	72.0687	4,595.21	74.8857	4,595.21	70.0472	4,595.21	72.5245	4,595.21	67.6211	4,595.21	70.176	4,595.21	66.5944	4,595.21	67.0849	4,595.21	65.4224	4,595.21	66.8052	4,595.21	65.5428	4,595.21	65.2126	4,595.21	62.4401	4,595.21	64.6223	4,595.21	65.515	4,595.21	65.3004	4,595.21	34.5379	4,595.21	65.4689	4,595.21	54.7149
4,756.35	87.4164	4,756.35	87.1583	4,756.35	87.6818	4,756.35	86.8168	4,756.35	87.3632	4,756.35	85.4734	4,756.35	87.0217	4,756.35	83.9108	4,756.35	86.1492	4,756.35	81.6048	4,756.35	84.719	4,756.35	78.5539	4,756.35	83.1007	4,756.35	76.112	4,756.35	81.0271	4,756.35	72.8304	4,756.35	78.3824	4,756.35	69.7161	4,756.35	75.5268	4,756.35	66.8834	4,756.35	72.826	4,756.35	66.1159	4,756.35	69.9646	4,756.35	66.2062	4,756.35	67.9921	4,756.35	65.3809	4,756.35	68.5281	4,756.35	65.6901	4,756.35	66.7432	4,756.35	64.8525	4,756.35	66.6741	4,756.35	65.1101	4,756.35	66.329	4,756.35	51.6522	4,756.35	63.8336	4,756.35	61.4038
4,924.8	86.8725	4,924.8	86.7139	4,924.8	86.8533	4,924.8	85.9752	4,924.8	86.9146	4,924.8	85.2378	4,924.8	86.5402	4,924.8	83.8392	4,924.8	86.1056	4,924.8	81.8714	4,924.8	85.0313	4,924.8	79.7586	4,924.8	83.3234	4,924.8	77.8671	4,924.8	80.9319	4,924.8	73.917	4,924.8	77.7835	4,924.8	72.4955	4,924.8	75.6135	4,924.8	67.8748	4,924.8	72.4929	4,924.8	66.3825	4,924.8	70.0525	4,924.8	65.1641	4,924.8	68.2929	4,924.8	63.5705	4,924.8	64.8969	4,924.8	63.3249	4,924.8	66.1462	4,924.8	66.2456	4,924.8	65.6936	4,924.8	63.8132	4,924.8	64.7167	4,924.8	56.9197	4,924.8	64.286	4,924.8	60.6652
5,097.66	86.7322	5,097.66	86.5169	5,097.66	87.0744	5,097.66	85.9081	5,097.66	86.9767	5,097.66	84.8137	5,097.66	86.9445	5,097.66	83.4487	5,097.66	86.0179	5,097.66	81.17	5,097.66	84.4554	5,097.66	78.1836	5,097.66	82.8542	5,097.66	74.4831	5,097.66	80.0865	5,097.66	72.8628	5,097.66	77.6349	5,097.66	70.2908	5,097.66	75.0734	5,097.66	69.3728	5,097.66	72.2439	5,097.66	65.9917	5,097.66	68.4453	5,097.66	65.7622	5,097.66	67.2501	5,097.66	63.4308	5,097.66	65.8008	5,097.66	66.2322	5,097.66	63.5907	5,097.66	65.0766	5,097.66	62.5534	5,097.66	64.1913	5,097.66	64.995	5,097.66	44.0865	5,097.66	63.3337	5,097.66	60.7462
5,277.83	86.6911	5,277.83	86.457	5,277.83	86.482	5,277.83	86.1307	5,277.83	86.6858	5,277.83	85.5158	5,277.83	86.0768	5,277.83	83.8434	5,277.83	86.1277	5,277.83	81.9034	5,277.83	85.0169	5,277.83	79.3776	5,277.83	82.5741	5,277.83	77.2574	5,277.83	80.5112	5,277.83	73.1897	5,277.83	78.7181	5,277.83	70.1433	5,277.83	74.3053	5,277.83	64.9857	5,277.83	72.3025	5,277.83	65.0247	5,277.83	69.1435	5,277.83	64.0783	5,277.83	66.0923	5,277.83	55.7916	5,277.83	64.1649	5,277.83	62.3482	5,277.83	65.2698	5,277.83	64.4211	5,277.83	65.6159	5,277.83	62.5912	5,277.83	66.477	5,277.83	36.3487	5,277.83	65.0941	5,277.83	58.6894
5,463.87	86.4954	5,463.87	86.2749	5,463.87	86.8781	5,463.87	85.7812	5,463.87	86.4844	5,463.87	84.5242	5,463.87	86.64	5,463.87	83.1837	5,463.87	85.976	5,463.87	80.7269	5,463.87	84.5149	5,463.87	78.298	5,463.87	83.0094	5,463.87	74.5648	5,463.87	80.3988	5,463.87	73.4087	5,463.87	77.2368	5,463.87	69.9968	5,463.87	75.0126	5,463.87	68.8477	5,463.87	72.3627	5,463.87	66.1614	5,463.87	69.5414	5,463.87	63.2162	5,463.87	65.9359	5,463.87	60.5552	5,463.87	66.7383	5,463.87	63.4963	5,463.87	65.6612	5,463.87	62.5464	5,463.87	62.3028	5,463.87	63.8122	5,463.87	65.6023	5,463.87	29.9555	5,463.87	63.2605	5,463.87	57.4617
5,657.23	86.4913	5,657.23	86.2046	5,657.23	86.393	5,657.23	85.872	5,657.23	86.4188	5,657.23	84.8254	5,657.23	85.73	5,657.23	83.7097	5,657.23	85.6084	5,657.23	81.4579	5,657.23	84.4555	5,657.23	78.4653	5,657.23	82.33	5,657.23	75.8616	5,657.23	79.6792	5,657.23	72.7568	5,657.23	77.7291	5,657.23	68.9982	5,657.23	73.9511	5,657.23	65.8898	5,657.23	71.6098	5,657.23	64.9474	5,657.23	70.2412	5,657.23	63.1187	5,657.23	67.2117	5,657.23	62.4671	5,657.23	64.5213	5,657.23	59.8883	5,657.23	64.5979	5,657.23	64.2693	5,657.23	64.2665	5,657.23	60.7497	5,657.23	65.0357	5,657.23	52.2716	5,657.23	63.5739	5,657.23	58.1483
5,856.45	85.9329	5,856.45	85.5604	5,856.45	86.5124	5,856.45	85.0459	5,856.45	86.1411	5,856.45	84.081	5,856.45	86.145	5,856.45	82.3844	5,856.45	85.202	5,856.45	79.9805	5,856.45	83.5687	5,856.45	77.3928	5,856.45	82.273	5,856.45	75.2357	5,856.45	79.6879	5,856.45	71.9222	5,856.45	76.7534	5,856.45	69.527	5,856.45	73.6922	5,856.45	66.5162	5,856.45	71.1985	5,856.45	65.1463	5,856.45	67.5625	5,856.45	61.6405	5,856.45	66.4694	5,856.45	61.9062	5,856.45	62.6942	5,856.45	62.5305	5,856.45	61.2733	5,856.45	63.3938	5,856.45	63.6951	5,856.45	60.5084	5,856.45	64.7152	5,856.45	53.7967	5,856.45	63.7606	5,856.45	56.2195
6,062.99	86.328	6,062.99	86.1191	6,062.99	86.4935	6,062.99	85.6346	6,062.99	86.3248	6,062.99	84.8488	6,062.99	85.6876	6,062.99	83.2426	6,062.99	85.5774	6,062.99	80.9438	6,062.99	84.3387	6,062.99	77.9701	6,062.99	81.8492	6,062.99	73.9363	6,062.99	79.2642	6,062.99	71.2682	6,062.99	76.6719	6,062.99	68.1371	6,062.99	73.5255	6,062.99	66.726	6,062.99	70.7024	6,062.99	65.8742	6,062.99	68.6383	6,062.99	63.0048	6,062.99	64.6209	6,062.99	59.7107	6,062.99	63.4127	6,062.99	62.7371	6,062.99	63.2779	6,062.99	62.564	6,062.99	63.1575	6,062.99	61.6368	6,062.99	62.2546	6,062.99	49.5549	6,062.99	65.154	6,062.99	58.9635
6,276.86	86.1515	6,276.86	85.572	6,276.86	86.5229	6,276.86	85.0123	6,276.86	85.7897	6,276.86	84.0373	6,276.86	85.5491	6,276.86	82.239	6,276.86	84.9103	6,276.86	79.9645	6,276.86	83.5143	6,276.86	76.8348	6,276.86	82.0123	6,276.86	74.7675	6,276.86	79.5284	6,276.86	72.1794	6,276.86	76.0093	6,276.86	69.2728	6,276.86	72.9725	6,276.86	66.7976	6,276.86	70.0908	6,276.86	63.8505	6,276.86	67.1713	6,276.86	63.1368	6,276.86	65.5662	6,276.86	61.665	6,276.86	62.9115	6,276.86	61.9917	6,276.86	62.0858	6,276.86	61.5943	6,276.86	59.6592	6,276.86	61.3094	6,276.86	60.9081	6,276.86	34.9192	6,276.86	62.1053	6,276.86	54.2213
6,498.05	86.3021	6,498.05	85.8206	6,498.05	86.3968	6,498.05	85.5272	6,498.05	86.3782	6,498.05	84.4518	6,498.05	85.9339	6,498.05	82.6264	6,498.05	85.6783	6,498.05	79.9738	6,498.05	84.1779	6,498.05	77.1393	6,498.05	81.9527	6,498.05	75.3449	6,498.05	79.455	6,498.05	70.7702	6,498.05	76.246	6,498.05	68.5952	6,498.05	72.9673	6,498.05	65.5553	6,498.05	69.6682	6,498.05	64.7984	6,498.05	68.1166	6,498.05	60.604	6,498.05	65.8623	6,498.05	57.3658	6,498.05	62.3278	6,498.05	59.146	6,498.05	62.0797	6,498.05	60.6054	6,498.05	58.7847	6,498.05	60.1002	6,498.05	62.253	6,498.05	53.4102	6,498.05	62.5732	6,498.05	50.5396
6,726.56	86.2845	6,726.56	85.8587	6,726.56	86.5991	6,726.56	85.5806	6,726.56	86.096	6,726.56	84.5483	6,726.56	86.0263	6,726.56	82.595	6,726.56	85.2746	6,726.56	80.4183	6,726.56	83.7102	6,726.56	76.7018	6,726.56	81.8837	6,726.56	74.1831	6,726.56	78.81	6,726.56	71.757	6,726.56	75.7287	6,726.56	67.9762	6,726.56	72.5556	6,726.56	66.3329	6,726.56	70.2053	6,726.56	62.9853	6,726.56	67.5416	6,726.56	61.6334	6,726.56	65.9644	6,726.56	61.3024	6,726.56	61.9795	6,726.56	60.4074	6,726.56	62.1231	6,726.56	61.2818	6,726.56	60.1481	6,726.56	58.2455	6,726.56	63.7209	6,726.56	47.0432	6,726.56	62.1996	6,726.56	49.8637
6,963.87	86.7592	6,963.87	86.1408	6,963.87	86.9136	6,963.87	85.6	6,963.87	86.3807	6,963.87	84.3321	6,963.87	85.9938	6,963.87	82.5071	6,963.87	85.5445	6,963.87	79.795	6,963.87	83.9279	6,963.87	77.0202	6,963.87	81.5444	6,963.87	73.503	6,963.87	78.5299	6,963.87	70.4456	6,963.87	76.0126	6,963.87	66.1771	6,963.87	72.3928	6,963.87	65.2308	6,963.87	69.5585	6,963.87	62.2224	6,963.87	65.9988	6,963.87	59.7765	6,963.87	66.1402	6,963.87	60.6316	6,963.87	62.0232	6,963.87	59.3764	6,963.87	61.7929	6,963.87	61.6501	6,963.87	62.7666	6,963.87	53.2433	6,963.87	58.9536	6,963.87	54.374	6,963.87	62.1658	6,963.87	51.7693
7,209.96	86.9735	7,209.96	86.4707	7,209.96	87.245	7,209.96	85.6565	7,209.96	87.0626	7,209.96	84.3606	7,209.96	86.6517	7,209.96	82.8808	7,209.96	85.9712	7,209.96	80.0061	7,209.96	84.4448	7,209.96	77.1083	7,209.96	82.4141	7,209.96	75.0371	7,209.96	79.8398	7,209.96	70.3286	7,209.96	77.0932	7,209.96	68.7362	7,209.96	73.5575	7,209.96	65.5801	7,209.96	70.0763	7,209.96	62.4939	7,209.96	68.0146	7,209.96	60.2751	7,209.96	65.3423	7,209.96	61.1915	7,209.96	62.9422	7,209.96	59.787	7,209.96	61.0847	7,209.96	62.361	7,209.96	60.1613	7,209.96	58.1067	7,209.96	61.8205	7,209.96	51.3866	7,209.96	60.7316	7,209.96	49.4679
7,464.84	86.6894	7,464.84	86.1373	7,464.84	86.6358	7,464.84	85.456	7,464.84	86.3942	7,464.84	84.4172	7,464.84	85.7659	7,464.84	82.5592	7,464.84	85.3066	7,464.84	80.2654	7,464.84	83.6542	7,464.84	77.0864	7,464.84	81.3543	7,464.84	73.7949	7,464.84	78.684	7,464.84	70.4943	7,464.84	75.3653	7,464.84	66.7016	7,464.84	72.1357	7,464.84	64.9856	7,464.84	69.1155	7,464.84	61.9759	7,464.84	67.6527	7,464.84	58.3709	7,464.84	63.3361	7,464.84	55.4582	7,464.84	62.9553	7,464.84	61.5178	7,464.84	59.8212	7,464.84	61.8614	7,464.84	54.6433	7,464.84	56.103	7,464.84	61.6002	7,464.84	54.3512	7,464.84	59.4899	7,464.84	49.6772
7,727.05	87.3397	7,727.05	86.8857	7,727.05	87.6082	7,727.05	86.0354	7,727.05	87.3061	7,727.05	84.513	7,727.05	86.7524	7,727.05	82.4501	7,727.05	85.8302	7,727.05	79.6538	7,727.05	83.968	7,727.05	76.3795	7,727.05	81.8393	7,727.05	71.6792	7,727.05	78.4596	7,727.05	70.4653	7,727.05	76.1329	7,727.05	66.5021	7,727.05	72.1569	7,727.05	64.4188	7,727.05	69.5075	7,727.05	61.8009	7,727.05	66.2257	7,727.05	60.6257	7,727.05	65.0081	7,727.05	59.3725	7,727.05	61.235	7,727.05	60.9043	7,727.05	60.4853	7,727.05	59.2291	7,727.05	60.9622	7,727.05	57.6934	7,727.05	60.9637	7,727.05	47.0009	7,727.05	59.2227	7,727.05	51.5473
7,999.51	86.9335	7,999.51	86.1443	7,999.51	87.097	7,999.51	85.2769	7,999.51	86.7098	7,999.51	83.9971	7,999.51	86.0934	7,999.51	82.264	7,999.51	85.2599	7,999.51	79.4888	7,999.51	83.3323	7,999.51	76.4744	7,999.51	81.2128	7,999.51	73.824	7,999.51	78.2516	7,999.51	70.4033	7,999.51	75.8713	7,999.51	67.1421	7,999.51	71.7973	7,999.51	65.4704	7,999.51	68.3002	7,999.51	63.1614	7,999.51	65.7134	7,999.51	61.2845	7,999.51	64.9147	7,999.51	60.5883	7,999.51	59.0417	7,999.51	56.7087	7,999.51	58.6671	7,999.51	59.7107	7,999.51	60.9693	7,999.51	56.9611	7,999.51	58.4649	7,999.51	50.3938	7,999.51	61.9265	7,999.51	53.2659
8,282.23	87.0582	8,282.23	86.3415	8,282.23	87.3646	8,282.23	85.4849	8,282.23	86.8739	8,282.23	84.0604	8,282.23	86.2723	8,282.23	82.3148	8,282.23	85.3997	8,282.23	79.7228	8,282.23	83.6002	8,282.23	76.5448	8,282.23	81.1845	8,282.23	73.7032	8,282.23	78.5043	8,282.23	70.0421	8,282.23	75.5802	8,282.23	66.1185	8,282.23	72.0613	8,282.23	66.343	8,282.23	68.3427	8,282.23	62.6935	8,282.23	66.6168	8,282.23	59.1216	8,282.23	64.3962	8,282.23	60.5961	8,282.23	58.3861	8,282.23	57.7106	8,282.23	59.0681	8,282.23	60.4984	8,282.23	58.9752	8,282.23	53.8067	8,282.23	60.574	8,282.23	47.7049	8,282.23	58.2225	8,282.23	48.3213
8,573.73	86.8857	8,573.73	86.3052	8,573.73	87.1057	8,573.73	85.2315	8,573.73	86.6228	8,573.73	84.0281	8,573.73	85.8661	8,573.73	81.9831	8,573.73	84.7161	8,573.73	79.5477	8,573.73	82.8135	8,573.73	76.2107	8,573.73	80.6654	8,573.73	72.852	8,573.73	77.3367	8,573.73	69.8934	8,573.73	74.7369	8,573.73	66.6718	8,573.73	71.6425	8,573.73	65.7754	8,573.73	68.2788	8,573.73	62.8362	8,573.73	65.2134	8,573.73	58.4618	8,573.73	61.5082	8,573.73	52.9013	8,573.73	58.9817	8,573.73	59.6463	8,573.73	56.9134	8,573.73	59.2388	8,573.73	57.675	8,573.73	57.8645	8,573.73	60.3172	8,573.73	48.9189	8,573.73	56.3372	8,573.73	50.6371
8,876.95	86.8559	8,876.95	86.2089	8,876.95	87.1346	8,876.95	85.1634	8,876.95	86.6127	8,876.95	83.4638	8,876.95	85.9023	8,876.95	81.4347	8,876.95	84.9286	8,876.95	78.9126	8,876.95	83.1301	8,876.95	75.7357	8,876.95	80.548	8,876.95	72.3921	8,876.95	77.6877	8,876.95	69.2759	8,876.95	75.2347	8,876.95	66.1944	8,876.95	71.9486	8,876.95	64.192	8,876.95	67.302	8,876.95	60.3172	8,876.95	65.504	8,876.95	58.6232	8,876.95	63.0516	8,876.95	56.8644	8,876.95	56.63	8,876.95	57.1954	8,876.95	59.1619	8,876.95	58.2504	8,876.95	57.7665	8,876.95	48.8767	8,876.95	60.0525	8,876.95	42.1963	8,876.95	59.1375	8,876.95	48.0221
9,188.96	86.3016	9,188.96	85.635	9,188.96	86.6438	9,188.96	84.543	9,188.96	85.9492	9,188.96	83.1987	9,188.96	85.165	9,188.96	81.3123	9,188.96	84.056	9,188.96	78.6687	9,188.96	82.338	9,188.96	75.7724	9,188.96	80.0602	9,188.96	72.5908	9,188.96	77.4258	9,188.96	69.4542	9,188.96	74.328	9,188.96	65.4806	9,188.96	71.5089	9,188.96	64.5078	9,188.96	67.1921	9,188.96	60.6054	9,188.96	65.6981	9,188.96	56.6421	9,188.96	63.1447	9,188.96	55.051	9,188.96	58.7013	9,188.96	55.4836	9,188.96	57.1916	9,188.96	58.7273	9,188.96	55.9119	9,188.96	54.9403	9,188.96	59.0725	9,188.96	46.1868	9,188.96	57.7058	9,188.96	47.7828
9,514.16	86.3667	9,514.16	85.6891	9,514.16	86.763	9,514.16	84.4267	9,514.16	86.0382	9,514.16	83.2018	9,514.16	85.286	9,514.16	81.2852	9,514.16	84.1986	9,514.16	78.8996	9,514.16	82.1216	9,514.16	75.7188	9,514.16	80.3099	9,514.16	71.86	9,514.16	76.8789	9,514.16	69.1327	9,514.16	74.7217	9,514.16	65.9061	9,514.16	70.9328	9,514.16	63.9303	9,514.16	67.5167	9,514.16	57.8644	9,514.16	64.8484	9,514.16	55.275	9,514.16	61.0209	9,514.16	53.2369	9,514.16	59.1878	9,514.16	55.2655	9,514.16	58.1732	9,514.16	59.2537	9,514.16	55.4705	9,514.16	54.8996	9,514.16	57.5407	9,514.16	50.7123	9,514.16	57.4436	9,514.16	47.6323
9,849.61	86.1348	9,849.61	85.4652	9,849.61	86.3466	9,849.61	84.582	9,849.61	85.7833	9,849.61	83.1176	9,849.61	84.8064	9,849.61	81.4767	9,849.61	83.9541	9,849.61	79.0103	9,849.61	82.4484	9,849.61	75.739	9,849.61	80.1749	9,849.61	71.8757	9,849.61	77.325	9,849.61	68.7565	9,849.61	75.0891	9,849.61	65.8777	9,849.61	71.0218	9,849.61	62.5642	9,849.61	66.4772	9,849.61	60.1887	9,849.61	64.8667	9,849.61	56.7063	9,849.61	61.8222	9,849.61	57.1976	9,849.61	60.2694	9,849.61	54.4064	9,849.61	56.938	9,849.61	56.0031	9,849.61	52.8056	9,849.61	52.8786	9,849.61	57.6901	9,849.61	48.017	9,849.61	53.6279	9,849.61	49.3181
10,196.8	86.2374	10,196.8	85.6075	10,196.8	86.5084	10,196.8	84.5234	10,196.8	85.9134	10,196.8	83.372	10,196.8	84.876	10,196.8	81.8083	10,196.8	84.0242	10,196.8	79.102	10,196.8	82.6141	10,196.8	76.1852	10,196.8	80.9523	10,196.8	72.9665	10,196.8	78.2205	10,196.8	69.588	10,196.8	74.5087	10,196.8	65.9408	10,196.8	71.5521	10,196.8	62.6264	10,196.8	66.9363	10,196.8	58.5756	10,196.8	65.8862	10,196.8	56.6266	10,196.8	62.1237	10,196.8	53.1612	10,196.8	60.8384	10,196.8	54.2928	10,196.8	58.0338	10,196.8	56.9146	10,196.8	49.8074	10,196.8	56.4472	10,196.8	55.7738	10,196.8	50.3971	10,196.8	54.2907	10,196.8	48.8955
10,555.7	85.9823	10,555.7	85.2959	10,555.7	86.2131	10,555.7	84.4826	10,555.7	85.5933	10,555.7	83.2644	10,555.7	84.7722	10,555.7	81.8612	10,555.7	84.2058	10,555.7	79.6634	10,555.7	83.0662	10,555.7	76.619	10,555.7	81.3676	10,555.7	73.2642	10,555.7	78.2895	10,555.7	69.2239	10,555.7	75.7489	10,555.7	66.7115	10,555.7	71.7775	10,555.7	62.4376	10,555.7	67.2872	10,555.7	59.0021	10,555.7	65.3463	10,555.7	58.5411	10,555.7	61.14	10,555.7	52.5686	10,555.7	59.868	10,555.7	53.2566	10,555.7	57.8221	10,555.7	55.3129	10,555.7	53.4146	10,555.7	54.7496	10,555.7	56.934	10,555.7	43.2787	10,555.7	52.4537	10,555.7	43.5339
10,927.7	85.6574	10,927.7	84.9889	10,927.7	85.853	10,927.7	84.3903	10,927.7	85.388	10,927.7	83.186	10,927.7	84.679	10,927.7	82.3761	10,927.7	84.3157	10,927.7	80.0066	10,927.7	83.4016	10,927.7	77.0042	10,927.7	81.591	10,927.7	73.264	10,927.7	78.8207	10,927.7	69.5353	10,927.7	75.8348	10,927.7	66.5585	10,927.7	72.1429	10,927.7	62.2526	10,927.7	67.9573	10,927.7	61.0176	10,927.7	66.1397	10,927.7	59.2148	10,927.7	63.6062	10,927.7	55.0511	10,927.7	58.759	10,927.7	54.0575	10,927.7	58.7732	10,927.7	50.9242	10,927.7	55.7902	10,927.7	55.069	10,927.7	58.7578	10,927.7	52.9438	10,927.7	49.5342	10,927.7	48.208
11,313	85.2989	11,313	84.8812	11,313	85.3671	11,313	84.3183	11,313	85.2246	11,313	83.3668	11,313	84.9232	11,313	82.1965	11,313	84.4419	11,313	79.8319	11,313	83.6225	11,313	76.5241	11,313	81.9354	11,313	72.3818	11,313	78.5675	11,313	69.1483	11,313	75.5455	11,313	65.7727	11,313	71.999	11,313	62.9524	11,313	67.9211	11,313	60.0568	11,313	65.4875	11,313	56.9458	11,313	62.0661	11,313	52.7553	11,313	62.3397	11,313	48.7623	11,313	58.4473	11,313	53.9446	11,313	53.4336	11,313	54.571	11,313	57.4144	11,313	48.3831	11,313	51.0746	11,313	47.7417
11,712.9	85.2362	11,712.9	84.9091	11,712.9	85.4003	11,712.9	84.2602	11,712.9	85.0693	11,712.9	83.3223	11,712.9	84.8249	11,712.9	81.9949	11,712.9	84.4138	11,712.9	79.7119	11,712.9	83.5568	11,712.9	76.2477	11,712.9	81.5288	11,712.9	71.3468	11,712.9	78.1889	11,712.9	68.7775	11,712.9	75.184	11,712.9	65.6312	11,712.9	71.3927	11,712.9	63.4768	11,712.9	67.019	11,712.9	59.9088	11,712.9	64.787	11,712.9	57.2786	11,712.9	61.6802	11,712.9	52.8135	11,712.9	60.0335	11,712.9	49.504	11,712.9	57.4386	11,712.9	46.9235	11,712.9	52.8758	11,712.9	52.6129	11,712.9	57.826	11,712.9	49.4791	11,712.9	48.4389	11,712.9	48.8109
12,126	85.3618	12,126	84.9662	12,126	85.5649	12,126	84.2894	12,126	85.2258	12,126	83.3909	12,126	84.921	12,126	82.0696	12,126	84.326	12,126	79.6022	12,126	83.397	12,126	76.3229	12,126	81.2434	12,126	71.6247	12,126	78.0039	12,126	68.5422	12,126	73.7897	12,126	66.3282	12,126	70.8126	12,126	62.0631	12,126	67.5053	12,126	59.3876	12,126	63.6396	12,126	56.4866	12,126	62.387	12,126	49.2636	12,126	58.8644	12,126	49.3501	12,126	56.2486	12,126	51.1924	12,126	51.1669	12,126	50.3558	12,126	55.7197	12,126	47.888	12,126	50.8534	12,126	43.681
12,553.7	85.3515	12,553.7	85.0013	12,553.7	85.5252	12,553.7	84.1514	12,553.7	85.2358	12,553.7	83.4168	12,553.7	84.8629	12,553.7	82.0895	12,553.7	84.221	12,553.7	79.9248	12,553.7	83.07	12,553.7	76.5303	12,553.7	80.9291	12,553.7	72.4566	12,553.7	77.3698	12,553.7	68.1365	12,553.7	73.4523	12,553.7	66.7354	12,553.7	70.1132	12,553.7	62.0052	12,553.7	66.1026	12,553.7	60.4081	12,553.7	62.2232	12,553.7	56.786	12,553.7	62.1833	12,553.7	50.0692	12,553.7	58.9423	12,553.7	49.3052	12,553.7	55.0108	12,553.7	51.8555	12,553.7	49.5562	12,553.7	49.5176	12,553.7	56.022	12,553.7	47.692	12,553.7	49.612	12,553.7	42.8964
12,996.1	85.4314	12,996.1	85.071	12,996.1	85.8372	12,996.1	84.3198	12,996.1	85.4528	12,996.1	83.4121	12,996.1	85.0238	12,996.1	82.4118	12,996.1	84.2521	12,996.1	80.1585	12,996.1	82.8721	12,996.1	76.7727	12,996.1	80.6479	12,996.1	72.578	12,996.1	77.4781	12,996.1	68.2334	12,996.1	73.335	12,996.1	66.2617	12,996.1	69.5913	12,996.1	61.4908	12,996.1	65.627	12,996.1	60.9085	12,996.1	62.4199	12,996.1	56.7732	12,996.1	60.5645	12,996.1	51.7695	12,996.1	55.6795	12,996.1	49.2106	12,996.1	55.1426	12,996.1	51.1991	12,996.1	45.7097	12,996.1	53.3234	12,996.1	54.5632	12,996.1	48.5394	12,996.1	51.3103	12,996.1	43.4555
13,454.6	85.6275	13,454.6	85.2002	13,454.6	85.9678	13,454.6	84.2262	13,454.6	85.726	13,454.6	83.4456	13,454.6	85.1992	13,454.6	82.4768	13,454.6	84.39	13,454.6	80.3223	13,454.6	82.8202	13,454.6	76.8705	13,454.6	80.6262	13,454.6	73.0618	13,454.6	77.3114	13,454.6	68.0303	13,454.6	73.3833	13,454.6	66.6261	13,454.6	69.2186	13,454.6	60.7922	13,454.6	65.4226	13,454.6	61.1411	13,454.6	61.9599	13,454.6	55.7931	13,454.6	59.8895	13,454.6	51.0643	13,454.6	55.5788	13,454.6	39.9251	13,454.6	54.5041	13,454.6	52.1319	13,454.6	47.0712	13,454.6	52.0925	13,454.6	53.5746	13,454.6	48.6747	13,454.6	49.3149	13,454.6	39.8959
13,929.2	86.0077	13,929.2	85.4114	13,929.2	86.4498	13,929.2	84.6654	13,929.2	86.0857	13,929.2	83.7299	13,929.2	85.4917	13,929.2	82.7242	13,929.2	84.5939	13,929.2	80.2866	13,929.2	82.9146	13,929.2	76.6976	13,929.2	80.8055	13,929.2	72.8084	13,929.2	77.111	13,929.2	67.8273	13,929.2	73.1713	13,929.2	65.3046	13,929.2	68.983	13,929.2	61.344	13,929.2	65.0804	13,929.2	60.1923	13,929.2	62.1875	13,929.2	54.6774	13,929.2	60.2911	13,929.2	53.0839	13,929.2	54.208	13,929.2	37.7353	13,929.2	54.6718	13,929.2	50.5107	13,929.2	48.3098	13,929.2	50.7942	13,929.2	51.5066	13,929.2	48.6439	13,929.2	50.4688	13,929.2	36.243
14,419.9	86.1884	14,419.9	85.5375	14,419.9	86.6509	14,419.9	84.8416	14,419.9	86.4798	14,419.9	83.8623	14,419.9	85.7956	14,419.9	82.7615	14,419.9	84.9087	14,419.9	80.0904	14,419.9	83.2032	14,419.9	76.3575	14,419.9	80.9376	14,419.9	72.0279	14,419.9	76.9763	14,419.9	67.4434	14,419.9	72.7257	14,419.9	64.3327	14,419.9	68.3602	14,419.9	61.0106	14,419.9	65.2747	14,419.9	59.3171	14,419.9	61.9071	14,419.9	52.8511	14,419.9	59.9694	14,419.9	50.4459	14,419.9	52.3284	14,419.9	43.2665	14,419.9	53.3876	14,419.9	49.612	14,419.9	46.3482	14,419.9	48.3367	14,419.9	48.5391	14,419.9	48.3289	14,419.9	48.9799	14,419.9	44.0839
14,928.2	86.4122	14,928.2	85.6272	14,928.2	86.9644	14,928.2	84.9646	14,928.2	86.6755	14,928.2	83.787	14,928.2	86.0584	14,928.2	82.6206	14,928.2	84.9945	14,928.2	79.8005	14,928.2	83.2481	14,928.2	76.1621	14,928.2	80.6952	14,928.2	70.9628	14,928.2	76.2954	14,928.2	67.1543	14,928.2	72.0916	14,928.2	62.7115	14,928.2	67.9792	14,928.2	61.4608	14,928.2	65.3604	14,928.2	58.1719	14,928.2	61.0962	14,928.2	52.7976	14,928.2	59.555	14,928.2	46.6854	14,928.2	46.9096	14,928.2	42.2313	14,928.2	52.1521	14,928.2	50.4607	14,928.2	48.5755	14,928.2	48.0601	14,928.2	46.2013	14,928.2	47.3776	14,928.2	47.7181	14,928.2	43.9991
15,455.6	86.5168	15,455.6	85.688	15,455.6	86.9257	15,455.6	85.056	15,455.6	86.7915	15,455.6	83.9749	15,455.6	86.0982	15,455.6	82.5422	15,455.6	85.0217	15,455.6	79.5176	15,455.6	83.2947	15,455.6	75.4803	15,455.6	80.2269	15,455.6	70.0277	15,455.6	75.9583	15,455.6	66.4403	15,455.6	71.3928	15,455.6	62.4591	15,455.6	67.1646	15,455.6	60.7371	15,455.6	64.8626	15,455.6	58.3518	15,455.6	60.3915	15,455.6	50.009	15,455.6	58.0352	15,455.6	37.2132	15,455.6	46.4532	15,455.6	43.4213	15,455.6	50.6537	15,455.6	51.9037	15,455.6	47.4184	15,455.6	49.4082	15,455.6	43.2077	15,455.6	46.7167	15,455.6	35.9801	15,455.6	45.33
16,000.5	86.494	16,000.5	85.7894	16,000.5	86.9607	16,000.5	85.3096	16,000.5	86.7947	16,000.5	84.1443	16,000.5	86.2159	16,000.5	82.5161	16,000.5	84.9915	16,000.5	79.1818	16,000.5	83.0443	16,000.5	74.7645	16,000.5	79.7249	16,000.5	69.6315	16,000.5	75.113	16,000.5	65.2264	16,000.5	70.3801	16,000.5	62.6247	16,000.5	65.921	16,000.5	59.6429	16,000.5	63.6961	16,000.5	57.015	16,000.5	57.9076	16,000.5	52.3214	16,000.5	56.2159	16,000.5	38.2285	16,000.5	39.7188	16,000.5	40.3024	16,000.5	52.5545	16,000.5	50.924	16,000.5	43.468	16,000.5	43.0668	16,000.5	46.0798	16,000.5	48.3715	16,000.5	44.388	16,000.5	38.8457
16,564.5	86.4957	16,564.5	85.9213	16,564.5	87.009	16,564.5	85.4283	16,564.5	86.8481	16,564.5	84.4131	16,564.5	86.3071	16,564.5	82.3447	16,564.5	85.1777	16,564.5	78.7078	16,564.5	82.9862	16,564.5	74.0751	16,564.5	79.3531	16,564.5	68.9768	16,564.5	74.5984	16,564.5	64.3831	16,564.5	69.9708	16,564.5	61.7504	16,564.5	64.9738	16,564.5	58.655	16,564.5	62.7046	16,564.5	56.0972	16,564.5	57.1185	16,564.5	48.3551	16,564.5	54.5375	16,564.5	47.5744	16,564.5	40.8899	16,564.5	22.3053	16,564.5	49.1177	16,564.5	48.064	16,564.5	46.6766	16,564.5	48.448	16,564.5	42.8609	16,564.5	43.0969	16,564.5	40.6272	16,564.5	45.5853
17,148.9	86.4471	17,148.9	86.039	17,148.9	87.0355	17,148.9	85.7841	17,148.9	86.7416	17,148.9	84.5735	17,148.9	86.4543	17,148.9	81.9331	17,148.9	85.1702	17,148.9	77.7631	17,148.9	82.5193	17,148.9	72.5224	17,148.9	78.4314	17,148.9	67.4773	17,148.9	73.182	17,148.9	62.8819	17,148.9	68.908	17,148.9	60.4085	17,148.9	62.9988	17,148.9	57.5723	17,148.9	61.3116	17,148.9	52.8634	17,148.9	56.9489	17,148.9	43.5164	17,148.9	52.0738	17,148.9	40.6979	17,148.9	46.4075	17,148.9	38.8104	17,148.9	44.6455	17,148.9	45.6101	17,148.9	46.5613	17,148.9	47.9996	17,148.9	47.8227	17,148.9	50.2733	17,148.9	42.1939	17,148.9	44.3179
17,752.4	85.822	17,752.4	85.8172	17,752.4	86.1072	17,752.4	86.0074	17,752.4	86.1471	17,752.4	84.7683	17,752.4	86.3621	17,752.4	81.6594	17,752.4	85.2033	17,752.4	76.6477	17,752.4	82.2479	17,752.4	71.1757	17,752.4	77.8455	17,752.4	66.4116	17,752.4	72.7108	17,752.4	61.1041	17,752.4	69.0595	17,752.4	59.9698	17,752.4	63.3349	17,752.4	56.4827	17,752.4	60.8165	17,752.4	50.4433	17,752.4	56.5992	17,752.4	35.8975	17,752.4	51.7114	17,752.4	41.66	17,752.4	46.7351	17,752.4	31.9557	17,752.4	41.2317	17,752.4	50.9067	17,752.4	49.4847	17,752.4	50.366	17,752.4	48.8761	17,752.4	49.1609	17,752.4	44.6389	17,752.4	48.2561
18,379.4	84.7996	18,379.4	85.4515	18,379.4	84.9731	18,379.4	86.1797	18,379.4	85.3717	18,379.4	84.7692	18,379.4	86.1401	18,379.4	81.0467	18,379.4	85.1073	18,379.4	75.3832	18,379.4	81.8588	18,379.4	69.9796	18,379.4	77.1063	18,379.4	65.5342	18,379.4	72.4198	18,379.4	60.3087	18,379.4	69.4358	18,379.4	59.283	18,379.4	63.0452	18,379.4	56.2509	18,379.4	61.5944	18,379.4	48.4106	18,379.4	56.9007	18,379.4	29.5694	18,379.4	50.7051	18,379.4	44.8035	18,379.4	50.5657	18,379.4	36.9897	18,379.4	39.2959	18,379.4	48.723	18,379.4	46.9118	18,379.4	51.0473	18,379.4	51.1652	18,379.4	51.7686	18,379.4	52.4741	18,379.4	51.4945
19,026.9	84.1928	19,026.9	85.0637	19,026.9	84.3128	19,026.9	86.0251	19,026.9	84.7807	19,026.9	84.4311	19,026.9	85.8563	19,026.9	80.076	19,026.9	84.7593	19,026.9	74.482	19,026.9	81.0663	19,026.9	70.404	19,026.9	76.4254	19,026.9	66.826	19,026.9	72.7612	19,026.9	61.2242	19,026.9	70.2093	19,026.9	60.3394	19,026.9	63.0268	19,026.9	58.0744	19,026.9	63.1746	19,026.9	45.9324	19,026.9	57.2759	19,026.9	38.0627	19,026.9	52.467	19,026.9	40.37	19,026.9	53.4917	19,026.9	44.492	19,026.9	38.1435	19,026.9	50.7007	19,026.9	41.3875	19,026.9	52.7298	19,026.9	51.2136	19,026.9	54.8701	19,026.9	55.1551	19,026.9	52.7572
19,697.8	84.599	19,697.8	84.7013	19,697.8	84.7784	19,697.8	85.3327	19,697.8	84.5941	19,697.8	83.623	19,697.8	85.1115	19,697.8	79.3095	19,697.8	83.7811	19,697.8	74.4542	19,697.8	79.9624	19,697.8	71.6352	19,697.8	76.5856	19,697.8	67.9693	19,697.8	73.6045	19,697.8	60.7088	19,697.8	71.1352	19,697.8	60.7916	19,697.8	63.4967	19,697.8	57.6697	19,697.8	63.9992	19,697.8	43.5124	19,697.8	57.0687	19,697.8	43.4353	19,697.8	53.2661	19,697.8	34.4586	19,697.8	54.441	19,697.8	47.2928	19,697.8	40.6191	19,697.8	48.6674	19,697.8	39.8279	19,697.8	55.9549	19,697.8	51.1872	19,697.8	55.5387	19,697.8	57.0199	19,697.8	53.8604
19,999.5	85.1308	19,999.5	84.6653	19,999.5	85.368	19,999.5	85.3314	19,999.5	84.376	19,999.5	83.4423	19,999.5	84.9581	19,999.5	79.113	19,999.5	83.4005	19,999.5	74.7981	19,999.5	79.2895	19,999.5	71.6052	19,999.5	76.9434	19,999.5	68.4437	19,999.5	73.8845	19,999.5	52.3186	19,999.5	72.6957	19,999.5	57.722	19,999.5	65.5079	19,999.5	59.7234	19,999.5	62.3345	19,999.5	50.1594	19,999.5	56.7919	19,999.5	48.9946	19,999.5	50.9553	19,999.5	49.704	19,999.5	56.0383	19,999.5	41.5266	19,999.5	43.5316	19,999.5	51.1177	19,999.5	32.0656	19,999.5	55.4105	19,999.5	55.4652	19,999.5	53.4289	19,999.5	59.5364	19,999.5	53.8494
