"SPL Vertical"
"On-Axis"		"10°"		"-10°"		"20°"		"-20°"		"30°"		"-30°"		"40°"		"-40°"		"50°"		"-50°"		"60°"		"-60°"		"70°"		"-70°"		"80°"		"-80°"		"90°"		"-90°"		"100°"		"-100°"		"110°"		"-110°"		"120°"		"-120°"		"130°"		"-130°"		"140°"		"-140°"		"150°"		"-150°"		"160°"		"-160°"		"170°"		"-170°"		"180°"
"Frequency [Hz]"	"Sound Pessure Level [dB]  / [2.83V 1m] "	"Frequency [Hz]"	"Sound Pessure Level [dB]  / [2.83V 1m] "	"Frequency [Hz]"	"Sound Pessure Level [dB]  / [2.83V 1m] "	"Frequency [Hz]"	"Sound Pessure Level [dB]  / [2.83V 1m] "	"Frequency [Hz]"	"Sound Pessure Level [dB]  / [2.83V 1m] "	"Frequency [Hz]"	"Sound Pessure Level [dB]  / [2.83V 1m] "	"Frequency [Hz]"	"Sound Pessure Level [dB]  / [2.83V 1m] "	"Frequency [Hz]"	"Sound Pessure Level [dB]  / [2.83V 1m] "	"Frequency [Hz]"	"Sound Pessure Level [dB]  / [2.83V 1m] "	"Frequency [Hz]"	"Sound Pessure Level [dB]  / [2.83V 1m] "	"Frequency [Hz]"	"Sound Pessure Level [dB]  / [2.83V 1m] "	"Frequency [Hz]"	"Sound Pessure Level [dB]  / [2.83V 1m] "	"Frequency [Hz]"	"Sound Pessure Level [dB]  / [2.83V 1m] "	"Frequency [Hz]"	"Sound Pessure Level [dB]  / [2.83V 1m] "	"Frequency [Hz]"	"Sound Pessure Level [dB]  / [2.83V 1m] "	"Frequency [Hz]"	"Sound Pessure Level [dB]  / [2.83V 1m] "	"Frequency [Hz]"	"Sound Pessure Level [dB]  / [2.83V 1m] "	"Frequency [Hz]"	"Sound Pessure Level [dB]  / [2.83V 1m] "	"Frequency [Hz]"	"Sound Pessure Level [dB]  / [2.83V 1m] "	"Frequency [Hz]"	"Sound Pessure Level [dB]  / [2.83V 1m] "	"Frequency [Hz]"	"Sound Pessure Level [dB]  / [2.83V 1m] "	"Frequency [Hz]"	"Sound Pessure Level [dB]  / [2.83V 1m] "	"Frequency [Hz]"	"Sound Pessure Level [dB]  / [2.83V 1m] "	"Frequency [Hz]"	"Sound Pessure Level [dB]  / [2.83V 1m] "	"Frequency [Hz]"	"Sound Pessure Level [dB]  / [2.83V 1m] "	"Frequency [Hz]"	"Sound Pessure Level [dB]  / [2.83V 1m] "	"Frequency [Hz]"	"Sound Pessure Level [dB]  / [2.83V 1m] "	"Frequency [Hz]"	"Sound Pessure Level [dB]  / [2.83V 1m] "	"Frequency [Hz]"	"Sound Pessure Level [dB]  / [2.83V 1m] "	"Frequency [Hz]"	"Sound Pessure Level [dB]  / [2.83V 1m] "	"Frequency [Hz]"	"Sound Pessure Level [dB]  / [2.83V 1m] "	"Frequency [Hz]"	"Sound Pessure Level [dB]  / [2.83V 1m] "	"Frequency [Hz]"	"Sound Pessure Level [dB]  / [2.83V 1m] "	"Frequency [Hz]"	"Sound Pessure Level [dB]  / [2.83V 1m] "	"Frequency [Hz]"	"Sound Pessure Level [dB]  / [2.83V 1m] "	"Frequency [Hz]"	"Sound Pessure Level [dB]  / [2.83V 1m] "
20.5078	60.2639	20.5078	60.5853	20.5078	60.0408	20.5078	61.0064	20.5078	59.9108	20.5078	61.5217	20.5078	59.8696	20.5078	62.1188	20.5078	59.9199	20.5078	62.7802	20.5078	60.077	20.5078	63.4861	20.5078	60.3697	20.5078	64.2168	20.5078	60.8326	20.5078	64.9541	20.5078	61.4894	20.5078	65.6816	20.5078	62.3328	20.5078	66.3839	20.5078	63.3187	20.5078	67.0468	20.5078	64.3782	20.5078	67.6554	20.5078	65.4377	20.5078	68.1946	20.5078	66.4332	20.5078	68.6479	20.5078	67.3165	20.5078	68.9982	20.5078	68.0549	20.5078	69.2278	20.5078	68.6287	20.5078	69.3193	20.5078	69.0294	20.5078	69.2572
21.9727	64.5372	21.9727	64.737	21.9727	64.4051	21.9727	65.0123	21.9727	64.3308	21.9727	65.3671	21.9727	64.3061	21.9727	65.7994	21.9727	64.3277	21.9727	66.3011	21.9727	64.4012	21.9727	66.8594	21.9727	64.5443	21.9727	67.4578	21.9727	64.7866	21.9727	68.0786	21.9727	65.1618	21.9727	68.7036	21.9727	65.6932	21.9727	69.3148	21.9727	66.3773	21.9727	69.8949	21.9727	67.1783	21.9727	70.4263	21.9727	68.0386	21.9727	70.8918	21.9727	68.8951	21.9727	71.2739	21.9727	69.6923	21.9727	71.5551	21.9727	70.3879	21.9727	71.7189	21.9727	70.9533	21.9727	71.7502	21.9727	71.3719	21.9727	71.6371
23.4375	67.3027	23.4375	67.4584	23.4375	67.2033	23.4375	67.6829	23.4375	67.1475	23.4375	67.9846	23.4375	67.1253	23.4375	68.366	23.4375	67.133	23.4375	68.8223	23.4375	67.1768	23.4375	69.3423	23.4375	67.2749	23.4375	69.91	23.4375	67.4573	23.4375	70.5066	23.4375	67.7593	23.4375	71.1124	23.4375	68.2087	23.4375	71.7077	23.4375	68.8095	23.4375	72.273	23.4375	69.5348	23.4375	72.7894	23.4375	70.3336	23.4375	73.2384	23.4375	71.146	23.4375	73.6018	23.4375	71.9163	23.4375	73.8622	23.4375	72.6002	23.4375	74.0036	23.4375	73.1664	23.4375	74.0121	23.4375	73.5955	23.4375	73.8778
24.9023	70.3118	24.9023	70.4406	24.9023	70.2382	24.9023	70.6342	24.9023	70.2097	24.9023	70.8991	24.9023	70.218	24.9023	71.2369	24.9023	70.2592	24.9023	71.6436	24.9023	70.3367	24.9023	72.1099	24.9023	70.4623	24.9023	72.6224	24.9023	70.6564	24.9023	73.1647	24.9023	70.9439	24.9023	73.7192	24.9023	71.3454	24.9023	74.2676	24.9023	71.8663	24.9023	74.7914	24.9023	72.4899	24.9023	75.2725	24.9023	73.179	24.9023	75.6928	24.9023	73.886	24.9023	76.0347	24.9023	74.5631	24.9023	76.2814	24.9023	75.1699	24.9023	76.4178	24.9023	75.6758	24.9023	76.4314	24.9023	76.0606	24.9023	76.3135
26.3672	73.573	26.3672	73.6496	26.3672	73.5335	26.3672	73.7722	26.3672	73.523	26.3672	73.9488	26.3672	73.5357	26.3672	74.1848	26.3672	73.5694	26.3672	74.4821	26.3672	73.6273	26.3672	74.8375	26.3672	73.7193	26.3672	75.2436	26.3672	73.8615	26.3672	75.6886	26.3672	74.0743	26.3672	76.1577	26.3672	74.3763	26.3672	76.6338	26.3672	74.7762	26.3672	77.0985	26.3672	75.2664	26.3672	77.5329	26.3672	75.8221	26.3672	77.918	26.3672	76.4069	26.3672	78.235	26.3672	76.9802	26.3672	78.4666	26.3672	77.504	26.3672	78.5974	26.3672	77.9476	26.3672	78.6153	26.3672	78.2884	26.3672	78.5128
27.832	75.9833	27.832	76.0582	27.832	75.9524	27.832	76.1836	27.832	75.959	27.832	76.365	27.832	75.9984	27.832	76.6052	27.832	76.0691	27.832	76.9037	27.832	76.1736	27.832	77.2563	27.832	76.3193	27.832	77.6551	27.832	76.5176	27.832	78.0891	27.832	76.781	27.832	78.5449	27.832	77.119	27.832	79.0073	27.832	77.533	27.832	79.4598	27.832	78.0131	27.832	79.8851	27.832	78.5376	27.832	80.2658	27.832	79.0765	27.832	80.5842	27.832	79.5966	27.832	80.8238	27.832	80.0661	27.832	80.97	27.832	80.4585	27.832	81.011	27.832	80.7537	27.832	80.9395
29.2969	78.3245	29.2969	78.3751	29.2969	78.3108	29.2969	78.4682	29.2969	78.3291	29.2969	78.6084	29.2969	78.3759	29.2969	78.7991	29.2969	78.4501	29.2969	79.041	29.2969	78.5532	29.2969	79.3322	29.2969	78.6899	29.2969	79.6674	29.2969	78.8677	29.2969	80.0386	29.2969	79.0948	29.2969	80.4348	29.2969	79.3782	29.2969	80.8428	29.2969	79.7204	29.2969	81.2476	29.2969	80.116	29.2969	81.6327	29.2969	80.551	29.2969	81.9811	29.2969	81.0038	29.2969	82.2754	29.2969	81.4473	29.2969	82.4993	29.2969	81.8537	29.2969	82.6382	29.2969	82.1972	29.2969	82.6809	29.2969	82.4575	29.2969	82.6209
30.7617	80.3482	30.7617	80.3944	30.7617	80.3353	30.7617	80.4774	30.7617	80.3526	30.7617	80.6002	30.7617	80.398	30.7617	80.7651	30.7617	80.4705	30.7617	80.9729	30.7617	80.5711	30.7617	81.2223	30.7617	80.7026	30.7617	81.5102	30.7617	80.8696	30.7617	81.8306	30.7617	81.0777	30.7617	82.1752	30.7617	81.3321	30.7617	82.5335	30.7617	81.6347	30.7617	82.8929	30.7617	81.9821	30.7617	83.2387	30.7617	82.3636	30.7617	83.5554	30.7617	82.761	30.7617	83.8268	30.7617	83.1511	30.7617	84.0369	30.7617	83.5088	30.7617	84.1718	30.7617	83.8105	30.7617	84.2202	30.7617	84.037	30.7617	84.1755
32.2266	81.8341	32.2266	81.8602	32.2266	81.8381	32.2266	81.9197	32.2266	81.8696	32.2266	82.0155	32.2266	81.9265	32.2266	82.15	32.2266	82.008	32.2266	82.3246	32.2266	82.1149	32.2266	82.5387	32.2266	82.2494	32.2266	82.79	32.2266	82.4147	32.2266	83.074	32.2266	82.6147	32.2266	83.3837	32.2266	82.8525	32.2266	83.71	32.2266	83.1286	32.2266	84.0411	32.2266	83.4391	32.2266	84.3639	32.2266	83.7746	32.2266	84.6635	32.2266	84.1201	32.2266	84.9244	32.2266	84.4562	32.2266	85.1315	32.2266	84.7616	32.2266	85.2712	32.2266	85.0162	32.2266	85.3329	32.2266	85.203	32.2266	85.3104
33.6914	82.961	33.6914	82.9765	33.6914	82.9741	33.6914	83.0229	33.6914	83.0133	33.6914	83.1026	33.6914	83.0771	33.6914	83.2174	33.6914	83.1643	33.6914	83.3686	33.6914	83.2751	33.6914	83.5559	33.6914	83.4103	33.6914	83.7777	33.6914	83.5719	33.6914	84.0306	33.6914	83.762	33.6914	84.3089	33.6914	83.9825	33.6914	84.6048	33.6914	84.2331	33.6914	84.9082	33.6914	84.5104	33.6914	85.207	33.6914	84.8066	33.6914	85.4873	33.6914	85.1095	33.6914	85.7346	33.6914	85.4027	33.6914	85.9343	33.6914	85.6681	33.6914	86.0733	33.6914	85.8877	33.6914	86.1413	33.6914	86.0462	33.6914	86.1325
35.1562	84.053	35.1562	84.0584	35.1562	84.0745	35.1562	84.0924	35.1562	84.1209	35.1562	84.1569	35.1562	84.1907	35.1562	84.2533	35.1562	84.2827	35.1562	84.3825	35.1562	84.3964	35.1562	84.5444	35.1562	84.5317	35.1562	84.7377	35.1562	84.6888	35.1562	84.9598	35.1562	84.8684	35.1562	85.2062	35.1562	85.0706	35.1562	85.4704	35.1562	85.2945	35.1562	85.7436	35.1562	85.5373	35.1562	86.0153	35.1562	85.7929	35.1562	86.2731	35.1562	86.0519	35.1562	86.5035	35.1562	86.3013	35.1562	86.6928	35.1562	86.5259	35.1562	86.8288	35.1562	86.7101	35.1562	86.9016	35.1562	86.84	35.1562	86.9055
36.6211	84.8055	36.6211	84.8014	36.6211	84.834	36.6211	84.8235	36.6211	84.8854	36.6211	84.8732	36.6211	84.9582	36.6211	84.9518	36.6211	85.0512	36.6211	85.0601	36.6211	85.1633	36.6211	85.1985	36.6211	85.2938	36.6211	85.366	36.6211	85.4424	36.6211	85.5606	36.6211	85.6088	36.6211	85.7789	36.6211	85.7926	36.6211	86.0154	36.6211	85.9928	36.6211	86.2627	36.6211	86.2068	36.6211	86.5114	36.6211	86.4301	36.6211	86.7501	36.6211	86.6546	36.6211	86.9664	36.6211	86.8697	36.6211	87.1473	36.6211	87.0621	36.6211	87.281	36.6211	87.2179	36.6211	87.3581	36.6211	87.3246	36.6211	87.3728
38.0859	85.3582	38.0859	85.3473	38.0859	85.3918	38.0859	85.3605	38.0859	85.4467	38.0859	85.3991	38.0859	85.5214	38.0859	85.4641	38.0859	85.6145	38.0859	85.5563	38.0859	85.7248	38.0859	85.6759	38.0859	85.8512	38.0859	85.8224	38.0859	85.9927	38.0859	85.9943	38.0859	86.1485	38.0859	86.1886	38.0859	86.3176	38.0859	86.401	38.0859	86.4989	38.0859	86.6251	38.0859	86.6898	38.0859	86.8526	38.0859	86.8864	38.0859	87.0732	38.0859	87.0821	38.0859	87.2754	38.0859	87.2677	38.0859	87.4474	38.0859	87.4318	38.0859	87.5778	38.0859	87.5625	38.0859	87.6577	38.0859	87.6485	38.0859	87.6816
39.5508	85.6817	39.5508	85.6646	39.5508	85.7198	39.5508	85.6697	39.5508	85.7775	39.5508	85.698	39.5508	85.8536	39.5508	85.7505	39.5508	85.9467	39.5508	85.8277	39.5508	86.0552	39.5508	85.93	39.5508	86.1776	39.5508	86.0568	39.5508	86.3126	39.5508	86.2072	39.5508	86.4585	39.5508	86.3789	39.5508	86.6139	39.5508	86.5681	39.5508	86.7771	39.5508	86.7694	39.5508	86.9456	39.5508	86.9757	39.5508	87.1161	39.5508	87.1778	39.5508	87.2832	39.5508	87.3655	39.5508	87.4395	39.5508	87.5275	39.5508	87.5758	39.5508	87.6535	39.5508	87.6818	39.5508	87.735	39.5508	87.7479	39.5508	87.7668
41.0156	85.8994	41.0156	85.8754	41.0156	85.9437	41.0156	85.8726	41.0156	86.0071	41.0156	85.8917	41.0156	86.0883	41.0156	85.9333	41.0156	86.1856	41.0156	85.9979	41.0156	86.2971	41.0156	86.0855	41.0156	86.4206	41.0156	86.196	41.0156	86.5536	41.0156	86.3285	41.0156	86.694	41.0156	86.4813	41.0156	86.8393	41.0156	86.6512	41.0156	86.9875	41.0156	86.8338	41.0156	87.1363	41.0156	87.0227	41.0156	87.2829	41.0156	87.21	41.0156	87.4232	41.0156	87.3861	41.0156	87.5516	41.0156	87.541	41.0156	87.6607	41.0156	87.665	41.0156	87.7422	41.0156	87.7501	41.0156	87.7878	41.0156	87.7914
42.4805	86.1319	42.4805	86.1042	42.4805	86.1788	42.4805	86.0965	42.4805	86.2439	42.4805	86.1092	42.4805	86.3258	42.4805	86.1427	42.4805	86.4225	42.4805	86.1971	42.4805	86.5317	42.4805	86.2725	42.4805	86.6505	42.4805	86.3684	42.4805	86.776	42.4805	86.4842	42.4805	86.9052	42.4805	86.6184	42.4805	87.0356	42.4805	86.7684	42.4805	87.1649	42.4805	86.9304	42.4805	87.2913	42.4805	87.0991	42.4805	87.4131	42.4805	87.2674	42.4805	87.5276	42.4805	87.427	42.4805	87.6308	42.4805	87.5687	42.4805	87.7173	42.4805	87.6838	42.4805	87.7802	42.4805	87.7652	42.4805	87.8124	42.4805	87.8083
43.9453	86.3225	43.9453	86.2902	43.9453	86.3733	43.9453	86.2768	43.9453	86.4417	43.9453	86.2827	43.9453	86.5262	43.9453	86.3077	43.9453	86.6248	43.9453	86.3519	43.9453	86.7347	43.9453	86.4152	43.9453	86.8526	43.9453	86.4973	43.9453	86.9749	43.9453	86.5975	43.9453	87.0982	43.9453	86.7148	43.9453	87.2191	43.9453	86.8471	43.9453	87.3352	43.9453	86.9914	43.9453	87.4446	43.9453	87.1431	43.9453	87.546	43.9453	87.2962	43.9453	87.6376	43.9453	87.4434	43.9453	87.717	43.9453	87.5766	43.9453	87.7801	43.9453	87.6878	43.9453	87.822	43.9453	87.7704	43.9453	87.8369	43.9453	87.8205
45.4102	86.5305	45.4102	86.4953	45.4102	86.5836	45.4102	86.4781	45.4102	86.6536	45.4102	86.4791	45.4102	86.7392	45.4102	86.4978	45.4102	86.8381	45.4102	86.5342	45.4102	86.9473	45.4102	86.588	45.4102	87.0633	45.4102	86.6588	45.4102	87.1822	45.4102	86.7461	45.4102	87.3003	45.4102	86.8492	45.4102	87.4141	45.4102	86.9666	45.4102	87.5209	45.4102	87.0958	45.4102	87.6187	45.4102	87.2331	45.4102	87.7062	45.4102	87.3735	45.4102	87.782	45.4102	87.5106	45.4102	87.8443	45.4102	87.6372	45.4102	87.89	45.4102	87.7461	45.4102	87.9152	45.4102	87.8311	45.4102	87.9157	45.4102	87.8881
46.875	86.6275	46.875	86.5872	46.875	86.6847	46.875	86.564	46.875	86.7578	46.875	86.558	46.875	86.8453	46.875	86.569	46.875	86.945	46.875	86.5967	46.875	87.054	46.875	86.6408	46.875	87.1689	46.875	86.7012	46.875	87.2858	46.875	86.7773	46.875	87.4009	46.875	86.8686	46.875	87.5105	46.875	86.974	46.875	87.6115	46.875	87.0915	46.875	87.7016	46.875	87.2181	46.875	87.779	46.875	87.3495	46.875	87.8422	46.875	87.4803	46.875	87.8895	46.875	87.6039	46.875	87.9187	46.875	87.7139	46.875	87.9271	46.875	87.8044	46.875	87.9118	46.875	87.871
48.3398	86.7402	48.3398	86.6968	48.3398	86.7988	48.3398	86.6686	48.3398	86.8716	48.3398	86.6558	48.3398	86.9572	48.3398	86.6581	48.3398	87.0534	48.3398	86.675	48.3398	87.1573	48.3398	86.7063	48.3398	87.2654	48.3398	86.7517	48.3398	87.3739	48.3398	86.811	48.3398	87.4787	48.3398	86.8837	48.3398	87.5759	48.3398	86.9693	48.3398	87.6624	48.3398	87.0665	48.3398	87.7355	48.3398	87.1732	48.3398	87.7936	48.3398	87.2861	48.3398	87.8357	48.3398	87.401	48.3398	87.861	48.3398	87.5127	48.3398	87.8688	48.3398	87.6156	48.3398	87.8579	48.3398	87.7046	48.3398	87.8271	48.3398	87.7758
51.2695	86.8795	51.2695	86.8272	51.2695	86.944	51.2695	86.7875	51.2695	87.0199	51.2695	86.7606	51.2695	87.1056	51.2695	86.7464	51.2695	87.1993	51.2695	86.7446	51.2695	87.2984	51.2695	86.7552	51.2695	87.3995	51.2695	86.778	51.2695	87.499	51.2695	86.8132	51.2695	87.5928	51.2695	86.8607	51.2695	87.6769	51.2695	86.9206	51.2695	87.7476	51.2695	86.9926	51.2695	87.8018	51.2695	87.0757	51.2695	87.8375	51.2695	87.1682	51.2695	87.8536	51.2695	87.2676	51.2695	87.85	51.2695	87.37	51.2695	87.827	51.2695	87.4714	51.2695	87.7857	51.2695	87.5673	51.2695	87.7273	51.2695	87.6537
52.7344	86.9482	52.7344	86.8937	52.7344	87.0141	52.7344	86.8512	52.7344	87.0909	52.7344	86.8207	52.7344	87.177	52.7344	86.8018	52.7344	87.2706	52.7344	86.7945	52.7344	87.3691	52.7344	86.7984	52.7344	87.4691	52.7344	86.8134	52.7344	87.5668	52.7344	86.8395	52.7344	87.6578	52.7344	86.877	52.7344	87.7379	52.7344	86.926	52.7344	87.803	52.7344	86.9867	52.7344	87.8497	52.7344	87.0587	52.7344	87.8757	52.7344	87.1411	52.7344	87.8802	52.7344	87.2321	52.7344	87.8633	52.7344	87.3289	52.7344	87.8263	52.7344	87.428	52.7344	87.7712	52.7344	87.5256	52.7344	87.7007	52.7344	87.6178
54.1992	87.0506	54.1992	86.9929	54.1992	87.1188	54.1992	86.9461	54.1992	87.1965	54.1992	86.9101	54.1992	87.2824	54.1992	86.8846	54.1992	87.3741	54.1992	86.8693	54.1992	87.469	54.1992	86.8638	54.1992	87.5635	54.1992	86.868	54.1992	87.6538	54.1992	86.882	54.1992	87.7358	54.1992	86.9061	54.1992	87.8051	54.1992	86.9409	54.1992	87.858	54.1992	86.9869	54.1992	87.8911	54.1992	87.0446	54.1992	87.9026	54.1992	87.1136	54.1992	87.8917	54.1992	87.1931	54.1992	87.8592	54.1992	87.2812	54.1992	87.8072	54.1992	87.3752	54.1992	87.7387	54.1992	87.4717	54.1992	87.6574	54.1992	87.5671
55.6641	87.0374	55.6641	86.9779	55.6641	87.107	55.6641	86.9288	55.6641	87.1859	55.6641	86.8903	55.6641	87.2721	55.6641	86.8618	55.6641	87.3635	55.6641	86.8428	55.6641	87.457	55.6641	86.833	55.6641	87.549	55.6641	86.8321	55.6641	87.6357	55.6641	86.8401	55.6641	87.7128	55.6641	86.8575	55.6641	87.7764	55.6641	86.885	55.6641	87.8226	55.6641	86.9233	55.6641	87.8486	55.6641	86.9733	55.6641	87.8526	55.6641	87.0352	55.6641	87.834	55.6641	87.1087	55.6641	87.7938	55.6641	87.1924	55.6641	87.7344	55.6641	87.284	55.6641	87.6592	55.6641	87.3804	55.6641	87.5723	55.6641	87.4779
58.5938	87.1733	58.5938	87.1104	58.5938	87.2453	58.5938	87.0571	58.5938	87.3256	58.5938	87.0131	58.5938	87.4124	58.5938	86.9779	58.5938	87.5035	58.5938	86.951	58.5938	87.5958	58.5938	86.9318	58.5938	87.6856	58.5938	86.92	58.5938	87.769	58.5938	86.9156	58.5938	87.8414	58.5938	86.9193	58.5938	87.8985	58.5938	86.9318	58.5938	87.9362	58.5938	86.9547	58.5938	87.9512	58.5938	86.9894	58.5938	87.9415	58.5938	87.0373	58.5938	87.9067	58.5938	87.099	58.5938	87.8483	58.5938	87.1746	58.5938	87.7698	58.5938	87.2628	58.5938	87.676	58.5938	87.3612	58.5938	87.5729	58.5938	87.4661
60.0586	87.2482	60.0586	87.1823	60.0586	87.3224	60.0586	87.1249	60.0586	87.4037	60.0586	87.0762	60.0586	87.4903	60.0586	87.0355	60.0586	87.5799	60.0586	87.0025	60.0586	87.6694	60.0586	86.9765	60.0586	87.7551	60.0586	86.9573	60.0586	87.833	60.0586	86.9448	60.0586	87.8989	60.0586	86.9398	60.0586	87.9484	60.0586	86.9434	60.0586	87.9776	60.0586	86.957	60.0586	87.9832	60.0586	86.9826	60.0586	87.9633	60.0586	87.0219	60.0586	87.9178	60.0586	87.0763	60.0586	87.8487	60.0586	87.1462	60.0586	87.76	60.0586	87.231	60.0586	87.6573	60.0586	87.3285	60.0586	87.5469	60.0586	87.4354
62.9883	87.3601	62.9883	87.2871	62.9883	87.4397	62.9883	87.2214	62.9883	87.5248	62.9883	87.163	62.9883	87.6135	62.9883	87.1117	62.9883	87.7035	62.9883	87.067	62.9883	87.7916	62.9883	87.0284	62.9883	87.8744	62.9883	86.9958	62.9883	87.9479	62.9883	86.9694	62.9883	88.0082	62.9883	86.9502	62.9883	88.0509	62.9883	86.9395	62.9883	88.072	62.9883	86.9397	62.9883	88.0681	62.9883	86.9533	62.9883	88.037	62.9883	86.983	62.9883	87.9782	62.9883	87.0311	62.9883	87.8937	62.9883	87.0991	62.9883	87.7879	62.9883	87.1869	62.9883	87.6671	62.9883	87.2924	62.9883	87.5391	62.9883	87.4118
64.4531	87.4	64.4531	87.3237	64.4531	87.4822	64.4531	87.254	64.4531	87.569	64.4531	87.191	64.4531	87.6586	64.4531	87.1345	64.4531	87.7485	64.4531	87.0841	64.4531	87.8356	64.4531	87.0393	64.4531	87.9164	64.4531	87	64.4531	87.9871	64.4531	86.9666	64.4531	88.0436	64.4531	86.94	64.4531	88.0818	64.4531	86.922	64.4531	88.0977	64.4531	86.9148	64.4531	88.0877	64.4531	86.9216	64.4531	88.0496	64.4531	86.9455	64.4531	87.9829	64.4531	86.9892	64.4531	87.8898	64.4531	87.0548	64.4531	87.7748	64.4531	87.1424	64.4531	87.645	64.4531	87.2503	64.4531	87.5087	64.4531	87.3745
67.3828	87.4142	67.3828	87.3297	67.3828	87.5047	67.3828	87.2521	67.3828	87.5996	67.3828	87.1817	67.3828	87.6967	67.3828	87.1183	67.3828	87.7931	67.3828	87.0615	67.3828	87.8855	67.3828	87.0108	67.3828	87.9702	67.3828	86.966	67.3828	88.0431	67.3828	86.9275	67.3828	88.1001	67.3828	86.8961	67.3828	88.1372	67.3828	86.8737	67.3828	88.1502	67.3828	86.8629	67.3828	88.1356	67.3828	86.867	67.3828	88.0911	67.3828	86.8896	67.3828	88.0162	67.3828	86.9341	67.3828	87.913	67.3828	87.0028	67.3828	87.7864	67.3828	87.0963	67.3828	87.6439	67.3828	87.2128	67.3828	87.4945	67.3828	87.3479
68.8477	87.4988	68.8477	87.4127	68.8477	87.5915	68.8477	87.3338	68.8477	87.689	68.8477	87.2624	68.8477	87.789	68.8477	87.198	68.8477	87.8886	68.8477	87.1403	68.8477	87.9841	68.8477	87.0885	68.8477	88.0717	68.8477	87.0424	68.8477	88.147	68.8477	87.0022	68.8477	88.206	68.8477	86.9688	68.8477	88.2443	68.8477	86.9442	68.8477	88.2577	68.8477	86.9311	68.8477	88.2425	68.8477	86.933	68.8477	88.1962	68.8477	86.954	68.8477	88.1181	68.8477	86.9978	68.8477	88.0105	68.8477	87.0669	68.8477	87.8784	68.8477	87.1623	68.8477	87.7298	68.8477	87.2821	68.8477	87.5742	68.8477	87.4219
71.7773	87.6707	71.7773	87.5831	71.7773	87.7628	71.7773	87.5008	71.7773	87.8577	71.7773	87.4239	71.7773	87.9534	71.7773	87.3523	71.7773	88.0468	71.7773	87.2855	71.7773	88.1346	71.7773	87.223	71.7773	88.2132	71.7773	87.1646	71.7773	88.2784	71.7773	87.1108	71.7773	88.3262	71.7773	87.0627	71.7773	88.3523	71.7773	87.0225	71.7773	88.3525	71.7773	86.9933	71.7773	88.3231	71.7773	86.9793	71.7773	88.2617	71.7773	86.9851	71.7773	88.1681	71.7773	87.0152	71.7773	88.0453	71.7773	87.0732	71.7773	87.8992	71.7773	87.1608	71.7773	87.7387	71.7773	87.2768	71.7773	87.5744	71.7773	87.4172
74.707	87.7308	74.707	87.653	74.707	87.8111	74.707	87.5786	74.707	87.8929	74.707	87.5078	74.707	87.9748	74.707	87.4404	74.707	88.0547	74.707	87.3764	74.707	88.1306	74.707	87.3154	74.707	88.1997	74.707	87.2574	74.707	88.259	74.707	87.203	74.707	88.3048	74.707	87.1534	74.707	88.3329	74.707	87.111	74.707	88.3384	74.707	87.0789	74.707	88.3168	74.707	87.0614	74.707	88.2648	74.707	87.0633	74.707	88.1813	74.707	87.089	74.707	88.0683	74.707	87.1424	74.707	87.9314	74.707	87.2252	74.707	87.779	74.707	87.3361	74.707	87.6218	74.707	87.4709
77.6367	87.8148	77.6367	87.7275	77.6367	87.9027	77.6367	87.6421	77.6367	87.99	77.6367	87.559	77.6367	88.0748	77.6367	87.4788	77.6367	88.1552	77.6367	87.4014	77.6367	88.2291	77.6367	87.3271	77.6367	88.2942	77.6367	87.2562	77.6367	88.348	77.6367	87.1896	77.6367	88.3874	77.6367	87.129	77.6367	88.4086	77.6367	87.0772	77.6367	88.4072	77.6367	87.038	77.6367	88.3788	77.6367	87.0159	77.6367	88.3196	77.6367	87.0161	77.6367	88.2282	77.6367	87.0435	77.6367	88.1062	77.6367	87.1019	77.6367	87.9588	77.6367	87.1927	77.6367	87.7947	77.6367	87.3142	77.6367	87.6249	77.6367	87.4611
79.1016	87.8236	79.1016	87.7331	79.1016	87.9144	79.1016	87.644	79.1016	88.0039	79.1016	87.5571	79.1016	88.0901	79.1016	87.4729	79.1016	88.1709	79.1016	87.3916	79.1016	88.2443	79.1016	87.3134	79.1016	88.3079	79.1016	87.2388	79.1016	88.3595	79.1016	87.1687	79.1016	88.3962	79.1016	87.1049	79.1016	88.4146	79.1016	87.0502	79.1016	88.4105	79.1016	87.0085	79.1016	88.3794	79.1016	86.9847	79.1016	88.3177	79.1016	86.9838	79.1016	88.2235	79.1016	87.0111	79.1016	88.0984	79.1016	87.0704	79.1016	87.9475	79.1016	87.163	79.1016	87.7795	79.1016	87.2873	79.1016	87.6056	79.1016	87.4378
82.0312	87.8565	82.0312	87.7603	82.0312	87.9523	82.0312	87.6652	82.0312	88.0456	82.0312	87.5722	82.0312	88.1344	82.0312	87.482	82.0312	88.2163	82.0312	87.3949	82.0312	88.2892	82.0312	87.3112	82.0312	88.3509	82.0312	87.2312	82.0312	88.3992	82.0312	87.156	82.0312	88.4314	82.0312	87.0873	82.0312	88.4442	82.0312	87.0277	82.0312	88.4335	82.0312	86.9812	82.0312	88.395	82.0312	86.9527	82.0312	88.325	82.0312	86.9476	82.0312	88.222	82.0312	86.9713	82.0312	88.0877	82.0312	87.0281	82.0312	87.9279	82.0312	87.1197	82.0312	87.7517	82.0312	87.2449	82.0312	87.571	82.0312	87.3982
84.9609	87.8978	84.9609	87.7987	84.9609	87.9958	84.9609	87.6999	84.9609	88.0906	84.9609	87.6027	84.9609	88.1803	84.9609	87.5078	84.9609	88.2628	84.9609	87.4158	84.9609	88.3361	84.9609	87.327	84.9609	88.3981	84.9609	87.2418	84.9609	88.4467	84.9609	87.1614	84.9609	88.4792	84.9609	87.0874	84.9609	88.4917	84.9609	87.0226	84.9609	88.4797	84.9609	86.9712	84.9609	88.4384	84.9609	86.938	84.9609	88.3637	84.9609	86.929	84.9609	88.2539	84.9609	86.95	84.9609	88.1112	84.9609	87.0055	84.9609	87.9418	84.9609	87.098	84.9609	87.7558	84.9609	87.2264	84.9609	87.5659	84.9609	87.3854
87.8906	87.9041	87.8906	87.805	87.8906	88.0009	87.8906	87.7052	87.8906	88.0934	87.8906	87.6059	87.8906	88.1796	87.8906	87.508	87.8906	88.258	87.8906	87.4119	87.8906	88.3269	87.8906	87.318	87.8906	88.385	87.8906	87.2268	87.8906	88.4309	87.8906	87.1395	87.8906	88.4621	87.8906	87.058	87.8906	88.475	87.8906	86.9855	87.8906	88.4646	87.8906	86.9263	87.8906	88.4253	87.8906	86.8861	87.8906	88.3517	87.8906	86.8713	87.8906	88.2413	87.8906	86.8884	87.8906	88.0953	87.8906	86.9427	87.8906	87.9198	87.8906	87.037	87.8906	87.7256	87.8906	87.1702	87.8906	87.5262	87.8906	87.3366
90.8203	87.848	90.8203	87.7399	90.8203	87.9528	90.8203	87.6307	90.8203	88.0517	90.8203	87.5223	90.8203	88.1423	90.8203	87.4161	90.8203	88.2228	90.8203	87.313	90.8203	88.2916	90.8203	87.2138	90.8203	88.3478	90.8203	87.1192	90.8203	88.3903	90.8203	87.0304	90.8203	88.4173	90.8203	86.9492	90.8203	88.4258	90.8203	86.8785	90.8203	88.4114	90.8203	86.8226	90.8203	88.3684	90.8203	86.7866	90.8203	88.2917	90.8203	86.7766	90.8203	88.1786	90.8203	86.7987	90.8203	88.0301	90.8203	86.8578	90.8203	87.8524	90.8203	86.9564	90.8203	87.656	90.8203	87.0932	90.8203	87.4545	90.8203	87.2625
95.2148	87.8136	95.2148	87.6981	95.2148	87.9238	95.2148	87.5797	95.2148	88.0259	95.2148	87.4607	95.2148	88.1178	95.2148	87.3428	95.2148	88.1973	95.2148	87.2274	95.2148	88.2633	95.2148	87.1154	95.2148	88.3147	95.2148	87.008	95.2148	88.3505	95.2148	86.9064	95.2148	88.3689	95.2148	86.8126	95.2148	88.3668	95.2148	86.7297	95.2148	88.3396	95.2148	86.662	95.2148	88.2818	95.2148	86.615	95.2148	88.1883	95.2148	86.5949	95.2148	88.0569	95.2148	86.6084	95.2148	87.8897	95.2148	86.6609	95.2148	87.6939	95.2148	86.7559	95.2148	87.4814	95.2148	86.8927	95.2148	87.2672	95.2148	87.0664
98.1445	87.7095	98.1445	87.5982	98.1445	87.8151	98.1445	87.4837	98.1445	87.9123	98.1445	87.3686	98.1445	87.9992	98.1445	87.2548	98.1445	88.0745	98.1445	87.1442	98.1445	88.1375	98.1445	87.038	98.1445	88.1884	98.1445	86.9374	98.1445	88.227	98.1445	86.8435	98.1445	88.2523	98.1445	86.7583	98.1445	88.2611	98.1445	86.6844	98.1445	88.248	98.1445	86.6255	98.1445	88.206	98.1445	86.5865	98.1445	88.1283	98.1445	86.5733	98.1445	88.0111	98.1445	86.592	98.1445	87.8557	98.1445	86.6481	98.1445	87.6688	98.1445	86.7447	98.1445	87.4626	98.1445	86.8818	98.1445	87.2525	98.1445	87.0543
101.074	87.5122	101.074	87.4011	101.074	87.6134	101.074	87.2832	101.074	87.702	101.074	87.162	101.074	87.7765	101.074	87.0406	101.074	87.8368	101.074	86.922	101.074	87.8845	101.074	86.8085	101.074	87.9221	101.074	86.7024	101.074	87.9525	101.074	86.6061	101.074	87.9766	101.074	86.522	101.074	87.9929	101.074	86.4534	101.074	87.9956	101.074	86.4041	101.074	87.976	101.074	86.3787	101.074	87.9247	101.074	86.3823	101.074	87.8347	101.074	86.4197	101.074	87.7039	101.074	86.4946	101.074	87.5368	101.074	86.6084	101.074	87.3438	101.074	86.759	101.074	87.1395	101.074	86.9398
105.469	87.4932	105.469	87.3747	105.469	87.5943	105.469	87.2427	105.469	87.6742	105.469	87.1015	105.469	87.7306	105.469	86.9548	105.469	87.7633	105.469	86.8059	105.469	87.7743	105.469	86.6577	105.469	87.7677	105.469	86.513	105.469	87.749	105.469	86.3751	105.469	87.723	105.469	86.2481	105.469	87.6923	105.469	86.137	105.469	87.6552	105.469	86.048	105.469	87.6056	105.469	85.9879	105.469	87.5344	105.469	85.964	105.469	87.4328	105.469	85.9827	105.469	87.2959	105.469	86.0482	105.469	87.1246	105.469	86.161	105.469	86.9265	105.469	86.3167	105.469	86.7148	105.469	86.506
108.398	87.5054	108.398	87.3838	108.398	87.6082	108.398	87.2481	108.398	87.6885	108.398	87.1028	108.398	87.7437	108.398	86.952	108.398	87.7733	108.398	86.7993	108.398	87.7785	108.398	86.6477	108.398	87.7627	108.398	86.4998	108.398	87.7301	108.398	86.3584	108.398	87.6851	108.398	86.2268	108.398	87.6306	108.398	86.1092	108.398	87.5661	108.398	86.011	108.398	87.488	108.398	85.9388	108.398	87.3901	108.398	85.8994	108.398	87.2666	108.398	85.8996	108.398	87.1143	108.398	85.9443	108.398	86.9355	108.398	86.0353	108.398	86.7381	108.398	86.1698	108.398	86.5347	108.398	86.3403
112.793	87.484	112.793	87.354	112.793	87.6019	112.793	87.2159	112.793	87.7036	112.793	87.0736	112.793	87.7856	112.793	86.9302	112.793	87.8451	112.793	86.7879	112.793	87.8806	112.793	86.6487	112.793	87.8916	112.793	86.5138	112.793	87.8791	112.793	86.3848	112.793	87.8441	112.793	86.2637	112.793	87.7877	112.793	86.1534	112.793	87.7089	112.793	86.0583	112.793	87.6053	112.793	85.984	112.793	87.4742	112.793	85.9372	112.793	87.314	112.793	85.9248	112.793	87.1269	112.793	85.953	112.793	86.9197	112.793	86.0257	112.793	86.7038	112.793	86.1434	112.793	86.4931	112.793	86.3021
117.188	87.3505	117.188	87.2321	117.188	87.454	117.188	87.1025	117.188	87.5391	117.188	86.9652	117.188	87.6031	117.188	86.8237	117.188	87.6448	117.188	86.6805	117.188	87.6644	117.188	86.5385	117.188	87.664	117.188	86.3999	117.188	87.6468	117.188	86.2677	117.188	87.6161	117.188	86.1452	117.188	87.5735	117.188	86.0366	117.188	87.5176	117.188	85.9471	117.188	87.4436	117.188	85.8824	117.188	87.3452	117.188	85.8488	117.188	87.2175	117.188	85.8522	117.188	87.0592	117.188	85.8969	117.188	86.8749	117.188	85.9849	117.188	86.6744	117.188	86.1146	117.188	86.4712	117.188	86.2801
120.117	87.2615	120.117	87.1406	120.117	87.3655	120.117	87.0071	120.117	87.4487	120.117	86.8654	120.117	87.5083	120.117	86.7191	120.117	87.543	120.117	86.5715	120.117	87.5534	120.117	86.4253	120.117	87.5423	120.117	86.2831	120.117	87.5137	120.117	86.148	120.117	87.4717	120.117	86.0233	120.117	87.4188	120.117	85.9136	120.117	87.3544	120.117	85.8241	120.117	87.2747	120.117	85.7606	120.117	87.1741	120.117	85.7292	120.117	87.048	120.117	85.7349	120.117	86.8951	120.117	85.7812	120.117	86.7193	120.117	85.8689	120.117	86.5291	120.117	85.9955	120.117	86.3366	120.117	86.1546
124.512	87.1162	124.512	86.9737	124.512	87.2416	124.512	86.8196	124.512	87.3448	124.512	86.6594	124.512	87.4221	124.512	86.498	124.512	87.4715	124.512	86.3393	124.512	87.4937	124.512	86.1867	124.512	87.4915	124.512	86.0429	124.512	87.4695	124.512	85.9107	124.512	87.4324	124.512	85.7932	124.512	87.3827	124.512	85.6939	124.512	87.3196	124.512	85.6175	124.512	87.2387	124.512	85.5689	124.512	87.1339	124.512	85.5531	124.512	87.0005	124.512	85.5745	124.512	86.8376	124.512	85.6358	124.512	86.6502	124.512	85.7376	124.512	86.4478	124.512	85.8771	124.512	86.2428	124.512	86.0486
128.906	87.0389	128.906	86.896	128.906	87.1609	128.906	86.7381	128.906	87.2568	128.906	86.5714	128.906	87.3226	128.906	86.4014	128.906	87.3571	128.906	86.2329	128.906	87.3617	128.906	86.0701	128.906	87.3406	128.906	85.9167	128.906	87.3005	128.906	85.7761	128.906	87.2479	128.906	85.6524	128.906	87.1877	128.906	85.5499	128.906	87.1203	128.906	85.4735	128.906	87.0418	128.906	85.4283	128.906	86.9454	128.906	85.4187	128.906	86.825	128.906	85.448	128.906	86.6778	128.906	85.5173	128.906	86.5065	128.906	85.6253	128.906	86.3186	128.906	85.7677	128.906	86.1249	128.906	85.9374
133.301	87.0387	133.301	86.8835	133.301	87.1705	133.301	86.7115	133.301	87.2733	133.301	86.5291	133.301	87.343	133.301	86.3421	133.301	87.3777	133.301	86.1557	133.301	87.3785	133.301	85.9743	133.301	87.3492	133.301	85.8018	133.301	87.2953	133.301	85.6422	133.301	87.2229	133.301	85.4997	133.301	87.1364	133.301	85.3793	133.301	87.0372	133.301	85.2863	133.301	86.9231	133.301	85.2263	133.301	86.7903	133.301	85.2038	133.301	86.6362	133.301	85.2221	133.301	86.4612	133.301	85.2822	133.301	86.2697	133.301	85.3825	133.301	86.0698	133.301	85.5187	133.301	85.8713	133.301	85.6844
139.16	86.9215	139.16	86.7558	139.16	87.0594	139.16	86.569	139.16	87.1642	139.16	86.3683	139.16	87.2328	139.16	86.1606	139.16	87.2647	139.16	85.9525	139.16	87.2626	139.16	85.7499	139.16	87.2316	139.16	85.5582	139.16	87.1783	139.16	85.3828	139.16	87.1085	139.16	85.2291	139.16	87.0254	139.16	85.1027	139.16	86.928	139.16	85.0093	139.16	86.8117	139.16	84.9539	139.16	86.6713	139.16	84.94	139.16	86.5041	139.16	84.9695	139.16	86.3123	139.16	85.0416	139.16	86.1033	139.16	85.1535	139.16	85.8871	139.16	85.3004	139.16	85.675	139.16	85.4766
143.555	86.7929	143.555	86.6229	143.555	86.9335	143.555	86.43	143.555	87.0396	143.555	86.2215	143.555	87.1083	143.555	86.0049	143.555	87.1398	143.555	85.7873	143.555	87.1374	143.555	85.575	143.555	87.107	143.555	85.3742	143.555	87.0557	143.555	85.1906	143.555	86.9897	143.555	85.03	143.555	86.9115	143.555	84.8981	143.555	86.8188	143.555	84.8007	143.555	86.7053	143.555	84.7426	143.555	86.5637	143.555	84.7274	143.555	86.3899	143.555	84.7569	143.555	86.1863	143.555	84.8307	143.555	85.9614	143.555	84.9464	143.555	85.7278	143.555	85.1002	143.555	85.4989	143.555	85.2867
147.949	86.6094	147.949	86.4207	147.949	86.7666	147.949	86.2079	147.949	86.8865	147.949	85.9794	147.949	86.9663	147.949	85.7437	147.949	87.0064	147.949	85.5092	147.949	87.0111	147.949	85.2837	147.949	86.9877	147.949	85.0746	147.949	86.9446	147.949	84.8889	147.949	86.8886	147.949	84.7332	147.949	86.8221	147.949	84.6135	147.949	86.7417	147.949	84.5351	147.949	86.6393	147.949	84.5016	147.949	86.5061	147.949	84.5146	147.949	86.3374	147.949	84.5737	147.949	86.1347	147.949	84.6762	147.949	85.9067	147.949	84.8182	147.949	85.6662	147.949	84.9947	147.949	85.4267	147.949	85.1998
153.809	86.5534	153.809	86.3497	153.809	86.7121	153.809	86.1093	153.809	86.8202	153.809	85.8419	153.809	86.8754	153.809	85.5581	153.809	86.8799	153.809	85.269	153.809	86.8411	153.809	84.9863	153.809	86.7708	153.809	84.7217	153.809	86.6838	153.809	84.4874	153.809	86.5942	153.809	84.2947	153.809	86.5111	153.809	84.1541	153.809	86.4343	153.809	84.0732	153.809	86.3546	153.809	84.0558	153.809	86.2572	153.809	84.1012	153.809	86.1284	153.809	84.2044	153.809	85.9605	153.809	84.3572	153.809	85.755	153.809	84.55	153.809	85.5204	153.809	84.7731	153.809	85.2697	153.809	85.0166
159.668	86.7666	159.668	86.5878	159.668	86.9044	159.668	86.3748	159.668	86.9962	159.668	86.1356	159.668	87.0396	159.668	85.8783	159.668	87.0359	159.668	85.6115	159.668	86.9903	159.668	85.3436	159.668	86.9121	159.668	85.0833	159.668	86.8128	159.668	84.8402	159.668	86.7039	159.668	84.6251	159.668	86.5935	159.668	84.4494	159.668	86.484	159.668	84.3244	159.668	86.3717	159.668	84.2598	159.668	86.2491	159.668	84.261	159.668	86.1085	159.668	84.3284	159.668	85.9441	159.668	84.4558	159.668	85.7545	159.668	84.6324	159.668	85.5418	159.668	84.8441	159.668	85.3122	159.668	85.0755
165.527	86.5796	165.527	86.4042	165.527	86.7084	165.527	86.1902	165.527	86.785	165.527	85.9472	165.527	86.8078	165.527	85.6856	165.527	86.7797	165.527	85.4164	165.527	86.709	165.527	85.1506	165.527	86.6093	165.527	84.8994	165.527	86.497	165.527	84.6738	165.527	86.3878	165.527	84.4843	165.527	86.2912	165.527	84.3403	165.527	86.2082	165.527	84.2496	165.527	86.1308	165.527	84.2172	165.527	86.0465	165.527	84.2445	165.527	85.9434	165.527	84.3287	165.527	85.8139	165.527	84.4629	165.527	85.6557	165.527	84.6369	165.527	85.4715	165.527	84.8378	165.527	85.2673	165.527	85.0523
171.387	86.6414	171.387	86.4474	171.387	86.7857	171.387	86.2123	171.387	86.8738	171.387	85.9457	171.387	86.9027	171.387	85.6578	171.387	86.8738	171.387	85.359	171.387	86.7934	171.387	85.0598	171.387	86.6729	171.387	84.7714	171.387	86.5268	171.387	84.5054	171.387	86.37	171.387	84.2744	171.387	86.2137	171.387	84.0911	171.387	86.0631	171.387	83.9671	171.387	85.917	171.387	83.9107	171.387	85.7713	171.387	83.9246	171.387	85.6219	171.387	84.0051	171.387	85.4655	171.387	84.1417	171.387	85.2998	171.387	84.319	171.387	85.122	171.387	84.5197	171.387	84.9308	171.387	84.7277
177.246	86.4244	177.246	86.229	177.246	86.5691	177.246	85.9923	177.246	86.656	177.246	85.7253	177.246	86.6818	177.246	85.4398	177.246	86.6482	177.246	85.1473	177.246	86.5622	177.246	84.8591	177.246	86.4359	177.246	84.5859	177.246	86.2851	177.246	84.3372	177.246	86.1251	177.246	84.1222	177.246	85.9665	177.246	83.9489	177.246	85.8124	177.246	83.8246	177.246	85.6593	177.246	83.7546	177.246	85.5006	177.246	83.7421	177.246	85.3319	177.246	83.7863	177.246	85.1526	177.246	83.8824	177.246	84.9647	177.246	84.0211	177.246	84.7711	177.246	84.1907	177.246	84.5743	177.246	84.3785
183.105	86.2911	183.105	86.0975	183.105	86.4289	183.105	85.8573	183.105	86.505	183.105	85.5814	183.105	86.5174	183.105	85.2824	183.105	86.4699	183.105	84.9737	183.105	86.3721	183.105	84.6696	183.105	86.2392	183.105	84.3845	183.105	86.0891	183.105	84.1327	183.105	85.9379	183.105	83.9269	183.105	85.7943	183.105	83.7766	183.105	85.6581	183.105	83.6871	183.105	85.5226	183.105	83.6584	183.105	85.3801	183.105	83.686	183.105	85.227	183.105	83.7621	183.105	85.0639	183.105	83.8773	183.105	84.8936	183.105	84.0218	183.105	84.7185	183.105	84.186	183.105	84.5402	183.105	84.3611
188.965	86.4548	188.965	86.2494	188.965	86.5974	188.965	85.9916	188.965	86.6709	188.965	85.6937	188.965	86.6735	188.965	85.3696	188.965	86.6099	188.965	85.0344	188.965	86.4917	188.965	84.7039	188.965	86.3363	188.965	84.3947	188.965	86.1647	188.965	84.1233	188.965	85.9958	188.965	83.905	188.965	85.8413	188.965	83.7512	188.965	85.7029	188.965	83.6678	188.965	85.5734	188.965	83.6537	188.965	85.4428	188.965	83.7015	188.965	85.3039	188.965	83.8	188.965	85.1536	188.965	83.9363	188.965	84.9923	188.965	84.0983	188.965	84.8215	188.965	84.2755	188.965	84.6428	188.965	84.4592
196.289	86.4456	196.289	86.2061	196.289	86.6133	196.289	85.9068	196.289	86.7009	196.289	85.562	196.289	86.7054	196.289	85.1882	196.289	86.6308	196.289	84.8034	196.289	86.4896	196.289	84.4274	196.289	86.3036	196.289	84.0816	196.289	86.1009	196.289	83.7875	196.289	85.909	196.289	83.5647	196.289	85.7463	196.289	83.4273	196.289	85.6156	196.289	83.381	196.289	85.5063	196.289	83.4211	196.289	85.4026	196.289	83.5341	196.289	85.2926	196.289	83.7009	196.289	85.1708	196.289	83.9011	196.289	85.0354	196.289	84.1157	196.289	84.8851	196.289	84.3296	196.289	84.7179	196.289	84.5322
203.613	86.7476	203.613	86.5198	203.613	86.8869	203.613	86.2148	203.613	86.9285	203.613	85.8458	203.613	86.8677	203.613	85.4268	203.613	86.706	203.613	84.9741	203.613	86.4532	203.613	84.5076	203.613	86.1294	203.613	84.0519	203.613	85.7655	203.613	83.6372	203.613	85.401	203.613	83.2962	203.613	85.0771	203.613	83.0587	203.613	84.8251	203.613	82.9434	203.613	84.6575	203.613	82.9508	203.613	84.5648	203.613	83.0634	203.613	84.5219	203.613	83.2512	203.613	84.4976	203.613	83.4802	203.613	84.4633	203.613	83.7195	203.613	84.3985	203.613	83.9448	203.613	84.2914	203.613	84.1388
210.938	86.4439	210.938	86.2343	210.938	86.5751	210.938	85.9554	210.938	86.6221	210.938	85.6189	210.938	86.5834	210.938	85.2379	210.938	86.4625	210.938	84.8271	210.938	86.2683	210.938	84.4025	210.938	86.0154	210.938	83.9827	210.938	85.723	210.938	83.5886	210.938	85.4126	210.938	83.2438	210.938	85.1044	210.938	82.972	210.938	84.8147	210.938	82.7926	210.938	84.5558	210.938	82.7158	210.938	84.3377	210.938	82.7389	210.938	84.1662	210.938	82.8461	210.938	84.0382	210.938	83.0122	210.938	83.9385	210.938	83.2081	210.938	83.8431	210.938	83.4059	210.938	83.7294	210.938	83.5837
218.262	86.1937	218.262	85.952	218.262	86.3576	218.262	85.6469	218.262	86.4326	218.262	85.2952	218.262	86.4129	218.262	84.9146	218.262	86.2999	218.262	84.5233	218.262	86.1042	218.262	84.1402	218.262	85.8468	218.262	83.7841	218.262	85.5581	218.262	83.474	218.262	85.2726	218.262	83.2264	218.262	85.0198	218.262	83.0533	218.262	84.8165	218.262	82.9596	218.262	84.6627	218.262	82.9427	218.262	84.546	218.262	82.9939	218.262	84.4481	218.262	83.101	218.262	84.3519	218.262	83.2497	218.262	84.2439	218.262	83.4251	218.262	84.1164	218.262	83.6119	218.262	83.9665	218.262	83.796
225.586	86.6917	225.586	86.4415	225.586	86.8466	225.586	86.1081	225.586	86.8981	225.586	85.7072	225.586	86.8435	225.586	85.2569	225.586	86.6876	225.586	84.7794	225.586	86.4443	225.586	84.301	225.586	86.1372	225.586	83.8528	225.586	85.7971	225.586	83.4694	225.586	85.4557	225.586	83.1831	225.586	85.1394	225.586	83.016	225.586	84.8665	225.586	82.9728	225.586	84.6504	225.586	83.0399	225.586	84.5031	225.586	83.191	225.586	84.4288	225.586	83.3959	225.586	84.4133	225.586	83.6266	225.586	84.4217	225.586	83.8583	225.586	84.413	225.586	84.0695	225.586	84.3566	225.586	84.2405
232.91	86.8826	232.91	86.6051	232.91	87.0558	232.91	86.2356	232.91	87.1151	232.91	85.7883	232.91	87.0545	232.91	85.2795	232.91	86.8732	232.91	84.729	232.91	86.5776	232.91	84.1619	232.91	86.1834	232.91	83.6118	232.91	85.718	232.91	83.1217	232.91	85.2219	232.91	82.7399	232.91	84.7444	232.91	82.5074	232.91	84.3354	232.91	82.4427	232.91	84.0334	232.91	82.5314	232.91	83.8569	232.91	82.7328	232.91	83.7989	232.91	82.9956	232.91	83.8275	232.91	83.2729	232.91	83.8935	232.91	83.5284	232.91	83.9463	232.91	83.7361	232.91	83.948	232.91	83.8789
241.699	86.4439	241.699	86.1585	241.699	86.6208	241.699	85.7742	241.699	86.6848	241.699	85.306	241.699	86.6363	241.699	84.7737	241.699	86.4806	241.699	84.2019	241.699	86.2277	241.699	83.6198	241.699	85.8934	241.699	83.0622	241.699	85.4974	241.699	82.5695	241.699	85.0593	241.699	82.1846	241.699	84.5931	241.699	81.945	241.699	84.1095	241.699	81.8693	241.699	83.6291	241.699	81.9473	241.699	83.1995	241.699	82.1413	241.699	82.8919	241.699	82.3977	241.699	82.7609	241.699	82.6614	241.699	82.7951	241.699	82.8851	241.699	82.9176	241.699	83.033	241.699	83.0357	241.699	83.0836
250.488	87.098	250.488	86.7567	250.488	87.3366	250.488	86.3235	250.488	87.4633	250.488	85.81	250.488	87.4706	250.488	85.2299	250.488	87.3554	250.488	84.599	250.488	87.1223	250.488	83.9375	250.488	86.7863	250.488	83.2723	250.488	86.3737	250.488	82.6401	250.488	85.9192	250.488	82.0898	250.488	85.4578	250.488	81.6776	250.488	85.0155	250.488	81.452	250.488	84.606	250.488	81.4321	250.488	84.2377	250.488	81.5938	250.488	83.9219	250.488	81.8783	250.488	83.6709	250.488	82.2156	250.488	83.4853	250.488	82.5457	250.488	83.3445	250.488	82.8288	250.488	83.2118	250.488	83.0487
259.277	87.0995	259.277	86.7868	259.277	87.305	259.277	86.3739	259.277	87.3991	259.277	85.87	259.277	87.3825	259.277	85.2863	259.277	87.2614	259.277	84.6389	259.277	87.0468	259.277	83.9534	259.277	86.7505	259.277	83.2699	259.277	86.3802	259.277	82.6456	259.277	85.9352	259.277	82.1486	259.277	85.4085	259.277	81.8382	259.277	84.8	259.277	81.7408	259.277	84.143	259.277	81.8379	259.277	83.5294	259.277	82.0776	259.277	83.097	259.277	82.396	259.277	82.9412	259.277	82.7325	259.277	83.0235	259.277	83.0345	259.277	83.2023	259.277	83.2571	259.277	83.341	259.277	83.3651
268.066	86.5101	268.066	86.216	268.066	86.7049	268.066	85.8286	268.066	86.7976	268.066	85.354	268.066	86.7908	268.066	84.7978	268.066	86.6939	268.066	84.166	268.066	86.5234	268.066	83.4707	268.066	86.3013	268.066	82.7384	268.066	86.0505	268.066	82.0204	268.066	85.7834	268.066	81.3965	268.066	85.4895	268.066	80.9602	268.066	85.134	268.066	80.7791	268.066	84.678	268.066	80.8532	268.066	84.1147	268.066	81.1142	268.066	83.5033	268.066	81.4658	268.066	82.9664	268.066	81.8226	268.066	82.6211	268.066	82.1234	268.066	82.4838	268.066	82.3316	268.066	82.4613	268.066	82.4359
276.855	86.3324	276.855	86.0882	276.855	86.4781	276.855	85.7526	276.855	86.5219	276.855	85.3346	276.855	86.4665	276.855	84.842	276.855	86.3207	276.855	84.281	276.855	86.0994	276.855	83.6594	276.855	85.8234	276.855	82.9932	276.855	85.5193	276.855	82.3154	276.855	85.2159	276.855	81.6846	276.855	84.9363	276.855	81.1826	276.855	84.687	276.855	80.8917	276.855	84.4551	276.855	80.8547	276.855	84.2204	276.855	81.0512	276.855	83.9775	276.855	81.4114	276.855	83.744	276.855	81.8503	276.855	83.5442	276.855	82.2925	276.855	83.3776	276.855	82.6818	276.855	83.2083	276.855	82.9871
287.109	86.4555	287.109	86.2346	287.109	86.5618	287.109	85.9084	287.109	86.5514	287.109	85.49	287.109	86.4306	287.109	84.9936	287.109	86.2146	287.109	84.4336	287.109	85.9251	287.109	83.825	287.109	85.5868	287.109	83.1871	287.109	85.2229	287.109	82.5482	287.109	84.8501	287.109	81.9512	287.109	84.4812	287.109	81.4549	287.109	84.1315	287.109	81.1273	287.109	83.8275	287.109	81.0246	287.109	83.6033	287.109	81.1639	287.109	83.4832	287.109	81.5089	287.109	83.4604	287.109	81.9799	287.109	83.4908	287.109	82.4805	287.109	83.5072	287.109	82.9248	287.109	83.4434	287.109	83.2537
297.363	87.1352	297.363	86.8987	297.363	87.2115	297.363	86.5111	297.363	87.1208	297.363	85.9809	297.363	86.8634	297.363	85.3178	297.363	86.4565	297.363	84.5372	297.363	85.9436	297.363	83.6677	297.363	85.3956	297.363	82.7632	297.363	84.8897	297.363	81.9118	297.363	84.4647	297.363	81.2272	297.363	84.0912	297.363	80.805	297.363	83.6991	297.363	80.6643	297.363	83.2473	297.363	80.7395	297.363	82.7824	297.363	80.937	297.363	82.4324	297.363	81.1929	297.363	82.3017	297.363	81.4829	297.363	82.3553	297.363	81.7948	297.363	82.4509	297.363	82.0979	297.363	82.4618	297.363	82.3381
307.617	87.2082	307.617	86.88	307.617	87.3963	307.617	86.4321	307.617	87.4281	307.617	85.886	307.617	87.2916	307.617	85.2605	307.617	86.9816	307.617	84.5691	307.617	86.5048	307.617	83.8198	307.617	85.8892	307.617	83.024	307.617	85.1939	307.617	82.2132	307.617	84.502	307.617	81.4624	307.617	83.8843	307.617	80.8986	307.617	83.3536	307.617	80.654	307.617	82.8762	307.617	80.7664	307.617	82.452	307.617	81.136	307.617	82.1691	307.617	81.6051	307.617	82.1299	307.617	82.0515	307.617	82.3106	307.617	82.4117	307.617	82.562	307.617	82.6584	307.617	82.7387	307.617	82.7729
319.336	87.1878	319.336	86.8805	319.336	87.361	319.336	86.4427	319.336	87.3978	319.336	85.8801	319.336	87.2963	319.336	85.2029	319.336	87.0554	319.336	84.4274	319.336	86.6773	319.336	83.5797	319.336	86.1697	319.336	82.7005	319.336	85.5465	319.336	81.8501	319.336	84.828	319.336	81.1097	319.336	84.0377	319.336	80.5733	319.336	83.1985	319.336	80.3244	319.336	82.3422	319.336	80.3982	319.336	81.5528	319.336	80.752	319.336	81.0127	319.336	81.2745	319.336	80.9256	319.336	81.828	319.336	81.2878	319.336	82.2876	319.336	81.8466	319.336	82.5586	319.336	82.3278	319.336	82.5793
329.59	87.0138	329.59	86.8108	329.59	87.0874	329.59	86.4759	329.59	87.0379	329.59	86.0074	329.59	86.878	329.59	85.4023	329.59	86.6255	329.59	84.6567	329.59	86.3	329.59	83.774	329.59	85.9172	329.59	82.7806	329.59	85.4804	329.59	81.7487	329.59	84.9718	329.59	80.8131	329.59	84.3488	329.59	80.1482	329.59	83.5538	329.59	79.8768	329.59	82.5535	329.59	79.9858	329.59	81.4273	329.59	80.3577	329.59	80.4943	329.59	80.8633	329.59	80.2271	329.59	81.3992	329.59	80.6937	329.59	81.8737	329.59	81.4277	329.59	82.1912	329.59	82.0032	329.59	82.2576
341.309	86.8885	341.309	86.7249	341.309	86.9033	341.309	86.4115	341.309	86.7753	341.309	85.9448	341.309	86.5243	341.309	85.3158	341.309	86.1888	341.309	84.5129	341.309	85.8215	341.309	83.5321	341.309	85.4734	341.309	82.397	341.309	85.1704	341.309	81.1918	341.309	84.8887	341.309	80.0994	341.309	84.546	341.309	79.3829	341.309	84.0214	341.309	79.228	341.309	83.196	341.309	79.5716	341.309	82.0211	341.309	80.1861	341.309	80.6659	341.309	80.8694	341.309	79.7294	341.309	81.4967	341.309	79.86	341.309	81.978	341.309	80.7422	341.309	82.2202	341.309	81.6172	341.309	82.1242
353.027	86.5131	353.027	86.4558	353.027	86.4629	353.027	86.2891	353.027	86.3066	353.027	86.0024	353.027	86.0563	353.027	85.5723	353.027	85.7418	353.027	84.9653	353.027	85.4121	353.027	84.1446	353.027	85.1249	353.027	83.08	353.027	84.9194	353.027	81.7718	353.027	84.7791	353.027	80.3045	353.027	84.6148	353.027	78.9482	353.027	84.2844	353.027	78.1804	353.027	83.6319	353.027	78.3027	353.027	82.532	353.027	79.0547	353.027	80.9862	353.027	79.9843	353.027	79.4063	353.027	80.8143	353.027	78.8297	353.027	81.4048	353.027	79.6037	353.027	81.6486	353.027	80.7116	353.027	81.4395
366.211	86.6643	366.211	86.5273	366.211	86.6946	366.211	86.3111	366.211	86.5852	366.211	86.0241	366.211	86.3074	366.211	85.6455	366.211	85.8433	366.211	85.1283	366.211	85.2076	366.211	84.413	366.211	84.4985	366.211	83.4448	366.211	83.9474	366.211	82.1931	366.211	83.8201	366.211	80.6856	366.211	84.117	366.211	79.077	366.211	84.5039	366.211	77.7422	366.211	84.5975	366.211	77.1702	366.211	84.1392	366.211	77.4742	366.211	82.9938	366.211	78.2686	366.211	81.1996	366.211	79.1291	366.211	79.2863	366.211	79.7823	366.211	78.4847	366.211	80.0395	366.211	79.0376	366.211	79.7719
379.395	86.9045	379.395	86.8192	379.395	86.9225	379.395	86.6641	379.395	86.8685	379.395	86.4263	379.395	86.7304	379.395	86.0784	379.395	86.4896	379.395	85.5793	379.395	86.1299	379.395	84.8807	379.395	85.6521	379.395	83.9362	379.395	85.0854	379.395	82.7143	379.395	84.4869	379.395	81.2251	379.395	83.9287	379.395	79.5824	379.395	83.4675	379.395	78.0967	379.395	83.0908	379.395	77.2251	379.395	82.6841	379.395	77.1487	379.395	82.0814	379.395	77.5721	379.395	81.1947	379.395	78.1336	379.395	80.1592	379.395	78.6271	379.395	79.3567	379.395	78.9377	379.395	79.0513	379.395	79.0304
392.578	86.113	392.578	85.9533	392.578	86.2202	392.578	85.7889	392.578	86.2118	392.578	85.6354	392.578	86.0262	392.578	85.4676	392.578	85.6248	392.578	85.228	392.578	85.0246	392.578	84.8445	392.578	84.3417	392.578	84.2447	392.578	83.8003	392.578	83.3654	392.578	83.6064	392.578	82.1649	392.578	83.7234	392.578	80.6601	392.578	83.8665	392.578	79.0285	392.578	83.7201	392.578	77.7583	392.578	83.0607	392.578	77.4452	392.578	81.7816	392.578	78.024	392.578	80.0154	392.578	78.872	392.578	78.4845	392.578	79.534	392.578	78.2303	392.578	79.8081	392.578	78.9411	392.578	79.6027
405.762	86.2487	405.762	85.8987	405.762	86.4503	405.762	85.4856	405.762	86.4315	405.762	85.0827	405.762	86.1466	405.762	84.7159	405.762	85.5831	405.762	84.3444	405.762	84.7698	405.762	83.8791	405.762	83.7959	405.762	83.2246	405.762	82.8537	405.762	82.3169	405.762	82.2504	405.762	81.1473	405.762	82.2134	405.762	79.796	405.762	82.5884	405.762	78.4922	405.762	82.9468	405.762	77.6349	405.762	82.9132	405.762	77.552	405.762	82.2718	405.762	78.1278	405.762	80.9859	405.762	78.9305	405.762	79.39	405.762	79.5679	405.762	78.4503	405.762	79.7829	405.762	78.7532	405.762	79.4565
420.41	86.4164	420.41	86.0788	420.41	86.5846	420.41	85.6518	420.41	86.5266	420.41	85.2103	420.41	86.2225	420.41	84.7888	420.41	85.6919	420.41	84.363	420.41	84.9877	420.41	83.8623	420.41	84.1914	420.41	83.1996	420.41	83.4202	420.41	82.2997	420.41	82.8404	420.41	81.1169	420.41	82.6253	420.41	79.6486	420.41	82.8013	420.41	77.9613	420.41	83.1343	420.41	76.2687	420.41	83.2453	420.41	75.0661	420.41	82.7884	420.41	74.9393	420.41	81.5238	420.41	75.7335	420.41	79.4079	420.41	76.6261	420.41	77.0475	420.41	76.9849	420.41	76.0961	420.41	76.616
435.059	86.4797	435.059	86.1441	435.059	86.6585	435.059	85.7331	435.059	86.6301	435.059	85.3335	435.059	86.3727	435.059	84.986	435.059	85.8815	435.059	84.6476	435.059	85.1708	435.059	84.2091	435.059	84.3106	435.059	83.552	435.059	83.4868	435.059	82.5979	435.059	82.9804	435.059	81.3426	435.059	82.9446	435.059	79.8978	435.059	83.2229	435.059	78.5359	435.059	83.5151	435.059	77.6118	435.059	83.577	435.059	77.2578	435.059	83.234	435.059	77.2747	435.059	82.3595	435.059	77.4254	435.059	80.9421	435.059	77.5788	435.059	79.277	435.059	77.6425	435.059	78.0554	435.059	77.6597
451.172	85.7905	451.172	85.1587	451.172	86.2883	451.172	84.5214	451.172	86.5593	451.172	84.0138	451.172	86.5325	451.172	83.694	451.172	86.1385	451.172	83.4866	451.172	85.3022	451.172	83.2332	451.172	83.9662	451.172	82.777	451.172	82.2087	451.172	81.992	451.172	80.6007	451.172	80.7711	451.172	80.2857	451.172	79.0278	451.172	81.2527	451.172	76.7879	451.172	82.2683	451.172	74.5214	451.172	82.6404	451.172	73.4685	451.172	82.1879	451.172	74.0929	451.172	80.9127	451.172	75.2482	451.172	79.0123	451.172	76.1433	451.172	77.1688	451.172	76.5494	451.172	76.3767	451.172	76.4833
465.82	86.5544	465.82	85.725	465.82	87.0999	465.82	84.7196	465.82	87.3266	465.82	83.7482	465.82	87.2385	465.82	83.0708	465.82	86.8496	465.82	82.8048	465.82	86.1569	465.82	82.801	465.82	85.1198	465.82	82.786	465.82	83.6653	465.82	82.5321	465.82	81.7573	465.82	81.8845	465.82	79.6985	465.82	80.7262	465.82	78.733	465.82	78.9624	465.82	79.7194	465.82	76.6063	465.82	81.2392	465.82	74.2129	465.82	82.1226	465.82	73.3748	465.82	82.053	465.82	74.3576	465.82	81.0336	465.82	75.5285	465.82	79.3234	465.82	76.2049	465.82	77.6109	465.82	76.6498
483.398	86.3532	483.398	85.6209	483.398	86.7454	483.398	84.6241	483.398	86.7956	483.398	83.5612	483.398	86.5332	483.398	82.7489	483.398	85.9811	483.398	82.4316	483.398	85.1319	483.398	82.5312	483.398	83.9673	483.398	82.7376	483.398	82.535	483.398	82.7714	483.398	81.0729	483.398	82.4751	483.398	80.114	483.398	81.7836	483.398	80.1677	483.398	80.68	483.398	80.9951	483.398	79.1707	483.398	81.8895	483.398	77.3216	483.398	82.3585	483.398	75.4829	483.398	82.1739	483.398	74.5786	483.398	81.2826	483.398	75.1014	483.398	79.8558	483.398	76.1682	483.398	78.355	483.398	77.1815
499.512	87.8392	499.512	87.1297	499.512	88.1632	499.512	86.0423	499.512	88.1355	499.512	84.659	499.512	87.8162	499.512	83.2015	499.512	87.2723	499.512	82.0653	499.512	86.5513	499.512	81.5835	499.512	85.6576	499.512	81.6455	499.512	84.532	499.512	81.845	499.512	83.0523	499.512	81.8668	499.512	81.1647	499.512	81.5642	499.512	79.4421	499.512	80.8924	499.512	79.4917	499.512	79.8776	499.512	81.1308	499.512	78.6593	499.512	82.5826	499.512	77.5952	499.512	83.1591	499.512	77.201	499.512	82.8297	499.512	77.6087	499.512	81.8158	499.512	78.4198	499.512	80.5298	499.512	79.3735
517.09	87.4222	517.09	86.837	517.09	87.6171	517.09	85.87	517.09	87.4801	517.09	84.6151	517.09	87.1115	517.09	83.2818	517.09	86.6119	517.09	82.1991	517.09	86.0473	517.09	81.6539	517.09	85.4464	517.09	81.5995	517.09	84.8021	517.09	81.702	517.09	84.043	517.09	81.6639	517.09	83.0136	517.09	81.3359	517.09	81.5729	517.09	80.638	517.09	79.9866	517.09	79.482	517.09	79.4133	517.09	77.8171	517.09	80.3189	517.09	76.0298	517.09	81.3625	517.09	75.6442	517.09	81.7344	517.09	77.2051	517.09	81.481	517.09	78.9848	517.09	80.9285	517.09	80.1803
536.133	87.4436	536.133	86.8679	536.133	87.6563	536.133	85.9707	536.133	87.4811	536.133	84.8076	536.133	86.9193	536.133	83.4628	536.133	86.0038	536.133	82.0799	536.133	84.8091	536.133	80.8733	536.133	83.5114	536.133	80.0419	536.133	82.483	536.133	79.6052	536.133	82.0984	536.133	79.4072	536.133	82.1911	536.133	79.2922	536.133	82.2217	536.133	79.1638	536.133	81.9132	536.133	78.9069	536.133	81.3954	536.133	78.3576	536.133	81.0098	536.133	77.4339	536.133	80.8778	536.133	76.4699	536.133	80.7209	536.133	76.3792	536.133	80.2888	536.133	77.3838	536.133	79.5772	536.133	78.6062
555.176	87.1392	555.176	86.6321	555.176	87.2831	555.176	85.7653	555.176	87.1023	555.176	84.5992	555.176	86.6471	555.176	83.2591	555.176	85.9288	555.176	81.9306	555.176	84.8942	555.176	80.8099	555.176	83.476	555.176	79.9937	555.176	81.6855	555.176	79.4276	555.176	79.7745	555.176	79.0431	555.176	78.5953	555.176	78.883	555.176	79.0657	555.176	78.9656	555.176	80.4076	555.176	79.092	555.176	81.4112	555.176	78.941	555.176	81.5694	555.176	78.3146	555.176	80.7574	555.176	77.3645	555.176	79.1983	555.176	76.737	555.176	77.7881	555.176	76.8923	555.176	77.3601	555.176	77.2614
574.219	86.995	574.219	86.3303	574.219	87.3628	574.219	85.399	574.219	87.452	574.219	84.2772	574.219	87.286	574.219	83.0543	574.219	86.8366	574.219	81.8162	574.219	86.021	574.219	80.6481	574.219	84.7619	574.219	79.6074	574.219	83.0583	574.219	78.6849	574.219	81.0406	574.219	77.8418	574.219	79.0906	574.219	77.1209	574.219	78.0723	574.219	76.6987	574.219	78.6409	574.219	76.6816	574.219	79.9259	574.219	76.8611	574.219	80.7481	574.219	76.9584	574.219	80.5712	574.219	77.0131	574.219	79.4045	574.219	77.2936	574.219	78.031	574.219	77.7254	574.219	77.6433	574.219	77.8529
594.727	86.9068	594.727	86.3926	594.727	87.0933	594.727	85.5662	594.727	86.9692	594.727	84.4752	594.727	86.5808	594.727	83.2082	594.727	85.982	594.727	81.9292	594.727	85.1936	594.727	80.8666	594.727	84.1976	594.727	80.1141	594.727	82.9905	594.727	79.4623	594.727	81.557	594.727	78.6066	594.727	79.6963	594.727	77.4521	594.727	76.9582	594.727	76.301	594.727	73.5025	594.727	75.7247	594.727	73.861	594.727	75.7231	594.727	77.2074	594.727	75.6606	594.727	79.1252	594.727	75.3189	594.727	79.351	594.727	75.213	594.727	78.3707	594.727	75.6837	594.727	77.1186	594.727	76.3141
615.234	86.3728	615.234	85.9748	615.234	86.4723	615.234	85.3278	615.234	86.2491	615.234	84.4795	615.234	85.7202	615.234	83.4738	615.234	84.9249	615.234	82.3936	615.234	83.9101	615.234	81.3937	615.234	82.7881	615.234	80.5917	615.234	81.7778	615.234	79.8901	615.234	81.0366	615.234	79.0383	615.234	80.4428	615.234	77.8935	615.234	79.7769	615.234	76.6699	615.234	79.1719	615.234	75.9092	615.234	79.0656	615.234	75.6911	615.234	79.3061	615.234	75.3764	615.234	79.1091	615.234	74.5473	615.234	77.962	615.234	73.5721	615.234	76.0498	615.234	73.2977	615.234	74.4056	615.234	73.654
637.207	87.0188	637.207	86.5192	637.207	87.2532	637.207	85.8005	637.207	87.2049	637.207	84.8746	637.207	86.9032	637.207	83.6943	637.207	86.3638	637.207	82.2523	637.207	85.5177	637.207	80.789	637.207	84.2921	637.207	79.8068	637.207	82.8253	637.207	79.4823	637.207	81.5333	637.207	79.3872	637.207	80.7419	637.207	79.0446	637.207	80.256	637.207	78.2664	637.207	79.8313	637.207	77.2614	637.207	79.8029	637.207	76.5218	637.207	80.2873	637.207	76.2464	637.207	80.5292	637.207	76.2905	637.207	79.9955	637.207	76.7269	637.207	79.018	637.207	77.482	637.207	78.3897	637.207	78.0674
659.18	86.6914	659.18	86.6179	659.18	86.5844	659.18	86.2972	659.18	86.3452	659.18	85.6367	659.18	85.9842	659.18	84.5422	659.18	85.412	659.18	82.9983	659.18	84.4675	659.18	81.2084	659.18	83.1016	659.18	79.7227	659.18	81.5331	659.18	79.0668	659.18	80.1172	659.18	78.9488	659.18	78.9217	659.18	78.6917	659.18	77.519	659.18	78.1144	659.18	75.6518	659.18	77.5665	659.18	75.0221	659.18	77.3019	659.18	77.1327	659.18	77.0199	659.18	79.0815	659.18	76.3873	659.18	79.4842	659.18	75.7063	659.18	78.5563	659.18	75.7175	659.18	77.2499	659.18	76.3326
682.617	86.6294	682.617	86.5774	682.617	86.51	682.617	86.3036	682.617	86.2168	682.617	85.7434	682.617	85.7014	682.617	84.8533	682.617	84.8983	682.617	83.6203	682.617	83.7509	682.617	82.0746	682.617	82.3278	682.617	80.3251	682.617	81.0116	682.617	78.5748	682.617	80.3843	682.617	77.0846	682.617	80.4699	682.617	76.1808	682.617	80.4839	682.617	76.1714	682.617	79.8758	682.617	76.8581	682.617	78.7675	682.617	77.5219	682.617	77.6508	682.617	77.5739	682.617	76.8482	682.617	76.8882	682.617	76.2332	682.617	76.0205	682.617	75.7594	682.617	75.8106	682.617	75.74	682.617	75.9075
707.52	86.5298	707.52	86.3995	707.52	86.555	707.52	86.1763	707.52	86.5257	707.52	85.8634	707.52	86.4688	707.52	85.3667	707.52	86.2111	707.52	84.5175	707.52	85.4658	707.52	83.2268	707.52	84.1791	707.52	81.6512	707.52	82.647	707.52	80.14	707.52	81.2505	707.52	78.8012	707.52	80.3314	707.52	77.2974	707.52	79.9411	707.52	75.5841	707.52	80.0268	707.52	75.1819	707.52	80.6423	707.52	76.6773	707.52	80.9677	707.52	77.8409	707.52	79.9267	707.52	77.6702	707.52	77.4529	707.52	76.6172	707.52	76.1964	707.52	76.3769	707.52	77.0638	707.52	77.1221
732.422	86.3492	732.422	86.557	732.422	86.0396	732.422	86.5742	732.422	85.7374	732.422	86.3223	732.422	85.4469	732.422	85.6851	732.422	84.993	732.422	84.5478	732.422	84.221	732.422	82.9405	732.422	83.1248	732.422	81.1921	732.422	81.5067	732.422	79.7701	732.422	79.2663	732.422	78.6794	732.422	77.9811	732.422	77.2961	732.422	78.1853	732.422	75.1724	732.422	77.7348	732.422	74.102	732.422	76.4546	732.422	75.9799	732.422	76.8306	732.422	77.7955	732.422	78.4033	732.422	78.2442	732.422	78.2135	732.422	77.3921	732.422	75.9112	732.422	75.8127	732.422	73.8135	732.422	74.3344
757.324	86.3461	757.324	86.4997	757.324	86.0837	757.324	86.4055	757.324	85.8011	757.324	85.9323	757.324	85.5293	757.324	85.0455	757.324	85.2344	757.324	83.8697	757.324	84.6884	757.324	82.6405	757.324	83.4689	757.324	81.5531	757.324	81.3496	757.324	80.5751	757.324	78.6382	757.324	79.3377	757.324	76.2731	757.324	77.3137	757.324	75.9993	757.324	74.2326	757.324	77.5213	757.324	71.6277	757.324	78.9065	757.324	72.9453	757.324	79.4935	757.324	74.9832	757.324	79.1786	757.324	75.5127	757.324	77.9574	757.324	74.8848	757.324	75.8002	757.324	74.0632	757.324	73.5494	757.324	73.3049
785.156	86.9128	785.156	87.3607	785.156	86.2129	785.156	87.3592	785.156	85.5676	785.156	86.8181	785.156	85.1593	785.156	85.7274	785.156	84.7611	785.156	84.1977	785.156	84.0331	785.156	82.5763	785.156	83.1603	785.156	81.4911	785.156	82.5898	785.156	81.2683	785.156	81.8763	785.156	81.2694	785.156	80.2367	785.156	80.5276	785.156	77.0712	785.156	78.2424	785.156	73.1049	785.156	73.7868	785.156	76.6192	785.156	72.7062	785.156	80.4776	785.156	76.9331	785.156	81.1973	785.156	78.6845	785.156	78.5959	785.156	78.1098	785.156	72.8073	785.156	76.4211	785.156	72.844	785.156	75.1333
811.523	87.1889	811.523	87.6045	811.523	86.6013	811.523	87.5773	811.523	86.0412	811.523	86.932	811.523	85.4838	811.523	85.6126	811.523	84.8436	811.523	83.6792	811.523	84.2017	811.523	81.3813	811.523	83.4986	811.523	79.3264	811.523	82.1681	811.523	78.401	811.523	80.1241	811.523	78.7268	811.523	79.0263	811.523	79.0958	811.523	78.9442	811.523	78.1678	811.523	77.7577	811.523	75.211	811.523	73.4683	811.523	72.1418	811.523	66.6085	811.523	74.5182	811.523	75.7424	811.523	76.9112	811.523	78.2103	811.523	77.1819	811.523	76.697	811.523	75.5308	811.523	73.0548	811.523	72.7687
840.82	87.6872	840.82	87.7729	840.82	87.2443	840.82	87.56	840.82	86.5937	840.82	87.1112	840.82	86.025	840.82	86.2904	840.82	85.6779	840.82	84.8376	840.82	85.3602	840.82	82.719	840.82	84.6271	840.82	80.5648	840.82	83.0779	840.82	79.5631	840.82	80.5499	840.82	79.9245	840.82	76.955	840.82	80.0784	840.82	74.0313	840.82	78.6783	840.82	76.0292	840.82	75.2101	840.82	78.2237	840.82	70.6729	840.82	79.0331	840.82	72.7099	840.82	79.0597	840.82	75.6958	840.82	78.4072	840.82	76.3175	840.82	76.7027	840.82	75.3241	840.82	74.4098	840.82	73.9335
870.117	88.1405	870.117	88.2004	870.117	87.8545	870.117	88.0318	870.117	87.2323	870.117	87.4727	870.117	86.2782	870.117	86.3365	870.117	85.2836	870.117	84.6477	870.117	84.5023	870.117	82.7906	870.117	83.7115	870.117	81.2867	870.117	82.6032	870.117	80.3565	870.117	81.4793	870.117	79.5506	870.117	81.3293	870.117	78.1812	870.117	81.5459	870.117	76.2891	870.117	80.1534	870.117	74.8093	870.117	75.2364	870.117	75.1042	870.117	67.936	870.117	75.9472	870.117	76.877	870.117	75.8433	870.117	78.8202	870.117	75.3927	870.117	76.3252	870.117	75.2386	870.117	72.4233	870.117	74.0565
900.879	88.112	900.879	88.4099	900.879	87.7337	900.879	88.3027	900.879	87.6665	900.879	87.776	900.879	87.6185	900.879	86.8103	900.879	87.2622	900.879	85.2947	900.879	86.7512	900.879	83.2515	900.879	85.6438	900.879	81.2777	900.879	82.8032	900.879	80.6136	900.879	77.4917	900.879	81.1739	900.879	72.6988	900.879	81.0805	900.879	78.1953	900.879	78.7837	900.879	81.188	900.879	72.1699	900.879	81.4436	900.879	64.7748	900.879	80.4718	900.879	74.3559	900.879	80.0333	900.879	76.1275	900.879	80.2399	900.879	74.2147	900.879	78.7537	900.879	70.3813	900.879	73.4053	900.879	66.1418
933.105	88.3482	933.105	88.0192	933.105	88.2604	933.105	87.4146	933.105	87.6731	933.105	86.6515	933.105	86.8058	933.105	85.6416	933.105	86.2046	933.105	84.0895	933.105	85.8268	933.105	81.8664	933.105	84.9296	933.105	79.256	933.105	83.2776	933.105	77.7327	933.105	81.0684	933.105	79.2713	933.105	76.8424	933.105	80.7096	933.105	72.5043	933.105	80.3623	933.105	73.6631	933.105	78.156	933.105	69.8771	933.105	73.0425	933.105	69.5273	933.105	68.3121	933.105	77.151	933.105	73.6444	933.105	78.808	933.105	75.1382	933.105	77.07	933.105	73.9721	933.105	73.6677	933.105	72.3351
965.332	87.862	965.332	88.106	965.332	87.499	965.332	87.7567	965.332	87.1714	965.332	86.4957	965.332	86.6133	965.332	84.5125	965.332	85.8991	965.332	82.6543	965.332	85.1063	965.332	81.3582	965.332	84.0258	965.332	79.7917	965.332	83.149	965.332	77.2687	965.332	82.6477	965.332	78.1079	965.332	80.2119	965.332	80.1714	965.332	74.8667	965.332	79.8773	965.332	77.1337	965.332	76.6379	965.332	79.8982	965.332	68.7397	965.332	79.452	965.332	74.1793	965.332	76.2593	965.332	77.6142	965.332	76.7902	965.332	77.1744	965.332	76.9138	965.332	74.6611	965.332	74.6287	965.332	73.3398
1,000.49	87.1573	1,000.49	87.2434	1,000.49	87.1285	1,000.49	87.0615	1,000.49	87.0735	1,000.49	86.2554	1,000.49	86.7732	1,000.49	84.8732	1,000.49	86.2114	1,000.49	83.5377	1,000.49	85.1624	1,000.49	82.6677	1,000.49	83.5068	1,000.49	81.6439	1,000.49	81.7651	1,000.49	79.071	1,000.49	79.9877	1,000.49	75.5209	1,000.49	77.4652	1,000.49	76.6862	1,000.49	74.8823	1,000.49	78.4426	1,000.49	72.7479	1,000.49	77.6068	1,000.49	70.4901	1,000.49	72.1534	1,000.49	73.5757	1,000.49	69.3182	1,000.49	75.6304	1,000.49	75.6425	1,000.49	74.5061	1,000.49	77.3173	1,000.49	73.425	1,000.49	76.4464	1,000.49	73.6512	1,000.49	74.6773
1,035.64	86.6201	1,035.64	86.7072	1,035.64	86.7913	1,035.64	86.8215	1,035.64	86.9991	1,035.64	86.4662	1,035.64	86.8158	1,035.64	85.1402	1,035.64	86.2094	1,035.64	82.873	1,035.64	85.2415	1,035.64	80.976	1,035.64	83.7936	1,035.64	80.751	1,035.64	82.3658	1,035.64	80.1871	1,035.64	80.7639	1,035.64	77.642	1,035.64	76.9447	1,035.64	75.1295	1,035.64	74.1795	1,035.64	75.1753	1,035.64	77.6168	1,035.64	74.6222	1,035.64	79.4724	1,035.64	69.6429	1,035.64	78.6883	1,035.64	67.3358	1,035.64	76.2926	1,035.64	74.9043	1,035.64	74.8714	1,035.64	76.2873	1,035.64	72.4931	1,035.64	73.9127	1,035.64	66.841	1,035.64	69.1852
1,072.27	86.1213	1,072.27	86.8308	1,072.27	86.1837	1,072.27	87.0377	1,072.27	87.0786	1,072.27	86.146	1,072.27	87.3845	1,072.27	84.3852	1,072.27	86.7013	1,072.27	82.5141	1,072.27	85.3815	1,072.27	80.9749	1,072.27	83.5623	1,072.27	79.5274	1,072.27	82.1464	1,072.27	78.4793	1,072.27	80.5176	1,072.27	77.3001	1,072.27	75.7003	1,072.27	77.1066	1,072.27	72.5569	1,072.27	78.3547	1,072.27	73.5491	1,072.27	78.3839	1,072.27	71.3699	1,072.27	74.877	1,072.27	74.9205	1,072.27	62.9186	1,072.27	78.8325	1,072.27	73.338	1,072.27	77.0911	1,072.27	76.9376	1,072.27	70.9077	1,072.27	75.5647	1,072.27	65.7143	1,072.27	70.6779
1,108.89	86.2372	1,108.89	86.2918	1,108.89	86.2178	1,108.89	86.1673	1,108.89	86.3387	1,108.89	85.4436	1,108.89	86.4765	1,108.89	84.3445	1,108.89	86.1571	1,108.89	83.3243	1,108.89	85.5035	1,108.89	81.5031	1,108.89	84.4374	1,108.89	77.559	1,108.89	82.2333	1,108.89	73.3954	1,108.89	79.4272	1,108.89	74.8821	1,108.89	76.087	1,108.89	78.128	1,108.89	65.9604	1,108.89	79.1302	1,108.89	76.0264	1,108.89	77.3411	1,108.89	79.1073	1,108.89	73.0173	1,108.89	77.8259	1,108.89	72.5029	1,108.89	75.1277	1,108.89	75.5329	1,108.89	75.695	1,108.89	75.4145	1,108.89	73.7064	1,108.89	71.8032	1,108.89	62.5036	1,108.89	64.3653
1,148.44	85.8951	1,148.44	85.6459	1,148.44	86.1314	1,148.44	85.5122	1,148.44	86.1672	1,148.44	85.1152	1,148.44	86.2271	1,148.44	84.4393	1,148.44	85.9713	1,148.44	82.9959	1,148.44	84.3455	1,148.44	79.8597	1,148.44	81.8972	1,148.44	75.3292	1,148.44	80.6589	1,148.44	72.3302	1,148.44	79.722	1,148.44	72.2661	1,148.44	76.2128	1,148.44	74.8507	1,148.44	64.4766	1,148.44	76.961	1,148.44	71.5698	1,148.44	77.3029	1,148.44	71.6255	1,148.44	74.6672	1,148.44	69.5211	1,148.44	59.072	1,148.44	74.6358	1,148.44	71.4605	1,148.44	75.8671	1,148.44	74.8828	1,148.44	74.4221	1,148.44	71.3474	1,148.44	69.7049	1,148.44	53.2691
1,189.45	86.1909	1,189.45	85.8571	1,189.45	86.0239	1,189.45	85.0651	1,189.45	85.5592	1,189.45	84.0696	1,189.45	85.2821	1,189.45	83.1475	1,189.45	84.7307	1,189.45	81.9982	1,189.45	83.5491	1,189.45	79.5422	1,189.45	82.4735	1,189.45	75.2832	1,189.45	80.9486	1,189.45	69.0058	1,189.45	79.2947	1,189.45	67.7957	1,189.45	77.1459	1,189.45	71.7317	1,189.45	66.1189	1,189.45	73.1453	1,189.45	69.7703	1,189.45	74.9294	1,189.45	75.0559	1,189.45	73.3929	1,189.45	77.4785	1,189.45	63.6207	1,189.45	76.0326	1,189.45	69.5727	1,189.45	77.7636	1,189.45	74.4256	1,189.45	77.2971	1,189.45	68.4786	1,189.45	74.8968	1,189.45	68.5678
1,230.47	86.5775	1,230.47	85.6445	1,230.47	86.6692	1,230.47	84.3162	1,230.47	86.2409	1,230.47	83.2915	1,230.47	85.767	1,230.47	82.6414	1,230.47	84.9113	1,230.47	81.6456	1,230.47	83.0193	1,230.47	79.6273	1,230.47	80.0319	1,230.47	77.0388	1,230.47	77.049	1,230.47	73.3932	1,230.47	76.9983	1,230.47	67.781	1,230.47	76.409	1,230.47	65.8176	1,230.47	69.5119	1,230.47	70.2557	1,230.47	62.0887	1,230.47	73.3695	1,230.47	69.8445	1,230.47	72.4632	1,230.47	69.3795	1,230.47	63.7383	1,230.47	67.4067	1,230.47	66.3261	1,230.47	76.9684	1,230.47	70.3774	1,230.47	77.4876	1,230.47	62.5839	1,230.47	75.0393	1,230.47	68.7739
1,274.41	86.352	1,274.41	85.5661	1,274.41	86.9632	1,274.41	84.2151	1,274.41	86.9245	1,274.41	82.3205	1,274.41	86.0664	1,274.41	80.7492	1,274.41	84.4045	1,274.41	79.6733	1,274.41	81.5042	1,274.41	78.6877	1,274.41	78.4295	1,274.41	77.4655	1,274.41	75.5253	1,274.41	74.594	1,274.41	73.316	1,274.41	66.2891	1,274.41	72.2651	1,274.41	70.9631	1,274.41	68.4731	1,274.41	74.576	1,274.41	62.4987	1,274.41	74.6135	1,274.41	69.1282	1,274.41	73.0743	1,274.41	72.1721	1,274.41	68.762	1,274.41	59.2466	1,274.41	63.8732	1,274.41	74.6332	1,274.41	68.3226	1,274.41	78.9375	1,274.41	63.4797	1,274.41	78.44	1,274.41	72.7415
1,319.82	86.691	1,319.82	85.4669	1,319.82	87.5155	1,319.82	84.3783	1,319.82	87.4745	1,319.82	83.1582	1,319.82	86.1309	1,319.82	81.2912	1,319.82	83.1896	1,319.82	78.8339	1,319.82	79.9485	1,319.82	77.0714	1,319.82	77.1586	1,319.82	77.2215	1,319.82	75.1728	1,319.82	76.5015	1,319.82	74.016	1,319.82	70.594	1,319.82	69.6179	1,319.82	56.4915	1,319.82	70.0205	1,319.82	74.1199	1,319.82	70.8265	1,319.82	77.9816	1,319.82	71.59	1,319.82	76.985	1,319.82	77.2089	1,319.82	72.7538	1,319.82	73.3802	1,319.82	68.2201	1,319.82	72.9596	1,319.82	68.2322	1,319.82	79.7645	1,319.82	70.1405	1,319.82	80.7896	1,319.82	77.6634
1,366.7	87.6922	1,366.7	85.5018	1,366.7	88.3946	1,366.7	83.7136	1,366.7	87.5518	1,366.7	83.3435	1,366.7	85.5916	1,366.7	81.6563	1,366.7	82.9912	1,366.7	78.0641	1,366.7	78.7973	1,366.7	76.6207	1,366.7	75.6333	1,366.7	77.9019	1,366.7	75.2557	1,366.7	78.2081	1,366.7	72.7579	1,366.7	75.6407	1,366.7	69.8476	1,366.7	67.0159	1,366.7	69.5303	1,366.7	69.506	1,366.7	73.3694	1,366.7	76.2845	1,366.7	70.5392	1,366.7	76.9519	1,366.7	73.4326	1,366.7	74.1251	1,366.7	75.0709	1,366.7	68.2199	1,366.7	66.3795	1,366.7	68.5976	1,366.7	78.6795	1,366.7	74.9399	1,366.7	80.322	1,366.7	78.8066
1,413.57	87.688	1,413.57	85.4245	1,413.57	88.3095	1,413.57	83.1753	1,413.57	87.4462	1,413.57	82.4714	1,413.57	85.6058	1,413.57	81.0348	1,413.57	82.6107	1,413.57	76.1313	1,413.57	78.1303	1,413.57	72.1606	1,413.57	72.8343	1,413.57	75.7107	1,413.57	71.2253	1,413.57	76.8279	1,413.57	73.5971	1,413.57	75.0219	1,413.57	75.4423	1,413.57	71.1623	1,413.57	73.4488	1,413.57	61.4418	1,413.57	70.5362	1,413.57	74.0123	1,413.57	71.3234	1,413.57	76.8738	1,413.57	72.4762	1,413.57	75.0442	1,413.57	75.6386	1,413.57	70.0508	1,413.57	70.8377	1,413.57	71.559	1,413.57	72.8462	1,413.57	74.2913	1,413.57	77.0778	1,413.57	76.3467
1,463.38	86.5251	1,463.38	84.1744	1,463.38	87.6776	1,463.38	81.7508	1,463.38	87.1616	1,463.38	80.1883	1,463.38	85.6445	1,463.38	79.5711	1,463.38	82.6912	1,463.38	78.0502	1,463.38	77.2679	1,463.38	76.5567	1,463.38	72.8032	1,463.38	74.2017	1,463.38	69.5436	1,463.38	75.5062	1,463.38	69.822	1,463.38	75.3721	1,463.38	72.8848	1,463.38	72.3525	1,463.38	68.7973	1,463.38	57.2043	1,463.38	66.8836	1,463.38	73.05	1,463.38	68.343	1,463.38	77.6951	1,463.38	63.362	1,463.38	77.3413	1,463.38	74.2129	1,463.38	73.0952	1,463.38	71.4632	1,463.38	71.0166	1,463.38	70.5693	1,463.38	74.4007	1,463.38	76.658	1,463.38	76.8949
1,516.11	85.6162	1,516.11	83.5994	1,516.11	86.9149	1,516.11	81.7144	1,516.11	86.6091	1,516.11	80.4707	1,516.11	84.6196	1,516.11	78.8504	1,516.11	80.1735	1,516.11	78.2586	1,516.11	74.9506	1,516.11	78.8917	1,516.11	74.0737	1,516.11	75.2428	1,516.11	74.537	1,516.11	70.0091	1,516.11	73.672	1,516.11	70.4819	1,516.11	68.7592	1,516.11	71.061	1,516.11	70.1455	1,516.11	62.9134	1,516.11	71.7944	1,516.11	72.8555	1,516.11	73.0081	1,516.11	76.8226	1,516.11	72.4504	1,516.11	75.0715	1,516.11	70.217	1,516.11	71.8524	1,516.11	74.5233	1,516.11	73.4674	1,516.11	59.4157	1,516.11	74.4983	1,516.11	67.9902	1,516.11	72.6578
1,568.85	85.3355	1,568.85	81.8291	1,568.85	86.8098	1,568.85	79.7182	1,568.85	85.7302	1,568.85	79.2165	1,568.85	81.9154	1,568.85	78.1133	1,568.85	75.8621	1,568.85	78.3727	1,568.85	71.0614	1,568.85	77.3027	1,568.85	72.5947	1,568.85	73.3468	1,568.85	76.7015	1,568.85	72.3576	1,568.85	76.4487	1,568.85	75.3947	1,568.85	73.6485	1,568.85	76.0619	1,568.85	72.5736	1,568.85	68.6881	1,568.85	67.6462	1,568.85	70.7128	1,568.85	71.3694	1,568.85	76.2979	1,568.85	72.7145	1,568.85	76.1275	1,568.85	69.4923	1,568.85	71.0845	1,568.85	74.9022	1,568.85	71.9201	1,568.85	63.3021	1,568.85	70.7965	1,568.85	68.7004	1,568.85	71.5497
1,624.51	86.0635	1,624.51	81.8455	1,624.51	87.5502	1,624.51	76.8266	1,624.51	86.1322	1,624.51	78.0019	1,624.51	80.7333	1,624.51	76.6944	1,624.51	69.0059	1,624.51	78.5959	1,624.51	70.2527	1,624.51	78.3206	1,624.51	75.6355	1,624.51	73.4721	1,624.51	77.732	1,624.51	73.2522	1,624.51	76.4013	1,624.51	72.4576	1,624.51	74.3337	1,624.51	73.4801	1,624.51	70.6915	1,624.51	73.47	1,624.51	71.7941	1,624.51	53.9323	1,624.51	61.5168	1,624.51	73.2855	1,624.51	71.2149	1,624.51	74.7441	1,624.51	63.4737	1,624.51	67.2963	1,624.51	72.3431	1,624.51	72.7403	1,624.51	65.7766	1,624.51	71.1722	1,624.51	61.6517	1,624.51	69.9789
1,681.64	86.6023	1,681.64	80.8643	1,681.64	88.1309	1,681.64	70.0968	1,681.64	85.8682	1,681.64	74.4381	1,681.64	79.534	1,681.64	76.6856	1,681.64	61.5367	1,681.64	78.0958	1,681.64	74.9697	1,681.64	77.1784	1,681.64	76.8222	1,681.64	76.9519	1,681.64	77.2512	1,681.64	76.6245	1,681.64	78.0221	1,681.64	77.1333	1,681.64	73.0068	1,681.64	77.6427	1,681.64	72.1865	1,681.64	75.2355	1,681.64	70.0706	1,681.64	66.1161	1,681.64	71.5413	1,681.64	71.678	1,681.64	74.8861	1,681.64	74.2055	1,681.64	68.4503	1,681.64	71.2802	1,681.64	70.6262	1,681.64	72.5663	1,681.64	69.8089	1,681.64	71.3366	1,681.64	60.7134	1,681.64	61.8774
1,741.7	86.6387	1,741.7	80.9412	1,741.7	87.9541	1,741.7	57.4666	1,741.7	86.1601	1,741.7	72.49	1,741.7	79.1327	1,741.7	77.3296	1,741.7	65.5995	1,741.7	78.3867	1,741.7	75.4209	1,741.7	73.7867	1,741.7	77.5788	1,741.7	76.9603	1,741.7	77.056	1,741.7	75.9439	1,741.7	76.58	1,741.7	68.9356	1,741.7	76.3373	1,741.7	69.3537	1,741.7	72.8581	1,741.7	73.4345	1,741.7	68.3959	1,741.7	73.0823	1,741.7	64.7646	1,741.7	58.6724	1,741.7	74.1995	1,741.7	71.5633	1,741.7	72.9964	1,741.7	67.8047	1,741.7	56.8824	1,741.7	71.4777	1,741.7	71.6636	1,741.7	63.8668	1,741.7	70.1746	1,741.7	65.3568
1,803.22	86.1739	1,803.22	80.2006	1,803.22	87.6435	1,803.22	68.8197	1,803.22	86.0656	1,803.22	75.7345	1,803.22	78.5053	1,803.22	78.0637	1,803.22	71.7529	1,803.22	77.6761	1,803.22	77.7089	1,803.22	76.971	1,803.22	77.6795	1,803.22	76.1908	1,803.22	76.4136	1,803.22	76.5767	1,803.22	77.3157	1,803.22	74.6173	1,803.22	76.0778	1,803.22	74.3469	1,803.22	72.8231	1,803.22	72.3232	1,803.22	69.5948	1,803.22	71.4622	1,803.22	66.4668	1,803.22	62.3691	1,803.22	67.3948	1,803.22	72.3516	1,803.22	70.5651	1,803.22	67.9897	1,803.22	66.113	1,803.22	68.5126	1,803.22	65.9618	1,803.22	65.2614	1,803.22	71.1206	1,803.22	67.8362
1,866.21	84.6601	1,866.21	78.7021	1,866.21	86.7773	1,866.21	72.112	1,866.21	85.5512	1,866.21	76.8057	1,866.21	80.0634	1,866.21	78.1017	1,866.21	71.135	1,866.21	78.466	1,866.21	80.3942	1,866.21	78.2482	1,866.21	79.3942	1,866.21	75.576	1,866.21	75.9463	1,866.21	76.9681	1,866.21	73.8877	1,866.21	70.5709	1,866.21	76.6739	1,866.21	67.1149	1,866.21	73.0548	1,866.21	72.6346	1,866.21	71.3446	1,866.21	70.1156	1,866.21	64.6909	1,866.21	63.53	1,866.21	68.9007	1,866.21	70.2677	1,866.21	68.6441	1,866.21	70.0281	1,866.21	60.942	1,866.21	66.2184	1,866.21	67.7646	1,866.21	68.1333	1,866.21	65.1887	1,866.21	53.0057
1,932.13	84.1336	1,932.13	79.8568	1,932.13	85.8381	1,932.13	76.0381	1,932.13	83.9854	1,932.13	78.4008	1,932.13	78.298	1,932.13	78.727	1,932.13	73.4218	1,932.13	79.4344	1,932.13	80.5428	1,932.13	77.6852	1,932.13	78.4286	1,932.13	78.0515	1,932.13	77.4099	1,932.13	75.1046	1,932.13	72.2963	1,932.13	76.2581	1,932.13	70.4756	1,932.13	74.8648	1,932.13	72.1963	1,932.13	69.8736	1,932.13	68.8725	1,932.13	73.0124	1,932.13	62.3201	1,932.13	66.3423	1,932.13	71.2006	1,932.13	67.8526	1,932.13	67.2548	1,932.13	68.2915	1,932.13	57.5627	1,932.13	67.4246	1,932.13	67.9463	1,932.13	68.2715	1,932.13	68.6369	1,932.13	62.3936
1,999.51	84.8357	1,999.51	81.47	1,999.51	86.2927	1,999.51	78.0888	1,999.51	82.8627	1,999.51	78.068	1,999.51	76.5948	1,999.51	80.0663	1,999.51	76.1864	1,999.51	79.9944	1,999.51	81.333	1,999.51	77.3894	1,999.51	79.3976	1,999.51	75.9008	1,999.51	76.8116	1,999.51	71.5592	1,999.51	74.8242	1,999.51	69.3215	1,999.51	63.735	1,999.51	68.4507	1,999.51	70.0286	1,999.51	70.1832	1,999.51	68.3837	1,999.51	72.553	1,999.51	64.1936	1,999.51	69.4692	1,999.51	69.1693	1,999.51	67.6417	1,999.51	68.8471	1,999.51	69.3828	1,999.51	56.5121	1,999.51	63.3179	1,999.51	68.2047	1,999.51	66.6482	1,999.51	65.5361	1,999.51	60.7127
2,069.82	85.4347	2,069.82	83.3866	2,069.82	86.3761	2,069.82	79.5155	2,069.82	84.3217	2,069.82	77.8966	2,069.82	77.6663	2,069.82	80.1715	2,069.82	79.2335	2,069.82	79.7421	2,069.82	80.1047	2,069.82	78.2336	2,069.82	80.7229	2,069.82	75.1005	2,069.82	77.5173	2,069.82	75.3604	2,069.82	74.7581	2,069.82	72.2665	2,069.82	71.9014	2,069.82	71.1224	2,069.82	72.0897	2,069.82	70.7265	2,069.82	66.3838	2,069.82	70.9933	2,069.82	66.4316	2,069.82	71.065	2,069.82	69.8514	2,069.82	64.5956	2,069.82	66.7301	2,069.82	70.8163	2,069.82	55.9968	2,069.82	64.7988	2,069.82	67.0103	2,069.82	67.7611	2,069.82	63.7064	2,069.82	65.182
2,143.07	85.6427	2,143.07	84.3015	2,143.07	86.0038	2,143.07	81.1321	2,143.07	84.6529	2,143.07	79.9832	2,143.07	77.6772	2,143.07	80.1954	2,143.07	80.7206	2,143.07	78.9226	2,143.07	81.2564	2,143.07	78.8823	2,143.07	80.6008	2,143.07	73.7879	2,143.07	79.5272	2,143.07	73.1308	2,143.07	74.6451	2,143.07	74.1763	2,143.07	71.6007	2,143.07	68.9885	2,143.07	71.4776	2,143.07	68.9729	2,143.07	68.3173	2,143.07	69.6338	2,143.07	66.9989	2,143.07	71.5057	2,143.07	66.1132	2,143.07	60.0702	2,143.07	67.6872	2,143.07	67.61	2,143.07	49.6616	2,143.07	60.442	2,143.07	68.2161	2,143.07	69.1128	2,143.07	67.4344	2,143.07	66.1742
2,219.24	84.9044	2,219.24	84.1089	2,219.24	84.5912	2,219.24	81.6047	2,219.24	83.9824	2,219.24	80.9282	2,219.24	79.3985	2,219.24	79.2738	2,219.24	79.8321	2,219.24	79.5218	2,219.24	81.8466	2,219.24	76.9932	2,219.24	80.587	2,219.24	76.4601	2,219.24	78.5571	2,219.24	71.3931	2,219.24	73.4432	2,219.24	69.4081	2,219.24	72.9803	2,219.24	71.1792	2,219.24	70.9006	2,219.24	65.0646	2,219.24	68.9582	2,219.24	68.284	2,219.24	67.5453	2,219.24	71.9622	2,219.24	67.1662	2,219.24	66.5189	2,219.24	66.2334	2,219.24	66.1637	2,219.24	58.7622	2,219.24	63.8412	2,219.24	71.6251	2,219.24	71.8838	2,219.24	69.3313	2,219.24	67.638
2,296.88	85.0503	2,296.88	84.4483	2,296.88	83.8506	2,296.88	81.8549	2,296.88	83.9395	2,296.88	81.9775	2,296.88	82.7117	2,296.88	81.685	2,296.88	80.4524	2,296.88	79.6627	2,296.88	81.7664	2,296.88	76.9811	2,296.88	80.1347	2,296.88	75.6529	2,296.88	79.1338	2,296.88	75.1441	2,296.88	75.5973	2,296.88	73.9762	2,296.88	70.4884	2,296.88	73.4424	2,296.88	71.0338	2,296.88	70.1983	2,296.88	70.4401	2,296.88	66.5395	2,296.88	68.0472	2,296.88	69.4297	2,296.88	70.8827	2,296.88	71.9436	2,296.88	62.5052	2,296.88	64.1955	2,296.88	50.3692	2,296.88	54.0764	2,296.88	71.6268	2,296.88	68.7281	2,296.88	69.9714	2,296.88	66.0539
2,378.91	86.7386	2,378.91	85.1812	2,378.91	84.0599	2,378.91	81.4653	2,378.91	81.5212	2,378.91	81.9995	2,378.91	82.5315	2,378.91	81.491	2,378.91	81.756	2,378.91	78.2092	2,378.91	81.1155	2,378.91	76.7521	2,378.91	80.8596	2,378.91	76.0926	2,378.91	80.0883	2,378.91	73.9687	2,378.91	77.7979	2,378.91	73.1762	2,378.91	72.4999	2,378.91	71.288	2,378.91	73.1878	2,378.91	72.4558	2,378.91	63.1706	2,378.91	69.5905	2,378.91	63.3525	2,378.91	69.0262	2,378.91	71.6097	2,378.91	70.763	2,378.91	52.0398	2,378.91	65.5156	2,378.91	59.0917	2,378.91	68.0953	2,378.91	62.1762	2,378.91	62.1634	2,378.91	64.6689	2,378.91	60.8872
2,462.4	88.6075	2,462.4	86.4536	2,462.4	86.283	2,462.4	82.983	2,462.4	82.9013	2,462.4	82.2415	2,462.4	81.9947	2,462.4	80.8749	2,462.4	81.9376	2,462.4	79.4066	2,462.4	81.6235	2,462.4	77.5994	2,462.4	80.3553	2,462.4	74.0489	2,462.4	79.5777	2,462.4	74.8243	2,462.4	76.0752	2,462.4	72.4188	2,462.4	72.309	2,462.4	70.6409	2,462.4	70.9086	2,462.4	72.2672	2,462.4	68.0561	2,462.4	70.4515	2,462.4	61.1372	2,462.4	67.9336	2,462.4	71.1424	2,462.4	70.5091	2,462.4	52.6392	2,462.4	64.4594	2,462.4	62.1206	2,462.4	68.4394	2,462.4	64.4228	2,462.4	60.1137	2,462.4	65.0196	2,462.4	69.3634
2,548.83	88.5302	2,548.83	86.3161	2,548.83	86.835	2,548.83	84.9819	2,548.83	85.1716	2,548.83	82.8144	2,548.83	82.453	2,548.83	81.1914	2,548.83	80.2126	2,548.83	80.0486	2,548.83	81.151	2,548.83	78.0457	2,548.83	80.7822	2,548.83	75.6957	2,548.83	79.0437	2,548.83	73.5547	2,548.83	76.398	2,548.83	74.0518	2,548.83	76.7541	2,548.83	71.802	2,548.83	72.3838	2,548.83	72.0168	2,548.83	68.1447	2,548.83	72.6465	2,548.83	64.7722	2,548.83	68.4809	2,548.83	69.9929	2,548.83	70.1678	2,548.83	54.8295	2,548.83	67.5314	2,548.83	63.7137	2,548.83	67.7056	2,548.83	67.7594	2,548.83	57.5232	2,548.83	63.1984	2,548.83	68.2749
2,639.65	86.9271	2,639.65	85.205	2,639.65	85.7741	2,639.65	84.491	2,639.65	85.597	2,639.65	83.5227	2,639.65	84.907	2,639.65	81.6307	2,639.65	79.2996	2,639.65	80.1222	2,639.65	81.4472	2,639.65	77.8212	2,639.65	81.0819	2,639.65	77.2386	2,639.65	80.3866	2,639.65	73.7154	2,639.65	76.8962	2,639.65	73.7137	2,639.65	76.9791	2,639.65	71.7562	2,639.65	75.0134	2,639.65	69.9082	2,639.65	70.5499	2,639.65	71.9918	2,639.65	69.434	2,639.65	69.836	2,639.65	67.7225	2,639.65	69.1531	2,639.65	60.8587	2,639.65	68.8708	2,639.65	62.0423	2,639.65	65.8044	2,639.65	68.6686	2,639.65	61.0256	2,639.65	58.5336	2,639.65	66.8971
2,731.93	86.3758	2,731.93	85.0118	2,731.93	85.065	2,731.93	83.4532	2,731.93	83.5689	2,731.93	83.6983	2,731.93	85.6995	2,731.93	81.4503	2,731.93	79.7576	2,731.93	79.0706	2,731.93	79.6091	2,731.93	77.6228	2,731.93	80.7339	2,731.93	75.0677	2,731.93	79.2789	2,731.93	74.9347	2,731.93	77.9624	2,731.93	71.7445	2,731.93	76.4449	2,731.93	72.7995	2,731.93	74	2,731.93	70.8089	2,731.93	71.1505	2,731.93	70.59	2,731.93	68.7781	2,731.93	70.9664	2,731.93	69.2903	2,731.93	66.7326	2,731.93	59.0694	2,731.93	69.6034	2,731.93	61.0208	2,731.93	62.3378	2,731.93	67.3378	2,731.93	62.3464	2,731.93	58.405	2,731.93	65.5834
2,828.61	87.258	2,828.61	85.983	2,828.61	85.6217	2,828.61	84.6295	2,828.61	82.9009	2,828.61	83.1705	2,828.61	85.413	2,828.61	81.0402	2,828.61	81.4693	2,828.61	79.5919	2,828.61	77.367	2,828.61	77.9973	2,828.61	80.4693	2,828.61	75.6892	2,828.61	78.5585	2,828.61	74.4793	2,828.61	79.5787	2,828.61	71.9558	2,828.61	74.2768	2,828.61	71.9934	2,828.61	72.8479	2,828.61	71.406	2,828.61	68.1965	2,828.61	68.4479	2,828.61	66.1727	2,828.61	69.4701	2,828.61	68.6417	2,828.61	66.587	2,828.61	51.4257	2,828.61	68.1263	2,828.61	60.1041	2,828.61	60.9897	2,828.61	65.0144	2,828.61	66.0913	2,828.61	61.0461	2,828.61	63.8235
2,928.22	87.9503	2,928.22	87.2433	2,928.22	86.5702	2,928.22	85.9178	2,928.22	83.6291	2,928.22	83.2596	2,928.22	85.4773	2,928.22	80.7978	2,928.22	82.3405	2,928.22	80.1333	2,928.22	78.5619	2,928.22	77.2996	2,928.22	80.2461	2,928.22	76.3586	2,928.22	78.5417	2,928.22	73.0717	2,928.22	78.8099	2,928.22	70.9844	2,928.22	65.1073	2,928.22	69.2349	2,928.22	69.9926	2,928.22	71.7674	2,928.22	53.1896	2,928.22	69.7105	2,928.22	67.0399	2,928.22	69.4332	2,928.22	66.8889	2,928.22	69.5067	2,928.22	50.5929	2,928.22	67.0094	2,928.22	60.1927	2,928.22	64.9017	2,928.22	66.4434	2,928.22	65.1637	2,928.22	62.9187	2,928.22	61.9424
3,030.76	87.9122	3,030.76	87.0356	3,030.76	86.9502	3,030.76	86.0464	3,030.76	83.8176	3,030.76	83.4441	3,030.76	85.17	3,030.76	81.5578	3,030.76	83.296	3,030.76	79.8215	3,030.76	79.4492	3,030.76	78.0046	3,030.76	79.9068	3,030.76	75.3024	3,030.76	78.7557	3,030.76	75.0348	3,030.76	79.2135	3,030.76	75.059	3,030.76	66.9244	3,030.76	71.3271	3,030.76	68.3892	3,030.76	70.8875	3,030.76	63.2723	3,030.76	72.1358	3,030.76	58.7586	3,030.76	68.2333	3,030.76	65.8703	3,030.76	69.7705	3,030.76	49.8366	3,030.76	66.0063	3,030.76	64.7762	3,030.76	65.6308	3,030.76	66.5771	3,030.76	66.2876	3,030.76	63.5065	3,030.76	60.7198
3,137.7	87.7327	3,137.7	86.9888	3,137.7	86.8982	3,137.7	85.6714	3,137.7	83.8898	3,137.7	83.5938	3,137.7	84.5487	3,137.7	81.9138	3,137.7	82.5111	3,137.7	79.1925	3,137.7	78.5895	3,137.7	77.3319	3,137.7	78.0533	3,137.7	76.8365	3,137.7	79.4655	3,137.7	76.0526	3,137.7	77.2822	3,137.7	73.2637	3,137.7	71.103	3,137.7	72.2992	3,137.7	67.2707	3,137.7	66.698	3,137.7	53.799	3,137.7	72.131	3,137.7	65.1257	3,137.7	68.6308	3,137.7	63.9613	3,137.7	69.0198	3,137.7	57.1411	3,137.7	65.4215	3,137.7	65.0526	3,137.7	66.7547	3,137.7	66.2931	3,137.7	64.8444	3,137.7	65.4354	3,137.7	61.8983
3,249.02	87.3355	3,249.02	86.4091	3,249.02	86.8477	3,249.02	84.9819	3,249.02	83.8923	3,249.02	84.0071	3,249.02	84.7667	3,249.02	81.8836	3,249.02	81.0615	3,249.02	79.7426	3,249.02	76.6651	3,249.02	79.3392	3,249.02	78.9991	3,249.02	76.8789	3,249.02	79.9005	3,249.02	72.6008	3,249.02	76.2	3,249.02	73.1514	3,249.02	66.8831	3,249.02	72.5037	3,249.02	68.8844	3,249.02	70.9509	3,249.02	61.3469	3,249.02	68.1545	3,249.02	61.5764	3,249.02	70.5537	3,249.02	61.1861	3,249.02	66.5197	3,249.02	58.688	3,249.02	67.0227	3,249.02	63.2303	3,249.02	64.8438	3,249.02	65.156	3,249.02	60.465	3,249.02	64.7203	3,249.02	64.5723
3,363.28	87.1489	3,363.28	86.9363	3,363.28	87.2475	3,363.28	84.2138	3,363.28	83.8954	3,363.28	83.2184	3,363.28	84.6802	3,363.28	81.2799	3,363.28	81.8643	3,363.28	80.5157	3,363.28	73.3122	3,363.28	77.3582	3,363.28	79.0152	3,363.28	75.1485	3,363.28	80.9308	3,363.28	74.4526	3,363.28	78.7535	3,363.28	70.5959	3,363.28	73.5322	3,363.28	68.792	3,363.28	73.9056	3,363.28	70.399	3,363.28	51.2665	3,363.28	68.0496	3,363.28	61.0976	3,363.28	68.3964	3,363.28	55.4681	3,363.28	66.2344	3,363.28	48.4689	3,363.28	67.3435	3,363.28	63.106	3,363.28	62.9741	3,363.28	62.2	3,363.28	58.6126	3,363.28	64.322	3,363.28	61.5598
3,481.93	87.1285	3,481.93	86.7893	3,481.93	87.1194	3,481.93	85.6466	3,481.93	84.8291	3,481.93	83.718	3,481.93	83.9648	3,481.93	81.5462	3,481.93	81.186	3,481.93	81.0876	3,481.93	70.6335	3,481.93	76.3685	3,481.93	78.9728	3,481.93	75.8098	3,481.93	81.7284	3,481.93	72.7792	3,481.93	78.086	3,481.93	73.3297	3,481.93	78.0355	3,481.93	69.6646	3,481.93	75.2214	3,481.93	70.2777	3,481.93	64.1631	3,481.93	70.2195	3,481.93	55.6387	3,481.93	69.666	3,481.93	55.762	3,481.93	67.2646	3,481.93	47.2535	3,481.93	66.0554	3,481.93	59.9819	3,481.93	65.5195	3,481.93	61.7498	3,481.93	59.1598	3,481.93	62.165	3,481.93	59.5192
3,604.98	87.8008	3,604.98	86.5961	3,604.98	86.3355	3,604.98	85.889	3,604.98	84.6046	3,604.98	84.0586	3,604.98	83.9749	3,604.98	81.7444	3,604.98	82.9851	3,604.98	79.0962	3,604.98	76.2045	3,604.98	78.2539	3,604.98	80.3532	3,604.98	76.0563	3,604.98	80.9988	3,604.98	76.6083	3,604.98	79.0763	3,604.98	73.1658	3,604.98	79.9827	3,604.98	71.6826	3,604.98	74.9621	3,604.98	67.8692	3,604.98	68.3172	3,604.98	70.3538	3,604.98	58.4093	3,604.98	68.9056	3,604.98	62.9569	3,604.98	66.4045	3,604.98	45.2686	3,604.98	66.0293	3,604.98	63.1583	3,604.98	64.7742	3,604.98	59.7621	3,604.98	61.7136	3,604.98	62.7101	3,604.98	59.3197
3,732.42	87.988	3,732.42	87.2397	3,732.42	87.6562	3,732.42	85.5175	3,732.42	85.5371	3,732.42	83.1996	3,732.42	82.0922	3,732.42	81.9565	3,732.42	83.5802	3,732.42	80.378	3,732.42	77.3662	3,732.42	77.8714	3,732.42	78.6928	3,732.42	77.3421	3,732.42	79.804	3,732.42	72.5595	3,732.42	77.8267	3,732.42	71.4478	3,732.42	77.9391	3,732.42	71.1536	3,732.42	74.1109	3,732.42	68.8696	3,732.42	66.2444	3,732.42	66.9871	3,732.42	65.1155	3,732.42	69.5909	3,732.42	57.6279	3,732.42	64.9435	3,732.42	57.428	3,732.42	66.9935	3,732.42	61.8292	3,732.42	63.5225	3,732.42	58.7292	3,732.42	60.9062	3,732.42	64.3826	3,732.42	57.0326
3,864.26	86.9065	3,864.26	86.1487	3,864.26	86.5253	3,864.26	85.3638	3,864.26	87.0691	3,864.26	83.5716	3,864.26	83.0642	3,864.26	81.2047	3,864.26	85.1226	3,864.26	80.512	3,864.26	80.4845	3,864.26	78.2844	3,864.26	78.1998	3,864.26	75.3214	3,864.26	78.1081	3,864.26	74.872	3,864.26	76.9684	3,864.26	71.0315	3,864.26	71.3425	3,864.26	70.4968	3,864.26	64.097	3,864.26	68.2068	3,864.26	67.7536	3,864.26	68.2654	3,864.26	61.0224	3,864.26	67.803	3,864.26	58.3941	3,864.26	67.3924	3,864.26	56.1018	3,864.26	67.4323	3,864.26	62.8554	3,864.26	60.6144	3,864.26	60.5978	3,864.26	60.4618	3,864.26	62.3784	3,864.26	58.0051
4,000.49	87.5265	4,000.49	85.7232	4,000.49	85.1062	4,000.49	85.3616	4,000.49	86.0427	4,000.49	83.5105	4,000.49	83.3298	4,000.49	80.7242	4,000.49	84.1596	4,000.49	80.8331	4,000.49	82.2014	4,000.49	76.9759	4,000.49	75.6901	4,000.49	75.5674	4,000.49	79.1896	4,000.49	72.8761	4,000.49	76.3749	4,000.49	70.9116	4,000.49	75.958	4,000.49	68.6268	4,000.49	65.6072	4,000.49	66.3993	4,000.49	56.6252	4,000.49	68.2669	4,000.49	60.8722	4,000.49	66.7679	4,000.49	59.4435	4,000.49	67.1232	4,000.49	54.5103	4,000.49	64.9489	4,000.49	63.3103	4,000.49	65.4178	4,000.49	56.7099	4,000.49	60.0832	4,000.49	60.4957	4,000.49	62.3292
4,141.11	87.6496	4,141.11	86.5452	4,141.11	86.3913	4,141.11	85.1588	4,141.11	85.2948	4,141.11	83.2045	4,141.11	84.0649	4,141.11	81.8691	4,141.11	84.0589	4,141.11	79.8284	4,141.11	82.3232	4,141.11	78.451	4,141.11	75.2926	4,141.11	74.5606	4,141.11	78.3986	4,141.11	75.461	4,141.11	72.2246	4,141.11	70.8517	4,141.11	75.9461	4,141.11	70.4535	4,141.11	67.054	4,141.11	65.6706	4,141.11	53.4558	4,141.11	67.2614	4,141.11	60.2991	4,141.11	67.3531	4,141.11	61.5314	4,141.11	66.1263	4,141.11	60.463	4,141.11	63.1409	4,141.11	60.3512	4,141.11	65.1033	4,141.11	51.2699	4,141.11	57.1696	4,141.11	60.2857	4,141.11	62.2827
4,287.6	87.4256	4,287.6	85.8904	4,287.6	86.3298	4,287.6	85.8889	4,287.6	85.3308	4,287.6	83.3098	4,287.6	84.0715	4,287.6	80.8345	4,287.6	83.5588	4,287.6	80.0274	4,287.6	82.2614	4,287.6	76.6387	4,287.6	76.8345	4,287.6	75.7783	4,287.6	79.3437	4,287.6	70.3981	4,287.6	76.9497	4,287.6	71.6516	4,287.6	76.4373	4,287.6	69.3435	4,287.6	68.5212	4,287.6	67.5476	4,287.6	62.7845	4,287.6	66.8169	4,287.6	61.7329	4,287.6	66.4442	4,287.6	57.2808	4,287.6	64.1096	4,287.6	61.023	4,287.6	63.7843	4,287.6	60.0745	4,287.6	63.659	4,287.6	54.5083	4,287.6	61.3394	4,287.6	62.4396	4,287.6	59.0071
4,438.48	87.3454	4,438.48	85.949	4,438.48	86.6468	4,438.48	84.8739	4,438.48	85.8001	4,438.48	83.2979	4,438.48	83.5944	4,438.48	81.943	4,438.48	83.1173	4,438.48	79.6133	4,438.48	83.3244	4,438.48	77.1705	4,438.48	74.6323	4,438.48	73.3919	4,438.48	80.7378	4,438.48	73.7403	4,438.48	77.2917	4,438.48	68.8653	4,438.48	78.3569	4,438.48	63.769	4,438.48	58.8033	4,438.48	65.6123	4,438.48	56.367	4,438.48	64.824	4,438.48	56.3688	4,438.48	63.1546	4,438.48	55.8231	4,438.48	66.1176	4,438.48	60.3326	4,438.48	64.0248	4,438.48	63.1708	4,438.48	59.1082	4,438.48	54.0744	4,438.48	56.3214	4,438.48	62.6115	4,438.48	59.5759
4,595.21	86.5121	4,595.21	86.0867	4,595.21	86.1761	4,595.21	84.9615	4,595.21	85.6974	4,595.21	83.3408	4,595.21	83.0272	4,595.21	80.6802	4,595.21	81.8599	4,595.21	78.9121	4,595.21	82.6873	4,595.21	76.7777	4,595.21	74.6673	4,595.21	73.3742	4,595.21	80.6427	4,595.21	70.8926	4,595.21	74.3755	4,595.21	70.5063	4,595.21	75.6746	4,595.21	68.9651	4,595.21	68.84	4,595.21	66.4306	4,595.21	57.7476	4,595.21	63.6037	4,595.21	45.5547	4,595.21	67.0251	4,595.21	59.3142	4,595.21	63.8948	4,595.21	59.3659	4,595.21	64.2015	4,595.21	57.2172	4,595.21	64.3554	4,595.21	38.5194	4,595.21	58.7296	4,595.21	61.4624	4,595.21	54.7149
4,756.35	87.4164	4,756.35	86.2117	4,756.35	86.459	4,756.35	85.5587	4,756.35	85.1015	4,756.35	84.1757	4,756.35	84.1422	4,756.35	81.2921	4,756.35	81.3973	4,756.35	78.867	4,756.35	82.9324	4,756.35	75.5975	4,756.35	73.3401	4,756.35	74.6644	4,756.35	79.2861	4,756.35	69.4955	4,756.35	69.8056	4,756.35	70.3913	4,756.35	72.2803	4,756.35	67.0693	4,756.35	71.0798	4,756.35	67.11	4,756.35	62.7038	4,756.35	66.9677	4,756.35	50.3899	4,756.35	65.9468	4,756.35	63.2117	4,756.35	64.7957	4,756.35	53.538	4,756.35	64.1835	4,756.35	57.9226	4,756.35	61.2063	4,756.35	43.2513	4,756.35	59.0832	4,756.35	60.331	4,756.35	61.4038
4,924.8	86.8725	4,924.8	86.4911	4,924.8	87.1684	4,924.8	85.5335	4,924.8	85.8606	4,924.8	83.359	4,924.8	84.4758	4,924.8	80.8581	4,924.8	82.3685	4,924.8	78.4975	4,924.8	82.8557	4,924.8	76.1818	4,924.8	71.6894	4,924.8	73.8356	4,924.8	76.7729	4,924.8	72.727	4,924.8	71.3998	4,924.8	68.7934	4,924.8	67.4468	4,924.8	66.3787	4,924.8	70.522	4,924.8	66.3111	4,924.8	62.9061	4,924.8	61.4298	4,924.8	60.6445	4,924.8	63.1722	4,924.8	62.2625	4,924.8	64.9997	4,924.8	46.8733	4,924.8	63.9788	4,924.8	58.843	4,924.8	59.2225	4,924.8	45.8179	4,924.8	58.678	4,924.8	62.3001	4,924.8	60.6652
5,097.66	86.7322	5,097.66	85.9323	5,097.66	86.6225	5,097.66	85.8508	5,097.66	86.2434	5,097.66	83.2791	5,097.66	84.0823	5,097.66	81.729	5,097.66	82.2251	5,097.66	78.0707	5,097.66	83.2409	5,097.66	75.6705	5,097.66	71.4155	5,097.66	72.9563	5,097.66	70.3661	5,097.66	67.803	5,097.66	71.545	5,097.66	69.6643	5,097.66	64.6197	5,097.66	67.7379	5,097.66	72.2455	5,097.66	63.6594	5,097.66	56.9847	5,097.66	65.198	5,097.66	64.4683	5,097.66	63.8596	5,097.66	57.0895	5,097.66	64.8543	5,097.66	59.2675	5,097.66	65.7652	5,097.66	57.3911	5,097.66	60.2386	5,097.66	52.3315	5,097.66	57.8857	5,097.66	60.7463	5,097.66	60.7462
5,277.83	86.6911	5,277.83	86.6372	5,277.83	86.6812	5,277.83	85.9053	5,277.83	85.7084	5,277.83	83.5395	5,277.83	84.9179	5,277.83	81.5429	5,277.83	82.948	5,277.83	78.4012	5,277.83	81.9502	5,277.83	74.5273	5,277.83	74.1012	5,277.83	74.4256	5,277.83	66.3943	5,277.83	70.6435	5,277.83	74.643	5,277.83	69.5879	5,277.83	71.4711	5,277.83	67.4544	5,277.83	72.1922	5,277.83	66.2489	5,277.83	56.1656	5,277.83	65.9389	5,277.83	57.6749	5,277.83	64.5749	5,277.83	63.493	5,277.83	65.3756	5,277.83	60.1758	5,277.83	63.2966	5,277.83	52.4616	5,277.83	61.7123	5,277.83	43.7648	5,277.83	57.2708	5,277.83	56.18	5,277.83	58.6894
5,463.87	86.4954	5,463.87	86.2308	5,463.87	86.5637	5,463.87	86.1092	5,463.87	86.0228	5,463.87	83.8234	5,463.87	85.8076	5,463.87	80.7199	5,463.87	83.5841	5,463.87	78.7816	5,463.87	80.5316	5,463.87	75.2215	5,463.87	75.1659	5,463.87	74.0828	5,463.87	68.9296	5,463.87	71.4333	5,463.87	77.3085	5,463.87	69.7449	5,463.87	72.3073	5,463.87	67.675	5,463.87	70.4302	5,463.87	64.7647	5,463.87	56.045	5,463.87	62.7316	5,463.87	56.6322	5,463.87	61.9036	5,463.87	65.359	5,463.87	65.1416	5,463.87	58.0367	5,463.87	62.8448	5,463.87	53.695	5,463.87	61.8996	5,463.87	52.3748	5,463.87	56.6865	5,463.87	60.1802	5,463.87	57.4617
5,657.23	86.4913	5,657.23	86.2818	5,657.23	86.9793	5,657.23	85.8609	5,657.23	86.3705	5,657.23	83.6829	5,657.23	84.895	5,657.23	81.0228	5,657.23	83.3149	5,657.23	78.5723	5,657.23	79.8468	5,657.23	75.9739	5,657.23	72.5428	5,657.23	73.4536	5,657.23	68.6937	5,657.23	69.9569	5,657.23	77.3294	5,657.23	68.4613	5,657.23	71.4774	5,657.23	67.491	5,657.23	71.8372	5,657.23	64.2442	5,657.23	52.0805	5,657.23	63.9206	5,657.23	53.7218	5,657.23	63.457	5,657.23	60.9822	5,657.23	64.3289	5,657.23	52.6015	5,657.23	64.1368	5,657.23	53.7388	5,657.23	58.0312	5,657.23	52.218	5,657.23	57.3762	5,657.23	58.5812	5,657.23	58.1483
5,856.45	85.9329	5,856.45	86.4733	5,856.45	85.8378	5,856.45	86.3027	5,856.45	85.7832	5,856.45	82.9812	5,856.45	84.4681	5,856.45	81.1708	5,856.45	81.8563	5,856.45	78.3829	5,856.45	80.3027	5,856.45	75.6429	5,856.45	74.0497	5,856.45	73.6282	5,856.45	72.8601	5,856.45	70.4899	5,856.45	77.3207	5,856.45	69.5947	5,856.45	71.3988	5,856.45	67.3974	5,856.45	62.4278	5,856.45	64.9238	5,856.45	57.9284	5,856.45	65.2511	5,856.45	56.2144	5,856.45	63.0566	5,856.45	59.9422	5,856.45	63.7332	5,856.45	55.1221	5,856.45	62.8505	5,856.45	51.7379	5,856.45	62.0868	5,856.45	54.4919	5,856.45	56.1987	5,856.45	56.1272	5,856.45	56.2195
6,062.99	86.328	6,062.99	86.6432	6,062.99	86.6592	6,062.99	85.7883	6,062.99	86.2035	6,062.99	83.6651	6,062.99	85.1627	6,062.99	80.4758	6,062.99	81.5471	6,062.99	78.3161	6,062.99	79.4674	6,062.99	75.5666	6,062.99	75.3272	6,062.99	74.0237	6,062.99	69.5769	6,062.99	69.3776	6,062.99	75.5847	6,062.99	67.6585	6,062.99	64.0691	6,062.99	66.3316	6,062.99	57.8086	6,062.99	63.6004	6,062.99	54.3508	6,062.99	61.8714	6,062.99	55.5365	6,062.99	62.5739	6,062.99	57.7601	6,062.99	63.0666	6,062.99	53.2083	6,062.99	62.2801	6,062.99	49.5825	6,062.99	63.1211	6,062.99	58.556	6,062.99	53.4407	6,062.99	57.6824	6,062.99	58.9635
6,276.86	86.1515	6,276.86	85.9867	6,276.86	85.8935	6,276.86	86.2152	6,276.86	85.2309	6,276.86	83.1628	6,276.86	85.4456	6,276.86	80.8745	6,276.86	80.4502	6,276.86	78.6425	6,276.86	78.4316	6,276.86	75.6214	6,276.86	77.2886	6,276.86	73.0263	6,276.86	70.6274	6,276.86	70.6339	6,276.86	75.0304	6,276.86	67.43	6,276.86	62.2753	6,276.86	65.7566	6,276.86	60.2267	6,276.86	62.49	6,276.86	60.5587	6,276.86	66.0045	6,276.86	51.3146	6,276.86	60.1864	6,276.86	35.765	6,276.86	62.4872	6,276.86	52.3241	6,276.86	64.9685	6,276.86	43.7064	6,276.86	59.9037	6,276.86	51.992	6,276.86	52.8644	6,276.86	52.591	6,276.86	54.2213
6,498.05	86.3021	6,498.05	87.0987	6,498.05	86.1552	6,498.05	86.4023	6,498.05	85.861	6,498.05	82.999	6,498.05	84.468	6,498.05	81.4899	6,498.05	82.9306	6,498.05	78.1967	6,498.05	78.4584	6,498.05	76.0431	6,498.05	76.93	6,498.05	73.009	6,498.05	65.9919	6,498.05	69.1735	6,498.05	72.0565	6,498.05	68.2047	6,498.05	68.4754	6,498.05	64.7356	6,498.05	65.0281	6,498.05	63.7096	6,498.05	62.3247	6,498.05	63.2727	6,498.05	49.1535	6,498.05	60.1456	6,498.05	48.4012	6,498.05	65.2546	6,498.05	43.987	6,498.05	62.3999	6,498.05	41.1489	6,498.05	58.8589	6,498.05	48.6883	6,498.05	49.2259	6,498.05	55.2558	6,498.05	50.5396
6,726.56	86.2845	6,726.56	86.8077	6,726.56	86.7669	6,726.56	86.0343	6,726.56	85.9339	6,726.56	83.476	6,726.56	84.1913	6,726.56	80.9484	6,726.56	82.3485	6,726.56	78.6962	6,726.56	77.0274	6,726.56	75.8518	6,726.56	76.9032	6,726.56	72.3542	6,726.56	68.5713	6,726.56	70.9379	6,726.56	71.9203	6,726.56	67.5228	6,726.56	71.2829	6,726.56	66.0845	6,726.56	68.3588	6,726.56	61.3862	6,726.56	60.1875	6,726.56	63.0529	6,726.56	59.0499	6,726.56	62.9035	6,726.56	50.7497	6,726.56	63.6988	6,726.56	42.2543	6,726.56	62.4793	6,726.56	48.8878	6,726.56	59.9647	6,726.56	56.7448	6,726.56	52.1591	6,726.56	54.0694	6,726.56	49.8637
6,963.87	86.7592	6,963.87	86.796	6,963.87	86.253	6,963.87	86.3163	6,963.87	86.6992	6,963.87	83.2065	6,963.87	84.8526	6,963.87	81.5075	6,963.87	79.6879	6,963.87	78.8308	6,963.87	77.5028	6,963.87	76.0324	6,963.87	75.1629	6,963.87	72.6997	6,963.87	69.3993	6,963.87	68.728	6,963.87	72.8048	6,963.87	68.1256	6,963.87	72.9921	6,963.87	64.7951	6,963.87	64.8626	6,963.87	64.6749	6,963.87	44.3551	6,963.87	63.6811	6,963.87	53.6327	6,963.87	61.9059	6,963.87	53.9527	6,963.87	64.9819	6,963.87	54.9909	6,963.87	63.1958	6,963.87	48.2957	6,963.87	55.1235	6,963.87	31.7611	6,963.87	57.7237	6,963.87	54.4464	6,963.87	51.7693
7,209.96	86.9735	7,209.96	87.3337	7,209.96	86.8063	7,209.96	86.7061	7,209.96	86.5664	7,209.96	83.2916	7,209.96	84.5702	7,209.96	81.6971	7,209.96	81.0885	7,209.96	78.6424	7,209.96	78.5974	7,209.96	76.7243	7,209.96	73.8725	7,209.96	73.0786	7,209.96	74.1355	7,209.96	70.3668	7,209.96	68.4785	7,209.96	67.4467	7,209.96	70.8066	7,209.96	65.55	7,209.96	63.6861	7,209.96	62.7362	7,209.96	51.8888	7,209.96	62.1628	7,209.96	55.9679	7,209.96	63.0457	7,209.96	51.5745	7,209.96	63.3822	7,209.96	55.1138	7,209.96	60.9547	7,209.96	47.4326	7,209.96	60.0404	7,209.96	54.9404	7,209.96	56.616	7,209.96	53.9461	7,209.96	49.4679
7,464.84	86.6894	7,464.84	87.0511	7,464.84	86.7352	7,464.84	86.3849	7,464.84	86.6565	7,464.84	83.6045	7,464.84	85.2495	7,464.84	81.4506	7,464.84	83.1895	7,464.84	79.2831	7,464.84	79.0281	7,464.84	76.0481	7,464.84	76.1083	7,464.84	71.3373	7,464.84	73.7511	7,464.84	69.7059	7,464.84	71.1951	7,464.84	66.8091	7,464.84	65.2922	7,464.84	65.0726	7,464.84	61.9211	7,464.84	63.5751	7,464.84	48.7564	7,464.84	62.4974	7,464.84	53.175	7,464.84	61.9517	7,464.84	56.1928	7,464.84	63.2415	7,464.84	45.2644	7,464.84	62.2744	7,464.84	40.3697	7,464.84	61.3757	7,464.84	52.089	7,464.84	54.2016	7,464.84	51.0635	7,464.84	49.6772
7,727.05	87.3397	7,727.05	87.3713	7,727.05	86.6113	7,727.05	86.9449	7,727.05	86.6885	7,727.05	83.5695	7,727.05	85.8529	7,727.05	81.8533	7,727.05	83.0194	7,727.05	78.5631	7,727.05	79.9437	7,727.05	76.5447	7,727.05	77.8797	7,727.05	72.3685	7,727.05	74.6955	7,727.05	69.8544	7,727.05	66.9338	7,727.05	67.6558	7,727.05	65.805	7,727.05	65.1801	7,727.05	63.4972	7,727.05	62.5347	7,727.05	55.1901	7,727.05	61.2262	7,727.05	51.2185	7,727.05	62.3715	7,727.05	47.4176	7,727.05	63.1258	7,727.05	47.9123	7,727.05	63.084	7,727.05	30.044	7,727.05	59.1196	7,727.05	50.2454	7,727.05	57.1774	7,727.05	47.8614	7,727.05	51.5473
7,999.51	86.9335	7,999.51	87.0074	7,999.51	86.9375	7,999.51	86.5941	7,999.51	86.4037	7,999.51	83.3287	7,999.51	85.0486	7,999.51	81.608	7,999.51	83.4891	7,999.51	78.62	7,999.51	80.7033	7,999.51	76.1567	7,999.51	78.842	7,999.51	71.6886	7,999.51	75.382	7,999.51	69.6587	7,999.51	49.9619	7,999.51	67.4647	7,999.51	65.0635	7,999.51	62.606	7,999.51	66.9644	7,999.51	64.2469	7,999.51	60.924	7,999.51	62.5515	7,999.51	48.1892	7,999.51	60.9799	7,999.51	48.9627	7,999.51	63.1114	7,999.51	47.3056	7,999.51	62.7945	7,999.51	44.2261	7,999.51	61.1199	7,999.51	46.5058	7,999.51	54.9584	7,999.51	53.0139	7,999.51	53.2659
8,282.23	87.0582	8,282.23	87.2505	8,282.23	86.4865	8,282.23	86.7866	8,282.23	86.693	8,282.23	83.3312	8,282.23	84.837	8,282.23	81.7707	8,282.23	83.1062	8,282.23	78.0211	8,282.23	80.3714	8,282.23	76.2809	8,282.23	77.1202	8,282.23	71.837	8,282.23	73.8539	8,282.23	70.1057	8,282.23	54.0717	8,282.23	66.7829	8,282.23	63.8947	8,282.23	65.5954	8,282.23	54.4777	8,282.23	62.1185	8,282.23	56.0683	8,282.23	62.0821	8,282.23	34.1254	8,282.23	62.7196	8,282.23	49.4503	8,282.23	63.3039	8,282.23	50.8098	8,282.23	62.6571	8,282.23	50.2237	8,282.23	60.6933	8,282.23	50.8118	8,282.23	52.6254	8,282.23	49.0876	8,282.23	48.3213
8,573.73	86.8857	8,573.73	86.758	8,573.73	86.972	8,573.73	86.1573	8,573.73	86.3691	8,573.73	83.3006	8,573.73	84.7914	8,573.73	81.7746	8,573.73	82.221	8,573.73	77.5794	8,573.73	80.4233	8,573.73	76.4068	8,573.73	74.3452	8,573.73	71.8319	8,573.73	70.4103	8,573.73	69.0397	8,573.73	66.7001	8,573.73	65.3989	8,573.73	60.6767	8,573.73	63.4063	8,573.73	46.684	8,573.73	61.0237	8,573.73	48.0689	8,573.73	62.5729	8,573.73	44.2064	8,573.73	60.2793	8,573.73	49.4955	8,573.73	62.9071	8,573.73	53.6832	8,573.73	62.2572	8,573.73	47.286	8,573.73	59.644	8,573.73	49.1043	8,573.73	52.4306	8,573.73	52.7085	8,573.73	50.6371
8,876.95	86.8559	8,876.95	86.8312	8,876.95	86.3938	8,876.95	86.0676	8,876.95	86.4892	8,876.95	83.4063	8,876.95	84.1146	8,876.95	81.6093	8,876.95	82.074	8,876.95	77.6355	8,876.95	80.6422	8,876.95	76.1096	8,876.95	74.4441	8,876.95	71.1864	8,876.95	67.768	8,876.95	69.4301	8,876.95	68.1107	8,876.95	65.1193	8,876.95	63.0646	8,876.95	62.7938	8,876.95	60.5865	8,876.95	60.27	8,876.95	46.0027	8,876.95	61.6311	8,876.95	48.0055	8,876.95	60.5895	8,876.95	50.4535	8,876.95	63.3041	8,876.95	55.3078	8,876.95	61.7844	8,876.95	51.2815	8,876.95	58.8617	8,876.95	40.9435	8,876.95	47.7075	8,876.95	48.3649	8,876.95	48.0221
9,188.96	86.3016	9,188.96	86.6828	9,188.96	86.5244	9,188.96	85.7417	9,188.96	86.1466	9,188.96	83.275	9,188.96	84.183	9,188.96	81.7332	9,188.96	82.9302	9,188.96	78.0397	9,188.96	80.175	9,188.96	76.3001	9,188.96	75.1	9,188.96	70.9646	9,188.96	69.1355	9,188.96	68.331	9,188.96	68.6	9,188.96	65.191	9,188.96	64.3202	9,188.96	63.5086	9,188.96	58.2881	9,188.96	57.4695	9,188.96	36.4752	9,188.96	61.6144	9,188.96	53.6855	9,188.96	59.4575	9,188.96	54.0363	9,188.96	61.4845	9,188.96	54.5291	9,188.96	61.3171	9,188.96	50.4281	9,188.96	59.639	9,188.96	48.6867	9,188.96	53.4168	9,188.96	51.0899	9,188.96	47.7828
9,514.16	86.3667	9,514.16	86.5673	9,514.16	86.0843	9,514.16	85.6484	9,514.16	86.3954	9,514.16	83.5198	9,514.16	84.7554	9,514.16	81.4527	9,514.16	81.8814	9,514.16	78.718	9,514.16	79.0535	9,514.16	76.2857	9,514.16	78.1839	9,514.16	70.1158	9,514.16	70.5572	9,514.16	68.761	9,514.16	64.6969	9,514.16	64.9999	9,514.16	62.0009	9,514.16	62.4836	9,514.16	63.8505	9,514.16	62.2034	9,514.16	57.8896	9,514.16	57.8123	9,514.16	49.5083	9,514.16	61.6217	9,514.16	51.3962	9,514.16	62.8781	9,514.16	54.4696	9,514.16	61.8532	9,514.16	38.2738	9,514.16	59.0937	9,514.16	44.2478	9,514.16	46.8667	9,514.16	52.4747	9,514.16	47.6323
9,849.61	86.1348	9,849.61	86.1459	9,849.61	85.9236	9,849.61	85.6017	9,849.61	85.9632	9,849.61	83.1397	9,849.61	84.7797	9,849.61	81.805	9,849.61	82.2405	9,849.61	79.0189	9,849.61	76.654	9,849.61	75.7974	9,849.61	78.3613	9,849.61	70.2933	9,849.61	66.8199	9,849.61	69.4405	9,849.61	67.6345	9,849.61	65.1709	9,849.61	60.3084	9,849.61	61.4615	9,849.61	61.3954	9,849.61	61.2509	9,849.61	57.1014	9,849.61	60.1246	9,849.61	50.2094	9,849.61	60.6177	9,849.61	47.1941	9,849.61	62.076	9,849.61	43.8316	9,849.61	62.9321	9,849.61	49.809	9,849.61	59.3212	9,849.61	51.7431	9,849.61	48.2257	9,849.61	53.7461	9,849.61	49.3181
10,196.8	86.2374	10,196.8	85.7123	10,196.8	85.4313	10,196.8	85.7622	10,196.8	85.4356	10,196.8	82.7134	10,196.8	85.4186	10,196.8	82.0915	10,196.8	83.681	10,196.8	78.3714	10,196.8	73.8488	10,196.8	76.2515	10,196.8	78.8701	10,196.8	70.7006	10,196.8	61.1803	10,196.8	68.9175	10,196.8	68.989	10,196.8	64.221	10,196.8	62.3871	10,196.8	62.8558	10,196.8	64.9599	10,196.8	58.4352	10,196.8	60.4726	10,196.8	59.5493	10,196.8	46.9628	10,196.8	62.9855	10,196.8	45.8817	10,196.8	61.3506	10,196.8	52.2988	10,196.8	61.463	10,196.8	47.4651	10,196.8	58.1293	10,196.8	49.2178	10,196.8	47.0654	10,196.8	51.0167	10,196.8	48.8955
10,555.7	85.9823	10,555.7	85.1236	10,555.7	85.2265	10,555.7	85.8513	10,555.7	85.293	10,555.7	82.5573	10,555.7	83.9768	10,555.7	82.2217	10,555.7	83.7974	10,555.7	77.9405	10,555.7	76.7811	10,555.7	76.5914	10,555.7	76.5754	10,555.7	70.3101	10,555.7	69.6658	10,555.7	68.2128	10,555.7	68.8405	10,555.7	64.0202	10,555.7	57.7747	10,555.7	62.7046	10,555.7	61.0942	10,555.7	58.9797	10,555.7	55.2285	10,555.7	55.5139	10,555.7	54.377	10,555.7	62.0541	10,555.7	46.2072	10,555.7	61.375	10,555.7	51.2201	10,555.7	60.8154	10,555.7	44.404	10,555.7	56.3318	10,555.7	49.9002	10,555.7	43.07	10,555.7	49.7399	10,555.7	43.5339
10,927.7	85.6574	10,927.7	84.6189	10,927.7	85.0399	10,927.7	85.7905	10,927.7	84.7727	10,927.7	83.1729	10,927.7	84.4814	10,927.7	82.3475	10,927.7	82.5754	10,927.7	77.9576	10,927.7	78.7465	10,927.7	76.8703	10,927.7	72.3973	10,927.7	69.624	10,927.7	73.0136	10,927.7	67.5218	10,927.7	66.0413	10,927.7	64.0724	10,927.7	58.5107	10,927.7	60.4559	10,927.7	62.4016	10,927.7	60.723	10,927.7	58.8842	10,927.7	60.0049	10,927.7	51.5423	10,927.7	60.744	10,927.7	45.8501	10,927.7	60.5595	10,927.7	51.1544	10,927.7	59.7567	10,927.7	47.7373	10,927.7	57.2564	10,927.7	53.3265	10,927.7	44.955	10,927.7	51.2952	10,927.7	48.208
11,313	85.2989	11,313	84.7535	11,313	85.169	11,313	85.618	11,313	84.8663	11,313	83.6299	11,313	84.2838	11,313	82.3815	11,313	83.0746	11,313	78.4934	11,313	80.5199	11,313	76.3003	11,313	69.4231	11,313	69.8897	11,313	72.0059	11,313	67.3538	11,313	64.223	11,313	64.2875	11,313	51.6213	11,313	60.0849	11,313	64.1585	11,313	58.7271	11,313	60.4271	11,313	59.178	11,313	51.1624	11,313	61.3674	11,313	46.6417	11,313	60.3254	11,313	49.3753	11,313	60.3164	11,313	46.8999	11,313	55.026	11,313	51.3314	11,313	40.1771	11,313	49.5331	11,313	47.7417
11,712.9	85.2362	11,712.9	84.7769	11,712.9	85.4151	11,712.9	85.4689	11,712.9	85.1555	11,712.9	83.7845	11,712.9	84.5741	11,712.9	82.4172	11,712.9	82.8058	11,712.9	78.5879	11,712.9	80.9159	11,712.9	75.3907	11,712.9	71.9806	11,712.9	69.8894	11,712.9	66.9038	11,712.9	66.8007	11,712.9	66.861	11,712.9	64.5686	11,712.9	61.156	11,712.9	60.4455	11,712.9	65.2319	11,712.9	55.342	11,712.9	60.1709	11,712.9	57.1774	11,712.9	44.8397	11,712.9	61.3459	11,712.9	45.8128	11,712.9	59.9436	11,712.9	50.5895	11,712.9	58.7916	11,712.9	45.1902	11,712.9	54.4079	11,712.9	47.533	11,712.9	45.5309	11,712.9	47.0131	11,712.9	48.8109
12,126	85.3618	12,126	85.2441	12,126	85.7386	12,126	85.4671	12,126	85.2797	12,126	83.5549	12,126	84.7679	12,126	82.5857	12,126	83.4834	12,126	78.4702	12,126	80.1652	12,126	74.9958	12,126	74.5142	12,126	69.5342	12,126	70.8486	12,126	65.9181	12,126	68.0912	12,126	63.761	12,126	62.7314	12,126	58.2524	12,126	66.6429	12,126	58.863	12,126	62.5307	12,126	56.7452	12,126	50.794	12,126	60.7364	12,126	49.7405	12,126	58.7118	12,126	52.081	12,126	57.9388	12,126	42.9342	12,126	52.3928	12,126	47.8337	12,126	45.4905	12,126	32.8323	12,126	43.681
12,553.7	85.3515	12,553.7	85.3203	12,553.7	85.5659	12,553.7	85.5736	12,553.7	85.0502	12,553.7	83.3054	12,553.7	84.3167	12,553.7	82.6525	12,553.7	83.0154	12,553.7	78.0431	12,553.7	78.8835	12,553.7	75.3651	12,553.7	75.142	12,553.7	68.8533	12,553.7	70.8972	12,553.7	64.7219	12,553.7	68.8295	12,553.7	62.8334	12,553.7	60.5454	12,553.7	56.7161	12,553.7	65.9137	12,553.7	57.4808	12,553.7	64.6283	12,553.7	55.7114	12,553.7	55.9002	12,553.7	59.3274	12,553.7	53.4806	12,553.7	57.358	12,553.7	48.5456	12,553.7	57.3559	12,553.7	43.7602	12,553.7	51.5174	12,553.7	43.6486	12,553.7	49.0726	12,553.7	41.2644	12,553.7	42.8964
12,996.1	85.4314	12,996.1	85.4511	12,996.1	85.6114	12,996.1	85.8117	12,996.1	85.3188	12,996.1	83.0789	12,996.1	84.4775	12,996.1	82.6381	12,996.1	83.4793	12,996.1	77.7789	12,996.1	77.6496	12,996.1	75.2156	12,996.1	74.474	12,996.1	68.2214	12,996.1	69.0636	12,996.1	63.8675	12,996.1	68.0713	12,996.1	63.0115	12,996.1	60.0399	12,996.1	56.117	12,996.1	68.3761	12,996.1	54.1003	12,996.1	66.1177	12,996.1	55.6507	12,996.1	54.7397	12,996.1	58.5777	12,996.1	51.0992	12,996.1	55.6658	12,996.1	45.9393	12,996.1	54.9831	12,996.1	45.0286	12,996.1	48.1453	12,996.1	45.8476	12,996.1	45.8045	12,996.1	45.7495	12,996.1	43.4555
13,454.6	85.6275	13,454.6	85.4722	13,454.6	85.6673	13,454.6	86.0966	13,454.6	85.3851	13,454.6	83.1044	13,454.6	84.3224	13,454.6	82.3355	13,454.6	82.8239	13,454.6	77.6822	13,454.6	77.3103	13,454.6	74.4518	13,454.6	75.7562	13,454.6	69.0327	13,454.6	67.0535	13,454.6	63.0166	13,454.6	64.5351	13,454.6	63.4533	13,454.6	61.4465	13,454.6	55.5384	13,454.6	68.0871	13,454.6	52.9724	13,454.6	65.665	13,454.6	56.5615	13,454.6	55.6752	13,454.6	57.8297	13,454.6	51.6001	13,454.6	52.1435	13,454.6	50.263	13,454.6	52.5038	13,454.6	47.7034	13,454.6	47.6491	13,454.6	47.0594	13,454.6	50.0135	13,454.6	46.6529	13,454.6	39.8959
13,929.2	86.0077	13,929.2	85.6615	13,929.2	85.6498	13,929.2	86.3288	13,929.2	85.3885	13,929.2	83.34	13,929.2	84.4935	13,929.2	82.217	13,929.2	83.1554	13,929.2	77.4918	13,929.2	76.5334	13,929.2	73.724	13,929.2	75.5483	13,929.2	69.3635	13,929.2	68.0799	13,929.2	62.1007	13,929.2	59.5756	13,929.2	61.9437	13,929.2	62.6649	13,929.2	54.2273	13,929.2	68.5007	13,929.2	52.9126	13,929.2	66.3603	13,929.2	54.5355	13,929.2	56.3805	13,929.2	57.1001	13,929.2	52.2253	13,929.2	50.2287	13,929.2	47.2012	13,929.2	50.9748	13,929.2	45.772	13,929.2	46.9517	13,929.2	47.5549	13,929.2	49.9947	13,929.2	49.1999	13,929.2	36.243
14,419.9	86.1884	14,419.9	85.8413	14,419.9	85.8173	14,419.9	86.4388	14,419.9	85.5807	14,419.9	83.6095	14,419.9	84.4494	14,419.9	82.2366	14,419.9	82.8426	14,419.9	77.1088	14,419.9	76.4054	14,419.9	73.1024	14,419.9	73.7225	14,419.9	69.0866	14,419.9	64.1421	14,419.9	61.3732	14,419.9	63.1098	14,419.9	60.7545	14,419.9	61.61	14,419.9	53.9185	14,419.9	69.1149	14,419.9	53.2381	14,419.9	67.3712	14,419.9	51.8579	14,419.9	54.9961	14,419.9	53.9188	14,419.9	52.0675	14,419.9	50.6144	14,419.9	22.1062	14,419.9	51.4163	14,419.9	47.0661	14,419.9	46.3576	14,419.9	47.8755	14,419.9	49.1516	14,419.9	48.1088	14,419.9	44.0839
14,928.2	86.4122	14,928.2	86.2611	14,928.2	85.9368	14,928.2	86.6602	14,928.2	85.7249	14,928.2	83.7331	14,928.2	84.5079	14,928.2	82.4359	14,928.2	82.6908	14,928.2	76.8755	14,928.2	77.4438	14,928.2	72.7752	14,928.2	72.1339	14,928.2	67.9717	14,928.2	66.9148	14,928.2	61.3158	14,928.2	55.9073	14,928.2	58.7806	14,928.2	63.5813	14,928.2	53.6991	14,928.2	69.7309	14,928.2	50.0669	14,928.2	67.5969	14,928.2	49.4206	14,928.2	55.1206	14,928.2	51.9966	14,928.2	50.3225	14,928.2	50.9022	14,928.2	42.2741	14,928.2	51.358	14,928.2	49.6621	14,928.2	43.581	14,928.2	45.638	14,928.2	48.7086	14,928.2	34.095	14,928.2	43.9991
15,455.6	86.5168	15,455.6	86.7043	15,455.6	86.1263	15,455.6	87.0112	15,455.6	85.8985	15,455.6	83.6096	15,455.6	84.5967	15,455.6	82.4443	15,455.6	83.4757	15,455.6	76.808	15,455.6	78.4307	15,455.6	71.7056	15,455.6	71.3715	15,455.6	67.1472	15,455.6	66.1753	15,455.6	60.5018	15,455.6	53.8049	15,455.6	56.4477	15,455.6	62.4192	15,455.6	54.498	15,455.6	71.2013	15,455.6	46.4063	15,455.6	68.101	15,455.6	48.7783	15,455.6	57.1055	15,455.6	52.785	15,455.6	52.1811	15,455.6	51.3424	15,455.6	41.8273	15,455.6	51.4394	15,455.6	50.1423	15,455.6	50.2379	15,455.6	43.8561	15,455.6	52.1946	15,455.6	34.5214	15,455.6	45.33
16,000.5	86.494	16,000.5	86.9307	16,000.5	86.2337	16,000.5	87.184	16,000.5	86.15	16,000.5	83.5717	16,000.5	85.0344	16,000.5	82.2791	16,000.5	83.1119	16,000.5	76.7174	16,000.5	77.1162	16,000.5	71.2157	16,000.5	73.1783	16,000.5	66.4421	16,000.5	66.2505	16,000.5	60.2967	16,000.5	54.8721	16,000.5	54.8978	16,000.5	62.5704	16,000.5	55.1551	16,000.5	70.9877	16,000.5	35.8915	16,000.5	68.3374	16,000.5	47.552	16,000.5	56.8928	16,000.5	53.1945	16,000.5	52.4936	16,000.5	52.8779	16,000.5	41.6256	16,000.5	53.9306	16,000.5	51.219	16,000.5	53.2313	16,000.5	39.6507	16,000.5	53.0266	16,000.5	37.2585	16,000.5	38.8457
16,564.5	86.4957	16,564.5	87.0847	16,564.5	86.3405	16,564.5	87.3774	16,564.5	86.4133	16,564.5	83.4766	16,564.5	85.2654	16,564.5	81.8309	16,564.5	82.9479	16,564.5	75.7183	16,564.5	75.737	16,564.5	70.2237	16,564.5	71.5156	16,564.5	65.5941	16,564.5	68.6511	16,564.5	60.3013	16,564.5	43.0265	16,564.5	50.7687	16,564.5	60.1149	16,564.5	54.3628	16,564.5	70.0514	16,564.5	45.7989	16,564.5	67.7201	16,564.5	44.9039	16,564.5	55.9636	16,564.5	53.1467	16,564.5	51.6387	16,564.5	54.9699	16,564.5	34.6475	16,564.5	54.7647	16,564.5	50.9584	16,564.5	53.307	16,564.5	46.4359	16,564.5	53.5628	16,564.5	40.5172	16,564.5	45.5853
17,148.9	86.4471	17,148.9	87.1242	17,148.9	86.2781	17,148.9	87.4006	17,148.9	86.487	17,148.9	83.2346	17,148.9	85.2952	17,148.9	81.3697	17,148.9	82.5945	17,148.9	74.8761	17,148.9	74.6389	17,148.9	68.8248	17,148.9	68.1941	17,148.9	64.303	17,148.9	65.3456	17,148.9	59.3327	17,148.9	56.8078	17,148.9	50.7303	17,148.9	54.6328	17,148.9	53.9559	17,148.9	69.7395	17,148.9	49.7984	17,148.9	67.5502	17,148.9	44.9537	17,148.9	57.4049	17,148.9	54.9908	17,148.9	53.9263	17,148.9	56.6725	17,148.9	43.0974	17,148.9	56.6846	17,148.9	53.2275	17,148.9	55.9939	17,148.9	49.8146	17,148.9	55.91	17,148.9	41.3323	17,148.9	44.3179
17,752.4	85.822	17,752.4	86.7262	17,752.4	85.9668	17,752.4	87.3464	17,752.4	86.6387	17,752.4	82.9945	17,752.4	85.7626	17,752.4	80.9309	17,752.4	82.8054	17,752.4	74.0534	17,752.4	74.4905	17,752.4	67.9129	17,752.4	70.0574	17,752.4	62.0778	17,752.4	62.899	17,752.4	57.8207	17,752.4	57.4755	17,752.4	55.4562	17,752.4	52.2062	17,752.4	53.0063	17,752.4	69.4639	17,752.4	53.8668	17,752.4	67.1165	17,752.4	48.7067	17,752.4	57.2365	17,752.4	56.6104	17,752.4	56.1599	17,752.4	57.4616	17,752.4	48.0792	17,752.4	58.1072	17,752.4	54.8597	17,752.4	57.2531	17,752.4	51.3969	17,752.4	57.4515	17,752.4	47.9051	17,752.4	48.2561
18,379.4	84.7996	18,379.4	86.2158	18,379.4	85.4853	18,379.4	87.3053	18,379.4	86.8173	18,379.4	82.683	18,379.4	85.9972	18,379.4	80.3114	18,379.4	82.6093	18,379.4	73.1616	18,379.4	71.9979	18,379.4	67.5552	18,379.4	68.8498	18,379.4	60.9685	18,379.4	67.0037	18,379.4	55.472	18,379.4	58.3204	18,379.4	57.3438	18,379.4	40.8175	18,379.4	51.4828	18,379.4	68.3706	18,379.4	56.8565	18,379.4	65.8413	18,379.4	51.1747	18,379.4	56.3596	18,379.4	57.9746	18,379.4	55.8899	18,379.4	57.8954	18,379.4	50.8452	18,379.4	59.4905	18,379.4	55.3439	18,379.4	58.3601	18,379.4	52.7975	18,379.4	58.3391	18,379.4	47.7851	18,379.4	51.4945
19,026.9	84.1928	19,026.9	85.7882	19,026.9	85.0455	19,026.9	87.0928	19,026.9	86.8242	19,026.9	82.0534	19,026.9	85.6946	19,026.9	79.2908	19,026.9	81.3263	19,026.9	71.8628	19,026.9	71.1038	19,026.9	67.3837	19,026.9	68.1075	19,026.9	61.3007	19,026.9	65.0382	19,026.9	54.3364	19,026.9	63.2846	19,026.9	58.6809	19,026.9	51.9993	19,026.9	48.1739	19,026.9	66.3516	19,026.9	58.0704	19,026.9	64.3587	19,026.9	52.8426	19,026.9	56.478	19,026.9	59.0133	19,026.9	55.7394	19,026.9	58.4691	19,026.9	53.4165	19,026.9	60.2788	19,026.9	55.8735	19,026.9	59.3347	19,026.9	53.9481	19,026.9	58.9077	19,026.9	48.7591	19,026.9	52.7572
19,697.8	84.599	19,697.8	85.4632	19,697.8	85.0484	19,697.8	86.6459	19,697.8	86.7008	19,697.8	81.2147	19,697.8	85.2752	19,697.8	78.2184	19,697.8	80.6685	19,697.8	70.8668	19,697.8	71.9513	19,697.8	66.8279	19,697.8	69.838	19,697.8	62.5967	19,697.8	67.1575	19,697.8	47.1823	19,697.8	65.3729	19,697.8	58.8785	19,697.8	53.0806	19,697.8	43.2461	19,697.8	63.4135	19,697.8	59.0696	19,697.8	63.0462	19,697.8	53.4316	19,697.8	56.5631	19,697.8	59.1594	19,697.8	57.4303	19,697.8	59.0227	19,697.8	55.4249	19,697.8	60.9693	19,697.8	57.5387	19,697.8	60.7258	19,697.8	55.1631	19,697.8	59.6718	19,697.8	50.6016	19,697.8	53.8604
19,999.5	85.1308	19,999.5	85.1813	19,999.5	85.24	19,999.5	86.497	19,999.5	86.6894	19,999.5	80.8847	19,999.5	85.2409	19,999.5	77.3499	19,999.5	80.1982	19,999.5	70.0693	19,999.5	72.1271	19,999.5	67.7834	19,999.5	70.9122	19,999.5	63.2783	19,999.5	68.7978	19,999.5	47.9787	19,999.5	64.4139	19,999.5	59.6653	19,999.5	53.1491	19,999.5	41.1158	19,999.5	63.0979	19,999.5	60.8838	19,999.5	63.4008	19,999.5	49.5475	19,999.5	54.323	19,999.5	60.455	19,999.5	59.2131	19,999.5	62.6939	19,999.5	55.4883	19,999.5	62.1305	19,999.5	57.5581	19,999.5	61.4416	19,999.5	53.5254	19,999.5	58.8251	19,999.5	34.8253	19,999.5	53.8494
