"SPL Vertical"
"On-Axis"		"10°"		"-10°"		"20°"		"-20°"		"30°"		"-30°"		"40°"		"-40°"		"50°"		"-50°"		"60°"		"-60°"		"70°"		"-70°"		"80°"		"-80°"		"90°"		"-90°"		"100°"		"-100°"		"110°"		"-110°"		"120°"		"-120°"		"130°"		"-130°"		"140°"		"-140°"		"150°"		"-150°"		"160°"		"-160°"		"170°"		"-170°"		"180°"
"Frequency [Hz]"	"Sound Pessure Level [dB]  / [2.83V 1m] "	"Frequency [Hz]"	"Sound Pessure Level [dB]  / [2.83V 1m] "	"Frequency [Hz]"	"Sound Pessure Level [dB]  / [2.83V 1m] "	"Frequency [Hz]"	"Sound Pessure Level [dB]  / [2.83V 1m] "	"Frequency [Hz]"	"Sound Pessure Level [dB]  / [2.83V 1m] "	"Frequency [Hz]"	"Sound Pessure Level [dB]  / [2.83V 1m] "	"Frequency [Hz]"	"Sound Pessure Level [dB]  / [2.83V 1m] "	"Frequency [Hz]"	"Sound Pessure Level [dB]  / [2.83V 1m] "	"Frequency [Hz]"	"Sound Pessure Level [dB]  / [2.83V 1m] "	"Frequency [Hz]"	"Sound Pessure Level [dB]  / [2.83V 1m] "	"Frequency [Hz]"	"Sound Pessure Level [dB]  / [2.83V 1m] "	"Frequency [Hz]"	"Sound Pessure Level [dB]  / [2.83V 1m] "	"Frequency [Hz]"	"Sound Pessure Level [dB]  / [2.83V 1m] "	"Frequency [Hz]"	"Sound Pessure Level [dB]  / [2.83V 1m] "	"Frequency [Hz]"	"Sound Pessure Level [dB]  / [2.83V 1m] "	"Frequency [Hz]"	"Sound Pessure Level [dB]  / [2.83V 1m] "	"Frequency [Hz]"	"Sound Pessure Level [dB]  / [2.83V 1m] "	"Frequency [Hz]"	"Sound Pessure Level [dB]  / [2.83V 1m] "	"Frequency [Hz]"	"Sound Pessure Level [dB]  / [2.83V 1m] "	"Frequency [Hz]"	"Sound Pessure Level [dB]  / [2.83V 1m] "	"Frequency [Hz]"	"Sound Pessure Level [dB]  / [2.83V 1m] "	"Frequency [Hz]"	"Sound Pessure Level [dB]  / [2.83V 1m] "	"Frequency [Hz]"	"Sound Pessure Level [dB]  / [2.83V 1m] "	"Frequency [Hz]"	"Sound Pessure Level [dB]  / [2.83V 1m] "	"Frequency [Hz]"	"Sound Pessure Level [dB]  / [2.83V 1m] "	"Frequency [Hz]"	"Sound Pessure Level [dB]  / [2.83V 1m] "	"Frequency [Hz]"	"Sound Pessure Level [dB]  / [2.83V 1m] "	"Frequency [Hz]"	"Sound Pessure Level [dB]  / [2.83V 1m] "	"Frequency [Hz]"	"Sound Pessure Level [dB]  / [2.83V 1m] "	"Frequency [Hz]"	"Sound Pessure Level [dB]  / [2.83V 1m] "	"Frequency [Hz]"	"Sound Pessure Level [dB]  / [2.83V 1m] "	"Frequency [Hz]"	"Sound Pessure Level [dB]  / [2.83V 1m] "	"Frequency [Hz]"	"Sound Pessure Level [dB]  / [2.83V 1m] "	"Frequency [Hz]"	"Sound Pessure Level [dB]  / [2.83V 1m] "	"Frequency [Hz]"	"Sound Pessure Level [dB]  / [2.83V 1m] "	"Frequency [Hz]"	"Sound Pessure Level [dB]  / [2.83V 1m] "
20.5078	56.0893	20.5078	56.159	20.5078	56.0729	20.5078	56.3098	20.5078	56.0777	20.5078	56.5555	20.5078	56.0781	20.5078	56.893	20.5078	56.0618	20.5078	57.3067	20.5078	56.0347	20.5078	57.7772	20.5078	56.0233	20.5078	58.288	20.5078	56.0741	20.5078	58.8263	20.5078	56.2445	20.5078	59.3817	20.5078	56.5834	20.5078	59.9426	20.5078	57.1076	20.5078	60.4943	20.5078	57.7908	20.5078	61.0178	20.5078	58.5747	20.5078	61.4906	20.5078	59.3911	20.5078	61.8873	20.5078	60.1782	20.5078	62.182	20.5078	60.8874	20.5078	62.3502	20.5078	61.4822	20.5078	62.3724	20.5078	61.9371	20.5078	62.2359
21.9727	61.9796	21.9727	62.0528	21.9727	61.9402	21.9727	62.1803	21.9727	61.918	21.9727	62.3796	21.9727	61.9047	21.9727	62.6591	21.9727	61.9021	21.9727	63.015	21.9727	61.9213	21.9727	63.4346	21.9727	61.9818	21.9727	63.9001	21.9727	62.1105	21.9727	64.3934	21.9727	62.3372	21.9727	64.8982	21.9727	62.6863	21.9727	65.3995	21.9727	63.1653	21.9727	65.8831	21.9727	63.757	21.9727	66.3341	21.9727	64.4215	21.9727	66.7364	21.9727	65.1074	21.9727	67.0726	21.9727	65.7636	21.9727	67.3248	21.9727	66.3481	21.9727	67.4755	21.9727	66.8297	21.9727	67.5096	21.9727	67.1889	21.9727	67.416
23.4375	62.981	23.4375	62.8976	23.4375	63.029	23.4375	62.792	23.4375	63.0306	23.4375	62.6797	23.4375	62.976	23.4375	62.5784	23.4375	62.857	23.4375	62.5083	23.4375	62.6688	23.4375	62.4921	23.4375	62.4152	23.4375	62.5536	23.4375	62.1175	23.4375	62.7145	23.4375	61.8241	23.4375	62.986	23.4375	61.616	23.4375	63.3628	23.4375	61.5922	23.4375	63.8194	23.4375	61.8258	23.4375	64.3152	23.4375	62.3149	23.4375	64.802	23.4375	62.979	23.4375	65.2325	23.4375	63.7056	23.4375	65.5658	23.4375	64.3963	23.4375	65.77	23.4375	64.9836	23.4375	65.8224	23.4375	65.4281	23.4375	65.7097
24.9023	63.8207	24.9023	63.757	24.9023	63.8683	24.9023	63.7059	24.9023	63.8809	24.9023	63.7055	24.9023	63.8513	24.9023	63.7978	24.9023	63.7847	24.9023	64.0208	24.9023	63.7029	24.9023	64.3971	24.9023	63.6493	24.9023	64.9255	24.9023	63.6899	24.9023	65.5805	24.9023	63.9028	24.9023	66.3198	24.9023	64.3461	24.9023	67.0956	24.9023	65.023	24.9023	67.8624	24.9023	65.8733	24.9023	68.5811	24.9023	66.8031	24.9023	69.2199	24.9023	67.7216	24.9023	69.7528	24.9023	68.5603	24.9023	70.1589	24.9023	69.2747	24.9023	70.4212	24.9023	69.8387	24.9023	70.5271	24.9023	70.2382	24.9023	70.4677
26.3672	66.477	26.3672	66.4317	26.3672	66.5671	26.3672	66.4638	26.3672	66.6795	26.3672	66.6084	26.3672	66.8044	26.3672	66.8923	26.3672	66.9454	26.3672	67.3242	26.3672	67.1189	26.3672	67.8897	26.3672	67.3518	26.3672	68.5575	26.3672	67.6765	26.3672	69.288	26.3672	68.1205	26.3672	70.0424	26.3672	68.6942	26.3672	70.7874	26.3672	69.3824	26.3672	71.496	26.3672	70.1466	26.3672	72.1463	26.3672	70.9356	26.3672	72.7198	26.3672	71.6977	26.3672	73.2005	26.3672	72.3887	26.3672	73.5735	26.3672	72.9752	26.3672	73.8254	26.3672	73.4341	26.3672	73.9445	26.3672	73.7517	26.3672	73.9217
27.832	69.6401	27.832	69.6221	27.832	69.6984	27.832	69.6642	27.832	69.7838	27.832	69.7895	27.832	69.8912	27.832	70.0186	27.832	70.0243	27.832	70.3635	27.832	70.1949	27.832	70.8221	27.832	70.423	27.832	71.3787	27.832	70.7323	27.832	72.0073	27.832	71.1436	27.832	72.6771	27.832	71.6651	27.832	73.3572	27.832	72.2857	27.832	74.0195	27.832	72.9748	27.832	74.6393	27.832	73.6894	27.832	75.1947	27.832	74.3839	27.832	75.6668	27.832	75.0172	27.832	76.0384	27.832	75.5565	27.832	76.2947	27.832	75.9781	27.832	76.4235	27.832	76.267	27.832	76.4157
29.2969	73.8386	29.2969	73.8458	29.2969	73.8723	29.2969	73.9077	29.2969	73.9361	29.2969	74.0375	29.2969	74.0237	29.2969	74.2455	29.2969	74.135	29.2969	74.5355	29.2969	74.2761	29.2969	74.9041	29.2969	74.4595	29.2969	75.3408	29.2969	74.7013	29.2969	75.8294	29.2969	75.0171	29.2969	76.3509	29.2969	75.416	29.2969	76.8848	29.2969	75.8949	29.2969	77.4107	29.2969	76.4363	29.2969	77.9089	29.2969	77.0107	29.2969	78.3606	29.2969	77.5824	29.2969	78.7477	29.2969	78.1156	29.2969	79.0534	29.2969	78.5789	29.2969	79.2626	29.2969	78.9481	29.2969	79.363	29.2969	79.2067	29.2969	79.3456
30.7617	76.5111	30.7617	76.5188	30.7617	76.5458	30.7617	76.5798	30.7617	76.6138	30.7617	76.7048	30.7617	76.71	30.7617	76.9018	30.7617	76.8339	30.7617	77.1736	30.7617	76.9899	30.7617	77.5171	30.7617	77.1872	30.7617	77.9229	30.7617	77.4375	30.7617	78.3773	30.7617	77.7519	30.7617	78.8633	30.7617	78.136	30.7617	79.363	30.7617	78.5859	30.7617	79.8576	30.7617	79.0864	30.7617	80.3289	30.7617	79.6128	30.7617	80.7588	30.7617	80.1345	30.7617	81.1299	30.7617	80.6202	30.7617	81.4259	30.7617	81.0419	30.7617	81.632	30.7617	81.3768	30.7617	81.736	30.7617	81.609	30.7617	81.7295
32.2266	79.213	32.2266	79.221	32.2266	79.2399	32.2266	79.2723	32.2266	79.2949	32.2266	79.3754	32.2266	79.374	32.2266	79.5369	32.2266	79.4771	32.2266	79.7603	32.2266	79.6078	32.2266	80.0448	32.2266	79.7741	32.2266	80.3849	32.2266	79.9857	32.2266	80.7714	32.2266	80.2523	32.2266	81.1916	32.2266	80.5798	32.2266	81.6306	32.2266	80.9665	32.2266	82.072	32.2266	81.4016	32.2266	82.4985	32.2266	81.8652	32.2266	82.8922	32.2266	82.3311	32.2266	83.2355	32.2266	82.7707	32.2266	83.5113	32.2266	83.1568	32.2266	83.7043	32.2266	83.4666	32.2266	83.802	32.2266	83.683	32.2266	83.7959
33.6914	81.5712	33.6914	81.6023	33.6914	81.5724	33.6914	81.6694	33.6914	81.6031	33.6914	81.7771	33.6914	81.6619	33.6914	81.9293	33.6914	81.75	33.6914	82.1285	33.6914	81.8706	33.6914	82.3753	33.6914	82.0291	33.6914	82.6676	33.6914	82.2322	33.6914	83.0002	33.6914	82.486	33.6914	83.365	33.6914	82.7939	33.6914	83.7508	33.6914	83.1533	33.6914	84.1443	33.6914	83.5543	33.6914	84.5299	33.6914	83.9799	33.6914	84.8908	33.6914	84.407	33.6914	85.2095	33.6914	84.8102	33.6914	85.4688	33.6914	85.1647	33.6914	85.6527	33.6914	85.4489	33.6914	85.7485	33.6914	85.6465	33.6914	85.7475
35.1562	83.418	35.1562	83.4258	35.1562	83.4414	35.1562	83.4692	35.1562	83.4925	35.1562	83.5532	35.1562	83.5697	35.1562	83.6821	35.1562	83.6734	35.1562	83.859	35.1562	83.8061	35.1562	84.085	35.1562	83.9723	35.1562	84.3582	35.1562	84.1772	35.1562	84.6738	35.1562	84.4256	35.1562	85.0237	35.1562	84.7195	35.1562	85.3971	35.1562	85.0562	35.1562	85.7804	35.1562	85.4273	35.1562	86.1584	35.1562	85.8177	35.1562	86.5145	35.1562	86.2074	35.1562	86.8314	35.1562	86.5738	35.1562	87.0924	35.1562	86.8942	35.1562	87.282	35.1562	87.1484	35.1562	87.3879	35.1562	87.3208	35.1562	87.4018
36.6211	85.2539	36.6211	85.265	36.6211	85.2744	36.6211	85.3106	36.6211	85.3239	36.6211	85.3942	36.6211	85.4011	36.6211	85.5187	36.6211	85.5061	36.6211	85.6862	36.6211	85.6403	36.6211	85.897	36.6211	85.8061	36.6211	86.1494	36.6211	86.0067	36.6211	86.4391	36.6211	86.2444	36.6211	86.7592	36.6211	86.5198	36.6211	87.1005	36.6211	86.8303	36.6211	87.4512	36.6211	87.1684	36.6211	87.7979	36.6211	87.5216	36.6211	88.1253	36.6211	87.8733	36.6211	88.4177	36.6211	88.204	36.6211	88.6594	36.6211	88.4934	36.6211	88.836	36.6211	88.7232	36.6211	88.9357	36.6211	88.8788	36.6211	88.9508
38.0859	86.8533	38.0859	86.8586	38.0859	86.8789	38.0859	86.8972	38.0859	86.9332	38.0859	86.9717	38.0859	87.0147	38.0859	87.0843	38.0859	87.1227	38.0859	87.2361	38.0859	87.2574	38.0859	87.4272	38.0859	87.4199	38.0859	87.6557	38.0859	87.6119	38.0859	87.918	38.0859	87.8346	38.0859	88.208	38.0859	88.088	38.0859	88.5177	38.0859	88.3694	38.0859	88.8369	38.0859	88.6727	38.0859	89.1535	38.0859	88.9874	38.0859	89.454	38.0859	89.2993	38.0859	89.7241	38.0859	89.5915	38.0859	89.9495	38.0859	89.846	38.0859	90.1167	38.0859	90.0464	38.0859	90.2149	38.0859	90.1795	38.0859	90.2366
39.5508	88.3358	39.5508	88.3433	39.5508	88.3567	39.5508	88.3808	39.5508	88.4046	39.5508	88.4497	39.5508	88.4785	39.5508	88.5513	39.5508	88.5778	39.5508	88.6861	39.5508	88.7026	39.5508	88.854	39.5508	88.8535	39.5508	89.0537	39.5508	89.0314	39.5508	89.2825	39.5508	89.2368	39.5508	89.536	39.5508	89.4693	39.5508	89.8081	39.5508	89.726	39.5508	90.0908	39.5508	90.0015	39.5508	90.374	39.5508	90.2864	39.5508	90.6461	39.5508	90.5678	39.5508	90.894	39.5508	90.8303	39.5508	91.1044	39.5508	91.0576	39.5508	91.2643	39.5508	91.2342	39.5508	91.3626	39.5508	91.3481	39.5508	91.3916
41.0156	89.4495	41.0156	89.4452	41.0156	89.4813	41.0156	89.4693	41.0156	89.5392	41.0156	89.5228	41.0156	89.6219	41.0156	89.6061	41.0156	89.7279	41.0156	89.7192	41.0156	89.856	41.0156	89.8618	41.0156	90.005	41.0156	90.0325	41.0156	90.1736	41.0156	90.229	41.0156	90.3607	41.0156	90.4477	41.0156	90.5644	41.0156	90.6834	41.0156	90.7817	41.0156	90.9291	41.0156	91.0082	41.0156	91.1762	41.0156	91.2371	41.0156	91.4144	41.0156	91.4594	41.0156	91.6324	41.0156	91.6642	41.0156	91.8184	41.0156	91.8397	41.0156	91.9614	41.0156	91.9744	41.0156	92.0523	41.0156	92.0585	41.0156	92.0853
42.4805	90.404	42.4805	90.395	42.4805	90.4376	42.4805	90.4118	42.4805	90.4945	42.4805	90.4554	42.4805	90.5735	42.4805	90.5266	42.4805	90.6735	42.4805	90.6259	42.4805	90.7936	42.4805	90.7531	42.4805	90.933	42.4805	90.9076	42.4805	91.091	42.4805	91.0876	42.4805	91.2668	42.4805	91.2903	42.4805	91.459	42.4805	91.5112	42.4805	91.665	42.4805	91.7443	42.4805	91.8806	42.4805	91.9816	42.4805	92.0994	42.4805	92.2137	42.4805	92.3126	42.4805	92.4292	42.4805	92.5091	42.4805	92.6162	42.4805	92.677	42.4805	92.7631	42.4805	92.8042	42.4805	92.8601	42.4805	92.8808	42.4805	92.9002
43.9453	91.2459	43.9453	91.2365	43.9453	91.2797	43.9453	91.2522	43.9453	91.3369	43.9453	91.2935	43.9453	91.4165	43.9453	91.3608	43.9453	91.5173	43.9453	91.454	43.9453	91.6382	43.9453	91.5728	43.9453	91.7777	43.9453	91.7161	43.9453	91.9345	43.9453	91.8824	43.9453	92.1067	43.9453	92.0692	43.9453	92.2923	43.9453	92.2729	43.9453	92.4883	43.9453	92.4884	43.9453	92.6904	43.9453	92.7091	43.9453	92.8929	43.9453	92.9264	43.9453	93.0879	43.9453	93.1303	43.9453	93.2656	43.9453	93.3096	43.9453	93.4153	43.9453	93.4534	43.9453	93.526	43.9453	93.5518	43.9453	93.5889	43.9453	93.598
45.4102	91.961	45.4102	91.9508	45.4102	91.9944	45.4102	91.9642	45.4102	92.0505	45.4102	92.0014	45.4102	92.1283	45.4102	92.062	45.4102	92.2265	45.4102	92.1457	45.4102	92.3435	45.4102	92.2518	45.4102	92.4776	45.4102	92.3794	45.4102	92.6267	45.4102	92.5273	45.4102	92.7885	45.4102	92.6935	45.4102	92.9605	45.4102	92.8751	45.4102	93.1394	45.4102	93.0681	45.4102	93.3212	45.4102	93.2668	45.4102	93.5008	45.4102	93.4638	45.4102	93.6715	45.4102	93.6501	45.4102	93.8252	45.4102	93.8157	45.4102	93.9525	45.4102	93.9503	45.4102	94.0444	45.4102	94.0452	45.4102	94.0931	45.4102	94.0938
46.875	92.5306	46.875	92.5221	46.875	92.5616	46.875	92.5359	46.875	92.6149	46.875	92.5713	46.875	92.6897	46.875	92.6276	46.875	92.7845	46.875	92.7038	46.875	92.8975	46.875	92.7991	46.875	93.026	46.875	92.9127	46.875	93.1674	46.875	93.0434	46.875	93.3187	46.875	93.19	46.875	93.4766	46.875	93.3501	46.875	93.6378	46.875	93.5204	46.875	93.7986	46.875	93.6963	46.875	93.9546	46.875	93.8712	46.875	94.1005	46.875	94.0374	46.875	94.2299	46.875	94.186	46.875	94.3355	46.875	94.3079	46.875	94.41	46.875	94.3953	46.875	94.447	46.875	94.4425
48.3398	92.9336	48.3398	92.9162	48.3398	92.9717	48.3398	92.9196	48.3398	93.0298	48.3398	92.9436	48.3398	93.1071	48.3398	92.9878	48.3398	93.2018	48.3398	93.0515	48.3398	93.3119	48.3398	93.134	48.3398	93.4349	48.3398	93.2347	48.3398	93.5681	48.3398	93.3525	48.3398	93.7083	48.3398	93.486	48.3398	93.8526	48.3398	93.6331	48.3398	93.9976	48.3398	93.7906	48.3398	94.1402	48.3398	93.9542	48.3398	94.2765	48.3398	94.118	48.3398	94.4021	48.3398	94.2747	48.3398	94.5116	48.3398	94.416	48.3398	94.5991	48.3398	94.5337	48.3398	94.6581	48.3398	94.6204	48.3398	94.6834	48.3398	94.6711
51.2695	93.2152	51.2695	93.1883	51.2695	93.2623	51.2695	93.1817	51.2695	93.3287	51.2695	93.1956	51.2695	93.4131	51.2695	93.2296	51.2695	93.5136	51.2695	93.2829	51.2695	93.6278	51.2695	93.3548	51.2695	93.7529	51.2695	93.4442	51.2695	93.8857	51.2695	93.5498	51.2695	94.0226	51.2695	93.67	51.2695	94.1601	51.2695	93.8028	51.2695	94.2946	51.2695	93.9456	51.2695	94.4224	51.2695	94.0947	51.2695	94.5401	51.2695	94.2455	51.2695	94.6437	51.2695	94.3921	51.2695	94.729	51.2695	94.5278	51.2695	94.7915	51.2695	94.6454	51.2695	94.8265	51.2695	94.7381	51.2695	94.8303	51.2695	94.8007
52.7344	93.244	52.7344	93.2173	52.7344	93.291	52.7344	93.211	52.7344	93.3577	52.7344	93.2246	52.7344	93.4429	52.7344	93.2573	52.7344	93.5449	52.7344	93.3081	52.7344	93.6611	52.7344	93.3757	52.7344	93.7884	52.7344	93.4587	52.7344	93.9234	52.7344	93.5559	52.7344	94.062	52.7344	93.6657	52.7344	94.2001	52.7344	93.7868	52.7344	94.3335	52.7344	93.9171	52.7344	94.4579	52.7344	94.0542	52.7344	94.5696	52.7344	94.1947	52.7344	94.6644	52.7344	94.3338	52.7344	94.7384	52.7344	94.4659	52.7344	94.7874	52.7344	94.5844	52.7344	94.8079	52.7344	94.6828	52.7344	94.7973	52.7344	94.7551
54.1992	93.2551	54.1992	93.2317	54.1992	93.2972	54.1992	93.2263	54.1992	93.3579	54.1992	93.238	54.1992	93.4366	54.1992	93.2657	54.1992	93.532	54.1992	93.308	54.1992	93.6419	54.1992	93.3635	54.1992	93.763	54.1992	93.4309	54.1992	93.8915	54.1992	93.5091	54.1992	94.0229	54.1992	93.5974	54.1992	94.1524	54.1992	93.695	54.1992	94.2749	54.1992	93.801	54.1992	94.3861	54.1992	93.9143	54.1992	94.4817	54.1992	94.0328	54.1992	94.5579	54.1992	94.1534	54.1992	94.6114	54.1992	94.2718	54.1992	94.6394	54.1992	94.3826	54.1992	94.6399	54.1992	94.4799	54.1992	94.6124	54.1992	94.5581
55.6641	93.3367	55.6641	93.3122	55.6641	93.3759	55.6641	93.3017	55.6641	93.4301	55.6641	93.3043	55.6641	93.499	55.6641	93.3189	55.6641	93.5817	55.6641	93.3445	55.6641	93.6763	55.6641	93.3798	55.6641	93.78	55.6641	93.424	55.6641	93.8888	55.6641	93.4767	55.6641	93.9984	55.6641	93.5374	55.6641	94.1038	55.6641	93.6063	55.6641	94.2003	55.6641	93.6833	55.6641	94.2837	55.6641	93.7681	55.6641	94.3505	55.6641	93.8598	55.6641	94.3979	55.6641	93.9562	55.6641	94.4242	55.6641	94.0541	55.6641	94.4284	55.6641	94.1492	55.6641	94.4103	55.6641	94.2367	55.6641	94.3708	55.6641	94.3119
58.5938	93.2521	58.5938	93.2145	58.5938	93.3034	58.5938	93.1904	58.5938	93.3683	58.5938	93.1791	58.5938	93.4454	58.5938	93.1795	58.5938	93.5329	58.5938	93.1905	58.5938	93.6279	58.5938	93.2111	58.5938	93.7268	58.5938	93.2403	58.5938	93.8253	58.5938	93.2776	58.5938	93.919	58.5938	93.3227	58.5938	94.0034	58.5938	93.3755	58.5938	94.0746	58.5938	93.4362	58.5938	94.1294	58.5938	93.5047	58.5938	94.1658	58.5938	93.5806	58.5938	94.1828	58.5938	93.6628	58.5938	94.1804	58.5938	93.749	58.5938	94.1593	58.5938	93.8362	58.5938	94.1206	58.5938	93.9207	58.5938	94.0663	58.5938	93.9986
60.0586	93.2296	60.0586	93.1896	60.0586	93.2827	60.0586	93.1623	60.0586	93.3484	60.0586	93.1469	60.0586	93.426	60.0586	93.1426	60.0586	93.5136	60.0586	93.1482	60.0586	93.6085	60.0586	93.1627	60.0586	93.7072	60.0586	93.185	60.0586	93.8053	60.0586	93.2148	60.0586	93.8982	60.0586	93.2517	60.0586	93.9812	60.0586	93.296	60.0586	94.0502	60.0586	93.3483	60.0586	94.1017	60.0586	93.4092	60.0586	94.1337	60.0586	93.4793	60.0586	94.145	60.0586	93.5582	60.0586	94.1355	60.0586	93.6445	60.0586	94.1058	60.0586	93.7354	60.0586	94.0574	60.0586	93.8269	60.0586	93.9925	60.0586	93.9142
62.9883	93.1325	62.9883	93.094	62.9883	93.1844	62.9883	93.0684	62.9883	93.2494	62.9883	93.0546	62.9883	93.3266	62.9883	93.0513	62.9883	93.4137	62.9883	93.0569	62.9883	93.5077	62.9883	93.0699	62.9883	93.6044	62.9883	93.0892	62.9883	93.699	62.9883	93.114	62.9883	93.7862	62.9883	93.144	62.9883	93.8611	62.9883	93.1794	62.9883	93.9194	62.9883	93.221	62.9883	93.958	62.9883	93.2698	62.9883	93.9754	62.9883	93.3265	62.9883	93.9714	62.9883	93.3915	62.9883	93.9474	62.9883	93.464	62.9883	93.9056	62.9883	93.5423	62.9883	93.8489	62.9883	93.6236	62.9883	93.7806	62.9883	93.7043
64.4531	93.156	64.4531	93.1128	64.4531	93.2128	64.4531	93.083	64.4531	93.283	64.4531	93.0655	64.4531	93.3653	64.4531	93.059	64.4531	93.4574	64.4531	93.062	64.4531	93.5558	64.4531	93.0729	64.4531	93.6561	64.4531	93.0905	64.4531	93.7531	64.4531	93.114	64.4531	93.8413	64.4531	93.1429	64.4531	93.9157	64.4531	93.1773	64.4531	93.9718	64.4531	93.218	64.4531	94.0066	64.4531	93.2659	64.4531	94.0186	64.4531	93.3219	64.4531	94.008	64.4531	93.3865	64.4531	93.9766	64.4531	93.4593	64.4531	93.9271	64.4531	93.5388	64.4531	93.8631	64.4531	93.6224	64.4531	93.7884	64.4531	93.7069
67.3828	92.9625	67.3828	92.9048	67.3828	93.0351	67.3828	92.8622	67.3828	93.1214	67.3828	92.8342	67.3828	93.2193	67.3828	92.8197	67.3828	93.3257	67.3828	92.8172	67.3828	93.4366	67.3828	92.825	67.3828	93.5473	67.3828	92.8416	67.3828	93.6525	67.3828	92.8658	67.3828	93.747	67.3828	92.897	67.3828	93.8256	67.3828	92.9349	67.3828	93.8838	67.3828	92.9801	67.3828	93.9183	67.3828	93.0335	67.3828	93.9272	67.3828	93.0959	67.3828	93.9103	67.3828	93.1682	67.3828	93.8691	67.3828	93.2503	67.3828	93.8068	67.3828	93.3412	67.3828	93.7275	67.3828	93.4383	67.3828	93.6363	67.3828	93.5382
68.8477	92.8907	68.8477	92.832	68.8477	92.9654	68.8477	92.7896	68.8477	93.0548	68.8477	92.7632	68.8477	93.1566	68.8477	92.7515	68.8477	93.2677	68.8477	92.753	68.8477	93.3843	68.8477	92.7659	68.8477	93.5016	68.8477	92.7884	68.8477	93.6144	68.8477	92.8191	68.8477	93.7173	68.8477	92.8569	68.8477	93.805	68.8477	92.9016	68.8477	93.8725	68.8477	92.9534	68.8477	93.9159	68.8477	93.0131	68.8477	93.9327	68.8477	93.0817	68.8477	93.922	68.8477	93.16	68.8477	93.8852	68.8477	93.248	68.8477	93.8251	68.8477	93.3446	68.8477	93.746	68.8477	93.447	68.8477	93.6529	68.8477	93.5515
71.7773	92.9937	71.7773	92.9387	71.7773	93.063	71.7773	92.898	71.7773	93.1458	71.7773	92.8711	71.7773	93.2402	71.7773	92.8566	71.7773	93.3435	71.7773	92.8529	71.7773	93.4524	71.7773	92.8584	71.7773	93.5624	71.7773	92.8716	71.7773	93.6689	71.7773	92.8915	71.7773	93.7664	71.7773	92.9175	71.7773	93.8497	71.7773	92.9499	71.7773	93.9134	71.7773	92.9896	71.7773	93.9534	71.7773	93.0381	71.7773	93.9665	71.7773	93.0969	71.7773	93.9516	71.7773	93.1676	71.7773	93.9098	71.7773	93.2505	71.7773	93.8441	71.7773	93.3447	71.7773	93.759	71.7773	93.4474	71.7773	93.6604	71.7773	93.5545
74.707	93.1446	74.707	93.0852	74.707	93.2164	74.707	93.0385	74.707	93.2993	74.707	93.0043	74.707	93.3911	74.707	92.9814	74.707	93.489	74.707	92.9685	74.707	93.5895	74.707	92.9638	74.707	93.6881	74.707	92.9656	74.707	93.7802	74.707	92.9726	74.707	93.8606	74.707	92.984	74.707	93.9243	74.707	92.9998	74.707	93.9662	74.707	93.0208	74.707	93.9827	74.707	93.0488	74.707	93.9714	74.707	93.086	74.707	93.9322	74.707	93.1348	74.707	93.8674	74.707	93.1972	74.707	93.7817	74.707	93.2741	74.707	93.6813	74.707	93.3646	74.707	93.5737	74.707	93.466
77.6367	93.169	77.6367	93.1001	77.6367	93.249	77.6367	93.0438	77.6367	93.3383	77.6367	93.0003	77.6367	93.4338	77.6367	92.969	77.6367	93.5325	77.6367	92.9487	77.6367	93.6305	77.6367	92.9375	77.6367	93.7238	77.6367	92.9334	77.6367	93.8083	77.6367	92.9349	77.6367	93.8793	77.6367	92.9407	77.6367	93.9324	77.6367	92.9505	77.6367	93.9632	77.6367	92.9652	77.6367	93.9684	77.6367	92.9866	77.6367	93.9459	77.6367	93.0173	77.6367	93.8958	77.6367	93.0603	77.6367	93.8206	77.6367	93.1184	77.6367	93.7252	77.6367	93.1931	77.6367	93.6162	77.6367	93.284	77.6367	93.5014	77.6367	93.3884
79.1016	93.2551	79.1016	93.1827	79.1016	93.3371	79.1016	93.1213	79.1016	93.4264	79.1016	93.0714	79.1016	93.52	79.1016	93.0325	79.1016	93.6146	79.1016	93.0034	79.1016	93.7066	79.1016	92.9823	79.1016	93.7918	79.1016	92.9674	79.1016	93.8663	79.1016	92.9571	79.1016	93.9258	79.1016	92.9504	79.1016	93.966	79.1016	92.9475	79.1016	93.983	79.1016	92.9495	79.1016	93.9737	79.1016	92.9585	79.1016	93.9368	79.1016	92.9778	79.1016	93.8728	79.1016	93.011	79.1016	93.7847	79.1016	93.061	79.1016	93.678	79.1016	93.1301	79.1016	93.5601	79.1016	93.2181	79.1016	93.439	79.1016	93.3227
82.0312	93.3047	82.0312	93.2294	82.0312	93.3866	82.0312	93.1621	82.0312	93.4727	82.0312	93.1034	82.0312	93.56	82.0312	93.0528	82.0312	93.6452	82.0312	93.0092	82.0312	93.7245	82.0312	92.9708	82.0312	93.7942	82.0312	92.9359	82.0312	93.8503	82.0312	92.9033	82.0312	93.889	82.0312	92.8725	82.0312	93.9062	82.0312	92.8439	82.0312	93.8984	82.0312	92.8193	82.0312	93.863	82.0312	92.8018	82.0312	93.7988	82.0312	92.7955	82.0312	93.7075	82.0312	92.805	82.0312	93.5933	82.0312	92.8348	82.0312	93.4631	82.0312	92.8884	82.0312	93.326	82.0312	92.9672	82.0312	93.1918	82.0312	93.0699
84.9609	93.4076	84.9609	93.3458	84.9609	93.4746	84.9609	93.289	84.9609	93.5472	84.9609	93.2363	84.9609	93.6249	84.9609	93.187	84.9609	93.707	84.9609	93.1399	84.9609	93.7916	84.9609	93.094	84.9609	93.8757	84.9609	93.0484	84.9609	93.9548	84.9609	93.0027	84.9609	94.0227	84.9609	92.9572	84.9609	94.072	84.9609	92.9133	84.9609	94.0947	84.9609	92.8736	84.9609	94.0833	84.9609	92.8424	84.9609	94.0326	84.9609	92.825	84.9609	93.9411	84.9609	92.828	84.9609	93.8121	84.9609	92.8579	84.9609	93.6544	84.9609	92.9203	84.9609	93.4811	84.9609	93.0179	84.9609	93.3077	84.9609	93.1493
87.8906	93.5759	87.8906	93.5181	87.8906	93.6365	87.8906	93.4629	87.8906	93.6996	87.8906	93.4098	87.8906	93.7647	87.8906	93.3578	87.8906	93.8311	87.8906	93.3056	87.8906	93.8978	87.8906	93.252	87.8906	93.9631	87.8906	93.196	87.8906	94.0244	87.8906	93.1373	87.8906	94.0778	87.8906	93.0766	87.8906	94.1181	87.8906	93.0162	87.8906	94.1388	87.8906	92.96	87.8906	94.1332	87.8906	92.9142	87.8906	94.0954	87.8906	92.8865	87.8906	94.0214	87.8906	92.8856	87.8906	93.911	87.8906	92.9196	87.8906	93.7681	87.8906	92.9936	87.8906	93.6019	87.8906	93.1078	87.8906	93.4258	87.8906	93.2559
90.8203	93.6731	90.8203	93.6052	90.8203	93.7454	90.8203	93.5426	90.8203	93.8211	90.8203	93.4855	90.8203	93.8986	90.8203	93.4338	90.8203	93.9764	90.8203	93.3867	90.8203	94.0526	90.8203	93.3429	90.8203	94.1249	90.8203	93.3014	90.8203	94.1902	90.8203	93.2613	90.8203	94.2447	90.8203	93.2224	90.8203	94.2832	90.8203	93.1857	90.8203	94.3	90.8203	93.1534	90.8203	94.2893	90.8203	93.1296	90.8203	94.2464	90.8203	93.1196	90.8203	94.169	90.8203	93.1298	90.8203	94.0587	90.8203	93.1661	90.8203	93.9214	90.8203	93.2333	90.8203	93.7672	90.8203	93.3323	90.8203	93.609	90.8203	93.4602
95.2148	94.0001	95.2148	93.9102	95.2148	94.0884	95.2148	93.8207	95.2148	94.1726	95.2148	93.7335	95.2148	94.2506	95.2148	93.6495	95.2148	94.3205	95.2148	93.5692	95.2148	94.3805	95.2148	93.4919	95.2148	94.4288	95.2148	93.4173	95.2148	94.463	95.2148	93.3448	95.2148	94.4806	95.2148	93.2748	95.2148	94.4783	95.2148	93.2088	95.2148	94.4522	95.2148	93.1495	95.2148	94.3986	95.2148	93.1016	95.2148	94.3149	95.2148	93.071	95.2148	94.2003	95.2148	93.0645	95.2148	94.0573	95.2148	93.0891	95.2148	93.8925	95.2148	93.1497	95.2148	93.7162	95.2148	93.2481	95.2148	93.5412	95.2148	93.3813
98.1445	94.0048	98.1445	93.917	98.1445	94.0926	98.1445	93.831	98.1445	94.1782	98.1445	93.7486	98.1445	94.2595	98.1445	93.6708	98.1445	94.3346	98.1445	93.5982	98.1445	94.4018	98.1445	93.5306	98.1445	94.459	98.1445	93.4681	98.1445	94.5042	98.1445	93.4104	98.1445	94.5348	98.1445	93.3581	98.1445	94.5476	98.1445	93.3125	98.1445	94.5387	98.1445	93.2758	98.1445	94.5043	98.1445	93.2518	98.1445	94.4414	98.1445	93.245	98.1445	94.3489	98.1445	93.2608	98.1445	94.2284	98.1445	93.3041	98.1445	94.0851	98.1445	93.3782	98.1445	93.9277	98.1445	93.4832	98.1445	93.7672	98.1445	93.6154
101.074	93.9594	101.074	93.8619	101.074	94.0551	101.074	93.7651	101.074	94.1466	101.074	93.6711	101.074	94.2315	101.074	93.5813	101.074	94.3075	101.074	93.4968	101.074	94.3726	101.074	93.4187	101.074	94.4253	101.074	93.3475	101.074	94.464	101.074	93.2844	101.074	94.487	101.074	93.2308	101.074	94.4925	101.074	93.1887	101.074	94.4779	101.074	93.1608	101.074	94.4408	101.074	93.1504	101.074	94.3791	101.074	93.1612	101.074	94.2918	101.074	93.1964	101.074	94.1801	101.074	93.2587	101.074	94.0477	101.074	93.3484	101.074	93.9009	101.074	93.4637	101.074	93.7484	101.074	93.5995
105.469	94.0578	105.469	93.9583	105.469	94.1518	105.469	93.8565	105.469	94.2372	105.469	93.7555	105.469	94.3117	105.469	93.658	105.469	94.3733	105.469	93.5657	105.469	94.4208	105.469	93.4797	105.469	94.4536	105.469	93.4006	105.469	94.4707	105.469	93.3286	105.469	94.4712	105.469	93.2644	105.469	94.4534	105.469	93.2094	105.469	94.4152	105.469	93.1658	105.469	94.3545	105.469	93.137	105.469	94.2702	105.469	93.1272	105.469	94.1629	105.469	93.1403	105.469	94.0355	105.469	93.1798	105.469	93.8937	105.469	93.2473	105.469	93.7448	105.469	93.3421	105.469	93.5977	105.469	93.4608
108.398	94.3351	108.398	94.2421	108.398	94.4172	108.398	94.1407	108.398	94.4866	108.398	94.0337	108.398	94.5423	108.398	93.9237	108.398	94.5836	108.398	93.8132	108.398	94.6107	108.398	93.7046	108.398	94.624	108.398	93.5996	108.398	94.6236	108.398	93.5	108.398	94.6091	108.398	93.4079	108.398	94.5793	108.398	93.3257	108.398	94.5317	108.398	93.2567	108.398	94.4636	108.398	93.2049	108.398	94.3727	108.398	93.1753	108.398	94.258	108.398	93.173	108.398	94.1214	108.398	93.2026	108.398	93.9678	108.398	93.2667	108.398	93.8049	108.398	93.3648	108.398	93.6429	108.398	93.4928
112.793	94.5306	112.793	94.4364	112.793	94.6105	112.793	94.3294	112.793	94.675	112.793	94.2113	112.793	94.7237	112.793	94.0842	112.793	94.7561	112.793	93.9503	112.793	94.7721	112.793	93.8119	112.793	94.7716	112.793	93.6716	112.793	94.7539	112.793	93.5328	112.793	94.7182	112.793	93.3992	112.793	94.6631	112.793	93.2761	112.793	94.587	112.793	93.1694	112.793	94.4882	112.793	93.0859	112.793	94.3661	112.793	93.0326	112.793	94.2217	112.793	93.016	112.793	94.0581	112.793	93.0403	112.793	93.881	112.793	93.107	112.793	93.698	112.793	93.2136	112.793	93.5188	112.793	93.3539
117.188	94.4523	117.188	94.3798	117.188	94.5113	117.188	94.2948	117.188	94.5565	117.188	94.1986	117.188	94.5877	117.188	94.0929	117.188	94.6053	117.188	93.9796	117.188	94.6098	117.188	93.8608	117.188	94.6021	117.188	93.7389	117.188	94.5828	117.188	93.6172	117.188	94.552	117.188	93.4998	117.188	94.509	117.188	93.3917	117.188	94.4523	117.188	93.2988	117.188	94.3796	117.188	93.2278	117.188	94.2891	117.188	93.1849	117.188	94.1802	117.188	93.1751	117.188	94.0539	117.188	93.2013	117.188	93.914	117.188	93.2635	117.188	93.7662	117.188	93.3582	117.188	93.6183	117.188	93.4792
120.117	94.5216	120.117	94.4348	120.117	94.5979	120.117	94.3394	120.117	94.6617	120.117	94.237	120.117	94.7111	120.117	94.1288	120.117	94.7445	120.117	94.016	120.117	94.7606	120.117	93.8996	120.117	94.7587	120.117	93.7808	120.117	94.7383	120.117	93.6617	120.117	94.6987	120.117	93.5457	120.117	94.6393	120.117	93.4375	120.117	94.5593	120.117	93.3433	120.117	94.4585	120.117	93.2698	120.117	94.3381	120.117	93.2232	120.117	94.2009	120.117	93.2084	120.117	94.0522	120.117	93.2275	120.117	93.8981	120.117	93.2802	120.117	93.7457	120.117	93.3633	120.117	93.6017	120.117	93.4723
124.512	94.6652	124.512	94.5705	124.512	94.7492	124.512	94.4676	124.512	94.8203	124.512	94.3585	124.512	94.8762	124.512	94.2444	124.512	94.9152	124.512	94.1259	124.512	94.936	124.512	94.0027	124.512	94.9374	124.512	93.8748	124.512	94.9178	124.512	93.7424	124.512	94.8755	124.512	93.6075	124.512	94.808	124.512	93.474	124.512	94.7131	124.512	93.3481	124.512	94.5891	124.512	93.2379	124.512	94.4365	124.512	93.1524	124.512	94.2589	124.512	93.1004	124.512	94.0635	124.512	93.089	124.512	93.8602	124.512	93.1223	124.512	93.6609	124.512	93.2007	124.512	93.4775	124.512	93.3212
128.906	94.4644	128.906	94.3717	128.906	94.5493	128.906	94.2735	128.906	94.6243	128.906	94.1724	128.906	94.6875	128.906	94.0701	128.906	94.7377	128.906	93.9679	128.906	94.774	128.906	93.8661	128.906	94.7956	128.906	93.7645	128.906	94.8013	128.906	93.6629	128.906	94.7889	128.906	93.5621	128.906	94.7553	128.906	93.4643	128.906	94.6964	128.906	93.3735	128.906	94.6085	128.906	93.2957	128.906	94.4897	128.906	93.2382	128.906	94.3415	128.906	93.2087	128.906	94.1697	128.906	93.2139	128.906	93.9839	128.906	93.2582	128.906	93.7962	128.906	93.3428	128.906	93.6195	128.906	93.4652
133.301	94.5229	133.301	94.4027	133.301	94.6338	133.301	94.2777	133.301	94.7314	133.301	94.1521	133.301	94.8122	133.301	94.0295	133.301	94.874	133.301	93.9123	133.301	94.9156	133.301	93.8022	133.301	94.9367	133.301	93.6996	133.301	94.9375	133.301	93.605	133.301	94.918	133.301	93.5191	133.301	94.8772	133.301	93.4434	133.301	94.8128	133.301	93.3809	133.301	94.7225	133.301	93.3355	133.301	94.6049	133.301	93.3119	133.301	94.4617	133.301	93.3143	133.301	94.2978	133.301	93.3463	133.301	94.1221	133.301	93.4096	133.301	93.945	133.301	93.5042	133.301	93.7774	133.301	93.6282
139.16	94.6684	139.16	94.5404	139.16	94.7816	139.16	94.4028	139.16	94.8758	139.16	94.2604	139.16	94.9477	139.16	94.1176	139.16	94.9959	139.16	93.9778	139.16	95.0204	139.16	93.843	139.16	95.0227	139.16	93.7149	139.16	95.0043	139.16	93.5945	139.16	94.9665	139.16	93.4835	139.16	94.9089	139.16	93.3848	139.16	94.8297	139.16	93.3023	139.16	94.7262	139.16	93.2411	139.16	94.5966	139.16	93.2067	139.16	94.4418	139.16	93.2038	139.16	94.2662	139.16	93.2359	139.16	94.078	139.16	93.3042	139.16	93.8877	139.16	93.4079	139.16	93.7063	139.16	93.5437
143.555	94.7664	143.555	94.6359	143.555	94.8781	143.555	94.4918	143.555	94.9673	143.555	94.3395	143.555	95.0316	143.555	94.1842	143.555	95.0709	143.555	94.0299	143.555	95.0866	143.555	93.8799	143.555	95.0815	143.555	93.7363	143.555	95.0582	143.555	93.6013	143.555	95.0185	143.555	93.4772	143.555	94.9618	143.555	93.3672	143.555	94.8855	143.555	93.2758	143.555	94.7852	143.555	93.2084	143.555	94.6573	143.555	93.1704	143.555	94.5008	143.555	93.167	143.555	94.319	143.555	93.2016	143.555	94.1198	143.555	93.276	143.555	93.9148	143.555	93.3895	143.555	93.717	143.555	93.5387
147.949	94.8957	147.949	94.7684	147.949	94.9994	147.949	94.6213	147.949	95.0769	147.949	94.4592	147.949	95.1272	147.949	94.287	147.949	95.1509	147.949	94.1096	147.949	95.1501	147.949	93.9314	147.949	95.1279	147.949	93.7566	147.949	95.0876	147.949	93.5892	147.949	95.0316	147.949	93.4337	147.949	94.9602	147.949	93.295	147.949	94.8714	147.949	93.1789	147.949	94.7617	147.949	93.092	147.949	94.627	147.949	93.0407	147.949	94.4652	147.949	93.0308	147.949	94.2779	147.949	93.0664	147.949	94.0709	147.949	93.1492	147.949	93.8542	147.949	93.277	147.949	93.6407	147.949	93.4441
153.809	94.6438	153.809	94.5282	153.809	94.7292	153.809	94.3863	153.809	94.7824	153.809	94.2235	153.809	94.804	153.809	94.0457	153.809	94.7973	153.809	93.8593	153.809	94.7679	153.809	93.6706	153.809	94.7227	153.809	93.4869	153.809	94.6687	153.809	93.3161	153.809	94.6111	153.809	93.1668	153.809	94.552	153.809	93.0479	153.809	94.4904	153.809	92.9673	153.809	94.4225	153.809	92.9305	153.809	94.3437	153.809	92.9397	153.809	94.2499	153.809	92.9936	153.809	94.1384	153.809	93.0878	153.809	94.0083	153.809	93.2153	153.809	93.8607	153.809	93.3668	153.809	93.6995	153.809	93.5317
159.668	94.7871	159.668	94.668	159.668	94.888	159.668	94.5352	159.668	94.9673	159.668	94.3935	159.668	95.0233	159.668	94.2471	159.668	95.0561	159.668	94.0987	159.668	95.0679	159.668	93.9494	159.668	95.0623	159.668	93.7993	159.668	95.0432	159.668	93.6489	159.668	95.0137	159.668	93.5006	159.668	94.9741	159.668	93.3606	159.668	94.9211	159.668	93.2389	159.668	94.8488	159.668	93.1487	159.668	94.7504	159.668	93.1032	159.668	94.6213	159.668	93.1122	159.668	94.4614	159.668	93.1786	159.668	94.2752	159.668	93.2978	159.668	94.0708	159.668	93.4596	159.668	93.8589	159.668	93.651
165.527	94.8029	165.527	94.6442	165.527	94.9321	165.527	94.4664	165.527	95.024	165.527	94.2812	165.527	95.0738	165.527	94.1	165.527	95.0808	165.527	93.9325	165.527	95.048	165.527	93.7852	165.527	94.9821	165.527	93.661	165.527	94.8925	165.527	93.559	165.527	94.7896	165.527	93.4767	165.527	94.683	165.527	93.4113	165.527	94.5796	165.527	93.3615	165.527	94.4825	165.527	93.329	165.527	94.3907	165.527	93.3181	165.527	94.2998	165.527	93.3342	165.527	94.2031	165.527	93.3819	165.527	94.0947	165.527	93.4622	165.527	93.9721	165.527	93.5713	165.527	93.8379	165.527	93.7005
171.387	94.711	171.387	94.5437	171.387	94.849	171.387	94.3559	171.387	94.952	171.387	94.1579	171.387	95.0174	171.387	93.9608	171.387	95.0462	171.387	93.7744	171.387	95.0422	171.387	93.6065	171.387	95.0106	171.387	93.4617	171.387	94.9564	171.387	93.3421	171.387	94.8821	171.387	93.2484	171.387	94.7876	171.387	93.1806	171.387	94.6706	171.387	93.1398	171.387	94.5303	171.387	93.1271	171.387	94.3705	171.387	93.1429	171.387	94.2005	171.387	93.1858	171.387	94.0334	171.387	93.2514	171.387	93.8807	171.387	93.3338	171.387	93.7472	171.387	93.4264	171.387	93.6307	171.387	93.5252
177.246	94.9549	177.246	94.8204	177.246	95.0456	177.246	94.646	177.246	95.0915	177.246	94.439	177.246	95.0946	177.246	94.2097	177.246	95.0588	177.246	93.9715	177.246	94.99	177.246	93.739	177.246	94.8959	177.246	93.5269	177.246	94.7858	177.246	93.3473	177.246	94.6692	177.246	93.2078	177.246	94.5532	177.246	93.1101	177.246	94.4397	177.246	93.0509	177.246	94.3246	177.246	93.0237	177.246	94.1997	177.246	93.0216	177.246	94.0583	177.246	93.0392	177.246	93.8998	177.246	93.0737	177.246	93.7316	177.246	93.1257	177.246	93.5668	177.246	93.198	177.246	93.4184	177.246	93.2947
183.105	94.908	183.105	94.8059	183.105	94.9863	183.105	94.6815	183.105	95.0378	183.105	94.5345	183.105	95.0587	183.105	94.3628	183.105	95.046	183.105	94.1632	183.105	94.9981	183.105	93.9331	183.105	94.9162	183.105	93.6722	183.105	94.8042	183.105	93.3864	183.105	94.6677	183.105	93.0892	183.105	94.5135	183.105	92.8034	183.105	94.3479	183.105	92.5571	183.105	94.1751	183.105	92.3775	183.105	93.9966	183.105	92.2823	183.105	93.8111	183.105	92.2736	183.105	93.6163	183.105	92.3393	183.105	93.4124	183.105	92.4602	183.105	93.2035	183.105	92.6178	183.105	92.9966	183.105	92.7993
188.965	94.663	188.965	94.5424	188.965	94.7304	188.965	94.3749	188.965	94.7428	188.965	94.1702	188.965	94.7036	188.965	93.9395	188.965	94.623	188.965	93.6957	188.965	94.5171	188.965	93.4524	188.965	94.4054	188.965	93.2224	188.965	94.3065	188.965	93.0168	188.965	94.2332	188.965	92.844	188.965	94.1887	188.965	92.7096	188.965	94.1656	188.965	92.617	188.965	94.1491	188.965	92.5682	188.965	94.1209	188.965	92.5647	188.965	94.064	188.965	92.6078	188.965	93.9658	188.965	92.6974	188.965	93.8217	188.965	92.8317	188.965	93.6369	188.965	93.0055	188.965	93.4259	188.965	93.2088
196.289	94.8803	196.289	94.7404	196.289	94.9794	196.289	94.5676	196.289	95.0315	196.289	94.37	196.289	95.033	196.289	94.1553	196.289	94.9841	196.289	93.9307	196.289	94.8902	196.289	93.7029	196.289	94.7619	196.289	93.4788	196.289	94.6151	196.289	93.2668	196.289	94.4679	196.289	93.0772	196.289	94.338	196.289	92.9216	196.289	94.238	196.289	92.8121	196.289	94.1722	196.289	92.7589	196.289	94.1348	196.289	92.7682	196.289	94.1099	196.289	92.8405	196.289	94.0757	196.289	92.9699	196.289	94.0107	196.289	93.1444	196.289	93.9014	196.289	93.3465	196.289	93.7458	196.289	93.5545
203.613	95.0875	203.613	94.9677	203.613	95.1404	203.613	94.7897	203.613	95.1228	203.613	94.565	203.613	95.0371	203.613	94.3061	203.613	94.8922	203.613	94.0252	203.613	94.7021	203.613	93.7344	203.613	94.4838	203.613	93.4468	203.613	94.2536	203.613	93.178	203.613	94.0231	203.613	92.9462	203.613	93.7976	203.613	92.7707	203.613	93.5793	203.613	92.6674	203.613	93.3739	203.613	92.6429	203.613	93.1972	203.613	92.69	203.613	93.0727	203.613	92.7885	203.613	93.0185	203.613	92.9101	203.613	93.0308	203.613	93.0251	203.613	93.0812	203.613	93.1084	203.613	93.1299	203.613	93.1441
210.938	94.826	210.938	94.7545	210.938	94.839	210.938	94.6265	210.938	94.7967	210.938	94.448	210.938	94.7073	210.938	94.2278	210.938	94.5831	210.938	93.9755	210.938	94.4396	210.938	93.7013	210.938	94.2936	210.938	93.4161	210.938	94.1608	210.938	93.1324	210.938	94.0517	210.938	92.8649	210.938	93.9669	210.938	92.6305	210.938	93.8946	210.938	92.447	210.938	93.8142	210.938	92.3282	210.938	93.7058	210.938	92.2798	210.938	93.5601	210.938	92.2968	210.938	93.3834	210.938	92.3644	210.938	93.1944	210.938	92.4643	210.938	93.0133	210.938	92.5817	210.938	92.852	210.938	92.7101
218.262	94.7413	218.262	94.6343	218.262	94.8089	218.262	94.4949	218.262	94.8304	218.262	94.3294	218.262	94.8003	218.262	94.1432	218.262	94.7153	218.262	93.9399	218.262	94.5777	218.262	93.7221	218.262	94.3994	218.262	93.494	218.262	94.2028	218.262	93.2644	218.262	94.0187	218.262	93.0483	218.262	93.877	218.262	92.866	218.262	93.7943	218.262	92.7376	218.262	93.7663	218.262	92.6765	218.262	93.7693	218.262	92.6843	218.262	93.7719	218.262	92.7516	218.262	93.7484	218.262	92.8628	218.262	93.6863	218.262	93.0018	218.262	93.5865	218.262	93.1546	218.262	93.4574	218.262	93.31
225.586	95.2301	225.586	95.0679	225.586	95.3228	225.586	94.8484	225.586	95.3377	225.586	94.5867	225.586	95.2722	225.586	94.2985	225.586	95.1293	225.586	93.9977	225.586	94.9187	225.586	93.6951	225.586	94.6567	225.586	93.3987	225.586	94.3668	225.586	93.1171	225.586	94.0791	225.586	92.8633	225.586	93.8272	225.586	92.6576	225.586	93.6419	225.586	92.5245	225.586	93.541	225.586	92.4838	225.586	93.5202	225.586	92.5398	225.586	93.5528	225.586	92.677	225.586	93.6003	225.586	92.865	225.586	93.6271	225.586	93.0698	225.586	93.6108	225.586	93.2629	225.586	93.5428	225.586	93.4246
232.91	95.2458	232.91	95.099	232.91	95.325	232.91	94.8938	232.91	95.3305	232.91	94.6414	232.91	95.2598	232.91	94.3534	232.91	95.1137	232.91	94.0394	232.91	94.897	232.91	93.7071	232.91	94.6197	232.91	93.3634	232.91	94.2975	232.91	93.0185	232.91	93.9532	232.91	92.6904	232.91	93.616	232.91	92.4082	232.91	93.3199	232.91	92.2082	232.91	93.0991	232.91	92.1219	232.91	92.9768	232.91	92.1593	232.91	92.9531	232.91	92.3009	232.91	92.9998	232.91	92.5044	232.91	93.0708	232.91	92.7217	232.91	93.1209	232.91	92.9121	232.91	93.1184	232.91	93.0488
241.699	95.0995	241.699	94.9325	241.699	95.2037	241.699	94.7128	241.699	95.239	241.699	94.4543	241.699	95.2025	241.699	94.1739	241.699	95.094	241.699	93.8879	241.699	94.9166	241.699	93.6079	241.699	94.6772	241.699	93.3378	241.699	94.3872	241.699	93.0748	241.699	94.0624	241.699	92.815	241.699	93.7221	241.699	92.562	241.699	93.3895	241.699	92.3333	241.699	93.0926	241.699	92.1606	241.699	92.8614	241.699	92.0774	241.699	92.7186	241.699	92.0992	241.699	92.665	241.699	92.21	241.699	92.673	241.699	92.3677	241.699	92.6974	241.699	92.5231	241.699	92.6947	241.699	92.6381
250.488	95.3431	250.488	95.1265	250.488	95.501	250.488	94.8675	250.488	95.5847	250.488	94.5808	250.488	95.5816	250.488	94.2785	250.488	95.4843	250.488	93.9688	250.488	95.2927	250.488	93.6571	250.488	95.0166	250.488	93.3476	250.488	94.6751	250.488	93.0457	250.488	94.2953	250.488	92.7608	250.488	93.9063	250.488	92.5082	250.488	93.5335	250.488	92.3085	250.488	93.1972	250.488	92.1841	250.488	92.917	250.488	92.1503	250.488	92.7173	250.488	92.2069	250.488	92.6194	250.488	92.3328	250.488	92.6193	250.488	92.4892	250.488	92.6748	250.488	92.6295	250.488	92.7231	250.488	92.7135
259.277	95.4758	259.277	95.2811	259.277	95.5931	259.277	95.0172	259.277	95.6294	259.277	94.6967	259.277	95.5869	259.277	94.3354	259.277	95.472	259.277	93.953	259.277	95.2944	259.277	93.575	259.277	95.0659	259.277	93.2322	259.277	94.7981	259.277	92.9566	259.277	94.4998	259.277	92.7702	259.277	94.1743	259.277	92.6753	259.277	93.8202	259.277	92.6515	259.277	93.4387	259.277	92.6663	259.277	93.0468	259.277	92.6889	259.277	92.6869	259.277	92.7002	259.277	92.4199	259.277	92.6922	259.277	92.2926	259.277	92.6607	259.277	92.3016	259.277	92.6003	259.277	92.3945	259.277	92.5076
268.066	94.8371	268.066	94.699	268.066	94.9249	268.066	94.5167	268.066	94.9562	268.066	94.2939	268.066	94.9281	268.066	94.0306	268.066	94.8435	268.066	93.7246	268.066	94.7132	268.066	93.3761	268.066	94.5562	268.066	92.9954	268.066	94.3958	268.066	92.6073	268.066	94.2499	268.066	92.252	268.066	94.1198	268.066	91.9753	268.066	93.9855	268.066	91.8098	268.066	93.8123	268.066	91.7571	268.066	93.5673	268.066	91.7856	268.066	93.2384	268.066	91.8479	268.066	92.8503	268.066	91.9021	268.066	92.4663	268.066	91.9264	268.066	92.1641	268.066	91.9244	268.066	91.9892	268.066	91.9273
276.855	94.9806	276.855	94.7951	276.855	95.097	276.855	94.5673	276.855	95.1268	276.855	94.3297	276.855	95.06	276.855	94.1097	276.855	94.8926	276.855	93.9148	276.855	94.6304	276.855	93.7272	276.855	94.2961	276.855	93.5129	276.855	93.9375	276.855	93.2418	276.855	93.6253	276.855	92.9102	276.855	93.4313	276.855	92.5546	276.855	93.3896	276.855	92.2497	276.855	93.471	276.855	92.0755	276.855	93.5982	276.855	92.067	276.855	93.6884	276.855	92.1925	276.855	93.6884	276.855	92.3853	276.855	93.5877	276.855	92.5916	276.855	93.4118	276.855	92.7919	276.855	93.2024	276.855	92.9926
287.109	95.0524	287.109	94.8158	287.109	95.186	287.109	94.4917	287.109	95.2099	287.109	94.1086	287.109	95.1227	287.109	93.7074	287.109	94.926	287.109	93.3332	287.109	94.6265	287.109	93.0194	287.109	94.2405	287.109	92.7729	287.109	93.8018	287.109	92.5755	287.109	93.3677	287.109	92.4049	287.109	93.017	287.109	92.2594	287.109	92.8275	287.109	92.1681	287.109	92.8335	287.109	92.1757	287.109	92.9967	287.109	92.3072	287.109	93.2267	287.109	92.544	287.109	93.4349	287.109	92.8315	287.109	93.5705	287.109	93.1104	287.109	93.622	287.109	93.3398	287.109	93.5971	287.109	93.5028
297.363	95.9805	297.363	95.7335	297.363	96.1194	297.363	95.3851	297.363	96.1417	297.363	94.9407	297.363	96.0395	297.363	94.409	297.363	95.8083	297.363	93.8099	297.363	95.4493	297.363	93.1825	297.363	94.9715	297.363	92.5867	297.363	94.3935	297.363	92.0896	297.363	93.7483	297.363	91.7407	297.363	93.0932	297.363	91.5538	297.363	92.5249	297.363	91.5144	297.363	92.176	297.363	91.6011	297.363	92.148	297.363	91.7965	297.363	92.4099	297.363	92.0782	297.363	92.7995	297.363	92.4095	297.363	93.1419	297.363	92.744	297.363	93.3379	297.363	93.0381	297.363	93.3683	297.363	93.2569
307.617	95.7487	307.617	95.4733	307.617	95.9463	307.617	95.1373	307.617	96.0553	307.617	94.7614	307.617	96.0672	307.617	94.3627	307.617	95.9715	307.617	93.9478	307.617	95.7568	307.617	93.5136	307.617	95.4184	307.617	93.0556	307.617	94.9666	307.617	92.582	307.617	94.4319	307.617	92.1256	307.617	93.8613	307.617	91.7472	307.617	93.305	307.617	91.5183	307.617	92.8066	307.617	91.4845	307.617	92.4135	307.617	91.6352	307.617	92.1929	307.617	91.9121	307.617	92.2018	307.617	92.2429	307.617	92.4103	307.617	92.5617	307.617	92.6876	307.617	92.8094	307.617	92.8882	307.617	92.9311
319.336	95.7169	319.336	95.3362	319.336	95.9827	319.336	94.8618	319.336	96.1227	319.336	94.3268	319.336	96.1337	319.336	93.7747	319.336	96.0172	319.336	93.251	319.336	95.7783	319.336	92.7913	319.336	95.4222	319.336	92.4087	319.336	94.9526	319.336	92.0935	319.336	94.3749	319.336	91.8302	319.336	93.7112	319.336	91.6241	319.336	93.0275	319.336	91.5139	319.336	92.453	319.336	91.5509	319.336	92.1367	319.336	91.7522	319.336	92.1336	319.336	92.0733	319.336	92.3504	319.336	92.4299	319.336	92.635	319.336	92.7418	319.336	92.8767	319.336	92.9569	319.336	93.0226	319.336	93.0519
329.59	96.0195	329.59	95.728	329.59	96.1996	329.59	95.3241	329.59	96.2734	329.59	94.8156	329.59	96.246	329.59	94.223	329.59	96.1217	329.59	93.5813	329.59	95.9055	329.59	92.9389	329.59	95.6049	329.59	92.3508	329.59	95.2304	329.59	91.8646	329.59	94.7941	329.59	91.5086	329.59	94.3093	329.59	91.2924	329.59	93.7935	329.59	91.2195	329.59	93.2757	329.59	91.2942	329.59	92.8062	329.59	91.5126	329.59	92.4612	329.59	91.8456	329.59	92.3198	329.59	92.2334	329.59	92.4038	329.59	92.5962	329.59	92.6302	329.59	92.8533	329.59	92.8517	329.59	92.9437
341.309	96.7762	341.309	96.4686	341.309	96.9476	341.309	96.0381	341.309	96.9816	341.309	95.5065	341.309	96.8896	341.309	94.8987	341.309	96.6913	341.309	94.2389	341.309	96.4092	341.309	93.5497	341.309	96.0643	341.309	92.8549	341.309	95.6729	341.309	92.1878	341.309	95.2422	341.309	91.6041	341.309	94.7717	341.309	91.1903	341.309	94.2696	341.309	91.0446	341.309	93.7841	341.309	91.2196	341.309	93.4175	341.309	91.6701	341.309	93.2752	341.309	92.2719	341.309	93.3727	341.309	92.889	341.309	93.6121	341.309	93.4181	341.309	93.8579	341.309	93.7962	341.309	94.005	341.309	93.9928
353.027	96.8556	353.027	96.6494	353.027	96.9273	353.027	96.3092	353.027	96.8759	353.027	95.8473	353.027	96.7179	353.027	95.2825	353.027	96.4662	353.027	94.637	353.027	96.129	353.027	93.9368	353.027	95.7173	353.027	93.2131	353.027	95.2533	353.027	92.5039	353.027	94.7654	353.027	91.8551	353.027	94.2731	353.027	91.3283	353.027	93.7819	353.027	91.0081	353.027	93.3028	353.027	90.9819	353.027	92.8873	353.027	91.2765	353.027	92.6363	353.027	91.8115	353.027	92.6393	353.027	92.4361	353.027	92.8785	353.027	93.0006	353.027	93.2163	353.027	93.396	353.027	93.4838	353.027	93.5606
366.211	96.8556	366.211	96.6092	366.211	96.9958	366.211	96.2591	366.211	97.0288	366.211	95.8195	366.211	96.9427	366.211	95.3164	366.211	96.7112	366.211	94.7751	366.211	96.3076	366.211	94.2028	366.211	95.728	366.211	93.5818	366.211	95.0143	366.211	92.8866	366.211	94.2674	366.211	92.1255	366.211	93.6306	366.211	91.3878	366.211	93.2196	366.211	90.8529	366.211	93.0314	366.211	90.6941	366.211	92.946	366.211	90.925	366.211	92.8402	366.211	91.3903	366.211	92.6937	366.211	91.9039	366.211	92.5906	366.211	92.3366	366.211	92.6042	366.211	92.6189	366.211	92.6904	366.211	92.727
379.395	96.9268	379.395	96.7239	379.395	97.0539	379.395	96.4385	379.395	97.0998	379.395	96.0588	379.395	97.0437	379.395	95.5774	379.395	96.8572	379.395	94.9998	379.395	96.5187	379.395	94.3526	379.395	96.0213	379.395	93.6822	379.395	95.3698	379.395	93.0359	379.395	94.5693	379.395	92.4374	379.395	93.6279	379.395	91.8916	379.395	92.6041	379.395	91.43	379.395	91.7155	379.395	91.1502	379.395	91.3602	379.395	91.1735	379.395	91.725	379.395	91.5202	379.395	92.4613	379.395	92.0632	379.395	93.1157	379.395	92.6305	379.395	93.4875	379.395	93.104	379.395	93.5725	379.395	93.4289
392.578	96.3498	392.578	96.0997	392.578	96.5082	392.578	95.7906	392.578	96.5442	392.578	95.4511	392.578	96.4356	392.578	95.0951	392.578	96.1752	392.578	94.7117	392.578	95.7744	392.578	94.2652	392.578	95.2613	392.578	93.7118	392.578	94.674	392.578	93.0286	392.578	94.0511	392.578	92.2511	392.578	93.4214	392.578	91.5055	392.578	92.7866	392.578	90.993	392.578	92.1163	392.578	90.8711	392.578	91.4055	392.578	91.1241	392.578	90.8233	392.578	91.603	392.578	90.754	392.578	92.1537	392.578	91.3503	392.578	92.6613	392.578	92.2065	392.578	93.0221	392.578	92.858	392.578	93.1222
405.762	96.6935	405.762	96.448	405.762	96.7732	405.762	96.0573	405.762	96.679	405.762	95.5491	405.762	96.4237	405.762	94.9583	405.762	96.0433	405.762	94.328	405.762	95.5888	405.762	93.7006	405.762	95.1092	405.762	93.0933	405.762	94.6306	405.762	92.4787	405.762	94.1422	405.762	91.8038	405.762	93.6073	405.762	91.0559	405.762	93.0072	405.762	90.3516	405.762	92.3825	405.762	89.9755	405.762	91.8163	405.762	90.1906	405.762	91.3826	405.762	90.9171	405.762	91.1781	405.762	91.8057	405.762	91.3548	405.762	92.5474	405.762	91.9125	405.762	92.9622	405.762	92.5592	405.762	92.9633
420.41	96.3757	420.41	96.174	420.41	96.4289	420.41	95.8307	420.41	96.3528	420.41	95.3781	420.41	96.1807	420.41	94.8605	420.41	95.9389	420.41	94.3183	420.41	95.6379	420.41	93.7768	420.41	95.2812	420.41	93.2449	420.41	94.8747	420.41	92.7196	420.41	94.4134	420.41	92.1935	420.41	93.8623	420.41	91.6642	420.41	93.1774	420.41	91.1564	420.41	92.3894	420.41	90.7531	420.41	91.6883	420.41	90.5924	420.41	91.3333	420.41	90.7737	420.41	91.3633	420.41	91.2288	420.41	91.5804	420.41	91.7407	420.41	91.8326	420.41	92.0943	420.41	92.0643	420.41	92.1897
435.059	96.3733	435.059	96.1788	435.059	96.4282	435.059	95.8476	435.059	96.3633	435.059	95.4082	435.059	96.2029	435.059	94.8985	435.059	95.9591	435.059	94.3438	435.059	95.637	435.059	93.7455	435.059	95.2567	435.059	93.0944	435.059	94.8557	435.059	92.4036	435.059	94.4517	435.059	91.7396	435.059	94.0072	435.059	91.2236	435.059	93.458	435.059	90.9775	435.059	92.8015	435.059	91.0394	435.059	92.1724	435.059	91.3354	435.059	91.7889	435.059	91.7352	435.059	91.7374	435.059	92.1186	435.059	91.8978	435.059	92.402	435.059	92.1281	435.059	92.5365	435.059	92.3527	435.059	92.5097
451.172	96.5478	451.172	96.2836	451.172	96.6961	451.172	95.8925	451.172	96.7191	451.172	95.3694	451.172	96.5794	451.172	94.7334	451.172	96.2297	451.172	94.025	451.172	95.6429	451.172	93.2808	451.172	94.8352	451.172	92.5043	451.172	93.8794	451.172	91.6616	451.172	92.919	451.172	90.7136	451.172	92.1592	451.172	89.6808	451.172	91.7291	451.172	88.73	451.172	91.4773	451.172	88.2041	451.172	91.07	451.172	88.3882	451.172	90.3682	451.172	89.1734	451.172	89.7538	451.172	90.1881	451.172	89.9188	451.172	91.1135	451.172	90.778	451.172	91.7426	451.172	91.5898	451.172	91.9309
465.82	96.3524	465.82	95.9948	465.82	96.4871	465.82	95.4506	465.82	96.3838	465.82	94.7736	465.82	96.0546	465.82	94.0337	465.82	95.5427	465.82	93.3075	465.82	94.9175	465.82	92.6473	465.82	94.2553	465.82	92.0439	465.82	93.6038	465.82	91.4262	465.82	92.9495	465.82	90.7203	465.82	92.2306	465.82	89.9434	465.82	91.4285	465.82	89.292	465.82	90.7023	465.82	89.0992	465.82	90.3714	465.82	89.5272	465.82	90.5201	465.82	90.3622	465.82	90.836	465.82	91.2594	465.82	91.103	465.82	91.964	465.82	91.4261	465.82	92.32	465.82	91.8819	465.82	92.2642
483.398	96.215	483.398	95.9924	483.398	96.2529	483.398	95.6016	483.398	96.1258	483.398	95.0889	483.398	95.8692	483.398	94.5066	483.398	95.4992	483.398	93.8947	483.398	95.0023	483.398	93.2756	483.398	94.3657	483.398	92.6481	483.398	93.6194	483.398	91.9786	483.398	92.8479	483.398	91.2133	483.398	92.1589	483.398	90.3373	483.398	91.6296	483.398	89.4575	483.398	91.285	483.398	88.823	483.398	91.1182	483.398	88.6732	483.398	91.0951	483.398	89.0273	483.398	91.1481	483.398	89.6965	483.398	91.224	483.398	90.43	483.398	91.3144	483.398	91.0119	483.398	91.3861	483.398	91.325
499.512	96.2812	499.512	95.9838	499.512	96.3916	499.512	95.4887	499.512	96.3445	499.512	94.8252	499.512	96.1606	499.512	94.066	499.512	95.8431	499.512	93.3115	499.512	95.389	499.512	92.6572	499.512	94.799	499.512	92.1392	499.512	94.0671	499.512	91.6918	499.512	93.166	499.512	91.1768	499.512	92.0611	499.512	90.4925	499.512	90.7929	499.512	89.7016	499.512	89.6903	499.512	89.1066	499.512	89.4622	499.512	89.0812	499.512	90.2977	499.512	89.6572	499.512	91.4112	499.512	90.5194	499.512	92.1929	499.512	91.3662	499.512	92.5541	499.512	92.0303	499.512	92.6136	499.512	92.444
517.09	95.5979	517.09	95.3906	517.09	95.5831	517.09	94.9514	517.09	95.3895	517.09	94.318	517.09	95.0757	517.09	93.5805	517.09	94.7013	517.09	92.8749	517.09	94.3161	517.09	92.3463	517.09	93.955	517.09	92.0566	517.09	93.6315	517.09	91.8992	517.09	93.3136	517.09	91.6466	517.09	92.8827	517.09	91.0954	517.09	92.1228	517.09	90.2041	517.09	90.8	517.09	89.2367	517.09	89.0002	517.09	88.8301	517.09	88.0586	517.09	89.4607	517.09	89.3732	517.09	90.777	517.09	91.3417	517.09	92.1323	517.09	92.7536	517.09	93.1315	517.09	93.4872	517.09	93.6025
536.133	96.1633	536.133	95.7829	536.133	96.202	536.133	95.1046	536.133	95.9122	536.133	94.2081	536.133	95.3561	536.133	93.1721	536.133	94.6079	536.133	92.0566	536.133	93.7244	536.133	90.9626	536.133	92.7649	536.133	90.1374	536.133	91.851	536.133	89.839	536.133	91.2017	536.133	89.923	536.133	90.9991	536.133	89.9462	536.133	91.0884	536.133	89.6559	536.133	90.986	536.133	89.1956	536.133	90.2581	536.133	89.0646	536.133	89.018	536.133	89.6495	536.133	88.6254	536.133	90.713	536.133	89.9647	536.133	91.7673	536.133	91.5467	536.133	92.5033	536.133	92.4933	536.133	92.7762
555.176	96.0615	555.176	95.8907	555.176	96.0168	555.176	95.4513	555.176	95.8252	555.176	94.7391	555.176	95.5035	555.176	93.7886	555.176	95.0075	555.176	92.6585	555.176	94.3108	555.176	91.4429	555.176	93.4601	555.176	90.2981	555.176	92.5194	555.176	89.4146	555.176	91.4742	555.176	88.8865	555.176	90.2877	555.176	88.6297	555.176	89.2123	555.176	88.4891	555.176	88.8794	555.176	88.3743	555.176	89.2339	555.176	88.307	555.176	89.3617	555.176	88.4276	555.176	88.9005	555.176	88.9074	555.176	88.6083	555.176	89.6997	555.176	89.3319	555.176	90.4549	555.176	90.3378	555.176	90.7548
574.219	95.681	574.219	95.3308	574.219	95.8869	574.219	94.8483	574.219	95.9094	574.219	94.2587	574.219	95.6743	574.219	93.5902	574.219	95.1321	574.219	92.8189	574.219	94.3252	574.219	91.8621	574.219	93.4022	574.219	90.6856	574.219	92.5608	574.219	89.4758	574.219	91.906	574.219	88.6396	574.219	91.2932	574.219	88.3351	574.219	90.3561	574.219	88.2127	574.219	88.8243	574.219	87.9594	574.219	87.2287	574.219	87.7585	574.219	87.2094	574.219	88.1709	574.219	88.5199	574.219	89.3002	574.219	89.7121	574.219	90.5618	574.219	90.6	574.219	91.425	574.219	91.3134	574.219	91.6664
594.727	95.4453	594.727	95.2347	594.727	95.3622	594.727	94.7453	594.727	94.9881	594.727	94.028	594.727	94.3555	594.727	93.1885	594.727	93.5508	594.727	92.3532	594.727	92.7093	594.727	91.5581	594.727	91.9769	594.727	90.686	594.727	91.475	594.727	89.5946	594.727	91.2402	594.727	88.3703	594.727	91.1173	594.727	87.4939	594.727	90.7277	594.727	87.4082	594.727	89.5418	594.727	87.8378	594.727	86.9617	594.727	88.326	594.727	83.7902	594.727	88.8419	594.727	86.087	594.727	89.5979	594.727	89.7545	594.727	90.6113	594.727	91.7123	594.727	91.5958	594.727	92.3845	594.727	92.253
615.234	95.7552	615.234	95.5349	615.234	95.7579	615.234	95.1046	615.234	95.5488	615.234	94.5112	615.234	95.1022	615.234	93.8247	615.234	94.3647	615.234	93.0865	615.234	93.3312	615.234	92.2523	615.234	92.1371	615.234	91.2073	615.234	91.105	615.234	89.8921	615.234	90.5905	615.234	88.4954	615.234	90.5867	615.234	87.5526	615.234	90.6779	615.234	87.5128	615.234	90.4524	615.234	88.1103	615.234	89.6897	615.234	88.844	615.234	88.3158	615.234	89.5752	615.234	86.7716	615.234	90.3762	615.234	86.8796	615.234	91.1842	615.234	88.9052	615.234	91.7246	615.234	90.7515	615.234	91.6679
637.207	96.5509	637.207	96.0039	637.207	96.7806	637.207	95.1867	637.207	96.7152	637.207	94.2117	637.207	96.4045	637.207	93.2303	637.207	95.8463	637.207	92.3663	637.207	94.9694	637.207	91.6288	637.207	93.7234	637.207	90.9259	637.207	92.2048	637.207	90.1788	637.207	90.7754	637.207	89.3453	637.207	89.9963	637.207	88.3517	637.207	89.9455	637.207	87.2386	637.207	89.8065	637.207	86.6588	637.207	88.7984	637.207	87.4576	637.207	87.1643	637.207	89.0695	637.207	86.9012	637.207	90.6218	637.207	88.7187	637.207	91.8623	637.207	90.8005	637.207	92.6836	637.207	92.2656	637.207	92.883
659.18	96.8039	659.18	96.5802	659.18	96.7849	659.18	96.0535	659.18	96.5613	659.18	95.269	659.18	96.0317	659.18	94.368	659.18	95.0637	659.18	93.4713	659.18	93.7123	659.18	92.5756	659.18	92.2832	659.18	91.6199	659.18	91.1536	659.18	90.635	659.18	90.5173	659.18	89.7101	659.18	90.3024	659.18	88.8035	659.18	90.2109	659.18	87.7981	659.18	89.7384	659.18	86.945	659.18	88.235	659.18	86.923	659.18	85.3011	659.18	87.8596	659.18	84.2347	659.18	89.2525	659.18	87.7781	659.18	90.6677	659.18	90.5176	659.18	91.7446	659.18	91.8489	659.18	92.1919
682.617	97.4493	682.617	97.2038	682.617	97.4288	682.617	96.6888	682.617	97.1036	682.617	95.8747	682.617	96.4572	682.617	94.8275	682.617	95.5402	682.617	93.806	682.617	94.4211	682.617	93.0356	682.617	93.1377	682.617	92.3532	682.617	91.8949	682.617	91.4439	682.617	91.3379	682.617	90.2851	682.617	91.769	682.617	89.1863	682.617	92.3425	682.617	88.414	682.617	92.2687	682.617	88.0165	682.617	91.2909	682.617	88.2168	682.617	89.2377	682.617	89.174	682.617	86.1165	682.617	90.4932	682.617	85.3175	682.617	91.6579	682.617	88.5415	682.617	92.3189	682.617	91.0436	682.617	92.2025
707.52	97.9924	707.52	97.6032	707.52	98.2094	707.52	96.9924	707.52	98.2029	707.52	96.1324	707.52	97.8049	707.52	95.0988	707.52	96.8883	707.52	94.072	707.52	95.5075	707.52	93.2421	707.52	93.8206	707.52	92.6198	707.52	91.9369	707.52	91.992	707.52	90.1693	707.52	91.1187	707.52	89.4169	707.52	89.8552	707.52	89.7981	707.52	88.2291	707.52	89.9199	707.52	86.808	707.52	88.7943	707.52	86.8738	707.52	86.323	707.52	88.5307	707.52	84.3733	707.52	90.4821	707.52	86.5778	707.52	92.0706	707.52	90.0509	707.52	93.0879	707.52	92.3573	707.52	93.287
732.422	97.5162	732.422	97.2409	732.422	97.5475	732.422	96.8067	732.422	97.2696	732.422	96.2328	732.422	96.6905	732.422	95.4604	732.422	95.8634	732.422	94.4888	732.422	94.7742	732.422	93.504	732.422	93.3282	732.422	92.6284	732.422	91.467	732.422	91.6887	732.422	89.138	732.422	90.6164	732.422	86.7984	732.422	89.5773	732.422	87.1528	732.422	88.5727	732.422	89.5863	732.422	87.4393	732.422	90.6566	732.422	86.7346	732.422	89.0392	732.422	87.5845	732.422	83.5056	732.422	89.2816	732.422	82.986	732.422	90.6878	732.422	88.5379	732.422	91.5412	732.422	90.9783	732.422	91.7442
757.324	98.0726	757.324	98.104	757.324	97.8419	757.324	97.8166	757.324	97.5655	757.324	97.1914	757.324	97.2338	757.324	96.2644	757.324	96.6571	757.324	95.1113	757.324	95.7241	757.324	93.8772	757.324	94.4906	757.324	92.7002	757.324	93.0039	757.324	91.5358	757.324	91.4345	757.324	90.2251	757.324	90.2371	757.324	88.9004	757.324	89.7309	757.324	87.9425	757.324	90.1129	757.324	87.2228	757.324	90.9208	757.324	86.6342	757.324	90.7588	757.324	87.1483	757.324	88.5714	757.324	89.1681	757.324	84.6607	757.324	91.2194	757.324	85.8675	757.324	92.204	757.324	89.6569	757.324	91.7424
785.156	98.7173	785.156	98.6491	785.156	98.5031	785.156	98.268	785.156	98.0203	785.156	97.6199	785.156	97.1684	785.156	96.7438	785.156	96.0196	785.156	95.6652	785.156	95.0197	785.156	94.5346	785.156	94.1992	785.156	93.5932	785.156	92.8613	785.156	92.7841	785.156	90.6827	785.156	91.7031	785.156	88.5503	785.156	90.0713	785.156	88.482	785.156	88.1902	785.156	89.1483	785.156	87.1969	785.156	88.2663	785.156	87.5495	785.156	85.8085	785.156	88.3358	785.156	83.3978	785.156	89.4261	785.156	82.8969	785.156	90.9577	785.156	86.7902	785.156	92.1671	785.156	90.6182	785.156	92.2574
811.523	98.7717	811.523	99.0352	811.523	98.2541	811.523	98.8097	811.523	97.5876	811.523	97.9789	811.523	96.8533	811.523	96.6523	811.523	96.3422	811.523	95.163	811.523	95.9155	811.523	94.0041	811.523	94.8542	811.523	93.2357	811.523	93.0371	811.523	92.4624	811.523	90.942	811.523	91.6636	811.523	87.9894	811.523	90.7564	811.523	85.7776	811.523	89.3665	811.523	89.251	811.523	87.5192	811.523	91.6054	811.523	86.0504	811.523	90.9935	811.523	86.2722	811.523	85.9764	811.523	88.1572	811.523	77.2058	811.523	90.4011	811.523	87.6747	811.523	91.988	811.523	91.2389	811.523	92.3797
840.82	99.0033	840.82	99.0698	840.82	98.5086	840.82	98.8657	840.82	97.631	840.82	98.4524	840.82	96.6652	840.82	97.6131	840.82	95.7669	840.82	96.0404	840.82	94.8616	840.82	93.8558	840.82	94.2489	840.82	92.0951	840.82	94.1179	840.82	91.8331	840.82	93.598	840.82	92.3034	840.82	91.8059	840.82	91.9897	840.82	88.3621	840.82	90.4433	840.82	85.0686	840.82	88.6677	840.82	87.9686	840.82	88.4246	840.82	90.5804	840.82	89.2737	840.82	89.7361	840.82	89.8016	840.82	83.6597	840.82	90.2893	840.82	84.9337	840.82	91.2747	840.82	90.5694	840.82	91.8928
870.117	99.3263	870.117	99.4643	870.117	98.5373	870.117	99.0439	870.117	97.1948	870.117	98.17	870.117	95.7557	870.117	96.824	870.117	94.9044	870.117	95.0493	870.117	94.7025	870.117	93.3834	870.117	94.4287	870.117	92.534	870.117	93.5448	870.117	92.1688	870.117	92.1035	870.117	91.3886	870.117	90.5169	870.117	90.0021	870.117	89.3664	870.117	88.4511	870.117	89.6558	870.117	86.6881	870.117	90.798	870.117	85.2626	870.117	90.7224	870.117	86.8649	870.117	88.2327	870.117	89.2235	870.117	83.1077	870.117	90.9396	870.117	81.9139	870.117	91.8746	870.117	88.0304	870.117	91.2627
900.879	99.0015	900.879	99.5124	900.879	98.349	900.879	99.5281	900.879	97.6254	900.879	98.973	900.879	96.5315	900.879	97.7871	900.879	95.4026	900.879	95.6736	900.879	94.8735	900.879	92.6036	900.879	94.514	900.879	90.3036	900.879	93.5802	900.879	90.5735	900.879	92.2977	900.879	91.7054	900.879	90.559	900.879	92.0742	900.879	86.8398	900.879	91.2032	900.879	83.5911	900.879	89.3351	900.879	89.5529	900.879	87.2064	900.879	92.7652	900.879	86.7442	900.879	92.4162	900.879	88.9798	900.879	87.3923	900.879	91.3657	900.879	78.6279	900.879	92.5485	900.879	89.0221	900.879	92.1106
933.105	99.2811	933.105	99.2631	933.105	98.6668	933.105	99.1155	933.105	97.337	933.105	98.7755	933.105	96.0208	933.105	97.6362	933.105	94.6262	933.105	95.3615	933.105	92.9469	933.105	92.6804	933.105	92.4316	933.105	91.0059	933.105	93.2599	933.105	90.1614	933.105	93.5892	933.105	89.1081	933.105	92.5902	933.105	88.0721	933.105	90.4414	933.105	87.6856	933.105	88.5959	933.105	87.7623	933.105	89.0595	933.105	87.2837	933.105	88.9812	933.105	86.2909	933.105	87.8812	933.105	87.5404	933.105	86.0036	933.105	90.6616	933.105	78.2509	933.105	92.2009	933.105	84.2972	933.105	90.804
965.332	98.9414	965.332	99.5331	965.332	98.0046	965.332	99.3163	965.332	97.371	965.332	98.4301	965.332	96.5935	965.332	97.218	965.332	95.3122	965.332	95.7061	965.332	94.288	965.332	93.4542	965.332	93.5276	965.332	90.4737	965.332	92.2173	965.332	88.9455	965.332	90.9121	965.332	89.8123	965.332	90.7306	965.332	90.5537	965.332	90.0274	965.332	89.933	965.332	85.8795	965.332	88.1161	965.332	87.0551	965.332	87.1365	965.332	92.1357	965.332	87.5853	965.332	92.9117	965.332	87.5376	965.332	90.0147	965.332	87.7371	965.332	82.2215	965.332	89.6769	965.332	84.3997	965.332	89.7204
1,000.49	98.6298	1,000.49	98.962	1,000.49	98.3195	1,000.49	99.0724	1,000.49	97.9246	1,000.49	98.754	1,000.49	96.9659	1,000.49	97.8139	1,000.49	95.8573	1,000.49	95.8226	1,000.49	95.1687	1,000.49	92.6961	1,000.49	93.701	1,000.49	89.0306	1,000.49	91.4136	1,000.49	86.5983	1,000.49	91.0208	1,000.49	87.3417	1,000.49	91.7802	1,000.49	87.8742	1,000.49	91.251	1,000.49	87.9854	1,000.49	89.3517	1,000.49	87.293	1,000.49	86.0688	1,000.49	85.8024	1,000.49	82.7225	1,000.49	84.727	1,000.49	85.4045	1,000.49	85.4137	1,000.49	87.3216	1,000.49	88.4171	1,000.49	82.9316	1,000.49	90.7979	1,000.49	83.4399	1,000.49	89.9804
1,035.64	98.1913	1,035.64	99.0518	1,035.64	97.7598	1,035.64	99.1836	1,035.64	97.5815	1,035.64	98.1028	1,035.64	96.7853	1,035.64	96.4943	1,035.64	95.9057	1,035.64	95.6206	1,035.64	94.7729	1,035.64	94.7986	1,035.64	92.7521	1,035.64	92.0363	1,035.64	91.3738	1,035.64	86.8052	1,035.64	91.1465	1,035.64	82.7516	1,035.64	91.2957	1,035.64	81.9917	1,035.64	90.2915	1,035.64	83.9163	1,035.64	87.2973	1,035.64	86.5563	1,035.64	86.7954	1,035.64	86.7139	1,035.64	91.1625	1,035.64	85.2797	1,035.64	92.4717	1,035.64	84.1752	1,035.64	89.573	1,035.64	86.1452	1,035.64	85.2175	1,035.64	87.8154	1,035.64	85.0881	1,035.64	87.0987
1,072.27	97.7616	1,072.27	98.05	1,072.27	97.219	1,072.27	98.061	1,072.27	96.7457	1,072.27	97.8877	1,072.27	95.845	1,072.27	96.9085	1,072.27	94.856	1,072.27	94.6311	1,072.27	94.991	1,072.27	92.3116	1,072.27	94.1851	1,072.27	91.8603	1,072.27	91.6715	1,072.27	91.1638	1,072.27	90.3024	1,072.27	86.5253	1,072.27	89.7008	1,072.27	85.147	1,072.27	89.2401	1,072.27	85.9208	1,072.27	89.2291	1,072.27	84.5663	1,072.27	88.1888	1,072.27	82.2306	1,072.27	86.7315	1,072.27	85.6571	1,072.27	88.1837	1,072.27	87.6062	1,072.27	89.9182	1,072.27	86.8761	1,072.27	87.0071	1,072.27	87.3093	1,072.27	80.8544	1,072.27	86.7526
1,108.89	97.2994	1,108.89	97.3635	1,108.89	96.9884	1,108.89	97.214	1,108.89	96.8606	1,108.89	97.0543	1,108.89	96.476	1,108.89	96.52	1,108.89	95.5799	1,108.89	94.8281	1,108.89	94.6449	1,108.89	92.4669	1,108.89	92.8549	1,108.89	91.1217	1,108.89	91.2809	1,108.89	91.3829	1,108.89	91.6651	1,108.89	89.5121	1,108.89	90.8132	1,108.89	85.2335	1,108.89	87.0518	1,108.89	85.1523	1,108.89	85.528	1,108.89	87.7801	1,108.89	84.9586	1,108.89	85.1335	1,108.89	86.9416	1,108.89	82.8839	1,108.89	91.8559	1,108.89	86.4726	1,108.89	90.6124	1,108.89	86.9567	1,108.89	86.3875	1,108.89	84.3336	1,108.89	84.7321	1,108.89	82.065
1,148.44	96.4948	1,148.44	96.6872	1,148.44	96.0644	1,148.44	96.9341	1,148.44	95.2403	1,148.44	96.503	1,148.44	94.7389	1,148.44	94.6281	1,148.44	94.2611	1,148.44	92.7509	1,148.44	93.5678	1,148.44	92.919	1,148.44	93.173	1,148.44	92.1198	1,148.44	91.755	1,148.44	87.8987	1,148.44	89.2194	1,148.44	85.4171	1,148.44	87.3641	1,148.44	86.6116	1,148.44	85.3974	1,148.44	84.7342	1,148.44	85.0945	1,148.44	84.7722	1,148.44	88.512	1,148.44	86.9982	1,148.44	88.0512	1,148.44	85.1311	1,148.44	85.6408	1,148.44	82.9663	1,148.44	88.9461	1,148.44	86.1695	1,148.44	86.4403	1,148.44	87.092	1,148.44	81.7086	1,148.44	85.6698
1,189.45	95.9737	1,189.45	95.9951	1,189.45	95.6919	1,189.45	95.698	1,189.45	95.3286	1,189.45	95.0515	1,189.45	94.6974	1,189.45	93.8649	1,189.45	93.5648	1,189.45	92.3815	1,189.45	92.5574	1,189.45	90.2753	1,189.45	91.2353	1,189.45	88.5103	1,189.45	90.7203	1,189.45	87.5596	1,189.45	91.0575	1,189.45	87.6911	1,189.45	89.5275	1,189.45	86.3605	1,189.45	85.9688	1,189.45	84.0479	1,189.45	81.9488	1,189.45	83.1929	1,189.45	79.6976	1,189.45	82.807	1,189.45	79.5628	1,189.45	79.6091	1,189.45	86.6482	1,189.45	81.3756	1,189.45	86.972	1,189.45	85.0053	1,189.45	83.3578	1,189.45	85.375	1,189.45	84.6825	1,189.45	84.7419
1,230.47	95.8908	1,230.47	96.0712	1,230.47	95.0121	1,230.47	95.5041	1,230.47	94.4599	1,230.47	94.6641	1,230.47	93.8021	1,230.47	93.5148	1,230.47	92.0223	1,230.47	91.5951	1,230.47	90.6878	1,230.47	88.5028	1,230.47	91.2583	1,230.47	87.3349	1,230.47	91.0934	1,230.47	86.3562	1,230.47	88.3995	1,230.47	81.5266	1,230.47	87.3255	1,230.47	81.275	1,230.47	87.2494	1,230.47	84.245	1,230.47	83.1595	1,230.47	83.1286	1,230.47	83.4169	1,230.47	83.7148	1,230.47	85.2078	1,230.47	84.6785	1,230.47	84.4562	1,230.47	82.3354	1,230.47	84.6713	1,230.47	82.1207	1,230.47	84.5323	1,230.47	84.1829	1,230.47	81.7306	1,230.47	83.6663
1,274.41	95.9745	1,274.41	96.1556	1,274.41	94.8746	1,274.41	95.2944	1,274.41	93.691	1,274.41	93.24	1,274.41	93.0016	1,274.41	91.088	1,274.41	92.2	1,274.41	90.3278	1,274.41	91.4726	1,274.41	88.6012	1,274.41	89.6034	1,274.41	84.115	1,274.41	88.9158	1,274.41	83.6126	1,274.41	89.5361	1,274.41	84.6186	1,274.41	88.1784	1,274.41	82.6103	1,274.41	85.5105	1,274.41	77.9305	1,274.41	84.0655	1,274.41	78.7514	1,274.41	85.4903	1,274.41	81.4713	1,274.41	84.2601	1,274.41	82.1616	1,274.41	79.1271	1,274.41	78.7717	1,274.41	83.9482	1,274.41	79.686	1,274.41	82.0941	1,274.41	82.7757	1,274.41	82.9587	1,274.41	84.3773
1,319.82	96.3726	1,319.82	96.9702	1,319.82	95.4185	1,319.82	95.7934	1,319.82	94.7466	1,319.82	93.4341	1,319.82	93.3865	1,319.82	92.2472	1,319.82	92.2106	1,319.82	91.1028	1,319.82	90.844	1,319.82	88.2955	1,319.82	89.4482	1,319.82	84.6497	1,319.82	88.5428	1,319.82	76.3648	1,319.82	86.9315	1,319.82	81.4979	1,319.82	85.6205	1,319.82	81.421	1,319.82	84.1833	1,319.82	78.5776	1,319.82	83.561	1,319.82	81.3106	1,319.82	81.655	1,319.82	83.834	1,319.82	84.1795	1,319.82	84.3637	1,319.82	87.2202	1,319.82	81.2558	1,319.82	82.135	1,319.82	77.6278	1,319.82	81.6323	1,319.82	85.7625	1,319.82	82.3886	1,319.82	85.9157
1,366.7	95.7645	1,366.7	96.5493	1,366.7	94.9489	1,366.7	95.7149	1,366.7	94.1987	1,366.7	93.1593	1,366.7	93.4636	1,366.7	92.2673	1,366.7	92.0625	1,366.7	92.0791	1,366.7	90.7373	1,366.7	89.0231	1,366.7	89.0132	1,366.7	83.9816	1,366.7	88.6099	1,366.7	77.4339	1,366.7	88.1965	1,366.7	75.9455	1,366.7	88.1311	1,366.7	76.8887	1,366.7	86.3336	1,366.7	83.5044	1,366.7	82.2504	1,366.7	79.9146	1,366.7	82.8065	1,366.7	78.9482	1,366.7	83.5646	1,366.7	84.8791	1,366.7	84.7166	1,366.7	85.415	1,366.7	84.7931	1,366.7	82.5933	1,366.7	84.8151	1,366.7	83.4152	1,366.7	82.1876	1,366.7	84.8969
1,413.57	95.5218	1,413.57	96.4495	1,413.57	94.097	1,413.57	95.4129	1,413.57	93.6133	1,413.57	94.018	1,413.57	93.3768	1,413.57	92.8557	1,413.57	92.6486	1,413.57	89.8783	1,413.57	91.0619	1,413.57	88.5865	1,413.57	89.3037	1,413.57	87.2076	1,413.57	87.7981	1,413.57	86.1793	1,413.57	87.2345	1,413.57	84.8502	1,413.57	87.2491	1,413.57	75.4039	1,413.57	85.5657	1,413.57	74.8305	1,413.57	81.4778	1,413.57	79.8022	1,413.57	81.9913	1,413.57	76.7662	1,413.57	76.7913	1,413.57	82.4996	1,413.57	82.1277	1,413.57	84.6795	1,413.57	85.7603	1,413.57	80.8919	1,413.57	81.8751	1,413.57	80.0719	1,413.57	83.7445	1,413.57	82.9334
1,463.38	95.2302	1,463.38	95.1585	1,463.38	95.0949	1,463.38	95.03	1,463.38	93.692	1,463.38	94.2983	1,463.38	92.7723	1,463.38	93.3356	1,463.38	92.1754	1,463.38	90.3245	1,463.38	90.4062	1,463.38	83.7695	1,463.38	88.2668	1,463.38	86.8447	1,463.38	87.2401	1,463.38	87.624	1,463.38	85.5939	1,463.38	84.3252	1,463.38	85.7196	1,463.38	85.3389	1,463.38	85.3611	1,463.38	79.217	1,463.38	83.1305	1,463.38	75.175	1,463.38	80.0438	1,463.38	79.2175	1,463.38	73.047	1,463.38	81.3786	1,463.38	79.4079	1,463.38	84.3808	1,463.38	83.4554	1,463.38	81.9299	1,463.38	85.2531	1,463.38	81.2941	1,463.38	83.4954	1,463.38	83.171
1,516.11	94.4777	1,516.11	94.6902	1,516.11	93.7624	1,516.11	94.2533	1,516.11	92.9062	1,516.11	94.5769	1,516.11	91.0021	1,516.11	92.3435	1,516.11	90.301	1,516.11	87.4762	1,516.11	89.0544	1,516.11	87.3957	1,516.11	87.311	1,516.11	84.8726	1,516.11	85.4238	1,516.11	84.3069	1,516.11	83.8475	1,516.11	82.5424	1,516.11	85.6002	1,516.11	80.1968	1,516.11	84.1142	1,516.11	80.3606	1,516.11	82.4704	1,516.11	78.1285	1,516.11	79.8538	1,516.11	78.4513	1,516.11	81.9872	1,516.11	80.5385	1,516.11	81.4646	1,516.11	81.366	1,516.11	76.0678	1,516.11	79.0284	1,516.11	79.9126	1,516.11	77.9045	1,516.11	82.8376	1,516.11	80.135
1,568.85	94.4013	1,568.85	93.3676	1,568.85	93.8829	1,568.85	93.0062	1,568.85	92.2136	1,568.85	93.6123	1,568.85	90.3562	1,568.85	92.1606	1,568.85	89.0804	1,568.85	88.0927	1,568.85	88.364	1,568.85	86.3893	1,568.85	87.3871	1,568.85	84.9252	1,568.85	86.1273	1,568.85	81.7493	1,568.85	84.6364	1,568.85	80.3184	1,568.85	82.7726	1,568.85	78.0084	1,568.85	83.2259	1,568.85	82.2283	1,568.85	83.9037	1,568.85	80.2372	1,568.85	80.9921	1,568.85	79.1803	1,568.85	83.7377	1,568.85	78.7396	1,568.85	79.2181	1,568.85	80.7054	1,568.85	76.4759	1,568.85	78.38	1,568.85	81.1553	1,568.85	74.0961	1,568.85	81.1124	1,568.85	80.0914
1,624.51	95.0322	1,624.51	94.6036	1,624.51	94.5744	1,624.51	93.6176	1,624.51	92.7965	1,624.51	92.1844	1,624.51	89.735	1,624.51	89.5344	1,624.51	86.5285	1,624.51	86.2137	1,624.51	87.1639	1,624.51	86.9143	1,624.51	87.9594	1,624.51	83.6486	1,624.51	86.838	1,624.51	75.5344	1,624.51	87.4515	1,624.51	79.5523	1,624.51	85.3612	1,624.51	78.7157	1,624.51	80.8049	1,624.51	72.7504	1,624.51	81.6766	1,624.51	80.1448	1,624.51	80.9277	1,624.51	79.8495	1,624.51	81.884	1,624.51	74.493	1,624.51	79.3288	1,624.51	81.9225	1,624.51	78.0219	1,624.51	80.7848	1,624.51	74.6479	1,624.51	77.3546	1,624.51	78.8723	1,624.51	79.6371
1,681.64	96.0825	1,681.64	95.3548	1,681.64	95.6216	1,681.64	93.5031	1,681.64	93.8518	1,681.64	91.9871	1,681.64	90.7439	1,681.64	89.6991	1,681.64	88.1656	1,681.64	87.6475	1,681.64	85.4711	1,681.64	86.7712	1,681.64	86.8642	1,681.64	83.2375	1,681.64	88.0786	1,681.64	79.2995	1,681.64	84.5425	1,681.64	76.7062	1,681.64	86.2521	1,681.64	80.5429	1,681.64	72.6245	1,681.64	80.5832	1,681.64	81.7857	1,681.64	61.0708	1,681.64	82.1144	1,681.64	83.2052	1,681.64	80.7507	1,681.64	79.253	1,681.64	79.6953	1,681.64	77.8013	1,681.64	84.6573	1,681.64	80.2194	1,681.64	79.6797	1,681.64	75.1756	1,681.64	80.8359	1,681.64	78.1817
1,741.7	96.1157	1,741.7	95.6781	1,741.7	95.5902	1,741.7	92.8025	1,741.7	94.0579	1,741.7	88.2364	1,741.7	90.3929	1,741.7	88.4453	1,741.7	85.8531	1,741.7	87.3604	1,741.7	84.9041	1,741.7	82.8986	1,741.7	86.2539	1,741.7	85.3628	1,741.7	86.7841	1,741.7	84.8513	1,741.7	86.8269	1,741.7	79.8279	1,741.7	83.1709	1,741.7	82.1628	1,741.7	83.3748	1,741.7	79.6897	1,741.7	84.174	1,741.7	70.4685	1,741.7	82.2735	1,741.7	79.0771	1,741.7	80.9149	1,741.7	78.4237	1,741.7	79.3143	1,741.7	76.7076	1,741.7	76.7212	1,741.7	78.1439	1,741.7	73.8164	1,741.7	75.2044	1,741.7	82.6519	1,741.7	80.8657
1,803.22	96.1035	1,803.22	95.4274	1,803.22	95.1423	1,803.22	91.7391	1,803.22	93.2624	1,803.22	87.8165	1,803.22	88.6717	1,803.22	86.6276	1,803.22	85.9732	1,803.22	86.1317	1,803.22	86.5695	1,803.22	84.5024	1,803.22	86.7857	1,803.22	82.962	1,803.22	85.8284	1,803.22	81.1347	1,803.22	86.3498	1,803.22	81.777	1,803.22	85.3366	1,803.22	77.7447	1,803.22	84.5868	1,803.22	83.719	1,803.22	84.2818	1,803.22	76.2201	1,803.22	83.4632	1,803.22	79.3308	1,803.22	78.9193	1,803.22	79.2695	1,803.22	79.093	1,803.22	75.1231	1,803.22	76.5183	1,803.22	75.1274	1,803.22	78.0858	1,803.22	71.0732	1,803.22	82.6331	1,803.22	78.7579
1,866.21	95.4478	1,866.21	93.9328	1,866.21	94.5172	1,866.21	91.1035	1,866.21	92.651	1,866.21	87.6819	1,866.21	87.7323	1,866.21	83.4282	1,866.21	86.6036	1,866.21	83.8559	1,866.21	88.5503	1,866.21	80.6518	1,866.21	86.7855	1,866.21	84.7665	1,866.21	87.2239	1,866.21	81.5352	1,866.21	85.6053	1,866.21	77.7975	1,866.21	85.8766	1,866.21	78.5251	1,866.21	84.019	1,866.21	74.2186	1,866.21	82.5831	1,866.21	81.5951	1,866.21	83.6634	1,866.21	72.752	1,866.21	79.495	1,866.21	80.9903	1,866.21	78.9829	1,866.21	75.0463	1,866.21	78.4613	1,866.21	74.2562	1,866.21	76.1904	1,866.21	74.8934	1,866.21	81.1859	1,866.21	72.4434
1,932.13	95.2978	1,932.13	93.0942	1,932.13	94.1804	1,932.13	90.4398	1,932.13	90.0746	1,932.13	87.4194	1,932.13	80.0961	1,932.13	80.3918	1,932.13	86.3493	1,932.13	80.672	1,932.13	88.5494	1,932.13	85.5826	1,932.13	87.9041	1,932.13	81.8843	1,932.13	85.4275	1,932.13	84.4302	1,932.13	86.333	1,932.13	83.768	1,932.13	84.525	1,932.13	80.5571	1,932.13	85.3933	1,932.13	80.233	1,932.13	82.5797	1,932.13	78.4592	1,932.13	82.7409	1,932.13	78.2465	1,932.13	80.2737	1,932.13	81.4341	1,932.13	78.4027	1,932.13	78.5939	1,932.13	78.3176	1,932.13	63.8625	1,932.13	75.9158	1,932.13	66.7628	1,932.13	82.6973	1,932.13	78.3976
1,999.51	95.7133	1,999.51	92.613	1,999.51	95.4636	1,999.51	89.6434	1,999.51	90.1767	1,999.51	82.5458	1,999.51	80.7866	1,999.51	72.488	1,999.51	85.9082	1,999.51	83.0204	1,999.51	89.4901	1,999.51	84.3262	1,999.51	88.6053	1,999.51	84.8418	1,999.51	86.8764	1,999.51	79.6266	1,999.51	86.643	1,999.51	80.5585	1,999.51	83.3829	1,999.51	81.3794	1,999.51	84.7053	1,999.51	78.1502	1,999.51	85.5658	1,999.51	82.0811	1,999.51	84.1274	1,999.51	77.8024	1,999.51	81.0498	1,999.51	78.9465	1,999.51	79.5124	1,999.51	80.4405	1,999.51	80.3005	1,999.51	67.6494	1,999.51	75.1418	1,999.51	59.6104	1,999.51	81.2777	1,999.51	77.5537
2,069.82	95.7976	2,069.82	93.8708	2,069.82	96.0478	2,069.82	87.438	2,069.82	91.316	2,069.82	68.2621	2,069.82	74.3904	2,069.82	76.8796	2,069.82	84.7431	2,069.82	84.4595	2,069.82	90.263	2,069.82	86.73	2,069.82	90.4107	2,069.82	87.4535	2,069.82	86.2819	2,069.82	86.4594	2,069.82	86.0466	2,069.82	85.2333	2,069.82	86.7483	2,069.82	84.2554	2,069.82	85.9591	2,069.82	81.4804	2,069.82	84.4396	2,069.82	78.2094	2,069.82	85.0811	2,069.82	82.0589	2,069.82	81.6256	2,069.82	77.6724	2,069.82	81.4735	2,069.82	80.53	2,069.82	80.1114	2,069.82	65.0924	2,069.82	75.0068	2,069.82	71.2548	2,069.82	83.4589	2,069.82	77.7644
2,143.07	95.4352	2,143.07	94.3634	2,143.07	95.7788	2,143.07	87.8068	2,143.07	92.0448	2,143.07	82.042	2,143.07	59.1559	2,143.07	80.4963	2,143.07	87.4448	2,143.07	85.4337	2,143.07	90.9169	2,143.07	88.9641	2,143.07	91.2007	2,143.07	86.2252	2,143.07	88.3978	2,143.07	85.0782	2,143.07	84.1514	2,143.07	85.3576	2,143.07	85.1306	2,143.07	81.3148	2,143.07	84.5113	2,143.07	83.2531	2,143.07	85.7013	2,143.07	77.7063	2,143.07	84.7962	2,143.07	82.3628	2,143.07	81.7428	2,143.07	76.9996	2,143.07	79.1571	2,143.07	79.7087	2,143.07	76.0885	2,143.07	71.1294	2,143.07	78.4872	2,143.07	70.3479	2,143.07	83.1971	2,143.07	77.0324
2,219.24	94.7502	2,219.24	92.7361	2,219.24	94.1622	2,219.24	90.2014	2,219.24	91.6384	2,219.24	82.4943	2,219.24	74.808	2,219.24	86.1076	2,219.24	87.3631	2,219.24	88.7451	2,219.24	91.9747	2,219.24	87.0404	2,219.24	92.0405	2,219.24	87.8596	2,219.24	88.5377	2,219.24	86.6397	2,219.24	80.2262	2,219.24	82.2486	2,219.24	84.1377	2,219.24	82.5481	2,219.24	80.7989	2,219.24	80.3614	2,219.24	86.3519	2,219.24	78.9332	2,219.24	83.5034	2,219.24	80.0214	2,219.24	81.6124	2,219.24	80.364	2,219.24	77.1943	2,219.24	77.533	2,219.24	73.8435	2,219.24	69.9135	2,219.24	78.4735	2,219.24	73.9444	2,219.24	81.165	2,219.24	73.4001
2,296.88	94.1527	2,296.88	92.2743	2,296.88	93.989	2,296.88	90.553	2,296.88	90.8489	2,296.88	85.2054	2,296.88	80.9138	2,296.88	88.525	2,296.88	88.5753	2,296.88	88.3334	2,296.88	91.8117	2,296.88	89.1445	2,296.88	92.2467	2,296.88	85.5431	2,296.88	90.1848	2,296.88	84.9506	2,296.88	84.433	2,296.88	83.5959	2,296.88	83.0909	2,296.88	81.1997	2,296.88	82.1222	2,296.88	82.1982	2,296.88	83.818	2,296.88	81.1687	2,296.88	82.0262	2,296.88	79.3814	2,296.88	83.4102	2,296.88	80.6538	2,296.88	79.4621	2,296.88	76.7927	2,296.88	75.8716	2,296.88	74.2187	2,296.88	76.4382	2,296.88	77.0627	2,296.88	81.2728	2,296.88	77.2582
2,378.91	95.1044	2,378.91	93.5852	2,378.91	94.3379	2,378.91	89.3473	2,378.91	90.2536	2,378.91	88.7974	2,378.91	81.9029	2,378.91	89.1548	2,378.91	89.7696	2,378.91	88.9981	2,378.91	92.5494	2,378.91	89.1778	2,378.91	93.2485	2,378.91	89.506	2,378.91	91.8256	2,378.91	86.5341	2,378.91	86.964	2,378.91	83.5563	2,378.91	84.8845	2,378.91	84.1204	2,378.91	85.356	2,378.91	81.2172	2,378.91	79.3995	2,378.91	81.6498	2,378.91	82.4302	2,378.91	78.9383	2,378.91	84.2272	2,378.91	81.2896	2,378.91	79.049	2,378.91	76.3303	2,378.91	78.0103	2,378.91	75.9607	2,378.91	72.6588	2,378.91	73.6669	2,378.91	81.919	2,378.91	74.7605
2,462.4	96.1354	2,462.4	95.3587	2,462.4	96.0396	2,462.4	90.2418	2,462.4	91.5703	2,462.4	90.6746	2,462.4	82.226	2,462.4	90.559	2,462.4	90.2405	2,462.4	90.1451	2,462.4	93.9451	2,462.4	89.715	2,462.4	93.3104	2,462.4	88.99	2,462.4	92.3386	2,462.4	85.2583	2,462.4	87.0761	2,462.4	85.0627	2,462.4	83.5489	2,462.4	81.5442	2,462.4	86.3196	2,462.4	82.4378	2,462.4	84.9464	2,462.4	78.1442	2,462.4	78.5814	2,462.4	80.6538	2,462.4	85.8738	2,462.4	80.1868	2,462.4	75.375	2,462.4	77.8568	2,462.4	75.1299	2,462.4	75.5604	2,462.4	76.6834	2,462.4	74.0632	2,462.4	83.0054	2,462.4	74.889
2,548.83	95.8839	2,548.83	95.419	2,548.83	96.215	2,548.83	93.2746	2,548.83	93.1494	2,548.83	90.3902	2,548.83	85.995	2,548.83	92.1445	2,548.83	89.9978	2,548.83	89.7938	2,548.83	94.2169	2,548.83	90.7078	2,548.83	93.9402	2,548.83	84.6192	2,548.83	91.0405	2,548.83	87.0592	2,548.83	88.4547	2,548.83	81.2799	2,548.83	85.4453	2,548.83	83.3148	2,548.83	88.5032	2,548.83	82.6419	2,548.83	84.3496	2,548.83	79.5721	2,548.83	83.4667	2,548.83	81.6265	2,548.83	85.9429	2,548.83	78.995	2,548.83	78.5589	2,548.83	78.9555	2,548.83	74.7105	2,548.83	75.2282	2,548.83	78.6378	2,548.83	74.7639	2,548.83	84.2194	2,548.83	77.0663
2,639.65	95.5644	2,639.65	94.5611	2,639.65	95.2904	2,639.65	93.8634	2,639.65	94.9324	2,639.65	92.2534	2,639.65	89.506	2,639.65	93.0109	2,639.65	90.0856	2,639.65	91.0678	2,639.65	94.5319	2,639.65	89.4943	2,639.65	94.849	2,639.65	87.5753	2,639.65	92.1629	2,639.65	87.2565	2,639.65	88.7863	2,639.65	86.1416	2,639.65	87.7961	2,639.65	84.3578	2,639.65	87.5762	2,639.65	82.3705	2,639.65	82.5758	2,639.65	82.4877	2,639.65	85.5281	2,639.65	79.7644	2,639.65	82.4904	2,639.65	80.3177	2,639.65	79.2331	2,639.65	78.1541	2,639.65	75.7111	2,639.65	75.2509	2,639.65	78.9651	2,639.65	68.7484	2,639.65	83.7148	2,639.65	74.8159
2,731.93	94.7485	2,731.93	93.8813	2,731.93	94.1938	2,731.93	91.8847	2,731.93	93.8744	2,731.93	94.0121	2,731.93	89.8517	2,731.93	91.8077	2,731.93	89.9639	2,731.93	91.4872	2,731.93	93.8668	2,731.93	89.1476	2,731.93	93.7521	2,731.93	89.6056	2,731.93	91.307	2,731.93	86.9418	2,731.93	89.5466	2,731.93	86.4836	2,731.93	87.4184	2,731.93	83.2981	2,731.93	85.9956	2,731.93	82.6801	2,731.93	83.9721	2,731.93	80.3776	2,731.93	82.8058	2,731.93	79.475	2,731.93	82.4622	2,731.93	80.7474	2,731.93	78.5356	2,731.93	77.8843	2,731.93	76.3867	2,731.93	74.3584	2,731.93	80.8494	2,731.93	69.1063	2,731.93	81.7014	2,731.93	79.1665
2,828.61	95.3712	2,828.61	94.7771	2,828.61	94.1922	2,828.61	93.3434	2,828.61	92.8249	2,828.61	94.0956	2,828.61	90.3375	2,828.61	92.3922	2,828.61	90.185	2,828.61	90.767	2,828.61	93.573	2,828.61	91.8964	2,828.61	93.3335	2,828.61	88.9889	2,828.61	91.2076	2,828.61	88.2641	2,828.61	90.8536	2,828.61	85.012	2,828.61	89.7989	2,828.61	84.2296	2,828.61	79.3826	2,828.61	82.1093	2,828.61	81.6426	2,828.61	82.3197	2,828.61	84.0659	2,828.61	79.9799	2,828.61	81.2977	2,828.61	82.3102	2,828.61	80.8557	2,828.61	79.474	2,828.61	72.3269	2,828.61	76.3063	2,828.61	81.6547	2,828.61	66.3063	2,828.61	81.8833	2,828.61	80.0124
2,928.22	96.656	2,928.22	95.6188	2,928.22	94.6734	2,928.22	95.5902	2,928.22	93.9303	2,928.22	94.5183	2,928.22	92.1631	2,928.22	92.998	2,928.22	90.6805	2,928.22	91.7039	2,928.22	93.988	2,928.22	92.522	2,928.22	94.2733	2,928.22	89.2973	2,928.22	91.2661	2,928.22	88.2738	2,928.22	90.427	2,928.22	86.9296	2,928.22	87.2744	2,928.22	85.4407	2,928.22	78.7896	2,928.22	83.4657	2,928.22	83.0145	2,928.22	81.6385	2,928.22	82.6518	2,928.22	81.047	2,928.22	82.2559	2,928.22	81.4445	2,928.22	81.0987	2,928.22	79.2615	2,928.22	74.3794	2,928.22	75.0274	2,928.22	81.2528	2,928.22	69.7996	2,928.22	81.6199	2,928.22	78.7238
3,030.76	96.6955	3,030.76	95.863	3,030.76	95.0722	3,030.76	96.4433	3,030.76	94.6275	3,030.76	94.4293	3,030.76	93.2589	3,030.76	93.829	3,030.76	91.0545	3,030.76	93.2613	3,030.76	94.1878	3,030.76	91.3918	3,030.76	95.0835	3,030.76	89.3894	3,030.76	92.4547	3,030.76	87.8928	3,030.76	91.4348	3,030.76	86.1607	3,030.76	80.8391	3,030.76	83.6277	3,030.76	73.9549	3,030.76	82.051	3,030.76	84.3838	3,030.76	82.3573	3,030.76	79.8272	3,030.76	79.9669	3,030.76	82.5659	3,030.76	81.198	3,030.76	80.1164	3,030.76	80.1491	3,030.76	68.6742	3,030.76	76.2763	3,030.76	81.6849	3,030.76	66.4516	3,030.76	80.5257	3,030.76	78.8635
3,137.7	96.4697	3,137.7	95.2175	3,137.7	95.568	3,137.7	95.979	3,137.7	94.4615	3,137.7	94.7957	3,137.7	94.5118	3,137.7	94.1878	3,137.7	89.2373	3,137.7	93.4572	3,137.7	94.855	3,137.7	91.4633	3,137.7	93.7117	3,137.7	90.5849	3,137.7	92.9267	3,137.7	85.0731	3,137.7	90.4258	3,137.7	84.5961	3,137.7	70.4723	3,137.7	83.8247	3,137.7	74.6305	3,137.7	82.6606	3,137.7	82.6355	3,137.7	81.8031	3,137.7	83.8293	3,137.7	80.0542	3,137.7	81.7303	3,137.7	80.5565	3,137.7	80.0876	3,137.7	79.4814	3,137.7	70.3106	3,137.7	76.3088	3,137.7	81.6085	3,137.7	65.3042	3,137.7	79.3582	3,137.7	77.2557
3,249.02	95.8532	3,249.02	95.8805	3,249.02	95.7715	3,249.02	94.9188	3,249.02	94.4752	3,249.02	95.4025	3,249.02	94.9855	3,249.02	94.6801	3,249.02	91.8902	3,249.02	93.0186	3,249.02	94.0161	3,249.02	89.9437	3,249.02	93.9649	3,249.02	87.4486	3,249.02	94.811	3,249.02	87.8499	3,249.02	89.8565	3,249.02	87.7073	3,249.02	79.2101	3,249.02	84.3308	3,249.02	79.4782	3,249.02	81.2047	3,249.02	83.4416	3,249.02	81.0411	3,249.02	79.543	3,249.02	79.4748	3,249.02	83.3907	3,249.02	80.0541	3,249.02	82.0316	3,249.02	80.1192	3,249.02	63.3947	3,249.02	73.0544	3,249.02	80.894	3,249.02	65.4928	3,249.02	79.7357	3,249.02	72.7203
3,363.28	95.7173	3,363.28	95.9102	3,363.28	95.8608	3,363.28	94.6222	3,363.28	94.1777	3,363.28	95.4799	3,363.28	95.439	3,363.28	94.871	3,363.28	92.117	3,363.28	92.503	3,363.28	93.0255	3,363.28	91.1738	3,363.28	93.7724	3,363.28	89.1429	3,363.28	96.8907	3,363.28	88.6681	3,363.28	89.5129	3,363.28	81.9546	3,363.28	88.0015	3,363.28	82.747	3,363.28	85.8217	3,363.28	82.5777	3,363.28	78.7447	3,363.28	81.9418	3,363.28	76.2776	3,363.28	80.0526	3,363.28	84.7393	3,363.28	79.2452	3,363.28	81.6402	3,363.28	78.7038	3,363.28	63.1049	3,363.28	77.1263	3,363.28	81.8416	3,363.28	63.209	3,363.28	77.3757	3,363.28	76.4825
3,481.93	96.1387	3,481.93	96.8138	3,481.93	95.7685	3,481.93	96.2818	3,481.93	95.2798	3,481.93	95.9718	3,481.93	96.3088	3,481.93	94.4224	3,481.93	94.064	3,481.93	92.1648	3,481.93	91.6175	3,481.93	90.4669	3,481.93	93.5019	3,481.93	88.581	3,481.93	97.8465	3,481.93	85.1334	3,481.93	88.0333	3,481.93	87.0655	3,481.93	90.4319	3,481.93	83.8165	3,481.93	86.8758	3,481.93	82.5351	3,481.93	78.8923	3,481.93	82.1995	3,481.93	73.2494	3,481.93	79.3023	3,481.93	82.8601	3,481.93	80.2596	3,481.93	78.796	3,481.93	80.5948	3,481.93	59.7339	3,481.93	76.2886	3,481.93	79.4564	3,481.93	70.3705	3,481.93	77.3734	3,481.93	74.9923
3,604.98	97.4028	3,604.98	96.8765	3,604.98	95.43	3,604.98	96.2933	3,604.98	95.3454	3,604.98	96.9481	3,604.98	96.9463	3,604.98	93.8083	3,604.98	95.6975	3,604.98	92.4	3,604.98	89.6577	3,604.98	91.3352	3,604.98	96.1204	3,604.98	90.0124	3,604.98	96.7787	3,604.98	89.0805	3,604.98	92.3668	3,604.98	86.3622	3,604.98	92.4643	3,604.98	84.3983	3,604.98	89.7879	3,604.98	82.8307	3,604.98	84.7849	3,604.98	82.6528	3,604.98	81.4391	3,604.98	80.3806	3,604.98	82.8174	3,604.98	81.1482	3,604.98	79.2091	3,604.98	80.5783	3,604.98	59.8358	3,604.98	76.3162	3,604.98	78.1799	3,604.98	70.0856	3,604.98	78.3438	3,604.98	73.846
3,732.42	98.0701	3,732.42	96.6317	3,732.42	97.4244	3,732.42	96.0725	3,732.42	95.0278	3,732.42	97.0656	3,732.42	97.0948	3,732.42	93.8705	3,732.42	96.2864	3,732.42	92.8647	3,732.42	88.9318	3,732.42	91.7667	3,732.42	96.0951	3,732.42	91.3745	3,732.42	95.8817	3,732.42	87.1869	3,732.42	91.7365	3,732.42	87.2277	3,732.42	91.9298	3,732.42	85.2944	3,732.42	89.0663	3,732.42	82.6929	3,732.42	85.9796	3,732.42	82.1757	3,732.42	84.601	3,732.42	82.4921	3,732.42	81.3612	3,732.42	81.862	3,732.42	76.7292	3,732.42	80.8878	3,732.42	69.4877	3,732.42	80.0952	3,732.42	79.5474	3,732.42	71.6642	3,732.42	77.7245	3,732.42	73.2065
3,864.26	97.4026	3,864.26	95.4311	3,864.26	97.1482	3,864.26	97.3633	3,864.26	96.3505	3,864.26	96.6246	3,864.26	96.6031	3,864.26	94.0867	3,864.26	96.638	3,864.26	93.7391	3,864.26	89.9822	3,864.26	93.1047	3,864.26	96.6948	3,864.26	89.9649	3,864.26	93.535	3,864.26	89.6409	3,864.26	91.4432	3,864.26	85.4739	3,864.26	85.4065	3,864.26	85.1365	3,864.26	84.2892	3,864.26	82.4714	3,864.26	85.2973	3,864.26	81.8967	3,864.26	82.1027	3,864.26	83.2132	3,864.26	81.9812	3,864.26	80.3185	3,864.26	74.1059	3,864.26	81.4561	3,864.26	70.2894	3,864.26	80.149	3,864.26	82.2307	3,864.26	65.6764	3,864.26	76.4407	3,864.26	68.0476
4,000.49	97.093	4,000.49	96.203	4,000.49	96.7911	4,000.49	97.6524	4,000.49	95.2893	4,000.49	96.4484	4,000.49	96.5654	4,000.49	93.9219	4,000.49	95.1788	4,000.49	93.7903	4,000.49	92.0813	4,000.49	91.5204	4,000.49	94.5846	4,000.49	90.4363	4,000.49	90.9176	4,000.49	88.4944	4,000.49	91.2409	4,000.49	82.8515	4,000.49	84.9298	4,000.49	82.4518	4,000.49	81.6104	4,000.49	80.8742	4,000.49	79.7779	4,000.49	82.5563	4,000.49	80.1616	4,000.49	77.934	4,000.49	81.3645	4,000.49	80.6638	4,000.49	79.1765	4,000.49	81.1403	4,000.49	74.4109	4,000.49	79.707	4,000.49	80.8222	4,000.49	69.039	4,000.49	77.6415	4,000.49	66.1273
4,141.11	97.0786	4,141.11	97.2391	4,141.11	97.9804	4,141.11	97.3751	4,141.11	95.8969	4,141.11	95.3512	4,141.11	97.1501	4,141.11	94.3528	4,141.11	96.3068	4,141.11	93.8702	4,141.11	92.5889	4,141.11	92.0961	4,141.11	93.6864	4,141.11	90.4783	4,141.11	90.1477	4,141.11	87.2081	4,141.11	89.5724	4,141.11	90.2948	4,141.11	89.0778	4,141.11	83.8807	4,141.11	69.9914	4,141.11	84.1738	4,141.11	70.5261	4,141.11	80.6535	4,141.11	75.591	4,141.11	80.4181	4,141.11	82.6148	4,141.11	81.3127	4,141.11	75.9537	4,141.11	80.9148	4,141.11	72.8938	4,141.11	78.755	4,141.11	77.0389	4,141.11	76.1209	4,141.11	76.7795	4,141.11	70.4772
4,287.6	97.5478	4,287.6	96.4883	4,287.6	97.6278	4,287.6	97.3825	4,287.6	96.896	4,287.6	96.4927	4,287.6	96.2616	4,287.6	95.058	4,287.6	96.6561	4,287.6	93.4476	4,287.6	92.8897	4,287.6	91.7715	4,287.6	93.6881	4,287.6	90.7381	4,287.6	92.5507	4,287.6	88.4289	4,287.6	91.6101	4,287.6	84.2367	4,287.6	89.2818	4,287.6	83.516	4,287.6	80.6474	4,287.6	80.8464	4,287.6	80.4277	4,287.6	80.9132	4,287.6	75.8726	4,287.6	81.6366	4,287.6	79.7728	4,287.6	80.1937	4,287.6	69.0348	4,287.6	80.0618	4,287.6	73.806	4,287.6	81.0864	4,287.6	77.4745	4,287.6	73.2501	4,287.6	73.805	4,287.6	66.2835
4,438.48	97.8308	4,438.48	97.0612	4,438.48	97.6042	4,438.48	97.2027	4,438.48	96.7889	4,438.48	95.6628	4,438.48	95.4409	4,438.48	94.5004	4,438.48	95.8234	4,438.48	93.7181	4,438.48	93.985	4,438.48	91.5951	4,438.48	93.5122	4,438.48	89.6102	4,438.48	95.5789	4,438.48	86.0659	4,438.48	90.4745	4,438.48	85.2734	4,438.48	85.6679	4,438.48	82.57	4,438.48	83.2754	4,438.48	81.3845	4,438.48	83.7207	4,438.48	81.3233	4,438.48	81.3327	4,438.48	80.0339	4,438.48	78.5513	4,438.48	78.7039	4,438.48	77.4577	4,438.48	80.9722	4,438.48	72.974	4,438.48	81.5915	4,438.48	78.0526	4,438.48	68.9809	4,438.48	72.0256	4,438.48	62.6634
4,595.21	96.2193	4,595.21	97.5591	4,595.21	97.9195	4,595.21	96.0478	4,595.21	96.6955	4,595.21	96.9657	4,595.21	95.9687	4,595.21	93.5509	4,595.21	95.1167	4,595.21	93.8854	4,595.21	92.2825	4,595.21	90.3098	4,595.21	92.9445	4,595.21	89.6609	4,595.21	93.5672	4,595.21	88.4099	4,595.21	88.9608	4,595.21	83.2637	4,595.21	80.4434	4,595.21	83.4481	4,595.21	81.692	4,595.21	81.3069	4,595.21	81.4105	4,595.21	79.5117	4,595.21	81.6497	4,595.21	80.6014	4,595.21	79.4411	4,595.21	79.0376	4,595.21	75.8435	4,595.21	79.2046	4,595.21	72.6503	4,595.21	79.2096	4,595.21	76.7763	4,595.21	72.462	4,595.21	71.9929	4,595.21	69.0242
4,756.35	97.3309	4,756.35	97.2201	4,756.35	97.7592	4,756.35	96.7933	4,756.35	97.0178	4,756.35	97.4787	4,756.35	96.7063	4,756.35	93.9746	4,756.35	95.0935	4,756.35	92.9392	4,756.35	88.586	4,756.35	92.6485	4,756.35	92.0572	4,756.35	88.7451	4,756.35	92.1154	4,756.35	88.3676	4,756.35	88.4015	4,756.35	87.3998	4,756.35	83.0619	4,756.35	83.4867	4,756.35	72.5153	4,756.35	82.0969	4,756.35	69.2689	4,756.35	80.8322	4,756.35	78.6494	4,756.35	78.9092	4,756.35	74.7677	4,756.35	79.5402	4,756.35	68.0725	4,756.35	81.4462	4,756.35	75.2937	4,756.35	80.9551	4,756.35	73.2413	4,756.35	78.9539	4,756.35	69.8355	4,756.35	68.6972
4,924.8	97.7224	4,924.8	97.6679	4,924.8	98.5271	4,924.8	97.2104	4,924.8	97.0296	4,924.8	96.0028	4,924.8	96.9325	4,924.8	94.2175	4,924.8	95.8113	4,924.8	93.0897	4,924.8	87.7959	4,924.8	91.2083	4,924.8	90.7715	4,924.8	90.7034	4,924.8	90.4193	4,924.8	86.1845	4,924.8	84.3409	4,924.8	82.3904	4,924.8	73.8231	4,924.8	81.2629	4,924.8	83.908	4,924.8	80.1472	4,924.8	75.8438	4,924.8	79.374	4,924.8	80.3321	4,924.8	77.961	4,924.8	79.3292	4,924.8	78.0847	4,924.8	67.0441	4,924.8	80.4332	4,924.8	71.9482	4,924.8	79.1169	4,924.8	72.6171	4,924.8	73.7359	4,924.8	71.3513	4,924.8	62.8549
5,097.66	97.3697	5,097.66	96.3443	5,097.66	97.2333	5,097.66	96.8492	5,097.66	98.3383	5,097.66	97.0149	5,097.66	97.2035	5,097.66	93.9804	5,097.66	96.0298	5,097.66	93.0254	5,097.66	91.2613	5,097.66	92.0346	5,097.66	89.6473	5,097.66	88.078	5,097.66	84.3182	5,097.66	87.5302	5,097.66	84.2198	5,097.66	83.5979	5,097.66	82.2889	5,097.66	82.038	5,097.66	83.826	5,097.66	78.8454	5,097.66	76.7135	5,097.66	78.3142	5,097.66	77.6343	5,097.66	78.6119	5,097.66	78.9005	5,097.66	76.7434	5,097.66	64.3961	5,097.66	81.0179	5,097.66	69.8255	5,097.66	80.4904	5,097.66	77.4292	5,097.66	74.001	5,097.66	69.7937	5,097.66	66.2947
5,277.83	97.6873	5,277.83	96.9598	5,277.83	97.2206	5,277.83	97.5127	5,277.83	97.9177	5,277.83	96.039	5,277.83	96.9522	5,277.83	93.9541	5,277.83	96.8004	5,277.83	93.8522	5,277.83	93.2522	5,277.83	90.4706	5,277.83	84.8869	5,277.83	89.1397	5,277.83	87.3944	5,277.83	84.825	5,277.83	86.6753	5,277.83	84.2862	5,277.83	82.9548	5,277.83	82.0892	5,277.83	82.5094	5,277.83	79.7879	5,277.83	81.2718	5,277.83	79.5237	5,277.83	73.4655	5,277.83	76.5981	5,277.83	80.8693	5,277.83	78.8949	5,277.83	73.2931	5,277.83	81.6139	5,277.83	61.8376	5,277.83	78.4961	5,277.83	75.578	5,277.83	77.1127	5,277.83	67.2135	5,277.83	67.6995
5,463.87	97.2045	5,463.87	96.7442	5,463.87	97.7198	5,463.87	97.3182	5,463.87	96.444	5,463.87	96.4571	5,463.87	95.5123	5,463.87	93.7759	5,463.87	98.0553	5,463.87	93.3031	5,463.87	92.8896	5,463.87	90.6928	5,463.87	81.4797	5,463.87	87.9808	5,463.87	88.6478	5,463.87	86.9442	5,463.87	90.6723	5,463.87	82.9512	5,463.87	80.3614	5,463.87	80.4915	5,463.87	80.3302	5,463.87	79.408	5,463.87	80.3215	5,463.87	79.8438	5,463.87	77.3295	5,463.87	76.6247	5,463.87	81.0123	5,463.87	79.3878	5,463.87	69.8524	5,463.87	78.2316	5,463.87	72.2873	5,463.87	79.6934	5,463.87	71.4835	5,463.87	74.6547	5,463.87	66.3421	5,463.87	70.0214
5,657.23	96.6996	5,657.23	96.311	5,657.23	97.2497	5,657.23	96.4941	5,657.23	97.4354	5,657.23	95.9745	5,657.23	94.6143	5,657.23	94.2078	5,657.23	98.8455	5,657.23	92.4162	5,657.23	92.8634	5,657.23	91.6579	5,657.23	80.8583	5,657.23	87.4597	5,657.23	91.2218	5,657.23	84.9806	5,657.23	91.5508	5,657.23	82.8402	5,657.23	85.5163	5,657.23	80.0546	5,657.23	80.6691	5,657.23	78.5575	5,657.23	79.2319	5,657.23	77.7273	5,657.23	73.8883	5,657.23	76.9244	5,657.23	73.8168	5,657.23	78.8297	5,657.23	66.2706	5,657.23	77.3671	5,657.23	68.8072	5,657.23	79.9052	5,657.23	73.3879	5,657.23	74.0927	5,657.23	65.7033	5,657.23	70.2779
5,856.45	96.4131	5,856.45	96.3873	5,856.45	95.7254	5,856.45	96.4922	5,856.45	98.2178	5,856.45	95.9907	5,856.45	94.6436	5,856.45	94.221	5,856.45	98.0152	5,856.45	92.6446	5,856.45	93.2816	5,856.45	90.5254	5,856.45	84.6681	5,856.45	87.1588	5,856.45	92.6657	5,856.45	84.623	5,856.45	89.8308	5,856.45	83.6531	5,856.45	87.198	5,856.45	79.4974	5,856.45	79.5115	5,856.45	79.65	5,856.45	79.8092	5,856.45	77.4108	5,856.45	71.9409	5,856.45	77.6829	5,856.45	73.8585	5,856.45	76.99	5,856.45	71.2244	5,856.45	77.1628	5,856.45	72.2991	5,856.45	79.7351	5,856.45	74.0864	5,856.45	77.7147	5,856.45	70.4538	5,856.45	72.4378
6,062.99	96.1486	6,062.99	96.3887	6,062.99	96.4378	6,062.99	94.9917	6,062.99	95.8277	6,062.99	96.6726	6,062.99	95.9821	6,062.99	93.4826	6,062.99	95.8285	6,062.99	92.2557	6,062.99	91.9595	6,062.99	90.7023	6,062.99	88.1928	6,062.99	87.9065	6,062.99	94.4511	6,062.99	86.3194	6,062.99	89.3721	6,062.99	85.2221	6,062.99	81.961	6,062.99	79.7228	6,062.99	73.6369	6,062.99	80.6019	6,062.99	77.8249	6,062.99	75.6443	6,062.99	72.9165	6,062.99	77.6067	6,062.99	71.0815	6,062.99	77.2568	6,062.99	69.9683	6,062.99	78.9538	6,062.99	70.1535	6,062.99	80.1074	6,062.99	73.5751	6,062.99	74.6294	6,062.99	66.4305	6,062.99	72.5215
6,276.86	95.6992	6,276.86	95.8017	6,276.86	96.4173	6,276.86	95.1238	6,276.86	94.6357	6,276.86	96.3095	6,276.86	94.1753	6,276.86	93.9385	6,276.86	94.0462	6,276.86	91.8599	6,276.86	90.2599	6,276.86	91.2723	6,276.86	89.7141	6,276.86	88.6345	6,276.86	93.5982	6,276.86	85.6626	6,276.86	88.0196	6,276.86	83.7069	6,276.86	84.4411	6,276.86	80.6072	6,276.86	74.9388	6,276.86	77.9422	6,276.86	75.1404	6,276.86	77.6347	6,276.86	67.9485	6,276.86	78.3359	6,276.86	71.1721	6,276.86	77.7537	6,276.86	68.3457	6,276.86	78.5767	6,276.86	69.9445	6,276.86	79.2911	6,276.86	66.9735	6,276.86	77.1916	6,276.86	63.1876	6,276.86	74.5293
6,498.05	96.2801	6,498.05	96.5228	6,498.05	96.3669	6,498.05	95.5741	6,498.05	96.1824	6,498.05	95.5483	6,498.05	92.78	6,498.05	94.363	6,498.05	91.8915	6,498.05	91.9574	6,498.05	91.658	6,498.05	91.2004	6,498.05	90.3834	6,498.05	88.0493	6,498.05	91.7649	6,498.05	86.2024	6,498.05	85.0012	6,498.05	83.526	6,498.05	85.1875	6,498.05	80.3133	6,498.05	78.1542	6,498.05	80.2243	6,498.05	75.8293	6,498.05	78.9973	6,498.05	72.6079	6,498.05	76.8689	6,498.05	71.7761	6,498.05	79.0766	6,498.05	69.3101	6,498.05	79.1654	6,498.05	70.5918	6,498.05	78.8127	6,498.05	61.2379	6,498.05	76.1318	6,498.05	68.6278	6,498.05	72.5141
6,726.56	96.1422	6,726.56	95.3597	6,726.56	96.2255	6,726.56	95.3313	6,726.56	95.7333	6,726.56	95.0987	6,726.56	93.5144	6,726.56	93.1731	6,726.56	90.7989	6,726.56	92.1331	6,726.56	92.3549	6,726.56	91.2899	6,726.56	89.5718	6,726.56	89.2145	6,726.56	89.1288	6,726.56	86.6891	6,726.56	88.8955	6,726.56	82.869	6,726.56	83.0242	6,726.56	81.2257	6,726.56	65.4492	6,726.56	78.1003	6,726.56	74.3646	6,726.56	77.7752	6,726.56	72.8955	6,726.56	77.176	6,726.56	65.8905	6,726.56	79.145	6,726.56	64.0533	6,726.56	76.7501	6,726.56	70.1834	6,726.56	78.277	6,726.56	66.9479	6,726.56	77.7839	6,726.56	69.9343	6,726.56	72.1727
6,963.87	96.9724	6,963.87	95.2809	6,963.87	94.5428	6,963.87	95.3401	6,963.87	94.0931	6,963.87	94.7141	6,963.87	95.6149	6,963.87	92.7747	6,963.87	88.8501	6,963.87	93.0882	6,963.87	94.3715	6,963.87	91.6877	6,963.87	88.1225	6,963.87	89.2732	6,963.87	84.846	6,963.87	85.5263	6,963.87	88.5683	6,963.87	81.5619	6,963.87	85.2327	6,963.87	79.5818	6,963.87	76.3606	6,963.87	77.8744	6,963.87	73.3125	6,963.87	78.0599	6,963.87	73.7975	6,963.87	75.5517	6,963.87	69.4	6,963.87	77.9178	6,963.87	70.9305	6,963.87	76.4634	6,963.87	68.518	6,963.87	77.7223	6,963.87	66.6486	6,963.87	76.7632	6,963.87	67.442	6,963.87	68.7342
7,209.96	96.3369	7,209.96	95.2866	7,209.96	96.4229	7,209.96	95.4161	7,209.96	93.9145	7,209.96	94.1492	7,209.96	95.019	7,209.96	92.0882	7,209.96	91.9363	7,209.96	93.0034	7,209.96	95.723	7,209.96	91.3799	7,209.96	86.9292	7,209.96	88.1655	7,209.96	86.2521	7,209.96	86.1729	7,209.96	89.0649	7,209.96	81.6277	7,209.96	82.0971	7,209.96	79.5793	7,209.96	78.5055	7,209.96	76.0851	7,209.96	72.1542	7,209.96	77.9237	7,209.96	69.0409	7,209.96	75.8343	7,209.96	70.8266	7,209.96	76.4918	7,209.96	66.8192	7,209.96	74.8818	7,209.96	65.1565	7,209.96	77.5458	7,209.96	58.3486	7,209.96	74.253	7,209.96	60.1685	7,209.96	67.513
7,464.84	94.7742	7,464.84	95.9585	7,464.84	96.0772	7,464.84	94.6523	7,464.84	94.7113	7,464.84	93.2681	7,464.84	93.858	7,464.84	93.1998	7,464.84	96.2341	7,464.84	92.5736	7,464.84	94.8397	7,464.84	91.4678	7,464.84	89.7821	7,464.84	87.7688	7,464.84	84.7298	7,464.84	84.238	7,464.84	87.6991	7,464.84	80.4113	7,464.84	74.0653	7,464.84	78.7417	7,464.84	73.3568	7,464.84	77.591	7,464.84	68.7396	7,464.84	75.9812	7,464.84	62.2308	7,464.84	76.3863	7,464.84	74.9687	7,464.84	76.5075	7,464.84	62.6274	7,464.84	71.8182	7,464.84	68.0499	7,464.84	75.0922	7,464.84	62.4413	7,464.84	75.2074	7,464.84	66.6792	7,464.84	68.0625
7,727.05	95.0507	7,727.05	96.0428	7,727.05	95.3284	7,727.05	93.9334	7,727.05	94.1219	7,727.05	93.8749	7,727.05	95.6109	7,727.05	92.5178	7,727.05	97.6397	7,727.05	92.1292	7,727.05	93.7812	7,727.05	91.2481	7,727.05	90.4522	7,727.05	86.84	7,727.05	84.5479	7,727.05	84.0714	7,727.05	85.611	7,727.05	81.2118	7,727.05	80.2529	7,727.05	77.1612	7,727.05	76.6738	7,727.05	75.8388	7,727.05	67.0189	7,727.05	74.4864	7,727.05	62.2823	7,727.05	74.8773	7,727.05	71.433	7,727.05	76.2241	7,727.05	64.9141	7,727.05	70.9249	7,727.05	70.0322	7,727.05	75.4831	7,727.05	53.1725	7,727.05	74.1494	7,727.05	67.0955	7,727.05	63.6703
7,999.51	94.3938	7,999.51	95.2308	7,999.51	95.166	7,999.51	93.7492	7,999.51	95.1551	7,999.51	93.2331	7,999.51	96.175	7,999.51	92.9807	7,999.51	97.57	7,999.51	92.154	7,999.51	92.9617	7,999.51	90.4379	7,999.51	91.7086	7,999.51	85.9139	7,999.51	82.2793	7,999.51	83.469	7,999.51	84.0745	7,999.51	78.7645	7,999.51	81.0086	7,999.51	77.8343	7,999.51	79.341	7,999.51	74.0503	7,999.51	69.0153	7,999.51	73.5945	7,999.51	72.6016	7,999.51	73.9729	7,999.51	71.4776	7,999.51	75.488	7,999.51	69.9719	7,999.51	71.2228	7,999.51	59.9729	7,999.51	72.6239	7,999.51	55.7372	7,999.51	72.6724	7,999.51	52.4439	7,999.51	68.1123
8,282.23	94.111	8,282.23	94.8831	8,282.23	92.6277	8,282.23	94.3004	8,282.23	94.3237	8,282.23	93.1914	8,282.23	95.3433	8,282.23	93.2742	8,282.23	94.8051	8,282.23	92.034	8,282.23	93.5507	8,282.23	89.5329	8,282.23	91.272	8,282.23	84.6172	8,282.23	79.1252	8,282.23	81.7663	8,282.23	84.5266	8,282.23	79.7827	8,282.23	78.8082	8,282.23	77.8093	8,282.23	76.691	8,282.23	75.7225	8,282.23	60.9537	8,282.23	73.8562	8,282.23	72.061	8,282.23	73.5479	8,282.23	53.88	8,282.23	74.063	8,282.23	72.9241	8,282.23	73.1536	8,282.23	63.2466	8,282.23	72.4362	8,282.23	54.4253	8,282.23	72.8579	8,282.23	63.7613	8,282.23	67.0072
8,573.73	93.5237	8,573.73	94.394	8,573.73	92.998	8,573.73	93.2608	8,573.73	93.2177	8,573.73	94.2197	8,573.73	94.3081	8,573.73	93.1869	8,573.73	91.9501	8,573.73	91.476	8,573.73	93.4121	8,573.73	89.1312	8,573.73	87.8343	8,573.73	84.6873	8,573.73	81.7353	8,573.73	83.9622	8,573.73	87.7604	8,573.73	79.0656	8,573.73	81.2936	8,573.73	76.8207	8,573.73	77.2086	8,573.73	73.9525	8,573.73	69.8249	8,573.73	75.4247	8,573.73	74.6449	8,573.73	74.7185	8,573.73	63.5418	8,573.73	74.5356	8,573.73	76.2585	8,573.73	70.657	8,573.73	71.5025	8,573.73	71.7669	8,573.73	60.18	8,573.73	73.7903	8,573.73	56.5039	8,573.73	69.3102
8,876.95	93.5636	8,876.95	94.3158	8,876.95	92.2944	8,876.95	93.8951	8,876.95	95.5574	8,876.95	94.7385	8,876.95	95.0936	8,876.95	93.1341	8,876.95	91.7504	8,876.95	91.62	8,876.95	92.3566	8,876.95	88.7653	8,876.95	85.3429	8,876.95	86.2785	8,876.95	84.7403	8,876.95	83.6094	8,876.95	89.8377	8,876.95	80.5765	8,876.95	83.3883	8,876.95	77.457	8,876.95	75.278	8,876.95	76.5602	8,876.95	70.7005	8,876.95	75.0441	8,876.95	74.9313	8,876.95	76.8141	8,876.95	65.1753	8,876.95	74.5496	8,876.95	75.8595	8,876.95	68.3863	8,876.95	66.2174	8,876.95	71.5905	8,876.95	60.6952	8,876.95	70.5036	8,876.95	53.8947	8,876.95	68.6657
9,188.96	93.4327	9,188.96	93.7645	9,188.96	94.1157	9,188.96	94.3896	9,188.96	94.0669	9,188.96	95.0387	9,188.96	95.7841	9,188.96	93.6098	9,188.96	91.4134	9,188.96	90.72	9,188.96	91.1755	9,188.96	90.4961	9,188.96	85.7018	9,188.96	86.4361	9,188.96	87.0545	9,188.96	84.748	9,188.96	87.6075	9,188.96	80.9158	9,188.96	81.8433	9,188.96	77.2967	9,188.96	78.5744	9,188.96	71.4248	9,188.96	76.451	9,188.96	75.324	9,188.96	69.4637	9,188.96	76.5305	9,188.96	68.1117	9,188.96	73.3333	9,188.96	71.0797	9,188.96	70.5138	9,188.96	64.7017	9,188.96	72.2912	9,188.96	57.992	9,188.96	69.1997	9,188.96	58.5081	9,188.96	67.4016
9,514.16	94.5503	9,514.16	94.3986	9,514.16	95.003	9,514.16	94.6598	9,514.16	95.0039	9,514.16	95.6564	9,514.16	94.5199	9,514.16	92.2556	9,514.16	92.8006	9,514.16	91.8317	9,514.16	90.11	9,514.16	90.9129	9,514.16	90.5984	9,514.16	87.3671	9,514.16	85.8413	9,514.16	83.0919	9,514.16	86.0722	9,514.16	79.7045	9,514.16	82.2397	9,514.16	72.6552	9,514.16	79.5073	9,514.16	77.4381	9,514.16	73.9526	9,514.16	73.0764	9,514.16	69.2904	9,514.16	73.5653	9,514.16	67.9223	9,514.16	72.841	9,514.16	73.2723	9,514.16	70.9825	9,514.16	55.6755	9,514.16	73.4339	9,514.16	49.3534	9,514.16	69.5198	9,514.16	58.5207	9,514.16	69.8588
9,849.61	94.713	9,849.61	94.6392	9,849.61	95.9949	9,849.61	95.3177	9,849.61	94.3687	9,849.61	95.3138	9,849.61	93.401	9,849.61	92.3042	9,849.61	94.3356	9,849.61	91.8893	9,849.61	89.2621	9,849.61	91.0135	9,849.61	92.3476	9,849.61	86.1292	9,849.61	84.0686	9,849.61	82.5651	9,849.61	83.3493	9,849.61	78.376	9,849.61	78.0965	9,849.61	73.3906	9,849.61	69.8884	9,849.61	67.8847	9,849.61	63.3916	9,849.61	72.7312	9,849.61	64.395	9,849.61	73.4539	9,849.61	63.5116	9,849.61	72.3745	9,849.61	72.2532	9,849.61	72.7107	9,849.61	63.9253	9,849.61	71.199	9,849.61	62.2421	9,849.61	67.6903	9,849.61	57.5182	9,849.61	64.5414
10,196.8	96.0898	10,196.8	95.1422	10,196.8	96.4276	10,196.8	95.8207	10,196.8	94.7333	10,196.8	94.6294	10,196.8	94.3389	10,196.8	92.5304	10,196.8	94.5255	10,196.8	91.536	10,196.8	89.5784	10,196.8	90.55	10,196.8	91.3174	10,196.8	84.7615	10,196.8	83.2348	10,196.8	81.7526	10,196.8	79.0567	10,196.8	76.0696	10,196.8	74.8991	10,196.8	76.5139	10,196.8	73.11	10,196.8	72.9052	10,196.8	71.5071	10,196.8	68.8361	10,196.8	68.5653	10,196.8	74.4732	10,196.8	62.5085	10,196.8	72.4461	10,196.8	69.5291	10,196.8	70.2467	10,196.8	69.7502	10,196.8	71.2979	10,196.8	63.6276	10,196.8	64.0353	10,196.8	58.4447	10,196.8	66.933
10,555.7	97.0534	10,555.7	96.1528	10,555.7	97.104	10,555.7	96.1066	10,555.7	94.5929	10,555.7	94.1795	10,555.7	94.5036	10,555.7	92.5004	10,555.7	94.3109	10,555.7	91.7099	10,555.7	91.2654	10,555.7	89.5439	10,555.7	89.1648	10,555.7	83.4338	10,555.7	84.9712	10,555.7	79.9082	10,555.7	77.8893	10,555.7	75.1104	10,555.7	75.055	10,555.7	68.1825	10,555.7	66.5818	10,555.7	67.0622	10,555.7	70.5237	10,555.7	71.742	10,555.7	62.1017	10,555.7	72.4792	10,555.7	56.3421	10,555.7	70.2417	10,555.7	62.2015	10,555.7	70.5162	10,555.7	68.8624	10,555.7	68.6856	10,555.7	66.9837	10,555.7	63.3281	10,555.7	53.3456	10,555.7	64.4131
10,927.7	97.9417	10,927.7	97.3507	10,927.7	97.8011	10,927.7	96.5285	10,927.7	95.9311	10,927.7	94.1936	10,927.7	94.1644	10,927.7	92.5107	10,927.7	93.3722	10,927.7	91.0627	10,927.7	91.2962	10,927.7	88.3509	10,927.7	84.7084	10,927.7	81.3787	10,927.7	84.5695	10,927.7	78.1668	10,927.7	76.9489	10,927.7	75.7028	10,927.7	71.4156	10,927.7	73.8306	10,927.7	71.8097	10,927.7	67.9758	10,927.7	73.7598	10,927.7	67.8973	10,927.7	61.9105	10,927.7	71.8424	10,927.7	55.8888	10,927.7	67.8033	10,927.7	61.3971	10,927.7	67.6113	10,927.7	67.0272	10,927.7	65.6763	10,927.7	67.3303	10,927.7	49.7724	10,927.7	55.6197	10,927.7	57.9017
11,313	98.5522	11,313	98.2614	11,313	98.0533	11,313	96.6448	11,313	96.1967	11,313	94.8098	11,313	95.4461	11,313	91.9839	11,313	91.8848	11,313	89.8761	11,313	91.6455	11,313	86.5656	11,313	83.6457	11,313	81.4122	11,313	82.7765	11,313	75.6701	11,313	68.7813	11,313	70.3817	11,313	75.6519	11,313	66.3541	11,313	68.4225	11,313	67.868	11,313	66.8638	11,313	68.7128	11,313	65.1141	11,313	68.7942	11,313	62.3619	11,313	63.6795	11,313	62.7458	11,313	65.402	11,313	65.6549	11,313	53.5599	11,313	64.8311	11,313	58.9617	11,313	48.2401	11,313	60.6682
11,712.9	98.7966	11,712.9	98.7681	11,712.9	98.5709	11,712.9	96.874	11,712.9	96.7507	11,712.9	94.8719	11,712.9	94.9659	11,712.9	91.7999	11,712.9	91.8963	11,712.9	88.1523	11,712.9	90.36	11,712.9	85.1133	11,712.9	83.8912	11,712.9	79.1253	11,712.9	78.3286	11,712.9	74.0459	11,712.9	67.7511	11,712.9	69.7039	11,712.9	70.9746	11,712.9	64.8367	11,712.9	68.0536	11,712.9	63.978	11,712.9	67.6444	11,712.9	63.5825	11,712.9	61.6399	11,712.9	65.3097	11,712.9	47.9964	11,712.9	65.8475	11,712.9	55.2487	11,712.9	64.9373	11,712.9	62.6306	11,712.9	60.5691	11,712.9	62.3445	11,712.9	60.8933	11,712.9	51.3916	11,712.9	60.6236
12,126	99.109	12,126	98.688	12,126	98.6394	12,126	96.8354	12,126	97.1564	12,126	94.7509	12,126	94.545	12,126	90.9068	12,126	92.8847	12,126	86.7344	12,126	87.849	12,126	83.1	12,126	81.5766	12,126	76.0824	12,126	77.6767	12,126	69.7092	12,126	65.1804	12,126	67.3608	12,126	65.4861	12,126	67.88	12,126	60.2224	12,126	59.6977	12,126	64.0639	12,126	60.675	12,126	57.3853	12,126	65.1658	12,126	39.7446	12,126	61.2852	12,126	54.4065	12,126	62.3093	12,126	52.8418	12,126	56.6552	12,126	59.0997	12,126	56.9685	12,126	55.1748	12,126	56.1595
12,553.7	99.0175	12,553.7	98.5437	12,553.7	98.5477	12,553.7	96.7673	12,553.7	96.9093	12,553.7	94.3381	12,553.7	94.6036	12,553.7	90.1625	12,553.7	91.5706	12,553.7	85.215	12,553.7	85.0124	12,553.7	80.6362	12,553.7	80.388	12,553.7	72.1012	12,553.7	76.5139	12,553.7	62.3585	12,553.7	64.9235	12,553.7	66.2511	12,553.7	65.1838	12,553.7	60.3738	12,553.7	51.2269	12,553.7	47.783	12,553.7	62.5755	12,553.7	55.081	12,553.7	55.8704	12,553.7	60.1069	12,553.7	31.7131	12,553.7	58.156	12,553.7	60.057	12,553.7	60.3063	12,553.7	45.2911	12,553.7	53.6882	12,553.7	59.641	12,553.7	57.5829	12,553.7	54.8692	12,553.7	54.1039
12,996.1	98.7922	12,996.1	98.3641	12,996.1	98.2802	12,996.1	96.6045	12,996.1	96.3202	12,996.1	93.8129	12,996.1	93.5911	12,996.1	89.4626	12,996.1	89.3973	12,996.1	83.7395	12,996.1	82.8052	12,996.1	77.191	12,996.1	77.0316	12,996.1	67.5489	12,996.1	72.6819	12,996.1	46.4773	12,996.1	55.6286	12,996.1	55.89	12,996.1	60.3195	12,996.1	60.7974	12,996.1	59.6335	12,996.1	56.8086	12,996.1	61.8022	12,996.1	52.5335	12,996.1	42.161	12,996.1	58.1768	12,996.1	50.3355	12,996.1	45.787	12,996.1	60.5291	12,996.1	52.3392	12,996.1	41.8497	12,996.1	48.0266	12,996.1	52.4292	12,996.1	54.2075	12,996.1	55.6464	12,996.1	47.4878
13,454.6	98.4972	13,454.6	97.9096	13,454.6	97.9502	13,454.6	96.2234	13,454.6	96.0901	13,454.6	93.2581	13,454.6	93.7721	13,454.6	88.702	13,454.6	88.6498	13,454.6	82.4679	13,454.6	81.3626	13,454.6	73.4006	13,454.6	74.3227	13,454.6	60.0444	13,454.6	69.7192	13,454.6	60.1449	13,454.6	57.93	13,454.6	48.4656	13,454.6	41.948	13,454.6	52.4524	13,454.6	59.3685	13,454.6	57.1893	13,454.6	64.3734	13,454.6	40.8536	13,454.6	44.1957	13,454.6	50.7742	13,454.6	41.5731	13,454.6	45.4129	13,454.6	57.0903	13,454.6	35.4443	13,454.6	36.9813	13,454.6	50.7405	13,454.6	54.6542	13,454.6	55.0658	13,454.6	54.4867	13,454.6	40.343
13,929.2	98.142	13,929.2	97.5935	13,929.2	97.5683	13,929.2	95.5731	13,929.2	95.5246	13,929.2	92.4661	13,929.2	92.7768	13,929.2	87.4249	13,929.2	87.5051	13,929.2	79.6483	13,929.2	80.3933	13,929.2	65.8174	13,929.2	71.4829	13,929.2	61.9433	13,929.2	63.9453	13,929.2	64.3703	13,929.2	62.0578	13,929.2	56.9031	13,929.2	42.2818	13,929.2	59.0139	13,929.2	63.6546	13,929.2	47.5493	13,929.2	63.9137	13,929.2	51.9632	13,929.2	51.7165	13,929.2	54.3962	13,929.2	39.3924	13,929.2	52.1434	13,929.2	55.8187	13,929.2	43.5439	13,929.2	44.1017	13,929.2	54.7611	13,929.2	48.8904	13,929.2	54.1556	13,929.2	48.7048	13,929.2	44.4386
14,419.9	97.401	14,419.9	96.7812	14,419.9	96.9698	14,419.9	94.6679	14,419.9	95.0474	14,419.9	91.3114	14,419.9	91.9714	14,419.9	86.1661	14,419.9	86.6163	14,419.9	77.2375	14,419.9	77.3842	14,419.9	67.1377	14,419.9	64.6848	14,419.9	65.5241	14,419.9	64.8838	14,419.9	66.2729	14,419.9	65.2583	14,419.9	61.4938	14,419.9	53.5675	14,419.9	61.5032	14,419.9	60.5681	14,419.9	54.8399	14,419.9	61.7267	14,419.9	55.7106	14,419.9	44.3943	14,419.9	56.7702	14,419.9	44.6335	14,419.9	54.7838	14,419.9	56.0857	14,419.9	55.3084	14,419.9	49.7611	14,419.9	56.0886	14,419.9	38.7789	14,419.9	53.0289	14,419.9	39.504	14,419.9	39.4835
14,928.2	96.7516	14,928.2	96.0415	14,928.2	96.462	14,928.2	93.7884	14,928.2	94.5122	14,928.2	90.0146	14,928.2	91.3029	14,928.2	84.5729	14,928.2	85.6442	14,928.2	76.1626	14,928.2	73.5002	14,928.2	71.3138	14,928.2	67.0562	14,928.2	68.2009	14,928.2	70.7296	14,928.2	68.3168	14,928.2	66.0504	14,928.2	63.6446	14,928.2	59.186	14,928.2	64.316	14,928.2	60.3453	14,928.2	50.8601	14,928.2	60.9471	14,928.2	61.2405	14,928.2	38.0061	14,928.2	61.4578	14,928.2	43.1418	14,928.2	57.4031	14,928.2	56.8702	14,928.2	57.112	14,928.2	46.8507	14,928.2	56.8141	14,928.2	40.0475	14,928.2	52.9214	14,928.2	44.8521	14,928.2	48.225
15,455.6	96.1745	15,455.6	95.3366	15,455.6	96.022	15,455.6	93.1643	15,455.6	94.1988	15,455.6	89.0661	15,455.6	90.3057	15,455.6	83.1514	15,455.6	84.7944	15,455.6	77.0561	15,455.6	64.539	15,455.6	73.5876	15,455.6	73.8136	15,455.6	73.3738	15,455.6	73.7181	15,455.6	70.5286	15,455.6	65.496	15,455.6	66.053	15,455.6	59.1138	15,455.6	63.7281	15,455.6	60.6135	15,455.6	57.3522	15,455.6	62.2266	15,455.6	62.5139	15,455.6	46.9243	15,455.6	61.5992	15,455.6	49.0853	15,455.6	57.9565	15,455.6	56.5998	15,455.6	58.5137	15,455.6	37.2549	15,455.6	53.6555	15,455.6	49.8217	15,455.6	53.1536	15,455.6	51.5826	15,455.6	48.5489
16,000.5	95.6441	16,000.5	94.8442	16,000.5	95.4016	16,000.5	92.7287	16,000.5	93.7821	16,000.5	88.3621	16,000.5	89.6421	16,000.5	81.3237	16,000.5	83.2703	16,000.5	76.7027	16,000.5	69.0843	16,000.5	73.956	16,000.5	76.499	16,000.5	74.6528	16,000.5	70.424	16,000.5	70.4217	16,000.5	69.6118	16,000.5	65.0592	16,000.5	55.0354	16,000.5	61.8465	16,000.5	63.3737	16,000.5	56.5191	16,000.5	64.9183	16,000.5	60.7192	16,000.5	47.1695	16,000.5	59.9735	16,000.5	52.6483	16,000.5	56.0065	16,000.5	56.6586	16,000.5	57.7696	16,000.5	53.4397	16,000.5	53.393	16,000.5	55.5809	16,000.5	49.3749	16,000.5	56.3815	16,000.5	46.0989
16,564.5	95.1789	16,564.5	94.3532	16,564.5	94.7499	16,564.5	92.2035	16,564.5	92.9186	16,564.5	87.8263	16,564.5	88.5975	16,564.5	81.0123	16,564.5	80.883	16,564.5	74.5071	16,564.5	63.4998	16,564.5	76.1714	16,564.5	71.7751	16,564.5	74.2207	16,564.5	73.6654	16,564.5	68.4087	16,564.5	69.0897	16,564.5	63.1439	16,564.5	46.47	16,564.5	58.5955	16,564.5	64.2435	16,564.5	56.6819	16,564.5	65.5936	16,564.5	59.016	16,564.5	39.3068	16,564.5	56.3375	16,564.5	52.1428	16,564.5	54.3442	16,564.5	58.0219	16,564.5	55.858	16,564.5	53.0124	16,564.5	53.2587	16,564.5	57.866	16,564.5	41.6585	16,564.5	57.8129	16,564.5	50.2485
17,148.9	94.8107	17,148.9	94.1913	17,148.9	94.0867	17,148.9	91.8974	17,148.9	91.9903	17,148.9	87.0357	17,148.9	87.4637	17,148.9	80.3859	17,148.9	78.4946	17,148.9	75.4498	17,148.9	71.4399	17,148.9	77.4615	17,148.9	73.7435	17,148.9	71.3594	17,148.9	73.7844	17,148.9	65.3635	17,148.9	66.3643	17,148.9	61.3516	17,148.9	59.1284	17,148.9	57.5728	17,148.9	61.0367	17,148.9	53.8182	17,148.9	59.149	17,148.9	58.0325	17,148.9	43.8049	17,148.9	58.1699	17,148.9	55.5731	17,148.9	53.6325	17,148.9	59.8138	17,148.9	55.3364	17,148.9	53.52	17,148.9	51.1149	17,148.9	59.4558	17,148.9	50.586	17,148.9	58.4726	17,148.9	51.9445
17,752.4	94.2242	17,752.4	93.6024	17,752.4	93.3637	17,752.4	91.1738	17,752.4	90.5341	17,752.4	85.5119	17,752.4	85.2444	17,752.4	79.123	17,752.4	73.3556	17,752.4	77.3706	17,752.4	72.6047	17,752.4	76.6392	17,752.4	74.276	17,752.4	69.5757	17,752.4	68.1522	17,752.4	65.6393	17,752.4	64.0737	17,752.4	61.1738	17,752.4	60.0231	17,752.4	57.8415	17,752.4	60.2406	17,752.4	53.0983	17,752.4	58.0502	17,752.4	57.7215	17,752.4	49.713	17,752.4	55.7637	17,752.4	54.1659	17,752.4	51.5505	17,752.4	57.4217	17,752.4	48.3049	17,752.4	50.6668	17,752.4	49.0896	17,752.4	57.2028	17,752.4	51.8446	17,752.4	53.3043	17,752.4	53.2533
18,379.4	94.0526	18,379.4	93.1952	18,379.4	92.8251	18,379.4	90.1132	18,379.4	89.2639	18,379.4	84.0242	18,379.4	82.8613	18,379.4	77.2318	18,379.4	67.4398	18,379.4	76.5997	18,379.4	73.0477	18,379.4	74.0874	18,379.4	73.4614	18,379.4	71.162	18,379.4	70.9711	18,379.4	65.7223	18,379.4	60.0096	18,379.4	61.8697	18,379.4	52.2783	18,379.4	54.8518	18,379.4	60.0397	18,379.4	56.117	18,379.4	61.6908	18,379.4	58.5416	18,379.4	51.9226	18,379.4	58.031	18,379.4	47.4392	18,379.4	52.0644	18,379.4	54.1744	18,379.4	49.2244	18,379.4	46.7103	18,379.4	51.6051	18,379.4	55.2273	18,379.4	54.4052	18,379.4	59.9101	18,379.4	58.8909
19,026.9	93.5902	19,026.9	92.5061	19,026.9	92.0076	19,026.9	89.1743	19,026.9	87.7866	19,026.9	82.4731	19,026.9	80.5451	19,026.9	73.6628	19,026.9	61.3703	19,026.9	74.6569	19,026.9	70.6088	19,026.9	73.6826	19,026.9	70.909	19,026.9	71.6168	19,026.9	64.8359	19,026.9	65.1036	19,026.9	58.8595	19,026.9	62.6086	19,026.9	50.5997	19,026.9	53.1364	19,026.9	60.9485	19,026.9	57.0786	19,026.9	62.1275	19,026.9	58.4618	19,026.9	50.488	19,026.9	56.0441	19,026.9	51.7731	19,026.9	51.4234	19,026.9	51.0787	19,026.9	49.7351	19,026.9	51.1699	19,026.9	48.8809	19,026.9	53.7586	19,026.9	50.8729	19,026.9	51.6176	19,026.9	45.158
19,697.8	92.5597	19,697.8	91.4472	19,697.8	90.8521	19,697.8	88.052	19,697.8	86.4052	19,697.8	81.1091	19,697.8	77.5985	19,697.8	72.8425	19,697.8	60.5287	19,697.8	73.451	19,697.8	71.0063	19,697.8	74.8026	19,697.8	68.9832	19,697.8	71.3366	19,697.8	65.805	19,697.8	65.5273	19,697.8	60.8657	19,697.8	61.9598	19,697.8	56.9103	19,697.8	51.6506	19,697.8	60.1426	19,697.8	54.978	19,697.8	60.0613	19,697.8	56.6393	19,697.8	47.5492	19,697.8	53.7772	19,697.8	53.1294	19,697.8	51.2698	19,697.8	48.2175	19,697.8	51.0171	19,697.8	47.859	19,697.8	48.2543	19,697.8	47.6545	19,697.8	51.0494	19,697.8	42.906	19,697.8	33.0898
19,999.5	92.1829	19,999.5	91.1685	19,999.5	90.4065	19,999.5	87.4381	19,999.5	85.7557	19,999.5	80.3742	19,999.5	77.3157	19,999.5	72.4246	19,999.5	64.8872	19,999.5	74.5047	19,999.5	73.7182	19,999.5	74.7262	19,999.5	70.6969	19,999.5	69.9257	19,999.5	66.7875	19,999.5	64.9847	19,999.5	48.3117	19,999.5	60.5182	19,999.5	57.0123	19,999.5	50.6191	19,999.5	59.0956	19,999.5	58.6841	19,999.5	57.433	19,999.5	57.7795	19,999.5	52.7458	19,999.5	44.8085	19,999.5	59.5027	19,999.5	56.8712	19,999.5	57.0729	19,999.5	49.4827	19,999.5	52.4127	19,999.5	43.1261	19,999.5	56.0827	19,999.5	53.9482	19,999.5	50.6406	19,999.5	45.8199
