"SPL Horizontal"
"On-Axis"		"10°"		"-10°"		"20°"		"-20°"		"30°"		"-30°"		"40°"		"-40°"		"50°"		"-50°"		"60°"		"-60°"		"70°"		"-70°"		"80°"		"-80°"		"90°"		"-90°"		"100°"		"-100°"		"110°"		"-110°"		"120°"		"-120°"		"130°"		"-130°"		"140°"		"-140°"		"150°"		"-150°"		"160°"		"-160°"		"170°"		"-170°"		"180°"
"Frequency [Hz]"	"Sound Pessure Level [dB]  / [2.83V 1m] "	"Frequency [Hz]"	"Sound Pessure Level [dB]  / [2.83V 1m] "	"Frequency [Hz]"	"Sound Pessure Level [dB]  / [2.83V 1m] "	"Frequency [Hz]"	"Sound Pessure Level [dB]  / [2.83V 1m] "	"Frequency [Hz]"	"Sound Pessure Level [dB]  / [2.83V 1m] "	"Frequency [Hz]"	"Sound Pessure Level [dB]  / [2.83V 1m] "	"Frequency [Hz]"	"Sound Pessure Level [dB]  / [2.83V 1m] "	"Frequency [Hz]"	"Sound Pessure Level [dB]  / [2.83V 1m] "	"Frequency [Hz]"	"Sound Pessure Level [dB]  / [2.83V 1m] "	"Frequency [Hz]"	"Sound Pessure Level [dB]  / [2.83V 1m] "	"Frequency [Hz]"	"Sound Pessure Level [dB]  / [2.83V 1m] "	"Frequency [Hz]"	"Sound Pessure Level [dB]  / [2.83V 1m] "	"Frequency [Hz]"	"Sound Pessure Level [dB]  / [2.83V 1m] "	"Frequency [Hz]"	"Sound Pessure Level [dB]  / [2.83V 1m] "	"Frequency [Hz]"	"Sound Pessure Level [dB]  / [2.83V 1m] "	"Frequency [Hz]"	"Sound Pessure Level [dB]  / [2.83V 1m] "	"Frequency [Hz]"	"Sound Pessure Level [dB]  / [2.83V 1m] "	"Frequency [Hz]"	"Sound Pessure Level [dB]  / [2.83V 1m] "	"Frequency [Hz]"	"Sound Pessure Level [dB]  / [2.83V 1m] "	"Frequency [Hz]"	"Sound Pessure Level [dB]  / [2.83V 1m] "	"Frequency [Hz]"	"Sound Pessure Level [dB]  / [2.83V 1m] "	"Frequency [Hz]"	"Sound Pessure Level [dB]  / [2.83V 1m] "	"Frequency [Hz]"	"Sound Pessure Level [dB]  / [2.83V 1m] "	"Frequency [Hz]"	"Sound Pessure Level [dB]  / [2.83V 1m] "	"Frequency [Hz]"	"Sound Pessure Level [dB]  / [2.83V 1m] "	"Frequency [Hz]"	"Sound Pessure Level [dB]  / [2.83V 1m] "	"Frequency [Hz]"	"Sound Pessure Level [dB]  / [2.83V 1m] "	"Frequency [Hz]"	"Sound Pessure Level [dB]  / [2.83V 1m] "	"Frequency [Hz]"	"Sound Pessure Level [dB]  / [2.83V 1m] "	"Frequency [Hz]"	"Sound Pessure Level [dB]  / [2.83V 1m] "	"Frequency [Hz]"	"Sound Pessure Level [dB]  / [2.83V 1m] "	"Frequency [Hz]"	"Sound Pessure Level [dB]  / [2.83V 1m] "	"Frequency [Hz]"	"Sound Pessure Level [dB]  / [2.83V 1m] "	"Frequency [Hz]"	"Sound Pessure Level [dB]  / [2.83V 1m] "	"Frequency [Hz]"	"Sound Pessure Level [dB]  / [2.83V 1m] "	"Frequency [Hz]"	"Sound Pessure Level [dB]  / [2.83V 1m] "
20.5078	56.0893	20.5078	56.0466	20.5078	56.2082	20.5078	56.0422	20.5078	56.4335	20.5078	56.0443	20.5078	56.7747	20.5078	56.0372	20.5078	57.2163	20.5078	56.0258	20.5078	57.7264	20.5078	56.0385	20.5078	58.2694	20.5078	56.1258	20.5078	58.8146	20.5078	56.3515	20.5078	59.3376	20.5078	56.7728	20.5078	59.8199	20.5078	57.4099	20.5078	60.2512	20.5078	58.2247	20.5078	60.6312	20.5078	59.1284	20.5078	60.9699	20.5078	60.0153	20.5078	61.2812	20.5078	60.7975	20.5078	61.573	20.5078	61.4212	20.5078	61.8395	20.5078	61.8651	20.5078	62.0593	20.5078	62.1314	20.5078	62.2022	20.5078	62.2359
21.9727	61.9796	21.9727	62.1081	21.9727	61.8871	21.9727	62.259	21.9727	61.8519	21.9727	62.4278	21.9727	61.8992	21.9727	62.6166	21.9727	62.0496	21.9727	62.8319	21.9727	62.3114	21.9727	63.0822	21.9727	62.6771	21.9727	63.3766	21.9727	63.1259	21.9727	63.723	21.9727	63.6303	21.9727	64.1258	21.9727	64.1631	21.9727	64.5826	21.9727	64.7013	21.9727	65.0811	21.9727	65.2267	21.9727	65.5978	21.9727	65.7246	21.9727	66.1011	21.9727	66.1816	21.9727	66.5565	21.9727	66.585	21.9727	66.9332	21.9727	66.9225	21.9727	67.2087	21.9727	67.1815	21.9727	67.3706	21.9727	67.3498	21.9727	67.416
23.4375	62.981	23.4375	62.9366	23.4375	62.9771	23.4375	62.8447	23.4375	62.9267	23.4375	62.7093	23.4375	62.8334	23.4375	62.5396	23.4375	62.7041	23.4375	62.3523	23.4375	62.5513	23.4375	62.1744	23.4375	62.3979	23.4375	62.0463	23.4375	62.2801	23.4375	62.0198	23.4375	62.2452	23.4375	62.1469	23.4375	62.337	23.4375	62.4583	23.4375	62.5763	23.4375	62.9422	23.4375	62.9488	23.4375	63.5415	23.4375	63.4134	23.4375	64.1736	23.4375	63.9202	23.4375	64.757	23.4375	64.4233	23.4375	65.2296	23.4375	64.8848	23.4375	65.5536	23.4375	65.272	23.4375	65.7134	23.4375	65.5556	23.4375	65.7097
24.9023	63.8207	24.9023	63.9461	24.9023	63.6696	24.9023	64.0407	24.9023	63.5094	24.9023	64.1123	24.9023	63.368	24.9023	64.1817	24.9023	63.2845	24.9023	64.2827	24.9023	63.3072	24.9023	64.4583	24.9023	63.4868	24.9023	64.7511	24.9023	63.8606	24.9023	65.1891	24.9023	64.4337	24.9023	65.7731	24.9023	65.1706	24.9023	66.4733	24.9023	66.0076	24.9023	67.2382	24.9023	66.8743	24.9023	68.0084	24.9023	67.7115	24.9023	68.7292	24.9023	68.4763	24.9023	69.3568	24.9023	69.1398	24.9023	69.86	24.9023	69.6826	24.9023	70.2189	24.9023	70.0913	24.9023	70.4226	24.9023	70.3555	24.9023	70.4677
26.3672	66.477	26.3672	66.659	26.3672	66.319	26.3672	66.8685	26.3672	66.1947	26.3672	67.1183	26.3672	66.1285	26.3672	67.4251	26.3672	66.1576	26.3672	67.8039	26.3672	66.3234	26.3672	68.2637	26.3672	66.6578	26.3672	68.8038	26.3672	67.1683	26.3672	69.4133	26.3672	67.8324	26.3672	70.073	26.3672	68.605	26.3672	70.7576	26.3672	69.4332	26.3672	71.4386	26.3672	70.2681	26.3672	72.0865	26.3672	71.0708	26.3672	72.6723	26.3672	71.8117	26.3672	73.17	26.3672	72.4679	26.3672	73.5576	26.3672	73.0207	26.3672	73.8186	26.3672	73.4548	26.3672	73.9417	26.3672	73.7579	26.3672	73.9217
27.832	69.6401	27.832	69.8309	27.832	69.4739	27.832	70.0437	27.832	69.345	27.832	70.2835	27.832	69.2764	27.832	70.5606	27.832	69.2998	27.832	70.8873	27.832	69.4483	27.832	71.2749	27.832	69.7465	27.832	71.7292	27.832	70.1993	27.832	72.2484	27.832	70.7887	27.832	72.8215	27.832	71.479	27.832	73.4292	27.832	72.2271	27.832	74.0462	27.832	72.9909	27.832	74.6442	27.832	73.7343	27.832	75.194	27.832	74.4271	27.832	75.6685	27.832	75.045	27.832	76.0439	27.832	75.5679	27.832	76.3013	27.832	75.9788	27.832	76.4276	27.832	76.2646	27.832	76.4157
29.2969	73.8386	29.2969	73.9174	29.2969	73.792	29.2969	74.0289	29.2969	73.7819	29.2969	74.1778	29.2969	73.8169	29.2969	74.3718	29.2969	73.9084	29.2969	74.6196	29.2969	74.0686	29.2969	74.9282	29.2969	74.3069	29.2969	75.3007	29.2969	74.6277	29.2969	75.7339	29.2969	75.0286	29.2969	76.2177	29.2969	75.4999	29.2969	76.7352	29.2969	76.025	29.2969	77.2648	29.2969	76.5822	29.2969	77.7817	29.2969	77.1465	29.2969	78.2604	29.2969	77.6921	29.2969	78.6763	29.2969	78.1939	29.2969	79.0077	29.2969	78.6283	29.2969	79.237	29.2969	78.9752	29.2969	79.3518	29.2969	79.2182	29.2969	79.3456
30.7617	76.5111	30.7617	76.5957	30.7617	76.4591	30.7617	76.7136	30.7617	76.4434	30.7617	76.8693	30.7617	76.4718	30.7617	77.0695	30.7617	76.5553	30.7617	77.3208	30.7617	76.7047	30.7617	77.6278	30.7617	76.9288	30.7617	77.991	30.7617	77.2311	30.7617	78.4059	30.7617	77.6091	30.7617	78.8624	30.7617	78.0536	30.7617	79.3456	30.7617	78.5492	30.7617	79.8364	30.7617	79.076	30.7617	80.3133	30.7617	79.6108	30.7617	80.7538	30.7617	80.1295	30.7617	81.1357	30.7617	80.6083	30.7617	81.4386	30.7617	81.0253	30.7617	81.6457	30.7617	81.361	30.7617	81.7448	30.7617	81.5996	30.7617	81.7295
32.2266	79.213	32.2266	79.2673	32.2266	79.1899	32.2266	79.355	32.2266	79.1987	32.2266	79.4804	32.2266	79.2426	32.2266	79.6486	32.2266	79.3271	32.2266	79.8649	32.2266	79.459	32.2266	80.1325	32.2266	79.6448	32.2266	80.4518	32.2266	79.8892	32.2266	80.8188	32.2266	80.1936	32.2266	81.2249	32.2266	80.555	32.2266	81.657	32.2266	80.9647	32.2266	82.0981	32.2266	81.409	32.2266	82.5284	32.2266	81.8698	32.2266	82.9269	32.2266	82.326	32.2266	83.2724	32.2266	82.7551	32.2266	83.5458	32.2266	83.1352	32.2266	83.7309	32.2266	83.4459	32.2266	83.8162	32.2266	83.6702	32.2266	83.7959
33.6914	81.5712	33.6914	81.6256	33.6914	81.5461	33.6914	81.7104	33.6914	81.5509	33.6914	81.8282	33.6914	81.5882	33.6914	81.9828	33.6914	81.6625	33.6914	82.1779	33.6914	81.7788	33.6914	82.4165	33.6914	81.9426	33.6914	82.6996	33.6914	82.1583	33.6914	83.025	33.6914	82.4278	33.6914	83.3867	33.6914	82.7494	33.6914	83.7745	33.6914	83.117	33.6914	84.174	33.6914	83.5193	33.6914	84.5675	33.6914	83.9408	33.6914	84.9354	33.6914	84.3623	33.6914	85.2572	33.6914	84.7624	33.6914	85.5135	33.6914	85.1197	33.6914	85.6876	33.6914	85.4137	33.6914	85.7677	33.6914	85.6272	33.6914	85.7475
35.1562	83.418	35.1562	83.4659	35.1562	83.3989	35.1562	83.5439	35.1562	83.4088	35.1562	83.6548	35.1562	83.4498	35.1562	83.8019	35.1562	83.5255	35.1562	83.9887	35.1562	83.6404	35.1562	84.218	35.1562	83.7994	35.1562	84.4902	35.1562	84.0063	35.1562	84.8031	35.1562	84.2628	35.1562	85.1506	35.1562	84.5675	35.1562	85.5225	35.1562	84.9149	35.1562	85.9051	35.1562	85.2948	35.1562	86.2813	35.1562	85.6928	35.1562	86.6323	35.1562	86.0908	35.1562	86.9387	35.1562	86.4688	35.1562	87.1821	35.1562	86.8064	35.1562	87.3469	35.1562	87.0846	35.1562	87.422	35.1562	87.2871	35.1562	87.4018
36.6211	85.2539	36.6211	85.2995	36.6211	85.2369	36.6211	85.3746	36.6211	85.2486	36.6211	85.4814	36.6211	85.2906	36.6211	85.6224	36.6211	85.3655	36.6211	85.8001	36.6211	85.4767	36.6211	86.0164	36.6211	85.6277	36.6211	86.2712	36.6211	85.8214	36.6211	86.5621	36.6211	86.0587	36.6211	86.8838	36.6211	86.3384	36.6211	87.227	36.6211	86.6558	36.6211	87.5796	36.6211	87.0025	36.6211	87.9262	36.6211	87.366	36.6211	88.2496	36.6211	87.7307	36.6211	88.5318	36.6211	88.0787	36.6211	88.7555	36.6211	88.3913	36.6211	88.906	36.6211	88.6507	36.6211	88.9728	36.6211	88.8411	36.6211	88.9508
38.0859	86.8533	38.0859	86.8963	38.0859	86.8383	38.0859	86.9677	38.0859	86.8515	38.0859	87.0688	38.0859	86.8942	38.0859	87.2011	38.0859	86.9685	38.0859	87.3665	38.0859	87.0768	38.0859	87.5658	38.0859	87.2213	38.0859	87.7988	38.0859	87.4037	38.0859	88.0633	38.0859	87.6239	38.0859	88.3546	38.0859	87.8805	38.0859	88.6651	38.0859	88.169	38.0859	88.9842	38.0859	88.4821	38.0859	89.2986	38.0859	88.8092	38.0859	89.5929	38.0859	89.1368	38.0859	89.8507	38.0859	89.4493	38.0859	90.0559	38.0859	89.7305	38.0859	90.1944	38.0859	89.9646	38.0859	90.2562	38.0859	90.1371	38.0859	90.2366
39.5508	88.3358	39.5508	88.3662	39.5508	88.3316	39.5508	88.4238	39.5508	88.3534	39.5508	88.5097	39.5508	88.4014	39.5508	88.6255	39.5508	88.4765	39.5508	88.7722	39.5508	88.58	39.5508	88.9506	39.5508	88.7133	39.5508	89.1601	39.5508	88.8773	39.5508	89.3988	39.5508	89.0723	39.5508	89.6623	39.5508	89.2972	39.5508	89.9441	39.5508	89.5492	39.5508	90.2348	39.5508	89.823	39.5508	90.5224	39.5508	90.1104	39.5508	90.7927	39.5508	90.4004	39.5508	91.0306	39.5508	90.6794	39.5508	91.2208	39.5508	90.9324	39.5508	91.35	39.5508	91.1443	39.5508	91.4083	39.5508	91.3012	39.5508	91.3916
41.0156	89.4495	41.0156	89.485	41.0156	89.4409	41.0156	89.5476	41.0156	89.4587	41.0156	89.6377	41.0156	89.5026	41.0156	89.7553	41.0156	89.5724	41.0156	89.9001	41.0156	89.6678	41.0156	90.071	41.0156	89.7887	41.0156	90.2663	41.0156	89.9346	41.0156	90.4828	41.0156	90.1048	41.0156	90.716	41.0156	90.2974	41.0156	90.9598	41.0156	90.5094	41.0156	91.2062	41.0156	90.736	41.0156	91.4455	41.0156	90.9711	41.0156	91.6662	41.0156	91.2079	41.0156	91.8556	41.0156	91.4386	41.0156	92.001	41.0156	91.6537	41.0156	92.0917	41.0156	91.8416	41.0156	92.1205	41.0156	91.9895	41.0156	92.0853
42.4805	90.404	42.4805	90.4312	42.4805	90.401	42.4805	90.4827	42.4805	90.4221	42.4805	90.5586	42.4805	90.467	42.4805	90.6591	42.4805	90.5358	42.4805	90.7841	42.4805	90.6284	42.4805	90.9333	42.4805	90.7447	42.4805	91.1058	42.4805	90.8845	42.4805	91.2998	42.4805	91.0469	42.4805	91.5123	42.4805	91.2303	42.4805	91.7385	42.4805	91.4322	42.4805	91.9716	42.4805	91.6485	42.4805	92.2024	42.4805	91.8739	42.4805	92.42	42.4805	92.1013	42.4805	92.6119	42.4805	92.3218	42.4805	92.7656	42.4805	92.5241	42.4805	92.8696	42.4805	92.6958	42.4805	92.9156	42.4805	92.8247	42.4805	92.9002
43.9453	91.2459	43.9453	91.271	43.9453	91.2451	43.9453	91.3202	43.9453	91.2682	43.9453	91.3934	43.9453	91.3151	43.9453	91.4901	43.9453	91.3853	43.9453	91.6098	43.9453	91.4785	43.9453	91.7515	43.9453	91.5941	43.9453	91.9139	43.9453	91.7313	43.9453	92.0949	43.9453	91.8889	43.9453	92.2915	43.9453	92.0654	43.9453	92.4997	43.9453	92.2577	43.9453	92.7138	43.9453	92.4621	43.9453	92.9262	43.9453	92.6732	43.9453	93.1277	43.9453	92.8842	43.9453	93.3073	43.9453	93.0864	43.9453	93.4534	43.9453	93.2698	43.9453	93.5553	43.9453	93.4231	43.9453	93.6048	43.9453	93.5356	43.9453	93.598
45.4102	91.961	45.4102	91.9892	45.4102	91.9556	45.4102	92.04	45.4102	91.9731	45.4102	92.1128	45.4102	92.0134	45.4102	92.2067	45.4102	92.0761	45.4102	92.3207	45.4102	92.1605	45.4102	92.4536	45.4102	92.2657	45.4102	92.6039	45.4102	92.3908	45.4102	92.7695	45.4102	92.5342	45.4102	92.948	45.4102	92.6942	45.4102	93.1355	45.4102	92.8683	45.4102	93.3271	45.4102	93.0529	45.4102	93.5162	45.4102	93.2437	45.4102	93.6946	45.4102	93.4346	45.4102	93.8525	45.4102	93.6183	45.4102	93.9795	45.4102	93.7858	45.4102	94.0662	45.4102	93.9272	45.4102	94.1054	45.4102	94.0326	45.4102	94.0938
46.875	92.5306	46.875	92.5593	46.875	92.5236	46.875	92.6094	46.875	92.5386	46.875	92.6798	46.875	92.5751	46.875	92.7696	46.875	92.6328	46.875	92.8773	46.875	92.7105	46.875	93.0015	46.875	92.8072	46.875	93.1404	46.875	92.9213	46.875	93.2918	46.875	93.0512	46.875	93.4531	46.875	93.1951	46.875	93.621	46.875	93.3504	46.875	93.7909	46.875	93.5143	46.875	93.9571	46.875	93.683	46.875	94.1123	46.875	93.8517	46.875	94.2481	46.875	94.0142	46.875	94.3557	46.875	94.1629	46.875	94.4272	46.875	94.2894	46.875	94.457	46.875	94.385	46.875	94.4425
48.3398	92.9336	48.3398	92.9597	48.3398	92.9276	48.3398	93.0054	48.3398	92.942	48.3398	93.07	48.3398	92.9765	48.3398	93.1522	48.3398	93.0305	48.3398	93.2507	48.3398	93.1031	48.3398	93.364	48.3398	93.1931	48.3398	93.4902	48.3398	93.299	48.3398	93.6275	48.3398	93.419	48.3398	93.7732	48.3398	93.5513	48.3398	93.9242	48.3398	93.6935	48.3398	94.0767	48.3398	93.8429	48.3398	94.2254	48.3398	93.9961	48.3398	94.3644	48.3398	94.1484	48.3398	94.4866	48.3398	94.2944	48.3398	94.5845	48.3398	94.4272	48.3398	94.6511	48.3398	94.5391	48.3398	94.6808	48.3398	94.6225	48.3398	94.6711
51.2695	93.2152	51.2695	93.2392	51.2695	93.211	51.2695	93.2823	51.2695	93.2268	51.2695	93.3437	51.2695	93.2621	51.2695	93.4218	51.2695	93.3162	51.2695	93.515	51.2695	93.3881	51.2695	93.6213	51.2695	93.476	51.2695	93.7384	51.2695	93.5782	51.2695	93.8641	51.2695	93.6924	51.2695	93.9959	51.2695	93.8165	51.2695	94.131	51.2695	93.9479	51.2695	94.2662	51.2695	94.0839	51.2695	94.3974	51.2695	94.2212	51.2695	94.5199	51.2695	94.356	51.2695	94.628	51.2695	94.4834	51.2695	94.7154	51.2695	94.5978	51.2695	94.7762	51.2695	94.6927	51.2695	94.8055	51.2695	94.7621	51.2695	94.8007
52.7344	93.244	52.7344	93.266	52.7344	93.2421	52.7344	93.3075	52.7344	93.2605	52.7344	93.3673	52.7344	93.2987	52.7344	93.4437	52.7344	93.3556	52.7344	93.5347	52.7344	93.4297	52.7344	93.6382	52.7344	93.5189	52.7344	93.7516	52.7344	93.6212	52.7344	93.8725	52.7344	93.7339	52.7344	93.9983	52.7344	93.8546	52.7344	94.1262	52.7344	93.9806	52.7344	94.2532	52.7344	94.109	52.7344	94.3756	52.7344	94.2368	52.7344	94.4894	52.7344	94.3605	52.7344	94.5895	52.7344	94.476	52.7344	94.6708	52.7344	94.5784	52.7344	94.7279	52.7344	94.6624	52.7344	94.7568	52.7344	94.7227	52.7344	94.7551
54.1992	93.2551	54.1992	93.2784	54.1992	93.2508	54.1992	93.3197	54.1992	93.2656	54.1992	93.3776	54.1992	93.2991	54.1992	93.4502	54.1992	93.3501	54.1992	93.5351	54.1992	93.4172	54.1992	93.6297	54.1992	93.4982	54.1992	93.7312	54.1992	93.5906	54.1992	93.8371	54.1992	93.692	54.1992	93.9448	54.1992	93.7996	54.1992	94.0519	54.1992	93.9106	54.1992	94.1561	54.1992	94.0223	54.1992	94.2551	54.1992	94.1319	54.1992	94.3459	54.1992	94.2365	54.1992	94.4254	54.1992	94.3326	54.1992	94.4899	54.1992	94.4167	54.1992	94.5355	54.1992	94.4847	54.1992	94.5589	54.1992	94.5329	54.1992	94.5581
55.6641	93.3367	55.6641	93.3604	55.6641	93.3281	55.6641	93.3983	55.6641	93.3352	55.6641	93.449	55.6641	93.3576	55.6641	93.5104	55.6641	93.3946	55.6641	93.5803	55.6641	93.4448	55.6641	93.6565	55.6641	93.5065	55.6641	93.7366	55.6641	93.5775	55.6641	93.8181	55.6641	93.6555	55.6641	93.8991	55.6641	93.7382	55.6641	93.9777	55.6641	93.8231	55.6641	94.0521	55.6641	93.908	55.6641	94.121	55.6641	93.9907	55.6641	94.1826	55.6641	94.0689	55.6641	94.2351	55.6641	94.1405	55.6641	94.2764	55.6641	94.203	55.6641	94.3042	55.6641	94.2538	55.6641	94.3164	55.6641	94.2907	55.6641	94.3119
58.5938	93.2521	58.5938	93.2701	58.5938	93.2476	58.5938	93.3009	58.5938	93.257	58.5938	93.3428	58.5938	93.28	58.5938	93.394	58.5938	93.3155	58.5938	93.4521	58.5938	93.3617	58.5938	93.5148	58.5938	93.4166	58.5938	93.5797	58.5938	93.4775	58.5938	93.6445	58.5938	93.5418	58.5938	93.7074	58.5938	93.6069	58.5938	93.7668	58.5938	93.6705	58.5938	93.8216	58.5938	93.7311	58.5938	93.8709	58.5938	93.7874	58.5938	93.9139	58.5938	93.8389	58.5938	93.9497	58.5938	93.8849	58.5938	93.9772	58.5938	93.9252	58.5938	93.9953	58.5938	93.9585	58.5938	94.0026	58.5938	93.9835	58.5938	93.9986
60.0586	93.2296	60.0586	93.2404	60.0586	93.232	60.0586	93.2637	60.0586	93.2473	60.0586	93.2986	60.0586	93.2749	60.0586	93.3433	60.0586	93.3134	60.0586	93.3957	60.0586	93.3609	60.0586	93.4536	60.0586	93.4151	60.0586	93.5144	60.0586	93.4737	60.0586	93.5757	60.0586	93.5342	60.0586	93.6353	60.0586	93.5944	60.0586	93.6913	60.0586	93.6525	60.0586	93.7424	60.0586	93.7068	60.0586	93.7877	60.0586	93.7563	60.0586	93.8265	60.0586	93.8002	60.0586	93.8587	60.0586	93.8379	60.0586	93.884	60.0586	93.8687	60.0586	93.902	60.0586	93.8921	60.0586	93.9123	60.0586	93.9075	60.0586	93.9142
62.9883	93.1325	62.9883	93.1461	62.9883	93.1318	62.9883	93.1718	62.9883	93.144	62.9883	93.2081	62.9883	93.1686	62.9883	93.2531	62.9883	93.2042	62.9883	93.3043	62.9883	93.249	62.9883	93.359	62.9883	93.3005	62.9883	93.4145	62.9883	93.3561	62.9883	93.4679	62.9883	93.4129	62.9883	93.5173	62.9883	93.4683	62.9883	93.5608	62.9883	93.52	62.9883	93.5978	62.9883	93.5662	62.9883	93.6281	62.9883	93.6058	62.9883	93.6523	62.9883	93.6382	62.9883	93.6713	62.9883	93.6634	62.9883	93.6858	62.9883	93.6819	62.9883	93.6961	62.9883	93.6945	62.9883	93.7023	62.9883	93.7018	62.9883	93.7043
64.4531	93.156	64.4531	93.1727	64.4531	93.1526	64.4531	93.202	64.4531	93.1627	64.4531	93.242	64.4531	93.1858	64.4531	93.2905	64.4531	93.2204	64.4531	93.3446	64.4531	93.2645	64.4531	93.4015	64.4531	93.3155	64.4531	93.4579	64.4531	93.3706	64.4531	93.511	64.4531	93.4268	64.4531	93.5587	64.4531	93.4814	64.4531	93.5994	64.4531	93.5319	64.4531	93.6326	64.4531	93.5765	64.4531	93.6584	64.4531	93.6141	64.4531	93.6777	64.4531	93.6442	64.4531	93.6915	64.4531	93.6673	64.4531	93.7006	64.4531	93.684	64.4531	93.7059	64.4531	93.6955	64.4531	93.7079	64.4531	93.7029	64.4531	93.7069
67.3828	92.9625	67.3828	92.9707	67.3828	92.9693	67.3828	92.9929	67.3828	92.991	67.3828	93.0275	67.3828	93.0268	67.3828	93.0721	67.3828	93.0748	67.3828	93.1238	67.3828	93.1325	67.3828	93.1795	67.3828	93.1968	67.3828	93.2359	67.3828	93.264	67.3828	93.2901	67.3828	93.3304	67.3828	93.3397	67.3828	93.3923	67.3828	93.3829	67.3828	93.4467	67.3828	93.4189	67.3828	93.4913	67.3828	93.4477	67.3828	93.5247	67.3828	93.4699	67.3828	93.5469	67.3828	93.487	67.3828	93.5586	67.3828	93.5011	67.3828	93.5614	67.3828	93.5137	67.3828	93.5576	67.3828	93.5261	67.3828	93.5492	67.3828	93.5382
68.8477	92.8907	68.8477	92.9033	68.8477	92.8941	68.8477	92.9309	68.8477	92.9138	68.8477	92.9716	68.8477	92.9488	68.8477	93.0232	68.8477	92.9978	68.8477	93.0825	68.8477	93.0581	68.8477	93.1463	68.8477	93.1267	68.8477	93.2111	68.8477	93.1999	68.8477	93.2737	68.8477	93.2736	68.8477	93.3312	68.8477	93.3441	68.8477	93.3813	68.8477	93.4079	68.8477	93.423	68.8477	93.4621	68.8477	93.4559	68.8477	93.5051	68.8477	93.481	68.8477	93.5361	68.8477	93.4999	68.8477	93.5555	68.8477	93.5149	68.8477	93.5647	68.8477	93.528	68.8477	93.5657	68.8477	93.5402	68.8477	93.5606	68.8477	93.5515
71.7773	92.9937	71.7773	93.0065	71.7773	92.9945	71.7773	93.0317	71.7773	93.0094	71.7773	93.0679	71.7773	93.0381	71.7773	93.1126	71.7773	93.0797	71.7773	93.1635	71.7773	93.1325	71.7773	93.2175	71.7773	93.1939	71.7773	93.2717	71.7773	93.2607	71.7773	93.3231	71.7773	93.3293	71.7773	93.3694	71.7773	93.3956	71.7773	93.4087	71.7773	93.4557	71.7773	93.4403	71.7773	93.5063	71.7773	93.4648	71.7773	93.5451	71.7773	93.4833	71.7773	93.571	71.7773	93.498	71.7773	93.5844	71.7773	93.5112	71.7773	93.5869	71.7773	93.5247	71.7773	93.5809	71.7773	93.5392	71.7773	93.5692	71.7773	93.5545
74.707	93.1446	74.707	93.1493	74.707	93.1506	74.707	93.1641	74.707	93.1675	74.707	93.1876	74.707	93.1949	74.707	93.2184	74.707	93.2318	74.707	93.2541	74.707	93.2769	74.707	93.2922	74.707	93.3278	74.707	93.33	74.707	93.3817	74.707	93.3646	74.707	93.4352	74.707	93.3935	74.707	93.4844	74.707	93.4151	74.707	93.5255	74.707	93.4287	74.707	93.5552	74.707	93.4348	74.707	93.5716	74.707	93.4356	74.707	93.5741	74.707	93.4338	74.707	93.5639	74.707	93.4332	74.707	93.5438	74.707	93.4371	74.707	93.5178	74.707	93.4478	74.707	93.4904	74.707	93.466
77.6367	93.169	77.6367	93.1678	77.6367	93.1802	77.6367	93.1764	77.6367	93.2014	77.6367	93.1938	77.6367	93.2316	77.6367	93.2185	77.6367	93.2698	77.6367	93.2482	77.6367	93.314	77.6367	93.2803	77.6367	93.362	77.6367	93.3119	77.6367	93.411	77.6367	93.34	77.6367	93.4576	77.6367	93.3621	77.6367	93.4984	77.6367	93.3763	77.6367	93.5298	77.6367	93.3821	77.6367	93.5489	77.6367	93.3802	77.6367	93.5539	77.6367	93.373	77.6367	93.5446	77.6367	93.3641	77.6367	93.5224	77.6367	93.3576	77.6367	93.4907	77.6367	93.3578	77.6367	93.4542	77.6367	93.3677	77.6367	93.4184	77.6367	93.3884
79.1016	93.2551	79.1016	93.2537	79.1016	93.2648	79.1016	93.2598	79.1016	93.2828	79.1016	93.2724	79.1016	93.3087	79.1016	93.2899	79.1016	93.3414	79.1016	93.31	79.1016	93.3795	79.1016	93.3304	79.1016	93.4207	79.1016	93.3483	79.1016	93.4622	79.1016	93.3613	79.1016	93.5007	79.1016	93.3675	79.1016	93.5325	79.1016	93.3657	79.1016	93.5542	79.1016	93.356	79.1016	93.5627	79.1016	93.3399	79.1016	93.5562	79.1016	93.3205	79.1016	93.5346	79.1016	93.3018	79.1016	93.4997	79.1016	93.2889	79.1016	93.4553	79.1016	93.2864	79.1016	93.4069	79.1016	93.2973	79.1016	93.3607	79.1016	93.3227
82.0312	93.3047	82.0312	93.3148	82.0312	93.3007	82.0312	93.3296	82.0312	93.3032	82.0312	93.3477	82.0312	93.3118	82.0312	93.3667	82.0312	93.3257	82.0312	93.3841	82.0312	93.3431	82.0312	93.397	82.0312	93.3616	82.0312	93.4027	82.0312	93.3781	82.0312	93.3988	82.0312	93.3896	82.0312	93.3834	82.0312	93.3929	82.0312	93.3559	82.0312	93.3855	82.0312	93.3172	82.0312	93.3656	82.0312	93.2695	82.0312	93.3332	82.0312	93.2167	82.0312	93.2897	82.0312	93.164	82.0312	93.2383	82.0312	93.1174	82.0312	93.1841	82.0312	93.0832	82.0312	93.1335	82.0312	93.0663	82.0312	93.0934	82.0312	93.0699
84.9609	93.4076	84.9609	93.4047	84.9609	93.418	84.9609	93.4095	84.9609	93.4352	84.9609	93.4212	84.9609	93.4578	84.9609	93.4385	84.9609	93.4841	84.9609	93.4588	84.9609	93.5113	84.9609	93.4789	84.9609	93.5363	84.9609	93.4949	84.9609	93.5554	84.9609	93.5029	84.9609	93.5648	84.9609	93.4993	84.9609	93.5612	84.9609	93.4817	84.9609	93.5421	84.9609	93.4495	84.9609	93.5067	84.9609	93.4041	84.9609	93.4566	84.9609	93.3488	84.9609	93.3952	84.9609	93.2893	84.9609	93.3281	84.9609	93.2323	84.9609	93.2624	84.9609	93.1856	84.9609	93.2062	84.9609	93.1562	84.9609	93.1667	84.9609	93.1493
87.8906	93.5759	87.8906	93.5666	87.8906	93.5864	87.8906	93.5579	87.8906	93.5987	87.8906	93.5494	87.8906	93.613	87.8906	93.5405	87.8906	93.6289	87.8906	93.531	87.8906	93.6454	87.8906	93.5206	87.8906	93.6604	87.8906	93.5088	87.8906	93.6715	87.8906	93.4944	87.8906	93.6756	87.8906	93.4764	87.8906	93.6696	87.8906	93.4534	87.8906	93.6513	87.8906	93.4247	87.8906	93.6192	87.8906	93.3905	87.8906	93.5736	87.8906	93.3528	87.8906	93.5168	87.8906	93.3148	87.8906	93.453	87.8906	93.2812	87.8906	93.3883	87.8906	93.2571	87.8906	93.3297	87.8906	93.2474	87.8906	93.284	87.8906	93.2559
90.8203	93.6731	90.8203	93.7152	90.8203	93.6328	90.8203	93.7571	90.8203	93.5965	90.8203	93.7968	90.8203	93.5662	90.8203	93.8323	90.8203	93.5433	90.8203	93.8618	90.8203	93.5287	90.8203	93.8835	90.8203	93.5222	90.8203	93.8958	90.8203	93.5227	90.8203	93.897	90.8203	93.5276	90.8203	93.8859	90.8203	93.5337	90.8203	93.8614	90.8203	93.5377	90.8203	93.8234	90.8203	93.5365	90.8203	93.7733	90.8203	93.5285	90.8203	93.7138	90.8203	93.5136	90.8203	93.6495	90.8203	93.4936	90.8203	93.5863	90.8203	93.4727	90.8203	93.5303	90.8203	93.4564	90.8203	93.4871	90.8203	93.4507	90.8203	93.4602
95.2148	94.0001	95.2148	94.0189	95.2148	93.9799	95.2148	94.0354	95.2148	93.9589	95.2148	94.0486	95.2148	93.9379	95.2148	94.0573	95.2148	93.9175	95.2148	94.0599	95.2148	93.8978	95.2148	94.0544	95.2148	93.8783	95.2148	94.0387	95.2148	93.8579	95.2148	94.0104	95.2148	93.8347	95.2148	93.9681	95.2148	93.8065	95.2148	93.9109	95.2148	93.771	95.2148	93.8396	95.2148	93.7268	95.2148	93.7571	95.2148	93.6736	95.2148	93.668	95.2148	93.6129	95.2148	93.5793	95.2148	93.5483	95.2148	93.4991	95.2148	93.4854	95.2148	93.4354	95.2148	93.4317	95.2148	93.3948	95.2148	93.3948	95.2148	93.3813
98.1445	94.0048	98.1445	94.0144	98.1445	93.9952	98.1445	94.0235	98.1445	93.9863	98.1445	94.0313	98.1445	93.9785	98.1445	94.0368	98.1445	93.9724	98.1445	94.0388	98.1445	93.968	98.1445	94.0356	98.1445	93.9651	98.1445	94.0253	98.1445	93.9628	98.1445	94.0062	98.1445	93.9591	98.1445	93.9772	98.1445	93.9518	98.1445	93.9379	98.1445	93.9381	98.1445	93.8892	98.1445	93.9155	98.1445	93.8334	98.1445	93.8824	98.1445	93.7743	98.1445	93.8389	98.1445	93.717	98.1445	93.7871	98.1445	93.6672	98.1445	93.7318	98.1445	93.6308	98.1445	93.68	98.1445	93.6126	98.1445	93.6391	98.1445	93.6154
101.074	93.9594	101.074	93.9622	101.074	93.9556	101.074	93.9641	101.074	93.9511	101.074	93.9646	101.074	93.9458	101.074	93.9631	101.074	93.9401	101.074	93.9584	101.074	93.9339	101.074	93.949	101.074	93.9275	101.074	93.9333	101.074	93.9206	101.074	93.9097	101.074	93.9127	101.074	93.8774	101.074	93.9027	101.074	93.8366	101.074	93.8889	101.074	93.789	101.074	93.8694	101.074	93.7378	101.074	93.8425	101.074	93.6876	101.074	93.8073	101.074	93.6432	101.074	93.7645	101.074	93.6091	101.074	93.7172	101.074	93.5892	101.074	93.67	101.074	93.5858	101.074	93.6289	101.074	93.5995
105.469	94.0578	105.469	94.0668	105.469	94.0452	105.469	94.0714	105.469	94.0304	105.469	94.0705	105.469	94.0146	105.469	94.0637	105.469	93.9992	105.469	94.0503	105.469	93.9848	105.469	94.0293	105.469	93.9715	105.469	93.9997	105.469	93.9583	105.469	93.9602	105.469	93.9433	105.469	93.91	105.469	93.9241	105.469	93.8488	105.469	93.8978	105.469	93.7782	105.469	93.8618	105.469	93.7016	105.469	93.8146	105.469	93.6242	105.469	93.7567	105.469	93.553	105.469	93.6905	105.469	93.4957	105.469	93.6207	105.469	93.4589	105.469	93.5541	105.469	93.4469	105.469	93.4984	105.469	93.4608
108.398	94.3351	108.398	94.3396	108.398	94.3229	108.398	94.3357	108.398	94.3042	108.398	94.3227	108.398	94.2804	108.398	94.3003	108.398	94.253	108.398	94.2676	108.398	94.2235	108.398	94.2242	108.398	94.1928	108.398	94.1693	108.398	94.1612	108.398	94.1025	108.398	94.1282	108.398	94.0241	108.398	94.0919	108.398	93.9354	108.398	94.0499	108.398	93.8392	108.398	93.9997	108.398	93.7404	108.398	93.9394	108.398	93.6457	108.398	93.8683	108.398	93.5633	108.398	93.7882	108.398	93.5015	108.398	93.7032	108.398	93.4675	108.398	93.62	108.398	93.4648	108.398	93.547	108.398	93.4928
112.793	94.5306	112.793	94.5363	112.793	94.5152	112.793	94.5323	112.793	94.4902	112.793	94.5186	112.793	94.4562	112.793	94.4949	112.793	94.4142	112.793	94.4603	112.793	94.3654	112.793	94.4132	112.793	94.3111	112.793	94.3517	112.793	94.2519	112.793	94.2737	112.793	94.1878	112.793	94.1784	112.793	94.1183	112.793	94.0663	112.793	94.0421	112.793	93.9405	112.793	93.9581	112.793	93.8066	112.793	93.8658	112.793	93.6731	112.793	93.7663	112.793	93.5505	112.793	93.6627	112.793	93.4495	112.793	93.5608	112.793	93.3796	112.793	93.4689	112.793	93.3472	112.793	93.3968	112.793	93.3539
117.188	94.4523	117.188	94.4407	117.188	94.4546	117.188	94.4207	117.188	94.4474	117.188	94.393	117.188	94.4307	117.188	94.3582	117.188	94.4049	117.188	94.3161	117.188	94.3709	117.188	94.2662	117.188	94.3296	117.188	94.2072	117.188	94.2817	117.188	94.1378	117.188	94.2277	117.188	94.0572	117.188	94.1672	117.188	93.966	117.188	94.0998	117.188	93.8667	117.188	94.0248	117.188	93.7646	117.188	93.9421	117.188	93.6665	117.188	93.8532	117.188	93.5806	117.188	93.7613	117.188	93.5142	117.188	93.6714	117.188	93.4735	117.188	93.5899	117.188	93.4617	117.188	93.5236	117.188	93.4792
120.117	94.5216	120.117	94.5011	120.117	94.5312	120.117	94.4707	120.117	94.5289	120.117	94.4315	120.117	94.5145	120.117	94.3844	120.117	94.4878	120.117	94.3298	120.117	94.4495	120.117	94.2673	120.117	94.4004	120.117	94.1959	120.117	94.3416	120.117	94.1146	120.117	94.2743	120.117	94.0227	120.117	94.1997	120.117	93.9209	120.117	94.1192	120.117	93.8123	120.117	94.0339	120.117	93.703	120.117	93.9453	120.117	93.6017	120.117	93.8552	120.117	93.518	120.117	93.7655	120.117	93.4604	120.117	93.6787	120.117	93.434	120.117	93.598	120.117	93.4392	120.117	93.5274	120.117	93.4723
124.512	94.6652	124.512	94.6395	124.512	94.6805	124.512	94.604	124.512	94.6849	124.512	94.5591	124.512	94.6775	124.512	94.5052	124.512	94.6576	124.512	94.442	124.512	94.6245	124.512	94.369	124.512	94.5776	124.512	94.285	124.512	94.516	124.512	94.1889	124.512	94.4392	124.512	94.08	124.512	94.347	124.512	93.9589	124.512	94.24	124.512	93.8283	124.512	94.1197	124.512	93.6938	124.512	93.9892	124.512	93.564	124.512	93.8531	124.512	93.4495	124.512	93.7173	124.512	93.3613	124.512	93.5888	124.512	93.3082	124.512	93.475	124.512	93.2948	124.512	93.3833	124.512	93.3212
128.906	94.4644	128.906	94.4681	128.906	94.4558	128.906	94.4659	128.906	94.4434	128.906	94.4568	128.906	94.4278	128.906	94.4397	128.906	94.4096	128.906	94.413	128.906	94.3883	128.906	94.375	128.906	94.3626	128.906	94.3233	128.906	94.33	128.906	94.2559	128.906	94.2881	128.906	94.1715	128.906	94.234	128.906	94.0706	128.906	94.166	128.906	93.9564	128.906	94.0839	128.906	93.8348	128.906	93.9892	128.906	93.7149	128.906	93.8859	128.906	93.6072	128.906	93.7797	128.906	93.5222	128.906	93.6773	128.906	93.468	128.906	93.5859	128.906	93.449	128.906	93.5129	128.906	93.4652
133.301	94.5229	133.301	94.541	133.301	94.4943	133.301	94.548	133.301	94.4563	133.301	94.5441	133.301	94.4112	133.301	94.5297	133.301	94.3612	133.301	94.505	133.301	94.309	133.301	94.4699	133.301	94.2567	133.301	94.4233	133.301	94.2052	133.301	94.364	133.301	94.1546	133.301	94.2907	133.301	94.1037	133.301	94.2032	133.301	94.0508	133.301	94.1032	133.301	93.9945	133.301	93.9954	133.301	93.9344	133.301	93.8872	133.301	93.8713	133.301	93.788	133.301	93.8078	133.301	93.7075	133.301	93.7474	133.301	93.6527	133.301	93.6941	133.301	93.6267	133.301	93.6525	133.301	93.6282
139.16	94.6684	139.16	94.6686	139.16	94.6529	139.16	94.6545	139.16	94.6222	139.16	94.6279	139.16	94.5774	139.16	94.591	139.16	94.5206	139.16	94.546	139.16	94.4539	139.16	94.4942	139.16	94.3801	139.16	94.4362	139.16	94.301	139.16	94.3711	139.16	94.2182	139.16	94.2976	139.16	94.1324	139.16	94.2142	139.16	94.0437	139.16	94.1204	139.16	93.9527	139.16	94.0176	139.16	93.8608	139.16	93.9097	139.16	93.7713	139.16	93.8033	139.16	93.6893	139.16	93.7064	139.16	93.6204	139.16	93.6271	139.16	93.5704	139.16	93.5717	139.16	93.5438	139.16	93.5437
143.555	94.7664	143.555	94.7602	143.555	94.7526	143.555	94.7347	143.555	94.72	143.555	94.6915	143.555	94.6709	143.555	94.6334	143.555	94.6084	143.555	94.5636	143.555	94.5362	143.555	94.4851	143.555	94.4576	143.555	94.4004	143.555	94.3755	143.555	94.3113	143.555	94.2914	143.555	94.2188	143.555	94.2057	143.555	94.1233	143.555	94.1179	143.555	94.0255	143.555	94.0269	143.555	93.9268	143.555	93.9327	143.555	93.8297	143.555	93.8371	143.555	93.7382	143.555	93.7445	143.555	93.6576	143.555	93.6616	143.555	93.594	143.555	93.5957	143.555	93.5529	143.555	93.5533	143.555	93.5387
147.949	94.8957	147.949	94.8895	147.949	94.8797	147.949	94.8617	147.949	94.8422	147.949	94.8136	147.949	94.7853	147.949	94.7471	147.949	94.7121	147.949	94.6643	147.949	94.6267	147.949	94.5669	147.949	94.533	147.949	94.4569	147.949	94.4349	147.949	94.3361	147.949	94.3351	147.949	94.2072	147.949	94.2348	147.949	94.0735	147.949	94.1342	147.949	93.9396	147.949	94.0326	147.949	93.8109	147.949	93.9293	147.949	93.6934	147.949	93.825	147.949	93.5928	147.949	93.7222	147.949	93.5142	147.949	93.6258	147.949	93.4615	147.949	93.5428	147.949	93.4376	147.949	93.4802	147.949	93.4441
153.809	94.6438	153.809	94.6557	153.809	94.6106	153.809	94.6472	153.809	94.5566	153.809	94.6201	153.809	94.4842	153.809	94.5768	153.809	94.3975	153.809	94.5191	153.809	94.3014	153.809	94.4481	153.809	94.2012	153.809	94.3642	153.809	94.1019	153.809	94.2674	153.809	94.0073	153.809	94.1588	153.809	93.9205	153.809	94.0411	153.809	93.8437	153.809	93.9195	153.809	93.778	153.809	93.8021	153.809	93.7235	153.809	93.6982	153.809	93.6787	153.809	93.6158	153.809	93.641	153.809	93.5598	153.809	93.6079	153.809	93.53	153.809	93.5779	153.809	93.5226	153.809	93.5517	153.809	93.5317
159.668	94.7871	159.668	94.7733	159.668	94.7821	159.668	94.7442	159.668	94.7565	159.668	94.704	159.668	94.7102	159.668	94.6568	159.668	94.645	159.668	94.6054	159.668	94.5638	159.668	94.5505	159.668	94.4702	159.668	94.4903	159.668	94.3676	159.668	94.4221	159.668	94.2593	159.668	94.3428	159.668	94.1482	159.668	94.2513	159.668	94.0377	159.668	94.1492	159.668	93.9321	159.668	94.0418	159.668	93.8366	159.668	93.9368	159.668	93.7568	159.668	93.8428	159.668	93.6973	159.668	93.7665	159.668	93.6596	159.668	93.7107	159.668	93.642	159.668	93.6735	159.668	93.6403	159.668	93.651
165.527	94.8029	165.527	94.7806	165.527	94.7979	165.527	94.7316	165.527	94.7672	165.527	94.6586	165.527	94.714	165.527	94.5664	165.527	94.6435	165.527	94.4611	165.527	94.5615	165.527	94.3494	165.527	94.4743	165.527	94.2372	165.527	94.3876	165.527	94.1289	165.527	94.3054	165.527	94.0271	165.527	94.2302	165.527	93.9333	165.527	94.1619	165.527	93.8488	165.527	94.0992	165.527	93.7758	165.527	94.0394	165.527	93.717	165.527	93.9803	165.527	93.6754	165.527	93.9204	165.527	93.653	165.527	93.8599	165.527	93.6506	165.527	93.8009	165.527	93.6673	165.527	93.7464	165.527	93.7005
171.387	94.711	171.387	94.6944	171.387	94.7027	171.387	94.6536	171.387	94.6705	171.387	94.5911	171.387	94.6162	171.387	94.5113	171.387	94.5423	171.387	94.4202	171.387	94.4519	171.387	94.3242	171.387	94.3479	171.387	94.2282	171.387	94.2334	171.387	94.1349	171.387	94.1118	171.387	94.0436	171.387	93.9873	171.387	93.9523	171.387	93.8666	171.387	93.859	171.387	93.7582	171.387	93.7654	171.387	93.6711	171.387	93.6771	171.387	93.6102	171.387	93.603	171.387	93.5744	171.387	93.5511	171.387	93.5563	171.387	93.5241	171.387	93.5459	171.387	93.5183	171.387	93.536	171.387	93.5252
177.246	94.9549	177.246	94.9541	177.246	94.9113	177.246	94.9076	177.246	94.8274	177.246	94.8178	177.246	94.7103	177.246	94.6902	177.246	94.5692	177.246	94.5337	177.246	94.4153	177.246	94.3602	177.246	94.2599	177.246	94.1828	177.246	94.113	177.246	94.0143	177.246	93.9813	177.246	93.8647	177.246	93.8668	177.246	93.7388	177.246	93.7675	177.246	93.6358	177.246	93.6788	177.246	93.551	177.246	93.5969	177.246	93.4788	177.246	93.5202	177.246	93.416	177.246	93.4501	177.246	93.3632	177.246	93.3893	177.246	93.3232	177.246	93.3413	177.246	93.2996	177.246	93.309	177.246	93.2947
183.105	94.908	183.105	94.9185	183.105	94.8631	183.105	94.8937	183.105	94.7855	183.105	94.8331	183.105	94.6771	183.105	94.7365	183.105	94.5409	183.105	94.6049	183.105	94.3802	183.105	94.4405	183.105	94.1994	183.105	94.2484	183.105	94.0034	183.105	94.0368	183.105	93.7982	183.105	93.8168	183.105	93.5907	183.105	93.6015	183.105	93.389	183.105	93.403	183.105	93.203	183.105	93.2304	183.105	93.0433	183.105	93.0887	183.105	92.9196	183.105	92.9795	183.105	92.8373	183.105	92.9013	183.105	92.7945	183.105	92.85	183.105	92.7817	183.105	92.8187	183.105	92.7864	183.105	92.7993
188.965	94.663	188.965	94.666	188.965	94.6247	188.965	94.6367	188.965	94.5505	188.965	94.5798	188.965	94.4425	188.965	94.5008	188.965	94.3062	188.965	94.4052	188.965	94.1502	188.965	94.2979	188.965	93.9857	188.965	94.1822	188.965	93.8249	188.965	94.0611	188.965	93.6794	188.965	93.9375	188.965	93.5575	188.965	93.8158	188.965	93.4624	188.965	93.7013	188.965	93.3916	188.965	93.5988	188.965	93.3379	188.965	93.5101	188.965	93.2937	188.965	93.4333	188.965	93.254	188.965	93.3643	188.965	93.2197	188.965	93.3014	188.965	93.1964	188.965	93.2474	188.965	93.1914	188.965	93.2088
196.289	94.8803	196.289	94.8536	196.289	94.8618	196.289	94.7845	196.289	94.7993	196.289	94.6798	196.289	94.6976	196.289	94.5496	196.289	94.5637	196.289	94.4052	196.289	94.406	196.289	94.2567	196.289	94.2342	196.289	94.1116	196.289	94.0589	196.289	93.9742	196.289	93.8914	196.289	93.8469	196.289	93.743	196.289	93.7324	196.289	93.624	196.289	93.6347	196.289	93.5412	196.289	93.5594	196.289	93.496	196.289	93.512	196.289	93.4839	196.289	93.4939	196.289	93.4951	196.289	93.5003	196.289	93.5175	196.289	93.5205	196.289	93.5397	196.289	93.5418	196.289	93.5536	196.289	93.5545
203.613	95.0875	203.613	95.0547	203.613	95.0662	203.613	94.9672	203.613	94.995	203.613	94.828	203.613	94.8805	203.613	94.6444	203.613	94.7303	203.613	94.4275	203.613	94.5521	203.613	94.1905	203.613	94.3533	203.613	93.9479	203.613	94.1403	203.613	93.7128	203.613	93.9205	203.613	93.4972	203.613	93.7037	203.613	93.3113	203.613	93.503	203.613	93.1649	203.613	93.3337	203.613	93.0658	203.613	93.2091	203.613	93.0169	203.613	93.1353	203.613	93.0135	203.613	93.1075	203.613	93.0424	203.613	93.1116	203.613	93.0851	203.613	93.1296	203.613	93.1231	203.613	93.1445	203.613	93.1441
210.938	94.826	210.938	94.7979	210.938	94.8064	210.938	94.7228	210.938	94.7406	210.938	94.6033	210.938	94.6329	210.938	94.4442	210.938	94.4905	210.938	94.252	210.938	94.3239	210.938	94.0353	210.938	94.1452	210.938	93.8039	210.938	93.9652	210.938	93.5677	210.938	93.7917	210.938	93.3359	210.938	93.6275	210.938	93.1173	210.938	93.4723	210.938	92.922	210.938	93.326	210.938	92.7622	210.938	93.1914	210.938	92.6498	210.938	93.0735	210.938	92.5905	210.938	92.9763	210.938	92.5798	210.938	92.8981	210.938	92.6054	210.938	92.8321	210.938	92.6527	210.938	92.7706	210.938	92.7101
218.262	94.7413	218.262	94.7354	218.262	94.6971	218.262	94.6812	218.262	94.6031	218.262	94.5824	218.262	94.4624	218.262	94.4446	218.262	94.281	218.262	94.2757	218.262	94.0695	218.262	94.0854	218.262	93.8432	218.262	93.8855	218.262	93.6224	218.262	93.6885	218.262	93.4304	218.262	93.5062	218.262	93.2885	218.262	93.3484	218.262	93.2093	218.262	93.2228	218.262	93.1907	218.262	93.1354	218.262	93.2169	218.262	93.091	218.262	93.2642	218.262	93.0911	218.262	93.3108	218.262	93.1297	218.262	93.3426	218.262	93.1914	218.262	93.3538	218.262	93.2568	218.262	93.3429	218.262	93.31
225.586	95.2301	225.586	95.2264	225.586	95.1649	225.586	95.1585	225.586	95.0303	225.586	95.0338	225.586	94.8309	225.586	94.8618	225.586	94.5768	225.586	94.6533	225.586	94.2822	225.586	94.4209	225.586	93.9646	225.586	94.1793	225.586	93.6438	225.586	93.9444	225.586	93.3417	225.586	93.731	225.586	93.0821	225.586	93.5515	225.586	92.8878	225.586	93.4138	225.586	92.7767	225.586	93.3234	225.586	92.7561	225.586	93.283	225.586	92.8193	225.586	93.2907	225.586	92.9444	225.586	93.3346	225.586	93.099	225.586	93.3909	225.586	93.2484	225.586	93.4296	225.586	93.3631	225.586	93.4246
232.91	95.2458	232.91	95.1646	232.91	95.2608	232.91	95.0291	232.91	95.2	232.91	94.8517	232.91	95.0588	232.91	94.6437	232.91	94.8393	232.91	94.4151	232.91	94.551	232.91	94.176	232.91	94.2109	232.91	93.9373	232.91	93.8425	232.91	93.711	232.91	93.4755	232.91	93.5084	232.91	93.1433	232.91	93.3375	232.91	92.8774	232.91	93.2014	232.91	92.6992	232.91	93.1	232.91	92.6144	232.91	93.0335	232.91	92.6135	232.91	93.004	232.91	92.678	232.91	93.0092	232.91	92.7828	232.91	93.0355	232.91	92.8982	232.91	93.0576	232.91	92.9941	232.91	93.0488
241.699	95.0995	241.699	95.0128	241.699	95.1404	241.699	94.8833	241.699	95.132	241.699	94.7124	241.699	95.0703	241.699	94.5009	241.699	94.9524	241.699	94.2502	241.699	94.7779	241.699	93.9656	241.699	94.5494	241.699	93.6603	241.699	94.2727	241.699	93.3577	241.699	93.9577	241.699	93.089	241.699	93.6191	241.699	92.8841	241.699	93.2783	241.699	92.7577	241.699	92.963	241.699	92.7013	241.699	92.7039	241.699	92.6889	241.699	92.5276	241.699	92.6933	241.699	92.4461	241.699	92.697	241.699	92.4491	241.699	92.6928	241.699	92.5056	241.699	92.6755	241.699	92.578	241.699	92.6381
250.488	95.3431	250.488	95.3062	250.488	95.3146	250.488	95.2026	250.488	95.2237	250.488	95.0322	250.488	95.0754	250.488	94.7966	250.488	94.8779	250.488	94.4985	250.488	94.643	250.488	94.1431	250.488	94.3855	250.488	93.741	250.488	94.1207	250.488	93.3118	250.488	93.8618	250.488	92.8874	250.488	93.6199	250.488	92.5091	250.488	93.4073	250.488	92.218	250.488	93.2372	250.488	92.0426	250.488	93.1179	250.488	91.991	250.488	93.0442	250.488	92.0506	250.488	92.9983	250.488	92.1919	250.488	92.9582	250.488	92.3749	250.488	92.9061	250.488	92.5585	250.488	92.8281	250.488	92.7135
259.277	95.4758	259.277	95.5773	259.277	95.3107	259.277	95.6121	259.277	95.0844	259.277	95.578	259.277	94.7987	259.277	95.4743	259.277	94.4552	259.277	95.3008	259.277	94.0588	259.277	95.0585	259.277	93.6228	259.277	94.7501	259.277	93.1734	259.277	94.3833	259.277	92.7486	259.277	93.9746	259.277	92.3912	259.277	93.5532	259.277	92.1371	259.277	93.1588	259.277	92.0054	259.277	92.8327	259.277	91.9936	259.277	92.6025	259.277	92.0771	259.277	92.4725	259.277	92.2136	259.277	92.4263	259.277	92.3543	259.277	92.4367	259.277	92.4594	259.277	92.4739	259.277	92.5094	259.277	92.5076
268.066	94.8371	268.066	94.8239	268.066	94.8131	268.066	94.7822	268.066	94.7439	268.066	94.7204	268.066	94.6231	268.066	94.6444	268.066	94.4453	268.066	94.5569	268.066	94.2061	268.066	94.4568	268.066	93.902	268.066	94.3403	268.066	93.5322	268.066	94.2025	268.066	93.0989	268.066	94.0415	268.066	92.608	268.066	93.8603	268.066	92.0733	268.066	93.6661	268.066	91.5314	268.066	93.466	268.066	91.057	268.066	93.2628	268.066	90.7522	268.066	93.0526	268.066	90.6903	268.066	92.8249	268.066	90.8595	268.066	92.5668	268.066	91.1776	268.066	92.2683	268.066	91.5538	268.066	91.9273
276.855	94.9806	276.855	94.9035	276.855	94.9873	276.855	94.765	276.855	94.9188	276.855	94.5818	276.855	94.7728	276.855	94.3788	276.855	94.5499	276.855	94.1837	276.855	94.2557	276.855	94.0148	276.855	93.9028	276.855	93.8696	276.855	93.5158	276.855	93.7255	276.855	93.1348	276.855	93.5557	276.855	92.8114	276.855	93.3525	276.855	92.5914	276.855	93.1423	276.855	92.4909	276.855	92.9786	276.855	92.4913	276.855	92.9084	276.855	92.5553	276.855	92.9319	276.855	92.6476	276.855	92.9987	276.855	92.7439	276.855	93.0465	276.855	92.8342	276.855	93.0428	276.855	92.9179	276.855	92.9926
287.109	95.0524	287.109	94.9824	287.109	95.0578	287.109	94.8438	287.109	94.9962	287.109	94.6303	287.109	94.8596	287.109	94.3426	287.109	94.6394	287.109	94.0015	287.109	94.3328	287.109	93.6567	287.109	93.9475	287.109	93.3806	287.109	93.5011	287.109	93.2343	287.109	93.0175	287.109	93.2247	287.109	92.528	287.109	93.2975	287.109	92.0796	287.109	93.3795	287.109	91.7418	287.109	93.4314	287.109	91.5914	287.109	93.4666	287.109	91.6709	287.109	93.5226	287.109	91.956	287.109	93.6074	287.109	92.3682	287.109	93.675	287.109	92.8137	287.109	93.6557	287.109	93.2115	287.109	93.5028
297.363	95.9805	297.363	95.8777	297.363	95.9719	297.363	95.6613	297.363	95.8588	297.363	95.3342	297.363	95.6499	297.363	94.9032	297.363	95.3499	297.363	94.3807	297.363	94.9548	297.363	93.7968	297.363	94.4528	297.363	93.2236	297.363	93.8361	297.363	92.7932	297.363	93.1189	297.363	92.6515	297.363	92.3558	297.363	92.8291	297.363	91.6513	297.363	93.1787	297.363	91.1494	297.363	93.4905	297.363	90.9823	297.363	93.6348	297.363	91.1855	297.363	93.6069	297.363	91.6564	297.363	93.4945	297.363	92.2184	297.363	93.3965	297.363	92.7168	297.363	93.3378	297.363	93.0669	297.363	93.2569
307.617	95.7487	307.617	95.607	307.617	95.7994	307.617	95.3707	307.617	95.7633	307.617	95.0408	307.617	95.6422	307.617	94.6239	307.617	95.4372	307.617	94.1294	307.617	95.1533	307.617	93.5648	307.617	94.8028	307.617	92.9382	307.617	94.4042	307.617	92.2805	307.617	93.9746	307.617	91.6869	307.617	93.522	307.617	91.3295	307.617	93.0452	307.617	91.3548	307.617	92.5517	307.617	91.7231	307.617	92.0907	307.617	92.2283	307.617	91.7742	307.617	92.6728	307.617	91.7252	307.617	92.9602	307.617	91.9546	307.617	93.0816	307.617	92.3267	307.617	93.065	307.617	92.6803	307.617	92.9311
319.336	95.7169	319.336	95.4908	319.336	95.8194	319.336	95.1506	319.336	95.7952	319.336	94.7064	319.336	95.651	319.336	94.1646	319.336	95.4009	319.336	93.5307	319.336	95.0586	319.336	92.82	319.336	94.6313	319.336	92.0696	319.336	94.1224	319.336	91.3448	319.336	93.5491	319.336	90.737	319.336	92.9684	319.336	90.3624	319.336	92.4859	319.336	90.3428	319.336	92.2109	319.336	90.7168	319.336	92.1683	319.336	91.3548	319.336	92.2776	319.336	92.0319	319.336	92.4395	319.336	92.5743	319.336	92.6086	319.336	92.9141	319.336	92.7801	319.336	93.0597	319.336	92.9412	319.336	93.0519
329.59	96.0195	329.59	95.9224	329.59	96.0652	329.59	95.7797	329.59	96.0428	329.59	95.581	329.59	95.9332	329.59	95.3015	329.59	95.7236	329.59	94.9085	329.59	95.4108	329.59	94.3707	329.59	95.0002	329.59	93.6727	329.59	94.5056	329.59	92.8387	329.59	93.9481	329.59	91.9606	329.59	93.3554	329.59	91.2062	329.59	92.7636	329.59	90.7606	329.59	92.2343	329.59	90.7159	329.59	91.8668	329.59	91.0199	329.59	91.756	329.59	91.5287	329.59	91.9081	329.59	92.0819	329.59	92.2243	329.59	92.5496	329.59	92.5711	329.59	92.8492	329.59	92.8369	329.59	92.9437
341.309	96.7762	341.309	96.7373	341.309	96.7012	341.309	96.589	341.309	96.514	341.309	96.3389	341.309	96.2209	341.309	95.9935	341.309	95.8308	341.309	95.555	341.309	95.3513	341.309	95.0191	341.309	94.7858	341.309	94.3806	341.309	94.1388	341.309	93.6463	341.309	93.4385	341.309	92.8632	341.309	92.7738	341.309	92.1487	341.309	92.3067	341.309	91.6761	341.309	92.1881	341.309	91.5737	341.309	92.4206	341.309	91.8241	341.309	92.8565	341.309	92.2986	341.309	93.3263	341.309	92.8505	341.309	93.717	341.309	93.3619	341.309	93.9708	341.309	93.7551	341.309	94.0648	341.309	93.9928
353.027	96.8556	353.027	96.8029	353.027	96.8508	353.027	96.686	353.027	96.7858	353.027	96.4919	353.027	96.651	353.027	96.2076	353.027	96.435	353.027	95.8258	353.027	96.1249	353.027	95.3454	353.027	95.7028	353.027	94.7723	353.027	95.1378	353.027	94.1247	353.027	94.3827	353.027	93.4465	353.027	93.3854	353.027	92.8251	353.027	92.1426	353.027	92.3901	353.027	90.8281	353.027	92.2551	353.027	89.9294	353.027	92.4267	353.027	89.9474	353.027	92.7918	353.027	90.7201	353.027	93.1982	353.027	91.7035	353.027	93.5179	353.027	92.5667	353.027	93.6586	353.027	93.1963	353.027	93.5606
366.211	96.8556	366.211	96.7221	366.211	96.923	366.211	96.5163	366.211	96.925	366.211	96.2308	366.211	96.8531	366.211	95.8594	366.211	96.691	366.211	95.3967	366.211	96.4196	366.211	94.8352	366.211	96.025	366.211	94.164	366.211	95.5057	366.211	93.3752	366.211	94.8728	366.211	92.4983	366.211	94.1381	366.211	91.6664	366.211	93.302	366.211	91.1424	366.211	92.373	366.211	91.1332	366.211	91.4347	366.211	91.5322	366.211	90.721	366.211	92.0489	366.211	90.5412	366.211	92.4854	366.211	90.9552	366.211	92.7702	366.211	91.6614	366.211	92.8671	366.211	92.3129	366.211	92.727
379.395	96.9268	379.395	96.8583	379.395	96.9178	379.395	96.7123	379.395	96.8345	379.395	96.4836	379.395	96.6868	379.395	96.1545	379.395	96.4854	379.395	95.6945	379.395	96.231	379.395	95.0701	379.395	95.9046	379.395	94.2613	379.395	95.4709	379.395	93.2841	379.395	94.8985	379.395	92.2191	379.395	94.1859	379.395	91.2529	379.395	93.3836	379.395	90.6885	379.395	92.6044	379.395	90.7717	379.395	92.0114	379.395	91.4019	379.395	91.7544	379.395	92.2169	379.395	91.8645	379.395	92.9154	379.395	92.2316	379.395	93.3606	379.395	92.6966	379.395	93.5238	379.395	93.1282	379.395	93.4289
392.578	96.3498	392.578	96.298	392.578	96.3445	392.578	96.19	392.578	96.276	392.578	96.0226	392.578	96.1338	392.578	95.788	392.578	95.9087	392.578	95.4711	392.578	95.6003	392.578	95.0465	392.578	95.2155	392.578	94.4773	392.578	94.7557	392.578	93.7296	392.578	94.2058	392.578	92.8065	392.578	93.5446	392.578	91.7971	392.578	92.7781	392.578	90.9097	392.578	91.986	392.578	90.4324	392.578	91.3627	392.578	90.5499	392.578	91.1599	392.578	91.1476	392.578	91.4559	392.578	91.908	392.578	92.0375	392.578	92.5613	392.578	92.6106	392.578	92.9777	392.578	92.9944	392.578	93.1222
405.762	96.6935	405.762	96.574	405.762	96.6877	405.762	96.3298	405.762	96.5669	405.762	95.9779	405.762	96.344	405.762	95.5511	405.762	96.025	405.762	95.085	405.762	95.6063	405.762	94.5894	405.762	95.079	405.762	94.0178	405.762	94.4389	405.762	93.2823	405.762	93.701	405.762	92.3421	405.762	92.9137	405.762	91.331	405.762	92.1596	405.762	90.5967	405.762	91.5322	405.762	90.4286	405.762	91.1203	405.762	90.7425	405.762	91.0156	405.762	91.2867	405.762	91.2685	405.762	91.8972	405.762	91.7876	405.762	92.4551	405.762	92.3619	405.762	92.8403	405.762	92.7922	405.762	92.9633
420.41	96.3757	420.41	96.3163	420.41	96.3537	420.41	96.1729	420.41	96.2543	420.41	95.9369	420.41	96.0885	420.41	95.5908	420.41	95.8708	420.41	95.1238	420.41	95.6081	420.41	94.5546	420.41	95.2845	420.41	93.9239	420.41	94.8481	420.41	93.2277	420.41	94.2129	420.41	92.3696	420.41	93.2932	420.41	91.2675	420.41	92.0647	420.41	90.1408	420.41	90.6397	420.41	89.6656	420.41	89.3328	420.41	90.1605	420.41	88.6332	420.41	91.021	420.41	88.8739	420.41	91.7144	420.41	89.8169	420.41	92.131	420.41	90.9012	420.41	92.297	420.41	91.7349	420.41	92.1897
435.059	96.3733	435.059	96.3348	435.059	96.3257	435.059	96.2142	435.059	96.1875	435.059	96.0082	435.059	95.9606	435.059	95.6968	435.059	95.6551	435.059	95.2361	435.059	95.2821	435.059	94.5691	435.059	94.8433	435.059	93.6567	435.059	94.326	435.059	92.5145	435.059	93.7082	435.059	91.2444	435.059	92.9728	435.059	90.0457	435.059	92.1432	435.059	89.1809	435.059	91.3405	435.059	88.9139	435.059	90.7928	435.059	89.3738	435.059	90.6737	435.059	90.3475	435.059	90.9167	435.059	91.3902	435.059	91.3304	435.059	92.1591	435.059	91.7903	435.059	92.5244	435.059	92.2203	435.059	92.5097
451.172	96.5478	451.172	96.4425	451.172	96.5513	451.172	96.2624	451.172	96.4473	451.172	96.0311	451.172	96.261	451.172	95.7549	451.172	96.0261	451.172	95.4273	451.172	95.7519	451.172	95.0339	451.172	95.4097	451.172	94.5387	451.172	94.9522	451.172	93.8678	451.172	94.3374	451.172	92.9176	451.172	93.5315	451.172	91.6248	451.172	92.4929	451.172	90.1309	451.172	91.1883	451.172	88.9838	451.172	89.7464	451.172	88.8399	451.172	88.7807	451.172	89.5818	451.172	89.0412	451.172	90.5721	451.172	90.1043	451.172	91.3787	451.172	91.0895	451.172	91.8356	451.172	91.6915	451.172	91.9309
465.82	96.3524	465.82	96.1727	465.82	96.4082	465.82	95.8995	465.82	96.32	465.82	95.56	465.82	96.0946	465.82	95.1766	465.82	95.7661	465.82	94.7606	465.82	95.3686	465.82	94.2945	465.82	94.9051	465.82	93.7256	465.82	94.3512	465.82	92.9959	465.82	93.6941	465.82	92.0918	465.82	92.9657	465.82	91.0883	465.82	92.2145	465.82	90.1822	465.82	91.4289	465.82	89.6613	465.82	90.5624	465.82	89.7106	465.82	89.7815	465.82	90.2417	465.82	89.607	465.82	90.999	465.82	90.2557	465.82	91.7157	465.82	91.2007	465.82	92.1787	465.82	91.9303	465.82	92.2642
483.398	96.215	483.398	96.0979	483.398	96.2632	483.398	95.9338	483.398	96.2191	483.398	95.7413	483.398	96.0548	483.398	95.5153	483.398	95.757	483.398	95.2201	483.398	95.3596	483.398	94.8103	483.398	94.9321	483.398	94.2465	483.398	94.5012	483.398	93.4811	483.398	93.9797	483.398	92.4281	483.398	93.2071	483.398	90.9784	483.398	92.0859	483.398	89.1947	483.398	90.7411	483.398	87.8453	483.398	89.6034	483.398	88.0927	483.398	89.1387	483.398	89.2999	483.398	89.3923	483.398	90.2941	483.398	90.0695	483.398	90.8544	483.398	90.7849	483.398	91.1663	483.398	91.2324	483.398	91.325
499.512	96.2812	499.512	96.1658	499.512	96.319	499.512	95.997	499.512	96.2474	499.512	95.7755	499.512	96.052	499.512	95.4801	499.512	95.7467	499.512	95.0827	499.512	95.3499	499.512	94.563	499.512	94.8513	499.512	93.9035	499.512	94.2243	499.512	93.0787	499.512	93.476	499.512	92.0888	499.512	92.6455	499.512	91.0305	499.512	91.7285	499.512	90.1151	499.512	90.709	499.512	89.6025	499.512	89.7814	499.512	89.7368	499.512	89.3531	499.512	90.5124	499.512	89.5596	499.512	91.5066	499.512	90.1869	499.512	92.2742	499.512	91.0247	499.512	92.6032	499.512	91.8589	499.512	92.444
517.09	95.5979	517.09	95.6627	517.09	95.4502	517.09	95.5869	517.09	95.2869	517.09	95.3478	517.09	95.1563	517.09	94.9651	517.09	95.0669	517.09	94.4798	517.09	94.9797	517.09	93.9134	517.09	94.812	517.09	93.2326	517.09	94.4743	517.09	92.3331	517.09	93.929	517.09	91.0788	517.09	93.1915	517.09	89.4872	517.09	92.2199	517.09	88.1298	517.09	90.8508	517.09	88.0166	517.09	89.0622	517.09	89.0555	517.09	87.7645	517.09	90.41	517.09	88.4426	517.09	91.7278	517.09	90.2412	517.09	92.847	517.09	91.872	517.09	93.5344	517.09	93.0218	517.09	93.6025
536.133	96.1633	536.133	95.9218	536.133	96.2397	536.133	95.5631	536.133	96.1434	536.133	95.1778	536.133	95.8662	536.133	94.8473	536.133	95.3856	536.133	94.5739	536.133	94.7182	536.133	94.2601	536.133	93.9643	536.133	93.7554	536.133	93.2051	536.133	92.9142	536.133	92.3373	536.133	91.6012	536.133	91.1536	536.133	89.6841	536.133	89.6563	536.133	87.2715	536.133	88.2721	536.133	85.8625	536.133	87.585	536.133	87.308	536.133	87.8588	536.133	89.5276	536.133	89.0656	536.133	91.0733	536.133	90.6926	536.133	91.965	536.133	92.0158	536.133	92.4903	536.133	92.6922	536.133	92.7762
555.176	96.0615	555.176	95.9488	555.176	96.0625	555.176	95.7567	555.176	95.9466	555.176	95.5231	555.176	95.7483	555.176	95.2574	555.176	95.5051	555.176	94.8916	555.176	95.2059	555.176	94.2895	555.176	94.806	555.176	93.347	555.176	94.273	555.176	92.0846	555.176	93.5654	555.176	90.6144	555.176	92.5604	555.176	88.9652	555.176	91.0274	555.176	87.0647	555.176	88.6875	555.176	85.3945	555.176	85.4839	555.176	85.4809	555.176	83.1221	555.176	87.2416	555.176	84.6238	555.176	89.0935	555.176	87.1848	555.176	90.3449	555.176	89.0098	555.176	90.8696	555.176	90.1371	555.176	90.7548
574.219	95.681	574.219	95.4259	574.219	95.8758	574.219	95.1991	574.219	95.8927	574.219	95.0332	574.219	95.688	574.219	94.9324	574.219	95.3542	574.219	94.8785	574.219	95.0456	574.219	94.806	574.219	94.8303	574.219	94.5617	574.219	94.6194	574.219	93.8925	574.219	94.2235	574.219	92.5112	574.219	93.4574	574.219	90.1825	574.219	92.2197	574.219	86.7802	574.219	90.4735	574.219	83.0842	574.219	88.1346	574.219	83.6656	574.219	85.3431	574.219	87.0362	574.219	84.3477	574.219	89.4313	574.219	86.7432	574.219	90.8167	574.219	89.3524	574.219	91.5445	574.219	90.9974	574.219	91.6664
594.727	95.4453	594.727	95.3693	594.727	95.3548	594.727	95.1123	594.727	95.1736	594.727	94.7326	594.727	94.9839	594.727	94.3526	594.727	94.8054	594.727	94.0965	594.727	94.5915	594.727	93.9531	594.727	94.3065	594.727	93.756	594.727	93.9799	594.727	93.3211	594.727	93.6285	594.727	92.4858	594.727	93.1249	594.727	91.036	594.727	92.1781	594.727	88.7573	594.727	90.3921	594.727	86.1302	594.727	87.3101	594.727	85.9022	594.727	83.3931	594.727	88.3417	594.727	84.2645	594.727	90.6705	594.727	87.7105	594.727	92.1182	594.727	89.9353	594.727	92.6069	594.727	91.3245	594.727	92.253
615.234	95.7552	615.234	95.626	615.234	95.7795	615.234	95.3549	615.234	95.7039	615.234	94.9546	615.234	95.4886	615.234	94.5308	615.234	95.1357	615.234	94.2165	615.234	94.7602	615.234	94.0173	615.234	94.5123	615.234	93.7472	615.234	94.3932	615.234	93.1386	615.234	94.2018	615.234	91.97	615.234	93.6779	615.234	90.1082	615.234	92.6278	615.234	87.4592	615.234	90.8994	615.234	84.1567	615.234	88.2784	615.234	83.1044	615.234	84.6271	615.234	86.3353	615.234	82.5831	615.234	89.2528	615.234	85.7532	615.234	90.9148	615.234	88.9634	615.234	91.6539	615.234	90.8586	615.234	91.6679
637.207	96.5509	637.207	96.3051	637.207	96.4548	637.207	95.7888	637.207	96.0327	637.207	95.171	637.207	95.3673	637.207	94.6778	637.207	94.6198	637.207	94.4537	637.207	94.0653	637.207	94.4617	637.207	93.9448	637.207	94.5508	637.207	94.1876	637.207	94.4888	637.207	94.5038	637.207	93.932	637.207	94.5855	637.207	92.4554	637.207	94.0955	637.207	89.4902	637.207	92.6934	637.207	84.1537	637.207	90.0963	637.207	81.2789	637.207	86.1105	637.207	86.6091	637.207	83.0051	637.207	90.0301	637.207	86.2822	637.207	91.9297	637.207	89.8938	637.207	92.8341	637.207	91.9929	637.207	92.883
659.18	96.8039	659.18	96.6112	659.18	96.779	659.18	96.2133	659.18	96.5099	659.18	95.5826	659.18	96.0155	659.18	94.8242	659.18	95.3306	659.18	94.2685	659.18	94.5334	659.18	94.0563	659.18	93.876	659.18	93.9055	659.18	93.6426	659.18	93.5785	659.18	93.7103	659.18	92.9938	659.18	93.6594	659.18	91.8669	659.18	93.1682	659.18	89.5242	659.18	91.9766	659.18	84.8179	659.18	89.6671	659.18	80.2297	659.18	85.7418	659.18	85.9813	659.18	82.4854	659.18	89.7299	659.18	85.9537	659.18	91.5113	659.18	89.5283	659.18	92.1885	659.18	91.4612	659.18	92.1919
682.617	97.4493	682.617	97.1902	682.617	97.3613	682.617	96.56	682.617	97.0078	682.617	95.7195	682.617	96.4073	682.617	94.9024	682.617	95.5396	682.617	94.2798	682.617	94.4697	682.617	94.1061	682.617	93.5484	682.617	94.4337	682.617	93.2861	682.617	94.6861	682.617	93.5478	682.617	94.2492	682.617	93.6848	682.617	92.8617	682.617	93.3423	682.617	90.3988	682.617	92.3572	682.617	86.5563	682.617	90.4158	682.617	82.2284	682.617	87.0278	682.617	84.8692	682.617	83.0441	682.617	89.0076	682.617	85.2733	682.617	91.3928	682.617	88.9603	682.617	92.3577	682.617	91.1163	682.617	92.2025
707.52	97.9924	707.52	97.5685	707.52	98.0654	707.52	96.9371	707.52	97.6814	707.52	96.133	707.52	96.8895	707.52	95.1323	707.52	95.8596	707.52	94.1108	707.52	94.7509	707.52	93.5359	707.52	93.6724	707.52	93.6193	707.52	92.8685	707.52	93.8812	707.52	92.6908	707.52	93.7969	707.52	92.9584	707.52	93.1178	707.52	93.008	707.52	91.429	707.52	92.3195	707.52	87.5941	707.52	90.4726	707.52	77.8199	707.52	86.6429	707.52	82.1124	707.52	80.0757	707.52	88.5937	707.52	83.7674	707.52	91.6509	707.52	88.9457	707.52	93.1875	707.52	91.8886	707.52	93.287
732.422	97.5162	732.422	97.2483	732.422	97.6261	732.422	96.7479	732.422	97.5278	732.422	95.8483	732.422	97.1271	732.422	94.5822	732.422	96.3368	732.422	93.4122	732.422	95.1908	732.422	92.8588	732.422	93.977	732.422	92.9729	732.422	93.1425	732.422	93.5011	732.422	92.9591	732.422	93.8613	732.422	93.235	732.422	93.2627	732.422	93.3921	732.422	91.1823	732.422	92.8717	732.422	87.2863	732.422	91.2174	732.422	79.8766	732.422	87.69	732.422	77.9921	732.422	80.2036	732.422	86.7887	732.422	80.5302	732.422	90.4953	732.422	87.3571	732.422	91.8386	732.422	90.442	732.422	91.7442
757.324	98.0726	757.324	97.7676	757.324	98.1568	757.324	97.1899	757.324	98.0084	757.324	96.2466	757.324	97.5882	757.324	94.8789	757.324	96.8833	757.324	93.3437	757.324	95.8144	757.324	92.5068	757.324	94.2949	757.324	92.8191	757.324	92.8607	757.324	93.5399	757.324	92.6537	757.324	93.9578	757.324	93.2825	757.324	93.5957	757.324	93.634	757.324	91.9551	757.324	93.2675	757.324	88.2665	757.324	91.7455	757.324	80.3885	757.324	88.3104	757.324	80.8874	757.324	81.3014	757.324	87.8918	757.324	79.4661	757.324	90.9116	757.324	86.97	757.324	91.9785	757.324	90.314	757.324	91.7424
785.156	98.7173	785.156	98.4015	785.156	98.5785	785.156	97.5997	785.156	98.2113	785.156	96.5553	785.156	97.6994	785.156	95.3818	785.156	96.8938	785.156	93.6892	785.156	95.735	785.156	91.3492	785.156	94.3889	785.156	90.3461	785.156	93.0317	785.156	91.54	785.156	92.1477	785.156	92.6169	785.156	92.4175	785.156	92.9957	785.156	92.9102	785.156	92.4876	785.156	92.5341	785.156	89.8688	785.156	91.3341	785.156	81.2392	785.156	89.1445	785.156	80.7757	785.156	83.7307	785.156	88.1885	785.156	81.0525	785.156	90.5105	785.156	88.8975	785.156	91.6909	785.156	91.7246	785.156	92.2574
811.523	98.7717	811.523	98.5453	811.523	98.9198	811.523	98.2558	811.523	98.6757	811.523	97.5366	811.523	98.0321	811.523	96.1906	811.523	97.2845	811.523	94.4731	811.523	96.3387	811.523	92.7314	811.523	94.8446	811.523	91.4673	811.523	93.198	811.523	92.0092	811.523	92.2157	811.523	93.4446	811.523	91.9507	811.523	93.7842	811.523	92.5838	811.523	92.472	811.523	93.5018	811.523	89.4735	811.523	92.9796	811.523	83.9198	811.523	89.6062	811.523	66.7247	811.523	81.6598	811.523	85.8031	811.523	74.8947	811.523	90.7468	811.523	86.0008	811.523	92.4366	811.523	90.5739	811.523	92.3797
840.82	99.0033	840.82	98.8532	840.82	98.9067	840.82	98.4636	840.82	98.7301	840.82	97.8741	840.82	98.4504	840.82	96.8217	840.82	97.8344	840.82	94.9504	840.82	96.7875	840.82	92.5251	840.82	95.2708	840.82	90.9133	840.82	93.2436	840.82	90.6168	840.82	91.6497	840.82	91.2689	840.82	91.8232	840.82	92.6505	840.82	92.4159	840.82	93.1809	840.82	92.5154	840.82	91.4996	840.82	91.9438	840.82	86.2284	840.82	90.0324	840.82	71.9878	840.82	84.8322	840.82	82.8858	840.82	74.366	840.82	88.949	840.82	84.9546	840.82	91.8583	840.82	89.505	840.82	91.8928
870.117	99.3263	870.117	99.1232	870.117	99.3032	870.117	98.7823	870.117	98.9371	870.117	98.0474	870.117	98.4308	870.117	96.9587	870.117	97.7771	870.117	95.8289	870.117	96.7309	870.117	94.0656	870.117	95.3873	870.117	90.6626	870.117	93.8007	870.117	89.333	870.117	91.5854	870.117	92.0302	870.117	90.4276	870.117	92.923	870.117	91.7748	870.117	92.2655	870.117	92.5808	870.117	91.0077	870.117	92.3323	870.117	87.2794	870.117	90.9864	870.117	69.1135	870.117	86.4527	870.117	84.4516	870.117	71.9701	870.117	89.3511	870.117	85.295	870.117	90.9445	870.117	89.9258	870.117	91.2627
900.879	99.0015	900.879	99.2317	900.879	98.8545	900.879	99.0553	900.879	98.9606	900.879	98.6044	900.879	98.7562	900.879	97.9759	900.879	98.1769	900.879	96.7072	900.879	97.563	900.879	94.6031	900.879	96.4227	900.879	92.1807	900.879	94.264	900.879	89.6962	900.879	91.8804	900.879	88.9045	900.879	90.4552	900.879	91.825	900.879	90.419	900.879	93.4262	900.879	92.1637	900.879	92.2537	900.879	92.8753	900.879	88.3281	900.879	90.6993	900.879	77.9336	900.879	85.5246	900.879	81.6401	900.879	71.5376	900.879	88.8684	900.879	84.7885	900.879	91.5229	900.879	90.5245	900.879	92.1106
933.105	99.2811	933.105	98.9347	933.105	99.3049	933.105	98.5366	933.105	98.82	933.105	98.0717	933.105	98.2496	933.105	97.548	933.105	97.7149	933.105	96.6894	933.105	96.8109	933.105	94.9343	933.105	95.6487	933.105	92.1723	933.105	94.2725	933.105	89.8303	933.105	91.9653	933.105	90.3081	933.105	89.591	933.105	91.6319	933.105	90.4402	933.105	92.5768	933.105	91.7385	933.105	92.6043	933.105	92.0704	933.105	90.1028	933.105	91.7288	933.105	81.101	933.105	88.2302	933.105	80.0953	933.105	70.664	933.105	88.4616	933.105	84.0208	933.105	90.973	933.105	88.7125	933.105	90.804
965.332	98.9414	965.332	98.78	965.332	98.8211	965.332	98.3848	965.332	98.6094	965.332	97.9099	965.332	98.1714	965.332	97.1532	965.332	97.5158	965.332	96.2158	965.332	96.7656	965.332	95.2265	965.332	95.5683	965.332	93.5292	965.332	94.013	965.332	90.7042	965.332	92.6351	965.332	88.4868	965.332	90.742	965.332	89.8717	965.332	88.7566	965.332	91.1029	965.332	89.5025	965.332	90.1209	965.332	90.3654	965.332	87.5945	965.332	88.8797	965.332	82.175	965.332	85.4645	965.332	70.4189	965.332	78.6022	965.332	86.0397	965.332	77.5592	965.332	89.5533	965.332	87.3466	965.332	89.7204
1,000.49	98.6298	1,000.49	98.4726	1,000.49	98.442	1,000.49	97.8819	1,000.49	98.0284	1,000.49	96.9681	1,000.49	97.5235	1,000.49	96.0977	1,000.49	96.6622	1,000.49	95.1871	1,000.49	95.2204	1,000.49	93.6957	1,000.49	94.0425	1,000.49	91.5706	1,000.49	93.2628	1,000.49	89.9549	1,000.49	91.3661	1,000.49	89.9645	1,000.49	88.4343	1,000.49	90.4166	1,000.49	88.0368	1,000.49	91.1273	1,000.49	89.462	1,000.49	92.0307	1,000.49	89.9541	1,000.49	91.0304	1,000.49	90.0322	1,000.49	85.0508	1,000.49	88.0701	1,000.49	71.2621	1,000.49	79.4455	1,000.49	84.2754	1,000.49	79.267	1,000.49	88.7387	1,000.49	87.6888	1,000.49	89.9804
1,035.64	98.1913	1,035.64	97.6533	1,035.64	98.2257	1,035.64	96.7451	1,035.64	97.9013	1,035.64	96.0048	1,035.64	97.1786	1,035.64	95.4231	1,035.64	96.1696	1,035.64	94.4869	1,035.64	95.1578	1,035.64	93.2092	1,035.64	93.7616	1,035.64	91.7325	1,035.64	91.6689	1,035.64	89.3179	1,035.64	89.8764	1,035.64	86.1709	1,035.64	88.9685	1,035.64	87.2339	1,035.64	87.6339	1,035.64	89.3069	1,035.64	87.0701	1,035.64	88.8254	1,035.64	88.4147	1,035.64	86.2165	1,035.64	88.5685	1,035.64	82.5667	1,035.64	85.5916	1,035.64	75.0653	1,035.64	78.6934	1,035.64	84.8458	1,035.64	69.9742	1,035.64	87.6445	1,035.64	83.7651	1,035.64	87.0987
1,072.27	97.7616	1,072.27	97.5288	1,072.27	97.8745	1,072.27	97.0285	1,072.27	97.6684	1,072.27	95.9659	1,072.27	96.9527	1,072.27	94.6373	1,072.27	96.0767	1,072.27	93.8633	1,072.27	95.1037	1,072.27	92.6652	1,072.27	93.4044	1,072.27	89.817	1,072.27	91.3081	1,072.27	86.5062	1,072.27	89.2464	1,072.27	83.9294	1,072.27	86.6015	1,072.27	85.583	1,072.27	84.8426	1,072.27	88.3347	1,072.27	85.9523	1,072.27	88.4769	1,072.27	86.9787	1,072.27	85.8309	1,072.27	86.7197	1,072.27	79.7206	1,072.27	85.0788	1,072.27	76.3455	1,072.27	77.5054	1,072.27	85.4924	1,072.27	78.5399	1,072.27	86.7777	1,072.27	85.513	1,072.27	86.7526
1,108.89	97.2994	1,108.89	96.8025	1,108.89	97.4456	1,108.89	96.3027	1,108.89	96.8209	1,108.89	95.3639	1,108.89	96.0494	1,108.89	94.2875	1,108.89	95.1453	1,108.89	93.2948	1,108.89	93.9158	1,108.89	91.9331	1,108.89	93.168	1,108.89	90.5837	1,108.89	92.1955	1,108.89	88.8867	1,108.89	90.0262	1,108.89	86.3242	1,108.89	87.5976	1,108.89	86.2758	1,108.89	86.4974	1,108.89	87.9408	1,108.89	85.7758	1,108.89	87.976	1,108.89	86.4636	1,108.89	86.3328	1,108.89	87.3772	1,108.89	81.0472	1,108.89	85.1595	1,108.89	70.0865	1,108.89	79.9547	1,108.89	76.3001	1,108.89	70.0346	1,108.89	80.0391	1,108.89	77.79	1,108.89	82.065
1,148.44	96.4948	1,148.44	96.1243	1,148.44	97.0801	1,148.44	95.6689	1,148.44	96.8048	1,148.44	94.604	1,148.44	95.8298	1,148.44	93.5981	1,148.44	94.9089	1,148.44	92.3743	1,148.44	93.8548	1,148.44	91.2816	1,148.44	92.9113	1,148.44	90.8883	1,148.44	91.8248	1,148.44	89.2199	1,148.44	89.9003	1,148.44	85.9071	1,148.44	87.781	1,148.44	84.0761	1,148.44	84.8034	1,148.44	84.7433	1,148.44	83.2145	1,148.44	87.4742	1,148.44	85.5919	1,148.44	87.3047	1,148.44	84.8193	1,148.44	82.185	1,148.44	83.9095	1,148.44	74.8218	1,148.44	82.186	1,148.44	83.2896	1,148.44	77.9544	1,148.44	86.7456	1,148.44	84.1085	1,148.44	85.6698
1,189.45	95.9737	1,189.45	95.6948	1,189.45	95.8562	1,189.45	94.775	1,189.45	95.6496	1,189.45	93.3104	1,189.45	95.0546	1,189.45	91.8859	1,189.45	93.957	1,189.45	91.0353	1,189.45	92.6426	1,189.45	89.7928	1,189.45	91.1795	1,189.45	88.0524	1,189.45	89.7732	1,189.45	87.0519	1,189.45	88.542	1,189.45	84.5032	1,189.45	86.9489	1,189.45	81.5062	1,189.45	84.1174	1,189.45	85.3257	1,189.45	81.9109	1,189.45	85.5285	1,189.45	84.7949	1,189.45	84.0386	1,189.45	86.2265	1,189.45	80.6223	1,189.45	83.5029	1,189.45	58.7909	1,189.45	74.269	1,189.45	77.942	1,189.45	73.268	1,189.45	82.9483	1,189.45	79.7791	1,189.45	84.7419
1,230.47	95.8908	1,230.47	95.2598	1,230.47	95.8884	1,230.47	94.4301	1,230.47	95.36	1,230.47	93.5518	1,230.47	94.4572	1,230.47	92.5242	1,230.47	93.1373	1,230.47	90.973	1,230.47	91.7798	1,230.47	89.182	1,230.47	90.7048	1,230.47	88.4593	1,230.47	89.6371	1,230.47	86.5917	1,230.47	88.4395	1,230.47	83.9742	1,230.47	86.8407	1,230.47	84.3257	1,230.47	84.8161	1,230.47	82.7075	1,230.47	83.3332	1,230.47	83.7897	1,230.47	83.1175	1,230.47	84.6545	1,230.47	84.228	1,230.47	80.5783	1,230.47	83.8072	1,230.47	70.6428	1,230.47	80.0925	1,230.47	80.9536	1,230.47	75.1742	1,230.47	83.96	1,230.47	81.0807	1,230.47	83.6663
1,274.41	95.9745	1,274.41	95.5418	1,274.41	95.9415	1,274.41	94.6985	1,274.41	95.3332	1,274.41	93.7421	1,274.41	94.2323	1,274.41	92.1819	1,274.41	93.0239	1,274.41	90.599	1,274.41	92.028	1,274.41	90.1975	1,274.41	90.7864	1,274.41	88.6991	1,274.41	89.1077	1,274.41	86.9377	1,274.41	88.2091	1,274.41	86.1381	1,274.41	86.9309	1,274.41	81.7094	1,274.41	84.1383	1,274.41	81.7209	1,274.41	82.5446	1,274.41	84.6274	1,274.41	83.4645	1,274.41	83.4026	1,274.41	85.2124	1,274.41	79.8743	1,274.41	83.7282	1,274.41	67.7335	1,274.41	78.2799	1,274.41	81.2781	1,274.41	69.6625	1,274.41	85.0771	1,274.41	81.1063	1,274.41	84.3773
1,319.82	96.3726	1,319.82	95.834	1,319.82	96.0661	1,319.82	95.0913	1,319.82	95.4986	1,319.82	93.9036	1,319.82	94.8532	1,319.82	92.3815	1,319.82	93.3584	1,319.82	91.0112	1,319.82	91.4855	1,319.82	89.3924	1,319.82	90.1521	1,319.82	88.3027	1,319.82	89.1616	1,319.82	87.6126	1,319.82	87.2893	1,319.82	85.6655	1,319.82	86.6178	1,319.82	83.1825	1,319.82	85.4444	1,319.82	82.2012	1,319.82	82.7433	1,319.82	83.5118	1,319.82	82.8923	1,319.82	84.2903	1,319.82	83.869	1,319.82	79.9353	1,319.82	84.296	1,319.82	74.6873	1,319.82	76.3574	1,319.82	81.942	1,319.82	69.365	1,319.82	85.0895	1,319.82	81.1411	1,319.82	85.9157
1,366.7	95.7645	1,366.7	95.8136	1,366.7	95.7513	1,366.7	94.839	1,366.7	95.1822	1,366.7	93.6411	1,366.7	94.0645	1,366.7	92.9083	1,366.7	93.2153	1,366.7	91.3681	1,366.7	92.0898	1,366.7	89.5405	1,366.7	90.3971	1,366.7	88.4539	1,366.7	88.8254	1,366.7	87.2401	1,366.7	88.0038	1,366.7	84.5661	1,366.7	86.8139	1,366.7	83.3956	1,366.7	84.9206	1,366.7	83.1321	1,366.7	83.5798	1,366.7	84.7789	1,366.7	85.1626	1,366.7	85.1137	1,366.7	85.3037	1,366.7	81.0103	1,366.7	84.3843	1,366.7	70.7478	1,366.7	80.6804	1,366.7	79.0212	1,366.7	63.4296	1,366.7	84.6781	1,366.7	82.2228	1,366.7	84.8969
1,413.57	95.5218	1,413.57	95.1531	1,413.57	95.594	1,413.57	94.6084	1,413.57	95.3163	1,413.57	93.8	1,413.57	94.4758	1,413.57	92.4771	1,413.57	93.4462	1,413.57	91.5385	1,413.57	91.9794	1,413.57	90.1793	1,413.57	90.9961	1,413.57	88.7331	1,413.57	89.2069	1,413.57	87.3013	1,413.57	88.3143	1,413.57	84.6403	1,413.57	87.6975	1,413.57	83.8072	1,413.57	84.104	1,413.57	84.3301	1,413.57	81.0318	1,413.57	85.4869	1,413.57	81.989	1,413.57	83.8095	1,413.57	84.1353	1,413.57	79.5011	1,413.57	83.193	1,413.57	62.4015	1,413.57	79.1771	1,413.57	79.278	1,413.57	67.7467	1,413.57	82.1378	1,413.57	78.6978	1,413.57	82.9334
1,463.38	95.2302	1,463.38	94.8892	1,463.38	95.3549	1,463.38	94.2243	1,463.38	94.5741	1,463.38	93.3409	1,463.38	93.2816	1,463.38	91.8652	1,463.38	92.6892	1,463.38	90.4416	1,463.38	91.1596	1,463.38	89.9005	1,463.38	88.7946	1,463.38	88.7712	1,463.38	88.4827	1,463.38	87.7606	1,463.38	86.4917	1,463.38	86.384	1,463.38	84.4429	1,463.38	84.1222	1,463.38	83.6413	1,463.38	82.7616	1,463.38	82.6726	1,463.38	82.5905	1,463.38	81.5637	1,463.38	85.091	1,463.38	84.6542	1,463.38	82.8491	1,463.38	84.6268	1,463.38	74.1548	1,463.38	81.4815	1,463.38	77.203	1,463.38	75.4287	1,463.38	83.6158	1,463.38	79.0831	1,463.38	83.171
1,516.11	94.4777	1,516.11	94.1986	1,516.11	94.8332	1,516.11	93.6774	1,516.11	94.2338	1,516.11	92.6239	1,516.11	93.4043	1,516.11	91.2646	1,516.11	93.0732	1,516.11	90.0348	1,516.11	91.0522	1,516.11	88.8719	1,516.11	89.4383	1,516.11	87.7306	1,516.11	88.3332	1,516.11	86.6881	1,516.11	86.0541	1,516.11	85.1048	1,516.11	85.0968	1,516.11	82.0529	1,516.11	82.1217	1,516.11	81.4766	1,516.11	79.3507	1,516.11	82.4896	1,516.11	77.6954	1,516.11	81.926	1,516.11	81.1464	1,516.11	80.5974	1,516.11	81.184	1,516.11	73.4623	1,516.11	79.2496	1,516.11	74.8049	1,516.11	72.5023	1,516.11	80.1979	1,516.11	73.449	1,516.11	80.135
1,568.85	94.4013	1,568.85	93.773	1,568.85	94.2237	1,568.85	92.9323	1,568.85	93.5822	1,568.85	92.0431	1,568.85	92.9635	1,568.85	90.3598	1,568.85	92.4422	1,568.85	89.1312	1,568.85	90.3642	1,568.85	86.8709	1,568.85	89.5793	1,568.85	85.811	1,568.85	87.5216	1,568.85	85.0282	1,568.85	85.5516	1,568.85	83.1273	1,568.85	84.3075	1,568.85	81.6828	1,568.85	83.6564	1,568.85	80.1776	1,568.85	81.8644	1,568.85	79.2024	1,568.85	81.048	1,568.85	81.7738	1,568.85	79.3696	1,568.85	79.5963	1,568.85	82.4429	1,568.85	65.5712	1,568.85	81.3806	1,568.85	67.813	1,568.85	65.5303	1,568.85	81.2897	1,568.85	71.9125	1,568.85	80.0914
1,624.51	95.0322	1,624.51	94.6914	1,624.51	95.0208	1,624.51	93.7414	1,624.51	94.7946	1,624.51	92.9068	1,624.51	94.1938	1,624.51	91.6972	1,624.51	93.5688	1,624.51	89.5237	1,624.51	92.4014	1,624.51	87.5094	1,624.51	90.7954	1,624.51	85.5284	1,624.51	89.1728	1,624.51	85.9314	1,624.51	87.7226	1,624.51	84.386	1,624.51	86.6203	1,624.51	79.5922	1,624.51	84.7768	1,624.51	79.7186	1,624.51	82.5431	1,624.51	81.1856	1,624.51	83.2357	1,624.51	81.96	1,624.51	82.5468	1,624.51	83.0097	1,624.51	83.4289	1,624.51	70.6307	1,624.51	81.3801	1,624.51	77.379	1,624.51	74.6864	1,624.51	80.3169	1,624.51	73.154	1,624.51	79.6371
1,681.64	96.0825	1,681.64	96.0532	1,681.64	96.3224	1,681.64	95.1916	1,681.64	95.6344	1,681.64	94.0594	1,681.64	94.9984	1,681.64	92.3662	1,681.64	94.2964	1,681.64	91.0022	1,681.64	92.5818	1,681.64	89.098	1,681.64	91.8791	1,681.64	87.0712	1,681.64	90.7353	1,681.64	85.5806	1,681.64	89.1634	1,681.64	84.8557	1,681.64	87.1542	1,681.64	85.1631	1,681.64	85.436	1,681.64	81.7561	1,681.64	84.3511	1,681.64	80.9883	1,681.64	82.5649	1,681.64	83.9055	1,681.64	81.8809	1,681.64	82.3942	1,681.64	83.8322	1,681.64	80.367	1,681.64	84.6541	1,681.64	73.7112	1,681.64	78.037	1,681.64	71.8611	1,681.64	79.2318	1,681.64	78.1817
1,741.7	96.1157	1,741.7	95.9252	1,741.7	96.1616	1,741.7	95.0821	1,741.7	95.6137	1,741.7	94.0173	1,741.7	94.6396	1,741.7	92.7595	1,741.7	93.6362	1,741.7	91.1979	1,741.7	92.211	1,741.7	89.7969	1,741.7	90.9494	1,741.7	88.4004	1,741.7	89.9053	1,741.7	87.2795	1,741.7	88.6436	1,741.7	85.7771	1,741.7	86.8282	1,741.7	82.8842	1,741.7	85.7272	1,741.7	80.7608	1,741.7	83.8	1,741.7	79.5184	1,741.7	80.5583	1,741.7	82.3102	1,741.7	81.0304	1,741.7	82.9137	1,741.7	83.9401	1,741.7	79.9055	1,741.7	82.208	1,741.7	61.0059	1,741.7	74.5357	1,741.7	80.3102	1,741.7	69.5042	1,741.7	80.8657
1,803.22	96.1035	1,803.22	95.5979	1,803.22	95.8493	1,803.22	94.9504	1,803.22	95.1966	1,803.22	93.9723	1,803.22	94.1351	1,803.22	93.0944	1,803.22	93.0095	1,803.22	91.4206	1,803.22	91.5116	1,803.22	89.6707	1,803.22	90.0757	1,803.22	88.1678	1,803.22	88.091	1,803.22	87.1042	1,803.22	87.4996	1,803.22	84.8958	1,803.22	86.4939	1,803.22	82.9747	1,803.22	84.6083	1,803.22	81.7127	1,803.22	82.8739	1,803.22	82.6092	1,803.22	81.9168	1,803.22	81.9668	1,803.22	79.7305	1,803.22	82.6679	1,803.22	81.5598	1,803.22	79.9478	1,803.22	82.9031	1,803.22	72.9117	1,803.22	76.118	1,803.22	77.8251	1,803.22	58.9403	1,803.22	78.7579
1,866.21	95.4478	1,866.21	95.081	1,866.21	95.5484	1,866.21	94.1895	1,866.21	94.9493	1,866.21	93.1004	1,866.21	93.8671	1,866.21	91.9623	1,866.21	92.8273	1,866.21	90.9358	1,866.21	91.3088	1,866.21	89.7784	1,866.21	90.2257	1,866.21	88.0426	1,866.21	88.2301	1,866.21	86.6991	1,866.21	86.7564	1,866.21	85.872	1,866.21	86.4574	1,866.21	83.7937	1,866.21	84.9033	1,866.21	82.059	1,866.21	82.3157	1,866.21	80.7104	1,866.21	81.6802	1,866.21	81.9973	1,866.21	80.5474	1,866.21	82.9258	1,866.21	81.1477	1,866.21	78.4707	1,866.21	81.9486	1,866.21	71.4216	1,866.21	80.7046	1,866.21	75.142	1,866.21	69.4941	1,866.21	72.4434
1,932.13	95.2978	1,932.13	94.4402	1,932.13	95.2178	1,932.13	93.4006	1,932.13	94.9134	1,932.13	92.6376	1,932.13	94.3765	1,932.13	91.9299	1,932.13	93.5044	1,932.13	90.6455	1,932.13	92.2496	1,932.13	88.6834	1,932.13	91.1519	1,932.13	86.7956	1,932.13	89.7106	1,932.13	85.5486	1,932.13	87.6826	1,932.13	84.5187	1,932.13	86.3676	1,932.13	81.925	1,932.13	85.9861	1,932.13	81.1136	1,932.13	83.3179	1,932.13	81.2725	1,932.13	82.1226	1,932.13	78.7719	1,932.13	81.2814	1,932.13	81.611	1,932.13	81.7861	1,932.13	81.2117	1,932.13	82.4643	1,932.13	71.9564	1,932.13	80.35	1,932.13	77.6267	1,932.13	74.3676	1,932.13	78.3976
1,999.51	95.7133	1,999.51	94.9408	1,999.51	95.7182	1,999.51	94.3545	1,999.51	95.535	1,999.51	93.2121	1,999.51	95.0806	1,999.51	92.0516	1,999.51	94.2794	1,999.51	91.0384	1,999.51	93.0736	1,999.51	89.4636	1,999.51	92.1369	1,999.51	87.1323	1,999.51	91.1061	1,999.51	84.1048	1,999.51	88.7416	1,999.51	83.7558	1,999.51	87.9397	1,999.51	83.8526	1,999.51	85.9346	1,999.51	81.4118	1,999.51	85.0978	1,999.51	81.686	1,999.51	82.1132	1,999.51	79.4537	1,999.51	82.8612	1,999.51	79.6531	1,999.51	81.6772	1,999.51	76.4766	1,999.51	83.652	1,999.51	67.7194	1,999.51	82.3898	1,999.51	77.9979	1,999.51	75.6931	1,999.51	77.5537
2,069.82	95.7976	2,069.82	95.4669	2,069.82	95.9578	2,069.82	94.9543	2,069.82	95.804	2,069.82	94.079	2,069.82	95.3963	2,069.82	93.03	2,069.82	94.7256	2,069.82	91.6536	2,069.82	93.8959	2,069.82	90.441	2,069.82	92.5898	2,069.82	88.1071	2,069.82	91.6949	2,069.82	85.0401	2,069.82	89.1326	2,069.82	84.3384	2,069.82	87.374	2,069.82	83.7151	2,069.82	87.4568	2,069.82	80.2747	2,069.82	84.2243	2,069.82	79.2939	2,069.82	82.8448	2,069.82	80.7175	2,069.82	81.9708	2,069.82	81.2366	2,069.82	81.7397	2,069.82	81.8933	2,069.82	82.8287	2,069.82	73.7752	2,069.82	81.6912	2,069.82	73.4068	2,069.82	75.8432	2,069.82	77.7644
2,143.07	95.4352	2,143.07	95.2191	2,143.07	95.3073	2,143.07	94.7713	2,143.07	95.0939	2,143.07	94.1955	2,143.07	94.7943	2,143.07	93.3545	2,143.07	94.1949	2,143.07	91.8161	2,143.07	93.0787	2,143.07	90.5875	2,143.07	91.9751	2,143.07	89.3194	2,143.07	90.6707	2,143.07	86.627	2,143.07	88.7676	2,143.07	84.4506	2,143.07	87.2579	2,143.07	83.7218	2,143.07	85.411	2,143.07	81.5384	2,143.07	84.5276	2,143.07	80.569	2,143.07	83.4654	2,143.07	79.5702	2,143.07	81.2529	2,143.07	81.5176	2,143.07	80.3723	2,143.07	82.6542	2,143.07	83.7189	2,143.07	77.1579	2,143.07	82.3206	2,143.07	73.8338	2,143.07	74.1948	2,143.07	77.0324
2,219.24	94.7502	2,219.24	94.2814	2,219.24	94.4643	2,219.24	94.4191	2,219.24	94.1341	2,219.24	93.9179	2,219.24	94.0101	2,219.24	93.6219	2,219.24	93.1966	2,219.24	92.0369	2,219.24	92.2658	2,219.24	90.0295	2,219.24	91.0115	2,219.24	89.1749	2,219.24	89.3753	2,219.24	87.4	2,219.24	87.6912	2,219.24	85.1083	2,219.24	84.8235	2,219.24	84.9748	2,219.24	83.2644	2,219.24	82.4814	2,219.24	84.3055	2,219.24	82.4894	2,219.24	80.6434	2,219.24	80.4424	2,219.24	81.0485	2,219.24	80.879	2,219.24	80.8034	2,219.24	81.0686	2,219.24	79.9287	2,219.24	77.7945	2,219.24	81.7009	2,219.24	73.4424	2,219.24	77.4822	2,219.24	73.4001
2,296.88	94.1527	2,296.88	94.3723	2,296.88	94.0751	2,296.88	94.1707	2,296.88	94.4245	2,296.88	93.8947	2,296.88	94.0414	2,296.88	92.8031	2,296.88	93.9758	2,296.88	91.2411	2,296.88	93.0435	2,296.88	90.0299	2,296.88	91.6814	2,296.88	88.1118	2,296.88	90.3226	2,296.88	86.1729	2,296.88	88.5415	2,296.88	84.9722	2,296.88	86.2022	2,296.88	84.8152	2,296.88	85.0562	2,296.88	82.411	2,296.88	83.8705	2,296.88	80.5152	2,296.88	81.4577	2,296.88	80.9901	2,296.88	81.3769	2,296.88	81.5696	2,296.88	80.1335	2,296.88	81.1842	2,296.88	79.4988	2,296.88	76.3482	2,296.88	81.6844	2,296.88	74.0707	2,296.88	75.7671	2,296.88	77.2582
2,378.91	95.1044	2,378.91	95.2224	2,378.91	95.5713	2,378.91	94.893	2,378.91	95.5052	2,378.91	94.2221	2,378.91	95.8806	2,378.91	93.0416	2,378.91	95.3741	2,378.91	91.8532	2,378.91	94.9361	2,378.91	89.8758	2,378.91	93.9192	2,378.91	87.6329	2,378.91	92.326	2,378.91	87.1885	2,378.91	90.4075	2,378.91	84.4241	2,378.91	88.2274	2,378.91	83.33	2,378.91	86.5595	2,378.91	81.3989	2,378.91	85.5655	2,378.91	78.6818	2,378.91	85.3972	2,378.91	81.0357	2,378.91	83.1032	2,378.91	79.5844	2,378.91	82.6068	2,378.91	80.8772	2,378.91	82.822	2,378.91	76.1931	2,378.91	84.1713	2,378.91	71.976	2,378.91	80.6156	2,378.91	74.7605
2,462.4	96.1354	2,462.4	96.4237	2,462.4	96.4866	2,462.4	96.5303	2,462.4	96.6156	2,462.4	96.0121	2,462.4	97.0636	2,462.4	95.1645	2,462.4	96.8386	2,462.4	93.8289	2,462.4	95.7502	2,462.4	91.8695	2,462.4	94.5495	2,462.4	89.5743	2,462.4	92.4415	2,462.4	88.6058	2,462.4	91.0746	2,462.4	86.0238	2,462.4	89.7911	2,462.4	84.2731	2,462.4	86.6322	2,462.4	83.0716	2,462.4	85.7512	2,462.4	80.6016	2,462.4	83.9312	2,462.4	81.8676	2,462.4	84.561	2,462.4	78.0835	2,462.4	83.0743	2,462.4	82.1835	2,462.4	83.4052	2,462.4	80.0122	2,462.4	84.8079	2,462.4	73.6074	2,462.4	79.994	2,462.4	74.889
2,548.83	95.8839	2,548.83	96.5152	2,548.83	95.6799	2,548.83	96.5083	2,548.83	96.2906	2,548.83	96.8572	2,548.83	96.2306	2,548.83	95.7659	2,548.83	96.4545	2,548.83	94.2126	2,548.83	95.4211	2,548.83	93.1423	2,548.83	93.4914	2,548.83	91.1857	2,548.83	91.6019	2,548.83	88.5666	2,548.83	90.2388	2,548.83	87.2761	2,548.83	88.5864	2,548.83	84.5875	2,548.83	85.6954	2,548.83	83.1959	2,548.83	84.8455	2,548.83	83.5187	2,548.83	83.9965	2,548.83	82.658	2,548.83	84.1158	2,548.83	80.5228	2,548.83	83.0013	2,548.83	82.3064	2,548.83	82.8752	2,548.83	80.4201	2,548.83	83.6909	2,548.83	78.6553	2,548.83	78.498	2,548.83	77.0663
2,639.65	95.5644	2,639.65	95.8374	2,639.65	95.1769	2,639.65	96.2457	2,639.65	95.5785	2,639.65	96.1251	2,639.65	95.9141	2,639.65	95.1289	2,639.65	95.677	2,639.65	93.1297	2,639.65	94.9935	2,639.65	91.6829	2,639.65	93.5296	2,639.65	89.9846	2,639.65	91.2377	2,639.65	85.7373	2,639.65	89.5643	2,639.65	86.4884	2,639.65	86.5602	2,639.65	84.8883	2,639.65	86.7893	2,639.65	82.5113	2,639.65	84.3518	2,639.65	83.1961	2,639.65	81.5736	2,639.65	83.9019	2,639.65	83.0001	2,639.65	81.2724	2,639.65	83.668	2,639.65	82.5775	2,639.65	81.0168	2,639.65	81.5019	2,639.65	83.4179	2,639.65	75.8879	2,639.65	80.1815	2,639.65	74.8159
2,731.93	94.7485	2,731.93	94.988	2,731.93	95.4353	2,731.93	96.0183	2,731.93	95.3162	2,731.93	95.2646	2,731.93	96.0787	2,731.93	94.5482	2,731.93	95.7235	2,731.93	93.1305	2,731.93	94.8714	2,731.93	90.5257	2,731.93	93.4623	2,731.93	87.3434	2,731.93	91.2931	2,731.93	86.3314	2,731.93	89.9305	2,731.93	84.0399	2,731.93	87.7532	2,731.93	83.1591	2,731.93	86.714	2,731.93	82.4951	2,731.93	83.6148	2,731.93	81.6865	2,731.93	82.2751	2,731.93	82.8637	2,731.93	81.4095	2,731.93	81.8369	2,731.93	82.3494	2,731.93	79.3256	2,731.93	80.4569	2,731.93	78.3808	2,731.93	82.7951	2,731.93	74.9954	2,731.93	79.8182	2,731.93	79.1665
2,828.61	95.3712	2,828.61	95.9863	2,828.61	95.8176	2,828.61	96.2083	2,828.61	96.1715	2,828.61	95.8529	2,828.61	96.7039	2,828.61	94.8342	2,828.61	96.3331	2,828.61	93.7777	2,828.61	95.3244	2,828.61	91.2465	2,828.61	93.8027	2,828.61	89.4859	2,828.61	92.0599	2,828.61	89.0818	2,828.61	90.0609	2,828.61	83.8123	2,828.61	88.3467	2,828.61	83.1921	2,828.61	85.6743	2,828.61	83.1153	2,828.61	84.8482	2,828.61	81.2064	2,828.61	82.2088	2,828.61	84.1394	2,828.61	81.4578	2,828.61	81.3319	2,828.61	84.4404	2,828.61	81.7201	2,828.61	81.2527	2,828.61	79.402	2,828.61	82.2895	2,828.61	76.2051	2,828.61	81.0521	2,828.61	80.0124
2,928.22	96.656	2,928.22	97.2259	2,928.22	96.7292	2,928.22	97.1192	2,928.22	97.1815	2,928.22	97.0788	2,928.22	97.382	2,928.22	95.9796	2,928.22	97.2187	2,928.22	94.1458	2,928.22	95.872	2,928.22	92.3954	2,928.22	94.2614	2,928.22	91.0201	2,928.22	92.5886	2,928.22	89.0219	2,928.22	89.8883	2,928.22	85.9885	2,928.22	88.6971	2,928.22	83.5349	2,928.22	85.3629	2,928.22	83.5755	2,928.22	85.7954	2,928.22	81.5569	2,928.22	84.9831	2,928.22	83.44	2,928.22	81.0306	2,928.22	83.1216	2,928.22	84.9555	2,928.22	82.2711	2,928.22	82.6448	2,928.22	80.493	2,928.22	84.3195	2,928.22	78.3136	2,928.22	80.5682	2,928.22	78.7238
3,030.76	96.6955	3,030.76	97.5088	3,030.76	96.1804	3,030.76	97.8323	3,030.76	97.3147	3,030.76	97.7382	3,030.76	97.4727	3,030.76	96.7765	3,030.76	97.425	3,030.76	94.6732	3,030.76	96.3684	3,030.76	93.075	3,030.76	94.3753	3,030.76	91.1777	3,030.76	92.5838	3,030.76	87.844	3,030.76	90.7264	3,030.76	86.8147	3,030.76	89.1757	3,030.76	83.5718	3,030.76	86.0612	3,030.76	82.5014	3,030.76	85.4875	3,030.76	81.2817	3,030.76	85.0002	3,030.76	84.1238	3,030.76	82.7585	3,030.76	84.5457	3,030.76	84.9672	3,030.76	84.4251	3,030.76	83.888	3,030.76	82.8546	3,030.76	83.9732	3,030.76	80.2156	3,030.76	81.0071	3,030.76	78.8635
3,137.7	96.4697	3,137.7	96.8608	3,137.7	96.4125	3,137.7	97.6112	3,137.7	96.5873	3,137.7	97.6587	3,137.7	97.2245	3,137.7	96.4569	3,137.7	97.0723	3,137.7	94.4241	3,137.7	96.4736	3,137.7	93.2803	3,137.7	94.6708	3,137.7	91.0296	3,137.7	92.6748	3,137.7	89.0498	3,137.7	90.9378	3,137.7	86.8629	3,137.7	88.1232	3,137.7	85.3028	3,137.7	86.6413	3,137.7	83.6846	3,137.7	84.2844	3,137.7	81.7872	3,137.7	85.0295	3,137.7	83.0412	3,137.7	82.8991	3,137.7	83.9435	3,137.7	84.4626	3,137.7	83.5539	3,137.7	84.2224	3,137.7	83.1787	3,137.7	83.2174	3,137.7	75.7706	3,137.7	81.04	3,137.7	77.2557
3,249.02	95.8532	3,249.02	96.5864	3,249.02	95.4284	3,249.02	97.3653	3,249.02	96.7379	3,249.02	97.0542	3,249.02	97.5467	3,249.02	96.1211	3,249.02	97.3148	3,249.02	94.6501	3,249.02	96.6265	3,249.02	92.8207	3,249.02	95.0657	3,249.02	90.4846	3,249.02	93.1482	3,249.02	88.4615	3,249.02	91.0427	3,249.02	87.1508	3,249.02	87.492	3,249.02	85.1777	3,249.02	86.88	3,249.02	84.5603	3,249.02	84.8403	3,249.02	82.1318	3,249.02	84.7373	3,249.02	82.6939	3,249.02	81.6997	3,249.02	85.0951	3,249.02	84.0761	3,249.02	83.8053	3,249.02	84.9717	3,249.02	81.6032	3,249.02	83.3641	3,249.02	73.5226	3,249.02	80.4762	3,249.02	72.7203
3,363.28	95.7173	3,363.28	96.3672	3,363.28	96.4731	3,363.28	97.1608	3,363.28	96.3772	3,363.28	97.3405	3,363.28	97.292	3,363.28	95.3533	3,363.28	97.0783	3,363.28	94.5561	3,363.28	96.4632	3,363.28	92.2367	3,363.28	94.6284	3,363.28	90.2163	3,363.28	93.1243	3,363.28	88.2758	3,363.28	90.841	3,363.28	86.4998	3,363.28	88.0264	3,363.28	83.2647	3,363.28	86.3672	3,363.28	83.6922	3,363.28	82.9343	3,363.28	82.8274	3,363.28	82.4251	3,363.28	82.6209	3,363.28	81.6367	3,363.28	84.6208	3,363.28	82.3406	3,363.28	83.1416	3,363.28	83.849	3,363.28	81.8206	3,363.28	82.014	3,363.28	76.3454	3,363.28	80.5541	3,363.28	76.4825
3,481.93	96.1387	3,481.93	97.2601	3,481.93	95.8486	3,481.93	97.8485	3,481.93	97.073	3,481.93	97.5328	3,481.93	97.498	3,481.93	96.7907	3,481.93	97.4917	3,481.93	95.6142	3,481.93	96.2703	3,481.93	93.296	3,481.93	94.4181	3,481.93	90.9973	3,481.93	93.0714	3,481.93	89.1415	3,481.93	90.6718	3,481.93	87.6728	3,481.93	88.141	3,481.93	84.288	3,481.93	86.5514	3,481.93	84.1118	3,481.93	82.6526	3,481.93	82.2459	3,481.93	81.3095	3,481.93	82.675	3,481.93	82.9293	3,481.93	84.5998	3,481.93	81.9403	3,481.93	81.9125	3,481.93	84.6611	3,481.93	82.7488	3,481.93	81.4711	3,481.93	74.5861	3,481.93	81.7319	3,481.93	74.9923
3,604.98	97.4028	3,604.98	97.7519	3,604.98	97.1863	3,604.98	98.1361	3,604.98	98.2442	3,604.98	97.4997	3,604.98	98.3385	3,604.98	96.6409	3,604.98	98.1777	3,604.98	95.1905	3,604.98	96.844	3,604.98	93.3519	3,604.98	95.5207	3,604.98	91.2373	3,604.98	94.1269	3,604.98	89.5405	3,604.98	91.1726	3,604.98	87.3189	3,604.98	89.479	3,604.98	84.3864	3,604.98	87.66	3,604.98	83.0512	3,604.98	85.0428	3,604.98	82.7842	3,604.98	83.6917	3,604.98	81.552	3,604.98	83.5962	3,604.98	83.9733	3,604.98	82.7452	3,604.98	83.0947	3,604.98	86.0601	3,604.98	83.4712	3,604.98	83.2321	3,604.98	73.5248	3,604.98	82.9934	3,604.98	73.846
3,732.42	98.0701	3,732.42	98.5326	3,732.42	97.9459	3,732.42	98.6568	3,732.42	98.2967	3,732.42	98.1253	3,732.42	98.3827	3,732.42	97.8262	3,732.42	97.4975	3,732.42	95.422	3,732.42	96.2142	3,732.42	93.7897	3,732.42	95.2347	3,732.42	91.995	3,732.42	93.8436	3,732.42	90.0557	3,732.42	91.2159	3,732.42	87.6701	3,732.42	89.4509	3,732.42	84.7999	3,732.42	87.2191	3,732.42	83.7167	3,732.42	84.6541	3,732.42	83.2461	3,732.42	82.0373	3,732.42	82.6858	3,732.42	82.2624	3,732.42	84.18	3,732.42	80.8477	3,732.42	82.9629	3,732.42	84.7611	3,732.42	83.2492	3,732.42	82.4333	3,732.42	74.3067	3,732.42	82.2756	3,732.42	73.2065
3,864.26	97.4026	3,864.26	96.9342	3,864.26	97.5721	3,864.26	96.7921	3,864.26	96.8153	3,864.26	96.5636	3,864.26	96.6023	3,864.26	95.2579	3,864.26	96.0883	3,864.26	94.1034	3,864.26	95.4856	3,864.26	93.0806	3,864.26	94.5418	3,864.26	91.462	3,864.26	92.2522	3,864.26	89.8701	3,864.26	89.633	3,864.26	86.1514	3,864.26	88.66	3,864.26	86.1201	3,864.26	86.4702	3,864.26	82.1445	3,864.26	84.3054	3,864.26	83.1601	3,864.26	83.1538	3,864.26	81.1344	3,864.26	83.5168	3,864.26	83.6788	3,864.26	78.8455	3,864.26	81.9917	3,864.26	82.4437	3,864.26	82.0751	3,864.26	80.8338	3,864.26	70.156	3,864.26	80.7137	3,864.26	68.0476
4,000.49	97.093	4,000.49	96.0021	4,000.49	97.7801	4,000.49	96.0371	4,000.49	96.6465	4,000.49	95.4772	4,000.49	96.3219	4,000.49	94.305	4,000.49	96.0563	4,000.49	94.1096	4,000.49	96.0091	4,000.49	92.505	4,000.49	94.247	4,000.49	90.8445	4,000.49	92.0974	4,000.49	88.2184	4,000.49	90.9235	4,000.49	85.9654	4,000.49	88.6278	4,000.49	83.3314	4,000.49	85.9951	4,000.49	81.3989	4,000.49	84.4065	4,000.49	81.8356	4,000.49	82.8286	4,000.49	80.6875	4,000.49	79.1748	4,000.49	81.9461	4,000.49	80.3532	4,000.49	83.0808	4,000.49	84.8958	4,000.49	82.1517	4,000.49	81.7908	4,000.49	60.8999	4,000.49	81.3324	4,000.49	66.1273
4,141.11	97.0786	4,141.11	96.9604	4,141.11	96.4011	4,141.11	95.6856	4,141.11	96.5469	4,141.11	95.8946	4,141.11	95.9422	4,141.11	96.8432	4,141.11	96.0978	4,141.11	95.9367	4,141.11	95.4829	4,141.11	93.817	4,141.11	93.5094	4,141.11	91.2802	4,141.11	91.1628	4,141.11	88.5641	4,141.11	90.5411	4,141.11	85.4641	4,141.11	87.3776	4,141.11	84.5339	4,141.11	84.4408	4,141.11	82.2489	4,141.11	83.7247	4,141.11	80.5673	4,141.11	82.1139	4,141.11	77.4738	4,141.11	80.1662	4,141.11	83.1554	4,141.11	80.2117	4,141.11	81.919	4,141.11	82.7394	4,141.11	81.9653	4,141.11	81.0008	4,141.11	70.7832	4,141.11	82.0651	4,141.11	70.4772
4,287.6	97.5478	4,287.6	96.3156	4,287.6	97.9341	4,287.6	95.3001	4,287.6	96.2155	4,287.6	95.8025	4,287.6	95.9161	4,287.6	96.2941	4,287.6	95.0324	4,287.6	95.3958	4,287.6	95.0495	4,287.6	93.2757	4,287.6	94.2754	4,287.6	90.7532	4,287.6	92.5978	4,287.6	87.7703	4,287.6	90.6555	4,287.6	86.5471	4,287.6	87.0841	4,287.6	85.9883	4,287.6	85.3147	4,287.6	82.6392	4,287.6	83.0106	4,287.6	81.0825	4,287.6	82.2083	4,287.6	80.1792	4,287.6	81.0692	4,287.6	81.9808	4,287.6	80.3935	4,287.6	82.4701	4,287.6	81.1382	4,287.6	82.7054	4,287.6	82.5941	4,287.6	57.4765	4,287.6	80.3408	4,287.6	66.2835
4,438.48	97.8308	4,438.48	96.1413	4,438.48	97.9469	4,438.48	96.4919	4,438.48	95.8415	4,438.48	96.326	4,438.48	94.5066	4,438.48	95.9659	4,438.48	94.9708	4,438.48	94.8292	4,438.48	94.8387	4,438.48	93.7292	4,438.48	94.2817	4,438.48	90.9653	4,438.48	92.4703	4,438.48	88.2324	4,438.48	88.8902	4,438.48	83.8246	4,438.48	86.4985	4,438.48	83.2843	4,438.48	83.1446	4,438.48	82.1458	4,438.48	82.0126	4,438.48	82.1688	4,438.48	78.373	4,438.48	80.9842	4,438.48	80.6746	4,438.48	80.7883	4,438.48	78.9848	4,438.48	81.3624	4,438.48	81.1389	4,438.48	80.9057	4,438.48	82.114	4,438.48	63.0887	4,438.48	80.8755	4,438.48	62.6634
4,595.21	96.2193	4,595.21	94.7871	4,595.21	96.1205	4,595.21	92.7133	4,595.21	94.9393	4,595.21	94.9019	4,595.21	93.4408	4,595.21	95.0303	4,595.21	95.0621	4,595.21	94.2094	4,595.21	95.684	4,595.21	92.8779	4,595.21	93.6917	4,595.21	90.7777	4,595.21	91.7711	4,595.21	87.0062	4,595.21	89.467	4,595.21	86.6545	4,595.21	86.0414	4,595.21	82.0869	4,595.21	83.9397	4,595.21	82.6584	4,595.21	80.3519	4,595.21	82.3233	4,595.21	79.1559	4,595.21	82.3637	4,595.21	79.471	4,595.21	81.735	4,595.21	80.6458	4,595.21	82.6147	4,595.21	80.5824	4,595.21	80.6588	4,595.21	80.9097	4,595.21	56.2941	4,595.21	81.9333	4,595.21	69.0242
4,756.35	97.3309	4,756.35	95.7643	4,756.35	98.0164	4,756.35	95.9214	4,756.35	95.8148	4,756.35	96.118	4,756.35	95.7552	4,756.35	97.0439	4,756.35	95.7314	4,756.35	95.7657	4,756.35	95.2387	4,756.35	93.0585	4,756.35	94.479	4,756.35	88.8462	4,756.35	92.4508	4,756.35	88.1208	4,756.35	88.5032	4,756.35	85.3819	4,756.35	87.3997	4,756.35	85.2138	4,756.35	85.3293	4,756.35	81.4028	4,756.35	82.2789	4,756.35	80.4086	4,756.35	78.6621	4,756.35	82.232	4,756.35	80.2956	4,756.35	82.0197	4,756.35	79.3808	4,756.35	80.0062	4,756.35	81.5515	4,756.35	79.3006	4,756.35	82.0856	4,756.35	59.089	4,756.35	80.3224	4,756.35	68.6972
4,924.8	97.7224	4,924.8	96.1231	4,924.8	97.2536	4,924.8	96.1493	4,924.8	95.4453	4,924.8	97.1603	4,924.8	94.8786	4,924.8	97.3747	4,924.8	95.51	4,924.8	96.2487	4,924.8	95.3487	4,924.8	94.1354	4,924.8	93.6625	4,924.8	92.3725	4,924.8	91.9659	4,924.8	90.2082	4,924.8	89.685	4,924.8	86.5767	4,924.8	85.7499	4,924.8	84.5807	4,924.8	84.4809	4,924.8	82.2259	4,924.8	81.9156	4,924.8	80.0248	4,924.8	79.3012	4,924.8	81.0087	4,924.8	82.2665	4,924.8	82.4791	4,924.8	80.1851	4,924.8	83.1179	4,924.8	80.4389	4,924.8	81.6481	4,924.8	82.0859	4,924.8	60.5971	4,924.8	79.9534	4,924.8	62.8549
5,097.66	97.3697	5,097.66	96.2112	5,097.66	96.7118	5,097.66	94.325	5,097.66	96.1278	5,097.66	95.7974	5,097.66	95.1408	5,097.66	94.8124	5,097.66	96.1827	5,097.66	94.1646	5,097.66	95.9393	5,097.66	93.1453	5,097.66	94.1126	5,097.66	91.858	5,097.66	91.6838	5,097.66	88.7108	5,097.66	89.9326	5,097.66	86.8149	5,097.66	86.7281	5,097.66	80.5205	5,097.66	85.2664	5,097.66	81.4854	5,097.66	83.1067	5,097.66	82.1832	5,097.66	79.5674	5,097.66	82.692	5,097.66	80.9488	5,097.66	80.112	5,097.66	79.744	5,097.66	84.0027	5,097.66	79.2509	5,097.66	80.5086	5,097.66	80.477	5,097.66	65.4381	5,097.66	79.9926	5,097.66	66.2947
5,277.83	97.6873	5,277.83	96.4389	5,277.83	97.9158	5,277.83	96.1994	5,277.83	95.999	5,277.83	95.8948	5,277.83	96.1939	5,277.83	96.501	5,277.83	95.2279	5,277.83	95.141	5,277.83	94.3107	5,277.83	93.9263	5,277.83	93.4826	5,277.83	91.475	5,277.83	92.1016	5,277.83	88.5861	5,277.83	88.8173	5,277.83	85.9524	5,277.83	87.4159	5,277.83	83.9456	5,277.83	84.1121	5,277.83	80.7359	5,277.83	82.5466	5,277.83	76.0504	5,277.83	80.4034	5,277.83	80.7082	5,277.83	77.8139	5,277.83	81.8109	5,277.83	78.1632	5,277.83	80.9891	5,277.83	79.8912	5,277.83	77.2347	5,277.83	81.6611	5,277.83	64.3554	5,277.83	79.6051	5,277.83	67.6995
5,463.87	97.2045	5,463.87	96.1564	5,463.87	96.8519	5,463.87	95.3917	5,463.87	96.6305	5,463.87	95.5724	5,463.87	94.8312	5,463.87	95.3763	5,463.87	94.9363	5,463.87	94.7861	5,463.87	94.424	5,463.87	93.567	5,463.87	92.9847	5,463.87	91.5858	5,463.87	90.7857	5,463.87	89.674	5,463.87	91.3267	5,463.87	86.5693	5,463.87	87.2845	5,463.87	85.691	5,463.87	85.3241	5,463.87	82.1444	5,463.87	81.8042	5,463.87	80.3909	5,463.87	80.3437	5,463.87	80.5389	5,463.87	77.0932	5,463.87	82.3079	5,463.87	77.5885	5,463.87	83.5169	5,463.87	78.3996	5,463.87	80.6373	5,463.87	80.5053	5,463.87	66.5527	5,463.87	79.2854	5,463.87	70.0214
5,657.23	96.6996	5,657.23	96.4986	5,657.23	96.7344	5,657.23	95.4711	5,657.23	95.6857	5,657.23	94.701	5,657.23	94.6808	5,657.23	94.6276	5,657.23	93.8143	5,657.23	94.6023	5,657.23	93.7124	5,657.23	93.4988	5,657.23	93.4126	5,657.23	92.0983	5,657.23	93.0991	5,657.23	86.7579	5,657.23	90.0563	5,657.23	84.9047	5,657.23	86.5147	5,657.23	79.5983	5,657.23	83.6897	5,657.23	79.9174	5,657.23	81.3546	5,657.23	78.6647	5,657.23	80.3302	5,657.23	79.207	5,657.23	76.7859	5,657.23	79.0564	5,657.23	78.8575	5,657.23	81.7817	5,657.23	77.7619	5,657.23	77.7756	5,657.23	79.6228	5,657.23	68.6037	5,657.23	76.5844	5,657.23	70.2779
5,856.45	96.4131	5,856.45	96.7906	5,856.45	96.3697	5,856.45	94.8057	5,856.45	95.8197	5,856.45	92.8975	5,856.45	94.2368	5,856.45	93.9646	5,856.45	92.5741	5,856.45	93.9969	5,856.45	92.6434	5,856.45	92.7762	5,856.45	93.2869	5,856.45	89.4507	5,856.45	91.0487	5,856.45	87.3738	5,856.45	89.1994	5,856.45	84.8563	5,856.45	86.4835	5,856.45	81.9882	5,856.45	83.1599	5,856.45	79.846	5,856.45	80.2289	5,856.45	78.4217	5,856.45	79.6172	5,856.45	78.9268	5,856.45	72.1265	5,856.45	82.238	5,856.45	78.829	5,856.45	82.8817	5,856.45	79.4824	5,856.45	78.4138	5,856.45	80.8786	5,856.45	60.8547	5,856.45	75.8132	5,856.45	72.4378
6,062.99	96.1486	6,062.99	96.3184	6,062.99	95.547	6,062.99	94.2451	6,062.99	96.0189	6,062.99	93.4015	6,062.99	93.0771	6,062.99	94.2275	6,062.99	92.2178	6,062.99	94.8093	6,062.99	94.0612	6,062.99	92.3158	6,062.99	93.1699	6,062.99	88.7506	6,062.99	91.9123	6,062.99	86.978	6,062.99	89.7903	6,062.99	83.3817	6,062.99	86.2999	6,062.99	82.0335	6,062.99	82.58	6,062.99	80.0177	6,062.99	80.3045	6,062.99	76.4178	6,062.99	77.3614	6,062.99	75.9565	6,062.99	75.5641	6,062.99	77.8713	6,062.99	78.6576	6,062.99	82.373	6,062.99	77.2366	6,062.99	78.4548	6,062.99	80.4782	6,062.99	71.2365	6,062.99	74.0688	6,062.99	72.5215
6,276.86	95.6992	6,276.86	96.0919	6,276.86	96.0508	6,276.86	94.4044	6,276.86	95.7809	6,276.86	93.0406	6,276.86	94.3304	6,276.86	93.4827	6,276.86	91.3395	6,276.86	93.627	6,276.86	91.7585	6,276.86	91.8105	6,276.86	92.872	6,276.86	90.6418	6,276.86	91.3908	6,276.86	87.6479	6,276.86	87.4334	6,276.86	85.3444	6,276.86	85.0127	6,276.86	81.4043	6,276.86	82.8933	6,276.86	78.7892	6,276.86	79.3727	6,276.86	77.4802	6,276.86	75.4174	6,276.86	81.5021	6,276.86	71.4882	6,276.86	79.5535	6,276.86	75.3041	6,276.86	80.6623	6,276.86	76.9324	6,276.86	77.8012	6,276.86	80.9011	6,276.86	69.4002	6,276.86	72.1456	6,276.86	74.5293
6,498.05	96.2801	6,498.05	96.8112	6,498.05	95.9701	6,498.05	95.4765	6,498.05	96.8455	6,498.05	93.9044	6,498.05	94.4404	6,498.05	94.6697	6,498.05	93.933	6,498.05	93.4796	6,498.05	94.3888	6,498.05	92.2215	6,498.05	92.6172	6,498.05	89.5835	6,498.05	90.0852	6,498.05	87.1872	6,498.05	88.0963	6,498.05	84.3354	6,498.05	85.535	6,498.05	81.4764	6,498.05	82.7847	6,498.05	78.2568	6,498.05	78.9629	6,498.05	75.3915	6,498.05	76.7638	6,498.05	78.599	6,498.05	77.6058	6,498.05	79.7	6,498.05	75.7178	6,498.05	81.0683	6,498.05	76.2319	6,498.05	78.2163	6,498.05	80.7626	6,498.05	72.4539	6,498.05	75.4666	6,498.05	72.5141
6,726.56	96.1422	6,726.56	96.9292	6,726.56	96.3789	6,726.56	95.4895	6,726.56	96.0974	6,726.56	94.616	6,726.56	95.112	6,726.56	94.5862	6,726.56	93.4007	6,726.56	94.6915	6,726.56	94.0896	6,726.56	92.1564	6,726.56	92.9034	6,726.56	90.5344	6,726.56	90.4429	6,726.56	87.4675	6,726.56	88.0355	6,726.56	84.5922	6,726.56	84.7037	6,726.56	81.5844	6,726.56	83.85	6,726.56	79.6216	6,726.56	80.0312	6,726.56	77.0634	6,726.56	76.158	6,726.56	77.404	6,726.56	71.749	6,726.56	78.8739	6,726.56	73.9641	6,726.56	79.918	6,726.56	78.5837	6,726.56	76.5589	6,726.56	81.3721	6,726.56	71.9216	6,726.56	75.2392	6,726.56	72.1727
6,963.87	96.9724	6,963.87	96.8307	6,963.87	96.233	6,963.87	95.9272	6,963.87	96.1664	6,963.87	94.4883	6,963.87	94.7976	6,963.87	94.2853	6,963.87	94.1614	6,963.87	92.955	6,963.87	93.4997	6,963.87	92.1001	6,963.87	92.2236	6,963.87	89.7714	6,963.87	90.4613	6,963.87	87.0066	6,963.87	88.8141	6,963.87	84.0069	6,963.87	85.274	6,963.87	80.6459	6,963.87	82.2459	6,963.87	79.9516	6,963.87	79.6072	6,963.87	73.3674	6,963.87	75.4751	6,963.87	76.7451	6,963.87	77.7249	6,963.87	76.5194	6,963.87	74.7795	6,963.87	79.1738	6,963.87	77.7004	6,963.87	75.0895	6,963.87	80.4882	6,963.87	67.6402	6,963.87	75.256	6,963.87	68.7342
7,209.96	96.3369	7,209.96	96.5084	7,209.96	96.1111	7,209.96	95.7778	7,209.96	96.2129	7,209.96	94.4662	7,209.96	95.3471	7,209.96	93.7007	7,209.96	94.1643	7,209.96	93.4203	7,209.96	94.0632	7,209.96	93.138	7,209.96	93.1041	7,209.96	91.366	7,209.96	92.5748	7,209.96	87.2556	7,209.96	89.8864	7,209.96	84.7346	7,209.96	86.5974	7,209.96	81.0421	7,209.96	83.2168	7,209.96	75.8666	7,209.96	80.7112	7,209.96	77.4727	7,209.96	78.9817	7,209.96	77.056	7,209.96	71.3162	7,209.96	76.9544	7,209.96	75.5988	7,209.96	79.5342	7,209.96	78.8954	7,209.96	75.0527	7,209.96	80.3395	7,209.96	69.1951	7,209.96	75.6515	7,209.96	67.513
7,464.84	94.7742	7,464.84	95.1905	7,464.84	94.36	7,464.84	95.9188	7,464.84	94.7929	7,464.84	94.0267	7,464.84	94.9364	7,464.84	93.0323	7,464.84	93.5799	7,464.84	94.0549	7,464.84	91.899	7,464.84	91.9825	7,464.84	92.7244	7,464.84	90.7126	7,464.84	91.7028	7,464.84	85.653	7,464.84	88.8901	7,464.84	83.527	7,464.84	85.4273	7,464.84	78.6873	7,464.84	81.0878	7,464.84	75.9147	7,464.84	79.1435	7,464.84	74.4575	7,464.84	74.782	7,464.84	75.3314	7,464.84	76.0166	7,464.84	75.9806	7,464.84	73.4409	7,464.84	78.5995	7,464.84	74.5137	7,464.84	74.4191	7,464.84	79.5309	7,464.84	70.0234	7,464.84	70.2537	7,464.84	68.0625
7,727.05	95.0507	7,727.05	94.9133	7,727.05	94.8776	7,727.05	96.2664	7,727.05	94.2379	7,727.05	94.9544	7,727.05	95.6485	7,727.05	93.0098	7,727.05	94.3361	7,727.05	93.2556	7,727.05	92.9347	7,727.05	92.0677	7,727.05	93.245	7,727.05	88.8776	7,727.05	92.2583	7,727.05	84.9208	7,727.05	88.1456	7,727.05	82.9312	7,727.05	85.4164	7,727.05	79.2394	7,727.05	82.0931	7,727.05	73.6319	7,727.05	79.6258	7,727.05	76.6002	7,727.05	76.3893	7,727.05	76.1721	7,727.05	74.4422	7,727.05	77.0278	7,727.05	73.4037	7,727.05	78.7985	7,727.05	76.8817	7,727.05	72.245	7,727.05	79.2766	7,727.05	57.4138	7,727.05	72.5105	7,727.05	63.6703
7,999.51	94.3938	7,999.51	94.0468	7,999.51	94.0112	7,999.51	95.9055	7,999.51	93.9197	7,999.51	94.2209	7,999.51	95.6674	7,999.51	92.8701	7,999.51	93.8537	7,999.51	93.46	7,999.51	92.6568	7,999.51	91.5528	7,999.51	92.3511	7,999.51	88.4246	7,999.51	90.2636	7,999.51	86.3884	7,999.51	88.9167	7,999.51	82.7186	7,999.51	85.2796	7,999.51	80.3394	7,999.51	81.2566	7,999.51	76.3375	7,999.51	78.3236	7,999.51	74.6032	7,999.51	73.9443	7,999.51	75.2376	7,999.51	73.7564	7,999.51	75.538	7,999.51	73.3648	7,999.51	78.6985	7,999.51	76.8956	7,999.51	74.3103	7,999.51	77.0679	7,999.51	56.6722	7,999.51	70.3849	7,999.51	68.1123
8,282.23	94.111	8,282.23	94.544	8,282.23	93.7264	8,282.23	95.85	8,282.23	94.4136	8,282.23	94.7739	8,282.23	95.6326	8,282.23	93.9102	8,282.23	94.4505	8,282.23	93.0243	8,282.23	93.2113	8,282.23	92.1031	8,282.23	92.5557	8,282.23	88.7368	8,282.23	90.8812	8,282.23	86.0075	8,282.23	88.8857	8,282.23	83.0932	8,282.23	84.8723	8,282.23	79.7897	8,282.23	82.3969	8,282.23	78.7907	8,282.23	78.5905	8,282.23	75.9545	8,282.23	75.8754	8,282.23	74.1714	8,282.23	76.7268	8,282.23	74.3313	8,282.23	73.0692	8,282.23	78.0406	8,282.23	74.5746	8,282.23	69.9979	8,282.23	75.2439	8,282.23	57.5024	8,282.23	69.4415	8,282.23	67.0072
8,573.73	93.5237	8,573.73	94.0743	8,573.73	92.7283	8,573.73	96.008	8,573.73	93.87	8,573.73	95.3894	8,573.73	95.5592	8,573.73	93.7625	8,573.73	94.896	8,573.73	92.7121	8,573.73	93.3722	8,573.73	91.4644	8,573.73	92.0983	8,573.73	90.3412	8,573.73	90.3908	8,573.73	85.9461	8,573.73	89.1887	8,573.73	82.3554	8,573.73	85.1698	8,573.73	79.7891	8,573.73	82.517	8,573.73	76.7724	8,573.73	78.5714	8,573.73	74.9786	8,573.73	73.3627	8,573.73	72.0527	8,573.73	72.7513	8,573.73	76.1096	8,573.73	71.9113	8,573.73	78.1671	8,573.73	73.3233	8,573.73	71.4023	8,573.73	74.5915	8,573.73	54.1693	8,573.73	69.7988	8,573.73	69.3102
8,876.95	93.5636	8,876.95	95.2513	8,876.95	93.4775	8,876.95	96.2982	8,876.95	95.4473	8,876.95	95.7101	8,876.95	95.8804	8,876.95	93.4054	8,876.95	95.0178	8,876.95	92.6689	8,876.95	93.5201	8,876.95	91.5577	8,876.95	92.2683	8,876.95	88.6455	8,876.95	91.3033	8,876.95	86.0039	8,876.95	88.5533	8,876.95	82.3187	8,876.95	85.0277	8,876.95	79.6834	8,876.95	82.6536	8,876.95	77.6586	8,876.95	77.5507	8,876.95	73.0653	8,876.95	75.2485	8,876.95	69.4328	8,876.95	74.6518	8,876.95	73.6355	8,876.95	72.256	8,876.95	77.3612	8,876.95	73.8902	8,876.95	69.4256	8,876.95	75.8331	8,876.95	54.3719	8,876.95	66.9361	8,876.95	68.6657
9,188.96	93.4327	9,188.96	95.0052	9,188.96	93.6819	9,188.96	95.7275	9,188.96	94.7935	9,188.96	95.5	9,188.96	95.6189	9,188.96	93.4056	9,188.96	95.103	9,188.96	92.9944	9,188.96	93.2198	9,188.96	91.3128	9,188.96	93.0541	9,188.96	88.8532	9,188.96	92.0161	9,188.96	84.5863	9,188.96	88.2505	9,188.96	80.5223	9,188.96	84.4529	9,188.96	79.0149	9,188.96	80.2145	9,188.96	75.0931	9,188.96	76.3121	9,188.96	72.1701	9,188.96	74.367	9,188.96	64.5953	9,188.96	72.0721	9,188.96	71.9472	9,188.96	68.9117	9,188.96	76.5796	9,188.96	69.7154	9,188.96	71.9365	9,188.96	73.2389	9,188.96	60.7509	9,188.96	67.5459	9,188.96	67.4016
9,514.16	94.5503	9,514.16	95.3517	9,514.16	94.6628	9,514.16	96.1604	9,514.16	95.5594	9,514.16	95.7306	9,514.16	95.868	9,514.16	94.2667	9,514.16	95.3028	9,514.16	92.9535	9,514.16	93.7464	9,514.16	91.1328	9,514.16	93.4005	9,514.16	89.1214	9,514.16	91.8663	9,514.16	83.7297	9,514.16	88.6181	9,514.16	81.8119	9,514.16	84.7478	9,514.16	77.765	9,514.16	79.595	9,514.16	75.8284	9,514.16	78.2947	9,514.16	68.732	9,514.16	73.5468	9,514.16	61.5389	9,514.16	71.178	9,514.16	68.9385	9,514.16	69.2218	9,514.16	74.4918	9,514.16	71.2684	9,514.16	69.8797	9,514.16	74.6712	9,514.16	55.7465	9,514.16	67.0574	9,514.16	69.8588
9,849.61	94.713	9,849.61	95.1408	9,849.61	94.9924	9,849.61	95.6989	9,849.61	95.248	9,849.61	95.6871	9,849.61	95.644	9,849.61	93.9709	9,849.61	94.9387	9,849.61	92.984	9,849.61	94.1466	9,849.61	90.5737	9,849.61	92.9775	9,849.61	88.2937	9,849.61	90.1054	9,849.61	83.3702	9,849.61	87.5914	9,849.61	80.3126	9,849.61	83.4062	9,849.61	77.9075	9,849.61	80.5637	9,849.61	73.5924	9,849.61	76.8214	9,849.61	66.4263	9,849.61	74.0721	9,849.61	62.7595	9,849.61	72.1091	9,849.61	70.8094	9,849.61	68.0708	9,849.61	75.5859	9,849.61	69.4942	9,849.61	70.0771	9,849.61	73.0684	9,849.61	63.0292	9,849.61	65.5022	9,849.61	64.5414
10,196.8	96.0898	10,196.8	95.5417	10,196.8	96.1301	10,196.8	95.6159	10,196.8	95.641	10,196.8	95.8487	10,196.8	95.7034	10,196.8	94.5091	10,196.8	95.4544	10,196.8	93.1559	10,196.8	94.6663	10,196.8	90.4493	10,196.8	92.9933	10,196.8	87.2821	10,196.8	90.7475	10,196.8	83.8195	10,196.8	87.0503	10,196.8	80.5991	10,196.8	83.5577	10,196.8	75.8634	10,196.8	79.5255	10,196.8	71.181	10,196.8	76.6387	10,196.8	70.7444	10,196.8	72.1542	10,196.8	62.595	10,196.8	72.3954	10,196.8	69.9015	10,196.8	68.579	10,196.8	73.8518	10,196.8	69.9412	10,196.8	65.2329	10,196.8	72.7619	10,196.8	57.6391	10,196.8	64.7809	10,196.8	66.933
10,555.7	97.0534	10,555.7	95.9166	10,555.7	96.9491	10,555.7	95.8129	10,555.7	95.4468	10,555.7	96.0886	10,555.7	95.246	10,555.7	94.9996	10,555.7	95.4042	10,555.7	93.0851	10,555.7	94.3277	10,555.7	90.9851	10,555.7	92.3066	10,555.7	87.4294	10,555.7	90.5604	10,555.7	82.7628	10,555.7	87.0654	10,555.7	79.3809	10,555.7	83.3493	10,555.7	75.3151	10,555.7	78.9707	10,555.7	71.3722	10,555.7	75.7696	10,555.7	72.1985	10,555.7	72.5595	10,555.7	66.8209	10,555.7	71.1607	10,555.7	68.4879	10,555.7	68.0342	10,555.7	71.2802	10,555.7	69.4771	10,555.7	61.2021	10,555.7	69.1278	10,555.7	51.7524	10,555.7	64.1217	10,555.7	64.4131
10,927.7	97.9417	10,927.7	96.658	10,927.7	97.644	10,927.7	96.1632	10,927.7	96.1024	10,927.7	96.2843	10,927.7	95.1901	10,927.7	94.6099	10,927.7	95.3346	10,927.7	92.9268	10,927.7	93.4683	10,927.7	90.4426	10,927.7	91.5748	10,927.7	87.2704	10,927.7	90.0602	10,927.7	82.7055	10,927.7	86.1317	10,927.7	78.3505	10,927.7	82.4651	10,927.7	74.5249	10,927.7	76.5647	10,927.7	70.6638	10,927.7	75.4284	10,927.7	71.8216	10,927.7	70.4249	10,927.7	69.7686	10,927.7	67.4833	10,927.7	64.7592	10,927.7	63.1488	10,927.7	70.8719	10,927.7	69.5525	10,927.7	59.2772	10,927.7	68.5315	10,927.7	61.7795	10,927.7	53.5881	10,927.7	57.9017
11,313	98.5522	11,313	97.3437	11,313	98.1517	11,313	96.5577	11,313	96.9928	11,313	96.2106	11,313	95.8735	11,313	93.833	11,313	95.2835	11,313	91.9382	11,313	92.5993	11,313	89.4816	11,313	90.5919	11,313	86.3247	11,313	88.3583	11,313	81.8738	11,313	84.2737	11,313	77.8035	11,313	80.7896	11,313	72.8805	11,313	75.8475	11,313	69.4574	11,313	74.0677	11,313	71.3766	11,313	68.0455	11,313	69.2037	11,313	67.9257	11,313	65.1647	11,313	60.9771	11,313	67.6002	11,313	67.2918	11,313	58.1553	11,313	66.3699	11,313	64.8646	11,313	46.5578	11,313	60.6682
11,712.9	98.7966	11,712.9	97.9523	11,712.9	98.5072	11,712.9	96.7161	11,712.9	97.4851	11,712.9	95.7414	11,712.9	96.1996	11,712.9	93.1568	11,712.9	94.8867	11,712.9	90.584	11,712.9	92.1327	11,712.9	88.1905	11,712.9	89.439	11,712.9	84.611	11,712.9	86.8148	11,712.9	79.7702	11,712.9	82.9422	11,712.9	75.224	11,712.9	78.706	11,712.9	73.3189	11,712.9	74.1761	11,712.9	70.5402	11,712.9	70.6531	11,712.9	68.1189	11,712.9	66.8256	11,712.9	66.4136	11,712.9	67.1639	11,712.9	63.2989	11,712.9	51.6368	11,712.9	62.2924	11,712.9	64.0914	11,712.9	54.9601	11,712.9	65.395	11,712.9	56.2147	11,712.9	52.8886	11,712.9	60.6236
12,126	99.109	12,126	98.0367	12,126	98.8343	12,126	96.7228	12,126	97.9051	12,126	95.2528	12,126	96.3887	12,126	92.3301	12,126	94.3385	12,126	89.41	12,126	91.4664	12,126	86.6992	12,126	88.5125	12,126	82.8473	12,126	85.9563	12,126	77.2964	12,126	82.0591	12,126	73.0528	12,126	76.8002	12,126	69.6244	12,126	70.5506	12,126	66.2741	12,126	68.9993	12,126	64.1929	12,126	65.5638	12,126	64.8773	12,126	64.9531	12,126	60.1428	12,126	48.0712	12,126	52.2025	12,126	61.2011	12,126	49.8122	12,126	63.5461	12,126	55.2085	12,126	46.9826	12,126	56.1595
12,553.7	99.0175	12,553.7	98.084	12,553.7	98.7868	12,553.7	96.7508	12,553.7	97.944	12,553.7	94.7211	12,553.7	96.3762	12,553.7	91.6949	12,553.7	94.0088	12,553.7	88.1901	12,553.7	90.7383	12,553.7	84.3632	12,553.7	87.0663	12,553.7	79.0223	12,553.7	83.449	12,553.7	73.121	12,553.7	78.6122	12,553.7	68.5768	12,553.7	72.5076	12,553.7	63.5134	12,553.7	68.5475	12,553.7	62.2345	12,553.7	65.4985	12,553.7	61.1241	12,553.7	61.9965	12,553.7	61.9678	12,553.7	60.1839	12,553.7	59.4215	12,553.7	49.3635	12,553.7	57.8207	12,553.7	55.2949	12,553.7	48.3028	12,553.7	60.4269	12,553.7	54.4335	12,553.7	51.4884	12,553.7	54.1039
12,996.1	98.7922	12,996.1	97.9555	12,996.1	98.441	12,996.1	96.4332	12,996.1	97.6228	12,996.1	94.3324	12,996.1	96.01	12,996.1	90.8449	12,996.1	93.5142	12,996.1	86.4431	12,996.1	90.003	12,996.1	80.4688	12,996.1	85.7164	12,996.1	75.1618	12,996.1	80.9918	12,996.1	66.719	12,996.1	76.1167	12,996.1	64.272	12,996.1	68.378	12,996.1	60.0097	12,996.1	63.1823	12,996.1	56.0864	12,996.1	61.2376	12,996.1	55.8038	12,996.1	57.5806	12,996.1	59.9113	12,996.1	54.0154	12,996.1	57.4512	12,996.1	44.569	12,996.1	59.0391	12,996.1	50.0393	12,996.1	49.4454	12,996.1	58.4693	12,996.1	55.1431	12,996.1	47.382	12,996.1	47.4878
13,454.6	98.4972	13,454.6	97.4981	13,454.6	98.1287	13,454.6	95.9086	13,454.6	97.1322	13,454.6	93.3924	13,454.6	95.4411	13,454.6	89.3677	13,454.6	92.5072	13,454.6	84.4044	13,454.6	88.606	13,454.6	77.5105	13,454.6	83.8987	13,454.6	71.3131	13,454.6	78.3006	13,454.6	58.3984	13,454.6	72.6248	13,454.6	59.135	13,454.6	64.8934	13,454.6	52.9052	13,454.6	58.9288	13,454.6	55.6787	13,454.6	56.7845	13,454.6	52.9846	13,454.6	50.1966	13,454.6	57.0214	13,454.6	49.8999	13,454.6	51.9322	13,454.6	38.5713	13,454.6	58.754	13,454.6	48.0893	13,454.6	36.8104	13,454.6	54.4579	13,454.6	59.1111	13,454.6	47.8857	13,454.6	40.343
13,929.2	98.142	13,929.2	97.1369	13,929.2	97.7545	13,929.2	95.5368	13,929.2	96.7597	13,929.2	92.6344	13,929.2	94.894	13,929.2	88.1127	13,929.2	91.6021	13,929.2	82.0917	13,929.2	87.2642	13,929.2	72.4142	13,929.2	81.8814	13,929.2	62.1049	13,929.2	74.1383	13,929.2	62.9602	13,929.2	69.8697	13,929.2	59.1446	13,929.2	60.995	13,929.2	58.7529	13,929.2	58.0653	13,929.2	55.6086	13,929.2	50.8898	13,929.2	51.8069	13,929.2	29.256	13,929.2	56.0753	13,929.2	49.7276	13,929.2	49.0667	13,929.2	38.6711	13,929.2	58.816	13,929.2	40.526	13,929.2	28.8466	13,929.2	44.994	13,929.2	60.653	13,929.2	51.7711	13,929.2	44.4386
14,419.9	97.401	14,419.9	96.5172	14,419.9	97.0572	14,419.9	94.8773	14,419.9	96.09	14,419.9	92.0735	14,419.9	94.1509	14,419.9	87.3372	14,419.9	90.4054	14,419.9	80.6436	14,419.9	85.2254	14,419.9	71.8884	14,419.9	78.3736	14,419.9	68.1138	14,419.9	69.7124	14,419.9	67.5427	14,419.9	70.6374	14,419.9	61.959	14,419.9	65.8199	14,419.9	62.7463	14,419.9	60.9336	14,419.9	60.1919	14,419.9	58.1048	14,419.9	52.6895	14,419.9	54.6629	14,419.9	53.0123	14,419.9	50.7285	14,419.9	48.4127	14,419.9	48.8936	14,419.9	58.3432	14,419.9	44.6235	14,419.9	37.8688	14,419.9	45.8386	14,419.9	58.8351	14,419.9	52.9633	14,419.9	39.4835
14,928.2	96.7516	14,928.2	95.755	14,928.2	96.5473	14,928.2	93.922	14,928.2	95.5474	14,928.2	90.9104	14,928.2	93.2388	14,928.2	85.6591	14,928.2	89.3484	14,928.2	78.2394	14,928.2	83.0793	14,928.2	68.7927	14,928.2	74.0416	14,928.2	67.1507	14,928.2	70.7739	14,928.2	66.8563	14,928.2	72.3456	14,928.2	61.9524	14,928.2	68.7481	14,928.2	61.1395	14,928.2	64.7529	14,928.2	58.6416	14,928.2	61.3765	14,928.2	50.8469	14,928.2	56.3346	14,928.2	53.8983	14,928.2	48.0353	14,928.2	46.3296	14,928.2	51.7798	14,928.2	54.7141	14,928.2	47.8685	14,928.2	45.3171	14,928.2	44.3816	14,928.2	58.3779	14,928.2	50.6168	14,928.2	48.225
15,455.6	96.1745	15,455.6	95.2209	15,455.6	95.9657	15,455.6	93.3167	15,455.6	94.9282	15,455.6	90.1743	15,455.6	92.4689	15,455.6	84.0279	15,455.6	88.1191	15,455.6	74.74	15,455.6	80.063	15,455.6	67.9492	15,455.6	67.0646	15,455.6	72.0852	15,455.6	74.1353	15,455.6	68.4511	15,455.6	75.4764	15,455.6	64.6176	15,455.6	70.5595	15,455.6	61.8165	15,455.6	66.4712	15,455.6	59.6922	15,455.6	62.3404	15,455.6	55.908	15,455.6	58.8333	15,455.6	57.6943	15,455.6	50.3521	15,455.6	37.4443	15,455.6	54.3515	15,455.6	57.1473	15,455.6	52.5654	15,455.6	55.1577	15,455.6	48.6139	15,455.6	55.5847	15,455.6	46.0953	15,455.6	48.5489
16,000.5	95.6441	16,000.5	94.7731	16,000.5	95.4374	16,000.5	92.6435	16,000.5	94.3405	16,000.5	88.9407	16,000.5	91.6086	16,000.5	81.0241	16,000.5	87.0119	16,000.5	68.5978	16,000.5	75.8146	16,000.5	72.5665	16,000.5	67.6864	16,000.5	74.0011	16,000.5	76.4225	16,000.5	70.8298	16,000.5	76.1101	16,000.5	64.2056	16,000.5	71.8237	16,000.5	63.4169	16,000.5	68.1025	16,000.5	61.345	16,000.5	64.3046	16,000.5	54.5217	16,000.5	60.4285	16,000.5	57.2982	16,000.5	45.5176	16,000.5	46.5406	16,000.5	55.3689	16,000.5	54.4339	16,000.5	56.2344	16,000.5	51.9702	16,000.5	47.0929	16,000.5	53.9615	16,000.5	53.0883	16,000.5	46.0989
16,564.5	95.1789	16,564.5	94.2039	16,564.5	95.0127	16,564.5	91.9338	16,564.5	93.9486	16,564.5	87.9253	16,564.5	90.9284	16,564.5	78.8117	16,564.5	85.496	16,564.5	61.7995	16,564.5	70.9664	16,564.5	74.3454	16,564.5	73.1706	16,564.5	74.681	16,564.5	77.4639	16,564.5	70.4036	16,564.5	77.3296	16,564.5	64.9317	16,564.5	72.3907	16,564.5	63.445	16,564.5	68.4979	16,564.5	59.4503	16,564.5	63.8503	16,564.5	56.0516	16,564.5	60.823	16,564.5	56.6035	16,564.5	52.0513	16,564.5	49.584	16,564.5	55.408	16,564.5	56.4727	16,564.5	55.2228	16,564.5	54.7361	16,564.5	41.8683	16,564.5	43.092	16,564.5	54.1089	16,564.5	50.2485
17,148.9	94.8107	17,148.9	93.7763	17,148.9	94.5428	17,148.9	90.9967	17,148.9	92.9794	17,148.9	86.0868	17,148.9	89.815	17,148.9	71.9065	17,148.9	83.1357	17,148.9	71.6339	17,148.9	62.5139	17,148.9	76.1768	17,148.9	76.8582	17,148.9	75.0351	17,148.9	78.6938	17,148.9	70.6786	17,148.9	77.4104	17,148.9	61.4797	17,148.9	72.2488	17,148.9	64.1883	17,148.9	67.9958	17,148.9	58.6238	17,148.9	64.2096	17,148.9	53.8903	17,148.9	61.2099	17,148.9	55.7701	17,148.9	47.3246	17,148.9	46.8156	17,148.9	53.869	17,148.9	58.3293	17,148.9	53.2555	17,148.9	54.3107	17,148.9	51.4649	17,148.9	43.0415	17,148.9	52.0249	17,148.9	51.9445
17,752.4	94.2242	17,752.4	92.8154	17,752.4	93.918	17,752.4	89.9327	17,752.4	91.9636	17,752.4	83.9779	17,752.4	88.0996	17,752.4	69.2309	17,752.4	79.5537	17,752.4	74.9392	17,752.4	69.9384	17,752.4	76.9926	17,752.4	77.4511	17,752.4	73.3137	17,752.4	78.6465	17,752.4	69.9534	17,752.4	75.6587	17,752.4	62.5583	17,752.4	70.2424	17,752.4	65.3486	17,752.4	66.4942	17,752.4	53.4881	17,752.4	61.7445	17,752.4	54.3816	17,752.4	58.372	17,752.4	49.4951	17,752.4	51.5424	17,752.4	51.0126	17,752.4	52.8746	17,752.4	57.8003	17,752.4	53.8174	17,752.4	53.9593	17,752.4	52.1914	17,752.4	49.633	17,752.4	51.4107	17,752.4	53.2533
18,379.4	94.0526	18,379.4	92.0685	18,379.4	93.6708	18,379.4	88.1885	18,379.4	91.2855	18,379.4	80.9156	18,379.4	86.7912	18,379.4	70.5173	18,379.4	76.1901	18,379.4	76.4775	18,379.4	72.2935	18,379.4	76.3861	18,379.4	77.4993	18,379.4	72.0394	18,379.4	76.8092	18,379.4	67.5559	18,379.4	73.4813	18,379.4	61.3591	18,379.4	67.4665	18,379.4	62.2296	18,379.4	62.9975	18,379.4	54.5589	18,379.4	57.1267	18,379.4	53.9022	18,379.4	55.9288	18,379.4	53.7677	18,379.4	54.2855	18,379.4	50.5195	18,379.4	50.167	18,379.4	58.094	18,379.4	52.9311	18,379.4	57.0989	18,379.4	34.5058	18,379.4	60.9713	18,379.4	58.0688	18,379.4	58.8909
19,026.9	93.5902	19,026.9	91.3899	19,026.9	93.0666	19,026.9	87.296	19,026.9	90.1266	19,026.9	78.9072	19,026.9	84.9375	19,026.9	73.8921	19,026.9	70.3287	19,026.9	76.5285	19,026.9	74.2935	19,026.9	76.3371	19,026.9	77.4563	19,026.9	74.9348	19,026.9	76.4652	19,026.9	69.9886	19,026.9	74.0704	19,026.9	65.6334	19,026.9	67.9764	19,026.9	62.7454	19,026.9	62.3201	19,026.9	56.5827	19,026.9	58.9817	19,026.9	50.7487	19,026.9	53.4349	19,026.9	54.3255	19,026.9	50.8066	19,026.9	50.3379	19,026.9	50.2533	19,026.9	56.1577	19,026.9	54.1417	19,026.9	43.6978	19,026.9	33.3113	19,026.9	38.8897	19,026.9	51.7338	19,026.9	45.158
19,697.8	92.5597	19,697.8	90.2331	19,697.8	92.0261	19,697.8	85.6312	19,697.8	89.0969	19,697.8	75.7324	19,697.8	83.0472	19,697.8	72.7866	19,697.8	62.8533	19,697.8	77.0831	19,697.8	75.2065	19,697.8	77.3831	19,697.8	77.3142	19,697.8	75.6431	19,697.8	77.1166	19,697.8	70.1924	19,697.8	74.3112	19,697.8	66.0721	19,697.8	68.5496	19,697.8	61.523	19,697.8	62.0162	19,697.8	53.9715	19,697.8	59.1658	19,697.8	52.7436	19,697.8	54.2155	19,697.8	55.6282	19,697.8	56.0423	19,697.8	52.2839	19,697.8	48.0988	19,697.8	52.726	19,697.8	51.5632	19,697.8	36.6431	19,697.8	44.9607	19,697.8	49.1623	19,697.8	47.304	19,697.8	33.0898
19,999.5	92.1829	19,999.5	89.9494	19,999.5	91.6079	19,999.5	84.793	19,999.5	88.7147	19,999.5	73.1349	19,999.5	82.0529	19,999.5	73.4061	19,999.5	56.8554	19,999.5	77.6811	19,999.5	76.5242	19,999.5	76.499	19,999.5	77.7803	19,999.5	75.9102	19,999.5	76.7024	19,999.5	69.7109	19,999.5	74.1096	19,999.5	66.4471	19,999.5	67.9929	19,999.5	55.2634	19,999.5	62.307	19,999.5	50.3776	19,999.5	59.2485	19,999.5	41.4437	19,999.5	41.4913	19,999.5	53.0536	19,999.5	55.1152	19,999.5	63.9942	19,999.5	42.0151	19,999.5	62.182	19,999.5	51.4052	19,999.5	49.3461	19,999.5	50.7855	19,999.5	47.1327	19,999.5	45.657	19,999.5	45.8199
