"SPL Horizontal"
"On-Axis"		"10°"		"-10°"		"20°"		"-20°"		"30°"		"-30°"		"40°"		"-40°"		"50°"		"-50°"		"60°"		"-60°"		"70°"		"-70°"		"80°"		"-80°"		"90°"		"-90°"		"100°"		"-100°"		"110°"		"-110°"		"120°"		"-120°"		"130°"		"-130°"		"140°"		"-140°"		"150°"		"-150°"		"160°"		"-160°"		"170°"		"-170°"		"180°"
"Frequency [Hz]"	"Sound Pessure Level [dB]   [2.83V at 1m]"	"Frequency [Hz]"	"Sound Pessure Level [dB]   [2.83V at 1m]"	"Frequency [Hz]"	"Sound Pessure Level [dB]   [2.83V at 1m]"	"Frequency [Hz]"	"Sound Pessure Level [dB]   [2.83V at 1m]"	"Frequency [Hz]"	"Sound Pessure Level [dB]   [2.83V at 1m]"	"Frequency [Hz]"	"Sound Pessure Level [dB]   [2.83V at 1m]"	"Frequency [Hz]"	"Sound Pessure Level [dB]   [2.83V at 1m]"	"Frequency [Hz]"	"Sound Pessure Level [dB]   [2.83V at 1m]"	"Frequency [Hz]"	"Sound Pessure Level [dB]   [2.83V at 1m]"	"Frequency [Hz]"	"Sound Pessure Level [dB]   [2.83V at 1m]"	"Frequency [Hz]"	"Sound Pessure Level [dB]   [2.83V at 1m]"	"Frequency [Hz]"	"Sound Pessure Level [dB]   [2.83V at 1m]"	"Frequency [Hz]"	"Sound Pessure Level [dB]   [2.83V at 1m]"	"Frequency [Hz]"	"Sound Pessure Level [dB]   [2.83V at 1m]"	"Frequency [Hz]"	"Sound Pessure Level [dB]   [2.83V at 1m]"	"Frequency [Hz]"	"Sound Pessure Level [dB]   [2.83V at 1m]"	"Frequency [Hz]"	"Sound Pessure Level [dB]   [2.83V at 1m]"	"Frequency [Hz]"	"Sound Pessure Level [dB]   [2.83V at 1m]"	"Frequency [Hz]"	"Sound Pessure Level [dB]   [2.83V at 1m]"	"Frequency [Hz]"	"Sound Pessure Level [dB]   [2.83V at 1m]"	"Frequency [Hz]"	"Sound Pessure Level [dB]   [2.83V at 1m]"	"Frequency [Hz]"	"Sound Pessure Level [dB]   [2.83V at 1m]"	"Frequency [Hz]"	"Sound Pessure Level [dB]   [2.83V at 1m]"	"Frequency [Hz]"	"Sound Pessure Level [dB]   [2.83V at 1m]"	"Frequency [Hz]"	"Sound Pessure Level [dB]   [2.83V at 1m]"	"Frequency [Hz]"	"Sound Pessure Level [dB]   [2.83V at 1m]"	"Frequency [Hz]"	"Sound Pessure Level [dB]   [2.83V at 1m]"	"Frequency [Hz]"	"Sound Pessure Level [dB]   [2.83V at 1m]"	"Frequency [Hz]"	"Sound Pessure Level [dB]   [2.83V at 1m]"	"Frequency [Hz]"	"Sound Pessure Level [dB]   [2.83V at 1m]"	"Frequency [Hz]"	"Sound Pessure Level [dB]   [2.83V at 1m]"	"Frequency [Hz]"	"Sound Pessure Level [dB]   [2.83V at 1m]"	"Frequency [Hz]"	"Sound Pessure Level [dB]   [2.83V at 1m]"	"Frequency [Hz]"	"Sound Pessure Level [dB]   [2.83V at 1m]"	"Frequency [Hz]"	"Sound Pessure Level [dB]   [2.83V at 1m]"	"Frequency [Hz]"	"Sound Pessure Level [dB]   [2.83V at 1m]"
20.5078	68.6251	20.5078	68.6831	20.5078	68.6497	20.5078	68.8285	20.5078	68.7737	20.5078	69.0857	20.5078	69.0319	20.5078	69.4895	20.5078	69.4647	20.5078	70.0713	20.5078	70.1002	20.5078	70.8425	20.5078	70.9382	20.5078	71.7865	20.5078	71.9466	20.5078	72.8627	20.5078	73.0726	20.5078	74.0188	20.5078	74.2582	20.5078	75.2024	20.5078	75.4514	20.5078	76.3669	20.5078	76.6088	20.5078	77.4724	20.5078	77.6945	20.5078	78.4837	20.5078	78.6773	20.5078	79.3688	20.5078	79.5281	20.5078	80.0982	20.5078	80.2199	20.5078	80.6461	20.5078	80.7282	20.5078	80.992	20.5078	81.0333	20.5078	81.1226
21.9727	71.3284	21.9727	71.3997	21.9727	71.3319	21.9727	71.5496	21.9727	71.4204	21.9727	71.7933	21.9727	71.6155	21.9727	72.1528	21.9727	71.9444	21.9727	72.6479	21.9727	72.4298	21.9727	73.2876	21.9727	73.0793	21.9727	74.0639	21.9727	73.8796	21.9727	74.9525	21.9727	74.7992	21.9727	75.9176	21.9727	75.7957	21.9727	76.9191	21.9727	76.8248	21.9727	77.9176	21.9727	77.845	21.9727	78.8761	21.9727	78.8195	21.9727	79.7604	21.9727	79.715	21.9727	80.5382	21.9727	80.5012	21.9727	81.1796	21.9727	81.15	21.9727	81.6577	21.9727	81.6364	21.9727	81.9512	21.9727	81.9399	21.9727	82.0467
23.4375	73.8727	23.4375	73.8742	23.4375	73.8791	23.4375	73.8876	23.4375	73.8989	23.4375	73.9268	23.4375	73.9473	23.4375	74.0147	23.4375	74.0482	23.4375	74.1819	23.4375	74.2315	23.4375	74.4608	23.4375	74.5282	23.4375	74.8774	23.4375	74.9617	23.4375	75.442	23.4375	75.5394	23.4375	76.143	23.4375	76.2477	23.4375	76.9489	23.4375	77.0548	23.4375	77.8155	23.4375	77.917	23.4375	78.6938	23.4375	78.7869	23.4375	79.5367	23.4375	79.6181	23.4375	80.3003	23.4375	80.3677	23.4375	80.9453	23.4375	80.997	23.4375	81.4374	23.4375	81.4722	23.4375	81.7485	23.4375	81.7659	23.4375	81.8602
24.9023	74.4111	24.9023	74.4754	24.9023	74.3704	24.9023	74.5699	24.9023	74.3575	24.9023	74.7097	24.9023	74.3866	24.9023	74.9168	24.9023	74.4818	24.9023	75.2157	24.9023	74.6734	24.9023	75.6268	24.9023	74.9914	24.9023	76.1603	24.9023	75.4557	24.9023	76.8109	24.9023	76.0685	24.9023	77.5578	24.9023	76.8104	24.9023	78.3688	24.9023	77.6454	24.9023	79.2051	24.9023	78.5283	24.9023	80.0266	24.9023	79.4129	24.9023	80.7941	24.9023	80.2559	24.9023	81.4704	24.9023	81.0188	24.9023	82.0217	24.9023	81.6679	24.9023	82.4188	24.9023	82.1743	24.9023	82.6399	24.9023	82.5146	24.9023	82.6725
26.3672	76.1653	26.3672	76.1951	26.3672	76.1611	26.3672	76.2528	26.3672	76.1862	26.3672	76.3461	26.3672	76.2498	26.3672	76.4873	26.3672	76.3658	26.3672	76.6913	26.3672	76.551	26.3672	76.9731	26.3672	76.8218	26.3672	77.344	26.3672	77.1904	26.3672	77.8078	26.3672	77.6603	26.3672	78.3587	26.3672	78.2242	26.3672	78.9804	26.3672	78.8635	26.3672	79.6482	26.3672	79.5508	26.3672	80.3312	26.3672	80.2531	26.3672	80.9954	26.3672	80.935	26.3672	81.6054	26.3672	81.5603	26.3672	82.1263	26.3672	82.0943	26.3672	82.5253	26.3672	82.5049	26.3672	82.7753	26.3672	82.7653	26.3672	82.8575
27.832	77.7369	27.832	77.7731	27.832	77.7323	27.832	77.8419	27.832	77.7617	27.832	77.9481	27.832	77.8313	27.832	78.0994	27.832	77.95	27.832	78.3049	27.832	78.1288	27.832	78.574	27.832	78.3782	27.832	78.9141	27.832	78.7064	27.832	79.3277	27.832	79.1163	27.832	79.8112	27.832	79.6039	27.832	80.3538	27.832	80.1568	27.832	80.9371	27.832	80.7555	27.832	81.5369	27.832	81.3743	27.832	82.1242	27.832	81.9831	27.832	82.6671	27.832	82.5496	27.832	83.1322	27.832	83.0407	27.832	83.4877	27.832	83.4247	27.832	83.7066	27.832	83.6744	27.832	83.7708
29.2969	78.6913	29.2969	78.7149	29.2969	78.7037	29.2969	78.7757	29.2969	78.7529	29.2969	78.877	29.2969	78.8418	29.2969	79.0236	29.2969	78.9749	29.2969	79.2211	29.2969	79.1577	29.2969	79.4749	29.2969	79.3957	29.2969	79.7888	29.2969	79.6935	29.2969	80.1637	29.2969	80.0529	29.2969	80.5962	29.2969	80.4716	29.2969	81.0774	29.2969	80.9424	29.2969	81.5932	29.2969	81.4523	29.2969	82.1237	29.2969	81.9827	29.2969	82.6445	29.2969	82.5099	29.2969	83.1271	29.2969	83.0063	29.2969	83.5414	29.2969	83.4419	29.2969	83.8577	29.2969	83.7866	29.2969	84.051	29.2969	84.0139	29.2969	84.1047
30.7617	79.9747	30.7617	79.9951	30.7617	79.9871	30.7617	80.0489	30.7617	80.0326	30.7617	80.138	30.7617	80.1126	30.7617	80.2649	30.7617	80.2297	30.7617	80.4325	30.7617	80.3871	30.7617	80.644	30.7617	80.5884	30.7617	80.9017	30.7617	80.8367	30.7617	81.2063	30.7617	81.1337	30.7617	81.5564	30.7617	81.4786	30.7617	81.9468	30.7617	81.8671	30.7617	82.3683	30.7617	82.2901	30.7617	82.8066	30.7617	82.7334	30.7617	83.2428	30.7617	83.1774	30.7617	83.6532	30.7617	83.5983	30.7617	84.0113	30.7617	83.9687	30.7617	84.2901	30.7617	84.2611	30.7617	84.4656	30.7617	84.451	30.7617	84.5212
32.2266	80.9071	32.2266	80.9235	32.2266	80.92	32.2266	80.9697	32.2266	80.9628	32.2266	81.0467	32.2266	81.0364	32.2266	81.1561	32.2266	81.1426	32.2266	81.3	32.2266	81.2836	32.2266	81.4807	32.2266	81.4617	32.2266	81.7001	32.2266	81.6791	32.2266	81.9593	32.2266	81.9369	32.2266	82.2579	32.2266	82.2348	32.2266	82.5927	32.2266	82.5696	32.2266	82.9568	32.2266	82.9344	32.2266	83.3391	32.2266	83.3182	32.2266	83.7235	32.2266	83.7047	32.2266	84.0892	32.2266	84.0731	32.2266	84.4117	32.2266	84.399	32.2266	84.6655	32.2266	84.6568	32.2266	84.8279	32.2266	84.8234	32.2266	84.8824
33.6914	81.7188	33.6914	81.7269	33.6914	81.7396	33.6914	81.7642	33.6914	81.7893	33.6914	81.8312	33.6914	81.8681	33.6914	81.9288	33.6914	81.9767	33.6914	82.058	33.6914	82.1158	33.6914	82.2199	33.6914	82.2861	33.6914	82.4154	33.6914	82.4884	33.6914	82.6452	33.6914	82.723	33.6914	82.9085	33.6914	82.9888	33.6914	83.2031	33.6914	83.2832	33.6914	83.5235	33.6914	83.6008	33.6914	83.8607	33.6914	83.9326	33.6914	84.2014	33.6914	84.2653	33.6914	84.5276	33.6914	84.5815	33.6914	84.8179	33.6914	84.86	33.6914	85.0494	33.6914	85.0783	33.6914	85.2013	33.6914	85.2161	33.6914	85.2588
35.1562	82.5232	35.1562	82.5241	35.1562	82.5508	35.1562	82.5537	35.1562	82.6064	35.1562	82.6123	35.1562	82.6895	35.1562	82.7001	35.1562	82.7997	35.1562	82.8174	35.1562	82.9365	35.1562	82.9646	35.1562	83.0996	35.1562	83.1416	35.1562	83.2885	35.1562	83.3486	35.1562	83.5027	35.1562	83.5848	35.1562	83.741	35.1562	83.848	35.1562	84.0009	35.1562	84.1339	35.1562	84.2782	35.1562	84.4349	35.1562	84.5658	35.1562	84.7395	35.1562	84.8531	35.1562	85.0322	35.1562	85.1254	35.1562	85.2937	35.1562	85.3648	35.1562	85.5038	35.1562	85.5516	35.1562	85.6436	35.1562	85.6676	35.1562	85.6999
36.6211	83.3779	36.6211	83.3789	36.6211	83.4023	36.6211	83.4055	36.6211	83.4516	36.6211	83.4578	36.6211	83.5255	36.6211	83.5358	36.6211	83.6234	36.6211	83.6398	36.6211	83.7446	36.6211	83.7698	36.6211	83.8885	36.6211	83.926	36.6211	84.0545	36.6211	84.1085	36.6211	84.2417	36.6211	84.3165	36.6211	84.449	36.6211	84.5484	36.6211	84.6747	36.6211	84.8006	36.6211	84.9156	36.6211	85.0665	36.6211	85.1664	36.6211	85.3363	36.6211	85.4185	36.6211	85.5962	36.6211	85.6598	36.6211	85.8288	36.6211	85.8744	36.6211	86.0154	36.6211	86.0445	36.6211	86.1384	36.6211	86.1525	36.6211	86.1855
38.0859	83.9438	38.0859	83.9546	38.0859	83.9582	38.0859	83.9907	38.0859	83.9976	38.0859	84.0518	38.0859	84.0615	38.0859	84.1374	38.0859	84.1491	38.0859	84.2471	38.0859	84.2597	38.0859	84.3802	38.0859	84.3923	38.0859	84.536	38.0859	84.5458	38.0859	84.7135	38.0859	84.7192	38.0859	84.9116	38.0859	84.9112	38.0859	85.128	38.0859	85.1201	38.0859	85.3591	38.0859	85.343	38.0859	85.599	38.0859	85.5752	38.0859	85.8391	38.0859	85.8094	38.0859	86.067	38.0859	86.035	38.0859	86.2678	38.0859	86.2377	38.0859	86.425	38.0859	86.4015	38.0859	86.5235	38.0859	86.5107	38.0859	86.5531
39.5508	84.5328	39.5508	84.5472	39.5508	84.5434	39.5508	84.5863	39.5508	84.5788	39.5508	84.6497	39.5508	84.6383	39.5508	84.7364	39.5508	84.7209	39.5508	84.8452	39.5508	84.8255	39.5508	84.9748	39.5508	84.9505	39.5508	85.1238	39.5508	85.0946	39.5508	85.2907	39.5508	85.2563	39.5508	85.4738	39.5508	85.4339	39.5508	85.6709	39.5508	85.6255	39.5508	85.8788	39.5508	85.8287	39.5508	86.0926	39.5508	86.0391	39.5508	86.305	39.5508	86.2506	39.5508	86.5056	39.5508	86.4539	39.5508	86.6815	39.5508	86.6369	39.5508	86.8184	39.5508	86.7854	39.5508	86.903	39.5508	86.8854	39.5508	86.9262
41.0156	85.0824	41.0156	85.0975	41.0156	85.0914	41.0156	85.1361	41.0156	85.124	41.0156	85.1977	41.0156	85.1796	41.0156	85.2811	41.0156	85.2569	41.0156	85.3846	41.0156	85.3545	41.0156	85.5065	41.0156	85.4706	41.0156	85.645	41.0156	85.6035	41.0156	85.7981	41.0156	85.7512	41.0156	85.9639	41.0156	85.9121	41.0156	86.1401	41.0156	86.0842	41.0156	86.3238	41.0156	86.2649	41.0156	86.511	41.0156	86.4508	41.0156	86.6954	41.0156	86.6365	41.0156	86.8687	41.0156	86.8144	41.0156	87.0201	41.0156	86.9742	41.0156	87.1373	41.0156	87.1039	41.0156	87.2093	41.0156	87.1916	41.0156	87.2281
42.4805	85.7054	42.4805	85.7197	42.4805	85.7116	42.4805	85.7542	42.4805	85.7382	42.4805	85.808	42.4805	85.7846	42.4805	85.8798	42.4805	85.8497	42.4805	85.9681	42.4805	85.9322	42.4805	86.0712	42.4805	86.0303	42.4805	86.1872	42.4805	86.1424	42.4805	86.3143	42.4805	86.2664	42.4805	86.4507	42.4805	86.4007	42.4805	86.5946	42.4805	86.5433	42.4805	86.7438	42.4805	86.6922	42.4805	86.8952	42.4805	86.8445	42.4805	87.0444	42.4805	86.996	42.4805	87.1847	42.4805	87.1409	42.4805	87.3076	42.4805	87.2708	42.4805	87.4031	42.4805	87.3764	42.4805	87.4618	42.4805	87.4477	42.4805	87.4773
43.9453	86.1727	43.9453	86.1857	43.9453	86.1775	43.9453	86.2163	43.9453	86.2001	43.9453	86.2634	43.9453	86.2399	43.9453	86.3259	43.9453	86.2958	43.9453	86.402	43.9453	86.3664	43.9453	86.49	43.9453	86.4498	43.9453	86.588	43.9453	86.5443	43.9453	86.6941	43.9453	86.6478	43.9453	86.8065	43.9453	86.7584	43.9453	86.9237	43.9453	86.8745	43.9453	87.0439	43.9453	86.9943	43.9453	87.1647	43.9453	87.1157	43.9453	87.2828	43.9453	87.2357	43.9453	87.3933	43.9453	87.3502	43.9453	87.4895	43.9453	87.4531	43.9453	87.5638	43.9453	87.537	43.9453	87.6087	43.9453	87.5945	43.9453	87.6194
45.4102	86.5534	45.4102	86.5658	45.4102	86.5596	45.4102	86.5966	45.4102	86.5846	45.4102	86.6447	45.4102	86.6275	45.4102	86.7085	45.4102	86.687	45.4102	86.7862	45.4102	86.7614	45.4102	86.8757	45.4102	86.8486	45.4102	86.9746	45.4102	86.9463	45.4102	87.0809	45.4102	87.0519	45.4102	87.1924	45.4102	87.1635	45.4102	87.3073	45.4102	87.2788	45.4102	87.4237	45.4102	87.396	45.4102	87.5396	45.4102	87.5129	45.4102	87.6519	45.4102	87.6269	45.4102	87.7564	45.4102	87.734	45.4102	87.8475	45.4102	87.8287	45.4102	87.9182	45.4102	87.9047	45.4102	87.9623	45.4102	87.9552	45.4102	87.9751
46.875	87.0634	46.875	87.0754	46.875	87.07	46.875	87.1055	46.875	87.0949	46.875	87.1526	46.875	87.1374	46.875	87.2152	46.875	87.1959	46.875	87.2912	46.875	87.2686	46.875	87.3783	46.875	87.3532	46.875	87.4738	46.875	87.4472	46.875	87.5755	46.875	87.5479	46.875	87.6808	46.875	87.6531	46.875	87.7877	46.875	87.7603	46.875	87.8943	46.875	87.8678	46.875	87.9985	46.875	87.9735	46.875	88.0979	46.875	88.075	46.875	88.1891	46.875	88.1691	46.875	88.2676	46.875	88.2515	46.875	88.3283	46.875	88.3169	46.875	88.366	46.875	88.3601	46.875	88.3771
48.3398	87.3459	48.3398	87.3594	48.3398	87.3507	48.3398	87.3909	48.3398	87.3739	48.3398	87.4393	48.3398	87.4145	48.3398	87.5028	48.3398	87.4713	48.3398	87.5794	48.3398	87.5423	48.3398	87.6664	48.3398	87.6252	48.3398	87.7613	48.3398	87.7173	48.3398	87.8613	48.3398	87.8158	48.3398	87.9638	48.3398	87.9182	48.3398	88.0663	48.3398	88.0219	48.3398	88.1669	48.3398	88.1246	48.3398	88.2637	48.3398	88.2244	48.3398	88.3543	48.3398	88.319	48.3398	88.4362	48.3398	88.4057	48.3398	88.5055	48.3398	88.481	48.3398	88.5581	48.3398	88.5407	48.3398	88.5897	48.3398	88.5807	48.3398	88.5975
51.2695	88.1023	51.2695	88.1133	51.2695	88.1076	51.2695	88.1404	51.2695	88.1292	51.2695	88.1824	51.2695	88.1662	51.2695	88.2379	51.2695	88.2172	51.2695	88.3046	51.2695	88.2802	51.2695	88.38	51.2695	88.3527	51.2695	88.4613	51.2695	88.432	51.2695	88.5456	51.2695	88.515	51.2695	88.6299	51.2695	88.5988	51.2695	88.7117	51.2695	88.6808	51.2695	88.7889	51.2695	88.7587	51.2695	88.8597	51.2695	88.8308	51.2695	88.9229	51.2695	88.896	51.2695	88.9772	51.2695	88.9531	51.2695	89.0212	51.2695	89.0011	51.2695	89.0531	51.2695	89.0385	51.2695	89.0714	51.2695	89.0636	51.2695	89.0749
52.7344	88.4218	52.7344	88.4312	52.7344	88.4273	52.7344	88.4552	52.7344	88.4476	52.7344	88.4929	52.7344	88.4817	52.7344	88.5428	52.7344	88.5285	52.7344	88.6029	52.7344	88.5858	52.7344	88.6707	52.7344	88.6513	52.7344	88.7434	52.7344	88.7223	52.7344	88.8179	52.7344	88.7958	52.7344	88.8915	52.7344	88.8689	52.7344	88.9615	52.7344	88.9389	52.7344	89.0258	52.7344	89.0039	52.7344	89.083	52.7344	89.0624	52.7344	89.1323	52.7344	89.1134	52.7344	89.1733	52.7344	89.1568	52.7344	89.2056	52.7344	89.1921	52.7344	89.2286	52.7344	89.219	52.7344	89.2418	52.7344	89.2367	52.7344	89.2445
54.1992	88.6771	54.1992	88.6872	54.1992	88.6806	54.1992	88.7106	54.1992	88.6975	54.1992	88.7464	54.1992	88.727	54.1992	88.7931	54.1992	88.7679	54.1992	88.8489	54.1992	88.8182	54.1992	88.9112	54.1992	88.8756	54.1992	88.9772	54.1992	88.9375	54.1992	89.0439	54.1992	89.0008	54.1992	89.1082	54.1992	89.0627	54.1992	89.1675	54.1992	89.1206	54.1992	89.2197	54.1992	89.1724	54.1992	89.2633	54.1992	89.2171	54.1992	89.298	54.1992	89.2543	54.1992	89.3239	54.1992	89.2846	54.1992	89.3417	54.1992	89.309	54.1992	89.3518	54.1992	89.3282	54.1992	89.3549	54.1992	89.3425	54.1992	89.3516
55.6641	88.9586	55.6641	88.9689	55.6641	88.9586	55.6641	88.9892	55.6641	88.9687	55.6641	89.0187	55.6641	88.9885	55.6641	89.0561	55.6641	89.0169	55.6641	89.0998	55.6641	89.0524	55.6641	89.1476	55.6641	89.0929	55.6641	89.1968	55.6641	89.1362	55.6641	89.2445	55.6641	89.1796	55.6641	89.2879	55.6641	89.2202	55.6641	89.3245	55.6641	89.2557	55.6641	89.3522	55.6641	89.2843	55.6641	89.3702	55.6641	89.3052	55.6641	89.3786	55.6641	89.3187	55.6641	89.3787	55.6641	89.3262	55.6641	89.3728	55.6641	89.3303	55.6641	89.3634	55.6641	89.3333	55.6641	89.3531	55.6641	89.3375	55.6641	89.3441
58.5938	89.3969	58.5938	89.4036	58.5938	89.3984	58.5938	89.4182	58.5938	89.4079	58.5938	89.4403	58.5938	89.4247	58.5938	89.4687	58.5938	89.448	58.5938	89.502	58.5938	89.4763	58.5938	89.5379	58.5938	89.5077	58.5938	89.5739	58.5938	89.5399	58.5938	89.6069	58.5938	89.5701	58.5938	89.6336	58.5938	89.5954	58.5938	89.6514	58.5938	89.6133	58.5938	89.658	58.5938	89.6219	58.5938	89.6528	58.5938	89.6202	58.5938	89.6366	58.5938	89.6089	58.5938	89.6124	58.5938	89.5903	58.5938	89.5846	58.5938	89.5685	58.5938	89.5586	58.5938	89.5482	58.5938	89.5396	58.5938	89.5345	58.5938	89.5311
60.0586	89.5582	60.0586	89.5535	60.0586	89.5699	60.0586	89.556	60.0586	89.5883	60.0586	89.5653	60.0586	89.6128	60.0586	89.5807	60.0586	89.6421	60.0586	89.6009	60.0586	89.6749	60.0586	89.6243	60.0586	89.7091	60.0586	89.6485	60.0586	89.7422	60.0586	89.6707	60.0586	89.7712	60.0586	89.688	60.0586	89.7931	60.0586	89.6977	60.0586	89.805	60.0586	89.6979	60.0586	89.8049	60.0586	89.6882	60.0586	89.7916	60.0586	89.6696	60.0586	89.7659	60.0586	89.6456	60.0586	89.7305	60.0586	89.6209	60.0586	89.69	60.0586	89.6014	60.0586	89.6505	60.0586	89.5926	60.0586	89.6181	60.0586	89.5979
62.9883	89.7906	62.9883	89.792	62.9883	89.7927	62.9883	89.7963	62.9883	89.7985	62.9883	89.8031	62.9883	89.8077	62.9883	89.8113	62.9883	89.8197	62.9883	89.8196	62.9883	89.8336	62.9883	89.8264	62.9883	89.8476	62.9883	89.8296	62.9883	89.8594	62.9883	89.827	62.9883	89.8664	62.9883	89.8163	62.9883	89.8654	62.9883	89.7956	62.9883	89.8536	62.9883	89.7638	62.9883	89.8287	62.9883	89.7214	62.9883	89.79	62.9883	89.6707	62.9883	89.7387	62.9883	89.6161	62.9883	89.6788	62.9883	89.5642	62.9883	89.6166	62.9883	89.5226	62.9883	89.5602	62.9883	89.4984	62.9883	89.518	62.9883	89.4964
64.4531	90.0556	64.4531	90.0672	64.4531	90.0449	64.4531	90.0794	64.4531	90.0356	64.4531	90.0913	64.4531	90.0273	64.4531	90.1016	64.4531	90.0197	64.4531	90.1089	64.4531	90.0117	64.4531	90.1109	64.4531	90.0019	64.4531	90.1054	64.4531	89.9883	64.4531	90.0897	64.4531	89.9685	64.4531	90.0611	64.4531	89.9402	64.4531	90.0177	64.4531	89.9011	64.4531	89.9583	64.4531	89.8497	64.4531	89.8838	64.4531	89.7865	64.4531	89.7974	64.4531	89.7138	64.4531	89.7051	64.4531	89.6369	64.4531	89.6154	64.4531	89.5638	64.4531	89.5386	64.4531	89.5041	64.4531	89.4842	64.4531	89.467	64.4531	89.4595
67.3828	90.3007	67.3828	90.3113	67.3828	90.2929	67.3828	90.3245	67.3828	90.2876	67.3828	90.3397	67.3828	90.2843	67.3828	90.3555	67.3828	90.2818	67.3828	90.3699	67.3828	90.2784	67.3828	90.3803	67.3828	90.2721	67.3828	90.3834	67.3828	90.2601	67.3828	90.3754	67.3828	90.2395	67.3828	90.3525	67.3828	90.2076	67.3828	90.3116	67.3828	90.1621	67.3828	90.2509	67.3828	90.1018	67.3828	90.1707	67.3828	90.028	67.3828	90.0745	67.3828	89.9441	67.3828	89.9694	67.3828	89.8571	67.3828	89.8654	67.3828	89.7763	67.3828	89.7743	67.3828	89.7126	67.3828	89.7076	67.3828	89.676	67.3828	89.6737
68.8477	90.3004	68.8477	90.3053	68.8477	90.2992	68.8477	90.3139	68.8477	90.3017	68.8477	90.3255	68.8477	90.3071	68.8477	90.3391	68.8477	90.3145	68.8477	90.3527	68.8477	90.3222	68.8477	90.364	68.8477	90.3278	68.8477	90.3697	68.8477	90.3285	68.8477	90.3661	68.8477	90.3211	68.8477	90.3493	68.8477	90.3019	68.8477	90.3162	68.8477	90.2681	68.8477	90.2646	68.8477	90.2179	68.8477	90.1947	68.8477	90.1513	68.8477	90.1097	68.8477	90.0715	68.8477	90.0162	68.8477	89.9846	68.8477	89.9241	68.8477	89.9	68.8477	89.8452	68.8477	89.829	68.8477	89.7906	68.8477	89.7825	68.8477	89.7687
71.7773	90.2637	71.7773	90.2673	71.7773	90.2628	71.7773	90.2736	71.7773	90.2646	71.7773	90.2822	71.7773	90.2689	71.7773	90.2924	71.7773	90.2751	71.7773	90.303	71.7773	90.2823	71.7773	90.3121	71.7773	90.2889	71.7773	90.3171	71.7773	90.2925	71.7773	90.3149	71.7773	90.2904	71.7773	90.3019	71.7773	90.2792	71.7773	90.2752	71.7773	90.256	71.7773	90.2325	71.7773	90.2183	71.7773	90.1741	71.7773	90.1658	71.7773	90.1026	71.7773	90.1002	71.7773	90.0242	71.7773	90.0265	71.7773	89.9476	71.7773	89.9528	71.7773	89.8833	71.7773	89.8887	71.7773	89.8409	71.7773	89.8443	71.7773	89.8273
74.707	90.3177	74.707	90.3194	74.707	90.3152	74.707	90.3205	74.707	90.312	74.707	90.321	74.707	90.308	74.707	90.3207	74.707	90.3027	74.707	90.3187	74.707	90.2958	74.707	90.3138	74.707	90.2862	74.707	90.3036	74.707	90.2721	74.707	90.2854	74.707	90.2513	74.707	90.2557	74.707	90.2209	74.707	90.2115	74.707	90.1782	74.707	90.151	74.707	90.1214	74.707	90.0741	74.707	90.05	74.707	89.984	74.707	89.9665	74.707	89.8872	74.707	89.8762	74.707	89.7935	74.707	89.788	74.707	89.7147	74.707	89.7127	74.707	89.6621	74.707	89.6617	74.707	89.6436
77.6367	90.2695	77.6367	90.2716	77.6367	90.2647	77.6367	90.2714	77.6367	90.2572	77.6367	90.269	77.6367	90.2471	77.6367	90.2649	77.6367	90.2346	77.6367	90.2587	77.6367	90.2196	77.6367	90.2496	77.6367	90.2016	77.6367	90.2358	77.6367	90.1794	77.6367	90.2146	77.6367	90.1511	77.6367	90.1827	77.6367	90.1142	77.6367	90.137	77.6367	90.0661	77.6367	90.0749	77.6367	90.0049	77.6367	89.9962	77.6367	89.9302	77.6367	89.9032	77.6367	89.8443	77.6367	89.802	77.6367	89.7526	77.6367	89.7025	77.6367	89.6643	77.6367	89.6167	77.6367	89.5907	77.6367	89.5564	77.6367	89.5433	77.6367	89.5308
79.1016	90.1743	79.1016	90.1783	79.1016	90.1669	79.1016	90.1793	79.1016	90.1561	79.1016	90.1779	79.1016	90.142	79.1016	90.1744	79.1016	90.1252	79.1016	90.1691	79.1016	90.1058	79.1016	90.1611	79.1016	90.0837	79.1016	90.149	79.1016	90.0581	79.1016	90.13	79.1016	90.0274	79.1016	90.1008	79.1016	89.9895	79.1016	90.058	79.1016	89.9419	79.1016	89.9989	79.1016	89.8827	79.1016	89.9227	79.1016	89.8114	79.1016	89.8316	79.1016	89.7301	79.1016	89.7312	79.1016	89.644	79.1016	89.6311	79.1016	89.562	79.1016	89.5429	79.1016	89.495	79.1016	89.4788	79.1016	89.4542	79.1016	89.448
82.0312	90.1533	82.0312	90.1622	82.0312	90.1357	82.0312	90.1629	82.0312	90.1095	82.0312	90.1562	82.0312	90.0754	82.0312	90.143	82.0312	90.0342	82.0312	90.1241	82.0312	89.9872	82.0312	90.0994	82.0312	89.9353	82.0312	90.0683	82.0312	89.8789	82.0312	90.0289	82.0312	89.818	82.0312	89.9785	82.0312	89.7515	82.0312	89.9141	82.0312	89.6781	82.0312	89.8334	82.0312	89.597	82.0312	89.7357	82.0312	89.5082	82.0312	89.6232	82.0312	89.4143	82.0312	89.5015	82.0312	89.3206	82.0312	89.3805	82.0312	89.2361	82.0312	89.2723	82.0312	89.1716	82.0312	89.1899	82.0312	89.1381	82.0312	89.1436
84.9609	90.153	84.9609	90.1378	84.9609	90.1543	84.9609	90.1097	84.9609	90.1412	84.9609	90.0708	84.9609	90.1143	84.9609	90.0236	84.9609	90.0745	84.9609	89.9706	84.9609	90.0234	84.9609	89.9142	84.9609	89.9623	84.9609	89.8557	84.9609	89.8923	84.9609	89.7954	84.9609	89.8142	84.9609	89.7322	84.9609	89.728	84.9609	89.6638	84.9609	89.6337	84.9609	89.5878	84.9609	89.5317	84.9609	89.5021	84.9609	89.4234	84.9609	89.4068	84.9609	89.3125	84.9609	89.3047	84.9609	89.2053	84.9609	89.2025	84.9609	89.1108	84.9609	89.1102	84.9609	89.0395	84.9609	89.0395	84.9609	89.0009	84.9609	89.0009
87.8906	90.4541	87.8906	90.4364	87.8906	90.455	87.8906	90.4023	87.8906	90.4395	87.8906	90.3528	87.8906	90.4088	87.8906	90.2896	87.8906	90.3646	87.8906	90.2145	87.8906	90.309	87.8906	90.1295	87.8906	90.2441	87.8906	90.0362	87.8906	90.1718	87.8906	89.9359	87.8906	90.0929	87.8906	89.8296	87.8906	90.0079	87.8906	89.7182	87.8906	89.9163	87.8906	89.6034	87.8906	89.8176	87.8906	89.488	87.8906	89.7117	87.8906	89.3766	87.8906	89.5997	87.8906	89.2759	87.8906	89.4848	87.8906	89.1941	87.8906	89.3726	87.8906	89.14	87.8906	89.2712	87.8906	89.1201	87.8906	89.1899	87.8906	89.1374
90.8203	90.7029	90.8203	90.6974	90.8203	90.6913	90.8203	90.6754	90.8203	90.6628	90.8203	90.6381	90.8203	90.6187	90.8203	90.5876	90.8203	90.5609	90.8203	90.5262	90.8203	90.4921	90.8203	90.456	90.8203	90.415	90.8203	90.3789	90.8203	90.3322	90.8203	90.2959	90.8203	90.2459	90.8203	90.2075	90.8203	90.1574	90.8203	90.1135	90.8203	90.0676	90.8203	90.0142	90.8203	89.9766	90.8203	89.9108	90.8203	89.885	90.8203	89.8062	90.8203	89.7939	90.8203	89.7057	90.8203	89.706	90.8203	89.6167	90.8203	89.6256	90.8203	89.5476	90.8203	89.559	90.8203	89.5053	90.8203	89.513	90.8203	89.4938
95.2148	90.5162	95.2148	90.5036	95.2148	90.5077	95.2148	90.4703	95.2148	90.4784	95.2148	90.4179	95.2148	90.4295	95.2148	90.3485	95.2148	90.3632	95.2148	90.2647	95.2148	90.2821	95.2148	90.1694	95.2148	90.1894	95.2148	90.0651	95.2148	90.0879	95.2148	89.9543	95.2148	89.9804	95.2148	89.8388	95.2148	89.869	95.2148	89.7201	95.2148	89.7554	95.2148	89.6002	95.2148	89.6407	95.2148	89.4813	95.2148	89.5265	95.2148	89.3671	95.2148	89.415	95.2148	89.2627	95.2148	89.3098	95.2148	89.1741	95.2148	89.2158	95.2148	89.1079	95.2148	89.1393	95.2148	89.0695	95.2148	89.0865	95.2148	89.0623
98.1445	90.3617	98.1445	90.3473	98.1445	90.3516	98.1445	90.309	98.1445	90.3173	98.1445	90.2486	98.1445	90.2605	98.1445	90.1687	98.1445	90.1839	98.1445	90.0729	98.1445	90.0907	98.1445	89.9648	98.1445	89.9852	98.1445	89.8481	98.1445	89.8712	98.1445	89.7262	98.1445	89.7527	98.1445	89.6021	98.1445	89.6329	98.1445	89.4779	98.1445	89.5141	98.1445	89.356	98.1445	89.3981	98.1445	89.2388	98.1445	89.2863	98.1445	89.1292	98.1445	89.1803	98.1445	89.0316	98.1445	89.0824	98.1445	88.9508	98.1445	88.9963	98.1445	88.8918	98.1445	88.9264	98.1445	88.8589	98.1445	88.8776	98.1445	88.8542
101.074	90.2993	101.074	90.2914	101.074	90.2766	101.074	90.2534	101.074	90.224	101.074	90.1868	101.074	90.1436	101.074	90.0941	101.074	90.0388	101.074	89.9788	101.074	89.9138	101.074	89.8451	101.074	89.774	101.074	89.6976	101.074	89.6255	101.074	89.5414	101.074	89.474	101.074	89.3816	101.074	89.3249	101.074	89.2232	101.074	89.1828	101.074	89.0713	101.074	89.0505	101.074	88.9305	101.074	88.9298	101.074	88.8055	101.074	88.8218	101.074	88.7001	101.074	88.7274	101.074	88.6175	101.074	88.6479	101.074	88.56	101.074	88.5856	101.074	88.5286	101.074	88.5431	101.074	88.5234
105.469	90.3552	105.469	90.3476	105.469	90.3283	105.469	90.3068	105.469	90.2668	105.469	90.2347	105.469	90.1712	105.469	90.1337	105.469	90.0431	105.469	90.0067	105.469	89.8855	105.469	89.8569	105.469	89.7022	105.469	89.6878	105.469	89.4987	105.469	89.5029	105.469	89.2816	105.469	89.3065	105.469	89.0588	105.469	89.1032	105.469	88.8392	105.469	88.8988	105.469	88.6316	105.469	88.7004	105.469	88.4447	105.469	88.5154	105.469	88.2854	105.469	88.3513	105.469	88.1584	105.469	88.2143	105.469	88.066	105.469	88.1081	105.469	88.0083	105.469	88.0345	105.469	87.9845	105.469	87.9933
108.398	90.2228	108.398	90.2071	108.398	90.2054	108.398	90.1598	108.398	90.1543	108.398	90.0833	108.398	90.07	108.398	89.981	108.398	89.954	108.398	89.8563	108.398	89.8089	108.398	89.7132	108.398	89.6381	108.398	89.5556	108.398	89.4463	108.398	89.387	108.398	89.2393	108.398	89.2108	108.398	89.0241	108.398	89.0306	108.398	88.8092	108.398	88.8504	108.398	88.6037	108.398	88.6752	108.398	88.4175	108.398	88.5108	108.398	88.2597	108.398	88.3631	108.398	88.1369	108.398	88.2372	108.398	88.0525	108.398	88.1364	108.398	88.0062	108.398	88.062	108.398	87.9948	108.398	88.0144
112.793	89.7343	112.793	89.7034	112.793	89.7275	112.793	89.6368	112.793	89.6826	112.793	89.5376	112.793	89.6006	112.793	89.4105	112.793	89.4839	112.793	89.2614	112.793	89.3359	112.793	89.0967	112.793	89.1612	112.793	88.9235	112.793	88.9655	112.793	88.7481	112.793	88.7555	112.793	88.5762	112.793	88.5389	112.793	88.4121	112.793	88.3243	112.793	88.2589	112.793	88.1212	112.793	88.1188	112.793	87.9396	112.793	87.993	112.793	87.7887	112.793	87.8825	112.793	87.6754	112.793	87.7877	112.793	87.603	112.793	87.7084	112.793	87.5699	112.793	87.6445	112.793	87.5704	112.793	87.5973
117.188	89.6674	117.188	89.6011	117.188	89.682	117.188	89.4838	117.188	89.6457	117.188	89.3178	117.188	89.56	117.188	89.107	117.188	89.4279	117.188	88.8578	117.188	89.2532	117.188	88.5791	117.188	89.0408	117.188	88.283	117.188	88.797	117.188	87.9843	117.188	88.5293	117.188	87.6996	117.188	88.2471	117.188	87.4459	117.188	87.9612	117.188	87.237	117.188	87.6847	117.188	87.0807	117.188	87.4316	117.188	86.9762	117.188	87.2158	117.188	86.915	117.188	87.0483	117.188	86.883	117.188	86.9342	117.188	86.8658	117.188	86.8701	117.188	86.8534	117.188	86.8451	117.188	86.8441
120.117	90.2233	120.117	90.1748	120.117	90.2218	120.117	90.0759	120.117	90.1719	120.117	89.9269	120.117	90.0759	120.117	89.729	120.117	89.937	120.117	89.4851	120.117	89.7596	120.117	89.1994	120.117	89.549	120.117	88.8789	120.117	89.3117	120.117	88.5336	120.117	89.0553	120.117	88.1775	120.117	88.7882	120.117	87.8292	120.117	88.5195	120.117	87.511	120.117	88.2583	120.117	87.2458	120.117	88.0131	120.117	87.0522	120.117	87.791	120.117	86.9386	120.117	87.5964	120.117	86.9002	120.117	87.4303	120.117	86.9214	120.117	87.2903	120.117	86.9829	120.117	87.1712	120.117	87.0687
124.512	90.4949	124.512	90.465	124.512	90.4767	124.512	90.3877	124.512	90.4111	124.512	90.2645	124.512	90.2995	124.512	90.0981	124.512	90.1446	124.512	89.893	124.512	89.9508	124.512	89.6553	124.512	89.7242	124.512	89.3935	124.512	89.4733	124.512	89.1187	124.512	89.2093	124.512	88.8445	124.512	88.9457	124.512	88.5864	124.512	88.6982	124.512	88.3607	124.512	88.4824	124.512	88.1814	124.512	88.3112	124.512	88.058	124.512	88.1914	124.512	87.9916	124.512	88.1208	124.512	87.9744	124.512	88.0883	124.512	87.9907	124.512	88.0765	124.512	88.0214	124.512	88.0677	124.512	88.05
128.906	90.5705	128.906	90.5279	128.906	90.5559	128.906	90.4285	128.906	90.4842	128.906	90.273	128.906	90.3555	128.906	90.0625	128.906	90.1711	128.906	89.7998	128.906	89.9335	128.906	89.4898	128.906	89.6477	128.906	89.141	128.906	89.3224	128.906	88.7677	128.906	88.9714	128.906	88.3908	128.906	88.6144	128.906	88.0384	128.906	88.2772	128.906	87.7431	128.906	87.9889	128.906	87.5344	128.906	87.7752	128.906	87.4289	128.906	87.6505	128.906	87.4216	128.906	87.6107	128.906	87.4855	128.906	87.6323	128.906	87.5804	128.906	87.6796	128.906	87.6663	128.906	87.7161	128.906	87.7149
133.301	90.5155	133.301	90.4795	133.301	90.5029	133.301	90.3946	133.301	90.441	133.301	90.2596	133.301	90.3279	133.301	90.0722	133.301	90.161	133.301	89.8296	133.301	89.9373	133.301	89.529	133.301	89.6542	133.301	89.1689	133.301	89.3104	133.301	88.7507	133.301	88.9081	133.301	88.2821	133.301	88.4557	133.301	87.7805	133.301	87.9706	133.301	87.2766	133.301	87.4824	133.301	86.8145	133.301	87.032	133.301	86.4437	133.301	86.6635	133.301	86.2012	133.301	86.4081	133.301	86.0917	133.301	86.2674	133.301	86.0831	133.301	86.2106	133.301	86.1229	133.301	86.1898	133.301	86.1651
139.16	89.6628	139.16	89.6115	139.16	89.6667	139.16	89.5138	139.16	89.6228	139.16	89.3714	139.16	89.5311	139.16	89.1864	139.16	89.392	139.16	88.9614	139.16	89.206	139.16	88.6993	139.16	88.9736	139.16	88.4036	139.16	88.6956	139.16	88.0784	139.16	88.3742	139.16	87.7305	139.16	88.014	139.16	87.3702	139.16	87.6247	139.16	87.0132	139.16	87.2232	139.16	86.6805	139.16	86.8345	139.16	86.3953	139.16	86.4896	139.16	86.176	139.16	86.217	139.16	86.0284	139.16	86.0323	139.16	85.9431	139.16	85.9302	139.16	85.9007	139.16	85.8891	139.16	85.8839
143.555	89.7601	143.555	89.6937	143.555	89.7646	143.555	89.5646	143.555	89.7086	143.555	89.3731	143.555	89.5936	143.555	89.1204	143.555	89.4217	143.555	88.8091	143.555	89.1953	143.555	88.444	143.555	88.9167	143.555	88.0325	143.555	88.5889	143.555	87.5865	143.555	88.2159	143.555	87.1225	143.555	87.804	143.555	86.6632	143.555	87.3633	143.555	86.236	143.555	86.9101	143.555	85.8688	143.555	86.4677	143.555	85.5834	143.555	86.0652	143.555	85.3878	143.555	85.7315	143.555	85.2728	143.555	85.4857	143.555	85.2175	143.555	85.3287	143.555	85.1998	143.555	85.2441	143.555	85.2073
147.949	90.2161	147.949	90.1668	147.949	90.2064	147.949	90.0561	147.949	90.1407	147.949	89.8815	147.949	90.0218	147.949	89.6413	147.949	89.853	147.949	89.3347	147.949	89.6383	147.949	88.9631	147.949	89.3821	147.949	88.5318	147.949	89.0905	147.949	88.0529	147.949	88.7718	147.949	87.5488	147.949	88.437	147.949	87.0557	147.949	88.1011	147.949	86.6227	147.949	87.7821	147.949	86.3017	147.949	87.4984	147.949	86.1285	147.949	87.2648	147.949	86.1043	147.949	87.0864	147.949	86.1935	147.949	86.9555	147.949	86.3422	147.949	86.8534	147.949	86.5016	147.949	86.756	147.949	86.6421
153.809	90.2981	153.809	90.2724	153.809	90.2653	153.809	90.1867	153.809	90.1747	153.809	90.038	153.809	90.0261	153.809	89.8223	153.809	89.819	153.809	89.5342	153.809	89.5528	153.809	89.1678	153.809	89.2275	153.809	88.7179	153.809	88.8455	153.809	88.1832	153.809	88.4137	153.809	87.5719	153.809	87.947	153.809	86.9114	153.809	87.472	153.809	86.2592	153.809	87.0295	153.809	85.7079	153.809	86.6689	153.809	85.3627	153.809	86.4312	153.809	85.2843	153.809	86.3262	153.809	85.4396	153.809	86.3191	153.809	85.7203	153.809	86.3433	153.809	86.0076	153.809	86.3272	153.809	86.2202
159.668	89.8321	159.668	89.8158	159.668	89.8023	159.668	89.7515	159.668	89.7274	159.668	89.6368	159.668	89.6081	159.668	89.4681	159.668	89.444	159.668	89.2409	159.668	89.2338	159.668	88.9494	159.668	88.975	159.668	88.587	159.668	88.6646	159.668	88.1476	159.668	88.2995	159.668	87.628	159.668	87.8793	159.668	87.0329	159.668	87.4084	159.668	86.3821	159.668	86.9006	159.668	85.7181	159.668	86.382	159.668	85.1103	159.668	85.8894	159.668	84.6404	159.668	85.4614	159.668	84.3676	159.668	85.1215	159.668	84.2921	159.668	84.8655	159.668	84.3584	159.668	84.6664	159.668	84.4971
165.527	89.5842	165.527	89.5843	165.527	89.518	165.527	89.516	165.527	89.3876	165.527	89.3761	165.527	89.1946	165.527	89.1606	165.527	88.9409	165.527	88.8645	165.527	88.6288	165.527	88.483	165.527	88.2621	165.527	88.0129	165.527	87.8471	165.527	87.4562	165.527	87.3943	165.527	86.8253	165.527	86.9207	165.527	86.1503	165.527	86.4512	165.527	85.4861	165.527	86.0191	165.527	84.9116	165.527	85.6598	165.527	84.5093	165.527	85.3991	165.527	84.3273	165.527	85.2392	165.527	84.3488	165.527	85.153	165.527	84.5027	165.527	85.0941	165.527	84.7036	165.527	85.0149	165.527	84.8853
171.387	90.3199	171.387	90.4243	171.387	90.1722	171.387	90.4844	171.387	89.9812	171.387	90.4975	171.387	89.7466	171.387	90.4584	171.387	89.4679	171.387	90.359	171.387	89.1451	171.387	90.188	171.387	88.7794	171.387	89.9317	171.387	88.3747	171.387	89.5758	171.387	87.9389	171.387	89.1082	171.387	87.4868	171.387	88.5256	171.387	87.0417	171.387	87.8412	171.387	86.6341	171.387	87.0971	171.387	86.2958	171.387	86.3733	171.387	86.0472	171.387	85.7787	171.387	85.8861	171.387	85.4075	171.387	85.7846	171.387	85.2807	171.387	85.7005	171.387	85.333	171.387	85.5973	171.387	85.4643
177.246	89.8845	177.246	89.8683	177.246	89.8537	177.246	89.8094	177.246	89.771	177.246	89.7105	177.246	89.6306	177.246	89.573	177.246	89.426	177.246	89.3959	177.246	89.1499	177.246	89.1761	177.246	88.7958	177.246	88.9082	177.246	88.3598	177.246	88.5871	177.246	87.8446	177.246	88.2109	177.246	87.2665	177.246	87.7861	177.246	86.6628	177.246	87.3338	177.246	86.0973	177.246	86.8927	177.246	85.6523	177.246	86.5142	177.246	85.3984	177.246	86.2434	177.246	85.353	177.246	86.0937	177.246	85.4663	177.246	86.0338	177.246	85.6508	177.246	86.004	177.246	85.8261	177.246	85.9456
183.105	89.663	183.105	89.6824	183.105	89.5912	183.105	89.65	183.105	89.4665	183.105	89.566	183.105	89.2887	183.105	89.4296	183.105	89.0578	183.105	89.2379	183.105	88.7735	183.105	88.986	183.105	88.4354	183.105	88.6674	183.105	88.0431	183.105	88.2767	183.105	87.5994	183.105	87.8133	183.105	87.1154	183.105	87.2886	183.105	86.618	183.105	86.7349	183.105	86.1555	183.105	86.211	183.105	85.7931	183.105	85.796	183.105	85.587	183.105	85.5578	183.105	85.5489	183.105	85.5104	183.105	85.6308	183.105	85.5985	183.105	85.7494	183.105	85.7296	183.105	85.8275	183.105	85.821
188.965	90.0404	188.965	90.0397	188.965	89.9774	188.965	89.9793	188.965	89.8462	188.965	89.8621	188.965	89.6424	188.965	89.6894	188.965	89.3623	188.965	89.4605	188.965	89.0035	188.965	89.1729	188.965	88.5668	188.965	88.8234	188.965	88.0583	188.965	88.4111	188.965	87.4931	188.965	87.9411	188.965	86.901	188.965	87.4312	188.965	86.3311	188.965	86.9177	188.965	85.852	188.965	86.4577	188.965	85.5378	188.965	86.1182	188.965	85.435	188.965	85.9481	188.965	85.5298	188.965	85.9454	188.965	85.7473	188.965	86.0494	188.965	85.9864	188.965	86.1688	188.965	86.1602	188.965	86.2212
196.289	89.5536	196.289	89.532	196.289	89.5227	196.289	89.4626	196.289	89.4326	196.289	89.3484	196.289	89.2755	196.289	89.1893	196.289	89.0413	196.289	88.9814	196.289	88.7179	196.289	88.716	196.289	88.2914	196.289	88.3812	196.289	87.7478	196.289	87.9646	196.289	87.0787	196.289	87.46	196.289	86.2929	196.289	86.8789	196.289	85.4386	196.289	86.2644	196.289	84.6328	196.289	85.7024	196.289	84.065	196.289	85.3066	196.289	83.9081	196.289	85.1591	196.289	84.1629	196.289	85.2425	196.289	84.6452	196.289	85.4415	196.289	85.1364	196.289	85.6137	196.289	85.4915	196.289	85.6495
203.613	89.2887	203.613	89.2383	203.613	89.2685	203.613	89.1195	203.613	89.1756	203.613	88.9338	203.613	89.0067	203.613	88.6819	203.613	88.7576	203.613	88.3635	203.613	88.4216	203.613	87.9768	203.613	87.9903	203.613	87.5193	203.613	87.4537	203.613	86.9912	203.613	86.8041	203.613	86.401	203.613	86.0443	203.613	85.7758	203.613	85.2051	203.613	85.1711	203.613	84.3711	203.613	84.6732	203.613	83.6985	203.613	84.3736	203.613	83.3698	203.613	84.3145	203.613	83.4566	203.613	84.4489	203.613	83.8367	203.613	84.6604	203.613	84.2943	203.613	84.8212	203.613	84.656	203.613	84.8354
210.938	89.9993	210.938	90.0006	210.938	89.9402	210.938	89.9462	210.938	89.8178	210.938	89.8348	210.938	89.6234	210.938	89.6601	210.938	89.3445	210.938	89.4108	210.938	88.9651	210.938	89.0702	210.938	88.4648	210.938	88.6164	210.938	87.82	210.938	88.0247	210.938	87.0074	210.938	87.2719	210.938	86.0133	210.938	86.347	210.938	84.857	210.938	85.2753	210.938	83.6396	210.938	84.1626	210.938	82.6087	210.938	83.2406	210.938	82.1114	210.938	82.7981	210.938	82.2863	210.938	82.9176	210.938	82.8715	210.938	83.3562	210.938	83.4886	210.938	83.7866	210.938	83.896	210.938	83.996
218.262	89.0699	218.262	89.0502	218.262	89.0527	218.262	89.0019	218.262	88.9909	218.262	88.9322	218.262	88.877	218.262	88.8457	218.262	88.7022	218.262	88.7407	218.262	88.455	218.262	88.6081	218.262	88.1197	218.262	88.4318	218.262	87.6766	218.262	88.1909	218.262	87.1043	218.262	87.8653	218.262	86.3866	218.262	87.4406	218.262	85.527	218.262	86.9159	218.262	84.5748	218.262	86.3114	218.262	83.6591	218.262	85.6769	218.262	82.9895	218.262	85.0902	218.262	82.7465	218.262	84.6305	218.262	82.9121	218.262	84.3281	218.262	83.2845	218.262	84.1313	218.262	83.659	218.262	83.9372
225.586	89.0398	225.586	88.9095	225.586	89.1104	225.586	88.7282	225.586	89.1143	225.586	88.5067	225.586	89.045	225.586	88.2559	225.586	88.8947	225.586	87.9839	225.586	88.6515	225.586	87.6939	225.586	88.2981	225.586	87.3841	225.586	87.8122	225.586	87.0548	225.586	87.1698	225.586	86.7183	225.586	86.355	225.586	86.4083	225.586	85.3832	225.586	86.1765	225.586	84.3458	225.586	86.0677	225.586	83.4672	225.586	86.0864	225.586	83.0691	225.586	86.1854	225.586	83.3088	225.586	86.288	225.586	83.988	225.586	86.3186	225.586	84.776	225.586	86.2167	225.586	85.4543	225.586	85.9374
232.91	89.4441	232.91	89.2567	232.91	89.5274	232.91	88.962	232.91	89.5091	232.91	88.5574	232.91	89.3905	232.91	88.0411	232.91	89.1688	232.91	87.411	232.91	88.8356	232.91	86.6635	232.91	88.3734	232.91	85.792	232.91	87.7538	232.91	84.7912	232.91	86.9375	232.91	83.6825	232.91	85.8792	232.91	82.5812	232.91	84.5472	232.91	81.7902	232.91	82.983	232.91	81.7083	232.91	81.4526	232.91	82.375	232.91	80.6027	232.91	83.3641	232.91	80.9537	232.91	84.252	232.91	82.0896	232.91	84.8299	232.91	83.3061	232.91	85.0294	232.91	84.2558	232.91	84.8373
241.699	89.7743	241.699	89.5847	241.699	89.9017	241.699	89.3383	241.699	89.9608	241.699	89.0399	241.699	89.9436	241.699	88.6931	241.699	89.839	241.699	88.2977	241.699	89.6307	241.699	87.8442	241.699	89.2943	241.699	87.3094	241.699	88.7936	241.699	86.6524	241.699	88.0752	241.699	85.819	241.699	87.0621	241.699	84.7614	241.699	85.6475	241.699	83.4939	241.699	83.6946	241.699	82.2227	241.699	81.0982	241.699	81.4655	241.699	78.2675	241.699	81.6597	241.699	77.4221	241.699	82.4848	241.699	79.3292	241.699	83.2971	241.699	81.4529	241.699	83.7226	241.699	82.8847	241.699	83.6126
250.488	90.2338	250.488	90.1629	250.488	90.2156	250.488	89.9885	250.488	90.12	250.488	89.6942	250.488	89.9563	250.488	89.2607	250.488	89.7306	250.488	88.6659	250.488	89.4453	250.488	87.8849	250.488	89.0986	250.488	86.8897	250.488	88.6832	250.488	85.65	250.488	88.1852	250.488	84.1305	250.488	87.5818	250.488	82.2873	250.488	86.8407	250.488	80.0729	250.488	85.9219	250.488	77.5353	250.488	84.7867	250.488	75.2888	250.488	83.42	250.488	74.8813	250.488	81.8828	250.488	76.2384	250.488	80.3991	250.488	77.6816	250.488	79.3561	250.488	78.5414	250.488	78.95	250.488	78.8518
259.277	90.2016	259.277	90.1535	259.277	90.1975	259.277	90.0474	259.277	90.141	259.277	89.8707	259.277	90.0258	259.277	89.6038	259.277	89.8393	259.277	89.2192	259.277	89.5616	259.277	88.6818	259.277	89.1642	259.277	87.9501	259.277	88.6084	259.277	86.9795	259.277	87.8437	259.277	85.731	259.277	86.8086	259.277	84.1931	259.277	85.4384	259.277	82.4356	259.277	83.6971	259.277	80.7177	259.277	81.6889	259.277	79.5588	259.277	79.9301	259.277	79.3805	259.277	79.3325	259.277	79.9595	259.277	79.9473	259.277	80.7465	259.277	80.8551	259.277	81.3655	259.277	81.4684	259.277	81.6343
268.066	90.522	268.066	90.5147	268.066	90.5236	268.066	90.4974	268.066	90.5206	268.066	90.4611	268.066	90.5107	268.066	90.3894	268.066	90.4863	268.066	90.2547	268.066	90.4316	268.066	90.0173	268.066	90.3207	268.066	89.6255	268.066	90.1166	268.066	89.0185	268.066	89.7722	268.066	88.1316	268.066	89.2337	268.066	86.9064	268.066	88.4478	268.066	85.3169	268.066	87.3746	268.066	83.4403	268.066	86.0148	268.066	81.6094	268.066	84.4648	268.066	80.4696	268.066	82.9917	268.066	80.3698	268.066	81.9883	268.066	80.8495	268.066	81.6206	268.066	81.337	268.066	81.6147	268.066	81.5896
276.855	89.0647	276.855	88.981	276.855	89.1379	276.855	88.8876	276.855	89.1947	276.855	88.779	276.855	89.224	276.855	88.6399	276.855	89.2098	276.855	88.4399	276.855	89.1322	276.855	88.13	276.855	88.9684	276.855	87.6424	276.855	88.6926	276.855	86.8941	276.855	88.2749	276.855	85.7959	276.855	87.6788	276.855	84.2734	276.855	86.8652	276.855	82.3447	276.855	85.8137	276.855	80.3892	276.855	84.5814	276.855	79.4971	276.855	83.4138	276.855	80.2961	276.855	82.7703	276.855	81.7724	276.855	82.9085	276.855	83.0426	276.855	83.4896	276.855	83.85	276.855	84.0039	276.855	84.1605
287.109	88.5956	287.109	88.8524	287.109	88.3215	287.109	89.0685	287.109	88.0606	287.109	89.2291	287.109	87.8432	287.109	89.3239	287.109	87.6833	287.109	89.3422	287.109	87.5621	287.109	89.2649	287.109	87.4242	287.109	89.0557	287.109	87.1899	287.109	88.65	287.109	86.777	287.109	87.9471	287.109	86.1229	287.109	86.8008	287.109	85.2077	287.109	85.0002	287.109	84.0854	287.109	82.2141	287.109	82.9262	287.109	77.8852	287.109	82.0214	287.109	72.5284	287.109	81.6338	287.109	74.6489	287.109	81.7416	287.109	78.5445	287.109	82.0347	287.109	80.7372	287.109	82.1529	287.109	81.8091
297.363	89.7812	297.363	89.8897	297.363	89.6617	297.363	90.0038	297.363	89.5179	297.363	90.1343	297.363	89.3439	297.363	90.2762	297.363	89.139	297.363	90.4025	297.363	88.9011	297.363	90.4659	297.363	88.6159	297.363	90.4084	297.363	88.2466	297.363	90.1683	297.363	87.7281	297.363	89.6823	297.363	86.9662	297.363	88.8786	297.363	85.8412	297.363	87.6622	297.363	84.2083	297.363	85.8954	297.363	81.9072	297.363	83.3708	297.363	78.8733	297.363	79.8041	297.363	75.8601	297.363	75.2963	297.363	75.2967	297.363	73.471	297.363	76.6528	297.363	75.6764	297.363	77.5396	297.363	77.2736
307.617	89.5174	307.617	89.427	307.617	89.6042	307.617	89.3507	307.617	89.6784	307.617	89.3122	307.617	89.7352	307.617	89.3312	307.617	89.7684	307.617	89.4064	307.617	89.7639	307.617	89.5038	307.617	89.6965	307.617	89.5587	307.617	89.5298	307.617	89.4897	307.617	89.2184	307.617	89.2155	307.617	88.7139	307.617	88.6673	307.617	87.9731	307.617	87.8038	307.617	86.9722	307.617	86.6373	307.617	85.733	307.617	85.2911	307.617	84.3722	307.617	84.0592	307.617	83.1596	307.617	83.299	307.617	82.4535	307.617	83.0676	307.617	82.3779	307.617	83.0513	307.617	82.66	307.617	82.9414
319.336	88.6206	319.336	88.5517	319.336	88.7019	319.336	88.5125	319.336	88.796	319.336	88.5342	319.336	88.9136	319.336	88.6431	319.336	89.0598	319.336	88.8367	319.336	89.2171	319.336	89.0685	319.336	89.3366	319.336	89.254	319.336	89.3413	319.336	89.2884	319.336	89.1371	319.336	89.0612	319.336	88.6257	319.336	88.4589	319.336	87.7133	319.336	87.3629	319.336	86.3251	319.336	85.6585	319.336	84.4548	319.336	83.3288	319.336	82.3524	319.336	80.9253	319.336	80.9046	319.336	80.1813	319.336	81.0428	319.336	81.3462	319.336	82.0852	319.336	82.5979	319.336	82.9396	319.336	83.1539
329.59	88.0998	329.59	88.0372	329.59	88.123	329.59	87.9727	329.59	88.1145	329.59	87.9812	329.59	88.1203	329.59	88.1383	329.59	88.2045	329.59	88.4625	329.59	88.4122	329.59	88.884	329.59	88.7293	329.59	89.2742	329.59	89.0663	329.59	89.502	329.59	89.2831	329.59	89.4669	329.59	89.2277	329.59	89.1018	329.59	88.7635	329.59	88.3603	329.59	87.789	329.59	87.2095	329.59	86.28	329.59	85.6576	329.59	84.438	329.59	83.8993	329.59	82.9694	329.59	82.592	329.59	82.7066	329.59	82.4847	329.59	83.2846	329.59	83.1734	329.59	83.7758	329.59	83.7427
341.309	87.5376	341.309	87.2482	341.309	87.6173	341.309	86.7567	341.309	87.5164	341.309	86.1348	341.309	87.2955	341.309	85.5646	341.309	87.0476	341.309	85.3342	341.309	86.8858	341.309	85.6432	341.309	86.8964	341.309	86.3649	341.309	87.074	341.309	87.1632	341.309	87.3043	341.309	87.7589	341.309	87.4135	341.309	88.0058	341.309	87.2307	341.309	87.8564	341.309	86.6247	341.309	87.3369	341.309	85.549	341.309	86.5627	341.309	84.1824	341.309	85.7758	341.309	83.1886	341.309	85.3014	341.309	83.3372	341.309	85.2836	341.309	84.2726	341.309	85.4867	341.309	85.1265	341.309	85.522
353.027	89.5047	353.027	89.3773	353.027	89.4365	353.027	89.0317	353.027	89.1953	353.027	88.4458	353.027	88.8078	353.027	87.6016	353.027	88.3104	353.027	86.4996	353.027	87.7556	353.027	85.1946	353.027	87.2081	353.027	83.8534	353.027	86.7167	353.027	82.7534	353.027	86.2671	353.027	82.0516	353.027	85.7566	353.027	81.5405	353.027	85.0242	353.027	80.9121	353.027	83.9193	353.027	80.3303	353.027	82.4312	353.027	80.6761	353.027	81.0433	353.027	82.2458	353.027	80.9844	353.027	84.0655	353.027	82.4799	353.027	85.4207	353.027	84.246	353.027	86.1241	353.027	85.5289	353.027	86.1597
366.211	89.618	366.211	89.6642	366.211	89.4732	366.211	89.5949	366.211	89.2479	366.211	89.3969	366.211	88.9608	366.211	89.0651	366.211	88.6318	366.211	88.6102	366.211	88.2818	366.211	88.0628	366.211	87.9274	366.211	87.4664	366.211	87.5651	366.211	86.8413	366.211	87.1484	366.211	86.1283	366.211	86.5772	366.211	85.1501	366.211	85.7061	366.211	83.6084	366.211	84.3585	366.211	81.0359	366.211	82.3175	366.211	76.4588	366.211	79.2927	366.211	66.5634	366.211	75.2024	366.211	70.7057	366.211	73.314	366.211	76.7378	366.211	76.2274	366.211	79.109	366.211	78.6731	366.211	79.6283
379.395	88.6977	379.395	88.6052	379.395	88.6752	379.395	88.4042	379.395	88.5565	379.395	88.1332	379.395	88.378	379.395	87.8616	379.395	88.185	379.395	87.6663	379.395	88.0168	379.395	87.5797	379.395	87.8865	379.395	87.548	379.395	87.7612	379.395	87.4416	379.395	87.5553	379.395	87.1018	379.395	87.1393	379.395	86.3649	379.395	86.3537	379.395	85.0426	379.395	85.0144	379.395	82.8663	379.395	82.9193	379.395	79.4384	379.395	79.9831	379.395	75.1484	379.395	77.3186	379.395	75.8676	379.395	77.9836	379.395	79.4195	379.395	80.275	379.395	81.523	379.395	81.8088	379.395	82.2464
392.578	89.4844	392.578	89.4918	392.578	89.3101	392.578	89.3238	392.578	88.9862	392.578	88.9819	392.578	88.5404	392.578	88.4841	392.578	88.0169	392.578	87.8743	392.578	87.4829	392.578	87.228	392.578	87.0219	392.578	86.6367	392.578	86.6927	392.578	86.1519	392.578	86.4663	392.578	85.7185	392.578	86.2048	392.578	85.1619	392.578	85.7093	392.578	84.2289	392.578	84.7704	392.578	82.6022	392.578	83.1607	392.578	79.8089	392.578	80.5742	392.578	74.854	392.578	76.6524	392.578	66.981	392.578	72.8949	392.578	72.282	392.578	74.6708	392.578	76.4676	392.578	77.1499	392.578	77.8059
405.762	88.2313	405.762	88.2013	405.762	88.1459	405.762	88.0713	405.762	87.9501	405.762	87.8777	405.762	87.6697	405.762	87.6785	405.762	87.3519	405.762	87.5442	405.762	87.0608	405.762	87.5268	405.762	86.8588	405.762	87.6085	405.762	86.7675	405.762	87.6731	405.762	86.7296	405.762	87.5314	405.762	86.6112	405.762	86.97	405.762	86.2502	405.762	85.7744	405.762	85.5076	405.762	83.7149	405.762	84.2999	405.762	80.5386	405.762	82.6472	405.762	76.4763	405.762	80.8449	405.762	75.2641	405.762	79.7229	405.762	77.8609	405.762	79.8879	405.762	79.8833	405.762	80.5445	405.762	80.7005
420.41	87.3723	420.41	87.2057	420.41	87.3845	420.41	86.8748	420.41	87.2662	420.41	86.3992	420.41	87.0475	420.41	85.8509	420.41	86.7609	420.41	85.3711	420.41	86.4427	420.41	85.1319	420.41	86.138	420.41	85.2162	420.41	85.8923	420.41	85.5314	420.41	85.7032	420.41	85.8778	420.41	85.4531	420.41	86.0531	420.41	84.8974	420.41	85.8742	420.41	83.7139	420.41	85.1474	420.41	81.5302	420.41	83.6425	420.41	77.955	420.41	81.0898	420.41	73.8464	420.41	77.4044	420.41	74.6262	420.41	74.6422	420.41	77.2263	420.41	76.0512	420.41	78.3149	420.41	77.8654
435.059	87.8213	435.059	87.7366	435.059	87.7273	435.059	87.4612	435.059	87.491	435.059	87.011	435.059	87.173	435.059	86.4456	435.059	86.8575	435.059	85.8943	435.059	86.6363	435.059	85.5552	435.059	86.5664	435.059	85.5767	435.059	86.6152	435.059	85.8713	435.059	86.6478	435.059	86.132	435.059	86.4794	435.059	86.0303	435.059	85.9387	435.059	85.3272	435.059	84.8879	435.059	83.8753	435.059	83.2021	435.059	81.6352	435.059	80.7788	435.059	78.9513	435.059	77.954	435.059	77.4311	435.059	76.8901	435.059	78.3623	435.059	78.4938	435.059	79.8442	435.059	80.05	435.059	80.5122
451.172	88.4685	451.172	88.2747	451.172	88.3265	451.172	87.722	451.172	87.8712	451.172	86.7909	451.172	87.1367	451.172	85.497	451.172	86.204	451.172	83.9805	451.172	85.2636	451.172	82.6682	451.172	84.6443	451.172	82.1917	451.172	84.6035	451.172	82.6422	451.172	84.9859	451.172	83.4215	451.172	85.3378	451.172	83.9964	451.172	85.2592	451.172	84.0992	451.172	84.4789	451.172	83.6085	451.172	82.7738	451.172	82.5935	451.172	80.0194	451.172	81.5936	451.172	77.4006	451.172	81.5428	451.172	78.5324	451.172	82.4158	451.172	81.196	451.172	83.2723	451.172	82.8956	451.172	83.5201
465.82	89.8422	465.82	89.7634	465.82	89.7411	465.82	89.4893	465.82	89.4525	465.82	88.9803	465.82	88.9503	465.82	88.172	465.82	88.2044	465.82	86.9783	465.82	87.2146	465.82	85.3211	465.82	86.0811	465.82	83.2794	465.82	85.088	465.82	81.5498	465.82	84.5994	465.82	81.3339	465.82	84.6213	465.82	82.1203	465.82	84.6923	465.82	82.4128	465.82	84.2882	465.82	81.4249	465.82	82.9583	465.82	78.6162	465.82	80.0672	465.82	73.8575	465.82	73.8179	465.82	74.6128	465.82	66.2306	465.82	78.9871	465.82	76.5554	465.82	81.2552	465.82	80.4159	465.82	81.7151
483.398	89.5526	483.398	89.6294	483.398	89.3717	483.398	89.5885	483.398	89.1236	483.398	89.4323	483.398	88.8475	483.398	89.1559	483.398	88.5536	483.398	88.7362	483.398	88.2279	483.398	88.1544	483.398	87.9006	483.398	87.462	483.398	87.7025	483.398	86.8429	483.398	87.744	483.398	86.4901	483.398	87.8729	483.398	86.2668	483.398	87.715	483.398	85.6775	483.398	86.945	483.398	84.1703	483.398	85.3908	483.398	81.1561	483.398	82.9055	483.398	75.3812	483.398	78.9634	483.398	64.7263	483.398	71.506	483.398	73.6822	483.398	68.9953	483.398	77.6246	483.398	76.0841	483.398	78.2883
499.512	88.7742	499.512	88.6829	499.512	88.5547	499.512	88.2868	499.512	88.0478	499.512	87.6322	499.512	87.305	499.512	86.8198	499.512	86.4165	499.512	86.0119	499.512	85.5345	499.512	85.4007	499.512	84.8781	499.512	85.111	499.512	84.6369	499.512	85.0983	499.512	84.8062	499.512	85.1558	499.512	85.1735	499.512	85.0154	499.512	85.4687	499.512	84.4299	499.512	85.4659	499.512	83.2023	499.512	84.9972	499.512	81.2267	499.512	83.9538	499.512	78.746	499.512	82.3382	499.512	77.0825	499.512	80.454	499.512	77.4632	499.512	79.1157	499.512	78.4554	499.512	78.8417	499.512	78.8942
517.09	91.593	517.09	91.2415	517.09	91.5531	517.09	90.4936	517.09	91.1345	517.09	89.3642	517.09	90.3528	517.09	87.9073	517.09	89.2234	517.09	86.2385	517.09	87.7621	517.09	84.5718	517.09	86.0204	517.09	83.2911	517.09	84.2197	517.09	82.8224	517.09	82.9218	517.09	83.0538	517.09	82.6113	517.09	83.3103	517.09	82.8422	517.09	82.9861	517.09	82.757	517.09	81.7249	517.09	81.8294	517.09	79.5259	517.09	80.0826	517.09	78.0969	517.09	79.1171	517.09	80.0387	517.09	80.8804	517.09	82.734	517.09	83.2418	517.09	84.4635	517.09	84.7067	517.09	85.1088
536.133	89.5822	536.133	89.3036	536.133	89.6069	536.133	88.7759	536.133	89.4077	536.133	88.0391	536.133	89.0438	536.133	87.1689	536.133	88.5799	536.133	86.268	536.133	88.0433	536.133	85.4482	536.133	87.4078	536.133	84.8247	536.133	86.6438	536.133	84.4816	536.133	85.7954	536.133	84.331	536.133	84.9656	536.133	84.0398	536.133	84.1448	536.133	83.1578	536.133	83.0533	536.133	81.1751	536.133	81.1738	536.133	77.282	536.133	77.8408	536.133	70.4851	536.133	73.5439	536.133	73.3878	536.133	75.4904	536.133	78.5138	536.133	79.2911	536.133	80.96	536.133	81.2776	536.133	81.7828
555.176	89.4244	555.176	89.3198	555.176	89.2831	555.176	88.9568	555.176	88.9215	555.176	88.3491	555.176	88.3707	555.176	87.5406	555.176	87.6667	555.176	86.5851	555.176	86.8515	555.176	85.5249	555.176	85.9826	555.176	84.4641	555.176	85.1535	555.176	83.716	555.176	84.4902	555.176	83.5947	555.176	84.0364	555.176	83.8175	555.176	83.616	555.176	83.6961	555.176	82.8915	555.176	82.6736	555.176	81.5032	555.176	80.2765	555.176	79.1146	555.176	75.8086	555.176	75.8494	555.176	70.8872	555.176	74.828	555.176	74.9049	555.176	77.3035	555.176	78.3207	555.176	79.1971	555.176	79.5833
574.219	91.2742	574.219	91.0879	574.219	91.214	574.219	90.6763	574.219	90.9111	574.219	90.0827	574.219	90.3888	574.219	89.351	574.219	89.6802	574.219	88.4827	574.219	88.8176	574.219	87.4225	574.219	87.8364	574.219	86.1602	574.219	86.8143	574.219	84.9433	574.219	85.9081	574.219	84.239	574.219	85.2647	574.219	84.0205	574.219	84.7792	574.219	83.5883	574.219	84.0226	574.219	82.2296	574.219	82.4044	574.219	79.374	574.219	79.2473	574.219	75.7727	574.219	75.2999	574.219	77.8684	574.219	78.0291	574.219	81.7442	574.219	82.0323	574.219	83.9597	574.219	84.1341	574.219	84.7151
594.727	90.3292	594.727	90.1174	594.727	90.2295	594.727	89.6072	594.727	89.8766	594.727	88.8977	594.727	89.3634	594.727	88.141	594.727	88.7608	594.727	87.4308	594.727	88.0684	594.727	86.7181	594.727	87.234	594.727	85.9071	594.727	86.2592	594.727	85.014	594.727	85.2927	594.727	84.1538	594.727	84.508	594.727	83.3567	594.727	83.7881	594.727	82.444	594.727	82.6797	594.727	81.0322	594.727	80.5819	594.727	78.4882	594.727	76.8542	594.727	73.9611	594.727	73.5501	594.727	72.6402	594.727	77.1901	594.727	78.0098	594.727	80.6902	594.727	81.2682	594.727	82.3908	594.727	82.5896
615.234	89.3957	615.234	89.2393	615.234	89.3698	615.234	88.901	615.234	89.1854	615.234	88.4082	615.234	88.8678	615.234	87.7929	615.234	88.4261	615.234	87.075	615.234	87.8553	615.234	86.2882	615.234	87.1485	615.234	85.5224	615.234	86.3092	615.234	84.8939	615.234	85.3819	615.234	84.4196	615.234	84.4755	615.234	83.909	615.234	83.6546	615.234	82.9796	615.234	82.7093	615.234	81.0805	615.234	81.0869	615.234	77.2033	615.234	77.8256	615.234	68.0214	615.234	70.27	615.234	71.9737	615.234	69.8658	615.234	78.6582	615.234	77.8632	615.234	81.4129	615.234	81.1114	615.234	82.1313
637.207	89.0211	637.207	88.7659	637.207	89.0136	637.207	88.2891	637.207	88.7707	637.207	87.679	637.207	88.3559	637.207	86.9725	637.207	87.8265	637.207	86.092	637.207	87.2122	637.207	85.0242	637.207	86.5372	637.207	84.1648	637.207	85.8761	637.207	84.1284	637.207	85.3851	637.207	84.7279	637.207	85.1901	637.207	85.207	637.207	85.1509	637.207	85.0748	637.207	84.8114	637.207	84.0178	637.207	83.547	637.207	81.5807	637.207	80.4647	637.207	76.6732	637.207	73.0293	637.207	68.7898	637.207	69.5972	637.207	75.9209	637.207	78.5103	637.207	80.3344	637.207	81.4835	637.207	81.9371
659.18	88.8085	659.18	88.7969	659.18	88.6706	659.18	88.7031	659.18	88.4199	659.18	88.623	659.18	88.157	659.18	88.5305	659.18	87.9272	659.18	88.2071	659.18	87.6365	659.18	87.3448	659.18	87.1093	659.18	85.7382	659.18	86.2435	659.18	83.596	659.18	85.1556	659.18	82.0534	659.18	84.1837	659.18	82.0626	659.18	83.5527	659.18	82.3664	659.18	82.9719	659.18	81.5853	659.18	81.7615	659.18	78.8261	659.18	79.0283	659.18	72.3492	659.18	73.198	659.18	71.7755	659.18	71.8302	659.18	78.8065	659.18	78.6433	659.18	81.9228	659.18	81.8568	659.18	82.8181
682.617	88.9605	682.617	88.921	682.617	88.7032	682.617	88.6585	682.617	88.1103	682.617	88.2565	682.617	87.1782	682.617	87.7241	682.617	85.9768	682.617	86.9464	682.617	84.7917	682.617	85.8219	682.617	84.2575	682.617	84.5522	682.617	84.7523	682.617	83.7661	682.617	85.7039	682.617	83.783	682.617	86.3789	682.617	83.9609	682.617	86.4161	682.617	83.4709	682.617	85.6773	682.617	81.6407	682.617	84.0265	682.617	77.3663	682.617	81.0054	682.617	66.5402	682.617	74.6958	682.617	74.086	682.617	61.2458	682.617	80.0368	682.617	77.3488	682.617	82.5272	682.617	81.6486	682.617	83.047
707.52	88.2292	707.52	88.171	707.52	88.2936	707.52	88.2097	707.52	88.3189	707.52	88.3517	707.52	88.2928	707.52	88.3932	707.52	88.1421	707.52	87.9898	707.52	87.6688	707.52	86.8493	707.52	86.56	707.52	84.8759	707.52	84.457	707.52	82.4377	707.52	81.385	707.52	81.3689	707.52	80.0534	707.52	82.6825	707.52	82.285	707.52	83.8664	707.52	84.0594	707.52	83.6107	707.52	84.0602	707.52	81.4037	707.52	81.8094	707.52	75.843	707.52	75.2149	707.52	71.8324	707.52	67.4477	707.52	79.9952	707.52	79.914	707.52	83.6468	707.52	83.7133	707.52	84.7337
732.422	89.0132	732.422	88.8579	732.422	89.0418	732.422	88.6653	732.422	88.9267	732.422	88.4799	732.422	88.7233	732.422	88.2309	732.422	88.4686	732.422	87.8104	732.422	88.088	732.422	87.1162	732.422	87.3709	732.422	86.0077	732.422	86.0267	732.422	84.4133	732.422	83.8489	732.422	82.9618	732.422	81.4409	732.422	83.0806	732.422	81.1055	732.422	84.0711	732.422	82.3408	732.422	84.139	732.422	82.6888	732.422	82.3354	732.422	81.1914	732.422	77.5752	732.422	76.9052	732.422	72.8481	732.422	73.9547	732.422	79.4317	732.422	80.074	732.422	83.0796	732.422	83.3984	732.422	84.2611
757.324	88.138	757.324	88.1943	757.324	88.0154	757.324	88.2085	757.324	87.856	757.324	88.1984	757.324	87.7596	757.324	88.1235	757.324	87.7972	757.324	87.8532	757.324	87.8404	757.324	87.166	757.324	87.5465	757.324	85.7776	757.324	86.5601	757.324	83.5231	757.324	84.697	757.324	81.4531	757.324	82.1589	757.324	82.1726	757.324	80.4502	757.324	83.9177	757.324	81.1868	757.324	84.3295	757.324	82.0265	757.324	82.6233	757.324	80.7775	757.324	77.3701	757.324	75.0574	757.324	63.3079	757.324	65.2453	757.324	77.5811	757.324	79.1114	757.324	82.0333	757.324	82.7703	757.324	83.4827
785.156	88.4034	785.156	88.4279	785.156	88.1025	785.156	88.2101	785.156	87.5774	785.156	87.8393	785.156	86.9498	785.156	87.3894	785.156	86.3961	785.156	86.7935	785.156	86.1108	785.156	85.8264	785.156	86.0853	785.156	84.2892	785.156	86.0244	785.156	82.1166	785.156	85.5793	785.156	79.8035	785.156	84.5653	785.156	79.9519	785.156	83.3571	785.156	82.479	785.156	83.1151	785.156	84.079	785.156	83.5204	785.156	83.655	785.156	82.725	785.156	80.5786	785.156	79.4428	785.156	74.7678	785.156	74.6369	785.156	77.2165	785.156	78.1853	785.156	81.0531	785.156	81.453	785.156	82.2788
811.523	90.0143	811.523	89.8338	811.523	89.7081	811.523	89.2191	811.523	88.948	811.523	88.3217	811.523	87.783	811.523	87.3137	811.523	86.3673	811.523	86.2881	811.523	85.2837	811.523	85.2286	811.523	85.0889	811.523	84.0042	811.523	85.2853	811.523	82.2606	811.523	85.1058	811.523	79.4637	811.523	84.4462	811.523	77.3957	811.523	84.0631	811.523	80.4013	811.523	84.5387	811.523	82.8038	811.523	85.02	811.523	82.3721	811.523	84.2188	811.523	78.3513	811.523	80.6475	811.523	72.7401	811.523	69.3812	811.523	79.2232	811.523	76.7636	811.523	82.7233	811.523	82.1431	811.523	83.5747
840.82	87.6683	840.82	87.4969	840.82	87.7103	840.82	87.2043	840.82	87.5888	840.82	86.7498	840.82	87.2318	840.82	86.0434	840.82	86.5577	840.82	85.0353	840.82	85.5322	840.82	83.8187	840.82	84.1144	840.82	82.4701	840.82	82.1491	840.82	80.6998	840.82	79.7914	840.82	78.461	840.82	79.1428	840.82	77.2801	840.82	80.9932	840.82	78.5777	840.82	82.6158	840.82	80.4008	840.82	83.2588	840.82	80.8758	840.82	82.839	840.82	79.1834	840.82	80.7158	840.82	74.92	840.82	75.6323	840.82	73.0104	840.82	73.2959	840.82	76.955	840.82	77.7262	840.82	78.8046
870.117	89.9902	870.117	89.3986	870.117	90.0729	870.117	88.4671	870.117	89.6349	870.117	87.3734	870.117	88.7689	870.117	86.1814	870.117	87.5899	870.117	85.027	870.117	86.3186	870.117	84.1695	870.117	85.1872	870.117	83.4947	870.117	83.9871	870.117	82.0962	870.117	82.0857	870.117	78.6882	870.117	78.7034	870.117	73.3437	870.117	75.5059	870.117	76.2356	870.117	78.799	870.117	79.6765	870.117	81.4929	870.117	79.739	870.117	81.709	870.117	75.4698	870.117	78.9844	870.117	56.8885	870.117	70.272	870.117	77.6064	870.117	76.1827	870.117	82.209	870.117	81.8143	870.117	83.3639
900.879	87.0891	900.879	86.9909	900.879	86.9655	900.879	86.5295	900.879	86.7003	900.879	85.5097	900.879	86.205	900.879	83.8448	900.879	85.2838	900.879	82.2788	900.879	84	900.879	82.1939	900.879	82.9921	900.879	82.7339	900.879	82.8552	900.879	82.258	900.879	82.8483	900.879	80.1613	900.879	81.471	900.879	77.0923	900.879	76.8875	900.879	76.4994	900.879	73.5492	900.879	78.915	900.879	80.2608	900.879	80.7007	900.879	82.6526	900.879	80.3068	900.879	81.8308	900.879	76.5531	900.879	77.485	900.879	64.1503	900.879	69.23	900.879	73.0583	900.879	75.1698	900.879	76.9607
933.105	88.4487	933.105	88.5228	933.105	88.354	933.105	88.3447	933.105	88.2306	933.105	87.4332	933.105	87.8938	933.105	85.6882	933.105	86.9907	933.105	84.23	933.105	85.4763	933.105	84.4004	933.105	83.842	933.105	85.0984	933.105	82.7622	933.105	84.7191	933.105	82.5219	933.105	82.6061	933.105	82.1783	933.105	77.9209	933.105	80.5404	933.105	70.6299	933.105	77.9007	933.105	75.9585	933.105	79.1962	933.105	79.2389	933.105	81.6765	933.105	78.892	933.105	81.1644	933.105	75.8554	933.105	77.1982	933.105	78.2853	933.105	77.4257	933.105	82.3369	933.105	81.9625	933.105	83.529
965.332	85.941	965.332	86.5935	965.332	86.1942	965.332	87.5362	965.332	87.1921	965.332	87.9531	965.332	88.1329	965.332	87.2887	965.332	88.3249	965.332	85.456	965.332	87.5385	965.332	83.0492	965.332	85.7133	965.332	82.6356	965.332	83.1695	965.332	84.7437	965.332	81.8173	965.332	85.6911	965.332	81.5284	965.332	84.3023	965.332	79.8745	965.332	79.8818	965.332	75.2428	965.332	76.4579	965.332	75.9948	965.332	79.8099	965.332	81.2967	965.332	80.7899	965.332	82.8345	965.332	79.2595	965.332	80.9685	965.332	77.5065	965.332	78.3876	965.332	79.5975	965.332	80.4077	965.332	81.3082
1000.49	88.1914	1000.49	88.2149	1000.49	88.1784	1000.49	88.2406	1000.49	88.213	1000.49	88.2665	1000.49	88.1135	1000.49	88.0245	1000.49	87.5692	1000.49	87.0272	1000.49	86.3663	1000.49	84.623	1000.49	84.5827	1000.49	80.5137	1000.49	83.2478	1000.49	78.2825	1000.49	83.4156	1000.49	79.5916	1000.49	83.7271	1000.49	79.3639	1000.49	82.3727	1000.49	77.1936	1000.49	77.8713	1000.49	78.7961	1000.49	72.0209	1000.49	82.2999	1000.49	78.6752	1000.49	82.8756	1000.49	81.1992	1000.49	80.2801	1000.49	79.6455	1000.49	74.9366	1000.49	73.9812	1000.49	72.1658	1000.49	69.7584	1000.49	72.3609
1035.64	87.5615	1035.64	87.7026	1035.64	87.0869	1035.64	87.4922	1035.64	86.5294	1035.64	86.9685	1035.64	86.2094	1035.64	86.2403	1035.64	85.9315	1035.64	85.5966	1035.64	85.1288	1035.64	85.0084	1035.64	83.3374	1035.64	84.0824	1035.64	80.8176	1035.64	82.8575	1035.64	80.8971	1035.64	81.5595	1035.64	82.7123	1035.64	79.8669	1035.64	82.8067	1035.64	75.8597	1035.64	79.9448	1035.64	70.197	1035.64	73.7889	1035.64	77.5619	1035.64	77.4595	1035.64	80.3632	1035.64	81.2991	1035.64	79.5733	1035.64	81.453	1035.64	75.838	1035.64	79.0328	1035.64	72.7423	1035.64	76.293	1035.64	74.4049
1072.27	88.1898	1072.27	87.9274	1072.27	88.0962	1072.27	87.2103	1072.27	87.8013	1072.27	86.0162	1072.27	87.5765	1072.27	84.7883	1072.27	87.364	1072.27	84.1368	1072.27	86.7429	1072.27	83.8265	1072.27	85.3806	1072.27	83.6267	1072.27	82.6579	1072.27	83.8699	1072.27	77.8237	1072.27	84.0924	1072.27	78.0312	1072.27	83.3185	1072.27	81.3307	1072.27	80.9885	1072.27	81.2414	1072.27	74.8876	1072.27	77.6299	1072.27	69.3923	1072.27	75.6362	1072.27	78.7722	1072.27	79.1527	1072.27	79.3377	1072.27	79.3453	1072.27	73.5927	1072.27	74.637	1072.27	66.2917	1072.27	53.1655	1072.27	70.0151
1108.89	88.4745	1108.89	88.2695	1108.89	88.4753	1108.89	87.632	1108.89	88.2937	1108.89	86.5768	1108.89	87.71	1108.89	85.6179	1108.89	86.8071	1108.89	84.9518	1108.89	86.1783	1108.89	83.7311	1108.89	85.8696	1108.89	81.4205	1108.89	84.8355	1108.89	79.9135	1108.89	82.4031	1108.89	81.514	1108.89	78.37	1108.89	83.2945	1108.89	72.4541	1108.89	83.4952	1108.89	73.5542	1108.89	80.8172	1108.89	74.9859	1108.89	74.5476	1108.89	75.1183	1108.89	73.5373	1108.89	76.6814	1108.89	73.7796	1108.89	76.6047	1108.89	69.4066	1108.89	72.6877	1108.89	62.9559	1108.89	61.7828	1108.89	63.142
1148.44	88.9919	1148.44	89.0167	1148.44	88.5994	1148.44	88.5171	1148.44	87.9678	1148.44	87.528	1148.44	87.3131	1148.44	86.3491	1148.44	86.825	1148.44	85.1665	1148.44	86.1597	1148.44	83.9713	1148.44	84.9929	1148.44	82.2212	1148.44	83.8969	1148.44	78.429	1148.44	83.2962	1148.44	75.5299	1148.44	82.1806	1148.44	79.4969	1148.44	79.8236	1148.44	81.0465	1148.44	75.8515	1148.44	79.3359	1148.44	69.6422	1148.44	75.4546	1148.44	72.0105	1148.44	75.9632	1148.44	75.3671	1148.44	76.115	1148.44	75.9732	1148.44	71.4834	1148.44	74.055	1148.44	60.3718	1148.44	68.546	1148.44	58.0574
1189.45	88.1574	1189.45	88.0732	1189.45	88.1979	1189.45	87.7777	1189.45	88.0275	1189.45	87.047	1189.45	87.3352	1189.45	85.9319	1189.45	86.1752	1189.45	84.6335	1189.45	85.1321	1189.45	83.5299	1189.45	84.3619	1189.45	82.8999	1189.45	82.813	1189.45	81.4955	1189.45	80.4403	1189.45	77.5921	1189.45	80.4947	1189.45	65.2107	1189.45	81.7169	1189.45	75.5272	1189.45	80.6779	1189.45	78.5215	1189.45	76.6064	1189.45	75.9886	1189.45	69.4077	1189.45	75.5061	1189.45	74.1856	1189.45	77.0074	1189.45	76.955	1189.45	72.8491	1189.45	74.6521	1189.45	41.0643	1189.45	67.5324	1189.45	65.7373
1230.47	88.2247	1230.47	88.071	1230.47	88.3734	1230.47	87.5761	1230.47	88.4873	1230.47	86.6496	1230.47	88.1089	1230.47	85.6785	1230.47	86.946	1230.47	84.6193	1230.47	85.2323	1230.47	82.564	1230.47	83.6471	1230.47	80.2526	1230.47	82.4768	1230.47	80.0549	1230.47	80.8916	1230.47	80.1156	1230.47	77.6702	1230.47	77.3461	1230.47	74.4996	1230.47	72.439	1230.47	76.8238	1230.47	74.6021	1230.47	76.6223	1230.47	74.3617	1230.47	72.1157	1230.47	73.2531	1230.47	70.7622	1230.47	75.777	1230.47	71.6651	1230.47	74.0343	1230.47	64.7986	1230.47	65.9975	1230.47	68.3697	1230.47	70.5204
1274.41	88.4348	1274.41	88.169	1274.41	88.305	1274.41	87.3583	1274.41	87.8712	1274.41	86.4426	1274.41	87.1304	1274.41	86.1208	1274.41	86.2322	1274.41	85.6225	1274.41	85.0459	1274.41	83.5652	1274.41	83.2029	1274.41	80.3677	1274.41	81.0575	1274.41	78.0157	1274.41	79.9921	1274.41	76.7467	1274.41	79.4159	1274.41	75.4805	1274.41	77.7493	1274.41	72.6846	1274.41	75.7455	1274.41	73.2906	1274.41	75.6475	1274.41	74.9725	1274.41	74.3108	1274.41	71.8453	1274.41	70.8863	1274.41	70.5365	1274.41	71.0622	1274.41	68.0265	1274.41	69.7448	1274.41	67.2342	1274.41	67.0515	1274.41	70.1164
1319.82	87.964	1319.82	87.6924	1319.82	87.8445	1319.82	87.1463	1319.82	87.3933	1319.82	86.6242	1319.82	86.725	1319.82	85.8398	1319.82	86.0315	1319.82	84.3847	1319.82	85.3527	1319.82	82.7601	1319.82	84.3454	1319.82	81.0708	1319.82	82.345	1319.82	78.9037	1319.82	78.6286	1319.82	76.8847	1319.82	74.5633	1319.82	74.8162	1319.82	76.1957	1319.82	72.7732	1319.82	77.3976	1319.82	73.938	1319.82	74.6606	1319.82	76.6836	1319.82	70.6482	1319.82	76.0838	1319.82	73.5746	1319.82	73.4099	1319.82	73.88	1319.82	69.8062	1319.82	68.0194	1319.82	51.3227	1319.82	61.115	1319.82	67.5526
1366.7	89.5962	1366.7	89.1675	1366.7	89.4933	1366.7	88.4861	1366.7	88.7555	1366.7	87.676	1366.7	87.5586	1366.7	86.4308	1366.7	86.4341	1366.7	84.7771	1366.7	85.3594	1366.7	82.8135	1366.7	83.6511	1366.7	80.8774	1366.7	81.8592	1366.7	80.2044	1366.7	81.3964	1366.7	80.2784	1366.7	80.1539	1366.7	78.8241	1366.7	75.1062	1366.7	75.0732	1366.7	74.1404	1366.7	65.4167	1366.7	77.2123	1366.7	70.2091	1366.7	75.6832	1366.7	75.338	1366.7	73.6949	1366.7	74.7788	1366.7	74.6823	1366.7	71.743	1366.7	70.6829	1366.7	70.8286	1366.7	68.8284	1366.7	73.7128
1413.57	89.6012	1413.57	89.3462	1413.57	89.4503	1413.57	88.466	1413.57	88.9955	1413.57	86.8309	1413.57	88.1708	1413.57	85.048	1413.57	86.665	1413.57	83.8594	1413.57	84.5226	1413.57	82.8785	1413.57	82.5426	1413.57	81.4444	1413.57	80.0699	1413.57	79.6635	1413.57	76.8564	1413.57	78.9635	1413.57	77.6946	1413.57	78.2056	1413.57	77.8076	1413.57	77.0233	1413.57	74.3253	1413.57	74.405	1413.57	72.5795	1413.57	64.1011	1413.57	73.0222	1413.57	69.5044	1413.57	68.8423	1413.57	69.8832	1413.57	70.0106	1413.57	67.2626	1413.57	70.7246	1413.57	68.5177	1413.57	67.5662	1413.57	68.8301
1463.38	88.8555	1463.38	88.9498	1463.38	88.9125	1463.38	88.3996	1463.38	88.833	1463.38	86.9287	1463.38	87.8945	1463.38	85.5191	1463.38	86.2059	1463.38	83.9102	1463.38	84.6035	1463.38	81.7232	1463.38	82.8023	1463.38	80.5818	1463.38	80.2983	1463.38	79.1135	1463.38	77.9484	1463.38	75.9423	1463.38	73.3689	1463.38	73.3219	1463.38	69.8213	1463.38	72.5696	1463.38	75.1743	1463.38	73.3304	1463.38	74.5336	1463.38	71.6554	1463.38	71.0447	1463.38	70.7814	1463.38	69.2903	1463.38	69.0019	1463.38	64.9807	1463.38	56.9314	1463.38	57.4144	1463.38	67.7263	1463.38	65.379	1463.38	70.1003
1516.11	88.4902	1516.11	88.6202	1516.11	88.6007	1516.11	87.9632	1516.11	88.6484	1516.11	86.5323	1516.11	87.548	1516.11	85.0411	1516.11	85.4893	1516.11	82.6273	1516.11	83.6746	1516.11	80.6296	1516.11	82.2202	1516.11	79.856	1516.11	80.3152	1516.11	76.8737	1516.11	77.4821	1516.11	72.9524	1516.11	75.9271	1516.11	73.3632	1516.11	74.7342	1516.11	73.0911	1516.11	66.9889	1516.11	71.8154	1516.11	68.2266	1516.11	67.3389	1516.11	71.7909	1516.11	64.3493	1516.11	69.8978	1516.11	68.6299	1516.11	68.9675	1516.11	62.7049	1516.11	65.005	1516.11	68.56	1516.11	66.2214	1516.11	71.3873
1568.85	88.9068	1568.85	88.8476	1568.85	88.6311	1568.85	87.8314	1568.85	88.2704	1568.85	86.5806	1568.85	87.4414	1568.85	84.3011	1568.85	85.9032	1568.85	80.7282	1568.85	83.294	1568.85	80.8227	1568.85	80.9391	1568.85	79.0684	1568.85	80.1325	1568.85	72.2127	1568.85	76.942	1568.85	69.9083	1568.85	71.7177	1568.85	70.3166	1568.85	74.01	1568.85	70.6648	1568.85	73.1678	1568.85	72.9193	1568.85	68.0321	1568.85	71.1502	1568.85	64.855	1568.85	66.7313	1568.85	72.0887	1568.85	69.5352	1568.85	74.6203	1568.85	65.7095	1568.85	71.4713	1568.85	68.8125	1568.85	62.0308	1568.85	73.1343
1624.51	89.1166	1624.51	88.608	1624.51	88.9673	1624.51	87.8953	1624.51	88.475	1624.51	87.1248	1624.51	87.8356	1624.51	84.9896	1624.51	86.6973	1624.51	83.1235	1624.51	83.9345	1624.51	81.1324	1624.51	79.9957	1624.51	78.0713	1624.51	79.3381	1624.51	76.6004	1624.51	78.6093	1624.51	75.1922	1624.51	75.5116	1624.51	75.8445	1624.51	72.8325	1624.51	72.4464	1624.51	63.8993	1624.51	63.912	1624.51	68.3555	1624.51	73.4782	1624.51	68.5872	1624.51	72.3269	1624.51	68.029	1624.51	73.8121	1624.51	73.3111	1624.51	70.1713	1624.51	69.7083	1624.51	63.2489	1624.51	62.9861	1624.51	70.0552
1681.64	89.4449	1681.64	88.9102	1681.64	89.342	1681.64	88.2916	1681.64	88.2571	1681.64	87.435	1681.64	87.1913	1681.64	86.4908	1681.64	86.3029	1681.64	84.7181	1681.64	84.3222	1681.64	81.4396	1681.64	80.8483	1681.64	79.0882	1681.64	77.4415	1681.64	78.6112	1681.64	76.0675	1681.64	75.488	1681.64	72.4526	1681.64	73.9311	1681.64	72.7191	1681.64	75.7893	1681.64	75.4183	1681.64	68.4531	1681.64	68.978	1681.64	64.1234	1681.64	58.459	1681.64	66.8414	1681.64	62.8446	1681.64	74.515	1681.64	72.5974	1681.64	72.3284	1681.64	72.0156	1681.64	65.5286	1681.64	64.0534	1681.64	71.6472
1741.7	89.9874	1741.7	89.7213	1741.7	89.4146	1741.7	88.4715	1741.7	88.3296	1741.7	87.8441	1741.7	86.8616	1741.7	86.948	1741.7	85.5524	1741.7	84.7268	1741.7	84.3187	1741.7	82.9383	1741.7	81.3624	1741.7	79.5244	1741.7	78.3022	1741.7	79.6889	1741.7	77.6404	1741.7	79.888	1741.7	76.3722	1741.7	74.7136	1741.7	73.1647	1741.7	68.5957	1741.7	66.0687	1741.7	63.3591	1741.7	68.5729	1741.7	72.2391	1741.7	68.8058	1741.7	66.4688	1741.7	59.3884	1741.7	69.7551	1741.7	69.769	1741.7	71.3564	1741.7	72.6542	1741.7	57.1295	1741.7	63.5774	1741.7	59.6854
1803.22	90.0424	1803.22	90.2798	1803.22	89.369	1803.22	89.7476	1803.22	88.7946	1803.22	88.6805	1803.22	87.437	1803.22	85.7459	1803.22	86.3344	1803.22	85.1281	1803.22	84.8883	1803.22	82.5077	1803.22	82.4277	1803.22	80.8801	1803.22	78.9874	1803.22	80.9739	1803.22	76.9356	1803.22	78.3988	1803.22	75.2303	1803.22	79.4817	1803.22	73.6378	1803.22	78.0366	1803.22	76.331	1803.22	71.8513	1803.22	71.5637	1803.22	66.5663	1803.22	63.949	1803.22	72.2076	1803.22	67.7801	1803.22	68.9438	1803.22	69.899	1803.22	71.8728	1803.22	71.6717	1803.22	66.7986	1803.22	68.094	1803.22	72.2778
1866.21	89.4933	1866.21	89.9723	1866.21	89.388	1866.21	90.2253	1866.21	88.9025	1866.21	88.6501	1866.21	87.8546	1866.21	86.7658	1866.21	86.5615	1866.21	85.5175	1866.21	85.0208	1866.21	81.9922	1866.21	82.8968	1866.21	82.5615	1866.21	80.3054	1866.21	80.7266	1866.21	78.2412	1866.21	78.0058	1866.21	78.292	1866.21	74.3683	1866.21	76.2016	1866.21	75.6175	1866.21	70.8883	1866.21	73.8288	1866.21	71.7659	1866.21	68.3895	1866.21	70.2146	1866.21	70.1493	1866.21	64.0198	1866.21	67.3519	1866.21	70.4607	1866.21	69.5904	1866.21	67.2745	1866.21	67.3969	1866.21	65.1473	1866.21	70.8609
1932.13	89.6425	1932.13	89.6682	1932.13	89.4833	1932.13	89.5313	1932.13	89.1326	1932.13	88.4142	1932.13	87.9851	1932.13	87.1598	1932.13	86.1895	1932.13	84.7205	1932.13	84.7506	1932.13	84.0701	1932.13	82.8695	1932.13	83.0266	1932.13	79.8384	1932.13	77.1822	1932.13	76.9913	1932.13	73.9528	1932.13	75.9113	1932.13	72.6005	1932.13	72.7225	1932.13	74.094	1932.13	74.957	1932.13	73.6336	1932.13	72.7067	1932.13	63.8478	1932.13	68.7838	1932.13	72.8061	1932.13	68.219	1932.13	70.4637	1932.13	61.6466	1932.13	68.9793	1932.13	67.8485	1932.13	63.9847	1932.13	68.1045	1932.13	73.554
1999.51	90.3494	1999.51	89.5636	1999.51	89.883	1999.51	88.9868	1999.51	89.1935	1999.51	88.0257	1999.51	88.2814	1999.51	86.9951	1999.51	86.598	1999.51	85.1724	1999.51	84.817	1999.51	83.9313	1999.51	82.6646	1999.51	81.3959	1999.51	80.8971	1999.51	78.27	1999.51	78.7704	1999.51	79.1545	1999.51	77.8342	1999.51	75.1464	1999.51	76.8169	1999.51	66.0321	1999.51	72.1401	1999.51	73.5241	1999.51	68.7214	1999.51	71.2497	1999.51	69.9147	1999.51	64.2039	1999.51	67.7482	1999.51	68.786	1999.51	67.0904	1999.51	68.964	1999.51	69.4392	1999.51	65.0737	1999.51	55.6777	1999.51	70.1877
2069.82	90.3782	2069.82	90.0588	2069.82	90.1596	2069.82	89.4127	2069.82	89.6568	2069.82	88.2094	2069.82	88.7515	2069.82	87.2041	2069.82	86.916	2069.82	83.3195	2069.82	84.808	2069.82	84.0798	2069.82	82.617	2069.82	79.0074	2069.82	80.1317	2069.82	76.9411	2069.82	79.0484	2069.82	76.012	2069.82	77.8224	2069.82	71.0288	2069.82	74.9767	2069.82	77.0778	2069.82	73.1388	2069.82	64.804	2069.82	72.4796	2069.82	73.396	2069.82	64.6124	2069.82	67.4829	2069.82	70.331	2069.82	70.4365	2069.82	67.2006	2069.82	70.0166	2069.82	69.8563	2069.82	67.6676	2069.82	64.2756	2069.82	72.2435
2143.07	89.887	2143.07	90.8368	2143.07	89.5226	2143.07	89.6896	2143.07	89.2407	2143.07	88.2812	2143.07	88.4518	2143.07	85.6822	2143.07	87.2478	2143.07	84.6793	2143.07	84.1842	2143.07	83.2895	2143.07	81.0626	2143.07	79.3797	2143.07	78.8285	2143.07	79.7098	2143.07	77.2579	2143.07	77.637	2143.07	75.8837	2143.07	77.3026	2143.07	75.4107	2143.07	72.7555	2143.07	75.2049	2143.07	68.5978	2143.07	71.0205	2143.07	69.7122	2143.07	67.8734	2143.07	71.7212	2143.07	70.1916	2143.07	70.2476	2143.07	64.925	2143.07	70.7494	2143.07	71.4514	2143.07	66.6282	2143.07	66.5852	2143.07	74.2408
2219.24	90.0202	2219.24	89.6866	2219.24	89.8991	2219.24	89.2295	2219.24	88.8533	2219.24	88.1687	2219.24	88.1353	2219.24	86.4044	2219.24	86.7764	2219.24	84.7912	2219.24	84.7967	2219.24	81.9104	2219.24	80.7626	2219.24	82.0585	2219.24	80.1485	2219.24	77.3711	2219.24	76.6066	2219.24	75.5671	2219.24	74.8703	2219.24	74.1651	2219.24	73.8095	2219.24	74.1558	2219.24	72.0182	2219.24	71.6195	2219.24	71.0252	2219.24	57.115	2219.24	59.7372	2219.24	71.2204	2219.24	71.407	2219.24	67.9252	2219.24	62.785	2219.24	70.3174	2219.24	69.8023	2219.24	65.1386	2219.24	64.0104	2219.24	74.2292
2296.88	90.1473	2296.88	88.8598	2296.88	89.8416	2296.88	88.382	2296.88	88.7886	2296.88	87.4889	2296.88	87.3159	2296.88	86.3739	2296.88	86.096	2296.88	83.3411	2296.88	83.9977	2296.88	82.4368	2296.88	81.7493	2296.88	80.3041	2296.88	79.157	2296.88	78.7714	2296.88	77.3259	2296.88	76.191	2296.88	74.8996	2296.88	74.5421	2296.88	75.5985	2296.88	70.5927	2296.88	71.6531	2296.88	72.2162	2296.88	71.1507	2296.88	63.5399	2296.88	65.5093	2296.88	66.931	2296.88	68.3481	2296.88	63.2079	2296.88	68.4911	2296.88	68.8503	2296.88	69.0294	2296.88	67.2495	2296.88	61.0737	2296.88	71.7766
2378.91	89.4578	2378.91	89.0969	2378.91	88.8022	2378.91	88.0849	2378.91	88.3091	2378.91	86.455	2378.91	86.7912	2378.91	85.014	2378.91	84.8095	2378.91	83.7631	2378.91	83.6365	2378.91	82.9993	2378.91	82.2401	2378.91	79.0111	2378.91	79.9495	2378.91	78.443	2378.91	79.9537	2378.91	75.725	2378.91	75.7787	2378.91	75.8296	2378.91	75.2709	2378.91	71.1303	2378.91	71.7717	2378.91	72.4625	2378.91	72.356	2378.91	67.3777	2378.91	67.8483	2378.91	64.865	2378.91	60.114	2378.91	64.9924	2378.91	65.0819	2378.91	64.2531	2378.91	67.3719	2378.91	60.2259	2378.91	65.3913	2378.91	69.8215
2462.4	88.6284	2462.4	88.8747	2462.4	88.5143	2462.4	88.0809	2462.4	87.4613	2462.4	86.1404	2462.4	86.5752	2462.4	84.6261	2462.4	84.1218	2462.4	83.5991	2462.4	82.2566	2462.4	81.4909	2462.4	81.1959	2462.4	78.3652	2462.4	78.728	2462.4	78.2515	2462.4	76.9342	2462.4	76.5418	2462.4	77.4286	2462.4	72.2947	2462.4	73.1471	2462.4	72.9279	2462.4	73.9623	2462.4	69.6107	2462.4	69.8652	2462.4	66.5017	2462.4	70.8337	2462.4	66.0794	2462.4	58.1968	2462.4	67.0848	2462.4	61.1797	2462.4	66.9073	2462.4	67.3091	2462.4	66.1766	2462.4	51.8243	2462.4	69.3679
2548.83	88.6408	2548.83	88.3355	2548.83	88.8675	2548.83	87.8379	2548.83	87.4956	2548.83	86.9272	2548.83	86.1549	2548.83	84.6065	2548.83	84.2626	2548.83	83.7205	2548.83	81.7627	2548.83	79.7456	2548.83	80.2797	2548.83	80.5012	2548.83	80.037	2548.83	77.5186	2548.83	76.863	2548.83	75.0536	2548.83	72.4098	2548.83	76.2249	2548.83	74.2402	2548.83	71.0195	2548.83	73.1688	2548.83	71.8867	2548.83	72.0483	2548.83	66.2301	2548.83	70.4164	2548.83	63.5671	2548.83	63.7278	2548.83	62.5294	2548.83	59.1964	2548.83	67.3459	2548.83	63.6664	2548.83	63.9936	2548.83	59.5204	2548.83	67.931
2639.65	88.9137	2639.65	88.5997	2639.65	88.6862	2639.65	87.3338	2639.65	88.1739	2639.65	86.4885	2639.65	86.4344	2639.65	84.4875	2639.65	85.0172	2639.65	82.3616	2639.65	82.5051	2639.65	81.029	2639.65	80.9585	2639.65	79.6664	2639.65	79.0779	2639.65	77.5105	2639.65	79.8887	2639.65	76.215	2639.65	77.584	2639.65	70.585	2639.65	75.1554	2639.65	69.7453	2639.65	71.9919	2639.65	68.5507	2639.65	70.3237	2639.65	67.4261	2639.65	70.4656	2639.65	62.1409	2639.65	68.1857	2639.65	65.6988	2639.65	64.7903	2639.65	60.8372	2639.65	64.3587	2639.65	65.9614	2639.65	55.499	2639.65	68.5361
2731.93	89.2682	2731.93	88.9538	2731.93	88.4228	2731.93	87.7439	2731.93	87.527	2731.93	85.7591	2731.93	86.2972	2731.93	84.2416	2731.93	84.5425	2731.93	81.6985	2731.93	82.93	2731.93	81.4816	2731.93	81.1194	2731.93	78.6596	2731.93	78.8809	2731.93	75.8446	2731.93	76.316	2731.93	71.4204	2731.93	75.3583	2731.93	73.5663	2731.93	73.5921	2731.93	72.5011	2731.93	73.8658	2731.93	68.6803	2731.93	68.8978	2731.93	68.881	2731.93	70.3526	2731.93	62.7859	2731.93	65.2183	2731.93	61.1819	2731.93	67.1734	2731.93	65.6109	2731.93	61.1608	2731.93	60.3572	2731.93	54.5011	2731.93	68.2274
2828.61	89.2606	2828.61	88.6201	2828.61	89.4631	2828.61	87.6535	2828.61	87.7038	2828.61	86.0565	2828.61	86.0375	2828.61	84.4017	2828.61	84.46	2828.61	81.6225	2828.61	83.1257	2828.61	80.6174	2828.61	81.1558	2828.61	75.1933	2828.61	79.2359	2828.61	77.1268	2828.61	78.3111	2828.61	74.8518	2828.61	74.5744	2828.61	75.7888	2828.61	72.9059	2828.61	68.6539	2828.61	68.5239	2828.61	69.8867	2828.61	68.5162	2828.61	65.7545	2828.61	66.9424	2828.61	61.74	2828.61	61.7802	2828.61	67.622	2828.61	70.0779	2828.61	59.5304	2828.61	44.1289	2828.61	60.5636	2828.61	54.782	2828.61	64.8665
2928.22	88.8315	2928.22	88.2154	2928.22	88.8789	2928.22	87.3405	2928.22	87.9165	2928.22	85.6142	2928.22	85.5097	2928.22	84.0771	2928.22	84.7546	2928.22	82.3525	2928.22	83.3967	2928.22	79.2907	2928.22	81.2959	2928.22	78.818	2928.22	79.4877	2928.22	75.5659	2928.22	75.9659	2928.22	75.7469	2928.22	73.7006	2928.22	68.1718	2928.22	67.9389	2928.22	69.9853	2928.22	68.5382	2928.22	67.4738	2928.22	68.3044	2928.22	65.3424	2928.22	63.4338	2928.22	64.112	2928.22	59.3705	2928.22	65.0045	2928.22	66.2266	2928.22	63.9587	2928.22	61.8924	2928.22	57.9504	2928.22	60.3632	2928.22	68.5949
3030.76	89.0257	3030.76	88.8269	3030.76	88.1641	3030.76	87.5422	3030.76	87.6125	3030.76	85.9031	3030.76	86.1057	3030.76	83.5596	3030.76	84.7654	3030.76	82.8489	3030.76	83.2767	3030.76	78.6544	3030.76	81.311	3030.76	79.5449	3030.76	79.3803	3030.76	74.8975	3030.76	72.8649	3030.76	74.1202	3030.76	70.347	3030.76	73.0852	3030.76	68.6182	3030.76	71.2619	3030.76	70.9564	3030.76	69.0875	3030.76	68.4349	3030.76	64.9192	3030.76	69.8728	3030.76	57.6377	3030.76	63.5963	3030.76	64.9169	3030.76	61.8158	3030.76	54.1594	3030.76	61.5357	3030.76	62.7009	3030.76	55.5303	3030.76	64.4881
3137.7	88.8237	3137.7	88.5516	3137.7	89.0637	3137.7	87.5881	3137.7	87.5244	3137.7	85.9057	3137.7	86.5023	3137.7	84.2731	3137.7	85.1054	3137.7	81.1538	3137.7	83.1767	3137.7	81.2363	3137.7	81.3718	3137.7	76.2198	3137.7	77.6143	3137.7	77.0042	3137.7	75.0891	3137.7	73.519	3137.7	70.0564	3137.7	72.1992	3137.7	72.5394	3137.7	70.4716	3137.7	70.0596	3137.7	68.6428	3137.7	70.7294	3137.7	67.4187	3137.7	70.4881	3137.7	59.3109	3137.7	64.2305	3137.7	63.8645	3137.7	63.1931	3137.7	64.4455	3137.7	60.1663	3137.7	56.0362	3137.7	58.4854	3137.7	65.0177
3249.02	89.1969	3249.02	88.6291	3249.02	88.5896	3249.02	87.455	3249.02	87.8737	3249.02	86.159	3249.02	86.4305	3249.02	84.2646	3249.02	85.3609	3249.02	82.4066	3249.02	83.348	3249.02	80.7144	3249.02	81.2429	3249.02	77.7587	3249.02	77.0554	3249.02	75.5271	3249.02	74.0662	3249.02	74.4863	3249.02	71.8483	3249.02	70.6233	3249.02	72.4032	3249.02	71.1491	3249.02	70.9931	3249.02	66.3807	3249.02	70.5734	3249.02	68.3618	3249.02	67.4318	3249.02	59.3686	3249.02	65.9543	3249.02	63.9376	3249.02	66.4287	3249.02	48.2741	3249.02	55.5082	3249.02	61.8283	3249.02	54.6318	3249.02	65.9587
3363.28	89.0193	3363.28	88.8709	3363.28	88.7486	3363.28	88.1156	3363.28	87.9484	3363.28	86.2083	3363.28	86.6403	3363.28	84.7063	3363.28	85.3207	3363.28	82.879	3363.28	83.3043	3363.28	80.0524	3363.28	80.8729	3363.28	79.559	3363.28	75.308	3363.28	76.6049	3363.28	73.1834	3363.28	72.9202	3363.28	75.4592	3363.28	74.6923	3363.28	73.1804	3363.28	69.1804	3363.28	71.7795	3363.28	70.0238	3363.28	67.3358	3363.28	64.8975	3363.28	66.7487	3363.28	61.9841	3363.28	60.1933	3363.28	64.9277	3363.28	67.6172	3363.28	61.9153	3363.28	51.0885	3363.28	62.9515	3363.28	56.8407	3363.28	62.9217
3481.93	89.3974	3481.93	88.6551	3481.93	88.6799	3481.93	87.7828	3481.93	87.8681	3481.93	86.5419	3481.93	86.7376	3481.93	84.4601	3481.93	85.5918	3481.93	82.8472	3481.93	83.5561	3481.93	80.943	3481.93	79.6421	3481.93	78.5525	3481.93	75.9845	3481.93	77.644	3481.93	76.547	3481.93	74.8841	3481.93	75.0777	3481.93	73.6676	3481.93	73.9031	3481.93	69.9425	3481.93	72.7636	3481.93	69.6361	3481.93	70.5187	3481.93	67.0556	3481.93	67.6847	3481.93	65.1425	3481.93	62.1673	3481.93	64.9586	3481.93	68.0239	3481.93	60.8423	3481.93	55.1639	3481.93	46.69	3481.93	57.9056	3481.93	66.9104
3604.98	89.0619	3604.98	88.8705	3604.98	89.1037	3604.98	88.0471	3604.98	88.418	3604.98	86.4793	3604.98	87.462	3604.98	85.038	3604.98	85.2656	3604.98	82.6101	3604.98	83.3834	3604.98	81.0558	3604.98	79.2414	3604.98	78.0984	3604.98	78.4536	3604.98	74.8914	3604.98	76.7246	3604.98	75.745	3604.98	76.0835	3604.98	70.1406	3604.98	74.3635	3604.98	70.3533	3604.98	70.8846	3604.98	65.7625	3604.98	70.1147	3604.98	67.0517	3604.98	68.3559	3604.98	65.864	3604.98	63.0213	3604.98	64.0155	3604.98	65.8657	3604.98	51.2701	3604.98	63.9479	3604.98	54.4424	3604.98	57.5985	3604.98	58.7671
3732.42	88.9168	3732.42	88.407	3732.42	88.7585	3732.42	88.0199	3732.42	88.4287	3732.42	86.7481	3732.42	87.3902	3732.42	85.1388	3732.42	85.3134	3732.42	82.9716	3732.42	82.7158	3732.42	80.6883	3732.42	78.6976	3732.42	77.5654	3732.42	77.6834	3732.42	75.2996	3732.42	76.0159	3732.42	73.3722	3732.42	76.4934	3732.42	70.6719	3732.42	73.8348	3732.42	69.8033	3732.42	70.6542	3732.42	67.4424	3732.42	68.8427	3732.42	63.532	3732.42	67.4026	3732.42	65.8967	3732.42	63.4104	3732.42	65.1256	3732.42	57.4136	3732.42	58.0771	3732.42	59.242	3732.42	44.9105	3732.42	58.7368	3732.42	59.6921
3864.26	89.3187	3864.26	89.1278	3864.26	89.0888	3864.26	88.1769	3864.26	88.1061	3864.26	86.9133	3864.26	87.0275	3864.26	84.7688	3864.26	84.822	3864.26	83.182	3864.26	82.0193	3864.26	79.6461	3864.26	79.624	3864.26	79.0647	3864.26	76.7173	3864.26	76.4731	3864.26	76.072	3864.26	71.7001	3864.26	74.959	3864.26	71.3708	3864.26	72.9649	3864.26	68.8274	3864.26	69.6688	3864.26	67.7025	3864.26	65.8338	3864.26	63.9241	3864.26	61.2115	3864.26	64.1005	3864.26	64.2517	3864.26	65.5363	3864.26	61.5655	3864.26	54.9987	3864.26	57.0629	3864.26	59.07	3864.26	56.9041	3864.26	62.6086
4000.49	88.7832	4000.49	88.6287	4000.49	89.1239	4000.49	88.1883	4000.49	88.2998	4000.49	86.5841	4000.49	86.8416	4000.49	84.6166	4000.49	84.6734	4000.49	81.81	4000.49	82.2637	4000.49	80.3778	4000.49	78.9965	4000.49	77.567	4000.49	76.1326	4000.49	72.8464	4000.49	75.5522	4000.49	71.5718	4000.49	74.8233	4000.49	70.649	4000.49	71.6659	4000.49	68.0301	4000.49	67.3457	4000.49	65.5323	4000.49	61.5873	4000.49	60.4837	4000.49	63.3268	4000.49	65.7886	4000.49	62.5373	4000.49	61.7025	4000.49	64.1545	4000.49	50.7244	4000.49	62.1527	4000.49	63.6307	4000.49	52.5317	4000.49	65.9471
4141.11	89.0817	4141.11	88.905	4141.11	88.6907	4141.11	87.8297	4141.11	88.0468	4141.11	86.2127	4141.11	86.9732	4141.11	84.1336	4141.11	84.4807	4141.11	82.2817	4141.11	83.1122	4141.11	79.8923	4141.11	78.9035	4141.11	75.5266	4141.11	76.4885	4141.11	76.9908	4141.11	76.6454	4141.11	72.8629	4141.11	73.2363	4141.11	70.5398	4141.11	69.8614	4141.11	67.0941	4141.11	68.1601	4141.11	65.7326	4141.11	67.2993	4141.11	62.8664	4141.11	63.067	4141.11	61.0038	4141.11	59.9762	4141.11	61.1509	4141.11	61.9739	4141.11	60.5317	4141.11	60.7221	4141.11	53.8915	4141.11	44.9541	4141.11	59.3438
4287.6	88.6281	4287.6	88.0291	4287.6	88.7653	4287.6	87.6507	4287.6	88.1416	4287.6	86.0554	4287.6	86.459	4287.6	84.1227	4287.6	85.184	4287.6	82.0173	4287.6	82.4651	4287.6	78.9836	4287.6	77.307	4287.6	78.6762	4287.6	78.6542	4287.6	73.8763	4287.6	77.6634	4287.6	71.4182	4287.6	74.0589	4287.6	69.6603	4287.6	71.547	4287.6	67.7151	4287.6	68.1224	4287.6	66.6458	4287.6	67.8591	4287.6	64.3249	4287.6	64.5724	4287.6	61.1979	4287.6	60.0046	4287.6	62.9053	4287.6	62.5006	4287.6	47.9772	4287.6	58.3417	4287.6	49.2774	4287.6	34.3901	4287.6	50.7607
4438.48	88.7228	4438.48	88.4838	4438.48	88.3047	4438.48	87.5509	4438.48	87.8204	4438.48	85.931	4438.48	86.289	4438.48	84.3468	4438.48	85.0412	4438.48	81.9068	4438.48	81.2549	4438.48	79.9461	4438.48	76.3481	4438.48	75.3357	4438.48	78.7131	4438.48	74.3708	4438.48	77.6976	4438.48	73.6216	4438.48	75.4074	4438.48	69.4954	4438.48	72.3872	4438.48	67.7002	4438.48	70.6391	4438.48	65.4488	4438.48	66.5824	4438.48	62.9514	4438.48	66.2031	4438.48	61.8097	4438.48	56.1348	4438.48	61.2435	4438.48	63.8103	4438.48	54.9875	4438.48	61.4502	4438.48	62.4051	4438.48	48.1798	4438.48	53.6772
4595.21	88.335	4595.21	87.9584	4595.21	88.043	4595.21	87.4728	4595.21	87.2648	4595.21	86.0074	4595.21	86.3648	4595.21	84.2787	4595.21	85.2538	4595.21	82.498	4595.21	80.5773	4595.21	79.2834	4595.21	78.9536	4595.21	77.8766	4595.21	80.0029	4595.21	75.6924	4595.21	76.7928	4595.21	71.9056	4595.21	73.8049	4595.21	69.446	4595.21	69.8981	4595.21	68.1419	4595.21	65.8264	4595.21	66.568	4595.21	67.7599	4595.21	64.7097	4595.21	65.6882	4595.21	62.9841	4595.21	63.9735	4595.21	61.1258	4595.21	59.8805	4595.21	52.9915	4595.21	62.2249	4595.21	56.6925	4595.21	53.3317	4595.21	59.7166
4756.35	88.42	4756.35	88.3637	4756.35	88.5049	4756.35	87.5062	4756.35	86.7768	4756.35	86.5101	4756.35	86.8833	4756.35	84.7173	4756.35	85.1684	4756.35	82.5485	4756.35	78.7874	4756.35	79.569	4756.35	80.4297	4756.35	77.3162	4756.35	80.353	4756.35	71.8851	4756.35	77.4577	4756.35	72.5155	4756.35	72.9504	4756.35	70.0926	4756.35	68.1146	4756.35	68.1058	4756.35	66.8907	4756.35	65.865	4756.35	65.9409	4756.35	63.3612	4756.35	65.6666	4756.35	64.1881	4756.35	64.3451	4756.35	59.8075	4756.35	55.2575	4756.35	56.7492	4756.35	58.4027	4756.35	56.8893	4756.35	52.5183	4756.35	57.0471
4924.8	88.5734	4924.8	88.0747	4924.8	88.1167	4924.8	87.594	4924.8	87.4097	4924.8	86.5266	4924.8	86.723	4924.8	84.5818	4924.8	84.7199	4924.8	82.1381	4924.8	77.64	4924.8	79.6953	4924.8	80.9594	4924.8	76.3883	4924.8	79.4824	4924.8	75.9781	4924.8	76.057	4924.8	71.8157	4924.8	72.6981	4924.8	69.4938	4924.8	69.2214	4924.8	66.3721	4924.8	66.7744	4924.8	65.3992	4924.8	65.5123	4924.8	64.064	4924.8	63.1812	4924.8	62.2166	4924.8	66.6245	4924.8	60.7209	4924.8	61.527	4924.8	61.7087	4924.8	58.1411	4924.8	51.0052	4924.8	57.1181	4924.8	52.3164
5097.66	88.6102	5097.66	88.6754	5097.66	89.0448	5097.66	88.0851	5097.66	88.0294	5097.66	86.7798	5097.66	86.7367	5097.66	84.7834	5097.66	84.3069	5097.66	82.2843	5097.66	79.6241	5097.66	79.2158	5097.66	82.9833	5097.66	77.5881	5097.66	79.3276	5097.66	72.7133	5097.66	74.4663	5097.66	71.1968	5097.66	70.3603	5097.66	69.3753	5097.66	62.6676	5097.66	67.648	5097.66	64.6293	5097.66	65.6178	5097.66	62.3681	5097.66	63.9518	5097.66	61.4017	5097.66	62.8319	5097.66	65.1948	5097.66	63.4938	5097.66	60.9134	5097.66	62.061	5097.66	63.1229	5097.66	30.2853	5097.66	58.9519	5097.66	55.3672
5277.83	89.3197	5277.83	88.9725	5277.83	89.2381	5277.83	88.1587	5277.83	88.2609	5277.83	86.9675	5277.83	86.8362	5277.83	85.0392	5277.83	83.9844	5277.83	82.3265	5277.83	81.4496	5277.83	80.1045	5277.83	83.8052	5277.83	76.2101	5277.83	79.2232	5277.83	75.602	5277.83	73.8738	5277.83	72.7936	5277.83	68.598	5277.83	69.0551	5277.83	68.9739	5277.83	66.4253	5277.83	66.24	5277.83	65.2	5277.83	66.8277	5277.83	63.5715	5277.83	65.042	5277.83	62.2488	5277.83	66.9587	5277.83	63.8034	5277.83	59.8582	5277.83	56.8083	5277.83	60.5216	5277.83	47.2954	5277.83	54.3209	5277.83	55.4057
5463.87	88.8054	5463.87	88.7121	5463.87	88.6021	5463.87	88.582	5463.87	88.2208	5463.87	87.38	5463.87	87.0633	5463.87	85.1816	5463.87	82.781	5463.87	82.5134	5463.87	83.0345	5463.87	79.5349	5463.87	82.9371	5463.87	77.6506	5463.87	77.4169	5463.87	74.1219	5463.87	73.3232	5463.87	70.7485	5463.87	69.554	5463.87	69.8786	5463.87	69.1677	5463.87	67.7089	5463.87	69.7174	5463.87	65.7097	5463.87	66.8411	5463.87	63.2929	5463.87	65.5126	5463.87	63.6438	5463.87	65.578	5463.87	64.3252	5463.87	63.7343	5463.87	56.557	5463.87	58.986	5463.87	57.8573	5463.87	43.0518	5463.87	59.1004
5657.23	88.7877	5657.23	88.7131	5657.23	88.6946	5657.23	88.5976	5657.23	88.1177	5657.23	87.269	5657.23	87.5268	5657.23	85.1656	5657.23	82.6453	5657.23	82.5117	5657.23	84.8162	5657.23	80.4503	5657.23	82.8241	5657.23	77.0745	5657.23	76.4902	5657.23	75.327	5657.23	71.9602	5657.23	72.6775	5657.23	69.7319	5657.23	68.9341	5657.23	71.5046	5657.23	68.0977	5657.23	69.3465	5657.23	65.2297	5657.23	67.0853	5657.23	65.3644	5657.23	63.6518	5657.23	62.869	5657.23	64.5548	5657.23	64.4297	5657.23	62.3031	5657.23	58.9343	5657.23	62.5081	5657.23	56.2199	5657.23	55.2177	5657.23	60.6915
5856.45	89.0103	5856.45	88.544	5856.45	88.4716	5856.45	88.1408	5856.45	88.7205	5856.45	86.9675	5856.45	87.3146	5856.45	84.9618	5856.45	82.9435	5856.45	82.9818	5856.45	85.8168	5856.45	80.5832	5856.45	82.4118	5856.45	78.5208	5856.45	77.4705	5856.45	74.9989	5856.45	74.0514	5856.45	72.1134	5856.45	72.3284	5856.45	70.1012	5856.45	71.5913	5856.45	67.8828	5856.45	69.6949	5856.45	65.4781	5856.45	67.0092	5856.45	64.0945	5856.45	62.6365	5856.45	63.7901	5856.45	63.739	5856.45	64.2087	5856.45	63.9048	5856.45	58.6677	5856.45	61.3117	5856.45	38.6432	5856.45	48.9357	5856.45	54.7513
6062.99	88.6472	6062.99	88.162	6062.99	88.7061	6062.99	88.1475	6062.99	88.4681	6062.99	87.1841	6062.99	87.3937	6062.99	85.1085	6062.99	84.349	6062.99	83.0296	6062.99	86.0614	6062.99	80.8105	6062.99	80.6194	6062.99	77.2949	6062.99	77.103	6062.99	74.8045	6062.99	75.2787	6062.99	72.9783	6062.99	73.2779	6062.99	69.2344	6062.99	71.6614	6062.99	66.6176	6062.99	68.4499	6062.99	62.9115	6062.99	65.2425	6062.99	63.7573	6062.99	62.349	6062.99	62.7579	6062.99	59.622	6062.99	63.3372	6062.99	65.7961	6062.99	53.0253	6062.99	57.599	6062.99	55.5493	6062.99	46.2514	6062.99	40.9341
6276.86	88.3022	6276.86	88.2452	6276.86	88.266	6276.86	88.4053	6276.86	88.1086	6276.86	87.2784	6276.86	87.1453	6276.86	85.3335	6276.86	85.6163	6276.86	83.1875	6276.86	85.7251	6276.86	79.8535	6276.86	80.6029	6276.86	77.4481	6276.86	77.643	6276.86	74.1663	6276.86	75.0779	6276.86	70.8409	6276.86	73.0377	6276.86	69.2392	6276.86	68.2524	6276.86	66.9486	6276.86	63.0776	6276.86	63.6879	6276.86	60.1948	6276.86	64.0478	6276.86	61.0032	6276.86	61.4257	6276.86	62.554	6276.86	62.2523	6276.86	59.2373	6276.86	57.6107	6276.86	61.796	6276.86	58.4802	6276.86	52.6172	6276.86	55.8862
6498.05	87.9344	6498.05	88.3763	6498.05	87.9328	6498.05	88.4476	6498.05	88.0092	6498.05	87.3347	6498.05	87.1907	6498.05	85.5622	6498.05	86.7243	6498.05	83.392	6498.05	85.3931	6498.05	80.3691	6498.05	80.6478	6498.05	77.4377	6498.05	78.1468	6498.05	73.9848	6498.05	74.4138	6498.05	71.948	6498.05	71.3899	6498.05	68.9882	6498.05	67.2369	6498.05	66.8472	6498.05	67.0734	6498.05	64.9452	6498.05	64.2678	6498.05	63.1578	6498.05	64.5677	6498.05	60.9285	6498.05	62.764	6498.05	63.7382	6498.05	65.7568	6498.05	48.5459	6498.05	58.1298	6498.05	49.5133	6498.05	54.1254	6498.05	58.685
6726.56	87.9301	6726.56	88.408	6726.56	88.2913	6726.56	88.45	6726.56	87.9886	6726.56	87.205	6726.56	87.3409	6726.56	85.8152	6726.56	87.2583	6726.56	83.5152	6726.56	85.017	6726.56	80.618	6726.56	80.9562	6726.56	78.1295	6726.56	78.2144	6726.56	75.239	6726.56	73.9242	6726.56	72.177	6726.56	72.4016	6726.56	69.5799	6726.56	70.1632	6726.56	67.1389	6726.56	67.9796	6726.56	63.6185	6726.56	64.9621	6726.56	63.8279	6726.56	61.9777	6726.56	60.7881	6726.56	64.7425	6726.56	62.5677	6726.56	62.213	6726.56	56.8882	6726.56	62.6414	6726.56	47.7957	6726.56	55.6682	6726.56	39.0743
6963.87	88.1004	6963.87	88.3297	6963.87	88.6321	6963.87	88.4441	6963.87	88.4687	6963.87	87.4262	6963.87	87.7301	6963.87	85.7842	6963.87	87.6901	6963.87	83.4853	6963.87	85.1542	6963.87	80.7766	6963.87	81.1254	6963.87	77.4286	6963.87	77.5177	6963.87	74.8488	6963.87	72.021	6963.87	71.4212	6963.87	72.2969	6963.87	68.3615	6963.87	71.4436	6963.87	66.0597	6963.87	69.168	6963.87	62.9584	6963.87	67.8097	6963.87	63.8779	6963.87	67.7846	6963.87	60.9637	6963.87	65.3364	6963.87	61.5005	6963.87	62.2501	6963.87	59.9475	6963.87	62.0076	6963.87	50.45	6963.87	44.3683	6963.87	57.4954
7209.96	87.7045	7209.96	88.4246	7209.96	88.4889	7209.96	88.6273	7209.96	88.5835	7209.96	87.7314	7209.96	87.9597	7209.96	86.0063	7209.96	87.6555	7209.96	83.5937	7209.96	85.12	7209.96	80.5969	7209.96	80.6495	7209.96	77.5859	7209.96	76.6091	7209.96	74.3005	7209.96	73.9364	7209.96	71.4062	7209.96	74.3996	7209.96	69.7905	7209.96	72.2225	7209.96	66.2425	7209.96	70.2603	7209.96	63.4005	7209.96	67.4033	7209.96	64.5092	7209.96	68.0201	7209.96	60.9826	7209.96	64.1957	7209.96	59.9346	7209.96	54.0281	7209.96	60.4008	7209.96	59.8556	7209.96	34.5981	7209.96	58.0701	7209.96	51.7452
7464.84	87.6642	7464.84	88.5096	7464.84	88.2022	7464.84	88.8302	7464.84	88.5044	7464.84	87.7835	7464.84	88.2334	7464.84	86.301	7464.84	87.6438	7464.84	83.8717	7464.84	84.6075	7464.84	81.0723	7464.84	80.7666	7464.84	77.7821	7464.84	75.5242	7464.84	74.6299	7464.84	75.2714	7464.84	71.136	7464.84	74.0913	7464.84	68.3666	7464.84	71.4099	7464.84	65.7874	7464.84	67.3578	7464.84	62.3639	7464.84	61.8403	7464.84	63.9611	7464.84	65.2051	7464.84	61.2178	7464.84	61.4395	7464.84	60.4069	7464.84	60.4281	7464.84	55.5376	7464.84	61.4098	7464.84	53.1289	7464.84	54.9543	7464.84	49.7102
7727.05	87.6082	7727.05	88.3934	7727.05	88.2491	7727.05	88.7313	7727.05	88.4193	7727.05	88.1149	7727.05	88.5615	7727.05	86.4055	7727.05	87.5709	7727.05	83.8557	7727.05	84.5713	7727.05	80.9613	7727.05	80.245	7727.05	77.429	7727.05	76.0133	7727.05	74.3616	7727.05	76.8875	7727.05	70.8875	7727.05	74.4808	7727.05	68.2542	7727.05	68.5562	7727.05	65.0024	7727.05	63.2641	7727.05	63.5311	7727.05	59.9686	7727.05	62.8662	7727.05	59.6519	7727.05	61.5178	7727.05	61.1721	7727.05	59.812	7727.05	60.3419	7727.05	57.5694	7727.05	56.2056	7727.05	52.5077	7727.05	52.2339	7727.05	53.431
7999.51	87.0396	7999.51	88.0919	7999.51	88.1909	7999.51	88.5558	7999.51	88.5814	7999.51	88.1623	7999.51	88.7822	7999.51	86.2769	7999.51	87.4562	7999.51	83.6792	7999.51	84.4211	7999.51	80.2585	7999.51	80.0244	7999.51	77.4009	7999.51	77.4543	7999.51	73.4864	7999.51	77.613	7999.51	71.586	7999.51	73.5892	7999.51	68.544	7999.51	66.3782	7999.51	66.0331	7999.51	60.8795	7999.51	63.1651	7999.51	60.965	7999.51	63.4606	7999.51	59.9376	7999.51	61.5386	7999.51	59.9813	7999.51	60.6175	7999.51	57.1901	7999.51	59.8859	7999.51	61.5752	7999.51	57.8735	7999.51	34.0115	7999.51	43.9558
8282.23	87.17	8282.23	87.9835	8282.23	88.0404	8282.23	88.3542	8282.23	88.5206	8282.23	88.0075	8282.23	88.6969	8282.23	86.3282	8282.23	87.2177	8282.23	83.7549	8282.23	84.154	8282.23	80.513	8282.23	79.1588	8282.23	77.6386	8282.23	78.8185	8282.23	74.5206	8282.23	77.865	8282.23	71.1425	8282.23	70.2033	8282.23	68.2109	8282.23	64.9403	8282.23	65.4119	8282.23	66.3814	8282.23	63.4388	8282.23	65.4097	8282.23	63.186	8282.23	64.5175	8282.23	60.6412	8282.23	54.556	8282.23	58.5302	8282.23	62.0178	8282.23	59.0854	8282.23	60.9292	8282.23	57.6407	8282.23	55.7129	8282.23	52.6195
8573.73	87.3535	8573.73	87.8824	8573.73	87.903	8573.73	88.466	8573.73	88.4031	8573.73	88.0037	8573.73	88.7102	8573.73	86.4454	8573.73	87.2201	8573.73	83.685	8573.73	83.9474	8573.73	80.5204	8573.73	78.3326	8573.73	77.5799	8573.73	79.5742	8573.73	74.5207	8573.73	76.6004	8573.73	71.002	8573.73	67.3451	8573.73	68.2799	8573.73	67.5343	8573.73	65.1725	8573.73	67.5119	8573.73	64.0753	8573.73	66.3317	8573.73	62.1866	8573.73	65.6836	8573.73	60.083	8573.73	54.3268	8573.73	59.9821	8573.73	60.8079	8573.73	58.8482	8573.73	57.1834	8573.73	58.6941	8573.73	57.5871	8573.73	56.6228
8876.95	87.064	8876.95	87.3854	8876.95	87.5043	8876.95	88.0825	8876.95	88.0134	8876.95	87.6754	8876.95	88.4429	8876.95	86.1071	8876.95	86.4698	8876.95	83.3682	8876.95	83.0104	8876.95	79.8348	8876.95	78.9787	8876.95	77.0543	8876.95	79.8279	8876.95	73.6907	8876.95	73.5721	8876.95	71.1941	8876.95	67.912	8876.95	68.1823	8876.95	69.7796	8876.95	65.0609	8876.95	67.8282	8876.95	63.7931	8876.95	65.8373	8876.95	60.9821	8876.95	65.4589	8876.95	59.208	8876.95	60.3596	8876.95	58.0882	8876.95	57.6244	8876.95	59.7106	8876.95	59.6164	8876.95	59.9343	8876.95	49.432	8876.95	53.0721
9188.96	86.1174	9188.96	86.4726	9188.96	86.3301	9188.96	87.1069	9188.96	87.2511	9188.96	86.4641	9188.96	87.1563	9188.96	84.9013	9188.96	85.6316	9188.96	82.122	9188.96	81.6607	9188.96	79.1847	9188.96	79.917	9188.96	76.5038	9188.96	78.988	9188.96	72.845	9188.96	70.4188	9188.96	69.8264	9188.96	69.7791	9188.96	66.5832	9188.96	69.6208	9188.96	64.8889	9188.96	65.8969	9188.96	63.4583	9188.96	62.9868	9188.96	59.6329	9188.96	61.9519	9188.96	58.3006	9188.96	60.1118	9188.96	56.4738	9188.96	58.2162	9188.96	54.7245	9188.96	58.5735	9188.96	61.2978	9188.96	45.6939	9188.96	43.1205
9514.16	85.6784	9514.16	86.0437	9514.16	86.3496	9514.16	86.6693	9514.16	86.536	9514.16	85.8048	9514.16	86.3056	9514.16	84.1502	9514.16	85.3674	9514.16	81.5989	9514.16	80.6626	9514.16	78.1524	9514.16	80.6373	9514.16	74.6525	9514.16	76.7145	9514.16	71.1479	9514.16	70.7169	9514.16	67.6912	9514.16	70.4906	9514.16	64.6061	9514.16	68.0003	9514.16	61.9743	9514.16	63.1579	9514.16	61.359	9514.16	59.6336	9514.16	57.3461	9514.16	59.3162	9514.16	56.4369	9514.16	60.0936	9514.16	54.1626	9514.16	54.2422	9514.16	57.3226	9514.16	53.3976	9514.16	56.5974	9514.16	52.1583	9514.16	47.8142
9849.61	85.7042	9849.61	85.792	9849.61	86.1798	9849.61	86.2833	9849.61	86.014	9849.61	85.8429	9849.61	86.0685	9849.61	83.6719	9849.61	84.9423	9849.61	81.1751	9849.61	79.4586	9849.61	77.4612	9849.61	80.8446	9849.61	73.7498	9849.61	74.171	9849.61	70.6822	9849.61	70.577	9849.61	66.9279	9849.61	69.7642	9849.61	63.912	9849.61	64.9415	9849.61	62.5419	9849.61	60.5491	9849.61	61.4384	9849.61	60.5644	9849.61	57.1155	9849.61	57.4873	9849.61	54.9767	9849.61	58.6242	9849.61	53.4012	9849.61	46.9028	9849.61	55.7458	9849.61	55.1599	9849.61	57.0229	9849.61	51.8483	9849.61	39.2035
10196.8	85.6462	10196.8	85.1288	10196.8	85.6925	10196.8	85.7654	10196.8	85.7966	10196.8	85.2966	10196.8	85.3959	10196.8	83.0138	10196.8	84.5108	10196.8	80.5548	10196.8	79.059	10196.8	76.9911	10196.8	79.9462	10196.8	73.0234	10196.8	72.5325	10196.8	69.8895	10196.8	70.6287	10196.8	66.5524	10196.8	67.7606	10196.8	63.1905	10196.8	62.7456	10196.8	61.9239	10196.8	62.8919	10196.8	60.2085	10196.8	60.0048	10196.8	56.9903	10196.8	56.347	10196.8	53.1775	10196.8	54.299	10196.8	54.2609	10196.8	49.3486	10196.8	56.2743	10196.8	48.085	10196.8	57.3137	10196.8	53.3602	10196.8	47.349
10555.7	84.9836	10555.7	84.7452	10555.7	84.8419	10555.7	84.8756	10555.7	85.1065	10555.7	83.9948	10555.7	84.5026	10555.7	81.8766	10555.7	83.2256	10555.7	79.1256	10555.7	79.0278	10555.7	75.406	10555.7	77.6243	10555.7	71.7997	10555.7	71.7233	10555.7	68.8054	10555.7	69.5486	10555.7	66.0875	10555.7	65.3577	10555.7	62.883	10555.7	64.3021	10555.7	60.5954	10555.7	62.3654	10555.7	57.8638	10555.7	58.7429	10555.7	54.4418	10555.7	54.0604	10555.7	49.3646	10555.7	39.3504	10555.7	53.0934	10555.7	51.8544	10555.7	53.0738	10555.7	48.5383	10555.7	56.901	10555.7	47.1845	10555.7	40.6889
10927.7	86.232	10927.7	85.9394	10927.7	86.0842	10927.7	86.1719	10927.7	86.1269	10927.7	85.46	10927.7	86.0088	10927.7	83.1834	10927.7	83.4205	10927.7	80.2635	10927.7	81.4119	10927.7	76.6889	10927.7	77.5311	10927.7	73.2858	10927.7	73.6156	10927.7	70.1706	10927.7	70.7306	10927.7	66.7888	10927.7	66.9742	10927.7	63.8675	10927.7	66.2763	10927.7	61.4969	10927.7	61.6494	10927.7	58.4229	10927.7	58.2692	10927.7	56.2738	10927.7	56.7249	10927.7	50.2966	10927.7	50.9832	10927.7	53.1441	10927.7	53.8851	10927.7	49.5887	10927.7	42.8525	10927.7	54.8353	10927.7	50.5039	10927.7	27.6325
11313	87.3604	11313	87.5349	11313	87.5689	11313	87.7586	11313	87.7238	11313	86.7964	11313	87.3559	11313	84.6509	11313	83.7979	11313	81.4833	11313	83.4934	11313	78.2873	11313	77.4365	11313	74.8831	11313	75.0256	11313	70.9676	11313	71.7258	11313	68.2386	11313	69.275	11313	64.6668	11313	65.6922	11313	62.6726	11313	58.6653	11313	59.0046	11313	59.0299	11313	56.5493	11313	59.2154	11313	52.363	11313	58.1149	11313	52.9148	11313	50.8724	11313	50.3645	11313	45.416	11313	52.6185	11313	50.9697	11313	52.91
11712.9	88.2209	11712.9	88.2312	11712.9	88.2805	11712.9	88.1518	11712.9	88.1454	11712.9	87.1619	11712.9	88.1114	11712.9	84.9632	11712.9	84.0254	11712.9	82.1196	11712.9	83.8297	11712.9	78.1708	11712.9	78.0423	11712.9	74.7011	11712.9	74.2653	11712.9	70.3467	11712.9	71.3015	11712.9	66.9748	11712.9	67.0958	11712.9	63.0173	11712.9	61.7634	11712.9	62.0651	11712.9	60.9075	11712.9	58.7256	11712.9	61.0435	11712.9	55.5527	11712.9	56.7297	11712.9	52.6226	11712.9	58.34	11712.9	52.6333	11712.9	52.6404	11712.9	54.082	11712.9	32.9082	11712.9	56.5079	11712.9	52.9082	11712.9	44.7893
12126	87.848	12126	87.7864	12126	88.0599	12126	87.8711	12126	87.653	12126	87.338	12126	87.8838	12126	84.8735	12126	83.881	12126	81.7377	12126	83.6047	12126	77.8274	12126	78.629	12126	73.4761	12126	72.5904	12126	69.4782	12126	71.7956	12126	66.4361	12126	67.0111	12126	62.484	12126	62.2297	12126	61.4129	12126	62.7626	12126	57.1396	12126	61.3621	12126	53.4661	12126	56.8518	12126	50.5315	12126	55.7158	12126	52.9683	12126	49.648	12126	51.9083	12126	46.2366	12126	50.2947	12126	33.8521	12126	53.4841
12553.7	88.2847	12553.7	87.9208	12553.7	88.2343	12553.7	88.0615	12553.7	87.8196	12553.7	87.3294	12553.7	87.8293	12553.7	84.714	12553.7	84.2836	12553.7	81.6878	12553.7	82.8998	12553.7	77.5637	12553.7	78.5349	12553.7	73.2462	12553.7	72.4122	12553.7	69.4796	12553.7	71.9158	12553.7	66.4161	12553.7	65.4974	12553.7	62.6569	12553.7	63.5277	12553.7	61.2758	12553.7	62.2945	12553.7	57.1401	12553.7	58.7106	12553.7	53.7076	12553.7	55.5439	12553.7	51.8386	12553.7	41.0638	12553.7	53.1586	12553.7	52.6319	12553.7	47.3069	12553.7	49.6624	12553.7	35.5586	12553.7	50.6388	12553.7	44.9907
12996.1	88.2828	12996.1	88.2118	12996.1	88.3516	12996.1	88.2412	12996.1	87.8581	12996.1	87.1718	12996.1	87.7992	12996.1	84.6206	12996.1	84.8621	12996.1	81.5843	12996.1	81.8278	12996.1	77.4287	12996.1	77.6182	12996.1	73.4493	12996.1	75.4169	12996.1	69.6446	12996.1	69.1082	12996.1	65.8833	12996.1	65.1323	12996.1	62.7352	12996.1	63.2807	12996.1	61.0962	12996.1	61.6128	12996.1	55.5715	12996.1	58.0802	12996.1	51.8814	12996.1	52.1825	12996.1	50.5862	12996.1	49.299	12996.1	49.0269	12996.1	53.7408	12996.1	47.4295	12996.1	52.7918	12996.1	34.6416	12996.1	44.0555	12996.1	52.1816
13454.6	88.6834	13454.6	88.7291	13454.6	88.6649	13454.6	88.6374	13454.6	88.5261	13454.6	87.441	13454.6	87.4697	13454.6	84.7692	13454.6	85.6306	13454.6	81.5769	13454.6	82.0349	13454.6	77.0102	13454.6	74.9005	13454.6	73.3399	13454.6	76.0237	13454.6	69.1088	13454.6	66.3734	13454.6	65.6239	13454.6	65.4205	13454.6	62.9186	13454.6	64.0405	13454.6	60.04	13454.6	58.5082	13454.6	54.6091	13454.6	55.198	13454.6	49.8506	13454.6	48.2768	13454.6	46.5155	13454.6	53.1262	13454.6	45.9337	13454.6	54.4678	13454.6	47.3605	13454.6	45.0794	13454.6	47.4781	13454.6	41.3524	13454.6	50.1222
13929.2	89.2712	13929.2	89.3353	13929.2	89.2534	13929.2	89.0963	13929.2	88.5752	13929.2	88.1617	13929.2	87.5865	13929.2	85.2142	13929.2	85.8591	13929.2	81.9514	13929.2	82.5345	13929.2	78.0554	13929.2	75.8762	13929.2	73.5181	13929.2	74.2767	13929.2	69.5791	13929.2	69.472	13929.2	66.5172	13929.2	66.8965	13929.2	62.2539	13929.2	61.0788	13929.2	59.7393	13929.2	58.9222	13929.2	54.5741	13929.2	58.5952	13929.2	47.6603	13929.2	52.8894	13929.2	44.9859	13929.2	48.4453	13929.2	32.4757	13929.2	51.1331	13929.2	49.1674	13929.2	45.4583	13929.2	42.9736	13929.2	37.0349	13929.2	44.2459
14419.9	89.8361	14419.9	89.5385	14419.9	90.1694	14419.9	88.9388	14419.9	89.8375	14419.9	87.7706	14419.9	88.3663	14419.9	84.7997	14419.9	86.7496	14419.9	81.9649	14419.9	83.373	14419.9	77.6022	14419.9	79.3372	14419.9	73.0659	14419.9	71.7336	14419.9	69.5771	14419.9	70.4563	14419.9	65.4801	14419.9	66.2152	14419.9	61.335	14419.9	61.6319	14419.9	59.6579	14419.9	61.8988	14419.9	55.3292	14419.9	59.4688	14419.9	49.1497	14419.9	53.9874	14419.9	49.6397	14419.9	51.711	14419.9	47.7626	14419.9	47.7816	14419.9	52.1224	14419.9	50.9615	14419.9	53.2662	14419.9	48.4937	14419.9	42.8516
14928.2	90.7428	14928.2	90.3009	14928.2	91.1485	14928.2	89.3175	14928.2	91.0033	14928.2	87.3787	14928.2	90.2929	14928.2	84.0803	14928.2	87.9244	14928.2	80.5546	14928.2	82.8466	14928.2	75.8106	14928.2	81.6546	14928.2	71.4376	14928.2	74.0815	14928.2	67.6046	14928.2	69.8128	14928.2	62.7413	14928.2	68.0105	14928.2	61.2704	14928.2	63.302	14928.2	57.6579	14928.2	62.0543	14928.2	52.2355	14928.2	58.0508	14928.2	47.4881	14928.2	52.0565	14928.2	50.8512	14928.2	56.1369	14928.2	47.3931	14928.2	51.1995	14928.2	49.1213	14928.2	46.3941	14928.2	46.4372	14928.2	48.1249	14928.2	49.5907
15455.6	90.8451	15455.6	90.5158	15455.6	90.8508	15455.6	89.3375	15455.6	90.7753	15455.6	87.5871	15455.6	90.4697	15455.6	84.029	15455.6	87.6907	15455.6	80.5204	15455.6	80.5779	15455.6	76.1047	15455.6	80.3173	15455.6	71.0472	15455.6	74.7461	15455.6	67.3458	15455.6	69.1484	15455.6	62.4896	15455.6	67.2204	15455.6	61.7172	15455.6	62.6767	15455.6	56.536	15455.6	60.2128	15455.6	50.3417	15455.6	56.2338	15455.6	45.6594	15455.6	44.9516	15455.6	49.6011	15455.6	51.0913	15455.6	46.0245	15455.6	50.0348	15455.6	50.4293	15455.6	51.201	15455.6	53.6235	15455.6	54.6799	15455.6	50.3619
16000.5	90.2431	16000.5	89.8699	16000.5	90.5033	16000.5	88.6089	16000.5	90.9553	16000.5	85.9719	16000.5	90.3746	16000.5	81.9888	16000.5	88.0745	16000.5	78.3693	16000.5	80.717	16000.5	74.17	16000.5	78.9445	16000.5	69.3085	16000.5	73.8649	16000.5	65.974	16000.5	71.9135	16000.5	61.0004	16000.5	64.5498	16000.5	58.6192	16000.5	62.6211	16000.5	52.6063	16000.5	60.6734	16000.5	51.1138	16000.5	58.4963	16000.5	47.8513	16000.5	55.0949	16000.5	47.692	16000.5	52.5037	16000.5	47.0621	16000.5	55.4272	16000.5	38.5224	16000.5	51.5582	16000.5	51.5845	16000.5	54.1713	16000.5	41.4504
16564.5	90.4888	16564.5	90.5259	16564.5	90.4601	16564.5	89.9232	16564.5	90.5016	16564.5	87.7114	16564.5	89.519	16564.5	83.8179	16564.5	87.1861	16564.5	80.3295	16564.5	82.3745	16564.5	75.6123	16564.5	77.1891	16564.5	70.2258	16564.5	70.684	16564.5	67.9998	16564.5	70.6808	16564.5	61.8093	16564.5	64.7153	16564.5	60.4644	16564.5	62.4522	16564.5	57.9286	16564.5	60.1428	16564.5	56.9218	16564.5	56.883	16564.5	54.4759	16564.5	54.1936	16564.5	54.3895	16564.5	58.2544	16564.5	54.6605	16564.5	55.3395	16564.5	46.6623	16564.5	50.586	16564.5	55.2705	16564.5	40.914	16564.5	42.8642
17148.9	89.9075	17148.9	90.2606	17148.9	90.0837	17148.9	89.9045	17148.9	89.8445	17148.9	87.7301	17148.9	88.7563	17148.9	83.7243	17148.9	84.8942	17148.9	80.4038	17148.9	82.0273	17148.9	75.9111	17148.9	76.1918	17148.9	70.1491	17148.9	71.2249	17148.9	67.9879	17148.9	64.5774	17148.9	61.3911	17148.9	66.2035	17148.9	62.4238	17148.9	58.4013	17148.9	58.8497	17148.9	58.5519	17148.9	58.1809	17148.9	54.2282	17148.9	56.3152	17148.9	51.7491	17148.9	56.7561	17148.9	58.0066	17148.9	57.4895	17148.9	52.1884	17148.9	54.8275	17148.9	52.1775	17148.9	52.9394	17148.9	46.94	17148.9	40.4505
17752.4	89.7913	17752.4	91.0842	17752.4	89.1631	17752.4	91.8455	17752.4	88.0279	17752.4	90.2122	17752.4	85.6548	17752.4	86.611	17752.4	80.8023	17752.4	83.6922	17752.4	78.6212	17752.4	79.6144	17752.4	71.5956	17752.4	74.1786	17752.4	67.8071	17752.4	70.4445	17752.4	60.5234	17752.4	65.9797	17752.4	61.8937	17752.4	65.9657	17752.4	51.2049	17752.4	61.9288	17752.4	55.4573	17752.4	60.3036	17752.4	50.9917	17752.4	58.0737	17752.4	53.464	17752.4	60.0516	17752.4	55.6728	17752.4	61.7047	17752.4	55.1606	17752.4	60.3619	17752.4	57.0802	17752.4	56.5947	17752.4	61.5472	17752.4	58.9995
18379.4	91.7438	18379.4	92.9934	18379.4	88.3165	18379.4	95.513	18379.4	86.8405	18379.4	94.3698	18379.4	81.6957	18379.4	90.8038	18379.4	79.4168	18379.4	87.8852	18379.4	79.8472	18379.4	83.6416	18379.4	75.1881	18379.4	78.3655	18379.4	71.9815	18379.4	73.1134	18379.4	66.955	18379.4	70.1505	18379.4	60.9459	18379.4	70.1801	18379.4	59.3982	18379.4	64.5421	18379.4	49.8359	18379.4	62.924	18379.4	54.9915	18379.4	62.3017	18379.4	55.6027	18379.4	67.7151	18379.4	58.7539	18379.4	70.1477	18379.4	63.2233	18379.4	72.0202	18379.4	66.2496	18379.4	71.7985	18379.4	70.3447	18379.4	70.0513
19026.9	94.582	19026.9	94.0216	19026.9	92.3133	19026.9	96.2699	19026.9	94.868	19026.9	94.561	19026.9	93.3601	19026.9	90.6321	19026.9	88.7324	19026.9	87.4667	19026.9	87.1895	19026.9	82.8303	19026.9	82.701	19026.9	77.4462	19026.9	78.6171	19026.9	71.474	19026.9	70.1937	19026.9	71.3719	19026.9	70.4533	19026.9	69.0439	19026.9	63.7818	19026.9	61.2086	19026.9	51.7857	19026.9	61.8042	19026.9	58.2661	19026.9	63.9881	19026.9	58.648	19026.9	70.4186	19026.9	54.8919	19026.9	73.7249	19026.9	66.0348	19026.9	76.0232	19026.9	69.5652	19026.9	75.6287	19026.9	73.4325	19026.9	73.6934
19697.8	94.8103	19697.8	91.7601	19697.8	92.5121	19697.8	93.5402	19697.8	96.9412	19697.8	91.1792	19697.8	96.0305	19697.8	86.6327	19697.8	91.6845	19697.8	83.0089	19697.8	88.0293	19697.8	78.1267	19697.8	84.757	19697.8	73.903	19697.8	80.8767	19697.8	66.0443	19697.8	72.7074	19697.8	69.4431	19697.8	71.4921	19697.8	63.2335	19697.8	59.5526	19697.8	52.3995	19697.8	55.7242	19697.8	58.6299	19697.8	57.7173	19697.8	64.644	19697.8	57.2683	19697.8	71.582	19697.8	52.7521	19697.8	74.1183	19697.8	67.7862	19697.8	76.7148	19697.8	71.5743	19697.8	77.6373	19697.8	75.3373	19697.8	75.6542
19999.5	95.9142	19999.5	92.2783	19999.5	93.5056	19999.5	93.0917	19999.5	97.5075	19999.5	90.2573	19999.5	95.7067	19999.5	85.4136	19999.5	91.7346	19999.5	82.1226	19999.5	87.276	19999.5	76.6701	19999.5	84.5743	19999.5	73.4681	19999.5	80.8557	19999.5	64.2021	19999.5	73.5765	19999.5	69.4942	19999.5	70.3188	19999.5	60.3909	19999.5	58.864	19999.5	50.0421	19999.5	57.776	19999.5	58.9318	19999.5	60.2541	19999.5	65.9071	19999.5	60.7057	19999.5	72.35	19999.5	46.6451	19999.5	74.4862	19999.5	68.8916	19999.5	76.9514	19999.5	72.3383	19999.5	78.5219	19999.5	76.0508	19999.5	76.6492
