"SPL Vertical"
"On-Axis"		"10°"		"-10°"		"20°"		"-20°"		"30°"		"-30°"		"40°"		"-40°"		"50°"		"-50°"		"60°"		"-60°"		"70°"		"-70°"		"80°"		"-80°"		"90°"		"-90°"		"100°"		"-100°"		"110°"		"-110°"		"120°"		"-120°"		"130°"		"-130°"		"140°"		"-140°"		"150°"		"-150°"		"160°"		"-160°"		"170°"		"-170°"		"180°"
"Frequency [Hz]"	"Sound Pessure Level [dB]   [2.83V at 1m]"	"Frequency [Hz]"	"Sound Pessure Level [dB]   [2.83V at 1m]"	"Frequency [Hz]"	"Sound Pessure Level [dB]   [2.83V at 1m]"	"Frequency [Hz]"	"Sound Pessure Level [dB]   [2.83V at 1m]"	"Frequency [Hz]"	"Sound Pessure Level [dB]   [2.83V at 1m]"	"Frequency [Hz]"	"Sound Pessure Level [dB]   [2.83V at 1m]"	"Frequency [Hz]"	"Sound Pessure Level [dB]   [2.83V at 1m]"	"Frequency [Hz]"	"Sound Pessure Level [dB]   [2.83V at 1m]"	"Frequency [Hz]"	"Sound Pessure Level [dB]   [2.83V at 1m]"	"Frequency [Hz]"	"Sound Pessure Level [dB]   [2.83V at 1m]"	"Frequency [Hz]"	"Sound Pessure Level [dB]   [2.83V at 1m]"	"Frequency [Hz]"	"Sound Pessure Level [dB]   [2.83V at 1m]"	"Frequency [Hz]"	"Sound Pessure Level [dB]   [2.83V at 1m]"	"Frequency [Hz]"	"Sound Pessure Level [dB]   [2.83V at 1m]"	"Frequency [Hz]"	"Sound Pessure Level [dB]   [2.83V at 1m]"	"Frequency [Hz]"	"Sound Pessure Level [dB]   [2.83V at 1m]"	"Frequency [Hz]"	"Sound Pessure Level [dB]   [2.83V at 1m]"	"Frequency [Hz]"	"Sound Pessure Level [dB]   [2.83V at 1m]"	"Frequency [Hz]"	"Sound Pessure Level [dB]   [2.83V at 1m]"	"Frequency [Hz]"	"Sound Pessure Level [dB]   [2.83V at 1m]"	"Frequency [Hz]"	"Sound Pessure Level [dB]   [2.83V at 1m]"	"Frequency [Hz]"	"Sound Pessure Level [dB]   [2.83V at 1m]"	"Frequency [Hz]"	"Sound Pessure Level [dB]   [2.83V at 1m]"	"Frequency [Hz]"	"Sound Pessure Level [dB]   [2.83V at 1m]"	"Frequency [Hz]"	"Sound Pessure Level [dB]   [2.83V at 1m]"	"Frequency [Hz]"	"Sound Pessure Level [dB]   [2.83V at 1m]"	"Frequency [Hz]"	"Sound Pessure Level [dB]   [2.83V at 1m]"	"Frequency [Hz]"	"Sound Pessure Level [dB]   [2.83V at 1m]"	"Frequency [Hz]"	"Sound Pessure Level [dB]   [2.83V at 1m]"	"Frequency [Hz]"	"Sound Pessure Level [dB]   [2.83V at 1m]"	"Frequency [Hz]"	"Sound Pessure Level [dB]   [2.83V at 1m]"	"Frequency [Hz]"	"Sound Pessure Level [dB]   [2.83V at 1m]"	"Frequency [Hz]"	"Sound Pessure Level [dB]   [2.83V at 1m]"	"Frequency [Hz]"	"Sound Pessure Level [dB]   [2.83V at 1m]"	"Frequency [Hz]"	"Sound Pessure Level [dB]   [2.83V at 1m]"	"Frequency [Hz]"	"Sound Pessure Level [dB]   [2.83V at 1m]"
20.5078	68.6251	20.5078	68.6227	20.5078	68.7058	20.5078	68.7077	20.5078	68.8656	20.5078	68.8925	20.5078	69.1246	20.5078	69.1883	20.5078	69.5352	20.5078	69.6012	20.5078	70.1912	20.5078	70.1305	20.5078	71.2138	20.5078	70.769	20.5078	72.6833	20.5078	71.5045	20.5078	74.5528	20.5078	72.322	20.5078	76.6396	20.5078	73.2063	20.5078	78.704	20.5078	74.1429	20.5078	80.5219	20.5078	75.119	20.5078	81.9228	20.5078	76.1228	20.5078	82.8126	20.5078	77.1434	20.5078	83.1839	20.5078	78.1695	20.5078	83.0992	20.5078	79.1879	20.5078	82.6593	20.5078	80.1811	20.5078	81.9704	20.5078	81.1226
21.9727	71.3284	21.9727	71.2715	21.9727	71.456	21.9727	71.2884	21.9727	71.6611	21.9727	71.3866	21.9727	71.9673	21.9727	71.5748	21.9727	72.423	21.9727	71.8599	21.9727	73.1034	21.9727	72.2452	21.9727	74.0933	21.9727	72.7297	21.9727	75.4374	21.9727	73.3082	21.9727	77.0866	21.9727	73.9724	21.9727	78.8946	21.9727	74.7125	21.9727	80.6668	21.9727	75.5178	21.9727	82.2125	21.9727	76.3778	21.9727	83.3794	21.9727	77.2823	21.9727	84.0801	21.9727	78.2211	21.9727	84.307	21.9727	79.1831	21.9727	84.121	21.9727	80.1548	21.9727	83.6189	21.9727	81.1182	21.9727	82.9001	21.9727	82.0467
23.4375	73.8727	23.4375	73.7788	23.4375	73.9844	23.4375	73.7089	23.4375	74.1127	23.4375	73.6724	23.4375	74.2656	23.4375	73.6808	23.4375	74.4666	23.4375	73.7465	23.4375	74.7631	23.4375	73.8823	23.4375	75.2336	23.4375	74.1	23.4375	75.977	23.4375	74.4094	23.4375	77.0662	23.4375	74.8172	23.4375	78.4756	23.4375	75.3257	23.4375	80.051	23.4375	75.9325	23.4375	81.5584	23.4375	76.6305	23.4375	82.7729	23.4375	77.4083	23.4375	83.5525	23.4375	78.2512	23.4375	83.8644	23.4375	79.1412	23.4375	83.7595	23.4375	80.0576	23.4375	83.328	23.4375	80.975	23.4375	82.6664	23.4375	81.8602
24.9023	74.4111	24.9023	74.2347	24.9023	74.6193	24.9023	74.0966	24.9023	74.8589	24.9023	74.0072	24.9023	75.1382	24.9023	73.9797	24.9023	75.4802	24.9023	74.0284	24.9023	75.9295	24.9023	74.1675	24.9023	76.5577	24.9023	74.4088	24.9023	77.4497	24.9023	74.7597	24.9023	78.6521	24.9023	75.2223	24.9023	80.1058	24.9023	75.7926	24.9023	81.6367	24.9023	76.4616	24.9023	83.0266	24.9023	77.2167	24.9023	84.0949	24.9023	78.0437	24.9023	84.7392	24.9023	78.9274	24.9023	84.9397	24.9023	79.852	24.9023	84.7447	24.9023	80.8002	24.9023	84.241	24.9023	81.7504	24.9023	83.5232	24.9023	82.6725
26.3672	76.1653	26.3672	76.0108	26.3672	76.3533	26.3672	75.8924	26.3672	76.5772	26.3672	75.8152	26.3672	76.8462	26.3672	75.7865	26.3672	77.1799	26.3672	75.8146	26.3672	77.6114	26.3672	75.9079	26.3672	78.1877	26.3672	76.0747	26.3672	78.9571	26.3672	76.3218	26.3672	79.9404	26.3672	76.6541	26.3672	81.0947	26.3672	77.0742	26.3672	82.303	26.3672	77.5817	26.3672	83.4066	26.3672	78.1734	26.3672	84.2576	26.3672	78.843	26.3672	84.763	26.3672	79.5806	26.3672	84.9	26.3672	80.3727	26.3672	84.7059	26.3672	81.2007	26.3672	84.2512	26.3672	82.0397	26.3672	83.6126	26.3672	82.8575
27.832	77.7369	27.832	77.5514	27.832	77.965	27.832	77.4087	27.832	78.2384	27.832	77.3114	27.832	78.5641	27.832	77.2637	27.832	78.9545	27.832	77.2709	27.832	79.429	27.832	77.3389	27.832	80.0128	27.832	77.4741	27.832	80.7315	27.832	77.6821	27.832	81.5954	27.832	77.9679	27.832	82.578	27.832	78.335	27.832	83.6006	27.832	78.7852	27.832	84.5425	27.832	79.3177	27.832	85.278	27.832	79.9294	27.832	85.7162	27.832	80.6136	27.832	85.8231	27.832	81.3596	27.832	85.619	27.832	82.1514	27.832	85.1611	27.832	82.9659	27.832	84.5218	27.832	83.7708
29.2969	78.6913	29.2969	78.4857	29.2969	78.9459	29.2969	78.3291	29.2969	79.2519	29.2969	78.2223	29.2969	79.6131	29.2969	78.1676	29.2969	80.0363	29.2969	78.168	29.2969	80.5305	29.2969	78.2272	29.2969	81.107	29.2969	78.3491	29.2969	81.7764	29.2969	78.5374	29.2969	82.5414	29.2969	78.7956	29.2969	83.3837	29.2969	79.1265	29.2969	84.2489	29.2969	79.5319	29.2969	85.0447	29.2969	80.0121	29.2969	85.6637	29.2969	80.5655	29.2969	86.0211	29.2969	81.1875	29.2969	86.0816	29.2969	81.87	29.2969	85.8625	29.2969	82.5992	29.2969	85.4167	29.2969	83.3541	29.2969	84.8098	29.2969	84.1047
30.7617	79.9747	30.7617	79.7507	30.7617	80.2462	30.7617	79.5744	30.7617	80.5655	30.7617	79.4465	30.7617	80.9339	30.7617	79.3683	30.7617	81.3535	30.7617	79.3417	30.7617	81.8276	30.7617	79.3687	30.7617	82.3609	30.7617	79.452	30.7617	82.9584	30.7617	79.5945	30.7617	83.6208	30.7617	79.7991	30.7617	84.3349	30.7617	80.0688	30.7617	85.0602	30.7617	80.4064	30.7617	85.7222	30.7617	80.8138	30.7617	86.2282	30.7617	81.2917	30.7617	86.4997	30.7617	81.8387	30.7617	86.5017	30.7617	82.4496	30.7617	86.2499	30.7617	83.1138	30.7617	85.7945	30.7617	83.8135	30.7617	85.1982	30.7617	84.5212
32.2266	80.9071	32.2266	80.6806	32.2266	81.1785	32.2266	80.4993	32.2266	81.495	32.2266	80.3638	32.2266	81.8566	32.2266	80.275	32.2266	82.2638	32.2266	80.2342	32.2266	82.7171	32.2266	80.2431	32.2266	83.2171	32.2266	80.3037	32.2266	83.7641	32.2266	80.4185	32.2266	84.3557	32.2266	80.5902	32.2266	84.981	32.2266	80.8216	32.2266	85.6089	32.2266	81.1158	32.2266	86.1794	32.2266	81.4753	32.2266	86.6113	32.2266	81.9018	32.2266	86.8316	32.2266	82.3954	32.2266	86.8053	32.2266	82.9525	32.2266	86.5456	32.2266	83.5649	32.2266	86.0993	32.2266	84.2166	32.2266	85.5259	32.2266	84.8824
33.6914	81.7188	33.6914	81.4826	33.6914	82.0004	33.6914	81.2923	33.6914	82.3266	33.6914	81.1485	33.6914	82.6961	33.6914	81.0514	33.6914	83.107	33.6914	81.0017	33.6914	83.5568	33.6914	81.0004	33.6914	84.0424	33.6914	81.0486	33.6914	84.5603	33.6914	81.1479	33.6914	85.105	33.6914	81.3003	33.6914	85.6652	33.6914	81.5081	33.6914	86.2145	33.6914	81.7738	33.6914	86.7025	33.6914	82.0999	33.6914	87.0599	33.6914	82.4885	33.6914	87.2222	33.6914	82.9401	33.6914	87.158	33.6914	83.4528	33.6914	86.88	33.6914	84.0203	33.6914	86.4333	33.6914	84.6296	33.6914	85.8748	33.6914	85.2588
35.1562	82.5232	35.1562	82.2767	35.1562	82.8156	35.1562	82.0768	35.1562	83.1523	35.1562	81.9237	35.1562	83.531	35.1562	81.8178	35.1562	83.9482	35.1562	81.759	35.1562	84.3991	35.1562	81.7477	35.1562	84.8775	35.1562	81.7842	35.1562	85.3764	35.1562	81.8696	35.1562	85.8873	35.1562	82.0049	35.1562	86.3984	35.1562	82.1918	35.1562	86.8868	35.1562	82.4327	35.1562	87.3107	35.1562	82.7298	35.1562	87.6094	35.1562	83.0858	35.1562	87.7239	35.1562	83.5022	35.1562	87.6242	35.1562	83.979	35.1562	87.3226	35.1562	84.5123	35.1562	86.8637	35.1562	85.0923	35.1562	86.3047	35.1562	85.6999
36.6211	83.3779	36.6211	83.1153	36.6211	83.685	36.6211	82.8985	36.6211	84.0342	36.6211	82.7281	36.6211	84.4224	36.6211	82.6044	36.6211	84.8445	36.6211	82.5276	36.6211	85.2939	36.6211	82.4977	36.6211	85.7624	36.6211	82.5151	36.6211	86.24	36.6211	82.5803	36.6211	86.7158	36.6211	82.6945	36.6211	87.1768	36.6211	82.8592	36.6211	87.604	36.6211	83.0767	36.6211	87.9631	36.6211	83.3494	36.6211	88.2025	36.6211	83.6801	36.6211	88.2689	36.6211	84.0712	36.6211	88.1344	36.6211	84.5231	36.6211	87.8108	36.6211	85.0332	36.6211	87.3414	36.6211	85.5931	36.6211	86.7821	36.6211	86.1855
38.0859	83.9438	38.0859	83.6786	38.0859	84.253	38.0859	83.4593	38.0859	84.6033	38.0859	83.2866	38.0859	84.9907	38.0859	83.1609	38.0859	85.4093	38.0859	83.0824	38.0859	85.8516	38.0859	83.0507	38.0859	86.3082	38.0859	83.0658	38.0859	86.7684	38.0859	83.1278	38.0859	87.221	38.0859	83.237	38.0859	87.6535	38.0859	83.3946	38.0859	88.0478	38.0859	83.6018	38.0859	88.3728	38.0859	83.8608	38.0859	88.5807	38.0859	84.174	38.0859	88.6223	38.0859	84.5436	38.0859	88.4716	38.0859	84.9707	38.0859	88.1415	38.0859	85.4537	38.0859	87.6756	38.0859	85.986	38.0859	87.1292	38.0859	86.5531
39.5508	84.5328	39.5508	84.263	39.5508	84.8467	39.5508	84.0393	39.5508	85.2014	39.5508	83.8626	39.5508	85.5922	39.5508	83.7332	39.5508	86.0123	39.5508	83.651	39.5508	86.4527	39.5508	83.6155	39.5508	86.9025	39.5508	83.6261	39.5508	87.3487	39.5508	83.6825	39.5508	87.7782	39.5508	83.7847	39.5508	88.1774	39.5508	83.933	39.5508	88.5301	39.5508	84.1284	39.5508	88.81	39.5508	84.3727	39.5508	88.9766	39.5508	84.6678	39.5508	88.9862	39.5508	85.0162	39.5508	88.8159	39.5508	85.4194	39.5508	88.4784	39.5508	85.8767	39.5508	88.0163	39.5508	86.3831	39.5508	87.4827	39.5508	86.9262
41.0156	85.0824	41.0156	84.8063	41.0156	85.4018	41.0156	84.5758	41.0156	85.7606	41.0156	84.3923	41.0156	86.153	41.0156	84.2563	41.0156	86.5716	41.0156	84.1675	41.0156	87.0064	41.0156	84.1253	41.0156	87.4451	41.0156	84.129	41.0156	87.8736	41.0156	84.1777	41.0156	88.2774	41.0156	84.2709	41.0156	88.6421	41.0156	84.4085	41.0156	88.9525	41.0156	84.5909	41.0156	89.1862	41.0156	84.8194	41.0156	89.3088	41.0156	85.0957	41.0156	89.283	41.0156	85.4221	41.0156	89.0898	41.0156	85.8004	41.0156	88.7433	41.0156	86.2309	41.0156	88.2844	41.0156	86.7102	41.0156	87.7641	41.0156	87.2281
42.4805	85.7054	42.4805	85.4152	42.4805	86.0365	42.4805	85.169	42.4805	86.4039	42.4805	84.9687	42.4805	86.8011	42.4805	84.815	42.4805	87.2196	42.4805	84.708	42.4805	87.6483	42.4805	84.6471	42.4805	88.0734	42.4805	84.6316	42.4805	88.4791	42.4805	84.6604	42.4805	88.849	42.4805	84.7328	42.4805	89.1681	42.4805	84.8486	42.4805	89.4224	42.4805	85.008	42.4805	89.5943	42.4805	85.2121	42.4805	89.657	42.4805	85.4629	42.4805	89.581	42.4805	85.763	42.4805	89.3521	42.4805	86.115	42.4805	88.9849	42.4805	86.5205	42.4805	88.5186	42.4805	86.9774	42.4805	88.0016	42.4805	87.4773
43.9453	86.1727	43.9453	85.877	43.9453	86.5065	43.9453	85.6229	43.9453	86.8736	43.9453	85.4124	43.9453	87.2672	43.9453	85.2466	43.9453	87.6781	43.9453	85.1258	43.9453	88.0945	43.9453	85.0497	43.9453	88.5016	43.9453	85.0175	43.9453	88.8821	43.9453	85.0285	43.9453	89.2187	43.9453	85.082	43.9453	89.4962	43.9453	85.1777	43.9453	89.7029	43.9453	85.3157	43.9453	89.8257	43.9453	85.4973	43.9453	89.8438	43.9453	85.7243	43.9453	89.7328	43.9453	85.9997	43.9453	89.4808	43.9453	86.3265	43.9453	89.1026	43.9453	86.7069	43.9453	88.6361	43.9453	87.1401	43.9453	88.1278	43.9453	87.6194
45.4102	86.5534	45.4102	86.2612	45.4102	86.8839	45.4102	86.011	45.4102	87.2479	45.4102	85.8048	45.4102	87.6382	45.4102	85.6436	45.4102	88.0455	45.4102	85.5276	45.4102	88.4577	45.4102	85.4562	45.4102	88.8596	45.4102	85.4286	45.4102	89.2338	45.4102	85.4436	45.4102	89.5627	45.4102	85.5001	45.4102	89.8317	45.4102	85.5976	45.4102	90.0296	45.4102	85.7359	45.4102	90.1446	45.4102	85.9158	45.4102	90.1571	45.4102	86.1388	45.4102	90.0436	45.4102	86.4076	45.4102	89.793	45.4102	86.7249	45.4102	89.4203	45.4102	87.0931	45.4102	88.9634	45.4102	87.5117	45.4102	88.4682	45.4102	87.9751
46.875	87.0634	46.875	86.7679	46.875	87.3976	46.875	86.5149	46.875	87.765	46.875	86.3069	46.875	88.1578	46.875	86.1448	46.875	88.566	46.875	86.0287	46.875	88.9768	46.875	85.9579	46.875	89.3745	46.875	85.931	46.875	89.7409	46.875	85.9465	46.875	90.0576	46.875	86.0028	46.875	90.309	46.875	86.0988	46.875	90.4836	46.875	86.2337	46.875	90.5706	46.875	86.408	46.875	90.5545	46.875	86.6228	46.875	90.4174	46.875	86.8803	46.875	90.153	46.875	87.1833	46.875	89.7784	46.875	87.5344	46.875	89.33	46.875	87.9339	46.875	88.8507	46.875	88.3771
48.3398	87.3459	48.3398	87.0553	48.3398	87.6741	48.3398	86.8064	48.3398	88.0343	48.3398	86.6016	48.3398	88.4189	48.3398	86.4423	48.3398	88.8178	48.3398	86.3284	48.3398	89.2185	48.3398	86.2594	48.3398	89.6052	48.3398	86.2339	48.3398	89.9599	48.3398	86.2503	48.3398	90.2643	48.3398	86.3069	48.3398	90.5027	48.3398	86.4021	48.3398	90.6642	48.3398	86.5352	48.3398	90.7395	48.3398	86.706	48.3398	90.7148	48.3398	86.9151	48.3398	90.5739	48.3398	87.1645	48.3398	90.3117	48.3398	87.4563	48.3398	89.9454	48.3398	87.7927	48.3398	89.5114	48.3398	88.1744	48.3398	89.0507	48.3398	88.5975
51.2695	88.1023	51.2695	87.8049	51.2695	88.4361	51.2695	87.5489	51.2695	88.8	51.2695	87.3373	51.2695	89.1853	51.2695	87.1717	51.2695	89.581	51.2695	87.0525	51.2695	89.9734	51.2695	86.9789	51.2695	90.3454	51.2695	86.9491	51.2695	90.6779	51.2695	86.961	51.2695	90.951	51.2695	87.0121	51.2695	91.1483	51.2695	87.1001	51.2695	91.2593	51.2695	87.223	51.2695	91.2774	51.2695	87.3798	51.2695	91.1947	51.2695	87.5702	51.2695	91.0043	51.2695	87.7951	51.2695	90.7103	51.2695	88.0562	51.2695	90.3357	51.2695	88.3559	51.2695	89.916	51.2695	88.6958	51.2695	89.4868	51.2695	89.0749
52.7344	88.4218	52.7344	88.1187	52.7344	88.7601	52.7344	87.8562	52.7344	89.1268	52.7344	87.6377	52.7344	89.5129	52.7344	87.4652	52.7344	89.9071	52.7344	87.3394	52.7344	90.2954	52.7344	87.2595	52.7344	90.6604	52.7344	87.2239	52.7344	90.9823	52.7344	87.2303	52.7344	91.2409	52.7344	87.2758	52.7344	91.4191	52.7344	87.358	52.7344	91.5064	52.7344	87.4745	52.7344	91.4974	52.7344	87.6238	52.7344	91.3874	52.7344	87.8053	52.7344	91.174	52.7344	88.0195	52.7344	90.8648	52.7344	88.2682	52.7344	90.484	52.7344	88.5541	52.7344	90.066	52.7344	88.8794	52.7344	89.6446	52.7344	89.2445
54.1992	88.6771	54.1992	88.3682	54.1992	89.0202	54.1992	88.0991	54.1992	89.3899	54.1992	87.8739	54.1992	89.7768	54.1992	87.6948	54.1992	90.1693	54.1992	87.5629	54.1992	90.553	54.1992	87.4775	54.1992	90.9102	54.1992	87.4369	54.1992	91.2207	54.1992	87.4385	54.1992	91.4638	54.1992	87.4794	54.1992	91.6221	54.1992	87.5566	54.1992	91.6851	54.1992	87.6672	54.1992	91.6483	54.1992	87.8093	54.1992	91.5098	54.1992	87.982	54.1992	91.2718	54.1992	88.1856	54.1992	90.9468	54.1992	88.4218	54.1992	90.5609	54.1992	88.6931	54.1992	90.1472	54.1992	89.0026	54.1992	89.7369	54.1992	89.3516
55.6641	88.9586	55.6641	88.6366	55.6641	89.3119	55.6641	88.3524	55.6641	89.6885	55.6641	88.1107	55.6641	90.0784	55.6641	87.9146	55.6641	90.4693	55.6641	87.7654	55.6641	90.8465	55.6641	87.663	55.6641	91.1922	55.6641	87.606	55.6641	91.4856	55.6641	87.5918	55.6641	91.7056	55.6641	87.6173	55.6641	91.8342	55.6641	87.6793	55.6641	91.8605	55.6641	87.7748	55.6641	91.781	55.6641	87.9014	55.6641	91.5977	55.6641	88.0579	55.6641	91.3185	55.6641	88.2444	55.6641	90.961	55.6641	88.4628	55.6641	90.5539	55.6641	88.7163	55.6641	90.1307	55.6641	89.009	55.6641	89.7209	55.6641	89.3441
58.5938	89.3969	58.5938	89.0675	58.5938	89.7552	58.5938	88.7738	58.5938	90.1339	58.5938	88.5209	58.5938	90.5228	58.5938	88.3124	58.5938	90.9095	58.5938	88.1501	58.5938	91.2792	58.5938	88.0341	58.5938	91.6136	58.5938	87.9632	58.5938	91.8919	58.5938	87.9349	58.5938	92.0923	58.5938	87.9463	58.5938	92.196	58.5938	87.9939	58.5938	92.1911	58.5938	88.0746	58.5938	92.0746	58.5938	88.1859	58.5938	91.8513	58.5938	88.3266	58.5938	91.5351	58.5938	88.4967	58.5938	91.1498	58.5938	88.6983	58.5938	90.7273	58.5938	88.9348	58.5938	90.3005	58.5938	89.211	58.5938	89.8963	58.5938	89.5311
60.0586	89.5582	60.0586	89.227	60.0586	89.917	60.0586	88.9305	60.0586	90.2947	60.0586	88.6744	60.0586	90.6809	60.0586	88.4623	60.0586	91.0632	60.0586	88.2965	60.0586	91.4266	60.0586	88.1772	60.0586	91.7532	60.0586	88.1034	60.0586	92.0222	60.0586	88.0725	60.0586	92.212	60.0586	88.0814	60.0586	92.3038	60.0586	88.1264	60.0586	92.2856	60.0586	88.2042	60.0586	92.1541	60.0586	88.3118	60.0586	91.9149	60.0586	88.4474	60.0586	91.584	60.0586	88.6109	60.0586	91.1888	60.0586	88.8036	60.0586	90.7639	60.0586	89.029	60.0586	90.3425	60.0586	89.2921	60.0586	89.9493	60.0586	89.5979
62.9883	89.7906	62.9883	89.4525	62.9883	90.1526	62.9883	89.1459	62.9883	90.5293	62.9883	88.877	62.9883	90.9101	62.9883	88.6503	62.9883	91.2822	62.9883	88.4685	62.9883	91.6303	62.9883	88.3327	62.9883	91.9364	62.9883	88.2421	62.9883	92.179	62.9883	88.1946	62.9883	92.3359	62.9883	88.1867	62.9883	92.3876	62.9883	88.2148	62.9883	92.3224	62.9883	88.2748	62.9883	92.1399	62.9883	88.3634	62.9883	91.8516	62.9883	88.4781	62.9883	91.4802	62.9883	88.6184	62.9883	91.0579	62.9883	88.7855	62.9883	90.621	62.9883	88.9834	62.9883	90.2024	62.9883	89.218	62.9883	89.8244	62.9883	89.4964
64.4531	90.0556	64.4531	89.7114	64.4531	90.421	64.4531	89.3964	64.4531	90.7986	64.4531	89.1168	64.4531	91.1772	64.4531	88.8773	64.4531	91.544	64.4531	88.6806	64.4531	91.8832	64.4531	88.5282	64.4531	92.176	64.4531	88.4194	64.4531	92.4006	64.4531	88.3525	64.4531	92.5337	64.4531	88.3244	64.4531	92.5554	64.4531	88.3316	64.4531	92.4542	64.4531	88.3704	64.4531	92.2313	64.4531	88.4377	64.4531	91.9017	64.4531	88.5313	64.4531	91.4926	64.4531	88.6507	64.4531	91.0403	64.4531	88.7977	64.4531	90.5835	64.4531	88.9767	64.4531	90.1562	64.4531	89.1945	64.4531	89.7792	64.4531	89.4595
67.3828	90.3007	67.3828	89.9569	67.3828	90.668	67.3828	89.6445	67.3828	91.0493	67.3828	89.3695	67.3828	91.4334	67.3828	89.1361	67.3828	91.8071	67.3828	88.9465	67.3828	92.1545	67.3828	88.801	67.3828	92.4565	67.3828	88.6984	67.3828	92.6908	67.3828	88.6359	67.3828	92.8329	67.3828	88.61	67.3828	92.8596	67.3828	88.6166	67.3828	92.7552	67.3828	88.6521	67.3828	92.5173	67.3828	88.7132	67.3828	92.1627	67.3828	88.7982	67.3828	91.7266	67.3828	88.9074	67.3828	91.2537	67.3828	89.0433	67.3828	90.7867	67.3828	89.2111	67.3828	90.358	67.3828	89.4182	67.3828	89.9855	67.3828	89.6737
68.8477	90.3004	68.8477	89.9603	68.8477	90.6645	68.8477	89.6525	68.8477	91.0431	68.8477	89.3832	68.8477	91.4245	68.8477	89.1568	68.8477	91.7957	68.8477	88.9755	68.8477	92.1408	68.8477	88.8394	68.8477	92.4412	68.8477	88.747	68.8477	92.6752	68.8477	88.695	68.8477	92.8194	68.8477	88.6795	68.8477	92.8516	68.8477	88.696	68.8477	92.756	68.8477	88.7403	68.8477	92.5292	68.8477	88.8088	68.8477	92.1871	68.8477	88.8996	68.8477	91.7643	68.8477	89.0124	68.8477	91.305	68.8477	89.1496	68.8477	90.8511	68.8477	89.3162	68.8477	90.4343	68.8477	89.5196	68.8477	90.0721	68.8477	89.7687
71.7773	90.2637	71.7773	89.9151	71.7773	90.6357	71.7773	89.5993	71.7773	91.0205	71.7773	89.3239	71.7773	91.4057	71.7773	89.094	71.7773	91.7776	71.7773	88.9128	71.7773	92.1209	71.7773	88.7805	71.7773	92.4177	71.7773	88.6957	71.7773	92.6482	71.7773	88.6546	71.7773	92.791	71.7773	88.6528	71.7773	92.8259	71.7773	88.6848	71.7773	92.7368	71.7773	88.7455	71.7773	92.5187	71.7773	88.8304	71.7773	92.1846	71.7773	88.9364	71.7773	91.7685	71.7773	89.0623	71.7773	91.3166	71.7773	89.2091	71.7773	90.873	71.7773	89.3808	71.7773	90.4693	71.7773	89.5839	71.7773	90.1202	71.7773	89.8273
74.707	90.3177	74.707	89.9569	74.707	90.6984	74.707	89.6267	74.707	91.0872	74.707	89.3356	74.707	91.471	74.707	89.0902	74.707	91.8356	74.707	88.8943	74.707	92.1654	74.707	88.749	74.707	92.4429	74.707	88.653	74.707	92.6487	74.707	88.6026	74.707	92.7623	74.707	88.5928	74.707	92.7643	74.707	88.6177	74.707	92.6396	74.707	88.6714	74.707	92.3839	74.707	88.7484	74.707	92.0127	74.707	88.8447	74.707	91.5648	74.707	88.9583	74.707	91.0921	74.707	89.0896	74.707	90.6424	74.707	89.2424	74.707	90.2461	74.707	89.4237	74.707	89.9143	74.707	89.6436
77.6367	90.2695	77.6367	89.9005	77.6367	90.6569	77.6367	89.5614	77.6367	91.0497	77.6367	89.262	77.6367	91.4342	77.6367	89.0097	77.6367	91.7958	77.6367	88.8087	77.6367	92.1189	77.6367	88.6605	77.6367	92.3865	77.6367	88.5635	77.6367	92.5801	77.6367	88.5136	77.6367	92.6806	77.6367	88.5051	77.6367	92.67	77.6367	88.5316	77.6367	92.5339	77.6367	88.5864	77.6367	92.2684	77.6367	88.6637	77.6367	91.8894	77.6367	88.7588	77.6367	91.4362	77.6367	88.8696	77.6367	90.9615	77.6367	88.9965	77.6367	90.5131	77.6367	89.1434	77.6367	90.1209	77.6367	89.3179	77.6367	89.7948	77.6367	89.5308
79.1016	90.1743	79.1016	89.7961	79.1016	90.5704	79.1016	89.4482	79.1016	90.9708	79.1016	89.1415	79.1016	91.3611	79.1016	88.8839	79.1016	91.7265	79.1016	88.6803	79.1016	92.0513	79.1016	88.5324	79.1016	92.3188	79.1016	88.4382	79.1016	92.5115	79.1016	88.3933	79.1016	92.6114	79.1016	88.3914	79.1016	92.6014	79.1016	88.4253	79.1016	92.4677	79.1016	88.4874	79.1016	92.2046	79.1016	88.5713	79.1016	91.8257	79.1016	88.6719	79.1016	91.369	79.1016	88.7866	79.1016	90.888	79.1016	88.9157	79.1016	90.4334	79.1016	89.063	79.1016	90.0375	79.1016	89.2366	79.1016	89.7108	79.1016	89.448
82.0312	90.1533	82.0312	89.7436	82.0312	90.5735	82.0312	89.359	82.0312	90.989	82.0312	89.0129	82.0312	91.3843	82.0312	88.716	82.0312	91.7444	82.0312	88.476	82.0312	92.0538	82.0312	88.2962	82.0312	92.297	82.0312	88.176	82.0312	92.4585	82.0312	88.1112	82.0312	92.5235	82.0312	88.0947	82.0312	92.4796	82.0312	88.1183	82.0312	92.3173	82.0312	88.1734	82.0312	92.0337	82.0312	88.2524	82.0312	91.6412	82.0312	88.3496	82.0312	91.1725	82.0312	88.4622	82.0312	90.6746	82.0312	88.591	82.0312	90.1962	82.0312	88.7407	82.0312	89.7741	82.0312	88.9206	82.0312	89.4241	82.0312	89.1436
84.9609	90.153	84.9609	89.7366	84.9609	90.5693	84.9609	89.3358	84.9609	90.9696	84.9609	88.9657	84.9609	91.3388	84.9609	88.6396	84.9609	91.662	84.9609	88.3677	84.9609	91.9252	84.9609	88.1564	84.9609	92.1146	84.9609	88.0076	84.9609	92.2183	84.9609	87.919	84.9609	92.2272	84.9609	87.8847	84.9609	92.1375	84.9609	87.8969	84.9609	91.9502	84.9609	87.9469	84.9609	91.6722	84.9609	88.0267	84.9609	91.319	84.9609	88.1301	84.9609	90.9125	84.9609	88.2536	84.9609	90.4765	84.9609	88.3972	84.9609	90.0405	84.9609	88.5644	84.9609	89.6379	84.9609	88.7625	84.9609	89.2903	84.9609	89.0009
87.8906	90.4541	87.8906	90.0194	87.8906	90.8837	87.8906	89.5959	87.8906	91.2919	87.8906	89.1995	87.8906	91.6629	87.8906	88.845	87.8906	91.981	87.8906	88.5444	87.8906	92.2308	87.8906	88.3067	87.8906	92.3971	87.8906	88.136	87.8906	92.4658	87.8906	88.0322	87.8906	92.4264	87.8906	87.9908	87.8906	92.274	87.8906	88.0041	87.8906	92.0127	87.8906	88.0628	87.8906	91.6584	87.8906	88.1572	87.8906	91.2422	87.8906	88.2784	87.8906	90.8045	87.8906	88.4195	87.8906	90.3796	87.8906	88.576	87.8906	89.9904	87.8906	88.7463	87.8906	89.6538	87.8906	88.9318	87.8906	89.3732	87.8906	89.1374
90.8203	90.7029	90.8203	90.2585	90.8203	91.1422	90.8203	89.8248	90.8203	91.5605	90.8203	89.4177	90.8203	91.9427	90.8203	89.0519	90.8203	92.2741	90.8203	88.74	90.8203	92.5405	90.8203	88.4916	90.8203	92.7279	90.8203	88.3123	90.8203	92.8238	90.8203	88.2034	90.8203	92.8173	90.8203	88.1621	90.8203	92.7005	90.8203	88.1819	90.8203	92.469	90.8203	88.2539	90.8203	92.1263	90.8203	88.368	90.8203	91.6948	90.8203	88.514	90.8203	91.2234	90.8203	88.6829	90.8203	90.7693	90.8203	88.8676	90.8203	90.3685	90.8203	89.0639	90.8203	90.0287	90.8203	89.2712	90.8203	89.7417	90.8203	89.4938
95.2148	90.5162	95.2148	90.0663	95.2148	90.9576	95.2148	89.6249	95.2148	91.3734	95.2148	89.2088	95.2148	91.7477	95.2148	88.8333	95.2148	92.0653	95.2148	88.5113	95.2148	92.3121	95.2148	88.2524	95.2148	92.4757	95.2148	88.0617	95.2148	92.5458	95.2148	87.9401	95.2148	92.5145	95.2148	87.8844	95.2148	92.376	95.2148	87.8881	95.2148	92.1263	95.2148	87.9425	95.2148	91.7666	95.2148	88.0379	95.2148	91.3162	95.2148	88.1646	95.2148	90.8228	95.2148	88.3141	95.2148	90.3478	95.2148	88.4799	95.2148	89.9335	95.2148	88.6586	95.2148	89.589	95.2148	88.8508	95.2148	89.3036	95.2148	89.0623
98.1445	90.3617	98.1445	89.9	98.1445	90.8109	98.1445	89.4444	98.1445	91.2296	98.1445	89.0136	98.1445	91.6008	98.1445	88.6248	98.1445	91.9095	98.1445	88.2924	98.1445	92.1422	98.1445	88.027	98.1445	92.2878	98.1445	87.8342	98.1445	92.3383	98.1445	87.7144	98.1445	92.2891	98.1445	87.6635	98.1445	92.1378	98.1445	87.6736	98.1445	91.8825	98.1445	87.7349	98.1445	91.524	98.1445	87.8363	98.1445	91.0791	98.1445	87.9674	98.1445	90.5922	98.1445	88.1189	98.1445	90.1225	98.1445	88.2842	98.1445	89.7122	98.1445	88.4602	98.1445	89.3713	98.1445	88.648	98.1445	89.0904	98.1445	88.8542
101.074	90.2993	101.074	89.8119	101.074	90.7675	101.074	89.3253	101.074	91.1978	101.074	88.8599	101.074	91.573	101.074	88.435	101.074	91.8777	101.074	88.0678	101.074	92.0985	101.074	87.771	101.074	92.2248	101.074	87.552	101.074	92.2494	101.074	87.4123	101.074	92.1692	101.074	87.3476	101.074	91.9843	101.074	87.3493	101.074	91.6955	101.074	87.4062	101.074	91.3054	101.074	87.5058	101.074	90.8317	101.074	87.6362	101.074	90.3194	101.074	87.7874	101.074	89.8292	101.074	87.9522	101.074	89.4039	101.074	88.1276	101.074	89.0525	101.074	88.3154	101.074	88.7641	101.074	88.5234
105.469	90.3552	105.469	89.8539	105.469	90.8264	105.469	89.3424	105.469	91.249	105.469	88.8412	105.469	91.6061	105.469	88.3709	105.469	91.8821	105.469	87.9504	105.469	92.0639	105.469	87.5953	105.469	92.1412	105.469	87.3164	105.469	92.1076	105.469	87.1183	105.469	91.9615	105.469	86.9996	105.469	91.7059	105.469	86.9536	105.469	91.347	105.469	86.9697	105.469	90.895	105.469	87.036	105.469	90.3736	105.469	87.1403	105.469	89.8294	105.469	87.2723	105.469	89.3203	105.469	87.4247	105.469	88.8855	105.469	87.5941	105.469	88.53	105.469	87.7818	105.469	88.2383	105.469	87.9933
108.398	90.2228	108.398	89.7225	108.398	90.6927	108.398	89.2121	108.398	91.1133	108.398	88.7121	108.398	91.4674	108.398	88.2427	108.398	91.7398	108.398	87.8226	108.398	91.9184	108.398	87.4671	108.398	91.9945	108.398	87.1871	108.398	91.9642	108.398	86.9878	108.398	91.8286	108.398	86.8689	108.398	91.5921	108.398	86.8253	108.398	91.26	108.398	86.8478	108.398	90.8396	108.398	86.9256	108.398	90.3508	108.398	87.0469	108.398	89.8354	108.398	87.2011	108.398	89.3454	108.398	87.379	108.398	88.9186	108.398	87.5747	108.398	88.5641	108.398	87.7856	108.398	88.2689	108.398	88.0144
112.793	89.7343	112.793	89.2224	112.793	90.2116	112.793	88.6984	112.793	90.6337	112.793	88.1858	112.793	90.9826	112.793	87.7075	112.793	91.2435	112.793	87.2846	112.793	91.406	112.793	86.9337	112.793	91.4647	112.793	86.6657	112.793	91.4206	112.793	86.4844	112.793	91.2806	112.793	86.3869	112.793	91.0536	112.793	86.3653	112.793	90.7447	112.793	86.4076	112.793	90.356	112.793	86.501	112.793	89.8994	112.793	86.6327	112.793	89.4097	112.793	86.7917	112.793	88.9346	112.793	86.9701	112.793	88.5111	112.793	87.1632	112.793	88.1527	112.793	87.3707	112.793	87.8531	112.793	87.5973
117.188	89.6674	117.188	89.1235	117.188	90.1602	117.188	88.553	117.188	90.5799	117.188	87.9821	117.188	90.9074	117.188	87.4375	117.188	91.1268	117.188	86.9446	117.188	91.227	117.188	86.5246	117.188	91.2028	117.188	86.1922	117.188	91.0575	117.188	85.9539	117.188	90.8051	117.188	85.8078	117.188	90.4677	117.188	85.7452	117.188	90.0664	117.188	85.7528	117.188	89.6142	117.188	85.8165	117.188	89.1268	117.188	85.9228	117.188	88.6355	117.188	86.0608	117.188	88.1764	117.188	86.2234	117.188	87.7689	117.188	86.4071	117.188	87.4148	117.188	86.6126	117.188	87.1089	117.188	86.8441
120.117	90.2233	120.117	89.6749	120.117	90.7168	120.117	89.0959	120.117	91.1337	120.117	88.5124	120.117	91.4548	120.117	87.9511	120.117	91.6641	120.117	87.438	120.117	91.7492	120.117	86.9957	120.117	91.7035	120.117	86.6404	120.117	91.5279	120.117	86.3803	120.117	91.2341	120.117	86.2144	120.117	90.8437	120.117	86.134	120.117	90.3812	120.117	86.1251	120.117	89.8655	120.117	86.1719	120.117	89.3194	120.117	86.2598	120.117	88.7849	120.117	86.3772	120.117	88.3097	120.117	86.5172	120.117	87.9138	120.117	86.6776	120.117	87.5864	120.117	86.86	120.117	87.3087	120.117	87.0687
124.512	90.4949	124.512	89.9345	124.512	90.9993	124.512	89.3423	124.512	91.4264	124.512	88.7446	124.512	91.7575	124.512	88.1694	124.512	91.9771	124.512	87.6444	124.512	92.074	124.512	87.1951	124.512	92.0421	124.512	86.8421	124.512	91.8842	124.512	86.5976	124.512	91.6145	124.512	86.4647	124.512	91.2591	124.512	86.437	124.512	90.8479	124.512	86.501	124.512	90.4021	124.512	86.639	124.512	89.9383	124.512	86.8315	124.512	89.4864	124.512	87.06	124.512	89.0882	124.512	87.3082	124.512	88.7664	124.512	87.5623	124.512	88.5071	124.512	87.8118	124.512	88.2775	124.512	88.05
128.906	90.5705	128.906	89.9944	128.906	91.0844	128.906	89.3789	128.906	91.5151	128.906	88.7487	128.906	91.8438	128.906	88.1302	128.906	92.0534	128.906	87.5507	128.906	92.1299	128.906	87.0369	128.906	92.0638	128.906	86.6126	128.906	91.8534	128.906	86.2954	128.906	91.51	128.906	86.0946	128.906	91.0617	128.906	86.0103	128.906	90.5513	128.906	86.0338	128.906	90.0239	128.906	86.1502	128.906	89.5157	128.906	86.3413	128.906	89.0592	128.906	86.587	128.906	88.6851	128.906	86.8669	128.906	88.3996	128.906	87.1605	128.906	88.1706	128.906	87.4484	128.906	87.9527	128.906	87.7149
133.301	90.5155	133.301	89.9568	133.301	91.022	133.301	89.366	133.301	91.4567	133.301	88.7628	133.301	91.8011	133.301	88.167	133.301	92.0381	133.301	87.5974	133.301	92.1528	133.301	87.072	133.301	92.1332	133.301	86.607	133.301	91.97	133.301	86.2161	133.301	91.6553	133.301	85.909	133.301	91.1834	133.301	85.6898	133.301	90.5561	133.301	85.5569	133.301	89.7968	133.301	85.5031	133.301	88.9656	133.301	85.5174	133.301	88.1546	133.301	85.5866	133.301	87.4603	133.301	85.6974	133.301	86.9428	133.301	85.8372	133.301	86.5939	133.301	85.995	133.301	86.3543	133.301	86.1651
139.16	89.6628	139.16	89.0872	139.16	90.1857	139.16	88.4904	139.16	90.6276	139.16	87.9043	139.16	90.9654	139.16	87.3579	139.16	91.1831	139.16	86.8742	139.16	91.2738	139.16	86.4675	139.16	91.2412	139.16	86.1431	139.16	91.0988	139.16	85.8986	139.16	90.8627	139.16	85.7262	139.16	90.5382	139.16	85.6152	139.16	90.108	139.16	85.5539	139.16	89.548	139.16	85.5311	139.16	88.8667	139.16	85.537	139.16	88.1265	139.16	85.5642	139.16	87.4191	139.16	85.6087	139.16	86.8235	139.16	85.6708	139.16	86.379	139.16	85.7574	139.16	86.0781	139.16	85.8839
143.555	89.7601	143.555	89.0963	143.555	90.3344	143.555	88.3781	143.555	90.7894	143.555	87.6453	143.555	91.1022	143.555	86.9397	143.555	91.257	143.555	86.3007	143.555	91.2484	143.555	85.7601	143.555	91.0842	143.555	85.3371	143.555	90.7892	143.555	85.0356	143.555	90.403	143.555	84.846	143.555	89.9642	143.555	84.7491	143.555	89.4829	143.555	84.7218	143.555	88.9346	143.555	84.7411	143.555	88.2987	143.555	84.7869	143.555	87.5995	143.555	84.8448	143.555	86.9018	143.555	84.9076	143.555	86.279	143.555	84.9773	143.555	85.7841	143.555	85.0681	143.555	85.4333	143.555	85.2073
147.949	90.2161	147.949	89.5553	147.949	90.7817	147.949	88.8303	147.949	91.2263	147.949	88.0766	147.949	91.5289	147.949	87.3329	147.949	91.6748	147.949	86.6395	147.949	91.6562	147.949	86.0338	147.949	91.4757	147.949	85.5461	147.949	91.1504	147.949	85.1952	147.949	90.7145	147.949	84.9857	147.949	90.2158	147.949	84.909	147.949	89.7002	147.949	84.9463	147.949	89.1995	147.949	85.0731	147.949	88.7375	147.949	85.2647	147.949	88.3295	147.949	85.4995	147.949	87.9663	147.949	85.7615	147.949	87.624	147.949	86.0414	147.949	87.2892	147.949	86.3352	147.949	86.961	147.949	86.6421
153.809	90.2981	153.809	89.6213	153.809	90.8762	153.809	88.8778	153.809	91.329	153.809	88.1037	153.809	91.6352	153.809	87.3381	153.809	91.78	153.809	86.6198	153.809	91.7572	153.809	85.9832	153.809	91.5737	153.809	85.4537	153.809	91.2522	153.809	85.0456	153.809	90.8291	153.809	84.7627	153.809	90.3366	153.809	84.6011	153.809	89.7772	153.809	84.5531	153.809	89.1284	153.809	84.609	153.809	88.4072	153.809	84.7576	153.809	87.7234	153.809	84.9849	153.809	87.2097	153.809	85.2721	153.809	86.8892	153.809	85.5944	153.809	86.6752	153.809	85.9211	153.809	86.4697	153.809	86.2202
159.668	89.8321	159.668	89.1532	159.668	90.4128	159.668	88.4058	159.668	90.8693	159.668	87.6244	159.668	91.1807	159.668	86.8478	159.668	91.3319	159.668	86.1168	159.668	91.3172	159.668	85.471	159.668	91.1467	159.668	84.9421	159.668	90.8513	159.668	84.5477	159.668	90.4825	159.668	84.2878	159.668	90.0911	159.668	84.1459	159.668	89.6861	159.668	84.0944	159.668	89.2082	159.668	84.1021	159.668	88.5711	159.668	84.1405	159.668	87.7456	159.668	84.1889	159.668	86.808	159.668	84.2377	159.668	85.9134	159.668	84.29	159.668	85.2101	159.668	84.3639	159.668	84.7528	159.668	84.4971
165.527	89.5842	165.527	88.8101	165.527	90.2276	165.527	87.9459	165.527	90.7056	165.527	87.0372	165.527	90.9897	165.527	86.1337	165.527	91.0609	165.527	85.2869	165.527	90.9137	165.527	84.5455	165.527	90.5641	165.527	83.9489	165.527	90.0605	165.527	83.5221	165.527	89.4936	165.527	83.2717	165.527	88.9867	165.527	83.1867	165.527	88.6298	165.527	83.2415	165.527	88.3915	165.527	83.4014	165.527	88.1337	165.527	83.627	165.527	87.7312	165.527	83.8807	165.527	87.1559	165.527	84.1329	165.527	86.4769	165.527	84.3703	165.527	85.8145	165.527	84.606	165.527	85.2737	165.527	84.8853
171.387	90.3199	171.387	89.5775	171.387	90.9409	171.387	88.747	171.387	91.4128	171.387	87.8671	171.387	91.7132	171.387	86.9814	171.387	91.8255	171.387	86.1371	171.387	91.7405	171.387	85.3802	171.387	91.4586	171.387	84.7492	171.387	90.9956	171.387	84.2675	171.387	90.3897	171.387	83.9396	171.387	89.7038	171.387	83.7529	171.387	89.015	171.387	83.6848	171.387	88.395	171.387	83.7122	171.387	87.8956	171.387	83.8187	171.387	87.5252	171.387	83.9972	171.387	87.2213	171.387	84.2491	171.387	86.8868	171.387	84.5791	171.387	86.4669	171.387	84.9881	171.387	85.9751	171.387	85.4643
177.246	89.8845	177.246	89.0966	177.246	90.544	177.246	88.2157	177.246	91.046	177.246	87.2827	177.246	91.3673	177.246	86.3447	177.246	91.4919	177.246	85.4546	177.246	91.4131	177.246	84.668	177.246	91.1375	177.246	84.0371	177.246	90.6937	177.246	83.599	177.246	90.1396	177.246	83.366	177.246	89.5597	177.246	83.3218	177.246	89.034	177.246	83.4291	177.246	88.5925	177.246	83.6444	177.246	88.2106	177.246	83.9302	177.246	87.8584	177.246	84.2628	177.246	87.5275	177.246	84.6325	177.246	87.1988	177.246	85.0386	177.246	86.8324	177.246	85.48	177.246	86.4083	177.246	85.9456
183.105	89.663	183.105	88.8769	183.105	90.3201	183.105	87.9977	183.105	90.8178	183.105	87.0669	183.105	91.1317	183.105	86.1306	183.105	91.2441	183.105	85.2384	183.105	91.1468	183.105	84.4409	183.105	90.8464	183.105	83.7859	183.105	90.3715	183.105	83.3126	183.105	89.7776	183.105	83.0431	183.105	89.1432	183.105	82.9768	183.105	88.5551	183.105	83.0896	183.105	88.0822	183.105	83.3409	183.105	87.7435	183.105	83.6856	183.105	87.4883	183.105	84.0848	183.105	87.2364	183.105	84.5111	183.105	86.9445	183.105	84.9489	183.105	86.6084	183.105	85.3888	183.105	86.2318	183.105	85.821
188.965	90.0404	188.965	89.2115	188.965	90.7161	188.965	88.2634	188.965	91.2098	188.965	87.2375	188.965	91.4976	188.965	86.1842	188.965	91.5616	188.965	85.164	188.965	91.3942	188.965	84.2458	188.965	91.006	188.965	83.4982	188.965	90.437	188.965	82.9773	188.965	89.7654	188.965	82.711	188.965	89.0963	188.965	82.6921	188.965	88.5208	188.965	82.8836	188.965	88.0732	188.965	83.2331	188.965	87.7465	188.965	83.6872	188.965	87.5248	188.965	84.1998	188.965	87.3605	188.965	84.735	188.965	87.1787	188.965	85.2651	188.965	86.9326	188.965	85.767	188.965	86.6125	188.965	86.2212
196.289	89.5536	196.289	88.7534	196.289	90.2243	196.289	87.8565	196.289	90.7346	196.289	86.8969	196.289	91.0583	196.289	85.9097	196.289	91.1762	196.289	84.932	196.289	91.0809	196.289	84.0047	196.289	90.781	196.289	83.1733	196.289	90.3052	196.289	82.4866	196.289	89.7042	196.289	81.9925	196.289	89.0504	196.289	81.7293	196.289	88.4347	196.289	81.7162	196.289	87.9385	196.289	81.9459	196.289	87.5753	196.289	82.3844	196.289	87.2894	196.289	82.9782	196.289	87.0334	196.289	83.6636	196.289	86.7841	196.289	84.3755	196.289	86.5011	196.289	85.0538	196.289	86.1328	196.289	85.6495
203.613	89.2887	203.613	88.4118	203.613	89.9908	203.613	87.4102	203.613	90.4779	203.613	86.3425	203.613	90.7206	203.613	85.2717	203.613	90.7034	203.613	84.2601	203.613	90.4318	203.613	83.3621	203.613	89.9431	203.613	82.6194	203.613	89.3189	203.613	82.0596	203.613	88.6815	203.613	81.697	203.613	88.154	203.613	81.5351	203.613	87.7921	203.613	81.5669	203.613	87.5595	203.613	81.7749	203.613	87.3758	203.613	82.1314	203.613	87.1641	203.613	82.5994	203.613	86.8643	203.613	83.1372	203.613	86.4487	203.613	83.705	203.613	85.9405	203.613	84.2745	203.613	85.3918	203.613	84.8354
210.938	89.9993	210.938	89.0919	210.938	90.712	210.938	88.0282	210.938	91.1951	210.938	86.8508	210.938	91.4178	210.938	85.6077	210.938	91.3566	210.938	84.3552	210.938	91.002	210.938	83.1607	210.938	90.3711	210.938	82.1023	210.938	89.5263	210.938	81.2609	210.938	88.594	210.938	80.6974	210.938	87.7511	210.938	80.4264	210.938	87.1339	210.938	80.4078	210.938	86.7392	210.938	80.5715	210.938	86.4696	210.938	80.858	210.938	86.2457	210.938	81.2468	210.938	86.0275	210.938	81.7552	210.938	85.7594	210.938	82.4045	210.938	85.3524	210.938	83.1766	210.938	84.7535	210.938	83.996
218.262	89.0699	218.262	88.165	218.262	89.8055	218.262	87.1374	218.262	90.3306	218.262	86.0381	218.262	90.6105	218.262	84.9223	218.262	90.6199	218.262	83.8474	218.262	90.3483	218.262	82.8699	218.262	89.808	218.262	82.0416	218.262	89.0475	218.262	81.4056	218.262	88.1677	218.262	80.9924	218.262	87.3332	218.262	80.8157	218.262	86.7363	218.262	80.8676	218.262	86.4689	218.262	81.1157	218.262	86.4048	218.262	81.5071	218.262	86.2961	218.262	81.9799	218.262	85.9887	218.262	82.4805	218.262	85.5053	218.262	82.976	218.262	84.9596	218.262	83.4581	218.262	84.4322	218.262	83.9372
225.586	89.0398	225.586	88.128	225.586	89.7669	225.586	87.0742	225.586	90.2682	225.586	85.9209	225.586	90.5071	225.586	84.7108	225.586	90.457	225.586	83.4912	225.586	90.1078	225.586	82.3226	225.586	89.4782	225.586	81.2879	225.586	88.6331	225.586	80.4956	225.586	87.7066	225.586	80.0557	225.586	86.9051	225.586	80.0274	225.586	86.443	225.586	80.3769	225.586	86.4089	225.586	80.9987	225.586	86.7047	225.586	81.7755	225.586	87.1111	225.586	82.6208	225.586	87.3914	225.586	83.4852	225.586	87.3984	225.586	84.3419	225.586	87.116	225.586	85.1691	225.586	86.6053	225.586	85.9374
232.91	89.4441	232.91	88.4572	232.91	90.2132	232.91	87.3003	232.91	90.7219	232.91	86.0237	232.91	90.9352	232.91	84.6764	232.91	90.8277	232.91	83.3018	232.91	90.386	232.91	81.9366	232.91	89.6171	232.91	80.6152	232.91	88.5654	232.91	79.3884	232.91	87.3436	232.91	78.3564	232.91	86.1656	232.91	77.6988	232.91	85.3274	232.91	77.6251	232.91	85.05	232.91	78.1984	232.91	85.2719	232.91	79.2407	232.91	85.7117	232.91	80.4843	232.91	86.0864	232.91	81.7362	232.91	86.2094	232.91	82.9029	232.91	86.0192	232.91	83.9454	232.91	85.5441	232.91	84.8373
241.699	89.7743	241.699	88.7153	241.699	90.6417	241.699	87.5335	241.699	91.2569	241.699	86.3	241.699	91.5681	241.699	85.0788	241.699	91.532	241.699	83.9157	241.699	91.116	241.699	82.8365	241.699	90.3065	241.699	81.8534	241.699	89.1224	241.699	80.9759	241.699	87.6296	241.699	80.2192	241.699	85.967	241.699	79.6083	241.699	84.4334	241.699	79.1777	241.699	83.5178	241.699	78.9692	241.699	83.3976	241.699	79.0314	241.699	83.6933	241.699	79.4208	241.699	84.1525	241.699	80.1762	241.699	84.6108	241.699	81.2526	241.699	84.7651	241.699	82.4792	241.699	84.4257	241.699	83.6126
250.488	90.2338	250.488	89.0393	250.488	91.1496	250.488	87.6415	250.488	91.7225	250.488	86.1263	250.488	91.9003	250.488	84.584	250.488	91.645	250.488	83.1025	250.488	90.942	250.488	81.7615	250.488	89.822	250.488	80.6302	250.488	88.4012	250.488	79.7619	250.488	86.9088	250.488	79.1831	250.488	85.5976	250.488	78.8823	250.488	84.5409	250.488	78.8128	250.488	83.6831	250.488	78.9047	250.488	83.0221	250.488	79.0756	250.488	82.3473	250.488	79.2351	250.488	81.2974	250.488	79.301	250.488	79.9987	250.488	79.2305	250.488	79.0689	250.488	79.0503	250.488	78.7748	250.488	78.8518
259.277	90.2016	259.277	89.0157	259.277	91.12	259.277	87.6187	259.277	91.7197	259.277	86.0756	259.277	91.9505	259.277	84.4622	259.277	91.7611	259.277	82.8631	259.277	91.0989	259.277	81.3667	259.277	89.9168	259.277	80.0565	259.277	88.2006	259.277	79.0041	259.277	86.0785	259.277	78.2625	259.277	84.1228	259.277	77.8616	259.277	83.2632	259.277	77.8116	259.277	83.3188	259.277	78.108	259.277	83.3969	259.277	78.7141	259.277	83.3036	259.277	79.5217	259.277	83.0565	259.277	80.3522	259.277	82.5926	259.277	81.0249	259.277	82.0869	259.277	81.4407	259.277	81.7778	259.277	81.6343
268.066	90.522	268.066	89.3856	268.066	91.4501	268.066	88.0952	268.066	92.1204	268.066	86.7063	268.066	92.4904	268.066	85.2694	268.066	92.5248	268.066	83.8257	268.066	92.1937	268.066	82.4083	268.066	91.4684	268.066	81.0484	268.066	90.3088	268.066	79.7847	268.066	88.6514	268.066	78.6739	268.066	86.4594	268.066	77.7984	268.066	84.0745	268.066	77.2569	268.066	82.7849	268.066	77.1249	268.066	83.0867	268.066	77.4068	268.066	83.6321	268.066	78.0312	268.066	83.7987	268.066	78.8782	268.066	83.6093	268.066	79.8103	268.066	83.1195	268.066	80.7243	268.066	82.4077	268.066	81.5896
276.855	89.0647	276.855	87.5664	276.855	90.2567	276.855	85.871	276.855	91.0783	276.855	84.1426	276.855	91.4947	276.855	82.5674	276.855	91.4905	276.855	81.2615	276.855	91.0695	276.855	80.2028	276.855	90.2607	276.855	79.2812	276.855	89.1219	276.855	78.4015	276.855	87.7194	276.855	77.5418	276.855	86.0736	276.855	76.7824	276.855	84.2231	276.855	76.3257	276.855	82.7944	276.855	76.43	276.855	83.0696	276.855	77.1914	276.855	84.4074	276.855	78.4473	276.855	85.3969	276.855	79.9537	276.855	85.7414	276.855	81.5127	276.855	85.5841	276.855	82.959	276.855	85.0441	276.855	84.1605
287.109	88.5956	287.109	86.9979	287.109	89.7781	287.109	85.0134	287.109	90.5215	287.109	82.6846	287.109	90.8103	287.109	80.1094	287.109	90.6503	287.109	77.5374	287.109	90.0869	287.109	75.4634	287.109	89.2198	287.109	74.3764	287.109	88.1884	287.109	74.2077	287.109	87.0984	287.109	74.4801	287.109	85.9459	287.109	74.8072	287.109	84.7156	287.109	74.9944	287.109	83.6992	287.109	75.0167	287.109	83.5313	287.109	75.0511	287.109	84.3263	287.109	75.4509	287.109	85.241	287.109	76.4865	287.109	85.4634	287.109	78.0804	287.109	84.8072	287.109	79.9422	287.109	83.4958	287.109	81.8091
297.363	89.7812	297.363	88.3524	297.363	90.8478	297.363	86.6134	297.363	91.507	297.363	84.6234	297.363	91.7182	297.363	82.4461	297.363	91.4482	297.363	80.1449	297.363	90.6819	297.363	77.7942	297.363	89.4526	297.363	75.5489	297.363	87.9006	297.363	73.7909	297.363	86.3213	297.363	73.0631	297.363	85.0491	297.363	73.3988	297.363	84.1541	297.363	74.1694	297.363	83.4619	297.363	74.8157	297.363	82.9276	297.363	75.1045	297.363	82.5951	297.363	75.0377	297.363	82.322	297.363	74.8278	297.363	81.7851	297.363	74.9126	297.363	80.6996	297.363	75.7333	297.363	79.0887	297.363	77.2736
307.617	89.5174	307.617	88.0994	307.617	90.5692	307.617	86.3692	307.617	91.2066	307.617	84.3891	307.617	91.3907	307.617	82.2357	307.617	91.0981	307.617	80.0112	307.617	90.3304	307.617	77.8486	307.617	89.1306	307.617	75.9075	307.617	87.6011	307.617	74.3607	307.617	85.9123	307.617	73.3711	307.617	84.2959	307.617	73.0678	307.617	83.0924	307.617	73.525	307.617	82.7543	307.617	74.6693	307.617	83.2808	307.617	76.2155	307.617	84.0108	307.617	77.8384	307.617	84.4676	307.617	79.3525	307.617	84.5671	307.617	80.708	307.617	84.3276	307.617	81.9072	307.617	83.7693	307.617	82.9414
319.336	88.6206	319.336	86.9011	319.336	89.9078	319.336	84.8353	319.336	90.7006	319.336	82.5381	319.336	90.9544	319.336	80.1459	319.336	90.6415	319.336	77.7967	319.336	89.7644	319.336	75.6257	319.336	88.3913	319.336	73.7913	319.336	86.7034	319.336	72.4734	319.336	84.9775	319.336	71.8212	319.336	83.3842	319.336	71.9521	319.336	81.8578	319.336	72.9149	319.336	80.7996	319.336	74.5013	319.336	81.4234	319.336	76.2868	319.336	83.0136	319.336	77.9312	319.336	84.2145	319.336	79.33	319.336	84.802	319.336	80.5884	319.336	84.8016	319.336	81.8677	319.336	84.2148	319.336	83.1539
329.59	88.0998	329.59	86.2752	329.59	89.4231	329.59	84.0179	329.59	90.2143	329.59	81.4589	329.59	90.4683	329.59	78.8236	329.59	90.2022	329.59	76.4329	329.59	89.455	329.59	74.6064	329.59	88.2801	329.59	73.4907	329.59	86.7269	329.59	72.9838	329.59	84.8385	329.59	72.8406	329.59	82.7496	329.59	72.9099	329.59	80.871	329.59	73.3814	329.59	79.7782	329.59	74.6983	329.59	79.9731	329.59	76.8441	329.59	81.2312	329.59	79.1988	329.59	82.3284	329.59	81.2254	329.59	82.8659	329.59	82.6805	329.59	83.2146	329.59	83.5016	329.59	83.5651	329.59	83.7427
341.309	87.5376	341.309	85.9446	341.309	88.5894	341.309	83.8503	341.309	89.0808	341.309	81.3459	341.309	89.0062	341.309	78.6323	341.309	88.3897	341.309	76.0781	341.309	87.3319	341.309	74.1387	341.309	86.0676	341.309	73.0345	341.309	84.9086	341.309	72.5742	341.309	83.9626	341.309	72.3867	341.309	83.0412	341.309	72.1906	341.309	82.0922	341.309	72.0276	341.309	81.725	341.309	72.5601	341.309	82.7143	341.309	74.522	341.309	84.5391	341.309	77.3501	341.309	86.118	341.309	80.1064	341.309	86.9194	341.309	82.4118	341.309	86.9488	341.309	84.2041	341.309	86.4334	341.309	85.522
353.027	89.5047	353.027	87.7149	353.027	90.7387	353.027	85.3954	353.027	91.3798	353.027	82.557	353.027	91.3888	353.027	79.1909	353.027	90.7387	353.027	75.2606	353.027	89.4479	353.027	70.6762	353.027	87.6466	353.027	65.3398	353.027	85.6513	353.027	61.0185	353.027	83.8761	353.027	63.104	353.027	82.511	353.027	66.8473	353.027	81.5593	353.027	69.9158	353.027	81.282	353.027	72.557	353.027	82.1177	353.027	75.0055	353.027	84.1552	353.027	77.3575	353.027	86.4308	353.027	79.6867	353.027	87.8667	353.027	82.028	353.027	88.1725	353.027	84.2614	353.027	87.5238	353.027	86.1597
366.211	89.618	366.211	88.0639	366.211	90.6831	366.211	86.0211	366.211	91.2316	366.211	83.4689	366.211	91.1976	366.211	80.3665	366.211	90.4672	366.211	76.6663	366.211	88.8858	366.211	72.3904	366.211	86.3481	366.211	67.9389	366.211	83.2788	366.211	64.8321	366.211	81.5129	366.211	64.7345	366.211	81.6219	366.211	66.2987	366.211	81.7697	366.211	67.652	366.211	81.5103	366.211	67.9233	366.211	81.5513	366.211	66.5668	366.211	82.1566	366.211	64.0697	366.211	82.6477	366.211	67.3565	366.211	82.6467	366.211	72.9925	366.211	82.223	366.211	76.9726	366.211	81.2981	366.211	79.6283
379.395	88.6977	379.395	86.2536	379.395	90.4533	379.395	83.1564	379.395	91.4809	379.395	79.4382	379.395	91.7278	379.395	75.0786	379.395	91.1226	379.395	69.8555	379.395	89.584	379.395	63.4547	379.395	87.0823	379.395	59.25	379.395	83.8717	379.395	59.5566	379.395	80.9347	379.395	56.5222	379.395	79.3037	379.395	45.382	379.395	78.5815	379.395	61.9569	379.395	79.1352	379.395	68.2297	379.395	81.1509	379.395	71.9795	379.395	82.9275	379.395	74.4983	379.395	84.0329	379.395	76.3105	379.395	84.708	379.395	77.9797	379.395	84.7798	379.395	80.0291	379.395	83.9607	379.395	82.2464
392.578	89.4844	392.578	87.4143	392.578	90.8608	392.578	84.6776	392.578	91.5189	392.578	81.352	392.578	91.4172	392.578	77.6836	392.578	90.4902	392.578	74.2912	392.578	88.6493	392.578	72.1225	392.578	85.785	392.578	71.5687	392.578	81.7672	392.578	71.904	392.578	76.8067	392.578	72.1537	392.578	74.5274	392.578	71.6992	392.578	76.6459	392.578	70.1159	392.578	77.7323	392.578	66.6031	392.578	77.8644	392.578	57.9448	392.578	79.3106	392.578	64.1571	392.578	80.1679	392.578	71.5415	392.578	79.6083	392.578	75.1468	392.578	78.9503	392.578	76.8961	392.578	78.473	392.578	77.8059
405.762	88.2313	405.762	86.1594	405.762	89.6827	405.762	83.4556	405.762	90.4963	405.762	80.0978	405.762	90.6233	405.762	76.1125	405.762	89.9882	405.762	71.7726	405.762	88.5019	405.762	67.8788	405.762	86.1067	405.762	65.0141	405.762	82.9152	405.762	62.9738	405.762	79.3739	405.762	63.1885	405.762	75.7278	405.762	65.0536	405.762	72.3102	405.762	65.7409	405.762	75.0315	405.762	64.1602	405.762	78.566	405.762	62.0909	405.762	80.1952	405.762	67.3953	405.762	81.3951	405.762	72.9488	405.762	82.1841	405.762	76.7393	405.762	82.1757	405.762	79.2033	405.762	81.6162	405.762	80.7005
420.41	87.3723	420.41	85.1518	420.41	89.0522	420.41	82.4705	420.41	90.1081	420.41	79.4311	420.41	90.4435	420.41	76.2605	420.41	89.941	420.41	73.5026	420.41	88.4572	420.41	71.7526	420.41	85.8299	420.41	70.6367	420.41	81.9352	420.41	69.1534	420.41	76.9033	420.41	66.97	420.41	72.2396	420.41	66.0463	420.41	72.3172	420.41	67.7584	420.41	74.4491	420.41	68.7955	420.41	75.3591	420.41	67.1412	420.41	76.1754	420.41	59.9084	420.41	77.6808	420.41	64.8258	420.41	78.6835	420.41	72.241	420.41	79.0001	420.41	75.9041	420.41	78.7886	420.41	77.8654
435.059	87.8213	435.059	85.5249	435.059	89.3989	435.059	82.5271	435.059	90.2487	435.059	78.883	435.059	90.3576	435.059	74.805	435.059	89.6903	435.059	71.1153	435.059	88.1553	435.059	69.6314	435.059	85.5422	435.059	70.5217	435.059	81.4221	435.059	71.9612	435.059	75.0358	435.059	73.0528	435.059	65.8947	435.059	73.5727	435.059	63.9124	435.059	73.3322	435.059	63.7909	435.059	71.8299	435.059	72.6866	435.059	67.5543	435.059	78.8685	435.059	53.4972	435.059	81.2902	435.059	69.2394	435.059	81.9383	435.059	75.3279	435.059	81.9357	435.059	78.5971	435.059	81.5319	435.059	80.5122
451.172	88.4685	451.172	85.5747	451.172	90.288	451.172	81.4479	451.172	91.0963	451.172	75.8139	451.172	90.8618	451.172	68.3497	451.172	89.4531	451.172	61.1019	451.172	86.6798	451.172	60.5812	451.172	82.7108	451.172	61.9772	451.172	79.635	451.172	65.3311	451.172	78.7817	451.172	69.4865	451.172	77.4217	451.172	72.6975	451.172	72.9383	451.172	74.6852	451.172	64.7285	451.172	75.4339	451.172	75.7706	451.172	74.6193	451.172	80.1779	451.172	70.8917	451.172	83.3168	451.172	63.4267	451.172	85.1821	451.172	74.6724	451.172	85.6651	451.172	80.4343	451.172	85.1174	451.172	83.5201
465.82	89.8422	465.82	87.1903	465.82	91.5533	465.82	83.4981	465.82	92.3058	465.82	78.4845	465.82	91.9995	465.82	71.8627	465.82	90.459	465.82	67.4938	465.82	87.4171	465.82	68.9605	465.82	82.5209	465.82	69.316	465.82	76.3899	465.82	67.4367	465.82	75.3183	465.82	61.4871	465.82	76.9112	465.82	53.6071	465.82	77.1076	465.82	66.7178	465.82	76.2863	465.82	70.9289	465.82	77.0378	465.82	72.1858	465.82	79.3889	465.82	70.9419	465.82	81.2718	465.82	65.1041	465.82	83.2599	465.82	68.261	465.82	84.3646	465.82	77.2412	465.82	83.8921	465.82	81.7151
483.398	89.5526	483.398	86.9671	483.398	91.2272	483.398	83.407	483.398	92.0263	483.398	78.9512	483.398	91.9355	483.398	74.7977	483.398	90.8774	483.398	73.7259	483.398	88.6787	483.398	74.7014	483.398	84.996	483.398	75.8136	483.398	79.1734	483.398	76.7038	483.398	70.8234	483.398	77.1622	483.398	69.7539	483.398	76.8341	483.398	71.8426	483.398	75.173	483.398	73.8559	483.398	71.1175	483.398	77.5794	483.398	60.9443	483.398	80.9873	483.398	64.6071	483.398	82.0739	483.398	70.8659	483.398	80.906	483.398	74.0382	483.398	79.731	483.398	76.3927	483.398	79.3954	483.398	78.2883
499.512	88.7742	499.512	86.3626	499.512	90.2395	499.512	82.6319	499.512	90.9284	499.512	76.4698	499.512	90.9246	499.512	59.8948	499.512	90.2444	499.512	70.5546	499.512	88.821	499.512	75.2828	499.512	86.5542	499.512	76.1388	499.512	83.6304	499.512	74.4339	499.512	81.1622	499.512	68.9522	499.512	80.5036	499.512	51.9656	499.512	80.6645	499.512	69.7487	499.512	79.2183	499.512	73.8772	499.512	73.9221	499.512	75.029	499.512	74.6597	499.512	74.6673	499.512	79.7554	499.512	74.2731	499.512	81.1878	499.512	75.5005	499.512	80.8388	499.512	77.4196	499.512	79.9523	499.512	78.8942
517.09	91.593	517.09	89.1483	517.09	92.8341	517.09	84.899	517.09	93.1276	517.09	76.8533	517.09	92.5833	517.09	68.1826	517.09	91.1947	517.09	77.084	517.09	88.7652	517.09	79.2081	517.09	84.7613	517.09	79.0713	517.09	78.4009	517.09	77.3573	517.09	70.8351	517.09	73.3424	517.09	70.3544	517.09	62.7957	517.09	75.6184	517.09	65.3039	517.09	77.4099	517.09	71.9338	517.09	78.6529	517.09	73.4306	517.09	80.9382	517.09	73.1453	517.09	81.0723	517.09	75.5798	517.09	81.0924	517.09	80.0754	517.09	83.6921	517.09	83.3512	517.09	85.3151	517.09	85.1088
536.133	89.5822	536.133	86.7471	536.133	91.1832	536.133	82.0274	536.133	91.8292	536.133	74.0711	536.133	91.667	536.133	73.9905	536.133	90.7445	536.133	78.1878	536.133	88.9433	536.133	79.3949	536.133	85.9149	536.133	79.2409	536.133	81.5628	536.133	78.5475	536.133	78.332	536.133	77.39	536.133	77.2539	536.133	75.3936	536.133	74.4364	536.133	71.8514	536.133	62.2404	536.133	64.4968	536.133	72.7858	536.133	53.2701	536.133	78.6343	536.133	66.6422	536.133	78.7608	536.133	71.4383	536.133	78.4354	536.133	75.7498	536.133	81.2655	536.133	79.3841	536.133	82.5932	536.133	81.7828
555.176	89.4244	555.176	86.2909	555.176	91.2438	555.176	81.2694	555.176	92.002	555.176	73.4693	555.176	91.8341	555.176	73.721	555.176	90.8127	555.176	77.7996	555.176	88.8976	555.176	79.1817	555.176	85.8484	555.176	78.8877	555.176	81.3818	555.176	77.5373	555.176	75.8512	555.176	75.771	555.176	70.0486	555.176	74.2798	555.176	67.6617	555.176	73.3339	555.176	67.4135	555.176	72.4384	555.176	61.5203	555.176	70.4488	555.176	72.7135	555.176	64.5576	555.176	77.0294	555.176	60.6948	555.176	78.9433	555.176	72.3374	555.176	80.2819	555.176	77.1006	555.176	80.6173	555.176	79.5833
574.219	91.2742	574.219	88.0891	574.219	93.0505	574.219	82.8646	574.219	93.6951	574.219	73.802	574.219	93.3512	574.219	71.4223	574.219	92.0619	574.219	77.1914	574.219	89.6871	574.219	79.4065	574.219	85.747	574.219	79.7132	574.219	79.425	574.219	78.7265	574.219	73.0719	574.219	77.0286	574.219	69.6732	574.219	75.5709	574.219	56.1117	574.219	75.5173	574.219	67.8032	574.219	76.0142	574.219	69.9445	574.219	74.9443	574.219	76.2206	574.219	68.9156	574.219	81.1593	574.219	67.5173	574.219	83.7994	574.219	78.4781	574.219	84.9756	574.219	82.8104	574.219	85.2647	574.219	84.7151
594.727	90.3292	594.727	86.2557	594.727	92.4675	594.727	78.3709	594.727	93.2498	594.727	68.7205	594.727	92.942	594.727	79.079	594.727	91.6192	594.727	81.9732	594.727	89.1789	594.727	82.4064	594.727	85.0174	594.727	81.3595	594.727	76.1064	594.727	79.4763	594.727	69.4198	594.727	77.3383	594.727	75.7858	594.727	75.0436	594.727	72.3689	594.727	72.9328	594.727	71.8433	594.727	73.9679	594.727	69.4693	594.727	76.5074	594.727	71.5965	594.727	76.8509	594.727	81.7954	594.727	72.7716	594.727	85.0056	594.727	63.0462	594.727	85.4502	594.727	77.8258	594.727	84.6336	594.727	82.5896
615.234	89.3957	615.234	85.5389	615.234	91.514	615.234	78.9667	615.234	92.387	615.234	73.5744	615.234	92.2221	615.234	77.5547	615.234	91.0213	615.234	79.7397	615.234	88.5055	615.234	80.8098	615.234	83.743	615.234	81.3792	615.234	72.4053	615.234	81.3548	615.234	73.5778	615.234	80.4253	615.234	77.6808	615.234	78.5336	615.234	74.9732	615.234	77.2915	615.234	67.3336	615.234	78.177	615.234	65.6631	615.234	78.3528	615.234	75.115	615.234	75.6316	615.234	79.7199	615.234	69.0995	615.234	80.9854	615.234	75.2738	615.234	81.0116	615.234	80.3047	615.234	81.8498	615.234	82.1313
637.207	89.0211	637.207	83.8251	637.207	91.6569	637.207	74.8382	637.207	92.5998	637.207	78.6618	637.207	92.2259	637.207	82.0882	637.207	90.629	637.207	82.6189	637.207	87.4736	637.207	81.9834	637.207	81.2107	637.207	81.4771	637.207	65.3065	637.207	81.2598	637.207	78.8161	637.207	80.4495	637.207	79.6801	637.207	78.4564	637.207	75.5312	637.207	76.8	637.207	71.9975	637.207	78.5966	637.207	71.8311	637.207	80.5978	637.207	75.5361	637.207	80.3567	637.207	79.1449	637.207	76.0991	637.207	80.2884	637.207	64.4754	637.207	80.9659	637.207	78.2533	637.207	82.2041	637.207	81.9371
659.18	88.8085	659.18	83.6576	659.18	91.4557	659.18	76.6526	659.18	92.4047	659.18	80.053	659.18	92.0153	659.18	82.7747	659.18	90.3136	659.18	83.1477	659.18	86.8787	659.18	82.4094	659.18	80.2091	659.18	81.9596	659.18	71.0627	659.18	82.3667	659.18	79.1434	659.18	82.4077	659.18	78.8936	659.18	80.7279	659.18	71.4789	659.18	76.9372	659.18	72.1586	659.18	76.6768	659.18	74.5697	659.18	79.6671	659.18	78.6682	659.18	79.7167	659.18	81.4901	659.18	74.6415	659.18	82.5703	659.18	66.4536	659.18	83.056	659.18	79.5844	659.18	83.339	659.18	82.8181
682.617	88.9605	682.617	84.4106	682.617	91.3	682.617	78.7901	682.617	92.1343	682.617	81.521	682.617	91.7045	682.617	83.4707	682.617	89.8951	682.617	82.9568	682.617	86.0675	682.617	81.3453	682.617	78.6921	682.617	80.2528	682.617	78.3862	682.617	80.7202	682.617	81.9924	682.617	81.7693	682.617	80.5542	682.617	81.6599	682.617	77.6848	682.617	79.3251	682.617	78.3401	682.617	77.6221	682.617	76.3504	682.617	81.3117	682.617	75.798	682.617	82.9524	682.617	80.1601	682.617	80.4199	682.617	82.7075	682.617	67.4235	682.617	83.2337	682.617	77.9998	682.617	83.8271	682.617	83.047
707.52	88.2292	707.52	83.1572	707.52	91.0285	707.52	80.3682	707.52	92.0198	707.52	83.7422	707.52	91.5675	707.52	85.3675	707.52	89.6308	707.52	85.1607	707.52	85.5151	707.52	83.8341	707.52	79.8982	707.52	81.8466	707.52	82.5616	707.52	79.939	707.52	84.8063	707.52	79.6918	707.52	83.0511	707.52	79.782	707.52	77.5917	707.52	77.9576	707.52	75.9505	707.52	77.0569	707.52	73.8433	707.52	80.6526	707.52	75.565	707.52	81.9926	707.52	81.5208	707.52	78.4973	707.52	84.5852	707.52	61.2989	707.52	84.7664	707.52	81.2625	707.52	84.7737	707.52	84.7337
732.422	89.0132	732.422	83.511	732.422	91.6498	732.422	82.1682	732.422	92.2898	732.422	85.3357	732.422	91.6562	732.422	85.8951	732.422	89.4881	732.422	84.9055	732.422	84.678	732.422	83.2898	732.422	80.5245	732.422	81.3514	732.422	83.7201	732.422	80.5454	732.422	85.275	732.422	82.0335	732.422	83.7505	732.422	82.3421	732.422	82.4723	732.422	78.9734	732.422	81.8939	732.422	71.3068	732.422	78.6329	732.422	80.5799	732.422	78.8904	732.422	83.7777	732.422	83.341	732.422	81.9531	732.422	85.5758	732.422	74.2163	732.422	85.3318	732.422	80.694	732.422	84.7029	732.422	84.2611
757.324	88.138	757.324	84.106	757.324	90.7641	757.324	83.4197	757.324	91.8445	757.324	85.9514	757.324	91.417	757.324	86.8901	757.324	88.935	757.324	86.0341	757.324	84.4242	757.324	84.0401	757.324	84.7855	757.324	81.8337	757.324	87.2429	757.324	79.6593	757.324	86.7948	757.324	78.9231	757.324	83.0029	757.324	80.9513	757.324	80.9691	757.324	81.4541	757.324	81.6503	757.324	77.2899	757.324	81.1727	757.324	75.3727	757.324	81.0867	757.324	81.9746	757.324	83.3056	757.324	82.3016	757.324	85.8121	757.324	74.4678	757.324	86.2166	757.324	75.7503	757.324	85.6238	757.324	83.4827
785.156	88.4034	785.156	83.6503	785.156	91.6911	785.156	85.1241	785.156	92.7366	785.156	87.6504	785.156	91.7217	785.156	88.1457	785.156	88.0969	785.156	87.0617	785.156	81.819	785.156	84.8605	785.156	85.1436	785.156	82.472	785.156	87.4882	785.156	80.6722	785.156	87.0965	785.156	79.0131	785.156	85.2659	785.156	78.6216	785.156	81.9705	785.156	78.6674	785.156	76.0168	785.156	75.7251	785.156	64.0642	785.156	78.0508	785.156	71.8923	785.156	82.7268	785.156	81.6994	785.156	82.4065	785.156	84.7438	785.156	74.5193	785.156	84.7733	785.156	75.825	785.156	83.8426	785.156	82.2788
811.523	90.0143	811.523	85.9457	811.523	92.446	811.523	85.5816	811.523	93.132	811.523	87.4175	811.523	92.2643	811.523	87.6139	811.523	89.2083	811.523	87.0169	811.523	84.4816	811.523	85.5618	811.523	86.7403	811.523	82.3248	811.523	88.1986	811.523	76.792	811.523	87.1404	811.523	76.0624	811.523	85.1428	811.523	80.4428	811.523	84.957	811.523	82.35	811.523	84.3261	811.523	80.7746	811.523	82.3604	811.523	76.6361	811.523	79.8052	811.523	81.9591	811.523	81.2748	811.523	83.6067	811.523	84.2234	811.523	77.3306	811.523	85.6738	811.523	75.3005	811.523	85.5088	811.523	83.5747
840.82	87.6683	840.82	84.4159	840.82	90.9463	840.82	86.1338	840.82	92.4568	840.82	88.063	840.82	91.9337	840.82	88.063	840.82	88.3838	840.82	86.727	840.82	82.9631	840.82	84.7706	840.82	87.9266	840.82	82.3025	840.82	89.4943	840.82	79.259	840.82	88.17	840.82	75.8844	840.82	84.9565	840.82	75.4252	840.82	81.7669	840.82	77.7633	840.82	80.0323	840.82	77.3788	840.82	80.7223	840.82	76.7365	840.82	79.445	840.82	81.3445	840.82	81.8615	840.82	82.4672	840.82	84.2222	840.82	77.4015	840.82	83.7793	840.82	70.5007	840.82	81.1051	840.82	78.8046
870.117	89.9902	870.117	86.2998	870.117	92.8908	870.117	87.7541	870.117	93.8047	870.117	88.9517	870.117	92.7411	870.117	87.4795	870.117	88.9082	870.117	84.6118	870.117	86.1201	870.117	82.3277	870.117	89.2648	870.117	80.7458	870.117	89.1044	870.117	79.3721	870.117	85.9199	870.117	79.1445	870.117	83.3373	870.117	78.706	870.117	79.6678	870.117	78.136	870.117	80.9881	870.117	77.6257	870.117	81.1311	870.117	76.1826	870.117	73.4394	870.117	80.6903	870.117	75.0029	870.117	82.863	870.117	81.8215	870.117	78.4027	870.117	84.7221	870.117	77.3334	870.117	84.3568	870.117	83.3639
900.879	87.0891	900.879	85.3496	900.879	90.413	900.879	87.349	900.879	92.3168	900.879	88.4834	900.879	92.0011	900.879	87.7929	900.879	88.7082	900.879	85.5912	900.879	85.6107	900.879	82.4933	900.879	89.1734	900.879	79.8962	900.879	89.4725	900.879	78.2096	900.879	86.535	900.879	75.4786	900.879	82.8202	900.879	74.8812	900.879	77.4806	900.879	77.8102	900.879	79.7207	900.879	77.7463	900.879	81.2965	900.879	77.4586	900.879	77.3274	900.879	81.2071	900.879	79.9106	900.879	82.0452	900.879	84.1375	900.879	76.0976	900.879	84.6926	900.879	68.5961	900.879	81.0651	900.879	76.9607
933.105	88.4487	933.105	86.2364	933.105	91.6	933.105	87.9514	933.105	92.9735	933.105	88.0769	933.105	91.9388	933.105	85.8612	933.105	87.9217	933.105	82.637	933.105	88.1028	933.105	80.7961	933.105	90.6032	933.105	80.6047	933.105	89.4103	933.105	79.811	933.105	84.9016	933.105	76.982	933.105	81.3981	933.105	71.2635	933.105	78.3421	933.105	74.5429	933.105	73.1443	933.105	76.9307	933.105	80.8477	933.105	70.6023	933.105	78.1774	933.105	80.633	933.105	77.7721	933.105	83.9348	933.105	83.6975	933.105	78.8778	933.105	86.5005	933.105	74.6222	933.105	85.5958	933.105	83.529
965.332	85.941	965.332	85.5166	965.332	89.3485	965.332	87.9115	965.332	91.3976	965.332	88.3051	965.332	91.1064	965.332	86.4498	965.332	88.5066	965.332	83.7285	965.332	87.8041	965.332	81.4675	965.332	89.6922	965.332	79.5471	965.332	89.1553	965.332	77.4445	965.332	84.3284	965.332	75.9366	965.332	76.6829	965.332	76.2828	965.332	78.5624	965.332	78.6289	965.332	77.3897	965.332	78.8595	965.332	81.5222	965.332	73.5716	965.332	78.759	965.332	78.9996	965.332	82.8101	965.332	82.8644	965.332	86.1363	965.332	79.4547	965.332	86.9143	965.332	69.807	965.332	83.9351	965.332	81.3082
1000.49	88.1914	1000.49	87.0937	1000.49	91.2662	1000.49	88.957	1000.49	92.3359	1000.49	89.0134	1000.49	90.163	1000.49	86.7887	1000.49	85.7098	1000.49	83.352	1000.49	88.1202	1000.49	80.0609	1000.49	89.3512	1000.49	79.8047	1000.49	87.4508	1000.49	81.4827	1000.49	82.6956	1000.49	79.7099	1000.49	74.8233	1000.49	71.7725	1000.49	73.0902	1000.49	75.4083	1000.49	71.4466	1000.49	79.1212	1000.49	81.7854	1000.49	75.2055	1000.49	81.7732	1000.49	74.4751	1000.49	82.1084	1000.49	82.322	1000.49	82.5784	1000.49	80.73	1000.49	83.1769	1000.49	69.3394	1000.49	79.7778	1000.49	72.3609
1035.64	87.5615	1035.64	86.6999	1035.64	90.5124	1035.64	88.0167	1035.64	91.972	1035.64	88.372	1035.64	90.0423	1035.64	87.279	1035.64	86.8482	1035.64	84.887	1035.64	89.2934	1035.64	81.5452	1035.64	89.0944	1035.64	79.401	1035.64	85.6322	1035.64	79.0875	1035.64	80.1745	1035.64	78.2702	1035.64	75.5647	1035.64	73.6819	1035.64	79.7951	1035.64	73.7525	1035.64	62.0363	1035.64	79.7471	1035.64	80.4167	1035.64	77.1599	1035.64	80.9098	1035.64	73.2861	1035.64	81.0165	1035.64	82.0773	1035.64	82.2815	1035.64	81.1382	1035.64	82.0801	1035.64	66.6766	1035.64	74.4192	1035.64	74.4049
1072.27	88.1898	1072.27	86.8039	1072.27	91.3425	1072.27	87.9254	1072.27	92.5481	1072.27	87.9686	1072.27	90.3665	1072.27	86.6822	1072.27	87.1613	1072.27	85.4276	1072.27	89.349	1072.27	84.0931	1072.27	88.5746	1072.27	81.5457	1072.27	83.6815	1072.27	79.9287	1072.27	80.7315	1072.27	80.5045	1072.27	70.0836	1072.27	79.1334	1072.27	78.5668	1072.27	70.5849	1072.27	60.0548	1072.27	78.6995	1072.27	80.1017	1072.27	80.7191	1072.27	80.8913	1072.27	64.1838	1072.27	80.1751	1072.27	79.7527	1072.27	77.6304	1072.27	79.9959	1072.27	75.0781	1072.27	64.4765	1072.27	74.6277	1072.27	70.0151
1108.89	88.4745	1108.89	87.453	1108.89	91.3997	1108.89	88.7339	1108.89	92.3091	1108.89	88.3149	1108.89	89.7466	1108.89	85.9081	1108.89	87.6146	1108.89	84.5294	1108.89	89.3171	1108.89	84.2343	1108.89	87.4529	1108.89	81.6932	1108.89	82.0863	1108.89	77.9424	1108.89	81.4244	1108.89	75.9301	1108.89	76.8954	1108.89	77.3549	1108.89	73.6105	1108.89	76.2607	1108.89	70.4031	1108.89	72.3701	1108.89	75.6953	1108.89	80.5155	1108.89	77.0834	1108.89	74.4122	1108.89	75.539	1108.89	78.6232	1108.89	68.7255	1108.89	80.5364	1108.89	76.9186	1108.89	70.419	1108.89	77.7431	1108.89	63.142
1148.44	88.9919	1148.44	87.384	1148.44	92.0006	1148.44	88.0598	1148.44	92.4824	1148.44	87.2964	1148.44	89.1312	1148.44	85.123	1148.44	88.0769	1148.44	83.0372	1148.44	89.6587	1148.44	81.725	1148.44	87.0121	1148.44	81.913	1148.44	82.4059	1148.44	82.2507	1148.44	82.0237	1148.44	80.5959	1148.44	76.6155	1148.44	77.963	1148.44	79.1324	1148.44	74.4693	1148.44	72.3108	1148.44	71.5964	1148.44	73.0081	1148.44	80.3381	1148.44	75.7841	1148.44	77.0941	1148.44	73.6523	1148.44	73.5924	1148.44	66.192	1148.44	78.3159	1148.44	74.7541	1148.44	68.6101	1148.44	75.0498	1148.44	58.0574
1189.45	88.1574	1189.45	86.3148	1189.45	91.2373	1189.45	87.1822	1189.45	91.3193	1189.45	86.2297	1189.45	88.0135	1189.45	83.9468	1189.45	87.838	1189.45	82.6015	1189.45	88.447	1189.45	81.0581	1189.45	85.615	1189.45	80.2455	1189.45	83.4367	1189.45	79.4008	1189.45	82.8287	1189.45	77.2817	1189.45	80.4971	1189.45	73.0539	1189.45	72.7388	1189.45	76.9907	1189.45	73.332	1189.45	73.2778	1189.45	71.8091	1189.45	78.3436	1189.45	71.2756	1189.45	77.1967	1189.45	68.8766	1189.45	69.5787	1189.45	66.7585	1189.45	77.2086	1189.45	71.3269	1189.45	68.9565	1189.45	75.5818	1189.45	65.7373
1230.47	88.2247	1230.47	86.4681	1230.47	91.0547	1230.47	87.1026	1230.47	90.7802	1230.47	85.6868	1230.47	86.664	1230.47	82.901	1230.47	86.5667	1230.47	81.9719	1230.47	87.0206	1230.47	80.2664	1230.47	83.229	1230.47	79.8864	1230.47	83.3905	1230.47	79.1162	1230.47	84.1642	1230.47	75.9098	1230.47	81.1723	1230.47	74.1999	1230.47	78.4522	1230.47	74.0728	1230.47	71.3695	1230.47	66.168	1230.47	65.8849	1230.47	75.4681	1230.47	72.9359	1230.47	77.6534	1230.47	68.9234	1230.47	70.6517	1230.47	63.4024	1230.47	73.9513	1230.47	70.4513	1230.47	72.9988	1230.47	73.1247	1230.47	70.5204
1274.41	88.4348	1274.41	86.275	1274.41	90.8296	1274.41	86.3131	1274.41	89.6198	1274.41	84.6673	1274.41	84.6447	1274.41	82.2955	1274.41	86.0045	1274.41	82.3585	1274.41	85.8487	1274.41	80.3741	1274.41	81.7366	1274.41	77.1251	1274.41	83.5181	1274.41	76.7491	1274.41	83.3422	1274.41	77.9462	1274.41	80.9907	1274.41	75.1919	1274.41	77.5577	1274.41	74.3505	1274.41	74.8906	1274.41	67.5694	1274.41	68.1066	1274.41	74.3251	1274.41	65.3993	1274.41	77.7222	1274.41	68.3588	1274.41	72.8574	1274.41	63.4972	1274.41	71.1514	1274.41	63.7705	1274.41	68.1924	1274.41	72.286	1274.41	70.1164
1319.82	87.964	1319.82	86.4338	1319.82	90.5343	1319.82	86.8318	1319.82	89.4492	1319.82	84.7846	1319.82	83.901	1319.82	82.1639	1319.82	85.2334	1319.82	81.7197	1319.82	85.4368	1319.82	80.7273	1319.82	80.1291	1319.82	80.3254	1319.82	84.5842	1319.82	76.524	1319.82	85.2103	1319.82	76.0245	1319.82	79.9204	1319.82	75.9073	1319.82	79.22	1319.82	77.5418	1319.82	72.023	1319.82	74.8565	1319.82	59.8627	1319.82	70.4758	1319.82	54.3714	1319.82	74.0314	1319.82	61.4203	1319.82	73.174	1319.82	44.2928	1319.82	67.8533	1319.82	67.8985	1319.82	64.852	1319.82	74.6735	1319.82	67.5526
1366.7	89.5962	1366.7	87.5465	1366.7	91.587	1366.7	86.9393	1366.7	89.7784	1366.7	84.6952	1366.7	83.7421	1366.7	82.6997	1366.7	85.1761	1366.7	82.8434	1366.7	85.687	1366.7	81.6215	1366.7	80.4077	1366.7	80.7323	1366.7	86.0291	1366.7	79.6521	1366.7	86.4673	1366.7	79.4884	1366.7	82.6107	1366.7	75.6034	1366.7	80.8688	1366.7	72.7492	1366.7	73.6519	1366.7	75.32	1366.7	53.5913	1366.7	68.4917	1366.7	55.609	1366.7	73.0886	1366.7	69.9733	1366.7	73.9181	1366.7	69.1382	1366.7	72.4482	1366.7	61.9921	1366.7	68.8016	1366.7	73.8499	1366.7	73.7128
1413.57	89.6012	1413.57	87.3338	1413.57	91.3306	1413.57	86.7462	1413.57	89.0166	1413.57	84.6833	1413.57	83.7604	1413.57	82.1213	1413.57	85.588	1413.57	81.6486	1413.57	85.8599	1413.57	81.4637	1413.57	81.8115	1413.57	78.9698	1413.57	87.8598	1413.57	74.1001	1413.57	87.2904	1413.57	68.4187	1413.57	79.3263	1413.57	71.8981	1413.57	78.7253	1413.57	74.9415	1413.57	75.5446	1413.57	76.0776	1413.57	68.6395	1413.57	64.8598	1413.57	66.9495	1413.57	73.6066	1413.57	70.9458	1413.57	73.1729	1413.57	68.7712	1413.57	71.0723	1413.57	67.9178	1413.57	70.8635	1413.57	62.2289	1413.57	68.8301
1463.38	88.8555	1463.38	87.3891	1463.38	89.9489	1463.38	86.6213	1463.38	87.4789	1463.38	83.4803	1463.38	83.5061	1463.38	81.0371	1463.38	85.3051	1463.38	80.8243	1463.38	85.7699	1463.38	78.4472	1463.38	83.3977	1463.38	77.7756	1463.38	87.0413	1463.38	76.7803	1463.38	86.1322	1463.38	71.174	1463.38	81.8303	1463.38	73.0752	1463.38	79.042	1463.38	67.4933	1463.38	72.9734	1463.38	73.4203	1463.38	72.2776	1463.38	68.742	1463.38	62.1432	1463.38	70.3759	1463.38	67.8247	1463.38	71.1622	1463.38	69.4201	1463.38	65.1408	1463.38	62.7376	1463.38	64.6305	1463.38	64.8884	1463.38	70.1003
1516.11	88.4902	1516.11	87.6783	1516.11	88.5336	1516.11	86.4588	1516.11	85.527	1516.11	82.0885	1516.11	83.1754	1516.11	80.5135	1516.11	85.4744	1516.11	79.9442	1516.11	85.8292	1516.11	75.6541	1516.11	84.8754	1516.11	74.7989	1516.11	87.2425	1516.11	75.7868	1516.11	84.5856	1516.11	72.2172	1516.11	78.1785	1516.11	71.9909	1516.11	76.3456	1516.11	63.7434	1516.11	73.704	1516.11	73.2036	1516.11	69.8638	1516.11	70.9773	1516.11	64.5465	1516.11	64.3994	1516.11	68.2042	1516.11	69.9065	1516.11	67.63	1516.11	62.4815	1516.11	67.7383	1516.11	58.3588	1516.11	70.0257	1516.11	71.3873
1568.85	88.9068	1568.85	87.4955	1568.85	88.3832	1568.85	86.1698	1568.85	84.3142	1568.85	81.7309	1568.85	81.6227	1568.85	79.8143	1568.85	85.0167	1568.85	80.1302	1568.85	85.6546	1568.85	77.1008	1568.85	85.1621	1568.85	71.366	1568.85	86.2923	1568.85	74.0093	1568.85	82.2705	1568.85	72.5952	1568.85	77.2253	1568.85	65.6294	1568.85	74.6419	1568.85	68.9804	1568.85	62.1629	1568.85	67.8757	1568.85	71.7409	1568.85	71.6479	1568.85	70.6136	1568.85	60.7133	1568.85	63.3433	1568.85	69.0941	1568.85	68.0694	1568.85	68.6695	1568.85	70.4317	1568.85	42.097	1568.85	71.5004	1568.85	73.1343
1624.51	89.1166	1624.51	87.9757	1624.51	87.7255	1624.51	86.0789	1624.51	83.727	1624.51	82.63	1624.51	82.9789	1624.51	81.3938	1624.51	85.5499	1624.51	79.745	1624.51	86.2599	1624.51	77.1082	1624.51	85.8074	1624.51	75.132	1624.51	84.8522	1624.51	69.4845	1624.51	79.5056	1624.51	70.8715	1624.51	74.4407	1624.51	71.8614	1624.51	67.7046	1624.51	72.975	1624.51	66.6596	1624.51	69.8641	1624.51	68.1421	1624.51	71.0681	1624.51	71.8368	1624.51	64.1534	1624.51	66.7518	1624.51	68.8826	1624.51	66.12	1624.51	71.5262	1624.51	69.6773	1624.51	67.9255	1624.51	71.7469	1624.51	70.0552
1681.64	89.4449	1681.64	88.8675	1681.64	87.034	1681.64	86.9081	1681.64	83.6126	1681.64	83.3012	1681.64	85.1796	1681.64	81.4579	1681.64	86.7543	1681.64	79.2063	1681.64	87.2095	1681.64	75.865	1681.64	86.7353	1681.64	75.6151	1681.64	84.2871	1681.64	74.9293	1681.64	79.164	1681.64	73.398	1681.64	73.824	1681.64	74.0606	1681.64	73.1182	1681.64	67.8121	1681.64	71.2777	1681.64	73.4973	1681.64	63.5658	1681.64	69.8245	1681.64	69.0646	1681.64	65.1815	1681.64	61.4873	1681.64	63.9964	1681.64	68.6129	1681.64	68.5435	1681.64	69.2964	1681.64	73.1505	1681.64	67.7962	1681.64	71.6472
1741.7	89.9874	1741.7	89.6076	1741.7	86.587	1741.7	87.0688	1741.7	81.3937	1741.7	81.6558	1741.7	84.8775	1741.7	77.6634	1741.7	87.3952	1741.7	77.887	1741.7	87.2146	1741.7	75.3332	1741.7	86.7191	1741.7	75.2756	1741.7	83.5564	1741.7	77.2511	1741.7	78.8833	1741.7	72.309	1741.7	76.5359	1741.7	72.5955	1741.7	70.6462	1741.7	67.8599	1741.7	69.7737	1741.7	71.3277	1741.7	62.8478	1741.7	70.6994	1741.7	60.801	1741.7	69.1863	1741.7	62.8452	1741.7	66.7991	1741.7	71.517	1741.7	66.9356	1741.7	67.4783	1741.7	70.3281	1741.7	63.1111	1741.7	59.6854
1803.22	90.0424	1803.22	90.349	1803.22	85.0835	1803.22	87.7495	1803.22	71.8596	1803.22	81.6233	1803.22	84.2982	1803.22	72.6281	1803.22	88.0047	1803.22	74.5514	1803.22	87.9624	1803.22	78.0326	1803.22	85.6333	1803.22	77.0604	1803.22	81.1059	1803.22	78.655	1803.22	78.3619	1803.22	76.2692	1803.22	74.9143	1803.22	71.8526	1803.22	69.8473	1803.22	72.8606	1803.22	71.4988	1803.22	71.6968	1803.22	56.0858	1803.22	72.8445	1803.22	66.7285	1803.22	70.8927	1803.22	63.0295	1803.22	65.3433	1803.22	64.955	1803.22	54.6611	1803.22	66.8094	1803.22	70.7252	1803.22	48.4999	1803.22	72.2778
1866.21	89.4933	1866.21	90.6083	1866.21	81.9599	1866.21	87.8578	1866.21	75.9047	1866.21	80.9742	1866.21	85.1102	1866.21	69.5014	1866.21	88.0469	1866.21	75.6285	1866.21	87.3487	1866.21	79.0278	1866.21	84.4974	1866.21	77.5352	1866.21	80.5658	1866.21	77.7027	1866.21	79.6194	1866.21	77.6087	1866.21	69.6872	1866.21	74.7854	1866.21	72.6668	1866.21	75.354	1866.21	59.3235	1866.21	74.4371	1866.21	55.3453	1866.21	73.3347	1866.21	66.1724	1866.21	73.5546	1866.21	67.1376	1866.21	66.7114	1866.21	63.8009	1866.21	57.4907	1866.21	63.5171	1866.21	72.3279	1866.21	61.2458	1866.21	70.8609
1932.13	89.6425	1932.13	90.8528	1932.13	81.6805	1932.13	87.7546	1932.13	80.9606	1932.13	82.9846	1932.13	86.0601	1932.13	77.7329	1932.13	88.1474	1932.13	79.3681	1932.13	86.7212	1932.13	81.3915	1932.13	82.6086	1932.13	80.249	1932.13	80.8868	1932.13	77.9811	1932.13	77.7184	1932.13	78.7804	1932.13	73.8979	1932.13	73.3504	1932.13	61.1732	1932.13	76.011	1932.13	51.7582	1932.13	74.7497	1932.13	64.9837	1932.13	71.3905	1932.13	63.0437	1932.13	72.327	1932.13	67.9931	1932.13	69.1324	1932.13	66.2407	1932.13	68.2038	1932.13	58.2864	1932.13	71.1424	1932.13	63.0923	1932.13	73.554
1999.51	90.3494	1999.51	91.3183	1999.51	84.3701	1999.51	89.0048	1999.51	83.8154	1999.51	85.4064	1999.51	86.5802	1999.51	82.2365	1999.51	88.4282	1999.51	80.2988	1999.51	86.2229	1999.51	81.6604	1999.51	82.9196	1999.51	80.6216	1999.51	82.8214	1999.51	79.7998	1999.51	79.3371	1999.51	77.1378	1999.51	71.4837	1999.51	72.2155	1999.51	72.587	1999.51	73.6382	1999.51	69.9879	1999.51	74.0092	1999.51	58.8495	1999.51	67.9491	1999.51	67.2975	1999.51	71.6921	1999.51	66.9766	1999.51	70.7226	1999.51	68.4624	1999.51	66.1292	1999.51	59.4672	1999.51	73.6315	1999.51	63.9724	1999.51	70.1877
2069.82	90.3782	2069.82	91.8231	2069.82	86.9451	2069.82	89.9501	2069.82	87.6556	2069.82	86.7469	2069.82	88.4525	2069.82	82.6941	2069.82	88.7455	2069.82	82.6389	2069.82	86.8067	2069.82	83.3305	2069.82	84.7548	2069.82	82.5934	2069.82	83.0578	2069.82	81.2381	2069.82	81.1456	2069.82	80.0258	2069.82	77.6226	2069.82	76.0013	2069.82	75.4352	2069.82	77.8753	2069.82	64.0458	2069.82	76.2527	2069.82	57.1903	2069.82	73.2576	2069.82	69.1938	2069.82	70.6205	2069.82	67.412	2069.82	72.7461	2069.82	70.7412	2069.82	66.4294	2069.82	53.259	2069.82	73.1965	2069.82	61.9297	2069.82	72.2435
2143.07	89.887	2143.07	91.928	2143.07	87.7684	2143.07	89.9601	2143.07	89.4734	2143.07	87.6429	2143.07	89.8363	2143.07	85.0245	2143.07	88.3649	2143.07	85.4069	2143.07	85.5508	2143.07	84.6214	2143.07	85.1062	2143.07	84.16	2143.07	83.7366	2143.07	82.732	2143.07	83.0496	2143.07	80.721	2143.07	79.6965	2143.07	76.0945	2143.07	69.0875	2143.07	76.2477	2143.07	61.2306	2143.07	76.5486	2143.07	66.1167	2143.07	75.3695	2143.07	65.6324	2143.07	77.3191	2143.07	68.8888	2143.07	70.2401	2143.07	72.415	2143.07	73.7234	2143.07	65.7654	2143.07	74.3529	2143.07	70.9204	2143.07	74.2408
2219.24	90.0202	2219.24	92.0581	2219.24	88.6874	2219.24	90.4219	2219.24	89.7805	2219.24	88.5608	2219.24	90.3261	2219.24	86.026	2219.24	86.3122	2219.24	85.9783	2219.24	85.698	2219.24	84.9946	2219.24	84.579	2219.24	82.2084	2219.24	85.2547	2219.24	80.4211	2219.24	83.6172	2219.24	77.5034	2219.24	81.1979	2219.24	76.7047	2219.24	75.9679	2219.24	72.6881	2219.24	71.5075	2219.24	73.9113	2219.24	60.7791	2219.24	72.7216	2219.24	65.8892	2219.24	74.3058	2219.24	57.3506	2219.24	74.3824	2219.24	71.5362	2219.24	73.1457	2219.24	61.8566	2219.24	72.8024	2219.24	69.4501	2219.24	74.2292
2296.88	90.1473	2296.88	91.7621	2296.88	89.4209	2296.88	90.2673	2296.88	89.9023	2296.88	88.091	2296.88	90.2536	2296.88	85.8253	2296.88	85.8969	2296.88	86.0738	2296.88	85.2024	2296.88	83.6637	2296.88	83.8349	2296.88	81.3018	2296.88	84.1021	2296.88	80.1696	2296.88	83.8726	2296.88	77.9605	2296.88	80.8467	2296.88	76.6523	2296.88	76.669	2296.88	73.855	2296.88	64.6416	2296.88	74.9609	2296.88	59.0448	2296.88	69.0396	2296.88	59.121	2296.88	71.3745	2296.88	59.0227	2296.88	72.2434	2296.88	69.4285	2296.88	72.474	2296.88	64.645	2296.88	73.0018	2296.88	69.9744	2296.88	71.7766
2378.91	89.4578	2378.91	91.2352	2378.91	89.8223	2378.91	90.128	2378.91	89.9199	2378.91	88.2438	2378.91	90.3466	2378.91	86.9626	2378.91	85.5791	2378.91	85.6003	2378.91	85.876	2378.91	83.9188	2378.91	84.1863	2378.91	81.1309	2378.91	85.1216	2378.91	79.781	2378.91	83.6503	2378.91	77.2256	2378.91	80.408	2378.91	77.4998	2378.91	75.2771	2378.91	73.6829	2378.91	67.511	2378.91	73.0448	2378.91	64.0862	2378.91	68.8292	2378.91	68.8606	2378.91	71.6407	2378.91	60.9366	2378.91	73.3513	2378.91	70.5407	2378.91	72.0124	2378.91	62.3565	2378.91	71.746	2378.91	68.3277	2378.91	69.8215
2462.4	88.6284	2462.4	90.5933	2462.4	89.1937	2462.4	89.5893	2462.4	89.8378	2462.4	88.5263	2462.4	89.8647	2462.4	86.7443	2462.4	85.5623	2462.4	83.764	2462.4	85.2019	2462.4	81.8748	2462.4	83.5972	2462.4	79.0424	2462.4	83.591	2462.4	77.9423	2462.4	83.2253	2462.4	75.8144	2462.4	79.9882	2462.4	74.0955	2462.4	73.265	2462.4	71.802	2462.4	65.7075	2462.4	73.3361	2462.4	64.0641	2462.4	69.2301	2462.4	64.3022	2462.4	69.0192	2462.4	60.4484	2462.4	69.4147	2462.4	68.1904	2462.4	70.2347	2462.4	62.8425	2462.4	71.5357	2462.4	65.3977	2462.4	69.3679
2548.83	88.6408	2548.83	90.1859	2548.83	88.8138	2548.83	88.973	2548.83	89.2493	2548.83	88.041	2548.83	89.1416	2548.83	85.2244	2548.83	85.1912	2548.83	82.7816	2548.83	84.7268	2548.83	81.3275	2548.83	84.3477	2548.83	80.0705	2548.83	84.5218	2548.83	78.1551	2548.83	82.686	2548.83	75.4716	2548.83	78.4712	2548.83	74.8918	2548.83	74.2051	2548.83	73.6961	2548.83	66.4692	2548.83	72.4028	2548.83	65.4847	2548.83	66.6451	2548.83	61.0722	2548.83	70.3665	2548.83	44.6249	2548.83	71.4168	2548.83	66.3887	2548.83	68.2888	2548.83	62.5229	2548.83	68.0952	2548.83	64.7904	2548.83	67.931
2639.65	88.9137	2639.65	89.9456	2639.65	89.3083	2639.65	89.1244	2639.65	89.1893	2639.65	88.4892	2639.65	88.7718	2639.65	85.7809	2639.65	85.3571	2639.65	84.1051	2639.65	84.7363	2639.65	82.3832	2639.65	84.1577	2639.65	80.9121	2639.65	82.8639	2639.65	78.3224	2639.65	82.136	2639.65	76.8917	2639.65	77.6997	2639.65	75.1992	2639.65	71.9585	2639.65	72.5353	2639.65	65.0556	2639.65	71.9366	2639.65	66.068	2639.65	70.3714	2639.65	61.6211	2639.65	68.7332	2639.65	64.8422	2639.65	72.6456	2639.65	68.3599	2639.65	71.0647	2639.65	61.655	2639.65	70.8776	2639.65	65.0937	2639.65	68.5361
2731.93	89.2682	2731.93	89.8599	2731.93	89.249	2731.93	89.4958	2731.93	89.1838	2731.93	88.5529	2731.93	88.1067	2731.93	86.1698	2731.93	85.2616	2731.93	84.3597	2731.93	83.8641	2731.93	81.9714	2731.93	84.4419	2731.93	79.2716	2731.93	83.191	2731.93	78.016	2731.93	82.5624	2731.93	76.8302	2731.93	76.9929	2731.93	74.3484	2731.93	73.3308	2731.93	72.8405	2731.93	69.0895	2731.93	72.6261	2731.93	59.2571	2731.93	69.4239	2731.93	60.703	2731.93	67.6816	2731.93	64.716	2731.93	70.5901	2731.93	65.4709	2731.93	71.1228	2731.93	64.1338	2731.93	68.9534	2731.93	61.2773	2731.93	68.2274
2828.61	89.2606	2828.61	89.4548	2828.61	89.4103	2828.61	89.4372	2828.61	89.1843	2828.61	88.072	2828.61	88.2652	2828.61	85.5162	2828.61	86.1822	2828.61	83.7559	2828.61	83.973	2828.61	81.4274	2828.61	83.9002	2828.61	80.4106	2828.61	82.2252	2828.61	78.5047	2828.61	81.9558	2828.61	76.0659	2828.61	76.0843	2828.61	75.0468	2828.61	68.9302	2828.61	74.5083	2828.61	67.0045	2828.61	71.6077	2828.61	64.7859	2828.61	68.9922	2828.61	63.4901	2828.61	68.6259	2828.61	58.5588	2828.61	71.7156	2828.61	63.8049	2828.61	67.5062	2828.61	62.336	2828.61	69.1309	2828.61	59.6555	2828.61	64.8665
2928.22	88.8315	2928.22	89.2754	2928.22	88.8545	2928.22	89.2682	2928.22	88.3804	2928.22	87.1862	2928.22	87.4648	2928.22	85.0894	2928.22	85.3966	2928.22	83.5317	2928.22	82.9714	2928.22	82.2509	2928.22	82.6803	2928.22	80.241	2928.22	80.6994	2928.22	77.7161	2928.22	81.182	2928.22	75.9144	2928.22	75.7374	2928.22	74.2124	2928.22	68.2477	2928.22	71.8656	2928.22	69.2821	2928.22	69.1749	2928.22	60.3954	2928.22	70.7222	2928.22	56.2724	2928.22	67.2083	2928.22	62.0963	2928.22	70.3966	2928.22	64.1333	2928.22	68.4448	2928.22	65.4272	2928.22	68.9778	2928.22	62.0208	2928.22	68.5949
3030.76	89.0257	3030.76	89.294	3030.76	89.314	3030.76	89.2126	3030.76	88.2329	3030.76	87.1625	3030.76	87.1852	3030.76	85.3499	3030.76	85.7454	3030.76	84.3364	3030.76	82.4015	3030.76	82.2073	3030.76	83.1585	3030.76	78.9923	3030.76	81.184	3030.76	76.4499	3030.76	81.0663	3030.76	75.1319	3030.76	76.5008	3030.76	72.0731	3030.76	68.2158	3030.76	70.4427	3030.76	64.8905	3030.76	69.6962	3030.76	62.2067	3030.76	66.8592	3030.76	55.0642	3030.76	66.1124	3030.76	63.1228	3030.76	71.7366	3030.76	63.9996	3030.76	68.7217	3030.76	63.6443	3030.76	68.5558	3030.76	55.0949	3030.76	64.4881
3137.7	88.8237	3137.7	89.5697	3137.7	89.4396	3137.7	89.0706	3137.7	88.4554	3137.7	86.962	3137.7	87.8468	3137.7	84.9938	3137.7	86.4338	3137.7	83.6031	3137.7	83.5055	3137.7	80.8354	3137.7	82.347	3137.7	78.2829	3137.7	80.6079	3137.7	76.9814	3137.7	81.8112	3137.7	74.9923	3137.7	77.2237	3137.7	73.1609	3137.7	69.185	3137.7	72.7954	3137.7	66.4392	3137.7	71.363	3137.7	60.0161	3137.7	65.9933	3137.7	22.1694	3137.7	67.539	3137.7	59.5826	3137.7	71.8575	3137.7	62.8142	3137.7	67.1916	3137.7	64.1307	3137.7	67.186	3137.7	61.1727	3137.7	65.0177
3249.02	89.1969	3249.02	89.5201	3249.02	89.3976	3249.02	88.2361	3249.02	88.175	3249.02	86.6471	3249.02	87.2338	3249.02	85.1374	3249.02	85.2715	3249.02	83.0252	3249.02	82.0648	3249.02	80.612	3249.02	82.1641	3249.02	78.3043	3249.02	81.0301	3249.02	76.8832	3249.02	81.1466	3249.02	73.9572	3249.02	76.8425	3249.02	73.3556	3249.02	68.8735	3249.02	71.6912	3249.02	68.2857	3249.02	69.9924	3249.02	63.1303	3249.02	68.405	3249.02	54.1804	3249.02	66.7848	3249.02	62.4262	3249.02	69.5888	3249.02	59.9397	3249.02	67.3784	3249.02	61.6574	3249.02	67.3429	3249.02	51.5937	3249.02	65.9587
3363.28	89.0193	3363.28	89.2833	3363.28	89.5102	3363.28	88.5111	3363.28	88.3276	3363.28	87.0263	3363.28	87.4745	3363.28	85.1454	3363.28	85.748	3363.28	82.3945	3363.28	81.4768	3363.28	80.2501	3363.28	81.6965	3363.28	78.6797	3363.28	80.7789	3363.28	77.0071	3363.28	80.8991	3363.28	75.615	3363.28	78.3029	3363.28	74.2034	3363.28	68.4396	3363.28	71.867	3363.28	60.9442	3363.28	69.2492	3363.28	55.3291	3363.28	67.7964	3363.28	60.5152	3363.28	58.4522	3363.28	46.5405	3363.28	68.0088	3363.28	60.6657	3363.28	66.1535	3363.28	62.7355	3363.28	62.7331	3363.28	55.7173	3363.28	62.9217
3481.93	89.3974	3481.93	89.5569	3481.93	89.3223	3481.93	88.1605	3481.93	87.9374	3481.93	86.5134	3481.93	87.0085	3481.93	84.8146	3481.93	85.6998	3481.93	82.8542	3481.93	80.6992	3481.93	80.7092	3481.93	80.9887	3481.93	79.2834	3481.93	81.6033	3481.93	76.9541	3481.93	82.4435	3481.93	75.3738	3481.93	78.2141	3481.93	73.768	3481.93	69.489	3481.93	70.8617	3481.93	66.92	3481.93	71.0485	3481.93	61.4247	3481.93	69.1718	3481.93	49.6853	3481.93	61.5333	3481.93	60.1644	3481.93	70.3955	3481.93	58.6682	3481.93	66.8141	3481.93	61.8158	3481.93	67.5987	3481.93	58.4446	3481.93	66.9104
3604.98	89.0619	3604.98	88.639	3604.98	89.2439	3604.98	87.7525	3604.98	88.4862	3604.98	86.8199	3604.98	87.3959	3604.98	84.8899	3604.98	86.5835	3604.98	82.5994	3604.98	81.9788	3604.98	80.7233	3604.98	82.1819	3604.98	78.9943	3604.98	82.216	3604.98	77.0532	3604.98	81.3646	3604.98	75.4635	3604.98	77.7762	3604.98	73.058	3604.98	69.0976	3604.98	70.159	3604.98	61.8897	3604.98	69.9975	3604.98	51.7866	3604.98	66.1597	3604.98	63.0559	3604.98	66.103	3604.98	58.4411	3604.98	66.1085	3604.98	58.7541	3604.98	66.5913	3604.98	64.1702	3604.98	64.0675	3604.98	52.867	3604.98	58.7671
3732.42	88.9168	3732.42	88.5694	3732.42	88.5461	3732.42	87.9638	3732.42	87.5939	3732.42	86.5044	3732.42	86.147	3732.42	84.6598	3732.42	85.5109	3732.42	83.318	3732.42	80.1213	3732.42	81.3034	3732.42	80.9065	3732.42	79.1529	3732.42	81.7465	3732.42	76.7316	3732.42	81.7107	3732.42	75.1481	3732.42	78.4452	3732.42	72.9495	3732.42	69.3506	3732.42	70.8229	3732.42	64.5607	3732.42	70.646	3732.42	53.8223	3732.42	67.1165	3732.42	55.5409	3732.42	68.5684	3732.42	57.0401	3732.42	69.4991	3732.42	59.3636	3732.42	66.0555	3732.42	61.3671	3732.42	67.0245	3732.42	46.3142	3732.42	59.6921
3864.26	89.3187	3864.26	88.3166	3864.26	89.4273	3864.26	87.6443	3864.26	88.4802	3864.26	86.2773	3864.26	86.3216	3864.26	84.7434	3864.26	85.7863	3864.26	82.6941	3864.26	82.174	3864.26	80.4192	3864.26	81.2482	3864.26	78.5579	3864.26	81.5214	3864.26	76.4648	3864.26	81.1864	3864.26	74.5286	3864.26	76.9285	3864.26	72.4148	3864.26	63.9622	3864.26	71.3187	3864.26	66.4993	3864.26	69.7434	3864.26	54.0315	3864.26	66.0543	3864.26	54.8269	3864.26	67.6498	3864.26	57.2769	3864.26	65.0136	3864.26	57.4285	3864.26	62.0273	3864.26	60.6666	3864.26	63.6703	3864.26	42.4542	3864.26	62.6086
4000.49	88.7832	4000.49	87.9388	4000.49	88.5779	4000.49	87.9603	4000.49	87.8175	4000.49	86.3077	4000.49	86.1523	4000.49	84.5533	4000.49	85.589	4000.49	82.7421	4000.49	82.1156	4000.49	81.3477	4000.49	79.5123	4000.49	79.1735	4000.49	80.0711	4000.49	76.2327	4000.49	80.6168	4000.49	73.6238	4000.49	77.5107	4000.49	71.6554	4000.49	67.9267	4000.49	69.9884	4000.49	64.4616	4000.49	69.4803	4000.49	56.3728	4000.49	66.1264	4000.49	59.4053	4000.49	67.9989	4000.49	54.965	4000.49	67.4817	4000.49	48.4519	4000.49	65.2125	4000.49	60.3024	4000.49	64.9683	4000.49	48.6661	4000.49	65.9471
4141.11	89.0817	4141.11	88.0111	4141.11	89.1932	4141.11	87.3508	4141.11	87.8876	4141.11	86.1629	4141.11	85.4428	4141.11	84.5692	4141.11	84.7343	4141.11	82.6678	4141.11	82.947	4141.11	80.8126	4141.11	80.3077	4141.11	78.1671	4141.11	81.025	4141.11	76.1836	4141.11	79.9877	4141.11	73.9757	4141.11	78.5016	4141.11	72.5218	4141.11	67.9695	4141.11	69.9183	4141.11	64.4756	4141.11	69.2371	4141.11	54.713	4141.11	66.5718	4141.11	47.8083	4141.11	67.1936	4141.11	57.9164	4141.11	63.4144	4141.11	57.2731	4141.11	64.3201	4141.11	59.829	4141.11	60.4902	4141.11	59.2974	4141.11	59.3438
4287.6	88.6281	4287.6	88.0623	4287.6	88.7039	4287.6	87.4611	4287.6	87.8849	4287.6	85.7	4287.6	85.5808	4287.6	84.5005	4287.6	84.2876	4287.6	82.6949	4287.6	83.1343	4287.6	81.1115	4287.6	79.1583	4287.6	77.6296	4287.6	79.96	4287.6	75.6759	4287.6	79.5166	4287.6	72.9407	4287.6	78.1935	4287.6	71.6631	4287.6	66.1243	4287.6	69.3256	4287.6	65.4936	4287.6	68.0219	4287.6	50.963	4287.6	65.3941	4287.6	53.94	4287.6	68.9637	4287.6	56.9003	4287.6	62.6321	4287.6	59.8637	4287.6	65.4936	4287.6	59.7347	4287.6	63.2507	4287.6	57.1642	4287.6	50.7607
4438.48	88.7228	4438.48	88.0816	4438.48	88.7967	4438.48	86.9416	4438.48	87.4267	4438.48	85.8252	4438.48	85.0278	4438.48	84.2972	4438.48	83.2678	4438.48	82.5486	4438.48	83.3689	4438.48	79.7376	4438.48	78.5459	4438.48	77.6832	4438.48	80.4383	4438.48	75.594	4438.48	78.385	4438.48	73.9057	4438.48	77.1161	4438.48	70.8083	4438.48	65.9129	4438.48	69.6651	4438.48	65.7611	4438.48	68.3077	4438.48	60.8696	4438.48	63.9457	4438.48	47.0787	4438.48	67.0236	4438.48	44.3003	4438.48	64.2142	4438.48	55.4828	4438.48	61.1553	4438.48	52.6609	4438.48	62.2908	4438.48	51.9417	4438.48	53.6772
4595.21	88.335	4595.21	88.0369	4595.21	88.7441	4595.21	86.5912	4595.21	87.3482	4595.21	85.6456	4595.21	85.5898	4595.21	83.5279	4595.21	83.6873	4595.21	81.6061	4595.21	83.0448	4595.21	79.3745	4595.21	77.0744	4595.21	77.459	4595.21	79.3727	4595.21	75.1097	4595.21	78.2213	4595.21	73.0687	4595.21	77.2605	4595.21	71.0034	4595.21	65.0589	4595.21	68.4212	4595.21	62.224	4595.21	67.2173	4595.21	59.1544	4595.21	64.2519	4595.21	50.2969	4595.21	64.9616	4595.21	49.4177	4595.21	64.4021	4595.21	56.7766	4595.21	62.4209	4595.21	59.0517	4595.21	61.4572	4595.21	47.9391	4595.21	59.7166
4756.35	88.42	4756.35	87.3656	4756.35	88.9378	4756.35	86.267	4756.35	87.1618	4756.35	85.8852	4756.35	85.4992	4756.35	84.4471	4756.35	83.7064	4756.35	81.755	4756.35	83.7495	4756.35	80.3208	4756.35	77.7936	4756.35	78.2679	4756.35	79.4164	4756.35	75.439	4756.35	77.2604	4756.35	73.785	4756.35	78.2325	4756.35	70.4593	4756.35	62.6008	4756.35	69.6183	4756.35	64.7986	4756.35	67.0114	4756.35	56.4927	4756.35	64.1517	4756.35	46.8147	4756.35	64.8425	4756.35	52.9213	4756.35	64.1283	4756.35	56.8598	4756.35	63.4001	4756.35	53.6298	4756.35	62.8491	4756.35	52.5213	4756.35	57.0471
4924.8	88.5734	4924.8	87.7952	4924.8	88.2162	4924.8	86.7323	4924.8	87.1042	4924.8	84.5167	4924.8	85.5871	4924.8	83.3424	4924.8	83.3452	4924.8	82.0808	4924.8	83.0404	4924.8	80.2146	4924.8	77.0505	4924.8	77.4079	4924.8	78.0878	4924.8	74.3263	4924.8	78.149	4924.8	72.983	4924.8	77.1523	4924.8	69.9154	4924.8	60.5732	4924.8	68.7859	4924.8	62.5484	4924.8	66.498	4924.8	43.6192	4924.8	63.4838	4924.8	55.2035	4924.8	64.7399	4924.8	43.6335	4924.8	61.1865	4924.8	39.8784	4924.8	59.9149	4924.8	44.1163	4924.8	61.6307	4924.8	56.2835	4924.8	52.3164
5097.66	88.6102	5097.66	87.4894	5097.66	88.7776	5097.66	86.8905	5097.66	87.8372	5097.66	85.4118	5097.66	86.016	5097.66	83.7869	5097.66	84.9538	5097.66	82.1625	5097.66	83.7636	5097.66	79.7212	5097.66	78.0443	5097.66	76.9642	5097.66	77.1255	5097.66	75.0877	5097.66	77.873	5097.66	72.7395	5097.66	77.3059	5097.66	70.029	5097.66	62.3311	5097.66	69.1618	5097.66	58.9661	5097.66	66.2697	5097.66	36.0048	5097.66	64.2851	5097.66	47.812	5097.66	64.5695	5097.66	50.9159	5097.66	61.5654	5097.66	50.8569	5097.66	60.0711	5097.66	56.3399	5097.66	58.9403	5097.66	49.0207	5097.66	55.3672
5277.83	89.3197	5277.83	87.8674	5277.83	89.0986	5277.83	86.3795	5277.83	87.217	5277.83	85.6939	5277.83	85.5096	5277.83	84.4241	5277.83	83.8158	5277.83	82.3187	5277.83	82.367	5277.83	79.5717	5277.83	78.9646	5277.83	77.4827	5277.83	77.7356	5277.83	74.5526	5277.83	78.353	5277.83	71.9574	5277.83	74.3502	5277.83	70.6477	5277.83	57.8767	5277.83	68.7032	5277.83	52.1252	5277.83	66.6869	5277.83	50.7884	5277.83	65.8419	5277.83	42.4333	5277.83	64.2816	5277.83	31.0072	5277.83	60.449	5277.83	44.4937	5277.83	58.2086	5277.83	56.6342	5277.83	56.9999	5277.83	54.2679	5277.83	55.4057
5463.87	88.8054	5463.87	88.0598	5463.87	88.1211	5463.87	87.6353	5463.87	86.6763	5463.87	85.0717	5463.87	84.9855	5463.87	84.0312	5463.87	84.1101	5463.87	82.6135	5463.87	81.3527	5463.87	80.0717	5463.87	77.4586	5463.87	77.3468	5463.87	76.1297	5463.87	74.34	5463.87	79.1625	5463.87	71.9726	5463.87	75.3532	5463.87	70.2834	5463.87	55.8639	5463.87	68.3923	5463.87	55.1845	5463.87	67.0003	5463.87	50.9914	5463.87	65.009	5463.87	48.3623	5463.87	63.393	5463.87	50.8165	5463.87	59.6904	5463.87	54.6688	5463.87	59.3608	5463.87	55.0929	5463.87	54.9385	5463.87	53.2203	5463.87	59.1004
5657.23	88.7877	5657.23	87.5253	5657.23	88.6615	5657.23	86.6834	5657.23	87.7793	5657.23	84.6257	5657.23	86.4186	5657.23	84.5569	5657.23	84.8301	5657.23	82.3139	5657.23	83.1237	5657.23	80.0383	5657.23	79.2611	5657.23	75.7998	5657.23	76.5905	5657.23	74.9796	5657.23	77.9687	5657.23	72.9265	5657.23	74.7571	5657.23	70.4664	5657.23	61.5744	5657.23	68.3724	5657.23	59.7707	5657.23	68.5745	5657.23	50.8811	5657.23	65.88	5657.23	52.897	5657.23	64.1576	5657.23	43.6666	5657.23	60.2077	5657.23	54.8285	5657.23	59.2783	5657.23	57.0779	5657.23	55.9921	5657.23	55.5704	5657.23	60.6915
5856.45	89.0103	5856.45	87.9418	5856.45	88.4613	5856.45	85.2985	5856.45	86.6969	5856.45	85.5907	5856.45	85.349	5856.45	83.8945	5856.45	82.8124	5856.45	81.5046	5856.45	82.3719	5856.45	78.1095	5856.45	78.6778	5856.45	77.5679	5856.45	77.1662	5856.45	74.7006	5856.45	76.7986	5856.45	72.32	5856.45	73.6623	5856.45	70.1723	5856.45	60.8548	5856.45	68.3743	5856.45	61.2496	5856.45	65.7203	5856.45	56.9179	5856.45	65.4799	5856.45	45.5538	5856.45	62.9083	5856.45	30.6044	5856.45	59.0621	5856.45	46.7772	5856.45	58.7127	5856.45	53.7851	5856.45	60.9708	5856.45	44.7171	5856.45	54.7513
6062.99	88.6472	6062.99	87.8708	6062.99	88.1082	6062.99	85.7231	6062.99	86.5658	6062.99	85.1303	6062.99	85.4502	6062.99	83.6039	6062.99	82.6881	6062.99	81.111	6062.99	81.7704	6062.99	78.8542	6062.99	77.8675	6062.99	76.9261	6062.99	75.4511	6062.99	74.2207	6062.99	77.7607	6062.99	71.7913	6062.99	72.589	6062.99	69.1793	6062.99	57.0317	6062.99	67.8193	6062.99	48.3607	6062.99	65.5255	6062.99	45.9208	6062.99	65.4291	6062.99	51.2026	6062.99	64.0849	6062.99	49.0946	6062.99	59.1088	6062.99	45.419	6062.99	60.0013	6062.99	53.9304	6062.99	59.4288	6062.99	48.7152	6062.99	40.9341
6276.86	88.3022	6276.86	87.8246	6276.86	87.9049	6276.86	86.2298	6276.86	86.7529	6276.86	84.4325	6276.86	86.0783	6276.86	83.9435	6276.86	82.9092	6276.86	80.9284	6276.86	81.7064	6276.86	79.4581	6276.86	78.6834	6276.86	77.1072	6276.86	74.4069	6276.86	74.631	6276.86	77.4946	6276.86	71.837	6276.86	72.586	6276.86	69.9974	6276.86	58.3149	6276.86	67.9495	6276.86	51.3215	6276.86	65.4444	6276.86	51.4628	6276.86	66.0594	6276.86	45.304	6276.86	63.8657	6276.86	54.3611	6276.86	59.0717	6276.86	46.0634	6276.86	59.4907	6276.86	45.068	6276.86	54.5745	6276.86	59.5278	6276.86	55.8862
6498.05	87.9344	6498.05	87.482	6498.05	87.3716	6498.05	85.6959	6498.05	86.7016	6498.05	85.6918	6498.05	85.3307	6498.05	82.9174	6498.05	83.3601	6498.05	81.6809	6498.05	81.4641	6498.05	79.4911	6498.05	79.6824	6498.05	77.2001	6498.05	74.2613	6498.05	74.3582	6498.05	76.7859	6498.05	71.9713	6498.05	72.4877	6498.05	70.0693	6498.05	58.0384	6498.05	65.751	6498.05	52.2261	6498.05	63.991	6498.05	50.9159	6498.05	65.8937	6498.05	51.4164	6498.05	62.9817	6498.05	56.1561	6498.05	54.9828	6498.05	44.4975	6498.05	58.7476	6498.05	49.1958	6498.05	56.4719	6498.05	59.4045	6498.05	58.685
6726.56	87.9301	6726.56	87.0907	6726.56	87.5821	6726.56	86.6048	6726.56	86.8792	6726.56	85.1836	6726.56	85.4702	6726.56	82.8091	6726.56	83.4818	6726.56	82.083	6726.56	81.9776	6726.56	79.8731	6726.56	79.4246	6726.56	76.9276	6726.56	73.5247	6726.56	73.6941	6726.56	76.0515	6726.56	70.2796	6726.56	71.8298	6726.56	67.9222	6726.56	58.924	6726.56	66.0423	6726.56	54.7661	6726.56	63.7372	6726.56	50.4215	6726.56	65.9087	6726.56	51.4031	6726.56	61.5101	6726.56	57.7444	6726.56	58.0989	6726.56	46.0496	6726.56	59.3657	6726.56	52.0058	6726.56	59.0998	6726.56	52.9868	6726.56	39.0743
6963.87	88.1004	6963.87	87.6205	6963.87	87.3193	6963.87	86.6218	6963.87	86.9473	6963.87	84.3641	6963.87	85.3264	6963.87	83.7354	6963.87	83.4177	6963.87	81.753	6963.87	82.0479	6963.87	79.5998	6963.87	79.229	6963.87	75.879	6963.87	74.8378	6963.87	73.2701	6963.87	76.5472	6963.87	70.6125	6963.87	71.836	6963.87	68.4495	6963.87	54.7073	6963.87	66.7255	6963.87	51.4827	6963.87	64.8454	6963.87	52.5904	6963.87	63.926	6963.87	39.6444	6963.87	62.1977	6963.87	57.6654	6963.87	54.045	6963.87	50.4762	6963.87	56.7954	6963.87	48.4246	6963.87	52.6449	6963.87	54.2573	6963.87	57.4954
7209.96	87.7045	7209.96	87.4712	7209.96	86.7758	7209.96	86.3486	7209.96	86.7247	7209.96	85.0351	7209.96	85.4441	7209.96	83.2254	7209.96	83.7658	7209.96	81.9553	7209.96	81.5672	7209.96	78.6145	7209.96	80.046	7209.96	76.3449	7209.96	74.7442	7209.96	73.1877	7209.96	75.8349	7209.96	70.9388	7209.96	71.604	7209.96	68.3365	7209.96	51.6206	7209.96	65.4561	7209.96	53.3911	7209.96	62.5412	7209.96	48.0142	7209.96	63.6087	7209.96	55.014	7209.96	61.0621	7209.96	42.8114	7209.96	55.071	7209.96	40.8688	7209.96	58.5158	7209.96	52.045	7209.96	59.0695	7209.96	50.7454	7209.96	51.7452
7464.84	87.6642	7464.84	87.637	7464.84	87.1468	7464.84	86.6426	7464.84	86.8769	7464.84	84.8939	7464.84	85.5518	7464.84	83.4117	7464.84	83.6421	7464.84	81.9679	7464.84	81.466	7464.84	79.2007	7464.84	79.6943	7464.84	75.6285	7464.84	73.8094	7464.84	73.1367	7464.84	75.3143	7464.84	70.181	7464.84	69.6863	7464.84	68.2883	7464.84	47.619	7464.84	66.6148	7464.84	56.2262	7464.84	64.4162	7464.84	50.3886	7464.84	63.9051	7464.84	53.6573	7464.84	61.1002	7464.84	53.4003	7464.84	56.4942	7464.84	49.6883	7464.84	57.2828	7464.84	49.0487	7464.84	56.4239	7464.84	58.5442	7464.84	49.7102
7727.05	87.6082	7727.05	87.6857	7727.05	87.5327	7727.05	86.382	7727.05	86.9875	7727.05	84.4707	7727.05	85.3523	7727.05	83.8444	7727.05	83.5538	7727.05	81.7486	7727.05	81.4106	7727.05	78.8416	7727.05	80.012	7727.05	76.4011	7727.05	73.9008	7727.05	73.9045	7727.05	74.2782	7727.05	70.9972	7727.05	68.8	7727.05	68.4059	7727.05	55.8995	7727.05	65.5139	7727.05	60.4418	7727.05	64.0868	7727.05	52.7682	7727.05	63.2333	7727.05	40.5013	7727.05	61.9879	7727.05	33.5811	7727.05	54.4237	7727.05	41.9688	7727.05	57.9234	7727.05	51.321	7727.05	60.647	7727.05	57.2565	7727.05	53.431
7999.51	87.0396	7999.51	87.458	7999.51	87.3229	7999.51	86.3685	7999.51	86.7913	7999.51	84.6918	7999.51	85.6892	7999.51	83.4552	7999.51	83.6225	7999.51	81.6014	7999.51	82.1055	7999.51	79.1237	7999.51	79.9418	7999.51	76.2537	7999.51	74.0117	7999.51	73.2041	7999.51	74.1907	7999.51	70.2979	7999.51	69.2416	7999.51	67.9319	7999.51	50.7568	7999.51	66.297	7999.51	57.7427	7999.51	63.7586	7999.51	54.669	7999.51	63.3396	7999.51	43.3983	7999.51	61.7536	7999.51	53.382	7999.51	57.1491	7999.51	43.7406	7999.51	58.1324	7999.51	46.1571	7999.51	55.109	7999.51	56.0164	7999.51	43.9558
8282.23	87.17	8282.23	87.8978	8282.23	87.7941	8282.23	86.6653	8282.23	86.9922	8282.23	84.8409	8282.23	85.8581	8282.23	83.737	8282.23	84.1036	8282.23	81.4256	8282.23	82.0141	8282.23	79.1974	8282.23	79.8109	8282.23	76.0606	8282.23	74.4565	8282.23	73.3265	8282.23	73.9368	8282.23	70.2922	8282.23	69.0827	8282.23	67.6424	8282.23	56.6264	8282.23	65.7426	8282.23	62.4767	8282.23	64.2265	8282.23	56.546	8282.23	62.9465	8282.23	52.8267	8282.23	61.6342	8282.23	42.1461	8282.23	56.4169	8282.23	43.8387	8282.23	59.3169	8282.23	49.8806	8282.23	57.0087	8282.23	59.9031	8282.23	52.6195
8573.73	87.3535	8573.73	88.0883	8573.73	87.8851	8573.73	86.7946	8573.73	87.059	8573.73	85.3701	8573.73	85.8723	8573.73	83.6461	8573.73	84.4139	8573.73	81.9753	8573.73	81.8333	8573.73	79.013	8573.73	79.4532	8573.73	76.0705	8573.73	74.7432	8573.73	73.0516	8573.73	73.3333	8573.73	70.4976	8573.73	69.9187	8573.73	67.7851	8573.73	57.3074	8573.73	65.4014	8573.73	60.0549	8573.73	64.0725	8573.73	52.2547	8573.73	62.5396	8573.73	45.9808	8573.73	61.6355	8573.73	52.3707	8573.73	54.9357	8573.73	43.4009	8573.73	59.896	8573.73	42.4153	8573.73	55.0811	8573.73	53.4014	8573.73	56.6228
8876.95	87.064	8876.95	87.6608	8876.95	87.6578	8876.95	86.2876	8876.95	86.4804	8876.95	85.2945	8876.95	85.4783	8876.95	83.359	8876.95	84.2224	8876.95	81.4448	8876.95	81.6228	8876.95	78.3975	8876.95	78.5914	8876.95	75.8583	8876.95	74.8519	8876.95	73.0662	8876.95	71.7704	8876.95	69.7567	8876.95	67.5619	8876.95	67.0974	8876.95	59.3251	8876.95	64.5948	8876.95	61.4032	8876.95	62.8372	8876.95	48.6986	8876.95	61.4252	8876.95	50.593	8876.95	58.6946	8876.95	49.8274	8876.95	55.5722	8876.95	44.7603	8876.95	60.7896	8876.95	50.915	8876.95	60.4142	8876.95	53.8775	8876.95	53.0721
9188.96	86.1174	9188.96	86.6778	9188.96	86.7775	9188.96	85.782	9188.96	85.585	9188.96	84.4095	9188.96	84.9362	9188.96	82.5514	9188.96	83.2022	9188.96	80.2156	9188.96	80.0564	9188.96	77.8045	9188.96	78.2581	9188.96	75.2595	9188.96	73.4032	9188.96	71.9827	9188.96	70.1599	9188.96	68.5916	9188.96	64.9597	9188.96	65.7747	9188.96	57.546	9188.96	63.0935	9188.96	60.3929	9188.96	61.3728	9188.96	55.1933	9188.96	59.9403	9188.96	47.0687	9188.96	58.014	9188.96	36.4032	9188.96	56.0858	9188.96	38.9895	9188.96	58.3751	9188.96	42.1034	9188.96	59.2472	9188.96	55.1676	9188.96	43.1205
9514.16	85.6784	9514.16	85.93	9514.16	86.1934	9514.16	85.4885	9514.16	85.4919	9514.16	83.664	9514.16	84.4641	9514.16	82.0409	9514.16	82.7601	9514.16	79.8993	9514.16	78.8962	9514.16	77.6463	9514.16	78.1592	9514.16	75.0416	9514.16	72.6609	9514.16	71.2636	9514.16	67.36	9514.16	67.4748	9514.16	62.3397	9514.16	65.4516	9514.16	54.3709	9514.16	61.9322	9514.16	60.1853	9514.16	60.0284	9514.16	50.0334	9514.16	60.0221	9514.16	49.7443	9514.16	55.6684	9514.16	45.4698	9514.16	55.7499	9514.16	40.8784	9514.16	57.4793	9514.16	31.5539	9514.16	57.7148	9514.16	53.7528	9514.16	47.8142
9849.61	85.7042	9849.61	85.5381	9849.61	85.7458	9849.61	85.6557	9849.61	85.3589	9849.61	83.4646	9849.61	83.9907	9849.61	81.9728	9849.61	82.5193	9849.61	80.2686	9849.61	79.5994	9849.61	77.927	9849.61	78.1861	9849.61	74.248	9849.61	72.4471	9849.61	70.4506	9849.61	66.623	9849.61	67.3889	9849.61	63.0563	9849.61	64.9575	9849.61	53.222	9849.61	62.2735	9849.61	51.7737	9849.61	60.4795	9849.61	50.5293	9849.61	58.5328	9849.61	49.9055	9849.61	56.4981	9849.61	43.0771	9849.61	53.279	9849.61	41.0847	9849.61	57.5297	9849.61	32.4074	9849.61	58.1855	9849.61	54.9338	9849.61	39.2035
10196.8	85.6462	10196.8	85.5615	10196.8	85.53	10196.8	84.8345	10196.8	84.9264	10196.8	83.2774	10196.8	83.3542	10196.8	80.8563	10196.8	81.9742	10196.8	79.3673	10196.8	79.1901	10196.8	76.5023	10196.8	76.7719	10196.8	71.9969	10196.8	71.9206	10196.8	69.317	10196.8	65.9073	10196.8	66.044	10196.8	63.2628	10196.8	63.7774	10196.8	53.5399	10196.8	60.6577	10196.8	47.94	10196.8	59.3012	10196.8	54.6538	10196.8	57.765	10196.8	49.9116	10196.8	55.6847	10196.8	46.329	10196.8	50.5144	10196.8	45.0567	10196.8	54.521	10196.8	51.2352	10196.8	54.9151	10196.8	57.0075	10196.8	47.349
10555.7	84.9836	10555.7	84.4707	10555.7	84.3548	10555.7	84.2016	10555.7	84.3044	10555.7	82.4028	10555.7	82.6017	10555.7	79.4451	10555.7	80.7854	10555.7	78.1813	10555.7	78.3846	10555.7	74.3295	10555.7	74.5264	10555.7	71.0928	10555.7	71.6477	10555.7	68.2861	10555.7	64.2246	10555.7	65.1003	10555.7	62.3876	10555.7	62.167	10555.7	54.0403	10555.7	59.6732	10555.7	45.6839	10555.7	57.7572	10555.7	53.5266	10555.7	55.9597	10555.7	49.8016	10555.7	51.7611	10555.7	47.1937	10555.7	50.7596	10555.7	45.0985	10555.7	53.51	10555.7	39.6426	10555.7	55.7129	10555.7	53.2286	10555.7	40.6889
10927.7	86.232	10927.7	86.0372	10927.7	86.0487	10927.7	85.322	10927.7	85.7918	10927.7	83.6377	10927.7	84.104	10927.7	80.8061	10927.7	81.7785	10927.7	79.0513	10927.7	79.979	10927.7	76.0001	10927.7	75.6894	10927.7	73.4213	10927.7	73.2743	10927.7	69.9524	10927.7	67.0788	10927.7	67.1172	10927.7	60.2717	10927.7	63.5043	10927.7	54.4956	10927.7	60.7876	10927.7	52.8505	10927.7	58.721	10927.7	57.8296	10927.7	55.91	10927.7	53.9004	10927.7	53.751	10927.7	47.7718	10927.7	48.8808	10927.7	46.8227	10927.7	50.4687	10927.7	53.1317	10927.7	52.5962	10927.7	52.4115	10927.7	27.6325
11313	87.3604	11313	87.3161	11313	87.3334	11313	86.9709	11313	87.1396	11313	85.0892	11313	85.752	11313	82.7961	11313	83.4104	11313	80.3553	11313	81.3645	11313	78.1748	11313	77.7212	11313	74.8036	11313	74.9273	11313	70.9629	11313	68.2366	11313	68.1488	11313	61.9297	11313	64.291	11313	54.9064	11313	61.9501	11313	54.8255	11313	59.9375	11313	56.5012	11313	58.3887	11313	54.3171	11313	53.8276	11313	51.6673	11313	51.8396	11313	52.6993	11313	56.3573	11313	54.5237	11313	54.0972	11313	52.714	11313	52.91
11712.9	88.2209	11712.9	88.0449	11712.9	88.0514	11712.9	87.3429	11712.9	87.589	11712.9	85.6425	11712.9	85.9578	11712.9	83.4512	11712.9	83.5986	11712.9	80.878	11712.9	80.6132	11712.9	78.2223	11712.9	78.3069	11712.9	75.1713	11712.9	74.4568	11712.9	70.8693	11712.9	68.4991	11712.9	68.2423	11712.9	62.3162	11712.9	64.3634	11712.9	54.4897	11712.9	62.525	11712.9	57.3248	11712.9	59.7912	11712.9	52.5476	11712.9	57.357	11712.9	47.5809	11712.9	53.1719	11712.9	43.9047	11712.9	48.9141	11712.9	44.6334	11712.9	50.849	11712.9	51.5981	11712.9	44.7875	11712.9	54.0403	11712.9	44.7893
12126	87.848	12126	87.6522	12126	87.8904	12126	87.6202	12126	87.5705	12126	85.3271	12126	85.6529	12126	82.6574	12126	83.5274	12126	80.7162	12126	80.9992	12126	77.6361	12126	77.7933	12126	74.2656	12126	74.5301	12126	70.9327	12126	69.346	12126	67.1875	12126	61.2765	12126	64.2088	12126	51.4461	12126	61.5205	12126	51.1489	12126	58.3109	12126	39.6154	12126	55.6351	12126	45.4742	12126	52.3145	12126	33.626	12126	46.0799	12126	51.7899	12126	49.0516	12126	51.3201	12126	50.9768	12126	52.0503	12126	53.4841
12553.7	88.2847	12553.7	88.1552	12553.7	88.0039	12553.7	87.72	12553.7	87.5328	12553.7	85.772	12553.7	85.8583	12553.7	82.5549	12553.7	83.3439	12553.7	80.636	12553.7	80.4756	12553.7	77.852	12553.7	78.0459	12553.7	73.6803	12553.7	74.7928	12553.7	70.2443	12553.7	67.5328	12553.7	66.7172	12553.7	58.3872	12553.7	63.4543	12553.7	49.7935	12553.7	61.4134	12553.7	53.4764	12553.7	57.6444	12553.7	50.1061	12553.7	55.5458	12553.7	50.3007	12553.7	51.8242	12553.7	50.329	12553.7	45.6083	12553.7	51.373	12553.7	47.7953	12553.7	49.1886	12553.7	46.1979	12553.7	41.9053	12553.7	44.9907
12996.1	88.2828	12996.1	88.2478	12996.1	87.9201	12996.1	87.4926	12996.1	87.8816	12996.1	85.9515	12996.1	86.0806	12996.1	83.0196	12996.1	83.8566	12996.1	80.2479	12996.1	80.7016	12996.1	77.6571	12996.1	78.0882	12996.1	73.6868	12996.1	74.7642	12996.1	70.0373	12996.1	67.0758	12996.1	67.4054	12996.1	56.6873	12996.1	63.4201	12996.1	53.2582	12996.1	61.7402	12996.1	50.5697	12996.1	57.8013	12996.1	45.4649	12996.1	55.02	12996.1	50.4591	12996.1	52.1994	12996.1	50.149	12996.1	41.3618	12996.1	46.7508	12996.1	46.1836	12996.1	37.7549	12996.1	49.3771	12996.1	39.9172	12996.1	52.1816
13454.6	88.6834	13454.6	88.4255	13454.6	88.4867	13454.6	87.7424	13454.6	87.9676	13454.6	85.9954	13454.6	86.312	13454.6	82.7764	13454.6	83.8875	13454.6	79.8982	13454.6	80.2859	13454.6	77.0008	13454.6	77.7152	13454.6	73.9639	13454.6	73.6645	13454.6	70.3802	13454.6	68.5093	13454.6	66.9534	13454.6	55.2886	13454.6	63.217	13454.6	56.4826	13454.6	61.76	13454.6	57.4585	13454.6	58.3507	13454.6	45.873	13454.6	54.798	13454.6	46.261	13454.6	50.0497	13454.6	28.1402	13454.6	46.2591	13454.6	40.0902	13454.6	45.367	13454.6	53.4428	13454.6	46.2881	13454.6	49.5867	13454.6	50.1222
13929.2	89.2712	13929.2	89.1892	13929.2	88.8998	13929.2	88.3276	13929.2	88.6018	13929.2	86.5941	13929.2	86.8066	13929.2	83.1102	13929.2	84.1559	13929.2	80.418	13929.2	80.2339	13929.2	77.5716	13929.2	77.4039	13929.2	74.8472	13929.2	75.2239	13929.2	71.0125	13929.2	70.0349	13929.2	67.0575	13929.2	54.3965	13929.2	63.7498	13929.2	55.6107	13929.2	61.7474	13929.2	56.2582	13929.2	57.2757	13929.2	51.7237	13929.2	54.4579	13929.2	48.5757	13929.2	46.2017	13929.2	37.6926	13929.2	44.7766	13929.2	34.9724	13929.2	44.4175	13929.2	43.8611	13929.2	44.692	13929.2	39.8101	13929.2	44.2459
14419.9	89.8361	14419.9	89.7838	14419.9	89.7161	14419.9	88.8127	14419.9	89.0562	14419.9	86.9926	14419.9	87.2831	14419.9	83.2957	14419.9	84.1132	14419.9	80.2818	14419.9	81.0796	14419.9	77.9764	14419.9	78.1258	14419.9	74.3006	14419.9	76.143	14419.9	70.6861	14419.9	70.2041	14419.9	66.5415	14419.9	54.4747	14419.9	64.1873	14419.9	56.6488	14419.9	61.1444	14419.9	53.8293	14419.9	56.1579	14419.9	50.0185	14419.9	53.0023	14419.9	40.8878	14419.9	45.3133	14419.9	42.4506	14419.9	45.795	14419.9	41.8536	14419.9	42.5502	14419.9	44.0183	14419.9	41.7683	14419.9	43.2758	14419.9	42.8516
14928.2	90.7428	14928.2	90.7152	14928.2	90.5374	14928.2	89.7306	14928.2	89.8832	14928.2	87.4528	14928.2	87.8513	14928.2	84.1368	14928.2	84.6201	14928.2	80.5733	14928.2	81.2795	14928.2	78.792	14928.2	78.462	14928.2	75.0285	14928.2	75.654	14928.2	71.3399	14928.2	70.4939	14928.2	67.4321	14928.2	56.969	14928.2	64.8935	14928.2	54.0927	14928.2	61.7946	14928.2	56.7015	14928.2	55.9621	14928.2	43.433	14928.2	55.1565	14928.2	45.0111	14928.2	43.3917	14928.2	47.6494	14928.2	48.2789	14928.2	48.3163	14928.2	41.4296	14928.2	36.9904	14928.2	43.8795	14928.2	25.6362	14928.2	49.5907
15455.6	90.8451	15455.6	90.8793	15455.6	90.4839	15455.6	89.4579	15455.6	89.4242	15455.6	87.2548	15455.6	87.5052	15455.6	83.7896	15455.6	84.1686	15455.6	79.8158	15455.6	80.8532	15455.6	77.7017	15455.6	78.0209	15455.6	74.1829	15455.6	74.0451	15455.6	70.1165	15455.6	71.069	15455.6	66.5497	15455.6	55.8289	15455.6	64.1072	15455.6	52.4869	15455.6	60.6617	15455.6	57.4879	15455.6	55.5653	15455.6	44.3741	15455.6	54.3474	15455.6	41.5394	15455.6	49.0998	15455.6	48.3141	15455.6	35.4636	15455.6	44.2444	15455.6	39.016	15455.6	45.201	15455.6	49.2706	15455.6	35.4414	15455.6	50.3619
16000.5	90.2431	16000.5	90.2094	16000.5	90.3612	16000.5	88.7403	16000.5	89.2896	16000.5	86.1682	16000.5	87.5472	16000.5	82.6379	16000.5	84.3273	16000.5	78.8355	16000.5	80.329	16000.5	76.1713	16000.5	77.884	16000.5	73.1656	16000.5	74.2982	16000.5	70.1214	16000.5	71.6059	16000.5	65.925	16000.5	58.3497	16000.5	63.5486	16000.5	52.2074	16000.5	60.1271	16000.5	54.0171	16000.5	55.3233	16000.5	43.3761	16000.5	52.8171	16000.5	46.2375	16000.5	49.0784	16000.5	48.5502	16000.5	34.6846	16000.5	35.1694	16000.5	32.1141	16000.5	45.2357	16000.5	49.7796	16000.5	46.3502	16000.5	41.4504
16564.5	90.4888	16564.5	90.5753	16564.5	90.3213	16564.5	89.4726	16564.5	89.2656	16564.5	86.6852	16564.5	87.2916	16564.5	82.8399	16564.5	84.2734	16564.5	79.7827	16564.5	79.9545	16564.5	77.1479	16564.5	76.6977	16564.5	75.049	16564.5	74.5442	16564.5	71.2516	16564.5	71.0898	16564.5	66.5289	16564.5	58.0087	16564.5	64.0744	16564.5	54.6169	16564.5	60.2642	16564.5	53.5719	16564.5	55.7632	16564.5	43.5558	16564.5	53.6599	16564.5	48.1723	16564.5	48.1753	16564.5	52.8348	16564.5	37.9276	16564.5	42.463	16564.5	35.9661	16564.5	51.6249	16564.5	49.4644	16564.5	39.7896	16564.5	42.8642
17148.9	89.9075	17148.9	90.0983	17148.9	89.6231	17148.9	88.8036	17148.9	88.6145	17148.9	85.8016	17148.9	86.8727	17148.9	81.6994	17148.9	83.6745	17148.9	78.6361	17148.9	79.9738	17148.9	75.8011	17148.9	76.6488	17148.9	73.4968	17148.9	74.8678	17148.9	68.0677	17148.9	70.8941	17148.9	64.8291	17148.9	55.2811	17148.9	62.0782	17148.9	53.6823	17148.9	57.2461	17148.9	50.9852	17148.9	52.2082	17148.9	44.6421	17148.9	51.9005	17148.9	48.1926	17148.9	42.9662	17148.9	49.4429	17148.9	33.1084	17148.9	37.4296	17148.9	28.336	17148.9	49.1246	17148.9	51.3535	17148.9	35.3245	17148.9	40.4505
17752.4	89.7913	17752.4	89.7342	17752.4	89.7178	17752.4	88.0926	17752.4	88.8895	17752.4	85.06	17752.4	87.1404	17752.4	80.92	17752.4	83.597	17752.4	77.294	17752.4	79.3117	17752.4	76.1736	17752.4	75.9039	17752.4	71.5329	17752.4	74.0183	17752.4	68.828	17752.4	69.3692	17752.4	65.1145	17752.4	52.5673	17752.4	62.552	17752.4	50.7114	17752.4	57.066	17752.4	39.2024	17752.4	51.0739	17752.4	43.4539	17752.4	52.4007	17752.4	48.0845	17752.4	48.7441	17752.4	45.4638	17752.4	48.855	17752.4	42.7821	17752.4	46.6897	17752.4	43.1682	17752.4	57.8623	17752.4	50.0949	17752.4	58.9995
18379.4	91.7438	18379.4	91.1033	18379.4	92.1381	18379.4	89.2175	18379.4	90.3715	18379.4	86.5909	18379.4	88.3925	18379.4	83.0681	18379.4	84.949	18379.4	79.8809	18379.4	80.7265	18379.4	77.3854	18379.4	77.7006	18379.4	75.6362	18379.4	74.5063	18379.4	70.4128	18379.4	71.6509	18379.4	66.3838	18379.4	55.8224	18379.4	62.8307	18379.4	52.0302	18379.4	57.7535	18379.4	55.9273	18379.4	48.4277	18379.4	41.6839	18379.4	49.5277	18379.4	46.4899	18379.4	51.0285	18379.4	48.3254	18379.4	46.71	18379.4	38.6529	18379.4	55.0747	18379.4	53.0911	18379.4	65.0627	18379.4	52.5248	18379.4	70.0513
19026.9	94.582	19026.9	93.6382	19026.9	94.659	19026.9	91.92	19026.9	92.6408	19026.9	89.4387	19026.9	90.8056	19026.9	86.5938	19026.9	87.2323	19026.9	83.9324	19026.9	82.8312	19026.9	81.2387	19026.9	79.8951	19026.9	78.1644	19026.9	77.0439	19026.9	73.3835	19026.9	73.8734	19026.9	69.4859	19026.9	60.8337	19026.9	66.051	19026.9	56.8041	19026.9	62.6068	19026.9	54.8198	19026.9	56.5261	19026.9	48.5032	19026.9	54.4477	19026.9	45.7811	19026.9	55.2884	19026.9	45.9886	19026.9	45.6537	19026.9	47.3841	19026.9	62.3181	19026.9	59.2737	19026.9	68.0068	19026.9	56.4934	19026.9	73.6934
19697.8	94.8103	19697.8	94.4859	19697.8	93.3703	19697.8	92.9463	19697.8	90.6503	19697.8	91.0735	19697.8	88.4313	19697.8	88.428	19697.8	83.038	19697.8	85.4807	19697.8	78.253	19697.8	82.9108	19697.8	75.377	19697.8	79.2526	19697.8	74.2661	19697.8	74.7842	19697.8	68.4816	19697.8	71.9669	19697.8	52.8915	19697.8	67.883	19697.8	53.2388	19697.8	63.0248	19697.8	52.9235	19697.8	59.2168	19697.8	57.6642	19697.8	59.0322	19697.8	43.5716	19697.8	60.4817	19697.8	57.1135	19697.8	53.7576	19697.8	54.7892	19697.8	66.6686	19697.8	64.2353	19697.8	67.5009	19697.8	60.4632	19697.8	75.6542
19999.5	95.9142	19999.5	96.3242	19999.5	93.1812	19999.5	94.4108	19999.5	88.9829	19999.5	92.3464	19999.5	85.3034	19999.5	89.7842	19999.5	79.5607	19999.5	86.227	19999.5	78.4099	19999.5	83.3874	19999.5	77.8034	19999.5	79.9568	19999.5	74.3455	19999.5	74.9827	19999.5	70.7935	19999.5	72.8654	19999.5	45.5337	19999.5	68.321	19999.5	53.4316	19999.5	62.5328	19999.5	45.786	19999.5	58.8388	19999.5	59.7153	19999.5	60.4649	19999.5	53.0011	19999.5	60.7411	19999.5	50.7752	19999.5	58.44	19999.5	56.6237	19999.5	67.9864	19999.5	66.3516	19999.5	68.2726	19999.5	61.7651	19999.5	76.6492
