"SPL Vertical"
"On-Axis"		"10°"		"-10°"		"20°"		"-20°"		"30°"		"-30°"		"40°"		"-40°"		"50°"		"-50°"		"60°"		"-60°"		"70°"		"-70°"		"80°"		"-80°"		"90°"		"-90°"		"100°"		"-100°"		"110°"		"-110°"		"120°"		"-120°"		"130°"		"-130°"		"140°"		"-140°"		"150°"		"-150°"		"160°"		"-160°"		"170°"		"-170°"		"180°"
"Frequency / Hz"	"Sound Pressure Level / dB (re 20 µPa/V)  [2.83  V @ 1. m]"	"Frequency / Hz"	"Sound Pressure Level / dB (re 20 µPa/V)  [2.83  V @ 1. m]"	"Frequency / Hz"	"Sound Pressure Level / dB (re 20 µPa/V)  [2.83  V @ 1. m]"	"Frequency / Hz"	"Sound Pressure Level / dB (re 20 µPa/V)  [2.83  V @ 1. m]"	"Frequency / Hz"	"Sound Pressure Level / dB (re 20 µPa/V)  [2.83  V @ 1. m]"	"Frequency / Hz"	"Sound Pressure Level / dB (re 20 µPa/V)  [2.83  V @ 1. m]"	"Frequency / Hz"	"Sound Pressure Level / dB (re 20 µPa/V)  [2.83  V @ 1. m]"	"Frequency / Hz"	"Sound Pressure Level / dB (re 20 µPa/V)  [2.83  V @ 1. m]"	"Frequency / Hz"	"Sound Pressure Level / dB (re 20 µPa/V)  [2.83  V @ 1. m]"	"Frequency / Hz"	"Sound Pressure Level / dB (re 20 µPa/V)  [2.83  V @ 1. m]"	"Frequency / Hz"	"Sound Pressure Level / dB (re 20 µPa/V)  [2.83  V @ 1. m]"	"Frequency / Hz"	"Sound Pressure Level / dB (re 20 µPa/V)  [2.83  V @ 1. m]"	"Frequency / Hz"	"Sound Pressure Level / dB (re 20 µPa/V)  [2.83  V @ 1. m]"	"Frequency / Hz"	"Sound Pressure Level / dB (re 20 µPa/V)  [2.83  V @ 1. m]"	"Frequency / Hz"	"Sound Pressure Level / dB (re 20 µPa/V)  [2.83  V @ 1. m]"	"Frequency / Hz"	"Sound Pressure Level / dB (re 20 µPa/V)  [2.83  V @ 1. m]"	"Frequency / Hz"	"Sound Pressure Level / dB (re 20 µPa/V)  [2.83  V @ 1. m]"	"Frequency / Hz"	"Sound Pressure Level / dB (re 20 µPa/V)  [2.83  V @ 1. m]"	"Frequency / Hz"	"Sound Pressure Level / dB (re 20 µPa/V)  [2.83  V @ 1. m]"	"Frequency / Hz"	"Sound Pressure Level / dB (re 20 µPa/V)  [2.83  V @ 1. m]"	"Frequency / Hz"	"Sound Pressure Level / dB (re 20 µPa/V)  [2.83  V @ 1. m]"	"Frequency / Hz"	"Sound Pressure Level / dB (re 20 µPa/V)  [2.83  V @ 1. m]"	"Frequency / Hz"	"Sound Pressure Level / dB (re 20 µPa/V)  [2.83  V @ 1. m]"	"Frequency / Hz"	"Sound Pressure Level / dB (re 20 µPa/V)  [2.83  V @ 1. m]"	"Frequency / Hz"	"Sound Pressure Level / dB (re 20 µPa/V)  [2.83  V @ 1. m]"	"Frequency / Hz"	"Sound Pressure Level / dB (re 20 µPa/V)  [2.83  V @ 1. m]"	"Frequency / Hz"	"Sound Pressure Level / dB (re 20 µPa/V)  [2.83  V @ 1. m]"	"Frequency / Hz"	"Sound Pressure Level / dB (re 20 µPa/V)  [2.83  V @ 1. m]"	"Frequency / Hz"	"Sound Pressure Level / dB (re 20 µPa/V)  [2.83  V @ 1. m]"	"Frequency / Hz"	"Sound Pressure Level / dB (re 20 µPa/V)  [2.83  V @ 1. m]"	"Frequency / Hz"	"Sound Pressure Level / dB (re 20 µPa/V)  [2.83  V @ 1. m]"	"Frequency / Hz"	"Sound Pressure Level / dB (re 20 µPa/V)  [2.83  V @ 1. m]"	"Frequency / Hz"	"Sound Pressure Level / dB (re 20 µPa/V)  [2.83  V @ 1. m]"	"Frequency / Hz"	"Sound Pressure Level / dB (re 20 µPa/V)  [2.83  V @ 1. m]"	"Frequency / Hz"	"Sound Pressure Level / dB (re 20 µPa/V)  [2.83  V @ 1. m]"	"Frequency / Hz"	"Sound Pressure Level / dB (re 20 µPa/V)  [2.83  V @ 1. m]"
20.5078	56.3042	20.5078	56.915	20.5078	55.6656	20.5078	57.4751	20.5078	55.0272	20.5078	57.9681	20.5078	54.4176	20.5078	58.383	20.5078	53.8579	20.5078	58.7129	20.5078	53.3547	20.5078	58.9541	20.5078	52.899	20.5078	59.1048	20.5078	52.4762	20.5078	59.1655	20.5078	52.0829	20.5078	59.1377	20.5078	51.7421	20.5078	59.0244	20.5078	51.5083	20.5078	58.8291	20.5078	51.453	20.5078	58.5563	20.5078	51.6291	20.5078	58.2102	20.5078	52.0386	20.5078	57.7952	20.5078	52.6307	20.5078	57.3149	20.5078	53.3313	20.5078	56.7726	20.5078	54.0736	20.5078	56.1712	20.5078	54.8107	20.5078	55.5148
21.9727	58.3874	21.9727	59.1747	21.9727	57.4739	21.9727	59.8373	21.9727	56.4385	21.9727	60.379	21.9727	55.2962	21.9727	60.8043	21.9727	54.0803	21.9727	61.1176	21.9727	52.8521	21.9727	61.3234	21.9727	51.7072	21.9727	61.4259	21.9727	50.7701	21.9727	61.4291	21.9727	50.1657	21.9727	61.3373	21.9727	49.9741	21.9727	61.1551	21.9727	50.1975	21.9727	60.8873	21.9727	50.7646	21.9727	60.5389	21.9727	51.5668	21.9727	60.1151	21.9727	52.4962	21.9727	59.6209	21.9727	53.4686	21.9727	59.0609	21.9727	54.4292	21.9727	58.4384	21.9727	55.3477	21.9727	57.7557	21.9727	56.2104	21.9727	57.0132
23.4375	56.7288	23.4375	57.8348	23.4375	55.4259	23.4375	58.7605	23.4375	53.9073	23.4375	59.5199	23.4375	52.1563	23.4375	60.1237	23.4375	50.1694	23.4375	60.5809	23.4375	47.9873	23.4375	60.8983	23.4375	45.7595	23.4375	61.0816	23.4375	43.8296	23.4375	61.135	23.4375	42.672	23.4375	61.0619	23.4375	42.5134	23.4375	60.865	23.4375	43.1662	23.4375	60.5457	23.4375	44.3441	23.4375	60.1052	23.4375	45.8325	23.4375	59.5435	23.4375	47.4655	23.4375	58.8604	23.4375	49.1193	23.4375	58.0556	23.4375	50.7187	23.4375	57.1288	23.4375	52.2264	23.4375	56.0807	23.4375	53.6266	23.4375	54.9125
24.9023	60.3639	24.9023	61.1105	24.9023	59.5279	24.9023	61.7533	24.9023	58.6305	24.9023	62.286	24.9023	57.7188	24.9023	62.7071	24.9023	56.8597	24.9023	63.0171	24.9023	56.1292	24.9023	63.2177	24.9023	55.5854	24.9023	63.3112	24.9023	55.2418	24.9023	63.2999	24.9023	55.0664	24.9023	63.1862	24.9023	55.0087	24.9023	62.9729	24.9023	55.0305	24.9023	62.6631	24.9023	55.1191	24.9023	62.2603	24.9023	55.2826	24.9023	61.7694	24.9023	55.5389	24.9023	61.1971	24.9023	55.9038	24.9023	60.5532	24.9023	56.383	24.9023	59.8522	24.9023	56.9687	24.9023	59.1144	24.9023	57.6398	24.9023	58.3662
26.3672	60.2081	26.3672	60.8937	26.3672	59.514	26.3672	61.523	26.3672	58.8761	26.3672	62.0658	26.3672	58.3648	26.3672	62.505	26.3672	58.0291	26.3672	62.8314	26.3672	57.8697	26.3672	63.0409	26.3672	57.8364	26.3672	63.132	26.3672	57.8533	26.3672	63.1044	26.3672	57.85	26.3672	62.9591	26.3672	57.7803	26.3672	62.6972	26.3672	57.626	26.3672	62.3208	26.3672	57.394	26.3672	61.8334	26.3672	57.1124	26.3672	61.241	26.3672	56.8275	26.3672	60.5549	26.3672	56.6018	26.3672	59.7948	26.3672	56.5074	26.3672	58.9942	26.3672	56.6102	26.3672	58.2046	26.3672	56.9448	26.3672	57.4958
27.832	59.4355	27.832	60.0566	27.832	58.9857	27.832	60.7401	27.832	58.7961	27.832	61.3983	27.832	58.881	27.832	61.9758	27.832	59.1673	27.832	62.4426	27.832	59.5402	27.832	62.7849	27.832	59.8956	27.832	62.9982	27.832	60.1638	27.832	63.083	27.832	60.3088	27.832	63.0427	27.832	60.3207	27.832	62.8827	27.832	60.2082	27.832	62.6103	27.832	59.994	27.832	62.2354	27.832	59.7115	27.832	61.772	27.832	59.4028	27.832	61.2403	27.832	59.1172	27.832	60.6693	27.832	58.9082	27.832	60.0992	27.832	58.827	27.832	59.5808	27.832	58.9105	27.832	59.1691
29.2969	59.1043	29.2969	60.6969	29.2969	57.085	29.2969	61.9567	29.2969	54.494	29.2969	62.9447	29.2969	51.1347	29.2969	63.7021	29.2969	47.1015	29.2969	64.2568	29.2969	45.0221	29.2969	64.6281	29.2969	47.0826	29.2969	64.829	29.2969	49.389	29.2969	64.8676	29.2969	50.7686	29.2969	64.7483	29.2969	51.3052	29.2969	64.4713	29.2969	51.0971	29.2969	64.0334	29.2969	50.1279	29.2969	63.4265	29.2969	48.2051	29.2969	62.6372	29.2969	44.7383	29.2969	61.6446	29.2969	38.2669	29.2969	60.4173	29.2969	39.9784	29.2969	58.9072	29.2969	47.1562	29.2969	57.0381	29.2969	51.5767	29.2969	54.6789
30.7617	62.8226	30.7617	63.7941	30.7617	61.7818	30.7617	64.6488	30.7617	60.7633	30.7617	65.3672	30.7617	59.905	30.7617	65.9449	30.7617	59.3482	30.7617	66.3843	30.7617	59.1498	30.7617	66.6904	30.7617	59.2378	30.7617	66.8692	30.7617	59.4716	30.7617	66.9266	30.7617	59.7284	30.7617	66.8682	30.7617	59.9385	30.7617	66.6994	30.7617	60.0804	30.7617	66.4256	30.7617	60.166	30.7617	66.0524	30.7617	60.2282	30.7617	65.5865	30.7617	60.3131	30.7617	65.0365	30.7617	60.4711	30.7617	64.4144	30.7617	60.745	30.7617	63.7384	30.7617	61.1567	30.7617	63.0349	30.7617	61.6993	30.7617	62.3404
32.2266	65.688	32.2266	66.3108	32.2266	65.0433	32.2266	66.8807	32.2266	64.4165	32.2266	67.3763	32.2266	63.8514	32.2266	67.7838	32.2266	63.3847	32.2266	68.0951	32.2266	63.0327	32.2266	68.3058	32.2266	62.7851	32.2266	68.4142	32.2266	62.6107	32.2266	68.4205	32.2266	62.473	32.2266	68.3261	32.2266	62.3455	32.2266	68.1338	32.2266	62.2206	32.2266	67.8474	32.2266	62.1118	32.2266	67.472	32.2266	62.0482	32.2266	67.0145	32.2266	62.0664	32.2266	66.4842	32.2266	62.1992	32.2266	65.8942	32.2266	62.4653	32.2266	65.2619	32.2266	62.864	32.2266	64.6109	32.2266	63.3764	32.2266	63.9707
33.6914	67.0359	33.6914	67.6973	33.6914	66.3487	33.6914	68.299	33.6914	65.6821	33.6914	68.819	33.6914	65.0888	33.6914	69.2443	33.6914	64.6137	33.6914	69.5686	33.6914	64.2757	33.6914	69.7891	33.6914	64.0592	33.6914	69.9055	33.6914	63.9225	33.6914	69.9193	33.6914	63.8188	33.6914	69.8325	33.6914	63.7147	33.6914	69.6481	33.6914	63.5996	33.6914	69.3697	33.6914	63.4875	33.6914	69.0016	33.6914	63.4125	33.6914	68.5494	33.6914	63.4192	33.6914	68.0206	33.6914	63.5491	33.6914	67.4259	33.6914	63.8275	33.6914	66.7806	33.6914	64.2535	33.6914	66.1067	33.6914	64.8024	33.6914	65.4345
35.1562	69.0062	35.1562	69.5483	35.1562	68.449	35.1562	70.0461	35.1562	67.9139	35.1562	70.4788	35.1562	67.4407	35.1562	70.8336	35.1562	67.0627	35.1562	71.1027	35.1562	66.795	35.1562	71.2824	35.1562	66.6298	35.1562	71.372	35.1562	66.5413	35.1562	71.3723	35.1562	66.4982	35.1562	71.2863	35.1562	66.4761	35.1562	71.118	35.1562	66.4638	35.1562	70.8731	35.1562	66.4643	35.1562	70.5589	35.1562	66.4904	35.1562	70.1848	35.1562	66.5596	35.1562	69.7622	35.1562	66.6884	35.1562	69.3054	35.1562	66.8879	35.1562	68.8316	35.1562	67.1621	35.1562	68.3603	35.1562	67.5073	35.1562	67.9122
36.6211	70.5081	36.6211	70.9818	36.6211	70.0275	36.6211	71.4215	36.6211	69.5723	36.6211	71.8068	36.6211	69.1754	36.6211	72.1235	36.6211	68.8622	36.6211	72.3628	36.6211	68.6432	36.6211	72.5198	36.6211	68.5108	36.6211	72.5924	36.6211	68.4435	36.6211	72.5811	36.6211	68.4151	36.6211	72.4884	36.6211	68.4039	36.6211	72.3188	36.6211	68.3983	36.6211	72.0783	36.6211	68.3973	36.6211	71.7754	36.6211	68.409	36.6211	71.4208	36.6211	68.4464	36.6211	71.0278	36.6211	68.5238	36.6211	70.6125	36.6211	68.6541	36.6211	70.1931	36.6211	68.846	36.6211	69.7896	36.6211	69.1028	36.6211	69.4208
38.0859	72.2886	38.0859	72.6815	38.0859	71.8913	38.0859	73.0473	38.0859	71.5143	38.0859	73.3678	38.0859	71.1813	38.0859	73.6296	38.0859	70.9089	38.0859	73.8236	38.0859	70.7028	38.0859	73.944	38.0859	70.5566	38.0859	73.9881	38.0859	70.4548	38.0859	73.9555	38.0859	70.3794	38.0859	73.8481	38.0859	70.316	38.0859	73.6696	38.0859	70.2572	38.0859	73.4259	38.0859	70.2042	38.0859	73.125	38.0859	70.1649	38.0859	72.7776	38.0859	70.1519	38.0859	72.3971	38.0859	70.1794	38.0859	71.9996	38.0859	70.2605	38.0859	71.6038	38.0859	70.4051	38.0859	71.2294	38.0859	70.6176	38.0859	70.8956
39.5508	73.8726	39.5508	74.2372	39.5508	73.5023	39.5508	74.5757	39.5508	73.1489	39.5508	74.8711	39.5508	72.8332	39.5508	75.1111	39.5508	72.5705	39.5508	75.2869	39.5508	72.3665	39.5508	75.3933	39.5508	72.2167	39.5508	75.4277	39.5508	72.1091	39.5508	75.3902	39.5508	72.0291	39.5508	75.2827	39.5508	71.9647	39.5508	75.1093	39.5508	71.9098	39.5508	74.8762	39.5508	71.8651	39.5508	74.5917	39.5508	71.8369	39.5508	74.2663	39.5508	71.835	39.5508	73.9131	39.5508	71.8704	39.5508	73.5472	39.5508	71.9534	39.5508	73.1855	39.5508	72.0915	39.5508	72.8451	39.5508	72.2882	39.5508	72.5419
41.0156	75.8007	41.0156	76.0845	41.0156	75.5117	41.0156	76.3474	41.0156	75.2341	41.0156	76.5762	41.0156	74.9832	41.0156	76.7606	41.0156	74.7703	41.0156	76.893	41.0156	74.6006	41.0156	76.9688	41.0156	74.4716	41.0156	76.9858	41.0156	74.3757	41.0156	76.9442	41.0156	74.3027	41.0156	76.8462	41.0156	74.2439	41.0156	76.6961	41.0156	74.1945	41.0156	76.5001	41.0156	74.1548	41.0156	76.2662	41.0156	74.1296	41.0156	76.0041	41.0156	74.1264	41.0156	75.7248	41.0156	74.1535	41.0156	75.4401	41.0156	74.2185	41.0156	75.1621	41.0156	74.3261	41.0156	74.9026	41.0156	74.4779	41.0156	74.6718
42.4805	77.4538	42.4805	77.6571	42.4805	77.2447	42.4805	77.8438	42.4805	77.0403	42.4805	78.0044	42.4805	76.8503	42.4805	78.1307	42.4805	76.6812	42.4805	78.2166	42.4805	76.5356	42.4805	78.2575	42.4805	76.4114	42.4805	78.251	42.4805	76.3033	42.4805	78.1967	42.4805	76.2048	42.4805	78.0958	42.4805	76.1108	42.4805	77.9518	42.4805	76.0197	42.4805	77.7698	42.4805	75.9343	42.4805	77.5567	42.4805	75.8612	42.4805	77.3206	42.4805	75.8099	42.4805	77.0711	42.4805	75.7905	42.4805	76.8186	42.4805	75.8116	42.4805	76.574	42.4805	75.8787	42.4805	76.3483	42.4805	75.993	42.4805	76.1516
43.9453	78.354	43.9453	78.5562	43.9453	78.154	43.9453	78.7493	43.9453	77.9665	43.9453	78.9226	43.9453	77.7998	43.9453	79.0663	43.9453	77.6584	43.9453	79.1728	43.9453	77.5428	43.9453	79.2368	43.9453	77.4494	43.9453	79.255	43.9453	77.3725	43.9453	79.2269	43.9453	77.306	43.9453	79.1541	43.9453	77.2457	43.9453	79.0401	43.9453	77.1905	43.9453	78.8904	43.9453	77.143	43.9453	78.7121	43.9453	77.1088	43.9453	78.513	43.9453	77.0954	43.9453	78.3019	43.9453	77.1097	43.9453	78.0875	43.9453	77.157	43.9453	77.8783	43.9453	77.2397	43.9453	77.6822	43.9453	77.3573	43.9453	77.5064
45.4102	79.696	45.4102	79.8864	45.4102	79.5026	45.4102	80.0633	45.4102	79.3159	45.4102	80.2175	45.4102	79.1447	45.4102	80.3409	45.4102	78.9949	45.4102	80.4273	45.4102	78.8692	45.4102	80.4724	45.4102	78.7667	45.4102	80.4743	45.4102	78.6839	45.4102	80.4331	45.4102	78.6161	45.4102	80.351	45.4102	78.5595	45.4102	80.2322	45.4102	78.5123	45.4102	80.0825	45.4102	78.4755	45.4102	79.9092	45.4102	78.4525	45.4102	79.7202	45.4102	78.448	45.4102	79.5239	45.4102	78.4666	45.4102	79.3286	45.4102	78.5119	45.4102	79.1416	45.4102	78.5856	45.4102	78.9692	45.4102	78.6878	45.4102	78.8166
46.875	80.9454	46.875	81.106	46.875	80.7787	46.875	81.2519	46.875	80.614	46.875	81.3753	46.875	80.4586	46.875	81.4693	46.875	80.3178	46.875	81.5286	46.875	80.1944	46.875	81.5499	46.875	80.0884	46.875	81.5314	46.875	79.9979	46.875	81.4736	46.875	79.9196	46.875	81.3789	46.875	79.851	46.875	81.2517	46.875	79.7908	46.875	81.0978	46.875	79.7397	46.875	80.9247	46.875	79.7006	46.875	80.7403	46.875	79.6775	46.875	80.553	46.875	79.6747	46.875	80.371	46.875	79.6959	46.875	80.2014	46.875	79.7436	46.875	80.0502	46.875	79.819	46.875	79.9217
48.3398	81.9696	48.3398	82.111	48.3398	81.8226	48.3398	82.2392	48.3398	81.6768	48.3398	82.3471	48.3398	81.538	48.3398	82.4282	48.3398	81.4103	48.3398	82.4775	48.3398	81.2955	48.3398	82.4915	48.3398	81.1936	48.3398	82.4686	48.3398	81.1029	48.3398	82.4092	48.3398	81.0212	48.3398	82.3154	48.3398	80.9468	48.3398	82.1915	48.3398	80.8792	48.3398	82.0428	48.3398	80.8196	48.3398	81.8764	48.3398	80.7708	48.3398	81.6997	48.3398	80.7371	48.3398	81.5208	48.3398	80.7229	48.3398	81.3474	48.3398	80.7324	48.3398	81.1866	48.3398	80.7686	48.3398	81.0444	48.3398	80.8329	48.3398	80.9254
51.2695	83.6385	51.2695	83.7374	51.2695	83.532	51.2695	83.8233	51.2695	83.423	51.2695	83.8909	51.2695	83.3156	51.2695	83.9354	51.2695	83.2126	51.2695	83.9533	51.2695	83.1153	51.2695	83.9423	51.2695	83.0237	51.2695	83.9016	51.2695	82.9372	51.2695	83.8322	51.2695	82.8547	51.2695	83.7367	51.2695	82.776	51.2695	83.6192	51.2695	82.7015	51.2695	83.485	51.2695	82.633	51.2695	83.3401	51.2695	82.5733	51.2695	83.1913	51.2695	82.5262	51.2695	83.045	51.2695	82.4956	51.2695	82.9074	51.2695	82.4851	51.2695	82.7838	51.2695	82.4972	51.2695	82.6783	51.2695	82.5335	51.2695	82.5942
52.7344	84.1819	52.7344	84.2837	52.7344	84.0734	52.7344	84.373	52.7344	83.964	52.7344	84.4437	52.7344	83.8585	52.7344	84.4912	52.7344	83.7602	52.7344	84.5117	52.7344	83.6709	52.7344	84.5032	52.7344	83.5907	52.7344	84.4654	52.7344	83.519	52.7344	84.3996	52.7344	83.4545	52.7344	84.309	52.7344	83.3961	52.7344	84.1982	52.7344	83.3433	52.7344	84.0728	52.7344	83.2964	52.7344	83.9394	52.7344	83.2567	52.7344	83.8045	52.7344	83.2261	52.7344	83.6744	52.7344	83.2071	52.7344	83.5546	52.7344	83.2022	52.7344	83.4492	52.7344	83.2138	52.7344	83.3614	52.7344	83.2435	52.7344	83.2926
54.1992	84.9889	54.1992	85.0686	54.1992	84.8982	54.1992	85.1327	54.1992	84.8012	54.1992	85.1773	54.1992	84.7023	54.1992	85.1991	54.1992	84.6052	54.1992	85.1959	54.1992	84.5126	54.1992	85.1671	54.1992	84.426	54.1992	85.1131	54.1992	84.346	54.1992	85.0358	54.1992	84.2727	54.1992	84.9386	54.1992	84.2055	54.1992	84.8259	54.1992	84.1444	54.1992	84.703	54.1992	84.0892	54.1992	84.5756	54.1992	84.0407	54.1992	84.4496	54.1992	84.0003	54.1992	84.3305	54.1992	83.9702	54.1992	84.223	54.1992	83.953	54.1992	84.1308	54.1992	83.9511	54.1992	84.0566	54.1992	83.9669	54.1992	84.0019
55.6641	85.3607	55.6641	85.4318	55.6641	85.2757	55.6641	85.4855	55.6641	85.181	55.6641	85.5189	55.6641	85.0807	55.6641	85.53	55.6641	84.9788	55.6641	85.5175	55.6641	84.8792	55.6641	85.4815	55.6641	84.785	55.6641	85.4232	55.6641	84.6983	55.6641	85.3448	55.6641	84.6204	55.6641	85.2498	55.6641	84.5518	55.6641	85.1424	55.6641	84.4923	55.6641	85.0275	55.6641	84.4414	55.6641	84.9101	55.6641	84.3991	55.6641	84.7951	55.6641	84.3656	55.6641	84.687	55.6641	84.3422	55.6641	84.5895	55.6641	84.3307	55.6641	84.5055	55.6641	84.333	55.6641	84.4371	55.6641	84.3508	55.6641	84.3854
58.5938	86.0511	58.5938	86.0945	58.5938	85.991	58.5938	86.1188	58.5938	85.9173	58.5938	86.1222	58.5938	85.8333	58.5938	86.1038	58.5938	85.7426	58.5938	86.0635	58.5938	85.6486	58.5938	86.0024	58.5938	85.555	58.5938	85.9228	58.5938	85.4649	58.5938	85.8279	58.5938	85.3808	58.5938	85.7223	58.5938	85.3046	58.5938	85.6109	58.5938	85.2375	58.5938	85.4993	58.5938	85.1795	58.5938	85.3926	58.5938	85.1305	58.5938	85.2955	58.5938	85.0901	58.5938	85.2114	58.5938	85.0584	58.5938	85.1424	58.5938	85.0356	58.5938	85.0894	58.5938	85.0224	58.5938	85.052	58.5938	85.0199	58.5938	85.0293
60.0586	86.4127	60.0586	86.4453	60.0586	86.361	60.0586	86.4568	60.0586	86.2928	60.0586	86.4462	60.0586	86.2112	60.0586	86.413	60.0586	86.1196	60.0586	86.3579	60.0586	86.0218	60.0586	86.2825	60.0586	85.9215	60.0586	86.1897	60.0586	85.8223	60.0586	86.0833	60.0586	85.7276	60.0586	85.968	60.0586	85.6397	60.0586	85.8491	60.0586	85.5604	60.0586	85.7321	60.0586	85.4903	60.0586	85.6222	60.0586	85.4298	60.0586	85.5239	60.0586	85.3786	60.0586	85.4405	60.0586	85.3368	60.0586	85.3738	60.0586	85.3046	60.0586	85.3245	60.0586	85.2829	60.0586	85.292	60.0586	85.2727	60.0586	85.2752
62.9883	86.8398	62.9883	86.848	62.9883	86.8101	62.9883	86.8339	62.9883	86.7604	62.9883	86.7976	62.9883	86.693	62.9883	86.7402	62.9883	86.6113	62.9883	86.6635	62.9883	86.5191	62.9883	86.5704	62.9883	86.4208	62.9883	86.4644	62.9883	86.3209	62.9883	86.3501	62.9883	86.2235	62.9883	86.2325	62.9883	86.132	62.9883	86.117	62.9883	86.0484	62.9883	86.0086	62.9883	85.9735	62.9883	85.912	62.9883	85.9071	62.9883	85.8305	62.9883	85.8488	62.9883	85.7663	62.9883	85.7982	62.9883	85.72	62.9883	85.7553	62.9883	85.6914	62.9883	85.7206	62.9883	85.6789	62.9883	85.6954	62.9883	85.6809
64.4531	87.007	64.4531	87.0053	64.4531	86.9862	64.4531	86.9807	64.4531	86.9442	64.4531	86.934	64.4531	86.8831	64.4531	86.8665	64.4531	86.806	64.4531	86.7807	64.4531	86.7168	64.4531	86.6799	64.4531	86.6201	64.4531	86.5683	64.4531	86.5207	64.4531	86.4507	64.4531	86.4229	64.4531	86.3324	64.4531	86.3304	64.4531	86.2188	64.4531	86.2456	64.4531	86.1149	64.4531	86.1693	64.4531	86.025	64.4531	86.1014	64.4531	85.952	64.4531	86.0411	64.4531	85.8974	64.4531	85.988	64.4531	85.8613	64.4531	85.9416	64.4531	85.8427	64.4531	85.9025	64.4531	85.8396	64.4531	85.8714	64.4531	85.8498
67.3828	87.2263	67.3828	87.2086	67.3828	87.2187	67.3828	87.1663	67.3828	87.1863	67.3828	87.1009	67.3828	87.1309	67.3828	87.0148	67.3828	87.0553	67.3828	86.9115	67.3828	86.9638	67.3828	86.7951	67.3828	86.8615	67.3828	86.6703	67.3828	86.7541	67.3828	86.5425	67.3828	86.6472	67.3828	86.4173	67.3828	86.5457	67.3828	86.3002	67.3828	86.4525	67.3828	86.196	67.3828	86.3691	67.3828	86.1087	67.3828	86.2951	67.3828	86.0409	67.3828	86.2291	67.3828	85.9938	67.3828	86.1695	67.3828	85.9671	67.3828	86.1153	67.3828	85.9592	67.3828	86.0666	67.3828	85.968	67.3828	86.0243	67.3828	85.9906
68.8477	87.3117	68.8477	87.2854	68.8477	87.312	68.8477	87.2341	68.8477	87.2867	68.8477	87.1596	68.8477	87.2371	68.8477	87.0648	68.8477	87.1663	68.8477	86.9535	68.8477	87.0783	68.8477	86.8302	68.8477	86.9784	68.8477	86.7002	68.8477	86.8726	68.8477	86.5692	68.8477	86.7667	68.8477	86.443	68.8477	86.6656	68.8477	86.3273	68.8477	86.5724	68.8477	86.227	68.8477	86.4885	68.8477	86.1456	68.8477	86.4134	68.8477	86.0856	68.8477	86.3455	68.8477	86.0474	68.8477	86.2831	68.8477	86.0302	68.8477	86.225	68.8477	86.0321	68.8477	86.1711	68.8477	86.0501	68.8477	86.1226	68.8477	86.0813
71.7773	87.5679	71.7773	87.5254	71.7773	87.5816	71.7773	87.4557	71.7773	87.5664	71.7773	87.3613	71.7773	87.5235	71.7773	87.2461	71.7773	87.4559	71.7773	87.1148	71.7773	87.368	71.7773	86.9729	71.7773	87.2656	71.7773	86.8267	71.7773	87.1553	71.7773	86.6827	71.7773	87.0436	71.7773	86.5475	71.7773	86.936	71.7773	86.4273	71.7773	86.8363	71.7773	86.327	71.7773	86.746	71.7773	86.2504	71.7773	86.6644	71.7773	86.1991	71.7773	86.5896	71.7773	86.1731	71.7773	86.5194	71.7773	86.1705	71.7773	86.4521	71.7773	86.1884	71.7773	86.3872	71.7773	86.2229	71.7773	86.3258	71.7773	86.2699
74.707	87.7602	74.707	87.7072	74.707	87.7826	74.707	87.6254	74.707	87.7736	74.707	87.5184	74.707	87.7345	74.707	87.3905	74.707	87.6679	74.707	87.2474	74.707	87.5787	74.707	87.0953	74.707	87.4731	74.707	86.9411	74.707	87.3581	74.707	86.7918	74.707	87.2412	74.707	86.6542	74.707	87.1285	74.707	86.5343	74.707	87.0242	74.707	86.437	74.707	86.9299	74.707	86.3652	74.707	86.8448	74.707	86.3202	74.707	86.7666	74.707	86.3011	74.707	86.6928	74.707	86.3058	74.707	86.6216	74.707	86.3307	74.707	86.5524	74.707	86.3717	74.707	86.486	74.707	86.4248
77.6367	87.9157	77.6367	87.8547	77.6367	87.9445	77.6367	87.7641	77.6367	87.9403	77.6367	87.6479	77.6367	87.9043	77.6367	87.5112	77.6367	87.8395	77.6367	87.3607	77.6367	87.751	77.6367	87.2033	77.6367	87.6456	77.6367	87.0468	77.6367	87.5311	77.6367	86.8986	77.6367	87.4154	77.6367	86.7658	77.6367	87.3052	77.6367	86.6542	77.6367	87.2046	77.6367	86.5679	77.6367	87.1151	77.6367	86.509	77.6367	87.0354	77.6367	86.4775	77.6367	86.9627	77.6367	86.4716	77.6367	86.8937	77.6367	86.4881	77.6367	86.8261	77.6367	86.5227	77.6367	86.7589	77.6367	86.5711	77.6367	86.6925	77.6367	86.6289
79.1016	87.9653	79.1016	87.8983	79.1016	87.999	79.1016	87.8008	79.1016	87.9986	79.1016	87.6773	79.1016	87.9652	79.1016	87.5335	79.1016	87.9021	79.1016	87.3764	79.1016	87.8146	79.1016	87.2139	79.1016	87.7102	79.1016	87.054	79.1016	87.5971	79.1016	86.9049	79.1016	87.4836	79.1016	86.7739	79.1016	87.3766	79.1016	86.6668	79.1016	87.2804	79.1016	86.5875	79.1016	87.1959	79.1016	86.5376	79.1016	87.1213	79.1016	86.5165	79.1016	87.0531	79.1016	86.5216	79.1016	86.9873	79.1016	86.5488	79.1016	86.9211	79.1016	86.5934	79.1016	86.8531	79.1016	86.6505	79.1016	86.7839	79.1016	86.7153
82.0312	88.0737	82.0312	87.9912	82.0312	88.1201	82.0312	87.876	82.0312	88.1293	82.0312	87.7333	82.0312	88.1021	82.0312	87.57	82.0312	88.042	82.0312	87.394	82.0312	87.9547	82.0312	87.2146	82.0312	87.848	82.0312	87.0412	82.0312	87.7312	82.0312	86.8831	82.0312	87.6133	82.0312	86.7485	82.0312	87.5024	82.0312	86.6437	82.0312	87.4033	82.0312	86.5727	82.0312	87.3176	82.0312	86.5363	82.0312	87.2432	82.0312	86.5326	82.0312	87.176	82.0312	86.5574	82.0312	87.111	82.0312	86.605	82.0312	87.0444	82.0312	86.6688	82.0312	86.9738	82.0312	86.7425	82.0312	86.8987	82.0312	86.8206
84.9609	88.1355	84.9609	88.0458	84.9609	88.1863	84.9609	87.9209	84.9609	88.1969	84.9609	87.7667	84.9609	88.168	84.9609	87.5905	84.9609	88.1035	84.9609	87.4013	84.9609	88.0096	84.9609	87.2091	84.9609	87.895	84.9609	87.0241	84.9609	87.7699	84.9609	86.8566	84.9609	87.6446	84.9609	86.7154	84.9609	87.5279	84.9609	86.6074	84.9609	87.4255	84.9609	86.5366	84.9609	87.3386	84.9609	86.5036	84.9609	87.265	84.9609	86.5062	84.9609	87.1994	84.9609	86.5392	84.9609	87.1362	84.9609	86.5961	84.9609	87.0703	84.9609	86.6693	84.9609	86.9987	84.9609	86.7518	84.9609	86.9206	84.9609	86.8372
87.8906	88.1833	87.8906	88.085	87.8906	88.2403	87.8906	87.9494	87.8906	88.2547	87.8906	87.7824	87.8906	88.2275	87.8906	87.5922	87.8906	88.1628	87.8906	87.3885	87.8906	88.0669	87.8906	87.1822	87.8906	87.9491	87.8906	86.9847	87.8906	87.8199	87.8906	86.8074	87.8906	87.6902	87.8906	86.66	87.8906	87.5696	87.8906	86.5502	87.8906	87.4643	87.8906	86.4821	87.8906	87.3763	87.8906	86.4563	87.8906	87.303	87.8906	86.4696	87.8906	87.2389	87.8906	86.5159	87.8906	87.1772	87.8906	86.5872	87.8906	87.1119	87.8906	86.6747	87.8906	87.0389	87.8906	86.7699	87.8906	86.9565	87.8906	86.8657
90.8203	88.3608	90.8203	88.2397	90.8203	88.4359	90.8203	88.077	90.8203	88.4626	90.8203	87.8798	90.8203	88.4415	90.8203	87.6568	90.8203	88.3759	90.8203	87.4185	90.8203	88.2719	90.8203	87.1768	90.8203	88.1386	90.8203	86.944	90.8203	87.9872	90.8203	86.7323	90.8203	87.8296	90.8203	86.5524	90.8203	87.677	90.8203	86.4131	90.8203	87.5375	90.8203	86.3199	90.8203	87.4148	90.8203	86.2745	90.8203	87.308	90.8203	86.275	90.8203	87.2123	90.8203	86.3158	90.8203	87.1211	90.8203	86.389	90.8203	87.0282	90.8203	86.4853	90.8203	86.9293	90.8203	86.5951	90.8203	86.8227	90.8203	86.7098
95.2148	88.2192	95.2148	88.1059	95.2148	88.2894	95.2148	87.9545	95.2148	88.3142	95.2148	87.7724	95.2148	88.2939	95.2148	87.569	95.2148	88.2321	95.2148	87.3555	95.2148	88.1352	95.2148	87.1442	95.2148	88.0126	95.2148	86.9477	95.2148	87.8756	95.2148	86.7778	95.2148	87.7364	95.2148	86.6438	95.2148	87.6061	95.2148	86.552	95.2148	87.4923	95.2148	86.5043	95.2148	87.3983	95.2148	86.4986	95.2148	87.3225	95.2148	86.5292	95.2148	87.2599	95.2148	86.5881	95.2148	87.2036	95.2148	86.6662	95.2148	87.1468	95.2148	86.7547	95.2148	87.0845	95.2148	86.8458	95.2148	87.0136	95.2148	86.9335
98.1445	88.2431	98.1445	88.1121	98.1445	88.3261	98.1445	87.9381	98.1445	88.359	98.1445	87.7289	98.1445	88.3432	98.1445	87.4952	98.1445	88.2831	98.1445	87.2498	98.1445	88.186	98.1445	87.007	98.1445	88.062	98.1445	86.7813	98.1445	87.923	98.1445	86.5866	98.1445	87.7807	98.1445	86.4339	98.1445	87.6456	98.1445	86.3305	98.1445	87.5245	98.1445	86.279	98.1445	87.4199	98.1445	86.2767	98.1445	87.3298	98.1445	86.3173	98.1445	87.2496	98.1445	86.3911	98.1445	87.1733	98.1445	86.4875	98.1445	87.0954	98.1445	86.5963	98.1445	87.0115	98.1445	86.7085	98.1445	86.9191	98.1445	86.8175
101.074	88.2471	101.074	88.1109	101.074	88.3328	101.074	87.9295	101.074	88.3659	101.074	87.7109	101.074	88.3477	101.074	87.4659	101.074	88.2826	101.074	87.2078	101.074	88.1789	101.074	86.9514	101.074	88.0479	101.074	86.7126	101.074	87.9033	101.074	86.507	101.074	87.7595	101.074	86.3481	101.074	87.6293	101.074	86.2453	101.074	87.521	101.074	86.203	101.074	87.4369	101.074	86.2195	101.074	87.3735	101.074	86.2873	101.074	87.3229	101.074	86.3947	101.074	87.2748	101.074	86.5278	101.074	87.2194	101.074	86.6722	101.074	87.1487	101.074	86.8149	101.074	87.0579	101.074	86.9457
105.469	88.0448	105.469	87.9004	105.469	88.1284	105.469	87.7004	105.469	88.1491	105.469	87.4532	105.469	88.1087	105.469	87.1705	105.469	88.0127	105.469	86.8665	105.469	87.8705	105.469	86.5579	105.469	87.6952	105.469	86.263	105.469	87.5029	105.469	85.9998	105.469	87.3111	105.469	85.7848	105.469	87.1354	105.469	85.6306	105.469	86.9867	105.469	85.544	105.469	86.8688	105.469	85.5252	105.469	86.7779	105.469	85.5679	105.469	86.7047	105.469	85.6607	105.469	86.6368	105.469	85.7887	105.469	86.5628	105.469	85.9365	105.469	86.4736	105.469	86.0892	105.469	86.3643	105.469	86.2347
108.398	88.1288	108.398	87.9921	108.398	88.2051	108.398	87.8007	108.398	88.2186	108.398	87.5635	108.398	88.1707	108.398	87.2923	108.398	88.0665	108.398	87.0013	108.398	87.9152	108.398	86.7068	108.398	87.7301	108.398	86.4261	108.398	87.5276	108.398	86.1762	108.398	87.326	108.398	85.9724	108.398	87.1424	108.398	85.8262	108.398	86.9895	108.398	85.744	108.398	86.8727	108.398	85.7259	108.398	86.7892	108.398	85.7659	108.398	86.7297	108.398	85.8527	108.398	86.6808	108.398	85.9716	108.398	86.6294	108.398	86.1071	108.398	86.5643	108.398	86.2443	108.398	86.4787	108.398	86.3709
112.793	88.0665	112.793	87.9193	112.793	88.1499	112.793	87.7147	112.793	88.1668	112.793	87.4623	112.793	88.1185	112.793	87.175	112.793	88.0103	112.793	86.8685	112.793	87.8519	112.793	86.5605	112.793	87.6572	112.793	86.2703	112.793	87.4444	112.793	86.0163	112.793	87.2337	112.793	85.815	112.793	87.0449	112.793	85.6786	112.793	86.8924	112.793	85.6129	112.793	86.7826	112.793	85.6163	112.793	86.7118	112.793	85.6805	112.793	86.6686	112.793	85.7916	112.793	86.6372	112.793	85.9324	112.793	86.6017	112.793	86.0851	112.793	86.5492	112.793	86.2336	112.793	86.4712	112.793	86.365
117.188	88.0208	117.188	87.8775	117.188	88.1001	117.188	87.6771	117.188	88.1116	117.188	87.4292	117.188	88.0546	117.188	87.146	117.188	87.9322	117.188	86.8418	117.188	87.7515	117.188	86.5327	117.188	87.5249	117.188	86.236	117.188	87.2696	117.188	85.9684	117.188	87.0071	117.188	85.7452	117.188	86.7604	117.188	85.5783	117.188	86.5492	117.188	85.4742	117.188	86.3859	117.188	85.4339	117.188	86.2722	117.188	85.4514	117.188	86.1997	117.188	85.5158	117.188	86.1536	117.188	85.612	117.188	86.117	117.188	85.7238	117.188	86.0746	117.188	85.8358	117.188	86.0157	117.188	85.9356
120.117	87.9859	120.117	87.8365	120.117	88.0655	120.117	87.6255	120.117	88.0702	120.117	87.3637	120.117	87.9981	120.117	87.0645	120.117	87.8513	120.117	86.7435	120.117	87.6361	120.117	86.4175	120.117	87.3644	120.117	86.1042	120.117	87.0536	120.117	85.82	120.117	86.7269	120.117	85.5796	120.117	86.4107	120.117	85.3936	120.117	86.1305	120.117	85.2674	120.117	85.9052	120.117	85.2006	120.117	85.7426	120.117	85.1869	120.117	85.6387	120.117	85.2148	120.117	85.5799	120.117	85.2701	120.117	85.5484	120.117	85.3375	120.117	85.5262	120.117	85.4038	120.117	85.4992	120.117	85.4591
124.512	88.3988	124.512	88.2035	124.512	88.5322	124.512	87.9569	124.512	88.5969	124.512	87.6725	124.512	88.5898	124.512	87.3666	124.512	88.5114	124.512	87.0571	124.512	88.3667	124.512	86.7619	124.512	88.1647	124.512	86.4978	124.512	87.9192	124.512	86.2785	124.512	87.6481	124.512	86.1129	124.512	87.372	124.512	86.0048	124.512	87.1118	124.512	85.9521	124.512	86.8852	124.512	85.9478	124.512	86.7028	124.512	85.9812	124.512	86.5673	124.512	86.0394	124.512	86.4737	124.512	86.1092	124.512	86.4118	124.512	86.1793	124.512	86.3689	124.512	86.2414	124.512	86.3323	124.512	86.292
128.906	88.4871	128.906	88.2771	128.906	88.6323	128.906	88.0123	128.906	88.7069	128.906	87.7066	128.906	88.7092	128.906	87.3776	128.906	88.6417	128.906	87.0456	128.906	88.5112	128.906	86.7321	128.906	88.3285	128.906	86.4578	128.906	88.1088	128.906	86.2398	128.906	87.8705	128.906	86.0897	128.906	87.6342	128.906	86.0118	128.906	87.419	128.906	86.0028	128.906	87.2396	128.906	86.0528	128.906	87.1029	128.906	86.1472	128.906	87.007	128.906	86.2689	128.906	86.9429	128.906	86.4013	128.906	86.8968	128.906	86.5294	128.906	86.8545	128.906	86.6424	128.906	86.8033	128.906	86.734
133.301	88.2896	133.301	88.0602	133.301	88.4488	133.301	87.7706	133.301	88.5328	133.301	87.4353	133.301	88.5407	133.301	87.0731	133.301	88.4763	133.301	86.7066	133.301	88.3478	133.301	86.3601	133.301	88.1671	133.301	86.0576	133.301	87.9502	133.301	85.8197	133.301	87.7159	133.301	85.6601	133.301	87.4837	133.301	85.5843	133.301	87.272	133.301	85.5882	133.301	87.0942	133.301	85.6598	133.301	86.9563	133.301	85.7819	133.301	86.8563	133.301	85.9347	133.301	86.7851	133.301	86.0989	133.301	86.7291	133.301	86.2578	133.301	86.6736	133.301	86.399	133.301	86.6055	133.301	86.5154
139.16	88.1609	139.16	87.9182	139.16	88.3258	139.16	87.6063	139.16	88.4091	139.16	87.2392	139.16	88.4118	139.16	86.8357	139.16	88.3395	139.16	86.4197	139.16	88.2023	139.16	86.0182	139.16	88.0139	139.16	85.6594	139.16	87.7918	139.16	85.3691	139.16	87.555	139.16	85.167	139.16	87.3228	139.16	85.0627	139.16	87.1117	139.16	85.0549	139.16	86.9327	139.16	85.1318	139.16	86.79	139.16	85.2739	139.16	86.6799	139.16	85.4582	139.16	86.593	139.16	85.6614	139.16	86.5155	139.16	85.8631	139.16	86.4329	139.16	86.0475	139.16	86.3324	139.16	86.205
143.555	88.1903	143.555	87.9602	143.555	88.3392	143.555	87.6566	143.555	88.4048	143.555	87.2922	143.555	88.3896	143.555	86.885	143.555	88.3014	143.555	86.4579	143.555	88.1523	143.555	86.0378	143.555	87.9585	143.555	85.6533	143.555	87.739	143.555	85.3322	143.555	87.5138	143.555	85.0974	143.555	87.3011	143.555	84.9627	143.555	87.1148	143.555	84.9311	143.555	86.9617	143.555	84.9941	143.555	86.841	143.555	85.134	143.555	86.7449	143.555	85.3277	143.555	86.6613	143.555	85.5505	143.555	86.5757	143.555	85.7797	143.555	86.4745	143.555	85.9964	143.555	86.3472	143.555	86.1878
147.949	88.0639	147.949	87.8558	147.949	88.1894	147.949	87.5731	147.949	88.2296	147.949	87.2291	147.949	88.1873	147.949	86.8422	147.949	88.0707	147.949	86.4354	147.949	87.8931	147.949	86.0347	147.949	87.6725	147.949	85.6678	147.949	87.4306	147.949	85.3607	147.949	87.1903	147.949	85.1345	147.949	86.9728	147.949	85.0021	147.949	86.7935	147.949	84.9666	147.949	86.6591	147.949	85.0205	147.949	86.567	147.949	85.1479	147.949	86.5063	147.949	85.3272	147.949	86.461	147.949	85.5347	147.949	86.4132	147.949	85.7474	147.949	86.3468	147.949	85.9459	147.949	86.2498	147.949	86.1159
153.809	87.8398	153.809	87.6207	153.809	87.9709	153.809	87.3227	153.809	88.0104	153.809	86.9606	153.809	87.9604	153.809	86.5544	153.809	87.8285	153.809	86.1288	153.809	87.628	153.809	85.712	153.809	87.3777	153.809	85.3329	153.809	87.1007	153.809	85.0182	153.809	86.8232	153.809	84.7887	153.809	86.5702	153.809	84.6562	153.809	86.3615	153.809	84.6222	153.809	86.2076	153.809	84.6777	153.809	86.1076	153.809	84.8058	153.809	86.05	153.809	84.9843	153.809	86.0165	153.809	85.1888	153.809	85.9861	153.809	85.3958	153.809	85.9391	153.809	85.5854	153.809	85.8607	153.809	85.7428
159.668	87.7909	159.668	87.5652	159.668	87.9263	159.668	87.2587	159.668	87.9677	159.668	86.8872	159.668	87.9177	159.668	86.472	159.668	87.7849	159.668	86.0397	159.668	87.5835	159.668	85.6198	159.668	87.3331	159.668	85.2425	159.668	87.0571	159.668	84.9349	159.668	86.7811	159.668	84.7168	159.668	86.5292	159.668	84.5982	159.668	86.3201	159.668	84.5784	159.668	86.1641	159.668	84.6464	159.668	86.0613	159.668	84.784	159.668	86.0021	159.668	84.9686	159.668	85.9697	159.668	85.1758	159.668	85.9433	159.668	85.3824	159.668	85.9028	159.668	85.5688	159.668	85.8318	159.668	85.7209
165.527	87.6977	165.527	87.4738	165.527	87.8265	165.527	87.1652	165.527	87.8566	165.527	86.7889	165.527	87.7914	165.527	86.3688	165.527	87.6408	165.527	85.9342	165.527	87.4216	165.527	85.5182	165.527	87.1566	165.527	85.154	165.527	86.8733	165.527	84.8703	165.527	86.601	165.527	84.6865	165.527	86.3661	165.527	84.6097	165.527	86.1869	165.527	84.6341	165.527	86.0704	165.527	84.7438	165.527	86.0121	165.527	84.9164	165.527	85.9979	165.527	85.1266	165.527	86.0082	165.527	85.3492	165.527	86.0208	165.527	85.561	165.527	86.0143	165.527	85.7429	165.527	85.9714	165.527	85.8818
171.387	87.6996	171.387	87.4683	171.387	87.8278	171.387	87.144	171.387	87.8494	171.387	86.7434	171.387	87.7672	171.387	86.2903	171.387	87.5904	171.387	85.8148	171.387	87.3348	171.387	85.3523	171.387	87.0227	171.387	84.9402	171.387	86.6831	171.387	84.6127	171.387	86.3492	171.387	84.3954	171.387	86.0545	171.387	84.2996	171.387	85.8264	171.387	84.3207	171.387	85.6796	171.387	84.4404	171.387	85.6129	171.387	84.6314	171.387	85.6105	171.387	84.8622	171.387	85.6469	171.387	85.1022	171.387	85.6923	171.387	85.3241	171.387	85.7189	171.387	85.5063	171.387	85.7043	171.387	85.6349
177.246	87.4631	177.246	87.228	177.246	87.5959	177.246	86.9016	177.246	87.6223	177.246	86.5018	177.246	87.5453	177.246	86.0529	177.246	87.3746	177.246	85.5845	177.246	87.1269	177.246	85.1295	177.246	86.8245	177.246	84.721	177.246	86.4944	177.246	84.3888	177.246	86.1651	177.246	84.1553	177.246	85.8634	177.246	84.0324	177.246	85.6106	177.246	84.0202	177.246	85.4207	177.246	84.107	177.246	85.2996	177.246	84.2707	177.246	85.2438	177.246	84.4825	177.246	85.2396	177.246	84.7105	177.246	85.2632	177.246	84.9241	177.246	85.285	177.246	85.0984	177.246	85.2766	177.246	85.2173
183.105	86.9828	183.105	86.7262	183.105	87.1275	183.105	86.3708	183.105	87.1561	183.105	85.9387	183.105	87.0734	183.105	85.4604	183.105	86.8927	183.105	84.9735	183.105	86.6363	183.105	84.5191	183.105	86.3348	183.105	84.1363	183.105	86.0248	183.105	83.8555	183.105	85.7441	183.105	83.6932	183.105	85.5238	183.105	83.6506	183.105	85.3797	183.105	83.7158	183.105	85.3084	183.105	83.868	183.105	85.2917	183.105	84.0821	183.105	85.3061	183.105	84.3306	183.105	85.3292	183.105	84.5867	183.105	85.3429	183.105	84.8258	183.105	85.3314	183.105	85.0282	183.105	85.2809	183.105	85.1813
188.965	86.9673	188.965	86.6826	188.965	87.1352	188.965	86.2942	188.965	87.1818	188.965	85.8244	188.965	87.1108	188.965	85.3046	188.965	86.9337	188.965	84.7743	188.965	86.6693	188.965	84.2776	188.965	86.3436	188.965	83.8575	188.965	85.9892	188.965	83.549	188.965	85.6438	188.965	83.3724	188.965	85.346	188.965	83.331	188.965	85.1281	188.965	83.4133	188.965	85.0082	188.965	83.5969	188.965	84.9837	188.965	83.8529	188.965	85.0323	188.965	84.1496	188.965	85.1179	188.965	84.4545	188.965	85.2011	188.965	84.7372	188.965	85.247	188.965	84.9718	188.965	85.2309	188.965	85.1395
196.289	86.8737	196.289	86.5718	196.289	87.0347	196.289	86.1444	196.289	87.0509	196.289	85.6192	196.289	86.9291	196.289	85.0376	196.289	86.6868	196.289	84.4539	196.289	86.3535	196.289	83.9295	196.289	85.9707	196.289	83.5227	196.289	85.5905	196.289	83.2732	196.289	85.2674	196.289	83.1928	196.289	85.0444	196.289	83.2653	196.289	84.9388	196.289	83.4574	196.289	84.9385	196.289	83.731	196.289	85.0125	196.289	84.0497	196.289	85.1258	196.289	84.382	196.289	85.2476	196.289	84.7	196.289	85.3517	196.289	84.9793	196.289	85.4151	196.289	85.2	196.289	85.4183	196.289	85.3481
203.613	87.3384	203.613	87.0243	203.613	87.4951	203.613	86.5641	203.613	87.4912	203.613	85.9792	203.613	87.3306	203.613	85.3034	203.613	87.0235	203.613	84.5845	203.613	86.5872	203.613	83.885	203.613	86.0484	203.613	83.277	203.613	85.448	203.613	82.8291	203.613	84.8466	203.613	82.5884	203.613	84.3236	203.613	82.5658	203.613	83.9624	203.613	82.7351	203.613	83.8168	203.613	83.0463	203.613	83.8829	203.613	83.4415	203.613	84.1011	203.613	83.8646	203.613	84.388	203.613	84.2667	203.613	84.6669	203.613	84.6068	203.613	84.8808	203.613	84.8534	203.613	84.9931	203.613	84.9853
210.938	87.3286	210.938	87.0059	210.938	87.4984	210.938	86.5398	210.938	87.5144	210.938	85.9506	210.938	87.3827	210.938	85.2704	210.938	87.1164	210.938	84.5453	210.938	86.7342	210.938	83.8346	210.938	86.2608	210.938	83.2046	210.938	85.7273	210.938	82.7165	210.938	85.1722	210.938	82.4103	210.938	84.6402	210.938	82.2945	210.938	84.1788	210.938	82.3481	210.938	83.8313	210.938	82.5324	210.938	83.6261	210.938	82.8025	210.938	83.5664	210.938	83.1134	210.938	83.6258	210.938	83.4219	210.938	83.7533	210.938	83.6888	210.938	83.888	210.938	83.8813	210.938	83.9754	210.938	83.9784
218.262	87.2442	218.262	86.9294	218.262	87.404	218.262	86.4702	218.262	87.4071	218.262	85.8883	218.262	87.2599	218.262	85.218	218.262	86.9769	218.262	84.5072	218.262	86.5802	218.262	83.816	218.262	86.1003	218.262	83.2097	218.262	85.5764	218.262	82.7465	218.262	85.0546	218.262	82.4622	218.262	84.583	218.262	82.3631	218.262	84.2022	218.262	82.4278	218.262	83.9369	218.262	82.6184	218.262	83.7911	218.262	82.89	218.262	83.7512	218.262	83.1967	218.262	83.7914	218.262	83.4955	218.262	83.8775	218.262	83.7489	218.262	83.97	218.262	83.9291	218.262	84.0289	218.262	84.0217
225.586	87.388	225.586	87.0387	225.586	87.5524	225.586	86.5125	225.586	87.5346	225.586	85.8317	225.586	87.3469	225.586	85.037	225.586	87.0101	225.586	84.1931	225.586	86.554	225.586	83.3888	225.586	86.0177	225.586	82.7253	225.586	85.45	225.586	82.2863	225.586	84.908	225.586	82.1043	225.586	84.4513	225.586	82.1529	225.586	84.1282	225.586	82.371	225.586	83.9603	225.586	82.6931	225.586	83.9346	225.586	83.0653	225.586	84.0115	225.586	83.4449	225.586	84.1423	225.586	83.7966	225.586	84.2818	225.586	84.09	225.586	84.3932	225.586	84.3021	225.586	84.4469	225.586	84.4208
232.91	87.9781	232.91	87.6891	232.91	88.0736	232.91	87.2073	232.91	87.9835	232.91	86.5438	232.91	87.7233	232.91	85.7242	232.91	87.3153	232.91	84.7953	232.91	86.7886	232.91	83.8319	232.91	86.1791	232.91	82.9406	232.91	85.5316	232.91	82.2435	232.91	84.9017	232.91	81.836	232.91	84.3545	232.91	81.7396	232.91	83.9545	232.91	81.8992	232.91	83.7453	232.91	82.2254	232.91	83.7272	232.91	82.6361	232.91	83.8533	232.91	83.0709	232.91	84.0484	232.91	83.4865	232.91	84.2377	232.91	83.8495	232.91	84.3649	232.91	84.1337	232.91	84.3969	232.91	84.3198
241.699	87.4197	241.699	87.1608	241.699	87.489	241.699	86.7138	241.699	87.3757	241.699	86.0905	241.699	87.0944	241.699	85.3165	241.699	86.6671	241.699	84.4375	241.699	86.1232	241.699	83.5259	241.699	85.5011	241.699	82.6843	241.699	84.8499	241.699	82.0321	241.699	84.2314	241.699	81.6658	241.699	83.7173	241.699	81.613	241.699	83.3767	241.699	81.824	241.699	83.2532	241.699	82.2099	241.699	83.3433	241.699	82.6842	241.699	83.5926	241.699	83.1798	241.699	83.9154	241.699	83.6467	241.699	84.2245	241.699	84.0457	241.699	84.4519	241.699	84.345	241.699	84.5562	241.699	84.5201
250.488	87.5978	250.488	87.3358	250.488	87.6628	250.488	86.8767	250.488	87.5365	250.488	86.2267	250.488	87.2295	250.488	85.4017	250.488	86.7577	250.488	84.4324	250.488	86.1426	250.488	83.3748	250.488	85.4126	250.488	82.3237	250.488	84.6071	250.488	81.4179	250.488	83.783	250.488	80.8119	250.488	83.021	250.488	80.6022	250.488	82.4246	250.488	80.7677	250.488	82.0965	250.488	81.1968	250.488	82.0924	250.488	81.7626	250.488	82.3771	250.488	82.3659	250.488	82.8327	250.488	82.9359	250.488	83.3137	250.488	83.4175	250.488	83.7003	250.488	83.7647	250.488	83.9191	250.488	83.9398
259.277	87.8144	259.277	87.6085	259.277	87.8381	259.277	87.2213	259.277	87.6865	259.277	86.6613	259.277	87.3737	259.277	85.9454	259.277	86.9202	259.277	85.1018	259.277	86.3512	259.277	84.174	259.277	85.6946	259.277	83.2284	259.277	84.9806	259.277	82.3587	259.277	84.2445	259.277	81.6784	259.277	83.5305	259.277	81.2881	259.277	82.8961	259.277	81.2275	259.277	82.414	259.277	81.4553	259.277	82.1625	259.277	81.8767	259.277	82.1905	259.277	82.3858	259.277	82.4696	259.277	82.8898	259.277	82.8872	259.277	83.3129	259.277	83.299	259.277	83.5949	259.277	83.5891	259.277	83.6932
268.066	87.3486	268.066	87.1433	268.066	87.3598	268.066	86.7466	268.066	87.1836	268.066	86.1724	268.066	86.8364	268.066	85.4478	268.066	86.3423	268.066	84.6166	268.066	85.7326	268.066	83.7443	268.066	85.0446	268.066	82.9202	268.066	84.3224	268.066	82.2494	268.066	83.6189	268.066	81.8257	268.066	82.9938	268.066	81.6926	268.066	82.5059	268.066	81.8246	268.066	82.2006	268.066	82.1469	268.066	82.1012	268.066	82.5702	268.066	82.2078	268.066	83.0142	268.066	82.4913	268.066	83.4119	268.066	82.8868	268.066	83.7079	268.066	83.3011	268.066	83.8587	268.066	83.6406	268.066	83.8369
276.855	87.0947	276.855	86.9231	276.855	87.0538	276.855	86.5364	276.855	86.8135	276.855	85.9433	276.855	86.3965	276.855	85.167	276.855	85.834	276.855	84.2515	276.855	85.1645	276.855	83.2712	276.855	84.4323	276.855	82.3428	276.855	83.6884	276.855	81.6213	276.855	82.9941	276.855	81.2552	276.855	82.4215	276.855	81.3048	276.855	82.0434	276.855	81.7038	276.855	81.9089	276.855	82.3109	276.855	82.0227	276.855	82.9855	276.855	82.3466	276.855	83.6202	276.855	82.8177	276.855	84.1398	276.855	83.3592	276.855	84.4923	276.855	83.8863	276.855	84.644	276.855	84.3158	276.855	84.5815
287.109	86.7222	287.109	86.714	287.109	86.4772	287.109	86.4382	287.109	86.0025	287.109	85.8887	287.109	85.3305	287.109	85.0686	287.109	84.5015	287.109	83.9941	287.109	83.56	287.109	82.7088	287.109	82.5534	287.109	81.3158	287.109	81.5393	287.109	80.0337	287.109	80.608	287.109	79.2099	287.109	79.9064	287.109	79.1262	287.109	79.6106	287.109	79.7094	287.109	79.8086	287.109	80.6285	287.109	80.4053	287.109	81.5961	287.109	81.1947	287.109	82.4557	287.109	81.9954	287.109	83.1343	287.109	82.7008	287.109	83.5986	287.109	83.2612	287.109	83.8361	287.109	83.6508	287.109	83.8489
297.363	87.3326	297.363	87.2942	297.363	87.1775	297.363	87.0524	297.363	86.8421	297.363	86.6007	297.363	86.3443	297.363	85.9349	297.363	85.7042	297.363	85.0534	297.363	84.9424	297.363	83.9595	297.363	84.0768	297.363	82.6712	297.363	83.1243	297.363	81.2486	297.363	82.1104	297.363	79.857	297.363	81.0927	297.363	78.8483	297.363	80.1991	297.363	78.6593	297.363	79.6609	297.363	79.368	297.363	79.7357	297.363	80.5782	297.363	80.4624	297.363	81.8627	297.363	81.5675	297.363	82.9799	297.363	82.7014	297.363	83.8179	297.363	83.6277	297.363	84.3226	297.363	84.2303	297.363	84.4644
307.617	88.0065	307.617	88.0153	307.617	87.7865	307.617	87.8091	307.617	87.3675	307.617	87.392	307.617	86.7705	307.617	86.7736	307.617	86.022	307.617	85.9681	307.617	85.1462	307.617	84.9931	307.617	84.1547	307.617	83.8713	307.617	83.0413	307.617	82.6353	307.617	81.7919	307.617	81.3431	307.617	80.4194	307.617	80.1131	307.617	79.0369	307.617	79.1756	307.617	77.9737	307.617	78.8514	307.617	77.7418	307.617	79.3021	307.617	78.5138	307.617	80.2988	307.617	79.8377	307.617	81.4297	307.617	81.1823	307.617	82.3838	307.617	82.2572	307.617	82.9955	307.617	82.9414	307.617	83.1899
319.336	87.3582	319.336	87.4111	319.336	87.1145	319.336	87.2606	319.336	86.7077	319.336	86.9089	319.336	86.1784	319.336	86.3698	319.336	85.5706	319.336	85.6664	319.336	84.9156	319.336	84.8305	319.336	84.2163	319.336	83.9037	319.336	83.4445	319.336	82.9426	319.336	82.5526	319.336	82.0239	319.336	81.4893	319.336	81.2434	319.336	80.2129	319.336	80.7004	319.336	78.7208	319.336	80.4648	319.336	77.165	319.336	80.5403	319.336	76.1113	319.336	80.8473	319.336	76.3646	319.336	81.2394	319.336	77.7403	319.336	81.5451	319.336	79.3085	319.336	81.6062	319.336	80.5395	319.336	81.2987
329.59	86.9921	329.59	87.0025	329.59	86.8051	329.59	86.8166	329.59	86.4762	329.59	86.4298	329.59	86.0498	329.59	85.8515	329.59	85.5696	329.59	85.1022	329.59	85.064	329.59	84.2128	329.59	84.5345	329.59	83.2251	329.59	83.9561	329.59	82.1986	329.59	83.2891	329.59	81.2213	329.59	82.4928	329.59	80.4167	329.59	81.5372	329.59	79.924	329.59	80.42	329.59	79.831	329.59	79.2136	329.59	80.1002	329.59	78.1659	329.59	80.573	329.59	77.7349	329.59	81.0484	329.59	78.1936	329.59	81.3516	329.59	79.2072	329.59	81.3571	329.59	80.242	329.59	80.9912
341.309	86.9029	341.309	86.9269	341.309	86.6826	341.309	86.7365	341.309	86.297	341.309	86.3281	341.309	85.7884	341.309	85.7122	341.309	85.2045	341.309	84.9139	341.309	84.5908	341.309	83.9732	341.309	83.9807	341.309	82.9455	341.309	83.3894	341.309	81.9016	341.309	82.8103	341.309	80.925	341.309	82.2128	341.309	80.1083	341.309	81.5465	341.309	79.5479	341.309	80.7685	341.309	79.3301	341.309	79.901	341.309	79.486	341.309	79.1157	341.309	79.9346	341.309	78.7468	341.309	80.4916	341.309	79.0203	341.309	80.9495	341.309	79.7381	341.309	81.1479	341.309	80.4915	341.309	80.9976
353.027	87.3512	353.027	87.3703	353.027	87.1082	353.027	87.1511	353.027	86.6708	353.027	86.6924	353.027	86.0831	353.027	86.0037	353.027	85.3973	353.027	85.1028	353.027	84.6595	353.027	84.0158	353.027	83.8988	353.027	82.7801	353.027	83.1322	353.027	81.4528	353.027	82.3797	353.027	80.1271	353.027	81.6653	353.027	78.9505	353.027	80.9928	353.027	78.122	353.027	80.3214	353.027	77.8202	353.027	79.59	353.027	78.0657	353.027	78.8047	353.027	78.668	353.027	78.1545	353.027	79.3416	353.027	77.9882	353.027	79.8397	353.027	78.4352	353.027	80.0032	353.027	79.1669	353.027	79.7639
366.211	87.2458	366.211	87.4439	366.211	86.8611	366.211	87.4336	366.211	86.3219	366.211	87.2053	366.211	85.6649	366.211	86.7611	366.211	84.9237	366.211	86.1148	366.211	84.1234	366.211	85.2917	366.211	83.2856	366.211	84.3315	366.211	82.4413	366.211	83.29	366.211	81.6353	366.211	82.2371	366.211	80.9019	366.211	81.246	366.211	80.2277	366.211	80.3816	366.211	79.5562	366.211	79.7089	366.211	78.8586	366.211	79.3119	366.211	78.2373	366.211	79.2623	366.211	77.9593	366.211	79.5173	366.211	78.2371	366.211	79.8825	366.211	78.9166	366.211	80.1163	366.211	79.6136	366.211	80.0452
379.395	87.58	379.395	87.4888	379.395	87.495	379.395	87.2194	379.395	87.2485	379.395	86.7802	379.395	86.8644	379.395	86.1874	379.395	86.3646	379.395	85.4627	379.395	85.7522	379.395	84.6368	379.395	85.0067	379.395	83.7548	379.395	84.1051	379.395	82.8815	379.395	83.0622	379.395	82.096	379.395	81.9647	379.395	81.4696	379.395	80.9576	379.395	81.0408	379.395	80.1581	379.395	80.8155	379.395	79.5718	379.395	80.7851	379.395	79.1511	379.395	80.9226	379.395	78.9466	379.395	81.151	379.395	79.1163	379.395	81.3347	379.395	79.6871	379.395	81.3239	379.395	80.4195	379.395	81.0175
392.578	87.3183	392.578	87.2958	392.578	87.1564	392.578	87.0778	392.578	86.8348	392.578	86.6669	392.578	86.3868	392.578	86.0748	392.578	85.843	392.578	85.3184	392.578	85.2206	392.578	84.4193	392.578	84.5217	392.578	83.4099	392.578	83.7464	392.578	82.3451	392.578	82.9118	392.578	81.3141	392.578	82.0562	392.578	80.4368	392.578	81.2146	392.578	79.8336	392.578	80.3854	392.578	79.5803	392.578	79.5432	392.578	79.6751	392.578	78.7346	392.578	80.0278	392.578	78.2069	392.578	80.4734	392.578	78.3071	392.578	80.8173	392.578	79.0213	392.578	80.891	392.578	79.9135	392.578	80.5909
405.762	86.7293	405.762	86.6661	405.762	86.5659	405.762	86.3751	405.762	86.1994	405.762	85.8767	405.762	85.6698	405.762	85.2075	405.762	85.0237	405.762	84.4115	405.762	84.3005	405.762	83.5338	405.762	83.5254	405.762	82.6209	405.762	82.7158	405.762	81.7309	405.762	81.9001	405.762	80.9416	405.762	81.132	405.762	80.3431	405.762	80.4774	405.762	80.0097	405.762	79.9662	405.762	79.9706	405.762	79.5566	405.762	80.1968	405.762	79.1874	405.762	80.5976	405.762	78.9131	405.762	81.0274	405.762	78.9595	405.762	81.3169	405.762	79.4793	405.762	81.3191	405.762	80.2668	405.762	80.9551
420.41	87.4821	420.41	87.4171	420.41	87.3094	420.41	87.1053	420.41	86.9273	420.41	86.5577	420.41	86.3756	420.41	85.8024	420.41	85.6932	420.41	84.8795	420.41	84.9066	420.41	83.8365	420.41	84.031	420.41	82.7262	420.41	83.0912	420.41	81.6102	420.41	82.1471	420.41	80.5633	420.41	81.2873	420.41	79.6818	420.41	80.5628	420.41	79.0938	420.41	79.9209	420.41	78.9456	420.41	79.2418	420.41	79.3049	420.41	78.4932	420.41	80.0357	420.41	77.9356	420.41	80.8394	420.41	78.0961	420.41	81.4195	420.41	79.077	420.41	81.5719	420.41	80.29	420.41	81.1924
435.059	87.0665	435.059	87.0731	435.059	86.8366	435.059	86.8371	435.059	86.4197	435.059	86.3599	435.059	85.8585	435.059	85.6607	435.059	85.1893	435.059	84.7713	435.059	84.4344	435.059	83.7349	435.059	83.6059	435.059	82.6101	435.059	82.7221	435.059	81.4783	435.059	81.8347	435.059	80.4361	435.059	81.0445	435.059	79.5671	435.059	80.4653	435.059	78.9235	435.059	80.1242	435.059	78.5605	435.059	79.8944	435.059	78.5679	435.059	79.5693	435.059	78.9699	435.059	79.0399	435.059	79.5794	435.059	78.4923	435.059	80.067	435.059	78.4155	435.059	80.1567	435.059	78.9955	435.059	79.7451
451.172	87.6032	451.172	87.5287	451.172	87.4287	451.172	87.1941	451.172	87.0281	451.172	86.6062	451.172	86.4261	451.172	85.7868	451.172	85.6457	451.172	84.7665	451.172	84.7096	451.172	83.5786	451.172	83.6433	451.172	82.2657	451.172	82.4788	451.172	80.9003	451.172	81.2768	451.172	79.6155	451.172	80.162	451.172	78.6125	451.172	79.3171	451.172	78.0971	451.172	78.8691	451.172	78.1627	451.172	78.7813	451.172	78.7374	451.172	78.936	451.172	79.6227	451.172	79.2876	451.172	80.5614	451.172	79.8537	451.172	81.3123	451.172	80.5726	451.172	81.7079	451.172	81.2525	451.172	81.6772
465.82	87.7567	465.82	87.7367	465.82	87.4938	465.82	87.4269	465.82	86.9748	465.82	86.8442	465.82	86.2422	465.82	86.0274	465.82	85.3551	465.82	85.0277	465.82	84.3779	465.82	83.8968	465.82	83.3458	465.82	82.6795	465.82	82.2394	465.82	81.4154	465.82	81.0364	465.82	80.1514	465.82	79.8293	465.82	78.9642	465.82	78.8753	465.82	78.0018	465.82	78.3727	465.82	77.518	465.82	78.1453	465.82	77.7465	465.82	77.8139	465.82	78.5854	465.82	77.2604	465.82	79.5919	465.82	76.9593	465.82	80.3251	465.82	77.612	465.82	80.5107	465.82	78.9188	465.82	80.0247
483.398	87.3334	483.398	87.3893	483.398	86.9941	483.398	87.1372	483.398	86.4228	483.398	86.5845	483.398	85.6921	483.398	85.7686	483.398	84.8869	483.398	84.749	483.398	84.0781	483.398	83.596	483.398	83.2801	483.398	82.3827	483.398	82.4451	483.398	81.1814	483.398	81.5267	483.398	80.0607	483.398	80.5465	483.398	79.0839	483.398	79.6024	483.398	78.3351	483.398	78.8084	483.398	77.986	483.398	78.1961	483.398	78.2543	483.398	77.6802	483.398	79.0981	483.398	77.2277	483.398	80.1015	483.398	77.1503	483.398	80.8059	483.398	77.9022	483.398	80.9306	483.398	79.22	483.398	80.3715
499.512	87.4169	499.512	87.3372	499.512	87.2131	499.512	86.9552	499.512	86.7702	499.512	86.2907	499.512	86.1481	499.512	85.4065	499.512	85.4138	499.512	84.3958	499.512	84.6148	499.512	83.3527	499.512	83.736	499.512	82.3424	499.512	82.7167	499.512	81.3893	499.512	81.5585	499.512	80.4869	499.512	80.4386	499.512	79.6198	499.512	79.6824	499.512	78.8102	499.512	79.4879	499.512	78.2155	499.512	79.6786	499.512	78.1745	499.512	79.8629	499.512	78.8668	499.512	79.7449	499.512	79.9138	499.512	79.3537	499.512	80.7304	499.512	79.1823	499.512	80.9548	499.512	79.699	499.512	80.5155
517.09	88.4607	517.09	88.3513	517.09	88.1941	517.09	87.8494	517.09	87.6125	517.09	86.9868	517.09	86.8198	517.09	85.8461	517.09	85.95	517.09	84.5495	517.09	85.1104	517.09	83.2262	517.09	84.2971	517.09	81.9677	517.09	83.3825	517.09	80.8055	517.09	82.2108	517.09	79.7336	517.09	80.7153	517.09	78.764	517.09	79.0466	517.09	77.9975	517.09	77.7637	517.09	77.6932	517.09	77.6041	517.09	78.1483	517.09	78.4067	517.09	79.2721	517.09	79.3597	517.09	80.5477	517.09	80.078	517.09	81.497	517.09	80.6474	517.09	81.8936	517.09	81.2321	517.09	81.7399
536.133	87.7469	536.133	87.9822	536.133	87.0722	536.133	87.7359	536.133	86.0778	536.133	87.0285	536.133	84.9562	536.133	85.9358	536.133	83.8914	536.133	84.5864	536.133	82.9376	536.133	83.1479	536.133	82.0417	536.133	81.7851	536.133	81.1907	536.133	80.5943	536.133	80.4457	536.133	79.5693	536.133	79.8196	536.133	78.652	536.133	79.2004	536.133	77.8417	536.133	78.4626	536.133	77.3179	536.133	77.6513	536.133	77.4444	536.133	77.0238	536.133	78.3559	536.133	76.8314	536.133	79.6	536.133	77.1889	536.133	80.5705	536.133	78.1475	536.133	80.9042	536.133	79.4343	536.133	80.4869
555.176	87.3632	555.176	87.6222	555.176	86.7626	555.176	87.4547	555.176	85.986	555.176	86.8584	555.176	85.2201	555.176	85.901	555.176	84.5407	555.176	84.6991	555.176	83.8452	555.176	83.3792	555.176	82.9634	555.176	82.0346	555.176	81.8021	555.176	80.7114	555.176	80.4293	555.176	79.4248	555.176	79.0971	555.176	78.1513	555.176	78.0835	555.176	76.808	555.176	77.4546	555.176	75.4425	555.176	77.1564	555.176	74.9188	555.176	77.1534	555.176	76.4371	555.176	77.4193	555.176	78.8905	555.176	78.1256	555.176	80.8176	555.176	79.4191	555.176	81.7829	555.176	80.8442	555.176	81.7511
574.219	86.9651	574.219	87.0548	574.219	86.6023	574.219	86.7735	574.219	86.1362	574.219	86.1151	574.219	85.7269	574.219	85.1571	574.219	85.3983	574.219	84.0339	574.219	85.0073	574.219	82.8841	574.219	84.3539	574.219	81.7849	574.219	83.2802	574.219	80.7351	574.219	81.7048	574.219	79.7217	574.219	79.7008	574.219	78.7845	574.219	77.7352	574.219	77.9712	574.219	76.6719	574.219	77.264	574.219	76.6948	574.219	76.7415	574.219	77.0422	574.219	76.908	574.219	77.1266	574.219	78.1277	574.219	77.0469	574.219	79.6396	574.219	77.6712	574.219	80.5052	574.219	79.1414	574.219	80.3207
594.727	88.1296	594.727	88.4514	594.727	87.4398	594.727	88.2977	594.727	86.592	594.727	87.6519	594.727	85.8192	594.727	86.5588	594.727	85.2139	594.727	85.1069	594.727	84.6847	594.727	83.4269	594.727	84.0878	594.727	81.7106	594.727	83.3184	594.727	80.2285	594.727	82.2891	594.727	79.2361	594.727	80.8756	594.727	78.7418	594.727	78.9274	594.727	78.4945	594.727	76.5817	594.727	78.3024	594.727	75.2753	594.727	78.3163	594.727	76.2933	594.727	78.9478	594.727	77.6925	594.727	80.1692	594.727	78.3618	594.727	81.2994	594.727	78.8487	594.727	81.7172	594.727	79.949	594.727	81.1864
615.234	88.4492	615.234	89.0471	615.234	87.4035	615.234	89.0743	615.234	86.2134	615.234	88.5426	615.234	85.2431	615.234	87.5394	615.234	84.6065	615.234	86.191	615.234	84.119	615.234	84.642	615.234	83.5545	615.234	83.0444	615.234	82.7883	615.234	81.5336	615.234	81.8222	615.234	80.1891	615.234	80.7467	615.234	79.0385	615.234	79.6383	615.234	78.0763	615.234	78.4864	615.234	77.2498	615.234	77.1431	615.234	76.6612	615.234	75.162	615.234	76.984	615.234	71.6379	615.234	78.5288	615.234	67.7632	615.234	80.1602	615.234	72.9759	615.234	80.8439	615.234	77.698	615.234	80.1323
637.207	88.3239	637.207	88.9076	637.207	87.5527	637.207	89.058	637.207	86.9534	637.207	88.701	637.207	86.7272	637.207	87.8786	637.207	86.7264	637.207	86.6909	637.207	86.6127	637.207	85.2627	637.207	86.0917	637.207	83.7309	637.207	85.0345	637.207	82.2315	637.207	83.5152	637.207	80.8805	637.207	81.7942	637.207	79.761	637.207	80.2728	637.207	78.8753	637.207	79.3433	637.207	78.117	637.207	79.1384	637.207	77.5516	637.207	79.3684	637.207	77.8686	637.207	79.3082	637.207	79.3798	637.207	78.3761	637.207	80.9158	637.207	77.3552	637.207	81.4289	637.207	78.5153	637.207	80.5376
659.18	87.7601	659.18	88.6398	659.18	86.7046	659.18	88.9951	659.18	86.0236	659.18	88.7313	659.18	85.9057	659.18	87.8866	659.18	85.9521	659.18	86.5697	659.18	85.7769	659.18	84.95	659.18	85.2992	659.18	83.2337	659.18	84.617	659.18	81.5844	659.18	83.7905	659.18	80.0882	659.18	82.6645	659.18	78.8744	659.18	80.8696	659.18	78.1438	659.18	78.2469	659.18	77.8644	659.18	76.5852	659.18	77.8426	659.18	77.7103	659.18	78.3615	659.18	78.2355	659.18	79.7447	659.18	76.1346	659.18	81.203	659.18	72.5131	659.18	81.6606	659.18	76.6042	659.18	80.3788
682.617	87.707	682.617	88.6221	682.617	86.6805	682.617	89.011	682.617	86.2178	682.617	88.7881	682.617	86.4252	682.617	88.0207	682.617	86.6786	682.617	86.8472	682.617	86.5145	682.617	85.4564	682.617	85.8732	682.617	84.0409	682.617	84.9083	682.617	82.7079	682.617	83.8269	682.617	81.456	682.617	82.8091	682.617	80.2554	682.617	81.889	682.617	79.085	682.617	80.8232	682.617	77.9564	682.617	79.4869	682.617	77.2742	682.617	78.7193	682.617	78.0758	682.617	78.8225	682.617	80.0666	682.617	77.9758	682.617	81.5724	682.617	75.1206	682.617	81.5795	682.617	75.3873	682.617	79.5119
707.52	88.0649	707.52	88.8553	707.52	87.7578	707.52	89.2593	707.52	88.3208	707.52	88.9566	707.52	88.9629	707.52	88.02	707.52	89.0406	707.52	86.6725	707.52	88.4635	707.52	85.1797	707.52	87.3708	707.52	83.8033	707.52	85.9021	707.52	82.7328	707.52	84.1584	707.52	81.9104	707.52	82.319	707.52	81.0748	707.52	80.75	707.52	80.1088	707.52	79.8774	707.52	78.9806	707.52	79.7449	707.52	77.42	707.52	80.331	707.52	76.0331	707.52	81.486	707.52	77.668	707.52	82.0183	707.52	80.1096	707.52	80.8029	707.52	80.524	707.52	78.2942	707.52	78.7787
732.422	87.3191	732.422	88.3685	732.422	87.3272	732.422	89.2687	732.422	88.1511	732.422	89.388	732.422	88.58	732.422	88.706	732.422	88.2162	732.422	87.3684	732.422	87.2134	732.422	85.5333	732.422	85.8133	732.422	83.4299	732.422	84.1294	732.422	81.5406	732.422	82.2372	732.422	80.4212	732.422	80.4402	732.422	80.0271	732.422	79.1002	732.422	79.9472	732.422	77.613	732.422	79.9036	732.422	74.9323	732.422	79.6007	732.422	75.4056	732.422	78.9296	732.422	79.1315	732.422	79.0986	732.422	80.0752	732.422	80.6688	732.422	76.966	732.422	81.1255	732.422	71.7713	732.422	78.4226
757.324	86.9668	757.324	87.6369	757.324	87.6805	757.324	88.8276	757.324	88.6278	757.324	89.4314	757.324	88.7912	757.324	89.147	757.324	87.992	757.324	87.9166	757.324	86.356	757.324	85.6604	757.324	84.132	757.324	82.2219	757.324	81.7281	757.324	77.4568	757.324	79.7798	757.324	73.3652	757.324	78.9526	757.324	74.6449	757.324	79.279	757.324	76.4653	757.324	80.2346	757.324	76.8843	757.324	80.941	757.324	76.2633	757.324	80.3867	757.324	75.5387	757.324	78.1368	757.324	75.9389	757.324	75.731	757.324	76.9575	757.324	75.9381	757.324	77.246	757.324	76.5103	757.324	76.815
785.156	87.4024	785.156	86.1429	785.156	89.0691	785.156	87.276	785.156	89.4768	785.156	88.8726	785.156	88.4968	785.156	89.5196	785.156	86.6097	785.156	89.0646	785.156	84.7564	785.156	87.5492	785.156	83.4981	785.156	85.0195	785.156	82.3322	785.156	81.6154	785.156	80.5458	785.156	77.8567	785.156	77.472	785.156	74.8579	785.156	72.3873	785.156	73.3968	785.156	72.8369	785.156	73.4606	785.156	78.0753	785.156	73.6412	785.156	80.5108	785.156	72.2669	785.156	80.6549	785.156	72.5765	785.156	79.5222	785.156	76.0926	785.156	79.0412	785.156	78.4474	785.156	79.4901	785.156	79.4541
811.523	87.9942	811.523	87.0894	811.523	88.317	811.523	86.5951	811.523	87.8257	811.523	87.0303	811.523	86.9196	811.523	87.5388	811.523	86.1069	811.523	87.3922	811.523	85.3637	811.523	86.4191	811.523	84.37	811.523	84.6623	811.523	83.0656	811.523	82.2433	811.523	81.6015	811.523	79.6509	811.523	79.9815	811.523	78.0768	811.523	77.7805	811.523	77.5992	811.523	74.2868	811.523	77.0818	811.523	70.4485	811.523	76.7735	811.523	73.4199	811.523	76.7424	811.523	77.6847	811.523	76.2555	811.523	79.1811	811.523	76.2806	811.523	77.4494	811.523	76.2415	811.523	72.5218	811.523	73.5252
840.82	85.823	840.82	86.1652	840.82	87.7385	840.82	87.8861	840.82	89.2884	840.82	88.6482	840.82	89.3138	840.82	87.808	840.82	87.5233	840.82	84.9784	840.82	83.5837	840.82	79.096	840.82	76.6122	840.82	66.9837	840.82	74.9305	840.82	70.6729	840.82	79.3103	840.82	73.8497	840.82	80.1091	840.82	75.7514	840.82	77.875	840.82	74.3728	840.82	72.424	840.82	71.9746	840.82	72.733	840.82	77.1826	840.82	79.5512	840.82	78.9327	840.82	82.8505	840.82	79.3777	840.82	82.6844	840.82	81.5702	840.82	77.54	840.82	82.6905	840.82	65.8859	840.82	80.2065
870.117	82.2768	870.117	86.8988	870.117	86.8112	870.117	89.1556	870.117	90.899	870.117	88.5889	870.117	91.6945	870.117	85.2947	870.117	89.7379	870.117	77.3141	870.117	84.9368	870.117	67.5614	870.117	76.1972	870.117	77.7706	870.117	57.0295	870.117	79.0647	870.117	70.4842	870.117	77.5705	870.117	73.5408	870.117	76.0953	870.117	75.7846	870.117	77.1556	870.117	76.845	870.117	79.0368	870.117	74.4598	870.117	80.3144	870.117	69.0238	870.117	80.5971	870.117	77.2464	870.117	80.2159	870.117	81.6608	870.117	79.9328	870.117	81.9987	870.117	77.7872	870.117	77.2762	870.117	65.8497
900.879	90.013	900.879	87.1204	900.879	90.8316	900.879	83.5529	900.879	89.6596	900.879	83.6039	900.879	87.027	900.879	84.7985	900.879	84.701	900.879	85.0984	900.879	83.3252	900.879	85.437	900.879	80.3365	900.879	86.7956	900.879	75.0529	900.879	88.7132	900.879	76.8611	900.879	90.2535	900.879	80.9485	900.879	91.0239	900.879	84.2499	900.879	91.1916	900.879	87.0735	900.879	90.8474	900.879	88.7297	900.879	89.4304	900.879	88.417	900.879	86.8962	900.879	85.2646	900.879	84.8873	900.879	81.5545	900.879	82.6324	900.879	85.688	900.879	76.7778	900.879	86.7558	900.879	82.8405
933.105	88.9764	933.105	88.9801	933.105	89.3447	933.105	88.6087	933.105	88.9623	933.105	87.0128	933.105	85.8695	933.105	83.82	933.105	76.9377	933.105	78.5489	933.105	79.7579	933.105	68.9651	933.105	84.4805	933.105	64.0819	933.105	85.8792	933.105	73.8704	933.105	86.422	933.105	78.0208	933.105	86.5865	933.105	79.2218	933.105	86.2667	933.105	77.3103	933.105	85.0928	933.105	71.6643	933.105	81.6933	933.105	70.8983	933.105	71.6879	933.105	74.7288	933.105	76.9089	933.105	73.3748	933.105	80.9703	933.105	75.6108	933.105	79.5068	933.105	78.833	933.105	74.4648	933.105	77.1083
965.332	91.8301	965.332	91.8947	965.332	87.7043	965.332	88.7013	965.332	79.0904	965.332	80.4193	965.332	87.8171	965.332	80.955	965.332	90.6009	965.332	87.9012	965.332	89.9073	965.332	90.7295	965.332	86.7756	965.332	91.9829	965.332	82.7665	965.332	92.4648	965.332	82.6897	965.332	92.1023	965.332	84.5457	965.332	90.6377	965.332	85.978	965.332	88.624	965.332	87.1868	965.332	87.0844	965.332	87.8224	965.332	85.7006	965.332	86.8578	965.332	83.4874	965.332	82.4722	965.332	79.4853	965.332	74.9776	965.332	76.3849	965.332	81.6755	965.332	69.5414	965.332	81.6959	965.332	73.9137
1,000.49	86.9946	1,000.49	89.8271	1,000.49	87.1269	1,000.49	90.806	1,000.49	89.9906	1,000.49	89.5672	1,000.49	90.3039	1,000.49	85.1139	1,000.49	87.4105	1,000.49	70.614	1,000.49	80.764	1,000.49	83.0495	1,000.49	78.8776	1,000.49	88.3463	1,000.49	84.0451	1,000.49	91.0036	1,000.49	86.5438	1,000.49	92.0223	1,000.49	87.6725	1,000.49	91.6212	1,000.49	87.9782	1,000.49	90.9029	1,000.49	88.2348	1,000.49	89.9762	1,000.49	89.0731	1,000.49	87.9596	1,000.49	89.3207	1,000.49	85.6623	1,000.49	87.3295	1,000.49	82.5704	1,000.49	80.2885	1,000.49	79.6465	1,000.49	81.4117	1,000.49	74.7362	1,000.49	84.609	1,000.49	80.6594
1,035.64	88.5516	1,035.64	91.8735	1,035.64	84.1512	1,035.64	91.2751	1,035.64	91.1987	1,035.64	86.6624	1,035.64	93.5065	1,035.64	70.5303	1,035.64	91.469	1,035.64	86.5229	1,035.64	84.5374	1,035.64	91.7568	1,035.64	87.4807	1,035.64	94.7629	1,035.64	92.7551	1,035.64	96.8077	1,035.64	94.7315	1,035.64	97.7963	1,035.64	95.1688	1,035.64	97.4237	1,035.64	94.9986	1,035.64	96.1032	1,035.64	93.9748	1,035.64	94.3385	1,035.64	92.1817	1,035.64	91.3849	1,035.64	91.2074	1,035.64	87.8066	1,035.64	90.3991	1,035.64	83.4267	1,035.64	86.6693	1,035.64	78.7537	1,035.64	80.2387	1,035.64	80.4102	1,035.64	84.3433	1,035.64	84.44
1,072.27	84.8749	1,072.27	89.4333	1,072.27	88.9037	1,072.27	91.2642	1,072.27	92.3481	1,072.27	89.682	1,072.27	91.1803	1,072.27	83.8565	1,072.27	80.8134	1,072.27	82.452	1,072.27	86.7712	1,072.27	89.8182	1,072.27	93.2773	1,072.27	93.9931	1,072.27	95.3169	1,072.27	96.2684	1,072.27	95.7069	1,072.27	96.9872	1,072.27	95.6095	1,072.27	96.2016	1,072.27	95.2048	1,072.27	94.2871	1,072.27	93.6299	1,072.27	91.7676	1,072.27	90.6141	1,072.27	88.3612	1,072.27	88.3729	1,072.27	84.266	1,072.27	88.8485	1,072.27	77.8868	1,072.27	86.649	1,072.27	66.2931	1,072.27	75.3532	1,072.27	77.4683	1,072.27	78.1748	1,072.27	81.1814
1,108.89	83.5021	1,108.89	90.296	1,108.89	87.8859	1,108.89	91.2182	1,108.89	92.8604	1,108.89	87.8387	1,108.89	92.1729	1,108.89	76.608	1,108.89	83.7242	1,108.89	84.6702	1,108.89	84.5105	1,108.89	90.2211	1,108.89	91.5737	1,108.89	92.2684	1,108.89	93.3986	1,108.89	92.419	1,108.89	93.001	1,108.89	91.5238	1,108.89	91.263	1,108.89	90.4167	1,108.89	90.1344	1,108.89	89.1678	1,108.89	89.32	1,108.89	86.5675	1,108.89	87.4031	1,108.89	83.0743	1,108.89	83.37	1,108.89	80.4476	1,108.89	82.5313	1,108.89	77.1947	1,108.89	84.9384	1,108.89	73.8552	1,108.89	81.6471	1,108.89	78.7112	1,108.89	42.9315	1,108.89	78.9228
1,148.44	85.831	1,148.44	85.1472	1,148.44	90.3589	1,148.44	88.9069	1,148.44	90.7442	1,148.44	89.2556	1,148.44	85.6922	1,148.44	86.2343	1,148.44	84.6766	1,148.44	80.0274	1,148.44	90.8924	1,148.44	83.4602	1,148.44	92.2751	1,148.44	88.8192	1,148.44	91.7972	1,148.44	90.989	1,148.44	90.8329	1,148.44	90.7675	1,148.44	89.7104	1,148.44	88.6873	1,148.44	88.6829	1,148.44	85.5335	1,148.44	86.6407	1,148.44	81.2576	1,148.44	81.8653	1,148.44	76.2759	1,148.44	70.1691	1,148.44	73.0512	1,148.44	77.815	1,148.44	71.4069	1,148.44	78.5517	1,148.44	71.1475	1,148.44	75.0929	1,148.44	72.4852	1,148.44	78.1502	1,148.44	76.6455
1,189.45	84.7201	1,189.45	85.8966	1,189.45	92.1508	1,189.45	91.1652	1,189.45	92.6598	1,189.45	90.8587	1,189.45	85.4577	1,189.45	86.3954	1,189.45	85.7223	1,189.45	85.9236	1,189.45	93.8105	1,189.45	92.305	1,189.45	95.7715	1,189.45	95.5918	1,189.45	96.0979	1,189.45	96.7685	1,189.45	95.8693	1,189.45	96.3333	1,189.45	94.9308	1,189.45	94.4142	1,189.45	93.6099	1,189.45	91.8298	1,189.45	91.7324	1,189.45	89.1412	1,189.45	88.4232	1,189.45	84.9631	1,189.45	82.8679	1,189.45	79.0141	1,189.45	83.6984	1,189.45	71.8953	1,189.45	84.0424	1,189.45	70.3065	1,189.45	73.4372	1,189.45	70.5343	1,189.45	77.7405	1,189.45	79.453
1,230.47	90.4266	1,230.47	86.1084	1,230.47	90.12	1,230.47	84.1716	1,230.47	85.5776	1,230.47	89.0027	1,230.47	88.4381	1,230.47	90.187	1,230.47	91.6656	1,230.47	88.9261	1,230.47	91.2619	1,230.47	87.7344	1,230.47	88.2409	1,230.47	89.4182	1,230.47	86.5982	1,230.47	90.8003	1,230.47	87.5667	1,230.47	90.0314	1,230.47	87.1714	1,230.47	86.6448	1,230.47	84.9885	1,230.47	81.3619	1,230.47	81.1242	1,230.47	78.0052	1,230.47	78.8976	1,230.47	79.6083	1,230.47	73.5315	1,230.47	79.0332	1,230.47	70.9101	1,230.47	74.2553	1,230.47	77.6235	1,230.47	73.9292	1,230.47	63.9792	1,230.47	58.7226	1,230.47	78.185	1,230.47	77.0491
1,274.41	89.4908	1,274.41	84.3599	1,274.41	91.6246	1,274.41	87.6049	1,274.41	88.2963	1,274.41	88.9366	1,274.41	83.4739	1,274.41	85.7388	1,274.41	90.7838	1,274.41	78.6911	1,274.41	92.442	1,274.41	86.5947	1,274.41	91.0602	1,274.41	90.9088	1,274.41	89.3389	1,274.41	92.188	1,274.41	88.6437	1,274.41	91.6955	1,274.41	87.0655	1,274.41	89.3966	1,274.41	85.4488	1,274.41	86.1715	1,274.41	84.6204	1,274.41	83.3931	1,274.41	84.8271	1,274.41	77.1595	1,274.41	83.4016	1,274.41	63.4002	1,274.41	75.436	1,274.41	68.5286	1,274.41	78.5604	1,274.41	64.4156	1,274.41	80.0463	1,274.41	70.4977	1,274.41	74.6568	1,274.41	72.9144
1,319.82	89.6508	1,319.82	87.0147	1,319.82	90.1365	1,319.82	85.4671	1,319.82	88.424	1,319.82	85.9462	1,319.82	87.9537	1,319.82	84.9542	1,319.82	88.0268	1,319.82	81.2078	1,319.82	84.5876	1,319.82	72.344	1,319.82	74.9755	1,319.82	74.3379	1,319.82	68.2289	1,319.82	77.7255	1,319.82	76.2443	1,319.82	77.8404	1,319.82	78.658	1,319.82	75.8963	1,319.82	79.3698	1,319.82	73.1807	1,319.82	76.7863	1,319.82	69.2563	1,319.82	70.1083	1,319.82	55.5361	1,319.82	76.7324	1,319.82	69.7125	1,319.82	73.1268	1,319.82	67.6991	1,319.82	71.0952	1,319.82	63.6362	1,319.82	75.5064	1,319.82	66.0019	1,319.82	77.1505	1,319.82	75.4035
1,366.7	89.7032	1,366.7	87.7628	1,366.7	89.5554	1,366.7	85.1861	1,366.7	88.1467	1,366.7	85.0282	1,366.7	88.9134	1,366.7	84.8305	1,366.7	88.5976	1,366.7	81.0387	1,366.7	82.4444	1,366.7	59.3256	1,366.7	73.4739	1,366.7	76.4346	1,366.7	84.4434	1,366.7	81.7347	1,366.7	86.039	1,366.7	84.146	1,366.7	87.1849	1,366.7	84.4439	1,366.7	87.6981	1,366.7	83.8087	1,366.7	86.4469	1,366.7	80.2929	1,366.7	82.8091	1,366.7	69.5689	1,366.7	78.9595	1,366.7	72.9642	1,366.7	79.1959	1,366.7	75.4513	1,366.7	71.0585	1,366.7	71.1051	1,366.7	74.7674	1,366.7	66.4255	1,366.7	79.4034	1,366.7	74.2326
1,413.57	89.8648	1,413.57	87.1178	1,413.57	90.7377	1,413.57	86.6599	1,413.57	88.4713	1,413.57	86.8466	1,413.57	89.5646	1,413.57	84.1017	1,413.57	90.2511	1,413.57	62.6651	1,413.57	84.644	1,413.57	82.6376	1,413.57	80.5557	1,413.57	86.7583	1,413.57	87.8565	1,413.57	88.3576	1,413.57	88.2228	1,413.57	87.7595	1,413.57	87.7521	1,413.57	83.1529	1,413.57	87.2226	1,413.57	77.0527	1,413.57	83.5937	1,413.57	67.5478	1,413.57	75.1302	1,413.57	63.2635	1,413.57	66.303	1,413.57	76.7261	1,413.57	71.8009	1,413.57	76.7205	1,413.57	77.2121	1,413.57	69.3357	1,413.57	66.4472	1,413.57	63.6983	1,413.57	80.3784	1,413.57	78.4121
1,463.38	88.6411	1,463.38	87.1593	1,463.38	89.4334	1,463.38	85.7041	1,463.38	89.1157	1,463.38	85.688	1,463.38	88.9412	1,463.38	83.1145	1,463.38	87.9702	1,463.38	71.1719	1,463.38	79.4784	1,463.38	80.9388	1,463.38	76.4365	1,463.38	86.3371	1,463.38	81.5862	1,463.38	85.7716	1,463.38	79.1722	1,463.38	85.2668	1,463.38	78.0662	1,463.38	88.9	1,463.38	81.3796	1,463.38	89.5239	1,463.38	86.2009	1,463.38	87.8882	1,463.38	88.0776	1,463.38	86.1315	1,463.38	86.4218	1,463.38	82.628	1,463.38	81.31	1,463.38	83.2037	1,463.38	84.3515	1,463.38	76.6682	1,463.38	77.0632	1,463.38	71.1317	1,463.38	81.3942	1,463.38	81.1587
1,516.11	86.4327	1,516.11	85.5849	1,516.11	87.7582	1,516.11	85.6345	1,516.11	89.0212	1,516.11	86.2738	1,516.11	87.5746	1,516.11	85.161	1,516.11	79.8852	1,516.11	81.0327	1,516.11	81.5215	1,516.11	74.4119	1,516.11	83.9855	1,516.11	74.9832	1,516.11	81.6542	1,516.11	81.2368	1,516.11	80.6829	1,516.11	82.8784	1,516.11	80.4522	1,516.11	83.1634	1,516.11	80.8226	1,516.11	79.8819	1,516.11	81.7007	1,516.11	72.6279	1,516.11	81.9343	1,516.11	72.0661	1,516.11	76.6764	1,516.11	77.284	1,516.11	58.0236	1,516.11	78.2383	1,516.11	74.6018	1,516.11	64.7298	1,516.11	75.4859	1,516.11	62.9416	1,516.11	74.9094	1,516.11	75.7162
1,568.85	87.2042	1,568.85	85.7175	1,568.85	88.9486	1,568.85	84.7411	1,568.85	88.4876	1,568.85	84.3373	1,568.85	85.581	1,568.85	84.3782	1,568.85	86.0361	1,568.85	84.9533	1,568.85	83.3635	1,568.85	85.4164	1,568.85	62.7813	1,568.85	84.2067	1,568.85	79.2744	1,568.85	84.5696	1,568.85	82.0073	1,568.85	84.1309	1,568.85	80.5189	1,568.85	82.5978	1,568.85	77.5649	1,568.85	80.2587	1,568.85	77.6225	1,568.85	75.7074	1,568.85	77.7639	1,568.85	70.7115	1,568.85	69.3087	1,568.85	65.5494	1,568.85	74.5766	1,568.85	61.9484	1,568.85	72.6027	1,568.85	59.3931	1,568.85	67.3099	1,568.85	66.1098	1,568.85	72.4649	1,568.85	49.0131
1,624.51	87.8703	1,624.51	84.1215	1,624.51	88.7964	1,624.51	84.0376	1,624.51	87.8091	1,624.51	84.081	1,624.51	87.2752	1,624.51	82.045	1,624.51	83.7575	1,624.51	82.2379	1,624.51	80.5974	1,624.51	82.6441	1,624.51	79.6858	1,624.51	80.4057	1,624.51	79.0722	1,624.51	78.026	1,624.51	77.4483	1,624.51	75.9048	1,624.51	77.1177	1,624.51	75.0952	1,624.51	78.1874	1,624.51	75.7507	1,624.51	74.7947	1,624.51	66.908	1,624.51	66.1884	1,624.51	73.0053	1,624.51	75.7419	1,624.51	68.3374	1,624.51	72.909	1,624.51	74.2492	1,624.51	71.7156	1,624.51	67.1101	1,624.51	73.673	1,624.51	65.6714	1,624.51	72.1809	1,624.51	67.9445
1,681.64	87.8503	1,681.64	84.7902	1,681.64	87.4866	1,681.64	80.2481	1,681.64	89.6281	1,681.64	84.6409	1,681.64	88.9652	1,681.64	82.7002	1,681.64	72.2295	1,681.64	63.3196	1,681.64	87.444	1,681.64	86.588	1,681.64	89.8593	1,681.64	89.734	1,681.64	87.2095	1,681.64	89.906	1,681.64	86.3549	1,681.64	88.2661	1,681.64	85.4707	1,681.64	85.2245	1,681.64	85.736	1,681.64	85.2666	1,681.64	85.1743	1,681.64	83.8242	1,681.64	79.8782	1,681.64	82.2597	1,681.64	79.4938	1,681.64	80.1307	1,681.64	80.2779	1,681.64	77.0458	1,681.64	75.1824	1,681.64	66.492	1,681.64	79.2543	1,681.64	72.1393	1,681.64	57.8147	1,681.64	73.5857
1,741.7	87.1004	1,741.7	84.6594	1,741.7	87.7236	1,741.7	80.571	1,741.7	89.5613	1,741.7	83.2893	1,741.7	87.148	1,741.7	82.5331	1,741.7	73.6201	1,741.7	82.2474	1,741.7	85.3859	1,741.7	86.4528	1,741.7	87.2706	1,741.7	88.3734	1,741.7	84.3862	1,741.7	89.4341	1,741.7	83.1461	1,741.7	88.2657	1,741.7	83.4643	1,741.7	84.9216	1,741.7	82.5303	1,741.7	79.3938	1,741.7	80.9947	1,741.7	66.7372	1,741.7	76.5153	1,741.7	67.6792	1,741.7	67.2282	1,741.7	69.313	1,741.7	66.1821	1,741.7	65.767	1,741.7	73.5408	1,741.7	67.7341	1,741.7	66.6605	1,741.7	67.4698	1,741.7	74.4528	1,741.7	70.6497
1,803.22	86.6689	1,803.22	85.3722	1,803.22	88.751	1,803.22	79.7811	1,803.22	90.3795	1,803.22	83.6241	1,803.22	84.7417	1,803.22	84.5383	1,803.22	82.0985	1,803.22	79.3542	1,803.22	85.8569	1,803.22	82.4155	1,803.22	81.1966	1,803.22	86.383	1,803.22	76.4265	1,803.22	88.0487	1,803.22	81.685	1,803.22	87.2919	1,803.22	80.3883	1,803.22	84.6511	1,803.22	76.5171	1,803.22	82.7602	1,803.22	76.4351	1,803.22	76.6559	1,803.22	80.9338	1,803.22	73.6338	1,803.22	74.1424	1,803.22	73.6221	1,803.22	69.9063	1,803.22	72.9153	1,803.22	69.436	1,803.22	70.0643	1,803.22	71.6262	1,803.22	65.2863	1,803.22	72.5214	1,803.22	64.4298
1,866.21	85.2784	1,866.21	83.3862	1,866.21	89.2871	1,866.21	79.5737	1,866.21	89.3242	1,866.21	82.0188	1,866.21	82.2753	1,866.21	85.288	1,866.21	85.4009	1,866.21	82.5589	1,866.21	77.2144	1,866.21	70.1447	1,866.21	84.2242	1,866.21	81.2115	1,866.21	87.1286	1,866.21	85.7308	1,866.21	85.3536	1,866.21	85.9557	1,866.21	83.5289	1,866.21	85.6949	1,866.21	82.6101	1,866.21	85.6179	1,866.21	82.1427	1,866.21	85.3878	1,866.21	84.8643	1,866.21	80.7054	1,866.21	83.3354	1,866.21	79.1782	1,866.21	76.2451	1,866.21	71.5667	1,866.21	76.8049	1,866.21	69.3588	1,866.21	68.5812	1,866.21	67.9773	1,866.21	77.0874	1,866.21	65.1683
1,932.13	84.5507	1,932.13	80.4497	1,932.13	89.6053	1,932.13	80.3165	1,932.13	88.8563	1,932.13	80.6433	1,932.13	82.1635	1,932.13	84.318	1,932.13	76.5266	1,932.13	82.9298	1,932.13	79.8908	1,932.13	73.3639	1,932.13	87.7561	1,932.13	83.1427	1,932.13	89.9046	1,932.13	90.1672	1,932.13	90.1813	1,932.13	92.7265	1,932.13	91.5864	1,932.13	92.9642	1,932.13	91.8745	1,932.13	90.9913	1,932.13	90.9252	1,932.13	88.4124	1,932.13	87.8394	1,932.13	84.6392	1,932.13	86.2052	1,932.13	77.7544	1,932.13	81.1702	1,932.13	66.8047	1,932.13	80.5405	1,932.13	70.259	1,932.13	73.0808	1,932.13	74.5622	1,932.13	76.9288	1,932.13	69.5837
1,999.51	85.7614	1,999.51	78.8838	1,999.51	88.9327	1,999.51	79.563	1,999.51	86.9114	1,999.51	81.9015	1,999.51	76.1126	1,999.51	84.1379	1,999.51	81.616	1,999.51	84.5829	1,999.51	83.9449	1,999.51	81.2542	1,999.51	83.9824	1,999.51	78.3385	1,999.51	80.1958	1,999.51	75.5555	1,999.51	75.5689	1,999.51	70.8216	1,999.51	73.0063	1,999.51	70.147	1,999.51	74.5654	1,999.51	63.7603	1,999.51	70.4756	1,999.51	63.2461	1,999.51	69.435	1,999.51	69.7518	1,999.51	68.3773	1,999.51	67.4084	1,999.51	67.7427	1,999.51	70.7965	1,999.51	61.4409	1,999.51	60.2033	1,999.51	72.1711	1,999.51	66.9939	1,999.51	69.5228	1,999.51	64.9572
2,069.82	86.7307	2,069.82	77.6946	2,069.82	89.2776	2,069.82	75.5484	2,069.82	86.4417	2,069.82	82.0069	2,069.82	74.2263	2,069.82	84.4742	2,069.82	82.2124	2,069.82	83.2996	2,069.82	84.1376	2,069.82	79.3351	2,069.82	83.4822	2,069.82	74.9286	2,069.82	80.5398	2,069.82	69.392	2,069.82	72.8828	2,069.82	71.0829	2,069.82	71.2758	2,069.82	66.0894	2,069.82	72.767	2,069.82	61.3079	2,069.82	70.8003	2,069.82	60.7202	2,069.82	65.8771	2,069.82	67.2581	2,069.82	68.339	2,069.82	68.1395	2,069.82	66.9893	2,069.82	70.1571	2,069.82	58.4248	2,069.82	60.1956	2,069.82	70.7369	2,069.82	68.5323	2,069.82	68.2233	2,069.82	63.2878
2,143.07	87.1688	2,143.07	77.9305	2,143.07	89.5794	2,143.07	73.2735	2,143.07	85.9552	2,143.07	81.7229	2,143.07	69.2732	2,143.07	83.7564	2,143.07	83.3414	2,143.07	81.7588	2,143.07	83.5303	2,143.07	78.3748	2,143.07	82.4346	2,143.07	75.5107	2,143.07	79.2605	2,143.07	71.9523	2,143.07	71.3008	2,143.07	68.002	2,143.07	73.8063	2,143.07	68.2692	2,143.07	71.8307	2,143.07	65.8344	2,143.07	68.8344	2,143.07	63.7314	2,143.07	62.2053	2,143.07	63.9097	2,143.07	68.3799	2,143.07	67.3439	2,143.07	66.714	2,143.07	69.2396	2,143.07	50.5252	2,143.07	66.1055	2,143.07	69.7209	2,143.07	68.4364	2,143.07	62.561	2,143.07	60.7557
2,219.24	87.2439	2,219.24	78.4723	2,219.24	88.6362	2,219.24	74.1265	2,219.24	84.1652	2,219.24	81.3936	2,219.24	65.8331	2,219.24	82.6223	2,219.24	81.8676	2,219.24	81.1956	2,219.24	82.5223	2,219.24	78.9246	2,219.24	81.2875	2,219.24	75.1002	2,219.24	77.9727	2,219.24	74.0979	2,219.24	69.6008	2,219.24	72.9145	2,219.24	71.2924	2,219.24	69.3833	2,219.24	68.851	2,219.24	66.2463	2,219.24	67.3435	2,219.24	63.9217	2,219.24	61.1367	2,219.24	64.6021	2,219.24	65.7561	2,219.24	68.6076	2,219.24	66.4665	2,219.24	68.7493	2,219.24	57.8382	2,219.24	65.9169	2,219.24	67.1166	2,219.24	68.6787	2,219.24	61.7083	2,219.24	62.715
2,296.88	87.0048	2,296.88	79.7265	2,296.88	87.1599	2,296.88	75.256	2,296.88	81.4834	2,296.88	81.4315	2,296.88	74.5424	2,296.88	82.18	2,296.88	80.2832	2,296.88	81.1734	2,296.88	81.79	2,296.88	78.7176	2,296.88	80.4682	2,296.88	76.1306	2,296.88	75.8149	2,296.88	73.821	2,296.88	70.5831	2,296.88	71.481	2,296.88	70.7537	2,296.88	66.5721	2,296.88	69.5757	2,296.88	63.9656	2,296.88	64.7171	2,296.88	61.9456	2,296.88	58.9157	2,296.88	65.5344	2,296.88	64.8947	2,296.88	67.3839	2,296.88	64.7368	2,296.88	68.1608	2,296.88	63.1066	2,296.88	68.1851	2,296.88	66.5593	2,296.88	67.5786	2,296.88	63.0576	2,296.88	62.9136
2,378.91	86.9652	2,378.91	80.8934	2,378.91	85.3786	2,378.91	76.6019	2,378.91	77.8721	2,378.91	81.4113	2,378.91	79.632	2,378.91	82.6197	2,378.91	80.8328	2,378.91	81.5173	2,378.91	80.9149	2,378.91	79.3413	2,378.91	80.673	2,378.91	76.8979	2,378.91	77.1962	2,378.91	74.2638	2,378.91	73.0212	2,378.91	69.9392	2,378.91	74.0033	2,378.91	67.0667	2,378.91	69.7893	2,378.91	64.796	2,378.91	54.8622	2,378.91	64.8166	2,378.91	63.5537	2,378.91	60.9573	2,378.91	65.0863	2,378.91	66.7826	2,378.91	67.0971	2,378.91	67.0392	2,378.91	63.9272	2,378.91	67.612	2,378.91	65.2189	2,378.91	69.4407	2,378.91	62.6432	2,378.91	63.3756
2,462.4	88.1034	2,462.4	83.1877	2,462.4	85.19	2,462.4	78.639	2,462.4	75.8355	2,462.4	81.2701	2,462.4	80.7129	2,462.4	82.612	2,462.4	81.2212	2,462.4	81.7417	2,462.4	80.169	2,462.4	79.1055	2,462.4	80.6767	2,462.4	74.9955	2,462.4	78.2181	2,462.4	71.9069	2,462.4	74.8485	2,462.4	69.8414	2,462.4	75.3343	2,462.4	67.0508	2,462.4	66.5393	2,462.4	64.8226	2,462.4	49.1307	2,462.4	59.3014	2,462.4	65.7318	2,462.4	60.3511	2,462.4	64.5275	2,462.4	66.4843	2,462.4	64.3936	2,462.4	64.9777	2,462.4	62.4607	2,462.4	68.6717	2,462.4	66.7335	2,462.4	69.1365	2,462.4	61.7254	2,462.4	65.7292
2,548.83	88.6419	2,548.83	84.0564	2,548.83	85.6994	2,548.83	79.2397	2,548.83	77.0911	2,548.83	80.1964	2,548.83	81.9285	2,548.83	82.2716	2,548.83	80.9686	2,548.83	81.0154	2,548.83	79.3403	2,548.83	77.2674	2,548.83	79.2821	2,548.83	73.8648	2,548.83	77.2023	2,548.83	72.9709	2,548.83	74.7149	2,548.83	71.3713	2,548.83	76.4113	2,548.83	69.5121	2,548.83	65.8737	2,548.83	64.5401	2,548.83	59.2281	2,548.83	60.314	2,548.83	63.3527	2,548.83	62.1182	2,548.83	63.8424	2,548.83	65.2363	2,548.83	61.5306	2,548.83	67.6172	2,548.83	57.1632	2,548.83	68.362	2,548.83	68.9506	2,548.83	68.904	2,548.83	62.65	2,548.83	63.522
2,639.65	88.1265	2,639.65	84.4752	2,639.65	84.5468	2,639.65	78.9044	2,639.65	78.9478	2,639.65	80.7641	2,639.65	83.8572	2,639.65	82.1522	2,639.65	80.6946	2,639.65	79.3786	2,639.65	77.9194	2,639.65	77.2633	2,639.65	78.7067	2,639.65	75.6445	2,639.65	76.6134	2,639.65	75.0477	2,639.65	74.5914	2,639.65	72.405	2,639.65	72.7338	2,639.65	70.4912	2,639.65	58.9464	2,639.65	66.5237	2,639.65	62.5617	2,639.65	63.8649	2,639.65	68.9676	2,639.65	62.7726	2,639.65	61.6339	2,639.65	62.1251	2,639.65	63.4008	2,639.65	68.1796	2,639.65	63.6593	2,639.65	69.2061	2,639.65	69.8236	2,639.65	68.4726	2,639.65	61.9512	2,639.65	65.9476
2,731.93	86.1131	2,731.93	83.3471	2,731.93	82.0843	2,731.93	77.0813	2,731.93	77.8205	2,731.93	80.7731	2,731.93	83.8221	2,731.93	80.0457	2,731.93	80.5091	2,731.93	78.0335	2,731.93	75.2753	2,731.93	75.8671	2,731.93	77.3834	2,731.93	75.6122	2,731.93	74.3696	2,731.93	72.4437	2,731.93	73.3021	2,731.93	68.9875	2,731.93	70.5538	2,731.93	67.1365	2,731.93	55.734	2,731.93	64.728	2,731.93	59.7971	2,731.93	61.8382	2,731.93	68.4393	2,731.93	61.4262	2,731.93	60.8079	2,731.93	62.7969	2,731.93	60.7269	2,731.93	65.5058	2,731.93	61.6772	2,731.93	68.4604	2,731.93	69.5124	2,731.93	67.2262	2,731.93	61.4412	2,731.93	58.933
2,828.61	85.7761	2,828.61	82.7447	2,828.61	81.2017	2,828.61	78.1578	2,828.61	74.5305	2,828.61	80.3548	2,828.61	82.8642	2,828.61	79.5046	2,828.61	80.3078	2,828.61	77.1058	2,828.61	73.5666	2,828.61	77.0824	2,828.61	76.1551	2,828.61	76.0221	2,828.61	74.0678	2,828.61	72.1183	2,828.61	73.8658	2,828.61	68.2365	2,828.61	68.5872	2,828.61	64.6851	2,828.61	59.4937	2,828.61	62.7859	2,828.61	65.4045	2,828.61	63.0743	2,828.61	66.5537	2,828.61	58.1273	2,828.61	62.7122	2,828.61	62.0297	2,828.61	56.8682	2,828.61	64.4226	2,828.61	60.1775	2,828.61	67.3676	2,828.61	68.5885	2,828.61	68.5402	2,828.61	61.1384	2,828.61	61.8621
2,928.22	85.475	2,928.22	83.1311	2,928.22	81.4262	2,928.22	79.9522	2,928.22	75.6248	2,928.22	80.2603	2,928.22	82.0267	2,928.22	77.3987	2,928.22	78.887	2,928.22	77.2076	2,928.22	71.9235	2,928.22	77.3327	2,928.22	74.9484	2,928.22	74.0759	2,928.22	73.1259	2,928.22	71.0004	2,928.22	71.4704	2,928.22	67.8388	2,928.22	64.1084	2,928.22	64.0188	2,928.22	62.5161	2,928.22	59.4234	2,928.22	56.8294	2,928.22	58.7197	2,928.22	67.7814	2,928.22	61.8101	2,928.22	61.7009	2,928.22	59.2798	2,928.22	58.0778	2,928.22	64.271	2,928.22	63.2764	2,928.22	65.9797	2,928.22	68.2676	2,928.22	65.3016	2,928.22	59.9554	2,928.22	58.8207
3,030.76	85.1758	3,030.76	82.5187	3,030.76	82.3472	3,030.76	80.3412	3,030.76	77.4092	3,030.76	79.5	3,030.76	81.271	3,030.76	76.9768	3,030.76	78.0666	3,030.76	77.5384	3,030.76	70.4605	3,030.76	75.1233	3,030.76	73.9253	3,030.76	71.2519	3,030.76	73.687	3,030.76	66.7914	3,030.76	70.2418	3,030.76	58.9563	3,030.76	68.2159	3,030.76	58.4193	3,030.76	62.9185	3,030.76	52.6393	3,030.76	52.9395	3,030.76	50.157	3,030.76	62.2299	3,030.76	55.7553	3,030.76	63.4301	3,030.76	55.0346	3,030.76	53.6228	3,030.76	62.277	3,030.76	62.7883	3,030.76	63.9012	3,030.76	66.9254	3,030.76	65.6927	3,030.76	59.6732	3,030.76	59.7913
3,137.7	84.7732	3,137.7	82.5101	3,137.7	82.9165	3,137.7	81.2636	3,137.7	79.5607	3,137.7	79.2625	3,137.7	80.5724	3,137.7	77.7877	3,137.7	77.0787	3,137.7	76.9366	3,137.7	70.6385	3,137.7	73.023	3,137.7	72.0497	3,137.7	66.8876	3,137.7	74.2257	3,137.7	63.503	3,137.7	71.2472	3,137.7	66.9648	3,137.7	70.9915	3,137.7	64.4615	3,137.7	63.3376	3,137.7	59.7583	3,137.7	52.9219	3,137.7	56.8734	3,137.7	59.7488	3,137.7	50.5672	3,137.7	62.3509	3,137.7	57.3812	3,137.7	56.3912	3,137.7	61.7177	3,137.7	62.207	3,137.7	64.2139	3,137.7	65.7141	3,137.7	65.007	3,137.7	60.9889	3,137.7	60.394
3,249.02	84.719	3,249.02	83.2587	3,249.02	83.1973	3,249.02	82.3006	3,249.02	81.2269	3,249.02	80.1533	3,249.02	80.6938	3,249.02	79.4091	3,249.02	76.4149	3,249.02	75.5873	3,249.02	70.468	3,249.02	70.6056	3,249.02	74.2407	3,249.02	71.2329	3,249.02	76.8673	3,249.02	68.5979	3,249.02	75.3495	3,249.02	64.176	3,249.02	73.2347	3,249.02	60.9554	3,249.02	65.8564	3,249.02	60.1991	3,249.02	58.5552	3,249.02	57.2911	3,249.02	59.7816	3,249.02	45.0789	3,249.02	64.5567	3,249.02	56.021	3,249.02	57.9996	3,249.02	62.5901	3,249.02	62.9632	3,249.02	63.8728	3,249.02	65.831	3,249.02	64.5497	3,249.02	60.6607	3,249.02	60.2263
3,363.28	85.175	3,363.28	84.7877	3,363.28	83.9346	3,363.28	83.0826	3,363.28	82.4381	3,363.28	81.0426	3,363.28	81.8013	3,363.28	80.673	3,363.28	78.755	3,363.28	74.5687	3,363.28	72.1446	3,363.28	74.4684	3,363.28	76.4599	3,363.28	71.0796	3,363.28	78.3771	3,363.28	66.6984	3,363.28	75.7276	3,363.28	63.7837	3,363.28	74.8424	3,363.28	62.2666	3,363.28	70.8347	3,363.28	59.882	3,363.28	57.9473	3,363.28	58.9056	3,363.28	61.8669	3,363.28	51.3179	3,363.28	65.7873	3,363.28	56.2633	3,363.28	60.0587	3,363.28	61.7486	3,363.28	63.9111	3,363.28	63.7869	3,363.28	65.0869	3,363.28	67.1144	3,363.28	62.7264	3,363.28	61.1584
3,481.93	86.6887	3,481.93	86.7855	3,481.93	85.5088	3,481.93	84.597	3,481.93	84.4462	3,481.93	83.4316	3,481.93	82.3073	3,481.93	80.4554	3,481.93	79.7952	3,481.93	78.1284	3,481.93	73.7158	3,481.93	75.63	3,481.93	78.6789	3,481.93	68.916	3,481.93	77.8818	3,481.93	65.9709	3,481.93	76.5123	3,481.93	56.0891	3,481.93	74.593	3,481.93	60.5535	3,481.93	69.0118	3,481.93	58.7835	3,481.93	63.6699	3,481.93	34.9943	3,481.93	63.9015	3,481.93	50.1249	3,481.93	59.4483	3,481.93	51.0614	3,481.93	64.2263	3,481.93	61.8152	3,481.93	65.7436	3,481.93	66.2808	3,481.93	64.9569	3,481.93	66.8683	3,481.93	62.798	3,481.93	62.7189
3,604.98	87.5394	3,604.98	87.8576	3,604.98	86.1196	3,604.98	86.6604	3,604.98	85.6539	3,604.98	85.3489	3,604.98	82.7809	3,604.98	80.7771	3,604.98	81.2438	3,604.98	80.0645	3,604.98	79.4732	3,604.98	74.9736	3,604.98	79.4537	3,604.98	73.5561	3,604.98	76.7255	3,604.98	70.391	3,604.98	75.0142	3,604.98	71.6391	3,604.98	71.3331	3,604.98	69.5941	3,604.98	69.7342	3,604.98	67.5078	3,604.98	65.0943	3,604.98	62.0669	3,604.98	62.6813	3,604.98	55.0721	3,604.98	61.8533	3,604.98	59.8961	3,604.98	63.2227	3,604.98	62.6838	3,604.98	66.8579	3,604.98	69.0428	3,604.98	64.8564	3,604.98	69.3596	3,604.98	67.7965	3,604.98	61.0295
3,732.42	88.7555	3,732.42	88.4283	3,732.42	87.3833	3,732.42	87.5683	3,732.42	86.0028	3,732.42	85.7438	3,732.42	84.0241	3,732.42	82.1555	3,732.42	83.2115	3,732.42	79.3521	3,732.42	79.5146	3,732.42	73.6073	3,732.42	78.7879	3,732.42	74.409	3,732.42	74.6432	3,732.42	71.3341	3,732.42	72.2623	3,732.42	67.0962	3,732.42	68.2606	3,732.42	64.8494	3,732.42	66.4554	3,732.42	65.0119	3,732.42	62.6704	3,732.42	59.6013	3,732.42	60.8182	3,732.42	52.2356	3,732.42	60.1798	3,732.42	52.8095	3,732.42	61.7012	3,732.42	64.5657	3,732.42	66.9947	3,732.42	68.0606	3,732.42	64.9566	3,732.42	69.9752	3,732.42	68.9368	3,732.42	65.1388
3,864.26	87.927	3,864.26	88.4149	3,864.26	87.7643	3,864.26	87.7252	3,864.26	87.2527	3,864.26	85.3152	3,864.26	85.0821	3,864.26	84.2853	3,864.26	85.1576	3,864.26	80.5241	3,864.26	80.3922	3,864.26	78.2705	3,864.26	77.1371	3,864.26	75.7522	3,864.26	74.0799	3,864.26	69.1276	3,864.26	71.6549	3,864.26	65.5857	3,864.26	61.207	3,864.26	63.5184	3,864.26	62.2239	3,864.26	58.255	3,864.26	57.0118	3,864.26	57.2055	3,864.26	58.1863	3,864.26	55.1843	3,864.26	60.9396	3,864.26	59.553	3,864.26	51.346	3,864.26	62.5979	3,864.26	68.8645	3,864.26	68.6068	3,864.26	65.6129	3,864.26	71.0694	3,864.26	69.1848	3,864.26	65.5686
4,000.49	87.0406	4,000.49	87.3445	4,000.49	86.3324	4,000.49	87.1505	4,000.49	87.1297	4,000.49	85.0645	4,000.49	85.4821	4,000.49	83.8058	4,000.49	85.2328	4,000.49	78.9468	4,000.49	79.3775	4,000.49	78.7044	4,000.49	75.7919	4,000.49	68.639	4,000.49	74.279	4,000.49	70.0587	4,000.49	70.111	4,000.49	67.7459	4,000.49	64.8776	4,000.49	66.3783	4,000.49	64.3138	4,000.49	60.0399	4,000.49	58.9266	4,000.49	55.0366	4,000.49	57.3126	4,000.49	46.695	4,000.49	59.4846	4,000.49	58.9444	4,000.49	54.5014	4,000.49	61.8516	4,000.49	67.8944	4,000.49	68.271	4,000.49	66.5842	4,000.49	70.9876	4,000.49	68.2354	4,000.49	65.5308
4,141.11	87.7007	4,141.11	86.8757	4,141.11	86.4011	4,141.11	86.3228	4,141.11	86.388	4,141.11	85.783	4,141.11	85.4534	4,141.11	83.019	4,141.11	84.509	4,141.11	79.848	4,141.11	77.9921	4,141.11	71.6005	4,141.11	74.6866	4,141.11	73.6981	4,141.11	75.1794	4,141.11	70.4552	4,141.11	65.6185	4,141.11	69.359	4,141.11	72.3885	4,141.11	68.5326	4,141.11	70.5974	4,141.11	65.6693	4,141.11	59.5031	4,141.11	62.4274	4,141.11	59.4457	4,141.11	55.9316	4,141.11	63.1699	4,141.11	56.0372	4,141.11	56.5769	4,141.11	60.5033	4,141.11	66.798	4,141.11	68.3007	4,141.11	64.6795	4,141.11	69.7637	4,141.11	66.7314	4,141.11	63.1624
4,287.6	87.2747	4,287.6	86.9099	4,287.6	86.9474	4,287.6	85.9902	4,287.6	85.2734	4,287.6	84.3781	4,287.6	83.6421	4,287.6	82.3682	4,287.6	84.4789	4,287.6	78.7918	4,287.6	80.6053	4,287.6	75.9858	4,287.6	72.9845	4,287.6	76.1874	4,287.6	75.2174	4,287.6	73.4096	4,287.6	71.2085	4,287.6	67.731	4,287.6	75.2066	4,287.6	66.4567	4,287.6	68.6941	4,287.6	61.8596	4,287.6	53.5724	4,287.6	55.0134	4,287.6	62.6572	4,287.6	52.4961	4,287.6	62.7407	4,287.6	48.3594	4,287.6	57.1913	4,287.6	60.7248	4,287.6	68.6322	4,287.6	65.5099	4,287.6	58.0431	4,287.6	67.97	4,287.6	64.898	4,287.6	58.5876
4,438.48	86.6649	4,438.48	86.524	4,438.48	86.8673	4,438.48	86.2025	4,438.48	84.563	4,438.48	83.7148	4,438.48	80.9954	4,438.48	79.9028	4,438.48	83.1467	4,438.48	78.2579	4,438.48	79.2165	4,438.48	77.9458	4,438.48	56.4049	4,438.48	75.2901	4,438.48	75.0189	4,438.48	65.1299	4,438.48	69.021	4,438.48	63.3869	4,438.48	71.8379	4,438.48	60.4151	4,438.48	64.9073	4,438.48	53.6981	4,438.48	52.5996	4,438.48	59.6922	4,438.48	63.068	4,438.48	47.1867	4,438.48	62.4416	4,438.48	55.3367	4,438.48	59.3902	4,438.48	57.9913	4,438.48	66.7379	4,438.48	65.2619	4,438.48	61.4188	4,438.48	67.0067	4,438.48	64.999	4,438.48	59.7015
4,595.21	86.2074	4,595.21	86.5898	4,595.21	84.2708	4,595.21	84.1256	4,595.21	84.017	4,595.21	81.171	4,595.21	82.2962	4,595.21	79.7403	4,595.21	81.1225	4,595.21	76.1392	4,595.21	77.9299	4,595.21	74.368	4,595.21	71.7661	4,595.21	65.8354	4,595.21	79.6282	4,595.21	67.6941	4,595.21	74.928	4,595.21	63.2804	4,595.21	73.2104	4,595.21	63.0311	4,595.21	60.9549	4,595.21	56.9349	4,595.21	60.1014	4,595.21	55.2181	4,595.21	62.615	4,595.21	53.725	4,595.21	63.682	4,595.21	40.386	4,595.21	56.666	4,595.21	56.8423	4,595.21	63.0114	4,595.21	64.8385	4,595.21	59.9522	4,595.21	66.7756	4,595.21	65.3899	4,595.21	58.8386
4,756.35	86.716	4,756.35	85.9913	4,756.35	84.4766	4,756.35	84.5791	4,756.35	83.0692	4,756.35	81.9377	4,756.35	80.7537	4,756.35	77.5867	4,756.35	78.93	4,756.35	77.9106	4,756.35	77.1123	4,756.35	73.1104	4,756.35	76.2833	4,756.35	74.3173	4,756.35	79.2581	4,756.35	70.4524	4,756.35	73.4893	4,756.35	67.599	4,756.35	72.4946	4,756.35	61.5857	4,756.35	64.2694	4,756.35	60.5108	4,756.35	54.7427	4,756.35	54.7317	4,756.35	59.679	4,756.35	49.813	4,756.35	62.1951	4,756.35	54.7219	4,756.35	63.0212	4,756.35	54.8104	4,756.35	62.8458	4,756.35	64.7853	4,756.35	58.2627	4,756.35	67.6044	4,756.35	65.364	4,756.35	60.2904
4,924.8	88.1362	4,924.8	87.594	4,924.8	86.9187	4,924.8	85.8401	4,924.8	83.2968	4,924.8	81.6767	4,924.8	81.318	4,924.8	77.8715	4,924.8	76.256	4,924.8	76.3096	4,924.8	77.218	4,924.8	74.4457	4,924.8	77.677	4,924.8	71.9785	4,924.8	76.6291	4,924.8	63.5456	4,924.8	71.5686	4,924.8	61.9169	4,924.8	68.4258	4,924.8	47.5546	4,924.8	54.4684	4,924.8	55.5262	4,924.8	58.6939	4,924.8	59.0309	4,924.8	58.5087	4,924.8	46.7845	4,924.8	57.4046	4,924.8	56.7835	4,924.8	63.4502	4,924.8	56.6057	4,924.8	62.7137	4,924.8	61.0634	4,924.8	61.685	4,924.8	67.5583	4,924.8	62.8816	4,924.8	60.2147
5,097.66	88.9351	5,097.66	89.1664	5,097.66	88.0729	5,097.66	87.9532	5,097.66	87.2952	5,097.66	84.1396	5,097.66	80.86	5,097.66	80.4323	5,097.66	76.2803	5,097.66	75.7089	5,097.66	80.4119	5,097.66	74.9058	5,097.66	77.6525	5,097.66	67.6976	5,097.66	74.5313	5,097.66	69.1064	5,097.66	70.9468	5,097.66	67.2191	5,097.66	58.4556	5,097.66	64.2279	5,097.66	61.0394	5,097.66	61.6022	5,097.66	61.3154	5,097.66	49.5658	5,097.66	57.4514	5,097.66	56.7485	5,097.66	52.7307	5,097.66	59.6364	5,097.66	64.4726	5,097.66	53.8534	5,097.66	60.88	5,097.66	61.3746	5,097.66	60.342	5,097.66	65.4641	5,097.66	61.8622	5,097.66	58.3368
5,277.83	90.0911	5,277.83	89.7349	5,277.83	88.6143	5,277.83	88.0723	5,277.83	88.585	5,277.83	86.0543	5,277.83	81.9023	5,277.83	81.5792	5,277.83	80.7354	5,277.83	77.3458	5,277.83	82.8741	5,277.83	76.476	5,277.83	75.2543	5,277.83	74.9756	5,277.83	70.9488	5,277.83	72.2024	5,277.83	72.5115	5,277.83	68.5582	5,277.83	65.2793	5,277.83	61.5204	5,277.83	68.3558	5,277.83	64.6892	5,277.83	63.8538	5,277.83	56.5318	5,277.83	62.185	5,277.83	52.7162	5,277.83	55.1922	5,277.83	58.8972	5,277.83	62.4855	5,277.83	52.0798	5,277.83	61.8799	5,277.83	61.3372	5,277.83	54.5453	5,277.83	65.0036	5,277.83	62.0981	5,277.83	51.1867
5,463.87	90.4444	5,463.87	90.2491	5,463.87	89.4464	5,463.87	88.6655	5,463.87	88.7287	5,463.87	86.6468	5,463.87	84.3928	5,463.87	81.5201	5,463.87	84.3582	5,463.87	79.1296	5,463.87	81.4493	5,463.87	77.7499	5,463.87	74.6873	5,463.87	75.3688	5,463.87	62.9087	5,463.87	69.0107	5,463.87	75.0368	5,463.87	66.6859	5,463.87	65.9751	5,463.87	62.9291	5,463.87	65.1521	5,463.87	63.7332	5,463.87	65.9297	5,463.87	56.779	5,463.87	58.264	5,463.87	59.3536	5,463.87	57.1184	5,463.87	59.9061	5,463.87	59.8896	5,463.87	56.4797	5,463.87	63.5554	5,463.87	59.4434	5,463.87	56.0578	5,463.87	66.532	5,463.87	62.4452	5,463.87	50.269
5,657.23	89.1488	5,657.23	89.4808	5,657.23	89.0632	5,657.23	88.4935	5,657.23	87.6407	5,657.23	86.0697	5,657.23	85.4771	5,657.23	83.5928	5,657.23	84.7738	5,657.23	78.1034	5,657.23	78.6391	5,657.23	77.5487	5,657.23	75.2894	5,657.23	73.1593	5,657.23	70.067	5,657.23	72.9497	5,657.23	75.038	5,657.23	70.4949	5,657.23	67.3177	5,657.23	65.3173	5,657.23	62.1684	5,657.23	65.4747	5,657.23	65.2652	5,657.23	62.4484	5,657.23	56.7822	5,657.23	63.0769	5,657.23	63.2987	5,657.23	57.8382	5,657.23	64.0014	5,657.23	56.6048	5,657.23	63.7416	5,657.23	58.9163	5,657.23	52.6715	5,657.23	65.3316	5,657.23	63.445	5,657.23	48.2442
5,856.45	88.09	5,856.45	89.033	5,856.45	88.4852	5,856.45	87.0893	5,856.45	85.5786	5,856.45	86.201	5,856.45	86.4351	5,856.45	82.7596	5,856.45	84.7792	5,856.45	77.5284	5,856.45	78.592	5,856.45	75.5508	5,856.45	77.1368	5,856.45	75.1196	5,856.45	68.7147	5,856.45	71.7802	5,856.45	73.314	5,856.45	67.7572	5,856.45	70.9199	5,856.45	60.2476	5,856.45	66.9053	5,856.45	64.7966	5,856.45	66.2264	5,856.45	62.2849	5,856.45	60.5528	5,856.45	62.1052	5,856.45	64.6418	5,856.45	53.8247	5,856.45	64.3395	5,856.45	42.3828	5,856.45	63.5691	5,856.45	59.0711	5,856.45	46.7895	5,856.45	65.9726	5,856.45	64.4386	5,856.45	45.7587
6,062.99	89.5665	6,062.99	88.4481	6,062.99	87.8437	6,062.99	87.1817	6,062.99	84.9469	6,062.99	86.7177	6,062.99	86.8922	6,062.99	83.2253	6,062.99	81.2723	6,062.99	80.5841	6,062.99	81.8032	6,062.99	76.747	6,062.99	79.6837	6,062.99	74.3512	6,062.99	69.1316	6,062.99	69.6306	6,062.99	75.6607	6,062.99	72.1104	6,062.99	70.3782	6,062.99	64.2776	6,062.99	70.7002	6,062.99	61.0471	6,062.99	67.566	6,062.99	61.237	6,062.99	61.7711	6,062.99	61.3221	6,062.99	60.2178	6,062.99	53.5792	6,062.99	64.5518	6,062.99	45.6228	6,062.99	58.3281	6,062.99	57.1239	6,062.99	45.2654	6,062.99	65.0589	6,062.99	64.8381	6,062.99	49.0155
6,276.86	89.9186	6,276.86	88.9738	6,276.86	88.4825	6,276.86	87.6767	6,276.86	87.6338	6,276.86	86.3125	6,276.86	87.0269	6,276.86	84.5873	6,276.86	79.0186	6,276.86	80.5409	6,276.86	82.7974	6,276.86	79.2786	6,276.86	78.871	6,276.86	74.8464	6,276.86	70.2113	6,276.86	73.5226	6,276.86	76.0012	6,276.86	71.2356	6,276.86	68.3593	6,276.86	65.4758	6,276.86	71.9269	6,276.86	63.7947	6,276.86	66.8833	6,276.86	61.3306	6,276.86	63.6996	6,276.86	63.352	6,276.86	50.2065	6,276.86	51.3785	6,276.86	62.024	6,276.86	49.7616	6,276.86	60.9049	6,276.86	59.8789	6,276.86	43.6879	6,276.86	65.2875	6,276.86	61.1568	6,276.86	52.0921
6,498.05	90.5236	6,498.05	89.0125	6,498.05	87.9009	6,498.05	88.6477	6,498.05	85.1833	6,498.05	85.6779	6,498.05	85.658	6,498.05	83.8898	6,498.05	82.385	6,498.05	82.4388	6,498.05	81.3992	6,498.05	78.9429	6,498.05	74.2876	6,498.05	76.6076	6,498.05	77.338	6,498.05	67.9529	6,498.05	76.4888	6,498.05	69.6076	6,498.05	68.1905	6,498.05	63.0849	6,498.05	71.0063	6,498.05	56.0341	6,498.05	62.93	6,498.05	52.3455	6,498.05	64.3775	6,498.05	62.967	6,498.05	52.7417	6,498.05	55.7777	6,498.05	59.2206	6,498.05	56.854	6,498.05	55.4902	6,498.05	59.599	6,498.05	56.3879	6,498.05	61.1858	6,498.05	62.5717	6,498.05	54.305
6,726.56	90.5923	6,726.56	89.4776	6,726.56	88.2961	6,726.56	87.7629	6,726.56	87.0217	6,726.56	86.0464	6,726.56	83.8696	6,726.56	83.0393	6,726.56	83.517	6,726.56	81.8198	6,726.56	76.7863	6,726.56	79.6401	6,726.56	79.3935	6,726.56	74.0469	6,726.56	76.9645	6,726.56	73.6754	6,726.56	73.5185	6,726.56	68.4181	6,726.56	65.5198	6,726.56	63.6913	6,726.56	65.2999	6,726.56	55.2752	6,726.56	61.6272	6,726.56	60.5723	6,726.56	58.4579	6,726.56	62.9053	6,726.56	54.3566	6,726.56	59.1053	6,726.56	53.4447	6,726.56	56.0028	6,726.56	51.383	6,726.56	56.3968	6,726.56	57.1474	6,726.56	63.2066	6,726.56	61.2261	6,726.56	59.1649
6,963.87	90.9143	6,963.87	89.7287	6,963.87	89.1924	6,963.87	87.6892	6,963.87	87.38	6,963.87	85.0627	6,963.87	82.6666	6,963.87	83.6133	6,963.87	83.7399	6,963.87	81.4461	6,963.87	82.0094	6,963.87	79.1742	6,963.87	80.4498	6,963.87	76.0197	6,963.87	71.0491	6,963.87	70.3768	6,963.87	64.3766	6,963.87	62.2007	6,963.87	60.0286	6,963.87	64.538	6,963.87	61.5489	6,963.87	55.6777	6,963.87	58.8618	6,963.87	54.7977	6,963.87	59.57	6,963.87	59.7121	6,963.87	54.8893	6,963.87	54.1087	6,963.87	43.818	6,963.87	50.5327	6,963.87	50.288	6,963.87	52.9167	6,963.87	55.4608	6,963.87	59.9449	6,963.87	59.7806	6,963.87	56.5301
7,209.96	90.6321	7,209.96	90.1728	7,209.96	89.0448	7,209.96	87.8296	7,209.96	86.5643	7,209.96	85.0615	7,209.96	84.9282	7,209.96	83.904	7,209.96	81.7466	7,209.96	81.5352	7,209.96	84.0577	7,209.96	78.605	7,209.96	77.976	7,209.96	71.3681	7,209.96	77.3625	7,209.96	70.4619	7,209.96	72.1379	7,209.96	61.2952	7,209.96	65.1489	7,209.96	59.7358	7,209.96	62.7383	7,209.96	54.5651	7,209.96	61.3787	7,209.96	60.0439	7,209.96	61.654	7,209.96	54.3657	7,209.96	54.2832	7,209.96	51.4233	7,209.96	49.6837	7,209.96	42.7406	7,209.96	51.9561	7,209.96	45.3257	7,209.96	50.7694	7,209.96	59.349	7,209.96	59.1352	7,209.96	57.104
7,464.84	89.6066	7,464.84	89.71	7,464.84	89.1939	7,464.84	87.5725	7,464.84	86.4458	7,464.84	86.325	7,464.84	84.3481	7,464.84	83.0347	7,464.84	83.6631	7,464.84	79.2099	7,464.84	82.4008	7,464.84	77.1542	7,464.84	73.3727	7,464.84	75.1962	7,464.84	78.5331	7,464.84	69.7837	7,464.84	74.8431	7,464.84	61.528	7,464.84	67.5206	7,464.84	63.5131	7,464.84	64.5209	7,464.84	43.3165	7,464.84	56.6977	7,464.84	58.118	7,464.84	55.484	7,464.84	53.0692	7,464.84	31.5235	7,464.84	54.3599	7,464.84	53.6468	7,464.84	48.6246	7,464.84	47.6151	7,464.84	48.5981	7,464.84	49.3043	7,464.84	55.5526	7,464.84	56.425	7,464.84	57.1879
7,727.05	89.6382	7,727.05	89.5094	7,727.05	88.524	7,727.05	87.2831	7,727.05	85.9346	7,727.05	84.9401	7,727.05	83.3114	7,727.05	82.4631	7,727.05	82.8355	7,727.05	78.6858	7,727.05	78.289	7,727.05	77.9156	7,727.05	72.2324	7,727.05	73.2007	7,727.05	79.6467	7,727.05	70.2026	7,727.05	69.3919	7,727.05	64.3546	7,727.05	58.1563	7,727.05	62.3788	7,727.05	65.8765	7,727.05	52.2332	7,727.05	59.4372	7,727.05	58.2376	7,727.05	51.0689	7,727.05	54.1616	7,727.05	56.498	7,727.05	53.3421	7,727.05	55.0773	7,727.05	40.2968	7,727.05	43.7742	7,727.05	47.1008	7,727.05	48.5025	7,727.05	49.4806	7,727.05	53.4969	7,727.05	52.8585
7,999.51	89.3397	7,999.51	89.839	7,999.51	88.6544	7,999.51	86.6305	7,999.51	85.3342	7,999.51	84.5814	7,999.51	82.3647	7,999.51	80.828	7,999.51	82.4149	7,999.51	78.0926	7,999.51	78.3022	7,999.51	77.426	7,999.51	78.7663	7,999.51	72.6608	7,999.51	78.4496	7,999.51	64.8213	7,999.51	60.7937	7,999.51	53.2219	7,999.51	61.0653	7,999.51	57.2802	7,999.51	62.0613	7,999.51	50.3832	7,999.51	62.897	7,999.51	60.6332	7,999.51	44.9225	7,999.51	54.5485	7,999.51	55.0375	7,999.51	50.3952	7,999.51	45.4529	7,999.51	42.6363	7,999.51	46.8378	7,999.51	45.5332	7,999.51	53.5473	7,999.51	53.2154	7,999.51	48.696	7,999.51	51.8885
8,282.23	88.7603	8,282.23	88.636	8,282.23	88.2473	8,282.23	85.9848	8,282.23	84.8991	8,282.23	84.3165	8,282.23	81.7239	8,282.23	81.9198	8,282.23	80.6257	8,282.23	78.1496	8,282.23	76.9277	8,282.23	76.3648	8,282.23	77.8	8,282.23	70.0029	8,282.23	71.2281	8,282.23	64.4272	8,282.23	55.908	8,282.23	58.6923	8,282.23	35.0173	8,282.23	58.2396	8,282.23	66.2978	8,282.23	53.7893	8,282.23	64.0445	8,282.23	57.0173	8,282.23	48.1952	8,282.23	55.0462	8,282.23	54.4922	8,282.23	47.7593	8,282.23	46.3735	8,282.23	50.8177	8,282.23	50.7705	8,282.23	43.2663	8,282.23	51.0013	8,282.23	48.3251	8,282.23	49.2779	8,282.23	47.1172
8,573.73	88.3524	8,573.73	88.0564	8,573.73	87.0508	8,573.73	85.7491	8,573.73	84.286	8,573.73	83.9305	8,573.73	82.3359	8,573.73	80.9667	8,573.73	78.6682	8,573.73	79.0119	8,573.73	79.063	8,573.73	75.9893	8,573.73	74.8234	8,573.73	71.31	8,573.73	69.963	8,573.73	63.628	8,573.73	62.4395	8,573.73	60.4024	8,573.73	63.1071	8,573.73	57.2352	8,573.73	66.2958	8,573.73	50.2824	8,573.73	62.4072	8,573.73	55.1554	8,573.73	46.621	8,573.73	46.527	8,573.73	47.711	8,573.73	46.2033	8,573.73	50.5499	8,573.73	42.6595	8,573.73	54.559	8,573.73	32.0942	8,573.73	51.4901	8,573.73	51.5921	8,573.73	43.8288	8,573.73	47.5282
8,876.95	87.6207	8,876.95	87.654	8,876.95	86.6292	8,876.95	85.7976	8,876.95	84.0583	8,876.95	83.0792	8,876.95	81.3699	8,876.95	81.1386	8,876.95	77.8592	8,876.95	77.2329	8,876.95	79.2828	8,876.95	75.2297	8,876.95	74.6244	8,876.95	71.0526	8,876.95	69.7213	8,876.95	64.4003	8,876.95	59.9611	8,876.95	62.6845	8,876.95	61.9555	8,876.95	55.156	8,876.95	65.003	8,876.95	51.0899	8,876.95	59.9102	8,876.95	52.9581	8,876.95	51.9193	8,876.95	46.7273	8,876.95	40.7829	8,876.95	44.0208	8,876.95	45.5332	8,876.95	46.2351	8,876.95	52.4348	8,876.95	40.68	8,876.95	38.9147	8,876.95	52.3755	8,876.95	42.6588	8,876.95	50.4055
9,188.96	88.1281	9,188.96	87.3951	9,188.96	86.7037	9,188.96	85.3393	9,188.96	84.8517	9,188.96	83.1446	9,188.96	81.066	9,188.96	80.7852	9,188.96	80.9955	9,188.96	77.6845	9,188.96	78.2036	9,188.96	74.9101	9,188.96	74.7543	9,188.96	70.536	9,188.96	69.4839	9,188.96	66.326	9,188.96	63.0988	9,188.96	61.1322	9,188.96	56.3642	9,188.96	58.5511	9,188.96	65.0039	9,188.96	53.996	9,188.96	61.7737	9,188.96	54.3928	9,188.96	49.3731	9,188.96	46.4301	9,188.96	44.2421	9,188.96	43.0032	9,188.96	45.0359	9,188.96	48.327	9,188.96	52.3068	9,188.96	47.5063	9,188.96	48.0288	9,188.96	52.5579	9,188.96	45.5384	9,188.96	53.7182
9,514.16	88.231	9,514.16	87.4359	9,514.16	87.0274	9,514.16	85.9521	9,514.16	85.7958	9,514.16	83.2409	9,514.16	82.5448	9,514.16	81.3771	9,514.16	81.9927	9,514.16	77.2722	9,514.16	79.1658	9,514.16	74.808	9,514.16	77.142	9,514.16	70.8755	9,514.16	68.4326	9,514.16	66.3502	9,514.16	67.1293	9,514.16	57.7236	9,514.16	58.6173	9,514.16	51.7729	9,514.16	66.9479	9,514.16	53.6118	9,514.16	64.1067	9,514.16	48.9468	9,514.16	52.0645	9,514.16	39.5435	9,514.16	44.9666	9,514.16	46.5053	9,514.16	45.0872	9,514.16	50.4283	9,514.16	44.984	9,514.16	43.7118	9,514.16	45.9802	9,514.16	51.0028	9,514.16	43.6502	9,514.16	55.6771
9,849.61	88.8013	9,849.61	87.4968	9,849.61	87.0756	9,849.61	86.0755	9,849.61	86.2225	9,849.61	84.209	9,849.61	83.2194	9,849.61	81.5569	9,849.61	79.6073	9,849.61	77.8928	9,849.61	78.2616	9,849.61	73.9027	9,849.61	76.4536	9,849.61	70.5625	9,849.61	56.5547	9,849.61	65.9353	9,849.61	64.9431	9,849.61	60.425	9,849.61	53.3081	9,849.61	54.0573	9,849.61	67.5259	9,849.61	51.2153	9,849.61	65.1427	9,849.61	47.2372	9,849.61	55.4346	9,849.61	47.4971	9,849.61	51.6538	9,849.61	42.9688	9,849.61	54.6124	9,849.61	49.3635	9,849.61	50.6688	9,849.61	47.7008	9,849.61	53.0324	9,849.61	52.3866	9,849.61	42.6692	9,849.61	55.2792
10,196.8	88.9192	10,196.8	87.4965	10,196.8	87.4308	10,196.8	85.9269	10,196.8	86.4102	10,196.8	84.5871	10,196.8	84.9312	10,196.8	81.6439	10,196.8	80.0064	10,196.8	77.8448	10,196.8	77.6729	10,196.8	72.6109	10,196.8	75.9458	10,196.8	70.1744	10,196.8	64.7692	10,196.8	64.4517	10,196.8	66.0353	10,196.8	56.9554	10,196.8	53.3289	10,196.8	55.7565	10,196.8	69.9676	10,196.8	53.0299	10,196.8	67.9496	10,196.8	51.742	10,196.8	55.1566	10,196.8	47.8475	10,196.8	53.8396	10,196.8	47.2758	10,196.8	57.3551	10,196.8	49.4948	10,196.8	53.9771	10,196.8	48.7789	10,196.8	51.3103	10,196.8	53.7411	10,196.8	36.9027	10,196.8	54.125
10,555.7	88.3163	10,555.7	87.263	10,555.7	87.6629	10,555.7	85.4955	10,555.7	86.2092	10,555.7	84.0929	10,555.7	84.1297	10,555.7	81.3846	10,555.7	81.1145	10,555.7	76.8169	10,555.7	77.7617	10,555.7	73.3269	10,555.7	76.1728	10,555.7	71.6978	10,555.7	68.4828	10,555.7	63.4535	10,555.7	67.682	10,555.7	55.2066	10,555.7	48.085	10,555.7	44.3666	10,555.7	71.4145	10,555.7	55.521	10,555.7	68.5486	10,555.7	44.032	10,555.7	50.1212	10,555.7	49.0185	10,555.7	53.1027	10,555.7	44.4752	10,555.7	55.1007	10,555.7	40.1068	10,555.7	53.042	10,555.7	44.4571	10,555.7	46.8699	10,555.7	51.8818	10,555.7	41.012	10,555.7	54.5598
10,927.7	87.292	10,927.7	86.8857	10,927.7	86.9922	10,927.7	85.2428	10,927.7	86.0143	10,927.7	83.6643	10,927.7	83.3538	10,927.7	80.9522	10,927.7	79.8105	10,927.7	76.095	10,927.7	77.9725	10,927.7	72.4532	10,927.7	70.2121	10,927.7	69.7495	10,927.7	69.9473	10,927.7	61.4083	10,927.7	67.4971	10,927.7	52.1917	10,927.7	59.1784	10,927.7	57.3415	10,927.7	70.8258	10,927.7	52.9696	10,927.7	67.0013	10,927.7	52.0584	10,927.7	45.3781	10,927.7	51.1909	10,927.7	48.7076	10,927.7	42.2181	10,927.7	49.4758	10,927.7	41.8487	10,927.7	44.7627	10,927.7	45.2006	10,927.7	41.2529	10,927.7	51.8933	10,927.7	45.3195	10,927.7	54.4726
11,313	87.3009	11,313	87.0391	11,313	86.9299	11,313	86.1822	11,313	86.3178	11,313	84.6104	11,313	83.5761	11,313	81.0007	11,313	79.9061	11,313	76.4425	11,313	76.2857	11,313	72.3624	11,313	72.4742	11,313	69.3116	11,313	66.9528	11,313	61.9502	11,313	63.4113	11,313	49.4034	11,313	59.0014	11,313	54.8525	11,313	71.4249	11,313	53.6894	11,313	68.8752	11,313	50.3683	11,313	52.8533	11,313	48.8852	11,313	44.7059	11,313	47.1948	11,313	49.5714	11,313	35.4025	11,313	45.8956	11,313	50.6028	11,313	34.7022	11,313	50.3607	11,313	39.855	11,313	55.1713
11,712.9	87.7335	11,712.9	87.2422	11,712.9	87.3676	11,712.9	86.6258	11,712.9	86.9439	11,712.9	84.4626	11,712.9	83.8461	11,712.9	80.0984	11,712.9	78.4361	11,712.9	77.143	11,712.9	76.6778	11,712.9	72.1431	11,712.9	72.7276	11,712.9	67.1295	11,712.9	69.2644	11,712.9	60.6202	11,712.9	67.3232	11,712.9	51.5503	11,712.9	59.4606	11,712.9	54.4043	11,712.9	73.2244	11,712.9	54.3397	11,712.9	69.6617	11,712.9	44.5149	11,712.9	54.3762	11,712.9	45.7058	11,712.9	46.3834	11,712.9	46.5427	11,712.9	48.5856	11,712.9	34.0219	11,712.9	44.5074	11,712.9	50.5975	11,712.9	38.5749	11,712.9	46.8848	11,712.9	42.4196	11,712.9	55.3449
12,126	87.6981	12,126	86.7819	12,126	87.2243	12,126	85.6382	12,126	86.7274	12,126	84.1756	12,126	83.1241	12,126	79.1731	12,126	78.5866	12,126	76.4156	12,126	76.9173	12,126	71.5204	12,126	72.9475	12,126	67.5506	12,126	73.3272	12,126	58.7038	12,126	64.6722	12,126	52.7949	12,126	55.0986	12,126	57.6325	12,126	73.7471	12,126	55.2386	12,126	69.8409	12,126	50.1282	12,126	54.138	12,126	44.4579	12,126	45.5299	12,126	46.5944	12,126	50.4303	12,126	35.9867	12,126	41.7001	12,126	49.8615	12,126	43.0882	12,126	41.1548	12,126	35.4192	12,126	54.2515
12,553.7	86.6841	12,553.7	85.7052	12,553.7	86.128	12,553.7	84.6336	12,553.7	85.6233	12,553.7	83.3802	12,553.7	82.5634	12,553.7	78.127	12,553.7	77.6214	12,553.7	74.9757	12,553.7	74.4815	12,553.7	71.0168	12,553.7	69.6471	12,553.7	66.1182	12,553.7	71.5476	12,553.7	60.1357	12,553.7	62.3257	12,553.7	53.7825	12,553.7	57.5812	12,553.7	56.4689	12,553.7	72.9767	12,553.7	53.1469	12,553.7	69.6284	12,553.7	49.3131	12,553.7	49.4099	12,553.7	34.7605	12,553.7	45.4779	12,553.7	46.901	12,553.7	46.417	12,553.7	35.6343	12,553.7	45.2724	12,553.7	46.0326	12,553.7	41.357	12,553.7	44.7868	12,553.7	33.555	12,553.7	52.429
12,996.1	84.758	12,996.1	84.3991	12,996.1	84.3561	12,996.1	83.3605	12,996.1	83.7468	12,996.1	81.87	12,996.1	80.5791	12,996.1	76.8617	12,996.1	76.8501	12,996.1	74.052	12,996.1	72.6008	12,996.1	69.9912	12,996.1	72.7536	12,996.1	66.0548	12,996.1	66.4935	12,996.1	59.2899	12,996.1	61.2763	12,996.1	54.1797	12,996.1	60.0924	12,996.1	51.6251	12,996.1	72.3159	12,996.1	51.2387	12,996.1	68.2027	12,996.1	38.3755	12,996.1	46.8973	12,996.1	46.565	12,996.1	46.1568	12,996.1	43.6136	12,996.1	46.6553	12,996.1	39.8729	12,996.1	38.5015	12,996.1	39.4242	12,996.1	33.5759	12,996.1	44.8352	12,996.1	42.917	12,996.1	52.516
13,454.6	84.2458	13,454.6	83.8283	13,454.6	84.0322	13,454.6	83.2012	13,454.6	83.6558	13,454.6	81.4169	13,454.6	80.0853	13,454.6	77.1623	13,454.6	76.6821	13,454.6	73.0391	13,454.6	71.4793	13,454.6	69.2858	13,454.6	71.636	13,454.6	63.8813	13,454.6	67.9319	13,454.6	56.9269	13,454.6	64.1185	13,454.6	52.0999	13,454.6	53.6256	13,454.6	45.9304	13,454.6	71.8211	13,454.6	46.2734	13,454.6	67.7678	13,454.6	33.6186	13,454.6	52.9922	13,454.6	43.207	13,454.6	46.5654	13,454.6	38.1439	13,454.6	34.1779	13,454.6	41.5285	13,454.6	38.4559	13,454.6	36.2509	13,454.6	38.4296	13,454.6	39.1313	13,454.6	46.7935	13,454.6	48.318
13,929.2	84.1214	13,929.2	83.8278	13,929.2	84.2827	13,929.2	83.3917	13,929.2	83.6839	13,929.2	80.4717	13,929.2	79.7263	13,929.2	76.2728	13,929.2	75.2596	13,929.2	72.5276	13,929.2	71.3304	13,929.2	68.9445	13,929.2	69.6493	13,929.2	59.6085	13,929.2	67.3994	13,929.2	56.8771	13,929.2	60.5083	13,929.2	51.1623	13,929.2	54.629	13,929.2	46.1227	13,929.2	71.781	13,929.2	48.0028	13,929.2	68.7286	13,929.2	37.684	13,929.2	51.2738	13,929.2	42.1246	13,929.2	45.3236	13,929.2	40.6151	13,929.2	38.9197	13,929.2	42.0666	13,929.2	37.8545	13,929.2	43.0607	13,929.2	43.4277	13,929.2	42.0422	13,929.2	44.0061	13,929.2	48.3961
14,419.9	84.4825	14,419.9	84.3771	14,419.9	84.2831	14,419.9	83.9785	14,419.9	83.4654	14,419.9	80.1506	14,419.9	79.7312	14,419.9	75.2654	14,419.9	74.164	14,419.9	73.2026	14,419.9	70.5803	14,419.9	67.5759	14,419.9	69.3213	14,419.9	56.0286	14,419.9	67.0731	14,419.9	55.7595	14,419.9	58.9674	14,419.9	51.5465	14,419.9	54.3989	14,419.9	47.8423	14,419.9	72.0164	14,419.9	47.55	14,419.9	69.2363	14,419.9	20.0388	14,419.9	51.3107	14,419.9	45.5078	14,419.9	44.5956	14,419.9	35.818	14,419.9	46.9723	14,419.9	41.8598	14,419.9	43.1638	14,419.9	44.2964	14,419.9	47.5963	14,419.9	45.2043	14,419.9	32.7568	14,419.9	50.098
14,928.2	84.9917	14,928.2	85.1444	14,928.2	84.528	14,928.2	84.7161	14,928.2	83.5537	14,928.2	80.9328	14,928.2	79.6993	14,928.2	74.979	14,928.2	73.8969	14,928.2	73.6643	14,928.2	70.8574	14,928.2	66.8645	14,928.2	66.297	14,928.2	62.9022	14,928.2	63.8107	14,928.2	57.7046	14,928.2	60.5853	14,928.2	47.6245	14,928.2	55.2834	14,928.2	46.56	14,928.2	71.885	14,928.2	46.5986	14,928.2	68.4687	14,928.2	35.7429	14,928.2	47.6313	14,928.2	45.0905	14,928.2	40.7492	14,928.2	40.4319	14,928.2	49.7707	14,928.2	33.5823	14,928.2	37.5837	14,928.2	36.5817	14,928.2	48.5588	14,928.2	46.9848	14,928.2	43.6485	14,928.2	49.1819
15,455.6	85.7941	15,455.6	85.5105	15,455.6	85.8813	15,455.6	84.8822	15,455.6	84.5027	15,455.6	81.4739	15,455.6	80.1128	15,455.6	73.6466	15,455.6	74.7879	15,455.6	72.1341	15,455.6	71.5077	15,455.6	67.0488	15,455.6	62.8703	15,455.6	63.8356	15,455.6	66.0841	15,455.6	54.2992	15,455.6	56.4359	15,455.6	41.6683	15,455.6	55.7695	15,455.6	46.7333	15,455.6	72.3979	15,455.6	41.9267	15,455.6	68.5623	15,455.6	31.5584	15,455.6	49.168	15,455.6	30.4539	15,455.6	36.7827	15,455.6	41.7963	15,455.6	46.9678	15,455.6	26.2817	15,455.6	36.873	15,455.6	36.529	15,455.6	49.1871	15,455.6	45.9567	15,455.6	47.9051	15,455.6	44.2656
16,000.5	85.9165	16,000.5	85.4069	16,000.5	86.2262	16,000.5	83.8131	16,000.5	84.8115	16,000.5	80.4031	16,000.5	80.4097	16,000.5	73.8985	16,000.5	75.2655	16,000.5	69.0906	16,000.5	69.7174	16,000.5	67.2251	16,000.5	64.567	16,000.5	61.2153	16,000.5	63.0906	16,000.5	52.0077	16,000.5	56.0094	16,000.5	50.9282	16,000.5	53.1498	16,000.5	51.7459	16,000.5	72.0791	16,000.5	42.5297	16,000.5	68.6486	16,000.5	36.4769	16,000.5	47.3631	16,000.5	37.0075	16,000.5	45.1179	16,000.5	41.3877	16,000.5	46.988	16,000.5	29.7931	16,000.5	39.0665	16,000.5	38.1233	16,000.5	51.0076	16,000.5	40.3949	16,000.5	49.2583	16,000.5	42.6076
16,564.5	84.6316	16,564.5	84.1595	16,564.5	84.6533	16,564.5	81.9893	16,564.5	83.0902	16,564.5	78.3379	16,564.5	79.2517	16,564.5	73.3566	16,564.5	73.7608	16,564.5	69.6867	16,564.5	67.752	16,564.5	65.2163	16,564.5	63.9845	16,564.5	57.9698	16,564.5	57.7446	16,564.5	56.6598	16,564.5	57.0741	16,564.5	51.5439	16,564.5	50.2182	16,564.5	51.8094	16,564.5	70.2233	16,564.5	43.3757	16,564.5	67.7927	16,564.5	39.8337	16,564.5	47.226	16,564.5	38.7671	16,564.5	47.061	16,564.5	39.8702	16,564.5	43.3888	16,564.5	34.3521	16,564.5	33.5946	16,564.5	33.639	16,564.5	48.0542	16,564.5	37.4755	16,564.5	47.07	16,564.5	39.5809
17,148.9	80.9708	17,148.9	80.9279	17,148.9	80.7184	17,148.9	78.8871	17,148.9	80.0542	17,148.9	74.6972	17,148.9	75.7529	17,148.9	70.0918	17,148.9	70.6022	17,148.9	67.3752	17,148.9	65.456	17,148.9	62.3494	17,148.9	61.5918	17,148.9	58.2841	17,148.9	56.3301	17,148.9	52.4787	17,148.9	49.2821	17,148.9	46.0808	17,148.9	42.6967	17,148.9	46.9077	17,148.9	65.962	17,148.9	39.4081	17,148.9	65.0587	17,148.9	34.6577	17,148.9	44.28	17,148.9	33.4877	17,148.9	36.7001	17,148.9	34.1009	17,148.9	32.6197	17,148.9	31.6291	17,148.9	31.021	17,148.9	34.4762	17,148.9	41.1459	17,148.9	42.2859	17,148.9	39.8897	17,148.9	29.5815
17,752.4	76.2167	17,752.4	75.8697	17,752.4	75.8273	17,752.4	74.3675	17,752.4	75.89	17,752.4	70.7031	17,752.4	71.5411	17,752.4	64.4909	17,752.4	67.5293	17,752.4	63.4664	17,752.4	63.6004	17,752.4	60.7414	17,752.4	56.7056	17,752.4	53.8385	17,752.4	48.5154	17,752.4	44.0896	17,752.4	47.2889	17,752.4	41.3156	17,752.4	37.8867	17,752.4	39.318	17,752.4	60.1347	17,752.4	30.3567	17,752.4	60.13	17,752.4	25.6481	17,752.4	40.5824	17,752.4	25.685	17,752.4	9.85973	17,752.4	26.8133	17,752.4	30.333	17,752.4	27.2663	17,752.4	32.0933	17,752.4	33.909	17,752.4	40.063	17,752.4	39.637	17,752.4	38.9215	17,752.4	30.0617
18,379.4	71.1259	18,379.4	69.5856	18,379.4	72.2898	18,379.4	69.2302	18,379.4	73.6721	18,379.4	66.4011	18,379.4	69.2694	18,379.4	60.929	18,379.4	65.3895	18,379.4	58.6285	18,379.4	61.0192	18,379.4	58.1711	18,379.4	55.7798	18,379.4	47.8891	18,379.4	51.8469	18,379.4	43.5685	18,379.4	46.1759	18,379.4	40.1304	18,379.4	34.7186	18,379.4	35.9853	18,379.4	53.5047	18,379.4	26.064	18,379.4	55.8536	18,379.4	27.3367	18,379.4	34.1919	18,379.4	26.8629	18,379.4	31.4363	18,379.4	24.8823	18,379.4	32.8077	18,379.4	31.0107	18,379.4	31.3128	18,379.4	27.0546	18,379.4	40.203	18,379.4	38.7838	18,379.4	40.9608	18,379.4	32.835
19,026.9	64.7303	19,026.9	64.1484	19,026.9	68.5956	19,026.9	64.2146	19,026.9	71.1848	19,026.9	64.0283	19,026.9	67.5367	19,026.9	58.4779	19,026.9	63.4417	19,026.9	56.901	19,026.9	59.6165	19,026.9	52.612	19,026.9	54.4312	19,026.9	45.2848	19,026.9	50.1929	19,026.9	39.9981	19,026.9	44.2555	19,026.9	34.4089	19,026.9	33.3413	19,026.9	19.2581	19,026.9	42.2915	19,026.9	24.9728	19,026.9	51.2213	19,026.9	22.2894	19,026.9	28.4489	19,026.9	9.09306	19,026.9	34.9303	19,026.9	22.8402	19,026.9	34.5325	19,026.9	29.9319	19,026.9	31.3002	19,026.9	29.492	19,026.9	40.1888	19,026.9	37.6193	19,026.9	39.2342	19,026.9	33.7736
19,697.8	57.5942	19,697.8	51.4883	19,697.8	66.9552	19,697.8	57.6463	19,697.8	70.0162	19,697.8	60.4284	19,697.8	66.7889	19,697.8	53.1182	19,697.8	62.0332	19,697.8	53.6561	19,697.8	57.6722	19,697.8	51.4727	19,697.8	54.285	19,697.8	40.1094	19,697.8	48.6612	19,697.8	37.2022	19,697.8	43.6419	19,697.8	33.6378	19,697.8	33.5992	19,697.8	25.4481	19,697.8	38.3434	19,697.8	27.6035	19,697.8	42.6041	19,697.8	9.67865	19,697.8	19.9757	19,697.8	26.4258	19,697.8	23.1965	19,697.8	30.9817	19,697.8	35.3601	19,697.8	25.7083	19,697.8	26.0028	19,697.8	21.2329	19,697.8	37.9666	19,697.8	36.9044	19,697.8	35.6559	19,697.8	35.6243
19,999.5	55.4708	19,999.5	42.6485	19,999.5	66.7852	19,999.5	58.9695	19,999.5	69.5221	19,999.5	59.4684	19,999.5	66.8287	19,999.5	51.5185	19,999.5	61.1404	19,999.5	51.0826	19,999.5	58.2971	19,999.5	50.2047	19,999.5	54.4933	19,999.5	42.3384	19,999.5	49.8484	19,999.5	26.621	19,999.5	45.5325	19,999.5	26.9125	19,999.5	36.1761	19,999.5	29.9172	19,999.5	39.1603	19,999.5	32.3826	19,999.5	35.816	19,999.5	29.3575	19,999.5	29.5912	19,999.5	31.3737	19,999.5	26.7663	19,999.5	32.8453	19,999.5	34.8328	19,999.5	30.9588	19,999.5	24.6041	19,999.5	25.7053	19,999.5	41.6566	19,999.5	35.3445	19,999.5	39.3933	19,999.5	34.1214
