"SPL Horizontal"
"On-Axis"		"10°"		"-10°"		"20°"		"-20°"		"30°"		"-30°"		"40°"		"-40°"		"50°"		"-50°"		"60°"		"-60°"		"70°"		"-70°"		"80°"		"-80°"		"90°"		"-90°"		"100°"		"-100°"		"110°"		"-110°"		"120°"		"-120°"		"130°"		"-130°"		"140°"		"-140°"		"150°"		"-150°"		"160°"		"-160°"		"170°"		"-170°"		"180°"
"Frequency / Hz"	"Sound Pressure Level / dB (re 20 µPa/V)  [2.83  V @ 1. m]"	"Frequency / Hz"	"Sound Pressure Level / dB (re 20 µPa/V)  [2.83  V @ 1. m]"	"Frequency / Hz"	"Sound Pressure Level / dB (re 20 µPa/V)  [2.83  V @ 1. m]"	"Frequency / Hz"	"Sound Pressure Level / dB (re 20 µPa/V)  [2.83  V @ 1. m]"	"Frequency / Hz"	"Sound Pressure Level / dB (re 20 µPa/V)  [2.83  V @ 1. m]"	"Frequency / Hz"	"Sound Pressure Level / dB (re 20 µPa/V)  [2.83  V @ 1. m]"	"Frequency / Hz"	"Sound Pressure Level / dB (re 20 µPa/V)  [2.83  V @ 1. m]"	"Frequency / Hz"	"Sound Pressure Level / dB (re 20 µPa/V)  [2.83  V @ 1. m]"	"Frequency / Hz"	"Sound Pressure Level / dB (re 20 µPa/V)  [2.83  V @ 1. m]"	"Frequency / Hz"	"Sound Pressure Level / dB (re 20 µPa/V)  [2.83  V @ 1. m]"	"Frequency / Hz"	"Sound Pressure Level / dB (re 20 µPa/V)  [2.83  V @ 1. m]"	"Frequency / Hz"	"Sound Pressure Level / dB (re 20 µPa/V)  [2.83  V @ 1. m]"	"Frequency / Hz"	"Sound Pressure Level / dB (re 20 µPa/V)  [2.83  V @ 1. m]"	"Frequency / Hz"	"Sound Pressure Level / dB (re 20 µPa/V)  [2.83  V @ 1. m]"	"Frequency / Hz"	"Sound Pressure Level / dB (re 20 µPa/V)  [2.83  V @ 1. m]"	"Frequency / Hz"	"Sound Pressure Level / dB (re 20 µPa/V)  [2.83  V @ 1. m]"	"Frequency / Hz"	"Sound Pressure Level / dB (re 20 µPa/V)  [2.83  V @ 1. m]"	"Frequency / Hz"	"Sound Pressure Level / dB (re 20 µPa/V)  [2.83  V @ 1. m]"	"Frequency / Hz"	"Sound Pressure Level / dB (re 20 µPa/V)  [2.83  V @ 1. m]"	"Frequency / Hz"	"Sound Pressure Level / dB (re 20 µPa/V)  [2.83  V @ 1. m]"	"Frequency / Hz"	"Sound Pressure Level / dB (re 20 µPa/V)  [2.83  V @ 1. m]"	"Frequency / Hz"	"Sound Pressure Level / dB (re 20 µPa/V)  [2.83  V @ 1. m]"	"Frequency / Hz"	"Sound Pressure Level / dB (re 20 µPa/V)  [2.83  V @ 1. m]"	"Frequency / Hz"	"Sound Pressure Level / dB (re 20 µPa/V)  [2.83  V @ 1. m]"	"Frequency / Hz"	"Sound Pressure Level / dB (re 20 µPa/V)  [2.83  V @ 1. m]"	"Frequency / Hz"	"Sound Pressure Level / dB (re 20 µPa/V)  [2.83  V @ 1. m]"	"Frequency / Hz"	"Sound Pressure Level / dB (re 20 µPa/V)  [2.83  V @ 1. m]"	"Frequency / Hz"	"Sound Pressure Level / dB (re 20 µPa/V)  [2.83  V @ 1. m]"	"Frequency / Hz"	"Sound Pressure Level / dB (re 20 µPa/V)  [2.83  V @ 1. m]"	"Frequency / Hz"	"Sound Pressure Level / dB (re 20 µPa/V)  [2.83  V @ 1. m]"	"Frequency / Hz"	"Sound Pressure Level / dB (re 20 µPa/V)  [2.83  V @ 1. m]"	"Frequency / Hz"	"Sound Pressure Level / dB (re 20 µPa/V)  [2.83  V @ 1. m]"	"Frequency / Hz"	"Sound Pressure Level / dB (re 20 µPa/V)  [2.83  V @ 1. m]"	"Frequency / Hz"	"Sound Pressure Level / dB (re 20 µPa/V)  [2.83  V @ 1. m]"	"Frequency / Hz"	"Sound Pressure Level / dB (re 20 µPa/V)  [2.83  V @ 1. m]"	"Frequency / Hz"	"Sound Pressure Level / dB (re 20 µPa/V)  [2.83  V @ 1. m]"
20.5078	56.3042	20.5078	56.0486	20.5078	56.5379	20.5078	55.7768	20.5078	56.7448	20.5078	55.4971	20.5078	56.9195	20.5078	55.221	20.5078	57.056	20.5078	54.9633	20.5078	57.1482	20.5078	54.7405	20.5078	57.1914	20.5078	54.5676	20.5078	57.1833	20.5078	54.4551	20.5078	57.1253	20.5078	54.4061	20.5078	57.0227	20.5078	54.4167	20.5078	56.8847	20.5078	54.4781	20.5078	56.7222	20.5078	54.5788	20.5078	56.5466	20.5078	54.7079	20.5078	56.367	20.5078	54.8559	20.5078	56.1895	20.5078	55.0154	20.5078	56.0165	20.5078	55.1806	20.5078	55.8477	20.5078	55.3478	20.5078	55.6811	20.5078	55.5148
21.9727	58.3874	21.9727	58.326	21.9727	58.4355	21.9727	58.2534	21.9727	58.4677	21.9727	58.1721	21.9727	58.4798	21.9727	58.085	21.9727	58.4668	21.9727	57.9963	21.9727	58.4229	21.9727	57.9102	21.9727	58.3435	21.9727	57.8304	21.9727	58.2265	21.9727	57.7589	21.9727	58.0733	21.9727	57.6951	21.9727	57.8903	21.9727	57.6365	21.9727	57.6885	21.9727	57.5791	21.9727	57.4829	21.9727	57.5182	21.9727	57.2908	21.9727	57.45	21.9727	57.1286	21.9727	57.3722	21.9727	57.0095	21.9727	57.2848	21.9727	56.941	21.9727	57.1909	21.9727	56.9236	21.9727	57.0971	21.9727	56.9511	21.9727	57.0132
23.4375	56.7288	23.4375	56.5895	23.4375	56.8721	23.4375	56.458	23.4375	57.0136	23.4375	56.3356	23.4375	57.1461	23.4375	56.2202	23.4375	57.2611	23.4375	56.1069	23.4375	57.3491	23.4375	55.9881	23.4375	57.4004	23.4375	55.8563	23.4375	57.4059	23.4375	55.7056	23.4375	57.3582	23.4375	55.5344	23.4375	57.2535	23.4375	55.3468	23.4375	57.0914	23.4375	55.1528	23.4375	56.8761	23.4375	54.9675	23.4375	56.6159	23.4375	54.8091	23.4375	56.3228	23.4375	54.6962	23.4375	56.0112	23.4375	54.6439	23.4375	55.6976	23.4375	54.6618	23.4375	55.3991	23.4375	54.7526	23.4375	55.1323	23.4375	54.9125
24.9023	60.3639	24.9023	60.3413	24.9023	60.3691	24.9023	60.3003	24.9023	60.3576	24.9023	60.2402	24.9023	60.3299	24.9023	60.1608	24.9023	60.2854	24.9023	60.062	24.9023	60.2233	24.9023	59.9445	24.9023	60.1422	24.9023	59.8091	24.9023	60.0409	24.9023	59.6576	24.9023	59.9187	24.9023	59.4923	24.9023	59.776	24.9023	59.3168	24.9023	59.6139	24.9023	59.1357	24.9023	59.435	24.9023	58.9552	24.9023	59.2436	24.9023	58.7831	24.9023	59.0465	24.9023	58.6283	24.9023	58.8533	24.9023	58.5004	24.9023	58.6764	24.9023	58.4089	24.9023	58.529	24.9023	58.3622	24.9023	58.4229	24.9023	58.3662
26.3672	60.2081	26.3672	60.2476	26.3672	60.1442	26.3672	60.2597	26.3672	60.0581	26.3672	60.2414	26.3672	59.9514	26.3672	60.1896	26.3672	59.825	26.3672	60.1017	26.3672	59.6785	26.3672	59.9756	26.3672	59.5118	26.3672	59.8108	26.3672	59.3247	26.3672	59.6082	26.3672	59.1184	26.3672	59.3718	26.3672	58.896	26.3672	59.1082	26.3672	58.6627	26.3672	58.8277	26.3672	58.4262	26.3672	58.5435	26.3672	58.1958	26.3672	58.2707	26.3672	57.9823	26.3672	58.0244	26.3672	57.7967	26.3672	57.8171	26.3672	57.6491	26.3672	57.6576	26.3672	57.5469	26.3672	57.55	26.3672	57.4951	26.3672	57.4958
27.832	59.4355	27.832	59.4475	27.832	59.4218	27.832	59.4566	27.832	59.408	27.832	59.462	27.832	59.3956	27.832	59.4628	27.832	59.386	27.832	59.458	27.832	59.3793	27.832	59.4468	27.832	59.3743	27.832	59.4286	27.832	59.3689	27.832	59.4036	27.832	59.3603	27.832	59.373	27.832	59.3465	27.832	59.3388	27.832	59.3264	27.832	59.3038	27.832	59.3007	27.832	59.2704	27.832	59.2712	27.832	59.241	27.832	59.2411	27.832	59.2166	27.832	59.2136	27.832	59.1976	27.832	59.1916	27.832	59.1836	27.832	59.1769	27.832	59.1741	27.832	59.1696	27.832	59.1691
29.2969	59.1043	29.2969	59.1158	29.2969	59.0714	29.2969	59.1044	29.2969	59.0166	29.2969	59.0675	29.2969	58.9364	29.2969	59.0019	29.2969	58.825	29.2969	58.9046	29.2969	58.6747	29.2969	58.7718	29.2969	58.4784	29.2969	58.5989	29.2969	58.2307	29.2969	58.3802	29.2969	57.9298	29.2969	58.1099	29.2969	57.5781	29.2969	57.7832	29.2969	57.1822	29.2969	57.3991	29.2969	56.753	29.2969	56.9626	29.2969	56.3057	29.2969	56.4881	29.2969	55.8605	29.2969	56.0002	29.2969	55.4428	29.2969	55.5343	29.2969	55.0835	29.2969	55.1324	29.2969	54.8166	29.2969	54.8366	29.2969	54.6742	29.2969	54.6789
30.7617	62.8226	30.7617	62.8491	30.7617	62.7876	30.7617	62.8669	30.7617	62.7449	30.7617	62.8769	30.7617	62.6958	30.7617	62.8803	30.7617	62.6422	30.7617	62.8786	30.7617	62.586	30.7617	62.8731	30.7617	62.5291	30.7617	62.8643	30.7617	62.4731	30.7617	62.852	30.7617	62.4194	30.7617	62.8348	30.7617	62.3692	30.7617	62.8108	30.7617	62.3234	30.7617	62.7781	30.7617	62.2831	30.7617	62.7354	30.7617	62.2501	30.7617	62.6823	30.7617	62.2269	30.7617	62.6198	30.7617	62.2167	30.7617	62.5504	30.7617	62.2222	30.7617	62.4777	30.7617	62.2452	30.7617	62.4061	30.7617	62.2854	30.7617	62.3404
32.2266	65.688	32.2266	65.6987	32.2266	65.6576	32.2266	65.6904	32.2266	65.6072	32.2266	65.6637	32.2266	65.5368	32.2266	65.6193	32.2266	65.4471	32.2266	65.5573	32.2266	65.3395	32.2266	65.4776	32.2266	65.216	32.2266	65.38	32.2266	65.0792	32.2266	65.2651	32.2266	64.9325	32.2266	65.134	32.2266	64.7796	32.2266	64.9892	32.2266	64.6247	32.2266	64.8345	32.2266	64.4726	32.2266	64.6751	32.2266	64.3289	32.2266	64.5169	32.2266	64.1996	32.2266	64.3667	32.2266	64.0914	32.2266	64.231	32.2266	64.0103	32.2266	64.1162	32.2266	63.9615	32.2266	64.0279	32.2266	63.9481	32.2266	63.9707
33.6914	67.0359	33.6914	67.0214	33.6914	67.0339	33.6914	66.991	33.6914	67.0149	33.6914	66.945	33.6914	66.9793	33.6914	66.8836	33.6914	66.9274	33.6914	66.8067	33.6914	66.8604	33.6914	66.7138	33.6914	66.7792	33.6914	66.6048	33.6914	66.685	33.6914	66.4806	33.6914	66.5786	33.6914	66.3433	33.6914	66.4608	33.6914	66.1967	33.6914	66.3327	33.6914	66.046	33.6914	66.196	33.6914	65.8975	33.6914	66.0538	33.6914	65.7584	33.6914	65.9107	33.6914	65.6359	33.6914	65.7732	33.6914	65.537	33.6914	65.6491	33.6914	65.4677	33.6914	65.5467	33.6914	65.4327	33.6914	65.4734	33.6914	65.4345
35.1562	69.0062	35.1562	68.9857	35.1562	69.011	35.1562	68.9499	35.1562	69.0001	35.1562	68.8996	35.1562	68.9743	35.1562	68.836	35.1562	68.9346	35.1562	68.7606	35.1562	68.8824	35.1562	68.6752	35.1562	68.8191	35.1562	68.5821	35.1562	68.7463	35.1562	68.4841	35.1562	68.6655	35.1562	68.3845	35.1562	68.578	35.1562	68.2869	35.1562	68.4856	35.1562	68.195	35.1562	68.3903	35.1562	68.112	35.1562	68.2947	35.1562	68.0407	35.1562	68.2021	35.1562	67.9831	35.1562	68.1165	35.1562	67.9406	35.1562	68.0418	35.1562	67.9142	35.1562	67.9815	35.1562	67.9045	35.1562	67.9379	35.1562	67.9122
36.6211	70.5081	36.6211	70.4987	36.6211	70.4991	36.6211	70.4707	36.6211	70.4725	36.6211	70.4246	36.6211	70.4299	36.6211	70.3617	36.6211	70.3731	36.6211	70.2839	36.6211	70.3046	36.6211	70.1936	36.6211	70.2269	36.6211	70.0942	36.6211	70.1429	36.6211	69.9895	36.6211	70.0555	36.6211	69.8838	36.6211	69.9674	36.6211	69.7815	36.6211	69.8805	36.6211	69.6869	36.6211	69.7968	36.6211	69.6036	36.6211	69.7175	36.6211	69.5342	36.6211	69.6441	36.6211	69.4803	36.6211	69.5783	36.6211	69.4425	36.6211	69.5215	36.6211	69.4205	36.6211	69.4756	36.6211	69.4135	36.6211	69.4417	36.6211	69.4208
38.0859	72.2886	38.0859	72.2731	38.0859	72.2848	38.0859	72.2379	38.0859	72.2623	38.0859	72.1835	38.0859	72.2223	38.0859	72.1107	38.0859	72.166	38.0859	72.0208	38.0859	72.0952	38.0859	71.9158	38.0859	72.0117	38.0859	71.7983	38.0859	71.9173	38.0859	71.672	38.0859	71.814	38.0859	71.5411	38.0859	71.7041	38.0859	71.4105	38.0859	71.5897	38.0859	71.2855	38.0859	71.4736	38.0859	71.171	38.0859	71.3588	38.0859	71.0717	38.0859	71.2486	38.0859	70.9913	38.0859	71.1469	38.0859	70.9325	38.0859	71.0575	38.0859	70.8966	38.0859	70.984	38.0859	70.8844	38.0859	70.9293	38.0859	70.8956
39.5508	73.8726	39.5508	73.8669	39.5508	73.8599	39.5508	73.8424	39.5508	73.8296	39.5508	73.799	39.5508	73.7828	39.5508	73.7374	39.5508	73.7208	39.5508	73.6586	39.5508	73.6452	39.5508	73.5644	39.5508	73.5577	39.5508	73.4573	39.5508	73.4601	39.5508	73.3408	39.5508	73.3546	39.5508	73.2189	39.5508	73.2438	39.5508	73.0963	39.5508	73.1305	39.5508	72.9775	39.5508	73.018	39.5508	72.8671	39.5508	72.9098	39.5508	72.7689	39.5508	72.8097	39.5508	72.6859	39.5508	72.7214	39.5508	72.6204	39.5508	72.6482	39.5508	72.574	39.5508	72.5928	39.5508	72.5476	39.5508	72.557	39.5508	72.5419
41.0156	75.8007	41.0156	75.8173	41.0156	75.7652	41.0156	75.8148	41.0156	75.7113	41.0156	75.7939	41.0156	75.6405	41.0156	75.7556	41.0156	75.5548	41.0156	75.701	41.0156	75.4574	41.0156	75.632	41.0156	75.3518	41.0156	75.5505	41.0156	75.2421	41.0156	75.459	41.0156	75.1326	41.0156	75.3601	41.0156	75.0273	41.0156	75.2574	41.0156	74.9303	41.0156	75.1543	41.0156	74.8449	41.0156	75.0546	41.0156	74.7736	41.0156	74.9618	41.0156	74.718	41.0156	74.8788	41.0156	74.6787	41.0156	74.8076	41.0156	74.6553	41.0156	74.7492	41.0156	74.6469	41.0156	74.704	41.0156	74.6527	41.0156	74.6718
42.4805	77.4538	42.4805	77.4694	42.4805	77.4192	42.4805	77.4658	42.4805	77.3657	42.4805	77.4437	42.4805	77.2944	42.4805	77.4039	42.4805	77.2068	42.4805	77.3475	42.4805	77.1052	42.4805	77.276	42.4805	76.9922	42.4805	77.1907	42.4805	76.8714	42.4805	77.0936	42.4805	76.7468	42.4805	76.9868	42.4805	76.6229	42.4805	76.8733	42.4805	76.5045	42.4805	76.7564	42.4805	76.3961	42.4805	76.64	42.4805	76.3022	42.4805	76.5284	42.4805	76.2259	42.4805	76.4252	42.4805	76.1696	42.4805	76.3338	42.4805	76.1343	42.4805	76.2567	42.4805	76.1201	42.4805	76.1955	42.4805	76.1262	42.4805	76.1516
43.9453	78.354	43.9453	78.3555	43.9453	78.3371	43.9453	78.342	43.9453	78.305	43.9453	78.3143	43.9453	78.2587	43.9453	78.2737	43.9453	78.1993	43.9453	78.2222	43.9453	78.1291	43.9453	78.162	43.9453	78.0504	43.9453	78.0958	43.9453	77.9666	43.9453	78.026	43.9453	77.8811	43.9453	77.955	43.9453	77.7976	43.9453	77.8849	43.9453	77.7197	43.9453	77.8176	43.9453	77.6504	43.9453	77.7543	43.9453	77.5922	43.9453	77.6963	43.9453	77.5466	43.9453	77.6442	43.9453	77.5143	43.9453	77.5987	43.9453	77.495	43.9453	77.5603	43.9453	77.4881	43.9453	77.5294	43.9453	77.4923	43.9453	77.5064
45.4102	79.696	45.4102	79.6976	45.4102	79.6783	45.4102	79.6832	45.4102	79.6448	45.4102	79.6535	45.4102	79.5965	45.4102	79.6099	45.4102	79.5351	45.4102	79.5543	45.4102	79.4628	45.4102	79.489	45.4102	79.3825	45.4102	79.4167	45.4102	79.2972	45.4102	79.3405	45.4102	79.2104	45.4102	79.2633	45.4102	79.1256	45.4102	79.188	45.4102	79.0461	45.4102	79.117	45.4102	78.9748	45.4102	79.0521	45.4102	78.9142	45.4102	78.9942	45.4102	78.8661	45.4102	78.944	45.4102	78.8313	45.4102	78.9013	45.4102	78.81	45.4102	78.8658	45.4102	78.8014	45.4102	78.8374	45.4102	78.8041	45.4102	78.8166
46.875	80.9454	46.875	80.9545	46.875	80.9187	46.875	80.9462	46.875	80.8747	46.875	80.9213	46.875	80.8142	46.875	80.8812	46.875	80.7388	46.875	80.8274	46.875	80.651	46.875	80.7619	46.875	80.5538	46.875	80.6872	46.875	80.451	46.875	80.6059	46.875	80.3467	46.875	80.5209	46.875	80.2452	46.875	80.4349	46.875	80.1505	46.875	80.3506	46.875	80.0664	46.875	80.27	46.875	79.996	46.875	80.1946	46.875	79.9414	46.875	80.1254	46.875	79.9041	46.875	80.0628	46.875	79.8844	46.875	80.0073	46.875	79.8819	46.875	79.9598	46.875	79.895	46.875	79.9217
48.3398	81.9696	48.3398	81.9744	48.3398	81.9478	48.3398	81.9629	48.3398	81.909	48.3398	81.9361	48.3398	81.8534	48.3398	81.8955	48.3398	81.7823	48.3398	81.8428	48.3398	81.6975	48.3398	81.7799	48.3398	81.6015	48.3398	81.7086	48.3398	81.4978	48.3398	81.6311	48.3398	81.3905	48.3398	81.5492	48.3398	81.284	48.3398	81.4652	48.3398	81.1831	48.3398	81.381	48.3398	81.0921	48.3398	81.2985	48.3398	81.0149	48.3398	81.2196	48.3398	80.9544	48.3398	81.1457	48.3398	80.9124	48.3398	81.0779	48.3398	80.8893	48.3398	81.0176	48.3398	80.8849	48.3398	80.9661	48.3398	80.8976	48.3398	80.9254
51.2695	83.6385	51.2695	83.6294	51.2695	83.6299	51.2695	83.6032	51.2695	83.6037	51.2695	83.561	51.2695	83.5604	51.2695	83.5045	51.2695	83.5015	51.2695	83.4358	51.2695	83.4285	51.2695	83.3577	51.2695	83.3438	51.2695	83.273	51.2695	83.2505	51.2695	83.1849	51.2695	83.1518	51.2695	83.0965	51.2695	83.0515	51.2695	83.0106	51.2695	82.9535	51.2695	82.9296	51.2695	82.8615	51.2695	82.8553	51.2695	82.7793	51.2695	82.789	51.2695	82.7098	51.2695	82.7313	51.2695	82.6552	51.2695	82.6826	51.2695	82.6167	51.2695	82.643	51.2695	82.5943	51.2695	82.6132	51.2695	82.5873	51.2695	82.5942
52.7344	84.1819	52.7344	84.186	52.7344	84.1614	52.7344	84.1739	52.7344	84.1251	52.7344	84.1464	52.7344	84.0741	52.7344	84.1048	52.7344	84.01	52.7344	84.0512	52.7344	83.9354	52.7344	83.9877	52.7344	83.853	52.7344	83.917	52.7344	83.766	52.7344	83.8421	52.7344	83.6779	52.7344	83.7656	52.7344	83.5923	52.7344	83.6902	52.7344	83.5124	52.7344	83.6182	52.7344	83.4411	52.7344	83.5512	52.7344	83.3808	52.7344	83.4905	52.7344	83.3333	52.7344	83.4365	52.7344	83.2993	52.7344	83.3895	52.7344	83.2791	52.7344	83.3496	52.7344	83.2721	52.7344	83.3171	52.7344	83.2771	52.7344	83.2926
54.1992	84.9889	54.1992	84.995	54.1992	84.9646	54.1992	84.9832	54.1992	84.9227	54.1992	84.9544	54.1992	84.8643	54.1992	84.9101	54.1992	84.7914	54.1992	84.8526	54.1992	84.7066	54.1992	84.7843	54.1992	84.6131	54.1992	84.7084	54.1992	84.5147	54.1992	84.6278	54.1992	84.4154	54.1992	84.5454	54.1992	84.3194	54.1992	84.4639	54.1992	84.2303	54.1992	84.3854	54.1992	84.1515	54.1992	84.3113	54.1992	84.0854	54.1992	84.2426	54.1992	84.0338	54.1992	84.1799	54.1992	83.9977	54.1992	84.1238	54.1992	83.9773	54.1992	84.0748	54.1992	83.972	54.1992	84.0338	54.1992	83.9807	54.1992	84.0019
55.6641	85.3607	55.6641	85.3627	55.6641	85.3401	55.6641	85.3466	55.6641	85.3016	55.6641	85.3132	55.6641	85.2464	55.6641	85.2643	55.6641	85.1766	55.6641	85.2024	55.6641	85.0949	55.6641	85.1303	55.6641	85.0048	55.6641	85.0513	55.6641	84.91	55.6641	84.9688	55.6641	84.8145	55.6641	84.8859	55.6641	84.7221	55.6641	84.8054	55.6641	84.6362	55.6641	84.7292	55.6641	84.5597	55.6641	84.6587	55.6641	84.4946	55.6641	84.5946	55.6641	84.4424	55.6641	84.5373	55.6641	84.4039	55.6641	84.4872	55.6641	84.3794	55.6641	84.4446	55.6641	84.3687	55.6641	84.4103	55.6641	84.3711	55.6641	84.3854
58.5938	86.0511	58.5938	86.0502	58.5938	86.0321	58.5938	86.0303	58.5938	85.9937	58.5938	85.9925	58.5938	85.9367	58.5938	85.939	58.5938	85.8633	58.5938	85.8722	58.5938	85.7762	58.5938	85.7953	58.5938	85.679	58.5938	85.7116	58.5938	85.5759	58.5938	85.6244	58.5938	85.4718	58.5938	85.5369	58.5938	85.3711	58.5938	85.4522	58.5938	85.2782	58.5938	85.3725	58.5938	85.1965	58.5938	85.2994	58.5938	85.1287	58.5938	85.2341	58.5938	85.0761	58.5938	85.1768	58.5938	85.0392	58.5938	85.1278	58.5938	85.0174	58.5938	85.0868	58.5938	85.0096	58.5938	85.0538	58.5938	85.0141	58.5938	85.0293
60.0586	86.4127	60.0586	86.4017	60.0586	86.4018	60.0586	86.3698	60.0586	86.3693	60.0586	86.3188	60.0586	86.3159	60.0586	86.251	60.0586	86.2437	60.0586	86.1697	60.0586	86.1553	60.0586	86.0785	60.0586	86.0545	60.0586	85.9814	60.0586	85.9454	60.0586	85.8824	60.0586	85.8329	60.0586	85.7854	60.0586	85.7216	60.0586	85.6936	60.0586	85.6163	60.0586	85.6095	60.0586	85.5209	60.0586	85.5343	60.0586	85.4385	60.0586	85.4687	60.0586	85.3713	60.0586	85.4124	60.0586	85.3206	60.0586	85.365	60.0586	85.2867	60.0586	85.3261	60.0586	85.2688	60.0586	85.2959	60.0586	85.2656	60.0586	85.2752
62.9883	86.8398	62.9883	86.8312	62.9883	86.8258	62.9883	86.8004	62.9883	86.7896	62.9883	86.7489	62.9883	86.7325	62.9883	86.6792	62.9883	86.6568	62.9883	86.5943	62.9883	86.5659	62.9883	86.4981	62.9883	86.4635	62.9883	86.395	62.9883	86.3542	62.9883	86.2894	62.9883	86.2428	62.9883	86.1856	62.9883	86.134	62.9883	86.0876	62.9883	86.032	62.9883	85.9983	62.9883	85.9401	62.9883	85.9195	62.9883	85.8608	62.9883	85.8524	62.9883	85.7956	62.9883	85.7968	62.9883	85.7451	62.9883	85.7523	62.9883	85.7091	62.9883	85.7183	62.9883	85.6871	62.9883	85.6945	62.9883	85.6781	62.9883	85.6809
64.4531	87.007	64.4531	86.9961	64.4531	86.995	64.4531	86.9628	64.4531	86.9604	64.4531	86.9086	64.4531	86.9047	64.4531	86.8361	64.4531	86.8301	64.4531	86.7485	64.4531	86.7399	64.4531	86.6498	64.4531	86.638	64.4531	86.5445	64.4531	86.5289	64.4531	86.4374	64.4531	86.4175	64.4531	86.3329	64.4531	86.3084	64.4531	86.2351	64.4531	86.206	64.4531	86.147	64.4531	86.1136	64.4531	86.0704	64.4531	86.0338	64.4531	86.0062	64.4531	85.9681	64.4531	85.9541	64.4531	85.9171	64.4531	85.9132	64.4531	85.8808	64.4531	85.8825	64.4531	85.8583	64.4531	85.8614	64.4531	85.8484	64.4531	85.8498
67.3828	87.2263	67.3828	87.2106	67.3828	87.2181	67.3828	87.1716	67.3828	87.1866	67.3828	87.1108	67.3828	87.1331	67.3828	87.0306	67.3828	87.0601	67.3828	86.9342	67.3828	86.9706	67.3828	86.8258	67.3828	86.8687	67.3828	86.7098	67.3828	86.7589	67.3828	86.5913	67.3828	86.6459	67.3828	86.4754	67.3828	86.5344	67.3828	86.3667	67.3828	86.4286	67.3828	86.269	67.3828	86.332	67.3828	86.1851	67.3828	86.2465	67.3828	86.1163	67.3828	86.1735	67.3828	86.0631	67.3828	86.113	67.3828	86.0248	67.3828	86.0648	67.3828	86.0005	67.3828	86.0284	67.3828	85.9894	67.3828	86.0037	67.3828	85.9906
68.8477	87.3117	68.8477	87.2971	68.8477	87.3021	68.8477	87.2588	68.8477	87.2688	68.8477	87.1982	68.8477	87.2135	68.8477	87.1178	68.8477	87.1386	68.8477	87.021	68.8477	87.0477	68.8477	86.9122	68.8477	86.9448	68.8477	86.7961	68.8477	86.8346	68.8477	86.678	68.8477	86.7218	68.8477	86.5628	68.8477	86.6111	68.8477	86.4552	68.8477	86.5064	68.8477	86.359	68.8477	86.411	68.8477	86.2766	68.8477	86.327	68.8477	86.2092	68.8477	86.2554	68.8477	86.1567	68.8477	86.1965	68.8477	86.1186	68.8477	86.15	68.8477	86.0939	68.8477	86.1154	68.8477	86.0817	68.8477	86.0926	68.8477	86.0813
71.7773	87.5679	71.7773	87.5477	71.7773	87.5619	71.7773	87.502	71.7773	87.5302	71.7773	87.4324	71.7773	87.4745	71.7773	87.3418	71.7773	87.3974	71.7773	87.2341	71.7773	87.3026	71.7773	87.1141	71.7773	87.1945	71.7773	86.9871	71.7773	87.0781	71.7773	86.859	71.7773	86.9587	71.7773	86.7354	71.7773	86.8414	71.7773	86.6215	71.7773	86.7306	71.7773	86.5213	71.7773	86.6298	71.7773	86.4375	71.7773	86.5412	71.7773	86.3712	71.7773	86.4657	71.7773	86.322	71.7773	86.4032	71.7773	86.2888	71.7773	86.3531	71.7773	86.2699	71.7773	86.3145	71.7773	86.264	71.7773	86.2868	71.7773	86.2699
74.707	87.7602	74.707	87.7406	74.707	87.7531	74.707	87.6944	74.707	87.7199	74.707	87.6231	74.707	87.6627	74.707	87.5295	74.707	87.5845	74.707	87.4174	74.707	87.4891	74.707	87.2915	74.707	87.3813	74.707	87.1577	74.707	87.2661	74.707	87.0221	74.707	87.1485	74.707	86.891	74.707	87.0331	74.707	86.7703	74.707	86.924	74.707	86.6646	74.707	86.8237	74.707	86.577	74.707	86.734	74.707	86.5089	74.707	86.6553	74.707	86.4598	74.707	86.5876	74.707	86.4285	74.707	86.5308	74.707	86.4133	74.707	86.4845	74.707	86.4125	74.707	86.449	74.707	86.4248
77.6367	87.9157	77.6367	87.9055	77.6367	87.8988	77.6367	87.8684	77.6367	87.8557	77.6367	87.806	77.6367	87.7886	77.6367	87.7211	77.6367	87.7008	77.6367	87.6174	77.6367	87.5967	77.6367	87.4997	77.6367	87.4816	77.6367	87.3736	77.6367	87.3611	77.6367	87.245	77.6367	87.2409	77.6367	87.1201	77.6367	87.1264	77.6367	87.0042	77.6367	87.0216	77.6367	86.9018	77.6367	86.9294	77.6367	86.8156	77.6367	86.8509	77.6367	86.7467	77.6367	86.7861	77.6367	86.695	77.6367	86.7338	77.6367	86.6589	77.6367	86.6927	77.6367	86.637	77.6367	86.6618	77.6367	86.6274	77.6367	86.6406	77.6367	86.6289
79.1016	87.9653	79.1016	87.9527	79.1016	87.9505	79.1016	87.9132	79.1016	87.9091	79.1016	87.8485	79.1016	87.8433	79.1016	87.7615	79.1016	87.7565	79.1016	87.6565	79.1016	87.6533	79.1016	87.5385	79.1016	87.5389	79.1016	87.4133	79.1016	87.4193	79.1016	87.2872	79.1016	87.3003	79.1016	87.1662	79.1016	87.1872	79.1016	87.0556	79.1016	87.0844	79.1016	86.9594	79.1016	86.9947	79.1016	86.8798	79.1016	86.9192	79.1016	86.8175	79.1016	86.8578	79.1016	86.7716	79.1016	86.8092	79.1016	86.7403	79.1016	86.7718	79.1016	86.7217	79.1016	86.7443	79.1016	86.7138	79.1016	86.7256	79.1016	86.7153
82.0312	88.0737	82.0312	88.0619	82.0312	88.056	82.0312	88.021	82.0312	88.0099	82.0312	87.953	82.0312	87.9379	82.0312	87.8609	82.0312	87.844	82.0312	87.7494	82.0312	87.7333	82.0312	87.6241	82.0312	87.612	82.0312	87.4915	82.0312	87.4868	82.0312	87.3588	82.0312	87.3644	82.0312	87.2328	82.0312	87.2508	82.0312	87.1196	82.0312	87.1504	82.0312	87.0234	82.0312	87.0658	82.0312	86.9467	82.0312	86.9975	82.0312	86.8897	82.0312	86.9443	82.0312	86.8509	82.0312	86.9037	82.0312	86.8274	82.0312	86.873	82.0312	86.8163	82.0312	86.8497	82.0312	86.8148	82.0312	86.8324	82.0312	86.8206
84.9609	88.1355	84.9609	88.1275	84.9609	88.1118	84.9609	88.0885	84.9609	88.0577	84.9609	88.0204	84.9609	87.976	84.9609	87.9267	84.9609	87.8708	84.9609	87.8123	84.9609	87.7482	84.9609	87.6833	84.9609	87.6151	84.9609	87.5466	84.9609	87.4789	84.9609	87.4097	84.9609	87.3473	84.9609	87.2798	84.9609	87.2269	84.9609	87.1631	84.9609	87.1225	84.9609	87.0641	84.9609	87.0371	84.9609	86.9852	84.9609	86.9709	84.9609	86.9262	84.9609	86.9223	84.9609	86.8852	84.9609	86.8884	84.9609	86.859	84.9609	86.8655	84.9609	86.8442	84.9609	86.8506	84.9609	86.8376	84.9609	86.8415	84.9609	86.8372
87.8906	88.1833	87.8906	88.1735	87.8906	88.1597	87.8906	88.1308	87.8906	88.1037	87.8906	88.0577	87.8906	88.0182	87.8906	87.9582	87.8906	87.9076	87.8906	87.8374	87.8906	87.778	87.8906	87.7023	87.8906	87.6369	87.8906	87.5603	87.8906	87.4923	87.8906	87.4194	87.8906	87.3525	87.8906	87.2873	87.8906	87.2248	87.8906	87.1706	87.8906	87.1152	87.8906	87.0738	87.8906	87.0271	87.8906	86.9989	87.8906	86.9612	87.8906	86.9452	87.8906	86.916	87.8906	86.9096	87.8906	86.8879	87.8906	86.888	87.8906	86.8727	87.8906	86.8758	87.8906	86.866	87.8906	86.8692	87.8906	86.8644	87.8906	86.8657
90.8203	88.3608	90.8203	88.3533	90.8203	88.3316	90.8203	88.3098	90.8203	88.2662	90.8203	88.2326	90.8203	88.167	90.8203	88.1254	90.8203	88.0382	90.8203	87.9932	90.8203	87.8854	90.8203	87.8424	90.8203	87.7163	90.8203	87.6805	90.8203	87.5398	90.8203	87.5155	90.8203	87.3652	90.8203	87.3558	90.8203	87.2017	90.8203	87.209	90.8203	87.0573	90.8203	87.0808	90.8203	86.9373	90.8203	86.9747	90.8203	86.8442	90.8203	86.891	90.8203	86.7773	90.8203	86.828	90.8203	86.7339	90.8203	86.782	90.8203	86.7095	90.8203	86.7491	90.8203	86.6998	90.8203	86.7257	90.8203	86.7008	90.8203	86.7098
95.2148	88.2192	95.2148	88.2112	95.2148	88.1916	95.2148	88.168	95.2148	88.1304	95.2148	88.0921	95.2148	88.0394	95.2148	87.9875	95.2148	87.9242	95.2148	87.8606	95.2148	87.7922	95.2148	87.7185	95.2148	87.6519	95.2148	87.5699	95.2148	87.5119	95.2148	87.4234	95.2148	87.3804	95.2148	87.2873	95.2148	87.264	95.2148	87.1686	95.2148	87.1671	95.2148	87.0723	95.2148	87.0916	95.2148	87.0006	95.2148	87.0366	95.2148	86.9531	95.2148	86.9994	95.2148	86.9267	95.2148	86.9757	95.2148	86.9167	95.2148	86.9609	95.2148	86.9177	95.2148	86.9509	95.2148	86.9246	95.2148	86.9423	95.2148	86.9335
98.1445	88.2431	98.1445	88.2386	98.1445	88.2098	98.1445	88.1966	98.1445	88.1402	98.1445	88.1195	98.1445	88.038	98.1445	88.0118	98.1445	87.9088	98.1445	87.8792	98.1445	87.7603	98.1445	87.7295	98.1445	87.6018	98.1445	87.5711	98.1445	87.4435	98.1445	87.4133	98.1445	87.2952	98.1445	87.2646	98.1445	87.1653	98.1445	87.1326	98.1445	87.0593	98.1445	87.0227	98.1445	86.9791	98.1445	86.9373	98.1445	86.9229	98.1445	86.8765	98.1445	86.8862	98.1445	86.8376	98.1445	86.863	98.1445	86.8168	98.1445	86.8479	98.1445	86.8094	98.1445	86.8365	98.1445	86.8109	98.1445	86.8265	98.1445	86.8175
101.074	88.2471	101.074	88.2438	101.074	88.2103	101.074	88.2011	101.074	88.1351	101.074	88.1214	101.074	88.0252	101.074	88.0092	101.074	87.8865	101.074	87.8712	101.074	87.7266	101.074	87.7155	101.074	87.5551	101.074	87.5517	101.074	87.3829	101.074	87.3901	101.074	87.2215	101.074	87.2411	101.074	87.0816	101.074	87.1136	101.074	86.972	101.074	87.0145	101.074	86.8979	101.074	86.9471	101.074	86.8595	101.074	86.9106	101.074	86.852	101.074	86.9004	101.074	86.8669	101.074	86.9082	101.074	86.8932	101.074	86.9245	101.074	86.9201	101.074	86.9395	101.074	86.9392	101.074	86.9457
105.469	88.0448	105.469	88.0216	105.469	88.0201	105.469	87.9521	105.469	87.9482	105.469	87.8399	105.469	87.8319	105.469	87.6911	105.469	87.6765	105.469	87.5139	105.469	87.4892	105.469	87.3185	105.469	87.2797	105.469	87.1164	105.469	87.0594	105.469	86.9195	105.469	86.8416	105.469	86.739	105.469	86.6395	105.469	86.5842	105.469	86.4657	105.469	86.461	105.469	86.3296	105.469	86.3711	105.469	86.236	105.469	86.3122	105.469	86.1838	105.469	86.2785	105.469	86.1665	105.469	86.262	105.469	86.1736	105.469	86.254	105.469	86.1935	105.469	86.2467	105.469	86.2162	105.469	86.2347
108.398	88.1288	108.398	88.0965	108.398	88.1156	108.398	88.0198	108.398	88.0578	108.398	87.9016	108.398	87.9579	108.398	87.7473	108.398	87.8204	108.398	87.564	108.398	87.6515	108.398	87.3614	108.398	87.4597	108.398	87.1511	108.398	87.2549	108.398	86.9458	108.398	87.049	108.398	86.7584	108.398	86.8544	108.398	86.5999	108.398	86.683	108.398	86.4781	108.398	86.5447	108.398	86.3959	108.398	86.4448	108.398	86.3508	108.398	86.3836	108.398	86.3355	108.398	86.3554	108.398	86.3399	108.398	86.3508	108.398	86.353	108.398	86.3583	108.398	86.3654	108.398	86.3675	108.398	86.3709
112.793	88.0665	112.793	88.0487	112.793	88.0362	112.793	87.9839	112.793	87.9591	112.793	87.8749	112.793	87.8385	112.793	87.7271	112.793	87.6801	112.793	87.5479	112.793	87.4918	112.793	87.3473	112.793	87.2836	112.793	87.137	112.793	87.0675	112.793	86.9304	112.793	86.8571	112.793	86.7412	112.793	86.6661	112.793	86.5815	112.793	86.5066	112.793	86.4602	112.793	86.3875	112.793	86.3806	112.793	86.3122	112.793	86.3402	112.793	86.2781	112.793	86.3304	112.793	86.2769	112.793	86.3396	112.793	86.2969	112.793	86.355	112.793	86.3251	112.793	86.3659	112.793	86.3505	112.793	86.365
117.188	88.0208	117.188	87.9999	117.188	87.9908	117.188	87.9296	117.188	87.9104	117.188	87.813	117.188	87.7821	117.188	87.6556	117.188	87.6099	117.188	87.4648	117.188	87.4004	117.188	87.2504	117.188	87.1624	117.188	87.024	117.188	86.9071	117.188	86.7986	117.188	86.6488	117.188	86.5875	117.188	86.4034	117.188	86.4025	117.188	86.1872	117.188	86.2524	117.188	86.0144	117.188	86.1411	117.188	85.8939	117.188	86.067	117.188	85.8272	117.188	86.0229	117.188	85.8076	117.188	85.9984	117.188	85.8229	117.188	85.9817	117.188	85.858	117.188	85.9629	117.188	85.899	117.188	85.9356
120.117	87.9859	120.117	87.9426	120.117	87.9742	120.117	87.8453	120.117	87.9082	120.117	87.6973	120.117	87.791	120.117	87.5043	120.117	87.627	120.117	87.2743	120.117	87.4227	120.117	87.0178	120.117	87.186	120.117	86.7476	120.117	86.9267	120.117	86.4781	120.117	86.6565	120.117	86.2243	120.117	86.3888	120.117	86	120.117	86.1381	120.117	85.8157	120.117	85.9181	120.117	85.6763	120.117	85.7396	120.117	85.5808	120.117	85.6081	120.117	85.5223	120.117	85.5225	120.117	85.4906	120.117	85.4757	120.117	85.4748	120.117	85.4568	120.117	85.466	120.117	85.4544	120.117	85.4591
124.512	88.3988	124.512	88.3628	124.512	88.3839	124.512	88.2767	124.512	88.3193	124.512	88.1435	124.512	88.2078	124.512	87.9681	124.512	88.0543	124.512	87.7577	124.512	87.8658	124.512	87.5221	124.512	87.6514	124.512	87.2736	124.512	87.4219	124.512	87.0266	124.512	87.1898	124.512	86.7964	124.512	86.9684	124.512	86.5976	124.512	86.7698	124.512	86.4413	124.512	86.6043	124.512	86.3329	124.512	86.4776	124.512	86.2706	124.512	86.3904	124.512	86.2464	124.512	86.3382	124.512	86.2482	124.512	86.3125	124.512	86.2629	124.512	86.3026	124.512	86.2797	124.512	86.2984	124.512	86.292
128.906	88.4871	128.906	88.4573	128.906	88.469	128.906	88.3796	128.906	88.4046	128.906	88.2561	128.906	88.297	128.906	88.0907	128.906	88.1515	128.906	87.8897	128.906	87.9749	128.906	87.6623	128.906	87.7763	128.906	87.4207	128.906	87.5669	128.906	87.1801	128.906	87.3599	128.906	86.958	128.906	87.1692	128.906	86.7715	128.906	87.008	128.906	86.6347	128.906	86.8858	128.906	86.5541	128.906	86.8057	128.906	86.5278	128.906	86.7642	128.906	86.5449	128.906	86.7514	128.906	86.5896	128.906	86.754	128.906	86.6449	128.906	86.7586	128.906	86.6962	128.906	86.7542	128.906	86.734
133.301	88.2896	133.301	88.2715	133.301	88.2575	133.301	88.2036	133.301	88.1767	133.301	88.0885	133.301	88.051	133.301	87.9306	133.301	87.8863	133.301	87.7363	133.301	87.6905	133.301	87.5142	133.301	87.4739	133.301	87.2753	133.301	87.249	133.301	87.0333	133.301	87.0303	133.301	86.8044	133.301	86.8335	133.301	86.6055	133.301	86.6732	133.301	86.452	133.301	86.5598	133.301	86.3539	133.301	86.4962	133.301	86.3125	133.301	86.4765	133.301	86.3202	133.301	86.4872	133.301	86.3617	133.301	86.5108	133.301	86.4188	133.301	86.5307	133.301	86.4744	133.301	86.5343	133.301	86.5154
139.16	88.1609	139.16	88.1518	139.16	88.1138	139.16	88.0877	139.16	88.0118	139.16	87.972	139.16	87.8583	139.16	87.8106	139.16	87.6595	139.16	87.6117	139.16	87.4235	139.16	87.3859	139.16	87.1616	139.16	87.1458	139.16	86.8874	139.16	86.906	139.16	86.6177	139.16	86.6818	139.16	86.3714	139.16	86.4882	139.16	86.1679	139.16	86.3371	139.16	86.0234	139.16	86.2352	139.16	85.9464	139.16	86.1816	139.16	85.9341	139.16	86.168	139.16	85.9721	139.16	86.18	139.16	86.0388	139.16	86.2005	139.16	86.1112	139.16	86.213	139.16	86.1703	139.16	86.205
143.555	88.1903	143.555	88.1688	143.555	88.1553	143.555	88.092	143.555	88.0651	143.555	87.9635	143.555	87.9231	143.555	87.7895	143.555	87.7353	143.555	87.5787	143.555	87.5096	143.555	87.3423	143.555	87.2568	143.555	87.0939	143.555	86.9895	143.555	86.8492	143.555	86.7232	143.555	86.6244	143.555	86.4748	143.555	86.4352	143.555	86.2623	143.555	86.2933	143.555	86.1014	143.555	86.2035	143.555	86.0019	143.555	86.1625	143.555	85.9645	143.555	86.1587	143.555	85.9794	143.555	86.1754	143.555	86.0287	143.555	86.195	143.555	86.0916	143.555	86.2023	143.555	86.149	143.555	86.1878
147.949	88.0639	147.949	88.0303	147.949	88.0395	147.949	87.9397	147.949	87.9586	147.949	87.7956	147.949	87.8255	147.949	87.6046	147.949	87.6467	147.949	87.3761	147.949	87.4313	147.949	87.1225	147.949	87.1906	147.949	86.8591	147.949	86.938	147.949	86.603	147.949	86.6891	147.949	86.3726	147.949	86.4603	147.949	86.1847	147.949	86.2673	147.949	86.0515	147.949	86.1229	147.949	85.9774	147.949	86.0336	147.949	85.9572	147.949	85.9973	147.949	85.9778	147.949	86.0034	147.949	86.0207	147.949	86.0355	147.949	86.0673	147.949	86.0749	147.949	86.1023	147.949	86.1053	147.949	86.1159
153.809	87.8398	153.809	87.8122	153.809	87.8038	153.809	87.7215	153.809	87.7064	153.809	87.5711	153.809	87.5524	153.809	87.3673	153.809	87.3494	153.809	87.1197	153.809	87.1075	153.809	86.8415	153.809	86.8397	153.809	86.5494	153.809	86.5619	153.809	86.2628	153.809	86.2919	153.809	86.0027	153.809	86.0484	153.809	85.7889	153.809	85.8491	153.809	85.6361	153.809	85.707	153.809	85.5506	153.809	85.627	153.809	85.5278	153.809	85.6039	153.809	85.5534	153.809	85.6235	153.809	85.6074	153.809	85.6658	153.809	85.6681	153.809	85.7102	153.809	85.7174	153.809	85.7394	153.809	85.7428
159.668	87.7909	159.668	87.7683	159.668	87.7487	159.668	87.6822	159.668	87.6435	159.668	87.5365	159.668	87.4798	159.668	87.3379	159.668	87.2657	159.668	87.0957	159.668	87.0123	159.668	86.8223	159.668	86.7341	159.668	86.5328	159.668	86.4485	159.668	86.2457	159.668	86.1756	159.668	85.9819	159.668	85.936	159.668	85.7624	159.668	85.7475	159.668	85.6037	159.668	85.6221	159.668	85.514	159.668	85.5615	159.668	85.4897	159.668	85.5571	159.668	85.5164	159.668	85.5914	159.668	85.5732	159.668	85.643	159.668	85.6378	159.668	85.6913	159.668	85.6915	159.668	85.7204	159.668	85.7209
165.527	87.6977	165.527	87.674	165.527	87.6525	165.527	87.5828	165.527	87.5403	165.527	87.4294	165.527	87.367	165.527	87.2227	165.527	87.1418	165.527	86.9754	165.527	86.8776	165.527	86.7033	165.527	86.5909	165.527	86.4251	165.527	86.3013	165.527	86.1616	165.527	86.0308	165.527	85.9337	165.527	85.8017	165.527	85.7596	165.527	85.6333	165.527	85.6512	165.527	85.5369	165.527	85.6102	165.527	85.5129	165.527	85.6268	165.527	85.5493	165.527	85.6825	165.527	85.6253	165.527	85.7549	165.527	85.7163	165.527	85.8226	165.527	85.7995	165.527	85.8685	165.527	85.8579	165.527	85.8818
171.387	87.6996	171.387	87.664	171.387	87.6608	171.387	87.5558	171.387	87.5487	171.387	87.3795	171.387	87.3671	171.387	87.1432	171.387	87.1227	171.387	86.8589	171.387	86.826	171.387	86.544	171.387	86.4918	171.387	86.2208	171.387	86.1411	171.387	85.9166	171.387	85.8005	171.387	85.6602	171.387	85.5006	171.387	85.4761	171.387	85.2713	171.387	85.3773	171.387	85.1337	171.387	85.3599	171.387	85.0928	171.387	85.4043	171.387	85.1353	171.387	85.4818	171.387	85.2346	171.387	85.5629	171.387	85.3589	171.387	85.6243	171.387	85.4797	171.387	85.6508	171.387	85.576	171.387	85.6349
177.246	87.4631	177.246	87.4296	177.246	87.4263	177.246	87.3262	177.246	87.3215	177.246	87.156	177.246	87.1539	177.246	86.9249	177.246	86.9307	177.246	86.6413	177.246	86.6617	177.246	86.3174	177.246	86.3593	177.246	85.9696	177.246	86.0395	177.246	85.6209	177.246	85.7222	177.246	85.3002	177.246	85.4316	177.246	85.0403	177.246	85.1928	177.246	84.8687	177.246	85.0266	177.246	84.7982	177.246	84.9427	177.246	84.8192	177.246	84.9356	177.246	84.9033	177.246	84.9854	177.246	85.0137	177.246	85.0643	177.246	85.1168	177.246	85.1436	177.246	85.1889	177.246	85.1998	177.246	85.2173
183.105	86.9828	183.105	86.9682	183.105	86.9228	183.105	86.8806	183.105	86.7901	183.105	86.7246	183.105	86.5905	183.105	86.5079	183.105	86.3344	183.105	86.241	183.105	86.0366	183.105	85.9378	183.105	85.7173	183.105	85.6168	183.105	85.4014	183.105	85.3015	183.105	85.1172	183.105	85.0207	183.105	84.8927	183.105	84.8046	183.105	84.7491	183.105	84.6772	183.105	84.6943	183.105	84.6473	183.105	84.7192	183.105	84.7024	183.105	84.8012	183.105	84.8133	183.105	84.9117	183.105	84.9436	183.105	85.0232	183.105	85.0613	183.105	85.1143	183.105	85.1442	183.105	85.17	183.105	85.1813
188.965	86.9673	188.965	86.9479	188.965	86.9076	188.965	86.8529	188.965	86.7695	188.965	86.6897	188.965	86.5576	188.965	86.4687	188.965	86.2804	188.965	86.2027	188.965	85.9502	188.965	85.906	188.965	85.5839	188.965	85.5943	188.965	85.2046	188.965	85.2858	188.965	84.8435	188.965	85.0028	188.965	84.5396	188.965	84.7722	188.965	84.3331	188.965	84.6208	188.965	84.2522	188.965	84.5661	188.965	84.2985	188.965	84.6063	188.965	84.4441	188.965	84.7178	188.965	84.6414	188.965	84.8626	188.965	84.8413	188.965	85.001	188.965	85.0048	188.965	85.1004	188.965	85.1078	188.965	85.1395
196.289	86.8737	196.289	86.7957	196.289	86.8452	196.289	86.6171	196.289	86.7107	196.289	86.3511	196.289	86.478	196.289	86.0193	196.289	86.1617	196.289	85.6515	196.289	85.7849	196.289	85.2849	196.289	85.3783	196.289	84.9592	196.289	84.9788	196.289	84.7097	196.289	84.6259	196.289	84.5594	196.289	84.3556	196.289	84.5153	196.289	84.194	196.289	84.568	196.289	84.1524	196.289	84.6957	196.289	84.2242	196.289	84.8685	196.289	84.3866	196.289	85.053	196.289	84.6059	196.289	85.2165	196.289	84.8441	196.289	85.3316	196.289	85.0652	196.289	85.3787	196.289	85.2401	196.289	85.3481
203.613	87.3384	203.613	87.2738	203.613	87.2925	203.613	87.0972	203.613	87.1395	203.613	86.8095	203.613	86.8841	203.613	86.4158	203.613	86.5323	203.613	85.9276	203.613	86.0932	203.613	85.3668	203.613	85.5815	203.613	84.7706	203.613	85.024	203.613	84.1959	203.613	84.4665	203.613	83.7165	203.613	83.9771	203.613	83.408	203.613	83.6367	203.613	83.3181	203.613	83.5073	203.613	83.4418	203.613	83.5959	203.613	83.7224	203.613	83.848	203.613	84.0781	203.613	84.1773	203.613	84.4309	203.613	84.5033	203.613	84.7216	203.613	84.7676	203.613	84.9127	203.613	84.9346	203.613	84.9853
210.938	87.3286	210.938	87.2564	210.938	87.2956	210.938	87.0777	210.938	87.1619	210.938	86.7942	210.938	86.935	210.938	86.4115	210.938	86.6256	210.938	85.9397	210.938	86.2463	210.938	85.3963	210.938	85.8122	210.938	84.8097	210.938	85.3408	210.938	84.2233	210.938	84.8544	210.938	83.6966	210.938	84.3833	210.938	83.2952	210.938	83.9686	210.938	83.0695	210.938	83.6567	210.938	83.0304	210.938	83.4838	210.938	83.1442	210.938	83.4568	210.938	83.3492	210.938	83.545	210.938	83.58	210.938	83.6932	210.938	83.7832	210.938	83.843	210.938	83.9224	210.938	83.9478	210.938	83.9784
218.262	87.2442	218.262	87.2205	218.262	87.1655	218.262	87.0929	218.262	86.9878	218.262	86.8615	218.262	86.7167	218.262	86.5286	218.262	86.361	218.262	86.0998	218.262	85.9345	218.262	85.5866	218.262	85.4578	218.262	85.0102	218.262	84.961	218.262	84.4066	218.262	84.4849	218.262	83.8315	218.262	84.0771	218.262	83.3569	218.262	83.7816	218.262	83.0526	218.262	83.6226	218.262	82.9546	218.262	83.5942	218.262	83.0427	218.262	83.6635	218.262	83.2519	218.262	83.7838	218.262	83.5048	218.262	83.9101	218.262	83.7394	218.262	84.0069	218.262	83.9174	218.262	84.0492	218.262	84.0217
225.586	87.388	225.586	87.3778	225.586	87.2781	225.586	87.2486	225.586	87.0496	225.586	87.0042	225.586	86.7072	225.586	86.6512	225.586	86.2597	225.586	86.2	225.586	85.7214	225.586	85.6671	225.586	85.116	225.586	85.0786	225.586	84.4816	225.586	84.4759	225.586	83.8775	225.586	83.9188	225.586	83.3845	225.586	83.4803	225.586	83.0863	225.586	83.2251	225.586	83.0294	225.586	83.1796	225.586	83.1898	225.586	83.3155	225.586	83.4843	225.586	83.5654	225.586	83.8157	225.586	83.8534	225.586	84.1082	225.586	84.1171	225.586	84.3173	225.586	84.3146	225.586	84.4232	225.586	84.4208
232.91	87.9781	232.91	87.9351	232.91	87.9048	232.91	87.7775	232.91	87.714	232.91	87.5077	232.91	87.4051	232.91	87.1294	232.91	86.9779	232.91	86.6485	232.91	86.434	232.91	86.0758	232.91	85.7792	232.91	85.4313	232.91	85.0294	232.91	84.7527	232.91	84.2228	232.91	84.1033	232.91	83.4357	232.91	83.5716	232.91	82.7919	232.91	83.2473	232.91	82.4312	232.91	83.175	232.91	82.4245	232.91	83.3221	232.91	82.7117	232.91	83.5972	232.91	83.1474	232.91	83.8986	232.91	83.5929	232.91	84.1478	232.91	83.9604	232.91	84.2965	232.91	84.2076	232.91	84.3198
241.699	87.4197	241.699	87.3652	241.699	87.3798	241.699	87.2165	241.699	87.2474	241.699	86.9757	241.699	87.0256	241.699	86.6462	241.699	86.7178	241.699	86.2318	241.699	86.3261	241.699	85.7381	241.699	85.8509	241.699	85.1755	241.699	85.2943	241.699	84.5673	241.699	84.6688	241.699	83.9605	241.699	84.0117	241.699	83.434	241.699	83.4017	241.699	83.0878	241.699	82.9583	241.699	82.999	241.699	82.7949	241.699	83.1677	241.699	82.9386	241.699	83.5089	241.699	83.3017	241.699	83.9022	241.699	83.7419	241.699	84.2427	241.699	84.1365	241.699	84.4609	241.699	84.4085	241.699	84.5201
250.488	87.5978	250.488	87.5565	250.488	87.5202	250.488	87.3962	250.488	87.3268	250.488	87.1204	250.488	87.0242	250.488	86.7353	250.488	86.6228	250.488	86.2506	250.488	86.1363	250.488	85.6813	250.488	85.5818	250.488	85.0505	250.488	84.9797	250.488	84.3955	250.488	84.357	250.488	83.7726	250.488	83.7534	250.488	83.2545	250.488	83.2287	250.488	82.9126	250.488	82.8611	250.488	82.7865	250.488	82.7185	250.488	82.8637	250.488	82.8127	250.488	83.0857	250.488	83.0788	250.488	83.3734	250.488	83.4085	250.488	83.65	250.488	83.7008	250.488	83.8532	250.488	83.8884	250.488	83.9398
259.277	87.8144	259.277	87.7758	259.277	87.7408	259.277	87.6243	259.277	87.5576	259.277	87.3607	259.277	87.2694	259.277	86.9869	259.277	86.8829	259.277	86.5056	259.277	86.407	259.277	85.9206	259.277	85.8539	259.277	85.241	259.277	85.2407	259.277	84.4912	259.277	84.593	259.277	83.7281	259.277	83.9517	259.277	83.054	259.277	83.3781	259.277	82.5977	259.277	82.9517	259.277	82.4427	259.277	82.7452	259.277	82.5592	259.277	82.7785	259.277	82.8308	259.277	82.992	259.277	83.1387	259.277	83.2752	259.277	83.4077	259.277	83.5228	259.277	83.6001	259.277	83.6694	259.277	83.6932
268.066	87.3486	268.066	87.2975	268.066	87.2806	268.066	87.1303	268.066	87.0945	268.066	86.8541	268.066	86.7939	268.066	86.4804	268.066	86.3836	268.066	86.0243	268.066	85.8686	268.066	85.5031	268.066	85.256	268.066	84.9351	268.066	84.5629	268.066	84.3417	268.066	83.8297	268.066	83.7568	268.066	83.1336	268.066	83.2406	268.066	82.5853	268.066	82.8804	268.066	82.2908	268.066	82.7528	268.066	82.2881	268.066	82.8615	268.066	82.5205	268.066	83.1224	268.066	82.8755	268.066	83.4189	268.066	83.2432	268.066	83.6619	268.066	83.5478	268.066	83.8063	268.066	83.7502	268.066	83.8369
276.855	87.0947	276.855	87.0382	276.855	87.0588	276.855	86.8833	276.855	86.9332	276.855	86.6215	276.855	86.7176	276.855	86.2432	276.855	86.4093	276.855	85.7432	276.855	86.0024	276.855	85.1277	276.855	85.4904	276.855	84.4231	276.855	84.8723	276.855	83.6836	276.855	84.1669	276.855	82.9967	276.855	83.4318	276.855	82.48	276.855	82.7775	276.855	82.2542	276.855	82.3494	276.855	82.3822	276.855	82.2551	276.855	82.8121	276.855	82.4876	276.855	83.394	276.855	82.9367	276.855	83.9593	276.855	83.4669	276.855	84.382	276.855	83.9675	276.855	84.5952	276.855	84.3587	276.855	84.5815
287.109	86.7222	287.109	86.6787	287.109	86.6276	287.109	86.4991	287.109	86.4016	287.109	86.1908	287.109	86.0606	287.109	85.7638	287.109	85.6287	287.109	85.228	287.109	85.1317	287.109	84.5939	287.109	84.5882	287.109	83.8787	287.109	84.0049	287.109	83.1188	287.109	83.3851	287.109	82.3891	287.109	82.7526	287.109	81.8099	287.109	82.1846	287.109	81.5152	287.109	81.8194	287.109	81.5739	287.109	81.7872	287.109	81.9327	287.109	82.0915	287.109	82.4525	287.109	82.5912	287.109	82.9882	287.109	83.1101	287.109	83.4345	287.109	83.526	287.109	83.7309	287.109	83.7795	287.109	83.8489
297.363	87.3326	297.363	87.302	297.363	87.1947	297.363	87.1152	297.363	86.8813	297.363	86.7883	297.363	86.3924	297.363	86.3373	297.363	85.7349	297.363	85.7726	297.363	84.9256	297.363	85.0953	297.363	83.9938	297.363	84.3033	297.363	82.9899	297.363	83.411	297.363	82.0015	297.363	82.4885	297.363	81.1786	297.363	81.706	297.363	80.7273	297.363	81.3122	297.363	80.8002	297.363	81.4557	297.363	81.3458	297.363	82.0213	297.363	82.1391	297.363	82.7479	297.363	82.9508	297.363	83.4298	297.363	83.6369	297.363	83.9647	297.363	84.1292	297.363	84.3144	297.363	84.4053	297.363	84.4644
307.617	88.0065	307.617	87.8646	307.617	87.9958	307.617	87.5666	307.617	87.8343	307.617	87.1096	307.617	87.5214	307.617	86.4934	307.617	87.0524	307.617	85.7231	307.617	86.4176	307.617	84.8116	307.617	85.6013	307.617	83.7817	307.617	84.5825	307.617	82.6703	307.617	83.342	307.617	81.5417	307.617	81.8872	307.617	80.524	307.617	80.3233	307.617	79.8488	307.617	78.9937	307.617	79.7727	307.617	78.4877	307.617	80.3194	307.617	79.0447	307.617	81.2037	307.617	80.1801	307.617	82.0892	307.617	81.3445	307.617	82.7666	307.617	82.2784	307.617	83.1436	307.617	82.9002	307.617	83.1899
319.336	87.3582	319.336	87.3029	319.336	87.2541	319.336	87.0863	319.336	86.9951	319.336	86.7086	319.336	86.5896	319.336	86.1685	319.336	86.0496	319.336	85.46	319.336	85.3887	319.336	84.5677	319.336	84.6171	319.336	83.4695	319.336	83.7348	319.336	82.1504	319.336	82.7312	319.336	80.6458	319.336	81.6024	319.336	79.1292	319.336	80.4055	319.336	78.004	319.336	79.343	319.336	77.714	319.336	78.7696	319.336	78.2287	319.336	78.9019	319.336	79.103	319.336	79.5282	319.336	79.9714	319.336	80.2621	319.336	80.6639	319.336	80.8556	319.336	81.1144	319.336	81.2105	319.336	81.2987
329.59	86.9921	329.59	86.9234	329.59	86.9421	329.59	86.7455	329.59	86.7603	329.59	86.46	329.59	86.4347	329.59	86.0595	329.59	85.9578	329.59	85.5282	329.59	85.3263	329.59	84.8418	329.59	84.5374	329.59	83.9686	329.59	83.5825	329.59	82.8714	329.59	82.4451	329.59	81.5214	329.59	81.1144	329.59	79.9467	329.59	79.6408	329.59	78.363	329.59	78.2663	329.59	77.3394	329.59	77.5189	329.59	77.4368	329.59	77.7798	329.59	78.3683	329.59	78.6985	329.59	79.4398	329.59	79.6864	329.59	80.2802	329.59	80.4382	329.59	80.7966	329.59	80.8735	329.59	80.9912
341.309	86.9029	341.309	86.8367	341.309	86.82	341.309	86.6206	341.309	86.5944	341.309	86.2632	341.309	86.2345	341.309	85.7832	341.309	85.7489	341.309	85.2023	341.309	85.1468	341.309	84.531	341.309	84.4379	341.309	83.7524	341.309	83.6326	341.309	82.8208	341.309	82.7416	341.309	81.6828	341.309	81.7781	341.309	80.3347	341.309	80.7715	341.309	78.9357	341.309	79.8034	341.309	77.9349	341.309	79.0555	341.309	77.8333	341.309	78.7777	341.309	78.527	341.309	79.0694	341.309	79.4678	341.309	79.7189	341.309	80.2751	341.309	80.3915	341.309	80.801	341.309	80.8525	341.309	80.9976
353.027	87.3512	353.027	87.2951	353.027	87.2764	353.027	87.1025	353.027	87.0702	353.027	86.7642	353.027	86.7264	353.027	86.2743	353.027	86.2339	353.027	85.6375	353.027	85.5754	353.027	84.8704	353.027	84.7264	353.027	83.9891	353.027	83.6553	353.027	82.9876	353.027	82.3251	353.027	81.8258	353.027	80.7059	353.027	80.4513	353.027	78.8272	353.027	78.8792	353.027	76.9538	353.027	77.3577	353.027	75.848	353.027	76.4953	353.027	76.1773	353.027	76.7368	353.027	77.3647	353.027	77.6704	353.027	78.5435	353.027	78.6567	353.027	79.3636	353.027	79.3852	353.027	79.7646	353.027	79.7639
366.211	87.2458	366.211	87.0866	366.211	87.2593	366.211	86.802	366.211	87.1243	366.211	86.4221	366.211	86.8507	366.211	85.9678	366.211	86.4529	366.211	85.4354	366.211	85.9401	366.211	84.7998	366.211	85.3094	366.211	84.0412	366.211	84.5413	366.211	83.174	366.211	83.6019	366.211	82.2534	366.211	82.4556	366.211	81.3469	366.211	81.0931	366.211	80.5073	366.211	79.5845	366.211	79.8009	366.211	78.1662	366.211	79.3612	366.211	77.2776	366.211	79.3158	366.211	77.2656	366.211	79.6007	366.211	77.9472	366.211	79.9633	366.211	78.8388	366.211	80.157	366.211	79.5909	366.211	80.0452
379.395	87.58	379.395	87.549	379.395	87.477	379.395	87.3684	379.395	87.2553	379.395	87.0215	379.395	86.9317	379.395	86.4918	379.395	86.5195	379.395	85.7659	379.395	86.0196	379.395	84.8338	379.395	85.4124	379.395	83.6813	379.395	84.6598	379.395	82.281	379.395	83.7202	379.395	80.6061	379.395	82.5715	379.395	78.7162	379.395	81.2457	379.395	76.9996	379.395	79.888	379.395	76.3363	379.395	78.8195	379.395	77.0842	379.395	78.4299	379.395	78.4146	379.395	78.7841	379.395	79.6102	379.395	79.5257	379.395	80.4487	379.395	80.2663	379.395	80.9104	379.395	80.7921	379.395	81.0175
392.578	87.3183	392.578	87.2844	392.578	87.2486	392.578	87.1566	392.578	87.0631	392.578	86.9382	392.578	86.7565	392.578	86.6252	392.578	86.3397	392.578	86.2064	392.578	85.8373	392.578	85.6619	392.578	85.2708	392.578	84.9597	392.578	84.6319	392.578	84.0519	392.578	83.8685	392.578	82.8717	392.578	82.8976	392.578	81.3414	392.578	81.6442	392.578	79.4287	392.578	80.1164	392.578	77.3734	392.578	78.5683	392.578	76.1434	392.578	77.6607	392.578	76.6801	392.578	77.9134	392.578	78.1317	392.578	78.8732	392.578	79.4362	392.578	79.8257	392.578	80.2666	392.578	80.4322	392.578	80.5909
405.762	86.7293	405.762	86.6733	405.762	86.6382	405.762	86.4787	405.762	86.3974	405.762	86.1608	405.762	86.0096	405.762	85.7409	405.762	85.4826	405.762	85.2434	405.762	84.8336	405.762	84.6846	405.762	84.0938	405.762	84.0568	405.762	83.3067	405.762	83.3152	405.762	82.5145	405.762	82.3828	405.762	81.7389	405.762	81.1832	405.762	80.9821	405.762	79.7123	405.762	80.2675	405.762	78.1962	405.762	79.6962	405.762	77.2793	405.762	79.4394	405.762	77.5623	405.762	79.597	405.762	78.6542	405.762	80.0579	405.762	79.7884	405.762	80.575	405.762	80.5853	405.762	80.9234	405.762	80.9551
420.41	87.4821	420.41	87.3354	420.41	87.475	420.41	87.0524	420.41	87.3127	420.41	86.6629	420.41	87.0058	420.41	86.1987	420.41	86.5691	420.41	85.6751	420.41	86.0108	420.41	85.0759	420.41	85.32	420.41	84.3529	420.41	84.4556	420.41	83.446	420.41	83.3379	420.41	82.3137	420.41	81.8489	420.41	80.9665	420.41	79.8584	420.41	79.5112	420.41	77.3893	420.41	78.2312	420.41	75.3224	420.41	77.6163	420.41	75.5863	420.41	77.9832	420.41	77.4886	420.41	78.9987	420.41	79.2517	420.41	80.0737	420.41	80.4359	420.41	80.8495	420.41	81.0641	420.41	81.1924
435.059	87.0665	435.059	86.9821	435.059	87.0117	435.059	86.76	435.059	86.8304	435.059	86.4134	435.059	86.5433	435.059	85.9583	435.059	86.1683	435.059	85.4042	435.059	85.7127	435.059	84.7504	435.059	85.1721	435.059	83.9803	435.059	84.5325	435.059	83.0545	435.059	83.7677	435.059	81.9079	435.059	82.834	435.059	80.4685	435.059	81.6672	435.059	78.7282	435.059	80.2015	435.059	76.9396	435.059	78.4523	435.059	75.8726	435.059	76.7729	435.059	76.2128	435.059	76.1272	435.059	77.429	435.059	76.9832	435.059	78.66	435.059	78.3504	435.059	79.4872	435.059	79.3606	435.059	79.7451
451.172	87.6032	451.172	87.4993	451.172	87.551	451.172	87.2489	451.172	87.3344	451.172	86.8656	451.172	86.9555	451.172	86.376	451.172	86.4395	451.172	85.8153	451.172	85.8293	451.172	85.2034	451.172	85.1553	451.172	84.5141	451.172	84.4013	451.172	83.6649	451.172	83.497	451.172	82.5364	451.172	82.3491	451.172	81.0169	451.172	80.8896	451.172	79.1079	451.172	79.1627	451.172	77.2709	451.172	77.5369	451.172	76.7967	451.172	76.8723	451.172	78.0644	451.172	77.6153	451.172	79.7213	451.172	79.0188	451.172	80.9498	451.172	80.3251	451.172	81.5942	451.172	81.2404	451.172	81.6772
465.82	87.7567	465.82	87.637	465.82	87.6807	465.82	87.3203	465.82	87.4318	465.82	86.8333	465.82	87.0458	465.82	86.2306	465.82	86.5643	465.82	85.583	465.82	86.0274	465.82	84.9553	465.82	85.4602	465.82	84.3765	465.82	84.8548	465.82	83.8113	465.82	84.1581	465.82	83.1512	465.82	83.2756	465.82	82.227	465.82	82.0934	465.82	80.8333	465.82	80.522	465.82	78.7876	465.82	78.6283	465.82	76.2467	465.82	77.013	465.82	74.8074	465.82	76.8367	465.82	76.0706	465.82	77.9852	465.82	78.0421	465.82	79.2266	465.82	79.4054	465.82	79.9514	465.82	80.0247
483.398	87.3334	483.398	87.2899	483.398	87.2138	483.398	87.0985	483.398	86.9292	483.398	86.78	483.398	86.4957	483.398	86.3536	483.398	85.9488	483.398	85.8307	483.398	85.3362	483.398	85.2059	483.398	84.6944	483.398	84.446	483.398	84.0173	483.398	83.4804	483.398	83.2415	483.398	82.2056	483.398	82.27	483.398	80.511	483.398	81.0278	483.398	78.3647	483.398	79.5521	483.398	76.1478	483.398	78.1454	483.398	75.2548	483.398	77.4212	483.398	76.4301	483.398	77.7089	483.398	78.1719	483.398	78.5683	483.398	79.485	483.398	79.4513	483.398	80.1996	483.398	80.0918	483.398	80.3715
499.512	87.4169	499.512	87.3059	499.512	87.3363	499.512	87.0063	499.512	87.0613	499.512	86.5219	499.512	86.5992	499.512	85.8707	499.512	85.9823	499.512	85.1037	499.512	85.271	499.512	84.3151	499.512	84.5372	499.512	83.6145	499.512	83.8267	499.512	83.0426	499.512	83.12	499.512	82.4972	499.512	82.3164	499.512	81.7574	499.512	81.248	499.512	80.5691	499.512	79.7378	499.512	78.7398	499.512	77.8067	499.512	76.4578	499.512	76.2989	499.512	75.2523	499.512	76.7013	499.512	76.5264	499.512	78.3249	499.512	78.4776	499.512	79.7225	499.512	79.8623	499.512	80.4656	499.512	80.5155
517.09	88.4607	517.09	88.3124	517.09	88.3858	517.09	87.9558	517.09	88.0937	517.09	87.4326	517.09	87.6066	517.09	86.8019	517.09	86.966	517.09	86.1152	517.09	86.2369	517.09	85.3917	517.09	85.4931	517.09	84.6162	517.09	84.7698	517.09	83.7539	517.09	84.0112	517.09	82.7506	517.09	83.0711	517.09	81.512	517.09	81.7747	517.09	79.9155	517.09	80.0001	517.09	78.0032	517.09	77.8352	517.09	76.5984	517.09	76.0986	517.09	77.1333	517.09	76.3871	517.09	78.9326	517.09	78.2573	517.09	80.5411	517.09	80.0833	517.09	81.4952	517.09	81.272	517.09	81.7399
536.133	87.7469	536.133	87.6369	536.133	87.5867	536.133	87.2707	536.133	87.174	536.133	86.6833	536.133	86.5588	536.133	85.9313	536.133	85.8052	536.133	85.1085	536.133	84.9767	536.133	84.3396	536.133	84.1413	536.133	83.6938	536.133	83.3709	536.133	83.0853	536.133	82.6801	536.133	82.3109	536.133	81.954	536.133	81.1939	536.133	80.9863	536.133	79.675	536.133	79.6143	536.133	77.8429	536.133	77.8851	536.133	76.1104	536.133	76.3353	536.133	75.6573	536.133	76.0405	536.133	77.0982	536.133	77.2041	536.133	78.9667	536.133	78.7731	536.133	80.1714	536.133	79.9716	536.133	80.4869
555.176	87.3632	555.176	87.3202	555.176	87.2828	555.176	87.1217	555.176	87.0819	555.176	86.7337	555.176	86.7328	555.176	86.1457	555.176	86.2009	555.176	85.3774	555.176	85.4765	555.176	84.4732	555.176	84.5919	555.176	83.5009	555.176	83.6089	555.176	82.5361	555.176	82.5635	555.176	81.5788	555.176	81.3958	555.176	80.4343	555.176	79.9227	555.176	78.686	555.176	77.895	555.176	75.7625	555.176	75.2829	555.176	71.6383	555.176	73.704	555.176	71.9714	555.176	75.6643	555.176	76.212	555.176	78.5513	555.176	79.2056	555.176	80.5892	555.176	80.9667	555.176	81.6337	555.176	81.7511
574.219	86.9651	574.219	86.8791	574.219	86.8711	574.219	86.6381	574.219	86.5792	574.219	86.2516	574.219	86.1166	574.219	85.7282	574.219	85.5638	574.219	85.1014	574.219	85.0117	574.219	84.4206	574.219	84.4973	574.219	83.7118	574.219	83.9895	574.219	82.9582	574.219	83.4342	574.219	82.1078	574.219	82.7664	574.219	81.0579	574.219	81.8307	574.219	79.631	574.219	80.2917	574.219	77.6558	574.219	77.6049	574.219	75.4209	574.219	73.2866	574.219	74.687	574.219	71.5725	574.219	76.3847	574.219	75.58	574.219	78.4589	574.219	78.4588	574.219	79.8284	574.219	79.9085	574.219	80.3207
594.727	88.1296	594.727	87.9979	594.727	87.9884	594.727	87.6114	594.727	87.5796	594.727	87.0117	594.727	86.938	594.727	86.2651	594.727	86.1471	594.727	85.4706	594.727	85.3468	594.727	84.7674	594.727	84.6642	594.727	84.2627	594.727	84.1059	594.727	83.8775	594.727	83.5739	594.727	83.3552	594.727	82.9553	594.727	82.4589	594.727	82.1002	594.727	81.0541	594.727	80.7586	594.727	78.9744	594.727	78.6581	594.727	75.8799	594.727	75.9507	594.727	72.4937	594.727	74.7924	594.727	74.2095	594.727	76.9118	594.727	77.9547	594.727	79.4047	594.727	80.2645	594.727	80.887	594.727	81.1864
615.234	88.4492	615.234	88.3496	615.234	88.3223	615.234	88.0324	615.234	87.959	615.234	87.5068	615.234	87.3515	615.234	86.7852	615.234	86.5149	615.234	85.8957	615.234	85.5174	615.234	84.8875	615.234	84.4803	615.234	83.8272	615.234	83.5191	615.234	82.8117	615.234	82.69	615.234	81.9196	615.234	81.9804	615.234	81.0319	615.234	81.2406	615.234	79.7586	615.234	80.0942	615.234	77.5627	615.234	77.9923	615.234	73.7656	615.234	74.2829	615.234	70.0231	615.234	69.6244	615.234	74.2352	615.234	72.0556	615.234	78.1665	615.234	76.3117	615.234	79.9673	615.234	78.9181	615.234	80.1323
637.207	88.3239	637.207	88.1104	637.207	88.1928	637.207	87.6182	637.207	87.7354	637.207	86.9497	637.207	87.0246	637.207	86.1805	637.207	86.1253	637.207	85.3707	637.207	85.1168	637.207	84.6425	637.207	84.1927	637.207	84.1562	637.207	83.5955	637.207	83.9085	637.207	83.3501	637.207	83.6462	637.207	83.2207	637.207	83.0604	637.207	82.8517	637.207	81.9319	637.207	81.8079	637.207	80.0635	637.207	79.6297	637.207	77.192	637.207	76.119	637.207	74.171	637.207	73.197	637.207	75.5421	637.207	74.8664	637.207	78.5906	637.207	77.7168	637.207	80.2506	637.207	79.6655	637.207	80.5376
659.18	87.7601	659.18	87.6862	659.18	87.532	659.18	87.251	659.18	87.036	659.18	86.4794	659.18	86.2554	659.18	85.4715	659.18	85.2212	659.18	84.2556	659.18	84.053	659.18	82.8089	659.18	82.88	659.18	81.3495	659.18	81.839	659.18	80.3949	659.18	81.1233	659.18	80.1909	659.18	80.7204	659.18	80.3895	659.18	80.2638	659.18	80.3438	659.18	79.3776	659.18	79.361	659.18	77.7605	659.18	76.8911	659.18	75.0504	659.18	73.0892	659.18	72.4307	659.18	72.1414	659.18	75.1207	659.18	75.659	659.18	78.7393	659.18	78.7207	659.18	80.4629	659.18	80.3788
682.617	87.707	682.617	87.5719	682.617	87.4819	682.617	87.1329	682.617	86.8732	682.617	86.3931	682.617	85.9348	682.617	85.3408	682.617	84.76	682.617	84.0897	682.617	83.5088	682.617	82.8894	682.617	82.4475	682.617	81.9012	682.617	81.7037	682.617	81.081	682.617	81.1298	682.617	80.3688	682.617	80.65	682.617	79.8279	682.617	80.2256	682.617	79.3432	682.617	79.4471	682.617	78.2186	682.617	77.6208	682.617	75.4519	682.617	73.9745	682.617	70.5551	682.617	68.8267	682.617	71.8	682.617	71.1535	682.617	76.6239	682.617	75.6309	682.617	79.0482	682.617	78.3401	682.617	79.5119
707.52	88.0649	707.52	87.8622	707.52	87.8937	707.52	87.2634	707.52	87.3738	707.52	86.2942	707.52	86.5246	707.52	85.0934	707.52	85.3748	707.52	83.8634	707.52	83.9775	707.52	82.6665	707.52	82.4603	707.52	81.5522	707.52	81.1787	707.52	80.9649	707.52	80.5798	707.52	80.9161	707.52	80.53	707.52	80.4517	707.52	80.4548	707.52	79.0034	707.52	79.901	707.52	76.6159	707.52	78.5148	707.52	73.2307	707.52	76.0392	707.52	69.1693	707.52	72.9776	707.52	71.1887	707.52	72.9211	707.52	75.4996	707.52	75.9575	707.52	77.9391	707.52	78.1397	707.52	78.7787
732.422	87.3191	732.422	87.0628	732.422	87.181	732.422	86.434	732.422	86.6749	732.422	85.531	732.422	85.8655	732.422	84.4433	732.422	84.8308	732.422	83.1365	732.422	83.6045	732.422	81.5923	732.422	82.2176	732.422	79.9619	732.422	80.8749	732.422	78.4956	732.422	79.9254	732.422	77.6945	732.422	79.3525	732.422	77.8994	732.422	78.7827	732.422	78.2245	732.422	77.917	732.422	77.5024	732.422	76.2541	732.422	74.7977	732.422	72.7693	732.422	68.1089	732.422	63.9122	732.422	63.3637	732.422	64.5793	732.422	73.0452	732.422	74.0058	732.422	77.054	732.422	77.5757	732.422	78.4226
757.324	86.9668	757.324	86.693	757.324	86.8756	757.324	86.0756	757.324	86.3502	757.324	85.081	757.324	85.3408	757.324	83.7431	757.324	83.9305	757.324	82.2203	757.324	82.3931	757.324	80.5407	757.324	80.9594	757.324	78.6013	757.324	79.6606	757.324	76.9679	757.324	78.7158	757.324	76.3074	757.324	78.6784	757.324	76.152	757.324	79.3596	757.324	76.5989	757.324	79.6541	757.324	76.8954	757.324	79.0422	757.324	75.3142	757.324	77.5339	757.324	72.2155	757.324	74.84	757.324	72.5946	757.324	72.8964	757.324	74.7751	757.324	74.6541	757.324	76.2756	757.324	76.2827	757.324	76.815
785.156	87.4024	785.156	87.2232	785.156	87.3568	785.156	86.8712	785.156	86.9187	785.156	86.2518	785.156	86.0075	785.156	85.2138	785.156	84.753	785.156	83.6627	785.156	83.2051	785.156	81.7188	785.156	81.0184	785.156	79.6663	785.156	78.1428	785.156	77.7049	785.156	75.5939	785.156	76.1778	785.156	74.2307	785.156	75.2278	785.156	74.2779	785.156	74.366	785.156	75.1472	785.156	73.3443	785.156	75.096	785.156	71.0954	785.156	73.8279	785.156	64.2216	785.156	72.6086	785.156	64.6227	785.156	74.1193	785.156	74.0682	785.156	77.0407	785.156	78.0959	785.156	78.9732	785.156	79.4541
811.523	87.9942	811.523	87.6773	811.523	87.9096	811.523	87.13	811.523	87.3035	811.523	86.4269	811.523	86.1601	811.523	85.5161	811.523	84.5238	811.523	84.3169	811.523	82.5542	811.523	82.8602	811.523	80.4129	811.523	81.3349	811.523	77.9481	811.523	79.7136	811.523	75.6134	811.523	78.0917	811.523	74.6488	811.523	77.834	811.523	74.1984	811.523	78.451	811.523	73.7809	811.523	77.9254	811.523	72.9501	811.523	75.3437	811.523	69.5887	811.523	69.5257	811.523	62.2537	811.523	58.5821	811.523	69.0081	811.523	66.9075	811.523	73.1628	811.523	71.2867	811.523	74.2996	811.523	73.5252
840.82	85.823	840.82	86.0721	840.82	84.5655	840.82	85.7167	840.82	82.1885	840.82	84.9619	840.82	79.0986	840.82	83.4647	840.82	76.0674	840.82	81.0257	840.82	73.493	840.82	78.8542	840.82	72.0438	840.82	78.3057	840.82	72.9178	840.82	78.0436	840.82	73.9844	840.82	77.3315	840.82	72.1102	840.82	77.0621	840.82	69.6478	840.82	77.3233	840.82	74.5662	840.82	76.9876	840.82	75.533	840.82	76.3335	840.82	72.1365	840.82	75.8918	840.82	63.2022	840.82	76.5124	840.82	62.3572	840.82	78.781	840.82	73.7418	840.82	80.3376	840.82	78.3144	840.82	80.2065
870.117	82.2768	870.117	83.1071	870.117	80.4359	870.117	83.0963	870.117	78.3737	870.117	82.7316	870.117	77.3318	870.117	81.9754	870.117	77.763	870.117	80.5755	870.117	79.1452	870.117	78.6048	870.117	80.6079	870.117	76.2087	870.117	81.3656	870.117	73.9184	870.117	81.2654	870.117	72.5577	870.117	81.122	870.117	73.0121	870.117	81.4084	870.117	75.3932	870.117	81.7703	870.117	76.7424	870.117	81.757	870.117	76.0161	870.117	80.9325	870.117	73.9681	870.117	79.1413	870.117	70.406	870.117	76.3905	870.117	62.9775	870.117	73.037	870.117	59.0921	870.117	69.7178	870.117	65.8497
900.879	90.013	900.879	89.2953	900.879	90.2088	900.879	88.322	900.879	89.8184	900.879	87.3008	900.879	88.8572	900.879	86.087	900.879	87.3504	900.879	84.5088	900.879	85.2967	900.879	82.6213	900.879	82.5903	900.879	80.4228	900.879	79.712	900.879	77.941	900.879	78.7905	900.879	75.9335	900.879	80.8825	900.879	74.8521	900.879	83.9106	900.879	74.9631	900.879	86.35	900.879	78.2724	900.879	87.3372	900.879	81.1453	900.879	87.2184	900.879	82.108	900.879	87.0116	900.879	81.8401	900.879	86.7254	900.879	81.0154	900.879	86.1506	900.879	80.8767	900.879	85.0254	900.879	82.8405
933.105	88.9764	933.105	88.9337	933.105	88.6552	933.105	88.6439	933.105	87.8906	933.105	88.1015	933.105	86.6676	933.105	87.0592	933.105	85.118	933.105	85.3597	933.105	83.5429	933.105	83.0175	933.105	82.2205	933.105	80.0526	933.105	81.3063	933.105	77.1229	933.105	80.6196	933.105	75.8706	933.105	79.0102	933.105	76.7537	933.105	75.7511	933.105	79.2767	933.105	73.3789	933.105	80.8277	933.105	72.6682	933.105	80.2865	933.105	72.3388	933.105	77.9669	933.105	71.396	933.105	73.7159	933.105	72.5331	933.105	70.6778	933.105	75.6985	933.105	74.6252	933.105	77.4173	933.105	77.1083
965.332	91.8301	965.332	92.1964	965.332	90.6752	965.332	92.1768	965.332	88.9291	965.332	91.942	965.332	87.3533	965.332	91.139	965.332	86.3065	965.332	89.7118	965.332	85.3578	965.332	87.9456	965.332	84.3602	965.332	86.0464	965.332	83.3568	965.332	84.0271	965.332	81.9712	965.332	81.7124	965.332	79.8303	965.332	80.1291	965.332	78.137	965.332	79.4004	965.332	79.4894	965.332	79.7541	965.332	80.751	965.332	80.5849	965.332	81.0536	965.332	80.009	965.332	80.4782	965.332	78.4002	965.332	78.164	965.332	75.1897	965.332	75.8363	965.332	72.2259	965.332	75.2804	965.332	73.9137
1,000.49	86.9946	1,000.49	86.3957	1,000.49	86.6991	1,000.49	85.5023	1,000.49	85.5135	1,000.49	84.5506	1,000.49	83.6604	1,000.49	82.3706	1,000.49	81.6151	1,000.49	79.2077	1,000.49	79.5889	1,000.49	75.563	1,000.49	78.6566	1,000.49	70.8482	1,000.49	80.2188	1,000.49	67.7059	1,000.49	80.8274	1,000.49	63.5853	1,000.49	80.5634	1,000.49	72.8991	1,000.49	81.162	1,000.49	77.2924	1,000.49	84.0563	1,000.49	78.5348	1,000.49	86.0141	1,000.49	78.6329	1,000.49	86.1236	1,000.49	78.1301	1,000.49	86.3125	1,000.49	77.3001	1,000.49	86.1941	1,000.49	76.08	1,000.49	85.0361	1,000.49	76.8883	1,000.49	83.3944	1,000.49	80.6594
1,035.64	88.5516	1,035.64	87.7547	1,035.64	88.7097	1,035.64	86.0617	1,035.64	88.6456	1,035.64	83.967	1,035.64	88.0181	1,035.64	81.5784	1,035.64	86.4707	1,035.64	78.6997	1,035.64	84.4735	1,035.64	75.6607	1,035.64	81.5212	1,035.64	71.8698	1,035.64	75.7858	1,035.64	72.4161	1,035.64	41.1091	1,035.64	73.9487	1,035.64	76.6586	1,035.64	74.2691	1,035.64	82.255	1,035.64	74.977	1,035.64	85.4359	1,035.64	72.4076	1,035.64	87.1665	1,035.64	76.8646	1,035.64	87.0798	1,035.64	80.3922	1,035.64	86.917	1,035.64	82.0457	1,035.64	86.8105	1,035.64	82.9677	1,035.64	86.6677	1,035.64	82.6647	1,035.64	86.3792	1,035.64	84.44
1,072.27	84.8749	1,072.27	82.9056	1,072.27	85.7807	1,072.27	79.7282	1,072.27	86.0105	1,072.27	77.4757	1,072.27	85.2817	1,072.27	77.7042	1,072.27	83.831	1,072.27	77.6844	1,072.27	81.9782	1,072.27	76.1593	1,072.27	80.0496	1,072.27	76.7805	1,072.27	78.6967	1,072.27	76.4141	1,072.27	76.6401	1,072.27	75.1668	1,072.27	71.2241	1,072.27	72.5459	1,072.27	70.8758	1,072.27	67.5802	1,072.27	76.3801	1,072.27	67.3831	1,072.27	78.2838	1,072.27	68.724	1,072.27	80.4251	1,072.27	69.0111	1,072.27	82.3093	1,072.27	72.2213	1,072.27	83.0866	1,072.27	76.5503	1,072.27	82.964	1,072.27	79.1953	1,072.27	82.4184	1,072.27	81.1814
1,108.89	83.5021	1,108.89	82.2422	1,108.89	84.2233	1,108.89	80.2749	1,108.89	84.0354	1,108.89	78.561	1,108.89	82.3764	1,108.89	78.0316	1,108.89	80.3424	1,108.89	76.7675	1,108.89	79.4883	1,108.89	74.515	1,108.89	78.4012	1,108.89	74.2909	1,108.89	76.1952	1,108.89	72.5535	1,108.89	73.2216	1,108.89	72.7957	1,108.89	67.208	1,108.89	74.4373	1,108.89	68.7309	1,108.89	76.3169	1,108.89	74.2715	1,108.89	78.8573	1,108.89	74.4606	1,108.89	78.1855	1,108.89	70.8697	1,108.89	74.616	1,108.89	73.6162	1,108.89	60.1782	1,108.89	76.895	1,108.89	74.0546	1,108.89	79.9244	1,108.89	77.4168	1,108.89	80.6123	1,108.89	78.9228
1,148.44	85.831	1,148.44	85.3635	1,148.44	85.7966	1,148.44	84.3563	1,148.44	85.1878	1,148.44	83.1527	1,148.44	83.989	1,148.44	81.8172	1,148.44	82.3291	1,148.44	79.9528	1,148.44	79.9842	1,148.44	77.7115	1,148.44	77.8689	1,148.44	74.7272	1,148.44	76.2239	1,148.44	72.5633	1,148.44	74.9751	1,148.44	72.2737	1,148.44	75.951	1,148.44	70.2299	1,148.44	76.3147	1,148.44	72.2524	1,148.44	74.8276	1,148.44	74.9978	1,148.44	71.3351	1,148.44	77.3969	1,148.44	66.3843	1,148.44	77.4912	1,148.44	64.4928	1,148.44	74.0584	1,148.44	69.5125	1,148.44	65.6748	1,148.44	72.3192	1,148.44	73.9595	1,148.44	74.6929	1,148.44	76.6455
1,189.45	84.7201	1,189.45	85.3039	1,189.45	84.1068	1,189.45	85.8523	1,189.45	82.9301	1,189.45	85.4424	1,189.45	81.3949	1,189.45	84.7893	1,189.45	80.3784	1,189.45	83.8251	1,189.45	80.5101	1,189.45	81.3079	1,189.45	79.7833	1,189.45	79.1342	1,189.45	79.1977	1,189.45	76.8319	1,189.45	79.6644	1,189.45	70.7636	1,189.45	78.9366	1,189.45	67.4542	1,189.45	78.8133	1,189.45	74.1018	1,189.45	78.7905	1,189.45	75.9013	1,189.45	77.3997	1,189.45	76.3375	1,189.45	73.9476	1,189.45	74.6707	1,189.45	71.9916	1,189.45	74.8172	1,189.45	73.3788	1,189.45	77.2432	1,189.45	74.2605	1,189.45	78.8535	1,189.45	76.752	1,189.45	79.453
1,230.47	90.4266	1,230.47	90.4585	1,230.47	89.4864	1,230.47	89.8087	1,230.47	88.0152	1,230.47	88.8143	1,230.47	86.1448	1,230.47	87.703	1,230.47	84.7067	1,230.47	86.3465	1,230.47	84.6735	1,230.47	83.9202	1,230.47	83.8091	1,230.47	80.9878	1,230.47	81.6408	1,230.47	77.282	1,230.47	79.3832	1,230.47	72.1031	1,230.47	76.8051	1,230.47	64.7985	1,230.47	77.8206	1,230.47	67.5535	1,230.47	78.0289	1,230.47	72.0377	1,230.47	76.6272	1,230.47	73.6699	1,230.47	75.9879	1,230.47	74.1393	1,230.47	76.9714	1,230.47	70.2177	1,230.47	73.6568	1,230.47	63.0214	1,230.47	69.1963	1,230.47	73.8407	1,230.47	75.3036	1,230.47	77.0491
1,274.41	89.4908	1,274.41	89.3079	1,274.41	89.1036	1,274.41	88.8045	1,274.41	88.3557	1,274.41	88.0143	1,274.41	87.2959	1,274.41	86.7956	1,274.41	85.3571	1,274.41	84.9022	1,274.41	83.344	1,274.41	82.1054	1,274.41	82.8662	1,274.41	79.2835	1,274.41	82.7411	1,274.41	77.7023	1,274.41	81.9458	1,274.41	72.9899	1,274.41	79.7266	1,274.41	65.0124	1,274.41	78.2605	1,274.41	66.966	1,274.41	78.4523	1,274.41	73.9091	1,274.41	76.7691	1,274.41	75.1027	1,274.41	77.2241	1,274.41	74.8101	1,274.41	79.6287	1,274.41	66.9909	1,274.41	77.6874	1,274.41	71.0235	1,274.41	72.749	1,274.41	74.2985	1,274.41	65.4494	1,274.41	72.9144
1,319.82	89.6508	1,319.82	89.7269	1,319.82	89.0337	1,319.82	89.4441	1,319.82	88.2188	1,319.82	88.6623	1,319.82	86.8974	1,319.82	87.1556	1,319.82	84.9943	1,319.82	85.8841	1,319.82	83.4279	1,319.82	83.4665	1,319.82	82.2734	1,319.82	80.0074	1,319.82	81.4398	1,319.82	78.2542	1,319.82	81.2289	1,319.82	75.1397	1,319.82	79.4224	1,319.82	74.382	1,319.82	76.5133	1,319.82	70.402	1,319.82	74.3957	1,319.82	68.6223	1,319.82	73.7534	1,319.82	73.8693	1,319.82	74.2857	1,319.82	75.181	1,319.82	76.1107	1,319.82	73.2906	1,319.82	74.2413	1,319.82	64.7131	1,319.82	66.4104	1,319.82	70.1434	1,319.82	72.1857	1,319.82	75.4035
1,366.7	89.7032	1,366.7	89.7648	1,366.7	88.8457	1,366.7	89.2388	1,366.7	88.3363	1,366.7	88.0927	1,366.7	87.5194	1,366.7	86.8329	1,366.7	85.5179	1,366.7	85.8923	1,366.7	84.0504	1,366.7	83.6125	1,366.7	83.323	1,366.7	80.2068	1,366.7	82.6235	1,366.7	78.0977	1,366.7	82.2023	1,366.7	76.7377	1,366.7	79.4019	1,366.7	75.6934	1,366.7	76.4508	1,366.7	70.2635	1,366.7	77.8091	1,366.7	68.1099	1,366.7	76.7566	1,366.7	74.5483	1,366.7	75.265	1,366.7	75.5772	1,366.7	76.5009	1,366.7	71.1286	1,366.7	76.0957	1,366.7	58.4157	1,366.7	68.54	1,366.7	68.6348	1,366.7	70.8136	1,366.7	74.2326
1,413.57	89.8648	1,413.57	90.0576	1,413.57	88.999	1,413.57	89.282	1,413.57	88.0606	1,413.57	88.4419	1,413.57	86.5182	1,413.57	87.6018	1,413.57	85.1876	1,413.57	86.5368	1,413.57	84.0715	1,413.57	85.8773	1,413.57	82.7109	1,413.57	84.6679	1,413.57	82.1533	1,413.57	83.3179	1,413.57	81.0278	1,413.57	82.8137	1,413.57	77.7014	1,413.57	81.8983	1,413.57	77.7945	1,413.57	79.3921	1,413.57	79.0886	1,413.57	74.5899	1,413.57	76.9802	1,413.57	67.1943	1,413.57	78.3326	1,413.57	65.9699	1,413.57	79.9227	1,413.57	60.9998	1,413.57	78.4939	1,413.57	59.2193	1,413.57	74.9642	1,413.57	75.4993	1,413.57	75.2188	1,413.57	78.4121
1,463.38	88.6411	1,463.38	88.2972	1,463.38	88.158	1,463.38	88.0214	1,463.38	87.1677	1,463.38	88.199	1,463.38	85.9205	1,463.38	87.6611	1,463.38	85.1472	1,463.38	86.0266	1,463.38	83.3001	1,463.38	84.9843	1,463.38	83.1271	1,463.38	85.0698	1,463.38	83.5442	1,463.38	83.0723	1,463.38	80.3716	1,463.38	79.3024	1,463.38	73.4472	1,463.38	80.5745	1,463.38	59.1204	1,463.38	80.8501	1,463.38	67.1707	1,463.38	73.2357	1,463.38	70.5678	1,463.38	69.2056	1,463.38	75.6413	1,463.38	68.9222	1,463.38	77.5176	1,463.38	67.9086	1,463.38	73.9921	1,463.38	73.7857	1,463.38	75.5935	1,463.38	79.9504	1,463.38	77.9131	1,463.38	81.1587
1,516.11	86.4327	1,516.11	87.1299	1,516.11	86.1093	1,516.11	87.3475	1,516.11	85.8119	1,516.11	86.2318	1,516.11	85.5401	1,516.11	85.0279	1,516.11	85.3323	1,516.11	84.252	1,516.11	84.1087	1,516.11	82.0948	1,516.11	80.8971	1,516.11	79.7648	1,516.11	78.4355	1,516.11	77.3099	1,516.11	76.9808	1,516.11	70.4796	1,516.11	71.7649	1,516.11	71.2499	1,516.11	63.6881	1,516.11	75.3617	1,516.11	65.8888	1,516.11	74.0275	1,516.11	58.2152	1,516.11	68.6652	1,516.11	69.893	1,516.11	72.0847	1,516.11	74.1738	1,516.11	74.2849	1,516.11	71.8544	1,516.11	71.8991	1,516.11	65.2183	1,516.11	71.9825	1,516.11	75.2406	1,516.11	75.7162
1,568.85	87.2042	1,568.85	87.532	1,568.85	86.6622	1,568.85	86.7646	1,568.85	85.5132	1,568.85	85.1329	1,568.85	83.953	1,568.85	83.4451	1,568.85	83.0915	1,568.85	81.2832	1,568.85	81.1415	1,568.85	79.9488	1,568.85	78.2197	1,568.85	78.3776	1,568.85	76.1395	1,568.85	75.6833	1,568.85	75.0387	1,568.85	72.5789	1,568.85	72.5735	1,568.85	59.5247	1,568.85	72.9107	1,568.85	69.6585	1,568.85	73.9416	1,568.85	69.4707	1,568.85	74.8877	1,568.85	68.8306	1,568.85	71.0171	1,568.85	68.0564	1,568.85	57.2689	1,568.85	66.7809	1,568.85	62.1721	1,568.85	69.2283	1,568.85	67.1936	1,568.85	61.1451	1,568.85	63.6425	1,568.85	49.0131
1,624.51	87.8703	1,624.51	87.9894	1,624.51	87.1829	1,624.51	86.9794	1,624.51	85.8169	1,624.51	85.2782	1,624.51	84.7066	1,624.51	83.5401	1,624.51	83.2478	1,624.51	81.5676	1,624.51	81.1092	1,624.51	78.8785	1,624.51	78.29	1,624.51	75.9374	1,624.51	76.4032	1,624.51	74.6173	1,624.51	73.6457	1,624.51	74.6614	1,624.51	69.9634	1,624.51	74.2189	1,624.51	67.4751	1,624.51	66.3899	1,624.51	66.9039	1,624.51	65.5465	1,624.51	64.109	1,624.51	63.1092	1,624.51	67.1604	1,624.51	70.4241	1,624.51	70.1468	1,624.51	70.7627	1,624.51	72.1752	1,624.51	64.8883	1,624.51	70.1687	1,624.51	68.9321	1,624.51	59.0852	1,624.51	67.9445
1,681.64	87.8503	1,681.64	87.9605	1,681.64	87.7674	1,681.64	87.0006	1,681.64	86.5892	1,681.64	85.2469	1,681.64	85.1302	1,681.64	83.8577	1,681.64	84.2462	1,681.64	81.4538	1,681.64	82.7175	1,681.64	79.1445	1,681.64	79.8474	1,681.64	78.3047	1,681.64	76.1868	1,681.64	78.1816	1,681.64	75.0083	1,681.64	79.3166	1,681.64	74.26	1,681.64	77.3906	1,681.64	73.848	1,681.64	71.9374	1,681.64	73.2924	1,681.64	73.5755	1,681.64	72.614	1,681.64	70.8774	1,681.64	66.4146	1,681.64	64.1851	1,681.64	49.549	1,681.64	63.7216	1,681.64	56.1864	1,681.64	68.4906	1,681.64	68.4605	1,681.64	73.776	1,681.64	71.4174	1,681.64	73.5857
1,741.7	87.1004	1,741.7	87.1336	1,741.7	86.8878	1,741.7	86.0586	1,741.7	86.5192	1,741.7	84.3663	1,741.7	84.8667	1,741.7	83.6296	1,741.7	83.3207	1,741.7	82.5074	1,741.7	81.8057	1,741.7	79.4979	1,741.7	80.1368	1,741.7	79.4079	1,741.7	79.325	1,741.7	78.1672	1,741.7	77.2918	1,741.7	75.9557	1,741.7	73.4525	1,741.7	75.6222	1,741.7	74.27	1,741.7	74.1041	1,741.7	72.9259	1,741.7	67.953	1,741.7	37.8085	1,741.7	52.0371	1,741.7	63.8072	1,741.7	67.5729	1,741.7	67.5995	1,741.7	64.7659	1,741.7	69.2708	1,741.7	57.3267	1,741.7	67.1732	1,741.7	67.1904	1,741.7	63.2438	1,741.7	70.6497
1,803.22	86.6689	1,803.22	86.5811	1,803.22	86.1822	1,803.22	85.3498	1,803.22	84.9944	1,803.22	84.1922	1,803.22	83.8648	1,803.22	83.6854	1,803.22	82.1746	1,803.22	81.5221	1,803.22	80.8243	1,803.22	78.9154	1,803.22	78.9027	1,803.22	77.4599	1,803.22	76.5796	1,803.22	76.6274	1,803.22	75.5904	1,803.22	75.9181	1,803.22	71.5749	1,803.22	73.9085	1,803.22	73.0682	1,803.22	74.915	1,803.22	73.277	1,803.22	74.0208	1,803.22	72.7175	1,803.22	69.0725	1,803.22	72.7741	1,803.22	53.5647	1,803.22	62.3933	1,803.22	65.5747	1,803.22	63.3508	1,803.22	63.0714	1,803.22	61.5103	1,803.22	67.8395	1,803.22	60.0441	1,803.22	64.4298
1,866.21	85.2784	1,866.21	85.0556	1,866.21	85.7012	1,866.21	84.4899	1,866.21	85.1173	1,866.21	83.1219	1,866.21	84.2496	1,866.21	81.8222	1,866.21	81.874	1,866.21	81.0718	1,866.21	80.785	1,866.21	79.3914	1,866.21	79.9663	1,866.21	77.4706	1,866.21	76.1004	1,866.21	75.0524	1,866.21	72.2264	1,866.21	70.4166	1,866.21	68.0124	1,866.21	71.7798	1,866.21	65.6387	1,866.21	74.3395	1,866.21	68.4959	1,866.21	67.0896	1,866.21	70.5069	1,866.21	59.8213	1,866.21	68.5254	1,866.21	59.9404	1,866.21	69.7406	1,866.21	63.5257	1,866.21	70.4463	1,866.21	62.8218	1,866.21	70.2655	1,866.21	62.3204	1,866.21	66.587	1,866.21	65.1683
1,932.13	84.5507	1,932.13	84.6144	1,932.13	84.0011	1,932.13	84.9174	1,932.13	84.5198	1,932.13	83.1459	1,932.13	84.1651	1,932.13	81.2919	1,932.13	82.322	1,932.13	80.9656	1,932.13	78.9725	1,932.13	77.7514	1,932.13	76.7848	1,932.13	76.2412	1,932.13	76.6425	1,932.13	75.6661	1,932.13	72.6417	1,932.13	71.0013	1,932.13	67.831	1,932.13	70.3206	1,932.13	68.0449	1,932.13	46.9201	1,932.13	49.7673	1,932.13	58.9753	1,932.13	55.529	1,932.13	66.5868	1,932.13	63.3547	1,932.13	69.4979	1,932.13	72.0275	1,932.13	73.2454	1,932.13	74.7859	1,932.13	68.0608	1,932.13	74.4028	1,932.13	64.7134	1,932.13	62.1983	1,932.13	69.5837
1,999.51	85.7614	1,999.51	85.525	1,999.51	85.6671	1,999.51	84.9046	1,999.51	85.2293	1,999.51	84.1315	1,999.51	84.2378	1,999.51	82.5762	1,999.51	82.8965	1,999.51	80.0732	1,999.51	80.4836	1,999.51	77.3205	1,999.51	78.2917	1,999.51	74.9952	1,999.51	75.2321	1,999.51	71.7434	1,999.51	73.3733	1,999.51	69.2282	1,999.51	71.2573	1,999.51	67.9538	1,999.51	68.7833	1,999.51	66.6487	1,999.51	67.1566	1,999.51	67.054	1,999.51	67.4809	1,999.51	65.959	1,999.51	66.7496	1,999.51	60.2942	1,999.51	62.5485	1,999.51	63.5196	1,999.51	63.4273	1,999.51	60.1164	1,999.51	62.0482	1,999.51	61.4287	1,999.51	58.3947	1,999.51	64.9572
2,069.82	86.7307	2,069.82	86.5455	2,069.82	86.6865	2,069.82	86.0953	2,069.82	86.1297	2,069.82	84.9792	2,069.82	85.1171	2,069.82	82.9913	2,069.82	83.2001	2,069.82	80.2744	2,069.82	80.7405	2,069.82	77.2887	2,069.82	77.9215	2,069.82	74.4571	2,069.82	75.9004	2,069.82	72.3342	2,069.82	73.2846	2,069.82	70.7501	2,069.82	71.423	2,069.82	67.9357	2,069.82	70.125	2,069.82	65.5382	2,069.82	67.4415	2,069.82	65.1682	2,069.82	65.7266	2,069.82	66.1852	2,069.82	66.2884	2,069.82	62.3857	2,069.82	63.5985	2,069.82	65.3596	2,069.82	65.0141	2,069.82	63.3154	2,069.82	60.6753	2,069.82	54.7753	2,069.82	52.4334	2,069.82	63.2878
2,143.07	87.1688	2,143.07	87.1869	2,143.07	86.9907	2,143.07	86.5468	2,143.07	86.3598	2,143.07	85.3511	2,143.07	85.1507	2,143.07	83.3549	2,143.07	83.1929	2,143.07	80.7758	2,143.07	80.5196	2,143.07	78.0556	2,143.07	77.6214	2,143.07	75.0448	2,143.07	74.894	2,143.07	73.268	2,143.07	73.1873	2,143.07	71.1273	2,143.07	71.175	2,143.07	68.4957	2,143.07	69.0975	2,143.07	67.7345	2,143.07	67.5882	2,143.07	64.9332	2,143.07	66.6294	2,143.07	66.4853	2,143.07	66.1233	2,143.07	62.4509	2,143.07	62.4519	2,143.07	61.0513	2,143.07	64.3075	2,143.07	64.2018	2,143.07	63.0072	2,143.07	53.6074	2,143.07	53.6177	2,143.07	60.7557
2,219.24	87.2439	2,219.24	87.0065	2,219.24	86.9679	2,219.24	86.6318	2,219.24	86.2112	2,219.24	85.7581	2,219.24	84.763	2,219.24	84.1143	2,219.24	82.6989	2,219.24	81.6931	2,219.24	80.0739	2,219.24	78.4417	2,219.24	76.946	2,219.24	75.751	2,219.24	74.8383	2,219.24	73.428	2,219.24	72.6928	2,219.24	71.672	2,219.24	70.1407	2,219.24	70.8468	2,219.24	68.7413	2,219.24	68.8773	2,219.24	68.2406	2,219.24	66.0496	2,219.24	63.5932	2,219.24	66.4082	2,219.24	66.6029	2,219.24	64.248	2,219.24	61.5093	2,219.24	64.3516	2,219.24	63.404	2,219.24	65.5427	2,219.24	60.2345	2,219.24	38.8403	2,219.24	52.0918	2,219.24	62.715
2,296.88	87.0048	2,296.88	86.9332	2,296.88	86.5752	2,296.88	86.4157	2,296.88	85.7113	2,296.88	85.1992	2,296.88	84.2118	2,296.88	83.158	2,296.88	81.9913	2,296.88	80.5538	2,296.88	79.2364	2,296.88	77.9892	2,296.88	76.2963	2,296.88	75.4763	2,296.88	74.2148	2,296.88	74.0242	2,296.88	71.6359	2,296.88	72.5752	2,296.88	70.3509	2,296.88	70.877	2,296.88	68.5812	2,296.88	69.7856	2,296.88	67.9468	2,296.88	66.4094	2,296.88	65.1551	2,296.88	67.1484	2,296.88	64.7958	2,296.88	66.0657	2,296.88	63.295	2,296.88	63.4859	2,296.88	64.022	2,296.88	64.3315	2,296.88	64.274	2,296.88	30.4284	2,296.88	51.7034	2,296.88	62.9136
2,378.91	86.9652	2,378.91	86.6909	2,378.91	86.9039	2,378.91	86.077	2,378.91	86.3178	2,378.91	84.4122	2,378.91	84.9065	2,378.91	82.0227	2,378.91	82.3448	2,378.91	78.9951	2,378.91	79.8881	2,378.91	76.4749	2,378.91	77.5118	2,378.91	74.4512	2,378.91	75.3525	2,378.91	73.7716	2,378.91	73.6358	2,378.91	71.8221	2,378.91	72.3567	2,378.91	70.1327	2,378.91	70.6011	2,378.91	69.9174	2,378.91	69.9069	2,378.91	67.4702	2,378.91	66.7804	2,378.91	65.6213	2,378.91	65.8338	2,378.91	65.6222	2,378.91	66.9045	2,378.91	64.3161	2,378.91	63.5107	2,378.91	65.8554	2,378.91	66.1839	2,378.91	45.8483	2,378.91	44.9036	2,378.91	63.3756
2,462.4	88.1034	2,462.4	87.9281	2,462.4	87.9581	2,462.4	87.2426	2,462.4	87.3173	2,462.4	85.5827	2,462.4	85.7589	2,462.4	83.0108	2,462.4	83.4898	2,462.4	80.3392	2,462.4	80.7268	2,462.4	78.0534	2,462.4	78.8574	2,462.4	76.1446	2,462.4	77.0061	2,462.4	74.0896	2,462.4	75.7807	2,462.4	72.9962	2,462.4	73.6488	2,462.4	70.2729	2,462.4	72.1997	2,462.4	69.7359	2,462.4	71.4113	2,462.4	68.1401	2,462.4	69.5777	2,462.4	65.5001	2,462.4	67.3945	2,462.4	66.2519	2,462.4	66.0159	2,462.4	61.9435	2,462.4	63.9978	2,462.4	66.1551	2,462.4	66.6747	2,462.4	43.6221	2,462.4	57.5594	2,462.4	65.7292
2,548.83	88.6419	2,548.83	88.7263	2,548.83	88.6101	2,548.83	88.3311	2,548.83	88.1251	2,548.83	87.1881	2,548.83	86.3811	2,548.83	84.738	2,548.83	84.2636	2,548.83	82.3316	2,548.83	81.7167	2,548.83	80.0666	2,548.83	79.8282	2,548.83	78.2538	2,548.83	77.9702	2,548.83	75.7642	2,548.83	76.0486	2,548.83	74.2113	2,548.83	74.778	2,548.83	72.1468	2,548.83	72.6689	2,548.83	69.4889	2,548.83	71.6411	2,548.83	70.6676	2,548.83	70.7349	2,548.83	65.8698	2,548.83	66.8521	2,548.83	67.9544	2,548.83	68.2105	2,548.83	64.2061	2,548.83	66.3568	2,548.83	67.3829	2,548.83	66.1005	2,548.83	53.4234	2,548.83	58.3261	2,548.83	63.522
2,639.65	88.1265	2,639.65	87.9841	2,639.65	87.6704	2,639.65	87.4365	2,639.65	86.8361	2,639.65	85.9979	2,639.65	85.3263	2,639.65	84.0153	2,639.65	82.8545	2,639.65	81.4746	2,639.65	80.5309	2,639.65	79.1522	2,639.65	78.6315	2,639.65	77.7348	2,639.65	77.0118	2,639.65	75.8258	2,639.65	74.3484	2,639.65	74.381	2,639.65	72.9867	2,639.65	72.2819	2,639.65	71.4678	2,639.65	70.6605	2,639.65	69.0022	2,639.65	69.7465	2,639.65	68.8943	2,639.65	66.3917	2,639.65	64.3615	2,639.65	67.102	2,639.65	66.6386	2,639.65	62.2294	2,639.65	63.2322	2,639.65	68.5981	2,639.65	65.2607	2,639.65	47.3451	2,639.65	47.6476	2,639.65	65.9476
2,731.93	86.1131	2,731.93	85.8661	2,731.93	86.2581	2,731.93	85.3673	2,731.93	85.3017	2,731.93	83.5929	2,731.93	83.7823	2,731.93	81.4831	2,731.93	81.068	2,731.93	79.7921	2,731.93	78.9748	2,731.93	77.5727	2,731.93	77.2353	2,731.93	76.053	2,731.93	75.3718	2,731.93	75.5656	2,731.93	73.7527	2,731.93	72.0673	2,731.93	72.1161	2,731.93	71.2314	2,731.93	69.9533	2,731.93	69.0124	2,731.93	67.4031	2,731.93	68.4129	2,731.93	67.7326	2,731.93	65.1006	2,731.93	63.2985	2,731.93	65.6255	2,731.93	65.2242	2,731.93	59.0022	2,731.93	58.6126	2,731.93	65.5964	2,731.93	64.3702	2,731.93	52.3123	2,731.93	31.3184	2,731.93	58.933
2,828.61	85.7761	2,828.61	85.5103	2,828.61	85.3416	2,828.61	84.2663	2,828.61	84.4248	2,828.61	82.2901	2,828.61	82.3693	2,828.61	79.909	2,828.61	80.1012	2,828.61	78.0748	2,828.61	78.345	2,828.61	77.1209	2,828.61	76.9487	2,828.61	75.345	2,828.61	74.7619	2,828.61	72.738	2,828.61	73.2365	2,828.61	70.3529	2,828.61	70.3772	2,828.61	69.2654	2,828.61	69.1215	2,828.61	66.0587	2,828.61	67.7283	2,828.61	67.022	2,828.61	67.0111	2,828.61	64.2576	2,828.61	64.4833	2,828.61	63.5532	2,828.61	65.4426	2,828.61	61.7892	2,828.61	60.8588	2,828.61	61.7308	2,828.61	63.4865	2,828.61	53.2472	2,828.61	48.8589	2,828.61	61.8621
2,928.22	85.475	2,928.22	85.2912	2,928.22	85.029	2,928.22	84.0924	2,928.22	83.946	2,928.22	82.2649	2,928.22	81.3846	2,928.22	79.8175	2,928.22	79.6391	2,928.22	78.0607	2,928.22	78.5595	2,928.22	77.1231	2,928.22	77.571	2,928.22	75.3626	2,928.22	75.3641	2,928.22	71.7315	2,928.22	73.561	2,928.22	70.9729	2,928.22	71.1803	2,928.22	68.6062	2,928.22	69.2679	2,928.22	66.041	2,928.22	67.1298	2,928.22	65.9605	2,928.22	65.8554	2,928.22	65.0735	2,928.22	64.0637	2,928.22	62.2871	2,928.22	63.4442	2,928.22	61.4118	2,928.22	61.2155	2,928.22	62.5808	2,928.22	64.1456	2,928.22	55.8677	2,928.22	46.5822	2,928.22	58.8207
3,030.76	85.1758	3,030.76	84.7349	3,030.76	84.5012	3,030.76	83.3899	3,030.76	82.7894	3,030.76	81.6366	3,030.76	81.0742	3,030.76	80.1869	3,030.76	79.9167	3,030.76	79.1271	3,030.76	79.2199	3,030.76	77.7373	3,030.76	77.6214	3,030.76	75.1898	3,030.76	75.8644	3,030.76	72.9675	3,030.76	72.9007	3,030.76	70.795	3,030.76	70.5484	3,030.76	68.5243	3,030.76	68.8179	3,030.76	66.1815	3,030.76	66.912	3,030.76	63.6475	3,030.76	65.3195	3,030.76	65.8415	3,030.76	63.749	3,030.76	61.1668	3,030.76	61.7057	3,030.76	62.5794	3,030.76	62.5633	3,030.76	63.8767	3,030.76	62.563	3,030.76	48.0803	3,030.76	48.9343	3,030.76	59.7913
3,137.7	84.7732	3,137.7	84.2859	3,137.7	84.3647	3,137.7	83.0671	3,137.7	82.6233	3,137.7	81.3692	3,137.7	81.1595	3,137.7	80.7353	3,137.7	80.614	3,137.7	80.4301	3,137.7	79.5376	3,137.7	78.4046	3,137.7	77.5767	3,137.7	75.9349	3,137.7	75.0659	3,137.7	73.6169	3,137.7	72.3629	3,137.7	70.9825	3,137.7	70.1143	3,137.7	68.9981	3,137.7	68.6052	3,137.7	67.6563	3,137.7	66.6854	3,137.7	64.2163	3,137.7	63.8031	3,137.7	65.7729	3,137.7	64.8116	3,137.7	61.176	3,137.7	62.1385	3,137.7	63.3517	3,137.7	61.5779	3,137.7	63.2466	3,137.7	61.8288	3,137.7	54.1332	3,137.7	51.0937	3,137.7	60.394
3,249.02	84.719	3,249.02	84.0168	3,249.02	84.0003	3,249.02	82.5594	3,249.02	82.3538	3,249.02	81.5335	3,249.02	81.3027	3,249.02	81.0956	3,249.02	81.0465	3,249.02	80.2577	3,249.02	79.9711	3,249.02	78.0295	3,249.02	77.8813	3,249.02	75.8184	3,249.02	75.1193	3,249.02	73.5424	3,249.02	72.881	3,249.02	70.3708	3,249.02	70.8834	3,249.02	69.5138	3,249.02	69.0275	3,249.02	67.728	3,249.02	67.0206	3,249.02	65.1597	3,249.02	64.4219	3,249.02	66.7138	3,249.02	66.1642	3,249.02	59.162	3,249.02	60.7514	3,249.02	63.2902	3,249.02	63.1148	3,249.02	61.9291	3,249.02	62.0921	3,249.02	56.6071	3,249.02	48.93	3,249.02	60.2263
3,363.28	85.175	3,363.28	84.6924	3,363.28	84.2024	3,363.28	82.8382	3,363.28	82.9878	3,363.28	82.1889	3,363.28	82.4828	3,363.28	82.237	3,363.28	82.3977	3,363.28	80.7165	3,363.28	80.6631	3,363.28	78.2862	3,363.28	78.4285	3,363.28	76.0836	3,363.28	75.6371	3,363.28	73.4663	3,363.28	72.9267	3,363.28	71.7575	3,363.28	70.943	3,363.28	69.5292	3,363.28	69.6204	3,363.28	68.1719	3,363.28	67.6839	3,363.28	65.0713	3,363.28	65.5662	3,363.28	66.6257	3,363.28	66.5224	3,363.28	60.7142	3,363.28	60.9761	3,363.28	65.4931	3,363.28	63.8296	3,363.28	61.9179	3,363.28	61.4065	3,363.28	60.4013	3,363.28	55.0137	3,363.28	61.1584
3,481.93	86.6887	3,481.93	86.0485	3,481.93	85.5482	3,481.93	84.4453	3,481.93	84.0254	3,481.93	84.1027	3,481.93	83.8823	3,481.93	83.8344	3,481.93	83.3607	3,481.93	81.6821	3,481.93	81.6315	3,481.93	79.3727	3,481.93	79.0827	3,481.93	76.8713	3,481.93	76.3521	3,481.93	74.7536	3,481.93	74.2265	3,481.93	72.9374	3,481.93	72.0498	3,481.93	70.4877	3,481.93	70.6288	3,481.93	68.747	3,481.93	68.9663	3,481.93	67.5601	3,481.93	66.5706	3,481.93	66.7469	3,481.93	65.9736	3,481.93	62.2955	3,481.93	60.9683	3,481.93	65.4917	3,481.93	64.49	3,481.93	63.187	3,481.93	63.3525	3,481.93	52.9936	3,481.93	54.9339	3,481.93	62.7189
3,604.98	87.5394	3,604.98	86.475	3,604.98	86.5287	3,604.98	84.8101	3,604.98	84.459	3,604.98	85.0225	3,604.98	84.8785	3,604.98	84.5212	3,604.98	84.4946	3,604.98	82.6637	3,604.98	82.7692	3,604.98	80.1742	3,604.98	79.9884	3,604.98	78.7305	3,604.98	78.0985	3,604.98	76.2646	3,604.98	76.2937	3,604.98	74.4771	3,604.98	75.0999	3,604.98	72.4936	3,604.98	72.708	3,604.98	71.2818	3,604.98	71.0514	3,604.98	69.7608	3,604.98	69.8378	3,604.98	68.0391	3,604.98	68.6603	3,604.98	67.6196	3,604.98	66.5004	3,604.98	65.8512	3,604.98	67.3001	3,604.98	64.128	3,604.98	66.7902	3,604.98	62.4972	3,604.98	60.5346	3,604.98	61.0295
3,732.42	88.7555	3,732.42	87.7745	3,732.42	87.3636	3,732.42	86.1663	3,732.42	86.4887	3,732.42	86.559	3,732.42	86.8702	3,732.42	85.6213	3,732.42	86.0042	3,732.42	84.0841	3,732.42	84.0468	3,732.42	81.7925	3,732.42	81.8878	3,732.42	80.5041	3,732.42	80.8021	3,732.42	78.1664	3,732.42	78.6465	3,732.42	76.7502	3,732.42	77.0491	3,732.42	74.2816	3,732.42	74.6447	3,732.42	73.3622	3,732.42	73.1178	3,732.42	71.2829	3,732.42	72.8448	3,732.42	69.9029	3,732.42	70.6381	3,732.42	69.5433	3,732.42	68.4534	3,732.42	68.6648	3,732.42	68.8385	3,732.42	64.0625	3,732.42	67.4732	3,732.42	65.1031	3,732.42	61.3992	3,732.42	65.1388
3,864.26	87.927	3,864.26	87.5137	3,864.26	87.3233	3,864.26	87.492	3,864.26	87.5075	3,864.26	87.6179	3,864.26	87.131	3,864.26	86.237	3,864.26	85.4073	3,864.26	84.3562	3,864.26	83.3815	3,864.26	83.3018	3,864.26	82.4974	3,864.26	82.2103	3,864.26	81.439	3,864.26	80.174	3,864.26	78.5682	3,864.26	77.9592	3,864.26	76.5067	3,864.26	75.2197	3,864.26	73.7921	3,864.26	73.2814	3,864.26	72.8925	3,864.26	71.9425	3,864.26	71.0193	3,864.26	70.9189	3,864.26	68.6552	3,864.26	71.0513	3,864.26	69.3263	3,864.26	69.5574	3,864.26	68.3761	3,864.26	66.2407	3,864.26	64.8371	3,864.26	64.8714	3,864.26	61.3581	3,864.26	65.5686
4,000.49	87.0406	4,000.49	87.4096	4,000.49	87.4924	4,000.49	88.3366	4,000.49	88.1252	4,000.49	87.1493	4,000.49	86.7931	4,000.49	84.7501	4,000.49	84.37	4,000.49	83.3957	4,000.49	82.9605	4,000.49	82.8303	4,000.49	83.1201	4,000.49	81.0782	4,000.49	81.1762	4,000.49	78.8833	4,000.49	78.1675	4,000.49	75.9697	4,000.49	76.3096	4,000.49	74.4293	4,000.49	73.7893	4,000.49	72.2334	4,000.49	71.4739	4,000.49	70.2175	4,000.49	69.5221	4,000.49	67.4881	4,000.49	68.9374	4,000.49	69.6139	4,000.49	70.3767	4,000.49	68.0345	4,000.49	67.5929	4,000.49	66.4165	4,000.49	63.0738	4,000.49	63.6338	4,000.49	61.6291	4,000.49	65.5308
4,141.11	87.7007	4,141.11	88.1699	4,141.11	88.8433	4,141.11	89.106	4,141.11	88.9053	4,141.11	86.9125	4,141.11	86.4999	4,141.11	84.4068	4,141.11	84.78	4,141.11	84.058	4,141.11	84.3695	4,141.11	82.6242	4,141.11	82.7071	4,141.11	80.1276	4,141.11	79.6028	4,141.11	76.514	4,141.11	76.8535	4,141.11	72.7273	4,141.11	74.3768	4,141.11	71.6443	4,141.11	72.2743	4,141.11	70.5312	4,141.11	70.042	4,141.11	67.917	4,141.11	67.6973	4,141.11	65.9838	4,141.11	66.0657	4,141.11	65.8944	4,141.11	66.337	4,141.11	61.6663	4,141.11	65.0449	4,141.11	64.0602	4,141.11	66.0995	4,141.11	57.6711	4,141.11	58.9965	4,141.11	63.1624
4,287.6	87.2747	4,287.6	88.4115	4,287.6	88.4303	4,287.6	88.6535	4,287.6	88.5694	4,287.6	86.7239	4,287.6	86.182	4,287.6	85.2318	4,287.6	84.7545	4,287.6	84.1499	4,287.6	83.987	4,287.6	81.7669	4,287.6	80.9839	4,287.6	78.3236	4,287.6	77.0396	4,287.6	74.2514	4,287.6	73.8538	4,287.6	71.4216	4,287.6	70.9357	4,287.6	69.9561	4,287.6	69.3632	4,287.6	68.9274	4,287.6	69.5559	4,287.6	66.4092	4,287.6	65.3044	4,287.6	64.915	4,287.6	65.4549	4,287.6	65.1512	4,287.6	63.8112	4,287.6	61.406	4,287.6	59.0256	4,287.6	57.8721	4,287.6	60.9633	4,287.6	63.0302	4,287.6	57.8783	4,287.6	58.5876
4,438.48	86.6649	4,438.48	87.9306	4,438.48	88.1962	4,438.48	88.1362	4,438.48	87.8806	4,438.48	86.3861	4,438.48	86.1773	4,438.48	86.0262	4,438.48	85.6631	4,438.48	84.3767	4,438.48	83.5001	4,438.48	79.7574	4,438.48	79.103	4,438.48	74.1701	4,438.48	73.6184	4,438.48	71.2382	4,438.48	71.2698	4,438.48	69.5929	4,438.48	69.5205	4,438.48	69.3784	4,438.48	68.1843	4,438.48	67.1639	4,438.48	67.3664	4,438.48	64.757	4,438.48	65.5459	4,438.48	64.7497	4,438.48	64.5404	4,438.48	62.1062	4,438.48	63.8431	4,438.48	61.6429	4,438.48	57.7579	4,438.48	61.9865	4,438.48	55.257	4,438.48	59.2456	4,438.48	57.6044	4,438.48	59.7015
4,595.21	86.2074	4,595.21	87.2744	4,595.21	87.3367	4,595.21	87.0987	4,595.21	86.9023	4,595.21	86.3888	4,595.21	85.8167	4,595.21	85.709	4,595.21	85.8361	4,595.21	83.0037	4,595.21	82.812	4,595.21	77.6387	4,595.21	76.4696	4,595.21	74.0616	4,595.21	73.3599	4,595.21	72.5426	4,595.21	71.9392	4,595.21	71.484	4,595.21	70.5048	4,595.21	68.2965	4,595.21	69.1548	4,595.21	67.4911	4,595.21	67.4697	4,595.21	65.8691	4,595.21	65.4385	4,595.21	65.7217	4,595.21	64.627	4,595.21	62.5419	4,595.21	62.2295	4,595.21	56.6934	4,595.21	60.7062	4,595.21	61.38	4,595.21	65.0565	4,595.21	58.7189	4,595.21	56.4887	4,595.21	58.8386
4,756.35	86.716	4,756.35	87.0923	4,756.35	87.2967	4,756.35	86.4107	4,756.35	86.5883	4,756.35	86.8386	4,756.35	87.1698	4,756.35	86.5192	4,756.35	86.2178	4,756.35	81.2849	4,756.35	80.6858	4,756.35	75.515	4,756.35	76.6083	4,756.35	74.9524	4,756.35	76.8234	4,756.35	74.6766	4,756.35	75.3254	4,756.35	73.8791	4,756.35	73.6196	4,756.35	72.5931	4,756.35	71.4885	4,756.35	69.367	4,756.35	68.8596	4,756.35	67.8427	4,756.35	68.7436	4,756.35	66.5255	4,756.35	68.5015	4,756.35	65.5945	4,756.35	65.4401	4,756.35	61.9012	4,756.35	58.009	4,756.35	63.8471	4,756.35	63.3235	4,756.35	62.818	4,756.35	60.3681	4,756.35	60.2904
4,924.8	88.1362	4,924.8	86.9294	4,924.8	86.697	4,924.8	86.7211	4,924.8	86.4428	4,924.8	88.5487	4,924.8	88.3714	4,924.8	87.0651	4,924.8	85.9953	4,924.8	82.1986	4,924.8	81.0466	4,924.8	81.1051	4,924.8	80.4115	4,924.8	79.8549	4,924.8	79.2182	4,924.8	76.2625	4,924.8	76.023	4,924.8	71.7004	4,924.8	73.268	4,924.8	68.9762	4,924.8	70.1979	4,924.8	66.7552	4,924.8	66.4214	4,924.8	64.99	4,924.8	67.7844	4,924.8	64.1443	4,924.8	65.9094	4,924.8	62.1971	4,924.8	61.264	4,924.8	59.4768	4,924.8	60.1987	4,924.8	62.2076	4,924.8	61.1317	4,924.8	59.3468	4,924.8	58.0876	4,924.8	60.2147
5,097.66	88.9351	5,097.66	87.3035	5,097.66	87.1121	5,097.66	87.1467	5,097.66	87.7774	5,097.66	89.0521	5,097.66	88.9764	5,097.66	86.6005	5,097.66	86.2783	5,097.66	83.2256	5,097.66	83.7384	5,097.66	83.0946	5,097.66	82.2894	5,097.66	81.1008	5,097.66	79.2532	5,097.66	76.4487	5,097.66	74.6749	5,097.66	73.8472	5,097.66	71.3619	5,097.66	67.7138	5,097.66	65.7007	5,097.66	65.9746	5,097.66	63.9916	5,097.66	63.2343	5,097.66	64.1949	5,097.66	61.7499	5,097.66	61.8855	5,097.66	57.5576	5,097.66	58.1304	5,097.66	63.0316	5,097.66	62.3772	5,097.66	60.4767	5,097.66	60.5304	5,097.66	52.6708	5,097.66	48.3218	5,097.66	58.3368
5,277.83	90.0911	5,277.83	89.0338	5,277.83	89.1444	5,277.83	89.3142	5,277.83	89.3955	5,277.83	89.6654	5,277.83	89.6608	5,277.83	87.0482	5,277.83	86.5416	5,277.83	85.5552	5,277.83	85.1305	5,277.83	83.2989	5,277.83	82.7401	5,277.83	78.269	5,277.83	77.8572	5,277.83	73.8825	5,277.83	73.3113	5,277.83	70.239	5,277.83	69.1677	5,277.83	67.3332	5,277.83	68.1202	5,277.83	65.8284	5,277.83	66.1635	5,277.83	62.7294	5,277.83	61.8201	5,277.83	58.5539	5,277.83	59.7482	5,277.83	62.9966	5,277.83	58.2572	5,277.83	57.9665	5,277.83	60.6751	5,277.83	60.3393	5,277.83	58.8474	5,277.83	58.1527	5,277.83	57.0283	5,277.83	51.1867
5,463.87	90.4444	5,463.87	89.7243	5,463.87	89.3541	5,463.87	89.7335	5,463.87	90.0731	5,463.87	89.6182	5,463.87	89.0392	5,463.87	87.4518	5,463.87	87.3876	5,463.87	86.9843	5,463.87	86.603	5,463.87	84.1827	5,463.87	83.2398	5,463.87	80.0821	5,463.87	78.5675	5,463.87	75.0573	5,463.87	73.0798	5,463.87	71.133	5,463.87	69.8489	5,463.87	64.2689	5,463.87	66.6668	5,463.87	62.517	5,463.87	66.1445	5,463.87	65.5745	5,463.87	65.6018	5,463.87	59.9732	5,463.87	43.0336	5,463.87	57.7541	5,463.87	59.0689	5,463.87	56.9196	5,463.87	61.5806	5,463.87	62.8291	5,463.87	61.131	5,463.87	58.8862	5,463.87	59.5317	5,463.87	50.269
5,657.23	89.1488	5,657.23	89.4098	5,657.23	89.3338	5,657.23	89.8593	5,657.23	89.9016	5,657.23	88.2238	5,657.23	88.7509	5,657.23	87.8155	5,657.23	87.9822	5,657.23	86.6624	5,657.23	86.6292	5,657.23	81.9517	5,657.23	82.4764	5,657.23	75.3975	5,657.23	76.9253	5,657.23	72.4926	5,657.23	74.3311	5,657.23	69.1391	5,657.23	71.5377	5,657.23	69.7047	5,657.23	67.5921	5,657.23	63.8991	5,657.23	64.6496	5,657.23	64.9136	5,657.23	65.3642	5,657.23	62.8322	5,657.23	59.0129	5,657.23	65.1968	5,657.23	59.6675	5,657.23	56.0713	5,657.23	60.8374	5,657.23	62.4037	5,657.23	60.1218	5,657.23	62.0867	5,657.23	61.7665	5,657.23	48.2442
5,856.45	88.09	5,856.45	89.835	5,856.45	89.8545	5,856.45	90.0025	5,856.45	89.8525	5,856.45	88.218	5,856.45	87.7182	5,856.45	88.5936	5,856.45	88.2809	5,856.45	86.879	5,856.45	86.7434	5,856.45	83.2237	5,856.45	82.3512	5,856.45	80.2645	5,856.45	79.4193	5,856.45	77.1494	5,856.45	76.8039	5,856.45	73.7205	5,856.45	72.9637	5,856.45	70.4419	5,856.45	69.0757	5,856.45	66.4319	5,856.45	66.4789	5,856.45	65.5497	5,856.45	63.7512	5,856.45	61.8122	5,856.45	64.2299	5,856.45	60.6617	5,856.45	60.8167	5,856.45	53.248	5,856.45	60.8394	5,856.45	62.8917	5,856.45	63.2193	5,856.45	62.66	5,856.45	61.6429	5,856.45	45.7587
6,062.99	89.5665	6,062.99	91.2559	6,062.99	91.6966	6,062.99	90.7539	6,062.99	90.4402	6,062.99	88.9853	6,062.99	89.1967	6,062.99	89.2924	6,062.99	89.1656	6,062.99	86.5569	6,062.99	86.2722	6,062.99	83.885	6,062.99	83.4732	6,062.99	81.0457	6,062.99	80.3665	6,062.99	76.5404	6,062.99	76.6196	6,062.99	73.7023	6,062.99	74.4288	6,062.99	71.0133	6,062.99	71.3043	6,062.99	68.5899	6,062.99	65.511	6,062.99	65.6312	6,062.99	63.2126	6,062.99	65.1454	6,062.99	65.6238	6,062.99	60.2807	6,062.99	60.1005	6,062.99	57.9904	6,062.99	63.1903	6,062.99	63.9943	6,062.99	64.0075	6,062.99	62.5458	6,062.99	62.8384	6,062.99	49.0155
6,276.86	89.9186	6,276.86	91.4224	6,276.86	91.566	6,276.86	90.8641	6,276.86	90.7825	6,276.86	89.7283	6,276.86	89.2638	6,276.86	89.3626	6,276.86	89.0347	6,276.86	87.0612	6,276.86	86.8091	6,276.86	85.1628	6,276.86	84.6447	6,276.86	81.5913	6,276.86	81.4457	6,276.86	77.6149	6,276.86	76.9768	6,276.86	74.6299	6,276.86	73.7889	6,276.86	71.5288	6,276.86	71.6111	6,276.86	69.8178	6,276.86	67.6039	6,276.86	63.2055	6,276.86	63.7767	6,276.86	65.259	6,276.86	65.96	6,276.86	62.9674	6,276.86	61.5921	6,276.86	60.4881	6,276.86	61.9212	6,276.86	63.1271	6,276.86	61.2119	6,276.86	62.0999	6,276.86	60.9347	6,276.86	52.0921
6,498.05	90.5236	6,498.05	91.9703	6,498.05	92.0593	6,498.05	91.4318	6,498.05	91.0279	6,498.05	89.9893	6,498.05	89.784	6,498.05	88.9791	6,498.05	88.7477	6,498.05	87.7136	6,498.05	86.9435	6,498.05	84.9115	6,498.05	84.7777	6,498.05	80.6964	6,498.05	80.3332	6,498.05	77.1359	6,498.05	75.2519	6,498.05	73.6621	6,498.05	73.2018	6,498.05	70.4378	6,498.05	72.2343	6,498.05	67.6454	6,498.05	67.0702	6,498.05	64.3479	6,498.05	64.1694	6,498.05	67.9446	6,498.05	64.1218	6,498.05	61.5421	6,498.05	60.0486	6,498.05	59.3748	6,498.05	62.4484	6,498.05	62.0478	6,498.05	62.2727	6,498.05	61.0304	6,498.05	61.3294	6,498.05	54.305
6,726.56	90.5923	6,726.56	91.7115	6,726.56	92.0053	6,726.56	91.5047	6,726.56	91.267	6,726.56	90.2854	6,726.56	89.8818	6,726.56	89.5728	6,726.56	89.3338	6,726.56	88.2958	6,726.56	88.1528	6,726.56	85.1079	6,726.56	84.6545	6,726.56	80.4834	6,726.56	80.9751	6,726.56	76.9316	6,726.56	76.38	6,726.56	73.5049	6,726.56	73.8859	6,726.56	70.3398	6,726.56	70.4333	6,726.56	67.572	6,726.56	68.7417	6,726.56	64.9907	6,726.56	65.9619	6,726.56	67.205	6,726.56	66.6151	6,726.56	64.3971	6,726.56	60.586	6,726.56	60.4903	6,726.56	63.1079	6,726.56	59.6159	6,726.56	62.9227	6,726.56	61.2397	6,726.56	58.3316	6,726.56	59.1649
6,963.87	90.9143	6,963.87	90.9293	6,963.87	91.2301	6,963.87	91.2094	6,963.87	91.1776	6,963.87	89.6881	6,963.87	89.5613	6,963.87	88.7522	6,963.87	88.7942	6,963.87	87.1298	6,963.87	86.7537	6,963.87	83.5669	6,963.87	83.5772	6,963.87	80.9879	6,963.87	80.592	6,963.87	76.9767	6,963.87	77.085	6,963.87	74.6099	6,963.87	73.8077	6,963.87	70.0492	6,963.87	68.4014	6,963.87	69.0669	6,963.87	67.9276	6,963.87	67.0764	6,963.87	66.4772	6,963.87	66.5816	6,963.87	64.7782	6,963.87	65.2319	6,963.87	63.4438	6,963.87	61.7328	6,963.87	61.454	6,963.87	60.2757	6,963.87	62.9256	6,963.87	60.0149	6,963.87	60.9627	6,963.87	56.5301
7,209.96	90.6321	7,209.96	90.3348	7,209.96	90.2823	7,209.96	91.1416	7,209.96	90.8154	7,209.96	89.6641	7,209.96	89.0778	7,209.96	89.2899	7,209.96	88.5047	7,209.96	86.7496	7,209.96	86.3428	7,209.96	84.9425	7,209.96	83.7194	7,209.96	81.8279	7,209.96	80.1953	7,209.96	77.014	7,209.96	75.0984	7,209.96	71.6211	7,209.96	71.5172	7,209.96	68.7337	7,209.96	68.0968	7,209.96	64.1767	7,209.96	65.7594	7,209.96	63.6568	7,209.96	65.8843	7,209.96	63.0796	7,209.96	62.5495	7,209.96	60.9642	7,209.96	61.3767	7,209.96	63.2803	7,209.96	61.6937	7,209.96	58.4095	7,209.96	60.1602	7,209.96	58.9014	7,209.96	59.2848	7,209.96	57.104
7,464.84	89.6066	7,464.84	89.7342	7,464.84	89.6216	7,464.84	89.8724	7,464.84	89.8505	7,464.84	88.9183	7,464.84	88.9818	7,464.84	88.1408	7,464.84	87.7051	7,464.84	86.4857	7,464.84	86.4585	7,464.84	83.5341	7,464.84	83.1841	7,464.84	78.517	7,464.84	78.6658	7,464.84	75.545	7,464.84	75.5405	7,464.84	72.0635	7,464.84	71.2001	7,464.84	68.5507	7,464.84	67.5082	7,464.84	63.6655	7,464.84	61.7418	7,464.84	63.7364	7,464.84	63.4344	7,464.84	64.3391	7,464.84	60.7087	7,464.84	61.9291	7,464.84	59.1542	7,464.84	59.3022	7,464.84	61.5186	7,464.84	59.2881	7,464.84	61.6128	7,464.84	58.5348	7,464.84	57.064	7,464.84	57.1879
7,727.05	89.6382	7,727.05	88.7419	7,727.05	88.615	7,727.05	89.2279	7,727.05	89.1733	7,727.05	88.0597	7,727.05	88.0811	7,727.05	87.188	7,727.05	86.9588	7,727.05	85.6581	7,727.05	85.4815	7,727.05	82.5182	7,727.05	81.8966	7,727.05	78.9322	7,727.05	77.9357	7,727.05	75.9651	7,727.05	73.6446	7,727.05	72.3527	7,727.05	69.5052	7,727.05	66.3062	7,727.05	67.3305	7,727.05	65.3811	7,727.05	63.0366	7,727.05	63.0922	7,727.05	64.2278	7,727.05	58.7912	7,727.05	59.4359	7,727.05	59.7326	7,727.05	60.8766	7,727.05	61.3335	7,727.05	60.976	7,727.05	53.3173	7,727.05	59.3412	7,727.05	53.9547	7,727.05	50.7524	7,727.05	52.8585
7,999.51	89.3397	7,999.51	88.1135	7,999.51	88.0819	7,999.51	89.3673	7,999.51	89.0824	7,999.51	88.4668	7,999.51	88.1792	7,999.51	87.1414	7,999.51	86.1059	7,999.51	85.3803	7,999.51	84.6119	7,999.51	83.0859	7,999.51	81.6817	7,999.51	78.5617	7,999.51	77.5654	7,999.51	74.9049	7,999.51	72.9691	7,999.51	70.258	7,999.51	69.8708	7,999.51	65.8387	7,999.51	66.6517	7,999.51	63.7367	7,999.51	64.1533	7,999.51	64.5463	7,999.51	65.2242	7,999.51	58.8253	7,999.51	55.9976	7,999.51	59.8146	7,999.51	59.7506	7,999.51	57.5458	7,999.51	58.0397	7,999.51	51.7318	7,999.51	58.3851	7,999.51	51.3872	7,999.51	50.2629	7,999.51	51.8885
8,282.23	88.7603	8,282.23	87.6024	8,282.23	87.4048	8,282.23	87.9596	8,282.23	88.028	8,282.23	87.9253	8,282.23	87.4466	8,282.23	85.5885	8,282.23	84.828	8,282.23	84.2237	8,282.23	84.1865	8,282.23	81.4192	8,282.23	81.3311	8,282.23	77.3493	8,282.23	77.6036	8,282.23	73.924	8,282.23	72.6485	8,282.23	69.1675	8,282.23	69.0793	8,282.23	66.1911	8,282.23	65.8477	8,282.23	64.1118	8,282.23	63.4638	8,282.23	63.9356	8,282.23	63.224	8,282.23	59.1516	8,282.23	55.7006	8,282.23	60.2307	8,282.23	58.1972	8,282.23	58.2274	8,282.23	56.6289	8,282.23	53.6876	8,282.23	55.2321	8,282.23	51.4144	8,282.23	52.0606	8,282.23	47.1172
8,573.73	88.3524	8,573.73	87.2473	8,573.73	87.2905	8,573.73	87.3791	8,573.73	87.6003	8,573.73	87.5122	8,573.73	87.3986	8,573.73	85.2309	8,573.73	85.0298	8,573.73	83.7547	8,573.73	83.6045	8,573.73	81.2161	8,573.73	81.1901	8,573.73	76.9867	8,573.73	77.7277	8,573.73	72.5774	8,573.73	72.4983	8,573.73	69.2844	8,573.73	69.0326	8,573.73	63.7213	8,573.73	63.09	8,573.73	64.7503	8,573.73	64.5489	8,573.73	62.645	8,573.73	62.1173	8,573.73	57.6816	8,573.73	57.7819	8,573.73	57.847	8,573.73	57.5004	8,573.73	57.7702	8,573.73	58.8152	8,573.73	51.0087	8,573.73	55.2629	8,573.73	52.2934	8,573.73	49.7807	8,573.73	47.5282
8,876.95	87.6207	8,876.95	86.863	8,876.95	86.7232	8,876.95	86.6888	8,876.95	86.7128	8,876.95	87.0329	8,876.95	86.4805	8,876.95	85.1583	8,876.95	84.3097	8,876.95	83.2082	8,876.95	82.1105	8,876.95	81.2775	8,876.95	80.1057	8,876.95	77.2338	8,876.95	75.484	8,876.95	71.7062	8,876.95	69.7745	8,876.95	68.0401	8,876.95	66.7244	8,876.95	65.3053	8,876.95	63.9305	8,876.95	64.8804	8,876.95	63.8518	8,876.95	60.9868	8,876.95	60.1608	8,876.95	58.0124	8,876.95	56.7474	8,876.95	55.9874	8,876.95	55.8384	8,876.95	56.1513	8,876.95	58.3009	8,876.95	47.4769	8,876.95	55.6061	8,876.95	51.8478	8,876.95	35.4212	8,876.95	50.4055
9,188.96	88.1281	9,188.96	87.3363	9,188.96	87.0756	9,188.96	86.9813	9,188.96	87.132	9,188.96	87.0532	9,188.96	86.522	9,188.96	85.5705	9,188.96	84.6291	9,188.96	82.9772	9,188.96	82.4031	9,188.96	81.1647	9,188.96	79.348	9,188.96	76.5489	9,188.96	74.9003	9,188.96	72.309	9,188.96	72.1212	9,188.96	67.8194	9,188.96	67.6449	9,188.96	66.7043	9,188.96	65.3207	9,188.96	64.8702	9,188.96	64.0184	9,188.96	60.8005	9,188.96	60.3229	9,188.96	57.836	9,188.96	58.4573	9,188.96	54.8945	9,188.96	54.7687	9,188.96	52.0953	9,188.96	59.439	9,188.96	50.9427	9,188.96	54.6846	9,188.96	51.0146	9,188.96	45.5545	9,188.96	53.7182
9,514.16	88.231	9,514.16	87.3856	9,514.16	87.0747	9,514.16	87.1609	9,514.16	87.173	9,514.16	87.0387	9,514.16	86.3597	9,514.16	85.4145	9,514.16	84.3526	9,514.16	82.8805	9,514.16	82.5206	9,514.16	80.4315	9,514.16	79.0332	9,514.16	76.8734	9,514.16	75.9	9,514.16	73.5241	9,514.16	72.1349	9,514.16	68.5716	9,514.16	67.6556	9,514.16	67.8838	9,514.16	66.4226	9,514.16	66.3929	9,514.16	64.2934	9,514.16	60.3737	9,514.16	59.7698	9,514.16	57.8491	9,514.16	58.4196	9,514.16	55.3823	9,514.16	55.9985	9,514.16	51.8385	9,514.16	59.598	9,514.16	52.2828	9,514.16	52.0926	9,514.16	56.1748	9,514.16	54.3934	9,514.16	55.6771
9,849.61	88.8013	9,849.61	87.8358	9,849.61	87.5862	9,849.61	87.4382	9,849.61	87.4467	9,849.61	87.2288	9,849.61	86.9335	9,849.61	85.8141	9,849.61	84.5514	9,849.61	83.6127	9,849.61	82.2113	9,849.61	80.6722	9,849.61	79.6025	9,849.61	78.0877	9,849.61	75.7096	9,849.61	73.8016	9,849.61	71.669	9,849.61	67.6792	9,849.61	66.6318	9,849.61	67.0289	9,849.61	65.8413	9,849.61	64.6635	9,849.61	62.9729	9,849.61	59.848	9,849.61	58.4855	9,849.61	55.8347	9,849.61	57.7714	9,849.61	55.863	9,849.61	55.5975	9,849.61	44.2622	9,849.61	57.9349	9,849.61	54.1416	9,849.61	54.7234	9,849.61	54.3431	9,849.61	52.0171	9,849.61	55.2792
10,196.8	88.9192	10,196.8	88.3665	10,196.8	87.8837	10,196.8	87.6613	10,196.8	87.4812	10,196.8	87.9687	10,196.8	87.4417	10,196.8	85.8805	10,196.8	84.89	10,196.8	83.1127	10,196.8	82.0431	10,196.8	81.2398	10,196.8	80.4885	10,196.8	77.0859	10,196.8	75.307	10,196.8	72.7001	10,196.8	72.6229	10,196.8	68.0602	10,196.8	67.6707	10,196.8	66.8596	10,196.8	66.1141	10,196.8	64.1528	10,196.8	61.7347	10,196.8	59.4557	10,196.8	56.3755	10,196.8	54.578	10,196.8	58.2702	10,196.8	54.7297	10,196.8	53.9918	10,196.8	46.3322	10,196.8	55.7921	10,196.8	51.5847	10,196.8	45.195	10,196.8	50.0023	10,196.8	55.5585	10,196.8	54.125
10,555.7	88.3163	10,555.7	87.9582	10,555.7	87.7802	10,555.7	87.311	10,555.7	87.1499	10,555.7	87.3643	10,555.7	86.8633	10,555.7	85.6401	10,555.7	84.7287	10,555.7	82.6047	10,555.7	81.9954	10,555.7	81.2423	10,555.7	80.4234	10,555.7	76.6383	10,555.7	76.8444	10,555.7	72.2533	10,555.7	70.8469	10,555.7	68.5758	10,555.7	67.64	10,555.7	66.2935	10,555.7	65.2424	10,555.7	65.1847	10,555.7	61.1034	10,555.7	59.4045	10,555.7	57.2272	10,555.7	51.9797	10,555.7	57.7792	10,555.7	54.1524	10,555.7	54.8268	10,555.7	50.1492	10,555.7	56.5617	10,555.7	48.5088	10,555.7	51.8328	10,555.7	52.0275	10,555.7	54.1973	10,555.7	54.5598
10,927.7	87.292	10,927.7	87.2512	10,927.7	87.2994	10,927.7	86.6005	10,927.7	86.5384	10,927.7	86.4894	10,927.7	86.4825	10,927.7	84.9357	10,927.7	84.259	10,927.7	81.8154	10,927.7	81.7969	10,927.7	80.2498	10,927.7	79.8364	10,927.7	76.5652	10,927.7	76.0896	10,927.7	71.0151	10,927.7	71.0923	10,927.7	67.4486	10,927.7	66.8022	10,927.7	65.1491	10,927.7	65.4069	10,927.7	62.1915	10,927.7	61.208	10,927.7	58.8913	10,927.7	55.9116	10,927.7	51.4974	10,927.7	60.0413	10,927.7	54.0445	10,927.7	52.7611	10,927.7	51.5777	10,927.7	56.7358	10,927.7	51.8856	10,927.7	53.4911	10,927.7	51.2102	10,927.7	51.6352	10,927.7	54.4726
11,313	87.3009	11,313	87.5198	11,313	87.562	11,313	86.3325	11,313	86.4837	11,313	86.4006	11,313	86.7144	11,313	85.1298	11,313	84.6129	11,313	81.7801	11,313	82.1396	11,313	79.9601	11,313	79.8914	11,313	75.7245	11,313	75.6539	11,313	71.5942	11,313	72.2265	11,313	68.4621	11,313	68.1268	11,313	65.5037	11,313	65.4963	11,313	62.9469	11,313	62.8819	11,313	55.9872	11,313	57.558	11,313	53.8266	11,313	61.3819	11,313	50.2316	11,313	51.9975	11,313	52.663	11,313	56.166	11,313	50.1826	11,313	55.7664	11,313	53.5587	11,313	54.6527	11,313	55.1713
11,712.9	87.7335	11,712.9	88.1511	11,712.9	88.1651	11,712.9	86.8921	11,712.9	86.8905	11,712.9	86.2509	11,712.9	86.7656	11,712.9	84.9507	11,712.9	84.9012	11,712.9	81.7346	11,712.9	81.694	11,712.9	79.2796	11,712.9	79.5649	11,712.9	76.2075	11,712.9	76.2724	11,712.9	72.8604	11,712.9	72.1938	11,712.9	68.0757	11,712.9	68.0111	11,712.9	64.127	11,712.9	65.0678	11,712.9	61.3808	11,712.9	61.068	11,712.9	54.8154	11,712.9	55.2347	11,712.9	52.04	11,712.9	60.3736	11,712.9	48.4995	11,712.9	51.0615	11,712.9	53.2157	11,712.9	55.3472	11,712.9	52.9283	11,712.9	55.4304	11,712.9	56.4105	11,712.9	54.9379	11,712.9	55.3449
12,126	87.6981	12,126	87.6747	12,126	87.5169	12,126	86.2334	12,126	86.2438	12,126	85.8652	12,126	86.4532	12,126	84.7702	12,126	84.7149	12,126	81.3978	12,126	81.9532	12,126	77.9792	12,126	78.4486	12,126	75.8526	12,126	75.633	12,126	68.6105	12,126	69.4547	12,126	63.9853	12,126	66.172	12,126	61.7433	12,126	60.5387	12,126	58.6621	12,126	58.5105	12,126	52.4442	12,126	54.3485	12,126	47.1477	12,126	58.4773	12,126	49.146	12,126	50.9683	12,126	49.1313	12,126	54.3842	12,126	51.4728	12,126	57.8956	12,126	53.6791	12,126	53.7206	12,126	54.2515
12,553.7	86.6841	12,553.7	86.5584	12,553.7	86.5102	12,553.7	84.6356	12,553.7	84.8747	12,553.7	84.3422	12,553.7	84.9985	12,553.7	83.3613	12,553.7	83.5889	12,553.7	80.2347	12,553.7	80.5514	12,553.7	77.0875	12,553.7	77.7094	12,553.7	72.375	12,553.7	73.3409	12,553.7	68.5124	12,553.7	68.6076	12,553.7	65.2964	12,553.7	66.9844	12,553.7	62.3716	12,553.7	61.7258	12,553.7	57.8957	12,553.7	58.7447	12,553.7	54.0415	12,553.7	54.2762	12,553.7	51.2399	12,553.7	57.5519	12,553.7	46.5175	12,553.7	50.6624	12,553.7	53.2564	12,553.7	53.7284	12,553.7	48.4078	12,553.7	57.0811	12,553.7	53.1393	12,553.7	48.9997	12,553.7	52.429
12,996.1	84.758	12,996.1	84.6867	12,996.1	85.0533	12,996.1	82.7986	12,996.1	83.7333	12,996.1	82.036	12,996.1	83.3644	12,996.1	81.2341	12,996.1	82.6059	12,996.1	76.472	12,996.1	79.0255	12,996.1	75.1228	12,996.1	76.1586	12,996.1	69.6984	12,996.1	72.2061	12,996.1	69.7629	12,996.1	70.084	12,996.1	65.1884	12,996.1	65.9804	12,996.1	60.9053	12,996.1	60.7454	12,996.1	56.0847	12,996.1	57.263	12,996.1	52.1405	12,996.1	53.9601	12,996.1	50.3157	12,996.1	57.8552	12,996.1	46.2386	12,996.1	48.0487	12,996.1	54.1956	12,996.1	52.2579	12,996.1	43.5268	12,996.1	54.3888	12,996.1	54.639	12,996.1	51.0791	12,996.1	52.516
13,454.6	84.2458	13,454.6	84.3435	13,454.6	84.6146	13,454.6	82.5719	13,454.6	83.2989	13,454.6	81.7018	13,454.6	82.6212	13,454.6	80.8979	13,454.6	81.7628	13,454.6	76.4564	13,454.6	78.4459	13,454.6	72.8126	13,454.6	73.8676	13,454.6	71.7821	13,454.6	72.4173	13,454.6	65.3276	13,454.6	65.7415	13,454.6	57.0306	13,454.6	60.7424	13,454.6	54.5318	13,454.6	56.7324	13,454.6	52.6299	13,454.6	53.7174	13,454.6	49.8229	13,454.6	47.207	13,454.6	45.3199	13,454.6	53.8961	13,454.6	43.4293	13,454.6	42.1188	13,454.6	49.0057	13,454.6	48.1538	13,454.6	43.7528	13,454.6	44.0377	13,454.6	52.4219	13,454.6	49.9111	13,454.6	48.318
13,929.2	84.1214	13,929.2	84.3131	13,929.2	84.0346	13,929.2	82.3377	13,929.2	82.5519	13,929.2	81.4781	13,929.2	81.9391	13,929.2	80.8332	13,929.2	80.6595	13,929.2	77.6034	13,929.2	78.0873	13,929.2	73.346	13,929.2	73.2909	13,929.2	70.3768	13,929.2	69.622	13,929.2	65.0483	13,929.2	65.41	13,929.2	61.5544	13,929.2	61.8014	13,929.2	58.4542	13,929.2	58.4238	13,929.2	53.3056	13,929.2	53.7516	13,929.2	45.4465	13,929.2	43.8996	13,929.2	43.4928	13,929.2	53.9052	13,929.2	41.625	13,929.2	37.907	13,929.2	43.2424	13,929.2	38.2798	13,929.2	41.6452	13,929.2	44.7983	13,929.2	51.1947	13,929.2	46.3436	13,929.2	48.3961
14,419.9	84.4825	14,419.9	84.2922	14,419.9	84.1835	14,419.9	82.3687	14,419.9	82.2651	14,419.9	81.9192	14,419.9	82.3156	14,419.9	80.8849	14,419.9	80.3455	14,419.9	76.839	14,419.9	77.0659	14,419.9	74.3857	14,419.9	73.7529	14,419.9	67.9628	14,419.9	68.3039	14,419.9	67.1296	14,419.9	66.8234	14,419.9	60.5899	14,419.9	61.507	14,419.9	57.2138	14,419.9	56.7326	14,419.9	49.0578	14,419.9	51.0498	14,419.9	36.4238	14,419.9	46.7204	14,419.9	44.3925	14,419.9	48.6329	14,419.9	32.3048	14,419.9	27.6852	14,419.9	34.4528	14,419.9	39.136	14,419.9	44.924	14,419.9	44.1951	14,419.9	52.8409	14,419.9	51.2096	14,419.9	50.098
14,928.2	84.9917	14,928.2	84.9615	14,928.2	84.9906	14,928.2	83.3336	14,928.2	83.3165	14,928.2	82.1123	14,928.2	82.6834	14,928.2	80.9641	14,928.2	80.9518	14,928.2	76.2607	14,928.2	77.1852	14,928.2	73.8172	14,928.2	72.2162	14,928.2	69.5662	14,928.2	69.4776	14,928.2	64.114	14,928.2	64.697	14,928.2	58.6762	14,928.2	60.1342	14,928.2	55.1569	14,928.2	54.9834	14,928.2	52.3696	14,928.2	52.4251	14,928.2	44.5426	14,928.2	50.0545	14,928.2	46.8476	14,928.2	49.0688	14,928.2	39.419	14,928.2	33.575	14,928.2	46.1741	14,928.2	45.6393	14,928.2	45.5011	14,928.2	47.0414	14,928.2	53.8562	14,928.2	53.4082	14,928.2	49.1819
15,455.6	85.7941	15,455.6	85.8138	15,455.6	85.5189	15,455.6	84.2289	15,455.6	84.4429	15,455.6	82.5521	15,455.6	83.152	15,455.6	81.1437	15,455.6	80.8658	15,455.6	76.8018	15,455.6	77.6157	15,455.6	72.5584	15,455.6	72.5484	15,455.6	68.6279	15,455.6	67.4081	15,455.6	63.9658	15,455.6	64.4666	15,455.6	56.1531	15,455.6	56.1626	15,455.6	55.1154	15,455.6	53.3099	15,455.6	49.3946	15,455.6	49.265	15,455.6	41.6907	15,455.6	43.6292	15,455.6	46.8624	15,455.6	47.5935	15,455.6	39.7628	15,455.6	32.6255	15,455.6	45.513	15,455.6	44.8839	15,455.6	44.3347	15,455.6	42.3329	15,455.6	51.8993	15,455.6	49.4081	15,455.6	44.2656
16,000.5	85.9165	16,000.5	85.5511	16,000.5	85.5314	16,000.5	83.8459	16,000.5	84.259	16,000.5	81.6986	16,000.5	82.722	16,000.5	80.2201	16,000.5	80.6581	16,000.5	75.215	16,000.5	77.5473	16,000.5	69.8234	16,000.5	72.2073	16,000.5	64.6194	16,000.5	65.0193	16,000.5	61.8831	16,000.5	62.2507	16,000.5	56.5056	16,000.5	57.7533	16,000.5	54.925	16,000.5	54.9357	16,000.5	45.5331	16,000.5	49.1691	16,000.5	39.4355	16,000.5	45.9283	16,000.5	49.1787	16,000.5	49.6501	16,000.5	41.6947	16,000.5	36.4909	16,000.5	40.3446	16,000.5	38.4564	16,000.5	45.3775	16,000.5	41.6714	16,000.5	50.9408	16,000.5	45.4453	16,000.5	42.6076
16,564.5	84.6316	16,564.5	83.6088	16,564.5	84.0784	16,564.5	81.6454	16,564.5	82.727	16,564.5	79.4051	16,564.5	80.8038	16,564.5	76.8859	16,564.5	78.1019	16,564.5	70.6161	16,564.5	74.1897	16,564.5	65.8259	16,564.5	70.2338	16,564.5	62.5429	16,564.5	63.7318	16,564.5	58.8759	16,564.5	60.7697	16,564.5	47.4743	16,564.5	54.9982	16,564.5	47.9546	16,564.5	51.3637	16,564.5	25.3906	16,564.5	45.9068	16,564.5	37.522	16,564.5	42.2974	16,564.5	47.1988	16,564.5	41.3578	16,564.5	42.3959	16,564.5	39.6081	16,564.5	40.033	16,564.5	30.1904	16,564.5	41.3326	16,564.5	43.7273	16,564.5	48.7051	16,564.5	42.9483	16,564.5	39.5809
17,148.9	80.9708	17,148.9	79.9939	17,148.9	80.37	17,148.9	77.9073	17,148.9	78.4502	17,148.9	75.0758	17,148.9	76.3097	17,148.9	72.7267	17,148.9	72.9569	17,148.9	66.8156	17,148.9	67.9462	17,148.9	62.1638	17,148.9	63.8468	17,148.9	59.8394	17,148.9	60.3828	17,148.9	51.0435	17,148.9	50.6675	17,148.9	51.1219	17,148.9	46.8943	17,148.9	45.6075	17,148.9	41.6992	17,148.9	37.6506	17,148.9	39.2939	17,148.9	33.8274	17,148.9	40.3255	17,148.9	38.7732	17,148.9	44.5927	17,148.9	34.1577	17,148.9	35.0683	17,148.9	29.8624	17,148.9	36.213	17,148.9	38.3949	17,148.9	37.257	17,148.9	43.0949	17,148.9	39.9293	17,148.9	29.5815
17,752.4	76.2167	17,752.4	74.7481	17,752.4	75.7214	17,752.4	72.2633	17,752.4	73.2013	17,752.4	69.9374	17,752.4	70.9166	17,752.4	67.6473	17,752.4	67.5074	17,752.4	63.18	17,752.4	62.3944	17,752.4	59.9587	17,752.4	55.9023	17,752.4	56.0215	17,752.4	52.7003	17,752.4	51.8161	17,752.4	45.877	17,752.4	46.0379	17,752.4	45.0838	17,752.4	41.0052	17,752.4	44.8482	17,752.4	35.154	17,752.4	39.4882	17,752.4	23.6711	17,752.4	36.7875	17,752.4	27.5776	17,752.4	42.9469	17,752.4	28.0103	17,752.4	29.63	17,752.4	26.8946	17,752.4	35.5328	17,752.4	37.7084	17,752.4	32.7385	17,752.4	39.1138	17,752.4	30.2552	17,752.4	30.0617
18,379.4	71.1259	18,379.4	68.9949	18,379.4	70.8015	18,379.4	65.9572	18,379.4	67.685	18,379.4	65.313	18,379.4	66.3061	18,379.4	64.837	18,379.4	61.8814	18,379.4	62.9968	18,379.4	58.231	18,379.4	60.5863	18,379.4	51.8943	18,379.4	53.3735	18,379.4	45.5385	18,379.4	49.6523	18,379.4	42.3585	18,379.4	48.8463	18,379.4	36.2079	18,379.4	44.0673	18,379.4	37.5716	18,379.4	29.9208	18,379.4	33.7495	18,379.4	28.3076	18,379.4	28.9284	18,379.4	28.4149	18,379.4	40.2183	18,379.4	9.30201	18,379.4	30.5215	18,379.4	26.8265	18,379.4	38.8518	18,379.4	38.8872	18,379.4	31.235	18,379.4	41.4194	18,379.4	33.9146	18,379.4	32.835
19,026.9	64.7303	19,026.9	62.6644	19,026.9	63.1971	19,026.9	62.6507	19,026.9	60.103	19,026.9	64.8051	19,026.9	59.2617	19,026.9	65.6838	19,026.9	54.9643	19,026.9	63.9035	19,026.9	49.8993	19,026.9	61.2867	19,026.9	34.3527	19,026.9	55.196	19,026.9	38.6083	19,026.9	52.3819	19,026.9	44.1194	19,026.9	48.5727	19,026.9	32.112	19,026.9	43.722	19,026.9	33.2604	19,026.9	36.6133	19,026.9	29.9672	19,026.9	34.7323	19,026.9	29.9138	19,026.9	35.8891	19,026.9	39.7854	19,026.9	22.6217	19,026.9	33.3989	19,026.9	32.3042	19,026.9	34.8917	19,026.9	39.2328	19,026.9	30.7915	19,026.9	38.4376	19,026.9	38.7238	19,026.9	33.7736
19,697.8	57.5942	19,697.8	51.4548	19,697.8	52.7078	19,697.8	54.0034	19,697.8	57.3992	19,697.8	59.8085	19,697.8	58.4105	19,697.8	60.915	19,697.8	55.0827	19,697.8	60.1196	19,697.8	49.1489	19,697.8	58.0052	19,697.8	41.8725	19,697.8	54.0602	19,697.8	44.5259	19,697.8	46.3921	19,697.8	42.273	19,697.8	43.0307	19,697.8	33.2465	19,697.8	37.7871	19,697.8	37.9317	19,697.8	30.565	19,697.8	28.3883	19,697.8	35.0648	19,697.8	24.5196	19,697.8	32.3723	19,697.8	37.9335	19,697.8	28.7866	19,697.8	32.3872	19,697.8	22.3867	19,697.8	33.6807	19,697.8	26.6347	19,697.8	20.4234	19,697.8	35.0681	19,697.8	40.8679	19,697.8	35.6243
19,999.5	55.4708	19,999.5	41.8646	19,999.5	53.7877	19,999.5	43.4799	19,999.5	57.3563	19,999.5	54.4069	19,999.5	57.2809	19,999.5	57.4119	19,999.5	53.9921	19,999.5	56.9338	19,999.5	48.868	19,999.5	55.646	19,999.5	44.2469	19,999.5	51.0286	19,999.5	46.7199	19,999.5	45.0658	19,999.5	45.7654	19,999.5	38.288	19,999.5	28.8787	19,999.5	34.9143	19,999.5	43.5735	19,999.5	27.6497	19,999.5	13.5723	19,999.5	28.2785	19,999.5	28.2272	19,999.5	33.2914	19,999.5	38.1973	19,999.5	23.7923	19,999.5	32.285	19,999.5	22.2918	19,999.5	30.8905	19,999.5	27.0188	19,999.5	34.9223	19,999.5	34.5542	19,999.5	42.0494	19,999.5	34.1214
