"SPL Vertical"
"On-Axis"		"10°"		"-10°"		"20°"		"-20°"		"30°"		"-30°"		"40°"		"-40°"		"50°"		"-50°"		"60°"		"-60°"		"70°"		"-70°"		"80°"		"-80°"		"90°"		"-90°"		"100°"		"-100°"		"110°"		"-110°"		"120°"		"-120°"		"130°"		"-130°"		"140°"		"-140°"		"150°"		"-150°"		"160°"		"-160°"		"170°"		"-170°"		"180°"
"Frequency / Hz"	"Sound Pressure Level / dB (re 20 µPa/V)  [2.83  V @ 1. m]"	"Frequency / Hz"	"Sound Pressure Level / dB (re 20 µPa/V)  [2.83  V @ 1. m]"	"Frequency / Hz"	"Sound Pressure Level / dB (re 20 µPa/V)  [2.83  V @ 1. m]"	"Frequency / Hz"	"Sound Pressure Level / dB (re 20 µPa/V)  [2.83  V @ 1. m]"	"Frequency / Hz"	"Sound Pressure Level / dB (re 20 µPa/V)  [2.83  V @ 1. m]"	"Frequency / Hz"	"Sound Pressure Level / dB (re 20 µPa/V)  [2.83  V @ 1. m]"	"Frequency / Hz"	"Sound Pressure Level / dB (re 20 µPa/V)  [2.83  V @ 1. m]"	"Frequency / Hz"	"Sound Pressure Level / dB (re 20 µPa/V)  [2.83  V @ 1. m]"	"Frequency / Hz"	"Sound Pressure Level / dB (re 20 µPa/V)  [2.83  V @ 1. m]"	"Frequency / Hz"	"Sound Pressure Level / dB (re 20 µPa/V)  [2.83  V @ 1. m]"	"Frequency / Hz"	"Sound Pressure Level / dB (re 20 µPa/V)  [2.83  V @ 1. m]"	"Frequency / Hz"	"Sound Pressure Level / dB (re 20 µPa/V)  [2.83  V @ 1. m]"	"Frequency / Hz"	"Sound Pressure Level / dB (re 20 µPa/V)  [2.83  V @ 1. m]"	"Frequency / Hz"	"Sound Pressure Level / dB (re 20 µPa/V)  [2.83  V @ 1. m]"	"Frequency / Hz"	"Sound Pressure Level / dB (re 20 µPa/V)  [2.83  V @ 1. m]"	"Frequency / Hz"	"Sound Pressure Level / dB (re 20 µPa/V)  [2.83  V @ 1. m]"	"Frequency / Hz"	"Sound Pressure Level / dB (re 20 µPa/V)  [2.83  V @ 1. m]"	"Frequency / Hz"	"Sound Pressure Level / dB (re 20 µPa/V)  [2.83  V @ 1. m]"	"Frequency / Hz"	"Sound Pressure Level / dB (re 20 µPa/V)  [2.83  V @ 1. m]"	"Frequency / Hz"	"Sound Pressure Level / dB (re 20 µPa/V)  [2.83  V @ 1. m]"	"Frequency / Hz"	"Sound Pressure Level / dB (re 20 µPa/V)  [2.83  V @ 1. m]"	"Frequency / Hz"	"Sound Pressure Level / dB (re 20 µPa/V)  [2.83  V @ 1. m]"	"Frequency / Hz"	"Sound Pressure Level / dB (re 20 µPa/V)  [2.83  V @ 1. m]"	"Frequency / Hz"	"Sound Pressure Level / dB (re 20 µPa/V)  [2.83  V @ 1. m]"	"Frequency / Hz"	"Sound Pressure Level / dB (re 20 µPa/V)  [2.83  V @ 1. m]"	"Frequency / Hz"	"Sound Pressure Level / dB (re 20 µPa/V)  [2.83  V @ 1. m]"	"Frequency / Hz"	"Sound Pressure Level / dB (re 20 µPa/V)  [2.83  V @ 1. m]"	"Frequency / Hz"	"Sound Pressure Level / dB (re 20 µPa/V)  [2.83  V @ 1. m]"	"Frequency / Hz"	"Sound Pressure Level / dB (re 20 µPa/V)  [2.83  V @ 1. m]"	"Frequency / Hz"	"Sound Pressure Level / dB (re 20 µPa/V)  [2.83  V @ 1. m]"	"Frequency / Hz"	"Sound Pressure Level / dB (re 20 µPa/V)  [2.83  V @ 1. m]"	"Frequency / Hz"	"Sound Pressure Level / dB (re 20 µPa/V)  [2.83  V @ 1. m]"	"Frequency / Hz"	"Sound Pressure Level / dB (re 20 µPa/V)  [2.83  V @ 1. m]"	"Frequency / Hz"	"Sound Pressure Level / dB (re 20 µPa/V)  [2.83  V @ 1. m]"	"Frequency / Hz"	"Sound Pressure Level / dB (re 20 µPa/V)  [2.83  V @ 1. m]"	"Frequency / Hz"	"Sound Pressure Level / dB (re 20 µPa/V)  [2.83  V @ 1. m]"
20.5078	63.0124	20.5078	63.0214	20.5078	62.9861	20.5078	63.0128	20.5078	62.9434	20.5078	62.9872	20.5078	62.8859	20.5078	62.9456	20.5078	62.8157	20.5078	62.8896	20.5078	62.7352	20.5078	62.8212	20.5078	62.647	20.5078	62.7427	20.5078	62.554	20.5078	62.6566	20.5078	62.4586	20.5078	62.5653	20.5078	62.3635	20.5078	62.4717	20.5078	62.2713	20.5078	62.3783	20.5078	62.1846	20.5078	62.2876	20.5078	62.1059	20.5078	62.202	20.5078	62.038	20.5078	62.1239	20.5078	61.9832	20.5078	62.0553	20.5078	61.9435	20.5078	61.9983	20.5078	61.9204	20.5078	61.9548	20.5078	61.9148	20.5078	61.9265
21.9727	62.7822	21.9727	62.7689	21.9727	62.7813	21.9727	62.7419	21.9727	62.7659	21.9727	62.7023	21.9727	62.736	21.9727	62.651	21.9727	62.6921	21.9727	62.5897	21.9727	62.6353	21.9727	62.5199	21.9727	62.567	21.9727	62.4435	21.9727	62.4889	21.9727	62.3625	21.9727	62.4034	21.9727	62.2787	21.9727	62.3131	21.9727	62.1943	21.9727	62.2207	21.9727	62.1112	21.9727	62.1293	21.9727	62.0316	21.9727	62.0419	21.9727	61.9576	21.9727	61.9615	21.9727	61.8916	21.9727	61.8911	21.9727	61.8362	21.9727	61.8334	21.9727	61.794	21.9727	61.7908	21.9727	61.767	21.9727	61.765	21.9727	61.7571
23.4375	64.3134	23.4375	64.3049	23.4375	64.3052	23.4375	64.2798	23.4375	64.2809	23.4375	64.2392	23.4375	64.2418	23.4375	64.1847	23.4375	64.1899	23.4375	64.1188	23.4375	64.1274	23.4375	64.044	23.4375	64.0568	23.4375	63.9633	23.4375	63.9805	23.4375	63.8798	23.4375	63.901	23.4375	63.7961	23.4375	63.8208	23.4375	63.715	23.4375	63.7421	23.4375	63.6389	23.4375	63.6671	23.4375	63.5697	23.4375	63.5976	23.4375	63.5093	23.4375	63.5354	23.4375	63.459	23.4375	63.4819	23.4375	63.4198	23.4375	63.4382	23.4375	63.3924	23.4375	63.4054	23.4375	63.3773	23.4375	63.384	23.4375	63.3745
24.9023	65.1273	24.9023	65.1208	24.9023	65.1206	24.9023	65.1014	24.9023	65.1009	24.9023	65.0701	24.9023	65.0686	24.9023	65.028	24.9023	65.0248	24.9023	64.9766	24.9023	64.971	24.9023	64.9178	24.9023	64.9088	24.9023	64.8535	24.9023	64.8404	24.9023	64.7857	24.9023	64.7679	24.9023	64.7163	24.9023	64.6937	24.9023	64.6472	24.9023	64.6202	24.9023	64.5803	24.9023	64.5498	24.9023	64.5173	24.9023	64.4848	24.9023	64.4596	24.9023	64.4272	24.9023	64.4087	24.9023	64.3787	24.9023	64.3661	24.9023	64.3409	24.9023	64.3329	24.9023	64.3148	24.9023	64.3105	24.9023	64.3009	24.9023	64.2996
26.3672	65.5963	26.3672	65.5844	26.3672	65.5969	26.3672	65.5617	26.3672	65.5859	26.3672	65.529	26.3672	65.5633	26.3672	65.487	26.3672	65.5294	26.3672	65.4369	26.3672	65.4849	26.3672	65.3798	26.3672	65.4308	26.3672	65.3173	26.3672	65.3686	26.3672	65.2509	26.3672	65.3002	26.3672	65.1826	26.3672	65.2277	26.3672	65.1141	26.3672	65.1535	26.3672	65.0474	26.3672	65.0802	26.3672	64.9846	26.3672	65.0103	26.3672	64.9273	26.3672	64.9463	26.3672	64.8775	26.3672	64.8905	26.3672	64.8367	26.3672	64.8449	26.3672	64.8065	26.3672	64.8111	26.3672	64.7881	26.3672	64.7901	26.3672	64.7825
27.832	66.3111	27.832	66.301	27.832	66.3094	27.832	66.2794	27.832	66.2957	27.832	66.2468	27.832	66.2699	27.832	66.2038	27.832	66.2323	27.832	66.1511	27.832	66.1835	27.832	66.0898	27.832	66.1243	27.832	66.0212	27.832	66.0562	27.832	65.947	27.832	65.9808	27.832	65.8689	27.832	65.9002	27.832	65.7891	27.832	65.8169	27.832	65.7098	27.832	65.7335	27.832	65.6336	27.832	65.6528	27.832	65.563	27.832	65.5779	27.832	65.5005	27.832	65.5115	27.832	65.4488	27.832	65.4564	27.832	65.4102	27.832	65.4149	27.832	65.3866	27.832	65.3888	27.832	65.3792
29.2969	67.3884	29.2969	67.3791	29.2969	67.3827	29.2969	67.3553	29.2969	67.3624	29.2969	67.3176	29.2969	67.3277	29.2969	67.2672	29.2969	67.2798	29.2969	67.2056	29.2969	67.2199	29.2969	67.1344	29.2969	67.1496	29.2969	67.0558	29.2969	67.0708	29.2969	66.9717	29.2969	66.9856	29.2969	66.8846	29.2969	66.8966	29.2969	66.7968	29.2969	66.8063	29.2969	66.7108	29.2969	66.7173	29.2969	66.6288	29.2969	66.6327	29.2969	66.5535	29.2969	66.555	29.2969	66.4874	29.2969	66.4872	29.2969	66.4327	29.2969	66.4316	29.2969	66.3916	29.2969	66.3904	29.2969	66.3659	29.2969	66.3652	29.2969	66.357
30.7617	68.0123	30.7617	67.9997	30.7617	68.0119	30.7617	67.9744	30.7617	67.9985	30.7617	67.9372	30.7617	67.9723	30.7617	67.8892	30.7617	67.934	30.7617	67.8314	30.7617	67.8845	30.7617	67.7656	30.7617	67.8252	30.7617	67.6935	30.7617	67.7577	30.7617	67.6171	30.7617	67.6839	30.7617	67.5385	30.7617	67.6059	30.7617	67.46	30.7617	67.5261	30.7617	67.384	30.7617	67.4469	30.7617	67.3129	30.7617	67.3708	30.7617	67.2491	30.7617	67.3002	30.7617	67.1946	30.7617	67.2376	30.7617	67.1515	30.7617	67.1849	30.7617	67.1212	30.7617	67.1441	30.7617	67.105	30.7617	67.1167	30.7617	67.1034
32.2266	68.7958	32.2266	68.788	32.2266	68.7905	32.2266	68.7676	32.2266	68.7726	32.2266	68.7349	32.2266	68.7424	32.2266	68.6911	32.2266	68.7011	32.2266	68.6374	32.2266	68.6497	32.2266	68.5755	32.2266	68.5898	32.2266	68.5074	32.2266	68.5231	32.2266	68.4352	32.2266	68.4517	32.2266	68.3611	32.2266	68.3777	32.2266	68.2873	32.2266	68.3033	32.2266	68.2161	32.2266	68.2308	32.2266	68.1497	32.2266	68.1626	32.2266	68.0899	32.2266	68.1007	32.2266	68.0386	32.2266	68.0471	32.2266	67.9973	32.2266	68.0035	32.2266	67.9671	32.2266	67.9711	32.2266	67.949	32.2266	67.951	32.2266	67.9435
33.6914	69.3516	33.6914	69.3407	33.6914	69.3493	33.6914	69.3168	33.6914	69.3339	33.6914	69.2808	33.6914	69.3056	33.6914	69.2336	33.6914	69.2652	33.6914	69.1766	33.6914	69.2139	33.6914	69.1114	33.6914	69.153	33.6914	69.0399	33.6914	69.0844	33.6914	68.9641	33.6914	69.0099	33.6914	68.8862	33.6914	68.9319	33.6914	68.8085	33.6914	68.8528	33.6914	68.7335	33.6914	68.775	33.6914	68.6633	33.6914	68.701	33.6914	68.6003	33.6914	68.6331	33.6914	68.5464	33.6914	68.5737	33.6914	68.5034	33.6914	68.5244	33.6914	68.4727	33.6914	68.487	33.6914	68.4554	33.6914	68.4626	33.6914	68.4519
35.1562	69.8628	35.1562	69.8514	35.1562	69.8606	35.1562	69.8266	35.1562	69.8447	35.1562	69.7894	35.1562	69.8152	35.1562	69.7405	35.1562	69.7731	35.1562	69.6814	35.1562	69.7192	35.1562	69.6136	35.1562	69.6552	35.1562	69.5388	35.1562	69.5828	35.1562	69.4592	35.1562	69.5042	35.1562	69.377	35.1562	69.4219	35.1562	69.2946	35.1562	69.3383	35.1562	69.2146	35.1562	69.2562	35.1562	69.1395	35.1562	69.1781	35.1562	69.072	35.1562	69.1065	35.1562	69.0141	35.1562	69.0436	35.1562	68.9681	35.1562	68.9914	35.1562	68.9353	35.1562	68.9515	35.1562	68.917	35.1562	68.9253	35.1562	68.9137
36.6211	70.5725	36.6211	70.5635	36.6211	70.5682	36.6211	70.5413	36.6211	70.5507	36.6211	70.5067	36.6211	70.5203	36.6211	70.4605	36.6211	70.4781	36.6211	70.4042	36.6211	70.4251	36.6211	70.3393	36.6211	70.363	36.6211	70.2678	36.6211	70.2934	36.6211	70.1917	36.6211	70.2186	36.6211	70.1134	36.6211	70.1407	36.6211	70.0352	36.6211	70.0621	36.6211	69.9595	36.6211	69.9854	36.6211	69.8887	36.6211	69.9129	36.6211	69.825	36.6211	69.8467	36.6211	69.7704	36.6211	69.789	36.6211	69.7268	36.6211	69.7415	36.6211	69.6954	36.6211	69.7057	36.6211	69.6773	36.6211	69.6825	36.6211	69.673
38.0859	71.0879	38.0859	71.0753	38.0859	71.0858	38.0859	71.0485	38.0859	71.0689	38.0859	71.0084	38.0859	71.0378	38.0859	70.956	38.0859	70.9931	38.0859	70.8931	38.0859	70.9363	38.0859	70.8215	38.0859	70.8689	38.0859	70.7432	38.0859	70.7928	38.0859	70.6604	38.0859	70.7104	38.0859	70.5755	38.0859	70.6242	38.0859	70.4908	38.0859	70.5368	38.0859	70.4088	38.0859	70.4511	38.0859	70.332	38.0859	70.3696	38.0859	70.2626	38.0859	70.2949	38.0859	70.203	38.0859	70.2295	38.0859	70.155	38.0859	70.1754	38.0859	70.1206	38.0859	70.1344	38.0859	70.1008	38.0859	70.1078	38.0859	70.0964
39.5508	71.6213	39.5508	71.6072	39.5508	71.6228	39.5508	71.5809	39.5508	71.6114	39.5508	71.5433	39.5508	71.5874	39.5508	71.4953	39.5508	71.5512	39.5508	71.4383	39.5508	71.5037	39.5508	71.3737	39.5508	71.4462	39.5508	71.3033	39.5508	71.3805	39.5508	71.2292	39.5508	71.3084	39.5508	71.1533	39.5508	71.2323	39.5508	71.078	39.5508	71.1546	39.5508	71.0055	39.5508	71.0778	39.5508	70.9381	39.5508	71.0042	39.5508	70.8779	39.5508	70.9363	39.5508	70.827	39.5508	70.8762	39.5508	70.7872	39.5508	70.8256	39.5508	70.7598	39.5508	70.7862	39.5508	70.7458	39.5508	70.7592	39.5508	70.7456
41.0156	72.0625	41.0156	72.0387	41.0156	72.0718	41.0156	72.0012	41.0156	72.0668	41.0156	71.9509	41.0156	72.0479	41.0156	71.8895	41.0156	72.0158	41.0156	71.8193	41.0156	71.972	41.0156	71.743	41.0156	71.9182	41.0156	71.664	41.0156	71.8565	41.0156	71.5857	41.0156	71.7892	41.0156	71.5112	41.0156	71.7189	41.0156	71.4435	41.0156	71.6482	41.0156	71.3851	41.0156	71.5795	41.0156	71.3373	41.0156	71.515	41.0156	71.301	41.0156	71.4564	41.0156	71.2761	41.0156	71.4047	41.0156	71.262	41.0156	71.3607	41.0156	71.2578	41.0156	71.3245	41.0156	71.2625	41.0156	71.2961	41.0156	71.2754
42.4805	72.8788	42.4805	72.8628	42.4805	72.8803	42.4805	72.8328	42.4805	72.8676	42.4805	72.7896	42.4805	72.8409	42.4805	72.7347	42.4805	72.8014	42.4805	72.6698	42.4805	72.7504	42.4805	72.5972	42.4805	72.6897	42.4805	72.5193	42.4805	72.6212	42.4805	72.4391	42.4805	72.5473	42.4805	72.3595	42.4805	72.4706	42.4805	72.2831	42.4805	72.3936	42.4805	72.2127	42.4805	72.3188	42.4805	72.1503	42.4805	72.2485	42.4805	72.0976	42.4805	72.1846	42.4805	72.0558	42.4805	72.1288	42.4805	72.0254	42.4805	72.0821	42.4805	72.0067	42.4805	72.0454	42.4805	71.9995	42.4805	72.0191	42.4805	72.0038
43.9453	73.3798	43.9453	73.3647	43.9453	73.3809	43.9453	73.3361	43.9453	73.3681	43.9453	73.2948	43.9453	73.3418	43.9453	73.2424	43.9453	73.3031	43.9453	73.1807	43.9453	73.2533	43.9453	73.1118	43.9453	73.1944	43.9453	73.0384	43.9453	73.1286	43.9453	72.9632	43.9453	73.0583	43.9453	72.889	43.9453	72.9863	43.9453	72.8187	43.9453	72.915	43.9453	72.7547	43.9453	72.8468	43.9453	72.6989	43.9453	72.7839	43.9453	72.6527	43.9453	72.7278	43.9453	72.6168	43.9453	72.6796	43.9453	72.5914	43.9453	72.64	43.9453	72.5762	43.9453	72.6093	43.9453	72.5708	43.9453	72.5875	43.9453	72.5747
45.4102	73.6777	45.4102	73.6622	45.4102	73.6783	45.4102	73.6323	45.4102	73.6642	45.4102	73.589	45.4102	73.6357	45.4102	73.5337	45.4102	73.5941	45.4102	73.4684	45.4102	73.5407	45.4102	73.3953	45.4102	73.4774	45.4102	73.3172	45.4102	73.4067	45.4102	73.2372	45.4102	73.3312	45.4102	73.1581	45.4102	73.2537	45.4102	73.0829	45.4102	73.1769	45.4102	73.0143	45.4102	73.1037	45.4102	72.9543	45.4102	73.0362	45.4102	72.9044	45.4102	72.9763	45.4102	72.8654	45.4102	72.9252	45.4102	72.8375	45.4102	72.8835	45.4102	72.8204	45.4102	72.8516	45.4102	72.8135	45.4102	72.8293	45.4102	72.8166
46.875	74.1985	46.875	74.1828	46.875	74.1982	46.875	74.1514	46.875	74.1819	46.875	74.1053	46.875	74.1501	46.875	74.0461	46.875	74.1039	46.875	73.9757	46.875	74.045	46.875	73.8964	46.875	73.9753	46.875	73.8111	46.875	73.8973	46.875	73.7227	46.875	73.8138	46.875	73.6344	46.875	73.7277	46.875	73.5493	46.875	73.6421	46.875	73.4704	46.875	73.5596	46.875	73.4001	46.875	73.483	46.875	73.3404	46.875	73.4142	46.875	73.2926	46.875	73.3549	46.875	73.2574	46.875	73.3061	46.875	73.235	46.875	73.2684	46.875	73.2252	46.875	73.2421	46.875	73.2277
48.3398	74.7188	48.3398	74.7033	48.3398	74.718	48.3398	74.6718	48.3398	74.7009	48.3398	74.6252	48.3398	74.6681	48.3398	74.5648	48.3398	74.6207	48.3398	74.4926	48.3398	74.56	48.3398	74.4108	48.3398	74.4882	48.3398	74.3221	48.3398	74.4074	48.3398	74.2294	48.3398	74.3204	48.3398	74.1361	48.3398	74.2301	48.3398	74.0453	48.3398	74.1394	48.3398	73.96	48.3398	74.0513	48.3398	73.8829	48.3398	73.9684	48.3398	73.8164	48.3398	73.8931	48.3398	73.7622	48.3398	73.8273	48.3398	73.7215	48.3398	73.7726	48.3398	73.6949	48.3398	73.7301	48.3398	73.6826	48.3398	73.7006	48.3398	73.6846
51.2695	75.6105	51.2695	75.5937	51.2695	75.6116	51.2695	75.5616	51.2695	75.5968	51.2695	75.5152	51.2695	75.5668	51.2695	75.456	51.2695	75.5225	51.2695	75.3859	51.2695	75.4656	51.2695	75.3074	51.2695	75.3979	51.2695	75.2231	51.2695	75.3219	51.2695	75.136	51.2695	75.2403	51.2695	75.0493	51.2695	75.156	51.2695	74.9659	51.2695	75.0717	51.2695	74.8885	51.2695	74.9903	51.2695	74.8197	51.2695	74.9142	51.2695	74.7613	51.2695	74.8454	51.2695	74.7145	51.2695	74.7854	51.2695	74.6801	51.2695	74.7355	51.2695	74.6585	51.2695	74.6965	51.2695	74.6496	51.2695	74.6689	51.2695	74.6532
52.7344	76.0284	52.7344	76.014	52.7344	76.0277	52.7344	75.9848	52.7344	76.0119	52.7344	75.9419	52.7344	75.9816	52.7344	75.8868	52.7344	75.9378	52.7344	75.8214	52.7344	75.8823	52.7344	75.7481	52.7344	75.8171	52.7344	75.6698	52.7344	75.7446	52.7344	75.5893	52.7344	75.6676	52.7344	75.5097	52.7344	75.5889	52.7344	75.4339	52.7344	75.5115	52.7344	75.3642	52.7344	75.4378	52.7344	75.3028	52.7344	75.37	52.7344	75.2511	52.7344	75.3101	52.7344	75.2099	52.7344	75.259	52.7344	75.1797	52.7344	75.2175	52.7344	75.1602	52.7344	75.1859	52.7344	75.1514	52.7344	75.1644	52.7344	75.1528
54.1992	76.3858	54.1992	76.3709	54.1992	76.3858	54.1992	76.3417	54.1992	76.3709	54.1992	76.2994	54.1992	76.3417	54.1992	76.2456	54.1992	76.2996	54.1992	76.1826	54.1992	76.2463	54.1992	76.1131	54.1992	76.1842	54.1992	76.0401	54.1992	76.1161	54.1992	75.9664	54.1992	76.0447	54.1992	75.8951	54.1992	75.9732	54.1992	75.8288	54.1992	75.9043	54.1992	75.7696	54.1992	75.8404	54.1992	75.7191	54.1992	75.7831	54.1992	75.6782	54.1992	75.7338	54.1992	75.647	54.1992	75.6929	54.1992	75.6252	54.1992	75.6604	54.1992	75.6121	54.1992	75.636	54.1992	75.6071	54.1992	75.6191	54.1992	75.6095
55.6641	76.8236	55.6641	76.8072	55.6641	76.8231	55.6641	76.7748	55.6641	76.8057	55.6641	76.7277	55.6641	76.7723	55.6641	76.6681	55.6641	76.7243	55.6641	76.5986	55.6641	76.6639	55.6641	76.5222	55.6641	76.5939	55.6641	76.4424	55.6641	76.5177	55.6641	76.3624	55.6641	76.4385	55.6641	76.2856	55.6641	76.3599	55.6641	76.2148	55.6641	76.2851	55.6641	76.1525	55.6641	76.2169	55.6641	76.1002	55.6641	76.1571	55.6641	76.0585	55.6641	76.1069	55.6641	76.0274	55.6641	76.0666	55.6641	76.0061	55.6641	76.0357	55.6641	75.9935	55.6641	76.0133	55.6641	75.9885	55.6641	75.9984	55.6641	75.9902
58.5938	77.794	58.5938	77.7775	58.5938	77.7918	58.5938	77.7427	58.5938	77.771	58.5938	77.6908	58.5938	77.7324	58.5938	77.6236	58.5938	77.6773	58.5938	77.5434	58.5938	77.6078	58.5938	77.4531	58.5938	77.5265	58.5938	77.3561	58.5938	77.4362	58.5938	77.2562	58.5938	77.3405	58.5938	77.1571	58.5938	77.2428	58.5938	77.0625	58.5938	77.1468	58.5938	76.9756	58.5938	77.0555	58.5938	76.8989	58.5938	76.9719	58.5938	76.8344	58.5938	76.8981	58.5938	76.7829	58.5938	76.8356	58.5938	76.7448	58.5938	76.7853	58.5938	76.72	58.5938	76.7473	58.5938	76.7081	58.5938	76.7219	58.5938	76.7088
60.0586	78.1557	60.0586	78.1395	60.0586	78.1532	60.0586	78.105	60.0586	78.1321	60.0586	78.0535	60.0586	78.0932	60.0586	77.9867	60.0586	78.0381	60.0586	77.907	60.0586	77.9688	60.0586	77.8174	60.0586	77.8879	60.0586	77.7212	60.0586	77.7985	60.0586	77.6221	60.0586	77.704	60.0586	77.5238	60.0586	77.6079	60.0586	77.4298	60.0586	77.5136	60.0586	77.3433	60.0586	77.4243	60.0586	77.267	60.0586	77.3424	60.0586	77.2026	60.0586	77.27	60.0586	77.1513	60.0586	77.2085	60.0586	77.1137	60.0586	77.1584	60.0586	77.0895	60.0586	77.1203	60.0586	77.0785	60.0586	77.0942	60.0586	77.0802
62.9883	78.755	62.9883	78.7356	62.9883	78.7562	62.9883	78.6986	62.9883	78.7391	62.9883	78.6455	62.9883	78.7046	62.9883	78.5784	62.9883	78.6543	62.9883	78.5	62.9883	78.5903	62.9883	78.4137	62.9883	78.5154	62.9883	78.3231	62.9883	78.4327	62.9883	78.2318	62.9883	78.3457	62.9883	78.1434	62.9883	78.2579	62.9883	78.0612	62.9883	78.1727	62.9883	77.988	62.9883	78.0929	62.9883	77.9256	62.9883	78.0209	62.9883	77.8751	62.9883	77.9581	62.9883	77.8369	62.9883	77.9055	62.9883	77.8104	62.9883	77.8631	62.9883	77.7951	62.9883	77.8307	62.9883	77.7899	62.9883	77.8079	62.9883	77.7943
64.4531	79.12	64.4531	79.1002	64.4531	79.1219	64.4531	79.0629	64.4531	79.1057	64.4531	79.0099	64.4531	79.0723	64.4531	78.9431	64.4531	79.0231	64.4531	78.8653	64.4531	78.9604	64.4531	78.7799	64.4531	78.8869	64.4531	78.6902	64.4531	78.8058	64.4531	78.6	64.4531	78.7205	64.4531	78.5129	64.4531	78.6345	64.4531	78.4321	64.4531	78.551	64.4531	78.3603	64.4531	78.473	64.4531	78.2994	64.4531	78.4025	64.4531	78.2505	64.4531	78.341	64.4531	78.2138	64.4531	78.2893	64.4531	78.189	64.4531	78.2473	64.4531	78.1752	64.4531	78.2149	64.4531	78.1715	64.4531	78.1916	64.4531	78.1771
67.3828	79.8219	67.3828	79.7994	67.3828	79.8259	67.3828	79.7593	67.3828	79.8114	67.3828	79.7031	67.3828	79.7793	67.3828	79.6329	67.3828	79.7311	67.3828	79.5519	67.3828	79.669	67.3828	79.4632	67.3828	79.5958	67.3828	79.3707	67.3828	79.515	67.3828	79.2784	67.3828	79.43	67.3828	79.1899	67.3828	79.3445	67.3828	79.1088	67.3828	79.2617	67.3828	79.0379	67.3828	79.1844	67.3828	78.979	67.3828	79.1146	67.3828	78.9331	67.3828	79.0536	67.3828	78.9003	67.3828	79.0019	67.3828	78.88	67.3828	78.9592	67.3828	78.8709	67.3828	78.9252	67.3828	78.8718	67.3828	78.8994	67.3828	78.8815
68.8477	80.1723	68.8477	80.1507	68.8477	80.175	68.8477	80.1108	68.8477	80.1588	68.8477	80.0543	68.8477	80.1245	68.8477	79.9835	68.8477	80.074	68.8477	79.9013	68.8477	80.0096	68.8477	79.8115	68.8477	79.9344	68.8477	79.7178	68.8477	79.8519	68.8477	79.6246	68.8477	79.7659	68.8477	79.5356	68.8477	79.6801	68.8477	79.4545	68.8477	79.598	68.8477	79.3841	68.8477	79.5222	68.8477	79.3264	68.8477	79.4548	68.8477	79.2822	68.8477	79.3968	68.8477	79.2513	68.8477	79.3482	68.8477	79.2327	68.8477	79.3087	68.8477	79.2251	68.8477	79.2773	68.8477	79.2268	68.8477	79.2534	68.8477	79.2365
71.7773	80.8083	71.7773	80.7881	71.7773	80.8084	71.7773	80.7487	71.7773	80.7887	71.7773	80.6917	71.7773	80.75	71.7773	80.6195	71.7773	80.6942	71.7773	80.5353	71.7773	80.6239	71.7773	80.4427	71.7773	80.5424	71.7773	80.3459	71.7773	80.4535	71.7773	80.2493	71.7773	80.3613	71.7773	80.1571	71.7773	80.2701	71.7773	80.073	71.7773	80.1834	71.7773	79.9999	71.7773	80.1045	71.7773	79.9398	71.7773	80.0354	71.7773	79.8934	71.7773	79.9774	71.7773	79.8603	71.7773	79.9304	71.7773	79.8395	71.7773	79.8936	71.7773	79.8291	71.7773	79.866	71.7773	79.8275	71.7773	79.8462	71.7773	79.8334
74.707	81.4081	74.707	81.3881	74.707	81.4079	74.707	81.3487	74.707	81.3874	74.707	81.2915	74.707	81.3477	74.707	81.2191	74.707	81.2906	74.707	81.1346	74.707	81.2188	74.707	81.0419	74.707	81.1357	74.707	80.945	74.707	81.0452	74.707	80.8483	74.707	80.9515	74.707	80.7558	74.707	80.8588	74.707	80.6712	74.707	80.7709	74.707	80.5974	74.707	80.6909	74.707	80.5362	74.707	80.6209	74.707	80.4883	74.707	80.5622	74.707	80.4535	74.707	80.5147	74.707	80.4307	74.707	80.4777	74.707	80.4184	74.707	80.4502	74.707	80.4149	74.707	80.431	74.707	80.4193
77.6367	81.9749	77.6367	81.954	77.6367	81.9752	77.6367	81.9136	77.6367	81.955	77.6367	81.8552	77.6367	81.9153	77.6367	81.7818	77.6367	81.8582	77.6367	81.6966	77.6367	81.7866	77.6367	81.6037	77.6367	81.7039	77.6367	81.5074	77.6367	81.6145	77.6367	81.4122	77.6367	81.5227	77.6367	81.3225	77.6367	81.4328	77.6367	81.2417	77.6367	81.3487	77.6367	81.1727	77.6367	81.2733	77.6367	81.117	77.6367	81.2085	77.6367	81.0751	77.6367	81.1551	77.6367	81.0461	77.6367	81.1126	77.6367	81.0286	77.6367	81.08	77.6367	81.0207	77.6367	81.0556	77.6367	81.0204	77.6367	81.0381	77.6367	81.0264
79.1016	82.2556	79.1016	82.2343	79.1016	82.2558	79.1016	82.193	79.1016	82.235	79.1016	82.1334	79.1016	82.1945	79.1016	82.0583	79.1016	82.1363	79.1016	81.9713	79.1016	82.0633	79.1016	81.8766	79.1016	81.9793	79.1016	81.7786	79.1016	81.8888	79.1016	81.6821	79.1016	81.7961	79.1016	81.5915	79.1016	81.7058	79.1016	81.5106	79.1016	81.6218	79.1016	81.4422	79.1016	81.5471	79.1016	81.3878	79.1016	81.4836	79.1016	81.3476	79.1016	81.4317	79.1016	81.3208	79.1016	81.3909	79.1016	81.3055	79.1016	81.3597	79.1016	81.2996	79.1016	81.3365	79.1016	81.3008	79.1016	81.3195	79.1016	81.3077
82.0312	82.8064	82.0312	82.7842	82.0312	82.8063	82.0312	82.7407	82.0312	82.784	82.0312	82.6778	82.0312	82.7406	82.0312	82.5982	82.0312	82.6783	82.0312	82.5057	82.0312	82.6001	82.0312	82.4045	82.0312	82.5099	82.0312	82.2995	82.0312	82.4123	82.0312	82.1956	82.0312	82.3122	82.0312	82.0977	82.0312	82.2144	82.0312	82.0099	82.0312	82.1233	82.0312	81.9354	82.0312	82.0423	82.0312	81.8762	82.0312	81.9736	82.0312	81.8324	82.0312	81.9178	82.0312	81.8032	82.0312	81.8744	82.0312	81.7867	82.0312	81.8417	82.0312	81.7802	82.0312	81.8177	82.0312	81.7813	82.0312	81.8003	82.0312	81.7883
84.9609	83.327	84.9609	83.3043	84.9609	83.3276	84.9609	83.2603	84.9609	83.3063	84.9609	83.1967	84.9609	83.2641	84.9609	83.1164	84.9609	83.2031	84.9609	83.0229	84.9609	83.1265	84.9609	82.9204	84.9609	83.0379	84.9609	82.8138	84.9609	82.9416	84.9609	82.7079	84.9609	82.8422	84.9609	82.6075	84.9609	82.7441	84.9609	82.5167	84.9609	82.6515	84.9609	82.4387	84.9609	82.5675	84.9609	82.3753	84.9609	82.4942	84.9609	82.3272	84.9609	82.4324	84.9609	82.2938	84.9609	82.3822	84.9609	82.2737	84.9609	82.3424	84.9609	82.2648	84.9609	82.3118	84.9609	82.2654	84.9609	82.2892	84.9609	82.2737
87.8906	83.7453	87.8906	83.7217	87.8906	83.7458	87.8906	83.676	87.8906	83.7234	87.8906	83.6104	87.8906	83.6796	87.8906	83.5281	87.8906	83.6169	87.8906	83.4331	87.8906	83.5389	87.8906	83.3304	87.8906	83.45	87.8906	83.2254	87.8906	83.3554	87.8906	83.1236	87.8906	83.2602	87.8906	83.0301	87.8906	83.1695	87.8906	82.9491	87.8906	83.0873	87.8906	82.8836	87.8906	83.0164	87.8906	82.8348	87.8906	82.9583	87.8906	82.8024	87.8906	82.9126	87.8906	82.7846	87.8906	82.8778	87.8906	82.7785	87.8906	82.8516	87.8906	82.781	87.8906	82.8313	87.8906	82.7892	87.8906	82.8148	87.8906	82.8009
90.8203	84.1964	90.8203	84.1717	90.8203	84.1965	90.8203	84.1232	90.8203	84.1722	90.8203	84.053	90.8203	84.1251	90.8203	83.9645	90.8203	84.0578	90.8203	83.8617	90.8203	83.9743	90.8203	83.7501	90.8203	83.8791	90.8203	83.6352	90.8203	83.7775	90.8203	83.5231	90.8203	83.6751	90.8203	83.4194	90.8203	83.577	90.8203	83.329	90.8203	83.4876	90.8203	83.2554	90.8203	83.4102	90.8203	83.2004	90.8203	83.3461	90.8203	83.1639	90.8203	83.2953	90.8203	83.144	90.8203	83.2562	90.8203	83.1378	90.8203	83.2263	90.8203	83.1415	90.8203	83.2027	90.8203	83.1519	90.8203	83.1832	90.8203	83.1663
95.2148	84.7517	95.2148	84.7292	95.2148	84.7499	95.2148	84.6833	95.2148	84.7241	95.2148	84.616	95.2148	84.6758	95.2148	84.5306	95.2148	84.6078	95.2148	84.4314	95.2148	84.5241	95.2148	84.3233	95.2148	84.4294	95.2148	84.2122	95.2148	84.3294	95.2148	84.1039	95.2148	84.2299	95.2148	84.0041	95.2148	84.1362	95.2148	83.9177	95.2148	84.0528	95.2148	83.8482	95.2148	83.9825	95.2148	83.7973	95.2148	83.9265	95.2148	83.7649	95.2148	83.8841	95.2148	83.749	95.2148	83.8528	95.2148	83.7463	95.2148	83.8297	95.2148	83.7529	95.2148	83.8113	95.2148	83.7651	95.2148	83.7952	95.2148	83.7797
98.1445	85.1376	98.1445	85.1184	98.1445	85.1318	98.1445	85.075	98.1445	85.1012	98.1445	85.0097	98.1445	85.0476	98.1445	84.9256	98.1445	84.9739	98.1445	84.8274	98.1445	84.8843	98.1445	84.7201	98.1445	84.784	98.1445	84.6098	98.1445	84.679	98.1445	84.5025	98.1445	84.5754	98.1445	84.404	98.1445	84.4791	98.1445	84.3191	98.1445	84.3947	98.1445	84.2511	98.1445	84.3254	98.1445	84.2014	98.1445	84.2723	98.1445	84.1694	98.1445	84.2344	98.1445	84.1527	98.1445	84.2092	98.1445	84.1479	98.1445	84.1931	98.1445	84.1508	98.1445	84.1824	98.1445	84.1577	98.1445	84.174	98.1445	84.1659
101.074	85.5076	101.074	85.4906	101.074	85.497	101.074	85.4468	101.074	85.4593	101.074	85.3781	101.074	85.3965	101.074	85.2881	101.074	85.3121	101.074	85.1814	101.074	85.2108	101.074	85.0636	101.074	85.0985	101.074	84.9413	101.074	84.9819	101.074	84.8214	101.074	84.8678	101.074	84.7106	101.074	84.7625	101.074	84.6147	101.074	84.6714	101.074	84.5379	101.074	84.5975	101.074	84.482	101.074	84.542	101.074	84.4465	101.074	84.5037	101.074	84.4285	101.074	84.4795	101.074	84.4239	101.074	84.4654	101.074	84.4276	101.074	84.4568	101.074	84.4351	101.074	84.4502	101.074	84.4432
105.469	85.9101	105.469	85.8995	105.469	85.8927	105.469	85.8619	105.469	85.8478	105.469	85.8	105.469	85.7777	105.469	85.718	105.469	85.6865	105.469	85.621	105.469	85.5797	105.469	85.5148	105.469	85.4644	105.469	85.406	105.469	85.3482	105.469	85.3008	105.469	85.2389	105.469	85.2047	105.469	85.1432	105.469	85.1225	105.469	85.0659	105.469	85.0568	105.469	85.0096	105.469	85.0089	105.469	84.9738	105.469	84.9777	105.469	84.9553	105.469	84.9609	105.469	84.9497	105.469	84.9547	105.469	84.9515	105.469	84.9551	105.469	84.9559	105.469	84.9579	105.469	84.9593	105.469	84.96
108.398	86.1782	108.398	86.1596	108.398	86.1658	108.398	86.1114	108.398	86.1227	108.398	86.0368	108.398	86.0508	108.398	85.9403	108.398	85.9541	108.398	85.8279	108.398	85.8382	108.398	85.7067	108.398	85.7103	108.398	85.5843	108.398	85.5791	108.398	85.4686	108.398	85.4535	108.398	85.3664	108.398	85.3422	108.398	85.2833	108.398	85.2522	108.398	85.2222	108.398	85.1875	108.398	85.1833	108.398	85.1488	108.398	85.1644	108.398	85.1333	108.398	85.1608	108.398	85.1353	108.398	85.1665	108.398	85.1477	108.398	85.1755	108.398	85.1634	108.398	85.1823	108.398	85.1764	108.398	85.1831
112.793	86.6922	112.793	86.6714	112.793	86.6806	112.793	86.6196	112.793	86.6366	112.793	86.5399	112.793	86.5624	112.793	86.4367	112.793	86.4616	112.793	86.3162	112.793	86.3399	112.793	86.1852	112.793	86.2044	112.793	86.0516	112.793	86.0638	112.793	85.9233	112.793	85.927	112.793	85.8077	112.793	85.8029	112.793	85.7109	112.793	85.6987	112.793	85.6364	112.793	85.6192	112.793	85.5853	112.793	85.5658	112.793	85.5556	112.793	85.5365	112.793	85.5432	112.793	85.5265	112.793	85.5422	112.793	85.5293	112.793	85.5465	112.793	85.5379	112.793	85.5508	112.793	85.5465	112.793	85.5512
117.188	86.8931	117.188	86.8731	117.188	86.879	117.188	86.8202	117.188	86.8314	117.188	86.7375	117.188	86.753	117.188	86.6299	117.188	86.6482	117.188	86.504	117.188	86.5233	117.188	86.3677	117.188	86.3862	117.188	86.2298	117.188	86.246	117.188	86.0993	117.188	86.1122	117.188	85.9846	117.188	85.9941	117.188	85.8923	117.188	85.8988	117.188	85.8263	117.188	85.831	117.188	85.7872	117.188	85.7911	117.188	85.772	117.188	85.776	117.188	85.7753	117.188	85.7796	117.188	85.7895	117.188	85.7938	117.188	85.807	117.188	85.8105	117.188	85.821	117.188	85.823	117.188	85.827
120.117	87.1843	120.117	87.1628	120.117	87.1725	120.117	87.1096	120.117	87.1276	120.117	87.0281	120.117	87.0515	120.117	86.9232	120.117	86.9478	120.117	86.8013	120.117	86.8224	120.117	86.6699	120.117	86.6828	120.117	86.5373	120.117	86.5381	120.117	86.4121	120.117	86.3983	120.117	86.3021	120.117	86.2736	120.117	86.2136	120.117	86.1722	120.117	86.15	120.117	86.0998	120.117	86.1119	120.117	86.0578	120.117	86.0963	120.117	86.0435	120.117	86.0975	120.117	86.0507	120.117	86.1083	120.117	86.0707	120.117	86.1209	120.117	86.0949	120.117	86.1288	120.117	86.1155	120.117	86.1274
124.512	87.5809	124.512	87.5512	124.512	87.5751	124.512	87.4882	124.512	87.5337	124.512	87.3953	124.512	87.4585	124.512	87.2782	124.512	87.3532	124.512	87.1438	124.512	87.2237	124.512	87.0006	124.512	87.078	124.512	86.858	124.512	86.9258	124.512	86.7254	124.512	86.7778	124.512	86.6114	124.512	86.6447	124.512	86.5223	124.512	86.5357	124.512	86.4615	124.512	86.4567	124.512	86.4284	124.512	86.4094	124.512	86.4189	124.512	86.3913	124.512	86.4263	124.512	86.3958	124.512	86.4422	124.512	86.4143	124.512	86.4586	124.512	86.4376	124.512	86.4689	124.512	86.4577	124.512	86.4689
128.906	87.8556	128.906	87.8183	128.906	87.8543	128.906	87.7442	128.906	87.8141	128.906	87.6374	128.906	87.7365	128.906	87.5034	128.906	87.6251	128.906	87.3495	128.906	87.4859	128.906	87.1852	128.906	87.3269	128.906	87.0208	128.906	87.1583	128.906	86.8676	128.906	86.992	128.906	86.736	128.906	86.84	128.906	86.6342	128.906	86.7132	128.906	86.5668	128.906	86.6195	128.906	86.5335	128.906	86.562	128.906	86.5294	128.906	86.5385	128.906	86.546	128.906	86.5421	128.906	86.5728	128.906	86.5627	128.906	86.5993	128.906	86.589	128.906	86.6173	128.906	86.611	128.906	86.6215
133.301	88.096	133.301	88.0548	133.301	88.0965	133.301	87.9747	133.301	88.0564	133.301	87.8597	133.301	87.9778	133.301	87.7155	133.301	87.865	133.301	87.5501	133.301	87.7242	133.301	87.3729	133.301	87.564	133.301	87.1948	133.301	87.3943	133.301	87.0274	133.301	87.2264	133.301	86.8814	133.301	87.0714	133.301	86.7656	133.301	86.9393	133.301	86.6852	133.301	86.8368	133.301	86.6408	133.301	86.767	133.301	86.6283	133.301	86.7282	133.301	86.6396	133.301	86.7144	133.301	86.6648	133.301	86.7169	133.301	86.6936	133.301	86.7261	133.301	86.7173	133.301	86.7328	133.301	86.7309
139.16	88.2366	139.16	88.1978	139.16	88.234	139.16	88.1197	139.16	88.1905	139.16	88.0063	139.16	88.1087	139.16	87.8642	139.16	87.9937	139.16	87.7019	139.16	87.853	139.16	87.5295	139.16	87.6957	139.16	87.3586	139.16	87.5329	139.16	87.2007	139.16	87.376	139.16	87.0663	139.16	87.2362	139.16	86.9637	139.16	87.1223	139.16	86.8969	139.16	87.0399	139.16	86.8655	139.16	86.9899	139.16	86.8648	139.16	86.9688	139.16	86.8864	139.16	86.9693	139.16	86.92	139.16	86.9818	139.16	86.9556	139.16	86.9965	139.16	86.9847	139.16	87.0051	139.16	87.0018
143.555	88.275	143.555	88.232	143.555	88.2753	143.555	88.1485	143.555	88.2337	143.555	88.0287	143.555	88.1533	143.555	87.8797	143.555	88.0395	143.555	87.7107	143.555	87.9003	143.555	87.5333	143.555	87.7456	143.555	87.3601	143.555	87.587	143.555	87.2042	143.555	87.4369	143.555	87.0774	143.555	87.3067	143.555	86.9882	143.555	87.2057	143.555	86.9403	143.555	87.1389	143.555	86.9315	143.555	87.1062	143.555	86.9549	143.555	87.1022	143.555	86.9997	143.555	87.1181	143.555	87.0539	143.555	87.1427	143.555	87.1061	143.555	87.1652	143.555	87.1472	143.555	87.1767	143.555	87.1714
147.949	88.4032	147.949	88.3601	147.949	88.4048	147.949	88.2769	147.949	88.3652	147.949	88.1571	147.949	88.2869	147.949	88.0063	147.949	88.1745	147.949	87.8327	147.949	88.0351	147.949	87.6469	147.949	87.878	147.949	87.4616	147.949	87.7149	147.949	87.2913	147.949	87.5586	147.949	87.15	147.949	87.422	147.949	87.049	147.949	87.3156	147.949	86.9943	147.949	87.2456	147.949	86.9853	147.949	87.2125	147.949	87.0147	147.949	87.2107	147.949	87.0701	147.949	87.2303	147.949	87.1373	147.949	87.2587	147.949	87.2024	147.949	87.2837	147.949	87.2542	147.949	87.295	147.949	87.2859
153.809	88.5926	153.809	88.5526	153.809	88.5845	153.809	88.4662	153.809	88.5289	153.809	88.3372	153.809	88.429	153.809	88.1719	153.809	88.2904	153.809	87.9792	153.809	88.1215	153.809	87.7705	153.809	87.9338	153.809	87.5595	153.809	87.7405	153.809	87.3617	153.809	87.5566	153.809	87.1919	153.809	87.3963	153.809	87.063	153.809	87.2711	153.809	86.9825	153.809	87.1877	153.809	86.9515	153.809	87.146	153.809	86.9637	153.809	87.1399	153.809	87.0073	153.809	87.1579	153.809	87.0677	153.809	87.1864	153.809	87.1298	153.809	87.2117	153.809	87.1811	153.809	87.2229	153.809	87.2134
159.668	88.7802	159.668	88.7439	159.668	88.7672	159.668	88.6598	159.668	88.706	159.668	88.5313	159.668	88.6002	159.668	88.3647	159.668	88.4559	159.668	88.1684	159.668	88.2822	159.668	87.9541	159.668	88.0914	159.668	87.7358	159.668	87.8977	159.668	87.5297	159.668	87.717	159.668	87.3521	159.668	87.5639	159.668	87.2172	159.668	87.45	159.668	87.1341	159.668	87.3806	159.668	87.1048	159.668	87.354	159.668	87.1235	159.668	87.3616	159.668	87.1777	159.668	87.3902	159.668	87.2515	159.668	87.4245	159.668	87.3283	159.668	87.4504	159.668	87.394	159.668	87.4571	159.668	87.4385
165.527	88.8869	165.527	88.8515	165.527	88.8702	165.527	88.7661	165.527	88.8014	165.527	88.6355	165.527	88.6839	165.527	88.467	165.527	88.5239	165.527	88.2705	165.527	88.3314	165.527	88.0583	165.527	88.1197	165.527	87.8452	165.527	87.9052	165.527	87.6475	165.527	87.7062	165.527	87.4812	165.527	87.5403	165.527	87.3594	165.527	87.4213	165.527	87.2901	165.527	87.3564	165.527	87.2736	165.527	87.3439	165.527	87.3026	165.527	87.3739	165.527	87.3632	165.527	87.4307	165.527	87.4381	165.527	87.4959	165.527	87.5102	165.527	87.5525	165.527	87.5648	165.527	87.5872	165.527	87.5919
171.387	88.8847	171.387	88.8428	171.387	88.8699	171.387	88.7469	171.387	88.7989	171.387	88.6023	171.387	88.6751	171.387	88.4175	171.387	88.5054	171.387	88.2035	171.387	88.3	171.387	87.9745	171.387	88.0728	171.387	87.747	171.387	87.8404	171.387	87.5386	171.387	87.6219	171.387	87.3662	171.387	87.4359	171.387	87.2432	171.387	87.2984	171.387	87.177	171.387	87.2187	171.387	87.1662	171.387	87.1972	171.387	87.2018	171.387	87.225	171.387	87.2679	171.387	87.2858	171.387	87.3462	171.387	87.3599	171.387	87.4182	171.387	87.4279	171.387	87.4691	171.387	87.4742	171.387	87.489
177.246	88.6485	177.246	88.6105	177.246	88.6321	177.246	88.52	177.246	88.5627	177.246	88.382	177.246	88.4447	177.246	88.2048	177.246	88.2862	177.246	88	177.246	88.0983	177.246	87.7821	177.246	87.8957	177.246	87.5682	177.246	87.6951	177.246	87.3767	177.246	87.5145	177.246	87.2243	177.246	87.3702	177.246	87.124	177.246	87.274	177.246	87.0814	177.246	87.2307	177.246	87.0936	177.246	87.2364	177.246	87.1498	177.246	87.2801	177.246	87.2336	177.246	87.3457	177.246	87.3268	177.246	87.4155	177.246	87.4121	177.246	87.4735	177.246	87.4756	177.246	87.507	177.246	87.5084
183.105	88.737	183.105	88.6941	183.105	88.7197	183.105	88.5924	183.105	88.6439	183.105	88.4364	183.105	88.5144	183.105	88.2343	183.105	88.3397	183.105	87.998	183.105	88.1319	183.105	87.7438	183.105	87.9072	183.105	87.4924	183.105	87.6848	183.105	87.2674	183.105	87.4859	183.105	87.0923	183.105	87.3301	183.105	86.9859	183.105	87.2325	183.105	86.957	183.105	87.1993	183.105	87.0016	183.105	87.2264	183.105	87.1034	183.105	87.2998	183.105	87.2384	183.105	87.3992	183.105	87.3803	183.105	87.5017	183.105	87.5054	183.105	87.5862	183.105	87.5957	183.105	87.636	183.105	87.6405
188.965	88.7744	188.965	88.7412	188.965	88.7401	188.965	88.6421	188.965	88.6402	188.965	88.4819	188.965	88.4805	188.965	88.269	188.965	88.2709	188.965	88.0155	188.965	88.0262	188.965	87.7377	188.965	87.7656	188.965	87.456	188.965	87.5121	188.965	87.1938	188.965	87.29	188.965	86.976	188.965	87.121	188.965	86.8237	188.965	87.0195	188.965	86.7503	188.965	86.9886	188.965	86.7564	188.965	87.0198	188.965	86.8297	188.965	87.095	188.965	86.948	188.965	87.1912	188.965	87.0846	188.965	87.2849	188.965	87.2142	188.965	87.3558	188.965	87.316	188.965	87.3892	188.965	87.3763
196.289	88.7983	196.289	88.7927	196.289	88.7355	196.289	88.7206	196.289	88.6054	196.289	88.5873	196.289	88.4134	196.289	88.4005	196.289	88.17	196.289	88.1716	196.289	87.8916	196.289	87.9151	196.289	87.6012	196.289	87.6499	196.289	87.3265	196.289	87.3977	196.289	87.0968	196.289	87.1819	196.289	86.937	196.289	87.0231	196.289	86.861	196.289	86.9354	196.289	86.868	196.289	86.9217	196.289	86.9425	196.289	86.9728	196.289	87.0597	196.289	87.0698	196.289	87.1917	196.289	87.1883	196.289	87.313	196.289	87.3038	196.289	87.4034	196.289	87.395	196.289	87.4499	196.289	87.4466
203.613	88.8539	203.613	88.831	203.613	88.7967	203.613	88.7329	203.613	88.6577	203.613	88.5679	203.613	88.4395	203.613	88.3476	203.613	88.1505	203.613	88.0871	203.613	87.806	203.613	87.8056	203.613	87.4308	203.613	87.5263	203.613	87.0591	203.613	87.2745	203.613	86.7328	203.613	87.0748	203.613	86.4938	203.613	86.9464	203.613	86.3729	203.613	86.8981	203.613	86.378	203.613	86.9256	203.613	86.4915	203.613	87.012	203.613	86.6772	203.613	87.1325	203.613	86.893	203.613	87.259	203.613	87.1008	203.613	87.3657	203.613	87.272	203.613	87.4315	203.613	87.3884	203.613	87.4415
210.938	88.9978	210.938	88.9501	210.938	88.9609	210.938	88.8215	210.938	88.8384	210.938	88.6186	210.938	88.6324	210.938	88.3515	210.938	88.3492	210.938	88.0349	210.938	88.0007	210.938	87.6894	210.938	87.6068	210.938	87.3417	210.938	87.1973	210.938	87.0238	210.938	86.8122	210.938	86.7687	210.938	86.4978	210.938	86.6034	210.938	86.296	210.938	86.541	210.938	86.2299	210.938	86.5759	210.938	86.2936	210.938	86.6851	210.938	86.4541	210.938	86.8358	210.938	86.6644	210.938	86.993	210.938	86.8779	210.938	87.1258	210.938	87.0575	210.938	87.2103	210.938	87.179	210.938	87.2305
218.262	88.7952	218.262	88.7486	218.262	88.7565	218.262	88.6214	218.262	88.631	218.262	88.4212	218.262	88.421	218.262	88.1593	218.262	88.1335	218.262	87.8518	218.262	87.7825	218.262	87.5208	218.262	87.3914	218.262	87.1947	218.262	86.9944	218.262	86.9067	218.262	86.6359	218.262	86.6902	218.262	86.364	218.262	86.5704	218.262	86.2178	218.262	86.5563	218.262	86.2123	218.262	86.6369	218.262	86.3321	218.262	86.7852	218.262	86.5376	218.262	86.9655	218.262	86.7803	218.262	87.1426	218.262	87.0153	218.262	87.2867	218.262	87.2088	218.262	87.3757	218.262	87.3391	218.262	87.3953
225.586	89.1971	225.586	89.1487	225.586	89.1488	225.586	89.0077	225.586	89.0012	225.586	88.7808	225.586	88.7549	225.586	88.4774	225.586	88.4141	225.586	88.112	225.586	87.9898	225.586	87.7059	225.586	87.5028	225.586	87.2898	225.586	86.9883	225.586	86.9036	225.586	86.4985	225.586	86.5928	225.586	86.0994	225.586	86.3978	225.586	85.8548	225.586	86.3398	225.586	85.8012	225.586	86.4116	225.586	85.9286	225.586	86.5795	225.586	86.1845	225.586	86.7958	225.586	86.4986	225.586	87.0119	225.586	86.8066	225.586	87.1878	225.586	87.0614	225.586	87.2942	225.586	87.2346	225.586	87.3127
232.91	89.2026	232.91	89.1498	232.91	89.1605	232.91	89.007	232.91	89.0203	232.91	88.7804	232.91	88.7803	232.91	88.4786	232.91	88.4425	232.91	88.1137	232.91	88.014	232.91	87.7038	232.91	87.5108	232.91	87.2751	232.91	86.962	232.91	86.863	232.91	86.4141	232.91	86.5097	232.91	85.9311	232.91	86.2564	232.91	85.5838	232.91	86.1301	232.91	85.4253	232.91	86.1327	232.91	85.4651	232.91	86.2387	232.91	85.6628	232.91	86.4046	232.91	85.9487	232.91	86.5818	232.91	86.2515	232.91	86.7273	232.91	86.5157	232.91	86.8085	232.91	86.7059	232.91	86.8045
241.699	88.9468	241.699	88.8574	241.699	88.9409	241.699	88.6789	241.699	88.8354	241.699	88.4193	241.699	88.627	241.699	88.0896	241.699	88.3156	241.699	87.7064	241.699	87.9055	241.699	87.2933	241.699	87.4089	241.699	86.8833	241.699	86.8513	241.699	86.5165	241.699	86.2769	241.699	86.2339	241.699	85.7512	241.699	86.066	241.699	85.3527	241.699	86.0212	241.699	85.1477	241.699	86.0828	241.699	85.1573	241.699	86.2148	241.699	85.3452	241.699	86.3745	241.699	85.6381	241.699	86.5218	241.699	85.9593	241.699	86.6243	241.699	86.2497	241.699	86.6588	241.699	86.4726	241.699	86.6103
250.488	89.3575	250.488	89.209	250.488	89.3997	250.488	88.9566	250.488	89.3334	250.488	88.604	250.488	89.1571	250.488	88.1574	250.488	88.8708	250.488	87.6293	250.488	88.4775	250.488	87.0433	250.488	87.9863	250.488	86.4408	250.488	87.4168	250.488	85.8854	250.488	86.8056	250.488	85.4576	250.488	86.2117	250.488	85.23	250.488	85.7155	250.488	85.2308	250.488	85.3996	250.488	85.4253	250.488	85.3129	250.488	85.7348	250.488	85.4406	250.488	86.0736	250.488	85.7124	250.488	86.3739	250.488	86.0385	250.488	86.5917	250.488	86.342	250.488	86.7023	250.488	86.5706	250.488	86.695
259.277	89.4022	259.277	89.2787	259.277	89.4241	259.277	89.0555	259.277	89.3425	259.277	88.735	259.277	89.1561	259.277	88.3218	259.277	88.8649	259.277	87.8247	259.277	88.4725	259.277	87.2618	259.277	87.9893	259.277	86.6662	259.277	87.4367	259.277	86.092	259.277	86.8536	259.277	85.6137	259.277	86.3	259.277	85.3103	259.277	85.8534	259.277	85.2321	259.277	85.5878	259.277	85.3709	259.277	85.5399	259.277	85.6622	259.277	85.6869	259.277	86.0177	259.277	85.9582	259.277	86.3581	259.277	86.269	259.277	86.6263	259.277	86.5473	259.277	86.7881	259.277	86.7432	259.277	86.8276
268.066	89.3852	268.066	89.2446	268.066	89.4137	268.066	88.9904	268.066	89.3304	268.066	88.6209	268.066	89.1352	268.066	88.1357	268.066	88.8285	268.066	87.5387	268.066	88.4133	268.066	86.8446	268.066	87.8983	268.066	86.0881	268.066	87.3024	268.066	85.3366	268.066	86.6617	268.066	84.6972	268.066	86.0361	268.066	84.2968	268.066	85.5089	268.066	84.2216	268.066	85.1695	268.066	84.4552	268.066	85.0734	268.066	84.8874	268.066	85.2079	268.066	85.384	268.066	85.4968	268.066	85.8394	268.066	85.8404	268.066	86.1886	268.066	86.1516	268.066	86.3988	268.066	86.3696	268.066	86.458
276.855	89.6178	276.855	89.5015	276.855	89.6209	276.855	89.2722	276.855	89.5093	276.855	88.929	276.855	89.2813	276.855	88.4708	276.855	88.9368	276.855	87.8983	276.855	88.4792	276.855	87.2177	276.855	87.9199	276.855	86.4475	276.855	87.2834	276.855	85.6295	276.855	86.6131	276.855	84.8429	276.855	85.9768	276.855	84.209	276.855	85.4599	276.855	83.8601	276.855	85.1402	276.855	83.8632	276.855	85.0501	276.855	84.1651	276.855	85.1567	276.855	84.629	276.855	85.3811	276.855	85.1162	276.855	85.6359	276.855	85.5305	276.855	85.849	276.855	85.8202	276.855	85.9698	276.855	85.966
287.109	89.6281	287.109	89.5241	287.109	89.6267	287.109	89.3127	287.109	89.5208	287.109	88.9918	287.109	89.3104	287.109	88.5593	287.109	88.9941	287.109	88.0141	287.109	88.57	287.109	87.3589	287.109	88.0383	287.109	86.6067	287.109	87.4084	287.109	85.7935	287.109	86.7104	287.109	84.9955	287.109	86.0095	287.109	84.3407	287.109	85.4132	287.109	83.9794	287.109	85.0458	287.109	83.9961	287.109	84.9804	287.109	84.3372	287.109	85.1816	287.109	84.852	287.109	85.5298	287.109	85.3891	287.109	85.8947	287.109	85.8466	287.109	86.1818	287.109	86.1701	287.109	86.3372	287.109	86.3358
297.363	90.1317	297.363	90.089	297.363	90.0704	297.363	89.9399	297.363	89.9043	297.363	89.6798	297.363	89.6306	297.363	89.3013	297.363	89.2452	297.363	88.7965	297.363	88.7438	297.363	88.1591	297.363	88.1245	297.363	87.3901	297.363	87.3932	297.363	86.5086	297.363	86.5733	297.363	85.5695	297.363	85.7237	297.363	84.6883	297.363	84.9588	297.363	84.0453	297.363	84.4415	297.363	83.8138	297.363	84.3062	297.363	84.0242	297.363	84.5467	297.363	84.529	297.363	85.0117	297.363	85.1224	297.363	85.5156	297.363	85.6484	297.363	85.923	297.363	86.0192	297.363	86.1599	297.363	86.1941
307.617	89.831	307.617	89.7698	307.617	89.7978	307.617	89.6166	307.617	89.6668	307.617	89.3716	307.617	89.4341	307.617	89.0321	307.617	89.0964	307.617	88.5929	307.617	88.6512	307.617	88.0486	307.617	88.0977	307.617	87.397	307.617	87.4398	307.617	86.6476	307.617	86.6929	307.617	85.8332	307.617	85.8951	307.617	85.0258	307.617	85.1229	307.617	84.3454	307.617	84.4975	307.617	83.9329	307.617	84.1507	307.617	83.8712	307.617	84.1428	307.617	84.1154	307.617	84.4052	307.617	84.522	307.617	84.7855	307.617	84.9372	307.617	85.1354	307.617	85.2497	307.617	85.3556	307.617	85.3971
319.336	89.5915	319.336	89.5201	319.336	89.5635	319.336	89.3531	319.336	89.4309	319.336	89.0923	319.336	89.1882	319.336	88.7364	319.336	88.8297	319.336	88.2814	319.336	88.3504	319.336	87.7239	319.336	87.747	319.336	87.0679	319.336	87.0223	319.336	86.3365	319.336	86.1948	319.336	85.5866	319.336	85.3165	319.336	84.919	319.336	84.4946	319.336	84.4616	319.336	83.8935	319.336	84.3077	319.336	83.6682	319.336	84.4487	319.336	83.8446	319.336	84.7783	319.336	84.2895	319.336	85.1618	319.336	84.815	319.336	85.4905	319.336	85.2767	319.336	85.6945	319.336	85.5943	319.336	85.7349
329.59	89.7853	329.59	89.6983	329.59	89.7802	329.59	89.5202	329.59	89.6798	329.59	89.2492	329.59	89.4793	329.59	88.8806	329.59	89.1723	329.59	88.4065	329.59	88.7514	329.59	87.8179	329.59	88.2093	329.59	87.109	329.59	87.5421	329.59	86.2877	329.59	86.7566	329.59	85.394	329.59	85.8837	329.59	84.5285	329.59	84.9999	329.59	83.8651	329.59	84.2452	329.59	83.5904	329.59	83.7969	329.59	83.7573	329.59	83.7638	329.59	84.2233	329.59	84.0857	329.59	84.7702	329.59	84.5794	329.59	85.2295	329.59	85.0626	329.59	85.5092	329.59	85.4146	329.59	85.572
341.309	89.8504	341.309	89.7546	341.309	89.8399	341.309	89.5533	341.309	89.7231	341.309	89.2484	341.309	89.5006	341.309	88.8408	341.309	89.1726	341.309	88.33	341.309	88.7378	341.309	87.7138	341.309	88.1939	341.309	86.9919	341.309	87.5405	341.309	86.1759	341.309	86.7868	341.309	85.3073	341.309	85.965	341.309	84.4826	341.309	85.1509	341.309	83.8619	341.309	84.4772	341.309	83.613	341.309	84.1033	341.309	83.7847	341.309	84.116	341.309	84.2523	341.309	84.4466	341.309	84.8158	341.309	84.9197	341.309	85.3116	341.309	85.3636	341.309	85.6428	341.309	85.6645	341.309	85.7641
353.027	90.1061	353.027	90.0099	353.027	90.0972	353.027	89.8097	353.027	89.9794	353.027	89.503	353.027	89.7471	353.027	89.084	353.027	89.394	353.027	88.5441	353.027	88.9141	353.027	87.8741	353.027	88.3037	353.027	87.0678	353.027	87.5645	353.027	86.1307	353.027	86.7108	353.027	85.0967	353.027	85.7838	353.027	84.0612	353.027	84.8736	353.027	83.2172	353.027	84.1341	353.027	82.8178	353.027	83.7426	353.027	82.9857	353.027	83.7803	353.027	83.5681	353.027	84.1509	353.027	84.28	353.027	84.6551	353.027	84.9014	353.027	85.1138	353.027	85.3186	353.027	85.4124	353.027	85.4895
366.211	91.0121	366.211	90.9605	366.211	90.9475	366.211	90.793	366.211	90.7634	366.211	90.5064	366.211	90.454	366.211	90.0936	366.211	90.0118	366.211	89.5433	366.211	89.4275	366.211	88.8425	366.211	88.6912	366.211	87.9799	366.211	87.7966	366.211	86.9547	366.211	86.7505	366.211	85.7946	366.211	85.5956	366.211	84.5865	366.211	84.4493	366.211	83.5165	366.211	83.5382	366.211	82.8557	366.211	83.1283	366.211	82.7901	366.211	83.2984	366.211	83.2288	366.211	83.8417	366.211	83.8935	366.211	84.4647	366.211	84.5367	366.211	84.9643	366.211	85.0144	366.211	85.2409	366.211	85.2581
379.395	90.6287	379.395	90.5413	379.395	90.639	379.395	90.3789	379.395	90.5632	379.395	90.1371	379.395	90.3875	379.395	89.8042	379.395	90.0941	379.395	89.363	379.395	89.6635	379.395	88.793	379.395	89.076	379.395	88.075	379.395	88.3138	379.395	87.1993	379.395	87.3648	379.395	86.1813	379.395	86.2355	379.395	85.09	379.395	84.9852	379.395	84.0911	379.395	83.7902	379.395	83.4481	379.395	82.9869	379.395	83.3687	379.395	82.8866	379.395	83.7876	379.395	83.4176	379.395	84.4251	379.395	84.1983	379.395	85.0189	379.395	84.9024	379.395	85.4152	379.395	85.3685	379.395	85.541
392.578	90.7941	392.578	90.706	392.578	90.8059	392.578	90.5425	392.578	90.7349	392.578	90.2983	392.578	90.5706	392.578	89.9616	392.578	90.3001	392.578	89.5145	392.578	89.9098	392.578	88.9337	392.578	89.3854	392.578	88.193	392.578	88.7114	392.578	87.2698	392.578	87.8715	392.578	86.161	392.578	86.8564	392.578	84.9224	392.578	85.6883	392.578	83.7422	392.578	84.4765	392.578	82.9831	392.578	83.4866	392.578	82.962	392.578	83.0805	392.578	83.566	392.578	83.3767	392.578	84.3799	392.578	84.0834	392.578	85.0758	392.578	84.8206	392.578	85.4985	392.578	85.3574	392.578	85.5942
405.762	90.7526	405.762	90.7158	405.762	90.679	405.762	90.5711	405.762	90.4951	405.762	90.3207	405.762	90.2059	405.762	89.9645	405.762	89.8217	405.762	89.4991	405.762	89.3547	405.762	88.9176	405.762	88.813	405.762	88.2096	405.762	88.1953	405.762	87.3633	405.762	87.4924	405.762	86.374	405.762	86.7015	405.762	85.2664	405.762	85.8529	405.762	84.144	405.762	85.0442	405.762	83.2518	405.762	84.4477	405.762	82.9194	405.762	84.233	405.762	83.2547	405.762	84.4196	405.762	83.9844	405.762	84.8418	405.762	84.7424	405.762	85.2768	405.762	85.3033	405.762	85.5548	405.762	85.5776
420.41	91.4479	420.41	91.3601	420.41	91.4384	420.41	91.1768	420.41	91.3286	420.41	90.8971	420.41	91.1152	420.41	90.5155	420.41	90.795	420.41	90.0215	420.41	90.3619	420.41	89.3981	420.41	89.8024	420.41	88.6232	420.41	89.0916	420.41	87.6754	420.41	88.1954	420.41	86.5511	420.41	87.0823	420.41	85.3021	420.41	85.7565	420.41	84.1008	420.41	84.3319	420.41	83.2719	420.41	83.1437	420.41	83.1105	420.41	82.6856	420.41	83.5559	420.41	83.0879	420.41	84.2585	420.41	83.9173	420.41	84.9072	420.41	84.7128	420.41	85.3324	420.41	85.2494	420.41	85.4571
435.059	90.6683	435.059	90.6618	435.059	90.5852	435.059	90.562	435.059	90.4195	435.059	90.3658	435.059	90.1819	435.059	90.0687	435.059	89.8836	435.059	89.6617	435.059	89.5286	435.059	89.1278	435.059	89.1041	435.059	88.44	435.059	88.5753	435.059	87.5626	435.059	87.8924	435.059	86.4636	435.059	87.0106	435.059	85.1524	435.059	85.9303	435.059	83.772	435.059	84.7699	435.059	82.7388	435.059	83.8496	435.059	82.6011	435.059	83.5859	435.059	83.3567	435.059	84.0465	435.059	84.4313	435.059	84.8465	435.059	85.3645	435.059	85.5886	435.059	85.9711	435.059	86.0677	435.059	86.2045
451.172	90.936	451.172	90.8079	451.172	90.9548	451.172	90.5804	451.172	90.8525	451.172	90.2585	451.172	90.6189	451.172	89.8396	451.172	90.2471	451.172	89.3137	451.172	89.7324	451.172	88.6645	451.172	89.071	451.172	87.8719	451.172	88.2577	451.172	86.9139	451.172	87.2854	451.172	85.77	451.172	86.1466	451.172	84.435	451.172	84.8449	451.172	82.9625	451.172	83.4279	451.172	81.5675	451.172	82.0655	451.172	80.711	451.172	81.1268	451.172	80.779	451.172	80.9872	451.172	81.5265	451.172	81.5505	451.172	82.3818	451.172	82.3311	451.172	82.976	451.172	82.9324	451.172	83.1673
465.82	90.7883	465.82	90.68	465.82	90.7963	465.82	90.4714	465.82	90.7022	465.82	90.1601	465.82	90.5022	465.82	89.7404	465.82	90.1905	465.82	89.2026	465.82	89.758	465.82	88.5314	465.82	89.1915	465.82	87.7038	465.82	88.474	465.82	86.6899	465.82	87.5867	465.82	85.4632	465.82	86.516	465.82	84.0403	465.82	85.2737	465.82	82.5829	465.82	83.9478	465.82	81.5385	465.82	82.7888	465.82	81.4418	465.82	82.2095	465.82	82.2119	465.82	82.4331	465.82	83.2501	465.82	83.1744	465.82	84.1197	465.82	83.9771	465.82	84.6495	465.82	84.5568	465.82	84.7943
483.398	90.9366	483.398	90.9155	483.398	90.8697	483.398	90.7997	483.398	90.7248	483.398	90.5834	483.398	90.5134	483.398	90.2599	483.398	90.2431	483.398	89.8192	483.398	89.9084	483.398	89.2446	483.398	89.4835	483.398	88.5078	483.398	88.922	483.398	87.5637	483.398	88.1674	483.398	86.3485	483.398	87.1727	483.398	84.7917	483.398	85.932	483.398	82.8735	483.398	84.5396	483.398	80.8431	483.398	83.2803	483.398	79.6448	483.398	82.6068	483.398	80.1967	483.398	82.7368	483.398	81.6885	483.398	83.3546	483.398	83.0649	483.398	84.0014	483.398	83.9846	483.398	84.3983	483.398	84.4155
499.512	91.3099	499.512	91.2439	499.512	91.2859	499.512	91.087	499.512	91.1803	499.512	90.8443	499.512	91.0042	499.512	90.5204	499.512	90.7613	499.512	90.1101	499.512	90.4368	499.512	89.5905	499.512	89.9922	499.512	88.9161	499.512	89.3679	499.512	88.021	499.512	88.4928	499.512	86.8308	499.512	87.2979	499.512	85.2997	499.512	85.7446	499.512	83.5225	499.512	83.9197	499.512	81.9964	499.512	82.2931	499.512	81.6287	499.512	81.8062	499.512	82.5315	499.512	82.6719	499.512	83.8214	499.512	83.9704	499.512	84.8975	499.512	85.0321	499.512	85.5819	499.512	85.6623	499.512	85.841
517.09	89.8774	517.09	89.9217	517.09	89.7953	517.09	89.9302	517.09	89.6973	517.09	89.9171	517.09	89.6261	517.09	89.8915	517.09	89.6231	517.09	89.8408	517.09	89.6933	517.09	89.7226	517.09	89.7823	517.09	89.4639	517.09	89.7859	517.09	88.9651	517.09	89.5794	517.09	88.0999	517.09	89.0418	517.09	86.7033	517.09	88.0638	517.09	84.5359	517.09	86.5511	517.09	81.2321	517.09	84.4674	517.09	76.7545	517.09	82.0886	517.09	76.0415	517.09	80.6653	517.09	79.8304	517.09	81.3677	517.09	82.538	517.09	82.8964	517.09	83.9613	517.09	84.0157	517.09	84.4028
536.133	90.4962	536.133	90.3464	536.133	90.4387	536.133	90.0224	536.133	90.1545	536.133	89.5749	536.133	89.64	536.133	89.0756	536.133	88.9202	536.133	88.6092	536.133	88.0758	536.133	88.2447	536.133	87.2714	536.133	87.9949	536.133	86.7218	536.133	87.7943	536.133	86.5303	536.133	87.5121	536.133	86.55	536.133	86.9825	536.133	86.494	536.133	86.0353	536.133	86.1321	536.133	84.5294	536.133	85.3785	536.133	82.4621	536.133	84.3383	536.133	80.3949	536.133	83.3745	536.133	79.8549	536.133	82.9548	536.133	81.0349	536.133	83.0982	536.133	82.3737	536.133	83.3146	536.133	83.1475
555.176	91.6708	555.176	91.5612	555.176	91.6421	555.176	91.3002	555.176	91.4842	555.176	90.8774	555.176	91.1966	555.176	90.295	555.176	90.7655	555.176	89.5814	555.176	90.1621	555.176	88.7968	555.176	89.3461	555.176	88.0162	555.176	88.2732	555.176	87.2818	555.176	86.9093	555.176	86.5556	555.176	85.27	555.176	85.7203	555.176	83.5266	555.176	84.641	555.176	82.1725	555.176	83.278	555.176	81.8381	555.176	81.8863	555.176	82.4815	555.176	81.2005	555.176	83.4716	555.176	81.7607	555.176	84.3527	555.176	82.9954	555.176	84.9324	555.176	84.1369	555.176	85.1225	555.176	84.8662
574.219	91.3626	574.219	91.2055	574.219	91.4296	574.219	90.9719	574.219	91.3945	574.219	90.6729	574.219	91.2545	574.219	90.3183	574.219	91.0206	574.219	89.9166	574.219	90.708	574.219	89.4704	574.219	90.3117	574.219	88.9643	574.219	89.7805	574.219	88.3532	574.219	89.0118	574.219	87.5618	574.219	87.8678	574.219	86.4993	574.219	86.1965	574.219	85.0923	574.219	83.8709	574.219	83.3744	574.219	81.0416	574.219	81.7312	574.219	79.2162	574.219	81.0942	574.219	80.2892	574.219	81.8691	574.219	82.3388	574.219	83.1664	574.219	83.843	574.219	84.2055	574.219	84.615	574.219	84.7155
594.727	91.5639	594.727	91.3581	594.727	91.5796	594.727	90.9816	594.727	91.4012	594.727	90.4678	594.727	91.0497	594.727	89.8644	594.727	90.5786	594.727	89.2262	594.727	90.0664	594.727	88.5951	594.727	89.5854	594.727	87.9823	594.727	89.161	594.727	87.3624	594.727	88.7425	594.727	86.6722	594.727	88.2042	594.727	85.8005	594.727	87.3742	594.727	84.5831	594.727	86.065	594.727	82.8475	594.727	84.1072	594.727	80.6479	594.727	81.556	594.727	79.0866	594.727	79.634	594.727	79.8851	594.727	80.351	594.727	81.7884	594.727	82.1856	594.727	83.2014	594.727	83.4236	594.727	83.7604
615.234	92.3015	615.234	92.1762	615.234	92.2433	615.234	91.8673	615.234	92.0221	615.234	91.3952	615.234	91.6762	615.234	90.8	615.234	91.242	615.234	90.1313	615.234	90.7252	615.234	89.4219	615.234	90.0926	615.234	88.6604	615.234	89.2968	615.234	87.7902	615.234	88.308	615.234	86.734	615.234	87.1301	615.234	85.4199	615.234	85.8024	615.234	83.7916	615.234	84.4101	615.234	81.8579	615.234	83.1186	615.234	79.9727	615.234	82.2199	615.234	79.3065	615.234	82.0504	615.234	80.4713	615.234	82.6029	615.234	82.1706	615.234	83.4072	615.234	83.43	615.234	83.9732	615.234	84.023
637.207	91.4291	637.207	91.2427	637.207	91.4937	637.207	90.9456	637.207	91.4525	637.207	90.5747	637.207	91.3279	637.207	90.1708	637.207	91.1168	637.207	89.7517	637.207	90.7781	637.207	89.3066	637.207	90.2563	637.207	88.8201	637.207	89.5213	637.207	88.2854	637.207	88.5781	637.207	87.6662	637.207	87.4284	637.207	86.8374	637.207	86.0069	637.207	85.5741	637.207	84.1535	637.207	83.6019	637.207	81.7128	637.207	80.7104	637.207	79.0597	637.207	77.4391	637.207	78.1313	637.207	76.8389	637.207	79.4794	637.207	78.9365	637.207	80.9349	637.207	80.7109	637.207	81.6589	637.207	81.5937
659.18	91.1903	659.18	91.0739	659.18	91.1491	659.18	90.7977	659.18	91.0008	659.18	90.417	659.18	90.815	659.18	90.0298	659.18	90.6432	659.18	89.7404	659.18	90.4914	659.18	89.5919	659.18	90.3204	659.18	89.5033	659.18	90.0668	659.18	89.2804	659.18	89.6484	659.18	88.7028	659.18	88.9639	659.18	87.6003	659.18	87.9259	659.18	85.8569	659.18	86.4651	659.18	83.3587	659.18	84.4553	659.18	80.1493	659.18	81.7761	659.18	78.0705	659.18	79.4394	659.18	79.9723	659.18	80.4073	659.18	82.665	659.18	82.8852	659.18	84.3626	659.18	84.4967	659.18	84.9701
682.617	92.6853	682.617	92.4772	682.617	92.589	682.617	91.9751	682.617	92.202	682.617	91.236	682.617	91.5613	682.617	90.3802	682.617	90.7554	682.617	89.5727	682.617	89.9624	682.617	88.9631	682.617	89.4347	682.617	88.626	682.617	89.3329	682.617	88.5379	682.617	89.4915	682.617	88.5567	682.617	89.5041	682.617	88.4242	682.617	89.0487	682.617	87.8337	682.617	88.0312	682.617	86.4681	682.617	86.5742	682.617	83.9322	682.617	84.9927	682.617	79.7051	682.617	83.6953	682.617	75.6958	682.617	82.9902	682.617	78.6655	682.617	82.9385	682.617	81.6612	682.617	83.1593	682.617	82.9564
707.52	92.3661	707.52	92.1377	707.52	92.3443	707.52	91.6387	707.52	92.1201	707.52	90.9074	707.52	91.7473	707.52	90.0643	707.52	91.2675	707.52	89.2778	707.52	90.6949	707.52	88.66	707.52	90.0109	707.52	88.2093	707.52	89.1824	707.52	87.8514	707.52	88.2213	707.52	87.4891	707.52	87.2349	707.52	87.03	707.52	86.3053	707.52	86.3668	707.52	85.2492	707.52	85.3641	707.52	83.6827	707.52	83.9	707.52	81.5154	707.52	81.9264	707.52	79.9918	707.52	79.7808	707.52	80.6365	707.52	78.8969	707.52	81.8096	707.52	80.0327	707.52	82.1557	707.52	81.4845
732.422	92.5286	732.422	92.2841	732.422	92.4795	732.422	91.7752	732.422	92.1566	732.422	91.0817	732.422	91.6236	732.422	90.3139	732.422	90.9705	732.422	89.5678	732.422	90.2845	732.422	88.907	732.422	89.6257	732.422	88.3636	732.422	88.9919	732.422	87.8866	732.422	88.3033	732.422	87.3249	732.422	87.4713	732.422	86.5261	732.422	86.51	732.422	85.4058	732.422	85.514	732.422	83.8787	732.422	84.3668	732.422	81.8169	732.422	82.7113	732.422	79.5199	732.422	80.7903	732.422	78.9044	732.422	80.4439	732.422	80.6606	732.422	81.8938	732.422	82.4514	732.422	83.0949	732.422	83.3024
757.324	92.5773	757.324	92.4005	757.324	92.6207	757.324	92.0781	757.324	92.5411	757.324	91.6186	757.324	92.318	757.324	91.0583	757.324	91.9	757.324	90.4436	757.324	91.2627	757.324	89.7812	757.324	90.47	757.324	89.0144	757.324	89.6427	757.324	88.1174	757.324	88.8247	757.324	87.2256	757.324	87.8719	757.324	86.4744	757.324	86.5272	757.324	85.6838	757.324	84.6918	757.324	84.5365	757.324	82.8378	757.324	82.8827	757.324	82.0454	757.324	80.8954	757.324	82.4674	757.324	79.6299	757.324	83.2472	757.324	80.4236	757.324	83.8713	757.324	82.1817	757.324	84.0382	757.324	83.5029
785.156	92.3879	785.156	92.2731	785.156	92.1937	785.156	91.8598	785.156	91.7345	785.156	91.1957	785.156	91.1504	785.156	90.3757	785.156	90.6652	785.156	89.5388	785.156	90.4122	785.156	88.8351	785.156	90.2469	785.156	88.3836	785.156	89.8747	785.156	88.1498	785.156	89.1717	785.156	87.8363	785.156	88.3143	785.156	87.1648	785.156	87.4929	785.156	86.1899	785.156	86.479	785.156	85.2014	785.156	84.7176	785.156	84.3234	785.156	81.7918	785.156	83.2311	785.156	78.7796	785.156	81.7483	785.156	79.527	785.156	80.9715	785.156	81.7856	785.156	81.846	785.156	82.9589	785.156	82.8833
811.523	92.8459	811.523	92.6207	811.523	92.7036	811.523	92.0581	811.523	92.3103	811.523	91.3435	811.523	91.8549	811.523	90.7226	811.523	91.4481	811.523	90.3155	811.523	91.0199	811.523	90.0407	811.523	90.4258	811.523	89.6952	811.523	89.633	811.523	89.1161	811.523	88.691	811.523	88.3403	811.523	87.5104	811.523	87.4989	811.523	85.888	811.523	86.4561	811.523	83.8513	811.523	84.7227	811.523	81.8452	811.523	81.7368	811.523	80.1799	811.523	77.4921	811.523	78.7316	811.523	76.6852	811.523	78.6617	811.523	80.0268	811.523	80.5112	811.523	82.1869	811.523	82.2147	811.523	82.8383
840.82	92.7397	840.82	92.1084	840.82	92.949	840.82	91.2612	840.82	92.641	840.82	90.4552	840.82	91.8084	840.82	89.8241	840.82	90.6013	840.82	89.3502	840.82	89.6	840.82	89.145	840.82	89.6243	840.82	89.437	840.82	90.5393	840.82	90.0318	840.82	91.3611	840.82	90.4471	840.82	91.3789	840.82	90.3951	840.82	90.4269	840.82	89.7099	840.82	88.5942	840.82	88.1414	840.82	85.8024	840.82	85.3614	840.82	81.5759	840.82	81.4154	840.82	76.494	840.82	79.0778	840.82	78.0776	840.82	80.7638	840.82	81.4352	840.82	82.6014	840.82	83.0828	840.82	83.3997
870.117	94.0138	870.117	93.8718	870.117	93.6818	870.117	93.2313	870.117	92.9792	870.117	92.1792	870.117	91.9996	870.117	90.8357	870.117	90.7594	870.117	89.2289	870.117	89.1867	870.117	87.2737	870.117	87.2576	870.117	84.9463	870.117	85.6377	870.117	83.4427	870.117	85.7256	870.117	85.0501	870.117	86.9351	870.117	87.4972	870.117	88.0188	870.117	88.7628	870.117	88.6188	870.117	88.5484	870.117	88.4482	870.117	86.9223	870.117	87.1765	870.117	84.0177	870.117	84.7489	870.117	80.2699	870.117	82.7339	870.117	79.0995	870.117	83.3751	870.117	81.8236	870.117	84.3002	870.117	83.8607
900.879	93.6613	900.879	93.104	900.879	93.9209	900.879	92.524	900.879	93.7706	900.879	92.1176	900.879	93.2375	900.879	91.7574	900.879	92.3731	900.879	91.1193	900.879	91.2636	900.879	89.8885	900.879	90.1328	900.879	87.9006	900.879	89.2036	900.879	85.3406	900.879	88.4436	900.879	83.0318	900.879	87.678	900.879	82.4142	900.879	86.8379	900.879	83.7661	900.879	85.6458	900.879	85.3063	900.879	83.7163	900.879	85.6152	900.879	81.7411	900.879	84.1832	900.879	81.3573	900.879	81.1365	900.879	82.1648	900.879	79.4594	900.879	83.1386	900.879	81.6627	900.879	83.7567	900.879	83.4196
933.105	93.7986	933.105	94.0079	933.105	93.3104	933.105	93.7424	933.105	92.8123	933.105	92.9956	933.105	92.4146	933.105	91.9186	933.105	91.9333	933.105	90.6545	933.105	91.0812	933.105	89.2182	933.105	89.7645	933.105	87.5645	933.105	88.1929	933.105	85.6698	933.105	86.8998	933.105	83.7759	933.105	86.2426	933.105	83.2312	933.105	86.0592	933.105	84.4657	933.105	86.2457	933.105	85.2984	933.105	86.209	933.105	84.7804	933.105	84.9925	933.105	83.3128	933.105	83.0252	933.105	81.9172	933.105	83.406	933.105	81.5327	933.105	84.7592	933.105	82.4196	933.105	84.852	933.105	83.8491
965.332	93.7329	965.332	93.3414	965.332	93.8063	965.332	92.7232	965.332	93.5496	965.332	92.0017	965.332	92.9958	965.332	91.2075	965.332	92.1692	965.332	90.1886	965.332	91.1314	965.332	88.7855	965.332	89.9986	965.332	87.2098	965.332	88.7594	965.332	85.9421	965.332	87.3312	965.332	84.805	965.332	85.9679	965.332	83.1128	965.332	84.8994	965.332	81.602	965.332	83.5644	965.332	81.783	965.332	81.2377	965.332	82.2551	965.332	78.5303	965.332	81.8949	965.332	77.5761	965.332	81.3129	965.332	79.2846	965.332	81.9912	965.332	82.0257	965.332	83.4109	965.332	83.7901	965.332	84.1883
1,000.49	94.2794	1,000.49	94.0615	1,000.49	93.867	1,000.49	93.1887	1,000.49	93.0643	1,000.49	91.9158	1,000.49	92.1255	1,000.49	90.5846	1,000.49	91.1128	1,000.49	89.2793	1,000.49	89.9766	1,000.49	88.0357	1,000.49	88.8878	1,000.49	87.0086	1,000.49	88.2954	1,000.49	86.0297	1,000.49	88.1825	1,000.49	84.6999	1,000.49	87.8074	1,000.49	83.514	1,000.49	86.7833	1,000.49	83.4005	1,000.49	85.7236	1,000.49	83.4045	1,000.49	84.8985	1,000.49	82.0857	1,000.49	82.6667	1,000.49	79.6968	1,000.49	76.9541	1,000.49	79.462	1,000.49	76.5476	1,000.49	81.2148	1,000.49	81.0729	1,000.49	82.5465	1,000.49	82.7875	1,000.49	83.0942
1,035.64	94.7346	1,035.64	94.432	1,035.64	94.3319	1,035.64	93.5009	1,035.64	93.3959	1,035.64	92.3126	1,035.64	92.184	1,035.64	91.1211	1,035.64	90.9339	1,035.64	89.7066	1,035.64	89.7457	1,035.64	87.9626	1,035.64	88.5147	1,035.64	86.231	1,035.64	87.0313	1,035.64	84.4097	1,035.64	85.6622	1,035.64	81.4966	1,035.64	85.5395	1,035.64	76.6359	1,035.64	86.324	1,035.64	76.8524	1,035.64	86.6414	1,035.64	81.0846	1,035.64	85.3862	1,035.64	82.2983	1,035.64	82.707	1,035.64	81.5666	1,035.64	79.7006	1,035.64	80.3804	1,035.64	78.1391	1,035.64	80.0891	1,035.64	80.2222	1,035.64	81.2205	1,035.64	82.1215	1,035.64	82.3343
1,072.27	93.3973	1,072.27	92.411	1,072.27	94.0869	1,072.27	91.8802	1,072.27	94.0951	1,072.27	92.2202	1,072.27	93.117	1,072.27	92.4102	1,072.27	91.0755	1,072.27	91.7858	1,072.27	88.3862	1,072.27	90.7611	1,072.27	85.7443	1,072.27	89.7371	1,072.27	83.3612	1,072.27	88.3188	1,072.27	81.2016	1,072.27	86.2316	1,072.27	80.1891	1,072.27	83.6655	1,072.27	81.0774	1,072.27	80.7219	1,072.27	82.3434	1,072.27	78.7302	1,072.27	82.1624	1,072.27	77.5925	1,072.27	79.1585	1,072.27	72.8403	1,072.27	71.6318	1,072.27	74.6649	1,072.27	63.4621	1,072.27	80.8313	1,072.27	72.0695	1,072.27	82.5411	1,072.27	78.1268	1,072.27	81.4881
1,108.89	92.757	1,108.89	92.5502	1,108.89	93.0694	1,108.89	92.5902	1,108.89	93.1177	1,108.89	92.5149	1,108.89	92.7307	1,108.89	91.849	1,108.89	91.9443	1,108.89	90.4383	1,108.89	90.9377	1,108.89	88.8254	1,108.89	89.8707	1,108.89	87.9096	1,108.89	88.5447	1,108.89	87.7517	1,108.89	86.9206	1,108.89	87.4084	1,108.89	85.6794	1,108.89	85.3496	1,108.89	84.6926	1,108.89	80.7024	1,108.89	82.9039	1,108.89	78.8435	1,108.89	80.4837	1,108.89	79.9201	1,108.89	78.6172	1,108.89	77.7064	1,108.89	76.4156	1,108.89	65.8463	1,108.89	74.4881	1,108.89	75.3876	1,108.89	79.184	1,108.89	82.1861	1,108.89	83.3105	1,108.89	84.2957
1,148.44	92.894	1,148.44	92.9367	1,148.44	92.8681	1,148.44	92.7757	1,148.44	92.9936	1,148.44	92.1739	1,148.44	93.0399	1,148.44	90.8301	1,148.44	92.6514	1,148.44	88.9091	1,148.44	91.7831	1,148.44	87.5815	1,148.44	90.4809	1,148.44	87.5246	1,148.44	88.5699	1,148.44	87.6512	1,148.44	86.0398	1,148.44	87.3098	1,148.44	83.2494	1,148.44	86.3719	1,148.44	81.8203	1,148.44	83.8522	1,148.44	82.1423	1,148.44	79.8465	1,148.44	81.6188	1,148.44	80.3773	1,148.44	80.437	1,148.44	80.684	1,148.44	78.0018	1,148.44	75.9905	1,148.44	70.9278	1,148.44	68.7757	1,148.44	77.2459	1,148.44	78.8362	1,148.44	81.8754	1,148.44	82.1444
1,189.45	95.8756	1,189.45	95.3317	1,189.45	95.3618	1,189.45	93.7116	1,189.45	94.0668	1,189.45	91.3502	1,189.45	92.497	1,189.45	89.0194	1,189.45	91.3532	1,189.45	87.8298	1,189.45	90.9676	1,189.45	88.2857	1,189.45	91.0653	1,189.45	89.2743	1,189.45	91.0022	1,189.45	89.8595	1,189.45	90.1832	1,189.45	89.9509	1,189.45	88.7147	1,189.45	89.6514	1,189.45	87.3876	1,189.45	88.2052	1,189.45	87.095	1,189.45	83.9381	1,189.45	87.6632	1,189.45	77.5213	1,189.45	87.282	1,189.45	79.2474	1,189.45	84.257	1,189.45	80.1066	1,189.45	81.2322	1,189.45	76.818	1,189.45	82.2113	1,189.45	75.6299	1,189.45	82.4871	1,189.45	80.5688
1,230.47	96.5991	1,230.47	95.8209	1,230.47	96.5322	1,230.47	94.6729	1,230.47	95.6143	1,230.47	93.6251	1,230.47	94.0894	1,230.47	92.4718	1,230.47	92.3901	1,230.47	90.9767	1,230.47	91.3257	1,230.47	89.2927	1,230.47	91.2499	1,230.47	88.1833	1,230.47	91.0695	1,230.47	86.8737	1,230.47	89.6394	1,230.47	85.2073	1,230.47	87.2507	1,230.47	86.517	1,230.47	85.9582	1,230.47	87.7197	1,230.47	86.0827	1,230.47	85.7925	1,230.47	85.0237	1,230.47	82.2196	1,230.47	83.714	1,230.47	81.7305	1,230.47	81.6797	1,230.47	80.3017	1,230.47	74.9744	1,230.47	74.488	1,230.47	79.9992	1,230.47	77.4081	1,230.47	83.7346	1,230.47	82.7382
1,274.41	95.5288	1,274.41	94.6784	1,274.41	96.013	1,274.41	94.2477	1,274.41	95.6837	1,274.41	94.1804	1,274.41	94.3378	1,274.41	93.609	1,274.41	92.196	1,274.41	92.3151	1,274.41	89.9828	1,274.41	90.4607	1,274.41	88.3124	1,274.41	88.3542	1,274.41	87.3193	1,274.41	86.7061	1,274.41	86.6465	1,274.41	85.5651	1,274.41	86.1192	1,274.41	84.8838	1,274.41	86.0133	1,274.41	84.7813	1,274.41	86.034	1,274.41	83.7997	1,274.41	86.3394	1,274.41	81.8277	1,274.41	86.1875	1,274.41	80.2325	1,274.41	83.2858	1,274.41	78.3513	1,274.41	77.0573	1,274.41	76.0587	1,274.41	78.073	1,274.41	78.425	1,274.41	80.7676	1,274.41	80.8107
1,319.82	94.4405	1,319.82	94.4579	1,319.82	94.9381	1,319.82	94.8265	1,319.82	95.2242	1,319.82	94.5286	1,319.82	94.567	1,319.82	92.9937	1,319.82	92.5392	1,319.82	90.4223	1,319.82	89.6089	1,319.82	87.4432	1,319.82	87.4018	1,319.82	85.0238	1,319.82	86.979	1,319.82	85.1306	1,319.82	86.4523	1,319.82	86.3674	1,319.82	84.7473	1,319.82	86.7918	1,319.82	81.1603	1,319.82	85.8281	1,319.82	79.1717	1,319.82	83.245	1,319.82	80.5038	1,319.82	80.099	1,319.82	81.6565	1,319.82	80.105	1,319.82	80.8965	1,319.82	79.0516	1,319.82	77.1097	1,319.82	74.7046	1,319.82	79.6326	1,319.82	75.6745	1,319.82	82.2974	1,319.82	81.0174
1,366.7	94.0179	1,366.7	94.2662	1,366.7	94.0411	1,366.7	94.3997	1,366.7	94.084	1,366.7	93.7052	1,366.7	93.6655	1,366.7	91.8891	1,366.7	92.5137	1,366.7	90.1081	1,366.7	90.6523	1,366.7	89.2594	1,366.7	88.6085	1,366.7	87.4278	1,366.7	87.2978	1,366.7	83.2738	1,366.7	87.4609	1,366.7	79.3185	1,366.7	88.1224	1,366.7	83.2084	1,366.7	88.3824	1,366.7	85.5535	1,366.7	86.9472	1,366.7	85.1477	1,366.7	82.7393	1,366.7	82.2252	1,366.7	80.2109	1,366.7	77.5984	1,366.7	80.172	1,366.7	77.0181	1,366.7	75.2873	1,366.7	76.3904	1,366.7	77.9377	1,366.7	74.2844	1,366.7	80.3239	1,366.7	78.3128
1,413.57	94.1905	1,413.57	94.1387	1,413.57	94.1209	1,413.57	93.93	1,413.57	93.7838	1,413.57	93.3542	1,413.57	92.8266	1,413.57	92.3383	1,413.57	91.3174	1,413.57	91.3589	1,413.57	89.8572	1,413.57	90.1237	1,413.57	88.2478	1,413.57	87.3473	1,413.57	86.796	1,413.57	84.9078	1,413.57	86.3222	1,413.57	84.7097	1,413.57	85.8864	1,413.57	81.8497	1,413.57	86.4033	1,413.57	78.4993	1,413.57	87.265	1,413.57	81.1961	1,413.57	85.9146	1,413.57	81.0725	1,413.57	84.2108	1,413.57	79.263	1,413.57	81.1057	1,413.57	79.1514	1,413.57	73.9153	1,413.57	76.311	1,413.57	77.0429	1,413.57	71.1344	1,413.57	77.5187	1,413.57	74.8317
1,463.38	94.7944	1,463.38	94.7688	1,463.38	94.4673	1,463.38	94.3394	1,463.38	93.8988	1,463.38	93.3784	1,463.38	93.0466	1,463.38	91.6902	1,463.38	91.8708	1,463.38	89.8015	1,463.38	90.5331	1,463.38	88.3954	1,463.38	89.0807	1,463.38	87.2323	1,463.38	87.3575	1,463.38	87.015	1,463.38	85.4931	1,463.38	87.4907	1,463.38	84.8114	1,463.38	86.163	1,463.38	85.943	1,463.38	83.0637	1,463.38	86.5403	1,463.38	81.8248	1,463.38	86.1343	1,463.38	81.0411	1,463.38	84.7622	1,463.38	77.22	1,463.38	80.4236	1,463.38	73.5017	1,463.38	70.5763	1,463.38	76.0343	1,463.38	75.7006	1,463.38	75.1671	1,463.38	75.7463	1,463.38	72.9818
1,516.11	95.0574	1,516.11	95.4843	1,516.11	94.3782	1,516.11	94.8201	1,516.11	93.988	1,516.11	92.615	1,516.11	93.5755	1,516.11	90.1142	1,516.11	92.4281	1,516.11	89.4148	1,516.11	90.4602	1,516.11	88.3092	1,516.11	88.1685	1,516.11	86.7018	1,516.11	86.2404	1,516.11	84.9815	1,516.11	85.7759	1,516.11	83.7661	1,516.11	85.84	1,516.11	83.7966	1,516.11	83.1399	1,516.11	82.2379	1,516.11	81.3013	1,516.11	80.673	1,516.11	81.285	1,516.11	80.4041	1,516.11	79.4	1,516.11	77.2936	1,516.11	77.6725	1,516.11	76.9186	1,516.11	76.6751	1,516.11	77.1612	1,516.11	78.5071	1,516.11	75.8521	1,516.11	79.1733	1,516.11	76.8654
1,568.85	94.8756	1,568.85	94.7298	1,568.85	94.2467	1,568.85	93.3976	1,568.85	93.397	1,568.85	91.9536	1,568.85	92.4916	1,568.85	92.0142	1,568.85	91.6177	1,568.85	91.5337	1,568.85	91.101	1,568.85	89.4059	1,568.85	90.9009	1,568.85	87.244	1,568.85	90.1917	1,568.85	83.7739	1,568.85	88.729	1,568.85	78.0572	1,568.85	86.4895	1,568.85	79.126	1,568.85	82.5922	1,568.85	80.8075	1,568.85	80.369	1,568.85	80.0994	1,568.85	77.7222	1,568.85	81.4291	1,568.85	75.3308	1,568.85	82.5224	1,568.85	75.3656	1,568.85	79.9118	1,568.85	68.608	1,568.85	73.3254	1,568.85	69.1854	1,568.85	76.624	1,568.85	76.6715	1,568.85	79.1397
1,624.51	93.9178	1,624.51	93.0674	1,624.51	94.0557	1,624.51	92.8649	1,624.51	93.1166	1,624.51	93.5172	1,624.51	91.2788	1,624.51	92.6887	1,624.51	89.9012	1,624.51	90.047	1,624.51	90.4825	1,624.51	87.8809	1,624.51	90.9059	1,624.51	86.6476	1,624.51	89.5001	1,624.51	85.1322	1,624.51	86.4672	1,624.51	84.8049	1,624.51	82.7713	1,624.51	83.8283	1,624.51	79.7373	1,624.51	80.9784	1,624.51	79.1864	1,624.51	77.9324	1,624.51	77.2258	1,624.51	77.7922	1,624.51	74.753	1,624.51	77.9884	1,624.51	76.3758	1,624.51	77.4538	1,624.51	70.5555	1,624.51	73.9245	1,624.51	68.7492	1,624.51	74.6244	1,624.51	75.8282	1,624.51	77.101
1,681.64	93.3456	1,681.64	93.3277	1,681.64	93.5915	1,681.64	93.4088	1,681.64	93.4402	1,681.64	92.6178	1,681.64	92.3332	1,681.64	89.9816	1,681.64	90.3461	1,681.64	87.7471	1,681.64	88.3003	1,681.64	88.1365	1,681.64	87.2624	1,681.64	87.293	1,681.64	86.9232	1,681.64	84.6518	1,681.64	86.3919	1,681.64	82.8225	1,681.64	85.5936	1,681.64	80.9043	1,681.64	83.0943	1,681.64	78.9537	1,681.64	79.2785	1,681.64	80.0099	1,681.64	81.7727	1,681.64	80.6405	1,681.64	83.105	1,681.64	76.2503	1,681.64	81.8592	1,681.64	74.1418	1,681.64	74.54	1,681.64	78.7896	1,681.64	70.2353	1,681.64	79.6229	1,681.64	74.8016	1,681.64	77.8575
1,741.7	94.4182	1,741.7	93.9663	1,741.7	93.7153	1,741.7	92.5129	1,741.7	92.3783	1,741.7	91.255	1,741.7	91.2477	1,741.7	90.5626	1,741.7	90.5122	1,741.7	89.7589	1,741.7	89.3584	1,741.7	88.3965	1,741.7	87.6682	1,741.7	84.5738	1,741.7	87.0963	1,741.7	79.8798	1,741.7	87.7022	1,741.7	79.2881	1,741.7	86.9158	1,741.7	79.0008	1,741.7	83.0682	1,741.7	81.9875	1,741.7	72.8996	1,741.7	81.1274	1,741.7	77.983	1,741.7	73.3802	1,741.7	78.1429	1,741.7	72.5759	1,741.7	72.4811	1,741.7	78.7456	1,741.7	67.9657	1,741.7	76.819	1,741.7	67.1178	1,741.7	73.3745	1,741.7	79.008	1,741.7	79.8777
1,803.22	94.2654	1,803.22	94.1679	1,803.22	93.5946	1,803.22	93.2164	1,803.22	92.2925	1,803.22	91.4674	1,803.22	90.5582	1,803.22	89.1334	1,803.22	89.2159	1,803.22	87.9347	1,803.22	88.5205	1,803.22	87.1419	1,803.22	87.4473	1,803.22	83.2163	1,803.22	86.1323	1,803.22	81.9399	1,803.22	86.4283	1,803.22	82.6903	1,803.22	86.5497	1,803.22	78.63	1,803.22	84.4414	1,803.22	81.1074	1,803.22	79.248	1,803.22	82.7911	1,803.22	73.4746	1,803.22	79.5607	1,803.22	74.7047	1,803.22	68.0306	1,803.22	68.6537	1,803.22	77.3273	1,803.22	72.7758	1,803.22	79.1699	1,803.22	74.2932	1,803.22	71.3643	1,803.22	79.6567	1,803.22	77.1444
1,866.21	92.9506	1,866.21	93.2221	1,866.21	92.9312	1,866.21	93.3092	1,866.21	92.2892	1,866.21	91.3525	1,866.21	90.9496	1,866.21	87.8563	1,866.21	89.8974	1,866.21	87.4651	1,866.21	88.8036	1,866.21	86.8242	1,866.21	86.2278	1,866.21	83.4925	1,866.21	81.6152	1,866.21	81.9828	1,866.21	84.5483	1,866.21	82.4724	1,866.21	86.5895	1,866.21	81.7151	1,866.21	84.3792	1,866.21	79.4274	1,866.21	81.841	1,866.21	79.6015	1,866.21	77.762	1,866.21	79.9682	1,866.21	75.1127	1,866.21	76.3658	1,866.21	75.8776	1,866.21	55.7971	1,866.21	72.2076	1,866.21	68.867	1,866.21	71.6629	1,866.21	72.6208	1,866.21	75.5758	1,866.21	76.3665
1,932.13	91.7961	1,932.13	92.148	1,932.13	92.0546	1,932.13	92.1193	1,932.13	91.4342	1,932.13	90.7259	1,932.13	89.5897	1,932.13	88.7815	1,932.13	88.7552	1,932.13	85.9153	1,932.13	88.68	1,932.13	82.3509	1,932.13	86.8397	1,932.13	81.3714	1,932.13	82.5761	1,932.13	80.9556	1,932.13	82.6402	1,932.13	82.132	1,932.13	85.0834	1,932.13	79.8328	1,932.13	84.6548	1,932.13	74.6117	1,932.13	83.06	1,932.13	78.2143	1,932.13	79.0665	1,932.13	74.9313	1,932.13	79.0428	1,932.13	75.9558	1,932.13	77.5781	1,932.13	72.8601	1,932.13	68.0308	1,932.13	67.59	1,932.13	71.4495	1,932.13	74.6521	1,932.13	74.8202	1,932.13	73.8556
1,999.51	92.4713	1,999.51	91.8463	1,999.51	91.1769	1,999.51	90.0182	1,999.51	89.6795	1,999.51	89.9561	1,999.51	89.346	1,999.51	89.0991	1,999.51	88.8509	1,999.51	86.6112	1,999.51	87.5292	1,999.51	85.3815	1,999.51	86.4275	1,999.51	81.8023	1,999.51	84.1506	1,999.51	78.093	1,999.51	81.2001	1,999.51	80.4693	1,999.51	78.031	1,999.51	78.8039	1,999.51	79.4532	1,999.51	73.7661	1,999.51	81.6215	1,999.51	77.5076	1,999.51	76.0625	1,999.51	75.7734	1,999.51	65.844	1,999.51	70.7405	1,999.51	72.2041	1,999.51	68.3817	1,999.51	72.6429	1,999.51	70.9032	1,999.51	72.7986	1,999.51	68.6716	1,999.51	76.6269	1,999.51	74.0278
2,069.82	92.4289	2,069.82	91.4553	2,069.82	91.4611	2,069.82	90.2718	2,069.82	89.8154	2,069.82	89.247	2,069.82	88.7276	2,069.82	86.1562	2,069.82	87.087	2,069.82	84.17	2,069.82	85.8559	2,069.82	82.3318	2,069.82	85.7831	2,069.82	79.9093	2,069.82	85.3638	2,069.82	81.3611	2,069.82	84.1206	2,069.82	78.6659	2,069.82	82.6345	2,069.82	78.1682	2,069.82	81.7149	2,069.82	73.2023	2,069.82	77.9261	2,069.82	73.0081	2,069.82	70.8246	2,069.82	77.4574	2,069.82	67.2511	2,069.82	71.576	2,069.82	73.2011	2,069.82	66.0896	2,069.82	73.5232	2,069.82	69.3349	2,069.82	73.4415	2,069.82	64.8104	2,069.82	76.68	2,069.82	74.3373
2,143.07	90.4234	2,143.07	90.4027	2,143.07	89.8898	2,143.07	90.7006	2,143.07	88.6175	2,143.07	88.9813	2,143.07	87.212	2,143.07	85.3193	2,143.07	85.8248	2,143.07	84.2427	2,143.07	83.8392	2,143.07	83.7638	2,143.07	80.8929	2,143.07	82.0098	2,143.07	81.8333	2,143.07	79.6623	2,143.07	83.2593	2,143.07	78.5915	2,143.07	81.9702	2,143.07	76.7766	2,143.07	81.0418	2,143.07	75.224	2,143.07	79.0148	2,143.07	66.7155	2,143.07	70.9178	2,143.07	77.1795	2,143.07	65.0043	2,143.07	75.7866	2,143.07	67.2962	2,143.07	58.2853	2,143.07	67.5403	2,143.07	69.8304	2,143.07	69.4564	2,143.07	56.51	2,143.07	75.5148	2,143.07	72.4393
2,219.24	88.1981	2,219.24	88.5246	2,219.24	87.6738	2,219.24	89.2887	2,219.24	85.969	2,219.24	88.5121	2,219.24	84.6084	2,219.24	85.8516	2,219.24	84.6483	2,219.24	84.8503	2,219.24	83.6058	2,219.24	83.4991	2,219.24	81.0708	2,219.24	81.7029	2,219.24	76.4661	2,219.24	81.517	2,219.24	77.8758	2,219.24	79.6793	2,219.24	79.3963	2,219.24	78.0288	2,219.24	80.323	2,219.24	77.6583	2,219.24	80.2246	2,219.24	71.6109	2,219.24	76.3696	2,219.24	71.7176	2,219.24	72.0658	2,219.24	74.6403	2,219.24	68.5857	2,219.24	62.7941	2,219.24	70.8369	2,219.24	65.6819	2,219.24	60.4153	2,219.24	58.3199	2,219.24	67.8349	2,219.24	65.8381
2,296.88	88.9669	2,296.88	88.3987	2,296.88	89.0618	2,296.88	87.7703	2,296.88	87.7833	2,296.88	86.0965	2,296.88	85.8205	2,296.88	85.6587	2,296.88	84.6498	2,296.88	84.9052	2,296.88	84.944	2,296.88	82.5145	2,296.88	84.2018	2,296.88	82.1325	2,296.88	79.7702	2,296.88	79.062	2,296.88	73.8016	2,296.88	74.2296	2,296.88	76.2454	2,296.88	73.6132	2,296.88	74.947	2,296.88	76.5408	2,296.88	76.045	2,296.88	72.0147	2,296.88	76.3581	2,296.88	67.2663	2,296.88	71.4184	2,296.88	67.5445	2,296.88	66.6626	2,296.88	57.5524	2,296.88	65.0482	2,296.88	60.9202	2,296.88	65.8498	2,296.88	61.8142	2,296.88	72.895	2,296.88	72.1674
2,378.91	89.0527	2,378.91	89.5681	2,378.91	89.8658	2,378.91	88.522	2,378.91	89.7411	2,378.91	86.6091	2,378.91	87.3757	2,378.91	86.4906	2,378.91	83.9246	2,378.91	84.6303	2,378.91	83.2721	2,378.91	81.5969	2,378.91	82.8962	2,378.91	73.0182	2,378.91	81.5109	2,378.91	77.1046	2,378.91	81.7824	2,378.91	78.9697	2,378.91	78.5728	2,378.91	75.0638	2,378.91	68.5321	2,378.91	75.7002	2,378.91	56.0361	2,378.91	73.7253	2,378.91	66.921	2,378.91	64.3016	2,378.91	70.3956	2,378.91	74.4587	2,378.91	68.9429	2,378.91	69.0124	2,378.91	66.8602	2,378.91	67.4045	2,378.91	63.8522	2,378.91	69.3405	2,378.91	72.0623	2,378.91	71.2238
2,462.4	90.0283	2,462.4	89.8751	2,462.4	89.7217	2,462.4	89.3761	2,462.4	89.9669	2,462.4	88.6255	2,462.4	88.9227	2,462.4	86.4148	2,462.4	85.8229	2,462.4	83.1259	2,462.4	84.0611	2,462.4	80.7656	2,462.4	82.9607	2,462.4	80.0593	2,462.4	82.1016	2,462.4	76.4897	2,462.4	79.0131	2,462.4	71.4911	2,462.4	78.0935	2,462.4	73.139	2,462.4	70.7306	2,462.4	73.227	2,462.4	61.4079	2,462.4	75.2985	2,462.4	73.919	2,462.4	68.5804	2,462.4	71.3116	2,462.4	73.8741	2,462.4	70.9702	2,462.4	72.8295	2,462.4	67.5631	2,462.4	67.8911	2,462.4	55.5832	2,462.4	70.4243	2,462.4	66.5176	2,462.4	68.1188
2,548.83	92.4526	2,548.83	91.7122	2,548.83	91.7666	2,548.83	90.9531	2,548.83	90.7097	2,548.83	89.3719	2,548.83	89.2816	2,548.83	85.6485	2,548.83	86.7885	2,548.83	83.2462	2,548.83	84.9631	2,548.83	83.068	2,548.83	82.5737	2,548.83	80.339	2,548.83	80.7683	2,548.83	80.1641	2,548.83	80.5027	2,548.83	76.7521	2,548.83	79.5938	2,548.83	73.5113	2,548.83	70.0753	2,548.83	74.5915	2,548.83	71.1495	2,548.83	76.1606	2,548.83	76.9946	2,548.83	74.9228	2,548.83	72.4829	2,548.83	72.3053	2,548.83	73.7377	2,548.83	72.3765	2,548.83	73.0265	2,548.83	68.7315	2,548.83	67.7129	2,548.83	71.4112	2,548.83	59.3557	2,548.83	64.2301
2,639.65	92.1284	2,639.65	91.7923	2,639.65	92.3366	2,639.65	90.9616	2,639.65	91.3506	2,639.65	88.331	2,639.65	88.933	2,639.65	85.9522	2,639.65	87.3073	2,639.65	85.2015	2,639.65	85.4588	2,639.65	83.1413	2,639.65	81.4027	2,639.65	81.4487	2,639.65	81.5448	2,639.65	76.8456	2,639.65	80.5831	2,639.65	73.152	2,639.65	68.2569	2,639.65	73.9664	2,639.65	71.6293	2,639.65	73.8653	2,639.65	74.0436	2,639.65	74.7312	2,639.65	74.998	2,639.65	72.0317	2,639.65	72.0272	2,639.65	70.6032	2,639.65	73.2248	2,639.65	72.8719	2,639.65	72.9589	2,639.65	71.0438	2,639.65	70.7906	2,639.65	72.3157	2,639.65	63.2645	2,639.65	61.7618
2,731.93	91.7542	2,731.93	91.7226	2,731.93	91.7456	2,731.93	91.0782	2,731.93	90.799	2,731.93	88.8779	2,731.93	88.8647	2,731.93	87.3993	2,731.93	87.3623	2,731.93	85.8843	2,731.93	85.046	2,731.93	83.3524	2,731.93	81.9999	2,731.93	79.0334	2,731.93	79.4439	2,731.93	80.5094	2,731.93	73.8928	2,731.93	78.0441	2,731.93	73.1305	2,731.93	76.8902	2,731.93	79.0368	2,731.93	72.5003	2,731.93	75.8654	2,731.93	74.8021	2,731.93	72.7403	2,731.93	74.3258	2,731.93	68.6475	2,731.93	71.8789	2,731.93	69.5626	2,731.93	71.807	2,731.93	72.5244	2,731.93	73.6231	2,731.93	67.2514	2,731.93	73.9521	2,731.93	65.6539	2,731.93	56.9704
2,828.61	92.0857	2,828.61	92.2855	2,828.61	92.0638	2,828.61	90.902	2,828.61	91.3877	2,828.61	88.9634	2,828.61	88.7174	2,828.61	86.3161	2,828.61	87.0252	2,828.61	84.1768	2,828.61	84.4384	2,828.61	82.3776	2,828.61	81.5453	2,828.61	79.1903	2,828.61	80.8891	2,828.61	79.6028	2,828.61	77.9652	2,828.61	77.7555	2,828.61	77.5183	2,828.61	70.9829	2,828.61	79.039	2,828.61	71.1531	2,828.61	72.583	2,828.61	70.9401	2,828.61	68.6118	2,828.61	73.3675	2,828.61	63.8115	2,828.61	70.7213	2,828.61	68.9524	2,828.61	70.1504	2,828.61	71.2187	2,828.61	67.9309	2,828.61	67.0022	2,828.61	73.1925	2,828.61	65.731	2,828.61	58.6142
2,928.22	91.5044	2,928.22	91.6631	2,928.22	91.7157	2,928.22	90.5156	2,928.22	90.8824	2,928.22	89.1038	2,928.22	88.5433	2,928.22	86.8555	2,928.22	86.1266	2,928.22	85.8459	2,928.22	83.4939	2,928.22	81.7472	2,928.22	80.7788	2,928.22	79.4333	2,928.22	80.1458	2,928.22	79.2815	2,928.22	76.6506	2,928.22	71.4578	2,928.22	81.3564	2,928.22	74.0436	2,928.22	79.9736	2,928.22	70.0165	2,928.22	63.5997	2,928.22	72.9396	2,928.22	58.146	2,928.22	73.4395	2,928.22	67.5406	2,928.22	70.8725	2,928.22	64.2582	2,928.22	70.9783	2,928.22	69.3006	2,928.22	69.8852	2,928.22	67.5103	2,928.22	72.3884	2,928.22	68.6569	2,928.22	56.0155
3,030.76	91.8266	3,030.76	91.3143	3,030.76	91.3072	3,030.76	90.1283	3,030.76	90.3039	3,030.76	88.1165	3,030.76	88.8305	3,030.76	87.4991	3,030.76	85.8976	3,030.76	85.6384	3,030.76	82.6269	3,030.76	82.4957	3,030.76	79.5988	3,030.76	80.2714	3,030.76	76.4585	3,030.76	73.9959	3,030.76	73.6942	3,030.76	73.8382	3,030.76	80.518	3,030.76	74.3615	3,030.76	78.3842	3,030.76	70.7901	3,030.76	73.6592	3,030.76	68.2964	3,030.76	69.0534	3,030.76	71.4775	3,030.76	70.3186	3,030.76	71.0156	3,030.76	65.9321	3,030.76	71.0226	3,030.76	70.3568	3,030.76	67.4404	3,030.76	67.3983	3,030.76	73.424	3,030.76	69.3133	3,030.76	60.2161
3,137.7	92.2944	3,137.7	91.6249	3,137.7	91.7305	3,137.7	90.4452	3,137.7	90.2786	3,137.7	88.9436	3,137.7	88.7337	3,137.7	86.7578	3,137.7	86.2114	3,137.7	84.8977	3,137.7	83.1264	3,137.7	82.4741	3,137.7	80.5172	3,137.7	76.9718	3,137.7	76.1735	3,137.7	75.1121	3,137.7	77.8402	3,137.7	75.3479	3,137.7	78.8168	3,137.7	71.2829	3,137.7	72.1739	3,137.7	70.8139	3,137.7	75.5826	3,137.7	60.5724	3,137.7	69.9544	3,137.7	69.6792	3,137.7	68.927	3,137.7	68.8784	3,137.7	59.1682	3,137.7	71.0035	3,137.7	71.0731	3,137.7	65.3627	3,137.7	67.2614	3,137.7	72.6253	3,137.7	68.5455	3,137.7	64.0771
3,249.02	91.9951	3,249.02	91.1497	3,249.02	92.1262	3,249.02	90.2947	3,249.02	91.0984	3,249.02	88.8754	3,249.02	88.7573	3,249.02	86.8173	3,249.02	86.0292	3,249.02	84.1398	3,249.02	82.3445	3,249.02	80.3164	3,249.02	79.0691	3,249.02	75.0893	3,249.02	76.6333	3,249.02	76.5096	3,249.02	80.0705	3,249.02	71.6412	3,249.02	77.9037	3,249.02	70.8604	3,249.02	71.6412	3,249.02	69.7847	3,249.02	73.4464	3,249.02	68.7571	3,249.02	71.9989	3,249.02	66.4857	3,249.02	67.5864	3,249.02	65.5016	3,249.02	63.9393	3,249.02	68.9103	3,249.02	69.5198	3,249.02	51.5688	3,249.02	65.933	3,249.02	69.4168	3,249.02	68.4372	3,249.02	64.4435
3,363.28	91.7028	3,363.28	91.3534	3,363.28	91.509	3,363.28	90.4719	3,363.28	90.9683	3,363.28	89.0368	3,363.28	88.8316	3,363.28	86.3356	3,363.28	85.1186	3,363.28	82.8909	3,363.28	81.8409	3,363.28	76.8519	3,363.28	80.0136	3,363.28	74.8816	3,363.28	77.052	3,363.28	71.1038	3,363.28	77.4155	3,363.28	68.7613	3,363.28	73.7318	3,363.28	72.6289	3,363.28	70.6315	3,363.28	69.8368	3,363.28	64.4997	3,363.28	67.7887	3,363.28	68.2656	3,363.28	64.6618	3,363.28	61.531	3,363.28	66.7028	3,363.28	65.9275	3,363.28	65.2389	3,363.28	67.6791	3,363.28	60.526	3,363.28	62.5834	3,363.28	68.6192	3,363.28	67.5758	3,363.28	63.0733
3,481.93	92.2552	3,481.93	91.7355	3,481.93	92.1445	3,481.93	90.8585	3,481.93	90.7451	3,481.93	88.9477	3,481.93	88.729	3,481.93	84.8947	3,481.93	85.2385	3,481.93	82.067	3,481.93	80.2009	3,481.93	75.2449	3,481.93	78.8168	3,481.93	74.8902	3,481.93	75.2896	3,481.93	69.6067	3,481.93	74.5824	3,481.93	74.5516	3,481.93	61.8846	3,481.93	67.28	3,481.93	57.0939	3,481.93	69.4331	3,481.93	64.4969	3,481.93	69.416	3,481.93	56.708	3,481.93	66.3912	3,481.93	65.511	3,481.93	66.3296	3,481.93	65.9013	3,481.93	67.5505	3,481.93	68.8258	3,481.93	61.5666	3,481.93	60.5966	3,481.93	67.0502	3,481.93	68.8117	3,481.93	64.2815
3,604.98	92.2578	3,604.98	91.4472	3,604.98	92.5801	3,604.98	91.3217	3,604.98	91.6136	3,604.98	89.0216	3,604.98	88.6078	3,604.98	84.9809	3,604.98	84.2805	3,604.98	78.957	3,604.98	80.497	3,604.98	76.2102	3,604.98	76.2556	3,604.98	73.443	3,604.98	75.4056	3,604.98	75.4245	3,604.98	67.9222	3,604.98	74.7426	3,604.98	70.3459	3,604.98	72.5952	3,604.98	71.733	3,604.98	70.0869	3,604.98	71.5548	3,604.98	70.2208	3,604.98	59.4725	3,604.98	68.5135	3,604.98	56.6089	3,604.98	67.6611	3,604.98	64.0239	3,604.98	65.2339	3,604.98	66.925	3,604.98	58.1083	3,604.98	63.1713	3,604.98	65.9704	3,604.98	68.7506	3,604.98	61.6697
3,732.42	92.7904	3,732.42	92.158	3,732.42	93.181	3,732.42	91.7029	3,732.42	91.9543	3,732.42	89.5421	3,732.42	88.5954	3,732.42	83.9372	3,732.42	82.9921	3,732.42	78.8947	3,732.42	79.3175	3,732.42	74.7718	3,732.42	76.9798	3,732.42	78.1295	3,732.42	73.117	3,732.42	74.6454	3,732.42	71.0476	3,732.42	72.9095	3,732.42	76.6346	3,732.42	73.312	3,732.42	76.6325	3,732.42	70.1697	3,732.42	75.347	3,732.42	68.9867	3,732.42	64.3598	3,732.42	70.0456	3,732.42	53.0721	3,732.42	69.9495	3,732.42	58.5637	3,732.42	64.4908	3,732.42	66.3175	3,732.42	64.4196	3,732.42	64.915	3,732.42	65.1694	3,732.42	69.5877	3,732.42	58.0441
3,864.26	92.8385	3,864.26	92.8235	3,864.26	93.7865	3,864.26	92.3566	3,864.26	92.3045	3,864.26	88.7358	3,864.26	88.5247	3,864.26	82.5822	3,864.26	82.5913	3,864.26	79.2968	3,864.26	80.2702	3,864.26	78.115	3,864.26	77.9118	3,864.26	79.0693	3,864.26	76.9351	3,864.26	76.2302	3,864.26	73.9546	3,864.26	73.8958	3,864.26	76.132	3,864.26	73.3349	3,864.26	77.931	3,864.26	71.5905	3,864.26	74.929	3,864.26	70.4854	3,864.26	61.4631	3,864.26	69.9388	3,864.26	51.9442	3,864.26	70.4866	3,864.26	57.6625	3,864.26	67.7453	3,864.26	60.0773	3,864.26	66.0344	3,864.26	61.9361	3,864.26	64.8853	3,864.26	69.5373	3,864.26	56.4977
4,000.49	93.1248	4,000.49	92.8624	4,000.49	93.4786	4,000.49	92.0593	4,000.49	92.3365	4,000.49	88.2485	4,000.49	88.5297	4,000.49	82.2137	4,000.49	82.9656	4,000.49	80.9936	4,000.49	81.2509	4,000.49	80.1359	4,000.49	80.0118	4,000.49	79.4953	4,000.49	77.5111	4,000.49	77.5562	4,000.49	75.8595	4,000.49	77.275	4,000.49	77.8003	4,000.49	73.6661	4,000.49	79.6514	4,000.49	73.6364	4,000.49	70.8095	4,000.49	69.2315	4,000.49	63.2597	4,000.49	71.7552	4,000.49	62.3605	4,000.49	69.9572	4,000.49	63.4297	4,000.49	66.8028	4,000.49	51.9047	4,000.49	67.4428	4,000.49	62.2001	4,000.49	65.4214	4,000.49	68.7496	4,000.49	51.0635
4,141.11	92.7531	4,141.11	93.1693	4,141.11	93.3328	4,141.11	91.7268	4,141.11	91.7788	4,141.11	87.7626	4,141.11	87.275	4,141.11	83.1956	4,141.11	82.5662	4,141.11	82.2177	4,141.11	81.8576	4,141.11	81.3436	4,141.11	79.3727	4,141.11	78.376	4,141.11	77.0911	4,141.11	79.1522	4,141.11	78.8492	4,141.11	73.3704	4,141.11	78.2272	4,141.11	72.4924	4,141.11	73.1639	4,141.11	71.3726	4,141.11	64.9768	4,141.11	67.3495	4,141.11	66.7625	4,141.11	70.3248	4,141.11	68.574	4,141.11	68.8426	4,141.11	64.5034	4,141.11	67.1181	4,141.11	58.8381	4,141.11	69.1392	4,141.11	51.7469	4,141.11	60.7701	4,141.11	65.951	4,141.11	57.2465
4,287.6	93.4537	4,287.6	93.7524	4,287.6	93.7714	4,287.6	92.0329	4,287.6	92.7616	4,287.6	87.9855	4,287.6	87.9143	4,287.6	83.2738	4,287.6	84.2861	4,287.6	83.8825	4,287.6	84.4936	4,287.6	80.107	4,287.6	78.2868	4,287.6	80.7928	4,287.6	77.7548	4,287.6	74.4222	4,287.6	80.7257	4,287.6	75.664	4,287.6	76.6947	4,287.6	73.4191	4,287.6	72.6626	4,287.6	70.6689	4,287.6	75.5992	4,287.6	70.2563	4,287.6	64.3983	4,287.6	69.3268	4,287.6	67.639	4,287.6	70.2123	4,287.6	65.3823	4,287.6	66.7516	4,287.6	65.6142	4,287.6	68.2335	4,287.6	63.9161	4,287.6	60.4811	4,287.6	67.4469	4,287.6	56.082
4,438.48	93.8439	4,438.48	94.6611	4,438.48	93.7178	4,438.48	92.0938	4,438.48	93.4093	4,438.48	86.083	4,438.48	88.3257	4,438.48	85.5072	4,438.48	85.4506	4,438.48	83.7249	4,438.48	84.0338	4,438.48	82.7959	4,438.48	78.0012	4,438.48	81.2012	4,438.48	81.4515	4,438.48	79.5512	4,438.48	79.7212	4,438.48	76.458	4,438.48	72.8394	4,438.48	74.0457	4,438.48	76.0856	4,438.48	72.1223	4,438.48	76.9205	4,438.48	70.8974	4,438.48	66.4535	4,438.48	71.3438	4,438.48	65.3216	4,438.48	69.8302	4,438.48	61.7193	4,438.48	69.1667	4,438.48	66.0324	4,438.48	67.007	4,438.48	66.5941	4,438.48	62.0545	4,438.48	65.9406	4,438.48	42.4972
4,595.21	95.1006	4,595.21	94.3618	4,595.21	94.6857	4,595.21	91.1556	4,595.21	93.2647	4,595.21	88.9704	4,595.21	87.9652	4,595.21	84.9928	4,595.21	87.195	4,595.21	84.9222	4,595.21	83.3423	4,595.21	82.8462	4,595.21	82.496	4,595.21	80.5958	4,595.21	83.3827	4,595.21	78.8767	4,595.21	77.8583	4,595.21	74.254	4,595.21	74.486	4,595.21	74.9425	4,595.21	75.913	4,595.21	71.28	4,595.21	70.4491	4,595.21	68.6589	4,595.21	67.63	4,595.21	70.7834	4,595.21	57.5455	4,595.21	70.731	4,595.21	62.8172	4,595.21	68.4331	4,595.21	64.8709	4,595.21	66.9809	4,595.21	67.3506	4,595.21	61.0192	4,595.21	67.6549	4,595.21	58.1694
4,756.35	96.0705	4,756.35	94.5314	4,756.35	94.5171	4,756.35	92.3578	4,756.35	93.434	4,756.35	88.6087	4,756.35	88.8111	4,756.35	84.9813	4,756.35	87.5649	4,756.35	85.7012	4,756.35	81.9295	4,756.35	82.9264	4,756.35	85.3534	4,756.35	82.0076	4,756.35	83.2621	4,756.35	78.3579	4,756.35	78.6446	4,756.35	76.6557	4,756.35	77.3306	4,756.35	73.7879	4,756.35	74.4544	4,756.35	73.1149	4,756.35	66.6601	4,756.35	69.8022	4,756.35	62.7057	4,756.35	71.4761	4,756.35	61.0084	4,756.35	70.8895	4,756.35	61.5135	4,756.35	69.8899	4,756.35	52.6647	4,756.35	70.8996	4,756.35	69.6651	4,756.35	65.5363	4,756.35	64.6697	4,756.35	57.8681
4,924.8	96.1856	4,924.8	95.5475	4,924.8	95.1916	4,924.8	92.578	4,924.8	93.2349	4,924.8	87.2861	4,924.8	88.8912	4,924.8	86.6754	4,924.8	87.928	4,924.8	85.6727	4,924.8	83.211	4,924.8	83.6431	4,924.8	85.7161	4,924.8	80.4298	4,924.8	78.5118	4,924.8	77.639	4,924.8	77.0837	4,924.8	75.7707	4,924.8	75.4894	4,924.8	73.0585	4,924.8	77.9084	4,924.8	72.1537	4,924.8	74.4493	4,924.8	67.7537	4,924.8	67.1471	4,924.8	68.9188	4,924.8	63.1807	4,924.8	68.0997	4,924.8	66.4942	4,924.8	71.5951	4,924.8	57.0914	4,924.8	68.9639	4,924.8	67.6996	4,924.8	64.7686	4,924.8	66.4994	4,924.8	55.0652
5,097.66	96.3018	5,097.66	94.6485	5,097.66	94.8854	5,097.66	91.6183	5,097.66	92.6993	5,097.66	88.7648	5,097.66	89.6877	5,097.66	86.3841	5,097.66	87.6098	5,097.66	84.804	5,097.66	85.6003	5,097.66	82.4255	5,097.66	85.6238	5,097.66	80.1024	5,097.66	76.9425	5,097.66	77.9109	5,097.66	74.9095	5,097.66	74.2537	5,097.66	74.3972	5,097.66	72.1413	5,097.66	76.7005	5,097.66	70.6913	5,097.66	76.2652	5,097.66	72.8468	5,097.66	65.1345	5,097.66	66.6454	5,097.66	61.2982	5,097.66	68.4557	5,097.66	63.5794	5,097.66	69.1973	5,097.66	63.8223	5,097.66	66.757	5,097.66	63.1358	5,097.66	55.3161	5,097.66	65.7157	5,097.66	57.447
5,277.83	95.9237	5,277.83	94.2503	5,277.83	95.0114	5,277.83	91.7624	5,277.83	92.7994	5,277.83	88.6726	5,277.83	89.9097	5,277.83	85.6209	5,277.83	87.3818	5,277.83	85.2615	5,277.83	86.7757	5,277.83	82.5785	5,277.83	80.9623	5,277.83	80.5443	5,277.83	79.4389	5,277.83	75.9089	5,277.83	76.8114	5,277.83	75.447	5,277.83	76.2271	5,277.83	72.5882	5,277.83	75.3139	5,277.83	70.8071	5,277.83	77.0254	5,277.83	70.3394	5,277.83	70.6706	5,277.83	68.4586	5,277.83	59.5634	5,277.83	69.8611	5,277.83	50.4079	5,277.83	70.7126	5,277.83	64.5364	5,277.83	67.9043	5,277.83	62.665	5,277.83	61.0051	5,277.83	64.3223	5,277.83	62.3832
5,463.87	96.5263	5,463.87	95.1534	5,463.87	95.5176	5,463.87	91.7198	5,463.87	92.6581	5,463.87	87.1811	5,463.87	90.306	5,463.87	86.564	5,463.87	86.9835	5,463.87	84.1458	5,463.87	87.8707	5,463.87	82.1636	5,463.87	79.0066	5,463.87	79.1017	5,463.87	77.8486	5,463.87	78.0504	5,463.87	74.1605	5,463.87	75.1992	5,463.87	76.4058	5,463.87	70.9744	5,463.87	76.1057	5,463.87	72.3096	5,463.87	76.435	5,463.87	70.3066	5,463.87	72.2955	5,463.87	65.1208	5,463.87	64.1847	5,463.87	70.6851	5,463.87	49.0415	5,463.87	69.3088	5,463.87	60.5367	5,463.87	69.53	5,463.87	65.986	5,463.87	66.224	5,463.87	62.9379	5,463.87	61.383
5,657.23	96.5656	5,657.23	94.7124	5,657.23	95.9462	5,657.23	91.1647	5,657.23	91.5048	5,657.23	88.0563	5,657.23	90.6747	5,657.23	86.5084	5,657.23	87.1568	5,657.23	83.4695	5,657.23	85.6825	5,657.23	81.4983	5,657.23	80.9024	5,657.23	81.0423	5,657.23	78.4509	5,657.23	75.6981	5,657.23	77.4567	5,657.23	75.4405	5,657.23	74.0379	5,657.23	71.799	5,657.23	78.0349	5,657.23	71.3914	5,657.23	76.1212	5,657.23	67.9228	5,657.23	67.6399	5,657.23	68.7171	5,657.23	58.9172	5,657.23	68.8438	5,657.23	54.456	5,657.23	68.1589	5,657.23	59.3943	5,657.23	66.5798	5,657.23	66.392	5,657.23	67.3625	5,657.23	64.6277	5,657.23	60.5712
5,856.45	96.5598	5,856.45	94.5424	5,856.45	95.7416	5,856.45	90.4069	5,856.45	91.2201	5,856.45	87.6933	5,856.45	90.3321	5,856.45	84.8966	5,856.45	87.6931	5,856.45	83.5843	5,856.45	83.7585	5,856.45	82.726	5,856.45	80.7106	5,856.45	79.6528	5,856.45	78.509	5,856.45	78.3591	5,856.45	78.7584	5,856.45	74.5835	5,856.45	75.3262	5,856.45	72.5088	5,856.45	77.4615	5,856.45	70.7293	5,856.45	74.5714	5,856.45	67.1831	5,856.45	67.943	5,856.45	68.0207	5,856.45	59.2075	5,856.45	69.3286	5,856.45	61.9724	5,856.45	66.7964	5,856.45	63.7016	5,856.45	64.7122	5,856.45	66.053	5,856.45	56.9464	5,856.45	65.0722	5,856.45	60.8816
6,062.99	95.3943	6,062.99	93.0785	6,062.99	94.8953	6,062.99	88.9756	6,062.99	91.7368	6,062.99	86.7855	6,062.99	88.5514	6,062.99	83.8666	6,062.99	87.9189	6,062.99	83.0337	6,062.99	83.35	6,062.99	81.1591	6,062.99	82.9025	6,062.99	80.2393	6,062.99	80.0895	6,062.99	73.8667	6,062.99	77.4255	6,062.99	71.8566	6,062.99	68.7031	6,062.99	70.1983	6,062.99	73.4586	6,062.99	66.441	6,062.99	75.5332	6,062.99	67.1843	6,062.99	64.3881	6,062.99	65.0752	6,062.99	62.9858	6,062.99	65.9308	6,062.99	64.6923	6,062.99	64.1162	6,062.99	60.0707	6,062.99	67.4917	6,062.99	57.4596	6,062.99	47.4608	6,062.99	64.4412	6,062.99	54.9676
6,276.86	93.8687	6,276.86	91.5098	6,276.86	93.6502	6,276.86	87.3578	6,276.86	91.1823	6,276.86	84.8358	6,276.86	85.3367	6,276.86	83.6076	6,276.86	87.1093	6,276.86	82.2065	6,276.86	83.6345	6,276.86	80.6371	6,276.86	82.0728	6,276.86	76.4117	6,276.86	80.3666	6,276.86	73.395	6,276.86	76.7538	6,276.86	70.5568	6,276.86	67.2202	6,276.86	67.0301	6,276.86	73.7537	6,276.86	64.2792	6,276.86	74.1034	6,276.86	63.0416	6,276.86	63.5784	6,276.86	62.0729	6,276.86	59.6093	6,276.86	63.691	6,276.86	54.2013	6,276.86	64.1687	6,276.86	61.724	6,276.86	63.6944	6,276.86	48.6983	6,276.86	59.0963	6,276.86	62.7574	6,276.86	55.6546
6,498.05	93.0427	6,498.05	90.2572	6,498.05	92.3102	6,498.05	86.7842	6,498.05	90.0067	6,498.05	83.8822	6,498.05	82.3385	6,498.05	82.4794	6,498.05	84.7451	6,498.05	81.9058	6,498.05	83.594	6,498.05	77.8836	6,498.05	80.1455	6,498.05	74.4448	6,498.05	77.8015	6,498.05	69.8429	6,498.05	68.8161	6,498.05	67.3345	6,498.05	70.4523	6,498.05	65.2278	6,498.05	73.5358	6,498.05	64.0739	6,498.05	69.5798	6,498.05	63.8419	6,498.05	67.5645	6,498.05	59.0825	6,498.05	54.1719	6,498.05	63.3566	6,498.05	61.1311	6,498.05	66.8257	6,498.05	62.6826	6,498.05	60.8861	6,498.05	51.6226	6,498.05	50.359	6,498.05	61.8463	6,498.05	51.6922
6,726.56	91.1878	6,726.56	88.7633	6,726.56	90.8798	6,726.56	86.2147	6,726.56	87.5706	6,726.56	83.7742	6,726.56	81.7064	6,726.56	82.3098	6,726.56	82.1	6,726.56	81.1554	6,726.56	80.841	6,726.56	76.7309	6,726.56	78.8256	6,726.56	72.7299	6,726.56	71.8601	6,726.56	70.3085	6,726.56	65.655	6,726.56	66.4396	6,726.56	64.9759	6,726.56	66.2597	6,726.56	67.2956	6,726.56	63.1547	6,726.56	66.4144	6,726.56	63.6003	6,726.56	60.0409	6,726.56	62.9651	6,726.56	45.9339	6,726.56	63.0631	6,726.56	56.7413	6,726.56	63.5905	6,726.56	56.1419	6,726.56	59.8262	6,726.56	49.3748	6,726.56	52.0455	6,726.56	56.1102	6,726.56	46.7332
6,963.87	89.0726	6,963.87	87.8326	6,963.87	87.9156	6,963.87	85.9632	6,963.87	82.654	6,963.87	83.3237	6,963.87	79.4967	6,963.87	81.5487	6,963.87	78.4808	6,963.87	79.5287	6,963.87	76.8086	6,963.87	76.3643	6,963.87	75.8083	6,963.87	73.2553	6,963.87	63.6114	6,963.87	69.3093	6,963.87	67.0417	6,963.87	66.5283	6,963.87	48.4417	6,963.87	64.9915	6,963.87	57.3774	6,963.87	60.9452	6,963.87	62.1663	6,963.87	62.8163	6,963.87	61.3348	6,963.87	61.5756	6,963.87	57.1263	6,963.87	61.2569	6,963.87	50.9678	6,963.87	59.0977	6,963.87	48.5971	6,963.87	57.3882	6,963.87	43.1163	6,963.87	54.7356	6,963.87	52.4611	6,963.87	50.8991
7,209.96	87.8666	7,209.96	87.5547	7,209.96	84.4836	7,209.96	85.6197	7,209.96	77.7039	7,209.96	83.2015	7,209.96	72.5039	7,209.96	81.24	7,209.96	72.2357	7,209.96	78.9826	7,209.96	71.2231	7,209.96	76.3822	7,209.96	66.8204	7,209.96	72.0996	7,209.96	54.7325	7,209.96	69.6735	7,209.96	54.6297	7,209.96	65.7557	7,209.96	48.9846	7,209.96	64.3355	7,209.96	56.605	7,209.96	60.9988	7,209.96	64.2018	7,209.96	61.0646	7,209.96	64.8853	7,209.96	59.7842	7,209.96	59.1991	7,209.96	60.8158	7,209.96	48.062	7,209.96	58.6068	7,209.96	41.8945	7,209.96	59.3153	7,209.96	31.03	7,209.96	48.2443	7,209.96	41.0774	7,209.96	53.8359
7,464.84	88.0919	7,464.84	88.2817	7,464.84	83.3451	7,464.84	86.2567	7,464.84	77.6185	7,464.84	83.93	7,464.84	73.6276	7,464.84	81.7249	7,464.84	72.536	7,464.84	79.4239	7,464.84	70.6714	7,464.84	76.5352	7,464.84	50.6699	7,464.84	72.5322	7,464.84	64.9505	7,464.84	68.8416	7,464.84	61.7454	7,464.84	66.2209	7,464.84	53.3411	7,464.84	64.1966	7,464.84	61.8863	7,464.84	61.2413	7,464.84	68.1031	7,464.84	61.6798	7,464.84	67.7695	7,464.84	59.5947	7,464.84	58.2669	7,464.84	60.4682	7,464.84	47.3969	7,464.84	60.2738	7,464.84	49.2963	7,464.84	59.6234	7,464.84	43.9268	7,464.84	53.89	7,464.84	35.6317	7,464.84	53.1561
7,727.05	88.537	7,727.05	88.6674	7,727.05	85.0156	7,727.05	86.4713	7,727.05	82.9065	7,727.05	83.0072	7,727.05	78.5224	7,727.05	81.0221	7,727.05	76.737	7,727.05	78.2622	7,727.05	75.2244	7,727.05	74.9882	7,727.05	68.6866	7,727.05	70.0926	7,727.05	70.3994	7,727.05	67.3863	7,727.05	63.3586	7,727.05	64.7835	7,727.05	53.4118	7,727.05	62.4721	7,727.05	65.0376	7,727.05	60.241	7,727.05	72.1128	7,727.05	60.0563	7,727.05	69.6575	7,727.05	58.2122	7,727.05	61.9043	7,727.05	58.3937	7,727.05	55.0668	7,727.05	57.7262	7,727.05	34.3057	7,727.05	59.3285	7,727.05	44.605	7,727.05	54.3075	7,727.05	46.7093	7,727.05	52.7
7,999.51	89.5116	7,999.51	88.6751	7,999.51	87.827	7,999.51	85.4179	7,999.51	85.5486	7,999.51	81.3947	7,999.51	81.7442	7,999.51	79.3947	7,999.51	79.5374	7,999.51	76.06	7,999.51	76.1112	7,999.51	71.7581	7,999.51	76.6898	7,999.51	66.2657	7,999.51	68.6348	7,999.51	63.5306	7,999.51	69.567	7,999.51	62.2985	7,999.51	53.9312	7,999.51	56.5158	7,999.51	66.9667	7,999.51	60.5267	7,999.51	74.6694	7,999.51	57.4822	7,999.51	72.1632	7,999.51	51.5479	7,999.51	63.2346	7,999.51	57.1751	7,999.51	56.3292	7,999.51	60.0088	7,999.51	52.4925	7,999.51	59.283	7,999.51	45.6835	7,999.51	50.7555	7,999.51	50.8693	7,999.51	52.4011
8,282.23	90.3601	8,282.23	89.0161	8,282.23	88.3901	8,282.23	84.4705	8,282.23	85.2995	8,282.23	80.4753	8,282.23	83.3921	8,282.23	79.0224	8,282.23	80.6923	8,282.23	74.9239	8,282.23	74.5864	8,282.23	68.8959	8,282.23	78.7575	8,282.23	66.6787	8,282.23	71.3082	8,282.23	67.2619	8,282.23	73.3596	8,282.23	63.0591	8,282.23	63.6176	8,282.23	63.8179	8,282.23	67.3352	8,282.23	58.8071	8,282.23	75.214	8,282.23	57.1361	8,282.23	73.0494	8,282.23	59.1886	8,282.23	64.2287	8,282.23	59.448	8,282.23	59.9861	8,282.23	62.9165	8,282.23	54.8259	8,282.23	61.2245	8,282.23	50.4602	8,282.23	58.2973	8,282.23	48.8502	8,282.23	57.486
8,573.73	90.6073	8,573.73	88.5711	8,573.73	88.9343	8,573.73	83.791	8,573.73	85.5625	8,573.73	81.8321	8,573.73	82.8693	8,573.73	78.8188	8,573.73	81.4766	8,573.73	74.5238	8,573.73	78.2242	8,573.73	73.7114	8,573.73	77.8165	8,573.73	71.8306	8,573.73	77.4397	8,573.73	70.5362	8,573.73	73.4279	8,573.73	67.0534	8,573.73	64.1811	8,573.73	65.3764	8,573.73	69.4164	8,573.73	60.0467	8,573.73	76.4677	8,573.73	59.9921	8,573.73	73.1761	8,573.73	63.6674	8,573.73	65.4821	8,573.73	61.8929	8,573.73	53.3686	8,573.73	63.0026	8,573.73	50.2391	8,573.73	59.7358	8,573.73	55.3035	8,573.73	52.9543	8,573.73	53.7592	8,573.73	55.5072
8,876.95	90.3275	8,876.95	88.7818	8,876.95	90.7158	8,876.95	84.5623	8,876.95	87.4027	8,876.95	82.2753	8,876.95	83.9302	8,876.95	79.3059	8,876.95	82.2683	8,876.95	73.2257	8,876.95	80.6471	8,876.95	75.9337	8,876.95	73.2746	8,876.95	72.7961	8,876.95	79.0506	8,876.95	70.1078	8,876.95	69.1	8,876.95	68.8779	8,876.95	61.9366	8,876.95	63.373	8,876.95	70.2496	8,876.95	62.7951	8,876.95	76.8073	8,876.95	62.2255	8,876.95	74.6396	8,876.95	62.6584	8,876.95	66.5216	8,876.95	59.3653	8,876.95	50.8319	8,876.95	58.5436	8,876.95	54.5435	8,876.95	53.0626	8,876.95	47.5364	8,876.95	53.6436	8,876.95	48.3882	8,876.95	50.7493
9,188.96	90.4393	9,188.96	88.3245	9,188.96	90.9268	9,188.96	84.9239	9,188.96	88.7096	9,188.96	81.9732	9,188.96	84.83	9,188.96	78.7342	9,188.96	81.8231	9,188.96	74.4765	9,188.96	79.6929	9,188.96	74.8754	9,188.96	76.8012	9,188.96	72.2029	9,188.96	76.462	9,188.96	68.2542	9,188.96	70.3637	9,188.96	64.6982	9,188.96	60.0203	9,188.96	58.801	9,188.96	67.8145	9,188.96	60.9675	9,188.96	76.7394	9,188.96	58.7104	9,188.96	74.6457	9,188.96	58.3225	9,188.96	67.295	9,188.96	57.2153	9,188.96	47.329	9,188.96	59.8191	9,188.96	45.2677	9,188.96	56.3674	9,188.96	50.658	9,188.96	43.3106	9,188.96	50.251	9,188.96	52.7665
9,514.16	89.7968	9,514.16	88.3846	9,514.16	89.3723	9,514.16	85.655	9,514.16	87.9498	9,514.16	82.6359	9,514.16	84.1296	9,514.16	77.8954	9,514.16	79.9542	9,514.16	74.9747	9,514.16	74.8074	9,514.16	75.3526	9,514.16	76.1804	9,514.16	70.7638	9,514.16	72.1302	9,514.16	68.2255	9,514.16	69.9594	9,514.16	61.9318	9,514.16	59.8223	9,514.16	59.8889	9,514.16	69.7468	9,514.16	58.135	9,514.16	75.6831	9,514.16	56.0807	9,514.16	74.9517	9,514.16	55.6963	9,514.16	64.5976	9,514.16	56.246	9,514.16	53.6295	9,514.16	58.4818	9,514.16	51.715	9,514.16	54.8661	9,514.16	53.6017	9,514.16	56.2436	9,514.16	52.649	9,514.16	52.1697
9,849.61	88.9854	9,849.61	87.6295	9,849.61	88.0956	9,849.61	85.3683	9,849.61	85.6993	9,849.61	83.0449	9,849.61	82.6905	9,849.61	77.8061	9,849.61	77.4385	9,849.61	75.1414	9,849.61	72.4055	9,849.61	75.1731	9,849.61	74.1376	9,849.61	70.1279	9,849.61	69.1085	9,849.61	66.149	9,849.61	66.356	9,849.61	62.9719	9,849.61	59.6061	9,849.61	59.0149	9,849.61	69.4859	9,849.61	56.706	9,849.61	74.897	9,849.61	58.1471	9,849.61	74.2425	9,849.61	59.6368	9,849.61	65.7845	9,849.61	56.9206	9,849.61	53.8293	9,849.61	58.8605	9,849.61	50.8455	9,849.61	57.3306	9,849.61	51.938	9,849.61	56.83	9,849.61	50.7849	9,849.61	49.9066
10,196.8	87.7675	10,196.8	86.8571	10,196.8	86.6702	10,196.8	85.9148	10,196.8	84.2479	10,196.8	82.7805	10,196.8	81.9528	10,196.8	77.6956	10,196.8	75.5122	10,196.8	74.9559	10,196.8	73.9351	10,196.8	75.1398	10,196.8	73.1025	10,196.8	68.2641	10,196.8	69.4945	10,196.8	63.799	10,196.8	66.1544	10,196.8	62.2153	10,196.8	65.2469	10,196.8	59.1409	10,196.8	67.7468	10,196.8	54.68	10,196.8	74.2148	10,196.8	57.4873	10,196.8	73.9922	10,196.8	60.3602	10,196.8	65.7989	10,196.8	57.1906	10,196.8	50.9486	10,196.8	58.5228	10,196.8	52.0387	10,196.8	55.3669	10,196.8	55.1577	10,196.8	52.3047	10,196.8	49.1549	10,196.8	52.3195
10,555.7	86.3212	10,555.7	86.7543	10,555.7	85.6498	10,555.7	86.4137	10,555.7	84.1627	10,555.7	82.0658	10,555.7	80.5846	10,555.7	77.9564	10,555.7	75.3712	10,555.7	75.9029	10,555.7	75.1498	10,555.7	74.8873	10,555.7	71.2195	10,555.7	67.7559	10,555.7	68.0064	10,555.7	63.944	10,555.7	64.5166	10,555.7	61.13	10,555.7	62.8754	10,555.7	58.6174	10,555.7	66.3894	10,555.7	54.9498	10,555.7	73.5522	10,555.7	55.6753	10,555.7	73.5253	10,555.7	58.8195	10,555.7	65.802	10,555.7	57.0878	10,555.7	53.6062	10,555.7	57.6896	10,555.7	52.0635	10,555.7	51.0895	10,555.7	51.0202	10,555.7	51.6952	10,555.7	49.3195	10,555.7	45.6409
10,927.7	87.1666	10,927.7	87.6777	10,927.7	86.0981	10,927.7	87.1773	10,927.7	85.4382	10,927.7	82.2589	10,927.7	80.2162	10,927.7	77.6849	10,927.7	76.3114	10,927.7	76.9448	10,927.7	75.4114	10,927.7	73.5911	10,927.7	68.4043	10,927.7	66.6295	10,927.7	63.0637	10,927.7	65.3172	10,927.7	64.246	10,927.7	61.8165	10,927.7	66.4601	10,927.7	57.5939	10,927.7	67.9577	10,927.7	54.1404	10,927.7	73.3389	10,927.7	56.04	10,927.7	73.7043	10,927.7	59.4595	10,927.7	64.5146	10,927.7	56.595	10,927.7	55.9255	10,927.7	57.9284	10,927.7	49.707	10,927.7	54.5807	10,927.7	50.1551	10,927.7	39.1229	10,927.7	49.6266	10,927.7	50.3353
11,313	88.7332	11,313	88.515	11,313	87.8179	11,313	87.595	11,313	87.0088	11,313	82.5481	11,313	79.2573	11,313	77.0762	11,313	75.2709	11,313	76.1534	11,313	74.3615	11,313	70.856	11,313	67.1009	11,313	65.7547	11,313	63.5538	11,313	65.5857	11,313	67.6325	11,313	60.8831	11,313	66.3809	11,313	56.8125	11,313	67.0288	11,313	55.3734	11,313	73.8002	11,313	55.2376	11,313	74.0809	11,313	56.2538	11,313	65.0204	11,313	54.8174	11,313	57.136	11,313	56.4537	11,313	53.6053	11,313	48.9474	11,313	52.3691	11,313	48.6629	11,313	48.6715	11,313	47.2998
11,712.9	90.2772	11,712.9	89.2596	11,712.9	89.1929	11,712.9	87.4687	11,712.9	87.813	11,712.9	81.8234	11,712.9	80.357	11,712.9	76.2664	11,712.9	75.3163	11,712.9	74.0292	11,712.9	73.7465	11,712.9	69.672	11,712.9	68.8011	11,712.9	66.1508	11,712.9	69.0337	11,712.9	64.4085	11,712.9	65.3222	11,712.9	60.4966	11,712.9	66.7634	11,712.9	57.6236	11,712.9	67.9296	11,712.9	54.217	11,712.9	73.7756	11,712.9	53.1289	11,712.9	74.4788	11,712.9	56.134	11,712.9	64.2652	11,712.9	53.756	11,712.9	56.5739	11,712.9	54.8608	11,712.9	46.4404	11,712.9	47.6831	11,712.9	47.717	11,712.9	45.6536	11,712.9	45.835	11,712.9	43.3583
12,126	90.3532	12,126	89.0382	12,126	89.2264	12,126	87.2559	12,126	87.6713	12,126	80.3347	12,126	81.8427	12,126	76.319	12,126	76.2188	12,126	71.7687	12,126	73.762	12,126	69.9288	12,126	69.2529	12,126	66.9533	12,126	68.7703	12,126	64.0298	12,126	64.8616	12,126	60.6815	12,126	66.6504	12,126	56.4918	12,126	69.103	12,126	54.034	12,126	74.3468	12,126	54.2581	12,126	74.1286	12,126	53.7206	12,126	64.6044	12,126	51.241	12,126	52.2688	12,126	54.318	12,126	51.8053	12,126	47.646	12,126	51.0134	12,126	48.9282	12,126	50.3117	12,126	50.0935
12,553.7	89.5178	12,553.7	88.201	12,553.7	88.8985	12,553.7	86.5489	12,553.7	87.7376	12,553.7	78.7193	12,553.7	81.3225	12,553.7	76.3918	12,553.7	77.7806	12,553.7	70.042	12,553.7	73.1541	12,553.7	70.4416	12,553.7	72.2724	12,553.7	66.8969	12,553.7	67.1734	12,553.7	61.8303	12,553.7	65.8367	12,553.7	59.3729	12,553.7	65.8795	12,553.7	51.6233	12,553.7	68.4763	12,553.7	54.1816	12,553.7	74.0474	12,553.7	54.4973	12,553.7	73.3618	12,553.7	53.174	12,553.7	65.4837	12,553.7	52.602	12,553.7	54.238	12,553.7	55.4688	12,553.7	52.2704	12,553.7	52.9268	12,553.7	53.9656	12,553.7	52.1442	12,553.7	49.2909	12,553.7	46.7585
12,996.1	88.2671	12,996.1	87.3998	12,996.1	88.0293	12,996.1	85.6249	12,996.1	86.9296	12,996.1	77.2526	12,996.1	78.4837	12,996.1	75.6081	12,996.1	76.6974	12,996.1	69.8704	12,996.1	69.7941	12,996.1	70.7915	12,996.1	70.8162	12,996.1	64.7415	12,996.1	63.5167	12,996.1	60.5194	12,996.1	63.7703	12,996.1	58.0531	12,996.1	63.5458	12,996.1	50.6809	12,996.1	67.2026	12,996.1	54.0196	12,996.1	72.3001	12,996.1	54.6961	12,996.1	72.3737	12,996.1	52.0004	12,996.1	62.8386	12,996.1	52.0694	12,996.1	55.2321	12,996.1	54.2041	12,996.1	39.655	12,996.1	47.8411	12,996.1	47.6298	12,996.1	44.5806	12,996.1	45.9136	12,996.1	46.9004
13,454.6	87.3063	13,454.6	86.3988	13,454.6	85.8604	13,454.6	84.1784	13,454.6	83.7821	13,454.6	76.2179	13,454.6	74.4397	13,454.6	73.2625	13,454.6	72.6591	13,454.6	67.591	13,454.6	65.9057	13,454.6	67.82	13,454.6	64.6725	13,454.6	60.6067	13,454.6	58.5173	13,454.6	56.9274	13,454.6	57.0456	13,454.6	55.6621	13,454.6	57.7148	13,454.6	45.26	13,454.6	64.0454	13,454.6	52.5752	13,454.6	69.7631	13,454.6	52.532	13,454.6	69.7716	13,454.6	50.7222	13,454.6	61.0189	13,454.6	49.7713	13,454.6	49.2077	13,454.6	51.9272	13,454.6	47.722	13,454.6	47.3934	13,454.6	50.2374	13,454.6	45.7562	13,454.6	45.0011	13,454.6	45.007
13,929.2	85.2205	13,929.2	83.9388	13,929.2	83.1635	13,929.2	80.2552	13,929.2	78.9974	13,929.2	71.2408	13,929.2	68.3962	13,929.2	68.5168	13,929.2	64.4719	13,929.2	61.9761	13,929.2	61.6858	13,929.2	61.7056	13,929.2	60.5148	13,929.2	56.1964	13,929.2	47.0656	13,929.2	52.8183	13,929.2	48.9474	13,929.2	49.0435	13,929.2	53.6305	13,929.2	41.6952	13,929.2	59.4386	13,929.2	48.4357	13,929.2	65.1825	13,929.2	47.7989	13,929.2	65.5648	13,929.2	46.5926	13,929.2	56.6133	13,929.2	44.7557	13,929.2	46.0477	13,929.2	42.5397	13,929.2	38.3328	13,929.2	39.0658	13,929.2	42.0251	13,929.2	39.6182	13,929.2	34.1456	13,929.2	39.2318
14,419.9	83.3383	14,419.9	80.3941	14,419.9	80.7254	14,419.9	75.3686	14,419.9	75.9454	14,419.9	69.903	14,419.9	71.1058	14,419.9	67.3359	14,419.9	67.5955	14,419.9	63.0829	14,419.9	63.5441	14,419.9	61.5711	14,419.9	60.5425	14,419.9	58.6861	14,419.9	60.2695	14,419.9	50.8456	14,419.9	53.6521	14,419.9	47.5195	14,419.9	51.5814	14,419.9	38.1931	14,419.9	52.8459	14,419.9	47.606	14,419.9	58.5981	14,419.9	43.9049	14,419.9	59.1099	14,419.9	41.6653	14,419.9	51.3745	14,419.9	40.3354	14,419.9	30.7085	14,419.9	37.4619	14,419.9	35.0238	14,419.9	20.7044	14,419.9	44.4854	14,419.9	36.5337	14,419.9	38.5081	14,419.9	40.2526
14,928.2	81.3453	14,928.2	80.3609	14,928.2	78.8678	14,928.2	80.534	14,928.2	79.9044	14,928.2	78.1265	14,928.2	77.4541	14,928.2	73.0372	14,928.2	72.2761	14,928.2	69.3416	14,928.2	68.9675	14,928.2	67.8091	14,928.2	64.6423	14,928.2	63.2264	14,928.2	63.1672	14,928.2	54.7212	14,928.2	51.8737	14,928.2	53.3623	14,928.2	57.5785	14,928.2	46.543	14,928.2	58.0173	14,928.2	51.6512	14,928.2	62.9485	14,928.2	47.3854	14,928.2	61.1343	14,928.2	43.494	14,928.2	52.2824	14,928.2	38.7446	14,928.2	46.0377	14,928.2	40.8455	14,928.2	46.2235	14,928.2	43.9694	14,928.2	44.9356	14,928.2	46.5343	14,928.2	45.2292	14,928.2	45.843
15,455.6	83.1868	15,455.6	86.0075	15,455.6	85.3395	15,455.6	86.32	15,455.6	85.9198	15,455.6	82.4647	15,455.6	82.6656	15,455.6	78.0281	15,455.6	78.0479	15,455.6	73.2765	15,455.6	72.4429	15,455.6	70.654	15,455.6	67.7383	15,455.6	66.433	15,455.6	67.1803	15,455.6	59.638	15,455.6	59.64	15,455.6	56.6477	15,455.6	63.1649	15,455.6	50.8928	15,455.6	63.0461	15,455.6	55.9301	15,455.6	67.5457	15,455.6	49.7726	15,455.6	65.8533	15,455.6	43.6896	15,455.6	55.017	15,455.6	42.8626	15,455.6	49.7336	15,455.6	43.2186	15,455.6	48.7769	15,455.6	49.6777	15,455.6	54.1914	15,455.6	50.82	15,455.6	48.4013	15,455.6	51.5819
16,000.5	88.3361	16,000.5	90.9667	16,000.5	89.4958	16,000.5	89.7443	16,000.5	88.167	16,000.5	84.242	16,000.5	83.8559	16,000.5	80.7342	16,000.5	78.4457	16,000.5	74.2358	16,000.5	72.3663	16,000.5	71.2153	16,000.5	68.2298	16,000.5	68.3503	16,000.5	66.2984	16,000.5	62.3782	16,000.5	62.539	16,000.5	58.3487	16,000.5	61.399	16,000.5	53.4828	16,000.5	61.7378	16,000.5	56.5182	16,000.5	68.5244	16,000.5	51.0136	16,000.5	67.8535	16,000.5	48.3649	16,000.5	59.363	16,000.5	50.2572	16,000.5	50.0885	16,000.5	54.2614	16,000.5	50.8482	16,000.5	51.746	16,000.5	55.4751	16,000.5	53.5065	16,000.5	54.3046	16,000.5	54.5031
16,564.5	90.4837	16,564.5	92.4545	16,564.5	91.182	16,564.5	90.2711	16,564.5	88.5548	16,564.5	83.8656	16,564.5	82.8325	16,564.5	79.9304	16,564.5	77.2582	16,564.5	73.3796	16,564.5	71.2189	16,564.5	70.756	16,564.5	65.4538	16,564.5	67.7169	16,564.5	67.0536	16,564.5	60.8893	16,564.5	58.7133	16,564.5	54.9924	16,564.5	58.225	16,564.5	53.5688	16,564.5	59.3214	16,564.5	56.1083	16,564.5	66.7757	16,564.5	53.4717	16,564.5	66.1111	16,564.5	52.1694	16,564.5	55.343	16,564.5	50.5681	16,564.5	51.0101	16,564.5	55.0796	16,564.5	54.1246	16,564.5	52.5771	16,564.5	56.6564	16,564.5	54.5685	16,564.5	53.1196	16,564.5	55.1522
17,148.9	94.9164	17,148.9	96.9705	17,148.9	95.4517	17,148.9	94.5217	17,148.9	91.8666	17,148.9	87.8296	17,148.9	86.2091	17,148.9	84.6875	17,148.9	79.7198	17,148.9	79.3596	17,148.9	74.5089	17,148.9	75.6799	17,148.9	66.7644	17,148.9	73.1343	17,148.9	70.9749	17,148.9	65.8805	17,148.9	60.3353	17,148.9	59.3218	17,148.9	61.347	17,148.9	61.9565	17,148.9	62.7203	17,148.9	62.1038	17,148.9	68.0867	17,148.9	58.4183	17,148.9	67.2879	17,148.9	56.9592	17,148.9	58.4822	17,148.9	54.3226	17,148.9	54.0035	17,148.9	57.9907	17,148.9	52.1539	17,148.9	57.1847	17,148.9	57.6515	17,148.9	55.6921	17,148.9	53.9225	17,148.9	53.8669
17,752.4	93.2769	17,752.4	95.672	17,752.4	94.734	17,752.4	93.1213	17,752.4	90.792	17,752.4	86.7566	17,752.4	84.2571	17,752.4	84.4198	17,752.4	81.1068	17,752.4	77.9757	17,752.4	75.271	17,752.4	74.8096	17,752.4	69.2999	17,752.4	72.5078	17,752.4	70.4295	17,752.4	63.6056	17,752.4	63.3565	17,752.4	58.9442	17,752.4	60.0462	17,752.4	61.0686	17,752.4	63.7193	17,752.4	60.642	17,752.4	64.8172	17,752.4	56.2954	17,752.4	64.5135	17,752.4	54.6543	17,752.4	56.7468	17,752.4	51.8904	17,752.4	40.9431	17,752.4	55.757	17,752.4	54.6148	17,752.4	54.5263	17,752.4	54.5383	17,752.4	47.4514	17,752.4	50.556	17,752.4	50.0033
18,379.4	87.6991	18,379.4	90.764	18,379.4	90.4932	18,379.4	88.2644	18,379.4	88.0102	18,379.4	81.7579	18,379.4	80.683	18,379.4	79.5692	18,379.4	78.3391	18,379.4	72.4041	18,379.4	72.3882	18,379.4	70.8894	18,379.4	66.4217	18,379.4	67.7731	18,379.4	66.6311	18,379.4	55.8086	18,379.4	61.4892	18,379.4	55.4456	18,379.4	56.4941	18,379.4	55.9996	18,379.4	59.4638	18,379.4	55.1023	18,379.4	54.6049	18,379.4	49.6525	18,379.4	57.6217	18,379.4	50.4026	18,379.4	44.4933	18,379.4	45.9527	18,379.4	40.4946	18,379.4	42.9214	18,379.4	40.6815	18,379.4	41.6297	18,379.4	47.1566	18,379.4	49.514	18,379.4	49.0959	18,379.4	45.843
19,026.9	80.5528	19,026.9	85.9721	19,026.9	85.2417	19,026.9	83.2807	19,026.9	84.1574	19,026.9	75.1824	19,026.9	77.422	19,026.9	73.7035	19,026.9	74.8874	19,026.9	66.5819	19,026.9	69.6594	19,026.9	65.382	19,026.9	63.5653	19,026.9	60.3694	19,026.9	61.4194	19,026.9	55.896	19,026.9	60.0558	19,026.9	52.3589	19,026.9	51.6683	19,026.9	52.2245	19,026.9	56.0404	19,026.9	51.8437	19,026.9	52.9413	19,026.9	45.4318	19,026.9	51.5303	19,026.9	45.9913	19,026.9	41.499	19,026.9	41.0843	19,026.9	39.5767	19,026.9	39.007	19,026.9	32.7188	19,026.9	46.9058	19,026.9	48.562	19,026.9	50.455	19,026.9	49.4552	19,026.9	47.156
19,697.8	74.4783	19,697.8	81.9083	19,697.8	80.05	19,697.8	78.326	19,697.8	79.0492	19,697.8	68.0067	19,697.8	72.7668	19,697.8	68.1645	19,697.8	69.2991	19,697.8	62.4588	19,697.8	64.2783	19,697.8	56.8964	19,697.8	54.7638	19,697.8	56.9812	19,697.8	54.3824	19,697.8	49.7875	19,697.8	54.985	19,697.8	46.9985	19,697.8	34.7037	19,697.8	47.745	19,697.8	44.2551	19,697.8	47.1597	19,697.8	49.3908	19,697.8	38.8052	19,697.8	48.217	19,697.8	43.2447	19,697.8	39.0687	19,697.8	36.3449	19,697.8	38.5638	19,697.8	37.992	19,697.8	29.5238	19,697.8	47.5397	19,697.8	46.9085	19,697.8	48.7346	19,697.8	47.4573	19,697.8	47.7965
19,999.5	72.2977	19,999.5	80.0687	19,999.5	78.6567	19,999.5	76.7062	19,999.5	77.6172	19,999.5	65.3652	19,999.5	70.1504	19,999.5	63.6376	19,999.5	68.3071	19,999.5	62.1748	19,999.5	61.4917	19,999.5	53.8051	19,999.5	49.7132	19,999.5	54.7286	19,999.5	54.3271	19,999.5	50.4154	19,999.5	52.0323	19,999.5	44.0386	19,999.5	41.2773	19,999.5	46.7453	19,999.5	44.2938	19,999.5	45.2116	19,999.5	44.2528	19,999.5	39.9843	19,999.5	44.3377	19,999.5	44.837	19,999.5	41.6286	19,999.5	32.6619	19,999.5	34.0807	19,999.5	36.0185	19,999.5	44.5572	19,999.5	48.2537	19,999.5	53.0917	19,999.5	48.9594	19,999.5	41.0974	19,999.5	44.1033
