"SPL Vertical"
"On-Axis"		"10°"		"-10°"		"20°"		"-20°"		"30°"		"-30°"		"40°"		"-40°"		"50°"		"-50°"		"60°"		"-60°"		"70°"		"-70°"		"80°"		"-80°"		"90°"		"-90°"		"100°"		"-100°"		"110°"		"-110°"		"120°"		"-120°"		"130°"		"-130°"		"140°"		"-140°"		"150°"		"-150°"		"160°"		"-160°"		"170°"		"-170°"		"180°"
"Frequency / Hz"	"Sound Pressure Level / dB (re 20 µPa/V)  [2.83  V @ 1. m]"	"Frequency / Hz"	"Sound Pressure Level / dB (re 20 µPa/V)  [2.83  V @ 1. m]"	"Frequency / Hz"	"Sound Pressure Level / dB (re 20 µPa/V)  [2.83  V @ 1. m]"	"Frequency / Hz"	"Sound Pressure Level / dB (re 20 µPa/V)  [2.83  V @ 1. m]"	"Frequency / Hz"	"Sound Pressure Level / dB (re 20 µPa/V)  [2.83  V @ 1. m]"	"Frequency / Hz"	"Sound Pressure Level / dB (re 20 µPa/V)  [2.83  V @ 1. m]"	"Frequency / Hz"	"Sound Pressure Level / dB (re 20 µPa/V)  [2.83  V @ 1. m]"	"Frequency / Hz"	"Sound Pressure Level / dB (re 20 µPa/V)  [2.83  V @ 1. m]"	"Frequency / Hz"	"Sound Pressure Level / dB (re 20 µPa/V)  [2.83  V @ 1. m]"	"Frequency / Hz"	"Sound Pressure Level / dB (re 20 µPa/V)  [2.83  V @ 1. m]"	"Frequency / Hz"	"Sound Pressure Level / dB (re 20 µPa/V)  [2.83  V @ 1. m]"	"Frequency / Hz"	"Sound Pressure Level / dB (re 20 µPa/V)  [2.83  V @ 1. m]"	"Frequency / Hz"	"Sound Pressure Level / dB (re 20 µPa/V)  [2.83  V @ 1. m]"	"Frequency / Hz"	"Sound Pressure Level / dB (re 20 µPa/V)  [2.83  V @ 1. m]"	"Frequency / Hz"	"Sound Pressure Level / dB (re 20 µPa/V)  [2.83  V @ 1. m]"	"Frequency / Hz"	"Sound Pressure Level / dB (re 20 µPa/V)  [2.83  V @ 1. m]"	"Frequency / Hz"	"Sound Pressure Level / dB (re 20 µPa/V)  [2.83  V @ 1. m]"	"Frequency / Hz"	"Sound Pressure Level / dB (re 20 µPa/V)  [2.83  V @ 1. m]"	"Frequency / Hz"	"Sound Pressure Level / dB (re 20 µPa/V)  [2.83  V @ 1. m]"	"Frequency / Hz"	"Sound Pressure Level / dB (re 20 µPa/V)  [2.83  V @ 1. m]"	"Frequency / Hz"	"Sound Pressure Level / dB (re 20 µPa/V)  [2.83  V @ 1. m]"	"Frequency / Hz"	"Sound Pressure Level / dB (re 20 µPa/V)  [2.83  V @ 1. m]"	"Frequency / Hz"	"Sound Pressure Level / dB (re 20 µPa/V)  [2.83  V @ 1. m]"	"Frequency / Hz"	"Sound Pressure Level / dB (re 20 µPa/V)  [2.83  V @ 1. m]"	"Frequency / Hz"	"Sound Pressure Level / dB (re 20 µPa/V)  [2.83  V @ 1. m]"	"Frequency / Hz"	"Sound Pressure Level / dB (re 20 µPa/V)  [2.83  V @ 1. m]"	"Frequency / Hz"	"Sound Pressure Level / dB (re 20 µPa/V)  [2.83  V @ 1. m]"	"Frequency / Hz"	"Sound Pressure Level / dB (re 20 µPa/V)  [2.83  V @ 1. m]"	"Frequency / Hz"	"Sound Pressure Level / dB (re 20 µPa/V)  [2.83  V @ 1. m]"	"Frequency / Hz"	"Sound Pressure Level / dB (re 20 µPa/V)  [2.83  V @ 1. m]"	"Frequency / Hz"	"Sound Pressure Level / dB (re 20 µPa/V)  [2.83  V @ 1. m]"	"Frequency / Hz"	"Sound Pressure Level / dB (re 20 µPa/V)  [2.83  V @ 1. m]"	"Frequency / Hz"	"Sound Pressure Level / dB (re 20 µPa/V)  [2.83  V @ 1. m]"	"Frequency / Hz"	"Sound Pressure Level / dB (re 20 µPa/V)  [2.83  V @ 1. m]"	"Frequency / Hz"	"Sound Pressure Level / dB (re 20 µPa/V)  [2.83  V @ 1. m]"	"Frequency / Hz"	"Sound Pressure Level / dB (re 20 µPa/V)  [2.83  V @ 1. m]"
20.5078	68.1432	20.5078	67.8926	20.5078	68.3985	20.5078	67.6595	20.5078	68.647	20.5078	67.4571	20.5078	68.8793	20.5078	67.2978	20.5078	69.0876	20.5078	67.1916	20.5078	69.266	20.5078	67.145	20.5078	69.4099	20.5078	67.1598	20.5078	69.516	20.5078	67.233	20.5078	69.5827	20.5078	67.3569	20.5078	69.6095	20.5078	67.5201	20.5078	69.5981	20.5078	67.7085	20.5078	69.5517	20.5078	67.9072	20.5078	69.476	20.5078	68.1025	20.5078	69.3783	20.5078	68.2835	20.5078	69.2669	20.5078	68.4439	20.5078	69.1503	20.5078	68.5829	20.5078	69.0349	20.5078	68.7044	20.5078	68.9238	20.5078	68.8154
21.9727	69.0731	21.9727	68.8377	21.9727	69.3176	21.9727	68.6222	21.9727	69.5607	21.9727	68.4373	21.9727	69.7927	21.9727	68.2923	21.9727	70.0051	21.9727	68.1939	21.9727	70.1909	21.9727	68.146	21.9727	70.3439	21.9727	68.1487	21.9727	70.4595	21.9727	68.199	21.9727	70.5347	21.9727	68.2908	21.9727	70.5681	21.9727	68.4158	21.9727	70.5605	21.9727	68.5642	21.9727	70.5145	21.9727	68.726	21.9727	70.4351	21.9727	68.8921	21.9727	70.3288	21.9727	69.0552	21.9727	70.2032	21.9727	69.2114	21.9727	70.0662	21.9727	69.3598	21.9727	69.9244	21.9727	69.5023	21.9727	69.7825	21.9727	69.6422
23.4375	69.9978	23.4375	69.7088	23.4375	70.2888	23.4375	69.4317	23.4375	70.5721	23.4375	69.1755	23.4375	70.838	23.4375	68.9486	23.4375	71.0775	23.4375	68.758	23.4375	71.2821	23.4375	68.6092	23.4375	71.4449	23.4375	68.5059	23.4375	71.5599	23.4375	68.4502	23.4375	71.623	23.4375	68.4422	23.4375	71.6319	23.4375	68.4803	23.4375	71.5864	23.4375	68.5611	23.4375	71.4888	23.4375	68.68	23.4375	71.3435	23.4375	68.8317	23.4375	71.1571	23.4375	69.0109	23.4375	70.9379	23.4375	69.2129	23.4375	70.6954	23.4375	69.4339	23.4375	70.4393	23.4375	69.6708	23.4375	70.1784	23.4375	69.9203
24.9023	71.9392	24.9023	71.6431	24.9023	72.2341	24.9023	71.3546	24.9023	72.5188	24.9023	71.082	24.9023	72.7843	24.9023	70.8329	24.9023	73.022	24.9023	70.6137	24.9023	73.2238	24.9023	70.4299	24.9023	73.3826	24.9023	70.286	24.9023	73.4923	24.9023	70.1853	24.9023	73.5485	24.9023	70.1303	24.9023	73.5484	24.9023	70.1225	24.9023	73.4915	24.9023	70.1625	24.9023	73.3794	24.9023	70.2496	24.9023	73.2158	24.9023	70.382	24.9023	73.0068	24.9023	70.557	24.9023	72.7598	24.9023	70.7703	24.9023	72.4839	24.9023	71.0168	24.9023	72.189	24.9023	71.2899	24.9023	71.885	24.9023	71.5822
26.3672	74.3744	26.3672	74.0946	26.3672	74.6531	26.3672	73.8218	26.3672	74.9223	26.3672	73.5631	26.3672	75.1732	26.3672	73.3246	26.3672	75.397	26.3672	73.1114	26.3672	75.5854	26.3672	72.9277	26.3672	75.7312	26.3672	72.7771	26.3672	75.828	26.3672	72.6626	26.3672	75.8712	26.3672	72.5871	26.3672	75.8581	26.3672	72.5532	26.3672	75.7884	26.3672	72.5629	26.3672	75.6639	26.3672	72.6181	26.3672	75.4888	26.3672	72.7195	26.3672	75.2695	26.3672	72.8663	26.3672	75.0141	26.3672	73.0561	26.3672	74.7321	26.3672	73.2844	26.3672	74.4336	26.3672	73.545	26.3672	74.1293	26.3672	73.8297
27.832	77.2897	27.832	77.0424	27.832	77.5376	27.832	76.8027	27.832	77.778	27.832	76.5767	27.832	78.0026	27.832	76.3692	27.832	78.2027	27.832	76.1839	27.832	78.3703	27.832	76.0239	27.832	78.498	27.832	75.8914	27.832	78.5797	27.832	75.7884	27.832	78.6112	27.832	75.7169	27.832	78.5899	27.832	75.679	27.832	78.5159	27.832	75.6768	27.832	78.3914	27.832	75.7121	27.832	78.2213	27.832	75.7865	27.832	78.0123	27.832	75.9004	27.832	77.7728	27.832	76.0529	27.832	77.5126	27.832	76.2414	27.832	77.2415	27.832	76.4614	27.832	76.9697	27.832	76.7067
29.2969	80.3855	29.2969	80.1728	29.2969	80.5958	29.2969	79.9641	29.2969	80.7971	29.2969	79.7645	29.2969	80.9821	29.2969	79.5782	29.2969	81.1432	29.2969	79.4087	29.2969	81.2733	29.2969	79.2585	29.2969	81.366	29.2969	79.1298	29.2969	81.416	29.2969	79.0242	29.2969	81.4194	29.2969	78.9435	29.2969	81.3744	29.2969	78.8892	29.2969	81.2816	29.2969	78.8629	29.2969	81.1439	29.2969	78.8664	29.2969	80.9666	29.2969	78.9015	29.2969	80.7572	29.2969	78.9695	29.2969	80.5251	29.2969	79.0715	29.2969	80.2804	29.2969	79.2074	29.2969	80.0337	29.2969	79.3758	29.2969	79.7951	29.2969	79.5734
30.7617	83.1738	30.7617	82.9948	30.7617	83.3489	30.7617	82.8172	30.7617	83.5147	30.7617	82.6453	30.7617	83.665	30.7617	82.4828	30.7617	83.7937	30.7617	82.3326	30.7617	83.8947	30.7617	82.1972	30.7617	83.9625	30.7617	82.0786	30.7617	83.9925	30.7617	81.9785	30.7617	83.9816	30.7617	81.8983	30.7617	83.9284	30.7617	81.8395	30.7617	83.8338	30.7617	81.8036	30.7617	83.7007	30.7617	81.7923	30.7617	83.5345	30.7617	81.8071	30.7617	83.3426	30.7617	81.8497	30.7617	83.1336	30.7617	81.9217	30.7617	82.9173	30.7617	82.0238	30.7617	82.7032	30.7617	82.1558	30.7617	82.5002	30.7617	82.3158
32.2266	85.4917	32.2266	85.3333	32.2266	85.6465	32.2266	85.1757	32.2266	85.7926	32.2266	85.023	32.2266	85.9243	32.2266	84.8783	32.2266	86.036	32.2266	84.7445	32.2266	86.1221	32.2266	84.6237	32.2266	86.1777	32.2266	84.5177	32.2266	86.1986	32.2266	84.428	32.2266	86.1821	32.2266	84.356	32.2266	86.1274	32.2266	84.3026	32.2266	86.0357	32.2266	84.2692	32.2266	85.9103	32.2266	84.2567	32.2266	85.7567	32.2266	84.2664	32.2266	85.582	32.2266	84.2997	32.2266	85.3945	32.2266	84.3577	32.2266	85.2032	32.2266	84.4413	32.2266	85.0164	32.2266	84.5508	32.2266	84.8417	32.2266	84.6851
33.6914	87.5485	33.6914	87.4042	33.6914	87.6883	33.6914	87.2599	33.6914	87.8191	33.6914	87.1193	33.6914	87.9356	33.6914	86.9856	33.6914	88.0327	33.6914	86.8614	33.6914	88.1054	33.6914	86.7491	33.6914	88.1493	33.6914	86.6505	33.6914	88.161	33.6914	86.5669	33.6914	88.1383	33.6914	86.4997	33.6914	88.0808	33.6914	86.4496	33.6914	87.9902	33.6914	86.4176	33.6914	87.8699	33.6914	86.4045	33.6914	87.7256	33.6914	86.411	33.6914	87.564	33.6914	86.438	33.6914	87.3931	33.6914	86.4864	33.6914	87.221	33.6914	86.557	33.6914	87.055	33.6914	86.6503	33.6914	86.9017	33.6914	86.7657
35.1562	89.2076	35.1562	89.0761	35.1562	89.3336	35.1562	88.943	35.1562	89.4497	35.1562	88.8118	35.1562	89.5514	35.1562	88.6857	35.1562	89.634	35.1562	88.5674	35.1562	89.6932	35.1562	88.459	35.1562	89.7251	35.1562	88.3624	35.1562	89.7267	35.1562	88.2793	35.1562	89.6965	35.1562	88.2107	35.1562	89.6343	35.1562	88.1578	35.1562	89.5419	35.1562	88.1213	35.1562	89.4231	35.1562	88.1019	35.1562	89.2831	35.1562	88.1004	35.1562	89.1288	35.1562	88.1178	35.1562	88.9677	35.1562	88.155	35.1562	88.8073	35.1562	88.2131	35.1562	88.6545	35.1562	88.2927	35.1562	88.5153	35.1562	88.3938
36.6211	90.518	36.6211	90.3964	36.6211	90.633	36.6211	90.2718	36.6211	90.7375	36.6211	90.1477	36.6211	90.8272	36.6211	90.027	36.6211	90.8982	36.6211	89.9125	36.6211	90.9464	36.6211	89.8065	36.6211	90.9686	36.6211	89.7112	36.6211	90.9621	36.6211	89.6281	36.6211	90.9259	36.6211	89.5587	36.6211	90.8601	36.6211	89.504	36.6211	90.7669	36.6211	89.4649	36.6211	90.6499	36.6211	89.4421	36.6211	90.5145	36.6211	89.4362	36.6211	90.3673	36.6211	89.4479	36.6211	90.2153	36.6211	89.4781	36.6211	90.0656	36.6211	89.5277	36.6211	89.9246	36.6211	89.5975	36.6211	89.7974	36.6211	89.6877
38.0859	91.4831	38.0859	91.3658	38.0859	91.5936	38.0859	91.2456	38.0859	91.6936	38.0859	91.1258	38.0859	91.7791	38.0859	91.0095	38.0859	91.8461	38.0859	90.8992	38.0859	91.8908	38.0859	90.7975	38.0859	91.9103	38.0859	90.7062	38.0859	91.9022	38.0859	90.6269	38.0859	91.8656	38.0859	90.5609	38.0859	91.8008	38.0859	90.509	38.0859	91.7099	38.0859	90.472	38.0859	91.5967	38.0859	90.4503	38.0859	91.4663	38.0859	90.4445	38.0859	91.325	38.0859	90.455	38.0859	91.1796	38.0859	90.4829	38.0859	91.0369	38.0859	90.529	38.0859	90.9028	38.0859	90.5942	38.0859	90.7823	38.0859	90.6788
39.5508	92.2855	39.5508	92.1746	39.5508	92.3896	39.5508	92.0605	39.5508	92.4834	39.5508	91.9465	39.5508	92.563	39.5508	91.8355	39.5508	92.6247	39.5508	91.7303	39.5508	92.6652	39.5508	91.6331	39.5508	92.6817	39.5508	91.5459	39.5508	92.6722	39.5508	91.4704	39.5508	92.6359	39.5508	91.4077	39.5508	92.5735	39.5508	91.3589	39.5508	92.4869	39.5508	91.3243	39.5508	92.3799	39.5508	91.3043	39.5508	92.2572	39.5508	91.2994	39.5508	92.1246	39.5508	91.3099	39.5508	91.9886	39.5508	91.3364	39.5508	91.8552	39.5508	91.3799	39.5508	91.7299	39.5508	91.4411	39.5508	91.6172	39.5508	91.5204
41.0156	92.8556	41.0156	92.7503	41.0156	92.9537	41.0156	92.6415	41.0156	93.0414	41.0156	92.5324	41.0156	93.1151	41.0156	92.4261	41.0156	93.1716	41.0156	92.3254	41.0156	93.2078	41.0156	92.2329	41.0156	93.2216	41.0156	92.1509	41.0156	93.2114	41.0156	92.081	41.0156	93.1769	41.0156	92.0247	41.0156	93.1191	41.0156	91.9829	41.0156	93.0402	41.0156	91.9559	41.0156	92.9437	41.0156	91.9439	41.0156	92.8343	41.0156	91.9468	41.0156	92.7171	41.0156	91.9643	41.0156	92.5973	41.0156	91.9964	41.0156	92.4799	41.0156	92.043	41.0156	92.3691	41.0156	92.1041	41.0156	92.2681	41.0156	92.1793
42.4805	93.1935	42.4805	93.0909	42.4805	93.2872	42.4805	92.983	42.4805	93.3689	42.4805	92.8728	42.4805	93.4354	42.4805	92.7638	42.4805	93.4837	42.4805	92.659	42.4805	93.5113	42.4805	92.5613	42.4805	93.5164	42.4805	92.4734	42.4805	93.4981	42.4805	92.3974	42.4805	93.4563	42.4805	92.3351	42.4805	93.3925	42.4805	92.2879	42.4805	93.3093	42.4805	92.2565	42.4805	93.2106	42.4805	92.2413	42.4805	93.1009	42.4805	92.242	42.4805	92.9853	42.4805	92.2584	42.4805	92.8688	42.4805	92.2899	42.4805	92.7557	42.4805	92.3357	42.4805	92.6496	42.4805	92.3952	42.4805	92.5531	42.4805	92.468
43.9453	93.4052	43.9453	93.3086	43.9453	93.4928	43.9453	93.206	43.9453	93.5684	43.9453	93.1004	43.9453	93.6291	43.9453	92.9947	43.9453	93.672	43.9453	92.8917	43.9453	93.6949	43.9453	92.7941	43.9453	93.6961	43.9453	92.7045	43.9453	93.6746	43.9453	92.6252	43.9453	93.6308	43.9453	92.5584	43.9453	93.5659	43.9453	92.5056	43.9453	93.4828	43.9453	92.4683	43.9453	93.385	43.9453	92.4472	43.9453	93.2771	43.9453	92.4428	43.9453	93.1639	43.9453	92.4551	43.9453	93.0499	43.9453	92.4834	43.9453	92.9394	43.9453	92.5272	43.9453	92.8355	43.9453	92.5854	43.9453	92.7408	43.9453	92.6569
45.4102	93.4875	45.4102	93.392	45.4102	93.5746	45.4102	93.291	45.4102	93.6499	45.4102	93.1878	45.4102	93.7107	45.4102	93.0852	45.4102	93.7541	45.4102	92.986	45.4102	93.7778	45.4102	92.8929	45.4102	93.7805	45.4102	92.8084	45.4102	93.7613	45.4102	92.7345	45.4102	93.7207	45.4102	92.6732	45.4102	93.6602	45.4102	92.6261	45.4102	93.5826	45.4102	92.5942	45.4102	93.4915	45.4102	92.5783	45.4102	93.391	45.4102	92.5787	45.4102	93.2857	45.4102	92.5953	45.4102	93.1794	45.4102	92.6273	45.4102	93.0758	45.4102	92.6737	45.4102	92.9776	45.4102	92.7334	45.4102	92.8867	45.4102	92.8048
46.875	93.5254	46.875	93.4327	46.875	93.6096	46.875	93.335	46.875	93.682	46.875	93.2355	46.875	93.7395	46.875	93.1373	46.875	93.7794	46.875	93.0433	46.875	93.7996	46.875	92.956	46.875	93.7988	46.875	92.8776	46.875	93.7768	46.875	92.8101	46.875	93.7345	46.875	92.7553	46.875	93.6738	46.875	92.7143	46.875	93.5979	46.875	92.6882	46.875	93.5106	46.875	92.6772	46.875	93.4165	46.875	92.6814	46.875	93.3197	46.875	92.7	46.875	93.2239	46.875	92.732	46.875	93.132	46.875	92.776	46.875	93.0457	46.875	92.8305	46.875	92.9662	46.875	92.8943
48.3398	93.4809	48.3398	93.3891	48.3398	93.5631	48.3398	93.291	48.3398	93.6326	48.3398	93.19	48.3398	93.6864	48.3398	93.0893	48.3398	93.7221	48.3398	92.9918	48.3398	93.7375	48.3398	92.9006	48.3398	93.7317	48.3398	92.8181	48.3398	93.7045	48.3398	92.7466	48.3398	93.6568	48.3398	92.688	48.3398	93.5909	48.3398	92.6437	48.3398	93.5101	48.3398	92.6145	48.3398	93.4184	48.3398	92.6007	48.3398	93.3205	48.3398	92.602	48.3398	93.2208	48.3398	92.6175	48.3398	93.1232	48.3398	92.6462	48.3398	93.0307	48.3398	92.6866	48.3398	92.945	48.3398	92.7376	48.3398	92.8673	48.3398	92.798
51.2695	93.4934	51.2695	93.4075	51.2695	93.5644	51.2695	93.3094	51.2695	93.6181	51.2695	93.2024	51.2695	93.6524	51.2695	93.0901	51.2695	93.6661	51.2695	92.9765	51.2695	93.6582	51.2695	92.8654	51.2695	93.6285	51.2695	92.7606	51.2695	93.5779	51.2695	92.6655	51.2695	93.5078	51.2695	92.583	51.2695	93.421	51.2695	92.5152	51.2695	93.3209	51.2695	92.4635	51.2695	93.2119	51.2695	92.4285	51.2695	93.0985	51.2695	92.41	51.2695	92.9855	51.2695	92.4076	51.2695	92.877	51.2695	92.4203	51.2695	92.7763	51.2695	92.4471	51.2695	92.6859	51.2695	92.4875	51.2695	92.6072	51.2695	92.5409
52.7344	93.3558	52.7344	93.2733	52.7344	93.4229	52.7344	93.1779	52.7344	93.4723	52.7344	93.0727	52.7344	93.5025	52.7344	92.9611	52.7344	93.5121	52.7344	92.8469	52.7344	93.5006	52.7344	92.7338	52.7344	93.4679	52.7344	92.6257	52.7344	93.4149	52.7344	92.526	52.7344	93.3431	52.7344	92.4378	52.7344	93.2551	52.7344	92.3637	52.7344	93.1543	52.7344	92.3052	52.7344	93.0448	52.7344	92.2635	52.7344	92.9308	52.7344	92.239	52.7344	92.8167	52.7344	92.2314	52.7344	92.7064	52.7344	92.2404	52.7344	92.6034	52.7344	92.2652	52.7344	92.5102	52.7344	92.3053	52.7344	92.4286	52.7344	92.36
54.1992	93.2312	54.1992	93.1496	54.1992	93.298	54.1992	93.0559	54.1992	93.3479	54.1992	92.9531	54.1992	93.3791	54.1992	92.8443	54.1992	93.3902	54.1992	92.7329	54.1992	93.3805	54.1992	92.6223	54.1992	93.35	54.1992	92.5161	54.1992	93.2996	54.1992	92.4174	54.1992	93.2309	54.1992	92.3294	54.1992	93.1464	54.1992	92.2547	54.1992	93.0495	54.1992	92.1952	54.1992	92.9441	54.1992	92.1525	54.1992	92.8341	54.1992	92.1275	54.1992	92.7234	54.1992	92.1206	54.1992	92.6156	54.1992	92.1315	54.1992	92.5134	54.1992	92.1596	54.1992	92.4193	54.1992	92.2038	54.1992	92.3352	54.1992	92.2628
55.6641	93.0326	55.6641	92.953	55.6641	93.0992	55.6641	92.8629	55.6641	93.1504	55.6641	92.7652	55.6641	93.1842	55.6641	92.6629	55.6641	93.199	55.6641	92.559	55.6641	93.1939	55.6641	92.4565	55.6641	93.1686	55.6641	92.3585	55.6641	93.1237	55.6641	92.2677	55.6641	93.0607	55.6641	92.1867	55.6641	92.9819	55.6641	92.1177	55.6641	92.8904	55.6641	92.0628	55.6641	92.79	55.6641	92.0232	55.6641	92.6846	55.6641	92	55.6641	92.5779	55.6641	91.9936	55.6641	92.4736	55.6641	92.0041	55.6641	92.3744	55.6641	92.031	55.6641	92.2829	55.6641	92.0736	55.6641	92.2011	55.6641	92.1308
58.5938	92.6976	58.5938	92.615	58.5938	92.7672	58.5938	92.5223	58.5938	92.8212	58.5938	92.4229	58.5938	92.8573	58.5938	92.3201	58.5938	92.8741	58.5938	92.2174	58.5938	92.8708	58.5938	92.1181	58.5938	92.8473	58.5938	92.0255	58.5938	92.8047	58.5938	91.9426	58.5938	92.7448	58.5938	91.8721	58.5938	92.6705	58.5938	91.8158	58.5938	92.5853	58.5938	91.7754	58.5938	92.4931	58.5938	91.7514	58.5938	92.3979	58.5938	91.7439	58.5938	92.3031	58.5938	91.7519	58.5938	92.2116	58.5938	91.7743	58.5938	92.1256	58.5938	91.8092	58.5938	92.0463	58.5938	91.855	58.5938	91.9744	58.5938	91.9104
60.0586	92.5266	60.0586	92.4464	60.0586	92.5934	60.0586	92.3558	60.0586	92.6444	60.0586	92.2581	60.0586	92.6776	60.0586	92.1567	60.0586	92.6917	60.0586	92.0551	60.0586	92.6862	60.0586	91.9569	60.0586	92.6613	60.0586	91.8655	60.0586	92.6184	60.0586	91.7843	60.0586	92.5595	60.0586	91.7158	60.0586	92.4876	60.0586	91.6623	60.0586	92.4064	60.0586	91.6252	60.0586	92.3195	60.0586	91.6051	60.0586	92.2307	60.0586	91.6016	60.0586	92.1431	60.0586	91.6135	60.0586	92.0589	60.0586	91.639	60.0586	91.9797	60.0586	91.6761	60.0586	91.9061	60.0586	91.7227	60.0586	91.8385	60.0586	91.7772
62.9883	92.1908	62.9883	92.1109	62.9883	92.2559	62.9883	92.0191	62.9883	92.3041	62.9883	91.9187	62.9883	92.3336	62.9883	91.8133	62.9883	92.3434	62.9883	91.7068	62.9883	92.3333	62.9883	91.6031	62.9883	92.3038	62.9883	91.5061	62.9883	92.2565	62.9883	91.4195	62.9883	92.1938	62.9883	91.3463	62.9883	92.1189	62.9883	91.2891	62.9883	92.0355	62.9883	91.2494	62.9883	91.9474	62.9883	91.2279	62.9883	91.8583	62.9883	91.2241	62.9883	91.771	62.9883	91.2367	62.9883	91.6875	62.9883	91.2636	62.9883	91.609	62.9883	91.3023	62.9883	91.5359	62.9883	91.3505	62.9883	91.4683	62.9883	91.4063
64.4531	92.0136	64.4531	91.93	64.4531	92.0822	64.4531	91.8343	64.4531	92.1334	64.4531	91.7298	64.4531	92.1656	64.4531	91.6203	64.4531	92.1777	64.4531	91.5099	64.4531	92.1696	64.4531	91.4026	64.4531	92.1418	64.4531	91.3026	64.4531	92.096	64.4531	91.2136	64.4531	92.0346	64.4531	91.1389	64.4531	91.9607	64.4531	91.0812	64.4531	91.8781	64.4531	91.0422	64.4531	91.7903	64.4531	91.0224	64.4531	91.7009	64.4531	91.0213	64.4531	91.6125	64.4531	91.0376	64.4531	91.5269	64.4531	91.069	64.4531	91.4453	64.4531	91.1128	64.4531	91.3681	64.4531	91.1666	64.4531	91.2955	64.4531	91.228
67.3828	91.8083	67.3828	91.7243	67.3828	91.8765	67.3828	91.6271	67.3828	91.9266	67.3828	91.5201	67.3828	91.9572	67.3828	91.4071	67.3828	91.9675	67.3828	91.2921	67.3828	91.9578	67.3828	91.1795	67.3828	91.9289	67.3828	91.0736	67.3828	91.8829	67.3828	90.9787	67.3828	91.8223	67.3828	90.8985	67.3828	91.7505	67.3828	90.8362	67.3828	91.6707	67.3828	90.7938	67.3828	91.5862	67.3828	90.7725	67.3828	91.4999	67.3828	90.7721	67.3828	91.4135	67.3828	90.7911	67.3828	91.3282	67.3828	90.8272	67.3828	91.2446	67.3828	90.8777	67.3828	91.163	67.3828	90.9392	67.3828	91.084	67.3828	91.0088
68.8477	91.6943	68.8477	91.6124	68.8477	91.7597	68.8477	91.5165	68.8477	91.8064	68.8477	91.4101	68.8477	91.8331	68.8477	91.297	68.8477	91.8394	68.8477	91.1815	68.8477	91.8258	68.8477	91.0679	68.8477	91.7936	68.8477	90.961	68.8477	91.7451	68.8477	90.865	68.8477	91.6834	68.8477	90.7843	68.8477	91.612	68.8477	90.7221	68.8477	91.5345	68.8477	90.6808	68.8477	91.4541	68.8477	90.6615	68.8477	91.3734	68.8477	90.6639	68.8477	91.2936	68.8477	90.6865	68.8477	91.2153	68.8477	90.7263	68.8477	91.1382	68.8477	90.7798	68.8477	91.062	68.8477	90.8433	68.8477	90.9867	68.8477	90.9132
71.7773	91.4939	71.7773	91.42	71.7773	91.5495	71.7773	91.3302	71.7773	91.5851	71.7773	91.2278	71.7773	91.5996	71.7773	91.1164	71.7773	91.5931	71.7773	91.0001	71.7773	91.5665	71.7773	90.8835	71.7773	91.5219	71.7773	90.7714	71.7773	91.4622	71.7773	90.6686	71.7773	91.3913	71.7773	90.5797	71.7773	91.3134	71.7773	90.5088	71.7773	91.2326	71.7773	90.4593	71.7773	91.1526	71.7773	90.433	71.7773	91.0757	71.7773	90.4301	71.7773	91.0029	71.7773	90.4491	71.7773	90.9337	71.7773	90.4867	71.7773	90.8667	71.7773	90.5385	71.7773	90.8001	71.7773	90.5997	71.7773	90.7331	71.7773	90.6657
74.707	91.3591	74.707	91.2903	74.707	91.4093	74.707	91.2055	74.707	91.4388	74.707	91.1082	74.707	91.4465	74.707	91.002	74.707	91.4324	74.707	90.8913	74.707	91.3974	74.707	90.7804	74.707	91.3435	74.707	90.6737	74.707	91.2741	74.707	90.5757	74.707	91.1932	74.707	90.4903	74.707	91.1058	74.707	90.4209	74.707	91.0165	74.707	90.37	74.707	90.9297	74.707	90.339	74.707	90.8486	74.707	90.3279	74.707	90.7747	74.707	90.3352	74.707	90.7081	74.707	90.3583	74.707	90.6474	74.707	90.3934	74.707	90.591	74.707	90.437	74.707	90.5373	74.707	90.4857
77.6367	91.257	77.6367	91.1871	77.6367	91.3076	77.6367	91.1008	77.6367	91.3371	77.6367	91.0017	77.6367	91.3442	77.6367	90.8938	77.6367	91.329	77.6367	90.7816	77.6367	91.2925	77.6367	90.6699	77.6367	91.237	77.6367	90.5635	77.6367	91.1661	77.6367	90.4667	77.6367	91.084	77.6367	90.3838	77.6367	90.9958	77.6367	90.318	77.6367	90.9064	77.6367	90.2712	77.6367	90.8203	77.6367	90.2444	77.6367	90.7404	77.6367	90.2367	77.6367	90.6683	77.6367	90.2463	77.6367	90.6039	77.6367	90.2701	77.6367	90.5457	77.6367	90.3046	77.6367	90.492	77.6367	90.3463	77.6367	90.4412	77.6367	90.3925
79.1016	91.2297	79.1016	91.1583	79.1016	91.2808	79.1016	91.0697	79.1016	91.3098	79.1016	90.9674	79.1016	91.3156	79.1016	90.8556	79.1016	91.2982	79.1016	90.7391	79.1016	91.2588	79.1016	90.6228	79.1016	91.2	79.1016	90.5117	79.1016	91.1255	79.1016	90.4108	79.1016	91.0397	79.1016	90.3244	79.1016	90.948	79.1016	90.2559	79.1016	90.8555	79.1016	90.2076	79.1016	90.7669	79.1016	90.1803	79.1016	90.6851	79.1016	90.173	79.1016	90.6119	79.1016	90.1837	79.1016	90.5468	79.1016	90.2088	79.1016	90.4884	79.1016	90.2447	79.1016	90.4347	79.1016	90.2876	79.1016	90.3837	79.1016	90.3345
82.0312	91.1893	82.0312	91.1171	82.0312	91.2399	82.0312	91.0259	82.0312	91.267	82.0312	90.9194	82.0312	91.2696	82.0312	90.8021	82.0312	91.2482	82.0312	90.6786	82.0312	91.2042	82.0312	90.5545	82.0312	91.1403	82.0312	90.4351	82.0312	91.0603	82.0312	90.3259	82.0312	90.9691	82.0312	90.2318	82.0312	90.8721	82.0312	90.1566	82.0312	90.7746	82.0312	90.1031	82.0312	90.6812	82.0312	90.0721	82.0312	90.5952	82.0312	90.0629	82.0312	90.5182	82.0312	90.073	82.0312	90.45	82.0312	90.0987	82.0312	90.3889	82.0312	90.1358	82.0312	90.3328	82.0312	90.1803	82.0312	90.2799	82.0312	90.2289
84.9609	91.1307	84.9609	91.0593	84.9609	91.1803	84.9609	90.9689	84.9609	91.2065	84.9609	90.8631	84.9609	91.2086	84.9609	90.7461	84.9609	91.187	84.9609	90.623	84.9609	91.1436	84.9609	90.4995	84.9609	91.0812	84.9609	90.3811	84.9609	91.004	84.9609	90.2735	84.9609	90.9171	84.9609	90.1818	84.9609	90.8257	84.9609	90.11	84.9609	90.735	84.9609	90.0607	84.9609	90.6492	84.9609	90.0345	84.9609	90.5709	84.9609	90.0304	84.9609	90.5008	84.9609	90.0457	84.9609	90.438	84.9609	90.0765	84.9609	90.3804	84.9609	90.1184	84.9609	90.3258	84.9609	90.1671	84.9609	90.2723	84.9609	90.2191
87.8906	91.1566	87.8906	91.0812	87.8906	91.2077	87.8906	90.9844	87.8906	91.233	87.8906	90.87	87.8906	91.232	87.8906	90.7428	87.8906	91.2057	87.8906	90.6084	87.8906	91.1562	87.8906	90.473	87.8906	91.0872	87.8906	90.3433	87.8906	91.0037	87.8906	90.2257	87.8906	90.9112	87.8906	90.1263	87.8906	90.8159	87.8906	90.0499	87.8906	90.7231	87.8906	89.9998	87.8906	90.6373	87.8906	89.9767	87.8906	90.5609	87.8906	89.9792	87.8906	90.4939	87.8906	90.0037	87.8906	90.4346	87.8906	90.0451	87.8906	90.3799	87.8906	90.0976	87.8906	90.3266	87.8906	90.1556	87.8906	90.2719	87.8906	90.2146
90.8203	91.09	90.8203	91.0165	90.8203	91.1385	90.8203	90.9205	90.8203	91.1605	90.8203	90.8059	90.8203	91.1559	90.8203	90.6774	90.8203	91.126	90.8203	90.5409	90.8203	91.0735	90.8203	90.4029	90.8203	91.0025	90.8203	90.2706	90.8203	90.9184	90.8203	90.1509	90.8203	90.8271	90.8203	90.0505	90.8203	90.735	90.8203	89.9745	90.8203	90.6475	90.8203	89.9265	90.8203	90.5686	90.8203	89.9072	90.8203	90.5001	90.8203	89.9149	90.8203	90.4412	90.8203	89.9456	90.8203	90.3892	90.8203	89.9935	90.8203	90.3401	90.8203	90.0522	90.8203	90.2902	90.8203	90.1153	90.8203	90.2364	90.8203	90.1778
95.2148	91.2824	95.2148	91.2145	95.2148	91.3217	95.2148	91.1204	95.2148	91.3312	95.2148	91.004	95.2148	91.3114	95.2148	90.8702	95.2148	91.2643	95.2148	90.7251	95.2148	91.1935	95.2148	90.5755	95.2148	91.1043	95.2148	90.4292	95.2148	91.0033	95.2148	90.294	95.2148	90.8981	95.2148	90.1775	95.2148	90.796	95.2148	90.0863	95.2148	90.7033	95.2148	90.025	95.2148	90.6241	95.2148	89.9955	95.2148	90.5594	95.2148	89.9968	95.2148	90.5072	95.2148	90.0249	95.2148	90.463	95.2148	90.0734	95.2148	90.4212	95.2148	90.1347	95.2148	90.3764	95.2148	90.2011	95.2148	90.3251	95.2148	90.266
98.1445	91.3645	98.1445	91.3063	98.1445	91.3917	98.1445	91.2193	98.1445	91.387	98.1445	91.1074	98.1445	91.3514	98.1445	90.9759	98.1445	91.2875	98.1445	90.831	98.1445	91.2	98.1445	90.6803	98.1445	91.0953	98.1445	90.532	98.1445	90.9812	98.1445	90.3948	98.1445	90.8667	98.1445	90.2768	98.1445	90.7604	98.1445	90.1852	98.1445	90.6693	98.1445	90.1247	98.1445	90.5978	98.1445	90.0971	98.1445	90.5462	98.1445	90.1009	98.1445	90.5113	98.1445	90.131	98.1445	90.4868	98.1445	90.1801	98.1445	90.465	98.1445	90.2397	98.1445	90.439	98.1445	90.3011	98.1445	90.4038	98.1445	90.3573
101.074	91.3353	101.074	91.285	101.074	91.3518	101.074	91.2031	101.074	91.334	101.074	91.093	101.074	91.283	101.074	90.9596	101.074	91.2018	101.074	90.8094	101.074	91.0952	101.074	90.6498	101.074	90.9702	101.074	90.4894	101.074	90.8357	101.074	90.3374	101.074	90.7018	101.074	90.2031	101.074	90.5788	101.074	90.0948	101.074	90.4755	101.074	90.0188	101.074	90.3974	101.074	89.9782	101.074	90.3455	101.074	89.9724	101.074	90.3159	101.074	89.9967	101.074	90.3011	101.074	90.0428	101.074	90.2912	101.074	90.1008	101.074	90.2771	101.074	90.1603	101.074	90.2519	101.074	90.2124
105.469	91.4092	105.469	91.3594	105.469	91.422	105.469	91.2754	105.469	91.3968	105.469	91.1618	105.469	91.3348	105.469	91.0248	105.469	91.239	105.469	90.8722	105.469	91.115	105.469	90.7129	105.469	90.9707	105.469	90.5564	105.469	90.8162	105.469	90.4124	105.469	90.6632	105.469	90.2896	105.469	90.5239	105.469	90.195	105.469	90.4086	105.469	90.1323	105.469	90.3244	105.469	90.1019	105.469	90.2728	105.469	90.1004	105.469	90.2502	105.469	90.121	105.469	90.2484	105.469	90.1553	105.469	90.2568	105.469	90.194	105.469	90.2652	105.469	90.2289	105.469	90.2658	105.469	90.2539
108.398	91.6101	108.398	91.5623	108.398	91.6195	108.398	91.4785	108.398	91.5896	108.398	91.3627	108.398	91.5213	108.398	91.2207	108.398	91.4175	108.398	91.0596	108.398	91.2833	108.398	90.888	108.398	91.1263	108.398	90.7157	108.398	90.9569	108.398	90.5532	108.398	90.7872	108.398	90.4108	108.398	90.6308	108.398	90.2976	108.398	90.4998	108.398	90.2195	108.398	90.4032	108.398	90.1787	108.398	90.3442	108.398	90.1724	108.398	90.3195	108.398	90.1935	108.398	90.3201	108.398	90.2318	108.398	90.3338	108.398	90.2759	108.398	90.348	108.398	90.3153	108.398	90.3528	108.398	90.3422
112.793	91.732	112.793	91.6852	112.793	91.7402	112.793	91.6023	112.793	91.7092	112.793	91.4874	112.793	91.6398	112.793	91.3459	112.793	91.5349	112.793	91.1852	112.793	91.3999	112.793	91.0139	112.793	91.2426	112.793	90.8419	112.793	91.0735	112.793	90.68	112.793	90.9054	112.793	90.5388	112.793	90.7519	112.793	90.4276	112.793	90.6258	112.793	90.3529	112.793	90.5359	112.793	90.3168	112.793	90.4851	112.793	90.3167	112.793	90.4694	112.793	90.345	112.793	90.4789	112.793	90.3909	112.793	90.5003	112.793	90.4421	112.793	90.5202	112.793	90.487	112.793	90.5278	112.793	90.517
117.188	91.7791	117.188	91.7356	117.188	91.7815	117.188	91.6537	117.188	91.7416	117.188	91.538	117.188	91.66	117.188	91.3942	117.188	91.5398	117.188	91.2298	117.188	91.3865	117.188	91.0536	117.188	91.2088	117.188	90.8759	117.188	91.0189	117.188	90.7078	117.188	90.8319	117.188	90.5607	117.188	90.6646	117.188	90.4448	117.188	90.5328	117.188	90.3675	117.188	90.4473	117.188	90.3319	117.188	90.4111	117.188	90.3355	117.188	90.4179	117.188	90.3703	117.188	90.4539	117.188	90.4242	117.188	90.5012	117.188	90.4827	117.188	90.5426	117.188	90.5322	117.188	90.5651	117.188	90.5617
120.117	91.8339	120.117	91.7893	120.117	91.8379	120.117	91.7078	120.117	91.7994	120.117	91.5941	120.117	91.7179	120.117	91.4544	120.117	91.5953	120.117	91.2961	120.117	91.4358	120.117	91.1279	120.117	91.247	120.117	90.9595	120.117	91.0405	120.117	90.8013	120.117	90.8318	120.117	90.6635	120.117	90.6396	120.117	90.5556	120.117	90.483	120.117	90.4841	120.117	90.3773	120.117	90.4513	120.117	90.33	120.117	90.4541	120.117	90.3377	120.117	90.4841	120.117	90.3865	120.117	90.5283	120.117	90.4564	120.117	90.5721	120.117	90.5266	120.117	90.6014	120.117	90.5797	120.117	90.6055
124.512	91.9508	124.512	91.8868	124.512	91.9712	124.512	91.7832	124.512	91.946	124.512	91.6454	124.512	91.8746	124.512	91.4805	124.512	91.7589	124.512	91.2974	124.512	91.6032	124.512	91.1067	124.512	91.4152	124.512	90.9204	124.512	91.2064	124.512	90.7512	124.512	90.9924	124.512	90.6114	124.512	90.7919	124.512	90.511	124.512	90.6245	124.512	90.4559	124.512	90.5067	124.512	90.4458	124.512	90.4475	124.512	90.4743	124.512	90.4451	124.512	90.5289	124.512	90.4871	124.512	90.5941	124.512	90.5536	124.512	90.6533	124.512	90.6229	124.512	90.692	124.512	90.6761	124.512	90.7007
128.906	92.078	128.906	92.0102	128.906	92.0992	128.906	91.899	128.906	92.0718	128.906	91.7496	128.906	91.9957	128.906	91.5684	128.906	91.8728	128.906	91.3639	128.906	91.7073	128.906	91.1464	128.906	91.5062	128.906	90.9282	128.906	91.2805	128.906	90.7232	128.906	91.0451	128.906	90.5461	128.906	90.8186	128.906	90.4104	128.906	90.6216	128.906	90.3258	128.906	90.4731	128.906	90.2951	128.906	90.3855	128.906	90.3135	128.906	90.3602	128.906	90.368	128.906	90.3864	128.906	90.4401	128.906	90.4437	128.906	90.5097	128.906	90.5079	128.906	90.559	128.906	90.5571	128.906	90.5761
133.301	92.1462	133.301	92.0734	133.301	92.172	133.301	91.9571	133.301	92.1492	133.301	91.8025	133.301	92.0778	133.301	91.6163	133.301	91.9599	133.301	91.4073	133.301	91.8	133.301	91.1859	133.301	91.6052	133.301	90.9644	133.301	91.386	133.301	90.7567	133.301	91.1562	133.301	90.5768	133.301	90.933	133.301	90.4377	133.301	90.735	133.301	90.3485	133.301	90.5796	133.301	90.3123	133.301	90.4788	133.301	90.3243	133.301	90.4352	133.301	90.3724	133.301	90.4406	133.301	90.439	133.301	90.4779	133.301	90.5052	133.301	90.5253	133.301	90.5538	133.301	90.5622	133.301	90.5738
139.16	92.1204	139.16	92.0483	139.16	92.1426	139.16	91.9286	139.16	92.1144	139.16	91.7659	139.16	92.0377	139.16	91.5672	139.16	91.9161	139.16	91.3415	139.16	91.7554	139.16	91.1	139.16	91.5634	139.16	90.8559	139.16	91.3502	139.16	90.6235	139.16	91.128	139.16	90.4177	139.16	90.9107	139.16	90.2517	139.16	90.7129	139.16	90.1353	139.16	90.5476	139.16	90.0724	139.16	90.4241	139.16	90.0599	139.16	90.3454	139.16	90.0875	139.16	90.3068	139.16	90.1399	139.16	90.297	139.16	90.1998	139.16	90.3003	139.16	90.252	139.16	90.3008	139.16	90.2866
143.555	91.8479	143.555	91.7778	143.555	91.869	143.555	91.6613	143.555	91.841	143.555	91.5033	143.555	91.766	143.555	91.3111	143.555	91.6488	143.555	91.0951	143.555	91.497	143.555	90.8681	143.555	91.3213	143.555	90.646	143.555	91.1354	143.555	90.446	143.555	90.9555	143.555	90.2849	143.555	90.7981	143.555	90.1765	143.555	90.6773	143.555	90.128	143.555	90.6017	143.555	90.1382	143.555	90.5715	143.555	90.1972	143.555	90.5787	143.555	90.2894	143.555	90.6086	143.555	90.3961	143.555	90.6443	143.555	90.4996	143.555	90.6696	143.555	90.5857	143.555	90.6721	143.555	90.6446
147.949	92.0315	147.949	91.9648	147.949	92.0448	147.949	91.8467	147.949	92.0047	147.949	91.681	147.949	91.9128	147.949	91.4735	147.949	91.7731	147.949	91.2329	147.949	91.5924	147.949	90.9711	147.949	91.3815	147.949	90.7039	147.949	91.1551	147.949	90.4511	147.949	90.9316	147.949	90.2346	147.949	90.7319	147.949	90.0753	147.949	90.5756	147.949	89.9884	147.949	90.4766	147.949	89.9785	147.949	90.4383	147.949	90.0376	147.949	90.4526	147.949	90.1465	147.949	90.501	147.949	90.28	147.949	90.5599	147.949	90.4124	147.949	90.6061	147.949	90.5219	147.949	90.6209	147.949	90.5936
153.809	91.9812	153.809	91.9251	153.809	91.9771	153.809	91.8112	153.809	91.9125	153.809	91.644	153.809	91.7897	153.809	91.4302	153.809	91.6135	153.809	91.179	153.809	91.3929	153.809	90.9032	153.809	91.1409	153.809	90.6195	153.809	90.8759	153.809	90.3485	153.809	90.6207	153.809	90.1138	153.809	90.401	153.809	89.9383	153.809	90.2402	153.809	89.8392	153.809	90.1538	153.809	89.8225	153.809	90.143	153.809	89.8807	153.809	90.1939	153.809	89.9935	153.809	90.2812	153.809	90.1339	153.809	90.3748	153.809	90.2734	153.809	90.4474	153.809	90.3878	153.809	90.4791	153.809	90.4594
159.668	92.0446	159.668	91.9976	159.668	92.0309	159.668	91.8915	159.668	91.9567	159.668	91.7295	159.668	91.8244	159.668	91.5165	159.668	91.6387	159.668	91.2598	159.668	91.408	159.668	90.97	159.668	91.1447	159.668	90.6617	159.668	90.8665	159.668	90.3548	159.668	90.5965	159.668	90.0747	159.668	90.3616	159.668	89.8492	159.668	90.1875	159.668	89.7035	159.668	90.0923	159.668	89.6525	159.668	90.079	159.668	89.6946	159.668	90.1332	159.668	89.811	159.668	90.2265	159.668	89.9708	159.668	90.3248	159.668	90.1388	159.668	90.3967	159.668	90.2835	159.668	90.4193	159.668	90.3812
165.527	91.9137	165.527	91.8664	165.527	91.8989	165.527	91.7606	165.527	91.8207	165.527	91.6015	165.527	91.6802	165.527	91.3961	165.527	91.4813	165.527	91.1536	165.527	91.2315	165.527	90.8857	165.527	90.9437	165.527	90.607	165.527	90.6366	165.527	90.336	165.527	90.3361	165.527	90.0942	165.527	90.0737	165.527	89.9042	165.527	89.8812	165.527	89.7856	165.527	89.7826	165.527	89.7494	165.527	89.7842	165.527	89.7928	165.527	89.8706	165.527	89.8988	165.527	90.0086	165.527	90.0391	165.527	90.1578	165.527	90.1812	165.527	90.2808	165.527	90.2946	165.527	90.3512	165.527	90.3556
171.387	91.8816	171.387	91.8229	171.387	91.8715	171.387	91.6977	171.387	91.7917	171.387	91.5103	171.387	91.6429	171.387	91.2668	171.387	91.4281	171.387	90.9758	171.387	91.153	171.387	90.6497	171.387	90.8271	171.387	90.3061	171.387	90.4665	171.387	89.9685	171.387	90.0955	171.387	89.6665	171.387	89.7479	171.387	89.4323	171.387	89.465	171.387	89.293	171.387	89.2862	171.387	89.2617	171.387	89.2346	171.387	89.3305	171.387	89.3046	171.387	89.4719	171.387	89.4608	171.387	89.6458	171.387	89.6511	171.387	89.8101	171.387	89.8236	171.387	89.9284	171.387	89.939	171.387	89.9753
177.246	91.823	177.246	91.7708	177.246	91.8093	177.246	91.6528	177.246	91.7304	177.246	91.4699	177.246	91.5878	177.246	91.2241	177.246	91.3841	177.246	90.9195	177.246	91.1233	177.246	90.5639	177.246	90.8117	177.246	90.1708	177.246	90.4597	177.246	89.7629	177.246	90.0842	177.246	89.3738	177.246	89.7109	177.246	89.046	177.246	89.3753	177.246	88.823	177.246	89.1181	177.246	88.7335	177.246	88.974	177.246	88.7769	177.246	88.9559	177.246	88.9213	177.246	89.0445	177.246	89.1142	177.246	89.1939	177.246	89.3005	177.246	89.348	177.246	89.4353	177.246	89.4575	177.246	89.4905
183.105	91.6627	183.105	91.6343	183.105	91.6354	183.105	91.5497	183.105	91.5536	183.105	91.4089	183.105	91.4196	183.105	91.2117	183.105	91.2369	183.105	90.9577	183.105	91.0098	183.105	90.647	183.105	90.7436	183.105	90.2821	183.105	90.4446	183.105	89.8711	183.105	90.121	183.105	89.4323	183.105	89.785	183.105	88.9979	183.105	89.4545	183.105	88.6151	183.105	89.1547	183.105	88.3364	183.105	88.9149	183.105	88.2003	183.105	88.7594	183.105	88.2099	183.105	88.6948	183.105	88.3275	183.105	88.7024	183.105	88.4915	183.105	88.7417	183.105	88.6415	183.105	88.7655	183.105	88.7371
188.965	91.2362	188.965	91.2308	188.965	91.1802	188.965	91.1649	188.965	91.0635	188.965	91.0406	188.965	90.8895	188.965	90.8609	188.965	90.6646	188.965	90.6299	188.965	90.3992	188.965	90.3524	188.965	90.1077	188.965	90.0354	188.965	89.8088	188.965	89.6893	188.965	89.5232	188.965	89.3295	188.965	89.2712	188.965	88.9784	188.965	89.0688	188.965	88.6656	188.965	88.9242	188.965	88.4234	188.965	88.8366	188.965	88.2782	188.965	88.7962	188.965	88.2391	188.965	88.7862	188.965	88.2919	188.965	88.7855	188.965	88.4034	188.965	88.7729	188.965	88.5338	188.965	88.7305	188.965	88.6494
196.289	91.249	196.289	91.2539	196.289	91.1784	196.289	91.1962	196.289	91.0415	196.289	91.0803	196.289	90.8408	196.289	90.911	196.289	90.5828	196.289	90.6928	196.289	90.2787	196.289	90.4295	196.289	89.9445	196.289	90.1253	196.289	89.6006	196.289	89.7864	196.289	89.2709	196.289	89.424	196.289	88.9799	196.289	89.0579	196.289	88.7491	196.289	88.7182	196.289	88.5929	196.289	88.4422	196.289	88.5146	196.289	88.2647	196.289	88.5047	196.289	88.2023	196.289	88.5416	196.289	88.2432	196.289	88.5954	196.289	88.3503	196.289	88.6345	196.289	88.476	196.289	88.6332	196.289	88.5786
203.613	91.2756	203.613	91.3014	203.613	91.1792	203.613	91.2598	203.613	91.0105	203.613	91.1548	203.613	90.7702	203.613	90.9904	203.613	90.462	203.613	90.7704	203.613	90.0932	203.613	90.4983	203.613	89.6757	203.613	90.179	203.613	89.2268	203.613	89.8206	203.613	88.7717	203.613	89.4372	203.613	88.3434	203.613	89.051	203.613	87.9818	203.613	88.6927	203.613	87.7263	203.613	88.3971	203.613	87.6029	203.613	88.1932	203.613	87.6113	203.613	88.0923	203.613	87.7205	203.613	88.0804	203.613	87.8791	203.613	88.1217	203.613	88.0331	203.613	88.1706	203.613	88.1417	203.613	88.1859
210.938	91.0993	210.938	91.1435	210.938	90.9925	210.938	91.1285	210.938	90.8219	210.938	91.0584	210.938	90.5888	210.938	90.9378	210.938	90.2976	210.938	90.7708	210.938	89.9575	210.938	90.5603	210.938	89.5828	210.938	90.3089	210.938	89.1946	210.938	90.0199	210.938	88.8204	210.938	89.7	210.938	88.4906	210.938	89.3627	210.938	88.2333	210.938	89.0301	210.938	88.0666	210.938	88.7321	210.938	87.9937	210.938	88.4993	210.938	88.0018	210.938	88.352	210.938	88.0664	210.938	88.289	210.938	88.1568	210.938	88.2869	210.938	88.243	210.938	88.3095	210.938	88.3016	210.938	88.3219
218.262	90.9634	218.262	90.9581	218.262	90.8998	218.262	90.8932	218.262	90.7606	218.262	90.7798	218.262	90.542	218.262	90.6299	218.262	90.2445	218.262	90.4551	218.262	89.8739	218.262	90.265	218.262	89.4445	218.262	90.0666	218.262	88.9832	218.262	89.8651	218.262	88.533	218.262	89.6656	218.262	88.1527	218.262	89.4765	218.262	87.9054	218.262	89.3111	218.262	87.8361	218.262	89.1868	218.262	87.9472	218.262	89.1193	218.262	88.1943	218.262	89.1146	218.262	88.5064	218.262	89.1616	218.262	88.8132	218.262	89.2326	218.262	89.0625	218.262	89.2902	218.262	89.2259	218.262	89.2973
225.586	91.6419	225.586	91.6187	225.586	91.5805	225.586	91.5188	225.586	91.428	225.586	91.3508	225.586	91.1794	225.586	91.1245	225.586	90.8322	225.586	90.8507	225.586	90.3877	225.586	90.5414	225.586	89.854	225.586	90.2105	225.586	89.2513	225.586	89.8742	225.586	88.6194	225.586	89.5522	225.586	88.0255	225.586	89.2681	225.586	87.5634	225.586	89.0477	225.586	87.3286	225.586	88.9146	225.586	87.3686	225.586	88.8808	225.586	87.6466	225.586	88.9379	225.586	88.0609	225.586	89.0539	225.586	88.4977	225.586	89.1801	225.586	88.8701	225.586	89.2629	225.586	89.1283	225.586	89.2559
232.91	91.7521	232.91	91.7269	232.91	91.6979	232.91	91.6296	232.91	91.558	232.91	91.4678	232.91	91.3262	232.91	91.25	232.91	90.9971	232.91	90.9855	232.91	90.5658	232.91	90.6843	232.91	90.0297	232.91	90.3582	232.91	89.3924	232.91	90.02	232.91	88.673	232.91	89.6846	232.91	87.9202	232.91	89.3697	232.91	87.229	232.91	89.0963	232.91	86.7388	232.91	88.8868	232.91	86.5783	232.91	88.7591	232.91	86.771	232.91	88.7164	232.91	87.2072	232.91	88.7388	232.91	87.7229	232.91	88.7844	232.91	88.1868	232.91	88.798	232.91	88.5277	232.91	88.726
241.699	91.6023	241.699	91.5262	241.699	91.6045	241.699	91.3824	241.699	91.5276	241.699	91.1779	241.699	91.3663	241.699	90.9218	241.699	91.1142	241.699	90.6253	241.699	90.7635	241.699	90.3023	241.699	90.3056	241.699	89.9707	241.699	89.7336	241.699	89.6521	241.699	89.0479	241.699	89.3704	241.699	88.2686	241.699	89.1478	241.699	87.4551	241.699	88.9993	241.699	86.7309	241.699	88.9279	241.699	86.2765	241.699	88.9213	241.699	86.2376	241.699	88.9536	241.699	86.5962	241.699	88.9879	241.699	87.1783	241.699	88.9812	241.699	87.7896	241.699	88.889	241.699	88.3047	241.699	88.672
250.488	92.4626	250.488	92.3109	250.488	92.5345	250.488	92.0822	250.488	92.5238	250.488	91.7784	250.488	92.4272	250.488	91.4009	250.488	92.2407	250.488	90.9513	250.488	91.9593	250.488	90.4339	250.488	91.5763	250.488	89.8609	250.488	91.0836	250.488	89.26	250.488	90.4741	250.488	88.6815	250.488	89.7477	250.488	88.1978	250.488	88.9248	250.488	87.8845	250.488	88.0688	250.488	87.7826	250.488	87.3093	250.488	87.8689	250.488	86.8258	250.488	88.0646	250.488	86.7442	250.488	88.2726	250.488	87.0206	250.488	88.408	250.488	87.4744	250.488	88.4111	250.488	87.9217	250.488	88.2492
259.277	92.1382	259.277	92.0822	259.277	92.119	259.277	91.9531	259.277	92.0258	259.277	91.7551	259.277	91.8622	259.277	91.4936	259.277	91.6332	259.277	91.1746	259.277	91.3427	259.277	90.8047	259.277	90.9917	259.277	90.3925	259.277	90.5772	259.277	89.9522	259.277	90.0952	259.277	89.5082	259.277	89.5474	259.277	89.0982	259.277	88.9546	259.277	88.7719	259.277	88.3733	259.277	88.5762	259.277	87.9047	259.277	88.5319	259.277	87.6661	259.277	88.6164	259.277	87.7153	259.277	88.768	259.277	87.9936	259.277	88.9094	259.277	88.3637	259.277	88.9711	259.277	88.694	259.277	88.9049
268.066	92.2681	268.066	92.1701	268.066	92.2671	268.066	91.9711	268.066	92.1719	268.066	91.671	268.066	91.9892	268.066	91.2716	268.066	91.7268	268.066	90.7773	268.066	91.3922	268.066	90.1985	268.066	90.9908	268.066	89.5584	268.066	90.5244	268.066	88.9028	268.066	89.9915	268.066	88.3075	268.066	89.3924	268.066	87.8699	268.066	88.7416	268.066	87.6722	268.066	88.0892	268.066	87.7325	268.066	87.5418	268.066	87.9887	268.066	87.2454	268.066	88.334	268.066	87.2954	268.066	88.6622	268.066	87.6418	268.066	88.8913	268.066	88.1188	268.066	88.9656	268.066	88.5584	268.066	88.8549
276.855	92.8849	276.855	92.8241	276.855	92.8477	276.855	92.6615	276.855	92.7174	276.855	92.3942	276.855	92.4996	276.855	92.0191	276.855	92.2001	276.855	91.5321	276.855	91.8233	276.855	90.9286	276.855	91.3728	276.855	90.2069	276.855	90.8532	276.855	89.3769	276.855	90.2747	276.855	88.4778	276.855	89.6578	276.855	87.6061	276.855	89.0406	276.855	86.9313	276.855	88.4826	276.855	86.6406	276.855	88.061	276.855	86.7936	276.855	87.8475	276.855	87.2536	276.855	87.867	276.855	87.8032	276.855	88.0687	276.855	88.2728	276.855	88.3441	276.855	88.5711	276.855	88.5743	276.855	88.6674
287.109	92.4716	287.109	92.5358	287.109	92.3415	287.109	92.5312	287.109	92.1508	287.109	92.4556	287.109	91.9076	287.109	92.3047	287.109	91.6207	287.109	92.07	287.109	91.2979	287.109	91.7386	287.109	90.9425	287.109	91.2954	287.109	90.5513	287.109	90.7301	287.109	90.1165	287.109	90.0501	287.109	89.6329	287.109	89.2995	287.109	89.1153	287.109	88.5807	287.109	88.6182	287.109	88.0504	287.109	88.2423	287.109	87.8491	287.109	88.0958	287.109	87.9908	287.109	88.2128	287.109	88.345	287.109	88.5106	287.109	88.7363	287.109	88.8435	287.109	89.0303	287.109	89.0831	287.109	89.1533
297.363	92.9776	297.363	93.0183	297.363	92.8465	297.363	92.9768	297.363	92.6175	297.363	92.8579	297.363	92.286	297.363	92.6606	297.363	91.8526	297.363	92.3766	297.363	91.3227	297.363	91.9919	297.363	90.7066	297.363	91.49	297.363	90.0197	297.363	90.8576	297.363	89.284	297.363	90.0958	297.363	88.5347	297.363	89.2408	297.363	87.8348	297.363	88.3973	297.363	87.2942	297.363	87.7585	297.363	87.0581	297.363	87.5353	297.363	87.221	297.363	87.7772	297.363	87.7214	297.363	88.3058	297.363	88.3649	297.363	88.8688	297.363	88.9471	297.363	89.2813	297.363	89.3303	297.363	89.4464
307.617	92.4523	307.617	92.3556	307.617	92.4758	307.617	92.2038	307.617	92.412	307.617	92.0159	307.617	92.2504	307.617	91.8069	307.617	91.9828	307.617	91.581	307.617	91.602	307.617	91.3288	307.617	91.1013	307.617	91.0296	307.617	90.4745	307.617	90.6575	307.617	89.7176	307.617	90.1924	307.617	88.8373	307.617	89.6337	307.617	87.8725	307.617	89.019	307.617	86.9381	307.617	88.4391	307.617	86.2633	307.617	88.0269	307.617	86.1067	307.617	87.8886	307.617	86.5032	307.617	88.0139	307.617	87.1928	307.617	88.2708	307.617	87.8658	307.617	88.4903	307.617	88.3354	307.617	88.5379
319.336	92.3039	319.336	92.2456	319.336	92.2999	319.336	92.1317	319.336	92.2284	319.336	91.9674	319.336	92.0864	319.336	91.7518	319.336	91.8717	319.336	91.4764	319.336	91.5785	319.336	91.1259	319.336	91.1933	319.336	90.6848	319.336	90.692	319.336	90.146	319.336	90.04	319.336	89.524	319.336	89.2005	319.336	88.8685	319.336	88.157	319.336	88.273	319.336	86.9691	319.336	87.8568	319.336	85.8749	319.336	87.7054	319.336	85.3214	319.336	87.8058	319.336	85.5933	319.336	88.0498	319.336	86.4087	319.336	88.2951	319.336	87.2864	319.336	88.4171	319.336	87.9512	319.336	88.3228
329.59	91.7876	329.59	91.6645	329.59	91.8315	329.59	91.4822	329.59	91.7873	329.59	91.2676	329.59	91.6578	329.59	91.0439	329.59	91.4536	329.59	90.8184	329.59	91.187	329.59	90.5755	329.59	90.8643	329.59	90.2792	329.59	90.4789	329.59	89.8868	329.59	90.0066	329.59	89.3687	329.59	89.4085	329.59	88.7335	329.59	88.6463	329.59	88.0563	329.59	87.7197	329.59	87.4934	329.59	86.7387	329.59	87.2297	329.59	86.0046	329.59	87.3386	329.59	85.8929	329.59	87.6993	329.59	86.4294	329.59	88.0919	329.59	87.2245	329.59	88.3248	329.59	87.9	329.59	88.2779
341.309	92.176	341.309	91.9703	341.309	92.2668	341.309	91.6705	341.309	92.2391	341.309	91.3125	341.309	92.1036	341.309	90.9389	341.309	91.8815	341.309	90.5837	341.309	91.5992	341.309	90.2553	341.309	91.2788	341.309	89.9318	341.309	90.9262	341.309	89.5742	341.309	90.52	341.309	89.1508	341.309	90.0107	341.309	88.6631	341.309	89.3367	341.309	88.1681	341.309	88.4628	341.309	87.7817	341.309	87.4517	341.309	87.6341	341.309	86.568	341.309	87.7729	341.309	86.2474	341.309	88.1055	341.309	86.6573	341.309	88.4535	341.309	87.4373	341.309	88.6457	341.309	88.145	341.309	88.5615
353.027	92.527	353.027	92.4123	353.027	92.5086	353.027	92.1696	353.027	92.3611	353.027	91.8134	353.027	92.0967	353.027	91.3675	353.027	91.7346	353.027	90.8599	353.027	91.3001	353.027	90.3137	353.027	90.8214	353.027	89.7374	353.027	90.3214	353.027	89.1216	353.027	89.8042	353.027	88.4535	353.027	89.2451	353.027	87.7489	353.027	88.5976	353.027	87.0966	353.027	87.8287	353.027	86.6741	353.027	86.9886	353.027	86.6561	353.027	86.2971	353.027	87.038	353.027	86.1006	353.027	87.6112	353.027	86.5245	353.027	88.1253	353.027	87.2722	353.027	88.4042	353.027	87.9558	353.027	88.3554
366.211	93.4428	366.211	93.333	366.211	93.4427	366.211	93.1216	366.211	93.3246	366.211	92.8132	366.211	93.0808	366.211	92.4037	366.211	92.7057	366.211	91.8783	366.211	92.1986	366.211	91.214	366.211	91.5691	366.211	90.3876	366.211	90.8419	366.211	89.3869	366.211	90.0538	366.211	88.2261	366.211	89.2387	366.211	86.9823	366.211	88.407	366.211	85.8632	366.211	87.5464	366.211	85.2408	366.211	86.6783	366.211	85.4085	366.211	85.9731	366.211	86.2044	366.211	85.7805	366.211	87.1798	366.211	86.2873	366.211	87.9834	366.211	87.182	366.211	88.4307	366.211	87.9919	366.211	88.438
379.395	92.8298	379.395	92.6545	379.395	92.9256	379.395	92.4313	379.395	92.9241	379.395	92.2008	379.395	92.8203	379.395	91.9977	379.395	92.6178	379.395	91.8299	379.395	92.3231	379.395	91.6667	379.395	91.937	379.395	91.4433	379.395	91.4453	379.395	91.0757	379.395	90.8124	379.395	90.4785	379.395	89.9837	379.395	89.5864	379.395	88.9019	379.395	88.3936	379.395	87.5544	379.395	87.0363	379.395	86.0859	379.395	85.904	379.395	84.9661	379.395	85.5079	379.395	84.7911	379.395	85.8933	379.395	85.475	379.395	86.5689	379.395	86.365	379.395	87.093	379.395	87.0129	379.395	87.2621
392.578	92.7976	392.578	92.6166	392.578	92.8371	392.578	92.311	392.578	92.7361	392.578	91.9181	392.578	92.5127	392.578	91.4949	392.578	92.2012	392.578	91.1051	392.578	91.8491	392.578	90.7897	392.578	91.504	392.578	90.5361	392.578	91.19	392.578	90.2738	392.578	90.8835	392.578	89.9065	392.578	90.5064	392.578	89.3602	392.578	89.9471	392.578	88.6305	392.578	89.1009	392.578	87.8313	392.578	87.9353	392.578	87.2162	392.578	86.624	392.578	87.052	392.578	85.72	392.578	87.3443	392.578	85.8151	392.578	87.8035	392.578	86.6543	392.578	88.1036	392.578	87.5261	392.578	88.0373
405.762	92.9412	405.762	92.7747	405.762	92.9357	405.762	92.4523	405.762	92.7615	405.762	92.0073	405.762	92.4406	405.762	91.4846	405.762	92.0099	405.762	90.9321	405.762	91.517	405.762	90.386	405.762	91.0178	405.762	89.8564	405.762	90.5658	405.762	89.3214	405.762	90.1853	405.762	88.74	405.762	89.8392	405.762	88.083	405.762	89.4303	405.762	87.3825	405.762	88.853	405.762	86.7863	405.762	88.0769	405.762	86.5438	405.762	87.2511	405.762	86.8086	405.762	86.7507	405.762	87.4326	405.762	86.8984	405.762	88.0882	405.762	87.5271	405.762	88.5059	405.762	88.1814	405.762	88.5451
420.41	93.4528	420.41	93.2031	420.41	93.5781	420.41	92.854	420.41	93.5769	420.41	92.4505	420.41	93.4632	420.41	92.0397	420.41	93.2582	420.41	91.6431	420.41	92.9827	420.41	91.2359	420.41	92.6529	420.41	90.7521	420.41	92.2704	420.41	90.1101	420.41	91.8067	420.41	89.2443	420.41	91.1867	420.41	88.1396	420.41	90.2885	420.41	86.8944	420.41	88.9661	420.41	85.8313	420.41	87.1323	420.41	85.4769	420.41	85.0916	420.41	86.0392	420.41	84.2131	420.41	87.08	420.41	85.3735	420.41	88.0603	420.41	87.0681	420.41	88.6754	420.41	88.258	420.41	88.7744
435.059	92.4894	435.059	92.2183	435.059	92.5717	435.059	91.7707	435.059	92.4783	435.059	91.2007	435.059	92.2407	435.059	90.6148	435.059	91.9121	435.059	90.147	435.059	91.5755	435.059	89.8749	435.059	91.3325	435.059	89.737	435.059	91.249	435.059	89.5566	435.059	91.2885	435.059	89.141	435.059	91.3092	435.059	88.3574	435.059	91.1345	435.059	87.1921	435.059	90.624	435.059	85.8951	435.059	89.7202	435.059	85.1791	435.059	88.5269	435.059	85.6731	435.059	87.4527	435.059	86.8884	435.059	87.1152	435.059	88.0042	435.059	87.598	435.059	88.6448	435.059	88.3064	435.059	88.7279
451.172	91.8157	451.172	91.4958	451.172	91.9389	451.172	90.992	451.172	91.8554	451.172	90.3225	451.172	91.554	451.172	89.5195	451.172	91.0204	451.172	88.6428	451.172	90.2437	451.172	87.7844	451.172	89.246	451.172	87.0383	451.172	88.1325	451.172	86.4314	451.172	87.1084	451.172	85.8789	451.172	86.3527	451.172	85.2165	451.172	85.7999	451.172	84.2848	451.172	85.1526	451.172	83.067	451.172	84.1446	451.172	81.9751	451.172	82.8704	451.172	81.9403	451.172	82.2126	451.172	83.1471	451.172	83.0668	451.172	84.6299	451.172	84.5827	451.172	85.6857	451.172	85.6938	451.172	86.0676
465.82	92.2337	465.82	92.0607	465.82	92.2329	465.82	91.705	465.82	92.0745	465.82	91.1759	465.82	91.7693	465.82	90.508	465.82	91.3177	465.82	89.7598	465.82	90.7201	465.82	88.9995	465.82	90.0004	465.82	88.2732	465.82	89.2209	465.82	87.5713	465.82	88.4626	465.82	86.8179	465.82	87.7626	465.82	85.906	465.82	87.0487	465.82	84.7852	465.82	86.1364	465.82	83.6255	465.82	84.8044	465.82	82.9931	465.82	82.9781	465.82	83.4272	465.82	81.3136	465.82	84.5595	465.82	81.542	465.82	85.6242	465.82	83.3917	465.82	86.1773	465.82	85.0905	465.82	86.0299
483.398	91.9188	483.398	91.7331	483.398	91.9188	483.398	91.3762	483.398	91.7399	483.398	90.8921	483.398	91.4023	483.398	90.3584	483.398	90.9322	483.398	89.8744	483.398	90.3642	483.398	89.5142	483.398	89.7575	483.398	89.2617	483.398	89.2053	483.398	88.9891	483.398	88.7951	483.398	88.5021	483.398	88.5156	483.398	87.5963	483.398	88.2112	483.398	86.0868	483.398	87.655	483.398	83.8788	483.398	86.6683	483.398	81.4435	483.398	85.2496	483.398	80.8257	483.398	83.8177	483.398	82.5336	483.398	83.3004	483.398	84.3127	483.398	83.9676	483.398	85.3015	483.398	84.9279	483.398	85.466
499.512	92.1901	499.512	91.9382	499.512	92.2408	499.512	91.4974	499.512	92.108	499.512	90.925	499.512	91.8174	499.512	90.3195	499.512	91.3871	499.512	89.7867	499.512	90.8325	499.512	89.3853	499.512	90.1872	499.512	89.0869	499.512	89.5168	499.512	88.7836	499.512	88.8914	499.512	88.3252	499.512	88.317	499.512	87.5536	499.512	87.6815	499.512	86.3264	499.512	86.778	499.512	84.5704	499.512	85.4048	499.512	82.5427	499.512	83.6204	499.512	81.4852	499.512	82.4104	499.512	82.5208	499.512	83.1524	499.512	84.3301	499.512	84.8046	499.512	85.6855	499.512	85.9604	499.512	86.2557
517.09	92.249	517.09	91.9318	517.09	92.3187	517.09	91.3776	517.09	92.1438	517.09	90.6446	517.09	91.7244	517.09	89.8885	517.09	91.0717	517.09	89.3806	517.09	90.2687	517.09	89.349	517.09	89.5467	517.09	89.7025	517.09	89.226	517.09	90.0847	517.09	89.395	517.09	90.1614	517.09	89.7478	517.09	89.7205	517.09	89.8592	517.09	88.6201	517.09	89.3984	517.09	86.749	517.09	88.1206	517.09	84.1643	517.09	85.8381	517.09	81.9527	517.09	82.7559	517.09	82.3693	517.09	81.1982	517.09	84.1986	517.09	82.9264	517.09	85.4515	517.09	84.8266	517.09	85.684
536.133	92.8074	536.133	92.4864	536.133	92.8361	536.133	91.8447	536.133	92.5701	536.133	90.8286	536.133	91.9725	536.133	89.383	536.133	90.9648	536.133	87.5533	536.133	89.4225	536.133	85.8236	536.133	87.2069	536.133	85.3649	536.133	84.4697	536.133	86.3958	536.133	82.9973	536.133	87.6427	536.133	84.6177	536.133	88.3009	536.133	86.7609	536.133	88.1456	536.133	87.8975	536.133	87.1422	536.133	87.796	536.133	85.4586	536.133	86.4071	536.133	83.9816	536.133	83.9688	536.133	84.2101	536.133	82.5092	536.133	85.6064	536.133	84.0956	536.133	86.6869	536.133	86.0087	536.133	86.8816
555.176	92.3213	555.176	92.1329	555.176	92.394	555.176	91.7693	555.176	92.3807	555.176	91.1637	555.176	92.2569	555.176	90.2538	555.176	91.9371	555.176	88.9916	555.176	91.2923	555.176	87.3733	555.176	90.1722	555.176	85.5609	555.176	88.4094	555.176	84.1801	555.176	85.8324	555.176	84.0769	555.176	82.6382	555.176	84.8457	555.176	81.232	555.176	85.3571	555.176	83.0938	555.176	85.0598	555.176	84.8363	555.176	83.9886	555.176	85.269	555.176	82.9237	555.176	84.4888	555.176	83.2095	555.176	83.3302	555.176	84.5492	555.176	83.4874	555.176	85.5838	555.176	84.8035	555.176	85.6935
574.219	92.8189	574.219	92.5075	574.219	92.9778	574.219	92.0472	574.219	92.9704	574.219	91.4381	574.219	92.7662	574.219	90.6831	574.219	92.3192	574.219	89.7979	574.219	91.5882	574.219	88.8319	574.219	90.5694	574.219	87.8957	574.219	89.3092	574.219	87.1341	574.219	87.8871	574.219	86.5844	574.219	86.4177	574.219	86.0539	574.219	85.0753	574.219	85.2009	574.219	83.9793	574.219	83.7272	574.219	82.9463	574.219	81.7117	574.219	81.5266	574.219	80.5943	574.219	79.6335	574.219	81.9923	574.219	79.2523	574.219	84.0463	574.219	81.7406	574.219	85.2702	574.219	84.1614	574.219	85.3448
594.727	92.8537	594.727	92.6175	594.727	92.8698	594.727	92.1732	594.727	92.6715	594.727	91.5342	594.727	92.2813	594.727	90.7046	594.727	91.708	594.727	89.6971	594.727	90.9195	594.727	88.582	594.727	89.86	594.727	87.5513	594.727	88.5293	594.727	86.8854	594.727	87.1485	594.727	86.6774	594.727	86.2794	594.727	86.6211	594.727	86.2068	594.727	86.2459	594.727	86.2683	594.727	85.2026	594.727	85.5925	594.727	83.3923	594.727	83.569	594.727	81.4591	594.727	80.0486	594.727	81.4457	594.727	78.838	594.727	83.2991	594.727	82.1388	594.727	84.8712	594.727	84.529	594.727	85.3581
615.234	92.4656	615.234	92.3235	615.234	92.4543	615.234	91.9783	615.234	92.3555	615.234	91.4203	615.234	92.1831	615.234	90.6544	615.234	91.8537	615.234	89.6603	615.234	91.2335	615.234	88.3956	615.234	90.2176	615.234	86.9084	615.234	88.7344	615.234	85.5653	615.234	86.6913	615.234	84.9741	615.234	84.1334	615.234	85.0734	615.234	82.3295	615.234	85.0862	615.234	83.2988	615.234	84.499	615.234	85.0007	615.234	83.3479	615.234	85.4573	615.234	82.4275	615.234	84.1408	615.234	82.8826	615.234	81.0897	615.234	84.1496	615.234	79.6871	615.234	84.9003	615.234	82.4455	615.234	84.4549
637.207	92.4256	637.207	92.1869	637.207	92.522	637.207	91.7857	637.207	92.5187	637.207	91.2319	637.207	92.4151	637.207	90.5178	637.207	92.1354	637.207	89.5868	637.207	91.574	637.207	88.3969	637.207	90.6467	637.207	87.1031	637.207	89.2908	637.207	86.2256	637.207	87.5023	637.207	86.1671	637.207	85.5483	637.207	86.4076	637.207	84.1251	637.207	86.0864	637.207	83.5156	637.207	84.615	637.207	83.0039	637.207	81.5471	637.207	82.0279	637.207	77.5302	637.207	80.623	637.207	78.7576	637.207	79.5259	637.207	82.1234	637.207	80.3048	637.207	83.7717	637.207	82.3732	637.207	83.7719
659.18	92.7482	659.18	92.6443	659.18	92.7036	659.18	92.3478	659.18	92.5693	659.18	91.8709	659.18	92.3614	659.18	91.2698	659.18	92.0466	659.18	90.6012	659.18	91.5764	659.18	89.8754	659.18	90.905	659.18	89.0542	659.18	89.9845	659.18	88.1656	659.18	88.7515	659.18	87.4594	659.18	87.197	659.18	87.1531	659.18	85.7845	659.18	86.8646	659.18	85.4841	659.18	85.8629	659.18	85.6471	659.18	83.5392	659.18	84.4295	659.18	80.0614	659.18	80.1806	659.18	80.2889	659.18	74.6781	659.18	83.7709	659.18	81.4488	659.18	85.8831	659.18	85.1352	659.18	86.3548
682.617	92.7101	682.617	92.6249	682.617	92.6074	682.617	92.3091	682.617	92.3666	682.617	91.7502	682.617	92.0064	682.617	90.9312	682.617	91.5237	682.617	89.7925	682.617	90.9161	682.617	88.3037	682.617	90.1442	682.617	86.7756	682.617	89.1005	682.617	86.1579	682.617	87.7308	682.617	86.8387	682.617	86.3055	682.617	87.8367	682.617	85.6035	682.617	88.3286	682.617	86.2283	682.617	87.8959	682.617	87.4468	682.617	86.1461	682.617	87.9626	682.617	82.7178	682.617	86.7713	682.617	79.8627	682.617	82.6305	682.617	82.5172	682.617	75.2949	682.617	84.838	682.617	81.4506	682.617	84.7666
707.52	91.6777	707.52	91.3828	707.52	91.6609	707.52	90.8015	707.52	91.4079	707.52	90.0709	707.52	90.9974	707.52	89.3467	707.52	90.431	707.52	88.6316	707.52	89.6868	707.52	87.6925	707.52	88.7946	707.52	86.2035	707.52	87.7715	707.52	84.1481	707.52	86.4408	707.52	82.6197	707.52	84.3219	707.52	83.1386	707.52	80.6497	707.52	84.585	707.52	75.361	707.52	85.4973	707.52	78.1632	707.52	85.4124	707.52	82.6816	707.52	84.1623	707.52	84.2414	707.52	81.8285	707.52	82.7396	707.52	79.8929	707.52	77.1149	707.52	80.0702	707.52	74.7663	707.52	79.3511
732.422	92.8039	732.422	92.7991	732.422	92.4703	732.422	92.4338	732.422	91.9113	732.422	91.8363	732.422	91.2052	732.422	91.2042	732.422	90.3747	732.422	90.6177	732.422	89.4595	732.422	89.8955	732.422	88.4835	732.422	88.6659	732.422	87.4184	732.422	86.4532	732.422	86.2811	732.422	82.9577	732.422	85.139	732.422	82.0561	732.422	83.886	732.422	85.1429	732.422	81.7938	732.422	86.5767	732.422	76.7595	732.422	86.0667	732.422	74.0931	732.422	84.3688	732.422	81.8153	732.422	83.0899	732.422	84.6838	732.422	83.4794	732.422	84.9407	732.422	84.1046	732.422	84.3125	732.422	84.1559
757.324	92.705	757.324	92.9831	757.324	92.329	757.324	92.992	757.324	92.0628	757.324	92.639	757.324	92.0011	757.324	91.9318	757.324	92.0079	757.324	91.028	757.324	91.82	757.324	90.165	757.324	91.2253	757.324	89.3264	757.324	90.0496	757.324	87.9335	757.324	88.0271	757.324	84.9263	757.324	85.2746	757.324	79.7989	757.324	83.532	757.324	80.4477	757.324	83.1916	757.324	83.8998	757.324	82.0374	757.324	85.2703	757.324	78.6695	757.324	85.6495	757.324	72.1388	757.324	86.2512	757.324	80.2692	757.324	87.2273	757.324	85.4868	757.324	87.9919	757.324	87.6351	757.324	88.2259
785.156	91.5886	785.156	92.0924	785.156	90.9588	785.156	92.0921	785.156	90.6106	785.156	91.5941	785.156	90.4286	785.156	90.8845	785.156	90.1705	785.156	90.2864	785.156	89.9701	785.156	89.9934	785.156	89.9052	785.156	89.9984	785.156	89.538	785.156	89.871	785.156	88.2334	785.156	88.8363	785.156	85.724	785.156	86.1966	785.156	83.252	785.156	81.2072	785.156	83.318	785.156	72.8287	785.156	83.8501	785.156	74.3934	785.156	82.4722	785.156	80.6638	785.156	78.8748	785.156	84.7423	785.156	76.4242	785.156	87.059	785.156	80.5837	785.156	87.7731	785.156	84.6111	785.156	86.9569
811.523	90.7842	811.523	91.4827	811.523	89.922	811.523	91.5885	811.523	89.2365	811.523	91.0675	811.523	88.6466	811.523	90.3307	811.523	88.1292	811.523	89.8185	811.523	87.9566	811.523	89.3509	811.523	88.2457	811.523	88.7152	811.523	88.6573	811.523	88.3611	811.523	88.6684	811.523	88.2495	811.523	87.6217	811.523	87.6453	811.523	84.4467	811.523	86.2483	811.523	79.1318	811.523	84.2234	811.523	81.7482	811.523	80.9508	811.523	84.2398	811.523	72.2991	811.523	83.4822	811.523	73.5626	811.523	80.323	811.523	80.9238	811.523	77.6083	811.523	82.725	811.523	79.6104	811.523	82.0091
840.82	90.9875	840.82	90.6918	840.82	90.9796	840.82	90.3853	840.82	90.4532	840.82	90.1156	840.82	89.4117	840.82	89.7288	840.82	87.963	840.82	89.1058	840.82	86.4761	840.82	88.1998	840.82	85.9481	840.82	87.1884	840.82	87	840.82	86.7606	840.82	88.4653	840.82	87.0866	840.82	88.9571	840.82	87.2578	840.82	87.9676	840.82	86.7627	840.82	85.5029	840.82	85.5464	840.82	81.3539	840.82	82.9209	840.82	77.2697	840.82	77.33	840.82	79.2724	840.82	75.4713	840.82	79.5001	840.82	79.574	840.82	75.1246	840.82	80.496	840.82	71.6145	840.82	78.2539
870.117	90.3746	870.117	90.6072	870.117	89.6134	870.117	90.1639	870.117	88.7971	870.117	89.2896	870.117	88.0998	870.117	88.3478	870.117	87.2324	870.117	87.5563	870.117	86.0359	870.117	86.6646	870.117	84.4409	870.117	85.0578	870.117	81.9503	870.117	83.1877	870.117	78.795	870.117	83.5464	870.117	80.138	870.117	85.4609	870.117	83.238	870.117	86.6153	870.117	85.1311	870.117	86.1087	870.117	86.3671	870.117	83.0767	870.117	87.3135	870.117	75.897	870.117	86.8212	870.117	61.5469	870.117	83.6264	870.117	73.9653	870.117	76.6267	870.117	77.7199	870.117	71.2849	870.117	76.8591
900.879	90.7084	900.879	90.9473	900.879	90.3384	900.879	90.9342	900.879	89.9046	900.879	90.6802	900.879	89.3731	900.879	90.4192	900.879	88.7243	900.879	90.3092	900.879	87.9977	900.879	89.8287	900.879	87.2074	900.879	88.1432	900.879	86.3435	900.879	84.8991	900.879	85.187	900.879	81.5851	900.879	83.1505	900.879	82.0165	900.879	80.7746	900.879	84.3079	900.879	78.5977	900.879	85.9243	900.879	75.0732	900.879	85.927	900.879	81.759	900.879	83.6332	900.879	85.408	900.879	79.3094	900.879	84.2989	900.879	78.4512	900.879	78.0447	900.879	79.4912	900.879	68.1453	900.879	77.2877
933.105	91.2634	933.105	91.5099	933.105	90.7259	933.105	91.3207	933.105	90.2316	933.105	90.8178	933.105	89.6241	933.105	90.0258	933.105	88.6352	933.105	89.1648	933.105	87.5706	933.105	88.7355	933.105	86.6744	933.105	88.1619	933.105	85.7753	933.105	86.4951	933.105	84.6798	933.105	83.7334	933.105	83.5606	933.105	81.769	933.105	83.2376	933.105	83.091	933.105	83.6782	933.105	85.1538	933.105	84.4704	933.105	84.8253	933.105	85.3344	933.105	81.1674	933.105	85.0355	933.105	79.3694	933.105	83.2997	933.105	81.7007	933.105	79.9019	933.105	81.5203	933.105	72.0657	933.105	77.052
965.332	91.3436	965.332	91.6689	965.332	90.7037	965.332	91.5511	965.332	89.8717	965.332	91.1022	965.332	88.9332	965.332	90.288	965.332	88.3171	965.332	88.9806	965.332	88.2381	965.332	87.7705	965.332	88.278	965.332	87.1182	965.332	87.8887	965.332	86.3151	965.332	86.4527	965.332	85.2432	965.332	83.3803	965.332	84.3226	965.332	80.1182	965.332	83.6991	965.332	77.8851	965.332	84.4089	965.332	66.1841	965.332	84.9163	965.332	80.8398	965.332	82.9404	965.332	85.1967	965.332	76.708	965.332	83.9864	965.332	75.8669	965.332	77.9457	965.332	79.3526	965.332	75.0306	965.332	78.3248
1,000.49	90.2667	1,000.49	90.7412	1,000.49	89.5445	1,000.49	90.8173	1,000.49	88.9395	1,000.49	90.6723	1,000.49	88.4434	1,000.49	90.303	1,000.49	87.8373	1,000.49	89.3274	1,000.49	86.7063	1,000.49	87.6577	1,000.49	85.0572	1,000.49	85.8924	1,000.49	84.3078	1,000.49	84.3585	1,000.49	84.966	1,000.49	83.0356	1,000.49	85.1484	1,000.49	82.4215	1,000.49	84.0056	1,000.49	82.9689	1,000.49	82.7863	1,000.49	84.2978	1,000.49	83.1516	1,000.49	84.4392	1,000.49	82.6722	1,000.49	82.2717	1,000.49	80.9853	1,000.49	79.6871	1,000.49	81.2338	1,000.49	79.6757	1,000.49	78.8192	1,000.49	79.9231	1,000.49	65.1408	1,000.49	76.7822
1,035.64	89.6825	1,035.64	90.6798	1,035.64	89.4241	1,035.64	91.6288	1,035.64	89.3608	1,035.64	91.9207	1,035.64	88.5995	1,035.64	91.3886	1,035.64	87.3193	1,035.64	90.2498	1,035.64	86.5055	1,035.64	89.1519	1,035.64	86.4812	1,035.64	88.0526	1,035.64	86.0631	1,035.64	85.693	1,035.64	83.6998	1,035.64	80.4326	1,035.64	78.4926	1,035.64	77.4191	1,035.64	80.2808	1,035.64	82.1916	1,035.64	82.6507	1,035.64	85.4298	1,035.64	77.4745	1,035.64	85.7416	1,035.64	76.9408	1,035.64	82.608	1,035.64	83.2656	1,035.64	77.1879	1,035.64	82.8233	1,035.64	76.8401	1,035.64	79.5396	1,035.64	79.5561	1,035.64	72.533	1,035.64	75.7196
1,072.27	90.1407	1,072.27	90.6511	1,072.27	89.3047	1,072.27	91.1552	1,072.27	88.3748	1,072.27	91.6339	1,072.27	88.1318	1,072.27	91.3762	1,072.27	88.7431	1,072.27	90.0067	1,072.27	89.1401	1,072.27	88.6896	1,072.27	88.8599	1,072.27	88.5951	1,072.27	88.1821	1,072.27	87.6779	1,072.27	86.9684	1,072.27	83.5672	1,072.27	84.7624	1,072.27	75.2449	1,072.27	80.7031	1,072.27	68.2455	1,072.27	80.2923	1,072.27	78.9979	1,072.27	83.7073	1,072.27	83.2482	1,072.27	83.2902	1,072.27	83.3362	1,072.27	81.2954	1,072.27	81.7643	1,072.27	81.3553	1,072.27	81.4783	1,072.27	80.8868	1,072.27	80.9734	1,072.27	74.3394	1,072.27	74.3442
1,108.89	90.7547	1,108.89	91.0759	1,108.89	90.7623	1,108.89	91.3029	1,108.89	89.9223	1,108.89	90.6305	1,108.89	88.4	1,108.89	89.5695	1,108.89	87.9939	1,108.89	88.8074	1,108.89	88.5684	1,108.89	88.3558	1,108.89	88.672	1,108.89	88.79	1,108.89	88.4263	1,108.89	89.2934	1,108.89	87.872	1,108.89	88.0219	1,108.89	85.894	1,108.89	83.6079	1,108.89	81.2509	1,108.89	75.3469	1,108.89	78.4534	1,108.89	78.0149	1,108.89	75.9328	1,108.89	79.569	1,108.89	77.1259	1,108.89	79.2207	1,108.89	83.2459	1,108.89	77.9719	1,108.89	83.3462	1,108.89	77.0713	1,108.89	81.0037	1,108.89	76.4689	1,108.89	79.43	1,108.89	74.6711
1,148.44	92.9143	1,148.44	92.5804	1,148.44	92.2201	1,148.44	92.3051	1,148.44	90.9286	1,148.44	92.4037	1,148.44	90.2232	1,148.44	91.6164	1,148.44	89.9243	1,148.44	89.6073	1,148.44	89.8381	1,148.44	88.0395	1,148.44	89.8894	1,148.44	88.8022	1,148.44	89.4794	1,148.44	90.2045	1,148.44	88.7811	1,148.44	90.2554	1,148.44	87.9764	1,148.44	88.1901	1,148.44	84.6433	1,148.44	81.3844	1,148.44	77.5202	1,148.44	73.6219	1,148.44	81.3587	1,148.44	81.3812	1,148.44	83.228	1,148.44	78.6828	1,148.44	82.5886	1,148.44	72.0622	1,148.44	83.2015	1,148.44	76.926	1,148.44	85.0221	1,148.44	81.486	1,148.44	81.2223	1,148.44	78.9333
1,189.45	92.26	1,189.45	92.4204	1,189.45	92.0705	1,189.45	92.6228	1,189.45	91.2274	1,189.45	92.2716	1,189.45	90.0919	1,189.45	91.0984	1,189.45	89.9095	1,189.45	89.7038	1,189.45	89.8518	1,189.45	87.9054	1,189.45	89.2346	1,189.45	85.7185	1,189.45	89.1522	1,189.45	88.0453	1,189.45	90.0227	1,189.45	89.9944	1,189.45	90.1299	1,189.45	89.1574	1,189.45	87.8455	1,189.45	86.362	1,189.45	81.6626	1,189.45	82.0492	1,189.45	76.2952	1,189.45	80.928	1,189.45	61.1821	1,189.45	81.7531	1,189.45	81.191	1,189.45	78.266	1,189.45	85.2536	1,189.45	76.5805	1,189.45	82.802	1,189.45	78.5961	1,189.45	80.8376	1,189.45	79.7512
1,230.47	92.1233	1,230.47	92.1334	1,230.47	91.6342	1,230.47	91.9436	1,230.47	91.2826	1,230.47	91.9668	1,230.47	90.8938	1,230.47	91.6886	1,230.47	89.2226	1,230.47	90.4752	1,230.47	87.9852	1,230.47	88.8781	1,230.47	88.7262	1,230.47	87.7127	1,230.47	89.1227	1,230.47	85.7519	1,230.47	88.971	1,230.47	82.9715	1,230.47	89.1638	1,230.47	84.8865	1,230.47	88.1305	1,230.47	85.9575	1,230.47	85.3599	1,230.47	82.4658	1,230.47	79.2876	1,230.47	81.6786	1,230.47	73.9389	1,230.47	83.974	1,230.47	84.4132	1,230.47	81.9979	1,230.47	84.3362	1,230.47	67.3581	1,230.47	82.8974	1,230.47	76.2128	1,230.47	80.7218	1,230.47	77.7861
1,274.41	91.9388	1,274.41	92.4777	1,274.41	91.4838	1,274.41	92.6578	1,274.41	91.0122	1,274.41	92.4037	1,274.41	90.6628	1,274.41	91.8304	1,274.41	90.6444	1,274.41	90.8058	1,274.41	90.5434	1,274.41	88.9963	1,274.41	90.2407	1,274.41	86.1385	1,274.41	89.3428	1,274.41	85.478	1,274.41	87.234	1,274.41	85.5073	1,274.41	86.4441	1,274.41	83.0867	1,274.41	87.5034	1,274.41	80.5719	1,274.41	84.9058	1,274.41	80.409	1,274.41	81.3298	1,274.41	82.3672	1,274.41	83.5079	1,274.41	84.269	1,274.41	80.0783	1,274.41	81.414	1,274.41	82.5204	1,274.41	73.9992	1,274.41	84.6807	1,274.41	78.8271	1,274.41	81.4638	1,274.41	79.6283
1,319.82	91.5124	1,319.82	91.4244	1,319.82	91.691	1,319.82	91.7654	1,319.82	91.641	1,319.82	91.9663	1,319.82	91.1283	1,319.82	91.3347	1,319.82	90.1071	1,319.82	89.9914	1,319.82	89.6026	1,319.82	88.7302	1,319.82	89.6875	1,319.82	86.9241	1,319.82	89.3355	1,319.82	84.3993	1,319.82	89.1079	1,319.82	85.4842	1,319.82	88.6547	1,319.82	85.903	1,319.82	86.3394	1,319.82	83.2026	1,319.82	82.4881	1,319.82	79.8468	1,319.82	79.4741	1,319.82	79.6001	1,319.82	69.815	1,319.82	82.6307	1,319.82	82.1866	1,319.82	82.2886	1,319.82	86.5501	1,319.82	75.2472	1,319.82	84.1944	1,319.82	72.0816	1,319.82	80.3336	1,319.82	77.1259
1,366.7	91.1829	1,366.7	91.5667	1,366.7	91.0887	1,366.7	92.3696	1,366.7	91.1672	1,366.7	92.4109	1,366.7	90.9909	1,366.7	91.4051	1,366.7	89.513	1,366.7	90.5507	1,366.7	88.3574	1,366.7	90.3265	1,366.7	89.4329	1,366.7	89.2851	1,366.7	90.0209	1,366.7	84.3586	1,366.7	88.4519	1,366.7	72.4526	1,366.7	87.9737	1,366.7	84.1203	1,366.7	89.5448	1,366.7	84.6686	1,366.7	87.7904	1,366.7	79.7751	1,366.7	79.9699	1,366.7	75.9168	1,366.7	79.0634	1,366.7	80.8463	1,366.7	82.5552	1,366.7	78.198	1,366.7	81.3158	1,366.7	62.416	1,366.7	82.5279	1,366.7	75.6486	1,366.7	81.4999	1,366.7	79.8646
1,413.57	91.8349	1,413.57	92.3298	1,413.57	91.2934	1,413.57	92.6417	1,413.57	91.4229	1,413.57	92.6674	1,413.57	91.5573	1,413.57	91.9173	1,413.57	90.148	1,413.57	90.7105	1,413.57	88.2858	1,413.57	89.3809	1,413.57	87.9987	1,413.57	87.83	1,413.57	88.4745	1,413.57	86.76	1,413.57	88.5672	1,413.57	85.4769	1,413.57	87.0968	1,413.57	80.2391	1,413.57	84.0015	1,413.57	61.2379	1,413.57	83.7351	1,413.57	76.5068	1,413.57	83.7576	1,413.57	82.1956	1,413.57	81.784	1,413.57	85.9103	1,413.57	74.6717	1,413.57	83.1308	1,413.57	79.6934	1,413.57	73.6535	1,413.57	84.0197	1,413.57	74.8681	1,413.57	79.0769	1,413.57	79.0336
1,463.38	92.9908	1,463.38	93.5299	1,463.38	92.4763	1,463.38	92.9577	1,463.38	92.1137	1,463.38	92.1221	1,463.38	91.4414	1,463.38	91.4848	1,463.38	90.7207	1,463.38	90.3443	1,463.38	89.309	1,463.38	88.2747	1,463.38	87.4844	1,463.38	85.3005	1,463.38	87.6589	1,463.38	84.8046	1,463.38	87.0703	1,463.38	85.6932	1,463.38	82.4829	1,463.38	83.0447	1,463.38	80.981	1,463.38	76.9969	1,463.38	82.2411	1,463.38	71.0624	1,463.38	83.8427	1,463.38	73.6777	1,463.38	84.8233	1,463.38	83.7788	1,463.38	72.2245	1,463.38	85.2953	1,463.38	80.1003	1,463.38	78.7022	1,463.38	81.6649	1,463.38	73.4366	1,463.38	79.4153	1,463.38	76.672
1,516.11	93.6349	1,516.11	93.4929	1,516.11	93.2487	1,516.11	92.6444	1,516.11	92.677	1,516.11	91.8607	1,516.11	91.9586	1,516.11	90.9988	1,516.11	91.1392	1,516.11	89.5175	1,516.11	89.616	1,516.11	88.0526	1,516.11	88.5004	1,516.11	86.5793	1,516.11	88.5145	1,516.11	85.2596	1,516.11	88.7417	1,516.11	85.0301	1,516.11	89.018	1,516.11	84.6383	1,516.11	87.2316	1,516.11	84.7632	1,516.11	83.8803	1,516.11	82.8493	1,516.11	84.0267	1,516.11	72.031	1,516.11	77.9409	1,516.11	76.8248	1,516.11	82.1329	1,516.11	82.1134	1,516.11	78.6557	1,516.11	78.8688	1,516.11	80.612	1,516.11	63.3498	1,516.11	80.8626	1,516.11	73.2259
1,568.85	93.3606	1,568.85	93.291	1,568.85	92.8365	1,568.85	91.7874	1,568.85	92.4751	1,568.85	90.6654	1,568.85	91.7931	1,568.85	90.0789	1,568.85	91.2155	1,568.85	88.4796	1,568.85	90.7754	1,568.85	85.9298	1,568.85	89.0389	1,568.85	85.7086	1,568.85	88.4622	1,568.85	84.7893	1,568.85	88.0558	1,568.85	76.8891	1,568.85	86.9178	1,568.85	81.1812	1,568.85	85.8444	1,568.85	84.9991	1,568.85	84.841	1,568.85	81.8926	1,568.85	81.297	1,568.85	74.9963	1,568.85	80.7025	1,568.85	75.7662	1,568.85	78.2698	1,568.85	82.5769	1,568.85	75.3844	1,568.85	79.363	1,568.85	78.7887	1,568.85	73.5106	1,568.85	80.0201	1,568.85	77.09
1,624.51	92.0592	1,624.51	92.4434	1,624.51	92.3776	1,624.51	91.8759	1,624.51	92.147	1,624.51	90.8319	1,624.51	91.5545	1,624.51	89.6777	1,624.51	90.8867	1,624.51	86.169	1,624.51	89.9807	1,624.51	85.1127	1,624.51	88.2908	1,624.51	86.0527	1,624.51	86.3753	1,624.51	83.158	1,624.51	85.0501	1,624.51	82.9076	1,624.51	85.3748	1,624.51	81.1826	1,624.51	84.8219	1,624.51	74.8635	1,624.51	85.4175	1,624.51	82.9328	1,624.51	84.9496	1,624.51	83.1461	1,624.51	76.8581	1,624.51	74.8197	1,624.51	80.0446	1,624.51	80.5299	1,624.51	76.7082	1,624.51	75.7258	1,624.51	80.8815	1,624.51	62.7707	1,624.51	79.956	1,624.51	76.7118
1,681.64	92.2833	1,681.64	91.8193	1,681.64	92.5948	1,681.64	91.6067	1,681.64	91.2214	1,681.64	91.0306	1,681.64	90.9249	1,681.64	88.5437	1,681.64	90.8331	1,681.64	84.9699	1,681.64	89.3028	1,681.64	87.5528	1,681.64	88.5911	1,681.64	86.6552	1,681.64	85.6577	1,681.64	80.1531	1,681.64	84.3031	1,681.64	82.1894	1,681.64	86.282	1,681.64	83.4267	1,681.64	82.3629	1,681.64	82.4169	1,681.64	77.3602	1,681.64	76.901	1,681.64	83.1684	1,681.64	78.7094	1,681.64	84.4704	1,681.64	74.0251	1,681.64	77.8799	1,681.64	76.5611	1,681.64	76.7449	1,681.64	79.9113	1,681.64	80.0417	1,681.64	76.4677	1,681.64	75.3265	1,681.64	72.3932
1,741.7	92.0986	1,741.7	90.8249	1,741.7	92.3078	1,741.7	89.4612	1,741.7	92.116	1,741.7	90.1212	1,741.7	91.2973	1,741.7	88.9741	1,741.7	90.8531	1,741.7	87.5986	1,741.7	89.6792	1,741.7	85.4184	1,741.7	88.3113	1,741.7	85.7084	1,741.7	85.6275	1,741.7	83.1622	1,741.7	84.9355	1,741.7	73.762	1,741.7	86.698	1,741.7	72.8738	1,741.7	84.6199	1,741.7	83.0686	1,741.7	78.8923	1,741.7	81.6002	1,741.7	80.0296	1,741.7	70.236	1,741.7	81.1588	1,741.7	72.987	1,741.7	67.2163	1,741.7	77.8202	1,741.7	76.5004	1,741.7	75.7415	1,741.7	79.3581	1,741.7	76.0727	1,741.7	75.2348	1,741.7	72.1426
1,803.22	93.0983	1,803.22	92.0852	1,803.22	93.6387	1,803.22	90.3354	1,803.22	93.3745	1,803.22	87.8074	1,803.22	92.1356	1,803.22	87.6679	1,803.22	90.6443	1,803.22	87.3381	1,803.22	88.5564	1,803.22	85.8902	1,803.22	86.0113	1,803.22	85.6094	1,803.22	84.0951	1,803.22	80.797	1,803.22	85.2091	1,803.22	79.8152	1,803.22	84.9959	1,803.22	74.4134	1,803.22	82.0505	1,803.22	76.4212	1,803.22	80.8749	1,803.22	76.7338	1,803.22	80.1277	1,803.22	76.8655	1,803.22	76.5079	1,803.22	69.6986	1,803.22	81.7175	1,803.22	74.751	1,803.22	80.0547	1,803.22	76.3171	1,803.22	79.713	1,803.22	71.2105	1,803.22	79.2851	1,803.22	75.1785
1,866.21	92.3726	1,866.21	91.2376	1,866.21	93.4154	1,866.21	89.4582	1,866.21	93.9021	1,866.21	87.4902	1,866.21	93.0836	1,866.21	88.0319	1,866.21	90.756	1,866.21	86.6528	1,866.21	88.2915	1,866.21	83.9064	1,866.21	86.2753	1,866.21	83.642	1,866.21	83.3205	1,866.21	78.6335	1,866.21	80.6974	1,866.21	79.9746	1,866.21	82.0821	1,866.21	77.7828	1,866.21	82.101	1,866.21	72.9446	1,866.21	82.0139	1,866.21	75.6144	1,866.21	81.3919	1,866.21	72.956	1,866.21	74.5204	1,866.21	70.7293	1,866.21	78.2986	1,866.21	73.8089	1,866.21	78.0798	1,866.21	75.6022	1,866.21	79.8097	1,866.21	68.6349	1,866.21	78.0228	1,866.21	70.4407
1,932.13	91.3475	1,932.13	89.0684	1,932.13	92.7735	1,932.13	87.8313	1,932.13	92.9542	1,932.13	88.2119	1,932.13	92.2711	1,932.13	87.2568	1,932.13	90.7626	1,932.13	84.4098	1,932.13	88.7442	1,932.13	83.3174	1,932.13	86.2089	1,932.13	82.1828	1,932.13	83.8329	1,932.13	80.6316	1,932.13	78.622	1,932.13	80.5088	1,932.13	80.4537	1,932.13	78.4635	1,932.13	83.1841	1,932.13	75.5079	1,932.13	82.0465	1,932.13	75.8959	1,932.13	78.8483	1,932.13	77.4045	1,932.13	70.2523	1,932.13	73.6956	1,932.13	74.1099	1,932.13	70.0827	1,932.13	77.2831	1,932.13	75.1984	1,932.13	79.4876	1,932.13	70.5592	1,932.13	79.0916	1,932.13	73.0761
1,999.51	91.6525	1,999.51	88.6248	1,999.51	93.159	1,999.51	87.2268	1,999.51	92.8029	1,999.51	87.4175	1,999.51	91.5755	1,999.51	85.5351	1,999.51	91.0044	1,999.51	82.6152	1,999.51	88.3738	1,999.51	81.1443	1,999.51	84.1744	1,999.51	79.5054	1,999.51	81.2056	1,999.51	78.009	1,999.51	79.2133	1,999.51	74.7222	1,999.51	78.74	1,999.51	75.9758	1,999.51	78.5297	1,999.51	72.9029	1,999.51	80.1625	1,999.51	73.3444	1,999.51	78.8072	1,999.51	74.8432	1,999.51	72.6977	1,999.51	71.5327	1,999.51	67.9846	1,999.51	70.5212	1,999.51	76.224	1,999.51	72.6664	1,999.51	78.2002	1,999.51	64.4252	1,999.51	78.8288	1,999.51	72.9209
2,069.82	92.5352	2,069.82	90.2553	2,069.82	93.7817	2,069.82	87.3481	2,069.82	93.574	2,069.82	84.8919	2,069.82	91.6608	2,069.82	82.9623	2,069.82	90.0085	2,069.82	82.4139	2,069.82	87.0883	2,069.82	82.9703	2,069.82	83.9635	2,069.82	81.6548	2,069.82	79.0152	2,069.82	82.3503	2,069.82	78.7967	2,069.82	78.3148	2,069.82	80.032	2,069.82	76.9621	2,069.82	80.2802	2,069.82	75.5575	2,069.82	77.4505	2,069.82	72.5956	2,069.82	76.9926	2,069.82	78.004	2,069.82	74.2372	2,069.82	75.1617	2,069.82	63.3765	2,069.82	63.6327	2,069.82	73.7555	2,069.82	71.5885	2,069.82	76.9566	2,069.82	61.9605	2,069.82	77.82	2,069.82	70.0591
2,143.07	92.0107	2,143.07	90.5498	2,143.07	93.7894	2,143.07	87.1354	2,143.07	94.1212	2,143.07	82.4541	2,143.07	92.0739	2,143.07	82.8413	2,143.07	88.3959	2,143.07	84.0919	2,143.07	85.0785	2,143.07	84.0131	2,143.07	82.6751	2,143.07	82.7287	2,143.07	75.1901	2,143.07	80.4638	2,143.07	73.7603	2,143.07	79.7195	2,143.07	78.0414	2,143.07	75.6037	2,143.07	79.4974	2,143.07	77.647	2,143.07	78.4881	2,143.07	72.9299	2,143.07	76.4212	2,143.07	78.6606	2,143.07	76.2686	2,143.07	75.8977	2,143.07	65.9552	2,143.07	68.0304	2,143.07	68.8999	2,143.07	69.5838	2,143.07	74.6722	2,143.07	66.0532	2,143.07	76.2195	2,143.07	70.8903
2,219.24	91.7225	2,219.24	89.2156	2,219.24	92.7135	2,219.24	86.6377	2,219.24	92.9265	2,219.24	82.9327	2,219.24	91.7467	2,219.24	82.2317	2,219.24	87.8992	2,219.24	83.4042	2,219.24	83.0032	2,219.24	83.1563	2,219.24	79.4356	2,219.24	83.0422	2,219.24	71.4589	2,219.24	82.8062	2,219.24	52.7012	2,219.24	80.1284	2,219.24	72.4341	2,219.24	77.7676	2,219.24	76.1277	2,219.24	77.2589	2,219.24	76.0024	2,219.24	72.1827	2,219.24	74.5286	2,219.24	77.3969	2,219.24	76.5537	2,219.24	77.4517	2,219.24	68.7632	2,219.24	69.3287	2,219.24	67.389	2,219.24	68.9398	2,219.24	72.0276	2,219.24	64.72	2,219.24	75.7278	2,219.24	72.2406
2,296.88	92.745	2,296.88	90.342	2,296.88	93.3628	2,296.88	85.4405	2,296.88	92.3078	2,296.88	79.9721	2,296.88	89.649	2,296.88	80.8463	2,296.88	86.1334	2,296.88	83.9482	2,296.88	82.0015	2,296.88	83.3819	2,296.88	76.2136	2,296.88	83.7823	2,296.88	69.7253	2,296.88	82.4116	2,296.88	64.3347	2,296.88	81.3124	2,296.88	52.0622	2,296.88	78.7783	2,296.88	68.9782	2,296.88	76.794	2,296.88	71.6195	2,296.88	74.1913	2,296.88	75.6181	2,296.88	77.0552	2,296.88	76.7403	2,296.88	78.3519	2,296.88	70.9157	2,296.88	68.5096	2,296.88	61.9628	2,296.88	72.3739	2,296.88	66.348	2,296.88	67.1448	2,296.88	73.0162	2,296.88	63.6442
2,378.91	92.9768	2,378.91	91.0444	2,378.91	93.6409	2,378.91	84.9799	2,378.91	92.944	2,378.91	75.2628	2,378.91	89.7592	2,378.91	81.1274	2,378.91	84.5699	2,378.91	83.9171	2,378.91	78.7855	2,378.91	84.1454	2,378.91	74.6947	2,378.91	82.859	2,378.91	67.8583	2,378.91	81.586	2,378.91	70.9322	2,378.91	81.9691	2,378.91	56.2647	2,378.91	79.108	2,378.91	72.2932	2,378.91	78.3981	2,378.91	72.4094	2,378.91	76.988	2,378.91	73.2034	2,378.91	74.394	2,378.91	73.4133	2,378.91	77.9593	2,378.91	73.6759	2,378.91	71.221	2,378.91	60.9213	2,378.91	71.2081	2,378.91	52.5989	2,378.91	68.9525	2,378.91	70.3159	2,378.91	65.5991
2,462.4	92.5	2,462.4	90.1036	2,462.4	93.0879	2,462.4	85.0584	2,462.4	92.5171	2,462.4	46.6383	2,462.4	90.0128	2,462.4	82.1992	2,462.4	84.0404	2,462.4	84.0439	2,462.4	74.816	2,462.4	84.7826	2,462.4	72.6292	2,462.4	83.8703	2,462.4	68.5706	2,462.4	83.3258	2,462.4	75.2547	2,462.4	80.9172	2,462.4	68.9649	2,462.4	79.8884	2,462.4	68.9662	2,462.4	79.0493	2,462.4	73.5768	2,462.4	78.3341	2,462.4	70.6237	2,462.4	74.1521	2,462.4	73.7732	2,462.4	77.8926	2,462.4	72.6285	2,462.4	72.4576	2,462.4	66.4847	2,462.4	71.2726	2,462.4	53.0688	2,462.4	69.2362	2,462.4	71.6566	2,462.4	70.9234
2,548.83	92.9361	2,548.83	90.0507	2,548.83	93.3807	2,548.83	84.2934	2,548.83	92.0006	2,548.83	72.2965	2,548.83	88.8461	2,548.83	82.6997	2,548.83	83.075	2,548.83	85.0729	2,548.83	73.8333	2,548.83	86.2956	2,548.83	77.909	2,548.83	84.66	2,548.83	74.4817	2,548.83	83.9685	2,548.83	77.8084	2,548.83	80.9161	2,548.83	73.7437	2,548.83	81.3117	2,548.83	67.9114	2,548.83	78.0194	2,548.83	74.3794	2,548.83	78.9805	2,548.83	70.2744	2,548.83	75.0209	2,548.83	73.0884	2,548.83	78.1379	2,548.83	72.859	2,548.83	76.0663	2,548.83	66.2635	2,548.83	69.9337	2,548.83	65.4451	2,548.83	72.389	2,548.83	67.6816	2,548.83	72.0123
2,639.65	92.3485	2,639.65	90.0738	2,639.65	93.19	2,639.65	83.3876	2,639.65	91.9836	2,639.65	79.2537	2,639.65	87.4577	2,639.65	83.7238	2,639.65	81.4526	2,639.65	87.22	2,639.65	77.1169	2,639.65	86.9591	2,639.65	80.8238	2,639.65	86.3855	2,639.65	79.3875	2,639.65	85.4808	2,639.65	79.8995	2,639.65	82.5571	2,639.65	77.0349	2,639.65	82.1453	2,639.65	66.0822	2,639.65	77.3569	2,639.65	71.8344	2,639.65	79.429	2,639.65	68.8517	2,639.65	75.667	2,639.65	71.4285	2,639.65	77.7847	2,639.65	74.5086	2,639.65	76.4845	2,639.65	65.4053	2,639.65	69.0415	2,639.65	65.9686	2,639.65	73.3436	2,639.65	69.2271	2,639.65	72.0921
2,731.93	91.3002	2,731.93	88.2324	2,731.93	92.5236	2,731.93	81.9169	2,731.93	91.699	2,731.93	83.2159	2,731.93	88.5732	2,731.93	86.3007	2,731.93	79.777	2,731.93	87.6955	2,731.93	79.2034	2,731.93	87.7864	2,731.93	81.417	2,731.93	86.684	2,731.93	78.7654	2,731.93	83.8726	2,731.93	79.978	2,731.93	83.4958	2,731.93	75.493	2,731.93	79.5848	2,731.93	66.9843	2,731.93	78.1574	2,731.93	70.4016	2,731.93	78.402	2,731.93	67.6905	2,731.93	76.1606	2,731.93	73.5892	2,731.93	76.6221	2,731.93	74.6016	2,731.93	77.0219	2,731.93	67.4716	2,731.93	69.5693	2,731.93	66.2264	2,731.93	73.8564	2,731.93	67.6867	2,731.93	71.109
2,828.61	91.476	2,828.61	88.0778	2,828.61	92.7701	2,828.61	85.6299	2,828.61	92.3512	2,828.61	86.0796	2,828.61	89.5243	2,828.61	88.0936	2,828.61	80.9373	2,828.61	88.2835	2,828.61	79.2014	2,828.61	87.8094	2,828.61	81.7989	2,828.61	85.7085	2,828.61	82.2435	2,828.61	83.9797	2,828.61	82.2795	2,828.61	80.7481	2,828.61	71.497	2,828.61	78.7733	2,828.61	65.2762	2,828.61	77.6863	2,828.61	60.1361	2,828.61	77.8482	2,828.61	74.8843	2,828.61	75.6977	2,828.61	71.2265	2,828.61	76.0879	2,828.61	73.4986	2,828.61	78.5152	2,828.61	67.5818	2,828.61	70.3424	2,828.61	68.3566	2,828.61	74.5793	2,828.61	68.0972	2,828.61	68.8252
2,928.22	90.8997	2,928.22	88.8099	2,928.22	92.5284	2,928.22	87.7526	2,928.22	92.66	2,928.22	88.025	2,928.22	90.1857	2,928.22	88.9194	2,928.22	83.4595	2,928.22	88.0444	2,928.22	81.997	2,928.22	87.7769	2,928.22	82.8888	2,928.22	84.1382	2,928.22	82.7889	2,928.22	83.2159	2,928.22	80.7416	2,928.22	81.4384	2,928.22	76.278	2,928.22	78.8808	2,928.22	73.4498	2,928.22	76.6072	2,928.22	73.5381	2,928.22	75.2841	2,928.22	72.9612	2,928.22	75.5949	2,928.22	66.2372	2,928.22	72.5418	2,928.22	72.1388	2,928.22	77.5572	2,928.22	68.0764	2,928.22	67.235	2,928.22	68.6128	2,928.22	75.5767	2,928.22	66.9013	2,928.22	70.2002
3,030.76	91.8416	3,030.76	90.494	3,030.76	92.5389	3,030.76	89.2285	3,030.76	92.3697	3,030.76	88.6092	3,030.76	90.0712	3,030.76	88.7782	3,030.76	85.2826	3,030.76	88.5551	3,030.76	84.9522	3,030.76	86.6783	3,030.76	85.5557	3,030.76	85.7239	3,030.76	85.0478	3,030.76	84.0373	3,030.76	80.1255	3,030.76	82.0856	3,030.76	81.8582	3,030.76	77.7465	3,030.76	76.8869	3,030.76	75.7854	3,030.76	75.3619	3,030.76	73.4312	3,030.76	62.4173	3,030.76	76.8628	3,030.76	59.3101	3,030.76	70.2349	3,030.76	70.0594	3,030.76	77.3556	3,030.76	64.3867	3,030.76	71.0771	3,030.76	67.4828	3,030.76	74.7858	3,030.76	66.9932	3,030.76	71.827
3,137.7	92.1759	3,137.7	91.2488	3,137.7	93.1662	3,137.7	89.7665	3,137.7	92.6794	3,137.7	89.0853	3,137.7	90.2033	3,137.7	89.252	3,137.7	87.3896	3,137.7	89.0747	3,137.7	86.6058	3,137.7	87.7242	3,137.7	87.0698	3,137.7	86.9445	3,137.7	86.4521	3,137.7	82.6965	3,137.7	83.9597	3,137.7	79.8385	3,137.7	83.9672	3,137.7	79.6861	3,137.7	77.6428	3,137.7	79.0889	3,137.7	72.1042	3,137.7	74.2532	3,137.7	65.7604	3,137.7	76.2024	3,137.7	65.03	3,137.7	75.1719	3,137.7	66.3056	3,137.7	75.8583	3,137.7	64.2152	3,137.7	73.0829	3,137.7	69.7647	3,137.7	76.3901	3,137.7	69.3695	3,137.7	72.3177
3,249.02	91.7438	3,249.02	90.922	3,249.02	92.7928	3,249.02	88.0996	3,249.02	92.8303	3,249.02	89.9645	3,249.02	90.8897	3,249.02	90.0553	3,249.02	89.067	3,249.02	89.1248	3,249.02	87.4804	3,249.02	87.6763	3,249.02	87.9475	3,249.02	85.3779	3,249.02	87.6692	3,249.02	83.288	3,249.02	85.6245	3,249.02	83.2455	3,249.02	85.0319	3,249.02	80.3994	3,249.02	76.6991	3,249.02	78.956	3,249.02	63.4038	3,249.02	75.0033	3,249.02	74.646	3,249.02	75.5268	3,249.02	63.3476	3,249.02	75.908	3,249.02	68.0924	3,249.02	75.2919	3,249.02	69.6049	3,249.02	74.1894	3,249.02	68.0668	3,249.02	75.5571	3,249.02	69.6461	3,249.02	71.1086
3,363.28	91.9808	3,363.28	89.5552	3,363.28	91.9701	3,363.28	89.571	3,363.28	92.6789	3,363.28	90.4647	3,363.28	91.4241	3,363.28	90.4331	3,363.28	88.9926	3,363.28	88.4968	3,363.28	88.0765	3,363.28	88.08	3,363.28	89.2548	3,363.28	84.4336	3,363.28	88.8556	3,363.28	85.0821	3,363.28	86.3158	3,363.28	80.6193	3,363.28	84.812	3,363.28	77.3132	3,363.28	71.981	3,363.28	76.2688	3,363.28	71.33	3,363.28	74.2494	3,363.28	73.676	3,363.28	69.1083	3,363.28	66.0322	3,363.28	75.5328	3,363.28	65.7969	3,363.28	72.0276	3,363.28	68.1465	3,363.28	74.0394	3,363.28	65.2545	3,363.28	73.7423	3,363.28	70.0544	3,363.28	72.514
3,481.93	91.8084	3,481.93	90.1173	3,481.93	92.3282	3,481.93	90.0298	3,481.93	92.0678	3,481.93	90.4568	3,481.93	90.9638	3,481.93	89.7364	3,481.93	88.1623	3,481.93	88.6318	3,481.93	88.5343	3,481.93	86.3579	3,481.93	91.1694	3,481.93	86.141	3,481.93	87.296	3,481.93	81.3984	3,481.93	87.3879	3,481.93	80.2842	3,481.93	80.09	3,481.93	79.4994	3,481.93	59.4112	3,481.93	76.5635	3,481.93	74.6034	3,481.93	75.2943	3,481.93	76.5589	3,481.93	69.8164	3,481.93	58.0495	3,481.93	76.0487	3,481.93	67.0688	3,481.93	68.6142	3,481.93	69.9557	3,481.93	74.8586	3,481.93	67.3905	3,481.93	74.1596	3,481.93	65.3971	3,481.93	74.3218
3,604.98	91.3938	3,604.98	89.8791	3,604.98	91.7555	3,604.98	90.4644	3,604.98	91.7367	3,604.98	90.647	3,604.98	90.6929	3,604.98	89.7786	3,604.98	88.6239	3,604.98	88.3714	3,604.98	88.8115	3,604.98	86.2802	3,604.98	91.2041	3,604.98	83.9912	3,604.98	87.4609	3,604.98	82.3226	3,604.98	84.5385	3,604.98	81.9691	3,604.98	74.1204	3,604.98	76.4491	3,604.98	75.6047	3,604.98	75.8216	3,604.98	75.1372	3,604.98	75.5324	3,604.98	75.7799	3,604.98	69.6451	3,604.98	66.0687	3,604.98	73.1449	3,604.98	63.9557	3,604.98	69.6866	3,604.98	70.2482	3,604.98	75.8265	3,604.98	69.9773	3,604.98	72.9894	3,604.98	69.9112	3,604.98	71.3199
3,732.42	91.8939	3,732.42	90.0722	3,732.42	92.2125	3,732.42	90.6248	3,732.42	91.2806	3,732.42	90.6686	3,732.42	89.7601	3,732.42	89.3472	3,732.42	88.2977	3,732.42	87.0844	3,732.42	89.4217	3,732.42	85.2796	3,732.42	90.2674	3,732.42	83.2479	3,732.42	86.6662	3,732.42	83.5368	3,732.42	83.3339	3,732.42	78.6412	3,732.42	81.2525	3,732.42	79.7192	3,732.42	76.514	3,732.42	74.2193	3,732.42	72.3425	3,732.42	74.2522	3,732.42	69.8427	3,732.42	73.3675	3,732.42	72.4588	3,732.42	71.6818	3,732.42	68.5754	3,732.42	69.4508	3,732.42	68.9645	3,732.42	70.4449	3,732.42	65.8404	3,732.42	69.2266	3,732.42	69.7456	3,732.42	69.982
3,864.26	91.3583	3,864.26	90.6736	3,864.26	92.7698	3,864.26	90.9208	3,864.26	91.2842	3,864.26	89.9608	3,864.26	88.8772	3,864.26	89.2984	3,864.26	85.8797	3,864.26	87.3162	3,864.26	89.9665	3,864.26	85.1271	3,864.26	89.3048	3,864.26	85.336	3,864.26	86.6446	3,864.26	80.6199	3,864.26	81.1971	3,864.26	80.9933	3,864.26	81.2775	3,864.26	78.4007	3,864.26	72.3275	3,864.26	77.9315	3,864.26	67.7892	3,864.26	73.7743	3,864.26	68.7873	3,864.26	76.0239	3,864.26	70.2029	3,864.26	70.7451	3,864.26	65.5788	3,864.26	71.2275	3,864.26	64.6459	3,864.26	72.3135	3,864.26	67.4023	3,864.26	71.1245	3,864.26	68.095	3,864.26	71.1085
4,000.49	91.273	4,000.49	90.3653	4,000.49	92.1726	4,000.49	90.5549	4,000.49	91.6884	4,000.49	91.035	4,000.49	88.8114	4,000.49	88.4563	4,000.49	86.403	4,000.49	87.1965	4,000.49	88.7417	4,000.49	86.5342	4,000.49	87.1619	4,000.49	84.6714	4,000.49	83.5323	4,000.49	83.4236	4,000.49	79.1624	4,000.49	82.0667	4,000.49	79.2598	4,000.49	79.8446	4,000.49	79.1384	4,000.49	78.1827	4,000.49	70.6563	4,000.49	73.4704	4,000.49	73.1845	4,000.49	75.4504	4,000.49	66.6038	4,000.49	67.8781	4,000.49	65.0776	4,000.49	72.2774	4,000.49	65.4843	4,000.49	72.0593	4,000.49	68.7979	4,000.49	69.761	4,000.49	66.6302	4,000.49	70.0356
4,141.11	91.1996	4,141.11	91.6841	4,141.11	92.2416	4,141.11	90.4753	4,141.11	91.9959	4,141.11	89.9241	4,141.11	88.4886	4,141.11	88.2182	4,141.11	86.473	4,141.11	87.2085	4,141.11	88.7108	4,141.11	85.7785	4,141.11	84.8457	4,141.11	84.8007	4,141.11	81.649	4,141.11	83.3252	4,141.11	81.4251	4,141.11	79.2527	4,141.11	82.1492	4,141.11	77.4893	4,141.11	78.7506	4,141.11	76.3346	4,141.11	70.2761	4,141.11	72.3306	4,141.11	68.3418	4,141.11	75.1153	4,141.11	58.996	4,141.11	69.4444	4,141.11	65.9681	4,141.11	70.7688	4,141.11	68.3583	4,141.11	71.3626	4,141.11	67.6297	4,141.11	68.7767	4,141.11	66.9309	4,141.11	72.5977
4,287.6	91.9818	4,287.6	91.2395	4,287.6	92.6961	4,287.6	89.759	4,287.6	92.3385	4,287.6	89.7897	4,287.6	89.9287	4,287.6	87.5736	4,287.6	85.6813	4,287.6	87.3267	4,287.6	86.5804	4,287.6	86.6589	4,287.6	82.2954	4,287.6	84.9085	4,287.6	82.0699	4,287.6	81.0326	4,287.6	81.8036	4,287.6	81.0162	4,287.6	81.6012	4,287.6	77.6489	4,287.6	74.3406	4,287.6	77.1434	4,287.6	65.3261	4,287.6	73.9711	4,287.6	64.7172	4,287.6	72.6694	4,287.6	69.3235	4,287.6	70.3381	4,287.6	68.3483	4,287.6	70.9652	4,287.6	61.3853	4,287.6	71.7924	4,287.6	68.145	4,287.6	68.8511	4,287.6	65.8216	4,287.6	70.2178
4,438.48	92.8719	4,438.48	90.9614	4,438.48	92.4935	4,438.48	90.9488	4,438.48	92.4873	4,438.48	90.2211	4,438.48	89.6123	4,438.48	88.1323	4,438.48	86.4316	4,438.48	86.8445	4,438.48	84.1786	4,438.48	85.1213	4,438.48	81.5852	4,438.48	81.8776	4,438.48	84.839	4,438.48	81.4245	4,438.48	83.3398	4,438.48	77.1964	4,438.48	78.5847	4,438.48	75.194	4,438.48	65.3882	4,438.48	74.2559	4,438.48	70.7857	4,438.48	70.8268	4,438.48	67.7957	4,438.48	74.1123	4,438.48	70.7977	4,438.48	69.2579	4,438.48	69.3061	4,438.48	70.5364	4,438.48	63.8013	4,438.48	69.9608	4,438.48	65.3236	4,438.48	66.6803	4,438.48	58.8979	4,438.48	67.6426
4,595.21	93.6495	4,595.21	92.5362	4,595.21	93.2299	4,595.21	91.3773	4,595.21	92.0198	4,595.21	88.5297	4,595.21	89.4356	4,595.21	86.3309	4,595.21	85.4503	4,595.21	85.6755	4,595.21	81.9013	4,595.21	84.1599	4,595.21	85.7035	4,595.21	83.1743	4,595.21	86.2332	4,595.21	77.1328	4,595.21	83.2484	4,595.21	78.8935	4,595.21	73.1037	4,595.21	76.1041	4,595.21	73.411	4,595.21	70.2936	4,595.21	70.5318	4,595.21	72.222	4,595.21	67.435	4,595.21	68.4082	4,595.21	70.5605	4,595.21	66.3221	4,595.21	63.1322	4,595.21	70.8786	4,595.21	59.4821	4,595.21	67.6822	4,595.21	62.6783	4,595.21	67.2416	4,595.21	63.9639	4,595.21	67.9979
4,756.35	92.9426	4,756.35	92.2219	4,756.35	92.533	4,756.35	90.5531	4,756.35	92.3472	4,756.35	87.2046	4,756.35	89.5567	4,756.35	86.8854	4,756.35	85.4624	4,756.35	84.9307	4,756.35	81.3784	4,756.35	82.4595	4,756.35	87.7688	4,756.35	77.8917	4,756.35	86.9015	4,756.35	78.9533	4,756.35	81.4758	4,756.35	72.9248	4,756.35	75.6882	4,756.35	74.6642	4,756.35	75.437	4,756.35	66.7035	4,756.35	63.8922	4,756.35	68.8007	4,756.35	67.8947	4,756.35	66.4119	4,756.35	69.5667	4,756.35	65.2848	4,756.35	60.3064	4,756.35	67.0532	4,756.35	57.7571	4,756.35	68.5168	4,756.35	56.1206	4,756.35	69.0355	4,756.35	64.8273	4,756.35	68.9834
4,924.8	92.4954	4,924.8	91.7207	4,924.8	92.3736	4,924.8	90.4275	4,924.8	91.4791	4,924.8	89.3794	4,924.8	90.072	4,924.8	85.9947	4,924.8	85.1168	4,924.8	84.7455	4,924.8	83.7484	4,924.8	81.1844	4,924.8	88.7083	4,924.8	81.0086	4,924.8	84.7238	4,924.8	72.9963	4,924.8	79.642	4,924.8	75.0035	4,924.8	79.0672	4,924.8	71.9323	4,924.8	74.9897	4,924.8	72.2402	4,924.8	65.9529	4,924.8	67.9797	4,924.8	66.0107	4,924.8	64.3284	4,924.8	68.3046	4,924.8	64.9058	4,924.8	65.3847	4,924.8	58.5374	4,924.8	63.7553	4,924.8	60.0679	4,924.8	64.8522	4,924.8	66.3555	4,924.8	66.9847	4,924.8	61.7842
5,097.66	92.384	5,097.66	91.6239	5,097.66	90.9642	5,097.66	90.2243	5,097.66	90.5862	5,097.66	88.0928	5,097.66	90.6535	5,097.66	86.2895	5,097.66	83.9897	5,097.66	84.5263	5,097.66	86.9959	5,097.66	81.7825	5,097.66	87.4432	5,097.66	78.0563	5,097.66	82.4678	5,097.66	77.8566	5,097.66	80.272	5,097.66	72.9858	5,097.66	77.4177	5,097.66	71.5707	5,097.66	77.5475	5,097.66	69.2596	5,097.66	57.3672	5,097.66	66.075	5,097.66	68.3862	5,097.66	65.6834	5,097.66	64.5334	5,097.66	61.8219	5,097.66	61.2537	5,097.66	62.6995	5,097.66	52.0285	5,097.66	66.5899	5,097.66	65.381	5,097.66	59.7493	5,097.66	63.7851	5,097.66	54.0008
5,277.83	90.5882	5,277.83	90.9907	5,277.83	90.4967	5,277.83	89.9543	5,277.83	90.0303	5,277.83	90.1927	5,277.83	89.8077	5,277.83	86.5324	5,277.83	84.7533	5,277.83	84.2257	5,277.83	86.8824	5,277.83	80.8307	5,277.83	84.7348	5,277.83	79.3638	5,277.83	82.6425	5,277.83	72.7705	5,277.83	79.9377	5,277.83	72.909	5,277.83	78.1423	5,277.83	69.363	5,277.83	74.7522	5,277.83	69.7297	5,277.83	65.2416	5,277.83	68.6409	5,277.83	67.1795	5,277.83	63.8672	5,277.83	65.8662	5,277.83	63.6212	5,277.83	59.1544	5,277.83	61.2554	5,277.83	57.9213	5,277.83	63.6213	5,277.83	64.5091	5,277.83	59.7325	5,277.83	62.8632	5,277.83	61.8675
5,463.87	90.9352	5,463.87	90.6441	5,463.87	90.6143	5,463.87	89.5789	5,463.87	89.5048	5,463.87	89.3286	5,463.87	88.5369	5,463.87	85.7186	5,463.87	86.6534	5,463.87	83.316	5,463.87	86.6482	5,463.87	81.4043	5,463.87	81.7985	5,463.87	77.6662	5,463.87	81.8592	5,463.87	76.4628	5,463.87	77.9843	5,463.87	73.23	5,463.87	75.9095	5,463.87	71.2963	5,463.87	73.3142	5,463.87	67.6437	5,463.87	66.0548	5,463.87	66.4636	5,463.87	59.1481	5,463.87	64.1928	5,463.87	62.1991	5,463.87	61.6736	5,463.87	63.2987	5,463.87	64.5463	5,463.87	57.4016	5,463.87	52.1472	5,463.87	63.1394	5,463.87	53.5739	5,463.87	57.0574	5,463.87	57.9342
5,657.23	90.9157	5,657.23	90.3189	5,657.23	90.9458	5,657.23	90.2227	5,657.23	89.4844	5,657.23	89.2932	5,657.23	88.8709	5,657.23	85.9539	5,657.23	87.8566	5,657.23	82.2056	5,657.23	85.5624	5,657.23	80.3636	5,657.23	81.2331	5,657.23	77.8031	5,657.23	81.3247	5,657.23	74.0502	5,657.23	79.0546	5,657.23	71.8923	5,657.23	73.2347	5,657.23	71.3447	5,657.23	70.9613	5,657.23	68.1652	5,657.23	66.4236	5,657.23	68.5191	5,657.23	51.5199	5,657.23	64.6621	5,657.23	65.0276	5,657.23	65.8013	5,657.23	56.6725	5,657.23	60.815	5,657.23	48.1135	5,657.23	56.3968	5,657.23	64.5361	5,657.23	48.7139	5,657.23	58.2449	5,657.23	59.4617
5,856.45	91.317	5,856.45	91.0178	5,856.45	91.1047	5,856.45	90.3321	5,856.45	89.8909	5,856.45	89.0038	5,856.45	90.0346	5,856.45	85.3385	5,856.45	87.9986	5,856.45	82.6352	5,856.45	82.3414	5,856.45	80.4216	5,856.45	82.8704	5,856.45	78.6229	5,856.45	81.1978	5,856.45	76.0257	5,856.45	80.2529	5,856.45	71.7704	5,856.45	72.3318	5,856.45	71.1937	5,856.45	69.74	5,856.45	66.6597	5,856.45	68.0176	5,856.45	67.2165	5,856.45	57.5841	5,856.45	65.7923	5,856.45	67.1357	5,856.45	66.9777	5,856.45	65.4069	5,856.45	55.5218	5,856.45	44.1992	5,856.45	58.3035	5,856.45	63.992	5,856.45	52.0584	5,856.45	55.7469	5,856.45	61.0768
6,062.99	91.4198	6,062.99	91.1876	6,062.99	91.4562	6,062.99	90.7626	6,062.99	91.7163	6,062.99	88.7942	6,062.99	90.5765	6,062.99	85.1493	6,062.99	86.7522	6,062.99	82.2185	6,062.99	79.2467	6,062.99	81.9857	6,062.99	83.1359	6,062.99	78.1762	6,062.99	82.5238	6,062.99	75.9888	6,062.99	80.1159	6,062.99	73.5581	6,062.99	76.6731	6,062.99	70.1977	6,062.99	71.2347	6,062.99	70.2316	6,062.99	69.4972	6,062.99	62.5462	6,062.99	60.965	6,062.99	65.7582	6,062.99	65.2412	6,062.99	66.9555	6,062.99	67.0343	6,062.99	57.233	6,062.99	54.0904	6,062.99	55.8039	6,062.99	63.0701	6,062.99	47.4821	6,062.99	60.4676	6,062.99	57.0206
6,276.86	92.2319	6,276.86	91.5567	6,276.86	92.101	6,276.86	90.8943	6,276.86	91.2116	6,276.86	88.2195	6,276.86	90.178	6,276.86	84.6198	6,276.86	82.9584	6,276.86	83.4186	6,276.86	80.2502	6,276.86	79.9675	6,276.86	82.4461	6,276.86	77.4336	6,276.86	82.8489	6,276.86	73.5972	6,276.86	79.7663	6,276.86	72.8209	6,276.86	75.2383	6,276.86	70.0282	6,276.86	71.4052	6,276.86	67.6267	6,276.86	69.2962	6,276.86	67.0854	6,276.86	61.087	6,276.86	64.3465	6,276.86	65.1218	6,276.86	65.7138	6,276.86	65.2934	6,276.86	61.1051	6,276.86	58.1242	6,276.86	50.7661	6,276.86	64.0791	6,276.86	59.5922	6,276.86	57.5174	6,276.86	59.6457
6,498.05	92.1072	6,498.05	91.5192	6,498.05	91.6671	6,498.05	90.4876	6,498.05	89.6672	6,498.05	88.0597	6,498.05	89.5471	6,498.05	84.1248	6,498.05	82.1787	6,498.05	83.1137	6,498.05	82.1387	6,498.05	80.0992	6,498.05	80.9053	6,498.05	77.6382	6,498.05	82.735	6,498.05	75.14	6,498.05	76.4117	6,498.05	72.4618	6,498.05	71.9149	6,498.05	71.5704	6,498.05	69.7104	6,498.05	65.9212	6,498.05	68.4333	6,498.05	64.2431	6,498.05	54.4481	6,498.05	63.5611	6,498.05	62.2078	6,498.05	64.8539	6,498.05	60.5474	6,498.05	63.2933	6,498.05	48.4822	6,498.05	58.1808	6,498.05	61.6579	6,498.05	60.2799	6,498.05	58.8552	6,498.05	61.9695
6,726.56	91.8082	6,726.56	91.7219	6,726.56	91.8297	6,726.56	90.6116	6,726.56	90.4642	6,726.56	87.8443	6,726.56	88.4812	6,726.56	84.0886	6,726.56	85.998	6,726.56	83.009	6,726.56	80.9038	6,726.56	80.9331	6,726.56	81.8474	6,726.56	78.0931	6,726.56	78.7465	6,726.56	75.8876	6,726.56	76.8322	6,726.56	73.0875	6,726.56	71.4732	6,726.56	71.6766	6,726.56	69.8451	6,726.56	68.8602	6,726.56	63.9338	6,726.56	66.9818	6,726.56	58.7651	6,726.56	63.7772	6,726.56	58.0318	6,726.56	67.1155	6,726.56	62.5748	6,726.56	64.4316	6,726.56	48.4919	6,726.56	56.6599	6,726.56	57.3999	6,726.56	51.8448	6,726.56	56.928	6,726.56	57.2995
6,963.87	91.9858	6,963.87	91.8158	6,963.87	92.544	6,963.87	90.3106	6,963.87	91.4666	6,963.87	88.3905	6,963.87	87.9796	6,963.87	84.6957	6,963.87	87.341	6,963.87	83.0993	6,963.87	80.8896	6,963.87	81.6555	6,963.87	82.1057	6,963.87	78.8489	6,963.87	77.501	6,963.87	75.9934	6,963.87	79.6615	6,963.87	73.0757	6,963.87	75.3521	6,963.87	70.5563	6,963.87	62.4262	6,963.87	68.7445	6,963.87	63.1888	6,963.87	67.4058	6,963.87	62.6134	6,963.87	66.23	6,963.87	52.0923	6,963.87	66.1769	6,963.87	59.2295	6,963.87	65.3518	6,963.87	46.3644	6,963.87	42.9921	6,963.87	58.8647	6,963.87	51.7896	6,963.87	57.616	6,963.87	60.8736
7,209.96	91.8733	7,209.96	91.9653	7,209.96	91.6439	7,209.96	90.3006	7,209.96	90.5032	7,209.96	88.261	7,209.96	88.5626	7,209.96	84.2751	7,209.96	86.228	7,209.96	83.2871	7,209.96	81.15	7,209.96	82.0925	7,209.96	79.4837	7,209.96	78.6999	7,209.96	80.9831	7,209.96	75.579	7,209.96	79.5422	7,209.96	72.9365	7,209.96	74.3754	7,209.96	68.771	7,209.96	66.9475	7,209.96	68.3624	7,209.96	63.5828	7,209.96	65.6049	7,209.96	62.1564	7,209.96	66.4415	7,209.96	57.7361	7,209.96	65.9386	7,209.96	58.7444	7,209.96	63.0577	7,209.96	46.008	7,209.96	53.5541	7,209.96	58.4774	7,209.96	57.0904	7,209.96	50.3613	7,209.96	61.5095
7,464.84	92.2521	7,464.84	92.0011	7,464.84	91.0283	7,464.84	90.3612	7,464.84	89.3497	7,464.84	88.0394	7,464.84	88.9936	7,464.84	85.2832	7,464.84	84.2585	7,464.84	83.4859	7,464.84	81.654	7,464.84	81.3875	7,464.84	75.2469	7,464.84	77.094	7,464.84	82.2156	7,464.84	74.6117	7,464.84	74.8378	7,464.84	71.6141	7,464.84	70.326	7,464.84	70.2705	7,464.84	66.9511	7,464.84	66.6701	7,464.84	62.5042	7,464.84	65.556	7,464.84	61.7076	7,464.84	65.0649	7,464.84	57.0444	7,464.84	65.8723	7,464.84	55.7622	7,464.84	60.8001	7,464.84	50.8633	7,464.84	59.3114	7,464.84	55.5094	7,464.84	51.4322	7,464.84	52.2688	7,464.84	59.2897
7,727.05	92.2076	7,727.05	91.5623	7,727.05	91.3043	7,727.05	89.9594	7,727.05	89.522	7,727.05	88.0257	7,727.05	88.7399	7,727.05	84.797	7,727.05	82.5171	7,727.05	83.0269	7,727.05	80.576	7,727.05	80.0219	7,727.05	77.5626	7,727.05	76.2896	7,727.05	80.01	7,727.05	74.1604	7,727.05	72.3907	7,727.05	69.3197	7,727.05	70.2054	7,727.05	70.4002	7,727.05	69.3723	7,727.05	61.3366	7,727.05	62.8566	7,727.05	65.9098	7,727.05	64.5395	7,727.05	65.1927	7,727.05	56.978	7,727.05	65.7146	7,727.05	58.4495	7,727.05	57.1501	7,727.05	52.5963	7,727.05	59.5051	7,727.05	56.6096	7,727.05	53.3554	7,727.05	56.99	7,727.05	53.9356
7,999.51	91.8514	7,999.51	91.5287	7,999.51	91.0785	7,999.51	89.5816	7,999.51	89.1698	7,999.51	87.8563	7,999.51	87.3678	7,999.51	83.5393	7,999.51	85.1613	7,999.51	81.4332	7,999.51	77.6882	7,999.51	79.0863	7,999.51	78.9096	7,999.51	74.6294	7,999.51	74.0314	7,999.51	72.1811	7,999.51	73.9753	7,999.51	68.113	7,999.51	67.7652	7,999.51	66.0829	7,999.51	63.1837	7,999.51	65.309	7,999.51	61.3487	7,999.51	63.4247	7,999.51	61.2895	7,999.51	59.5737	7,999.51	52.9243	7,999.51	63.7543	7,999.51	53.4444	7,999.51	61.8907	7,999.51	52.1387	7,999.51	59.0897	7,999.51	55.8707	7,999.51	54.1258	7,999.51	53.319	7,999.51	57.0272
8,282.23	91.8308	8,282.23	90.9857	8,282.23	90.9994	8,282.23	89.1837	8,282.23	89.273	8,282.23	87.0814	8,282.23	86.2458	8,282.23	82.9214	8,282.23	85.3382	8,282.23	80.313	8,282.23	77.5828	8,282.23	77.4811	8,282.23	77.162	8,282.23	73.0702	8,282.23	73.4722	8,282.23	68.6611	8,282.23	74.7909	8,282.23	67.2677	8,282.23	71.0647	8,282.23	60.8066	8,282.23	62.212	8,282.23	65.8312	8,282.23	63.9282	8,282.23	62.3178	8,282.23	61.9644	8,282.23	58.0464	8,282.23	51.2089	8,282.23	61.712	8,282.23	55.1499	8,282.23	63.6976	8,282.23	48.2299	8,282.23	55.7827	8,282.23	38.8978	8,282.23	38.0094	8,282.23	53.0371	8,282.23	51.2522
8,573.73	91.8408	8,573.73	91.0239	8,573.73	90.944	8,573.73	89.1253	8,573.73	89.0228	8,573.73	86.1448	8,573.73	87.2776	8,573.73	81.6491	8,573.73	83.8136	8,573.73	78.9556	8,573.73	79.8582	8,573.73	75.5494	8,573.73	73.0014	8,573.73	70.3803	8,573.73	76.6976	8,573.73	66.2226	8,573.73	71.6575	8,573.73	65.1909	8,573.73	70.3399	8,573.73	61.0801	8,573.73	49.0599	8,573.73	58.8814	8,573.73	61.9881	8,573.73	56.9926	8,573.73	59.5979	8,573.73	59.6927	8,573.73	49.8278	8,573.73	62.0299	8,573.73	46.108	8,573.73	56.9188	8,573.73	44.8834	8,573.73	50.4838	8,573.73	56.1977	8,573.73	54.099	8,573.73	57.363	8,573.73	56.6256
8,876.95	91.4978	8,876.95	90.5542	8,876.95	90.7503	8,876.95	88.6072	8,876.95	88.9615	8,876.95	85.1826	8,876.95	87.2506	8,876.95	79.9572	8,876.95	82.4198	8,876.95	76.8345	8,876.95	79.0605	8,876.95	74.6049	8,876.95	62.107	8,876.95	64.9154	8,876.95	76.047	8,876.95	64.9737	8,876.95	62.0832	8,876.95	60.837	8,876.95	66.9021	8,876.95	60.2448	8,876.95	55.0446	8,876.95	47.8038	8,876.95	49.7122	8,876.95	52.5004	8,876.95	57.2958	8,876.95	59.6503	8,876.95	48.839	8,876.95	58.6486	8,876.95	52.2495	8,876.95	51.2825	8,876.95	49.727	8,876.95	51.8333	8,876.95	50.967	8,876.95	56.9846	8,876.95	53.9354	8,876.95	50.5769
9,188.96	91.3322	9,188.96	89.9941	9,188.96	90.5653	9,188.96	88.0985	9,188.96	88.4527	9,188.96	84.8007	9,188.96	86.0665	9,188.96	79.3197	9,188.96	81.0853	9,188.96	76.4261	9,188.96	76.7523	9,188.96	72.7308	9,188.96	71.9358	9,188.96	67.4243	9,188.96	71.9292	9,188.96	64.208	9,188.96	71.4059	9,188.96	63.6796	9,188.96	67.6995	9,188.96	58.312	9,188.96	46.9877	9,188.96	55.9435	9,188.96	46.6802	9,188.96	55.1059	9,188.96	55.6481	9,188.96	55.4292	9,188.96	44.2902	9,188.96	57.1563	9,188.96	54.9182	9,188.96	56.7733	9,188.96	45.9569	9,188.96	56.0135	9,188.96	55.5488	9,188.96	57.7959	9,188.96	51.7246	9,188.96	58.0427
9,514.16	91.2075	9,514.16	90.2071	9,514.16	90.4932	9,514.16	88.0107	9,514.16	88.0905	9,514.16	84.6819	9,514.16	84.9227	9,514.16	78.8792	9,514.16	81.3043	9,514.16	76.0512	9,514.16	75.6434	9,514.16	72.8923	9,514.16	73.0174	9,514.16	69.5801	9,514.16	71.4378	9,514.16	65.3471	9,514.16	71.9275	9,514.16	64.2997	9,514.16	68.0266	9,514.16	60.2474	9,514.16	55.0278	9,514.16	60.556	9,514.16	54.4234	9,514.16	55.2529	9,514.16	57.8977	9,514.16	57.281	9,514.16	52.6117	9,514.16	57.7167	9,514.16	40.3884	9,514.16	59.8814	9,514.16	48.5688	9,514.16	55.9202	9,514.16	55.1178	9,514.16	57.2105	9,514.16	49.653	9,514.16	55.4476
9,849.61	91.193	9,849.61	90.4002	9,849.61	90.6001	9,849.61	87.9271	9,849.61	88.2876	9,849.61	84.7628	9,849.61	84.2451	9,849.61	78.4777	9,849.61	81.9561	9,849.61	75.8992	9,849.61	76.2344	9,849.61	73.2596	9,849.61	68.8946	9,849.61	70.3629	9,849.61	70.9826	9,849.61	66.5173	9,849.61	68.6677	9,849.61	65.7804	9,849.61	68.2427	9,849.61	59.9828	9,849.61	57.9166	9,849.61	59.6596	9,849.61	60.2906	9,849.61	58.62	9,849.61	61.2873	9,849.61	61.0312	9,849.61	51.9387	9,849.61	58.7945	9,849.61	56.9846	9,849.61	54.0581	9,849.61	46.708	9,849.61	57.6995	9,849.61	56.0943	9,849.61	55.4022	9,849.61	50.1343	9,849.61	53.6853
10,196.8	91.6002	10,196.8	90.4815	10,196.8	91.0417	10,196.8	87.9498	10,196.8	88.1542	10,196.8	84.4761	10,196.8	85.3647	10,196.8	78.7504	10,196.8	81.0994	10,196.8	74.5958	10,196.8	76.8109	10,196.8	72.9086	10,196.8	67.3129	10,196.8	70.8031	10,196.8	72.1307	10,196.8	66.7635	10,196.8	71.1631	10,196.8	65.159	10,196.8	68.0359	10,196.8	61.8907	10,196.8	59.3878	10,196.8	56.0326	10,196.8	61.0326	10,196.8	57.7962	10,196.8	59.9521	10,196.8	59.8345	10,196.8	56.1476	10,196.8	56.3447	10,196.8	53.7666	10,196.8	57.6977	10,196.8	49.4185	10,196.8	53.7403	10,196.8	54.716	10,196.8	58.4406	10,196.8	47.5508	10,196.8	52.1109
10,555.7	91.6835	10,555.7	90.5238	10,555.7	91.0826	10,555.7	87.9253	10,555.7	87.9503	10,555.7	84.0422	10,555.7	84.8188	10,555.7	78.6607	10,555.7	78.1269	10,555.7	74.1562	10,555.7	76.8569	10,555.7	73.5324	10,555.7	67.6195	10,555.7	70.7613	10,555.7	70.7153	10,555.7	68.2868	10,555.7	70.9851	10,555.7	63.0037	10,555.7	56.9924	10,555.7	63.7356	10,555.7	61.4062	10,555.7	54.4001	10,555.7	63.1033	10,555.7	58.3191	10,555.7	60.9278	10,555.7	57.6639	10,555.7	53.3366	10,555.7	51.7661	10,555.7	59.2182	10,555.7	58.9113	10,555.7	45.2715	10,555.7	55.7066	10,555.7	54.4678	10,555.7	57.5449	10,555.7	45.9698	10,555.7	52.0502
10,927.7	91.5164	10,927.7	90.6589	10,927.7	91.3058	10,927.7	87.9064	10,927.7	88.1552	10,927.7	83.8629	10,927.7	83.2445	10,927.7	76.5766	10,927.7	78.4995	10,927.7	74.2322	10,927.7	75.4935	10,927.7	73.1998	10,927.7	70.6246	10,927.7	68.9649	10,927.7	63.2093	10,927.7	64.3993	10,927.7	70.1553	10,927.7	60.7261	10,927.7	63.9246	10,927.7	58.6835	10,927.7	59.0863	10,927.7	57.9603	10,927.7	63.4732	10,927.7	53.5279	10,927.7	61.3044	10,927.7	53.2856	10,927.7	55.3058	10,927.7	51.4338	10,927.7	56.4734	10,927.7	56.0788	10,927.7	42.7949	10,927.7	52.1355	10,927.7	54.3806	10,927.7	54.261	10,927.7	48.0018	10,927.7	51.1598
11,313	91.7999	11,313	90.7602	11,313	91.1215	11,313	87.8607	11,313	87.9174	11,313	83.3846	11,313	83.076	11,313	74.6693	11,313	79.4353	11,313	73.9899	11,313	72.8112	11,313	72.2661	11,313	64.6061	11,313	65.1815	11,313	63.7911	11,313	64.2805	11,313	70.2317	11,313	61.5027	11,313	64.9567	11,313	58.7822	11,313	63.7093	11,313	56.0144	11,313	61.8424	11,313	53.318	11,313	61.7785	11,313	58.9458	11,313	57.2579	11,313	55.5801	11,313	41.4473	11,313	56.5511	11,313	37.5805	11,313	50.2172	11,313	50.0895	11,313	55.641	11,313	52.3421	11,313	48.0481
11,712.9	91.8303	11,712.9	90.6158	11,712.9	91.0339	11,712.9	87.7082	11,712.9	88.056	11,712.9	82.2739	11,712.9	83.3605	11,712.9	74.9952	11,712.9	77.6346	11,712.9	73.5634	11,712.9	71.3816	11,712.9	73.1593	11,712.9	66.8237	11,712.9	69.2548	11,712.9	64.654	11,712.9	65.553	11,712.9	68.8526	11,712.9	62.962	11,712.9	60.4569	11,712.9	60.9071	11,712.9	63.9349	11,712.9	56.5141	11,712.9	62.8179	11,712.9	57.7457	11,712.9	62.6602	11,712.9	59.4085	11,712.9	55.2766	11,712.9	54.6335	11,712.9	42.3797	11,712.9	55.0338	11,712.9	43.2026	11,712.9	51.9119	11,712.9	43.0229	11,712.9	56.2011	11,712.9	52.7475	11,712.9	39.9918
12,126	91.6352	12,126	90.6642	12,126	90.807	12,126	87.6249	12,126	87.5398	12,126	81.226	12,126	83.3423	12,126	76.6357	12,126	76.8087	12,126	75.2293	12,126	71.8474	12,126	73.2104	12,126	67.3697	12,126	69.9297	12,126	64.8519	12,126	67.7815	12,126	63.9641	12,126	64.8306	12,126	66.202	12,126	61.4239	12,126	65.1402	12,126	57.8855	12,126	60.982	12,126	58.2221	12,126	62.9437	12,126	59.6738	12,126	52.3684	12,126	57.3673	12,126	49.1123	12,126	55.3809	12,126	38.0668	12,126	51.2927	12,126	41.1677	12,126	55.4093	12,126	54.287	12,126	32.3175
12,553.7	91.4563	12,553.7	90.6925	12,553.7	90.7476	12,553.7	87.5537	12,553.7	87.745	12,553.7	81.0774	12,553.7	83.3562	12,553.7	78.5055	12,553.7	77.1315	12,553.7	75.8413	12,553.7	72.7157	12,553.7	73.343	12,553.7	66.4686	12,553.7	72.2161	12,553.7	64.1074	12,553.7	68.6708	12,553.7	64.8861	12,553.7	66.1694	12,553.7	67.6902	12,553.7	62.242	12,553.7	62.9113	12,553.7	59.3175	12,553.7	61.6585	12,553.7	58.5031	12,553.7	64.9793	12,553.7	60.0276	12,553.7	55.7358	12,553.7	57.2605	12,553.7	38.7511	12,553.7	58.563	12,553.7	46.4242	12,553.7	53.3005	12,553.7	49.2659	12,553.7	53.3876	12,553.7	52.1297	12,553.7	41.9177
12,996.1	91.5586	12,996.1	90.4661	12,996.1	90.6676	12,996.1	87.3116	12,996.1	87.9996	12,996.1	81.8227	12,996.1	83.6283	12,996.1	79.1589	12,996.1	77.7939	12,996.1	75.3015	12,996.1	73.7557	12,996.1	74.5439	12,996.1	67.9046	12,996.1	72.5137	12,996.1	65.8348	12,996.1	66.9994	12,996.1	66.854	12,996.1	64.8759	12,996.1	67.1714	12,996.1	60.0685	12,996.1	63.4609	12,996.1	58.5406	12,996.1	62.4354	12,996.1	56.2596	12,996.1	66.7015	12,996.1	58.2508	12,996.1	52.1127	12,996.1	55.8928	12,996.1	49.1089	12,996.1	56.8105	12,996.1	36.6	12,996.1	50.8634	12,996.1	49.8642	12,996.1	50.9914	12,996.1	47.5307	12,996.1	44.6188
13,454.6	91.748	13,454.6	90.4992	13,454.6	90.5599	13,454.6	87.3035	13,454.6	88.206	13,454.6	83.0041	13,454.6	84.4387	13,454.6	78.4781	13,454.6	78.5542	13,454.6	74.5115	13,454.6	74.0528	13,454.6	74.5443	13,454.6	69.49	13,454.6	72.5183	13,454.6	66.9974	13,454.6	67.4533	13,454.6	64.3809	13,454.6	64.3278	13,454.6	66.08	13,454.6	59.9803	13,454.6	65.0599	13,454.6	55.5032	13,454.6	65.7907	13,454.6	56.6766	13,454.6	67.6427	13,454.6	59.0399	13,454.6	57.8214	13,454.6	55.1533	13,454.6	45.3925	13,454.6	55.4631	13,454.6	39.673	13,454.6	40.8699	13,454.6	44.5786	13,454.6	44.2551	13,454.6	47.9501	13,454.6	40.0114
13,929.2	91.4333	13,929.2	90.5972	13,929.2	90.4516	13,929.2	87.0475	13,929.2	88.131	13,929.2	83.5301	13,929.2	84.0231	13,929.2	77.741	13,929.2	79.2875	13,929.2	74.5508	13,929.2	75.4818	13,929.2	74.0891	13,929.2	68.6458	13,929.2	71.4629	13,929.2	67.2181	13,929.2	64.2312	13,929.2	61.3318	13,929.2	61.7275	13,929.2	64.6882	13,929.2	59.1357	13,929.2	65.6026	13,929.2	56.6133	13,929.2	66.3418	13,929.2	55.4026	13,929.2	67.3686	13,929.2	57.1679	13,929.2	55.9105	13,929.2	51.9061	13,929.2	50.0727	13,929.2	54.2672	13,929.2	41.2785	13,929.2	41.7553	13,929.2	50.7635	13,929.2	47.1788	13,929.2	51.6325	13,929.2	42.4043
14,419.9	91.1591	14,419.9	90.347	14,419.9	90.0403	14,419.9	87.1871	14,419.9	88.116	14,419.9	83.4714	14,419.9	84.0871	14,419.9	77.3694	14,419.9	79.9275	14,419.9	74.2645	14,419.9	73.6965	14,419.9	73.2378	14,419.9	69.9396	14,419.9	68.6271	14,419.9	64.6899	14,419.9	64.3824	14,419.9	60.6067	14,419.9	61.6445	14,419.9	61.9441	14,419.9	57.9301	14,419.9	65.6768	14,419.9	56.7673	14,419.9	66.7306	14,419.9	55.1408	14,419.9	67.7347	14,419.9	55.1317	14,419.9	55.8047	14,419.9	50.5363	14,419.9	48.9212	14,419.9	50.0573	14,419.9	42.8862	14,419.9	44.6546	14,419.9	47.8901	14,419.9	42.6129	14,419.9	48.8883	14,419.9	43.247
14,928.2	91.0789	14,928.2	89.9837	14,928.2	89.8795	14,928.2	86.9703	14,928.2	87.6988	14,928.2	83.3789	14,928.2	84.2065	14,928.2	76.6747	14,928.2	78.6693	14,928.2	74.2452	14,928.2	72.5524	14,928.2	70.2584	14,928.2	68.6195	14,928.2	66.393	14,928.2	63.3267	14,928.2	60.9386	14,928.2	54.4651	14,928.2	59.3163	14,928.2	58.2193	14,928.2	54.5828	14,928.2	64.9787	14,928.2	55.5393	14,928.2	66.3463	14,928.2	51.908	14,928.2	66.926	14,928.2	53.02	14,928.2	57.0561	14,928.2	47.6958	14,928.2	46.3257	14,928.2	50.7031	14,928.2	40.942	14,928.2	44.8629	14,928.2	44.4046	14,928.2	38.0642	14,928.2	45.9538	14,928.2	45.0326
15,455.6	90.8736	15,455.6	89.9336	15,455.6	90.1171	15,455.6	87.0535	15,455.6	87.2369	15,455.6	82.5124	15,455.6	83.7554	15,455.6	76.4523	15,455.6	78.118	15,455.6	73.0137	15,455.6	73.0535	15,455.6	67.8349	15,455.6	64.8532	15,455.6	61.8705	15,455.6	62.2028	15,455.6	60.9408	15,455.6	54.9878	15,455.6	58.7121	15,455.6	56.6527	15,455.6	52.9392	15,455.6	64.6254	15,455.6	53.3396	15,455.6	65.2819	15,455.6	50.3336	15,455.6	66.1395	15,455.6	51.2701	15,455.6	55.2092	15,455.6	44.3022	15,455.6	43.5182	15,455.6	50.7737	15,455.6	39.6882	15,455.6	45.9117	15,455.6	44.1381	15,455.6	42.0257	15,455.6	44.1894	15,455.6	43.6972
16,000.5	90.7674	16,000.5	89.9046	16,000.5	90.0661	16,000.5	87.2725	16,000.5	86.9405	16,000.5	81.4791	16,000.5	83.4944	16,000.5	75.5109	16,000.5	77.7077	16,000.5	70.7551	16,000.5	71.2132	16,000.5	64.6401	16,000.5	64.7699	16,000.5	62.6207	16,000.5	60.2205	16,000.5	57.7211	16,000.5	53.4091	16,000.5	55.8612	16,000.5	51.6534	16,000.5	45.2783	16,000.5	62.3836	16,000.5	52.8414	16,000.5	62.8435	16,000.5	46.312	16,000.5	64.7444	16,000.5	47.4284	16,000.5	52.9072	16,000.5	39.6538	16,000.5	39.644	16,000.5	45.976	16,000.5	37.9302	16,000.5	41.8171	16,000.5	43.9977	16,000.5	34.373	16,000.5	44.2803	16,000.5	40.8309
16,564.5	90.7726	16,564.5	89.8509	16,564.5	89.9599	16,564.5	86.8643	16,564.5	86.8301	16,564.5	80.7976	16,564.5	82.4145	16,564.5	73.7764	16,564.5	76.2379	16,564.5	67.3436	16,564.5	67.1828	16,564.5	59.2898	16,564.5	59.9507	16,564.5	59.5481	16,564.5	54.3483	16,564.5	55.2746	16,564.5	34.1873	16,564.5	50.2482	16,564.5	44.4437	16,564.5	42.3853	16,564.5	59.7111	16,564.5	48.2313	16,564.5	60.8419	16,564.5	41.2573	16,564.5	63.2396	16,564.5	41.6868	16,564.5	51.3901	16,564.5	35.8333	16,564.5	39.2257	16,564.5	42.9457	16,564.5	36.5181	16,564.5	39.9508	16,564.5	44.4891	16,564.5	39.0127	16,564.5	43.4627	16,564.5	40.9939
17,148.9	90.9003	17,148.9	89.7271	17,148.9	89.9056	17,148.9	86.0585	17,148.9	86.3088	17,148.9	79.3594	17,148.9	81.2765	17,148.9	70.9685	17,148.9	73.8546	17,148.9	62.4043	17,148.9	61.7934	17,148.9	42.6593	17,148.9	51.9537	17,148.9	52.4593	17,148.9	40.2474	17,148.9	45.4684	17,148.9	43.2523	17,148.9	32.2219	17,148.9	42.1777	17,148.9	37.3766	17,148.9	56.5673	17,148.9	41.9491	17,148.9	56.9367	17,148.9	26.4919	17,148.9	61.0833	17,148.9	33.2164	17,148.9	49.0052	17,148.9	34.4323	17,148.9	38.3943	17,148.9	36.3834	17,148.9	35.5949	17,148.9	40.2088	17,148.9	44.1881	17,148.9	32.7984	17,148.9	39.7619	17,148.9	41.4822
17,752.4	91.0887	17,752.4	89.5544	17,752.4	89.908	17,752.4	85.128	17,752.4	85.704	17,752.4	77.6855	17,752.4	79.6715	17,752.4	66.904	17,752.4	70.0181	17,752.4	54.537	17,752.4	61.2464	17,752.4	58.7703	17,752.4	58.9841	17,752.4	50.5962	17,752.4	53.3606	17,752.4	49.9332	17,752.4	49.0725	17,752.4	40.5139	17,752.4	45.3626	17,752.4	44.0601	17,752.4	51.9894	17,752.4	37.2693	17,752.4	51.9922	17,752.4	37.5007	17,752.4	59.2949	17,752.4	40.5186	17,752.4	45.5985	17,752.4	37.3011	17,752.4	39.8252	17,752.4	39.4433	17,752.4	37.4182	17,752.4	42.5791	17,752.4	40.7905	17,752.4	35.0206	17,752.4	40.1863	17,752.4	39.9059
18,379.4	90.9461	18,379.4	89.1801	18,379.4	89.6006	18,379.4	84.1371	18,379.4	84.9027	18,379.4	75.2273	18,379.4	77.7576	18,379.4	62.9272	18,379.4	65.9054	18,379.4	63.9133	18,379.4	64.9097	18,379.4	63.8821	18,379.4	63.3007	18,379.4	57.8249	18,379.4	58.0616	18,379.4	54.5338	18,379.4	49.374	18,379.4	48.4003	18,379.4	47.1483	18,379.4	46.5596	18,379.4	50.2758	18,379.4	41.1867	18,379.4	48.3738	18,379.4	42.0385	18,379.4	57.6529	18,379.4	42.6394	18,379.4	44.2571	18,379.4	39.6131	18,379.4	42.0232	18,379.4	37.8099	18,379.4	37.3833	18,379.4	44.62	18,379.4	34.1293	18,379.4	39.3482	18,379.4	37.8651	18,379.4	37.8335
19,026.9	90.4527	19,026.9	88.5927	19,026.9	88.9997	19,026.9	82.7863	19,026.9	83.8285	19,026.9	72.3424	19,026.9	74.943	19,026.9	63.903	19,026.9	63.7935	19,026.9	67.7363	19,026.9	67.301	19,026.9	65.3237	19,026.9	64.5543	19,026.9	61.2917	19,026.9	59.8404	19,026.9	56.099	19,026.9	52.2799	19,026.9	50.7794	19,026.9	45.3526	19,026.9	49.1638	19,026.9	48.8574	19,026.9	40.3236	19,026.9	47.4176	19,026.9	44.1382	19,026.9	56.0413	19,026.9	44.8402	19,026.9	45.1768	19,026.9	36.7936	19,026.9	41.4197	19,026.9	40.0481	19,026.9	37.9304	19,026.9	43.0848	19,026.9	37.1941	19,026.9	41.218	19,026.9	34.3541	19,026.9	32.4599
19,697.8	89.7407	19,697.8	87.8265	19,697.8	88.2856	19,697.8	81.1833	19,697.8	82.5179	19,697.8	68.8734	19,697.8	72.3233	19,697.8	66.8746	19,697.8	67.5136	19,697.8	68.323	19,697.8	68.4393	19,697.8	65.2896	19,697.8	64.6357	19,697.8	61.3748	19,697.8	57.9172	19,697.8	55.3044	19,697.8	51.032	19,697.8	50.6685	19,697.8	41.4259	19,697.8	47.1665	19,697.8	48.0884	19,697.8	46.2013	19,697.8	47.462	19,697.8	43.8025	19,697.8	55.4384	19,697.8	42.8541	19,697.8	44.3918	19,697.8	32.0338	19,697.8	41.6747	19,697.8	42.2454	19,697.8	35.463	19,697.8	42.4322	19,697.8	38.9327	19,697.8	42.0357	19,697.8	32.1409	19,697.8	34.38
19,999.5	89.3238	19,999.5	87.4354	19,999.5	87.9848	19,999.5	80.5634	19,999.5	82.0811	19,999.5	66.8948	19,999.5	69.8489	19,999.5	68.5947	19,999.5	66.9124	19,999.5	67.6321	19,999.5	69.5662	19,999.5	64.547	19,999.5	65.8104	19,999.5	60.95	19,999.5	61.2861	19,999.5	54.7747	19,999.5	40.7743	19,999.5	51.7232	19,999.5	54.0965	19,999.5	48.4136	19,999.5	55.6143	19,999.5	51.1907	19,999.5	43.1383	19,999.5	48.0034	19,999.5	55.1207	19,999.5	56.7485	19,999.5	49.4904	19,999.5	50.6326	19,999.5	51.1673	19,999.5	47.883	19,999.5	52.8135	19,999.5	50.8431	19,999.5	54.5809	19,999.5	48.0439	19,999.5	48.8409	19,999.5	43.0573
