"SPL Horizontal"
"On-Axis"		"10°"		"-10°"		"20°"		"-20°"		"30°"		"-30°"		"40°"		"-40°"		"50°"		"-50°"		"60°"		"-60°"		"70°"		"-70°"		"80°"		"-80°"		"90°"		"-90°"		"100°"		"-100°"		"110°"		"-110°"		"120°"		"-120°"		"130°"		"-130°"		"140°"		"-140°"		"150°"		"-150°"		"160°"		"-160°"		"170°"		"-170°"		"180°"
"Frequency / Hz"	"Sound Pressure Level / dB (re 20 µPa/V)  [2.83  V @ 1. m]"	"Frequency / Hz"	"Sound Pressure Level / dB (re 20 µPa/V)  [2.83  V @ 1. m]"	"Frequency / Hz"	"Sound Pressure Level / dB (re 20 µPa/V)  [2.83  V @ 1. m]"	"Frequency / Hz"	"Sound Pressure Level / dB (re 20 µPa/V)  [2.83  V @ 1. m]"	"Frequency / Hz"	"Sound Pressure Level / dB (re 20 µPa/V)  [2.83  V @ 1. m]"	"Frequency / Hz"	"Sound Pressure Level / dB (re 20 µPa/V)  [2.83  V @ 1. m]"	"Frequency / Hz"	"Sound Pressure Level / dB (re 20 µPa/V)  [2.83  V @ 1. m]"	"Frequency / Hz"	"Sound Pressure Level / dB (re 20 µPa/V)  [2.83  V @ 1. m]"	"Frequency / Hz"	"Sound Pressure Level / dB (re 20 µPa/V)  [2.83  V @ 1. m]"	"Frequency / Hz"	"Sound Pressure Level / dB (re 20 µPa/V)  [2.83  V @ 1. m]"	"Frequency / Hz"	"Sound Pressure Level / dB (re 20 µPa/V)  [2.83  V @ 1. m]"	"Frequency / Hz"	"Sound Pressure Level / dB (re 20 µPa/V)  [2.83  V @ 1. m]"	"Frequency / Hz"	"Sound Pressure Level / dB (re 20 µPa/V)  [2.83  V @ 1. m]"	"Frequency / Hz"	"Sound Pressure Level / dB (re 20 µPa/V)  [2.83  V @ 1. m]"	"Frequency / Hz"	"Sound Pressure Level / dB (re 20 µPa/V)  [2.83  V @ 1. m]"	"Frequency / Hz"	"Sound Pressure Level / dB (re 20 µPa/V)  [2.83  V @ 1. m]"	"Frequency / Hz"	"Sound Pressure Level / dB (re 20 µPa/V)  [2.83  V @ 1. m]"	"Frequency / Hz"	"Sound Pressure Level / dB (re 20 µPa/V)  [2.83  V @ 1. m]"	"Frequency / Hz"	"Sound Pressure Level / dB (re 20 µPa/V)  [2.83  V @ 1. m]"	"Frequency / Hz"	"Sound Pressure Level / dB (re 20 µPa/V)  [2.83  V @ 1. m]"	"Frequency / Hz"	"Sound Pressure Level / dB (re 20 µPa/V)  [2.83  V @ 1. m]"	"Frequency / Hz"	"Sound Pressure Level / dB (re 20 µPa/V)  [2.83  V @ 1. m]"	"Frequency / Hz"	"Sound Pressure Level / dB (re 20 µPa/V)  [2.83  V @ 1. m]"	"Frequency / Hz"	"Sound Pressure Level / dB (re 20 µPa/V)  [2.83  V @ 1. m]"	"Frequency / Hz"	"Sound Pressure Level / dB (re 20 µPa/V)  [2.83  V @ 1. m]"	"Frequency / Hz"	"Sound Pressure Level / dB (re 20 µPa/V)  [2.83  V @ 1. m]"	"Frequency / Hz"	"Sound Pressure Level / dB (re 20 µPa/V)  [2.83  V @ 1. m]"	"Frequency / Hz"	"Sound Pressure Level / dB (re 20 µPa/V)  [2.83  V @ 1. m]"	"Frequency / Hz"	"Sound Pressure Level / dB (re 20 µPa/V)  [2.83  V @ 1. m]"	"Frequency / Hz"	"Sound Pressure Level / dB (re 20 µPa/V)  [2.83  V @ 1. m]"	"Frequency / Hz"	"Sound Pressure Level / dB (re 20 µPa/V)  [2.83  V @ 1. m]"	"Frequency / Hz"	"Sound Pressure Level / dB (re 20 µPa/V)  [2.83  V @ 1. m]"	"Frequency / Hz"	"Sound Pressure Level / dB (re 20 µPa/V)  [2.83  V @ 1. m]"	"Frequency / Hz"	"Sound Pressure Level / dB (re 20 µPa/V)  [2.83  V @ 1. m]"	"Frequency / Hz"	"Sound Pressure Level / dB (re 20 µPa/V)  [2.83  V @ 1. m]"	"Frequency / Hz"	"Sound Pressure Level / dB (re 20 µPa/V)  [2.83  V @ 1. m]"
20.5078	68.1432	20.5078	68.0321	20.5078	68.2628	20.5078	67.9326	20.5078	68.3875	20.5078	67.8473	20.5078	68.5137	20.5078	67.7783	20.5078	68.6378	20.5078	67.7275	20.5078	68.7564	20.5078	67.6966	20.5078	68.866	20.5078	67.6878	20.5078	68.9628	20.5078	67.7039	20.5078	69.0424	20.5078	67.7475	20.5078	69.0998	20.5078	67.8206	20.5078	69.1306	20.5078	67.9225	20.5078	69.1333	20.5078	68.049	20.5078	69.1106	20.5078	68.1927	20.5078	69.0705	20.5078	68.3432	20.5078	69.0228	20.5078	68.4893	20.5078	68.9753	20.5078	68.6209	20.5078	68.9292	20.5078	68.7305	20.5078	68.879	20.5078	68.8154
21.9727	69.0731	21.9727	68.9867	21.9727	69.1716	21.9727	68.9153	21.9727	69.2785	21.9727	68.8609	21.9727	69.3896	21.9727	68.8246	21.9727	69.5004	21.9727	68.8067	21.9727	69.6065	21.9727	68.8068	21.9727	69.7031	21.9727	68.8248	21.9727	69.7859	21.9727	68.8605	21.9727	69.8505	21.9727	68.9138	21.9727	69.8932	21.9727	68.984	21.9727	69.912	21.9727	69.069	21.9727	69.9071	21.9727	69.1647	21.9727	69.8823	21.9727	69.2649	21.9727	69.8443	21.9727	69.363	21.9727	69.8011	21.9727	69.4527	21.9727	69.7588	21.9727	69.5298	21.9727	69.72	21.9727	69.5925	21.9727	69.6828	21.9727	69.6422
23.4375	69.9978	23.4375	69.8977	23.4375	70.1016	23.4375	69.8041	23.4375	70.2058	23.4375	69.7189	23.4375	70.3068	23.4375	69.6439	23.4375	70.4006	23.4375	69.5802	23.4375	70.4827	23.4375	69.5288	23.4375	70.5492	23.4375	69.4905	23.4375	70.5958	23.4375	69.4664	23.4375	70.6193	23.4375	69.4573	23.4375	70.6172	23.4375	69.4637	23.4375	70.5887	23.4375	69.4856	23.4375	70.5352	23.4375	69.5219	23.4375	70.4609	23.4375	69.5708	23.4375	70.3721	23.4375	69.6298	23.4375	70.2763	23.4375	69.6963	23.4375	70.1802	23.4375	69.7678	23.4375	70.0881	23.4375	69.8426	23.4375	70.0017	23.4375	69.9203
24.9023	71.9392	24.9023	71.8198	24.9023	72.0594	24.9023	71.7043	24.9023	72.1769	24.9023	71.5953	24.9023	72.2877	24.9023	71.4951	24.9023	72.3877	24.9023	71.4055	24.9023	72.4727	24.9023	71.3278	24.9023	72.5383	24.9023	71.263	24.9023	72.5809	24.9023	71.2116	24.9023	72.5972	24.9023	71.1741	24.9023	72.5854	24.9023	71.1509	24.9023	72.5447	24.9023	71.1428	24.9023	72.4759	24.9023	71.1509	24.9023	72.3815	24.9023	71.1765	24.9023	72.2657	24.9023	71.2206	24.9023	72.1339	24.9023	71.284	24.9023	71.9931	24.9023	71.3662	24.9023	71.8502	24.9023	71.4662	24.9023	71.7115	24.9023	71.5822
26.3672	74.3744	26.3672	74.2299	26.3672	74.5162	26.3672	74.0864	26.3672	74.6513	26.3672	73.9473	26.3672	74.7754	26.3672	73.8154	26.3672	74.8838	26.3672	73.6934	26.3672	74.972	26.3672	73.5836	26.3672	75.036	26.3672	73.4879	26.3672	75.072	26.3672	73.4082	26.3672	75.0776	26.3672	73.3462	26.3672	75.0515	26.3672	73.3038	26.3672	74.994	26.3672	73.2829	26.3672	74.9064	26.3672	73.2856	26.3672	74.7918	26.3672	73.3138	26.3672	74.6541	26.3672	73.3684	26.3672	74.4986	26.3672	73.4494	26.3672	74.3315	26.3672	73.5552	26.3672	74.1597	26.3672	73.6832	26.3672	73.9903	26.3672	73.8297
27.832	77.2897	27.832	77.1467	27.832	77.4291	27.832	77.004	27.832	77.5605	27.832	76.8651	27.832	77.6795	27.832	76.7333	27.832	77.7814	27.832	76.6112	27.832	77.8619	27.832	76.5014	27.832	77.9168	27.832	76.4058	27.832	77.943	27.832	76.3265	27.832	77.9386	27.832	76.265	27.832	77.9031	27.832	76.2231	27.832	77.8374	27.832	76.2022	27.832	77.7441	27.832	76.2042	27.832	77.6267	27.832	76.2301	27.832	77.4898	27.832	76.2807	27.832	77.3382	27.832	76.3555	27.832	77.178	27.832	76.453	27.832	77.0153	27.832	76.571	27.832	76.8563	27.832	76.7067
29.2969	80.3855	29.2969	80.2463	29.2969	80.5187	29.2969	80.105	29.2969	80.6417	29.2969	79.9651	29.2969	80.75	29.2969	79.8298	29.2969	80.8388	29.2969	79.7018	29.2969	80.9038	29.2969	79.5837	29.2969	80.9409	29.2969	79.4779	29.2969	80.9471	29.2969	79.3864	29.2969	80.9207	29.2969	79.3113	29.2969	80.8617	29.2969	79.2544	29.2969	80.772	29.2969	79.2175	29.2969	80.6552	29.2969	79.2017	29.2969	80.516	29.2969	79.2082	29.2969	80.3603	29.2969	79.2372	29.2969	80.1946	29.2969	79.2885	29.2969	80.0261	29.2969	79.3619	29.2969	79.8622	29.2969	79.457	29.2969	79.7095	29.2969	79.5734
30.7617	83.1738	30.7617	83.027	30.7617	83.3133	30.7617	82.8773	30.7617	83.4411	30.7617	82.7284	30.7617	83.5526	30.7617	82.584	30.7617	83.6432	30.7617	82.4471	30.7617	83.7082	30.7617	82.3208	30.7617	83.7439	30.7617	82.2079	30.7617	83.7474	30.7617	82.1108	30.7617	83.7172	30.7617	82.0317	30.7617	83.6535	30.7617	81.9726	30.7617	83.5585	30.7617	81.9351	30.7617	83.4358	30.7617	81.9203	30.7617	83.2907	30.7617	81.9288	30.7617	83.1292	30.7617	81.9608	30.7617	82.958	30.7617	82.016	30.7617	82.7843	30.7617	82.0939	30.7617	82.6152	30.7617	82.1941	30.7617	82.4573	30.7617	82.3158
32.2266	85.4917	32.2266	85.3424	32.2266	85.6341	32.2266	85.1903	32.2266	85.7649	32.2266	85.0395	32.2266	85.8795	32.2266	84.8937	32.2266	85.9729	32.2266	84.7563	32.2266	86.0409	32.2266	84.6305	32.2266	86.0795	32.2266	84.5191	32.2266	86.0859	32.2266	84.4245	32.2266	86.0587	32.2266	84.3492	32.2266	85.998	32.2266	84.2948	32.2266	85.9061	32.2266	84.2629	32.2266	85.7868	32.2266	84.2544	32.2266	85.6453	32.2266	84.2697	32.2266	85.4877	32.2266	84.3085	32.2266	85.3207	32.2266	84.3703	32.2266	85.1509	32.2266	84.4545	32.2266	84.9847	32.2266	84.5598	32.2266	84.8278	32.2266	84.6851
33.6914	87.5485	33.6914	87.4018	33.6914	87.6885	33.6914	87.2528	33.6914	87.8171	33.6914	87.1055	33.6914	87.9297	33.6914	86.9636	33.6914	88.0214	33.6914	86.8305	33.6914	88.0879	33.6914	86.7092	33.6914	88.1252	33.6914	86.6024	33.6914	88.1307	33.6914	86.5124	33.6914	88.1028	33.6914	86.4412	33.6914	88.0421	33.6914	86.3903	33.6914	87.9508	33.6914	86.3608	33.6914	87.8328	33.6914	86.3535	33.6914	87.6936	33.6914	86.3685	33.6914	87.5394	33.6914	86.4059	33.6914	87.3769	33.6914	86.465	33.6914	87.2126	33.6914	86.5454	33.6914	87.0527	33.6914	86.646	33.6914	86.9023	33.6914	86.7657
35.1562	89.2076	35.1562	89.0614	35.1562	89.3468	35.1562	88.9127	35.1562	89.4744	35.1562	88.7654	35.1562	89.5854	35.1562	88.6234	35.1562	89.6753	35.1562	88.4901	35.1562	89.7394	35.1562	88.3684	35.1562	89.7739	35.1562	88.261	35.1562	89.7762	35.1562	88.1702	35.1562	89.7449	35.1562	88.0978	35.1562	89.6805	35.1562	88.0455	35.1562	89.5853	35.1562	88.0141	35.1562	89.4636	35.1562	88.0044	35.1562	89.321	35.1562	88.0166	35.1562	89.164	35.1562	88.0504	35.1562	88.9997	35.1562	88.1056	35.1562	88.8348	35.1562	88.1817	35.1562	88.6756	35.1562	88.2781	35.1562	88.5272	35.1562	88.3938
36.6211	90.518	36.6211	90.374	36.6211	90.6549	36.6211	90.2273	36.6211	90.7798	36.6211	90.0821	36.6211	90.888	36.6211	89.9421	36.6211	90.9746	36.6211	89.8106	36.6211	91.0353	36.6211	89.6908	36.6211	91.0661	36.6211	89.585	36.6211	91.0644	36.6211	89.4954	36.6211	91.0291	36.6211	89.4239	36.6211	90.9608	36.6211	89.3717	36.6211	90.8622	36.6211	89.3398	36.6211	90.7378	36.6211	89.3287	36.6211	90.5935	36.6211	89.3383	36.6211	90.4363	36.6211	89.3684	36.6211	90.2733	36.6211	89.4188	36.6211	90.1115	36.6211	89.4891	36.6211	89.9569	36.6211	89.5788	36.6211	89.8144	36.6211	89.6877
38.0859	91.4831	38.0859	91.3325	38.0859	91.6271	38.0859	91.18	38.0859	91.7596	38.0859	91.0298	38.0859	91.8757	38.0859	90.8859	38.0859	91.9704	38.0859	90.7515	38.0859	92.039	38.0859	90.6297	38.0859	92.0776	38.0859	90.523	38.0859	92.0832	38.0859	90.4336	38.0859	92.0544	38.0859	90.3632	38.0859	91.9914	38.0859	90.313	38.0859	91.8967	38.0859	90.284	38.0859	91.7741	38.0859	90.2767	38.0859	91.6294	38.0859	90.2912	38.0859	91.4692	38.0859	90.3272	38.0859	91.3008	38.0859	90.3843	38.0859	91.1314	38.0859	90.4622	38.0859	90.9677	38.0859	90.5606	38.0859	90.8154	38.0859	90.6788
39.5508	92.2855	39.5508	92.133	39.5508	92.4313	39.5508	91.9786	39.5508	92.5656	39.5508	91.8265	39.5508	92.6834	39.5508	91.6807	39.5508	92.7798	39.5508	91.5448	39.5508	92.8504	39.5508	91.4221	39.5508	92.8912	39.5508	91.3152	39.5508	92.8996	39.5508	91.2264	39.5508	92.8742	39.5508	91.1575	39.5508	92.8152	39.5508	91.1101	39.5508	92.7249	39.5508	91.0848	39.5508	92.607	39.5508	91.0823	39.5508	92.4669	39.5508	91.1023	39.5508	92.3108	39.5508	91.1446	39.5508	92.1456	39.5508	91.2083	39.5508	91.9781	39.5508	91.2927	39.5508	91.8146	39.5508	91.3972	39.5508	91.6606	39.5508	91.5204
41.0156	92.8556	41.0156	92.711	41.0156	92.9941	41.0156	92.565	41.0156	93.1216	41.0156	92.4221	41.0156	93.2331	41.0156	92.2863	41.0156	93.3239	41.0156	92.161	41.0156	93.3896	41.0156	92.0493	41.0156	93.4266	41.0156	91.9537	41.0156	93.4326	41.0156	91.8761	41.0156	93.4067	41.0156	91.8177	41.0156	93.3496	41.0156	91.7795	41.0156	93.2641	41.0156	91.7616	41.0156	93.1543	41.0156	91.7643	41.0156	93.0257	41.0156	91.7872	41.0156	92.8841	41.0156	91.8298	41.0156	92.736	41.0156	91.8913	41.0156	92.5869	41.0156	91.9709	41.0156	92.4419	41.0156	92.0674	41.0156	92.305	41.0156	92.1793
42.4805	93.1935	42.4805	93.0474	42.4805	93.3323	42.4805	92.8987	42.4805	93.459	42.4805	92.752	42.4805	93.5685	42.4805	92.6115	42.4805	93.6563	42.4805	92.4808	42.4805	93.7182	42.4805	92.3633	42.4805	93.7506	42.4805	92.2617	42.4805	93.7516	42.4805	92.1784	42.4805	93.7204	42.4805	92.1149	42.4805	93.6582	42.4805	92.0722	42.4805	93.568	42.4805	92.0507	42.4805	93.4541	42.4805	92.0505	42.4805	93.3223	42.4805	92.0713	42.4805	93.1787	42.4805	92.1129	42.4805	93.0292	42.4805	92.1746	42.4805	92.8794	42.4805	92.2554	42.4805	92.7336	42.4805	92.3538	42.4805	92.5954	42.4805	92.468
43.9453	93.4052	43.9453	93.2604	43.9453	93.5426	43.9453	93.1128	43.9453	93.6678	43.9453	92.9669	43.9453	93.7758	43.9453	92.8267	43.9453	93.8619	43.9453	92.696	43.9453	93.9221	43.9453	92.5779	43.9453	93.9528	43.9453	92.4753	43.9453	93.9519	43.9453	92.3905	43.9453	93.9188	43.9453	92.3251	43.9453	93.8546	43.9453	92.2802	43.9453	93.7624	43.9453	92.2562	43.9453	93.6466	43.9453	92.2531	43.9453	93.5129	43.9453	92.271	43.9453	93.3678	43.9453	92.3095	43.9453	93.2173	43.9453	92.3685	43.9453	93.0669	43.9453	92.4471	43.9453	92.9212	43.9453	92.5439	43.9453	92.7836	43.9453	92.6569
45.4102	93.4875	45.4102	93.3395	45.4102	93.6288	45.4102	93.1897	45.4102	93.7581	45.4102	93.0426	45.4102	93.8707	45.4102	92.9026	45.4102	93.9614	45.4102	92.7735	45.4102	94.0262	45.4102	92.6586	45.4102	94.0616	45.4102	92.5606	45.4102	94.0654	45.4102	92.4817	45.4102	94.0371	45.4102	92.4231	45.4102	93.9779	45.4102	92.3853	45.4102	93.8907	45.4102	92.3686	45.4102	93.78	45.4102	92.3725	45.4102	93.6512	45.4102	92.3968	45.4102	93.5103	45.4102	92.4413	45.4102	93.3632	45.4102	92.5057	45.4102	93.2151	45.4102	92.5889	45.4102	93.0704	45.4102	92.6894	45.4102	92.9327	45.4102	92.8048
46.875	93.5254	46.875	93.3802	46.875	93.6637	46.875	93.2333	46.875	93.79	46.875	93.0894	46.875	93.8992	46.875	92.953	46.875	93.9866	46.875	92.8281	46.875	94.048	46.875	92.7179	46.875	94.0802	46.875	92.6252	46.875	94.0814	46.875	92.5518	46.875	94.0514	46.875	92.4989	46.875	93.9919	46.875	92.4667	46.875	93.9062	46.875	92.4554	46.875	93.7991	46.875	92.4645	46.875	93.6766	46.875	92.4934	46.875	93.5444	46.875	92.5414	46.875	93.408	46.875	92.6072	46.875	93.2719	46.875	92.6893	46.875	93.1393	46.875	92.7858	46.875	93.0128	46.875	92.8943
48.3398	93.4809	48.3398	93.3408	48.3398	93.6137	48.3398	93.1986	48.3398	93.7344	48.3398	93.059	48.3398	93.8377	48.3398	92.9261	48.3398	93.919	48.3398	92.8039	48.3398	93.9741	48.3398	92.6955	48.3398	93.9998	48.3398	92.6036	48.3398	93.9943	48.3398	92.53	48.3398	93.9575	48.3398	92.476	48.3398	93.891	48.3398	92.4419	48.3398	93.7985	48.3398	92.4276	48.3398	93.6853	48.3398	92.4323	48.3398	93.5577	48.3398	92.455	48.3398	93.4222	48.3398	92.4945	48.3398	93.2849	48.3398	92.5496	48.3398	93.1508	48.3398	92.6192	48.3398	93.0235	48.3398	92.7024	48.3398	92.9054	48.3398	92.798
51.2695	93.4934	51.2695	93.3567	51.2695	93.6194	51.2695	93.2141	51.2695	93.7298	51.2695	93.0703	51.2695	93.8198	51.2695	92.9297	51.2695	93.8849	51.2695	92.7963	51.2695	93.9213	51.2695	92.6737	51.2695	93.9261	51.2695	92.5649	51.2695	93.8979	51.2695	92.4722	51.2695	93.8371	51.2695	92.3972	51.2695	93.746	51.2695	92.3409	51.2695	93.6292	51.2695	92.3036	51.2695	93.4927	51.2695	92.285	51.2695	93.3438	51.2695	92.2846	51.2695	93.19	51.2695	92.3018	51.2695	93.0381	51.2695	92.3362	51.2695	92.8937	51.2695	92.3875	51.2695	92.761	51.2695	92.4557	51.2695	92.6429	51.2695	92.5409
52.7344	93.3558	52.7344	93.2157	52.7344	93.4857	52.7344	93.07	52.7344	93.6004	52.7344	92.9233	52.7344	93.695	52.7344	92.7797	52.7344	93.765	52.7344	92.6431	52.7344	93.8062	52.7344	92.5166	52.7344	93.8154	52.7344	92.4032	52.7344	93.7907	52.7344	92.3051	52.7344	93.7321	52.7344	92.224	52.7344	93.6413	52.7344	92.1613	52.7344	93.5224	52.7344	92.1176	52.7344	93.3812	52.7344	92.0935	52.7344	93.2252	52.7344	92.0892	52.7344	93.062	52.7344	92.1046	52.7344	92.8993	52.7344	92.1396	52.7344	92.7435	52.7344	92.1939	52.7344	92.5997	52.7344	92.2675	52.7344	92.4711	52.7344	92.36
54.1992	93.2312	54.1992	93.0848	54.1992	93.3674	54.1992	92.9332	54.1992	93.4884	54.1992	92.7809	54.1992	93.5893	54.1992	92.6323	54.1992	93.6652	54.1992	92.4913	54.1992	93.7121	54.1992	92.3612	54.1992	93.7266	54.1992	92.2451	54.1992	93.7069	54.1992	92.1452	54.1992	93.6529	54.1992	92.0635	54.1992	93.5663	54.1992	92.0016	54.1992	93.4509	54.1992	91.9603	54.1992	93.3123	54.1992	91.9405	54.1992	93.1576	54.1992	91.9422	54.1992	92.9943	54.1992	91.9654	54.1992	92.8297	54.1992	92.0098	54.1992	92.67	54.1992	92.0748	54.1992	92.5202	54.1992	92.1594	54.1992	92.3837	54.1992	92.2628
55.6641	93.0326	55.6641	92.8845	55.6641	93.1717	55.6641	92.7323	55.6641	93.2967	55.6641	92.5806	55.6641	93.4025	55.6641	92.4335	55.6641	93.4843	55.6641	92.295	55.6641	93.5378	55.6641	92.168	55.6641	93.5597	55.6641	92.0555	55.6641	93.548	55.6641	91.9596	55.6641	93.5021	55.6641	91.8821	55.6641	93.4236	55.6641	91.8245	55.6641	93.316	55.6641	91.7878	55.6641	93.1843	55.6641	91.7727	55.6641	93.035	55.6641	91.7796	55.6641	92.8752	55.6641	91.8084	55.6641	92.7119	55.6641	91.8588	55.6641	92.5513	55.6641	91.93	55.6641	92.3984	55.6641	92.0212	55.6641	92.2573	55.6641	92.1308
58.5938	92.6976	58.5938	92.5384	58.5938	92.8477	58.5938	92.3755	58.5938	92.983	58.5938	92.2142	58.5938	93.0984	58.5938	92.0595	58.5938	93.189	58.5938	91.916	58.5938	93.2505	58.5938	91.7876	58.5938	93.28	58.5938	91.6775	58.5938	93.2757	58.5938	91.5881	58.5938	93.2375	58.5938	91.521	58.5938	93.1671	58.5938	91.4768	58.5938	93.0681	58.5938	91.4559	58.5938	92.9456	58.5938	91.4578	58.5938	92.8055	58.5938	91.4822	58.5938	92.6542	58.5938	91.5285	58.5938	92.4979	58.5938	91.596	58.5938	92.3415	58.5938	91.6835	58.5938	92.1894	58.5938	91.7891	58.5938	92.0448	58.5938	91.9104
60.0586	92.5266	60.0586	92.3706	60.0586	92.6731	60.0586	92.2108	60.0586	92.8049	60.0586	92.0524	60.0586	92.9166	60.0586	91.9006	60.0586	93.0035	60.0586	91.76	60.0586	93.0616	60.0586	91.6346	60.0586	93.0881	60.0586	91.5277	60.0586	93.0816	60.0586	91.4418	60.0586	93.0423	60.0586	91.3785	60.0586	92.9724	60.0586	91.3388	60.0586	92.8756	60.0586	91.3225	60.0586	92.7573	60.0586	91.3292	60.0586	92.6233	60.0586	91.3577	60.0586	92.4796	60.0586	91.4067	60.0586	92.3316	60.0586	91.4749	60.0586	92.1841	60.0586	91.5605	60.0586	92.0406	60.0586	91.6619	60.0586	91.9042	60.0586	91.7772
62.9883	92.1908	62.9883	92.0329	62.9883	92.3381	62.9883	91.8703	62.9883	92.4695	62.9883	91.7082	62.9883	92.5797	62.9883	91.5521	62.9883	92.664	62.9883	91.4069	62.9883	92.7185	62.9883	91.2768	62.9883	92.7405	62.9883	91.1656	62.9883	92.7289	62.9883	91.0761	62.9883	92.6841	62.9883	91.0102	62.9883	92.6085	62.9883	90.9687	62.9883	92.5065	62.9883	90.9517	62.9883	92.3836	62.9883	90.9585	62.9883	92.2461	62.9883	90.9876	62.9883	92.1004	62.9883	91.0375	62.9883	91.9521	62.9883	91.1063	62.9883	91.8057	62.9883	91.1921	62.9883	91.6645	62.9883	91.2928	62.9883	91.5307	62.9883	91.4063
64.4531	92.0136	64.4531	91.8521	64.4531	92.1645	64.4531	91.6858	64.4531	92.2992	64.4531	91.5203	64.4531	92.4123	64.4531	91.3611	64.4531	92.4991	64.4531	91.2132	64.4531	92.5555	64.4531	91.0812	64.4531	92.5788	64.4531	90.9689	64.4531	92.5678	64.4531	90.8792	64.4531	92.5229	64.4531	90.8138	64.4531	92.4467	64.4531	90.7737	64.4531	92.3434	64.4531	90.7586	64.4531	92.2188	64.4531	90.7676	64.4531	92.0794	64.4531	90.7992	64.4531	91.9315	64.4531	90.8515	64.4531	91.7811	64.4531	90.9226	64.4531	91.6327	64.4531	91.0104	64.4531	91.4896	64.4531	91.1128	64.4531	91.3541	64.4531	91.228
67.3828	91.8083	67.3828	91.6403	67.3828	91.965	67.3828	91.467	67.3828	92.1046	67.3828	91.2941	67.3828	92.2217	67.3828	91.1274	67.3828	92.3115	67.3828	90.9721	67.3828	92.3702	67.3828	90.833	67.3828	92.3951	67.3828	90.7143	67.3828	92.3851	67.3828	90.619	67.3828	92.3408	67.3828	90.5496	67.3828	92.2649	67.3828	90.5071	67.3828	92.1616	67.3828	90.4918	67.3828	92.0364	67.3828	90.5029	67.3828	91.8956	67.3828	90.5388	67.3828	91.7455	67.3828	90.5974	67.3828	91.5913	67.3828	90.6762	67.3828	91.4376	67.3828	90.7726	67.3828	91.2876	67.3828	90.8843	67.3828	91.144	67.3828	91.0088
68.8477	91.6943	68.8477	91.523	68.8477	91.8537	68.8477	91.3457	68.8477	91.9952	68.8477	91.1686	68.8477	92.1135	68.8477	90.9976	68.8477	92.2038	68.8477	90.8385	68.8477	92.2626	68.8477	90.6963	68.8477	92.2872	68.8477	90.5753	68.8477	92.2771	68.8477	90.479	68.8477	92.233	68.8477	90.4098	68.8477	92.1578	68.8477	90.3689	68.8477	92.056	68.8477	90.3565	68.8477	91.933	68.8477	90.3719	68.8477	91.795	68.8477	90.4132	68.8477	91.6478	68.8477	90.4781	68.8477	91.4965	68.8477	90.5636	68.8477	91.3448	68.8477	90.6667	68.8477	91.1956	68.8477	90.7842	68.8477	91.0511	68.8477	90.9132
71.7773	91.4939	71.7773	91.3197	71.7773	91.6543	71.7773	91.1378	71.7773	91.7949	71.7773	90.9545	71.7773	91.9106	71.7773	90.7761	71.7773	91.9969	71.7773	90.6086	71.7773	92.0504	71.7773	90.4576	71.7773	92.0691	71.7773	90.328	71.7773	92.0526	71.7773	90.2236	71.7773	92.0024	71.7773	90.1473	71.7773	91.9219	71.7773	90.1007	71.7773	91.8158	71.7773	90.0843	71.7773	91.6902	71.7773	90.0975	71.7773	91.5512	71.7773	90.139	71.7773	91.4043	71.7773	90.2064	71.7773	91.2539	71.7773	90.2967	71.7773	91.1033	71.7773	90.4062	71.7773	90.9541	71.7773	90.5306	71.7773	90.8077	71.7773	90.6657
74.707	91.3591	74.707	91.1846	74.707	91.5186	74.707	91.0013	74.707	91.6571	74.707	90.8157	74.707	91.7694	74.707	90.6345	74.707	91.8512	74.707	90.4639	74.707	91.8993	74.707	90.3099	74.707	91.9117	74.707	90.1776	74.707	91.8885	74.707	90.0711	74.707	91.8314	74.707	89.9934	74.707	91.7443	74.707	89.946	74.707	91.6324	74.707	89.9291	74.707	91.502	74.707	89.9417	74.707	91.3596	74.707	89.9819	74.707	91.211	74.707	90.0469	74.707	91.0605	74.707	90.1335	74.707	90.9111	74.707	90.238	74.707	90.7647	74.707	90.3566	74.707	90.6224	74.707	90.4857
77.6367	91.257	77.6367	91.0828	77.6367	91.4149	77.6367	90.899	77.6367	91.5507	77.6367	90.7121	77.6367	91.6592	77.6367	90.5291	77.6367	91.7361	77.6367	90.3568	77.6367	91.7785	77.6367	90.2014	77.6367	91.7848	77.6367	90.0687	77.6367	91.7554	77.6367	89.963	77.6367	91.6928	77.6367	89.8877	77.6367	91.6014	77.6367	89.8442	77.6367	91.487	77.6367	89.8326	77.6367	91.3565	77.6367	89.851	77.6367	91.2167	77.6367	89.8967	77.6367	91.0732	77.6367	89.9657	77.6367	90.9301	77.6367	90.0537	77.6367	90.7897	77.6367	90.1566	77.6367	90.653	77.6367	90.2705	77.6367	90.5204	77.6367	90.3925
79.1016	91.2297	79.1016	91.057	79.1016	91.3855	79.1016	90.874	79.1016	91.5185	79.1016	90.6874	79.1016	91.6236	79.1016	90.5042	79.1016	91.6964	79.1016	90.3311	79.1016	91.7341	79.1016	90.1746	79.1016	91.7353	79.1016	90.0404	79.1016	91.7004	79.1016	89.9331	79.1016	91.6323	79.1016	89.856	79.1016	91.5355	79.1016	89.8107	79.1016	91.4164	79.1016	89.7973	79.1016	91.2823	79.1016	89.8139	79.1016	91.1403	79.1016	89.8575	79.1016	90.9964	79.1016	89.9241	79.1016	90.8547	79.1016	90.0091	79.1016	90.7173	79.1016	90.1082	79.1016	90.5848	79.1016	90.2176	79.1016	90.4572	79.1016	90.3345
82.0312	91.1893	82.0312	91.015	82.0312	91.3458	82.0312	90.8295	82.0312	91.4785	82.0312	90.6398	82.0312	91.582	82.0312	90.453	82.0312	91.6521	82.0312	90.2762	82.0312	91.6858	82.0312	90.116	82.0312	91.6818	82.0312	89.9782	82.0312	91.6407	82.0312	89.8677	82.0312	91.5652	82.0312	89.7876	82.0312	91.4604	82.0312	89.7396	82.0312	91.3328	82.0312	89.7234	82.0312	91.1902	82.0312	89.737	82.0312	91.0403	82.0312	89.7771	82.0312	90.8898	82.0312	89.8395	82.0312	90.7435	82.0312	89.9196	82.0312	90.604	82.0312	90.0134	82.0312	90.472	82.0312	90.1173	82.0312	90.3472	82.0312	90.2289
84.9609	91.1307	84.9609	90.9563	84.9609	91.2872	84.9609	90.7708	84.9609	91.4197	84.9609	90.5812	84.9609	91.5227	84.9609	90.395	84.9609	91.5922	84.9609	90.219	84.9609	91.6253	84.9609	90.0602	84.9609	91.6209	84.9609	89.9245	84.9609	91.5801	84.9609	89.8168	84.9609	91.5061	84.9609	89.7405	84.9609	91.4041	84.9609	89.697	84.9609	91.2809	84.9609	89.6862	84.9609	91.1443	84.9609	89.7057	84.9609	91.0015	84.9609	89.7517	84.9609	90.8586	84.9609	89.8196	84.9609	90.7194	84.9609	89.9043	84.9609	90.5859	84.9609	90.0014	84.9609	90.4583	84.9609	90.1071	84.9609	90.3362	84.9609	90.2191
87.8906	91.1566	87.8906	90.9798	87.8906	91.3139	87.8906	90.7907	87.8906	91.4454	87.8906	90.5968	87.8906	91.5456	87.8906	90.4058	87.8906	91.6106	87.8906	90.2254	87.8906	91.6375	87.8906	90.0628	87.8906	91.6255	87.8906	89.9243	87.8906	91.5762	87.8906	89.8149	87.8906	91.493	87.8906	89.7382	87.8906	91.382	87.8906	89.6958	87.8906	91.2509	87.8906	89.687	87.8906	91.1081	87.8906	89.7091	87.8906	90.962	87.8906	89.7579	87.8906	90.819	87.8906	89.8276	87.8906	90.6833	87.8906	89.9126	87.8906	90.5561	87.8906	90.0078	87.8906	90.4368	87.8906	90.1092	87.8906	90.3236	87.8906	90.2146
90.8203	91.09	90.8203	90.904	90.8203	91.2561	90.8203	90.7055	90.8203	91.3955	90.8203	90.5026	90.8203	91.5027	90.8203	90.3036	90.8203	91.5733	90.8203	90.1167	90.8203	91.6047	90.8203	89.9493	90.8203	91.5964	90.8203	89.8081	90.8203	91.55	90.8203	89.698	90.8203	91.4695	90.8203	89.6226	90.8203	91.3612	90.8203	89.5832	90.8203	91.2328	90.8203	89.5791	90.8203	91.093	90.8203	89.6076	90.8203	90.9494	90.8203	89.6645	90.8203	90.8081	90.8203	89.744	90.8203	90.6723	90.8203	89.8401	90.8203	90.5426	90.8203	89.9472	90.8203	90.418	90.8203	90.0608	90.8203	90.2968	90.8203	90.1778
95.2148	91.2824	95.2148	91.0913	95.2148	91.4501	95.2148	90.8844	95.2148	91.5877	95.2148	90.6704	95.2148	91.6897	95.2148	90.4583	95.2148	91.7523	95.2148	90.2573	95.2148	91.7735	95.2148	90.0759	95.2148	91.7531	95.2148	89.9218	95.2148	91.6935	95.2148	89.8009	95.2148	91.5994	95.2148	89.717	95.2148	91.478	95.2148	89.6718	95.2148	91.338	95.2148	89.6645	95.2148	91.1885	95.2148	89.6921	95.2148	91.038	95.2148	89.7494	95.2148	90.8925	95.2148	89.8303	95.2148	90.7552	95.2148	89.9278	95.2148	90.626	95.2148	90.0359	95.2148	90.503	95.2148	90.1497	95.2148	90.3836	95.2148	90.266
98.1445	91.3645	98.1445	91.1733	98.1445	91.5305	98.1445	90.9648	98.1445	91.6645	98.1445	90.7478	98.1445	91.7613	98.1445	90.5318	98.1445	91.817	98.1445	90.3265	98.1445	91.8299	98.1445	90.1411	98.1445	91.8006	98.1445	89.9839	98.1445	91.7319	98.1445	89.8615	98.1445	91.6295	98.1445	89.7783	98.1445	91.5018	98.1445	89.7361	98.1445	91.3586	98.1445	89.7339	98.1445	91.2101	98.1445	89.768	98.1445	91.065	98.1445	89.8322	98.1445	90.9289	98.1445	89.9193	98.1445	90.8036	98.1445	90.0216	98.1445	90.6874	98.1445	90.1319	98.1445	90.5767	98.1445	90.245	98.1445	90.4676	98.1445	90.3573
101.074	91.3353	101.074	91.1362	101.074	91.5074	101.074	90.9185	101.074	91.6457	101.074	90.6912	101.074	91.7446	101.074	90.4641	101.074	91.8	101.074	90.2472	101.074	91.8099	101.074	90.05	101.074	91.7744	101.074	89.8809	101.074	91.696	101.074	89.7466	101.074	91.5804	101.074	89.6518	101.074	91.4362	101.074	89.5987	101.074	91.2744	101.074	89.5871	101.074	91.107	101.074	89.614	101.074	90.9449	101.074	89.6742	101.074	90.7959	101.074	89.7605	101.074	90.6627	101.074	89.8651	101.074	90.5433	101.074	89.9796	101.074	90.4323	101.074	90.0971	101.074	90.3237	101.074	90.2124
105.469	91.4092	105.469	91.1987	105.469	91.5894	105.469	90.966	105.469	91.7327	105.469	90.7209	105.469	91.8346	105.469	90.4742	105.469	91.892	105.469	90.2377	105.469	91.9039	105.469	90.0224	105.469	91.8713	105.469	89.8386	105.469	91.7974	105.469	89.694	105.469	91.6879	105.469	89.5939	105.469	91.5506	105.469	89.541	105.469	91.395	105.469	89.5346	105.469	91.2312	105.469	89.5713	105.469	91.0683	105.469	89.6446	105.469	90.913	105.469	89.746	105.469	90.7681	105.469	89.8657	105.469	90.6332	105.469	89.9944	105.469	90.5052	105.469	90.1251	105.469	90.38	105.469	90.2539
108.398	91.6101	108.398	91.4002	108.398	91.7862	108.398	91.1644	108.398	91.9222	108.398	90.9126	108.398	92.0135	108.398	90.656	108.398	92.0573	108.398	90.4071	108.398	92.0528	108.398	90.1783	108.398	92.0015	108.398	89.9814	108.398	91.9075	108.398	89.8255	108.398	91.7778	108.398	89.7168	108.398	91.622	108.398	89.6578	108.398	91.4515	108.398	89.6474	108.398	91.278	108.398	89.6814	108.398	91.1115	108.398	89.7524	108.398	90.9584	108.398	89.8513	108.398	90.8205	108.398	89.9679	108.398	90.6951	108.398	90.0929	108.398	90.5771	108.398	90.2191	108.398	90.4609	108.398	90.3422
112.793	91.732	112.793	91.5245	112.793	91.9049	112.793	91.2902	112.793	92.0373	112.793	91.0382	112.793	92.1245	112.793	90.7793	112.793	92.1636	112.793	90.5255	112.793	92.1538	112.793	90.2897	112.793	92.097	112.793	90.0848	112.793	91.9977	112.793	89.9219	112.793	91.8638	112.793	89.8093	112.793	91.706	112.793	89.751	112.793	91.537	112.793	89.7463	112.793	91.3694	112.793	89.7903	112.793	91.2134	112.793	89.8743	112.793	91.0748	112.793	89.9875	112.793	90.9535	112.793	90.1182	112.793	90.8447	112.793	90.2555	112.793	90.7405	112.793	90.3904	112.793	90.6331	112.793	90.517
117.188	91.7791	117.188	91.5711	117.188	91.9525	117.188	91.3365	117.188	92.0843	117.188	91.0849	117.188	92.1691	117.188	90.8267	117.188	92.2034	117.188	90.5737	117.188	92.1857	117.188	90.3384	117.188	92.1176	117.188	90.1334	117.188	92.0041	117.188	89.9702	117.188	91.8541	117.188	89.8576	117.188	91.6803	117.188	89.8003	117.188	91.4977	117.188	89.798	117.188	91.322	117.188	89.8453	117.188	91.1655	117.188	89.9327	117.188	91.0345	117.188	90.0485	117.188	90.9277	117.188	90.18	117.188	90.8376	117.188	90.3154	117.188	90.7531	117.188	90.4448	117.188	90.6636	117.188	90.5617
120.117	91.8339	120.117	91.6135	120.117	92.0191	120.117	91.3676	120.117	92.1613	120.117	91.1069	120.117	92.2542	120.117	90.8432	120.117	92.2937	120.117	90.5889	120.117	92.2782	120.117	90.3564	120.117	92.2089	120.117	90.1573	120.117	92.0904	120.117	90.0014	120.117	91.9315	120.117	89.8957	120.117	91.7453	120.117	89.8438	120.117	91.5478	120.117	89.8448	120.117	91.3568	120.117	89.8939	120.117	91.1874	120.117	89.9823	120.117	91.0485	120.117	90.099	120.117	90.9405	120.117	90.2313	120.117	90.8551	120.117	90.3666	120.117	90.7792	120.117	90.4938	120.117	90.6994	120.117	90.6055
124.512	91.9508	124.512	91.7191	124.512	92.1415	124.512	91.4556	124.512	92.2842	124.512	91.1714	124.512	92.3737	124.512	90.8798	124.512	92.4073	124.512	90.5955	124.512	92.3841	124.512	90.3343	124.512	92.3065	124.512	90.1116	124.512	92.1799	124.512	89.9407	124.512	92.0136	124.512	89.8311	124.512	91.8211	124.512	89.7868	124.512	91.619	124.512	89.8059	124.512	91.4249	124.512	89.8807	124.512	91.2543	124.512	89.9985	124.512	91.1166	124.512	90.1439	124.512	91.012	124.512	90.3001	124.512	90.9324	124.512	90.4521	124.512	90.8636	124.512	90.5878	124.512	90.7904	124.512	90.7007
128.906	92.078	128.906	91.8484	128.906	92.2645	128.906	91.5843	128.906	92.4012	128.906	91.2961	128.906	92.4831	128.906	90.9964	128.906	92.5076	128.906	90.699	128.906	92.4738	128.906	90.4193	128.906	92.3838	128.906	90.1725	128.906	92.2428	128.906	89.9727	128.906	92.0598	128.906	89.831	128.906	91.8477	128.906	89.7542	128.906	91.6231	128.906	89.7432	128.906	91.4045	128.906	89.7927	128.906	91.2088	128.906	89.8917	128.906	91.0477	128.906	90.0249	128.906	90.9233	128.906	90.1748	128.906	90.8287	128.906	90.3245	128.906	90.7497	128.906	90.4608	128.906	90.6699	128.906	90.5761
133.301	92.1462	133.301	91.9203	133.301	92.3273	133.301	91.6582	133.301	92.4571	133.301	91.3705	133.301	92.5309	133.301	91.0697	133.301	92.5463	133.301	90.7702	133.301	92.503	133.301	90.4875	133.301	92.4036	133.301	90.2374	133.301	92.2539	133.301	90.0344	133.301	92.0634	133.301	89.8895	133.301	91.8455	133.301	89.8091	133.301	91.6169	133.301	89.7935	133.301	91.3959	133.301	89.837	133.301	91.199	133.301	89.9284	133.301	91.0372	133.301	90.0529	133.301	90.9126	133.301	90.1939	133.301	90.8183	133.301	90.3353	133.301	90.7405	133.301	90.4643	133.301	90.6634	133.301	90.5738
139.16	92.1204	139.16	91.8903	139.16	92.3063	139.16	91.6244	139.16	92.4411	139.16	91.3336	139.16	92.52	139.16	91.0303	139.16	92.5405	139.16	90.7287	139.16	92.502	139.16	90.4437	139.16	92.4066	139.16	90.1904	139.16	92.259	139.16	89.982	139.16	92.0672	139.16	89.8283	139.16	91.8427	139.16	89.7342	139.16	91.5996	139.16	89.6991	139.16	91.3543	139.16	89.7167	139.16	91.1224	139.16	89.7766	139.16	90.9164	139.16	89.8657	139.16	90.7427	139.16	89.9708	139.16	90.601	139.16	90.0803	139.16	90.4847	139.16	90.1865	139.16	90.3834	139.16	90.2866
143.555	91.8479	143.555	91.5953	143.555	92.0552	143.555	91.3068	143.555	92.2103	143.555	90.9944	143.555	92.3083	143.555	90.6723	143.555	92.3473	143.555	90.3572	143.555	92.3281	143.555	90.0677	143.555	92.255	143.555	89.8226	143.555	92.136	143.555	89.6388	143.555	91.9826	143.555	89.5282	143.555	91.8096	143.555	89.495	143.555	91.6331	143.555	89.5349	143.555	91.4674	143.555	89.6362	143.555	91.3221	143.555	89.7825	143.555	91.1992	143.555	89.9562	143.555	91.0934	143.555	90.1406	143.555	90.9947	143.555	90.3225	143.555	90.8923	143.555	90.4924	143.555	90.7774	143.555	90.6446
147.949	92.0315	147.949	91.7812	147.949	92.2272	147.949	91.4858	147.949	92.3615	147.949	91.1572	147.949	92.43	147.949	90.8098	147.949	92.4316	147.949	90.4603	147.949	92.3684	147.949	90.1278	147.949	92.2461	147.949	89.8333	147.949	92.0751	147.949	89.5973	147.949	91.87	147.949	89.4375	147.949	91.6498	147.949	89.3647	147.949	91.4358	147.949	89.3804	147.949	91.2478	147.949	89.4755	147.949	91.0992	147.949	89.6327	147.949	90.9926	147.949	89.8295	147.949	90.9189	147.949	90.0429	147.949	90.8605	147.949	90.2516	147.949	90.7973	147.949	90.4388	147.949	90.712	147.949	90.5936
153.809	91.9812	153.809	91.7318	153.809	92.1738	153.809	91.4364	153.809	92.3016	153.809	91.1083	153.809	92.3596	153.809	90.7628	153.809	92.3457	153.809	90.4172	153.809	92.261	153.809	90.09	153.809	92.1108	153.809	89.8003	153.809	91.905	153.809	89.5667	153.809	91.66	153.809	89.4054	153.809	91.3983	153.809	89.3272	153.809	91.1474	153.809	89.3349	153.809	90.9346	153.809	89.4214	153.809	90.7793	153.809	89.5703	153.809	90.6857	153.809	89.759	153.809	90.641	153.809	89.9627	153.809	90.6205	153.809	90.1586	153.809	90.5969	153.809	90.3281	153.809	90.5476	153.809	90.4594
159.668	92.0446	159.668	91.769	159.668	92.26	159.668	91.4434	159.668	92.4082	159.668	91.081	159.668	92.4844	159.668	90.6983	159.668	92.4863	159.668	90.3151	159.668	92.4142	159.668	89.9535	159.668	92.2716	159.668	89.6366	159.668	92.066	159.668	89.3859	159.668	91.8107	159.668	89.2186	159.668	91.5257	159.668	89.1445	159.668	91.2376	159.668	89.1638	159.668	90.977	159.668	89.2666	159.668	90.7709	159.668	89.4341	159.668	90.6337	159.668	89.6417	159.668	90.5605	159.668	89.8627	159.668	90.5286	159.668	90.0721	159.668	90.5064	159.668	90.2494	159.668	90.4641	159.668	90.3812
165.527	91.9137	165.527	91.6133	165.527	92.1479	165.527	91.2573	165.527	92.3089	165.527	90.8602	165.527	92.3928	165.527	90.44	165.527	92.3989	165.527	90.0188	165.527	92.3298	165.527	89.6218	165.527	92.1914	165.527	89.2761	165.527	91.9939	165.527	89.0084	165.527	91.7522	165.527	88.8402	165.527	91.4872	165.527	88.7835	165.527	91.224	165.527	88.8368	165.527	90.9891	165.527	88.9853	165.527	90.8039	165.527	89.2039	165.527	90.6778	165.527	89.4626	165.527	90.6044	165.527	89.731	165.527	90.5628	165.527	89.9822	165.527	90.5247	165.527	90.1947	165.527	90.4624	165.527	90.3556
171.387	91.8816	171.387	91.5751	171.387	92.112	171.387	91.199	171.387	92.2624	171.387	90.7633	171.387	92.3311	171.387	90.2825	171.387	92.318	171.387	89.7764	171.387	92.2254	171.387	89.2714	171.387	92.0578	171.387	88.8005	171.387	91.8237	171.387	88.4022	171.387	91.5369	171.387	88.1159	171.387	91.2195	171.387	87.9742	171.387	90.9016	171.387	87.9919	171.387	90.6188	171.387	88.1592	171.387	90.4024	171.387	88.4423	171.387	90.2671	171.387	88.7927	171.387	90.2032	171.387	89.1589	171.387	90.1801	171.387	89.4967	171.387	90.1576	171.387	89.7743	171.387	90.0985	171.387	89.9753
177.246	91.823	177.246	91.545	177.246	92.0254	177.246	91.1962	177.246	92.1495	177.246	90.7838	177.246	92.1944	177.246	90.3181	177.246	92.1605	177.246	89.8133	177.246	92.0497	177.246	89.2887	177.246	91.8655	177.246	88.7707	177.246	91.6144	177.246	88.2946	177.246	91.3079	177.246	87.9038	177.246	90.9648	177.246	87.6448	177.246	90.614	177.246	87.5534	177.246	90.2925	177.246	87.6392	177.246	90.0369	177.246	87.8775	177.246	89.8689	177.246	88.2167	177.246	89.7824	177.246	88.5951	177.246	89.7448	177.246	88.9573	177.246	89.7099	177.246	89.2632	177.246	89.6351	177.246	89.4905
183.105	91.6627	183.105	91.424	183.105	91.8366	183.105	91.1232	183.105	91.9439	183.105	90.7646	183.105	91.9832	183.105	90.3549	183.105	91.9534	183.105	89.904	183.105	91.8544	183.105	89.4248	183.105	91.6872	183.105	88.9339	183.105	91.4548	183.105	88.4521	183.105	91.1633	183.105	88.0067	183.105	90.8234	183.105	87.634	183.105	90.4533	183.105	87.3761	183.105	90.0805	183.105	87.2708	183.105	89.7394	183.105	87.333	183.105	89.4623	183.105	87.5423	183.105	89.2646	183.105	87.8467	183.105	89.1336	183.105	88.1816	183.105	89.0317	183.105	88.4903	183.105	88.9121	183.105	88.7371
188.965	91.2362	188.965	90.9705	188.965	91.442	188.965	90.6547	188.965	91.5786	188.965	90.2984	188.965	91.6389	188.965	89.9112	188.965	91.6193	188.965	89.5037	188.965	91.5198	188.965	89.0889	188.965	91.3455	188.965	88.6831	188.965	91.1064	188.965	88.3061	188.965	90.8181	188.965	87.98	188.965	90.5017	188.965	87.728	188.965	90.1826	188.965	87.5713	188.965	89.8863	188.965	87.5237	188.965	89.632	188.965	87.5852	188.965	89.4263	188.965	87.7391	188.965	89.2619	188.965	87.9549	188.965	89.1214	188.965	88.1974	188.965	88.9839	188.965	88.4357	188.965	88.8308	188.965	88.6494
196.289	91.249	196.289	90.9182	196.289	91.5041	196.289	90.5231	196.289	91.6753	196.289	90.0773	196.289	91.7575	196.289	89.5968	196.289	91.7493	196.289	89.0995	196.289	91.6517	196.289	88.6057	196.289	91.4688	196.289	88.1382	196.289	91.2075	196.289	87.7215	196.289	90.879	196.289	87.3806	196.289	90.5009	196.289	87.1392	196.289	90.1005	196.289	87.0172	196.289	89.7148	196.289	87.0265	196.289	89.3853	196.289	87.1642	196.289	89.143	196.289	87.4079	196.289	88.9928	196.289	87.7176	196.289	88.9076	196.289	88.0443	196.289	88.8398	196.289	88.3421	196.289	88.7411	196.289	88.5786
203.613	91.2756	203.613	90.9291	203.613	91.5443	203.613	90.5155	203.613	91.7285	203.613	90.0489	203.613	91.8252	203.613	89.5457	203.613	91.8346	203.613	89.0232	203.613	91.7591	203.613	88.4994	203.613	91.6022	203.613	87.9924	203.613	91.3675	203.613	87.5231	203.613	91.0599	203.613	87.1174	203.613	90.6883	203.613	86.8068	203.613	90.271	203.613	86.6238	203.613	89.8397	203.613	86.5908	203.613	89.4379	203.613	86.7069	203.613	89.1074	203.613	86.9443	203.613	88.8667	203.613	87.2569	203.613	88.6982	203.613	87.5945	203.613	88.5576	203.613	87.9141	203.613	88.3975	203.613	88.1859
210.938	91.0993	210.938	90.7284	210.938	91.3855	210.938	90.2843	210.938	91.5821	210.938	89.7848	210.938	91.6897	210.938	89.2536	210.938	91.7136	210.938	88.7182	210.938	91.6621	210.938	88.2059	210.938	91.5451	210.938	87.7393	210.938	91.3723	210.938	87.3334	210.938	91.1515	210.938	86.9973	210.938	90.8887	210.938	86.7399	210.938	90.5904	210.938	86.5773	210.938	90.2669	210.938	86.5326	210.938	89.9354	210.938	86.625	210.938	89.6184	210.938	86.8539	210.938	89.335	210.938	87.1897	210.938	89.0882	210.938	87.581	210.938	88.8589	210.938	87.9723	210.938	88.6137	210.938	88.3219
218.262	90.9634	218.262	90.5778	218.262	91.2465	218.262	90.0972	218.262	91.4236	218.262	89.5339	218.262	91.4951	218.262	88.9079	218.262	91.4662	218.262	88.2498	218.262	91.3473	218.262	87.6041	218.262	91.1555	218.262	87.027	218.262	90.9147	218.262	86.578	218.262	90.6542	218.262	86.3034	218.262	90.4042	218.262	86.2233	218.262	90.1902	218.262	86.3303	218.262	90.0265	218.262	86.5997	218.262	89.9151	218.262	86.9977	218.262	89.8472	218.262	87.4824	218.262	89.8051	218.262	88.0038	218.262	89.7623	218.262	88.5088	218.262	89.6851	218.262	88.9504	218.262	89.5389	218.262	89.2973
225.586	91.6419	225.586	91.2665	225.586	91.9115	225.586	90.7923	225.586	92.0712	225.586	90.2294	225.586	92.12	225.586	89.591	225.586	92.0607	225.586	88.8964	225.586	91.8992	225.586	88.1741	225.586	91.6455	225.586	87.4667	225.586	91.3149	225.586	86.833	225.586	90.9302	225.586	86.3437	225.586	90.5235	225.586	86.0679	225.586	90.1355	225.586	86.0521	225.586	89.8085	225.586	86.2991	225.586	89.5741	225.586	86.7612	225.586	89.4432	225.586	87.3527	225.586	89.4019	225.586	87.9735	225.586	89.4154	225.586	88.5335	225.586	89.4334	225.586	88.9702	225.586	89.3982	225.586	89.2559
232.91	91.7521	232.91	91.3924	232.91	92.0081	232.91	90.9335	232.91	92.1592	232.91	90.3836	232.91	92.2066	232.91	89.7548	232.91	92.1539	232.91	89.0653	232.91	92.0064	232.91	88.3413	232.91	91.7718	232.91	87.6202	232.91	91.4616	232.91	86.9522	232.91	91.094	232.91	86.3978	232.91	90.6959	232.91	86.0202	232.91	90.3039	232.91	85.8709	232.91	89.9573	232.91	85.9732	232.91	89.6854	232.91	86.3056	232.91	89.4941	232.91	86.8012	232.91	89.3638	232.91	87.3661	232.91	89.2595	232.91	87.9105	232.91	89.1421	232.91	88.3725	232.91	88.9749	232.91	88.726
241.699	91.6023	241.699	91.2322	241.699	91.8694	241.699	90.7646	241.699	92.0298	241.699	90.2054	241.699	92.0826	241.699	89.5616	241.699	92.0319	241.699	88.8446	241.699	91.8866	241.699	88.0754	241.699	91.6605	241.699	87.2923	241.699	91.3711	241.699	86.5561	241.699	91.038	241.699	85.948	241.699	90.6833	241.699	85.5541	241.699	90.332	241.699	85.4356	241.699	90.0117	241.699	85.6017	241.699	89.7473	241.699	86.0047	241.699	89.5504	241.699	86.5593	241.699	89.4104	241.699	87.1712	241.699	89.295	241.699	87.7598	241.699	89.1603	241.699	88.2695	241.699	88.9634	241.699	88.672
250.488	92.4626	250.488	92.0752	250.488	92.7387	250.488	91.5865	250.488	92.8957	250.488	91.0071	250.488	92.9288	250.488	90.3472	250.488	92.8369	250.488	89.6161	250.488	92.6235	250.488	88.823	250.488	92.2973	250.488	87.9789	250.488	91.8746	250.488	87.1057	250.488	91.384	250.488	86.249	250.488	90.8707	250.488	85.496	250.488	90.3957	250.488	84.9768	250.488	90.0188	250.488	84.819	250.488	89.7674	250.488	85.0601	250.488	89.614	250.488	85.6083	250.488	89.4901	250.488	86.308	250.488	89.3242	250.488	87.0258	250.488	89.0707	250.488	87.6837	250.488	88.7127	250.488	88.2492
259.277	92.1382	259.277	91.7217	259.277	92.4537	259.277	91.2233	259.277	92.6528	259.277	90.6588	259.277	92.7275	259.277	90.0368	259.277	92.679	259.277	89.3599	259.277	92.5161	259.277	88.633	259.277	92.2528	259.277	87.8729	259.277	91.9072	259.277	87.1157	259.277	91.5007	259.277	86.4183	259.277	91.0609	259.277	85.8548	259.277	90.6257	259.277	85.5078	259.277	90.2455	259.277	85.4475	259.277	89.9715	259.277	85.6969	259.277	89.8255	259.277	86.2097	259.277	89.773	259.277	86.8874	259.277	89.7313	259.277	87.6206	259.277	89.6086	259.277	88.3163	259.277	89.3408	259.277	88.9049
268.066	92.2681	268.066	91.8221	268.066	92.5796	268.066	91.2573	268.066	92.7479	268.066	90.5938	268.066	92.7709	268.066	89.8532	268.066	92.6522	268.066	89.0549	268.066	92.401	268.066	88.2162	268.066	92.0338	268.066	87.3552	268.066	91.5784	268.066	86.4968	268.066	91.0782	268.066	85.6839	268.066	90.593	268.066	84.9944	268.066	90.1914	268.066	84.5551	268.066	89.9298	268.066	84.5061	268.066	89.8228	268.066	84.8983	268.066	89.8276	268.066	85.6286	268.066	89.8596	268.066	86.5149	268.066	89.8289	268.066	87.4027	268.066	89.6696	268.066	88.1987	268.066	89.3478	268.066	88.8549
276.855	92.8849	276.855	92.4641	276.855	93.1789	276.855	91.9311	276.855	93.3398	276.855	91.3056	276.855	93.3671	276.855	90.6019	276.855	93.2611	276.855	89.8209	276.855	93.0179	276.855	88.9521	276.855	92.6286	276.855	87.9893	276.855	92.085	276.855	86.9556	276.855	91.3939	276.855	85.9234	276.855	90.5995	276.855	85.0185	276.855	89.8052	276.855	84.3914	276.855	89.1724	276.855	84.1666	276.855	88.8553	276.855	84.3955	276.855	88.8848	276.855	85.0302	276.855	89.1235	276.855	85.9354	276.855	89.3577	276.855	86.9408	276.855	89.4104	276.855	87.8915	276.855	89.1866	276.855	88.6674
287.109	92.4716	287.109	92.1432	287.109	92.6957	287.109	91.7204	287.109	92.8175	287.109	91.2292	287.109	92.8452	287.109	90.7052	287.109	92.7881	287.109	90.1752	287.109	92.6534	287.109	89.6337	287.109	92.4432	287.109	89.0375	287.109	92.1527	287.109	88.3257	287.109	91.7741	287.109	87.4599	287.109	91.3097	287.109	86.4725	287.109	90.7897	287.109	85.5212	287.109	90.2843	287.109	84.9049	287.109	89.8876	287.109	84.9139	287.109	89.6676	287.109	85.5586	287.109	89.6162	287.109	86.564	287.109	89.6507	287.109	87.6187	287.109	89.6553	287.109	88.5149	287.109	89.5184	287.109	89.1533
297.363	92.9776	297.363	92.687	297.363	93.1418	297.363	92.2791	297.363	93.1726	297.363	91.7695	297.363	93.0675	297.363	91.187	297.363	92.8329	297.363	90.5743	297.363	92.4868	297.363	89.9727	297.363	92.0567	297.363	89.3929	297.363	91.5721	297.363	88.7987	297.363	91.0554	297.363	88.124	297.363	90.5214	297.363	87.3204	297.363	89.9946	297.363	86.4204	297.363	89.5359	297.363	85.613	297.363	89.2474	297.363	85.2627	297.363	89.2123	297.363	85.656	297.363	89.403	297.363	86.6379	297.363	89.6734	297.363	87.781	297.363	89.849	297.363	88.7639	297.363	89.7986	297.363	89.4464
307.617	92.4523	307.617	92.0892	307.617	92.6874	307.617	91.6018	307.617	92.7983	307.617	91.0055	307.617	92.7922	307.617	90.3289	307.617	92.6751	307.617	89.6133	307.617	92.4516	307.617	88.9059	307.617	92.1274	307.617	88.2461	307.617	91.7161	307.617	87.647	307.617	91.2432	307.617	87.0875	307.617	90.7451	307.617	86.5308	307.617	90.2624	307.617	85.9688	307.617	89.8354	307.617	85.4776	307.617	89.505	307.617	85.2386	307.617	89.3057	307.617	85.4409	307.617	89.2374	307.617	86.0894	307.617	89.2371	307.617	86.9746	307.617	89.1907	307.617	87.846	307.617	88.9824	307.617	88.5379
319.336	92.3039	319.336	92.0069	319.336	92.485	319.336	91.5992	319.336	92.5455	319.336	91.086	319.336	92.4845	319.336	90.4764	319.336	92.3061	319.336	89.7906	319.336	92.0174	319.336	89.0655	319.336	91.6239	319.336	88.3478	319.336	91.127	319.336	87.672	319.336	90.5309	319.336	87.0363	319.336	89.8641	319.336	86.4075	319.336	89.2083	319.336	85.7708	319.336	88.7044	319.336	85.2043	319.336	88.4818	319.336	84.9152	319.336	88.5422	319.336	85.123	319.336	88.7468	319.336	85.8174	319.336	88.9252	319.336	86.7425	319.336	88.9547	319.336	87.6294	319.336	88.7651	319.336	88.3228
329.59	91.7876	329.59	91.445	329.59	92.0209	329.59	91.0165	329.59	92.1262	329.59	90.5238	329.59	92.0951	329.59	89.983	329.59	91.931	329.59	89.4019	329.59	91.6479	329.59	88.7848	329.59	91.2663	329.59	88.1408	329.59	90.8083	329.59	87.4942	329.59	90.2947	329.59	86.88	329.59	89.747	329.59	86.3213	329.59	89.1979	329.59	85.8127	329.59	88.7123	329.59	85.3583	329.59	88.3928	329.59	85.0586	329.59	88.3244	329.59	85.1272	329.59	88.4796	329.59	85.6956	329.59	88.7079	329.59	86.6053	329.59	88.8283	329.59	87.5437	329.59	88.7073	329.59	88.2779
341.309	92.176	341.309	91.9325	341.309	92.2687	341.309	91.5549	341.309	92.2052	341.309	91.0656	341.309	91.9968	341.309	90.4897	341.309	91.6717	341.309	89.8546	341.309	91.2654	341.309	89.185	341.309	90.8019	341.309	88.4914	341.309	90.28	341.309	87.758	341.309	89.6851	341.309	86.9514	341.309	89.036	341.309	86.0653	341.309	88.4471	341.309	85.1936	341.309	88.1295	341.309	84.579	341.309	88.2319	341.309	84.5037	341.309	88.651	341.309	85.0176	341.309	89.1168	341.309	85.8937	341.309	89.405	341.309	86.8721	341.309	89.4108	341.309	87.7914	341.309	89.1188	341.309	88.5615
353.027	92.527	353.027	92.2579	353.027	92.6723	353.027	91.8871	353.027	92.6767	353.027	91.4382	353.027	92.5298	353.027	90.93	353.027	92.2281	353.027	90.3767	353.027	91.7793	353.027	89.7911	353.027	91.2061	353.027	89.1862	353.027	90.5422	353.027	88.5661	353.027	89.813	353.027	87.9115	353.027	89.0124	353.027	87.1744	353.027	88.1207	353.027	86.3042	353.027	87.2088	353.027	85.3272	353.027	86.5867	353.027	84.5023	353.027	86.6634	353.027	84.357	353.027	87.3706	353.027	85.1284	353.027	88.1837	353.027	86.3616	353.027	88.6971	353.027	87.5236	353.027	88.7595	353.027	88.3554
366.211	93.4428	366.211	93.1686	366.211	93.5584	366.211	92.7409	366.211	93.5174	366.211	92.1809	366.211	93.3212	366.211	91.5274	366.211	92.9689	366.211	90.8265	366.211	92.4579	366.211	90.1115	366.211	91.7832	366.211	89.389	366.211	90.9381	366.211	88.6391	366.211	89.9264	366.211	87.8239	366.211	88.7968	366.211	86.8968	366.211	87.6857	366.211	85.8321	366.211	86.8115	366.211	84.7189	366.211	86.368	366.211	83.9207	366.211	86.4269	366.211	83.9942	366.211	86.9416	366.211	85.0126	366.211	87.7078	366.211	86.4084	366.211	88.3872	366.211	87.6436	366.211	88.6815	366.211	88.438
379.395	92.8298	379.395	92.5529	379.395	93.0497	379.395	92.2354	379.395	93.1784	379.395	91.8642	379.395	93.1885	379.395	91.4132	379.395	93.0693	379.395	90.8749	379.395	92.8221	379.395	90.2752	379.395	92.4506	379.395	89.6614	379.395	91.9541	379.395	89.0729	379.395	91.3234	379.395	88.5108	379.395	90.5415	379.395	87.9234	379.395	89.6013	379.395	87.2187	379.395	88.5595	379.395	86.3147	379.395	87.6138	379.395	85.2501	379.395	87.0713	379.395	84.3843	379.395	87.0578	379.395	84.3757	379.395	87.3437	379.395	85.3053	379.395	87.6048	379.395	86.4485	379.395	87.6235	379.395	87.2621
392.578	92.7976	392.578	92.4386	392.578	92.9426	392.578	91.9299	392.578	92.865	392.578	91.3681	392.578	92.607	392.578	90.8322	392.578	92.2397	392.578	90.341	392.578	91.8308	392.578	89.8578	392.578	91.4139	392.578	89.3306	392.578	90.9816	392.578	88.7284	392.578	90.5095	392.578	88.0601	392.578	89.9905	392.578	87.3788	392.578	89.4453	392.578	86.7604	392.578	88.9154	392.578	86.2599	392.578	88.4718	392.578	85.8983	392.578	88.2345	392.578	85.7286	392.578	88.293	392.578	85.8831	392.578	88.5405	392.578	86.4404	392.578	88.703	392.578	87.2537	392.578	88.555	392.578	88.0373
405.762	92.9412	405.762	92.612	405.762	93.0387	405.762	92.0725	405.762	92.9114	405.762	91.3833	405.762	92.5863	405.762	90.6398	405.762	92.1106	405.762	89.939	405.762	91.5485	405.762	89.3307	405.762	90.957	405.762	88.802	405.762	90.3488	405.762	88.3055	405.762	89.6886	405.762	87.7911	405.762	88.9593	405.762	87.217	405.762	88.2684	405.762	86.5585	405.762	87.8768	405.762	85.8428	405.762	87.979	405.762	85.2164	405.762	88.4416	405.762	84.9813	405.762	88.9598	405.762	85.4087	405.762	89.32	405.762	86.4022	405.762	89.4147	405.762	87.5648	405.762	89.1716	405.762	88.5451
420.41	93.4528	420.41	93.0102	420.41	93.6973	420.41	92.3932	420.41	93.7275	420.41	91.6294	420.41	93.5438	420.41	90.7628	420.41	93.1702	420.41	89.8781	420.41	92.6586	420.41	89.0992	420.41	92.081	420.41	88.5218	420.41	91.4939	420.41	88.1109	420.41	90.8787	420.41	87.6869	420.41	90.1204	420.41	87.0348	420.41	89.083	420.41	86.0402	420.41	87.7911	420.41	84.8372	420.41	86.6942	420.41	84	420.41	86.5293	420.41	84.2698	420.41	87.2644	420.41	85.5027	420.41	88.1711	420.41	86.9248	420.41	88.8002	420.41	88.0667	420.41	89.015	420.41	88.7744
435.059	92.4894	435.059	91.9703	435.059	92.7827	435.059	91.2699	435.059	92.8464	435.059	90.4492	435.059	92.7149	435.059	89.5453	435.059	92.4406	435.059	88.5512	435.059	92.0664	435.059	87.4417	435.059	91.604	435.059	86.221	435.059	91.0397	435.059	84.9552	435.059	90.3678	435.059	83.7715	435.059	89.6189	435.059	82.8099	435.059	88.8606	435.059	82.1303	435.059	88.2115	435.059	81.6994	435.059	87.908	435.059	81.5958	435.059	88.1957	435.059	82.1958	435.059	88.9301	435.059	83.7012	435.059	89.6162	435.059	85.6254	435.059	89.8725	435.059	87.3868	435.059	89.5717	435.059	88.7279
451.172	91.8157	451.172	91.4798	451.172	91.9704	451.172	90.9732	451.172	91.9428	451.172	90.3395	451.172	91.7351	451.172	89.6714	451.172	91.3679	451.172	89.0826	451.172	90.8879	451.172	88.636	451.172	90.3477	451.172	88.2928	451.172	89.762	451.172	87.9391	451.172	89.0843	451.172	87.4432	451.172	88.2201	451.172	86.6767	451.172	87.0664	451.172	85.4915	451.172	85.6073	451.172	83.6952	451.172	84.2294	451.172	81.1446	451.172	84.008	451.172	78.6009	451.172	85.1964	451.172	79.0783	451.172	86.5346	451.172	81.8651	451.172	87.2059	451.172	84.3418	451.172	87.0378	451.172	86.0676
465.82	92.2337	465.82	92.0568	465.82	92.2442	465.82	91.6894	465.82	92.1015	465.82	91.1189	465.82	91.8084	465.82	90.3753	465.82	91.3765	465.82	89.5525	465.82	90.8467	465.82	88.7888	465.82	90.2828	465.82	88.1946	465.82	89.7263	465.82	87.7875	465.82	89.1463	465.82	87.4967	465.82	88.4427	465.82	87.1908	465.82	87.505	465.82	86.6757	465.82	86.3001	465.82	85.7071	465.82	85.0222	465.82	84.0658	465.82	84.2756	465.82	81.8433	465.82	84.6348	465.82	80.5023	465.82	85.6731	465.82	81.9791	465.82	86.5353	465.82	84.3646	465.82	86.7264	465.82	86.0299
483.398	91.9188	483.398	91.5749	483.398	92.0543	483.398	91.0881	483.398	91.9297	483.398	90.5032	483.398	91.5466	483.398	89.8376	483.398	90.9767	483.398	89.1104	483.398	90.3453	483.398	88.3889	483.398	89.7827	483.398	87.7936	483.398	89.3521	483.398	87.3868	483.398	88.9899	483.398	87.0422	483.398	88.5213	483.398	86.5165	483.398	87.7606	483.398	85.6363	483.398	86.6463	483.398	84.3965	483.398	85.4206	483.398	82.9606	483.398	84.7323	483.398	81.6587	483.398	85.0061	483.398	81.1635	483.398	85.7504	483.398	82.1417	483.398	86.2879	483.398	83.9463	483.398	86.2504	483.398	85.466
499.512	92.1901	499.512	91.7928	499.512	92.2967	499.512	91.1695	499.512	92.0866	499.512	90.4099	499.512	91.5784	499.512	89.603	499.512	90.8427	499.512	88.8046	499.512	90.0098	499.512	88.0155	499.512	89.2325	499.512	87.2186	499.512	88.5987	499.512	86.4822	499.512	88.094	499.512	85.9949	499.512	87.6518	499.512	85.8258	499.512	87.1721	499.512	85.699	499.512	86.5318	499.512	85.2341	499.512	85.7597	499.512	84.2465	499.512	85.3059	499.512	82.9691	499.512	85.6699	499.512	82.4085	499.512	86.4824	499.512	83.3728	499.512	87.0241	499.512	84.9647	499.512	86.9634	499.512	86.2557
517.09	92.249	517.09	91.9473	517.09	92.2999	517.09	91.4155	517.09	92.0954	517.09	90.706	517.09	91.6267	517.09	89.8849	517.09	90.891	517.09	88.9995	517.09	89.9426	517.09	88.0798	517.09	88.9494	517.09	87.1618	517.09	88.1475	517.09	86.2748	517.09	87.6162	517.09	85.4231	517.09	87.1629	517.09	84.6598	517.09	86.5626	517.09	84.1155	517.09	85.833	517.09	83.7402	517.09	85.2731	517.09	83.1347	517.09	85.1999	517.09	82.009	517.09	85.6385	517.09	81.0609	517.09	86.3091	517.09	81.8877	517.09	86.7714	517.09	83.9351	517.09	86.6331	517.09	85.684
536.133	92.8074	536.133	92.4266	536.133	93.0172	536.133	91.9427	536.133	92.9321	536.133	91.3341	536.133	92.4674	536.133	90.5717	536.133	91.6291	536.133	89.7169	536.133	90.5084	536.133	88.9205	536.133	89.2663	536.133	88.2948	536.133	88.134	536.133	87.7952	536.133	87.3072	536.133	87.2511	536.133	86.6746	536.133	86.4508	536.133	85.8198	536.133	85.2043	536.133	84.5127	536.133	83.4505	536.133	83.5344	536.133	81.4728	536.133	84.4163	536.133	80.1972	536.133	86.3014	536.133	80.7395	536.133	87.6904	536.133	82.7997	536.133	88.2202	536.133	85.1039	536.133	87.9308	536.133	86.8816
555.176	92.3213	555.176	91.9091	555.176	92.5138	555.176	91.3783	555.176	92.4379	555.176	90.8011	555.176	92.0904	555.176	90.1627	555.176	91.4619	555.176	89.4393	555.176	90.5422	555.176	88.6943	555.176	89.4127	555.176	88.0282	555.176	88.3278	555.176	87.443	555.176	87.5491	555.176	86.8359	555.176	86.9589	555.176	86.123	555.176	86.11	555.176	85.3069	555.176	84.7126	555.176	84.3787	555.176	83.2292	555.176	83.1376	555.176	83.3303	555.176	81.2899	555.176	85.1369	555.176	79.4993	555.176	86.8023	555.176	80.4492	555.176	87.505	555.176	83.3025	555.176	87.1223	555.176	85.6935
574.219	92.8189	574.219	92.278	574.219	93.0673	574.219	91.4573	574.219	93.0684	574.219	90.5239	574.219	92.8148	574.219	89.6874	574.219	92.2543	574.219	88.9956	574.219	91.3664	574.219	88.4288	574.219	90.1984	574.219	88.0818	574.219	88.8636	574.219	87.9545	574.219	87.5808	574.219	87.7743	574.219	86.6494	574.219	87.2604	574.219	86.0432	574.219	86.2555	574.219	85.15	574.219	84.5772	574.219	83.3007	574.219	81.9945	574.219	80.9694	574.219	78.6105	574.219	81.69	574.219	76.5118	574.219	84.547	574.219	78.8899	574.219	86.3582	574.219	82.6086	574.219	86.6258	574.219	85.3448
594.727	92.8537	594.727	92.4413	594.727	93.026	594.727	91.7787	594.727	92.9485	594.727	90.862	594.727	92.6244	594.727	89.7932	594.727	92.0714	594.727	88.7966	594.727	91.2873	594.727	87.9853	594.727	90.2635	594.727	87.2584	594.727	89.1065	594.727	86.6781	594.727	88.1492	594.727	86.5458	594.727	87.65	594.727	86.7993	594.727	87.2645	594.727	86.9407	594.727	86.3259	594.727	86.4984	594.727	84.4501	594.727	85.1001	594.727	82.4489	594.727	82.3938	594.727	83.0392	594.727	78.7198	594.727	85.1379	594.727	79.0439	594.727	86.4294	594.727	82.7812	594.727	86.5202	594.727	85.3581
615.234	92.4656	615.234	92.0574	615.234	92.732	615.234	91.5418	615.234	92.7855	615.234	90.8686	615.234	92.5791	615.234	89.9776	615.234	92.0896	615.234	88.96	615.234	91.2898	615.234	88.0659	615.234	90.1741	615.234	87.3895	615.234	88.8561	615.234	86.7804	615.234	87.6137	615.234	86.2931	615.234	86.719	615.234	86.0942	615.234	86.1737	615.234	85.9122	615.234	85.6276	615.234	85.3709	615.234	84.7423	615.234	84.4021	615.234	84.1392	615.234	82.9781	615.234	84.9635	615.234	80.8608	615.234	86.1925	615.234	79.2705	615.234	86.6331	615.234	81.5349	615.234	86.0963	615.234	84.4549
637.207	92.4256	637.207	91.9962	637.207	92.6995	637.207	91.463	637.207	92.7388	637.207	90.8371	637.207	92.4875	637.207	90.0978	637.207	91.9509	637.207	89.2036	637.207	91.2027	637.207	88.2089	637.207	90.3395	637.207	87.3658	637.207	89.3856	637.207	86.8749	637.207	88.2829	637.207	86.7106	637.207	86.9796	637.207	86.8429	637.207	85.4362	637.207	87.0446	637.207	83.6156	637.207	86.807	637.207	81.66	637.207	85.7109	637.207	80.8552	637.207	83.3232	637.207	83.0664	637.207	78.8766	637.207	85.6752	637.207	75.8265	637.207	86.6978	637.207	80.2722	637.207	85.958	637.207	83.7719
659.18	92.7482	659.18	92.2794	659.18	92.9312	659.18	91.5589	659.18	92.8159	659.18	90.6555	659.18	92.4477	659.18	89.7117	659.18	91.8819	659.18	88.7474	659.18	91.1043	659.18	87.5668	659.18	90.0762	659.18	86.1592	659.18	88.9926	659.18	84.8659	659.18	88.4454	659.18	83.8294	659.18	88.6301	659.18	83.312	659.18	88.7232	659.18	84.0106	659.18	87.8231	659.18	85.1104	659.18	85.4632	659.18	85.2949	659.18	82.174	659.18	83.978	659.18	81.5617	659.18	80.9756	659.18	84.235	659.18	78.9505	659.18	86.7145	659.18	82.8003	659.18	87.6048	659.18	86.3548
682.617	92.7101	682.617	91.7636	682.617	93.246	682.617	90.6496	682.617	93.3978	682.617	89.6506	682.617	93.3128	682.617	88.8263	682.617	93.0326	682.617	88.2502	682.617	92.456	682.617	88.0034	682.617	91.4546	682.617	87.7887	682.617	89.9639	682.617	87.3311	682.617	88.2409	682.617	86.6211	682.617	87.5094	682.617	85.3923	682.617	88.3235	682.617	83.4986	682.617	88.8499	682.617	82.2056	682.617	87.7901	682.617	82.3926	682.617	85.2299	682.617	82.4693	682.617	84.275	682.617	81.059	682.617	86.0408	682.617	77.4148	682.617	87.2043	682.617	79.8066	682.617	86.9382	682.617	84.7666
707.52	91.6777	707.52	91.258	707.52	91.9027	707.52	90.7261	707.52	91.8075	707.52	90.1347	707.52	91.3905	707.52	89.4743	707.52	91.0037	707.52	88.5968	707.52	90.9903	707.52	87.5127	707.52	90.9563	707.52	86.598	707.52	90.185	707.52	86.1889	707.52	88.3302	707.52	86.4683	707.52	85.9557	707.52	86.8885	707.52	85.5746	707.52	86.5218	707.52	87.063	707.52	85.8225	707.52	87.3422	707.52	85.8692	707.52	85.411	707.52	85.5149	707.52	82.8995	707.52	83.4076	707.52	84.0973	707.52	79.1355	707.52	85.0234	707.52	74.7734	707.52	83.4458	707.52	79.3511
732.422	92.8039	732.422	92.3797	732.422	92.9244	732.422	91.7678	732.422	92.5785	732.422	90.9678	732.422	91.6882	732.422	90.0299	732.422	90.3543	732.422	89.1097	732.422	89.1861	732.422	88.3089	732.422	89.0655	732.422	87.6827	732.422	89.3536	732.422	87.2096	732.422	88.7209	732.422	86.7114	732.422	86.6081	732.422	86.1775	732.422	83.4857	732.422	85.4224	732.422	82.0296	732.422	84.1386	732.422	83.2072	732.422	83.4191	732.422	84.4636	732.422	83.772	732.422	84.7483	732.422	83.7764	732.422	84.4802	732.422	83.5377	732.422	84.6997	732.422	83.6319	732.422	84.7527	732.422	84.1559
757.324	92.705	757.324	91.8267	757.324	93.1346	757.324	90.7293	757.324	92.9783	757.324	89.6391	757.324	92.1437	757.324	88.549	757.324	90.636	757.324	87.1952	757.324	88.8921	757.324	85.3802	757.324	88.0627	757.324	83.5625	757.324	88.6306	757.324	82.7475	757.324	89.3384	757.324	83.0248	757.324	89.1045	757.324	84.0607	757.324	87.5929	757.324	85.0002	757.324	84.8326	757.324	84.2669	757.324	81.0333	757.324	81.0538	757.324	78.4747	757.324	78.2219	757.324	82.5692	757.324	80.4691	757.324	86.5503	757.324	83.7621	757.324	88.4986	757.324	86.4696	757.324	88.9497	757.324	88.2259
785.156	91.5886	785.156	89.9476	785.156	92.9088	785.156	88.3042	785.156	93.5594	785.156	87.1687	785.156	93.1963	785.156	86.7857	785.156	91.6847	785.156	86.6183	785.156	89.1262	785.156	86.0387	785.156	86.1553	785.156	84.9371	785.156	85.29	785.156	83.9608	785.156	87.28	785.156	83.6164	785.156	89.0278	785.156	82.771	785.156	89.5463	785.156	81.8327	785.156	88.9986	785.156	82.9192	785.156	87.5068	785.156	83.3712	785.156	85.1468	785.156	81.9004	785.156	82.6654	785.156	77.5481	785.156	84.2867	785.156	59.7553	785.156	87.7072	785.156	81.6036	785.156	88.6962	785.156	86.9569
811.523	90.7842	811.523	89.6578	811.523	92.0003	811.523	89.1499	811.523	92.7618	811.523	88.8831	811.523	92.982	811.523	88.4826	811.523	92.572	811.523	88.4631	811.523	91.152	811.523	88.7351	811.523	88.2535	811.523	88.2109	811.523	84.0025	811.523	86.8503	811.523	82.4829	811.523	86.3587	811.523	84.7419	811.523	86.4345	811.523	86.2875	811.523	85.0341	811.523	87.2973	811.523	82.7054	811.523	87.2542	811.523	82.8775	811.523	85.0279	811.523	83.8598	811.523	82.8749	811.523	83.1621	811.523	84.0914	811.523	78.3429	811.523	85.5257	811.523	66.7318	811.523	85.4833	811.523	82.0091
840.82	90.9875	840.82	89.996	840.82	91.8793	840.82	89.0607	840.82	92.5703	840.82	88.5573	840.82	92.71	840.82	88.1989	840.82	92.1381	840.82	87.5689	840.82	91.1322	840.82	86.9498	840.82	89.8609	840.82	86.6434	840.82	87.8634	840.82	86.3355	840.82	84.8566	840.82	85.2919	840.82	83.3106	840.82	84.3261	840.82	84.2065	840.82	84.2236	840.82	84.7732	840.82	82.9522	840.82	85.4072	840.82	81.0836	840.82	85.2705	840.82	81.1088	840.82	83.9587	840.82	81.2772	840.82	84.5978	840.82	79.0906	840.82	85.5573	840.82	70.9481	840.82	83.6846	840.82	78.2539
870.117	90.3746	870.117	89.5443	870.117	91.5647	870.117	88.9651	870.117	92.3652	870.117	88.1285	870.117	92.4263	870.117	87.5111	870.117	91.9967	870.117	87.1954	870.117	91.2442	870.117	86.4927	870.117	89.9476	870.117	85.4884	870.117	87.8612	870.117	84.0069	870.117	85.532	870.117	83.7327	870.117	84.6101	870.117	85.3536	870.117	84.6676	870.117	85.8435	870.117	84.9405	870.117	83.8437	870.117	85.1974	870.117	79.8545	870.117	84.159	870.117	80.4046	870.117	83.1257	870.117	81.4443	870.117	83.705	870.117	80.1757	870.117	83.3632	870.117	77.1538	870.117	81.3351	870.117	76.8591
900.879	90.7084	900.879	89.6251	900.879	91.8154	900.879	88.9308	900.879	92.619	900.879	88.6265	900.879	92.9419	900.879	88.4478	900.879	92.6209	900.879	88.25	900.879	91.6577	900.879	87.5387	900.879	90.2809	900.879	86.3088	900.879	88.5762	900.879	85.093	900.879	86.5458	900.879	83.1536	900.879	84.7388	900.879	82.9935	900.879	83.0027	900.879	85.7697	900.879	82.9388	900.879	86.2018	900.879	84.7021	900.879	83.9184	900.879	84.3842	900.879	80.8154	900.879	82.5934	900.879	79.8189	900.879	83.9762	900.879	78.5514	900.879	84.8841	900.879	74.6604	900.879	82.6706	900.879	77.2877
933.105	91.2634	933.105	90.2863	933.105	92.4277	933.105	89.6902	933.105	93.3896	933.105	89.4338	933.105	93.5898	933.105	88.7554	933.105	92.8459	933.105	87.8527	933.105	91.5225	933.105	87.8508	933.105	90.1976	933.105	87.469	933.105	88.8417	933.105	86.2548	933.105	87.0849	933.105	85.847	933.105	85.9327	933.105	86.0356	933.105	86.1602	933.105	86.1592	933.105	86.0693	933.105	85.6751	933.105	85.2408	933.105	83.513	933.105	83.3916	933.105	81.3606	933.105	82.9848	933.105	81.5046	933.105	83.7615	933.105	80.6203	933.105	84.3046	933.105	76.4386	933.105	83.0311	933.105	77.052
965.332	91.3436	965.332	91.0288	965.332	92.0878	965.332	90.5575	965.332	93.0637	965.332	90.0056	965.332	93.4839	965.332	89.7862	965.332	93.1018	965.332	89.1792	965.332	92.2355	965.332	88.0731	965.332	90.9507	965.332	87.5632	965.332	89.0816	965.332	86.2031	965.332	86.9164	965.332	82.0583	965.332	85.4121	965.332	81.0341	965.332	84.6913	965.332	85.3658	965.332	85.3194	965.332	85.9669	965.332	86.7756	965.332	83.5638	965.332	85.9532	965.332	80.8991	965.332	82.9387	965.332	81.3924	965.332	84.9954	965.332	81.0879	965.332	85.4508	965.332	77.7656	965.332	82.8272	965.332	78.3248
1,000.49	90.2667	1,000.49	90.1505	1,000.49	91.1273	1,000.49	89.9889	1,000.49	92.3667	1,000.49	89.616	1,000.49	93.0518	1,000.49	89.2309	1,000.49	92.8156	1,000.49	88.4128	1,000.49	91.5972	1,000.49	87.3441	1,000.49	89.7543	1,000.49	86.6072	1,000.49	87.882	1,000.49	86.1623	1,000.49	86.2485	1,000.49	85.7056	1,000.49	84.9211	1,000.49	85.2957	1,000.49	84.4654	1,000.49	84.9412	1,000.49	84.7154	1,000.49	84.1096	1,000.49	85.6351	1,000.49	83.7862	1,000.49	84.4435	1,000.49	82.6454	1,000.49	83.147	1,000.49	81.3707	1,000.49	83.2377	1,000.49	81.0852	1,000.49	83.6273	1,000.49	77.7587	1,000.49	82.28	1,000.49	76.7822
1,035.64	89.6825	1,035.64	89.6486	1,035.64	90.4058	1,035.64	89.6806	1,035.64	91.5284	1,035.64	89.1415	1,035.64	91.9561	1,035.64	88.2762	1,035.64	91.5294	1,035.64	87.6257	1,035.64	90.5686	1,035.64	86.3542	1,035.64	89.0809	1,035.64	84.3187	1,035.64	87.3389	1,035.64	82.8996	1,035.64	85.0411	1,035.64	80.5158	1,035.64	82.3442	1,035.64	77.7487	1,035.64	80.6875	1,035.64	82.9763	1,035.64	81.8217	1,035.64	84.3997	1,035.64	85.3013	1,035.64	80.8794	1,035.64	85.7536	1,035.64	77.5674	1,035.64	83.6214	1,035.64	79.4825	1,035.64	83.621	1,035.64	78.634	1,035.64	84.0241	1,035.64	75.6059	1,035.64	81.2312	1,035.64	75.7196
1,072.27	90.1407	1,072.27	90.1288	1,072.27	90.0557	1,072.27	89.911	1,072.27	90.6891	1,072.27	89.6158	1,072.27	91.4813	1,072.27	88.4728	1,072.27	91.3642	1,072.27	86.5315	1,072.27	90.2548	1,072.27	85.0064	1,072.27	88.639	1,072.27	84.6158	1,072.27	86.7083	1,072.27	84.8482	1,072.27	84.2363	1,072.27	83.5208	1,072.27	81.8567	1,072.27	79.4508	1,072.27	80.6166	1,072.27	79.992	1,072.27	80.3692	1,072.27	83.1283	1,072.27	84.1652	1,072.27	81.6415	1,072.27	83.9776	1,072.27	77.8509	1,072.27	82.3296	1,072.27	78.9421	1,072.27	84.6964	1,072.27	80.2703	1,072.27	84.4102	1,072.27	74.8546	1,072.27	80.8096	1,072.27	74.3442
1,108.89	90.7547	1,108.89	91.2015	1,108.89	90.3844	1,108.89	91.2128	1,108.89	90.9787	1,108.89	90.8211	1,108.89	91.7375	1,108.89	90.0718	1,108.89	91.7171	1,108.89	88.5907	1,108.89	91.2764	1,108.89	86.5828	1,108.89	90.152	1,108.89	84.9708	1,108.89	87.8892	1,108.89	84.3201	1,108.89	85.5597	1,108.89	83.9106	1,108.89	83.3234	1,108.89	80.7591	1,108.89	81.1475	1,108.89	76.7964	1,108.89	76.5265	1,108.89	81.4071	1,108.89	80.6718	1,108.89	81.1502	1,108.89	82.7114	1,108.89	79.7054	1,108.89	82.2689	1,108.89	80.0952	1,108.89	83.233	1,108.89	81.8539	1,108.89	82.1578	1,108.89	79.9304	1,108.89	79.8581	1,108.89	74.6711
1,148.44	92.9143	1,148.44	92.9051	1,148.44	92.2875	1,148.44	92.7899	1,148.44	92.0656	1,148.44	92.5629	1,148.44	92.9611	1,148.44	91.7361	1,148.44	93.3111	1,148.44	90.1339	1,148.44	92.6535	1,148.44	88.0277	1,148.44	91.6021	1,148.44	85.9551	1,148.44	89.8342	1,148.44	85.3294	1,148.44	88.0588	1,148.44	84.5914	1,148.44	85.5192	1,148.44	84.0609	1,148.44	82.5511	1,148.44	79.7858	1,148.44	78.8742	1,148.44	74.392	1,148.44	80.5066	1,148.44	78.8754	1,148.44	83.2423	1,148.44	79.6795	1,148.44	83.9156	1,148.44	76.718	1,148.44	85.982	1,148.44	81.1255	1,148.44	85.9012	1,148.44	80.4604	1,148.44	83.6575	1,148.44	78.9333
1,189.45	92.26	1,189.45	92.5596	1,189.45	92.0364	1,189.45	92.7518	1,189.45	92.4622	1,189.45	92.1651	1,189.45	93.2851	1,189.45	91.4462	1,189.45	93.7892	1,189.45	90.4171	1,189.45	93.2547	1,189.45	88.2687	1,189.45	91.5836	1,189.45	86.866	1,189.45	89.6429	1,189.45	85.3104	1,189.45	88.0236	1,189.45	83.7245	1,189.45	85.9194	1,189.45	82.6549	1,189.45	84.2369	1,189.45	78.4886	1,189.45	82.4175	1,189.45	78.2221	1,189.45	82.6193	1,189.45	80.9557	1,189.45	84.0425	1,189.45	80.5377	1,189.45	83.4445	1,189.45	79.78	1,189.45	84.8796	1,189.45	82.4375	1,189.45	83.8463	1,189.45	83.1507	1,189.45	80.6692	1,189.45	79.7512
1,230.47	92.1233	1,230.47	92.4181	1,230.47	91.3334	1,230.47	92.4089	1,230.47	91.6121	1,230.47	92.1473	1,230.47	93.1223	1,230.47	91.034	1,230.47	93.6572	1,230.47	89.8037	1,230.47	92.8851	1,230.47	88.9578	1,230.47	91.6094	1,230.47	87.1479	1,230.47	89.3276	1,230.47	85.8055	1,230.47	86.9282	1,230.47	84.9877	1,230.47	85.2786	1,230.47	84.0336	1,230.47	81.6598	1,230.47	82.5655	1,230.47	78.1834	1,230.47	76.8109	1,230.47	80.1166	1,230.47	78.9952	1,230.47	80.0886	1,230.47	81.5385	1,230.47	81.2645	1,230.47	79.6641	1,230.47	84.8088	1,230.47	79.2277	1,230.47	84.6789	1,230.47	80.0771	1,230.47	82.9664	1,230.47	77.7861
1,274.41	91.9388	1,274.41	92.321	1,274.41	91.0735	1,274.41	92.3089	1,274.41	90.8888	1,274.41	91.7668	1,274.41	92.1084	1,274.41	90.9334	1,274.41	92.6253	1,274.41	89.3363	1,274.41	92.381	1,274.41	88.1259	1,274.41	90.9616	1,274.41	86.6547	1,274.41	88.2566	1,274.41	85.8077	1,274.41	85.8854	1,274.41	84.6736	1,274.41	83.053	1,274.41	84.3673	1,274.41	83.8926	1,274.41	84.7785	1,274.41	81.9782	1,274.41	80.8417	1,274.41	81.133	1,274.41	77.122	1,274.41	81.4435	1,274.41	77.0356	1,274.41	78.2625	1,274.41	73.6139	1,274.41	82.0469	1,274.41	79.4316	1,274.41	82.9089	1,274.41	81.4341	1,274.41	80.7348	1,274.41	79.6283
1,319.82	91.5124	1,319.82	92.2213	1,319.82	90.8286	1,319.82	92.085	1,319.82	90.8343	1,319.82	91.1228	1,319.82	91.5861	1,319.82	89.6705	1,319.82	92.0538	1,319.82	88.866	1,319.82	91.9983	1,319.82	87.7644	1,319.82	91.3081	1,319.82	86.623	1,319.82	89.0322	1,319.82	85.1202	1,319.82	85.9215	1,319.82	84.164	1,319.82	83.4624	1,319.82	83.7321	1,319.82	82.5577	1,319.82	81.4187	1,319.82	82.4983	1,319.82	80.2787	1,319.82	82.5474	1,319.82	79.6901	1,319.82	82.5742	1,319.82	79.724	1,319.82	78.5299	1,319.82	76.6409	1,319.82	82.17	1,319.82	73.1542	1,319.82	82.9034	1,319.82	79.7443	1,319.82	79.5669	1,319.82	77.1259
1,366.7	91.1829	1,366.7	91.8239	1,366.7	89.9771	1,366.7	91.5196	1,366.7	90.1178	1,366.7	90.2282	1,366.7	90.9771	1,366.7	88.4506	1,366.7	91.1986	1,366.7	87.3126	1,366.7	90.8065	1,366.7	85.8764	1,366.7	90.4744	1,366.7	85.2901	1,366.7	88.5552	1,366.7	85.2106	1,366.7	85.5626	1,366.7	83.0518	1,366.7	82.427	1,366.7	80.3164	1,366.7	80.6038	1,366.7	80.2815	1,366.7	80.7825	1,366.7	79.0247	1,366.7	79.74	1,366.7	77.6411	1,366.7	83.0591	1,366.7	75.5091	1,366.7	79.9624	1,366.7	74.5593	1,366.7	80.6762	1,366.7	74.8568	1,366.7	82.7066	1,366.7	80.2657	1,366.7	81.6788	1,366.7	79.8646
1,413.57	91.8349	1,413.57	92.0735	1,413.57	90.8648	1,413.57	91.0317	1,413.57	90.164	1,413.57	89.4345	1,413.57	90.9961	1,413.57	88.3244	1,413.57	91.7134	1,413.57	87.2399	1,413.57	90.9542	1,413.57	87.3088	1,413.57	89.689	1,413.57	85.0358	1,413.57	88.6813	1,413.57	81.8425	1,413.57	86.5518	1,413.57	81.3093	1,413.57	84.3879	1,413.57	80.7451	1,413.57	82.4376	1,413.57	80.0588	1,413.57	79.8154	1,413.57	79.5599	1,413.57	81.7109	1,413.57	79.1857	1,413.57	83.1792	1,413.57	75.8922	1,413.57	80.9558	1,413.57	68.7528	1,413.57	80.2968	1,413.57	66.1081	1,413.57	82.8871	1,413.57	76.5387	1,413.57	81.0139	1,413.57	79.0336
1,463.38	92.9908	1,463.38	93.3534	1,463.38	92.0623	1,463.38	92.0977	1,463.38	90.8014	1,463.38	90.2994	1,463.38	90.8217	1,463.38	88.6612	1,463.38	92.0302	1,463.38	88.1285	1,463.38	91.4914	1,463.38	86.9855	1,463.38	90.8202	1,463.38	84.5302	1,463.38	89.9136	1,463.38	83.3629	1,463.38	86.6839	1,463.38	83.4703	1,463.38	85.3564	1,463.38	81.696	1,463.38	83.0884	1,463.38	81.073	1,463.38	82.1806	1,463.38	81.0808	1,463.38	80.7454	1,463.38	79.7869	1,463.38	81.4667	1,463.38	76.7317	1,463.38	77.497	1,463.38	76.6459	1,463.38	80.0554	1,463.38	65.5203	1,463.38	83.162	1,463.38	75.6901	1,463.38	80.4525	1,463.38	76.672
1,516.11	93.6349	1,516.11	93.4659	1,516.11	92.4057	1,516.11	92.0009	1,516.11	90.9441	1,516.11	89.8336	1,516.11	90.9365	1,516.11	88.7324	1,516.11	91.078	1,516.11	87.6171	1,516.11	91.048	1,516.11	87.3565	1,516.11	90.029	1,516.11	86.2279	1,516.11	87.9728	1,516.11	83.1297	1,516.11	86.321	1,516.11	82.295	1,516.11	82.7576	1,516.11	80.9851	1,516.11	81.3257	1,516.11	80.3589	1,516.11	81.4646	1,516.11	81.6904	1,516.11	83.1825	1,516.11	80.3003	1,516.11	81.4721	1,516.11	81.5806	1,516.11	78.6432	1,516.11	79.3151	1,516.11	80.3365	1,516.11	74.205	1,516.11	81.8614	1,516.11	74.6148	1,516.11	76.1476	1,516.11	73.2259
1,568.85	93.3606	1,568.85	92.9205	1,568.85	91.9385	1,568.85	91.1593	1,568.85	89.9256	1,568.85	89.8773	1,568.85	89.711	1,568.85	87.6721	1,568.85	90.859	1,568.85	86.8948	1,568.85	90.8913	1,568.85	87.9081	1,568.85	89.8585	1,568.85	85.9942	1,568.85	88.3026	1,568.85	85.0442	1,568.85	85.3159	1,568.85	82.6949	1,568.85	82.9927	1,568.85	82.9652	1,568.85	80.1858	1,568.85	80.0225	1,568.85	80.1113	1,568.85	80.4947	1,568.85	79.633	1,568.85	80.6799	1,568.85	81.9282	1,568.85	83.0519	1,568.85	75.5387	1,568.85	80.1594	1,568.85	76.7597	1,568.85	61.2918	1,568.85	78.6761	1,568.85	71.884	1,568.85	72.9315	1,568.85	77.09
1,624.51	92.0592	1,624.51	92.0685	1,624.51	91.6985	1,624.51	89.8732	1,624.51	89.7742	1,624.51	89.1431	1,624.51	89.6195	1,624.51	88.6977	1,624.51	90.5526	1,624.51	88.6001	1,624.51	89.9684	1,624.51	88.0577	1,624.51	88.6765	1,624.51	85.0995	1,624.51	86.8805	1,624.51	83.744	1,624.51	84.0979	1,624.51	81.5695	1,624.51	83.1474	1,624.51	79.2255	1,624.51	76.7293	1,624.51	77.2288	1,624.51	77.437	1,624.51	77.4811	1,624.51	76.6427	1,624.51	79.1499	1,624.51	81.4287	1,624.51	82.0878	1,624.51	78.096	1,624.51	80.9214	1,624.51	74.2222	1,624.51	76.542	1,624.51	79.0787	1,624.51	74.808	1,624.51	71.6705	1,624.51	76.7118
1,681.64	92.2833	1,681.64	90.9715	1,681.64	92.2644	1,681.64	89.735	1,681.64	90.477	1,681.64	89.4521	1,681.64	88.6546	1,681.64	89.3182	1,681.64	89.1337	1,681.64	88.214	1,681.64	89.7228	1,681.64	85.0546	1,681.64	88.4301	1,681.64	85.5896	1,681.64	84.2927	1,681.64	85.1332	1,681.64	85.271	1,681.64	82.1015	1,681.64	81.8737	1,681.64	81.2485	1,681.64	81.1326	1,681.64	78.002	1,681.64	77.9486	1,681.64	78.3194	1,681.64	79.623	1,681.64	79.8562	1,681.64	80.4154	1,681.64	81.6626	1,681.64	84.0642	1,681.64	79.8637	1,681.64	76.2893	1,681.64	75.4976	1,681.64	78.7644	1,681.64	66.4317	1,681.64	68.6648	1,681.64	72.3932
1,741.7	92.0986	1,741.7	91.8929	1,741.7	91.7157	1,741.7	91.1399	1,741.7	90.1222	1,741.7	91.1262	1,741.7	89.8962	1,741.7	90.4827	1,741.7	90.2202	1,741.7	89.0571	1,741.7	90.307	1,741.7	86.2723	1,741.7	89.3174	1,741.7	85.2679	1,741.7	87.9187	1,741.7	83.6875	1,741.7	86.2172	1,741.7	81.603	1,741.7	83.7275	1,741.7	81.5416	1,741.7	80.3377	1,741.7	78.858	1,741.7	82.8431	1,741.7	77.2807	1,741.7	80.176	1,741.7	78.1221	1,741.7	81.0549	1,741.7	81.3173	1,741.7	81.1393	1,741.7	79.2657	1,741.7	76.4202	1,741.7	72.1009	1,741.7	80.2927	1,741.7	71.6543	1,741.7	74.9514	1,741.7	72.1426
1,803.22	93.0983	1,803.22	92.0625	1,803.22	92.8784	1,803.22	91.5383	1,803.22	91.345	1,803.22	91.0529	1,803.22	89.3366	1,803.22	90.4759	1,803.22	89.7269	1,803.22	88.3928	1,803.22	90.2817	1,803.22	86.6338	1,803.22	89.3747	1,803.22	85.4373	1,803.22	87.7097	1,803.22	84.6528	1,803.22	85.3492	1,803.22	81.4731	1,803.22	82.9814	1,803.22	80.7429	1,803.22	81.2446	1,803.22	80.2247	1,803.22	78.2911	1,803.22	76.9156	1,803.22	77.9645	1,803.22	79.0125	1,803.22	79.4268	1,803.22	79.7995	1,803.22	79.4077	1,803.22	78.8388	1,803.22	75.4211	1,803.22	76.6882	1,803.22	79.0728	1,803.22	65.454	1,803.22	66.6708	1,803.22	75.1785
1,866.21	92.3726	1,866.21	91.6236	1,866.21	92.4052	1,866.21	90.8684	1,866.21	91.0031	1,866.21	90.3325	1,866.21	89.0185	1,866.21	89.4608	1,866.21	88.8373	1,866.21	88.3112	1,866.21	89.2139	1,866.21	86.7447	1,866.21	88.6455	1,866.21	85.0445	1,866.21	85.8604	1,866.21	85.3225	1,866.21	83.7109	1,866.21	83.5424	1,866.21	81.2702	1,866.21	82.1223	1,866.21	79.1678	1,866.21	80.7475	1,866.21	76.4728	1,866.21	78.8149	1,866.21	77.5673	1,866.21	78.8266	1,866.21	78.3879	1,866.21	81.2641	1,866.21	78.6012	1,866.21	78.0681	1,866.21	72.0909	1,866.21	77.4166	1,866.21	77.4726	1,866.21	58.7875	1,866.21	63.9678	1,866.21	70.4407
1,932.13	91.3475	1,932.13	90.6389	1,932.13	91.9055	1,932.13	90.3433	1,932.13	90.632	1,932.13	90.3371	1,932.13	88.6212	1,932.13	89.1569	1,932.13	88.4847	1,932.13	87.6724	1,932.13	89.3013	1,932.13	86.5195	1,932.13	89.0163	1,932.13	84.01	1,932.13	86.828	1,932.13	83.17	1,932.13	84.6846	1,932.13	81.951	1,932.13	81.8467	1,932.13	80.5087	1,932.13	80.0344	1,932.13	79.8265	1,932.13	77.2906	1,932.13	79.5447	1,932.13	76.5923	1,932.13	77.3162	1,932.13	77.3631	1,932.13	78.6982	1,932.13	79.6942	1,932.13	76.9641	1,932.13	71.3724	1,932.13	75.3577	1,932.13	77.2038	1,932.13	68.0516	1,932.13	56.9448	1,932.13	73.0761
1,999.51	91.6525	1,999.51	90.9047	1,999.51	92.4291	1,999.51	91.2447	1,999.51	91.5824	1,999.51	90.9111	1,999.51	89.5375	1,999.51	90.1885	1,999.51	88.9906	1,999.51	88.6918	1,999.51	89.8306	1,999.51	86.8487	1,999.51	89.5029	1,999.51	85.2597	1,999.51	88.2264	1,999.51	83.7303	1,999.51	85.8574	1,999.51	81.9556	1,999.51	83.5958	1,999.51	80.4754	1,999.51	80.8102	1,999.51	79.9664	1,999.51	79.3425	1,999.51	77.4743	1,999.51	79.3441	1,999.51	76.3576	1,999.51	77.3225	1,999.51	79.8656	1,999.51	79.8688	1,999.51	78.5469	1,999.51	75.1874	1,999.51	75.982	1,999.51	77.4672	1,999.51	66.9213	1,999.51	62.5159	1,999.51	72.9209
2,069.82	92.5352	2,069.82	92.5429	2,069.82	92.9197	2,069.82	92.6826	2,069.82	92.1375	2,069.82	91.9451	2,069.82	90.0446	2,069.82	90.4651	2,069.82	89.1433	2,069.82	89.9603	2,069.82	89.8371	2,069.82	88.714	2,069.82	89.6066	2,069.82	86.8305	2,069.82	88.2092	2,069.82	85.406	2,069.82	85.6346	2,069.82	84.2396	2,069.82	83.6079	2,069.82	82.0412	2,069.82	80.0342	2,069.82	81.7474	2,069.82	80.588	2,069.82	79.4595	2,069.82	76.738	2,069.82	77.4459	2,069.82	78.342	2,069.82	79.6477	2,069.82	80.0573	2,069.82	80.0406	2,069.82	73.0948	2,069.82	77.8813	2,069.82	77.0124	2,069.82	72.1618	2,069.82	62.1977	2,069.82	70.0591
2,143.07	92.0107	2,143.07	92.0571	2,143.07	92.5782	2,143.07	92.2786	2,143.07	91.9534	2,143.07	91.7834	2,143.07	89.7009	2,143.07	90.7865	2,143.07	88.8528	2,143.07	90.3094	2,143.07	89.7977	2,143.07	89.5526	2,143.07	89.6818	2,143.07	88.0119	2,143.07	88.2661	2,143.07	85.9805	2,143.07	85.5639	2,143.07	84.5176	2,143.07	82.3071	2,143.07	81.8787	2,143.07	78.9177	2,143.07	83.2454	2,143.07	79.0456	2,143.07	81.1368	2,143.07	77.5178	2,143.07	79.6171	2,143.07	74.4483	2,143.07	79.7366	2,143.07	78.9087	2,143.07	81.0601	2,143.07	70.0287	2,143.07	78.0819	2,143.07	75.8121	2,143.07	75.7632	2,143.07	66.7723	2,143.07	70.8903
2,219.24	91.7225	2,219.24	92.0702	2,219.24	92.136	2,219.24	92.1577	2,219.24	92.055	2,219.24	91.1927	2,219.24	90.0916	2,219.24	90.3227	2,219.24	88.8461	2,219.24	88.9973	2,219.24	89.6388	2,219.24	88.2474	2,219.24	89.6226	2,219.24	86.3785	2,219.24	88.6128	2,219.24	83.5345	2,219.24	86.3784	2,219.24	82.756	2,219.24	83.1328	2,219.24	80.0425	2,219.24	80.887	2,219.24	79.7154	2,219.24	79.0783	2,219.24	78.6899	2,219.24	78.1661	2,219.24	77.5033	2,219.24	74.9538	2,219.24	79.4306	2,219.24	78.902	2,219.24	80.6959	2,219.24	67.7549	2,219.24	76.722	2,219.24	77.1464	2,219.24	75.7768	2,219.24	61.8431	2,219.24	72.2406
2,296.88	92.745	2,296.88	93.1551	2,296.88	92.9144	2,296.88	92.7063	2,296.88	92.7513	2,296.88	91.9423	2,296.88	90.9494	2,296.88	91.0997	2,296.88	89.3106	2,296.88	89.7819	2,296.88	90.3691	2,296.88	87.941	2,296.88	90.2785	2,296.88	86.4238	2,296.88	89.2646	2,296.88	84.1604	2,296.88	86.8487	2,296.88	82.519	2,296.88	84.5488	2,296.88	80.0146	2,296.88	81.0852	2,296.88	78.8427	2,296.88	80.5021	2,296.88	78.3923	2,296.88	79.0413	2,296.88	77.3506	2,296.88	76.6547	2,296.88	77.7223	2,296.88	79.296	2,296.88	79.6365	2,296.88	69.1766	2,296.88	75.2252	2,296.88	77.1809	2,296.88	75.5945	2,296.88	70.9673	2,296.88	63.6442
2,378.91	92.9768	2,378.91	93.4266	2,378.91	92.9818	2,378.91	92.78	2,378.91	92.9687	2,378.91	92.2494	2,378.91	91.1725	2,378.91	91.7168	2,378.91	89.0044	2,378.91	90.1507	2,378.91	89.451	2,378.91	88.174	2,378.91	89.7903	2,378.91	86.6739	2,378.91	88.5357	2,378.91	85.1811	2,378.91	86.1596	2,378.91	83.0412	2,378.91	83.6451	2,378.91	81.7722	2,378.91	80.3844	2,378.91	80.0608	2,378.91	79.1231	2,378.91	79.8586	2,378.91	77.7342	2,378.91	77.6617	2,378.91	74.1159	2,378.91	78.978	2,378.91	76.7767	2,378.91	79.8382	2,378.91	68.4542	2,378.91	76.0592	2,378.91	75.3879	2,378.91	76.5718	2,378.91	72.3177	2,378.91	65.5991
2,462.4	92.5	2,462.4	92.6922	2,462.4	92.369	2,462.4	92.3831	2,462.4	92.738	2,462.4	92.0555	2,462.4	91.6507	2,462.4	91.4092	2,462.4	89.4526	2,462.4	89.3449	2,462.4	89.2651	2,462.4	87.1913	2,462.4	89.5691	2,462.4	86.0191	2,462.4	88.2688	2,462.4	84.1611	2,462.4	86.1596	2,462.4	82.4721	2,462.4	83.0263	2,462.4	80.6275	2,462.4	80.0517	2,462.4	79.5008	2,462.4	78.3766	2,462.4	79.6077	2,462.4	76.7182	2,462.4	77.158	2,462.4	75.5059	2,462.4	79.5739	2,462.4	74.0157	2,462.4	78.9443	2,462.4	65.2036	2,462.4	76.5873	2,462.4	74.3306	2,462.4	77.3582	2,462.4	72.3462	2,462.4	70.9234
2,548.83	92.9361	2,548.83	93.1882	2,548.83	92.4604	2,548.83	92.9539	2,548.83	92.7894	2,548.83	92.3201	2,548.83	91.8375	2,548.83	90.7169	2,548.83	90.0768	2,548.83	88.9087	2,548.83	90.0402	2,548.83	86.9579	2,548.83	90.1365	2,548.83	85.7689	2,548.83	88.6104	2,548.83	83.9703	2,548.83	86.5894	2,548.83	82.6343	2,548.83	83.0353	2,548.83	80.5581	2,548.83	80.7384	2,548.83	78.7022	2,548.83	79.3918	2,548.83	78.772	2,548.83	77.7077	2,548.83	74.9161	2,548.83	77.2823	2,548.83	78.5025	2,548.83	74.4652	2,548.83	78.5714	2,548.83	66.05	2,548.83	76.2122	2,548.83	74.632	2,548.83	76.3686	2,548.83	72.2229	2,548.83	72.0123
2,639.65	92.3485	2,639.65	92.4504	2,639.65	91.8653	2,639.65	92.7507	2,639.65	92.0226	2,639.65	92.0984	2,639.65	91.1988	2,639.65	90.7155	2,639.65	88.7246	2,639.65	89.5806	2,639.65	88.9415	2,639.65	88.4517	2,639.65	89.1775	2,639.65	86.2812	2,639.65	87.7111	2,639.65	84.9084	2,639.65	85.4146	2,639.65	83.1934	2,639.65	81.4152	2,639.65	81.4246	2,639.65	78.6584	2,639.65	79.6224	2,639.65	76.0772	2,639.65	78.1835	2,639.65	76.3387	2,639.65	76.7394	2,639.65	75.573	2,639.65	77.9673	2,639.65	72.6753	2,639.65	78.4389	2,639.65	64.6007	2,639.65	76.7718	2,639.65	73.3177	2,639.65	74.6809	2,639.65	73.1131	2,639.65	72.0921
2,731.93	91.3002	2,731.93	91.662	2,731.93	91.124	2,731.93	91.816	2,731.93	91.2991	2,731.93	91.0917	2,731.93	90.6651	2,731.93	90.24	2,731.93	88.5172	2,731.93	89.4966	2,731.93	87.9859	2,731.93	88.358	2,731.93	88.0847	2,731.93	85.9611	2,731.93	86.9293	2,731.93	85.4884	2,731.93	84.542	2,731.93	81.5343	2,731.93	81.5929	2,731.93	80.9842	2,731.93	78.498	2,731.93	78.0433	2,731.93	75.4978	2,731.93	78.4509	2,731.93	75.8477	2,731.93	74.3795	2,731.93	73.2992	2,731.93	77.4051	2,731.93	65.1949	2,731.93	78.5406	2,731.93	61.7848	2,731.93	76.0731	2,731.93	72.6404	2,731.93	74.0484	2,731.93	71.6856	2,731.93	71.109
2,828.61	91.476	2,828.61	92.1925	2,828.61	90.6899	2,828.61	92.1679	2,828.61	90.9625	2,828.61	91.7642	2,828.61	90.147	2,828.61	90.6034	2,828.61	88.5848	2,828.61	89.4854	2,828.61	88.2578	2,828.61	88.5102	2,828.61	88.4566	2,828.61	86.6213	2,828.61	87.0679	2,828.61	83.8115	2,828.61	84.0749	2,828.61	81.2944	2,828.61	81.196	2,828.61	79.3603	2,828.61	78.3889	2,828.61	77.2008	2,828.61	76.2585	2,828.61	77.4657	2,828.61	76.2972	2,828.61	74.7044	2,828.61	74.629	2,828.61	75.8161	2,828.61	67.2414	2,828.61	77.1247	2,828.61	64.1841	2,828.61	75.7565	2,828.61	71.3614	2,828.61	73.1967	2,828.61	72.847	2,828.61	68.8252
2,928.22	90.8997	2,928.22	91.4776	2,928.22	90.0102	2,928.22	91.3633	2,928.22	90.5371	2,928.22	90.8781	2,928.22	90.4499	2,928.22	90.5544	2,928.22	88.3803	2,928.22	89.8217	2,928.22	87.8885	2,928.22	87.9374	2,928.22	88.4117	2,928.22	85.604	2,928.22	87.5387	2,928.22	82.8345	2,928.22	84.8017	2,928.22	80.4406	2,928.22	82.2569	2,928.22	78.6332	2,928.22	78.9241	2,928.22	78.0738	2,928.22	75.8543	2,928.22	76.6834	2,928.22	75.3682	2,928.22	74.4474	2,928.22	73.9595	2,928.22	75.0855	2,928.22	68.1342	2,928.22	74.6417	2,928.22	63.3611	2,928.22	75.8085	2,928.22	71.2164	2,928.22	73.3049	2,928.22	72.0965	2,928.22	70.2002
3,030.76	91.8416	3,030.76	91.7129	3,030.76	91.1263	3,030.76	92.313	3,030.76	91.6197	3,030.76	92.1113	3,030.76	92.1846	3,030.76	91.3504	3,030.76	90.1369	3,030.76	89.0882	3,030.76	89.0109	3,030.76	86.4837	3,030.76	89.9152	3,030.76	83.597	3,030.76	88.6638	3,030.76	79.9574	3,030.76	85.8872	3,030.76	80.506	3,030.76	82.8025	3,030.76	77.0647	3,030.76	79.8021	3,030.76	74.9304	3,030.76	77.306	3,030.76	75.2341	3,030.76	75.6533	3,030.76	72.1821	3,030.76	73.8831	3,030.76	72.6436	3,030.76	66.5124	3,030.76	74.9753	3,030.76	68.4234	3,030.76	74.4136	3,030.76	72.9595	3,030.76	69.6527	3,030.76	69.8747	3,030.76	71.827
3,137.7	92.1759	3,137.7	92.6707	3,137.7	91.904	3,137.7	93.0846	3,137.7	91.6551	3,137.7	92.7864	3,137.7	92.6627	3,137.7	91.4387	3,137.7	91.1111	3,137.7	87.992	3,137.7	89.7818	3,137.7	84.8823	3,137.7	90.065	3,137.7	83.179	3,137.7	89.0191	3,137.7	81.6765	3,137.7	86.2749	3,137.7	81.4325	3,137.7	83.2234	3,137.7	79.6694	3,137.7	80.313	3,137.7	76.9232	3,137.7	79.1593	3,137.7	76.1358	3,137.7	76.4689	3,137.7	75.7691	3,137.7	75.9614	3,137.7	70.9016	3,137.7	66.8839	3,137.7	73.7016	3,137.7	71.0076	3,137.7	74.1098	3,137.7	73.2941	3,137.7	64.5323	3,137.7	71.3563	3,137.7	72.3177
3,249.02	91.7438	3,249.02	92.3074	3,249.02	91.6811	3,249.02	92.54	3,249.02	91.1084	3,249.02	92.216	3,249.02	92.1606	3,249.02	90.1397	3,249.02	91.049	3,249.02	87.8025	3,249.02	89.7153	3,249.02	85.5199	3,249.02	89.8775	3,249.02	84.1511	3,249.02	88.623	3,249.02	84.1625	3,249.02	85.8166	3,249.02	82.3938	3,249.02	82.6758	3,249.02	81.0893	3,249.02	79.7276	3,249.02	79.2514	3,249.02	77.8965	3,249.02	76.2885	3,249.02	76.8985	3,249.02	76.8173	3,249.02	73.1464	3,249.02	73.9848	3,249.02	59.2167	3,249.02	73.1541	3,249.02	70.0274	3,249.02	70.4987	3,249.02	73.899	3,249.02	69.2055	3,249.02	71.8185	3,249.02	71.1086
3,363.28	91.9808	3,363.28	92.4195	3,363.28	92.3941	3,363.28	92.1693	3,363.28	91.7265	3,363.28	91.8131	3,363.28	92.5223	3,363.28	89.2373	3,363.28	91.4386	3,363.28	88.1679	3,363.28	89.6621	3,363.28	86.8993	3,363.28	89.2046	3,363.28	86.0526	3,363.28	88.3532	3,363.28	84.079	3,363.28	85.3185	3,363.28	82.3351	3,363.28	82.5373	3,363.28	79.8291	3,363.28	78.8275	3,363.28	77.4063	3,363.28	77.8921	3,363.28	75.9339	3,363.28	76.4856	3,363.28	76.6804	3,363.28	72.0703	3,363.28	71.5751	3,363.28	66.3373	3,363.28	74.8249	3,363.28	66.7503	3,363.28	70.4146	3,363.28	72.53	3,363.28	72.5099	3,363.28	71.4019	3,363.28	72.514
3,481.93	91.8084	3,481.93	92.7668	3,481.93	90.9453	3,481.93	92.7504	3,481.93	91.7787	3,481.93	91.4303	3,481.93	92.1047	3,481.93	89.8863	3,481.93	90.9992	3,481.93	88.9804	3,481.93	88.5021	3,481.93	88.0214	3,481.93	89.4509	3,481.93	86.5707	3,481.93	88.2727	3,481.93	84.4556	3,481.93	84.9006	3,481.93	82.0384	3,481.93	80.8406	3,481.93	79.4036	3,481.93	77.9564	3,481.93	79.1221	3,481.93	77.2143	3,481.93	74.4485	3,481.93	76.9316	3,481.93	75.0781	3,481.93	74.6776	3,481.93	70.8158	3,481.93	66.2875	3,481.93	73.0348	3,481.93	66.2864	3,481.93	71.2664	3,481.93	72.5819	3,481.93	72.0526	3,481.93	67.8222	3,481.93	74.3218
3,604.98	91.3938	3,604.98	91.4949	3,604.98	91.0005	3,604.98	91.1224	3,604.98	90.772	3,604.98	90.2991	3,604.98	91.266	3,604.98	88.6575	3,604.98	90.3386	3,604.98	88.2075	3,604.98	87.8706	3,604.98	87.1584	3,604.98	88.5939	3,604.98	85.1128	3,604.98	87.0459	3,604.98	83.2344	3,604.98	83.6175	3,604.98	79.4014	3,604.98	80.3167	3,604.98	77.4847	3,604.98	77.0327	3,604.98	76.2605	3,604.98	76.3461	3,604.98	75.2938	3,604.98	75.9256	3,604.98	72.4534	3,604.98	74.4765	3,604.98	70.369	3,604.98	64.1822	3,604.98	72.1056	3,604.98	64.106	3,604.98	71.4099	3,604.98	71.0803	3,604.98	69.5132	3,604.98	68.4744	3,604.98	71.3199
3,732.42	91.8939	3,732.42	91.9629	3,732.42	91.1332	3,732.42	92.0894	3,732.42	91.1555	3,732.42	90.5064	3,732.42	91.6474	3,732.42	90.5297	3,732.42	89.7372	3,732.42	87.9228	3,732.42	87.0734	3,732.42	86.2057	3,732.42	88.4244	3,732.42	83.3271	3,732.42	87.2729	3,732.42	81.5685	3,732.42	84.7292	3,732.42	79.0999	3,732.42	80.8155	3,732.42	77.5569	3,732.42	78.0771	3,732.42	77.0702	3,732.42	74.824	3,732.42	74.0044	3,732.42	77.3024	3,732.42	72.7345	3,732.42	74.7866	3,732.42	70.9585	3,732.42	65.411	3,732.42	73.434	3,732.42	65.303	3,732.42	70.8838	3,732.42	69.5588	3,732.42	68.5597	3,732.42	66.5665	3,732.42	69.982
3,864.26	91.3583	3,864.26	91.5742	3,864.26	91.5124	3,864.26	91.1749	3,864.26	90.5294	3,864.26	90.0705	3,864.26	91.2344	3,864.26	89.4512	3,864.26	90.5494	3,864.26	87.325	3,864.26	86.4175	3,864.26	84.8092	3,864.26	87.0185	3,864.26	81.992	3,864.26	86.263	3,864.26	81.6911	3,864.26	84.0985	3,864.26	79.2456	3,864.26	80.4557	3,864.26	78.5518	3,864.26	77.7211	3,864.26	76.9817	3,864.26	74.129	3,864.26	75.7445	3,864.26	74.6041	3,864.26	75.8031	3,864.26	73.7933	3,864.26	73.2459	3,864.26	65.2769	3,864.26	71.4681	3,864.26	65.2862	3,864.26	69.2457	3,864.26	70.4809	3,864.26	67.5257	3,864.26	63.832	3,864.26	71.1085
4,000.49	91.273	4,000.49	90.5727	4,000.49	91.8772	4,000.49	90.696	4,000.49	90.9636	4,000.49	89.774	4,000.49	90.6115	4,000.49	88.713	4,000.49	89.7189	4,000.49	87.2681	4,000.49	85.3748	4,000.49	84.4731	4,000.49	85.6779	4,000.49	83.8909	4,000.49	85.885	4,000.49	81.359	4,000.49	84.2208	4,000.49	80.2252	4,000.49	80.4832	4,000.49	77.7142	4,000.49	77.2609	4,000.49	74.9801	4,000.49	74.5126	4,000.49	75.0831	4,000.49	75.4293	4,000.49	73.989	4,000.49	71.9628	4,000.49	72.1099	4,000.49	64.4035	4,000.49	70.6963	4,000.49	63.3896	4,000.49	71.9663	4,000.49	69.0699	4,000.49	67.9059	4,000.49	63.2112	4,000.49	70.0356
4,141.11	91.1996	4,141.11	91.2004	4,141.11	90.663	4,141.11	90.2029	4,141.11	91.0811	4,141.11	89.2535	4,141.11	90.3098	4,141.11	87.8327	4,141.11	90.1523	4,141.11	86.5739	4,141.11	84.9693	4,141.11	85.6201	4,141.11	84.6689	4,141.11	84.2223	4,141.11	85.9081	4,141.11	80.9035	4,141.11	83.7377	4,141.11	80.0855	4,141.11	80.1474	4,141.11	77.2307	4,141.11	77.0315	4,141.11	76.1354	4,141.11	74.3356	4,141.11	75.2897	4,141.11	73.1753	4,141.11	72.2154	4,141.11	71.8077	4,141.11	73.981	4,141.11	65.7518	4,141.11	74.5383	4,141.11	67.2057	4,141.11	71.9261	4,141.11	69.8972	4,141.11	71.2341	4,141.11	62.9177	4,141.11	72.5977
4,287.6	91.9818	4,287.6	92.2737	4,287.6	90.9226	4,287.6	90.3539	4,287.6	91.0422	4,287.6	90.222	4,287.6	90.0022	4,287.6	89.6906	4,287.6	89.6092	4,287.6	87.9558	4,287.6	84.3764	4,287.6	85.732	4,287.6	83.3068	4,287.6	82.6329	4,287.6	85.6823	4,287.6	79.8913	4,287.6	84.2247	4,287.6	79.3767	4,287.6	80.4313	4,287.6	76.5479	4,287.6	76.9786	4,287.6	74.8767	4,287.6	74.6248	4,287.6	71.5382	4,287.6	74.129	4,287.6	71.5222	4,287.6	71.2068	4,287.6	71.994	4,287.6	59.5644	4,287.6	71.2057	4,287.6	67.2766	4,287.6	68.9245	4,287.6	67.7669	4,287.6	70.9459	4,287.6	57.26	4,287.6	70.2178
4,438.48	92.8719	4,438.48	91.6901	4,438.48	92.9235	4,438.48	90.6745	4,438.48	90.9319	4,438.48	90.5895	4,438.48	89.5623	4,438.48	87.8962	4,438.48	89.1801	4,438.48	87.1365	4,438.48	85.3026	4,438.48	84.1648	4,438.48	84.78	4,438.48	80.895	4,438.48	85.8022	4,438.48	79.5553	4,438.48	83.6796	4,438.48	77.3057	4,438.48	81.9803	4,438.48	77.55	4,438.48	77.9803	4,438.48	73.6065	4,438.48	73.7614	4,438.48	73.0719	4,438.48	74.352	4,438.48	73.4106	4,438.48	71.0293	4,438.48	68.6053	4,438.48	62.9005	4,438.48	69.4039	4,438.48	64.5192	4,438.48	67.5278	4,438.48	62.4278	4,438.48	68.7962	4,438.48	57.3085	4,438.48	67.6426
4,595.21	93.6495	4,595.21	91.8647	4,595.21	92.8165	4,595.21	91.7252	4,595.21	91.0038	4,595.21	90.0825	4,595.21	88.1223	4,595.21	87.7873	4,595.21	89.5763	4,595.21	86.6217	4,595.21	87.9096	4,595.21	84.8511	4,595.21	83.2473	4,595.21	83.1996	4,595.21	86.0861	4,595.21	81.1027	4,595.21	84.7503	4,595.21	76.2437	4,595.21	80.7933	4,595.21	74.8468	4,595.21	76.3005	4,595.21	74.122	4,595.21	76.2606	4,595.21	72.7895	4,595.21	73.4422	4,595.21	71.2989	4,595.21	73.7979	4,595.21	70.3673	4,595.21	65.8195	4,595.21	69.5474	4,595.21	68.0835	4,595.21	69.213	4,595.21	55.9414	4,595.21	68.6066	4,595.21	63.236	4,595.21	67.9979
4,756.35	92.9426	4,756.35	91.618	4,756.35	92.7032	4,756.35	89.5906	4,756.35	91.5709	4,756.35	88.6666	4,756.35	88.7462	4,756.35	88.1507	4,756.35	89.4372	4,756.35	85.3696	4,756.35	87.9937	4,756.35	84.0335	4,756.35	84.9438	4,756.35	82.307	4,756.35	85.7799	4,756.35	79.5097	4,756.35	84.0427	4,756.35	78.3341	4,756.35	81.5205	4,756.35	75.172	4,756.35	77.1206	4,756.35	76.2049	4,756.35	73.9108	4,756.35	74.1022	4,756.35	73.8253	4,756.35	73.5784	4,756.35	73.26	4,756.35	71.0941	4,756.35	56.0293	4,756.35	69.7568	4,756.35	68.2944	4,756.35	69.6761	4,756.35	59.2394	4,756.35	66.6487	4,756.35	62.2426	4,756.35	68.9834
4,924.8	92.4954	4,924.8	91.0336	4,924.8	92.7509	4,924.8	91.0113	4,924.8	90.6996	4,924.8	89.9066	4,924.8	89.6438	4,924.8	90.1712	4,924.8	88.3263	4,924.8	88.6166	4,924.8	87.4726	4,924.8	86.436	4,924.8	83.4981	4,924.8	83.223	4,924.8	85.6149	4,924.8	80.7815	4,924.8	82.8646	4,924.8	78.9915	4,924.8	80.1962	4,924.8	78.0805	4,924.8	75.3279	4,924.8	73.9561	4,924.8	75.6299	4,924.8	71.7009	4,924.8	75.1648	4,924.8	70.4225	4,924.8	72.0546	4,924.8	69.3548	4,924.8	47.3622	4,924.8	67.7659	4,924.8	66.5527	4,924.8	67.8234	4,924.8	53.5188	4,924.8	66.9825	4,924.8	46.2934	4,924.8	61.7842
5,097.66	92.384	5,097.66	91.3638	5,097.66	92.35	5,097.66	91.5445	5,097.66	91.2099	5,097.66	90.515	5,097.66	89.4158	5,097.66	89.1176	5,097.66	89.3018	5,097.66	87.3554	5,097.66	88.8079	5,097.66	84.5824	5,097.66	84.6491	5,097.66	81.1114	5,097.66	85.4085	5,097.66	79.8709	5,097.66	82.693	5,097.66	75.6189	5,097.66	78.6578	5,097.66	77.0435	5,097.66	75.3879	5,097.66	72.4238	5,097.66	72.9162	5,097.66	68.886	5,097.66	70.593	5,097.66	67.0362	5,097.66	68.031	5,097.66	68.4523	5,097.66	54.7733	5,097.66	70.2151	5,097.66	69.7886	5,097.66	69.1334	5,097.66	56.6338	5,097.66	67.3845	5,097.66	58.1119	5,097.66	54.0008
5,277.83	90.5882	5,277.83	90.3299	5,277.83	90.9668	5,277.83	88.7696	5,277.83	90.8989	5,277.83	90.2336	5,277.83	89.2309	5,277.83	88.357	5,277.83	89.3332	5,277.83	87.2355	5,277.83	89.3793	5,277.83	84.9213	5,277.83	84.9011	5,277.83	83.8637	5,277.83	84.9612	5,277.83	81.9642	5,277.83	81.957	5,277.83	79.4103	5,277.83	77.8552	5,277.83	75.0489	5,277.83	75.8699	5,277.83	74.4868	5,277.83	72.1391	5,277.83	71.9587	5,277.83	71.0243	5,277.83	70.6559	5,277.83	68.9422	5,277.83	65.2991	5,277.83	51.5325	5,277.83	69.2193	5,277.83	66.7598	5,277.83	68.6417	5,277.83	48.1987	5,277.83	67.4528	5,277.83	61.1403	5,277.83	61.8675
5,463.87	90.9352	5,463.87	91.0158	5,463.87	92.2136	5,463.87	90.2327	5,463.87	90.9056	5,463.87	90.7318	5,463.87	89.9074	5,463.87	89.4351	5,463.87	88.8132	5,463.87	87.3498	5,463.87	88.1928	5,463.87	85.589	5,463.87	84.8789	5,463.87	82.7883	5,463.87	84.8022	5,463.87	80.1564	5,463.87	80.2569	5,463.87	78.7182	5,463.87	77.577	5,463.87	74.3514	5,463.87	72.6706	5,463.87	71.4515	5,463.87	71.6649	5,463.87	68.9845	5,463.87	65.7216	5,463.87	70.7765	5,463.87	72.8269	5,463.87	68.8274	5,463.87	59.7465	5,463.87	68.1037	5,463.87	62.4619	5,463.87	68.5137	5,463.87	55.7399	5,463.87	66.5516	5,463.87	51.5668	5,463.87	57.9342
5,657.23	90.9157	5,657.23	90.5756	5,657.23	91.6861	5,657.23	90.4143	5,657.23	90.8113	5,657.23	90.3894	5,657.23	89.041	5,657.23	88.7933	5,657.23	88.6943	5,657.23	86.7803	5,657.23	88.0561	5,657.23	84.8568	5,657.23	83.8668	5,657.23	80.88	5,657.23	82.2655	5,657.23	80.3605	5,657.23	82.4145	5,657.23	77.7306	5,657.23	77.2469	5,657.23	77.09	5,657.23	73.2336	5,657.23	72.4701	5,657.23	68.9392	5,657.23	72.4204	5,657.23	68.2415	5,657.23	69.6828	5,657.23	72.0484	5,657.23	69.7539	5,657.23	56.999	5,657.23	65.1207	5,657.23	60.487	5,657.23	68.7104	5,657.23	57.6789	5,657.23	66.5817	5,657.23	57.6286	5,657.23	59.4617
5,856.45	91.317	5,856.45	90.7449	5,856.45	91.3168	5,856.45	90.442	5,856.45	91.0716	5,856.45	90.2328	5,856.45	89.4923	5,856.45	88.4267	5,856.45	89.3034	5,856.45	87.14	5,856.45	88.6195	5,856.45	85.3055	5,856.45	84.9316	5,856.45	83.4035	5,856.45	84.2028	5,856.45	80.2433	5,856.45	82.6447	5,856.45	77.7322	5,856.45	77.6214	5,856.45	75.6256	5,856.45	72.1055	5,856.45	75.0421	5,856.45	72.336	5,856.45	72.9346	5,856.45	70.2912	5,856.45	70.1953	5,856.45	73.2449	5,856.45	66.914	5,856.45	46.6499	5,856.45	65.3076	5,856.45	60.3379	5,856.45	70.5703	5,856.45	59.877	5,856.45	63.3112	5,856.45	55.3454	5,856.45	61.0768
6,062.99	91.4198	6,062.99	91.0284	6,062.99	91.6507	6,062.99	90.6644	6,062.99	90.6645	6,062.99	89.3857	6,062.99	90.3659	6,062.99	88.3433	6,062.99	88.3858	6,062.99	86.7212	6,062.99	87.3248	6,062.99	85.5565	6,062.99	84.6861	6,062.99	83.2093	6,062.99	83.0777	6,062.99	78.2165	6,062.99	82.0467	6,062.99	76.2567	6,062.99	78.2133	6,062.99	73.39	6,062.99	71.5997	6,062.99	73.3752	6,062.99	71.261	6,062.99	69.372	6,062.99	68.9909	6,062.99	72.3464	6,062.99	74.9875	6,062.99	68.6826	6,062.99	51.6939	6,062.99	61.732	6,062.99	59.4815	6,062.99	69.2371	6,062.99	55.2708	6,062.99	63.5053	6,062.99	47.6972	6,062.99	57.0206
6,276.86	92.2319	6,276.86	91.6361	6,276.86	91.6184	6,276.86	91.0453	6,276.86	91.305	6,276.86	89.5112	6,276.86	89.899	6,276.86	88.7652	6,276.86	88.8831	6,276.86	87.1445	6,276.86	88.3533	6,276.86	84.9126	6,276.86	83.9247	6,276.86	79.8719	6,276.86	81.298	6,276.86	78.1199	6,276.86	82.4827	6,276.86	74.4558	6,276.86	77.2019	6,276.86	74.3662	6,276.86	72.9247	6,276.86	70.6608	6,276.86	71.3969	6,276.86	70.5369	6,276.86	71.3732	6,276.86	64.8616	6,276.86	74.292	6,276.86	63.4561	6,276.86	49.7688	6,276.86	59.8886	6,276.86	59.4687	6,276.86	67.0566	6,276.86	61.8576	6,276.86	62.5173	6,276.86	51.7632	6,276.86	59.6457
6,498.05	92.1072	6,498.05	91.5519	6,498.05	91.9926	6,498.05	90.1918	6,498.05	91.2637	6,498.05	89.051	6,498.05	90.9491	6,498.05	88.0447	6,498.05	88.0848	6,498.05	87.2877	6,498.05	87.9895	6,498.05	83.2639	6,498.05	85.4416	6,498.05	80.9054	6,498.05	83.729	6,498.05	78.6053	6,498.05	82.5965	6,498.05	75.8855	6,498.05	77.3018	6,498.05	74.0675	6,498.05	74.0997	6,498.05	70.3349	6,498.05	72.0734	6,498.05	68.7026	6,498.05	68.8699	6,498.05	69.9525	6,498.05	70.5326	6,498.05	66.1304	6,498.05	56.2428	6,498.05	63.7493	6,498.05	60.5058	6,498.05	63.4399	6,498.05	64.6403	6,498.05	61.1684	6,498.05	55.0506	6,498.05	61.9695
6,726.56	91.8082	6,726.56	91.4695	6,726.56	91.9046	6,726.56	90.3195	6,726.56	90.5248	6,726.56	89.4291	6,726.56	90.6901	6,726.56	89.1505	6,726.56	88.1432	6,726.56	87.0528	6,726.56	86.9085	6,726.56	84.087	6,726.56	85.668	6,726.56	82.1922	6,726.56	83.2403	6,726.56	79.2815	6,726.56	82.0037	6,726.56	77.1344	6,726.56	77.7073	6,726.56	73.8382	6,726.56	74.02	6,726.56	71.8248	6,726.56	71.1711	6,726.56	71.7171	6,726.56	63.3116	6,726.56	69.8545	6,726.56	71.8106	6,726.56	68.4597	6,726.56	52.1584	6,726.56	67.1961	6,726.56	55.1352	6,726.56	65.8855	6,726.56	53.127	6,726.56	60.1202	6,726.56	50.919	6,726.56	57.2995
6,963.87	91.9858	6,963.87	92.0434	6,963.87	91.4235	6,963.87	90.3078	6,963.87	91.024	6,963.87	89.5562	6,963.87	90.0128	6,963.87	89.5379	6,963.87	88.3699	6,963.87	86.3004	6,963.87	87.6512	6,963.87	85.4518	6,963.87	85.9335	6,963.87	82.8446	6,963.87	83.2969	6,963.87	79.6437	6,963.87	82.1402	6,963.87	78.4892	6,963.87	77.9764	6,963.87	75.2904	6,963.87	71.4548	6,963.87	72.8934	6,963.87	71.2946	6,963.87	70.2812	6,963.87	68.0997	6,963.87	70.4485	6,963.87	70.6176	6,963.87	66.8441	6,963.87	62.4213	6,963.87	66.954	6,963.87	61.1578	6,963.87	67.1769	6,963.87	57.1976	6,963.87	62.4323	6,963.87	55.1116	6,963.87	60.8736
7,209.96	91.8733	7,209.96	92.1418	7,209.96	91.8805	7,209.96	90.1879	7,209.96	91.0658	7,209.96	90.608	7,209.96	90.0938	7,209.96	89.2589	7,209.96	88.6143	7,209.96	87.9788	7,209.96	87.4431	7,209.96	85.5591	7,209.96	86.8746	7,209.96	83.5697	7,209.96	84.2029	7,209.96	79.5261	7,209.96	81.9461	7,209.96	77.6666	7,209.96	77.5336	7,209.96	74.5173	7,209.96	72.8614	7,209.96	73.2402	7,209.96	70.3949	7,209.96	72.0834	7,209.96	68.6037	7,209.96	69.2815	7,209.96	72.8735	7,209.96	67.9357	7,209.96	59.6627	7,209.96	67.7771	7,209.96	52.4188	7,209.96	69.8582	7,209.96	50.3755	7,209.96	61.1366	7,209.96	53.9071	7,209.96	61.5095
7,464.84	92.2521	7,464.84	92.0716	7,464.84	91.4357	7,464.84	90.6026	7,464.84	91.3797	7,464.84	90.4805	7,464.84	90.0363	7,464.84	89.1979	7,464.84	88.9849	7,464.84	87.9802	7,464.84	87.6957	7,464.84	85.5593	7,464.84	86.2866	7,464.84	82.809	7,464.84	83.3084	7,464.84	80.4142	7,464.84	81.4624	7,464.84	78.0308	7,464.84	76.7267	7,464.84	74.6759	7,464.84	72.913	7,464.84	73.8736	7,464.84	69.0448	7,464.84	71.1236	7,464.84	67.051	7,464.84	68.7407	7,464.84	70.8223	7,464.84	66.6919	7,464.84	62.0201	7,464.84	67.4568	7,464.84	59.4609	7,464.84	69.9184	7,464.84	53.8497	7,464.84	60.0392	7,464.84	52.4125	7,464.84	59.2897
7,727.05	92.2076	7,727.05	91.7122	7,727.05	91.5593	7,727.05	90.6259	7,727.05	91.3853	7,727.05	90.3025	7,727.05	90.0781	7,727.05	89.0484	7,727.05	88.7764	7,727.05	87.0846	7,727.05	88.0359	7,727.05	86.161	7,727.05	86.14	7,727.05	82.5227	7,727.05	83.224	7,727.05	80.2184	7,727.05	80.7833	7,727.05	77.1412	7,727.05	75.0995	7,727.05	74.3405	7,727.05	73.933	7,727.05	72.7546	7,727.05	69.9112	7,727.05	70.374	7,727.05	68.5079	7,727.05	69.2179	7,727.05	70.5107	7,727.05	68.4233	7,727.05	62.5541	7,727.05	65.8716	7,727.05	59.9767	7,727.05	66.645	7,727.05	56.2251	7,727.05	60.212	7,727.05	53.3057	7,727.05	53.9356
7,999.51	91.8514	7,999.51	91.6491	7,999.51	91.3936	7,999.51	90.9081	7,999.51	91.2475	7,999.51	89.9609	7,999.51	90.76	7,999.51	88.6641	7,999.51	88.7503	7,999.51	87.9557	7,999.51	87.678	7,999.51	85.0744	7,999.51	85.9065	7,999.51	82.4112	7,999.51	82.194	7,999.51	78.5001	7,999.51	80.718	7,999.51	76.027	7,999.51	74.4285	7,999.51	73.0743	7,999.51	72.9813	7,999.51	70.3391	7,999.51	69.1521	7,999.51	70.3104	7,999.51	65.1155	7,999.51	67.9996	7,999.51	69.8937	7,999.51	67.4193	7,999.51	62.9831	7,999.51	65.9031	7,999.51	59.1943	7,999.51	64.9123	7,999.51	56.282	7,999.51	59.4127	7,999.51	48.2759	7,999.51	57.0272
8,282.23	91.8308	8,282.23	91.4496	8,282.23	91.3172	8,282.23	91.0798	8,282.23	91.2439	8,282.23	89.6187	8,282.23	90.6908	8,282.23	89.0399	8,282.23	89.092	8,282.23	87.2223	8,282.23	87.7793	8,282.23	84.7044	8,282.23	85.7225	8,282.23	81.4795	8,282.23	81.9512	8,282.23	78.3324	8,282.23	80.334	8,282.23	76.4047	8,282.23	74.7524	8,282.23	73.3886	8,282.23	72.8584	8,282.23	70.2698	8,282.23	68.7011	8,282.23	68.6698	8,282.23	65.0464	8,282.23	67.6798	8,282.23	66.8828	8,282.23	64.9305	8,282.23	61.9712	8,282.23	66.4127	8,282.23	62.2556	8,282.23	64.1828	8,282.23	58.4545	8,282.23	56.8943	8,282.23	49.4507	8,282.23	51.2522
8,573.73	91.8408	8,573.73	91.2997	8,573.73	91.6128	8,573.73	91.5554	8,573.73	91.6814	8,573.73	89.7269	8,573.73	90.9359	8,573.73	89.1896	8,573.73	89.2657	8,573.73	87.6687	8,573.73	87.572	8,573.73	84.6118	8,573.73	85.4678	8,573.73	81.9283	8,573.73	82.1831	8,573.73	79.2093	8,573.73	81.7023	8,573.73	75.7818	8,573.73	75.6467	8,573.73	74.1581	8,573.73	72.1924	8,573.73	71.0175	8,573.73	67.8746	8,573.73	70.3963	8,573.73	63.8704	8,573.73	67.0852	8,573.73	67.4067	8,573.73	65.0982	8,573.73	61.3495	8,573.73	67.0708	8,573.73	61.6487	8,573.73	65.8309	8,573.73	57.6678	8,573.73	61.1051	8,573.73	30.915	8,573.73	56.6256
8,876.95	91.4978	8,876.95	91.6436	8,876.95	91.8992	8,876.95	91.4915	8,876.95	91.4395	8,876.95	89.9545	8,876.95	90.9132	8,876.95	89.222	8,876.95	89.5093	8,876.95	87.695	8,876.95	87.4998	8,876.95	84.8676	8,876.95	85.5555	8,876.95	82.3439	8,876.95	82.5619	8,876.95	79.8016	8,876.95	81.8668	8,876.95	76.7996	8,876.95	76.0284	8,876.95	74.236	8,876.95	72.866	8,876.95	71.8084	8,876.95	66.6465	8,876.95	71.1231	8,876.95	62.4857	8,876.95	68.0655	8,876.95	67.6174	8,876.95	66.1901	8,876.95	60.8447	8,876.95	66.3879	8,876.95	62.1838	8,876.95	65.9416	8,876.95	58.2796	8,876.95	62.3173	8,876.95	38.1778	8,876.95	50.5769
9,188.96	91.3322	9,188.96	92.0209	9,188.96	92.0012	9,188.96	91.3633	9,188.96	91.1568	9,188.96	90.2027	9,188.96	90.6698	9,188.96	89.1102	9,188.96	89.4613	9,188.96	87.4453	9,188.96	86.8092	9,188.96	85.412	9,188.96	85.5381	9,188.96	82.5269	9,188.96	82.0129	9,188.96	80.0804	9,188.96	81.5301	9,188.96	77.0312	9,188.96	75.5392	9,188.96	73.4338	9,188.96	70.9013	9,188.96	71.4068	9,188.96	65.0759	9,188.96	70.1233	9,188.96	58.3555	9,188.96	67.3512	9,188.96	60.6254	9,188.96	66.2114	9,188.96	57.2341	9,188.96	65.3404	9,188.96	61.314	9,188.96	65.2903	9,188.96	53.5232	9,188.96	64.4902	9,188.96	51.1072	9,188.96	58.0427
9,514.16	91.2075	9,514.16	91.8097	9,514.16	91.849	9,514.16	91.1404	9,514.16	90.9969	9,514.16	90.3709	9,514.16	90.404	9,514.16	88.9109	9,514.16	89.5021	9,514.16	87.0346	9,514.16	86.895	9,514.16	85.0688	9,514.16	85.1926	9,514.16	82.5777	9,514.16	81.6497	9,514.16	78.576	9,514.16	80.5288	9,514.16	74.5926	9,514.16	74.8476	9,514.16	71.6545	9,514.16	70.4655	9,514.16	69.5668	9,514.16	65.7287	9,514.16	68.935	9,514.16	58.6142	9,514.16	63.3512	9,514.16	60.7499	9,514.16	65.181	9,514.16	49.6121	9,514.16	66.9906	9,514.16	54.6018	9,514.16	65.0475	9,514.16	44.5	9,514.16	63.2286	9,514.16	49.917	9,514.16	55.4476
9,849.61	91.193	9,849.61	91.5476	9,849.61	91.6459	9,849.61	91.2544	9,849.61	91.2076	9,849.61	90.102	9,849.61	90.437	9,849.61	88.3293	9,849.61	89.1211	9,849.61	86.81	9,849.61	87.19	9,849.61	84.7577	9,849.61	84.7281	9,849.61	81.2524	9,849.61	81.0311	9,849.61	76.5426	9,849.61	79.473	9,849.61	74.0229	9,849.61	74.8066	9,849.61	71.1788	9,849.61	70.3685	9,849.61	69.9114	9,849.61	64.9723	9,849.61	66.4244	9,849.61	56.2908	9,849.61	64.7689	9,849.61	56.9638	9,849.61	64.9361	9,849.61	47.0633	9,849.61	65.4306	9,849.61	49.809	9,849.61	63.3973	9,849.61	53.2339	9,849.61	60.0845	9,849.61	50.0591	9,849.61	53.6853
10,196.8	91.6002	10,196.8	91.7676	10,196.8	91.6941	10,196.8	91.1494	10,196.8	91.146	10,196.8	89.9697	10,196.8	90.5084	10,196.8	87.6985	10,196.8	88.6994	10,196.8	86.9335	10,196.8	86.9016	10,196.8	83.865	10,196.8	84.4878	10,196.8	80.2407	10,196.8	80.3119	10,196.8	76.8316	10,196.8	78.7383	10,196.8	73.1479	10,196.8	73.572	10,196.8	71.0125	10,196.8	69.9613	10,196.8	68.2241	10,196.8	62.3643	10,196.8	66.0688	10,196.8	55.0967	10,196.8	65.5221	10,196.8	50.4977	10,196.8	63.9679	10,196.8	40.4299	10,196.8	64.8972	10,196.8	52.772	10,196.8	62.8928	10,196.8	53.7939	10,196.8	60.8854	10,196.8	56.5537	10,196.8	52.1109
10,555.7	91.6835	10,555.7	91.5403	10,555.7	91.5853	10,555.7	90.9971	10,555.7	91.2734	10,555.7	89.76	10,555.7	90.3221	10,555.7	87.7123	10,555.7	88.3814	10,555.7	86.3006	10,555.7	86.5682	10,555.7	82.9603	10,555.7	83.9578	10,555.7	79.2002	10,555.7	79.9861	10,555.7	75.8457	10,555.7	77.8408	10,555.7	72.9219	10,555.7	72.9263	10,555.7	69.8121	10,555.7	68.4141	10,555.7	67.4799	10,555.7	61.9544	10,555.7	65.2429	10,555.7	58.5634	10,555.7	65.2469	10,555.7	55.1539	10,555.7	62.8696	10,555.7	35.2897	10,555.7	64.7678	10,555.7	54.5991	10,555.7	61.5474	10,555.7	49.7354	10,555.7	58.2002	10,555.7	55.4678	10,555.7	52.0502
10,927.7	91.5164	10,927.7	91.0283	10,927.7	91.4343	10,927.7	90.8542	10,927.7	91.0345	10,927.7	89.2182	10,927.7	89.9148	10,927.7	87.5547	10,927.7	87.8844	10,927.7	84.8458	10,927.7	85.9476	10,927.7	81.8316	10,927.7	83.237	10,927.7	78.2343	10,927.7	78.7275	10,927.7	75.2976	10,927.7	77.3657	10,927.7	71.8228	10,927.7	72.4787	10,927.7	69.4517	10,927.7	68.2235	10,927.7	66.224	10,927.7	59.7358	10,927.7	64.6965	10,927.7	55.9901	10,927.7	64.3325	10,927.7	51.269	10,927.7	61.5132	10,927.7	39.6883	10,927.7	60.8098	10,927.7	55.778	10,927.7	60.3224	10,927.7	48.8845	10,927.7	56.8696	10,927.7	55.1612	10,927.7	51.1598
11,313	91.7999	11,313	91.0764	11,313	91.3244	11,313	90.808	11,313	90.9399	11,313	88.919	11,313	89.6678	11,313	87.176	11,313	87.6732	11,313	83.9477	11,313	84.9809	11,313	82.0202	11,313	82.8087	11,313	77.8991	11,313	78.7685	11,313	74.0683	11,313	76.2635	11,313	70.384	11,313	72.4465	11,313	67.7255	11,313	66.0411	11,313	64.6144	11,313	56.1893	11,313	65.1343	11,313	54.2693	11,313	63.7329	11,313	53.5055	11,313	60.2457	11,313	44.4494	11,313	59.0339	11,313	49.7841	11,313	57.1213	11,313	47.15	11,313	55.4918	11,313	48.0794	11,313	48.0481
11,712.9	91.8303	11,712.9	90.9869	11,712.9	91.3484	11,712.9	90.5389	11,712.9	90.7746	11,712.9	88.5009	11,712.9	89.353	11,712.9	86.4503	11,712.9	87.503	11,712.9	83.8073	11,712.9	84.1848	11,712.9	81.1536	11,712.9	82.351	11,712.9	77.1701	11,712.9	77.8731	11,712.9	73.613	11,712.9	74.225	11,712.9	70.0813	11,712.9	71.9921	11,712.9	67.1869	11,712.9	63.4304	11,712.9	65.3293	11,712.9	53.6831	11,712.9	64.1678	11,712.9	55.6379	11,712.9	60.3224	11,712.9	54.8719	11,712.9	58.9084	11,712.9	49.7587	11,712.9	59.0664	11,712.9	49.2459	11,712.9	54.4801	11,712.9	50.5054	11,712.9	55.3023	11,712.9	51.1827	11,712.9	39.9918
12,126	91.6352	12,126	90.822	12,126	91.2576	12,126	90.0497	12,126	90.6128	12,126	88.6086	12,126	89.4389	12,126	85.5745	12,126	87.2998	12,126	83.497	12,126	83.9046	12,126	79.8522	12,126	81.5259	12,126	75.8913	12,126	76.5616	12,126	71.9675	12,126	72.7575	12,126	69.1002	12,126	70.9829	12,126	65.491	12,126	59.8076	12,126	64.3378	12,126	43.9391	12,126	61.5632	12,126	52.8742	12,126	59.3415	12,126	55.807	12,126	56.4179	12,126	45.9942	12,126	58.5847	12,126	51.5062	12,126	53.4045	12,126	48.2302	12,126	54.7688	12,126	49.4945	12,126	32.3175
12,553.7	91.4563	12,553.7	90.7279	12,553.7	91.3166	12,553.7	89.7017	12,553.7	90.48	12,553.7	88.3328	12,553.7	89.2663	12,553.7	84.7699	12,553.7	86.8238	12,553.7	82.3799	12,553.7	83.5982	12,553.7	78.5181	12,553.7	80.1739	12,553.7	74.5024	12,553.7	75.2693	12,553.7	71.5358	12,553.7	73.1471	12,553.7	67.5714	12,553.7	69.942	12,553.7	65.5176	12,553.7	57.6954	12,553.7	62.6039	12,553.7	45.6778	12,553.7	59.294	12,553.7	46.2429	12,553.7	59.9431	12,553.7	50.3791	12,553.7	56.7277	12,553.7	48.9216	12,553.7	57.8647	12,553.7	53.7436	12,553.7	51.8412	12,553.7	52.233	12,553.7	52.4406	12,553.7	42.3631	12,553.7	41.9177
12,996.1	91.5586	12,996.1	90.8195	12,996.1	91.4395	12,996.1	89.685	12,996.1	90.2044	12,996.1	87.6729	12,996.1	88.5972	12,996.1	84.1518	12,996.1	86.0407	12,996.1	81.3067	12,996.1	82.8803	12,996.1	77.5315	12,996.1	78.5857	12,996.1	73.5283	12,996.1	73.7588	12,996.1	69.4298	12,996.1	71.8534	12,996.1	65.5198	12,996.1	67.7719	12,996.1	62.7387	12,996.1	59.4899	12,996.1	60.8369	12,996.1	45.5415	12,996.1	58.0795	12,996.1	43.2862	12,996.1	58.8065	12,996.1	35.0221	12,996.1	55.4699	12,996.1	44.5469	12,996.1	48.406	12,996.1	49.7272	12,996.1	44.7044	12,996.1	50.4137	12,996.1	49.7911	12,996.1	47.4346	12,996.1	44.6188
13,454.6	91.748	13,454.6	90.9086	13,454.6	91.5459	13,454.6	89.4225	13,454.6	90.1575	13,454.6	87.2103	13,454.6	88.38	13,454.6	84.2072	13,454.6	85.8194	13,454.6	79.8417	13,454.6	81.6036	13,454.6	76.1837	13,454.6	77.398	13,454.6	71.805	13,454.6	72.5373	13,454.6	66.5052	13,454.6	68.1398	13,454.6	63.3251	13,454.6	65.2082	13,454.6	59.5474	13,454.6	56.664	13,454.6	57.7426	13,454.6	40.1042	13,454.6	56.9225	13,454.6	44.1454	13,454.6	56.0778	13,454.6	47.9832	13,454.6	52.8542	13,454.6	43.5649	13,454.6	42.8529	13,454.6	44.812	13,454.6	36.2907	13,454.6	51.2296	13,454.6	47.8847	13,454.6	49.4989	13,454.6	40.0114
13,929.2	91.4333	13,929.2	90.8652	13,929.2	91.2405	13,929.2	89.1709	13,929.2	89.9741	13,929.2	86.817	13,929.2	87.7748	13,929.2	83.1136	13,929.2	84.9344	13,929.2	78.0358	13,929.2	79.6627	13,929.2	74.5288	13,929.2	75.8055	13,929.2	68.2634	13,929.2	69.5598	13,929.2	62.0905	13,929.2	64.732	13,929.2	57.3947	13,929.2	62.148	13,929.2	59.4057	13,929.2	46.4742	13,929.2	53.2447	13,929.2	40.2841	13,929.2	52.322	13,929.2	46.9956	13,929.2	51.833	13,929.2	42.738	13,929.2	47.3958	13,929.2	42.7568	13,929.2	44.4236	13,929.2	47.2422	13,929.2	41.4683	13,929.2	50.5946	13,929.2	50.4382	13,929.2	50.3861	13,929.2	42.4043
14,419.9	91.1591	14,419.9	90.6151	14,419.9	91.055	14,419.9	88.6405	14,419.9	89.6435	14,419.9	86.0291	14,419.9	87.216	14,419.9	81.3369	14,419.9	83.7378	14,419.9	76.3781	14,419.9	78.4637	14,419.9	70.5982	14,419.9	73.549	14,419.9	62.0049	14,419.9	67.8305	14,419.9	60.177	14,419.9	64.557	14,419.9	57.2134	14,419.9	60.8551	14,419.9	57.4847	14,419.9	50.4084	14,419.9	52.8331	14,419.9	44.4002	14,419.9	53.3478	14,419.9	46.5826	14,419.9	52.3149	14,419.9	44.4231	14,419.9	42.4827	14,419.9	44.5374	14,419.9	42.0685	14,419.9	36.022	14,419.9	44.8566	14,419.9	51.2254	14,419.9	50.0849	14,419.9	50.6172	14,419.9	43.247
14,928.2	91.0789	14,928.2	90.414	14,928.2	90.8871	14,928.2	88.3935	14,928.2	89.2319	14,928.2	85.5412	14,928.2	86.6547	14,928.2	80.0967	14,928.2	82.73	14,928.2	74.8872	14,928.2	77.5896	14,928.2	65.8508	14,928.2	71.3938	14,928.2	65.0793	14,928.2	68.813	14,928.2	61.6335	14,928.2	66.5713	14,928.2	57.7067	14,928.2	63.244	14,928.2	56.1625	14,928.2	50.0023	14,928.2	52.133	14,928.2	42.0892	14,928.2	51.7215	14,928.2	46.3469	14,928.2	51.4052	14,928.2	46.7863	14,928.2	41.5026	14,928.2	31.4003	14,928.2	44.951	14,928.2	42.9466	14,928.2	36.322	14,928.2	46.2066	14,928.2	47.26	14,928.2	52.5186	14,928.2	45.0326
15,455.6	90.8736	15,455.6	90.1201	15,455.6	90.553	15,455.6	88.1071	15,455.6	89.0042	15,455.6	84.8748	15,455.6	86.2347	15,455.6	79.6164	15,455.6	81.8936	15,455.6	73.0567	15,455.6	76.0926	15,455.6	66.5687	15,455.6	69.7145	15,455.6	65.5913	15,455.6	66.9585	15,455.6	61.409	15,455.6	64.3021	15,455.6	56.9872	15,455.6	62.0842	15,455.6	55.0018	15,455.6	47.7185	15,455.6	52.3836	15,455.6	31.6258	15,455.6	49.503	15,455.6	41.7893	15,455.6	49.0174	15,455.6	44.7542	15,455.6	41.3711	15,455.6	29.3518	15,455.6	44.7749	15,455.6	44.8601	15,455.6	28.2233	15,455.6	42.1706	15,455.6	49.9919	15,455.6	50.5172	15,455.6	43.6972
16,000.5	90.7674	16,000.5	89.898	16,000.5	90.2666	16,000.5	87.9226	16,000.5	88.6675	16,000.5	84.1928	16,000.5	85.4182	16,000.5	79.0082	16,000.5	81.0624	16,000.5	70.7336	16,000.5	74.3748	16,000.5	66.1258	16,000.5	68.2239	16,000.5	62.1302	16,000.5	63.7125	16,000.5	59.9431	16,000.5	61.2747	16,000.5	56.8451	16,000.5	58.8038	16,000.5	54.824	16,000.5	43.9087	16,000.5	51.5612	16,000.5	41.029	16,000.5	48.9592	16,000.5	33.1973	16,000.5	49.8281	16,000.5	41.1984	16,000.5	41.4806	16,000.5	24.7011	16,000.5	41.8174	16,000.5	41.7515	16,000.5	28.1631	16,000.5	38.5029	16,000.5	47.6744	16,000.5	47.5561	16,000.5	40.8309
16,564.5	90.7726	16,564.5	89.8081	16,564.5	90.1775	16,564.5	87.6226	16,564.5	88.4279	16,564.5	83.4337	16,564.5	84.6924	16,564.5	77.2986	16,564.5	80.1005	16,564.5	68.2926	16,564.5	72.9813	16,564.5	62.855	16,564.5	68.4315	16,564.5	64.0577	16,564.5	65.5433	16,564.5	62.3542	16,564.5	62.7843	16,564.5	58.8086	16,564.5	59.2282	16,564.5	54.7571	16,564.5	46.7315	16,564.5	53.0469	16,564.5	41.9587	16,564.5	51.6951	16,564.5	43.5122	16,564.5	49.2896	16,564.5	32.9991	16,564.5	46.241	16,564.5	37.7942	16,564.5	38.7208	16,564.5	22.5827	16,564.5	33.1802	16,564.5	42.4566	16,564.5	47.5739	16,564.5	43.9134	16,564.5	40.9939
17,148.9	90.9003	17,148.9	89.8582	17,148.9	90.2336	17,148.9	87.501	17,148.9	88.2964	17,148.9	82.9647	17,148.9	84.4935	17,148.9	75.4875	17,148.9	79.5392	17,148.9	67.707	17,148.9	72.7674	17,148.9	67.1304	17,148.9	68.5685	17,148.9	66.8326	17,148.9	67.9002	17,148.9	63.7743	17,148.9	63.9235	17,148.9	60.501	17,148.9	60.0417	17,148.9	55.72	17,148.9	46.6066	17,148.9	53.9065	17,148.9	40.5906	17,148.9	51.4194	17,148.9	41.419	17,148.9	48.1681	17,148.9	24.9436	17,148.9	44.1437	17,148.9	37.6442	17,148.9	36.8705	17,148.9	31.4818	17,148.9	31.9992	17,148.9	34.6994	17,148.9	47.2455	17,148.9	39.4459	17,148.9	41.4822
17,752.4	91.0887	17,752.4	90.0509	17,752.4	90.3882	17,752.4	87.5523	17,752.4	88.358	17,752.4	82.9368	17,752.4	84.5412	17,752.4	74.9636	17,752.4	78.9121	17,752.4	67.9697	17,752.4	72.1713	17,752.4	69.4607	17,752.4	67.8352	17,752.4	67.8861	17,752.4	67.4222	17,752.4	65.2648	17,752.4	63.4983	17,752.4	61.7082	17,752.4	58.9342	17,752.4	56.8611	17,752.4	46.8983	17,752.4	54.3529	17,752.4	40.2103	17,752.4	52.6787	17,752.4	39.518	17,752.4	49.5028	17,752.4	26.2013	17,752.4	44.9847	17,752.4	37.0417	17,752.4	38.7821	17,752.4	34.493	17,752.4	32.6391	17,752.4	20.356	17,752.4	46.8971	17,752.4	33.6555	17,752.4	39.9059
18,379.4	90.9461	18,379.4	89.8393	18,379.4	90.3139	18,379.4	87.2319	18,379.4	88.2195	18,379.4	82.2777	18,379.4	84.2974	18,379.4	73.7884	18,379.4	77.9465	18,379.4	67.5835	18,379.4	70.4928	18,379.4	69.43	18,379.4	67.7917	18,379.4	68.0728	18,379.4	67.9424	18,379.4	64.9917	18,379.4	64.0583	18,379.4	61.5797	18,379.4	59.3983	18,379.4	56.5871	18,379.4	45.7985	18,379.4	54.2554	18,379.4	38.8275	18,379.4	52.4918	18,379.4	36.5143	18,379.4	48.6141	18,379.4	33.3271	18,379.4	44.7964	18,379.4	27.0019	18,379.4	36.2076	18,379.4	36.5439	18,379.4	34.0221	18,379.4	32.2112	18,379.4	43.5375	18,379.4	18.0138	18,379.4	37.8335
19,026.9	90.4527	19,026.9	89.2454	19,026.9	89.8558	19,026.9	86.3713	19,026.9	87.6881	19,026.9	81.0321	19,026.9	83.6864	19,026.9	71.6565	19,026.9	76.6943	19,026.9	66.9133	19,026.9	68.7105	19,026.9	69.3066	19,026.9	68.4842	19,026.9	67.4554	19,026.9	69.0036	19,026.9	64.2628	19,026.9	65.5307	19,026.9	61.5552	19,026.9	58.9127	19,026.9	55.3839	19,026.9	47.3734	19,026.9	55.0154	19,026.9	38.3806	19,026.9	52.5122	19,026.9	35.0988	19,026.9	47.5872	19,026.9	35.6254	19,026.9	42.8517	19,026.9	29.6121	19,026.9	34.554	19,026.9	39.4363	19,026.9	36.5419	19,026.9	36.4584	19,026.9	41.1189	19,026.9	18.8209	19,026.9	32.4599
19,697.8	89.7407	19,697.8	88.5158	19,697.8	89.1933	19,697.8	85.4104	19,697.8	87.0153	19,697.8	79.8043	19,697.8	82.7053	19,697.8	69.137	19,697.8	74.974	19,697.8	67.5067	19,697.8	66.8855	19,697.8	69.9241	19,697.8	68.2653	19,697.8	67.8443	19,697.8	68.9746	19,697.8	64.4185	19,697.8	65.7906	19,697.8	60.8929	19,697.8	58.0519	19,697.8	55.9397	19,697.8	50.2849	19,697.8	55.3976	19,697.8	41.1514	19,697.8	51.5422	19,697.8	30.2631	19,697.8	46.2347	19,697.8	29.4541	19,697.8	37.6256	19,697.8	25.8489	19,697.8	32.9265	19,697.8	39.1677	19,697.8	37.1219	19,697.8	33.7144	19,697.8	36.1037	19,697.8	29.8642	19,697.8	34.38
19,999.5	89.3238	19,999.5	88.1604	19,999.5	88.8873	19,999.5	84.8852	19,999.5	86.7318	19,999.5	79.0847	19,999.5	82.1249	19,999.5	66.2731	19,999.5	74.0635	19,999.5	68.1671	19,999.5	66.3882	19,999.5	70.1743	19,999.5	68.9687	19,999.5	67.2366	19,999.5	68.2721	19,999.5	65.7896	19,999.5	67.546	19,999.5	61.5959	19,999.5	59.5956	19,999.5	57.149	19,999.5	56.023	19,999.5	55.6782	19,999.5	53.0487	19,999.5	51.3101	19,999.5	41.6406	19,999.5	57.7162	19,999.5	51.5818	19,999.5	52.9012	19,999.5	47.1191	19,999.5	55.2633	19,999.5	57.282	19,999.5	54.6041	19,999.5	32.4778	19,999.5	44.9305	19,999.5	44.8655	19,999.5	43.0573
