"SPL Vertical"
"On-Axis"		"10°"		"-10°"		"20°"		"-20°"		"30°"		"-30°"		"40°"		"-40°"		"50°"		"-50°"		"60°"		"-60°"		"70°"		"-70°"		"80°"		"-80°"		"90°"		"-90°"		"100°"		"-100°"		"110°"		"-110°"		"120°"		"-120°"		"130°"		"-130°"		"140°"		"-140°"		"150°"		"-150°"		"160°"		"-160°"		"170°"		"-170°"		"180°"
"Frequency / Hz"	"Sound Pressure Level / dB (re 20 µPa/V)  [2.83  V @ 1. m]"	"Frequency / Hz"	"Sound Pressure Level / dB (re 20 µPa/V)  [2.83  V @ 1. m]"	"Frequency / Hz"	"Sound Pressure Level / dB (re 20 µPa/V)  [2.83  V @ 1. m]"	"Frequency / Hz"	"Sound Pressure Level / dB (re 20 µPa/V)  [2.83  V @ 1. m]"	"Frequency / Hz"	"Sound Pressure Level / dB (re 20 µPa/V)  [2.83  V @ 1. m]"	"Frequency / Hz"	"Sound Pressure Level / dB (re 20 µPa/V)  [2.83  V @ 1. m]"	"Frequency / Hz"	"Sound Pressure Level / dB (re 20 µPa/V)  [2.83  V @ 1. m]"	"Frequency / Hz"	"Sound Pressure Level / dB (re 20 µPa/V)  [2.83  V @ 1. m]"	"Frequency / Hz"	"Sound Pressure Level / dB (re 20 µPa/V)  [2.83  V @ 1. m]"	"Frequency / Hz"	"Sound Pressure Level / dB (re 20 µPa/V)  [2.83  V @ 1. m]"	"Frequency / Hz"	"Sound Pressure Level / dB (re 20 µPa/V)  [2.83  V @ 1. m]"	"Frequency / Hz"	"Sound Pressure Level / dB (re 20 µPa/V)  [2.83  V @ 1. m]"	"Frequency / Hz"	"Sound Pressure Level / dB (re 20 µPa/V)  [2.83  V @ 1. m]"	"Frequency / Hz"	"Sound Pressure Level / dB (re 20 µPa/V)  [2.83  V @ 1. m]"	"Frequency / Hz"	"Sound Pressure Level / dB (re 20 µPa/V)  [2.83  V @ 1. m]"	"Frequency / Hz"	"Sound Pressure Level / dB (re 20 µPa/V)  [2.83  V @ 1. m]"	"Frequency / Hz"	"Sound Pressure Level / dB (re 20 µPa/V)  [2.83  V @ 1. m]"	"Frequency / Hz"	"Sound Pressure Level / dB (re 20 µPa/V)  [2.83  V @ 1. m]"	"Frequency / Hz"	"Sound Pressure Level / dB (re 20 µPa/V)  [2.83  V @ 1. m]"	"Frequency / Hz"	"Sound Pressure Level / dB (re 20 µPa/V)  [2.83  V @ 1. m]"	"Frequency / Hz"	"Sound Pressure Level / dB (re 20 µPa/V)  [2.83  V @ 1. m]"	"Frequency / Hz"	"Sound Pressure Level / dB (re 20 µPa/V)  [2.83  V @ 1. m]"	"Frequency / Hz"	"Sound Pressure Level / dB (re 20 µPa/V)  [2.83  V @ 1. m]"	"Frequency / Hz"	"Sound Pressure Level / dB (re 20 µPa/V)  [2.83  V @ 1. m]"	"Frequency / Hz"	"Sound Pressure Level / dB (re 20 µPa/V)  [2.83  V @ 1. m]"	"Frequency / Hz"	"Sound Pressure Level / dB (re 20 µPa/V)  [2.83  V @ 1. m]"	"Frequency / Hz"	"Sound Pressure Level / dB (re 20 µPa/V)  [2.83  V @ 1. m]"	"Frequency / Hz"	"Sound Pressure Level / dB (re 20 µPa/V)  [2.83  V @ 1. m]"	"Frequency / Hz"	"Sound Pressure Level / dB (re 20 µPa/V)  [2.83  V @ 1. m]"	"Frequency / Hz"	"Sound Pressure Level / dB (re 20 µPa/V)  [2.83  V @ 1. m]"	"Frequency / Hz"	"Sound Pressure Level / dB (re 20 µPa/V)  [2.83  V @ 1. m]"	"Frequency / Hz"	"Sound Pressure Level / dB (re 20 µPa/V)  [2.83  V @ 1. m]"	"Frequency / Hz"	"Sound Pressure Level / dB (re 20 µPa/V)  [2.83  V @ 1. m]"	"Frequency / Hz"	"Sound Pressure Level / dB (re 20 µPa/V)  [2.83  V @ 1. m]"	"Frequency / Hz"	"Sound Pressure Level / dB (re 20 µPa/V)  [2.83  V @ 1. m]"	"Frequency / Hz"	"Sound Pressure Level / dB (re 20 µPa/V)  [2.83  V @ 1. m]"
20.5078	42.3687	20.5078	41.849	20.5078	42.8615	20.5078	41.3173	20.5078	43.32	20.5078	40.7983	20.5078	43.741	20.5078	40.3282	20.5078	44.1244	20.5078	39.9529	20.5078	44.4706	20.5078	39.7198	20.5078	44.7808	20.5078	39.6643	20.5078	45.0551	20.5078	39.7973	20.5078	45.2931	20.5078	40.1018	20.5078	45.4935	20.5078	40.5424	20.5078	45.6539	20.5078	41.0781	20.5078	45.7708	20.5078	41.6711	20.5078	45.84	20.5078	42.2895	20.5078	45.8564	20.5078	42.9062	20.5078	45.8141	20.5078	43.4976	20.5078	45.7068	20.5078	44.0434	20.5078	45.5283	20.5078	44.5278	20.5078	45.2735	20.5078	44.9397
21.9727	43.9781	21.9727	44.2776	21.9727	43.7134	21.9727	44.5965	21.9727	43.4955	21.9727	44.9182	21.9727	43.331	21.9727	45.2262	21.9727	43.2207	21.9727	45.506	21.9727	43.1603	21.9727	45.7447	21.9727	43.1421	21.9727	45.931	21.9727	43.1569	21.9727	46.0557	21.9727	43.1961	21.9727	46.1116	21.9727	43.252	21.9727	46.0944	21.9727	43.3189	21.9727	46.0041	21.9727	43.3934	21.9727	45.8456	21.9727	43.4744	21.9727	45.6293	21.9727	43.563	21.9727	45.3709	21.9727	43.6629	21.9727	45.0898	21.9727	43.7798	21.9727	44.8061	21.9727	43.9205	21.9727	44.5377	21.9727	44.0916	21.9727	44.2974
23.4375	43.8787	23.4375	43.8753	23.4375	43.8583	23.4375	43.8429	23.4375	43.8189	23.4375	43.7771	23.4375	43.7646	23.4375	43.6741	23.4375	43.6986	23.4375	43.532	23.4375	43.6229	23.4375	43.3505	23.4375	43.5386	23.4375	43.1317	23.4375	43.4456	23.4375	42.8801	23.4375	43.3433	23.4375	42.6035	23.4375	43.2303	23.4375	42.3139	23.4375	43.1048	23.4375	42.0281	23.4375	42.965	23.4375	41.7673	23.4375	42.8089	23.4375	41.5547	23.4375	42.6355	23.4375	41.411	23.4375	42.4453	23.4375	41.3494	23.4375	42.2407	23.4375	41.3721	23.4375	42.028	23.4375	41.4697	23.4375	41.8176	23.4375	41.6251
24.9023	46.9517	24.9023	46.9567	24.9023	46.8948	24.9023	46.9038	24.9023	46.7947	24.9023	46.791	24.9023	46.6616	24.9023	46.6211	24.9023	46.5054	24.9023	46.4014	24.9023	46.3352	24.9023	46.1427	24.9023	46.1582	24.9023	45.858	24.9023	45.9798	24.9023	45.5609	24.9023	45.8035	24.9023	45.2645	24.9023	45.6312	24.9023	44.9815	24.9023	45.4636	24.9023	44.7243	24.9023	45.3007	24.9023	44.5049	24.9023	45.1417	24.9023	44.334	24.9023	44.9861	24.9023	44.2192	24.9023	44.8337	24.9023	44.1633	24.9023	44.6853	24.9023	44.1634	24.9023	44.5432	24.9023	44.2119	24.9023	44.4119	24.9023	44.2984
26.3672	43.6161	26.3672	43.485	26.3672	43.7432	26.3672	43.3558	26.3672	43.8662	26.3672	43.2413	26.3672	43.9887	26.3672	43.1609	26.3672	44.1156	26.3672	43.1366	26.3672	44.2517	26.3672	43.1873	26.3672	44.4003	26.3672	43.323	26.3672	44.5631	26.3672	43.5419	26.3672	44.7398	26.3672	43.8308	26.3672	44.9284	26.3672	44.1689	26.3672	45.1256	26.3672	44.5325	26.3672	45.3266	26.3672	44.8981	26.3672	45.5254	26.3672	45.2443	26.3672	45.7147	26.3672	45.553	26.3672	45.8861	26.3672	45.8101	26.3672	46.03	26.3672	46.0058	26.3672	46.1363	26.3672	46.1348	26.3672	46.1949	26.3672	46.1966
27.832	44.6888	27.832	44.6107	27.832	44.8094	27.832	44.5841	27.832	44.9634	27.832	44.6167	27.832	45.1429	27.832	44.7131	27.832	45.3413	27.832	44.873	27.832	45.5533	27.832	45.0913	27.832	45.7749	27.832	45.3581	27.832	46.0027	27.832	45.6602	27.832	46.2336	27.832	45.9832	27.832	46.4647	27.832	46.3128	27.832	46.6931	27.832	46.6356	27.832	46.9153	27.832	46.9396	27.832	47.1275	27.832	47.2139	27.832	47.325	27.832	47.449	27.832	47.5023	27.832	47.6369	27.832	47.653	27.832	47.7722	27.832	47.7702	27.832	47.8516	27.832	47.8466	27.832	47.8755
29.2969	40.6788	29.2969	40.4122	29.2969	40.8797	29.2969	40.0829	29.2969	41.0228	29.2969	39.7109	29.2969	41.1228	29.2969	39.3389	29.2969	41.1972	29.2969	39.0332	29.2969	41.2641	29.2969	38.874	29.2969	41.3404	29.2969	38.9281	29.2969	41.4401	29.2969	39.2171	29.2969	41.5732	29.2969	39.7061	29.2969	41.7447	29.2969	40.323	29.2969	41.9544	29.2969	40.9892	29.2969	42.1967	29.2969	41.6398	29.2969	42.4613	29.2969	42.2285	29.2969	42.7342	29.2969	42.7258	29.2969	42.9986	29.2969	43.115	29.2969	43.2362	29.2969	43.3891	29.2969	43.4279	29.2969	43.5487	29.2969	43.555	29.2969	43.6002
30.7617	46.586	30.7617	46.459	30.7617	46.6739	30.7617	46.2956	30.7617	46.7225	30.7617	46.1006	30.7617	46.7331	30.7617	45.8807	30.7617	46.7083	30.7617	45.6441	30.7617	46.6515	30.7617	45.3992	30.7617	46.5661	30.7617	45.1543	30.7617	46.4558	30.7617	44.9174	30.7617	46.324	30.7617	44.6965	30.7617	46.1737	30.7617	44.5	30.7617	46.0079	30.7617	44.3364	30.7617	45.8294	30.7617	44.2138	30.7617	45.641	30.7617	44.1391	30.7617	45.4455	30.7617	44.1161	30.7617	45.246	30.7617	44.1449	30.7617	45.0459	30.7617	44.2215	30.7617	44.8492	30.7617	44.339	30.7617	44.6613	30.7617	44.4885
32.2266	49.0498	32.2266	48.9902	32.2266	49.0788	32.2266	48.8988	32.2266	49.0793	32.2266	48.7759	32.2266	49.0541	32.2266	48.6233	32.2266	49.0057	32.2266	48.445	32.2266	48.9368	32.2266	48.2466	32.2266	48.8495	32.2266	48.035	32.2266	48.7456	32.2266	47.8183	32.2266	48.6267	32.2266	47.6051	32.2266	48.4939	32.2266	47.4039	32.2266	48.3486	32.2266	47.2235	32.2266	48.192	32.2266	47.0723	32.2266	48.0261	32.2266	46.9578	32.2266	47.8532	32.2266	46.8859	32.2266	47.6769	32.2266	46.8601	32.2266	47.5016	32.2266	46.8807	32.2266	47.3333	32.2266	46.9448	32.2266	47.1789	32.2266	47.0467
33.6914	49.4748	33.6914	49.4018	33.6914	49.5475	33.6914	49.3319	33.6914	49.6179	33.6914	49.2692	33.6914	49.6844	33.6914	49.2182	33.6914	49.7464	33.6914	49.1836	33.6914	49.8038	33.6914	49.1692	33.6914	49.8565	33.6914	49.1775	33.6914	49.9049	33.6914	49.2094	33.6914	49.9491	33.6914	49.2634	33.6914	49.9892	33.6914	49.3366	33.6914	50.0249	33.6914	49.4248	33.6914	50.0558	33.6914	49.5228	33.6914	50.0812	33.6914	49.6252	33.6914	50.0999	33.6914	49.7266	33.6914	50.1103	33.6914	49.8218	33.6914	50.1109	33.6914	49.9067	33.6914	50.0995	33.6914	49.978	33.6914	50.0744	33.6914	50.0341
35.1562	49.3892	35.1562	49.3039	35.1562	49.4667	35.1562	49.2147	35.1562	49.5337	35.1562	49.1259	35.1562	49.5879	35.1562	49.042	35.1562	49.6282	35.1562	48.9674	35.1562	49.6543	35.1562	48.9053	35.1562	49.6665	35.1562	48.8582	35.1562	49.6654	35.1562	48.8268	35.1562	49.6522	35.1562	48.8107	35.1562	49.6281	35.1562	48.8087	35.1562	49.5943	35.1562	48.8189	35.1562	49.5522	35.1562	48.8399	35.1562	49.5031	35.1562	48.8702	35.1562	49.4482	35.1562	48.9091	35.1562	49.3888	35.1562	48.9556	35.1562	49.3261	35.1562	49.0089	35.1562	49.2612	35.1562	49.0677	35.1562	49.1955	35.1562	49.1305
36.6211	51.9263	36.6211	51.8911	36.6211	51.9479	36.6211	51.8435	36.6211	51.956	36.6211	51.7865	36.6211	51.9515	36.6211	51.7236	36.6211	51.9364	36.6211	51.6592	36.6211	51.9127	36.6211	51.5973	36.6211	51.8826	36.6211	51.5409	36.6211	51.8481	36.6211	51.492	36.6211	51.8109	36.6211	51.4515	36.6211	51.7725	36.6211	51.4194	36.6211	51.7338	36.6211	51.396	36.6211	51.6956	36.6211	51.3812	36.6211	51.6583	36.6211	51.3753	36.6211	51.622	36.6211	51.378	36.6211	51.5869	36.6211	51.3889	36.6211	51.5528	36.6211	51.4069	36.6211	51.5198	36.6211	51.4303	36.6211	51.4879	36.6211	51.4578
38.0859	51.7953	38.0859	51.7859	38.0859	51.7903	38.0859	51.7621	38.0859	51.772	38.0859	51.7251	38.0859	51.742	38.0859	51.6771	38.0859	51.7022	38.0859	51.6209	38.0859	51.6545	38.0859	51.5598	38.0859	51.6006	38.0859	51.496	38.0859	51.542	38.0859	51.4314	38.0859	51.48	38.0859	51.3666	38.0859	51.4158	38.0859	51.3023	38.0859	51.3507	38.0859	51.2393	38.0859	51.286	38.0859	51.1789	38.0859	51.2233	38.0859	51.1233	38.0859	51.1644	38.0859	51.0748	38.0859	51.111	38.0859	51.0358	38.0859	51.0653	38.0859	51.0083	38.0859	51.0292	38.0859	50.9935	38.0859	51.0044	38.0859	50.9923
39.5508	54.1155	39.5508	54.1113	39.5508	54.1052	39.5508	54.0897	39.5508	54.0829	39.5508	54.0491	39.5508	54.0514	39.5508	53.9885	39.5508	54.0126	39.5508	53.9087	39.5508	53.9681	39.5508	53.8113	39.5508	53.9185	39.5508	53.6994	39.5508	53.8641	39.5508	53.5773	39.5508	53.8047	39.5508	53.4501	39.5508	53.7398	39.5508	53.3239	39.5508	53.6693	39.5508	53.2056	39.5508	53.593	39.5508	53.1022	39.5508	53.5112	39.5508	53.0202	39.5508	53.425	39.5508	52.9644	39.5508	53.336	39.5508	52.9373	39.5508	53.2468	39.5508	52.9387	39.5508	53.1608	39.5508	52.9661	39.5508	53.0822	39.5508	53.0156
41.0156	49.8305	41.0156	49.6314	41.0156	50.1321	41.0156	49.5692	41.0156	50.5018	41.0156	49.6693	41.0156	50.9112	41.0156	49.9397	41.0156	51.3401	41.0156	50.3687	41.0156	51.7758	41.0156	50.9283	41.0156	52.2113	41.0156	51.5819	41.0156	52.6432	41.0156	52.2907	41.0156	53.0702	41.0156	53.0176	41.0156	53.4913	41.0156	53.7291	41.0156	53.9055	41.0156	54.3951	41.0156	54.3107	41.0156	54.9903	41.0156	54.7035	41.0156	55.4943	41.0156	55.0787	41.0156	55.8926	41.0156	55.4289	41.0156	56.1769	41.0156	55.7447	41.0156	56.3456	41.0156	56.0142	41.0156	56.4028	41.0156	56.2235	41.0156	56.3579
42.4805	54.8125	42.4805	54.7262	42.4805	54.8713	42.4805	54.613	42.4805	54.903	42.4805	54.4746	42.4805	54.9085	42.4805	54.3146	42.4805	54.8892	42.4805	54.1382	42.4805	54.8469	42.4805	53.9529	42.4805	54.7834	42.4805	53.7676	42.4805	54.701	42.4805	53.5927	42.4805	54.6024	42.4805	53.4388	42.4805	54.4908	42.4805	53.3155	42.4805	54.3696	42.4805	53.2293	42.4805	54.2426	42.4805	53.1829	42.4805	54.1139	42.4805	53.1741	42.4805	53.987	42.4805	53.1971	42.4805	53.8655	42.4805	53.2437	42.4805	53.7515	42.4805	53.3065	42.4805	53.6463	42.4805	53.38	42.4805	53.5498	42.4805	53.4612
43.9453	55.3173	43.9453	55.2594	43.9453	55.3586	43.9453	55.1857	43.9453	55.3835	43.9453	55.0985	43.9453	55.3929	43.9453	55.0013	43.9453	55.3884	43.9453	54.8995	43.9453	55.3718	43.9453	54.7996	43.9453	55.345	43.9453	54.7084	43.9453	55.3106	43.9453	54.6328	43.9453	55.2709	43.9453	54.5788	43.9453	55.2287	43.9453	54.5507	43.9453	55.1862	43.9453	54.55	43.9453	55.1457	43.9453	54.5753	43.9453	55.1087	43.9453	54.6218	43.9453	55.0756	43.9453	54.6823	43.9453	55.0462	43.9453	54.7486	43.9453	55.0187	43.9453	54.8133	43.9453	54.9905	43.9453	54.8711	43.9453	54.9585	43.9453	54.9194
45.4102	56.0007	45.4102	55.9762	45.4102	56.0081	45.4102	55.9352	45.4102	55.9991	45.4102	55.8797	45.4102	55.9751	45.4102	55.8133	45.4102	55.9382	45.4102	55.7409	45.4102	55.8907	45.4102	55.6682	45.4102	55.8353	45.4102	55.6008	45.4102	55.7749	45.4102	55.5436	45.4102	55.7124	45.4102	55.4998	45.4102	55.6509	45.4102	55.4707	45.4102	55.5932	45.4102	55.4554	45.4102	55.5422	45.4102	55.4511	45.4102	55.4999	45.4102	55.4536	45.4102	55.4681	45.4102	55.4586	45.4102	55.4473	45.4102	55.4621	45.4102	55.4371	45.4102	55.4618	45.4102	55.4359	45.4102	55.457	45.4102	55.441	45.4102	55.4492
46.875	55.868	46.875	55.8242	46.875	55.8966	46.875	55.7662	46.875	55.9096	46.875	55.6962	46.875	55.9076	46.875	55.6174	46.875	55.8913	46.875	55.5337	46.875	55.8621	46.875	55.4496	46.875	55.8217	46.875	55.37	46.875	55.7721	46.875	55.2989	46.875	55.7156	46.875	55.2399	46.875	55.6546	46.875	55.1953	46.875	55.5916	46.875	55.1657	46.875	55.529	46.875	55.1505	46.875	55.4692	46.875	55.1477	46.875	55.4139	46.875	55.1544	46.875	55.3645	46.875	55.1677	46.875	55.3216	46.875	55.1851	46.875	55.2852	46.875	55.2053	46.875	55.2544	46.875	55.2282
48.3398	56.9502	48.3398	56.9121	48.3398	56.9792	48.3398	56.8667	48.3398	56.9978	48.3398	56.8161	48.3398	57.0055	48.3398	56.7626	48.3398	57.0019	48.3398	56.7089	48.3398	56.9875	48.3398	56.6574	48.3398	56.9632	48.3398	56.6103	48.3398	56.9304	48.3398	56.5695	48.3398	56.8907	48.3398	56.5363	48.3398	56.8461	48.3398	56.5113	48.3398	56.7986	48.3398	56.4941	48.3398	56.7503	48.3398	56.4841	48.3398	56.7032	48.3398	56.4798	48.3398	56.659	48.3398	56.48	48.3398	56.6191	48.3398	56.4837	48.3398	56.5844	48.3398	56.4906	48.3398	56.5555	48.3398	56.5005	48.3398	56.5322	48.3398	56.5141
51.2695	58.3683	51.2695	58.3447	51.2695	58.383	51.2695	58.3136	51.2695	58.3879	51.2695	58.2772	51.2695	58.3828	51.2695	58.2377	51.2695	58.3682	51.2695	58.1978	51.2695	58.3451	51.2695	58.16	51.2695	58.3152	51.2695	58.1264	51.2695	58.2803	51.2695	58.0988	51.2695	58.2429	51.2695	58.0781	51.2695	58.2053	51.2695	58.0647	51.2695	58.1698	51.2695	58.0582	51.2695	58.1383	51.2695	58.0574	51.2695	58.1124	51.2695	58.0604	51.2695	58.0929	51.2695	58.0653	51.2695	58.08	51.2695	58.07	51.2695	58.073	51.2695	58.0731	51.2695	58.0706	51.2695	58.074	51.2695	58.0713	51.2695	58.073
52.7344	59.2013	52.7344	59.1819	52.7344	59.2083	52.7344	59.1509	52.7344	59.2028	52.7344	59.1096	52.7344	59.1851	52.7344	59.0599	52.7344	59.1561	52.7344	59.0042	52.7344	59.1169	52.7344	58.945	52.7344	59.0693	52.7344	58.8851	52.7344	59.015	52.7344	58.8271	52.7344	58.9563	52.7344	58.7729	52.7344	58.8954	52.7344	58.7241	52.7344	58.8346	52.7344	58.6815	52.7344	58.7761	52.7344	58.6455	52.7344	58.722	52.7344	58.6157	52.7344	58.6739	52.7344	58.592	52.7344	58.6331	52.7344	58.5738	52.7344	58.6006	52.7344	58.5611	52.7344	58.5768	52.7344	58.5544	52.7344	58.5615	52.7344	58.5543
54.1992	59.8167	54.1992	59.7955	54.1992	59.8287	54.1992	59.7665	54.1992	59.8309	54.1992	59.7313	54.1992	59.8229	54.1992	59.6918	54.1992	59.8047	54.1992	59.6501	54.1992	59.7772	54.1992	59.6084	54.1992	59.7415	54.1992	59.5686	54.1992	59.6992	54.1992	59.5323	54.1992	59.6525	54.1992	59.5004	54.1992	59.6035	54.1992	59.4732	54.1992	59.5547	54.1992	59.4505	54.1992	59.5084	54.1992	59.4315	54.1992	59.4665	54.1992	59.4153	54.1992	59.4308	54.1992	59.4012	54.1992	59.4024	54.1992	59.3887	54.1992	59.3819	54.1992	59.3778	54.1992	59.3691	54.1992	59.3692	54.1992	59.3635	54.1992	59.364
55.6641	60.3563	55.6641	60.3284	55.6641	60.3711	55.6641	60.2889	55.6641	60.3719	55.6641	60.2399	55.6641	60.3586	55.6641	60.1838	55.6641	60.3315	55.6641	60.1235	55.6641	60.2917	55.6641	60.0621	55.6641	60.2411	55.6641	60.0025	55.6641	60.182	55.6641	59.9476	55.6641	60.1172	55.6641	59.8993	55.6641	60.0499	55.6641	59.8589	55.6641	59.9831	55.6641	59.8264	55.6641	59.9202	55.6641	59.8011	55.6641	59.8638	55.6641	59.7814	55.6641	59.816	55.6641	59.7657	55.6641	59.7785	55.6641	59.7526	55.6641	59.7516	55.6641	59.7415	55.6641	59.735	55.6641	59.7327	55.6641	59.7275	55.6641	59.7274
58.5938	61.6756	58.5938	61.6806	58.5938	61.6627	58.5938	61.6776	58.5938	61.642	58.5938	61.667	58.5938	61.6138	58.5938	61.649	58.5938	61.5786	58.5938	61.6243	58.5938	61.5375	58.5938	61.5936	58.5938	61.4918	58.5938	61.5585	58.5938	61.4431	58.5938	61.5205	58.5938	61.3937	58.5938	61.4815	58.5938	61.3456	58.5938	61.4433	58.5938	61.3012	58.5938	61.4073	58.5938	61.2625	58.5938	61.3744	58.5938	61.2313	58.5938	61.3446	58.5938	61.2089	58.5938	61.3173	58.5938	61.1958	58.5938	61.292	58.5938	61.1919	58.5938	61.268	58.5938	61.1965	58.5938	61.2454	58.5938	61.2081	58.5938	61.225
60.0586	62.225	60.0586	62.2095	60.0586	62.2301	60.0586	62.1844	60.0586	62.2244	60.0586	62.1504	60.0586	62.2075	60.0586	62.108	60.0586	62.1793	60.0586	62.0582	60.0586	62.1404	60.0586	62.0018	60.0586	62.0915	60.0586	61.94	60.0586	62.0341	60.0586	61.8742	60.0586	61.9697	60.0586	61.806	60.0586	61.9005	60.0586	61.7371	60.0586	61.8286	60.0586	61.6697	60.0586	61.7564	60.0586	61.606	60.0586	61.6861	60.0586	61.5483	60.0586	61.6202	60.0586	61.4991	60.0586	61.5607	60.0586	61.4607	60.0586	61.5096	60.0586	61.4347	60.0586	61.4689	60.0586	61.4224	60.0586	61.44	60.0586	61.4242
62.9883	63.5118	62.9883	63.492	62.9883	63.5181	62.9883	63.4597	62.9883	63.5103	62.9883	63.4162	62.9883	63.4885	62.9883	63.3632	62.9883	63.4532	62.9883	63.3025	62.9883	63.4055	62.9883	63.236	62.9883	63.3471	62.9883	63.1658	62.9883	63.2802	62.9883	63.0941	62.9883	63.2073	62.9883	63.0231	62.9883	63.1311	62.9883	62.9548	62.9883	63.0544	62.9883	62.8911	62.9883	62.9799	62.9883	62.8336	62.9883	62.9101	62.9883	62.7837	62.9883	62.8469	62.9883	62.7425	62.9883	62.7922	62.9883	62.7108	62.9883	62.7474	62.9883	62.6892	62.9883	62.7132	62.9883	62.6784	62.9883	62.6902	62.9883	62.6786
64.4531	64.1748	64.4531	64.165	64.4531	64.1698	64.4531	64.1405	64.4531	64.15	64.4531	64.1022	64.4531	64.1162	64.4531	64.0515	64.4531	64.0694	64.4531	63.99	64.4531	64.0114	64.4531	63.9198	64.4531	63.9441	64.4531	63.8434	64.4531	63.8697	64.4531	63.7632	64.4531	63.7908	64.4531	63.6819	64.4531	63.7098	64.4531	63.6018	64.4531	63.6293	64.4531	63.5253	64.4531	63.5516	64.4531	63.4547	64.4531	63.4791	64.4531	63.3918	64.4531	63.4137	64.4531	63.3384	64.4531	63.3572	64.4531	63.2959	64.4531	63.3109	64.4531	63.2656	64.4531	63.276	64.4531	63.2483	64.4531	63.2536	64.4531	63.2443
67.3828	64.9855	67.3828	64.9723	67.3828	64.9873	67.3828	64.9484	67.3828	64.9774	67.3828	64.9147	67.3828	64.956	67.3828	64.8724	67.3828	64.9234	67.3828	64.8228	67.3828	64.8809	67.3828	64.7677	67.3828	64.8299	67.3828	64.7087	67.3828	64.7722	67.3828	64.6478	67.3828	64.7099	67.3828	64.587	67.3828	64.6453	67.3828	64.5281	67.3828	64.5808	67.3828	64.4726	67.3828	64.5184	67.3828	64.4218	67.3828	64.4602	67.3828	64.3769	67.3828	64.4078	67.3828	64.3389	67.3828	64.3627	67.3828	64.3087	67.3828	64.3258	67.3828	64.2871	67.3828	64.2982	67.3828	64.2749	67.3828	64.2804	67.3828	64.2726
68.8477	65.5457	68.8477	65.5364	68.8477	65.5457	68.8477	65.5183	68.8477	65.5362	68.8477	65.4917	68.8477	65.5171	68.8477	65.4571	68.8477	65.4885	68.8477	65.4153	68.8477	65.451	68.8477	65.3672	68.8477	65.4054	68.8477	65.3139	68.8477	65.3531	68.8477	65.2567	68.8477	65.2956	68.8477	65.1973	68.8477	65.2348	68.8477	65.1372	68.8477	65.1725	68.8477	65.0782	68.8477	65.1109	68.8477	65.0222	68.8477	65.0517	68.8477	64.9709	68.8477	64.997	68.8477	64.9263	68.8477	64.9484	68.8477	64.8901	68.8477	64.9076	68.8477	64.864	68.8477	64.8762	68.8477	64.8491	68.8477	64.8554	68.8477	64.8462
71.7773	66.7794	71.7773	66.7691	71.7773	66.7764	71.7773	66.7462	71.7773	66.7602	71.7773	66.7118	71.7773	66.7311	71.7773	66.6675	71.7773	66.6902	71.7773	66.6152	71.7773	66.6391	71.7773	66.5571	71.7773	66.5797	71.7773	66.4954	71.7773	66.5145	71.7773	66.4321	71.7773	66.4459	71.7773	66.3692	71.7773	66.3766	71.7773	66.3085	71.7773	66.309	71.7773	66.2512	71.7773	66.2454	71.7773	66.1986	71.7773	66.1877	71.7773	66.1516	71.7773	66.1374	71.7773	66.1111	71.7773	66.0958	71.7773	66.0776	71.7773	66.0636	71.7773	66.052	71.7773	66.0413	71.7773	66.035	71.7773	66.0292	71.7773	66.0272
74.707	67.4644	74.707	67.4554	74.707	67.4616	74.707	67.4355	74.707	67.4467	74.707	67.4059	74.707	67.4201	74.707	67.3682	74.707	67.3826	74.707	67.3243	74.707	67.3359	74.707	67.2761	74.707	67.2818	74.707	67.2255	74.707	67.2228	74.707	67.1742	74.707	67.1615	74.707	67.1236	74.707	67.1006	74.707	67.0753	74.707	67.0426	74.707	67.0301	74.707	66.9899	74.707	66.9891	74.707	66.9442	74.707	66.9528	74.707	66.9067	74.707	66.9214	74.707	66.878	74.707	66.8951	74.707	66.8584	74.707	66.8739	74.707	66.8472	74.707	66.858	74.707	66.844	74.707	66.8479
77.6367	68.5716	77.6367	68.5658	77.6367	68.564	77.6367	68.5471	77.6367	68.5429	77.6367	68.5165	77.6367	68.5086	77.6367	68.4752	77.6367	68.4619	77.6367	68.4248	77.6367	68.4044	77.6367	68.3674	77.6367	68.3379	77.6367	68.305	77.6367	68.2649	77.6367	68.2399	77.6367	68.1884	77.6367	68.1743	77.6367	68.1113	77.6367	68.11	77.6367	68.0369	77.6367	68.0486	77.6367	67.9681	77.6367	67.9914	77.6367	67.9073	77.6367	67.9393	77.6367	67.8567	77.6367	67.893	77.6367	67.8175	77.6367	67.8532	77.6367	67.7904	77.6367	67.8204	77.6367	67.7753	77.6367	67.7953	77.6367	67.7717	77.6367	67.7787
79.1016	69.0888	79.1016	69.0789	79.1016	69.0845	79.1016	69.0555	79.1016	69.0658	79.1016	69.0198	79.1016	69.0329	79.1016	68.9732	79.1016	68.9867	79.1016	68.9177	79.1016	68.9286	79.1016	68.8553	79.1016	68.8608	79.1016	68.7884	79.1016	68.7857	79.1016	68.7192	79.1016	68.7062	79.1016	68.6497	79.1016	68.6255	79.1016	68.5817	79.1016	68.5466	79.1016	68.5166	79.1016	68.4725	79.1016	68.4557	79.1016	68.4058	79.1016	68.3999	79.1016	68.3486	79.1016	68.3506	79.1016	68.3023	79.1016	68.3087	79.1016	68.2679	79.1016	68.2754	79.1016	68.2459	79.1016	68.2516	79.1016	68.2361	79.1016	68.2382
82.0312	69.968	82.0312	69.9555	82.0312	69.9625	82.0312	69.9254	82.0312	69.9393	82.0312	69.8789	82.0312	69.8991	82.0312	69.8179	82.0312	69.8433	82.0312	69.7451	82.0312	69.7739	82.0312	69.6637	82.0312	69.6935	82.0312	69.5776	82.0312	69.6049	82.0312	69.4903	82.0312	69.5115	82.0312	69.4051	82.0312	69.4168	82.0312	69.3247	82.0312	69.3242	82.0312	69.2505	82.0312	69.2371	82.0312	69.1834	82.0312	69.1583	82.0312	69.1238	82.0312	69.0905	82.0312	69.072	82.0312	69.0354	82.0312	69.0283	82.0312	68.9941	82.0312	68.9936	82.0312	68.9673	82.0312	68.9689	82.0312	68.9546	82.0312	68.9555
84.9609	70.5945	84.9609	70.5606	84.9609	70.6106	84.9609	70.5112	84.9609	70.6073	84.9609	70.4494	84.9609	70.5844	84.9609	70.3787	84.9609	70.5429	84.9609	70.3021	84.9609	70.4848	84.9609	70.2223	84.9609	70.4128	84.9609	70.1412	84.9609	70.3304	84.9609	70.0603	84.9609	70.2407	84.9609	69.9811	84.9609	70.1471	84.9609	69.9051	84.9609	70.0527	84.9609	69.8336	84.9609	69.9603	84.9609	69.7682	84.9609	69.8724	84.9609	69.7101	84.9609	69.7916	84.9609	69.6602	84.9609	69.7203	84.9609	69.6199	84.9609	69.661	84.9609	69.5906	84.9609	69.6156	84.9609	69.5741	84.9609	69.5858	84.9609	69.5721
87.8906	71.0702	87.8906	71.0803	87.8906	71.0554	87.8906	71.085	87.8906	71.0369	87.8906	71.0839	87.8906	71.0163	87.8906	71.0776	87.8906	70.9951	87.8906	71.0673	87.8906	70.9749	87.8906	71.0548	87.8906	70.9574	87.8906	71.0424	87.8906	70.944	87.8906	71.0322	87.8906	70.9363	87.8906	71.0264	87.8906	70.935	87.8906	71.026	87.8906	70.9407	87.8906	71.0315	87.8906	70.9531	87.8906	71.0421	87.8906	70.9712	87.8906	71.056	87.8906	70.9935	87.8906	71.0709	87.8906	71.0179	87.8906	71.084	87.8906	71.042	87.8906	71.0929	87.8906	71.0636	87.8906	71.0957	87.8906	71.0806	87.8906	71.0916
90.8203	73.0569	90.8203	73.0566	90.8203	73.0262	90.8203	73.0251	90.8203	72.9657	90.8203	72.9626	90.8203	72.8771	90.8203	72.87	90.8203	72.7632	90.8203	72.7499	90.8203	72.6281	90.8203	72.6061	90.8203	72.477	90.8203	72.4448	90.8203	72.3161	90.8203	72.2738	90.8203	72.1526	90.8203	72.1024	90.8203	71.994	90.8203	71.94	90.8203	71.8473	90.8203	71.7949	90.8203	71.7186	90.8203	71.6733	90.8203	71.6121	90.8203	71.5781	90.8203	71.5297	90.8203	71.5086	90.8203	71.4711	90.8203	71.4614	90.8203	71.4334	90.8203	71.4316	90.8203	71.4128	90.8203	71.4142	90.8203	71.4046	90.8203	71.4055
95.2148	73.2755	95.2148	73.2801	95.2148	73.2534	95.2148	73.2657	95.2148	73.2167	95.2148	73.2325	95.2148	73.1692	95.2148	73.1825	95.2148	73.1141	95.2148	73.1192	95.2148	73.0547	95.2148	73.0469	95.2148	72.9931	95.2148	72.9695	95.2148	72.9308	95.2148	72.8899	95.2148	72.8687	95.2148	72.8102	95.2148	72.8074	95.2148	72.7317	95.2148	72.7469	95.2148	72.6554	95.2148	72.6874	95.2148	72.5826	95.2148	72.6289	95.2148	72.5157	95.2148	72.5721	95.2148	72.4575	95.2148	72.5177	95.2148	72.4116	95.2148	72.4677	95.2148	72.381	95.2148	72.4245	95.2148	72.3675	95.2148	72.3914	95.2148	72.3715
98.1445	74.1562	98.1445	74.1314	98.1445	74.1671	98.1445	74.0932	98.1445	74.1639	98.1445	74.0425	98.1445	74.1464	98.1445	73.9807	98.1445	74.1149	98.1445	73.9096	98.1445	74.0699	98.1445	73.8316	98.1445	74.0122	98.1445	73.7492	98.1445	73.9434	98.1445	73.6652	98.1445	73.8653	98.1445	73.5822	98.1445	73.7802	98.1445	73.5028	98.1445	73.691	98.1445	73.4289	98.1445	73.6009	98.1445	73.3625	98.1445	73.513	98.1445	73.3049	98.1445	73.4306	98.1445	73.2572	98.1445	73.3567	98.1445	73.2208	98.1445	73.294	98.1445	73.1967	98.1445	73.2446	98.1445	73.1863	98.1445	73.2099	98.1445	73.1904
101.074	73.9651	101.074	73.9384	101.074	74.0017	101.074	73.9264	101.074	74.0445	101.074	73.9336	101.074	74.0908	101.074	73.964	101.074	74.1394	101.074	74.0198	101.074	74.1902	101.074	74.1008	101.074	74.2442	101.074	74.2043	101.074	74.3028	101.074	74.3248	101.074	74.3671	101.074	74.4554	101.074	74.438	101.074	74.5879	101.074	74.5149	101.074	74.7141	101.074	74.5966	101.074	74.8273	101.074	74.6807	101.074	74.922	101.074	74.7641	101.074	74.9948	101.074	74.8436	101.074	75.0443	101.074	74.9157	101.074	75.0706	101.074	74.9776	101.074	75.0751	101.074	75.0264	101.074	75.0597
105.469	76.1806	105.469	76.1515	105.469	76.1827	105.469	76.0976	105.469	76.1574	105.469	76.0219	105.469	76.1051	105.469	75.929	105.469	76.0278	105.469	75.8245	105.469	75.9289	105.469	75.7155	105.469	75.8133	105.469	75.6092	105.469	75.6869	105.469	75.5127	105.469	75.5569	105.469	75.431	105.469	75.4308	105.469	75.3671	105.469	75.3158	105.469	75.3204	105.469	75.2186	105.469	75.288	105.469	75.1439	105.469	75.2649	105.469	75.0942	105.469	75.2457	105.469	75.0694	105.469	75.2256	105.469	75.0668	105.469	75.2016	105.469	75.0818	105.469	75.1728	105.469	75.1084	105.469	75.1405
108.398	76.9852	108.398	76.9738	108.398	76.9716	108.398	76.9386	108.398	76.9323	108.398	76.8817	108.398	76.868	108.398	76.8057	108.398	76.7804	108.398	76.7135	108.398	76.6728	108.398	76.6088	108.398	76.5493	108.398	76.496	108.398	76.4152	108.398	76.3801	108.398	76.2763	108.398	76.2665	108.398	76.1388	108.398	76.16	108.398	76.0088	108.398	76.064	108.398	75.8919	108.398	75.9799	108.398	75.7929	108.398	75.907	108.398	75.7154	108.398	75.8435	108.398	75.6611	108.398	75.7873	108.398	75.6303	108.398	75.7369	108.398	75.6213	108.398	75.6926	108.398	75.6313	108.398	75.6564
112.793	77.8774	112.793	77.8746	112.793	77.8538	112.793	77.8449	112.793	77.8051	112.793	77.7889	112.793	77.7333	112.793	77.7079	112.793	77.6416	112.793	77.6043	112.793	77.5341	112.793	77.4819	112.793	77.4153	112.793	77.3456	112.793	77.2903	112.793	77.2017	112.793	77.1644	112.793	77.0576	112.793	77.0426	112.793	76.9205	112.793	76.9292	112.793	76.7974	112.793	76.8274	112.793	76.6932	112.793	76.7394	112.793	76.6108	112.793	76.6659	112.793	76.5507	112.793	76.6067	112.793	76.5111	112.793	76.5604	112.793	76.4893	112.793	76.5257	112.793	76.482	112.793	76.5013	112.793	76.4866
117.188	78.6976	117.188	78.6926	117.188	78.6761	117.188	78.6611	117.188	78.6293	117.188	78.6042	117.188	78.5594	117.188	78.5241	117.188	78.4699	117.188	78.4238	117.188	78.3649	117.188	78.307	117.188	78.2489	117.188	78.1782	117.188	78.1269	117.188	78.0425	117.188	78.0035	117.188	77.9053	117.188	77.8828	117.188	77.7724	117.188	77.7684	117.188	77.6496	117.188	77.6632	117.188	77.5416	117.188	77.5693	117.188	77.452	117.188	77.4883	117.188	77.3825	117.188	77.4208	117.188	77.333	117.188	77.3672	117.188	77.3019	117.188	77.3273	117.188	77.2872	117.188	77.3007	117.188	77.2872
120.117	79.2045	120.117	79.2094	120.117	79.1764	120.117	79.1903	120.117	79.1271	120.117	79.148	120.117	79.0598	120.117	79.0847	120.117	78.9787	120.117	79.0037	120.117	78.8882	120.117	78.909	120.117	78.7929	120.117	78.8049	120.117	78.6969	120.117	78.6958	120.117	78.6037	120.117	78.586	120.117	78.5157	120.117	78.4795	120.117	78.4345	120.117	78.3798	120.117	78.3608	120.117	78.2903	120.117	78.2946	120.117	78.2138	120.117	78.2359	120.117	78.1523	120.117	78.1846	120.117	78.1071	120.117	78.141	120.117	78.0782	120.117	78.106	120.117	78.065	120.117	78.0806	120.117	78.0664
124.512	79.8765	124.512	79.8744	124.512	79.8599	124.512	79.8544	124.512	79.8256	124.512	79.8184	124.512	79.7757	124.512	79.7697	124.512	79.7135	124.512	79.7122	124.512	79.6432	124.512	79.65	124.512	79.5693	124.512	79.5869	124.512	79.4965	124.512	79.5261	124.512	79.4291	124.512	79.4696	124.512	79.3705	124.512	79.4191	124.512	79.3231	124.512	79.3751	124.512	79.2878	124.512	79.3382	124.512	79.2642	124.512	79.3086	124.512	79.2506	124.512	79.286	124.512	79.2445	124.512	79.27	124.512	79.2431	124.512	79.2595	124.512	79.2443	124.512	79.2531	124.512	79.2464	124.512	79.2492
128.906	80.7658	128.906	80.7643	128.906	80.7489	128.906	80.7442	128.906	80.7148	128.906	80.707	128.906	80.6656	128.906	80.6553	128.906	80.6042	128.906	80.5928	128.906	80.5338	128.906	80.5242	128.906	80.4583	128.906	80.4542	128.906	80.3818	128.906	80.387	128.906	80.308	128.906	80.326	128.906	80.2405	128.906	80.2731	128.906	80.1823	128.906	80.2294	128.906	80.1354	128.906	80.1945	128.906	80.1005	128.906	80.1672	128.906	80.0776	128.906	80.1459	128.906	80.0655	128.906	80.1286	128.906	80.0626	128.906	80.1136	128.906	80.0666	128.906	80.0997	128.906	80.0753	128.906	80.0868
133.301	81.5863	133.301	81.5718	133.301	81.5823	133.301	81.5403	133.301	81.5593	133.301	81.4946	133.301	81.5182	133.301	81.4378	133.301	81.4612	133.301	81.3734	133.301	81.392	133.301	81.3053	133.301	81.3152	133.301	81.2368	133.301	81.2358	133.301	81.1712	133.301	81.1588	133.301	81.1107	133.301	81.0885	133.301	81.057	133.301	81.0278	133.301	81.0112	133.301	80.9786	133.301	80.9734	133.301	80.9412	133.301	80.9436	133.301	80.9146	133.301	80.9211	133.301	80.8973	133.301	80.9049	133.301	80.8871	133.301	80.8938	133.301	80.8821	133.301	80.8867	133.301	80.8809	133.301	80.8825
139.16	82.7057	139.16	82.6978	139.16	82.6916	139.16	82.6692	139.16	82.6559	139.16	82.6234	139.16	82.601	139.16	82.5654	139.16	82.5309	139.16	82.5005	139.16	82.4507	139.16	82.4342	139.16	82.366	139.16	82.371	139.16	82.2824	139.16	82.314	139.16	82.2048	139.16	82.2648	139.16	82.1375	139.16	82.2238	139.16	82.0832	139.16	82.1902	139.16	82.0432	139.16	82.1627	139.16	82.0176	139.16	82.1398	139.16	82.005	139.16	82.1201	139.16	82.0031	139.16	82.1024	139.16	82.0094	139.16	82.0856	139.16	82.0212	139.16	82.0691	139.16	82.0361	139.16	82.0524
143.555	83.4364	143.555	83.4289	143.555	83.42	143.555	83.3973	143.555	83.3816	143.555	83.3434	143.555	83.3243	143.555	83.2714	143.555	83.2524	143.555	83.1868	143.555	83.1707	143.555	83.0967	143.555	83.0844	143.555	83.0085	143.555	82.9987	143.555	82.9286	143.555	82.9183	143.555	82.8622	143.555	82.8474	143.555	82.8119	143.555	82.7888	143.555	82.7779	143.555	82.7442	143.555	82.758	143.555	82.7138	143.555	82.7484	143.555	82.6964	143.555	82.7447	143.555	82.6903	143.555	82.7426	143.555	82.6928	143.555	82.7393	143.555	82.7011	143.555	82.733	143.555	82.7122	143.555	82.7235
147.949	84.1605	147.949	84.1484	147.949	84.1505	147.949	84.1145	147.949	84.1193	147.949	84.0607	147.949	84.0694	147.949	83.9903	147.949	84.0043	147.949	83.9079	147.949	83.9288	147.949	83.819	147.949	83.8484	147.949	83.7299	147.949	83.7689	147.949	83.6465	147.949	83.6954	147.949	83.574	147.949	83.6321	147.949	83.5161	147.949	83.581	147.949	83.4744	147.949	83.5425	147.949	83.4481	147.949	83.5151	147.949	83.4349	147.949	83.4963	147.949	83.4311	147.949	83.4833	147.949	83.4333	147.949	83.4737	147.949	83.4385	147.949	83.4659	147.949	83.4449	147.949	83.4587	147.949	83.4517
153.809	84.9778	153.809	84.9802	153.809	84.9526	153.809	84.9608	153.809	84.9049	153.809	84.9226	153.809	84.8371	153.809	84.8694	153.809	84.7532	153.809	84.8059	153.809	84.6589	153.809	84.7368	153.809	84.561	153.809	84.6667	153.809	84.4667	153.809	84.5997	153.809	84.3834	153.809	84.5391	153.809	84.3172	153.809	84.4876	153.809	84.2724	153.809	84.4473	153.809	84.2502	153.809	84.4188	153.809	84.249	153.809	84.4016	153.809	84.2645	153.809	84.3937	153.809	84.2905	153.809	84.392	153.809	84.3205	153.809	84.3925	153.809	84.3485	153.809	84.3912	153.809	84.3705	153.809	84.3846
159.668	85.7197	159.668	85.7168	159.668	85.6988	159.668	85.6913	159.668	85.6549	159.668	85.646	159.668	85.5905	159.668	85.5851	159.668	85.5097	159.668	85.514	159.668	85.4182	159.668	85.4384	159.668	85.3224	159.668	85.364	159.668	85.2294	159.668	85.2957	159.668	85.1461	159.668	85.2375	159.668	85.0782	159.668	85.1921	159.668	85.0296	159.668	85.1605	159.668	85.0018	159.668	85.1417	159.668	84.9938	159.668	85.1335	159.668	85.0021	159.668	85.132	159.668	85.0221	159.668	85.1332	159.668	85.0481	159.668	85.133	159.668	85.0752	159.668	85.1283	159.668	85.0991	159.668	85.1172
165.527	86.3864	165.527	86.3784	165.527	86.3697	165.527	86.3477	165.527	86.328	165.527	86.298	165.527	86.2634	165.527	86.2346	165.527	86.1799	165.527	86.1629	165.527	86.0836	165.527	86.0888	165.527	85.9819	165.527	86.0172	165.527	85.8829	165.527	85.9522	165.527	85.7949	165.527	85.8968	165.527	85.7248	165.527	85.8533	165.527	85.6769	165.527	85.8226	165.527	85.6529	165.527	85.8044	165.527	85.6509	165.527	85.797	165.527	85.6664	165.527	85.7972	165.527	85.6932	165.527	85.801	165.527	85.7244	165.527	85.8042	165.527	85.7543	165.527	85.8032	165.527	85.7787	165.527	85.7951
171.387	87.0659	171.387	87.0535	171.387	87.0486	171.387	87.0136	171.387	87.0014	171.387	86.9506	171.387	86.9261	171.387	86.87	171.387	86.8273	171.387	86.7783	171.387	86.7115	171.387	86.6822	171.387	86.5871	171.387	86.5879	171.387	86.4633	171.387	86.501	171.387	86.3499	171.387	86.4261	171.387	86.2553	171.387	86.3668	171.387	86.1859	171.387	86.3247	171.387	86.1446	171.387	86.2998	171.387	86.1308	171.387	86.2895	171.387	86.14	171.387	86.2895	171.387	86.1654	171.387	86.2941	171.387	86.1993	171.387	86.2977	171.387	86.234	171.387	86.2956	171.387	86.2636	171.387	86.2846
177.246	87.5489	177.246	87.5437	177.246	87.5237	177.246	87.51	177.246	87.4681	177.246	87.4517	177.246	87.3847	177.246	87.374	177.246	87.2785	177.246	87.2824	177.246	87.1566	177.246	87.1823	177.246	87.0277	177.246	87.0788	177.246	86.9014	177.246	86.9767	177.246	86.787	177.246	86.881	177.246	86.693	177.246	86.7969	177.246	86.6254	177.246	86.7293	177.246	86.5865	177.246	86.682	177.246	86.575	177.246	86.6559	177.246	86.5855	177.246	86.6487	177.246	86.6098	177.246	86.6552	177.246	86.639	177.246	86.6684	177.246	86.6649	177.246	86.6809	177.246	86.6816	177.246	86.6866
183.105	87.7986	183.105	87.797	183.105	87.7712	183.105	87.77	183.105	87.714	183.105	87.7236	183.105	87.6294	183.105	87.6646	183.105	87.5225	183.105	87.5996	183.105	87.4012	183.105	87.5336	183.105	87.2748	183.105	87.4688	183.105	87.1538	183.105	87.4059	183.105	87.0485	183.105	87.3447	183.105	86.968	183.105	87.2865	183.105	86.919	183.105	87.2347	183.105	86.9042	183.105	87.1942	183.105	86.9216	183.105	87.1691	183.105	86.9645	183.105	87.1609	183.105	87.0223	183.105	87.1665	183.105	87.083	183.105	87.1792	183.105	87.1355	183.105	87.1897	183.105	87.172	183.105	87.1894
188.965	88.0368	188.965	88.0191	188.965	88.018	188.965	87.9683	188.965	87.9628	188.965	87.8919	188.965	87.8748	188.965	87.8006	188.965	87.7604	188.965	87.707	188.965	87.6278	188.965	87.6234	188.965	87.4866	188.965	87.559	188.965	87.347	188.965	87.518	188.965	87.2194	188.965	87.499	188.965	87.1137	188.965	87.4965	188.965	87.0389	188.965	87.5039	188.965	87.0013	188.965	87.5154	188.965	87.0036	188.965	87.5267	188.965	87.0436	188.965	87.5345	188.965	87.1138	188.965	87.5352	188.965	87.2022	188.965	87.5243	188.965	87.2954	188.965	87.4969	188.965	87.3807	188.965	87.4492
196.289	88.3782	196.289	88.3652	196.289	88.3522	196.289	88.3153	196.289	88.2881	196.289	88.2344	196.289	88.1903	196.289	88.131	196.289	88.0656	196.289	88.0157	196.289	87.923	196.289	87.8993	196.289	87.7724	196.289	87.7919	196.289	87.6243	196.289	87.7007	196.289	87.4886	196.289	87.6297	196.289	87.3737	196.289	87.5796	196.289	87.2862	196.289	87.5487	196.289	87.2303	196.289	87.5332	196.289	87.2071	196.289	87.5285	196.289	87.2145	196.289	87.5287	196.289	87.2472	196.289	87.5274	196.289	87.2974	196.289	87.5185	196.289	87.3559	196.289	87.4975	196.289	87.4133	196.289	87.462
203.613	88.4479	203.613	88.4394	203.613	88.4142	203.613	88.3905	203.613	88.3407	203.613	88.3074	203.613	88.2332	203.613	88.2005	203.613	88.1	203.613	88.0828	203.613	87.951	203.613	87.9681	203.613	87.7967	203.613	87.8682	203.613	87.6476	203.613	87.7901	203.613	87.5131	203.613	87.7354	203.613	87.4013	203.613	87.7015	203.613	87.3183	203.613	87.6832	203.613	87.2678	203.613	87.6751	203.613	87.251	203.613	87.6723	203.613	87.266	203.613	87.6701	203.613	87.308	203.613	87.6634	203.613	87.3693	203.613	87.6471	203.613	87.44	203.613	87.6169	203.613	87.51	203.613	87.5707
210.938	88.4205	210.938	88.4185	210.938	88.3822	210.938	88.3769	210.938	88.3058	210.938	88.3006	210.938	88.1965	210.938	88.1981	210.938	88.0619	210.938	88.0811	210.938	87.9112	210.938	87.963	210.938	87.7549	210.938	87.8567	210.938	87.6041	210.938	87.7714	210.938	87.4692	210.938	87.7115	210.938	87.3595	210.938	87.676	210.938	87.2823	210.938	87.6606	210.938	87.2418	210.938	87.6591	210.938	87.2389	210.938	87.6654	210.938	87.2702	210.938	87.6733	210.938	87.3284	210.938	87.6772	210.938	87.4028	210.938	87.6712	210.938	87.4815	210.938	87.6503	210.938	87.5536	210.938	87.6112
218.262	88.2138	218.262	88.2067	218.262	88.1808	218.262	88.1607	218.262	88.1099	218.262	88.0809	218.262	88.0067	218.262	87.9763	218.262	87.8798	218.262	87.8591	218.262	87.7396	218.262	87.744	218.262	87.5981	218.262	87.6456	218.262	87.4673	218.262	87.5753	218.262	87.3578	218.262	87.5397	218.262	87.2775	218.262	87.5383	218.262	87.231	218.262	87.5654	218.262	87.2193	218.262	87.6111	218.262	87.2406	218.262	87.664	218.262	87.2908	218.262	87.7126	218.262	87.3637	218.262	87.7467	218.262	87.4512	218.262	87.7582	218.262	87.5432	218.262	87.7421	218.262	87.6288	218.262	87.6977
225.586	88.2626	225.586	88.2416	225.586	88.2342	225.586	88.1738	225.586	88.1583	225.586	88.066	225.586	88.0403	225.586	87.9295	225.586	87.8893	225.586	87.7801	225.586	87.7172	225.586	87.6355	225.586	87.5381	225.586	87.5131	225.586	87.3667	225.586	87.4256	225.586	87.2171	225.586	87.379	225.586	87.1005	225.586	87.3719	225.586	87.0247	225.586	87.3971	225.586	86.9931	225.586	87.4441	225.586	87.0048	225.586	87.5006	225.586	87.0553	225.586	87.5539	225.586	87.1368	225.586	87.5919	225.586	87.2385	225.586	87.6044	225.586	87.3474	225.586	87.5848	225.586	87.4494	225.586	87.5317
232.91	88.2209	232.91	88.213	232.91	88.1739	232.91	88.1501	232.91	88.0759	232.91	88.0368	232.91	87.9346	232.91	87.8832	232.91	87.7608	232.91	87.7047	232.91	87.5677	232.91	87.522	232.91	87.3706	232.91	87.3574	232.91	87.1847	232.91	87.2302	232.91	87.0233	232.91	87.1516	232.91	86.8964	232.91	87.1224	232.91	86.8091	232.91	87.1339	232.91	86.7619	232.91	87.1715	232.91	86.7522	232.91	87.219	232.91	86.7759	232.91	87.2607	232.91	86.8283	232.91	87.2837	232.91	86.9039	232.91	87.2787	232.91	86.9948	232.91	87.2421	232.91	87.0899	232.91	87.1764
241.699	87.8683	241.699	87.8566	241.699	87.8281	241.699	87.7948	241.699	87.7387	241.699	87.6888	241.699	87.6067	241.699	87.5495	241.699	87.4422	241.699	87.392	241.699	87.2583	241.699	87.2336	241.699	87.0698	241.699	87.0911	241.699	86.8922	241.699	86.9769	241.699	86.7398	241.699	86.8968	241.699	86.6232	241.699	86.8506	241.699	86.5475	241.699	86.8333	241.699	86.5119	241.699	86.8373	241.699	86.5106	241.699	86.8536	241.699	86.5356	241.699	86.8722	241.699	86.579	241.699	86.8833	241.699	86.6341	241.699	86.8788	241.699	86.6955	241.699	86.855	241.699	86.7574	241.699	86.8128
250.488	87.7391	250.488	87.7072	250.488	87.7068	250.488	87.6104	250.488	87.6138	250.488	87.4509	250.488	87.4666	250.488	87.2354	250.488	87.2754	250.488	86.9774	250.488	87.0541	250.488	86.7004	250.488	86.8208	250.488	86.4378	250.488	86.5965	250.488	86.2268	250.488	86.4036	250.488	86.097	250.488	86.2614	250.488	86.0578	250.488	86.1806	250.488	86.0955	250.488	86.1601	250.488	86.1811	250.488	86.1868	250.488	86.2824	250.488	86.2409	250.488	86.3738	250.488	86.3033	250.488	86.4403	250.488	86.3612	250.488	86.4766	250.488	86.4091	250.488	86.4853	250.488	86.4466	250.488	86.4732
259.277	87.6127	259.277	87.5793	259.277	87.587	259.277	87.487	259.277	87.5052	259.277	87.3398	259.277	87.3733	259.277	87.1452	259.277	87.1999	259.277	86.9149	259.277	86.996	259.277	86.6646	259.277	86.7751	259.277	86.4147	259.277	86.5539	259.277	86.1897	259.277	86.3516	259.277	86.014	259.277	86.1883	259.277	85.9054	259.277	86.0805	259.277	85.8688	259.277	86.0359	259.277	85.8944	259.277	86.0497	259.277	85.9619	259.277	86.1046	259.277	86.0483	259.277	86.177	259.277	86.1346	259.277	86.2441	259.277	86.2087	259.277	86.2901	259.277	86.2646	259.277	86.3083	259.277	86.2988
268.066	87.2442	268.066	87.2006	268.066	87.2288	268.066	87.1001	268.066	87.1544	268.066	86.9461	268.066	87.0251	268.066	86.7428	268.066	86.849	268.066	86.497	268.066	86.6391	268.066	86.2206	268.066	86.4125	268.066	85.9341	268.066	86.1897	268.066	85.6673	268.066	85.9929	268.066	85.4537	268.066	85.8431	268.066	85.3209	268.066	85.7562	268.066	85.2792	268.066	85.7375	268.066	85.3188	268.066	85.7784	268.066	85.4158	268.066	85.8573	268.066	85.543	268.066	85.9458	268.066	85.6775	268.066	86.0169	268.066	85.8042	268.066	86.0523	268.066	85.913	268.066	86.0447	268.066	85.9959
276.855	86.765	276.855	86.7184	276.855	86.7352	276.855	86.5984	276.855	86.6331	276.855	86.4151	276.855	86.4689	276.855	86.184	276.855	86.2578	276.855	85.9236	276.855	86.019	276.855	85.6523	276.855	85.7741	276.855	85.3885	276.855	85.5459	276.855	85.153	276.855	85.3567	276.855	84.9721	276.855	85.2272	276.855	84.8746	276.855	85.1722	276.855	84.8805	276.855	85.1975	276.855	84.9884	276.855	85.2954	276.855	85.172	276.855	85.4451	276.855	85.3907	276.855	85.6167	276.855	85.6048	276.855	85.7782	276.855	85.7845	276.855	85.9026	276.855	85.9111	276.855	85.9713	276.855	85.9748
287.109	85.9977	287.109	85.9862	287.109	85.9524	287.109	85.9189	287.109	85.8543	287.109	85.8023	287.109	85.7113	287.109	85.6489	287.109	85.5339	287.109	85.4744	287.109	85.3336	287.109	85.2941	287.109	85.1221	287.109	85.1177	287.109	84.9126	287.109	84.9494	287.109	84.7219	287.109	84.7944	287.109	84.5727	287.109	84.6668	287.109	84.4918	287.109	84.5919	287.109	84.5027	287.109	84.5967	287.109	84.613	287.109	84.6932	287.109	84.8054	287.109	84.8672	287.109	85.0403	287.109	85.0821	287.109	85.2684	287.109	85.292	287.109	85.4456	287.109	85.456	287.109	85.5421	287.109	85.5448
297.363	86.502	297.363	86.4941	297.363	86.4358	297.363	86.4097	297.363	86.3008	297.363	86.2511	297.363	86.1045	297.363	86.029	297.363	85.8561	297.363	85.7665	297.363	85.5665	297.363	85.5014	297.363	85.249	297.363	85.28	297.363	84.9215	297.363	85.1415	297.363	84.609	297.363	85.1002	297.363	84.3446	297.363	85.1411	297.363	84.1675	297.363	85.2326	297.363	84.1133	297.363	85.3447	297.363	84.1989	297.363	85.4582	297.363	84.4096	297.363	85.5628	297.363	84.7012	297.363	85.6496	297.363	85.0155	297.363	85.7059	297.363	85.2998	297.363	85.714	297.363	85.5184	297.363	85.6559
307.617	87.4548	307.617	87.4106	307.617	87.4331	307.617	87.3081	307.617	87.3423	307.617	87.1558	307.617	87.1857	307.617	86.9605	307.617	86.9739	307.617	86.7284	307.617	86.7224	307.617	86.4677	307.617	86.4485	307.617	86.194	307.617	86.1675	307.617	85.9318	307.617	85.8895	307.617	85.7117	307.617	85.6205	307.617	85.5609	307.617	85.3677	307.617	85.4934	307.617	85.1456	307.617	85.5046	307.617	84.9802	307.617	85.5722	307.617	84.9024	307.617	85.6635	307.617	84.9322	307.617	85.7425	307.617	85.0624	307.617	85.7771	307.617	85.2567	307.617	85.7446	307.617	85.4639	307.617	85.6367
319.336	87.6006	319.336	87.5795	319.336	87.5363	319.336	87.4702	319.336	87.3976	319.336	87.2796	319.336	87.1998	319.336	87.0245	319.336	86.9606	319.336	86.7292	319.336	86.6972	319.336	86.4219	319.336	86.4266	319.336	86.1308	319.336	86.1671	319.336	85.8821	319.336	85.9391	319.336	85.6977	319.336	85.7638	319.336	85.5919	319.336	85.6589	319.336	85.5666	319.336	85.6319	319.336	85.6095	319.336	85.6752	319.336	85.6977	319.336	85.7675	319.336	85.8057	319.336	85.8797	319.336	85.912	319.336	85.9841	319.336	86.0021	319.336	86.061	319.336	86.0673	319.336	86.1006	319.336	86.1016
329.59	87.2949	329.59	87.2763	329.59	87.2528	329.59	87.1975	329.59	87.1508	329.59	87.0601	329.59	86.9927	329.59	86.8669	329.59	86.7853	329.59	86.6252	329.59	86.5387	329.59	86.3505	329.59	86.2654	329.59	86.0675	329.59	85.9802	329.59	85.8073	329.59	85.7009	329.59	85.6004	329.59	85.4483	329.59	85.469	329.59	85.2463	329.59	85.4215	329.59	85.119	329.59	85.452	329.59	85.0835	329.59	85.5418	329.59	85.1414	329.59	85.6628	329.59	85.2747	329.59	85.7826	329.59	85.45	329.59	85.871	329.59	85.6289	329.59	85.9054	329.59	85.7782	329.59	85.8743
341.309	87.3868	341.309	87.3671	341.309	87.3127	341.309	87.253	341.309	87.1563	341.309	87.0557	341.309	86.9363	341.309	86.7982	341.309	86.6761	341.309	86.5099	341.309	86.4007	341.309	86.2189	341.309	86.1324	341.309	85.9468	341.309	85.8881	341.309	85.7087	341.309	85.6774	341.309	85.518	341.309	85.5049	341.309	85.3886	341.309	85.3752	341.309	85.3321	341.309	85.2986	341.309	85.3505	341.309	85.2899	341.309	85.4324	341.309	85.3578	341.309	85.5566	341.309	85.4924	341.309	85.697	341.309	85.6609	341.309	85.8275	341.309	85.8182	341.309	85.9227	341.309	85.925	341.309	85.96
353.027	87.0483	353.027	87.0487	353.027	86.9503	353.027	86.9543	353.027	86.7599	353.027	86.7754	353.027	86.4932	353.027	86.5288	353.027	86.1763	353.027	86.2374	353.027	85.8431	353.027	85.9286	353.027	85.5291	353.027	85.6309	353.027	85.2646	353.027	85.3706	353.027	85.0665	353.027	85.1733	353.027	84.9357	353.027	85.0633	353.027	84.8617	353.027	85.0577	353.027	84.8338	353.027	85.1549	353.027	84.8519	353.027	85.3288	353.027	84.9266	353.027	85.5342	353.027	85.0672	353.027	85.7216	353.027	85.2652	353.027	85.8494	353.027	85.4889	353.027	85.8909	353.027	85.6932	353.027	85.8361
366.211	86.8127	366.211	86.8227	366.211	86.7284	366.211	86.7568	366.211	86.5693	366.211	86.6092	366.211	86.3366	366.211	86.3731	366.211	86.0367	366.211	86.0517	366.211	85.683	366.211	85.67	366.211	85.2997	366.211	85.2807	366.211	84.9249	366.211	84.9527	366.211	84.6089	366.211	84.7436	366.211	84.4033	366.211	84.6733	366.211	84.3409	366.211	84.721	366.211	84.418	366.211	84.8455	366.211	84.595	366.211	85.0075	366.211	84.8163	366.211	85.1767	366.211	85.0336	366.211	85.3285	366.211	85.2181	366.211	85.4423	366.211	85.3598	366.211	85.5034	366.211	85.4571	366.211	85.507
379.395	86.9386	379.395	86.8461	379.395	86.9386	379.395	86.6696	379.395	86.8438	379.395	86.4217	379.395	86.657	379.395	86.1143	379.395	86.3844	379.395	85.7577	379.395	86.0364	379.395	85.3675	379.395	85.63	379.395	84.9764	379.395	85.1924	379.395	84.6413	379.395	84.7615	379.395	84.4286	379.395	84.3833	379.395	84.3827	379.395	84.1067	379.395	84.4984	379.395	83.9749	379.395	84.7258	379.395	84.0128	379.395	84.9993	379.395	84.2122	379.395	85.2631	379.395	84.527	379.395	85.4797	379.395	84.8874	379.395	85.625	379.395	85.223	379.395	85.6819	379.395	85.4817	379.395	85.6367
392.578	86.9013	392.578	86.773	392.578	86.9239	392.578	86.5519	392.578	86.8329	392.578	86.2554	392.578	86.6283	392.578	85.9038	392.578	86.3203	392.578	85.5185	392.578	85.9308	392.578	85.1201	392.578	85.4929	392.578	84.7316	392.578	85.0471	392.578	84.3858	392.578	84.6362	392.578	84.1298	392.578	84.3	392.578	84.0138	392.578	84.0694	392.578	84.0632	392.578	83.9611	392.578	84.2557	392.578	83.9742	392.578	84.5291	392.578	84.0919	392.578	84.8109	392.578	84.2868	392.578	85.0428	392.578	84.5266	392.578	85.1872	392.578	84.7764	392.578	85.226	392.578	84.9988	392.578	85.1581
405.762	86.9487	405.762	86.8783	405.762	86.8767	405.762	86.6781	405.762	86.6697	405.762	86.3773	405.762	86.3556	405.762	86.0158	405.762	85.9774	405.762	85.6359	405.762	85.5826	405.762	85.2714	405.762	85.2097	405.762	84.939	405.762	84.8816	405.762	84.6429	405.762	84.6085	405.762	84.3903	405.762	84.3973	405.762	84.2043	405.762	84.2618	405.762	84.1194	405.762	84.2228	405.762	84.1598	405.762	84.2967	405.762	84.319	405.762	84.4772	405.762	84.5605	405.762	84.7271	405.762	84.8325	405.762	84.9892	405.762	85.083	405.762	85.2066	405.762	85.2686	405.762	85.337	405.762	85.3584
420.41	87.0395	420.41	87.0127	420.41	86.9362	420.41	86.8564	420.41	86.7206	420.41	86.5917	420.41	86.4218	420.41	86.2545	420.41	86.0691	420.41	85.8821	420.41	85.6853	420.41	85.5	420.41	85.2854	420.41	85.1208	420.41	84.8831	420.41	84.7611	420.41	84.498	420.41	84.4617	420.41	84.1614	420.41	84.2872	420.41	83.9186	420.41	84.2931	420.41	83.8211	420.41	84.4846	420.41	83.9016	420.41	84.8066	420.41	84.1467	420.41	85.1704	420.41	84.4963	420.41	85.4888	420.41	84.8758	420.41	85.6985	420.41	85.2261	420.41	85.7688	420.41	85.5098	420.41	85.6994
435.059	86.9159	435.059	86.8859	435.059	86.8204	435.059	86.7157	435.059	86.6256	435.059	86.4095	435.059	86.3608	435.059	85.9981	435.059	86.0507	435.059	85.5432	435.059	85.7132	435.059	85.1255	435.059	85.3648	435.059	84.8051	435.059	85.0227	435.059	84.5865	435.059	84.7001	435.059	84.4342	435.059	84.4037	435.059	84.3272	435.059	84.145	435.059	84.2879	435.059	83.9634	435.059	84.3586	435.059	83.9292	435.059	84.5492	435.059	84.0968	435.059	84.8139	435.059	84.4371	435.059	85.0791	435.059	84.8369	435.059	85.288	435.059	85.1741	435.059	85.4168	435.059	85.3817	435.059	85.4547
451.172	87.3701	451.172	87.3293	451.172	87.2833	451.172	87.1685	451.172	87.0587	451.172	86.8857	451.172	86.6887	451.172	86.4648	451.172	86.1734	451.172	85.8872	451.172	85.5307	451.172	85.1665	451.172	84.8111	451.172	84.3931	451.172	84.1096	451.172	83.7451	451.172	83.5538	451.172	83.4053	451.172	83.2447	451.172	83.4199	451.172	83.1788	451.172	83.6733	451.172	83.2462	451.172	84.0051	451.172	83.3215	451.172	84.3088	451.172	83.3535	451.172	84.5437	451.172	83.3915	451.172	84.7008	451.172	83.534	451.172	84.7664	451.172	83.8233	451.172	84.7118	451.172	84.1899	451.172	84.5137
465.82	86.9017	465.82	86.7555	465.82	86.8919	465.82	86.4704	465.82	86.7195	465.82	86.0772	465.82	86.3867	465.82	85.6168	465.82	85.909	465.82	85.1217	465.82	85.3189	465.82	84.6008	465.82	84.6668	465.82	84.0584	465.82	84.0191	465.82	83.5475	465.82	83.4595	465.82	83.202	465.82	83.0854	465.82	83.1758	465.82	82.979	465.82	83.5052	465.82	83.1554	465.82	84.0618	465.82	83.541	465.82	84.6626	465.82	84.0197	465.82	85.1786	465.82	84.4971	465.82	85.5533	465.82	84.9255	465.82	85.773	465.82	85.289	465.82	85.8412	465.82	85.5769	465.82	85.7692
483.398	86.9244	483.398	86.9417	483.398	86.775	483.398	86.7955	483.398	86.5273	483.398	86.4599	483.398	86.2161	483.398	85.9262	483.398	85.8678	483.398	85.2211	483.398	85.4894	483.398	84.4183	483.398	85.0699	483.398	83.6293	483.398	84.5998	483.398	82.9809	483.398	84.0971	483.398	82.594	483.398	83.6271	483.398	82.5557	483.398	83.3038	483.398	82.8649	483.398	83.2455	483.398	83.406	483.398	83.4869	483.398	84.0164	483.398	83.935	483.398	84.5716	483.398	84.4354	483.398	85.0081	483.398	84.8683	483.398	85.3029	483.398	85.1845	483.398	85.4547	483.398	85.3841	483.398	85.4761
499.512	87.1736	499.512	87.0829	499.512	87.1204	499.512	86.8575	499.512	86.9201	499.512	86.5066	499.512	86.5771	499.512	86.036	499.512	86.104	499.512	85.4526	499.512	85.5241	499.512	84.7758	499.512	84.8796	499.512	84.0487	499.512	84.237	499.512	83.3511	499.512	83.6749	499.512	82.8103	499.512	83.2581	499.512	82.5861	499.512	83.0258	499.512	82.7859	499.512	83.0137	499.512	83.3643	499.512	83.2682	499.512	84.146	499.512	83.8018	499.512	84.9461	499.512	84.5308	499.512	85.6405	499.512	85.2952	499.512	86.1621	499.512	85.9409	499.512	86.4735	499.512	86.3716	499.512	86.5493
517.09	87.7839	517.09	87.7096	517.09	87.6875	517.09	87.4546	517.09	87.4379	517.09	87.0269	517.09	87.0465	517.09	86.4519	517.09	86.5176	517.09	85.7633	517.09	85.8637	517.09	84.9959	517.09	85.1229	517.09	84.1877	517.09	84.3637	517.09	83.3891	517.09	83.6698	517.09	82.6756	517.09	83.1137	517.09	82.1729	517.09	82.7408	517.09	82.0517	517.09	82.5681	517.09	82.4037	517.09	82.589	517.09	83.0999	517.09	82.777	517.09	83.8815	517.09	83.0998	517.09	84.5389	517.09	83.5325	517.09	84.9567	517.09	84.0403	517.09	85.0859	517.09	84.5448	517.09	84.9291
536.133	87.7813	536.133	87.7043	536.133	87.6201	536.133	87.3713	536.133	87.2422	536.133	86.7934	536.133	86.6613	536.133	86.0374	536.133	85.8876	536.133	85.2305	536.133	84.9484	536.133	84.5066	536.133	83.9188	536.133	83.9197	536.133	82.9527	536.133	83.4277	536.133	82.2706	536.133	82.9861	536.133	82.038	536.133	82.6488	536.133	82.2205	536.133	82.5471	536.133	82.6389	536.133	82.7528	536.133	83.1408	536.133	83.2022	536.133	83.655	536.133	83.7618	536.133	84.1431	536.133	84.3054	536.133	84.5633	536.133	84.7405	536.133	84.8782	536.133	85.0156	536.133	85.0679	536.133	85.1197
555.176	88.1054	555.176	88.0955	555.176	87.9499	555.176	87.8497	555.176	87.6822	555.176	87.3205	555.176	87.3113	555.176	86.5193	555.176	86.8051	555.176	85.5388	555.176	86.1154	555.176	84.5405	555.176	85.2074	555.176	83.6751	555.176	84.0869	555.176	82.98	555.176	82.8402	555.176	82.4018	555.176	81.69	555.176	81.9631	555.176	80.9904	555.176	81.8648	555.176	80.9984	555.176	82.3065	555.176	81.6102	555.176	83.1933	555.176	82.5142	555.176	84.2058	555.176	83.4702	555.176	85.0753	555.176	84.3543	555.176	85.6721	555.176	85.0966	555.176	85.9592	555.176	85.6416	555.176	85.9413
574.219	88.2053	574.219	88.0306	574.219	88.269	574.219	87.7257	574.219	88.2012	574.219	87.2475	574.219	87.958	574.219	86.5767	574.219	87.4999	574.219	85.7572	574.219	86.8169	574.219	84.881	574.219	85.936	574.219	84.0261	574.219	84.9091	574.219	83.2177	574.219	83.7988	574.219	82.461	574.219	82.6927	574.219	81.7973	574.219	81.7309	574.219	81.3421	574.219	81.0865	574.219	81.2874	574.219	80.9239	574.219	81.7713	574.219	81.3489	574.219	82.6536	574.219	82.2442	574.219	83.5867	574.219	83.2564	574.219	84.2992	574.219	84.0735	574.219	84.6934	574.219	84.5782	574.219	84.7792
594.727	87.9318	594.727	87.8697	594.727	87.7533	594.727	87.546	594.727	87.3784	594.727	86.9679	594.727	86.831	594.727	86.1481	594.727	86.098	594.727	85.1084	594.727	85.1774	594.727	83.9317	594.727	84.136	594.727	82.811	594.727	83.1128	594.727	82.0003	594.727	82.2837	594.727	81.6425	594.727	81.8151	594.727	81.6664	594.727	81.7741	594.727	81.9114	594.727	82.0195	594.727	82.2808	594.727	82.274	594.727	82.7407	594.727	82.3579	594.727	83.2498	594.727	82.3554	594.727	83.733	594.727	82.553	594.727	84.0988	594.727	83.0775	594.727	84.2567	594.727	83.6987	594.727	84.1304
615.234	87.9623	615.234	87.7269	615.234	88.0264	615.234	87.2862	615.234	87.9455	615.234	86.6322	615.234	87.6996	615.234	85.7918	615.234	87.2168	615.234	84.8095	615.234	86.4153	615.234	83.7263	615.234	85.262	615.234	82.6088	615.234	83.8101	615.234	81.6238	615.234	82.204	615.234	81.0092	615.234	80.6785	615.234	80.8501	615.234	79.5869	615.234	81.0494	615.234	79.3823	615.234	81.5762	615.234	80.2119	615.234	82.4378	615.234	81.5647	615.234	83.4569	615.234	82.8195	615.234	84.339	615.234	83.7038	615.234	84.8762	615.234	84.2434	615.234	85.0225	615.234	84.5979	615.234	84.8773
637.207	88.138	637.207	88.0429	637.207	88.1456	637.207	87.7871	637.207	88.0643	637.207	87.2771	637.207	87.8301	637.207	86.4662	637.207	87.3799	637.207	85.3924	637.207	86.6961	637.207	84.163	637.207	85.798	637.207	82.8989	637.207	84.7039	637.207	81.7302	637.207	83.4172	637.207	80.8603	637.207	81.979	637.207	80.4417	637.207	80.585	637.207	80.3887	637.207	79.6893	637.207	80.6537	637.207	79.758	637.207	81.3818	637.207	80.6712	637.207	82.5081	637.207	81.8804	637.207	83.6507	637.207	83.0001	637.207	84.481	637.207	83.8926	637.207	84.8813	637.207	84.5257	637.207	84.8735
659.18	88.4796	659.18	88.3528	659.18	88.401	659.18	87.9752	659.18	88.1153	659.18	87.2838	659.18	87.6023	659.18	86.2699	659.18	86.8723	659.18	85.0317	659.18	85.9828	659.18	83.7297	659.18	85.0069	659.18	82.4426	659.18	83.9837	659.18	81.1374	659.18	82.8968	659.18	79.9075	659.18	81.7055	659.18	79.1129	659.18	80.4928	659.18	78.9898	659.18	79.7111	659.18	79.4533	659.18	79.8621	659.18	80.4854	659.18	80.6334	659.18	81.9455	659.18	81.5016	659.18	83.3882	659.18	82.4341	659.18	84.435	659.18	83.466	659.18	84.9422	659.18	84.3735	659.18	84.9059
682.617	88.51	682.617	88.4859	682.617	88.4294	682.617	88.2555	682.617	88.2744	682.617	87.7223	682.617	88.0051	682.617	86.8726	682.617	87.5934	682.617	85.801	682.617	87.0424	682.617	84.6295	682.617	86.3017	682.617	83.3774	682.617	85.2938	682.617	82.0295	682.617	84.1135	682.617	80.7968	682.617	82.9949	682.617	80.0467	682.617	81.8986	682.617	79.6934	682.617	80.6401	682.617	79.3105	682.617	79.9395	682.617	79.2464	682.617	80.9921	682.617	80.2983	682.617	82.6735	682.617	82.0007	682.617	83.7325	682.617	83.421	682.617	84.1647	682.617	84.2211	682.617	84.3656	682.617	84.4578
707.52	87.8719	707.52	87.546	707.52	88.1042	707.52	87.1628	707.52	88.139	707.52	86.6449	707.52	87.9296	707.52	85.9224	707.52	87.505	707.52	85.0451	707.52	86.9012	707.52	84.1493	707.52	86.111	707.52	83.3042	707.52	85.0962	707.52	82.4342	707.52	83.857	707.52	81.4723	707.52	82.5691	707.52	80.5227	707.52	81.6136	707.52	79.6822	707.52	81.0665	707.52	78.8279	707.52	80.5007	707.52	78.0349	707.52	80.081	707.52	78.1891	707.52	80.6813	707.52	79.6724	707.52	81.8227	707.52	81.3084	707.52	82.5243	707.52	82.3193	707.52	82.7322	707.52	82.6972
732.422	88.3408	732.422	88.352	732.422	88.1272	732.422	88.0842	732.422	87.7673	732.422	87.5213	732.422	87.2054	732.422	86.6836	732.422	86.414	732.422	85.621	732.422	85.5829	732.422	84.4189	732.422	84.9668	732.422	83.1895	732.422	84.527	732.422	82.1088	732.422	83.9514	732.422	81.3663	732.422	82.9617	732.422	80.9866	732.422	81.5878	732.422	80.8243	732.422	80.4062	732.422	80.7358	732.422	80.1057	732.422	80.7227	732.422	80.433	732.422	80.9793	732.422	80.9223	732.422	81.6274	732.422	81.6029	732.422	82.4317	732.422	82.4274	732.422	83.0512	732.422	83.0701	732.422	83.2906
757.324	88.8414	757.324	88.5485	757.324	88.8473	757.324	87.9421	757.324	88.5777	757.324	87.0702	757.324	88.0305	757.324	86.0812	757.324	87.2671	757.324	85.1151	757.324	86.3994	757.324	84.1636	757.324	85.4872	757.324	83.1104	757.324	84.5015	757.324	81.9706	757.324	83.3753	757.324	80.972	757.324	82.0817	757.324	80.3333	757.324	80.6929	757.324	79.9201	757.324	79.3298	757.324	79.2537	757.324	78.3111	757.324	78.2144	757.324	78.6229	757.324	77.632	757.324	80.3167	757.324	78.5289	757.324	81.9004	757.324	80.1125	757.324	82.654	757.324	81.3321	757.324	82.6346	757.324	82.1331
785.156	87.5463	785.156	87.0344	785.156	87.9386	785.156	86.5138	785.156	88.0028	785.156	85.9671	785.156	87.6463	785.156	85.439	785.156	86.989	785.156	84.9871	785.156	86.2615	785.156	84.5347	785.156	85.588	785.156	83.9123	785.156	84.9064	785.156	82.9801	785.156	84.0161	785.156	81.8148	785.156	82.6537	785.156	80.5514	785.156	80.7848	785.156	79.3305	785.156	79.3926	785.156	78.8519	785.156	79.3321	785.156	79.6643	785.156	79.1031	785.156	80.8721	785.156	78.5906	785.156	81.6475	785.156	79.2923	785.156	81.8704	785.156	80.4298	785.156	81.6893	785.156	81.0192	785.156	81.348
811.523	88.155	811.523	87.9271	811.523	88.1736	811.523	87.4677	811.523	88.0246	811.523	86.8159	811.523	87.763	811.523	86.0584	811.523	87.3827	811.523	85.1871	811.523	86.6961	811.523	83.9912	811.523	85.4764	811.523	82.2392	811.523	83.7777	811.523	80.1142	811.523	81.9802	811.523	78.2408	811.523	80.2652	811.523	76.6145	811.523	78.1838	811.523	75.2779	811.523	76.0403	811.523	76.6253	811.523	76.2889	811.523	79.685	811.523	78.0218	811.523	82.0182	811.523	79.2907	811.523	83.2833	811.523	80.3153	811.523	83.7741	811.523	81.5606	811.523	83.7765	811.523	82.7203	811.523	83.4438
840.82	88.4644	840.82	88.5041	840.82	88.1392	840.82	88.3235	840.82	87.5196	840.82	87.9431	840.82	86.7772	840.82	87.3251	840.82	86.1696	840.82	86.3812	840.82	85.7629	840.82	84.9705	840.82	85.3931	840.82	83.036	840.82	84.8867	840.82	81.1168	840.82	84.1579	840.82	80.2667	840.82	83.1673	840.82	80.3517	840.82	81.9351	840.82	80.604	840.82	80.8522	840.82	81.1375	840.82	80.4481	840.82	81.749	840.82	80.4089	840.82	81.5957	840.82	81.0598	840.82	80.5924	840.82	82.5841	840.82	79.7319	840.82	83.4875	840.82	80.2737	840.82	83.1237	840.82	81.8019
870.117	85.863	870.117	85.3269	870.117	87.6753	870.117	86.6911	870.117	89.4211	870.117	88.5316	870.117	90.7153	870.117	89.8526	870.117	91.5902	870.117	90.4712	870.117	91.9585	870.117	90.5196	870.117	91.6751	870.117	90.1917	870.117	90.8304	870.117	89.5493	870.117	89.7931	870.117	88.6216	870.117	88.8577	870.117	87.5772	870.117	87.999	870.117	86.4067	870.117	87.0857	870.117	84.7756	870.117	86.0704	870.117	82.1266	870.117	85.6972	870.117	76.9209	870.117	86.0789	870.117	47.1992	870.117	86.3465	870.117	76.7074	870.117	86.8784	870.117	82.5448	870.117	87.0006	870.117	85.6367
900.879	91.7095	900.879	91.5835	900.879	90.9357	900.879	90.5781	900.879	89.2876	900.879	88.687	900.879	87.0065	900.879	86.2519	900.879	84.6986	900.879	84.4799	900.879	83.4139	900.879	84.2175	900.879	83.2872	900.879	84.1531	900.879	83.638	900.879	83.293	900.879	83.8389	900.879	81.5007	900.879	82.9397	900.879	78.3879	900.879	79.6604	900.879	73.8076	900.879	73.6152	900.879	75.0203	900.879	74.0471	900.879	79.3358	900.879	76.78	900.879	81.3394	900.879	79.6716	900.879	81.5381	900.879	80.7959	900.879	80.6885	900.879	80.0526	900.879	79.4437	900.879	78.939	900.879	78.6782
933.105	93.7896	933.105	93.2137	933.105	93.4117	933.105	91.506	933.105	92.1622	933.105	88.3409	933.105	89.76	933.105	82.7664	933.105	85.2986	933.105	74.4245	933.105	76.4201	933.105	79.5593	933.105	81.7437	933.105	83.9976	933.105	88.4052	933.105	86.5275	933.105	91.7053	933.105	87.7219	933.105	92.9843	933.105	87.9549	933.105	92.6412	933.105	87.8925	933.105	91.306	933.105	88.1149	933.105	89.9818	933.105	88.7955	933.105	88.0179	933.105	89.4051	933.105	84.9636	933.105	89.2749	933.105	81.9803	933.105	88.1916	933.105	75.1185	933.105	86.1156	933.105	73.5991	933.105	82.4546
965.332	91.5577	965.332	89.7862	965.332	92.4017	965.332	86.9679	965.332	92.5349	965.332	85.8011	965.332	92.1429	965.332	88.2579	965.332	91.6261	965.332	90.6112	965.332	91.0653	965.332	92.0305	965.332	90.3234	965.332	92.7036	965.332	90.039	965.332	92.9892	965.332	90.7422	965.332	93.0608	965.332	91.5812	965.332	92.7083	965.332	91.7683	965.332	91.6684	965.332	91.3395	965.332	89.9203	965.332	90.6992	965.332	87.6258	965.332	89.1168	965.332	85.3224	965.332	85.8893	965.332	85.1903	965.332	85.132	965.332	87.4751	965.332	86.7286	965.332	88.9904	965.332	87.7305	965.332	88.8011
1,000.49	91.2959	1,000.49	90.1757	1,000.49	91.8471	1,000.49	89.0908	1,000.49	91.7353	1,000.49	89.0196	1,000.49	91.2301	1,000.49	89.6538	1,000.49	90.396	1,000.49	89.7778	1,000.49	89.2274	1,000.49	89.1484	1,000.49	88.2438	1,000.49	88.0889	1,000.49	87.7326	1,000.49	87.0505	1,000.49	87.3661	1,000.49	86.1104	1,000.49	86.7592	1,000.49	84.5977	1,000.49	85.3966	1,000.49	82.6109	1,000.49	83.0745	1,000.49	81.029	1,000.49	81.2656	1,000.49	79.6659	1,000.49	81.173	1,000.49	77.9446	1,000.49	80.5369	1,000.49	75.0288	1,000.49	80.023	1,000.49	72.4403	1,000.49	81.7955	1,000.49	76.7972	1,000.49	82.2127	1,000.49	80.4031
1,035.64	89.6652	1,035.64	89.3569	1,035.64	90.3317	1,035.64	90.1481	1,035.64	90.7759	1,035.64	91.3419	1,035.64	91.0584	1,035.64	91.9293	1,035.64	91.2653	1,035.64	91.6385	1,035.64	91.6427	1,035.64	90.7147	1,035.64	92.1938	1,035.64	89.7204	1,035.64	92.2199	1,035.64	88.9527	1,035.64	91.6831	1,035.64	88.6632	1,035.64	91.3722	1,035.64	89.1464	1,035.64	91.3482	1,035.64	89.817	1,035.64	91.3283	1,035.64	89.4909	1,035.64	90.3304	1,035.64	88.0035	1,035.64	87.5322	1,035.64	86.0958	1,035.64	85.5271	1,035.64	83.2031	1,035.64	85.5688	1,035.64	76.9714	1,035.64	84.9298	1,035.64	75.6456	1,035.64	84.0917	1,035.64	81.8283
1,072.27	91.5998	1,072.27	89.2133	1,072.27	92.7884	1,072.27	85.8059	1,072.27	93.0268	1,072.27	85.2773	1,072.27	92.5404	1,072.27	88.5897	1,072.27	91.2747	1,072.27	90.9968	1,072.27	88.9663	1,072.27	92.0409	1,072.27	86.0955	1,072.27	92.1749	1,072.27	84.0878	1,072.27	91.8409	1,072.27	82.627	1,072.27	91.1547	1,072.27	81.0801	1,072.27	90.046	1,072.27	82.0163	1,072.27	88.7302	1,072.27	83.5533	1,072.27	87.1835	1,072.27	82.4527	1,072.27	83.803	1,072.27	80.2816	1,072.27	78.241	1,072.27	79.7361	1,072.27	82.9548	1,072.27	76.7925	1,072.27	84.9681	1,072.27	73.8174	1,072.27	84.2355	1,072.27	79.6658	1,072.27	82.7233
1,108.89	89.0235	1,108.89	87.3153	1,108.89	90.6757	1,108.89	86.9422	1,108.89	91.7396	1,108.89	88.6644	1,108.89	91.8542	1,108.89	90.6985	1,108.89	90.9943	1,108.89	91.873	1,108.89	89.498	1,108.89	92.2287	1,108.89	87.4468	1,108.89	92.039	1,108.89	86.0343	1,108.89	91.4207	1,108.89	86.2234	1,108.89	90.8529	1,108.89	86.3511	1,108.89	90.3259	1,108.89	85.7131	1,108.89	89.2424	1,108.89	84.5132	1,108.89	87.6672	1,108.89	83.3433	1,108.89	85.2434	1,108.89	82.2956	1,108.89	79.8934	1,108.89	79.4812	1,108.89	74.0625	1,108.89	77.5295	1,108.89	80.3608	1,108.89	79.8663	1,108.89	82.8523	1,108.89	80.3324	1,108.89	82.048
1,148.44	88.5143	1,148.44	88.6107	1,148.44	89.2896	1,148.44	90.0454	1,148.44	90.0925	1,148.44	91.6822	1,148.44	91.0277	1,148.44	92.446	1,148.44	92.1164	1,148.44	92.0542	1,148.44	93.0118	1,148.44	90.6399	1,148.44	93.6286	1,148.44	89.1378	1,148.44	93.8259	1,148.44	88.6227	1,148.44	93.6022	1,148.44	88.4034	1,148.44	93.1187	1,148.44	88.2659	1,148.44	92.3284	1,148.44	88.47	1,148.44	90.9805	1,148.44	89.1536	1,148.44	89.1801	1,148.44	89.3312	1,148.44	87.3806	1,148.44	87.6124	1,148.44	85.9318	1,148.44	82.9681	1,148.44	83.845	1,148.44	73.2773	1,148.44	83.2118	1,148.44	73.532	1,148.44	83.4938	1,148.44	80.5779
1,189.45	89.5427	1,189.45	90.2463	1,189.45	88.7027	1,189.45	90.3209	1,189.45	87.9225	1,189.45	89.3428	1,189.45	87.3269	1,189.45	86.9054	1,189.45	87.3239	1,189.45	81.5309	1,189.45	88.6161	1,189.45	63.0504	1,189.45	90.6282	1,189.45	80.611	1,189.45	92.1067	1,189.45	84.5943	1,189.45	92.8321	1,189.45	85.4003	1,189.45	93.2403	1,189.45	85.7469	1,189.45	93.3331	1,189.45	85.647	1,189.45	92.521	1,189.45	86.0975	1,189.45	91.223	1,189.45	87.3278	1,189.45	89.0828	1,189.45	87.1801	1,189.45	85.265	1,189.45	84.9608	1,189.45	84.1215	1,189.45	80.8915	1,189.45	82.3513	1,189.45	69.8572	1,189.45	78.6303	1,189.45	73.2204
1,230.47	87.5781	1,230.47	87.965	1,230.47	88.3885	1,230.47	89.5859	1,230.47	89.5078	1,230.47	91.0577	1,230.47	90.5528	1,230.47	91.2319	1,230.47	91.2159	1,230.47	89.5903	1,230.47	91.8306	1,230.47	87.0184	1,230.47	92.3399	1,230.47	85.6663	1,230.47	92.4083	1,230.47	85.1003	1,230.47	92.0432	1,230.47	85.8456	1,230.47	90.6842	1,230.47	86.8792	1,230.47	88.4419	1,230.47	87.3741	1,230.47	86.2403	1,230.47	86.5718	1,230.47	83.7478	1,230.47	84.3172	1,230.47	77.34	1,230.47	80.4394	1,230.47	71.8215	1,230.47	73.5997	1,230.47	76.2237	1,230.47	70.2439	1,230.47	76.9257	1,230.47	74.2865	1,230.47	78.004	1,230.47	77.1037
1,274.41	91.6234	1,274.41	90.5207	1,274.41	91.0832	1,274.41	86.9734	1,274.41	88.9967	1,274.41	78.5459	1,274.41	84.6796	1,274.41	80.4113	1,274.41	75.9295	1,274.41	86.4366	1,274.41	83.239	1,274.41	89.207	1,274.41	88.4812	1,274.41	90.4995	1,274.41	90.5601	1,274.41	90.3278	1,274.41	90.9428	1,274.41	89.2596	1,274.41	90.4514	1,274.41	87.9447	1,274.41	89.7455	1,274.41	85.2709	1,274.41	87.9948	1,274.41	79.949	1,274.41	85.2609	1,274.41	73.8363	1,274.41	83.1376	1,274.41	78.9543	1,274.41	79.7973	1,274.41	80.5671	1,274.41	77.8651	1,274.41	79.1722	1,274.41	79.2282	1,274.41	73.61	1,274.41	77.9412	1,274.41	73.9574
1,319.82	88.4353	1,319.82	88.2414	1,319.82	88.9649	1,319.82	88.5454	1,319.82	89.2336	1,319.82	88.1198	1,319.82	88.7373	1,319.82	85.4758	1,319.82	87.4337	1,319.82	80.5595	1,319.82	86.4377	1,319.82	82.9464	1,319.82	87.4804	1,319.82	86.0326	1,319.82	89.6491	1,319.82	87.7226	1,319.82	91.3167	1,319.82	88.7849	1,319.82	92.1116	1,319.82	88.2857	1,319.82	92.2796	1,319.82	87.1002	1,319.82	91.6316	1,319.82	86.3593	1,319.82	90.1429	1,319.82	85.6885	1,319.82	87.5949	1,319.82	85.4562	1,319.82	83.9413	1,319.82	84.7698	1,319.82	82.2834	1,319.82	82.7704	1,319.82	79.4744	1,319.82	77.0962	1,319.82	72.9494	1,319.82	56.4953
1,366.7	87.2782	1,366.7	88.1135	1,366.7	87.4824	1,366.7	89.1848	1,366.7	88.6415	1,366.7	89.3751	1,366.7	89.7132	1,366.7	88.1958	1,366.7	89.3361	1,366.7	86.1312	1,366.7	87.3101	1,366.7	84.5536	1,366.7	83.6796	1,366.7	83.6458	1,366.7	76.9113	1,366.7	83.5991	1,366.7	77.1156	1,366.7	84.0396	1,366.7	80.1806	1,366.7	83.2818	1,366.7	81.1521	1,366.7	82.6355	1,366.7	81.5181	1,366.7	81.7027	1,366.7	80.6595	1,366.7	75.7459	1,366.7	80.0689	1,366.7	72.8326	1,366.7	79.8062	1,366.7	76.9792	1,366.7	75.2626	1,366.7	79.6031	1,366.7	71.3292	1,366.7	78.588	1,366.7	66.7508	1,366.7	74.4668
1,413.57	87.8459	1,413.57	87.3048	1,413.57	88.4495	1,413.57	87.3928	1,413.57	88.5836	1,413.57	87.1707	1,413.57	88.1754	1,413.57	86.8502	1,413.57	86.2467	1,413.57	87.2088	1,413.57	81.7813	1,413.57	87.0432	1,413.57	77.0709	1,413.57	86.5203	1,413.57	80.5208	1,413.57	85.971	1,413.57	83.4167	1,413.57	85.5877	1,413.57	84.4755	1,413.57	85.7472	1,413.57	85.1544	1,413.57	85.0726	1,413.57	85.9268	1,413.57	82.3345	1,413.57	83.6436	1,413.57	76.7369	1,413.57	79.2239	1,413.57	74.2407	1,413.57	77.8076	1,413.57	78.09	1,413.57	76.6409	1,413.57	72.4731	1,413.57	77.9502	1,413.57	64.895	1,413.57	79.1645	1,413.57	76.6717
1,463.38	90.1745	1,463.38	90.1879	1,463.38	88.4834	1,463.38	87.9617	1,463.38	84.7535	1,463.38	80.7679	1,463.38	81.1924	1,463.38	80.3482	1,463.38	86.0222	1,463.38	87.1189	1,463.38	89.0145	1,463.38	88.8907	1,463.38	88.855	1,463.38	88.2467	1,463.38	86.5923	1,463.38	88.1272	1,463.38	87.6382	1,463.38	89.627	1,463.38	90.2039	1,463.38	90.0777	1,463.38	91.4763	1,463.38	90.485	1,463.38	91.1973	1,463.38	90.5225	1,463.38	90.8488	1,463.38	89.2569	1,463.38	88.403	1,463.38	86.4797	1,463.38	85.251	1,463.38	82.4659	1,463.38	81.6806	1,463.38	81.311	1,463.38	72.1811	1,463.38	82.1427	1,463.38	73.6814	1,463.38	79.1678
1,516.11	86.6854	1,516.11	85.5524	1,516.11	87.8982	1,516.11	86.5466	1,516.11	88.1274	1,516.11	88.2772	1,516.11	86.9947	1,516.11	88.0687	1,516.11	85.948	1,516.11	84.3381	1,516.11	85.0951	1,516.11	80.3803	1,516.11	85.7786	1,516.11	83.3024	1,516.11	87.003	1,516.11	86.2987	1,516.11	87.6803	1,516.11	87.1134	1,516.11	87.9338	1,516.11	85.4467	1,516.11	87.3453	1,516.11	83.3768	1,516.11	86.225	1,516.11	82.6064	1,516.11	83.3692	1,516.11	82.6407	1,516.11	78.568	1,516.11	80.2639	1,516.11	72.7755	1,516.11	73.1631	1,516.11	71.7902	1,516.11	65.84	1,516.11	72.9732	1,516.11	69.8567	1,516.11	71.5397	1,516.11	67.7781
1,568.85	86.3254	1,568.85	85.7781	1,568.85	87.1569	1,568.85	86.5784	1,568.85	87.3388	1,568.85	87.5579	1,568.85	86.9178	1,568.85	85.847	1,568.85	86.1006	1,568.85	80.5646	1,568.85	84.451	1,568.85	70.2024	1,568.85	81.809	1,568.85	73.9388	1,568.85	77.291	1,568.85	81.8839	1,568.85	79.725	1,568.85	84.4086	1,568.85	85.7104	1,568.85	85.1788	1,568.85	88.8144	1,568.85	85.1113	1,568.85	87.4069	1,568.85	82.8663	1,568.85	86.6119	1,568.85	81.9667	1,568.85	83.0635	1,568.85	82.2984	1,568.85	81.4189	1,568.85	82.531	1,568.85	79.2222	1,568.85	79.2377	1,568.85	78.7594	1,568.85	71.231	1,568.85	76.4681	1,568.85	71.4692
1,624.51	86.6436	1,624.51	86.9533	1,624.51	86.3569	1,624.51	86.5888	1,624.51	86.1919	1,624.51	85.6458	1,624.51	85.628	1,624.51	85.4381	1,624.51	83.7582	1,624.51	85.0116	1,624.51	80.6879	1,624.51	81.4384	1,624.51	79.9944	1,624.51	76.1829	1,624.51	80.0184	1,624.51	72.3608	1,624.51	72.0407	1,624.51	75.3525	1,624.51	71.5566	1,624.51	75.563	1,624.51	77.6658	1,624.51	78.1784	1,624.51	78.5356	1,624.51	80.8027	1,624.51	79.182	1,624.51	80.5184	1,624.51	78.1379	1,624.51	78.5821	1,624.51	75.9178	1,624.51	75.4534	1,624.51	69.6747	1,624.51	66.3623	1,624.51	65.9485	1,624.51	68.1465	1,624.51	69.9771	1,624.51	72.7547
1,681.64	88.0462	1,681.64	88.3569	1,681.64	86.8277	1,681.64	86.8771	1,681.64	85.5172	1,681.64	83.6695	1,681.64	86.2417	1,681.64	78.4601	1,681.64	88.4755	1,681.64	85.6794	1,681.64	90.1154	1,681.64	89.0214	1,681.64	90.5496	1,681.64	88.3964	1,681.64	89.926	1,681.64	87.3807	1,681.64	89.5911	1,681.64	86.702	1,681.64	89.4295	1,681.64	86.1464	1,681.64	88.884	1,681.64	86.346	1,681.64	87.4348	1,681.64	85.267	1,681.64	85.4437	1,681.64	82.2816	1,681.64	78.2441	1,681.64	75.2144	1,681.64	76.2512	1,681.64	70.7888	1,681.64	70.5137	1,681.64	61.3192	1,681.64	67.0452	1,681.64	69.3497	1,681.64	70.8704	1,681.64	72.0732
1,741.7	87.604	1,741.7	86.4962	1,741.7	88.4535	1,741.7	85.6223	1,741.7	88.0494	1,741.7	85.7131	1,741.7	86.4773	1,741.7	85.5935	1,741.7	83.6458	1,741.7	83.5588	1,741.7	81.7233	1,741.7	81.8001	1,741.7	81.2846	1,741.7	83.4488	1,741.7	78.504	1,741.7	85.6557	1,741.7	79.8997	1,741.7	86.1227	1,741.7	83.378	1,741.7	85.635	1,741.7	85.2001	1,741.7	84.4047	1,741.7	82.9434	1,741.7	80.4159	1,741.7	79.5135	1,741.7	77.278	1,741.7	73.9357	1,741.7	75.5952	1,741.7	73.3982	1,741.7	74.1204	1,741.7	58.5617	1,741.7	69.6218	1,741.7	68.0269	1,741.7	60.1066	1,741.7	71.1146	1,741.7	72.9491
1,803.22	87.9543	1,803.22	88.3827	1,803.22	87.4439	1,803.22	87.9572	1,803.22	87.53	1,803.22	85.638	1,803.22	87.7607	1,803.22	79.526	1,803.22	87.5858	1,803.22	75.5383	1,803.22	86.0519	1,803.22	85.4291	1,803.22	82.5625	1,803.22	89.6057	1,803.22	84.7285	1,803.22	90.7464	1,803.22	87.4667	1,803.22	90.3205	1,803.22	88.6354	1,803.22	89.4389	1,803.22	88.1219	1,803.22	88.2834	1,803.22	87.2279	1,803.22	85.8773	1,803.22	86.4087	1,803.22	83.9988	1,803.22	84.454	1,803.22	83.1945	1,803.22	80.42	1,803.22	81.8918	1,803.22	73.8995	1,803.22	78.4285	1,803.22	69.5172	1,803.22	75.177	1,803.22	73.0961	1,803.22	74.904
1,866.21	89.3845	1,866.21	88.444	1,866.21	88.5694	1,866.21	86.3108	1,866.21	87.5047	1,866.21	86.7886	1,866.21	85.9651	1,866.21	88.4856	1,866.21	84.8167	1,866.21	88.8218	1,866.21	86.6543	1,866.21	88.0308	1,866.21	89.1814	1,866.21	88.4113	1,866.21	90.6156	1,866.21	87.7199	1,866.21	89.8721	1,866.21	85.6309	1,866.21	88.1505	1,866.21	83.8745	1,866.21	85.534	1,866.21	80.6905	1,866.21	78.2136	1,866.21	75.9098	1,866.21	70.7965	1,866.21	50.4292	1,866.21	45.9621	1,866.21	72.8288	1,866.21	61.8326	1,866.21	70.0101	1,866.21	60.6739	1,866.21	56.6514	1,866.21	69.4641	1,866.21	58.652	1,866.21	70.4667	1,866.21	64.2883
1,932.13	87.9698	1,932.13	87.1226	1,932.13	89.1523	1,932.13	87.4626	1,932.13	88.9316	1,932.13	87.9718	1,932.13	86.7786	1,932.13	87.0598	1,932.13	85.777	1,932.13	85.9378	1,932.13	87.0499	1,932.13	84.674	1,932.13	88.5425	1,932.13	83.0866	1,932.13	90.5753	1,932.13	84.7748	1,932.13	92.0536	1,932.13	85.0706	1,932.13	91.7619	1,932.13	83.0003	1,932.13	89.4449	1,932.13	76.9223	1,932.13	85.029	1,932.13	73.8821	1,932.13	80.8744	1,932.13	77.7189	1,932.13	77.1222	1,932.13	66.9896	1,932.13	75.5818	1,932.13	64.413	1,932.13	60.2634	1,932.13	68.409	1,932.13	73.9806	1,932.13	67.7281	1,932.13	72.3968	1,932.13	67.092
1,999.51	87.9174	1,999.51	87.629	1,999.51	88.0002	1,999.51	87.3035	1,999.51	87.8473	1,999.51	86.2656	1,999.51	87.1325	1,999.51	84.5527	1,999.51	85.7274	1,999.51	82.5163	1,999.51	85.0347	1,999.51	79.2445	1,999.51	82.0407	1,999.51	80.1982	1,999.51	79.7365	1,999.51	78.8836	1,999.51	77.2008	1,999.51	75.5955	1,999.51	73.433	1,999.51	78.1284	1,999.51	75.5362	1,999.51	76.5635	1,999.51	76.4142	1,999.51	70.523	1,999.51	70.1565	1,999.51	71.5168	1,999.51	66.711	1,999.51	74.8554	1,999.51	57.7276	1,999.51	72.4215	1,999.51	65.5289	1,999.51	57.1475	1,999.51	70.232	1,999.51	60.5504	1,999.51	71.562	1,999.51	69.6136
2,069.82	87.1365	2,069.82	86.9576	2,069.82	86.7554	2,069.82	85.3732	2,069.82	86.4417	2,069.82	84.0893	2,069.82	85.2805	2,069.82	84.1763	2,069.82	84.414	2,069.82	83.4386	2,069.82	83.8813	2,069.82	81.3293	2,069.82	81.0335	2,069.82	79.1735	2,069.82	79.2681	2,069.82	72.192	2,069.82	77.5902	2,069.82	73.2764	2,069.82	78.8905	2,069.82	73.4444	2,069.82	77.8266	2,069.82	74.1511	2,069.82	73.9453	2,069.82	75.098	2,069.82	68.7435	2,069.82	66.2223	2,069.82	64.9468	2,069.82	73.5694	2,069.82	62.9749	2,069.82	72.2285	2,069.82	65.0945	2,069.82	67.5215	2,069.82	72.9324	2,069.82	63.4611	2,069.82	74.0719	2,069.82	71.5622
2,143.07	87.0271	2,143.07	87.1832	2,143.07	86.6087	2,143.07	85.3233	2,143.07	85.9861	2,143.07	83.3142	2,143.07	84.5837	2,143.07	84.5188	2,143.07	84.3176	2,143.07	83.7807	2,143.07	83.3734	2,143.07	81.4192	2,143.07	80.1881	2,143.07	80.282	2,143.07	79.0255	2,143.07	78.6052	2,143.07	78.3287	2,143.07	75.1975	2,143.07	77.996	2,143.07	75.543	2,143.07	78.3809	2,143.07	74.0185	2,143.07	74.2671	2,143.07	74.2842	2,143.07	67.5525	2,143.07	71.5459	2,143.07	62.7173	2,143.07	73.2565	2,143.07	61.8227	2,143.07	73.2912	2,143.07	63.8315	2,143.07	66.4331	2,143.07	72.4627	2,143.07	63.7388	2,143.07	73.5813	2,143.07	69.8985
2,219.24	86.6375	2,219.24	86.7968	2,219.24	86.0208	2,219.24	86.2432	2,219.24	85.2252	2,219.24	84.8275	2,219.24	84.4152	2,219.24	85.1119	2,219.24	84.2963	2,219.24	83.6976	2,219.24	82.8451	2,219.24	81.0924	2,219.24	80.6209	2,219.24	81.15	2,219.24	76.6973	2,219.24	78.4575	2,219.24	72.0076	2,219.24	77.5714	2,219.24	74.1614	2,219.24	73.1769	2,219.24	77.5698	2,219.24	74.8856	2,219.24	76.7081	2,219.24	74.0503	2,219.24	70.8127	2,219.24	71.4134	2,219.24	65.8754	2,219.24	69.4314	2,219.24	58.369	2,219.24	72.9499	2,219.24	65.1953	2,219.24	72.997	2,219.24	69.6302	2,219.24	70.2577	2,219.24	73.7795	2,219.24	71.9561
2,296.88	87.5145	2,296.88	87.1302	2,296.88	86.7194	2,296.88	86.8518	2,296.88	85.9077	2,296.88	86.9089	2,296.88	85.4065	2,296.88	84.283	2,296.88	84.7871	2,296.88	82.301	2,296.88	83.7369	2,296.88	80.625	2,296.88	82.7019	2,296.88	77.6039	2,296.88	80.114	2,296.88	80.0592	2,296.88	76.8634	2,296.88	81.5266	2,296.88	75.2627	2,296.88	74.803	2,296.88	67.2663	2,296.88	63.9992	2,296.88	71.3771	2,296.88	75.0069	2,296.88	74.0529	2,296.88	74.0059	2,296.88	68.761	2,296.88	72.4903	2,296.88	64.269	2,296.88	76.0244	2,296.88	62.55	2,296.88	74.7347	2,296.88	70.3837	2,296.88	71.8975	2,296.88	68.1252	2,296.88	63.9014
2,378.91	87.9696	2,378.91	86.6585	2,378.91	87.2343	2,378.91	86.6551	2,378.91	85.5459	2,378.91	87.3798	2,378.91	84.5677	2,378.91	83.122	2,378.91	85.3108	2,378.91	80.7247	2,378.91	84.8221	2,378.91	82.6198	2,378.91	83.7036	2,378.91	82.1434	2,378.91	83.5726	2,378.91	79.5503	2,378.91	81.3161	2,378.91	72.4262	2,378.91	76.6842	2,378.91	76.1159	2,378.91	74.8414	2,378.91	74.8597	2,378.91	65.7467	2,378.91	68.017	2,378.91	71.0739	2,378.91	75.2509	2,378.91	74.0973	2,378.91	72.7529	2,378.91	68.1625	2,378.91	74.4063	2,378.91	64.7608	2,378.91	75.8354	2,378.91	66.5537	2,378.91	70.9625	2,378.91	69.1529	2,378.91	62.4571
2,462.4	89.6111	2,462.4	88.9876	2,462.4	89.1508	2,462.4	87.4345	2,462.4	87.3388	2,462.4	86.7088	2,462.4	84.9159	2,462.4	84.9807	2,462.4	85.1375	2,462.4	83.8164	2,462.4	83.1749	2,462.4	84.3834	2,462.4	82.6811	2,462.4	81.7473	2,462.4	82.5115	2,462.4	78.3929	2,462.4	79.7076	2,462.4	79.683	2,462.4	75.95	2,462.4	78.65	2,462.4	71.1377	2,462.4	75.85	2,462.4	67.5308	2,462.4	72.0041	2,462.4	76.051	2,462.4	72.8852	2,462.4	76.3977	2,462.4	76.6113	2,462.4	72.8218	2,462.4	74.8459	2,462.4	67.0116	2,462.4	75.1979	2,462.4	66.2012	2,462.4	66.866	2,462.4	71.406	2,462.4	68.1888
2,548.83	89.9113	2,548.83	89.8929	2,548.83	90.1319	2,548.83	88.7914	2,548.83	89.0844	2,548.83	86.3392	2,548.83	86.865	2,548.83	87.9247	2,548.83	85.3764	2,548.83	87.6953	2,548.83	83.6325	2,548.83	85.0877	2,548.83	82.5889	2,548.83	83.5361	2,548.83	79.1596	2,548.83	81.1427	2,548.83	81.9361	2,548.83	74.1725	2,548.83	78.6257	2,548.83	81.018	2,548.83	75.434	2,548.83	78.4137	2,548.83	65.0342	2,548.83	73.975	2,548.83	79.5438	2,548.83	71.6741	2,548.83	79.0195	2,548.83	78.5059	2,548.83	75.1131	2,548.83	75.1691	2,548.83	69.1668	2,548.83	75.6744	2,548.83	72.7521	2,548.83	66.8171	2,548.83	74.9049	2,548.83	73.3314
2,639.65	88.6092	2,639.65	88.605	2,639.65	89.8507	2,639.65	88.097	2,639.65	89.2803	2,639.65	87.487	2,639.65	88.1237	2,639.65	88.4221	2,639.65	86.811	2,639.65	87.1407	2,639.65	85.7472	2,639.65	84.2947	2,639.65	81.4706	2,639.65	81.4726	2,639.65	79.4435	2,639.65	82.0711	2,639.65	79.9914	2,639.65	82.2393	2,639.65	63.5709	2,639.65	75.3042	2,639.65	76.7201	2,639.65	76.9666	2,639.65	76.901	2,639.65	78.0271	2,639.65	79.9713	2,639.65	68.064	2,639.65	79.1105	2,639.65	75.9413	2,639.65	76.0068	2,639.65	76.0309	2,639.65	71.1213	2,639.65	74.1664	2,639.65	74.3107	2,639.65	65.2848	2,639.65	77.8866	2,639.65	68.9394
2,731.93	88.1803	2,731.93	87.3037	2,731.93	88.4046	2,731.93	87.6032	2,731.93	88.4712	2,731.93	88.7553	2,731.93	88.9891	2,731.93	88.1528	2,731.93	88.3671	2,731.93	87.6222	2,731.93	85.7661	2,731.93	83.3747	2,731.93	83.5913	2,731.93	84.7383	2,731.93	80.1614	2,731.93	83.363	2,731.93	61.2054	2,731.93	78.8776	2,731.93	74.8827	2,731.93	73.6694	2,731.93	79.7862	2,731.93	77.0432	2,731.93	71.7745	2,731.93	74.6115	2,731.93	81.3393	2,731.93	72.7004	2,731.93	77.0924	2,731.93	70.5383	2,731.93	76.252	2,731.93	77.9127	2,731.93	65.1941	2,731.93	75.2796	2,731.93	72.6028	2,731.93	61.378	2,731.93	74.9571	2,731.93	70.1644
2,828.61	89.2811	2,828.61	87.627	2,828.61	88.8421	2,828.61	87.6513	2,828.61	87.83	2,828.61	89.0702	2,828.61	88.5376	2,828.61	88.0123	2,828.61	88.4467	2,828.61	87.5319	2,828.61	86.2595	2,828.61	86.678	2,828.61	85.2159	2,828.61	85.982	2,828.61	83.826	2,828.61	82.0385	2,828.61	78.6228	2,828.61	79.4632	2,828.61	80.616	2,828.61	78.7957	2,828.61	80.0308	2,828.61	74.828	2,828.61	68.1727	2,828.61	78.4911	2,828.61	79.6283	2,828.61	72.5801	2,828.61	73.611	2,828.61	73.2804	2,828.61	74.5758	2,828.61	76.0848	2,828.61	68.1929	2,828.61	77.7216	2,828.61	74.3071	2,828.61	66.3058	2,828.61	75.3692	2,828.61	70.5211
2,928.22	89.5417	2,928.22	89.5234	2,928.22	89.8546	2,928.22	89.3345	2,928.22	89.0978	2,928.22	89.5471	2,928.22	89.2056	2,928.22	90.0182	2,928.22	88.2835	2,928.22	88.0746	2,928.22	86.4643	2,928.22	87.8979	2,928.22	87.5287	2,928.22	85.6632	2,928.22	84.8973	2,928.22	80.0523	2,928.22	82.5994	2,928.22	78.7953	2,928.22	87.5288	2,928.22	81.5612	2,928.22	81.7772	2,928.22	77.0793	2,928.22	71.7304	2,928.22	74.7449	2,928.22	73.8564	2,928.22	76.4504	2,928.22	74.7951	2,928.22	65.2305	2,928.22	72.4561	2,928.22	75.352	2,928.22	67.4977	2,928.22	74.6597	2,928.22	75.2298	2,928.22	62.4699	2,928.22	78.6316	2,928.22	76.2322
3,030.76	88.8626	3,030.76	88.3097	3,030.76	90.444	3,030.76	89.8238	3,030.76	90.5715	3,030.76	90.722	3,030.76	89.2683	3,030.76	90.5446	3,030.76	87.4646	3,030.76	87.1412	3,030.76	86.3354	3,030.76	88.0299	3,030.76	85.4624	3,030.76	82.1936	3,030.76	83.5984	3,030.76	81.1527	3,030.76	85.7993	3,030.76	81.7857	3,030.76	88.3902	3,030.76	80.6499	3,030.76	82.4072	3,030.76	77.5378	3,030.76	78.3914	3,030.76	72.2897	3,030.76	73.4639	3,030.76	77.4314	3,030.76	76.5186	3,030.76	72.4719	3,030.76	73.4185	3,030.76	71.2451	3,030.76	69.1133	3,030.76	77.5157	3,030.76	74.8758	3,030.76	67.8603	3,030.76	81.0699	3,030.76	76.4652
3,137.7	88.3158	3,137.7	88.1203	3,137.7	89.1741	3,137.7	91.6762	3,137.7	90.5634	3,137.7	91.8913	3,137.7	88.7079	3,137.7	90.4295	3,137.7	88.7736	3,137.7	89.4509	3,137.7	87.0783	3,137.7	86.6238	3,137.7	85.1715	3,137.7	83.0178	3,137.7	83.9357	3,137.7	82.9008	3,137.7	87.2298	3,137.7	79.5782	3,137.7	88.0034	3,137.7	72.5247	3,137.7	82.35	3,137.7	79.6321	3,137.7	82.9459	3,137.7	74.5334	3,137.7	77.5789	3,137.7	72.5462	3,137.7	72.1173	3,137.7	71.1093	3,137.7	67.0699	3,137.7	68.5706	3,137.7	74.6376	3,137.7	75.2345	3,137.7	75.1107	3,137.7	69.3483	3,137.7	79.5414	3,137.7	76.2675
3,249.02	87.2946	3,249.02	88.9613	3,249.02	88.0643	3,249.02	91.0701	3,249.02	89.8167	3,249.02	91.4362	3,249.02	89.9234	3,249.02	90.6352	3,249.02	89.5658	3,249.02	89.328	3,249.02	87.9252	3,249.02	84.6526	3,249.02	86.9818	3,249.02	86.6942	3,249.02	87.6695	3,249.02	83.3403	3,249.02	89.5706	3,249.02	74.8695	3,249.02	86.446	3,249.02	76.6634	3,249.02	82.8643	3,249.02	75.033	3,249.02	82.8505	3,249.02	76.8171	3,249.02	79.2749	3,249.02	72.4301	3,249.02	74.4762	3,249.02	71.5654	3,249.02	78.376	3,249.02	67.5103	3,249.02	73.6874	3,249.02	72.0425	3,249.02	76.7466	3,249.02	68.7921	3,249.02	81.0694	3,249.02	77.1812
3,363.28	88.5042	3,363.28	90.0794	3,363.28	88.8626	3,363.28	91.3263	3,363.28	89.924	3,363.28	91.6431	3,363.28	90.0586	3,363.28	90.6664	3,363.28	89.9426	3,363.28	87.1777	3,363.28	88.4781	3,363.28	85.9302	3,363.28	89.8941	3,363.28	85.4377	3,363.28	89.7638	3,363.28	74.6068	3,363.28	89.5897	3,363.28	80.6882	3,363.28	84.0756	3,363.28	78.4918	3,363.28	83.5578	3,363.28	76.6992	3,363.28	79.5275	3,363.28	74.6591	3,363.28	77.5875	3,363.28	76.6446	3,363.28	76.9417	3,363.28	72.958	3,363.28	80.9044	3,363.28	74.433	3,363.28	71.921	3,363.28	65.8701	3,363.28	75.2318	3,363.28	64.6288	3,363.28	81.1122	3,363.28	75.7687
3,481.93	89.0158	3,481.93	91.3244	3,481.93	89.4402	3,481.93	92.7159	3,481.93	91.0828	3,481.93	91.9833	3,481.93	91.0757	3,481.93	91.0663	3,481.93	90.806	3,481.93	88.386	3,481.93	88.6149	3,481.93	88.3323	3,481.93	90.6838	3,481.93	83.3703	3,481.93	89.0545	3,481.93	82.5915	3,481.93	87.5953	3,481.93	80.9004	3,481.93	81.6791	3,481.93	78.0704	3,481.93	85.6288	3,481.93	80.1742	3,481.93	80.0674	3,481.93	73.3857	3,481.93	77.7749	3,481.93	77.7347	3,481.93	77.6397	3,481.93	74.1898	3,481.93	80.182	3,481.93	76.0784	3,481.93	64.028	3,481.93	74.1547	3,481.93	72.5226	3,481.93	67.9704	3,481.93	79.0237	3,481.93	73.3335
3,604.98	90.3877	3,604.98	91.8836	3,604.98	89.5259	3,604.98	93.1392	3,604.98	90.4682	3,604.98	92.3014	3,604.98	91.6395	3,604.98	91.2937	3,604.98	90.6942	3,604.98	87.4752	3,604.98	91.9297	3,604.98	86.6014	3,604.98	91.6074	3,604.98	79.3404	3,604.98	88.1514	3,604.98	87.158	3,604.98	79.9164	3,604.98	78.4033	3,604.98	69.1527	3,604.98	81.5327	3,604.98	81.5318	3,604.98	77.3646	3,604.98	71.0151	3,604.98	77.9597	3,604.98	78.3914	3,604.98	71.4264	3,604.98	73.8092	3,604.98	75.0311	3,604.98	77.4419	3,604.98	76.6063	3,604.98	69.6682	3,604.98	73.3742	3,604.98	70.0543	3,604.98	74.4615	3,604.98	77.2716	3,604.98	71.7792
3,732.42	90.7081	3,732.42	92.1845	3,732.42	90.3336	3,732.42	92.4279	3,732.42	89.4331	3,732.42	92.9873	3,732.42	90.7822	3,732.42	89.6105	3,732.42	89.5434	3,732.42	87.4972	3,732.42	92.4454	3,732.42	85.4718	3,732.42	90.3521	3,732.42	85.6929	3,732.42	87.1508	3,732.42	83.4983	3,732.42	78.9444	3,732.42	78.7297	3,732.42	82.071	3,732.42	79.9192	3,732.42	79.1804	3,732.42	75.5716	3,732.42	78.721	3,732.42	78.9234	3,732.42	66.4051	3,732.42	75.5625	3,732.42	72.4216	3,732.42	70.0982	3,732.42	68.6408	3,732.42	77.3217	3,732.42	70.2419	3,732.42	74.4821	3,732.42	69.8068	3,732.42	76.1885	3,732.42	75.5378	3,732.42	67.9013
3,864.26	89.9628	3,864.26	92.3615	3,864.26	90.3317	3,864.26	92.9362	3,864.26	91.6646	3,864.26	91.7275	3,864.26	91.6652	3,864.26	89.6511	3,864.26	90.4009	3,864.26	89.0121	3,864.26	91.4437	3,864.26	87.611	3,864.26	90.1161	3,864.26	87.7926	3,864.26	86.1482	3,864.26	78.7158	3,864.26	82.6163	3,864.26	76.9424	3,864.26	83.4802	3,864.26	78.2002	3,864.26	87.0841	3,864.26	80.6928	3,864.26	83.8636	3,864.26	79.1891	3,864.26	64.4031	3,864.26	78.7201	3,864.26	67.5108	3,864.26	72.7281	3,864.26	68.284	3,864.26	76.0894	3,864.26	73.7634	3,864.26	75.5291	3,864.26	70.4216	3,864.26	78.4784	3,864.26	75.0089	3,864.26	56.373
4,000.49	90.7044	4,000.49	93.0218	4,000.49	87.6894	4,000.49	92.8943	4,000.49	90.7433	4,000.49	90.3525	4,000.49	91.5839	4,000.49	90.7538	4,000.49	89.8117	4,000.49	87.9337	4,000.49	91.0483	4,000.49	88.5289	4,000.49	89.4266	4,000.49	83.8076	4,000.49	81.3672	4,000.49	84.7599	4,000.49	80.1387	4,000.49	80.7833	4,000.49	80.8009	4,000.49	81.8729	4,000.49	85.639	4,000.49	79.0876	4,000.49	80.1651	4,000.49	79.4171	4,000.49	64.8102	4,000.49	77.7956	4,000.49	62.4233	4,000.49	73.0698	4,000.49	69.9791	4,000.49	76.0854	4,000.49	76.614	4,000.49	73.8708	4,000.49	68.0436	4,000.49	75.3966	4,000.49	74.9365	4,000.49	65.2126
4,141.11	91.6065	4,141.11	92.7309	4,141.11	89.5201	4,141.11	91.9761	4,141.11	90.3091	4,141.11	91.5966	4,141.11	90.5426	4,141.11	90.2891	4,141.11	90.6334	4,141.11	89.4186	4,141.11	91.4277	4,141.11	89.0701	4,141.11	87.8894	4,141.11	86.7323	4,141.11	79.4096	4,141.11	87.9689	4,141.11	84.7854	4,141.11	80.8383	4,141.11	80.5694	4,141.11	79.8692	4,141.11	80.8199	4,141.11	75.8073	4,141.11	70.5677	4,141.11	79.3843	4,141.11	70.1477	4,141.11	74.4999	4,141.11	76.0708	4,141.11	75.5006	4,141.11	69.5379	4,141.11	72.433	4,141.11	75.254	4,141.11	72.0762	4,141.11	63.6885	4,141.11	75.4975	4,141.11	77.8108	4,141.11	69.0795
4,287.6	90.5407	4,287.6	92.3417	4,287.6	90.3541	4,287.6	90.7987	4,287.6	90.3426	4,287.6	89.3827	4,287.6	89.7349	4,287.6	89.2458	4,287.6	92.2552	4,287.6	90.3105	4,287.6	92.0879	4,287.6	86.3043	4,287.6	84.3716	4,287.6	86.5838	4,287.6	85.1382	4,287.6	80.3114	4,287.6	85.194	4,287.6	81.7313	4,287.6	69.457	4,287.6	76.4077	4,287.6	77.4158	4,287.6	75.4573	4,287.6	79.209	4,287.6	78.4142	4,287.6	68.6731	4,287.6	71.989	4,287.6	77.1538	4,287.6	75.8338	4,287.6	63.0674	4,287.6	75.2811	4,287.6	73.0819	4,287.6	62.7498	4,287.6	69.916	4,287.6	74.3719	4,287.6	75.8531	4,287.6	60.6704
4,438.48	91.506	4,438.48	90.625	4,438.48	90.4806	4,438.48	89.5927	4,438.48	89.4931	4,438.48	89.3233	4,438.48	89.8573	4,438.48	90.6049	4,438.48	92.5424	4,438.48	88.2656	4,438.48	90.2152	4,438.48	88.1754	4,438.48	82.5045	4,438.48	86.6493	4,438.48	88.5818	4,438.48	83.0108	4,438.48	80.5746	4,438.48	79.6282	4,438.48	79.7209	4,438.48	79.3129	4,438.48	81.2665	4,438.48	76.4617	4,438.48	80.6991	4,438.48	78.1675	4,438.48	73.1951	4,438.48	69.8111	4,438.48	75.5172	4,438.48	75.5494	4,438.48	74.6899	4,438.48	75.1902	4,438.48	75.2502	4,438.48	70.2093	4,438.48	70.7839	4,438.48	75.3728	4,438.48	75.7306	4,438.48	63.1834
4,595.21	91.4699	4,595.21	88.7848	4,595.21	90.9433	4,595.21	88.2142	4,595.21	89.071	4,595.21	91.485	4,595.21	90.1257	4,595.21	89.9555	4,595.21	92.6246	4,595.21	89.9726	4,595.21	86.1412	4,595.21	87.5687	4,595.21	88.3678	4,595.21	84.582	4,595.21	88.9631	4,595.21	82.2371	4,595.21	81.6008	4,595.21	79.325	4,595.21	82.8145	4,595.21	75.682	4,595.21	82.0793	4,595.21	74.6426	4,595.21	76.9911	4,595.21	75.5908	4,595.21	79.2898	4,595.21	72.81	4,595.21	69.931	4,595.21	70.0001	4,595.21	77.9044	4,595.21	73.2739	4,595.21	71.5604	4,595.21	71.8029	4,595.21	71.5402	4,595.21	74.5403	4,595.21	74.3214	4,595.21	62.8914
4,756.35	92.7613	4,756.35	90.2147	4,756.35	91.3046	4,756.35	90.6191	4,756.35	89.6822	4,756.35	91.2315	4,756.35	90.522	4,756.35	89.8601	4,756.35	92.5632	4,756.35	88.7148	4,756.35	85.8646	4,756.35	86.09	4,756.35	90.9963	4,756.35	84.1771	4,756.35	86.2153	4,756.35	83.6503	4,756.35	84.1147	4,756.35	76.8054	4,756.35	75.99	4,756.35	78.7634	4,756.35	77.1143	4,756.35	78.0665	4,756.35	78.4706	4,756.35	72.598	4,756.35	81.5305	4,756.35	74.9043	4,756.35	73.88	4,756.35	68.1359	4,756.35	76.9816	4,756.35	71.7784	4,756.35	65.2369	4,756.35	72.0813	4,756.35	67.9175	4,756.35	73.5149	4,756.35	75.2766	4,756.35	67.8759
4,924.8	92.1145	4,924.8	92.9012	4,924.8	92.7367	4,924.8	90.5455	4,924.8	90.2321	4,924.8	89.416	4,924.8	89.4277	4,924.8	90.3052	4,924.8	92.5664	4,924.8	87.9654	4,924.8	85.7821	4,924.8	86.4213	4,924.8	91.3094	4,924.8	84.961	4,924.8	83.0904	4,924.8	80.4045	4,924.8	86.0357	4,924.8	80.2531	4,924.8	73.5454	4,924.8	77.7266	4,924.8	55.0589	4,924.8	73.713	4,924.8	76.5716	4,924.8	73.874	4,924.8	76.5731	4,924.8	76.1363	4,924.8	73.319	4,924.8	69.3769	4,924.8	76.1748	4,924.8	73.2072	4,924.8	74.689	4,924.8	71.2017	4,924.8	64.3701	4,924.8	72.9248	4,924.8	74.726	4,924.8	64.1163
5,097.66	90.6411	5,097.66	91.1289	5,097.66	92.6478	5,097.66	90.0385	5,097.66	89.6715	5,097.66	89.8954	5,097.66	89.6499	5,097.66	89.9057	5,097.66	91.3294	5,097.66	89.2912	5,097.66	89.19	5,097.66	87.2965	5,097.66	91.0694	5,097.66	83.7895	5,097.66	84.65	5,097.66	81.5731	5,097.66	82.3547	5,097.66	79.9255	5,097.66	76.3084	5,097.66	73.3706	5,097.66	71.2273	5,097.66	73.336	5,097.66	70.3115	5,097.66	76.526	5,097.66	66.7562	5,097.66	72.8973	5,097.66	68.5031	5,097.66	67.5751	5,097.66	71.1787	5,097.66	70.9251	5,097.66	76.9747	5,097.66	65.5488	5,097.66	62.7601	5,097.66	70.5421	5,097.66	70.6223	5,097.66	58.3296
5,277.83	91.9506	5,277.83	88.4315	5,277.83	91.9354	5,277.83	89.3269	5,277.83	89.8866	5,277.83	92.2797	5,277.83	90.9058	5,277.83	89.8547	5,277.83	87.6786	5,277.83	86.5386	5,277.83	92.1482	5,277.83	84.6644	5,277.83	89.4406	5,277.83	84.3914	5,277.83	86.7227	5,277.83	81.1227	5,277.83	80.2019	5,277.83	74.2389	5,277.83	81.6551	5,277.83	74.9293	5,277.83	69.8833	5,277.83	76.2828	5,277.83	74.0449	5,277.83	72.7482	5,277.83	68.1282	5,277.83	69.5527	5,277.83	69.0641	5,277.83	72.243	5,277.83	72.4651	5,277.83	69.4149	5,277.83	75.5	5,277.83	73.2262	5,277.83	55.5718	5,277.83	63.7391	5,277.83	73.8594	5,277.83	62.5004
5,463.87	92.0213	5,463.87	90.0143	5,463.87	92.9186	5,463.87	90.0113	5,463.87	90.8738	5,463.87	91.0265	5,463.87	90.4428	5,463.87	88.4886	5,463.87	86.5199	5,463.87	86.8354	5,463.87	92.1737	5,463.87	86.6478	5,463.87	84.6441	5,463.87	83.9752	5,463.87	86.3998	5,463.87	79.3202	5,463.87	78.3492	5,463.87	80.7229	5,463.87	81.8478	5,463.87	75.4289	5,463.87	75.4679	5,463.87	74.9706	5,463.87	78.1221	5,463.87	74.4472	5,463.87	72.0536	5,463.87	63.9065	5,463.87	69.7993	5,463.87	71.6161	5,463.87	73.6511	5,463.87	67.7039	5,463.87	75.5752	5,463.87	74.1392	5,463.87	55.7933	5,463.87	66.6404	5,463.87	74.0881	5,463.87	65.1919
5,657.23	92.3755	5,657.23	92.0923	5,657.23	94.2011	5,657.23	90.7949	5,657.23	92.0597	5,657.23	88.051	5,657.23	89.7063	5,657.23	89.1844	5,657.23	86.2371	5,657.23	86.481	5,657.23	90.9736	5,657.23	86.2634	5,657.23	80.1174	5,657.23	79.6072	5,657.23	83.5888	5,657.23	82.2629	5,657.23	82.7805	5,657.23	72.6484	5,657.23	77.9388	5,657.23	72.4328	5,657.23	78.4429	5,657.23	71.7354	5,657.23	72.052	5,657.23	73.2064	5,657.23	67.6942	5,657.23	69.5655	5,657.23	72.8095	5,657.23	72.7755	5,657.23	72.3191	5,657.23	69.6582	5,657.23	72.6875	5,657.23	67.2101	5,657.23	62.1226	5,657.23	70.5889	5,657.23	72.0135	5,657.23	65.3924
5,856.45	92.0794	5,856.45	92.2984	5,856.45	94.2712	5,856.45	90.7137	5,856.45	92.3451	5,856.45	89.8316	5,856.45	89.3643	5,856.45	88.3042	5,856.45	88.7172	5,856.45	87.5919	5,856.45	87.9875	5,856.45	83.7686	5,856.45	84.8754	5,856.45	84.3909	5,856.45	80.171	5,856.45	76.2678	5,856.45	83.9403	5,856.45	74.0416	5,856.45	72.8025	5,856.45	75.3671	5,856.45	76.9104	5,856.45	72.1949	5,856.45	69.085	5,856.45	71.7318	5,856.45	52.6307	5,856.45	74.0171	5,856.45	72.7143	5,856.45	70.4256	5,856.45	65.8653	5,856.45	54.6411	5,856.45	50.3434	5,856.45	63.793	5,856.45	56.4126	5,856.45	70.6527	5,856.45	72.1697	5,856.45	66.258
6,062.99	92.4564	6,062.99	90.8032	6,062.99	93.5282	6,062.99	90.1037	6,062.99	92.0398	6,062.99	90.6717	6,062.99	87.5636	6,062.99	88.725	6,062.99	89.6657	6,062.99	86.9388	6,062.99	86.3397	6,062.99	84.8206	6,062.99	88.2669	6,062.99	79.6424	6,062.99	84.0737	6,062.99	79.4164	6,062.99	84.7319	6,062.99	75.1505	6,062.99	77.599	6,062.99	73.8329	6,062.99	78.63	6,062.99	68.5375	6,062.99	73.5063	6,062.99	65.8442	6,062.99	59.1164	6,062.99	73.2007	6,062.99	71.6393	6,062.99	66.7072	6,062.99	65.8839	6,062.99	67.4237	6,062.99	71.9904	6,062.99	66.8153	6,062.99	56.8661	6,062.99	68.3066	6,062.99	71.6993	6,062.99	66.2333
6,276.86	90.8818	6,276.86	91.3715	6,276.86	91.5043	6,276.86	90.5783	6,276.86	91.8067	6,276.86	89.6271	6,276.86	86.4957	6,276.86	88.384	6,276.86	89.6286	6,276.86	87.5476	6,276.86	87.7227	6,276.86	83.9682	6,276.86	88.2473	6,276.86	82.5436	6,276.86	87.1478	6,276.86	79.2236	6,276.86	82.0441	6,276.86	75.1469	6,276.86	80.3661	6,276.86	72.6158	6,276.86	73.7185	6,276.86	72.753	6,276.86	66.8382	6,276.86	70.2572	6,276.86	66.8178	6,276.86	71.9362	6,276.86	67.8078	6,276.86	68.3799	6,276.86	64.5842	6,276.86	68.0117	6,276.86	73.5228	6,276.86	66.3541	6,276.86	53.8775	6,276.86	71.8261	6,276.86	69.4602	6,276.86	62.6551
6,498.05	91.918	6,498.05	91.7592	6,498.05	90.6825	6,498.05	90.9781	6,498.05	92.2249	6,498.05	90.6611	6,498.05	87.8006	6,498.05	90.0044	6,498.05	88.4888	6,498.05	85.1508	6,498.05	88.5154	6,498.05	84.9528	6,498.05	86.8999	6,498.05	81.7259	6,498.05	87.5593	6,498.05	75.0704	6,498.05	78.0801	6,498.05	74.0167	6,498.05	80.2979	6,498.05	65.0832	6,498.05	61.2448	6,498.05	72.3248	6,498.05	59.3848	6,498.05	71.0898	6,498.05	69.9495	6,498.05	60.8718	6,498.05	61.3213	6,498.05	56.0326	6,498.05	64.7626	6,498.05	68.0243	6,498.05	72.0803	6,498.05	66.9609	6,498.05	62.4785	6,498.05	69.1005	6,498.05	70.9274	6,498.05	61.0764
6,726.56	93.1177	6,726.56	91.9397	6,726.56	92.9873	6,726.56	90.7242	6,726.56	91.1382	6,726.56	90.1675	6,726.56	88.3878	6,726.56	88.984	6,726.56	88.4937	6,726.56	86.328	6,726.56	88.2154	6,726.56	83.1867	6,726.56	86.2501	6,726.56	79.7847	6,726.56	81.8122	6,726.56	78.2197	6,726.56	75.9106	6,726.56	75.5481	6,726.56	69.5818	6,726.56	70.8134	6,726.56	74.465	6,726.56	73.0227	6,726.56	73.6425	6,726.56	70.2065	6,726.56	71.0557	6,726.56	61.9017	6,726.56	68.6612	6,726.56	65.6903	6,726.56	53.3114	6,726.56	72.1781	6,726.56	67.5227	6,726.56	67.7351	6,726.56	62.6637	6,726.56	69.3267	6,726.56	70.9739	6,726.56	66.3916
6,963.87	93.0241	6,963.87	91.6983	6,963.87	93.8789	6,963.87	90.6308	6,963.87	91.0137	6,963.87	89.6522	6,963.87	89.8883	6,963.87	87.0557	6,963.87	88.2969	6,963.87	86.3316	6,963.87	86.5652	6,963.87	83.2352	6,963.87	86.2746	6,963.87	80.637	6,963.87	73.2798	6,963.87	74.4366	6,963.87	78.9234	6,963.87	70.9632	6,963.87	73.6793	6,963.87	71.0428	6,963.87	75.0035	6,963.87	69.9907	6,963.87	74.0084	6,963.87	66.6384	6,963.87	63.0354	6,963.87	69.0775	6,963.87	68.3377	6,963.87	68.2565	6,963.87	46.1081	6,963.87	70.5112	6,963.87	63.4385	6,963.87	66.4847	6,963.87	57.4356	6,963.87	65.3167	6,963.87	70.1021	6,963.87	62.1081
7,209.96	92.5793	7,209.96	91.8019	7,209.96	93.2654	7,209.96	91.0254	7,209.96	91.1716	7,209.96	89.5332	7,209.96	90.5217	7,209.96	88.2695	7,209.96	87.7614	7,209.96	85.3171	7,209.96	87.5121	7,209.96	82.8405	7,209.96	83.4099	7,209.96	79.774	7,209.96	81.7767	7,209.96	78.7793	7,209.96	79.1213	7,209.96	71.5965	7,209.96	79.0637	7,209.96	70.5691	7,209.96	71.1616	7,209.96	68.5786	7,209.96	67.7878	7,209.96	66.9862	7,209.96	66.2059	7,209.96	69.9848	7,209.96	62.7331	7,209.96	68.5894	7,209.96	60.601	7,209.96	63.9082	7,209.96	63.8684	7,209.96	66.8766	7,209.96	56.6044	7,209.96	51.3469	7,209.96	68.8389	7,209.96	63.8557
7,464.84	91.7824	7,464.84	91.4291	7,464.84	92.021	7,464.84	90.4088	7,464.84	90.6726	7,464.84	89.0659	7,464.84	90.9129	7,464.84	87.5699	7,464.84	86.0304	7,464.84	85.844	7,464.84	88.1849	7,464.84	82.0732	7,464.84	79.7505	7,464.84	80.9177	7,464.84	84.3096	7,464.84	72.8005	7,464.84	80.3033	7,464.84	74.0182	7,464.84	75.6916	7,464.84	68.2805	7,464.84	73.0714	7,464.84	71.5153	7,464.84	67.1605	7,464.84	69.1893	7,464.84	67.4146	7,464.84	65.2767	7,464.84	69.2665	7,464.84	66.3239	7,464.84	59.8575	7,464.84	63.0606	7,464.84	65.22	7,464.84	65.0115	7,464.84	63.1934	7,464.84	66.9601	7,464.84	69.196	7,464.84	67.1076
7,727.05	92.0514	7,727.05	91.8761	7,727.05	90.2624	7,727.05	89.9332	7,727.05	89.6585	7,727.05	88.5226	7,727.05	90.9056	7,727.05	87.4356	7,727.05	84.2883	7,727.05	83.8292	7,727.05	87.5331	7,727.05	82.9479	7,727.05	83.0092	7,727.05	78.2325	7,727.05	83.842	7,727.05	79.3077	7,727.05	78.6276	7,727.05	69.0703	7,727.05	70.4563	7,727.05	69.9464	7,727.05	71.1182	7,727.05	71.0909	7,727.05	74.1672	7,727.05	66.2175	7,727.05	69.1449	7,727.05	58.0726	7,727.05	69.8964	7,727.05	66.6806	7,727.05	55.0174	7,727.05	65.2498	7,727.05	63.8032	7,727.05	67.8412	7,727.05	62.3859	7,727.05	67.8246	7,727.05	66.0624	7,727.05	59.8663
7,999.51	91.7797	7,999.51	92.1359	7,999.51	91.3018	7,999.51	89.5717	7,999.51	89.5899	7,999.51	88.6178	7,999.51	89.2775	7,999.51	86.6629	7,999.51	85.9002	7,999.51	84.3996	7,999.51	84.9011	7,999.51	82.6324	7,999.51	84.8109	7,999.51	78.2395	7,999.51	78.2258	7,999.51	72.2547	7,999.51	76.0481	7,999.51	72.9909	7,999.51	73.8559	7,999.51	70.9904	7,999.51	68.7067	7,999.51	68.7986	7,999.51	72.3611	7,999.51	65.3355	7,999.51	69.7186	7,999.51	58.3131	7,999.51	64.8129	7,999.51	64.6608	7,999.51	61.3221	7,999.51	67.384	7,999.51	66.3101	7,999.51	69.546	7,999.51	55.133	7,999.51	61.2277	7,999.51	63.9492	7,999.51	57.4345
8,282.23	91.7871	8,282.23	91.0292	8,282.23	92.3677	8,282.23	88.7823	8,282.23	91.2671	8,282.23	88.3096	8,282.23	88.2964	8,282.23	84.9128	8,282.23	87.2815	8,282.23	83.2254	8,282.23	82.4689	8,282.23	81.1893	8,282.23	84.2354	8,282.23	77.8122	8,282.23	75.1596	8,282.23	75.8727	8,282.23	77.1836	8,282.23	68.6035	8,282.23	73.9398	8,282.23	68.4187	8,282.23	65.3711	8,282.23	60.5378	8,282.23	68.97	8,282.23	65.1989	8,282.23	66.1266	8,282.23	66.8636	8,282.23	63.7601	8,282.23	65.1118	8,282.23	58.4655	8,282.23	65.2018	8,282.23	65.7241	8,282.23	65.0049	8,282.23	63.5503	8,282.23	53.3923	8,282.23	65.615	8,282.23	57.3433
8,573.73	91.6693	8,573.73	91.4049	8,573.73	93.1338	8,573.73	88.834	8,573.73	91.6039	8,573.73	88.3063	8,573.73	87.9691	8,573.73	85.1951	8,573.73	87.0264	8,573.73	82.7766	8,573.73	83.234	8,573.73	80.1951	8,573.73	81.1586	8,573.73	74.5088	8,573.73	80.1894	8,573.73	71.2943	8,573.73	75.5946	8,573.73	73.6221	8,573.73	72.9168	8,573.73	63.8556	8,573.73	69.8269	8,573.73	68.0123	8,573.73	68.2572	8,573.73	67.5226	8,573.73	70.065	8,573.73	68.1051	8,573.73	63.5347	8,573.73	63.9467	8,573.73	61.7344	8,573.73	60.2551	8,573.73	56.2204	8,573.73	64.4457	8,573.73	61.2176	8,573.73	59.4646	8,573.73	67.7856	8,573.73	61.7965
8,876.95	92.183	8,876.95	91.261	8,876.95	92.0396	8,876.95	89.8773	8,876.95	91.9096	8,876.95	86.531	8,876.95	87.7992	8,876.95	85.498	8,876.95	86.7002	8,876.95	80.6987	8,876.95	83.3077	8,876.95	79.9994	8,876.95	78.7135	8,876.95	76.5894	8,876.95	80.8677	8,876.95	67.9248	8,876.95	73.8952	8,876.95	69.2857	8,876.95	69.291	8,876.95	57.1803	8,876.95	72.7261	8,876.95	68.5032	8,876.95	71.5739	8,876.95	64.817	8,876.95	70.1602	8,876.95	65.8196	8,876.95	60.6176	8,876.95	50.4571	8,876.95	56.2222	8,876.95	64.8481	8,876.95	59.6326	8,876.95	60.6957	8,876.95	58.0556	8,876.95	56.2849	8,876.95	67.1604	8,876.95	58.4556
9,188.96	91.8444	9,188.96	90.9134	9,188.96	90.5507	9,188.96	88.9968	9,188.96	90.838	9,188.96	86.2693	9,188.96	87.6588	9,188.96	85.0982	9,188.96	85.4328	9,188.96	80.1165	9,188.96	83.4719	9,188.96	78.6393	9,188.96	79.0833	9,188.96	74.0362	9,188.96	78.3883	9,188.96	73.6038	9,188.96	75.9117	9,188.96	66.0358	9,188.96	69.2888	9,188.96	66.1484	9,188.96	74.4566	9,188.96	67.8032	9,188.96	74.0919	9,188.96	62.8895	9,188.96	72.3799	9,188.96	58.6701	9,188.96	62.6276	9,188.96	59.9005	9,188.96	62.6574	9,188.96	62.7202	9,188.96	56.0487	9,188.96	63.5902	9,188.96	53.9104	9,188.96	59.525	9,188.96	67.2104	9,188.96	54.583
9,514.16	91.9085	9,514.16	91.5525	9,514.16	91.4968	9,514.16	89.9723	9,514.16	89.7119	9,514.16	85.6367	9,514.16	88.079	9,514.16	84.4231	9,514.16	83.071	9,514.16	80.3267	9,514.16	81.6914	9,514.16	77.3326	9,514.16	79.1919	9,514.16	74.0702	9,514.16	76.2291	9,514.16	70.8625	9,514.16	73.9422	9,514.16	65.8953	9,514.16	71.0986	9,514.16	64.9105	9,514.16	73.5934	9,514.16	60.8046	9,514.16	74.556	9,514.16	62.505	9,514.16	71.433	9,514.16	61.2348	9,514.16	62.0371	9,514.16	61.7008	9,514.16	62.325	9,514.16	62.7572	9,514.16	57.4906	9,514.16	60.3482	9,514.16	54.0404	9,514.16	59.5496	9,514.16	63.4876	9,514.16	53.2006
9,849.61	92.6464	9,849.61	90.8813	9,849.61	92.8009	9,849.61	89.1154	9,849.61	89.7266	9,849.61	86.1431	9,849.61	88.3162	9,849.61	83.1909	9,849.61	82.4977	9,849.61	79.6255	9,849.61	82.1668	9,849.61	75.7119	9,849.61	78.5776	9,849.61	73.5805	9,849.61	75.0648	9,849.61	69.9939	9,849.61	72.8533	9,849.61	57.1076	9,849.61	74.966	9,849.61	62.5637	9,849.61	74.993	9,849.61	57.3781	9,849.61	75.111	9,849.61	58.6902	9,849.61	72.5021	9,849.61	61.082	9,849.61	65.5922	9,849.61	58.9449	9,849.61	55.6664	9,849.61	57.2941	9,849.61	56.0941	9,849.61	59.8351	9,849.61	53.2257	9,849.61	42.5697	9,849.61	62.8128	9,849.61	57.9772
10,196.8	92.1359	10,196.8	91.5427	10,196.8	92.4117	10,196.8	89.2875	10,196.8	90.0496	10,196.8	85.6017	10,196.8	88.0761	10,196.8	81.7403	10,196.8	83.2558	10,196.8	79.398	10,196.8	82.1401	10,196.8	74.2599	10,196.8	74.9348	10,196.8	71.7463	10,196.8	74.5747	10,196.8	68.4534	10,196.8	73.5931	10,196.8	66.8116	10,196.8	74.9339	10,196.8	59.5322	10,196.8	76.6124	10,196.8	50.1235	10,196.8	76.133	10,196.8	58.2994	10,196.8	72.8217	10,196.8	63.3133	10,196.8	67.1768	10,196.8	63.1655	10,196.8	57.9318	10,196.8	61.536	10,196.8	47.042	10,196.8	58.7264	10,196.8	59.1523	10,196.8	47.5176	10,196.8	59.8227	10,196.8	49.0377
10,555.7	91.7277	10,555.7	91.4335	10,555.7	91.8815	10,555.7	88.6693	10,555.7	90.3139	10,555.7	85.961	10,555.7	87.0054	10,555.7	81.3966	10,555.7	84.3737	10,555.7	77.8899	10,555.7	80.1461	10,555.7	73.7969	10,555.7	72.5726	10,555.7	70.7866	10,555.7	75.653	10,555.7	68.2886	10,555.7	74.5178	10,555.7	66.0522	10,555.7	76.4811	10,555.7	56.2765	10,555.7	77.4428	10,555.7	60.1967	10,555.7	77.7299	10,555.7	61.4275	10,555.7	74.4035	10,555.7	63.4469	10,555.7	67.6888	10,555.7	60.9779	10,555.7	54.211	10,555.7	58.0729	10,555.7	42.3	10,555.7	52.9103	10,555.7	59.7299	10,555.7	49.3717	10,555.7	56.5718	10,555.7	54.822
10,927.7	92.291	10,927.7	91.4767	10,927.7	91.9516	10,927.7	88.7753	10,927.7	90.0167	10,927.7	85.2085	10,927.7	85.8168	10,927.7	79.8381	10,927.7	82.3876	10,927.7	77.9374	10,927.7	79.2077	10,927.7	74.4989	10,927.7	74.4696	10,927.7	71.6458	10,927.7	75.4639	10,927.7	69.3222	10,927.7	73.4119	10,927.7	62.5953	10,927.7	76.4321	10,927.7	62.8732	10,927.7	78.1656	10,927.7	63.9732	10,927.7	77.7293	10,927.7	62.356	10,927.7	75.0159	10,927.7	62.3649	10,927.7	66.6219	10,927.7	61.4214	10,927.7	50.9239	10,927.7	58.0883	10,927.7	47.4786	10,927.7	47.584	10,927.7	59.7963	10,927.7	53.2707	10,927.7	56.1383	10,927.7	58.0053
11,313	92.2829	11,313	91.2204	11,313	92.3512	11,313	88.3303	11,313	89.3097	11,313	84.6453	11,313	86.5579	11,313	80.1479	11,313	81.3449	11,313	76.6935	11,313	78.4572	11,313	75.198	11,313	75.6843	11,313	73.94	11,313	67.8995	11,313	71.3209	11,313	75.9784	11,313	63.8663	11,313	77.5151	11,313	60.0016	11,313	78.6111	11,313	65.5866	11,313	78.9535	11,313	63.3946	11,313	75.5158	11,313	56.1669	11,313	66.0667	11,313	61.523	11,313	48.8639	11,313	49.4158	11,313	50.1513	11,313	60.045	11,313	55.3496	11,313	54.2064	11,313	59.4652	11,313	58.9989
11,712.9	92.1012	11,712.9	90.6114	11,712.9	92.2761	11,712.9	88.211	11,712.9	88.8926	11,712.9	83.2695	11,712.9	86.7742	11,712.9	80.3134	11,712.9	81.1936	11,712.9	76.7618	11,712.9	75.2584	11,712.9	76.3775	11,712.9	75.3551	11,712.9	75.7228	11,712.9	75.0009	11,712.9	69.3237	11,712.9	77.0048	11,712.9	66.4976	11,712.9	78.3799	11,712.9	59.4499	11,712.9	79.6444	11,712.9	62.6331	11,712.9	79.0887	11,712.9	62.5072	11,712.9	75.7977	11,712.9	55.4923	11,712.9	64.1367	11,712.9	58.8188	11,712.9	57.6086	11,712.9	51.6135	11,712.9	39.8599	11,712.9	55.4396	11,712.9	62.2283	11,712.9	59.9917	11,712.9	57.0576	11,712.9	52.956
12,126	91.7488	12,126	90.4218	12,126	91.927	12,126	87.489	12,126	88.6273	12,126	82.6803	12,126	85.2798	12,126	78.6056	12,126	79.4842	12,126	77.3418	12,126	76.0179	12,126	77.7916	12,126	75.8398	12,126	75.7076	12,126	77.7471	12,126	69.5164	12,126	74.1314	12,126	67.1543	12,126	79.0976	12,126	57.288	12,126	80.7801	12,126	64.4592	12,126	79.6497	12,126	60.9765	12,126	77.3406	12,126	62.0261	12,126	62.9612	12,126	56.9174	12,126	62.2728	12,126	52.392	12,126	55.9737	12,126	58.7877	12,126	59.5132	12,126	55.8433	12,126	58.8909	12,126	56.3697
12,553.7	91.4065	12,553.7	90.2349	12,553.7	91.3234	12,553.7	86.9642	12,553.7	88.0636	12,553.7	81.9506	12,553.7	84.6574	12,553.7	78.0035	12,553.7	78.8195	12,553.7	78.345	12,553.7	76.3328	12,553.7	77.2408	12,553.7	75.6062	12,553.7	75.9565	12,553.7	73.3676	12,553.7	69.8518	12,553.7	77.7793	12,553.7	65.6876	12,553.7	78.8212	12,553.7	60.1049	12,553.7	80.715	12,553.7	64.6694	12,553.7	79.8353	12,553.7	61.0804	12,553.7	76.8107	12,553.7	63.6035	12,553.7	62.0705	12,553.7	58.7884	12,553.7	61.4828	12,553.7	56.9605	12,553.7	58.1839	12,553.7	58.3694	12,553.7	58.3437	12,553.7	55.1622	12,553.7	51.2112	12,553.7	52.6305
12,996.1	91.3431	12,996.1	89.5458	12,996.1	91.2174	12,996.1	86.3082	12,996.1	87.6049	12,996.1	81.9615	12,996.1	83.6102	12,996.1	78.526	12,996.1	78.9465	12,996.1	78.6495	12,996.1	74.9036	12,996.1	77.0392	12,996.1	76.1206	12,996.1	76.4855	12,996.1	76.1539	12,996.1	69.7347	12,996.1	77.1318	12,996.1	67.3509	12,996.1	79.0346	12,996.1	60.9108	12,996.1	80.7442	12,996.1	63.1985	12,996.1	79.429	12,996.1	61.8131	12,996.1	76.9494	12,996.1	61.7861	12,996.1	60.8083	12,996.1	53.5945	12,996.1	43.684	12,996.1	51.6711	12,996.1	50.5625	12,996.1	54.8467	12,996.1	55.8786	12,996.1	61.1098	12,996.1	42.4078	12,996.1	52.5636
13,454.6	91.1513	13,454.6	89.6624	13,454.6	91.1741	13,454.6	85.5717	13,454.6	87.6558	13,454.6	82.0125	13,454.6	83.0375	13,454.6	79.4466	13,454.6	79.9119	13,454.6	78.1218	13,454.6	76.6418	13,454.6	77.3673	13,454.6	74.8009	13,454.6	77.5886	13,454.6	77.0192	13,454.6	68.3485	13,454.6	75.4799	13,454.6	67.4527	13,454.6	78.8535	13,454.6	53.2886	13,454.6	81.4848	13,454.6	64.9445	13,454.6	79.641	13,454.6	61.7358	13,454.6	77.5053	13,454.6	63.7195	13,454.6	63.0782	13,454.6	54.0282	13,454.6	61.645	13,454.6	53.2262	13,454.6	52.9712	13,454.6	50.1754	13,454.6	52.7246	13,454.6	55.2555	13,454.6	51.1362	13,454.6	54.0609
13,929.2	90.7797	13,929.2	88.7882	13,929.2	90.4721	13,929.2	85.1746	13,929.2	87.2543	13,929.2	80.721	13,929.2	82.5489	13,929.2	79.9977	13,929.2	77.8267	13,929.2	78.683	13,929.2	78.2976	13,929.2	77.3502	13,929.2	73.7898	13,929.2	76.8143	13,929.2	75.8754	13,929.2	68.7383	13,929.2	74.9027	13,929.2	65.0048	13,929.2	78.7059	13,929.2	56.9787	13,929.2	81.38	13,929.2	63.6694	13,929.2	79.6293	13,929.2	57.8394	13,929.2	76.7869	13,929.2	59.1034	13,929.2	65.4047	13,929.2	55.8394	13,929.2	57.6745	13,929.2	53.7785	13,929.2	56.0231	13,929.2	51.9629	13,929.2	37.5927	13,929.2	49.1395	13,929.2	57.4068	13,929.2	54.8351
14,419.9	90.765	14,419.9	88.2064	14,419.9	90.2763	14,419.9	83.8974	14,419.9	87.0644	14,419.9	81.131	14,419.9	81.191	14,419.9	79.7571	14,419.9	80.4556	14,419.9	79.0819	14,419.9	77.6648	14,419.9	77.5284	14,419.9	75.6595	14,419.9	73.9799	14,419.9	71.8956	14,419.9	69.2589	14,419.9	73.8744	14,419.9	61.7036	14,419.9	78.9128	14,419.9	57.5115	14,419.9	81.6688	14,419.9	61.6147	14,419.9	80.1103	14,419.9	59.9967	14,419.9	77.1683	14,419.9	56.0599	14,419.9	65.6685	14,419.9	50.8299	14,419.9	55.467	14,419.9	44.7665	14,419.9	48.5125	14,419.9	52.0395	14,419.9	54.5541	14,419.9	51.9599	14,419.9	53.5279	14,419.9	50.7377
14,928.2	89.4834	14,928.2	87.397	14,928.2	89.5467	14,928.2	83.2013	14,928.2	85.0257	14,928.2	81.5048	14,928.2	81.7353	14,928.2	80.4324	14,928.2	79.3208	14,928.2	79.2831	14,928.2	77.8542	14,928.2	76.9046	14,928.2	73.4411	14,928.2	73.5615	14,928.2	75.0998	14,928.2	68.6393	14,928.2	72.9454	14,928.2	59.7722	14,928.2	79.4457	14,928.2	58.4308	14,928.2	81.5699	14,928.2	59.0612	14,928.2	79.8929	14,928.2	58.5762	14,928.2	76.6018	14,928.2	50.6261	14,928.2	66.8564	14,928.2	51.6796	14,928.2	45.7108	14,928.2	51.996	14,928.2	50.2537	14,928.2	56.7288	14,928.2	52.6874	14,928.2	52.7637	14,928.2	59.6719	14,928.2	55.3065
15,455.6	89.3799	15,455.6	86.5512	15,455.6	88.9785	15,455.6	82.5194	15,455.6	82.8113	15,455.6	82.1057	15,455.6	78.8184	15,455.6	80.831	15,455.6	79.9462	15,455.6	79.3916	15,455.6	78.9848	15,455.6	75.643	15,455.6	74.8434	15,455.6	72.7844	15,455.6	72.682	15,455.6	68.7672	15,455.6	72.831	15,455.6	56.8347	15,455.6	79.0867	15,455.6	55.5754	15,455.6	81.3577	15,455.6	57.5773	15,455.6	79.5954	15,455.6	55.5768	15,455.6	76.3439	15,455.6	57.637	15,455.6	66.9745	15,455.6	51.9931	15,455.6	48.1395	15,455.6	53.8296	15,455.6	49.8527	15,455.6	52.8289	15,455.6	53.8786	15,455.6	57.5463	15,455.6	46.4648	15,455.6	50.9617
16,000.5	87.5264	16,000.5	85.6396	16,000.5	87.9159	16,000.5	81.6936	16,000.5	83.2019	16,000.5	82.4651	16,000.5	79.3985	16,000.5	81.6814	16,000.5	79.5235	16,000.5	78.8738	16,000.5	78.8177	16,000.5	75.463	16,000.5	74.6666	16,000.5	71.8077	16,000.5	70.8383	16,000.5	65.6382	16,000.5	72.5746	16,000.5	57.766	16,000.5	78.4442	16,000.5	57.2748	16,000.5	80.4768	16,000.5	58.9586	16,000.5	78.5665	16,000.5	58.6362	16,000.5	74.7349	16,000.5	60.1417	16,000.5	62.0896	16,000.5	50.485	16,000.5	48.8345	16,000.5	39.4142	16,000.5	50.4217	16,000.5	41.791	16,000.5	57.7945	16,000.5	49.7521	16,000.5	54.5433	16,000.5	52.837
16,564.5	86.5171	16,564.5	84.392	16,564.5	86.5421	16,564.5	82.5488	16,564.5	81.8036	16,564.5	83.0299	16,564.5	80.5829	16,564.5	81.2624	16,564.5	80.1465	16,564.5	79.1572	16,564.5	77.7607	16,564.5	74.095	16,564.5	74.6593	16,564.5	70.1207	16,564.5	70.1659	16,564.5	66.5023	16,564.5	69.2396	16,564.5	60.3004	16,564.5	78.032	16,564.5	57.3328	16,564.5	79.5254	16,564.5	50.5854	16,564.5	77.8781	16,564.5	55.2595	16,564.5	74.1679	16,564.5	42.2841	16,564.5	61.4494	16,564.5	55.6189	16,564.5	56.4812	16,564.5	49.3617	16,564.5	49.3461	16,564.5	47.9326	16,564.5	53.5807	16,564.5	51.7447	16,564.5	41.8304	16,564.5	43.8026
17,148.9	84.6634	17,148.9	83.6956	17,148.9	84.7206	17,148.9	82.8162	17,148.9	79.0698	17,148.9	83.4397	17,148.9	78.5182	17,148.9	80.986	17,148.9	80.5893	17,148.9	78.2271	17,148.9	77.8058	17,148.9	72.3975	17,148.9	73.032	17,148.9	68.8928	17,148.9	67.771	17,148.9	65.6307	17,148.9	69.5655	17,148.9	57.5997	17,148.9	77.2016	17,148.9	52.8502	17,148.9	78.8051	17,148.9	50.4162	17,148.9	76.8739	17,148.9	53.077	17,148.9	72.977	17,148.9	57.2033	17,148.9	59.9183	17,148.9	52.3905	17,148.9	55.3249	17,148.9	50.1955	17,148.9	38.4653	17,148.9	46.0558	17,148.9	49.542	17,148.9	49.703	17,148.9	45.6832	17,148.9	47.6705
17,752.4	82.892	17,752.4	82.1209	17,752.4	81.7648	17,752.4	82.9641	17,752.4	80.6518	17,752.4	83.672	17,752.4	80.03	17,752.4	80.7842	17,752.4	80.6467	17,752.4	77.1315	17,752.4	77.6562	17,752.4	70.8737	17,752.4	72.2291	17,752.4	68.3469	17,752.4	67.5116	17,752.4	64.0756	17,752.4	68.6182	17,752.4	59.2335	17,752.4	76.4903	17,752.4	55.3196	17,752.4	77.6175	17,752.4	55.0182	17,752.4	75.6011	17,752.4	54.1959	17,752.4	70.9519	17,752.4	56.2456	17,752.4	52.5828	17,752.4	48.0717	17,752.4	51.2038	17,752.4	48.9374	17,752.4	38.3323	17,752.4	52.7607	17,752.4	42.3781	17,752.4	40.8909	17,752.4	43.1298	17,752.4	46.5902
18,379.4	81.5871	18,379.4	81.8952	18,379.4	81.9972	18,379.4	83.9265	18,379.4	77.9772	18,379.4	83.6992	18,379.4	81.7439	18,379.4	80.865	18,379.4	81.1473	18,379.4	76.8326	18,379.4	76.4821	18,379.4	70.0081	18,379.4	70.952	18,379.4	68.7248	18,379.4	68.4556	18,379.4	60.8356	18,379.4	66.3688	18,379.4	58.1467	18,379.4	75.4988	18,379.4	50.9225	18,379.4	77.0715	18,379.4	49.7651	18,379.4	74.7197	18,379.4	46.2754	18,379.4	70.0917	18,379.4	52.657	18,379.4	56.1835	18,379.4	47.8944	18,379.4	45.9226	18,379.4	49.8597	18,379.4	40.188	18,379.4	51.6314	18,379.4	39.6011	18,379.4	39.1949	18,379.4	45.2064	18,379.4	46.4432
19,026.9	81.1181	19,026.9	83.1068	19,026.9	80.0981	19,026.9	84.9289	19,026.9	82.1848	19,026.9	84.0518	19,026.9	81.5387	19,026.9	80.4982	19,026.9	81.4952	19,026.9	76.9549	19,026.9	75.7912	19,026.9	69.6176	19,026.9	70.9912	19,026.9	65.9068	19,026.9	65.1435	19,026.9	61.2732	19,026.9	65.6444	19,026.9	56.3088	19,026.9	74.7229	19,026.9	46.6355	19,026.9	76.3141	19,026.9	34.3755	19,026.9	73.8811	19,026.9	40.2491	19,026.9	69.0861	19,026.9	49.2364	19,026.9	52.2994	19,026.9	41.6695	19,026.9	51.8772	19,026.9	48.4588	19,026.9	31.7705	19,026.9	52.4094	19,026.9	45.8086	19,026.9	39.4683	19,026.9	48.9982	19,026.9	37.2021
19,697.8	81.9603	19,697.8	84.33	19,697.8	83.2049	19,697.8	85.7234	19,697.8	83.6556	19,697.8	84.5416	19,697.8	82.4123	19,697.8	80.4228	19,697.8	81.5643	19,697.8	76.548	19,697.8	76.0852	19,697.8	66.6392	19,697.8	70.464	19,697.8	64.9883	19,697.8	63.8801	19,697.8	58.7604	19,697.8	63.8061	19,697.8	57.3203	19,697.8	73.7716	19,697.8	49.3864	19,697.8	75.6221	19,697.8	50.3715	19,697.8	73.244	19,697.8	47.3995	19,697.8	68.763	19,697.8	51.0618	19,697.8	54.3375	19,697.8	52.0469	19,697.8	52.7976	19,697.8	50.9746	19,697.8	45.2371	19,697.8	53.1644	19,697.8	47.8762	19,697.8	40.5115	19,697.8	37.5093	19,697.8	40.2285
19,999.5	82.814	19,999.5	85.183	19,999.5	83.6025	19,999.5	86.0831	19,999.5	83.311	19,999.5	85.0291	19,999.5	83.6744	19,999.5	80.3777	19,999.5	81.2082	19,999.5	75.2915	19,999.5	75.2095	19,999.5	67.7653	19,999.5	70.2973	19,999.5	65.3083	19,999.5	59.5652	19,999.5	54.3613	19,999.5	65.2129	19,999.5	56.7982	19,999.5	73.2229	19,999.5	45.7853	19,999.5	75.7322	19,999.5	59.3586	19,999.5	73.1801	19,999.5	59.8415	19,999.5	68.5622	19,999.5	46.7428	19,999.5	57.8592	19,999.5	52.9062	19,999.5	53.364	19,999.5	36.2649	19,999.5	49.1181	19,999.5	48.0492	19,999.5	43.8986	19,999.5	43.487	19,999.5	53.6949	19,999.5	48.1187
