"SPL Horizontal"
"On-Axis"		"10°"		"-10°"		"20°"		"-20°"		"30°"		"-30°"		"40°"		"-40°"		"50°"		"-50°"		"60°"		"-60°"		"70°"		"-70°"		"80°"		"-80°"		"90°"		"-90°"		"100°"		"-100°"		"110°"		"-110°"		"120°"		"-120°"		"130°"		"-130°"		"140°"		"-140°"		"150°"		"-150°"		"160°"		"-160°"		"170°"		"-170°"		"180°"
"Frequency / Hz"	"Sound Pressure Level / dB (re 20 µPa/V)  [2.83  V @ 1. m]"	"Frequency / Hz"	"Sound Pressure Level / dB (re 20 µPa/V)  [2.83  V @ 1. m]"	"Frequency / Hz"	"Sound Pressure Level / dB (re 20 µPa/V)  [2.83  V @ 1. m]"	"Frequency / Hz"	"Sound Pressure Level / dB (re 20 µPa/V)  [2.83  V @ 1. m]"	"Frequency / Hz"	"Sound Pressure Level / dB (re 20 µPa/V)  [2.83  V @ 1. m]"	"Frequency / Hz"	"Sound Pressure Level / dB (re 20 µPa/V)  [2.83  V @ 1. m]"	"Frequency / Hz"	"Sound Pressure Level / dB (re 20 µPa/V)  [2.83  V @ 1. m]"	"Frequency / Hz"	"Sound Pressure Level / dB (re 20 µPa/V)  [2.83  V @ 1. m]"	"Frequency / Hz"	"Sound Pressure Level / dB (re 20 µPa/V)  [2.83  V @ 1. m]"	"Frequency / Hz"	"Sound Pressure Level / dB (re 20 µPa/V)  [2.83  V @ 1. m]"	"Frequency / Hz"	"Sound Pressure Level / dB (re 20 µPa/V)  [2.83  V @ 1. m]"	"Frequency / Hz"	"Sound Pressure Level / dB (re 20 µPa/V)  [2.83  V @ 1. m]"	"Frequency / Hz"	"Sound Pressure Level / dB (re 20 µPa/V)  [2.83  V @ 1. m]"	"Frequency / Hz"	"Sound Pressure Level / dB (re 20 µPa/V)  [2.83  V @ 1. m]"	"Frequency / Hz"	"Sound Pressure Level / dB (re 20 µPa/V)  [2.83  V @ 1. m]"	"Frequency / Hz"	"Sound Pressure Level / dB (re 20 µPa/V)  [2.83  V @ 1. m]"	"Frequency / Hz"	"Sound Pressure Level / dB (re 20 µPa/V)  [2.83  V @ 1. m]"	"Frequency / Hz"	"Sound Pressure Level / dB (re 20 µPa/V)  [2.83  V @ 1. m]"	"Frequency / Hz"	"Sound Pressure Level / dB (re 20 µPa/V)  [2.83  V @ 1. m]"	"Frequency / Hz"	"Sound Pressure Level / dB (re 20 µPa/V)  [2.83  V @ 1. m]"	"Frequency / Hz"	"Sound Pressure Level / dB (re 20 µPa/V)  [2.83  V @ 1. m]"	"Frequency / Hz"	"Sound Pressure Level / dB (re 20 µPa/V)  [2.83  V @ 1. m]"	"Frequency / Hz"	"Sound Pressure Level / dB (re 20 µPa/V)  [2.83  V @ 1. m]"	"Frequency / Hz"	"Sound Pressure Level / dB (re 20 µPa/V)  [2.83  V @ 1. m]"	"Frequency / Hz"	"Sound Pressure Level / dB (re 20 µPa/V)  [2.83  V @ 1. m]"	"Frequency / Hz"	"Sound Pressure Level / dB (re 20 µPa/V)  [2.83  V @ 1. m]"	"Frequency / Hz"	"Sound Pressure Level / dB (re 20 µPa/V)  [2.83  V @ 1. m]"	"Frequency / Hz"	"Sound Pressure Level / dB (re 20 µPa/V)  [2.83  V @ 1. m]"	"Frequency / Hz"	"Sound Pressure Level / dB (re 20 µPa/V)  [2.83  V @ 1. m]"	"Frequency / Hz"	"Sound Pressure Level / dB (re 20 µPa/V)  [2.83  V @ 1. m]"	"Frequency / Hz"	"Sound Pressure Level / dB (re 20 µPa/V)  [2.83  V @ 1. m]"	"Frequency / Hz"	"Sound Pressure Level / dB (re 20 µPa/V)  [2.83  V @ 1. m]"	"Frequency / Hz"	"Sound Pressure Level / dB (re 20 µPa/V)  [2.83  V @ 1. m]"	"Frequency / Hz"	"Sound Pressure Level / dB (re 20 µPa/V)  [2.83  V @ 1. m]"	"Frequency / Hz"	"Sound Pressure Level / dB (re 20 µPa/V)  [2.83  V @ 1. m]"	"Frequency / Hz"	"Sound Pressure Level / dB (re 20 µPa/V)  [2.83  V @ 1. m]"
20.5078	42.3687	20.5078	42.6313	20.5078	42.1366	20.5078	42.8998	20.5078	41.9649	20.5078	43.1585	20.5078	41.882	20.5078	43.3995	20.5078	41.9084	20.5078	43.6203	20.5078	42.0522	20.5078	43.8194	20.5078	42.3093	20.5078	43.9938	20.5078	42.6637	20.5078	44.1393	20.5078	43.0886	20.5078	44.2523	20.5078	43.5488	20.5078	44.3327	20.5078	44.0046	20.5078	44.3854	20.5078	44.4183	20.5078	44.4211	20.5078	44.759	20.5078	44.4541	20.5078	45.0066	20.5078	44.4997	20.5078	45.153	20.5078	44.5704	20.5078	45.2018	20.5078	44.6715	20.5078	45.1673	20.5078	44.7992	20.5078	45.0712	20.5078	44.9397
21.9727	43.9781	21.9727	43.8177	21.9727	44.1676	21.9727	43.7205	21.9727	44.3525	21.9727	43.7152	21.9727	44.5033	21.9727	43.8175	21.9727	44.5975	21.9727	44.0239	21.9727	44.6211	21.9727	44.3102	21.9727	44.57	21.9727	44.6378	21.9727	44.4504	21.9727	44.9632	21.9727	44.2786	21.9727	45.2471	21.9727	44.0785	21.9727	45.46	21.9727	43.8786	21.9727	45.5836	21.9727	43.7068	21.9727	45.6101	21.9727	43.586	21.9727	45.5415	21.9727	43.531	21.9727	45.3872	21.9727	43.5491	21.9727	45.1631	21.9727	43.6413	21.9727	44.8903	21.9727	43.8038	21.9727	44.5932	21.9727	44.0275	21.9727	44.2974
23.4375	43.8787	23.4375	43.9038	23.4375	43.8253	23.4375	43.8984	23.4375	43.7469	23.4375	43.8625	23.4375	43.647	23.4375	43.7985	23.4375	43.5289	23.4375	43.7103	23.4375	43.3949	23.4375	43.6024	23.4375	43.2474	23.4375	43.4782	23.4375	43.0888	23.4375	43.3389	23.4375	42.9219	23.4375	43.1838	23.4375	42.7494	23.4375	43.0112	23.4375	42.5742	23.4375	42.8203	23.4375	42.3987	23.4375	42.6132	23.4375	42.2256	23.4375	42.3961	23.4375	42.0586	23.4375	42.1801	23.4375	41.9042	23.4375	41.9796	23.4375	41.7717	23.4375	41.8112	23.4375	41.6732	23.4375	41.6896	23.4375	41.621	23.4375	41.6251
24.9023	46.9517	24.9023	46.9621	24.9023	46.8965	24.9023	46.9239	24.9023	46.8037	24.9023	46.8377	24.9023	46.681	24.9023	46.7091	24.9023	46.5356	24.9023	46.5476	24.9023	46.3735	24.9023	46.3634	24.9023	46.1998	24.9023	46.1642	24.9023	46.0194	24.9023	45.9536	24.9023	45.8373	24.9023	45.731	24.9023	45.6582	24.9023	45.4949	24.9023	45.4853	24.9023	45.2467	24.9023	45.3195	24.9023	44.9941	24.9023	45.1591	24.9023	44.7517	24.9023	45.0006	24.9023	44.5392	24.9023	44.8413	24.9023	44.3769	24.9023	44.6819	24.9023	44.2803	24.9023	44.5291	24.9023	44.2555	24.9023	44.3955	24.9023	44.2984
26.3672	43.6161	26.3672	43.6352	26.3672	43.5888	26.3672	43.6348	26.3672	43.5695	26.3672	43.6124	26.3672	43.576	26.3672	43.575	26.3672	43.6257	26.3672	43.5384	26.3672	43.7336	26.3672	43.5229	26.3672	43.9112	26.3672	43.5482	26.3672	44.1632	26.3672	43.6275	26.3672	44.4848	26.3672	43.7654	26.3672	44.8593	26.3672	43.958	26.3672	45.2588	26.3672	44.1954	26.3672	45.649	26.3672	44.4662	26.3672	45.9952	26.3672	44.7589	26.3672	46.2678	26.3672	45.064	26.3672	46.447	26.3672	45.372	26.3672	46.5237	26.3672	45.6726	26.3672	46.4997	26.3672	45.9529	26.3672	46.3852	26.3672	46.1966
27.832	44.6888	27.832	44.31	27.832	45.096	27.832	43.9747	27.832	45.5186	27.832	43.6996	27.832	45.9465	27.832	43.5013	27.832	46.3712	27.832	43.3936	27.832	46.7859	27.832	43.3856	27.832	47.1842	27.832	43.4793	27.832	47.5594	27.832	43.6699	27.832	47.904	27.832	43.9467	27.832	48.2094	27.832	44.295	27.832	48.4655	27.832	44.6991	27.832	48.662	27.832	45.1436	27.832	48.7892	27.832	45.6136	27.832	48.8391	27.832	46.0956	27.832	48.8064	27.832	46.5762	27.832	48.6895	27.832	47.0421	27.832	48.4908	27.832	47.4797	27.832	48.2164	27.832	47.8755
29.2969	40.6788	29.2969	40.9032	29.2969	40.4216	29.2969	41.0476	29.2969	40.2009	29.2969	41.0889	29.2969	40.0964	29.2969	41.0246	29.2969	40.1732	29.2969	40.869	29.2969	40.4551	29.2969	40.6497	29.2969	40.916	29.2969	40.4046	29.2969	41.497	29.2969	40.1784	29.2969	42.1313	29.2969	40.0181	29.2969	42.7613	29.2969	39.967	29.2969	43.3418	29.2969	40.0576	29.2969	43.8388	29.2969	40.3047	29.2969	44.226	29.2969	40.7017	29.2969	44.4836	29.2969	41.2207	29.2969	44.5978	29.2969	41.8186	29.2969	44.5617	29.2969	42.4459	29.2969	44.376	29.2969	43.0541	29.2969	44.0496	29.2969	43.6002
30.7617	46.586	30.7617	46.5357	30.7617	46.5965	30.7617	46.4489	30.7617	46.5644	30.7617	46.3295	30.7617	46.488	30.7617	46.1816	30.7617	46.3681	30.7617	46.0096	30.7617	46.2095	30.7617	45.8178	30.7617	46.0219	30.7617	45.6107	30.7617	45.8196	30.7617	45.3932	30.7617	45.6198	30.7617	45.1716	30.7617	45.439	30.7617	44.9544	30.7617	45.289	30.7617	44.7518	30.7617	45.1725	30.7617	44.5758	30.7617	45.083	30.7617	44.4379	30.7617	45.0066	30.7617	44.3476	30.7617	44.9279	30.7617	44.3105	30.7617	44.8356	30.7617	44.3267	30.7617	44.7264	30.7617	44.39	30.7617	44.6063	30.7617	44.4885
32.2266	49.0498	32.2266	48.9469	32.2266	49.1256	32.2266	48.8229	32.2266	49.1693	32.2266	48.684	32.2266	49.1771	32.2266	48.5367	32.2266	49.1464	32.2266	48.3864	32.2266	49.0764	32.2266	48.2371	32.2266	48.9686	32.2266	48.0904	32.2266	48.8269	32.2266	47.9463	32.2266	48.6577	32.2266	47.8036	32.2266	48.4688	32.2266	47.6612	32.2266	48.269	32.2266	47.5201	32.2266	48.0665	32.2266	47.3835	32.2266	47.8685	32.2266	47.2574	32.2266	47.6805	32.2266	47.1498	32.2266	47.507	32.2266	47.069	32.2266	47.3522	32.2266	47.0224	32.2266	47.2204	32.2266	47.0145	32.2266	47.1168	32.2266	47.0467
33.6914	49.4748	33.6914	49.4101	33.6914	49.539	33.6914	49.3468	33.6914	49.6026	33.6914	49.2873	33.6914	49.6666	33.6914	49.2352	33.6914	49.7331	33.6914	49.1936	33.6914	49.8046	33.6914	49.1654	33.6914	49.8833	33.6914	49.1522	33.6914	49.9702	33.6914	49.1544	33.6914	50.064	33.6914	49.1719	33.6914	50.1605	33.6914	49.204	33.6914	50.2532	33.6914	49.2509	33.6914	50.3336	33.6914	49.3136	33.6914	50.3922	33.6914	49.3937	33.6914	50.4207	33.6914	49.4927	33.6914	50.413	33.6914	49.6106	33.6914	50.3666	33.6914	49.7446	33.6914	50.2833	33.6914	49.8888	33.6914	50.1693	33.6914	50.0341
35.1562	49.3892	35.1562	49.2889	35.1562	49.4873	35.1562	49.1847	35.1562	49.5844	35.1562	49.075	35.1562	49.6801	35.1562	48.959	35.1562	49.7733	35.1562	48.8379	35.1562	49.8618	35.1562	48.7146	35.1562	49.9432	35.1562	48.5941	35.1562	50.0147	35.1562	48.4821	35.1562	50.0736	35.1562	48.3852	35.1562	50.1166	35.1562	48.3103	35.1562	50.1397	35.1562	48.2646	35.1562	50.1378	35.1562	48.2555	35.1562	50.1052	35.1562	48.29	35.1562	50.0362	35.1562	48.373	35.1562	49.9265	35.1562	48.5058	35.1562	49.7748	35.1562	48.6841	35.1562	49.5848	35.1562	48.8974	35.1562	49.3654	35.1562	49.1305
36.6211	51.9263	36.6211	51.783	36.6211	52.0528	36.6211	51.6237	36.6211	52.1632	36.6211	51.4511	36.6211	52.259	36.6211	51.2699	36.6211	52.3419	36.6211	51.0868	36.6211	52.413	36.6211	50.9101	36.6211	52.4726	36.6211	50.7485	36.6211	52.5195	36.6211	50.6107	36.6211	52.5518	36.6211	50.5049	36.6211	52.5661	36.6211	50.4382	36.6211	52.5586	36.6211	50.4162	36.6211	52.5256	36.6211	50.4427	36.6211	52.4634	36.6211	50.5188	36.6211	52.3694	36.6211	50.6425	36.6211	52.2426	36.6211	50.8083	36.6211	52.0835	36.6211	51.0073	36.6211	51.8954	36.6211	51.2281	36.6211	51.6839	36.6211	51.4578
38.0859	51.7953	38.0859	51.6764	38.0859	51.8889	38.0859	51.5293	38.0859	51.9632	38.0859	51.3546	38.0859	52.0256	38.0859	51.1565	38.0859	52.0837	38.0859	50.9421	38.0859	52.1427	38.0859	50.7206	38.0859	52.2048	38.0859	50.5019	38.0859	52.2677	38.0859	50.2968	38.0859	52.3254	38.0859	50.1163	38.0859	52.3689	38.0859	49.9722	38.0859	52.3878	38.0859	49.8766	38.0859	52.372	38.0859	49.8414	38.0859	52.3131	38.0859	49.8759	38.0859	52.2053	38.0859	49.9845	38.0859	52.0462	38.0859	50.1642	38.0859	51.8372	38.0859	50.4043	38.0859	51.5842	38.0859	50.6874	38.0859	51.2976	38.0859	50.9923
39.5508	54.1155	39.5508	53.9348	39.5508	54.2756	39.5508	53.734	39.5508	54.4159	39.5508	53.5155	39.5508	54.5385	39.5508	53.2839	39.5508	54.6448	39.5508	53.0449	39.5508	54.7353	39.5508	52.8052	39.5508	54.8089	39.5508	52.5719	39.5508	54.8624	39.5508	52.3528	39.5508	54.8915	39.5508	52.1569	39.5508	54.8911	39.5508	51.9948	39.5508	54.8558	39.5508	51.879	39.5508	54.7802	39.5508	51.8232	39.5508	54.6599	39.5508	51.8399	39.5508	54.4914	39.5508	51.9373	39.5508	54.2735	39.5508	52.1162	39.5508	54.0081	39.5508	52.3679	39.5508	53.7014	39.5508	52.6752	39.5508	53.3649	39.5508	53.0156
41.0156	49.8305	41.0156	48.5167	41.0156	51.0593	41.0156	47.1491	41.0156	52.1933	41.0156	45.7985	41.0156	53.2324	41.0156	44.5946	41.0156	54.1791	41.0156	43.721	41.0156	55.0358	41.0156	43.3509	41.0156	55.8036	41.0156	43.5478	41.0156	56.4815	41.0156	44.2374	41.0156	57.0666	41.0156	45.2806	41.0156	57.5544	41.0156	46.5447	41.0156	57.9388	41.0156	47.9264	41.0156	58.2123	41.0156	49.3485	41.0156	58.3667	41.0156	50.7536	41.0156	58.3931	41.0156	52.0987	41.0156	58.2832	41.0156	53.3521	41.0156	58.0294	41.0156	54.4902	41.0156	57.6258	41.0156	55.496	41.0156	57.0688	41.0156	56.3579
42.4805	54.8125	42.4805	54.9245	42.4805	54.6862	42.4805	55.017	42.4805	54.5516	42.4805	55.0851	42.4805	54.4147	42.4805	55.1243	42.4805	54.2814	42.4805	55.1305	42.4805	54.1562	42.4805	55.1005	42.4805	54.042	42.4805	55.0325	42.4805	53.9397	42.4805	54.927	42.4805	53.8486	42.4805	54.7868	42.4805	53.7673	42.4805	54.6179	42.4805	53.6948	42.4805	54.429	42.4805	53.6302	42.4805	54.2312	42.4805	53.5735	42.4805	54.0371	42.4805	53.525	42.4805	53.8595	42.4805	53.4856	42.4805	53.7087	42.4805	53.4566	42.4805	53.5917	42.4805	53.4402	42.4805	53.51	42.4805	53.44	42.4805	53.4612
43.9453	55.3173	43.9453	55.3524	43.9453	55.2722	43.9453	55.3743	43.9453	55.2214	43.9453	55.3814	43.9453	55.1694	43.9453	55.3731	43.9453	55.1206	43.9453	55.3502	43.9453	55.0779	43.9453	55.3142	43.9453	55.0428	43.9453	55.2672	43.9453	55.0151	43.9453	55.2123	43.9453	54.9943	43.9453	55.153	43.9453	54.9792	43.9453	55.0931	43.9453	54.9689	43.9453	55.0368	43.9453	54.9627	43.9453	54.9878	43.9453	54.9595	43.9453	54.9487	43.9453	54.9577	43.9453	54.9215	43.9453	54.9556	43.9453	54.9067	43.9453	54.9512	43.9453	54.9031	43.9453	54.9433	43.9453	54.9085	43.9453	54.9321	43.9453	54.9194
45.4102	56.0007	45.4102	56.0109	45.4102	55.9805	45.4102	56.0101	45.4102	55.9519	45.4102	55.9978	45.4102	55.9168	45.4102	55.974	45.4102	55.8771	45.4102	55.9394	45.4102	55.835	45.4102	55.8948	45.4102	55.7922	45.4102	55.8415	45.4102	55.7504	45.4102	55.7817	45.4102	55.7108	45.4102	55.7178	45.4102	55.6743	45.4102	55.6533	45.4102	55.6415	45.4102	55.5917	45.4102	55.6121	45.4102	55.5367	45.4102	55.5858	45.4102	55.4915	45.4102	55.5614	45.4102	55.4583	45.4102	55.5379	45.4102	55.4383	45.4102	55.5144	45.4102	55.4313	45.4102	55.491	45.4102	55.4358	45.4102	55.4686	45.4102	55.4492
46.875	55.868	46.875	55.8066	46.875	55.9169	46.875	55.7345	46.875	55.9525	46.875	55.6539	46.875	55.9742	46.875	55.5674	46.875	55.9818	46.875	55.4783	46.875	55.9755	46.875	55.3894	46.875	55.9559	46.875	55.3039	46.875	55.9242	46.875	55.2248	46.875	55.8821	46.875	55.1549	46.875	55.8319	46.875	55.0971	46.875	55.7759	46.875	55.0541	46.875	55.7159	46.875	55.028	46.875	55.6531	46.875	55.0202	46.875	55.5877	46.875	55.031	46.875	55.5194	46.875	55.0596	46.875	55.4482	46.875	55.104	46.875	55.3747	46.875	55.1614	46.875	55.3005	46.875	55.2282
48.3398	56.9502	48.3398	56.8859	48.3398	57.0075	48.3398	56.8174	48.3398	57.0549	48.3398	56.7472	48.3398	57.0902	48.3398	56.6774	48.3398	57.1117	48.3398	56.6093	48.3398	57.1186	48.3398	56.5443	48.3398	57.1113	48.3398	56.4838	48.3398	57.0906	48.3398	56.4295	48.3398	57.0584	48.3398	56.3836	48.3398	57.0171	48.3398	56.3484	48.3398	56.969	48.3398	56.3258	48.3398	56.9166	48.3398	56.3171	48.3398	56.8616	48.3398	56.3225	48.3398	56.805	48.3398	56.3412	48.3398	56.7473	48.3398	56.3718	48.3398	56.6888	48.3398	56.4123	48.3398	56.6299	48.3398	56.4604	48.3398	56.5712	48.3398	56.5141
51.2695	58.3683	51.2695	58.3032	51.2695	58.4256	51.2695	58.2323	51.2695	58.4733	51.2695	58.158	51.2695	58.5105	51.2695	58.0823	51.2695	58.5375	51.2695	58.0071	51.2695	58.5551	51.2695	57.9341	51.2695	58.5647	51.2695	57.865	51.2695	58.5676	51.2695	57.8027	51.2695	58.5648	51.2695	57.7502	51.2695	58.5566	51.2695	57.7113	51.2695	58.5423	51.2695	57.6896	51.2695	58.5208	51.2695	57.6882	51.2695	58.4904	51.2695	57.7087	51.2695	58.4493	51.2695	57.751	51.2695	58.3961	51.2695	57.813	51.2695	58.3303	51.2695	57.8908	51.2695	58.2528	51.2695	57.9794	51.2695	58.1657	51.2695	58.073
52.7344	59.2013	52.7344	59.1287	52.7344	59.2617	52.7344	59.0462	52.7344	59.3081	52.7344	58.9566	52.7344	59.3394	52.7344	58.8627	52.7344	59.3554	52.7344	58.7674	52.7344	59.3563	52.7344	58.6738	52.7344	59.3429	52.7344	58.5851	52.7344	59.3164	52.7344	58.5044	52.7344	59.2778	52.7344	58.435	52.7344	59.2285	52.7344	58.38	52.7344	59.1697	52.7344	58.3419	52.7344	59.1029	52.7344	58.3224	52.7344	59.0298	52.7344	58.3221	52.7344	58.952	52.7344	58.3403	52.7344	58.8714	52.7344	58.3753	52.7344	58.7897	52.7344	58.4245	52.7344	58.7085	52.7344	58.4851	52.7344	58.6294	52.7344	58.5543
54.1992	59.8167	54.1992	59.7515	54.1992	59.8718	54.1992	59.6779	54.1992	59.9157	54.1992	59.5984	54.1992	59.9478	54.1992	59.516	54.1992	59.9676	54.1992	59.4341	54.1992	59.9751	54.1992	59.3563	54.1992	59.9701	54.1992	59.2859	54.1992	59.9531	54.1992	59.2257	54.1992	59.9249	54.1992	59.1781	54.1992	59.8867	54.1992	59.1446	54.1992	59.8405	54.1992	59.1264	54.1992	59.7879	54.1992	59.1237	54.1992	59.731	54.1992	59.1364	54.1992	59.6714	54.1992	59.1631	54.1992	59.6104	54.1992	59.2019	54.1992	59.5487	54.1992	59.2501	54.1992	59.4868	54.1992	59.305	54.1992	59.425	54.1992	59.364
55.6641	60.3563	55.6641	60.2407	55.6641	60.4572	55.6641	60.1134	55.6641	60.541	55.6641	59.9782	55.6641	60.6062	55.6641	59.8398	55.6641	60.6514	55.6641	59.7038	55.6641	60.6759	55.6641	59.576	55.6641	60.6796	55.6641	59.4622	55.6641	60.6632	55.6641	59.3679	55.6641	60.6282	55.6641	59.2973	55.6641	60.5766	55.6641	59.2533	55.6641	60.5112	55.6641	59.237	55.6641	60.4347	55.6641	59.2481	55.6641	60.3494	55.6641	59.2848	55.6641	60.2571	55.6641	59.3442	55.6641	60.1589	55.6641	59.4225	55.6641	60.0558	55.6641	59.5155	55.6641	59.9485	55.6641	59.6185	55.6641	59.8384	55.6641	59.7274
58.5938	61.6756	58.5938	61.5693	58.5938	61.7705	58.5938	61.4544	58.5938	61.8518	58.5938	61.3343	58.5938	61.9175	58.5938	61.2127	58.5938	61.9667	58.5938	61.0935	58.5938	61.9988	58.5938	60.9812	58.5938	62.0136	58.5938	60.8806	58.5938	62.0115	58.5938	60.7967	58.5938	61.9934	58.5938	60.7341	58.5938	61.9602	58.5938	60.6967	58.5938	61.9134	58.5938	60.687	58.5938	61.8549	58.5938	60.7057	58.5938	61.7864	58.5938	60.7511	58.5938	61.7094	58.5938	60.8199	58.5938	61.6249	58.5938	60.9074	58.5938	61.5338	58.5938	61.0078	58.5938	61.4362	58.5938	61.1153	58.5938	61.3328	58.5938	61.225
60.0586	62.225	60.0586	62.1407	60.0586	62.2966	60.0586	62.0465	60.0586	62.353	60.0586	61.9452	60.0586	62.3925	60.0586	61.8395	60.0586	62.4141	60.0586	61.7319	60.0586	62.4178	60.0586	61.6251	60.0586	62.4039	60.0586	61.522	60.0586	62.3733	60.0586	61.4262	60.0586	62.3272	60.0586	61.3416	60.0586	62.2668	60.0586	61.2723	60.0586	62.1934	60.0586	61.2218	60.0586	62.1089	60.0586	61.1923	60.0586	62.0153	60.0586	61.1848	60.0586	61.9153	60.0586	61.1984	60.0586	61.8119	60.0586	61.2316	60.0586	61.7082	60.0586	61.2819	60.0586	61.6072	60.0586	61.3469	60.0586	61.5118	60.0586	61.4242
62.9883	63.5118	62.9883	63.4172	62.9883	63.5893	62.9883	63.309	62.9883	63.6474	62.9883	63.1909	62.9883	63.6846	62.9883	63.0674	62.9883	63.7001	62.9883	62.9434	62.9883	63.6942	62.9883	62.8236	62.9883	63.6683	62.9883	62.7131	62.9883	63.6239	62.9883	62.6163	62.9883	63.5634	62.9883	62.5371	62.9883	63.4895	62.9883	62.478	62.9883	63.4051	62.9883	62.4406	62.9883	63.3134	62.9883	62.4249	62.9883	63.2174	62.9883	62.4297	62.9883	63.12	62.9883	62.453	62.9883	63.0237	62.9883	62.4922	62.9883	62.9302	62.9883	62.5445	62.9883	62.841	62.9883	62.6073	62.9883	62.7568	62.9883	62.6786
64.4531	64.1748	64.4531	64.079	64.4531	64.2522	64.4531	63.9683	64.4531	64.3086	64.4531	63.8471	64.4531	64.3424	64.4531	63.7199	64.4531	64.353	64.4531	63.5921	64.4531	64.3409	64.4531	63.4684	64.4531	64.3073	64.4531	63.3539	64.4531	64.2543	64.4531	63.2528	64.4531	64.1841	64.4531	63.1687	64.4531	64.0999	64.4531	63.104	64.4531	64.0048	64.4531	63.0601	64.4531	63.9025	64.4531	63.0371	64.4531	63.7967	64.4531	63.0339	64.4531	63.6909	64.4531	63.0488	64.4531	63.5883	64.4531	63.0794	64.4531	63.4911	64.4531	63.1235	64.4531	63.4009	64.4531	63.179	64.4531	63.3184	64.4531	63.2443
67.3828	64.9855	67.3828	64.8889	67.3828	65.0666	67.3828	64.7798	67.3828	65.1299	67.3828	64.6619	67.3828	65.174	67.3828	64.5395	67.3828	65.1984	67.3828	64.4173	67.3828	65.2033	67.3828	64.3003	67.3828	65.1896	67.3828	64.1937	67.3828	65.1586	67.3828	64.1025	67.3828	65.1118	67.3828	64.0308	67.3828	65.0512	67.3828	63.9815	67.3828	64.9789	67.3828	63.9562	67.3828	64.8974	67.3828	63.9541	67.3828	64.8093	67.3828	63.9733	67.3828	64.7173	67.3828	64.0105	67.3828	64.6239	67.3828	64.0621	67.3828	64.5314	67.3828	64.1247	67.3828	64.4413	67.3828	64.1955	67.3828	64.3548	67.3828	64.2726
68.8477	65.5457	68.8477	65.4371	68.8477	65.6406	68.8477	65.3179	68.8477	65.7196	68.8477	65.1916	68.8477	65.7808	68.8477	65.0627	68.8477	65.8231	68.8477	64.9357	68.8477	65.8459	68.8477	64.8159	68.8477	65.849	68.8477	64.7083	68.8477	65.8324	68.8477	64.6178	68.8477	65.7968	68.8477	64.5484	68.8477	65.7428	68.8477	64.5026	68.8477	65.6717	68.8477	64.4815	68.8477	65.5855	68.8477	64.4842	68.8477	65.4868	68.8477	64.5085	68.8477	65.3794	68.8477	64.5511	68.8477	65.2674	68.8477	64.6088	68.8477	65.1551	68.8477	64.6784	68.8477	65.0459	68.8477	64.758	68.8477	64.9425	68.8477	64.8462
71.7773	66.7794	71.7773	66.6539	71.7773	66.8854	71.7773	66.5129	71.7773	66.9692	71.7773	66.3615	71.7773	67.0294	71.7773	66.2059	71.7773	67.0654	71.7773	66.0531	71.7773	67.0775	71.7773	65.9106	71.7773	67.067	71.7773	65.7854	71.7773	67.0355	71.7773	65.6837	71.7773	66.9851	71.7773	65.6102	71.7773	66.9182	71.7773	65.5672	71.7773	66.8374	71.7773	65.5549	71.7773	66.7457	71.7773	65.5713	71.7773	66.6463	71.7773	65.6127	71.7773	66.5423	71.7773	65.6742	71.7773	66.4366	71.7773	65.7508	71.7773	66.3314	71.7773	65.8375	71.7773	66.2279	71.7773	65.9305	71.7773	66.1265	71.7773	66.0272
74.707	67.4644	74.707	67.3366	74.707	67.5745	74.707	67.1948	74.707	67.6642	74.707	67.0442	74.707	67.732	74.707	66.8908	74.707	67.7775	74.707	66.7414	74.707	67.8007	74.707	66.6031	74.707	67.8028	74.707	66.4828	74.707	67.7851	74.707	66.3864	74.707	67.7496	74.707	66.3185	74.707	67.6984	74.707	66.2818	74.707	67.6338	74.707	66.277	74.707	67.5579	74.707	66.3024	74.707	67.4728	74.707	66.3548	74.707	67.3804	74.707	66.4294	74.707	67.2821	74.707	66.5211	74.707	67.1789	74.707	66.6245	74.707	67.0715	74.707	66.7348	74.707	66.9608	74.707	66.8479
77.6367	68.5716	77.6367	68.458	77.6367	68.6647	77.6367	68.3273	77.6367	68.7351	77.6367	68.1844	77.6367	68.7818	77.6367	68.035	77.6367	68.8048	77.6367	67.8857	77.6367	68.8054	77.6367	67.7438	77.6367	68.7854	77.6367	67.6163	77.6367	68.7472	77.6367	67.5097	77.6367	68.6932	77.6367	67.4289	77.6367	68.626	77.6367	67.3771	77.6367	68.548	77.6367	67.3552	77.6367	68.4617	77.6367	67.3617	77.6367	68.3691	77.6367	67.3936	77.6367	68.2724	77.6367	67.4465	77.6367	68.1735	77.6367	67.5157	77.6367	68.0737	77.6367	67.5964	77.6367	67.9741	77.6367	67.6851	77.6367	67.8755	77.6367	67.7787
79.1016	69.0888	79.1016	68.9759	79.1016	69.18	79.1016	68.8449	79.1016	69.2473	79.1016	68.7003	79.1016	69.2899	79.1016	68.5483	79.1016	69.308	79.1016	68.3957	79.1016	69.303	79.1016	68.2497	79.1016	69.277	79.1016	68.1179	79.1016	69.2324	79.1016	68.0068	79.1016	69.1721	79.1016	67.9217	79.1016	69.0987	79.1016	67.8659	79.1016	69.0149	79.1016	67.8403	79.1016	68.9233	79.1016	67.8435	79.1016	68.8265	79.1016	67.8723	79.1016	68.7267	79.1016	67.9219	79.1016	68.6259	79.1016	67.9874	79.1016	68.5258	79.1016	68.0642	79.1016	68.4275	79.1016	68.1486	79.1016	68.3314	79.1016	68.2382
82.0312	69.968	82.0312	69.8537	82.0312	70.0573	82.0312	69.7177	82.0312	70.1195	82.0312	69.5648	82.0312	70.1542	82.0312	69.4013	82.0312	70.1624	82.0312	69.2343	82.0312	70.1463	82.0312	69.0718	82.0312	70.109	82.0312	68.9215	82.0312	70.054	82.0312	68.7907	82.0312	69.9851	82.0312	68.6852	82.0312	69.9053	82.0312	68.6087	82.0312	69.8172	82.0312	68.5632	82.0312	69.7225	82.0312	68.5488	82.0312	69.6222	82.0312	68.5638	82.0312	69.5172	82.0312	68.6054	82.0312	69.4082	82.0312	68.6697	82.0312	69.2959	82.0312	68.7525	82.0312	69.1817	82.0312	68.8493	82.0312	69.0674	82.0312	68.9555
84.9609	70.5945	84.9609	70.4786	84.9609	70.688	84.9609	70.3434	84.9609	70.7572	84.9609	70.1934	84.9609	70.8016	84.9609	70.0345	84.9609	70.8217	84.9609	69.8734	84.9609	70.8187	84.9609	69.7175	84.9609	70.7941	84.9609	69.5743	84.9609	70.7498	84.9609	69.4504	84.9609	70.6875	84.9609	69.351	84.9609	70.609	84.9609	69.279	84.9609	70.5163	84.9609	69.2358	84.9609	70.4113	84.9609	69.2204	84.9609	70.2966	84.9609	69.2307	84.9609	70.1748	84.9609	69.264	84.9609	70.0491	84.9609	69.3174	84.9609	69.9228	84.9609	69.388	84.9609	69.7992	84.9609	69.4736	84.9609	69.6814	84.9609	69.5721
87.8906	71.0702	87.8906	70.9273	87.8906	71.1972	87.8906	70.7726	87.8906	71.3058	87.8906	70.6125	87.8906	71.3954	87.8906	70.4549	87.8906	71.4667	87.8906	70.309	87.8906	71.5215	87.8906	70.1843	87.8906	71.5618	87.8906	70.0897	87.8906	71.5898	87.8906	70.0324	87.8906	71.6072	87.8906	70.0163	87.8906	71.6149	87.8906	70.0425	87.8906	71.6129	87.8906	70.1084	87.8906	71.6005	87.8906	70.2086	87.8906	71.5763	87.8906	70.336	87.8906	71.5386	87.8906	70.4823	87.8906	71.4854	87.8906	70.6387	87.8906	71.4149	87.8906	70.7971	87.8906	71.3258	87.8906	70.95	87.8906	71.2177	87.8906	71.0916
90.8203	73.0569	90.8203	72.9851	90.8203	73.0864	90.8203	72.8725	90.8203	73.0744	90.8203	72.7224	90.8203	73.0238	90.8203	72.5403	90.8203	72.9397	90.8203	72.3336	90.8203	72.8292	90.8203	72.1118	90.8203	72.7006	90.8203	71.8864	90.8203	72.5626	90.8203	71.6698	90.8203	72.4236	90.8203	71.4743	90.8203	72.2903	90.8203	71.3111	90.8203	72.1674	90.8203	71.1882	90.8203	72.057	90.8203	71.1104	90.8203	71.9584	90.8203	71.0782	90.8203	71.8687	90.8203	71.0886	90.8203	71.7832	90.8203	71.1355	90.8203	71.6969	90.8203	71.2105	90.8203	71.6057	90.8203	71.3037	90.8203	71.508	90.8203	71.4055
95.2148	73.2755	95.2148	73.1392	95.2148	73.3884	95.2148	72.9849	95.2148	73.4738	95.2148	72.8194	95.2148	73.5297	95.2148	72.65	95.2148	73.5554	95.2148	72.4847	95.2148	73.5524	95.2148	72.331	95.2148	73.5231	95.2148	72.1963	95.2148	73.4712	95.2148	72.0865	95.2148	73.4008	95.2148	72.0061	95.2148	73.3159	95.2148	71.9574	95.2148	73.2202	95.2148	71.9403	95.2148	73.117	95.2148	71.9522	95.2148	73.0087	95.2148	71.9887	95.2148	72.8979	95.2148	72.0445	95.2148	72.7865	95.2148	72.1143	95.2148	72.6768	95.2148	72.1936	95.2148	72.5703	95.2148	72.2797	95.2148	72.4684	95.2148	72.3715
98.1445	74.1562	98.1445	74.0855	98.1445	74.2026	98.1445	73.9955	98.1445	74.2209	98.1445	73.8926	98.1445	74.2096	98.1445	73.7833	98.1445	74.1693	98.1445	73.674	98.1445	74.1028	98.1445	73.5699	98.1445	74.0151	98.1445	73.4748	98.1445	73.9128	98.1445	73.3913	98.1445	73.8037	98.1445	73.3201	98.1445	73.6957	98.1445	73.2613	98.1445	73.5956	98.1445	73.2145	98.1445	73.5079	98.1445	73.1793	98.1445	73.4345	98.1445	73.1555	98.1445	73.3748	98.1445	73.1431	98.1445	73.3262	98.1445	73.1416	98.1445	73.2856	98.1445	73.1501	98.1445	73.2502	98.1445	73.167	98.1445	73.2185	98.1445	73.1904
101.074	73.9651	101.074	73.8755	101.074	74.0523	101.074	73.7855	101.074	74.1371	101.074	73.6991	101.074	74.2207	101.074	73.6228	101.074	74.3046	101.074	73.5647	101.074	74.3903	101.074	73.5335	101.074	74.4787	101.074	73.5364	101.074	74.5699	101.074	73.5783	101.074	74.6636	101.074	73.66	101.074	74.7587	101.074	73.7783	101.074	74.8534	101.074	73.9268	101.074	74.9449	101.074	74.0971	101.074	75.0294	101.074	74.2796	101.074	75.1013	101.074	74.465	101.074	75.1542	101.074	74.6439	101.074	75.1813	101.074	74.8077	101.074	75.1766	101.074	74.9485	101.074	75.1364	101.074	75.0597
105.469	76.1806	105.469	76.0904	105.469	76.2306	105.469	75.9629	105.469	76.2407	105.469	75.8038	105.469	76.2142	105.469	75.6217	105.469	76.1572	105.469	75.4272	105.469	76.078	105.469	75.2326	105.469	75.9866	105.469	75.0506	105.469	75.8928	105.469	74.893	105.469	75.8049	105.469	74.7692	105.469	75.7281	105.469	74.6856	105.469	75.6634	105.469	74.6446	105.469	75.6084	105.469	74.6449	105.469	75.5585	105.469	74.6819	105.469	75.5085	105.469	74.7484	105.469	75.4536	105.469	74.836	105.469	75.3907	105.469	74.9358	105.469	75.3177	105.469	75.0395	105.469	75.2341	105.469	75.1405
108.398	76.9852	108.398	76.8937	108.398	77.0344	108.398	76.7637	108.398	77.0403	108.398	76.6015	108.398	77.0049	108.398	76.4161	108.398	76.9328	108.398	76.2182	108.398	76.8311	108.398	76.0198	108.398	76.7084	108.398	75.833	108.398	76.5742	108.398	75.6693	108.398	76.4379	108.398	75.5378	108.398	76.3074	108.398	75.444	108.398	76.1886	108.398	75.3898	108.398	76.0849	108.398	75.3727	108.398	75.9972	108.398	75.3871	108.398	75.9241	108.398	75.4252	108.398	75.8627	108.398	75.4782	108.398	75.8092	108.398	75.5382	108.398	75.7594	108.398	75.5989	108.398	75.7095	108.398	75.6564
112.793	77.8774	112.793	77.7683	112.793	77.946	112.793	77.6211	112.793	77.9745	112.793	77.4409	112.793	77.9657	112.793	77.2354	112.793	77.9244	112.793	77.0145	112.793	77.8572	112.793	76.79	112.793	77.7714	112.793	76.5743	112.793	77.6744	112.793	76.3795	112.793	77.5723	112.793	76.2168	112.793	77.4696	112.793	76.0946	112.793	77.3683	112.793	76.0185	112.793	77.2682	112.793	75.9895	112.793	77.1677	112.793	76.0052	112.793	77.0649	112.793	76.0592	112.793	76.9581	112.793	76.1431	112.793	76.8465	112.793	76.2476	112.793	76.7299	112.793	76.3644	112.793	76.6094	112.793	76.4866
117.188	78.6976	117.188	78.64	117.188	78.7142	117.188	78.5445	117.188	78.6891	117.188	78.4174	117.188	78.6249	117.188	78.2669	117.188	78.5268	117.188	78.1028	117.188	78.4024	117.188	77.9353	117.188	78.2607	117.188	77.774	117.188	78.1117	117.188	77.6272	117.188	77.9648	117.188	77.5008	117.188	77.8282	117.188	77.3982	117.188	77.708	117.188	77.3208	117.188	77.6073	117.188	77.2676	117.188	77.5266	117.188	77.2366	117.188	77.4636	117.188	77.2244	117.188	77.4149	117.188	77.2273	117.188	77.3763	117.188	77.2411	117.188	77.3437	117.188	77.2621	117.188	77.3145	117.188	77.2872
120.117	79.2045	120.117	79.1538	120.117	79.2162	120.117	79.0664	120.117	79.1893	120.117	78.9474	120.117	79.1274	120.117	78.8046	120.117	79.0366	120.117	78.6477	120.117	78.925	120.117	78.4871	120.117	78.8021	120.117	78.3333	120.117	78.6774	120.117	78.1953	120.117	78.5595	120.117	78.0801	120.117	78.455	120.117	77.9918	120.117	78.3679	120.117	77.9322	120.117	78.2997	120.117	77.9005	120.117	78.2491	120.117	77.894	120.117	78.2126	120.117	77.9088	120.117	78.1851	120.117	77.9393	120.117	78.1609	120.117	77.9797	120.117	78.135	120.117	78.0238	120.117	78.1039	120.117	78.0664
124.512	79.8765	124.512	79.8267	124.512	79.8903	124.512	79.7432	124.512	79.8693	124.512	79.632	124.512	79.818	124.512	79.5017	124.512	79.7437	124.512	79.3634	124.512	79.6556	124.512	79.229	124.512	79.5637	124.512	79.1096	124.512	79.4774	124.512	79.0145	124.512	79.4042	124.512	78.9493	124.512	79.3488	124.512	78.916	124.512	79.3127	124.512	78.9128	124.512	79.2944	124.512	78.9352	124.512	79.29	124.512	78.977	124.512	79.2941	124.512	79.0315	124.512	79.3005	124.512	79.0919	124.512	79.3033	124.512	79.1517	124.512	79.2976	124.512	79.2055	124.512	79.2801	124.512	79.2492
128.906	80.7658	128.906	80.6962	128.906	80.7951	128.906	80.5898	128.906	80.7846	128.906	80.4539	128.906	80.7386	128.906	80.2988	128.906	80.6645	128.906	80.1372	128.906	80.5718	128.906	79.9823	128.906	80.4711	128.906	79.8468	128.906	80.3726	128.906	79.7411	128.906	80.2857	128.906	79.6721	128.906	80.2169	128.906	79.6418	128.906	80.17	128.906	79.6479	128.906	80.1447	128.906	79.6844	128.906	80.1375	128.906	79.743	128.906	80.142	128.906	79.8149	128.906	80.1501	128.906	79.8917	128.906	80.1539	128.906	79.9663	128.906	80.147	128.906	80.0329	128.906	80.1252	128.906	80.0868
133.301	81.5863	133.301	81.5228	133.301	81.6078	133.301	81.42	133.301	81.5887	133.301	81.2847	133.301	81.5342	133.301	81.1274	133.301	81.4529	133.301	80.9609	133.301	81.3551	133.301	80.7995	133.301	81.2518	133.301	80.6564	133.301	81.1533	133.301	80.5431	133.301	81.0677	133.301	80.4671	133.301	81.0007	133.301	80.4312	133.301	80.9547	133.301	80.4337	133.301	80.929	133.301	80.469	133.301	80.9203	133.301	80.5288	133.301	80.9235	133.301	80.6037	133.301	80.9319	133.301	80.6843	133.301	80.938	133.301	80.762	133.301	80.935	133.301	80.8298	133.301	80.9175	133.301	80.8825
139.16	82.7057	139.16	82.65	139.16	82.7165	139.16	82.5515	139.16	82.6846	139.16	82.4163	139.16	82.616	139.16	82.2544	139.16	82.5201	139.16	82.0791	139.16	82.4085	139.16	81.9054	139.16	82.2937	139.16	81.7486	139.16	82.1876	139.16	81.6223	139.16	82.1	139.16	81.537	139.16	82.0375	139.16	81.4978	139.16	82.0024	139.16	81.5043	139.16	81.9933	139.16	81.5508	139.16	82.0049	139.16	81.6276	139.16	82.0297	139.16	81.7224	139.16	82.0588	139.16	81.8226	139.16	82.0829	139.16	81.9167	139.16	82.0938	139.16	81.9954	139.16	82.085	139.16	82.0524
143.555	83.4364	143.555	83.3877	143.555	83.4376	143.555	83.2936	143.555	83.3938	143.555	83.1607	143.555	83.3114	143.555	82.9993	143.555	83.201	143.555	82.8229	143.555	83.0751	143.555	82.6465	143.555	82.9474	143.555	82.4855	143.555	82.831	143.555	82.3533	143.555	82.7362	143.555	82.2601	143.555	82.6693	143.555	82.2116	143.555	82.6326	143.555	82.2082	143.555	82.624	143.555	82.2455	143.555	82.6383	143.555	82.3149	143.555	82.6676	143.555	82.4046	143.555	82.7028	143.555	82.5018	143.555	82.7342	143.555	82.5939	143.555	82.7527	143.555	82.6702	143.555	82.7507	143.555	82.7235
147.949	84.1605	147.949	84.1125	147.949	84.1612	147.949	84.0195	147.949	84.1167	147.949	83.8883	147.949	84.0333	147.949	83.7296	147.949	83.9211	147.949	83.5572	147.949	83.793	147.949	83.3862	147.949	83.6631	147.949	83.2316	147.949	83.545	147.949	83.1063	147.949	83.45	147.949	83.0194	147.949	83.3847	147.949	82.9755	147.949	83.3509	147.949	82.974	147.949	83.3456	147.949	83.0102	147.949	83.3621	147.949	83.0757	147.949	83.3921	147.949	83.1596	147.949	83.4267	147.949	83.2498	147.949	83.457	147.949	83.3346	147.949	83.4754	147.949	83.404	147.949	83.4751	147.949	83.4517
153.809	84.9778	153.809	84.936	153.809	84.9663	153.809	84.8434	153.809	84.9039	153.809	84.7084	153.809	84.7984	153.809	84.5439	153.809	84.6619	153.809	84.3663	153.809	84.5096	153.809	84.1942	153.809	84.3583	153.809	84.0455	153.809	84.2241	153.809	83.9346	153.809	84.1205	153.809	83.8705	153.809	84.0563	153.809	83.8549	153.809	84.0345	153.809	83.8831	153.809	84.0519	153.809	83.9455	153.809	84.1003	153.809	84.0301	153.809	84.168	153.809	84.1241	153.809	84.242	153.809	84.2158	153.809	84.3097	153.809	84.2948	153.809	84.3605	153.809	84.353	153.809	84.3869	153.809	84.3846
159.668	85.7197	159.668	85.6702	159.668	85.7118	159.668	85.567	159.668	85.6489	159.668	85.4189	159.668	85.5384	159.668	85.2395	159.668	85.3929	159.668	85.0461	159.668	85.2284	159.668	84.8577	159.668	85.0629	159.668	84.6934	159.668	84.9142	159.668	84.569	159.668	84.7973	159.668	84.4956	159.668	84.7225	159.668	84.4771	159.668	84.6939	159.668	84.5106	159.668	84.7093	159.668	84.5866	159.668	84.7609	159.668	84.6912	159.668	84.8368	159.668	84.8084	159.668	84.9234	159.668	84.922	159.668	85.0064	159.668	85.0179	159.668	85.0728	159.668	85.0851	159.668	85.1121	159.668	85.1172
165.527	86.3864	165.527	86.3373	165.527	86.375	165.527	86.2308	165.527	86.306	165.527	86.076	165.527	86.1884	165.527	85.8878	165.527	86.0358	165.527	85.6852	165.527	85.8658	165.527	85.4896	165.527	85.6977	165.527	85.3217	165.527	85.5502	165.527	85.1984	165.527	85.4389	165.527	85.13	165.527	85.3735	165.527	85.1189	165.527	85.3568	165.527	85.1596	165.527	85.3846	165.527	85.2413	165.527	85.4467	165.527	85.3496	165.527	85.5297	165.527	85.4693	165.527	85.6191	165.527	85.5854	165.527	85.7009	165.527	85.6848	165.527	85.7632	165.527	85.757	165.527	85.7965	165.527	85.7951
171.387	87.0659	171.387	87.0132	171.387	87.0495	171.387	86.8942	171.387	86.9674	171.387	86.7188	171.387	86.8297	171.387	86.5027	171.387	86.6519	171.387	86.2668	171.387	86.4538	171.387	86.0351	171.387	86.2574	171.387	85.8316	171.387	86.084	171.387	85.6766	171.387	85.9516	171.387	85.5832	171.387	85.8715	171.387	85.5555	171.387	85.8468	171.387	85.5882	171.387	85.8724	171.387	85.6694	171.387	85.9368	171.387	85.783	171.387	86.0242	171.387	85.9119	171.387	86.1181	171.387	86.0397	171.387	86.2025	171.387	86.1517	171.387	86.2644	171.387	86.236	171.387	86.2937	171.387	86.2846
177.246	87.5489	177.246	87.5161	177.246	87.5093	177.246	87.4132	177.246	87.4016	177.246	87.2494	177.246	87.2365	177.246	87.0399	177.246	87.0304	177.246	86.8055	177.246	86.8044	177.246	86.5702	177.246	86.5818	177.246	86.359	177.246	86.3863	177.246	86.194	177.246	86.2383	177.246	86.0899	177.246	86.1513	177.246	86.0519	177.246	86.1294	177.246	86.075	177.246	86.1664	177.246	86.1462	177.246	86.2478	177.246	86.2487	177.246	86.3545	177.246	86.3651	177.246	86.467	177.246	86.4794	177.246	86.5677	177.246	86.578	177.246	86.6433	177.246	86.6497	177.246	86.6845	177.246	86.6866
183.105	87.7986	183.105	87.7738	183.105	87.7481	183.105	87.6766	183.105	87.6265	183.105	87.5175	183.105	87.4455	183.105	87.3134	183.105	87.2232	183.105	87.0871	183.105	86.9825	183.105	86.8648	183.105	86.7495	183.105	86.6734	183.105	86.5501	183.105	86.5358	183.105	86.4072	183.105	86.4664	183.105	86.3367	183.105	86.4674	183.105	86.3436	183.105	86.5292	183.105	86.4206	183.105	86.6338	183.105	86.5497	183.105	86.7604	183.105	86.7062	183.105	86.8898	183.105	86.8647	183.105	87.0073	183.105	87.0039	183.105	87.1017	183.105	87.1089	183.105	87.1646	183.105	87.1715	183.105	87.1894
188.965	88.0368	188.965	87.9986	188.965	87.9921	188.965	87.8811	188.965	87.8686	188.965	87.6957	188.965	87.678	188.965	87.4604	188.965	87.4389	188.965	87.1995	188.965	87.1753	188.965	86.9413	188.965	86.9144	188.965	86.7165	188.965	86.6839	188.965	86.5534	188.965	86.5092	188.965	86.4729	188.965	86.4101	188.965	86.4826	188.965	86.3971	188.965	86.5738	188.965	86.4685	188.965	86.7242	188.965	86.6094	188.965	86.9038	188.965	86.7941	188.965	87.0837	188.965	86.9918	188.965	87.2408	188.965	87.1738	188.965	87.3596	188.965	87.3181	188.965	87.4308	188.965	87.4116	188.965	87.4492
196.289	88.3782	196.289	88.3432	196.289	88.3213	196.289	88.2196	196.289	88.1778	196.289	88.0191	196.289	87.9615	196.289	87.761	196.289	87.6934	196.289	87.4712	196.289	87.3997	196.289	87.1794	196.289	87.1103	196.289	86.9168	196.289	86.8546	196.289	86.712	196.289	86.6588	196.289	86.5861	196.289	86.5415	196.289	86.549	196.289	86.5111	196.289	86.5966	196.289	86.5637	196.289	86.7124	196.289	86.6843	196.289	86.8714	196.289	86.8496	196.289	87.0461	196.289	87.0318	196.289	87.2107	196.289	87.2039	196.289	87.3443	196.289	87.3427	196.289	87.4314	196.289	87.4318	196.289	87.462
203.613	88.4479	203.613	88.4075	203.613	88.3916	203.613	88.2734	203.613	88.245	203.613	88.0577	203.613	88.0231	203.613	87.7812	203.613	87.7481	203.613	87.4718	203.613	87.4477	203.613	87.1623	203.613	87.1525	203.613	86.887	203.613	86.8926	203.613	86.677	203.613	86.6942	203.613	86.5551	203.613	86.5765	203.613	86.5304	203.613	86.5486	203.613	86.5966	203.613	86.608	203.613	86.7339	203.613	86.7399	203.613	86.9142	203.613	86.9197	203.613	87.108	203.613	87.1172	203.613	87.289	203.613	87.3025	203.613	87.4361	203.613	87.4501	203.613	87.5335	203.613	87.5425	203.613	87.5707
210.938	88.4205	210.938	88.3636	210.938	88.3792	210.938	88.2119	210.938	88.2452	210.938	87.9776	210.938	88.0322	210.938	87.681	210.938	87.7613	210.938	87.3496	210.938	87.4596	210.938	87.0162	210.938	87.1575	210.938	86.7168	210.938	86.8864	210.938	86.4866	210.938	86.6749	210.938	86.3547	210.938	86.5453	210.938	86.3368	210.938	86.5095	210.938	86.4294	210.938	86.5665	210.938	86.6092	210.938	86.7023	210.938	86.8397	210.938	86.8913	210.938	87.0814	210.938	87.1022	210.938	87.2998	210.938	87.3029	210.938	87.4699	210.938	87.4665	210.938	87.5763	210.938	87.5731	210.938	87.6112
218.262	88.2138	218.262	88.1702	218.262	88.1566	218.262	88.0291	218.262	88.0048	218.262	87.8033	218.262	87.7741	218.262	87.5143	218.262	87.4879	218.262	87.1906	218.262	87.1764	218.262	86.8648	218.262	86.8731	218.262	86.5717	218.262	86.6118	218.262	86.3442	218.262	86.4215	218.262	86.2102	218.262	86.3222	218.262	86.1877	218.262	86.3222	218.262	86.2799	218.262	86.4174	218.262	86.4719	218.262	86.5924	218.262	86.7321	218.262	86.8224	218.262	87.0186	218.262	87.0762	218.262	87.289	218.262	87.3198	218.262	87.5073	218.262	87.5207	218.262	87.6483	218.262	87.6526	218.262	87.6977
225.586	88.2626	225.586	88.2323	225.586	88.1824	225.586	88.095	225.586	87.9984	225.586	87.8642	225.586	87.7269	225.586	87.5622	225.586	87.3934	225.586	87.2194	225.586	87.0304	225.586	86.8712	225.586	86.6752	225.586	86.5556	225.586	86.366	225.586	86.3086	225.586	86.1369	225.586	86.1593	225.586	86.013	225.586	86.1253	225.586	86.005	225.586	86.2077	225.586	86.1079	225.586	86.3894	225.586	86.3019	225.586	86.6375	225.586	86.5563	225.586	86.9105	225.586	86.8349	225.586	87.1667	225.586	87.101	225.586	87.3707	225.586	87.3216	225.586	87.4971	225.586	87.4708	225.586	87.5317
232.91	88.2209	232.91	88.1777	232.91	88.1454	232.91	88.0221	232.91	87.9559	232.91	87.771	232.91	87.6682	232.91	87.4504	232.91	87.3081	232.91	87.0928	232.91	86.9098	232.91	86.734	232.91	86.5129	232.91	86.409	232.91	86.1578	232.91	86.1487	232.91	85.8805	232.91	85.9781	232.91	85.7081	232.91	85.9136	232.91	85.6547	232.91	85.96	232.91	85.7198	232.91	86.1073	232.91	85.8887	232.91	86.3286	232.91	86.1333	232.91	86.5847	232.91	86.4163	232.91	86.8317	232.91	86.6965	232.91	87.0304	232.91	86.9353	232.91	87.151	232.91	87.1019	232.91	87.1764
241.699	87.8683	241.699	87.8065	241.699	87.8025	241.699	87.6223	241.699	87.6162	241.699	87.3332	241.699	87.3279	241.699	86.9688	241.699	86.9666	241.699	86.5688	241.699	86.5695	241.699	86.1788	241.699	86.1795	241.699	85.8432	241.699	85.8396	241.699	85.5974	241.699	85.5857	241.699	85.462	241.699	85.4406	241.699	85.4417	241.699	85.4105	241.699	85.5277	241.699	85.4867	241.699	85.7014	241.699	85.6499	241.699	85.9358	241.699	85.8743	241.699	86.1969	241.699	86.1297	241.699	86.4473	241.699	86.3828	241.699	86.6508	241.699	86.5995	241.699	86.7784	241.699	86.75	241.699	86.8128
250.488	87.7391	250.488	87.6962	250.488	87.6398	250.488	87.5156	250.488	87.4052	250.488	87.2128	250.488	87.0537	250.488	86.8145	250.488	86.6168	250.488	86.359	250.488	86.1388	250.488	85.8945	250.488	85.675	250.488	85.4742	250.488	85.2845	250.488	85.1482	250.488	85.0174	250.488	84.9532	250.488	84.9005	250.488	84.9047	250.488	84.9296	250.488	84.9947	250.488	85.0757	250.488	85.1955	250.488	85.2985	250.488	85.4677	250.488	85.56	250.488	85.7667	250.488	85.8289	250.488	86.0494	250.488	86.079	250.488	86.2778	250.488	86.2851	250.488	86.4242	250.488	86.4231	250.488	86.4732
259.277	87.6127	259.277	87.5927	259.277	87.4778	259.277	87.4227	259.277	87.1955	259.277	87.1202	259.277	86.7862	259.277	86.7157	259.277	86.2831	259.277	86.251	259.277	85.7319	259.277	85.7765	259.277	85.1901	259.277	85.3459	259.277	84.7215	259.277	85.0087	259.277	84.3859	259.277	84.8023	259.277	84.2229	259.277	84.7454	259.277	84.2392	259.277	84.8348	259.277	84.4086	259.277	85.0454	259.277	84.6851	259.277	85.335	259.277	85.0201	259.277	85.6516	259.277	85.3715	259.277	85.9436	259.277	85.7042	259.277	86.1667	259.277	85.9875	259.277	86.2901	259.277	86.1933	259.277	86.2988
268.066	87.2442	268.066	87.2291	268.066	87.0924	268.066	87.0559	268.066	86.7796	268.066	86.7473	268.066	86.3273	268.066	86.3364	268.066	85.7713	268.066	85.8652	268.066	85.1602	268.066	85.3805	268.066	84.5534	268.066	84.9311	268.066	84.0203	268.066	84.5644	268.066	83.634	268.066	84.323	268.066	83.4542	268.066	84.2399	268.066	83.5021	268.066	84.3293	268.066	83.7471	268.066	84.5738	268.066	84.121	268.066	84.9218	268.066	84.5483	268.066	85.3001	268.066	84.9693	268.066	85.6369	268.066	85.3453	268.066	85.8793	268.066	85.6527	268.066	86.0005	268.066	85.8749	268.066	85.9959
276.855	86.765	276.855	86.8189	276.855	86.5747	276.855	86.7305	276.855	86.2603	276.855	86.5051	276.855	85.8367	276.855	86.1638	276.855	85.3193	276.855	85.7469	276.855	84.7272	276.855	85.3112	276.855	84.0887	276.855	84.9216	276.855	83.4493	276.855	84.6333	276.855	82.8765	276.855	84.4756	276.855	82.4561	276.855	84.4482	276.855	82.2735	276.855	84.5337	276.855	82.381	276.855	84.7147	276.855	82.7692	276.855	84.9759	276.855	83.365	276.855	85.2907	276.855	84.0594	276.855	85.611	276.855	84.7423	276.855	85.8717	276.855	85.3244	276.855	86.0089	276.855	85.7456	276.855	85.9748
287.109	85.9977	287.109	86.1202	287.109	85.7218	287.109	86.0834	287.109	85.3089	287.109	85.8929	287.109	84.7857	287.109	85.5679	287.109	84.1886	287.109	85.1434	287.109	83.5628	287.109	84.6724	287.109	82.9617	287.109	84.2252	287.109	82.4438	287.109	83.8787	287.109	82.069	287.109	83.6944	287.109	81.8897	287.109	83.6941	287.109	81.9378	287.109	83.8559	287.109	82.212	287.109	84.134	287.109	82.6726	287.109	84.4788	287.109	83.2519	287.109	84.8441	287.109	83.873	287.109	85.1824	287.109	84.4649	287.109	85.4424	287.109	84.9689	287.109	85.5749	287.109	85.3391	287.109	85.5448
297.363	86.502	297.363	86.6766	297.363	86.152	297.363	86.6902	297.363	85.6261	297.363	86.5647	297.363	84.9423	297.363	86.3222	297.363	84.1387	297.363	85.9841	297.363	83.2734	297.363	85.5754	297.363	82.427	297.363	85.1334	297.363	81.7018	297.363	84.7121	297.363	81.2088	297.363	84.376	297.363	81.0326	297.363	84.1821	297.363	81.1902	297.363	84.1611	297.363	81.6244	297.363	84.3088	297.363	82.2404	297.363	84.5904	297.363	82.9476	297.363	84.9472	297.363	83.6743	297.363	85.3043	297.363	84.361	297.363	85.5822	297.363	84.9521	297.363	85.7137	297.363	85.3966	297.363	85.6559
307.617	87.4548	307.617	87.5275	307.617	87.176	307.617	87.4069	307.617	86.7022	307.617	87.1257	307.617	86.0672	307.617	86.7282	307.617	85.3232	307.617	86.2607	307.617	84.5305	307.617	85.7651	307.617	83.747	307.617	85.2833	307.617	83.0224	307.617	84.8662	307.617	82.4038	307.617	84.5748	307.617	81.9519	307.617	84.4586	307.617	81.7511	307.617	84.5214	307.617	81.8818	307.617	84.7104	307.617	82.3531	307.617	84.9479	307.617	83.0644	307.617	85.1753	307.617	83.8535	307.617	85.3706	307.617	84.5735	307.617	85.5295	307.617	85.1298	307.617	85.6335	307.617	85.4824	307.617	85.6367
319.336	87.6006	319.336	87.6719	319.336	87.2773	319.336	87.497	319.336	86.719	319.336	87.1071	319.336	85.965	319.336	86.5612	319.336	85.0771	319.336	85.9441	319.336	84.1432	319.336	85.3535	319.336	83.2742	319.336	84.8736	319.336	82.5874	319.336	84.55	319.336	82.1684	319.336	84.3875	319.336	82.0362	319.336	84.3753	319.336	82.1476	319.336	84.5079	319.336	82.4406	319.336	84.7796	319.336	82.8727	319.336	85.1588	319.336	83.4214	319.336	85.5756	319.336	84.0532	319.336	85.9404	319.336	84.706	319.336	86.1756	319.336	85.3043	319.336	86.2346	319.336	85.7837	319.336	86.1016
329.59	87.2949	329.59	87.4119	329.59	86.9573	329.59	87.3127	329.59	86.4113	329.59	87.0181	329.59	85.6854	329.59	86.5634	329.59	84.8225	329.59	85.9983	329.59	83.8802	329.59	85.3873	329.59	82.937	329.59	84.81	329.59	82.1002	329.59	84.352	329.59	81.5022	329.59	84.0864	329.59	81.2592	329.59	84.049	329.59	81.4016	329.59	84.2261	329.59	81.8485	329.59	84.5632	329.59	82.4659	329.59	84.9848	329.59	83.1433	329.59	85.4105	329.59	83.8207	329.59	85.7647	329.59	84.4679	329.59	85.9842	329.59	85.0549	329.59	86.0263	329.59	85.5391	329.59	85.8743
341.309	87.3868	341.309	87.5269	341.309	86.9705	341.309	87.4019	341.309	86.2958	341.309	87.0505	341.309	85.4092	341.309	86.5362	341.309	84.3828	341.309	85.9397	341.309	83.304	341.309	85.3441	341.309	82.2644	341.309	84.819	341.309	81.3556	341.309	84.4117	341.309	80.6761	341.309	84.1512	341.309	80.336	341.309	84.0542	341.309	80.4291	341.309	84.1246	341.309	80.9628	341.309	84.347	341.309	81.8198	341.309	84.6847	341.309	82.8171	341.309	85.083	341.309	83.7927	341.309	85.4748	341.309	84.6395	341.309	85.7904	341.309	85.298	341.309	85.9675	341.309	85.7404	341.309	85.96
353.027	87.0483	353.027	87.269	353.027	86.5791	353.027	87.2393	353.027	85.8832	353.027	86.9739	353.027	85.0057	353.027	86.505	353.027	84.0143	353.027	85.8884	353.027	82.9895	353.027	85.2092	353.027	82.0126	353.027	84.5754	353.027	81.1552	353.027	84.0924	353.027	80.4804	353.027	83.8275	353.027	80.0507	353.027	83.7934	353.027	79.9337	353.027	83.9611	353.027	80.1913	353.027	84.2823	353.027	80.8364	353.027	84.6998	353.027	81.7861	353.027	85.147	353.027	82.8762	353.027	85.5509	353.027	83.9309	353.027	85.8399	353.027	84.8175	353.027	85.9514	353.027	85.4612	353.027	85.8361
366.211	86.8127	366.211	86.9373	366.211	86.3705	366.211	86.7616	366.211	85.6249	366.211	86.3366	366.211	84.6214	366.211	85.7432	366.211	83.4442	366.211	85.0796	366.211	82.2241	366.211	84.4416	366.211	81.1301	366.211	83.9104	366.211	80.3221	366.211	83.5533	366.211	79.8881	366.211	83.4221	366.211	79.8274	366.211	83.5348	366.211	80.0945	366.211	83.8556	366.211	80.638	366.211	84.301	366.211	81.3934	366.211	84.7732	366.211	82.2659	366.211	85.1914	366.211	83.1483	366.211	85.5015	366.211	83.9549	366.211	85.6704	366.211	84.634	366.211	85.6768	366.211	85.1571	366.211	85.507
379.395	86.9386	379.395	87.1048	379.395	86.4383	379.395	86.9485	379.395	85.6178	379.395	86.506	379.395	84.5185	379.395	85.8391	379.395	83.2118	379.395	85.0366	379.395	81.802	379.395	84.2085	379.395	80.4301	379.395	83.4685	379.395	79.2732	379.395	82.9089	379.395	78.5197	379.395	82.5917	379.395	78.3006	379.395	82.5536	379.395	78.6213	379.395	82.8035	379.395	79.3692	379.395	83.3045	379.395	80.3883	379.395	83.9618	379.395	81.5348	379.395	84.6442	379.395	82.6849	379.395	85.2252	379.395	83.7347	379.395	85.6136	379.395	84.6059	379.395	85.7576	379.395	85.2489	379.395	85.6367
392.578	86.9013	392.578	87.0654	392.578	86.4264	392.578	86.9345	392.578	85.639	392.578	86.5369	392.578	84.5565	392.578	85.9155	392.578	83.2213	392.578	85.1361	392.578	81.7097	392.578	84.2971	392.578	80.1503	392.578	83.5249	392.578	78.7428	392.578	82.946	392.578	77.7474	392.578	82.6408	392.578	77.3912	392.578	82.618	392.578	77.7203	392.578	82.8324	392.578	78.5674	392.578	83.2218	392.578	79.6921	392.578	83.7228	392.578	80.9093	392.578	84.264	392.578	82.1026	392.578	84.7598	392.578	83.1884	392.578	85.1207	392.578	84.0947	392.578	85.2704	392.578	84.7633	392.578	85.1581
405.762	86.9487	405.762	87.0729	405.762	86.456	405.762	86.8343	405.762	85.6182	405.762	86.2772	405.762	84.4806	405.762	85.4903	405.762	83.1038	405.762	84.6034	405.762	81.5628	405.762	83.7605	405.762	79.9568	405.762	83.0793	405.762	78.4288	405.762	82.6264	405.762	77.1914	405.762	82.4298	405.762	76.5457	405.762	82.4989	405.762	76.7703	405.762	82.8171	405.762	77.8084	405.762	83.3249	405.762	79.2632	405.762	83.9247	405.762	80.772	405.762	84.5122	405.762	82.1571	405.762	85.003	405.762	83.3465	405.762	85.3374	405.762	84.2962	405.762	85.4695	405.762	84.9716	405.762	85.3584
420.41	87.0395	420.41	87.2306	420.41	86.4204	420.41	87.0327	420.41	85.3728	420.41	86.505	420.41	83.9529	420.41	85.7154	420.41	82.2811	420.41	84.7417	420.41	80.5273	420.41	83.6924	420.41	78.8692	420.41	82.7303	420.41	77.449	420.41	82.0535	420.41	76.3723	420.41	81.7965	420.41	75.7592	420.41	81.9406	420.41	75.8081	420.41	82.3677	420.41	76.6855	420.41	82.9764	420.41	78.2171	420.41	83.7088	420.41	79.9651	420.41	84.4949	420.41	81.609	420.41	85.214	420.41	83.0339	420.41	85.7215	420.41	84.2147	420.41	85.9017	420.41	85.1212	420.41	85.6994
435.059	86.9159	435.059	87.0865	435.059	86.3147	435.059	86.8557	435.059	85.2834	435.059	86.2789	435.059	83.8579	435.059	85.4363	435.059	82.1211	435.059	84.4307	435.059	80.2222	435.059	83.3824	435.059	78.3894	435.059	82.4201	435.059	76.8906	435.059	81.6704	435.059	75.9151	435.059	81.2459	435.059	75.4825	435.059	81.2229	435.059	75.5532	435.059	81.606	435.059	76.2272	435.059	82.3092	435.059	77.6257	435.059	83.1797	435.059	79.5138	435.059	84.0519	435.059	81.4233	435.059	84.7903	435.059	83.0339	435.059	85.3035	435.059	84.2361	435.059	85.5362	435.059	85.0318	435.059	85.4547
451.172	87.3701	451.172	87.4961	451.172	86.7776	451.172	87.1836	451.172	85.7211	451.172	86.4979	451.172	84.2343	451.172	85.5419	451.172	82.3967	451.172	84.4417	451.172	80.366	451.172	83.3215	451.172	78.4016	451.172	82.2944	451.172	76.8173	451.172	81.4852	451.172	75.8353	451.172	81.0435	451.172	75.4868	451.172	81.0814	451.172	75.7001	451.172	81.5582	451.172	76.438	451.172	82.2837	451.172	77.6695	451.172	83.0533	451.172	79.2228	451.172	83.7353	451.172	80.8108	451.172	84.2615	451.172	82.2023	451.172	84.5895	451.172	83.2909	451.172	84.6835	451.172	84.0565	451.172	84.5137
465.82	86.9017	465.82	87.1466	465.82	86.2027	465.82	86.9242	465.82	85.0968	465.82	86.2639	465.82	83.6554	465.82	85.2484	465.82	81.9659	465.82	84.0192	465.82	80.1263	465.82	82.77	465.82	78.2522	465.82	81.7117	465.82	76.5036	465.82	81.0227	465.82	75.13	465.82	80.8089	465.82	74.4742	465.82	81.0748	465.82	74.7878	465.82	81.7147	465.82	75.9491	465.82	82.5627	465.82	77.5781	465.82	83.4691	465.82	79.3771	465.82	84.3326	465.82	81.1798	465.82	85.0787	465.82	82.8449	465.82	85.6274	465.82	84.228	465.82	85.8864	465.82	85.2195	465.82	85.7692
483.398	86.9244	483.398	87.1124	483.398	86.2408	483.398	86.8377	483.398	85.0556	483.398	86.1481	483.398	83.3995	483.398	85.1113	483.398	81.3284	483.398	83.8418	483.398	78.8982	483.398	82.5201	483.398	76.1851	483.398	81.3504	483.398	73.4304	483.398	80.4706	483.398	71.2649	483.398	79.9459	483.398	70.6138	483.398	79.8637	483.398	71.7824	483.398	80.3421	483.398	73.8777	483.398	81.3551	483.398	76.0836	483.398	82.6379	483.398	78.2359	483.398	83.8677	483.398	80.3248	483.398	84.8354	483.398	82.2171	483.398	85.4481	483.398	83.7516	483.398	85.6696	483.398	84.8428	483.398	85.4761
499.512	87.1736	499.512	87.338	499.512	86.465	499.512	86.9913	499.512	85.1816	499.512	86.1659	499.512	83.3154	499.512	84.9086	499.512	80.9189	499.512	83.3254	499.512	78.1659	499.512	81.6551	499.512	75.4265	499.512	80.2983	499.512	73.2303	499.512	79.6249	499.512	71.761	499.512	79.6681	499.512	70.5803	499.512	80.1944	499.512	70.1284	499.512	80.9999	499.512	72.2923	499.512	82.0004	499.512	75.858	499.512	83.1422	499.512	79.0183	499.512	84.3187	499.512	81.521	499.512	85.3782	499.512	83.4856	499.512	86.1732	499.512	84.985	499.512	86.5892	499.512	86.0145	499.512	86.5493
517.09	87.7839	517.09	87.97	517.09	87.0147	517.09	87.5974	517.09	85.6672	517.09	86.7182	517.09	83.7797	517.09	85.4074	517.09	81.445	517.09	83.7567	517.09	78.8462	517.09	81.8989	517.09	76.2798	517.09	80.0966	517.09	74.0786	517.09	78.8058	517.09	72.3552	517.09	78.3947	517.09	70.7837	517.09	78.7526	517.09	69.0285	517.09	79.5548	517.09	68.7383	517.09	80.6236	517.09	72.0585	517.09	81.879	517.09	75.9226	517.09	83.1687	517.09	78.9553	517.09	84.2585	517.09	81.2501	517.09	84.9582	517.09	82.9733	517.09	85.1855	517.09	84.1932	517.09	84.9291
536.133	87.7813	536.133	87.9633	536.133	86.9623	536.133	87.5577	536.133	85.4892	536.133	86.6339	536.133	83.3931	536.133	85.2788	536.133	80.778	536.133	83.6114	536.133	77.9033	536.133	81.8062	536.133	75.3179	536.133	80.0938	536.133	73.673	536.133	78.7269	536.133	72.9565	536.133	77.9598	536.133	72.3627	536.133	78.0254	536.133	70.9775	536.133	78.9293	536.133	68.9947	536.133	80.3079	536.133	70.8468	536.133	81.7225	536.133	75.3592	536.133	82.9421	536.133	78.9494	536.133	83.9214	536.133	81.5685	536.133	84.6586	536.133	83.4278	536.133	85.0973	536.133	84.5949	536.133	85.1197
555.176	88.1054	555.176	88.2866	555.176	87.275	555.176	87.865	555.176	85.795	555.176	86.9131	555.176	83.7109	555.176	85.5062	555.176	81.0804	555.176	83.7141	555.176	77.9555	555.176	81.6497	555.176	74.5697	555.176	79.6016	555.176	71.7875	555.176	78.0876	555.176	70.5967	555.176	77.4917	555.176	70.7081	555.176	77.7233	555.176	70.9379	555.176	78.5576	555.176	70.3078	555.176	79.8567	555.176	70.64	555.176	81.4263	555.176	74.6246	555.176	83.007	555.176	78.6831	555.176	84.3933	555.176	81.6351	555.176	85.4405	555.176	83.7456	555.176	86.003	555.176	85.1835	555.176	85.9413
574.219	88.2053	574.219	88.4104	574.219	87.2646	574.219	87.9003	574.219	85.5939	574.219	86.7478	574.219	83.1975	574.219	85.0955	574.219	80.0934	574.219	83.1413	574.219	76.4672	574.219	81.0516	574.219	73.1251	574.219	78.8805	574.219	71.3882	574.219	76.7809	574.219	70.8637	574.219	75.4975	574.219	70.0759	574.219	75.9268	574.219	68.2277	574.219	77.5801	574.219	64.6751	574.219	79.448	574.219	61.6681	574.219	81.1422	574.219	69.2979	574.219	82.6198	574.219	75.5709	574.219	83.8276	574.219	79.6524	574.219	84.6546	574.219	82.2875	574.219	84.9987	574.219	83.9157	574.219	84.7792
594.727	87.9318	594.727	88.2741	594.727	86.9044	594.727	87.9085	594.727	85.1952	594.727	86.8334	594.727	82.8103	594.727	85.1113	594.727	79.8515	594.727	82.9075	594.727	76.598	594.727	80.5458	594.727	73.6486	594.727	78.4545	594.727	72.1798	594.727	76.9043	594.727	72.4336	594.727	76.0221	594.727	72.8057	594.727	76.0478	594.727	72.1693	594.727	77.0663	594.727	70.0842	594.727	78.7136	594.727	66.3659	594.727	80.5161	594.727	65.9556	594.727	82.1618	594.727	72.5746	594.727	83.464	594.727	77.6475	594.727	84.2868	594.727	80.9481	594.727	84.531	594.727	82.9977	594.727	84.1304
615.234	87.9623	615.234	88.3318	615.234	86.7834	615.234	87.9235	615.234	84.7852	615.234	86.7764	615.234	81.9796	615.234	84.9447	615.234	78.3459	615.234	82.5324	615.234	73.7206	615.234	79.821	615.234	68.2125	615.234	77.5141	615.234	66.8103	615.234	76.3925	615.234	70.2511	615.234	76.3286	615.234	72.7939	615.234	76.9361	615.234	73.5927	615.234	78.1556	615.234	72.127	615.234	79.7626	615.234	67.4732	615.234	81.4105	615.234	66.5878	615.234	82.9058	615.234	73.732	615.234	84.129	615.234	78.5087	615.234	84.9411	615.234	81.7161	615.234	85.2233	615.234	83.7682	615.234	84.8773
637.207	88.138	637.207	88.5382	637.207	86.8205	637.207	88.1439	637.207	84.4545	637.207	87.039	637.207	80.8536	637.207	85.2371	637.207	75.6113	637.207	82.721	637.207	67.5641	637.207	79.4938	637.207	62.015	637.207	75.6482	637.207	67.9107	637.207	72.2835	637.207	70.9846	637.207	72.3914	637.207	72.7288	637.207	74.7913	637.207	73.4706	637.207	77.2556	637.207	72.7403	637.207	79.5374	637.207	69.2077	637.207	81.6514	637.207	54.0348	637.207	83.453	637.207	70.2539	637.207	84.7585	637.207	77.3181	637.207	85.4475	637.207	81.1898	637.207	85.4862	637.207	83.5256	637.207	84.8735
659.18	88.4796	659.18	89.0126	659.18	86.9248	659.18	88.6141	659.18	84.1882	659.18	87.3908	659.18	79.9435	659.18	85.4873	659.18	73.4925	659.18	83.0311	659.18	63.3882	659.18	80.1461	659.18	64.1211	659.18	77.0887	659.18	68.5535	659.18	74.3166	659.18	70.8681	659.18	72.898	659.18	72.6134	659.18	73.9016	659.18	73.9904	659.18	76.169	659.18	74.2224	659.18	78.6301	659.18	72.438	659.18	81.0354	659.18	67.9686	659.18	83.2429	659.18	68.5439	659.18	84.9569	659.18	75.2568	659.18	85.8839	659.18	79.8549	659.18	85.8795	659.18	82.9386	659.18	84.9059
682.617	88.51	682.617	89.4623	682.617	86.3029	682.617	89.2911	682.617	82.6365	682.617	88.1185	682.617	77.0454	682.617	86.0897	682.617	67.5135	682.617	83.3219	682.617	61.7083	682.617	79.8078	682.617	69.9815	682.617	75.5631	682.617	73.0871	682.617	71.5344	682.617	74.7614	682.617	70.5515	682.617	75.694	682.617	72.7122	682.617	75.9614	682.617	75.5172	682.617	75.5189	682.617	78.0516	682.617	73.85	682.617	80.2399	682.617	68.7231	682.617	82.1517	682.617	64.4509	682.617	83.7331	682.617	75.3011	682.617	84.7859	682.617	80.0855	682.617	85.085	682.617	82.8335	682.617	84.4578
707.52	87.8719	707.52	88.9155	707.52	85.7168	707.52	88.9308	707.52	82.1464	707.52	87.9492	707.52	76.1973	707.52	86.046	707.52	64.4932	707.52	83.3729	707.52	69.1293	707.52	80.1158	707.52	73.5284	707.52	76.5293	707.52	75.2682	707.52	73.423	707.52	76.4397	707.52	72.1648	707.52	77.4427	707.52	72.8368	707.52	78.0438	707.52	74.8396	707.52	78.1373	707.52	77.3297	707.52	77.4234	707.52	79.5784	707.52	75.0608	707.52	81.4677	707.52	68.9013	707.52	82.9618	707.52	67.8419	707.52	83.7936	707.52	76.5155	707.52	83.7205	707.52	80.5696	707.52	82.6972
732.422	88.3408	732.422	89.1475	732.422	86.2204	732.422	88.9109	732.422	82.3163	732.422	87.7657	732.422	75.6173	732.422	85.7258	732.422	67.5163	732.422	82.7294	732.422	72.5281	732.422	78.7213	732.422	75.3534	732.422	74.1728	732.422	76.3438	732.422	71.4894	732.422	76.681	732.422	71.3868	732.422	76.9237	732.422	71.98	732.422	76.973	732.422	73.4102	732.422	76.4876	732.422	75.8616	732.422	74.9469	732.422	78.6183	732.422	71.7163	732.422	80.9061	732.422	68.0654	732.422	82.5378	732.422	72.0332	732.422	83.5799	732.422	77.8057	732.422	83.9136	732.422	81.4176	732.422	83.2906
757.324	88.8414	757.324	89.7207	757.324	86.5534	757.324	89.4596	757.324	82.4298	757.324	88.3173	757.324	75.2238	757.324	86.45	757.324	68.6968	757.324	83.8348	757.324	73.904	757.324	80.342	757.324	75.8853	757.324	75.9036	757.324	76.789	757.324	71.1207	757.324	77.5772	757.324	68.9684	757.324	78.2654	757.324	70.0478	757.324	78.5872	757.324	71.5807	757.324	78.3148	757.324	73.9693	757.324	77.4347	757.324	76.9856	757.324	75.2836	757.324	79.5302	757.324	69.8505	757.324	81.3579	757.324	65.73	757.324	82.605	757.324	74.3441	757.324	83.0386	757.324	79.3995	757.324	82.1331
785.156	87.5463	785.156	88.7122	785.156	84.7807	785.156	88.5698	785.156	79.5518	785.156	87.2935	785.156	68.9354	785.156	85.0905	785.156	68.7367	785.156	82.1259	785.156	74.1582	785.156	79.0244	785.156	76.2651	785.156	77.0235	785.156	77.2257	785.156	75.7597	785.156	77.5237	785.156	74.9015	785.156	77.4848	785.156	75.2986	785.156	77.892	785.156	76.5006	785.156	78.1296	785.156	77.6861	785.156	76.7731	785.156	78.8332	785.156	74.5556	785.156	80.3025	785.156	73.2948	785.156	81.7963	785.156	73.7698	785.156	82.626	785.156	76.9399	785.156	82.4283	785.156	79.6233	785.156	81.348
811.523	88.155	811.523	89.2737	811.523	85.3555	811.523	89.1499	811.523	79.9557	811.523	87.87	811.523	70.4513	811.523	85.5146	811.523	73.6185	811.523	82.3851	811.523	77.4405	811.523	78.5591	811.523	78.3168	811.523	74.106	811.523	77.8878	811.523	71.638	811.523	77.5502	811.523	73.1196	811.523	77.9342	811.523	75.05	811.523	78.3655	811.523	76.1428	811.523	78.3866	811.523	76.9841	811.523	77.792	811.523	78.6082	811.523	75.739	811.523	80.7845	811.523	72.1886	811.523	82.425	811.523	74.3867	811.523	83.2031	811.523	79.1584	811.523	83.5332	811.523	82.2038	811.523	83.4438
840.82	88.4644	840.82	89.3323	840.82	86.1928	840.82	88.9327	840.82	82.4018	840.82	87.5214	840.82	77.6159	840.82	85.2756	840.82	76.6284	840.82	82.2473	840.82	78.2805	840.82	78.5406	840.82	79.3774	840.82	74.599	840.82	79.9126	840.82	72.2534	840.82	79.9885	840.82	71.2599	840.82	80.2795	840.82	72.1264	840.82	81.054	840.82	74.9748	840.82	81.5007	840.82	76.724	840.82	80.9793	840.82	77.4306	840.82	79.256	840.82	78.5916	840.82	75.3318	840.82	80.6457	840.82	61.7936	840.82	82.3036	840.82	73.9418	840.82	82.693	840.82	79.5107	840.82	81.8019
870.117	85.863	870.117	88.0627	870.117	79.7263	870.117	88.0765	870.117	63.8172	870.117	86.764	870.117	80.7468	870.117	84.8516	870.117	84.8854	870.117	82.4156	870.117	86.6372	870.117	79.4368	870.117	87.0802	870.117	76.458	870.117	86.5662	870.117	73.0421	870.117	85.5277	870.117	66.9788	870.117	84.562	870.117	63.8382	870.117	84.0118	870.117	73.2896	870.117	83.8497	870.117	78.3386	870.117	83.8453	870.117	80.8183	870.117	83.2456	870.117	82.2456	870.117	81.4676	870.117	84.0165	870.117	79.3446	870.117	85.7847	870.117	80.233	870.117	86.4781	870.117	83.3047	870.117	85.6367
900.879	91.7095	900.879	92.3184	900.879	89.5621	900.879	91.873	900.879	85.1558	900.879	90.5512	900.879	77.3721	900.879	88.4151	900.879	64.9268	900.879	85.8918	900.879	67.7105	900.879	83.9977	900.879	69.9583	900.879	83.2062	900.879	71.8462	900.879	83.056	900.879	76.3899	900.879	82.4415	900.879	79.2919	900.879	80.3444	900.879	81.3433	900.879	77.5036	900.879	83.9975	900.879	75.8755	900.879	85.842	900.879	75.147	900.879	85.9475	900.879	75.1379	900.879	84.3701	900.879	77.1059	900.879	81.2494	900.879	78.8615	900.879	75.7244	900.879	79.5629	900.879	74.6791	900.879	78.6782
933.105	93.7896	933.105	94.1247	933.105	91.834	933.105	93.1591	933.105	87.822	933.105	91.4352	933.105	79.5148	933.105	89.2369	933.105	72.898	933.105	86.2777	933.105	81.2737	933.105	81.9631	933.105	82.865	933.105	75.9024	933.105	82.703	933.105	74	933.105	81.5809	933.105	77.3916	933.105	78.4892	933.105	79.3711	933.105	75.4716	933.105	80.8823	933.105	76.3731	933.105	81.7824	933.105	78.5403	933.105	80.6365	933.105	82.6352	933.105	75.9085	933.105	84.7351	933.105	60.0429	933.105	84.6428	933.105	73.6801	933.105	84.0486	933.105	79.7791	933.105	83.5994	933.105	82.4546
965.332	91.5577	965.332	93.0304	965.332	87.4174	965.332	92.8115	965.332	76.7928	965.332	91.3849	965.332	77.9054	965.332	89.5203	965.332	83.8913	965.332	88.3368	965.332	84.9637	965.332	88.0701	965.332	83.4759	965.332	88.1092	965.332	79.3017	965.332	87.6857	965.332	69.0329	965.332	85.9812	965.332	71.5725	965.332	83.888	965.332	78.1712	965.332	83.4587	965.332	80.8661	965.332	84.4259	965.332	81.187	965.332	85.2933	965.332	78.118	965.332	85.8495	965.332	69.7347	965.332	86.8738	965.332	77.4655	965.332	88.0356	965.332	83.9492	965.332	88.7346	965.332	87.525	965.332	88.8011
1,000.49	91.2959	1,000.49	91.978	1,000.49	88.0823	1,000.49	90.9767	1,000.49	79.9535	1,000.49	89.1589	1,000.49	75.6413	1,000.49	87.5725	1,000.49	83.4807	1,000.49	86.2665	1,000.49	85.2911	1,000.49	84.7311	1,000.49	85.0967	1,000.49	83.1021	1,000.49	84.1264	1,000.49	81.6719	1,000.49	82.7192	1,000.49	80.9467	1,000.49	80.5631	1,000.49	79.6832	1,000.49	78.2971	1,000.49	77.3916	1,000.49	76.986	1,000.49	76.4237	1,000.49	79.8274	1,000.49	75.6387	1,000.49	81.9449	1,000.49	75.24	1,000.49	80.9112	1,000.49	77.3931	1,000.49	76.0767	1,000.49	79.765	1,000.49	53.5552	1,000.49	81.0486	1,000.49	75.9844	1,000.49	80.4031
1,035.64	89.6652	1,035.64	90.1388	1,035.64	85.7762	1,035.64	88.1157	1,035.64	78.7661	1,035.64	84.725	1,035.64	83.5145	1,035.64	82.5259	1,035.64	87.6455	1,035.64	83.5191	1,035.64	88.6413	1,035.64	84.2253	1,035.64	87.782	1,035.64	84.0495	1,035.64	86.0158	1,035.64	83.6068	1,035.64	83.7105	1,035.64	82.9487	1,035.64	81.2257	1,035.64	83.0173	1,035.64	78.6721	1,035.64	84.4084	1,035.64	73.058	1,035.64	85.3303	1,035.64	71.28	1,035.64	85.202	1,035.64	78.425	1,035.64	84.9452	1,035.64	78.9821	1,035.64	84.6659	1,035.64	75.4053	1,035.64	84.1844	1,035.64	71.998	1,035.64	83.5332	1,035.64	77.744	1,035.64	81.8283
1,072.27	91.5998	1,072.27	91.8801	1,072.27	89.0729	1,072.27	90.6602	1,072.27	81.6456	1,072.27	88.3939	1,072.27	75.9943	1,072.27	86.4797	1,072.27	83.3838	1,072.27	85.2847	1,072.27	85.2953	1,072.27	83.4972	1,072.27	85.4794	1,072.27	81.2325	1,072.27	84.7728	1,072.27	77.5265	1,072.27	84.3477	1,072.27	72.9771	1,072.27	83.9206	1,072.27	75.2704	1,072.27	82.8594	1,072.27	73.2107	1,072.27	81.6646	1,072.27	74.989	1,072.27	77.4613	1,072.27	77.0268	1,072.27	67.6997	1,072.27	74.0446	1,072.27	69.6348	1,072.27	66.867	1,072.27	76.8968	1,072.27	76.3736	1,072.27	79.7899	1,072.27	81.6352	1,072.27	81.7071	1,072.27	82.7233
1,108.89	89.0235	1,108.89	89.9903	1,108.89	84.3802	1,108.89	88.7075	1,108.89	67.4532	1,108.89	86.4289	1,108.89	82.254	1,108.89	84.0585	1,108.89	86.9048	1,108.89	81.8486	1,108.89	88.6293	1,108.89	80.7193	1,108.89	88.5922	1,108.89	80.2351	1,108.89	88.2045	1,108.89	79.4663	1,108.89	87.9086	1,108.89	78.4094	1,108.89	86.798	1,108.89	78.137	1,108.89	85.5768	1,108.89	78.4207	1,108.89	83.6884	1,108.89	78.904	1,108.89	79.3396	1,108.89	78.3747	1,108.89	73.0064	1,108.89	77.0853	1,108.89	70.993	1,108.89	78.4864	1,108.89	72.3825	1,108.89	80.0175	1,108.89	75.8986	1,108.89	81.4622	1,108.89	79.9114	1,108.89	82.048
1,148.44	88.5143	1,148.44	88.9849	1,148.44	84.0231	1,148.44	86.656	1,148.44	75.7317	1,148.44	82.8779	1,148.44	82.7096	1,148.44	82.2551	1,148.44	86.5925	1,148.44	83.6293	1,148.44	87.4553	1,148.44	83.8344	1,148.44	86.8801	1,148.44	82.9852	1,148.44	85.3871	1,148.44	81.7783	1,148.44	84.2599	1,148.44	79.7713	1,148.44	84.6529	1,148.44	77.7901	1,148.44	84.8981	1,148.44	78.6629	1,148.44	85.4032	1,148.44	79.3102	1,148.44	84.9024	1,148.44	80.2733	1,148.44	84.4314	1,148.44	80.4896	1,148.44	84.3927	1,148.44	80.202	1,148.44	81.9741	1,148.44	81.4535	1,148.44	75.3997	1,148.44	82.6872	1,148.44	72.4809	1,148.44	80.5779
1,189.45	89.5427	1,189.45	90.0648	1,189.45	85.3724	1,189.45	87.8682	1,189.45	72.2233	1,189.45	82.8412	1,189.45	82.0777	1,189.45	77.7066	1,189.45	85.0668	1,189.45	78.0673	1,189.45	85.3631	1,189.45	78.6959	1,189.45	84.5052	1,189.45	79.3326	1,189.45	83.041	1,189.45	80.4239	1,189.45	81.2951	1,189.45	80.4246	1,189.45	80.3214	1,189.45	78.8933	1,189.45	78.8693	1,189.45	76.5995	1,189.45	74.6327	1,189.45	76.4695	1,189.45	73.3315	1,189.45	77.5407	1,189.45	75.134	1,189.45	77.9588	1,189.45	78.0818	1,189.45	77.794	1,189.45	78.9509	1,189.45	77.5497	1,189.45	75.88	1,189.45	76.4567	1,189.45	57.1729	1,189.45	73.2204
1,230.47	87.5781	1,230.47	89.0472	1,230.47	82.187	1,230.47	87.6609	1,230.47	80.0026	1,230.47	84.7837	1,230.47	85.1232	1,230.47	83.4573	1,230.47	87.0486	1,230.47	83.9128	1,230.47	87.0124	1,230.47	84.2602	1,230.47	86.2489	1,230.47	84.0508	1,230.47	85.3275	1,230.47	82.6955	1,230.47	84.5609	1,230.47	81.6071	1,230.47	84.4395	1,230.47	81.2973	1,230.47	85.4026	1,230.47	80.1196	1,230.47	84.2404	1,230.47	79.2712	1,230.47	82.4189	1,230.47	78.9572	1,230.47	81.7582	1,230.47	78.9565	1,230.47	80.0327	1,230.47	78.402	1,230.47	78.3658	1,230.47	78.9396	1,230.47	72.3962	1,230.47	79.843	1,230.47	71.0245	1,230.47	77.1037
1,274.41	91.6234	1,274.41	92.3397	1,274.41	87.7915	1,274.41	90.9346	1,274.41	77.604	1,274.41	87.7022	1,274.41	75.9057	1,274.41	84.9378	1,274.41	83.279	1,274.41	84.1148	1,274.41	84.5573	1,274.41	83.5272	1,274.41	83.6245	1,274.41	82.3955	1,274.41	82.3019	1,274.41	81.4325	1,274.41	81.1766	1,274.41	80.4628	1,274.41	80.2148	1,274.41	78.4398	1,274.41	77.1977	1,274.41	77.4828	1,274.41	74.9627	1,274.41	77.2391	1,274.41	73.5969	1,274.41	75.1973	1,274.41	71.0229	1,274.41	73.9087	1,274.41	75.767	1,274.41	71.7198	1,274.41	75.5129	1,274.41	70.2423	1,274.41	74.3997	1,274.41	72.2552	1,274.41	71.3635	1,274.41	73.9574
1,319.82	88.4353	1,319.82	89.4109	1,319.82	83.2029	1,319.82	87.5764	1,319.82	71.3099	1,319.82	84.9672	1,319.82	82.7487	1,319.82	83.9131	1,319.82	85.4867	1,319.82	83.2076	1,319.82	86.1638	1,319.82	80.6246	1,319.82	85.4041	1,319.82	79.2766	1,319.82	84.5492	1,319.82	79.2947	1,319.82	83.689	1,319.82	79.3938	1,319.82	82.5043	1,319.82	80.2637	1,319.82	81.3581	1,319.82	80.9148	1,319.82	78.5094	1,319.82	81.4625	1,319.82	76.7282	1,319.82	81.4221	1,319.82	77.9633	1,319.82	80.1895	1,319.82	77.4581	1,319.82	78.1348	1,319.82	79.1344	1,319.82	74.6761	1,319.82	77.1388	1,319.82	68.2783	1,319.82	70.3717	1,319.82	56.4953
1,366.7	87.2782	1,366.7	88.309	1,366.7	81.8632	1,366.7	86.4323	1,366.7	77.05	1,366.7	85.2207	1,366.7	83.4609	1,366.7	86.1341	1,366.7	85.6728	1,366.7	86.8978	1,366.7	85.287	1,366.7	86.0989	1,366.7	84.2105	1,366.7	84.4224	1,366.7	81.7578	1,366.7	82.1729	1,366.7	80.3711	1,366.7	81.0799	1,366.7	80.1142	1,366.7	81.8619	1,366.7	80.399	1,366.7	81.808	1,366.7	81.0399	1,366.7	81.7232	1,366.7	78.227	1,366.7	80.5853	1,366.7	75.6234	1,366.7	76.8006	1,366.7	75.4308	1,366.7	64.6726	1,366.7	74.9019	1,366.7	57.7045	1,366.7	73.6801	1,366.7	69.1885	1,366.7	73.7073	1,366.7	74.4668
1,413.57	87.8459	1,413.57	88.7479	1,413.57	82.3091	1,413.57	86.6427	1,413.57	70.8769	1,413.57	84.1825	1,413.57	83.9728	1,413.57	84.8302	1,413.57	86.9348	1,413.57	85.3275	1,413.57	87.7676	1,413.57	84.7611	1,413.57	86.9036	1,413.57	82.9603	1,413.57	85.2515	1,413.57	79.1194	1,413.57	84.4183	1,413.57	77.5156	1,413.57	83.2559	1,413.57	75.7975	1,413.57	81.3293	1,413.57	77.6184	1,413.57	74.2719	1,413.57	78.0415	1,413.57	71.822	1,413.57	78.9335	1,413.57	74.1467	1,413.57	78.646	1,413.57	77.3144	1,413.57	75.7367	1,413.57	76.4828	1,413.57	63.8086	1,413.57	68.3046	1,413.57	71.7324	1,413.57	70.793	1,413.57	76.6717
1,463.38	90.1745	1,463.38	90.609	1,463.38	85.9202	1,463.38	88.4389	1,463.38	74.8018	1,463.38	85.876	1,463.38	80.8717	1,463.38	85.2668	1,463.38	84.2626	1,463.38	85.3064	1,463.38	83.6632	1,463.38	84.9875	1,463.38	81.8133	1,463.38	82.6015	1,463.38	78.896	1,463.38	79.4441	1,463.38	74.9413	1,463.38	78.1515	1,463.38	75.9052	1,463.38	79.0946	1,463.38	78.2012	1,463.38	80.8594	1,463.38	80.0123	1,463.38	82.1689	1,463.38	79.3992	1,463.38	83.2743	1,463.38	77.5756	1,463.38	80.6656	1,463.38	67.0927	1,463.38	70.8506	1,463.38	70.3601	1,463.38	74.4477	1,463.38	76.7742	1,463.38	79.639	1,463.38	77.2545	1,463.38	79.1678
1,516.11	86.6854	1,516.11	88.5637	1,516.11	78.8532	1,516.11	87.2096	1,516.11	78.3329	1,516.11	84.2524	1,516.11	85.3465	1,516.11	84.2545	1,516.11	86.8112	1,516.11	84.8693	1,516.11	85.4626	1,516.11	83.1145	1,516.11	81.8415	1,516.11	81.5074	1,516.11	79.8239	1,516.11	81.3607	1,516.11	78.1246	1,516.11	79.8589	1,516.11	78.727	1,516.11	79.632	1,516.11	80.549	1,516.11	79.5279	1,516.11	80.0017	1,516.11	79.0461	1,516.11	78.782	1,516.11	78.1519	1,516.11	78.959	1,516.11	74.9815	1,516.11	77.0499	1,516.11	73.5676	1,516.11	73.3193	1,516.11	73.2549	1,516.11	55.8617	1,516.11	66.6087	1,516.11	59.1414	1,516.11	67.7781
1,568.85	86.3254	1,568.85	87.7292	1,568.85	80.0219	1,568.85	85.6736	1,568.85	70.8744	1,568.85	84.0091	1,568.85	84.0204	1,568.85	85.6447	1,568.85	86.6521	1,568.85	85.769	1,568.85	87.0362	1,568.85	84.3331	1,568.85	84.3466	1,568.85	81.6628	1,568.85	79.8017	1,568.85	78.5952	1,568.85	77.0585	1,568.85	73.42	1,568.85	73.1907	1,568.85	72.4965	1,568.85	75.3527	1,568.85	76.3492	1,568.85	77.1071	1,568.85	77.378	1,568.85	78.6817	1,568.85	76.5727	1,568.85	79.5238	1,568.85	75.0429	1,568.85	79.5199	1,568.85	78.3129	1,568.85	73.4502	1,568.85	74.3532	1,568.85	64.0661	1,568.85	70.8461	1,568.85	68.1465	1,568.85	71.4692
1,624.51	86.6436	1,624.51	87.6492	1,624.51	80.7753	1,624.51	85.2625	1,624.51	72.5436	1,624.51	83.0601	1,624.51	83.0572	1,624.51	85.7817	1,624.51	86.583	1,624.51	86.5109	1,624.51	86.4103	1,624.51	84.7143	1,624.51	84.6514	1,624.51	80.4616	1,624.51	81.5758	1,624.51	77.7793	1,624.51	79.9854	1,624.51	75.2243	1,624.51	77.4212	1,624.51	73.0393	1,624.51	73.9351	1,624.51	74.0784	1,624.51	71.9027	1,624.51	75.103	1,624.51	76.8836	1,624.51	75.9344	1,624.51	78.6389	1,624.51	72.5327	1,624.51	78.8998	1,624.51	67.1994	1,624.51	71.9469	1,624.51	64.6308	1,624.51	58.8515	1,624.51	69.9173	1,624.51	68.8849	1,624.51	72.7547
1,681.64	88.0462	1,681.64	88.6103	1,681.64	83.5085	1,681.64	86.2866	1,681.64	69.3204	1,681.64	82.8295	1,681.64	83.5482	1,681.64	83.4374	1,681.64	86.0719	1,681.64	83.6623	1,681.64	85.1357	1,681.64	81.8428	1,681.64	80.5407	1,681.64	77.8712	1,681.64	79.3642	1,681.64	76.9754	1,681.64	76.9165	1,681.64	75.1792	1,681.64	78.8625	1,681.64	74.9833	1,681.64	79.5738	1,681.64	77.0753	1,681.64	80.2147	1,681.64	77.4456	1,681.64	77.134	1,681.64	78.4245	1,681.64	75.041	1,681.64	80.2537	1,681.64	72.0597	1,681.64	79.4825	1,681.64	71.8595	1,681.64	69.3815	1,681.64	72.741	1,681.64	70.4192	1,681.64	42.3123	1,681.64	72.0732
1,741.7	87.604	1,741.7	89.0467	1,741.7	82.2208	1,741.7	88.6593	1,741.7	72.8399	1,741.7	86.7315	1,741.7	85.1971	1,741.7	87.1615	1,741.7	86.8679	1,741.7	87.209	1,741.7	86.0462	1,741.7	84.0795	1,741.7	85.7455	1,741.7	80.5295	1,741.7	84.4461	1,741.7	77.1152	1,741.7	81.3161	1,741.7	75.8866	1,741.7	79.4076	1,741.7	69.3837	1,741.7	79.3985	1,741.7	63.107	1,741.7	75.1689	1,741.7	74.5192	1,741.7	75.8371	1,741.7	78.0976	1,741.7	79.1973	1,741.7	78.5365	1,741.7	78.623	1,741.7	75.9884	1,741.7	74.5799	1,741.7	69.1315	1,741.7	67.6961	1,741.7	72.1149	1,741.7	69.8321	1,741.7	72.9491
1,803.22	87.9543	1,803.22	89.6162	1,803.22	84.3273	1,803.22	88.3595	1,803.22	67.6896	1,803.22	85.5313	1,803.22	84.0811	1,803.22	86.3084	1,803.22	85.9521	1,803.22	85.0952	1,803.22	84.9318	1,803.22	81.4526	1,803.22	83.5709	1,803.22	76.6898	1,803.22	81.4069	1,803.22	74.5162	1,803.22	81.1131	1,803.22	71.7242	1,803.22	76.2392	1,803.22	70.1116	1,803.22	69.9307	1,803.22	67.6025	1,803.22	73.1143	1,803.22	70.7973	1,803.22	78.6794	1,803.22	73.9096	1,803.22	80.2512	1,803.22	79.526	1,803.22	80.7443	1,803.22	80.0943	1,803.22	76.5449	1,803.22	77.7419	1,803.22	63.6378	1,803.22	75.0631	1,803.22	74.6725	1,803.22	74.904
1,866.21	89.3845	1,866.21	89.6512	1,866.21	84.1445	1,866.21	88.9752	1,866.21	62.6744	1,866.21	87.374	1,866.21	82.1753	1,866.21	86.6261	1,866.21	84.486	1,866.21	84.6059	1,866.21	84.6399	1,866.21	81.3227	1,866.21	83.1318	1,866.21	79.8598	1,866.21	80.5267	1,866.21	78.1445	1,866.21	78.3955	1,866.21	74.0292	1,866.21	75.7313	1,866.21	74.1905	1,866.21	73.345	1,866.21	71.9388	1,866.21	74.815	1,866.21	61.482	1,866.21	76.5924	1,866.21	66.4732	1,866.21	74.4512	1,866.21	71.7167	1,866.21	75.2194	1,866.21	71.1194	1,866.21	74.6962	1,866.21	72.7024	1,866.21	67.4358	1,866.21	65.1973	1,866.21	67.1388	1,866.21	64.2883
1,932.13	87.9698	1,932.13	89.6924	1,932.13	82.8629	1,932.13	87.9303	1,932.13	58.5368	1,932.13	85.0052	1,932.13	81.5823	1,932.13	82.1735	1,932.13	82.9286	1,932.13	78.8361	1,932.13	82.8993	1,932.13	73.0892	1,932.13	81.3699	1,932.13	73.4557	1,932.13	79.1032	1,932.13	72.7454	1,932.13	78.2817	1,932.13	69.4726	1,932.13	79.2605	1,932.13	71.3362	1,932.13	80.1519	1,932.13	73.0383	1,932.13	78.3953	1,932.13	73.1696	1,932.13	76.9975	1,932.13	75.5987	1,932.13	74.1157	1,932.13	76.4709	1,932.13	72.2031	1,932.13	75.6223	1,932.13	61.7747	1,932.13	70.6459	1,932.13	67.2275	1,932.13	65.8406	1,932.13	45.6515	1,932.13	67.092
1,999.51	87.9174	1,999.51	88.0163	1,999.51	85.2642	1,999.51	85.6978	1,999.51	77.6275	1,999.51	82.0904	1,999.51	76.9627	1,999.51	79.6653	1,999.51	81.9318	1,999.51	79.4193	1,999.51	84.1297	1,999.51	79.5894	1,999.51	83.9149	1,999.51	79.5064	1,999.51	82.2679	1,999.51	77.4356	1,999.51	80.3402	1,999.51	75.3746	1,999.51	77.5448	1,999.51	73.1223	1,999.51	75.9631	1,999.51	70.7302	1,999.51	74.5539	1,999.51	73.6807	1,999.51	77.2169	1,999.51	74.4097	1,999.51	74.71	1,999.51	72.1789	1,999.51	71.7609	1,999.51	71.1239	1,999.51	68.41	1,999.51	68.6191	1,999.51	63.3489	1,999.51	68.8613	1,999.51	69.6133	1,999.51	69.6136
2,069.82	87.1365	2,069.82	87.4506	2,069.82	85.6999	2,069.82	85.885	2,069.82	80.8064	2,069.82	82.1137	2,069.82	79.7885	2,069.82	81.3836	2,069.82	83.1165	2,069.82	82.7316	2,069.82	85.1377	2,069.82	82.9651	2,069.82	84.4635	2,069.82	81.6223	2,069.82	82.4048	2,069.82	79.6021	2,069.82	80.5501	2,069.82	77.5112	2,069.82	79.0492	2,069.82	74.1735	2,069.82	76.7562	2,069.82	72.7802	2,069.82	75.8566	2,069.82	73.1767	2,069.82	76.0005	2,069.82	73.3082	2,069.82	76.7339	2,069.82	71.0652	2,069.82	71.8886	2,069.82	70.2182	2,069.82	65.178	2,069.82	70.4767	2,069.82	68.2381	2,069.82	71.9729	2,069.82	68.4519	2,069.82	71.5622
2,143.07	87.0271	2,143.07	87.59	2,143.07	85.5332	2,143.07	86.6167	2,143.07	82.0603	2,143.07	84.0894	2,143.07	82.0829	2,143.07	83.4397	2,143.07	84.6326	2,143.07	84.7084	2,143.07	86.1663	2,143.07	84.2365	2,143.07	84.6471	2,143.07	82.5566	2,143.07	82.1541	2,143.07	79.669	2,143.07	79.7827	2,143.07	77.7301	2,143.07	77.1845	2,143.07	75.7483	2,143.07	76.8725	2,143.07	72.9949	2,143.07	74.8133	2,143.07	73.4769	2,143.07	74.7491	2,143.07	74.9486	2,143.07	75.8423	2,143.07	71.7722	2,143.07	72.3489	2,143.07	68.8468	2,143.07	68.533	2,143.07	70.6359	2,143.07	68.9891	2,143.07	70.8568	2,143.07	72.3439	2,143.07	69.8985
2,219.24	86.6375	2,219.24	87.6412	2,219.24	84.916	2,219.24	87.0163	2,219.24	81.4219	2,219.24	83.9383	2,219.24	82.7304	2,219.24	83.9031	2,219.24	84.9832	2,219.24	84.8831	2,219.24	85.9557	2,219.24	85.2317	2,219.24	84.1888	2,219.24	82.6522	2,219.24	80.8592	2,219.24	81.1968	2,219.24	78.1459	2,219.24	78.2447	2,219.24	75.6511	2,219.24	75.5443	2,219.24	76.529	2,219.24	75.3749	2,219.24	74.7614	2,219.24	75.1341	2,219.24	73.549	2,219.24	76.6533	2,219.24	74.6859	2,219.24	72.4837	2,219.24	70.1243	2,219.24	66.7768	2,219.24	67.1943	2,219.24	67.1445	2,219.24	66.8014	2,219.24	73.9495	2,219.24	69.3405	2,219.24	71.9561
2,296.88	87.5145	2,296.88	87.8373	2,296.88	85.4005	2,296.88	86.2101	2,296.88	82.6381	2,296.88	83.7243	2,296.88	82.6268	2,296.88	84.2218	2,296.88	86.0675	2,296.88	85.0937	2,296.88	86.3244	2,296.88	84.0108	2,296.88	85.0588	2,296.88	82.3338	2,296.88	81.4014	2,296.88	77.6045	2,296.88	77.9685	2,296.88	76.6585	2,296.88	74.441	2,296.88	74.6988	2,296.88	74.697	2,296.88	75.1573	2,296.88	76.3469	2,296.88	76.1143	2,296.88	74.4825	2,296.88	77.1796	2,296.88	74.4721	2,296.88	75.2461	2,296.88	71.5892	2,296.88	70.6064	2,296.88	63.0245	2,296.88	70.7179	2,296.88	67.2851	2,296.88	71.9001	2,296.88	70.8781	2,296.88	63.9014
2,378.91	87.9696	2,378.91	87.7388	2,378.91	86.4182	2,378.91	86.2453	2,378.91	84.6242	2,378.91	84.364	2,378.91	84.9722	2,378.91	85.2368	2,378.91	86.9985	2,378.91	86.7423	2,378.91	87.182	2,378.91	85.7318	2,378.91	86.1503	2,378.91	82.6145	2,378.91	83.1153	2,378.91	79.6743	2,378.91	79.366	2,378.91	75.1284	2,378.91	77.5771	2,378.91	74.8355	2,378.91	78.0784	2,378.91	74.8639	2,378.91	78.235	2,378.91	74.4809	2,378.91	75.665	2,378.91	75.6325	2,378.91	75.8665	2,378.91	73.0219	2,378.91	72.7668	2,378.91	62.1641	2,378.91	64.6147	2,378.91	69.2554	2,378.91	70.5695	2,378.91	74.0381	2,378.91	70.1571	2,378.91	62.4571
2,462.4	89.6111	2,462.4	89.4852	2,462.4	87.6611	2,462.4	88.1014	2,462.4	87.1573	2,462.4	87.2754	2,462.4	87.7205	2,462.4	87.4404	2,462.4	88.9739	2,462.4	88.3105	2,462.4	88.7721	2,462.4	87.6078	2,462.4	87.5153	2,462.4	85.0618	2,462.4	84.8086	2,462.4	81.8848	2,462.4	81.9912	2,462.4	78.6461	2,462.4	77.6936	2,462.4	77.5698	2,462.4	77.8626	2,462.4	77.1656	2,462.4	78.9179	2,462.4	75.5545	2,462.4	78.813	2,462.4	75.6848	2,462.4	77.5258	2,462.4	74.9516	2,462.4	73.0881	2,462.4	63.0463	2,462.4	70.6094	2,462.4	67.6024	2,462.4	73.1619	2,462.4	74.799	2,462.4	70.1477	2,462.4	68.1888
2,548.83	89.9113	2,548.83	89.9323	2,548.83	88.166	2,548.83	89.0174	2,548.83	88.413	2,548.83	89.0658	2,548.83	88.5476	2,548.83	88.7382	2,548.83	89.0868	2,548.83	88.7442	2,548.83	88.9588	2,548.83	88.8798	2,548.83	88.1425	2,548.83	86.522	2,548.83	85.6872	2,548.83	84.5508	2,548.83	82.4688	2,548.83	80.9695	2,548.83	79.7675	2,548.83	79.3735	2,548.83	77.3616	2,548.83	77.4896	2,548.83	75.446	2,548.83	77.539	2,548.83	78.9776	2,548.83	76.041	2,548.83	76.6383	2,548.83	75.122	2,548.83	72.4653	2,548.83	70.4086	2,548.83	71.8473	2,548.83	75.9863	2,548.83	73.6264	2,548.83	78.3445	2,548.83	72.6089	2,548.83	73.3314
2,639.65	88.6092	2,639.65	88.3185	2,639.65	87.89	2,639.65	88.7835	2,639.65	88.1297	2,639.65	88.5351	2,639.65	87.9144	2,639.65	88.1642	2,639.65	87.445	2,639.65	88.7952	2,639.65	88.4289	2,639.65	89.03	2,639.65	87.3559	2,639.65	86.9433	2,639.65	84.5801	2,639.65	85.21	2,639.65	81.7112	2,639.65	82.3953	2,639.65	80.4628	2,639.65	81.1886	2,639.65	78.4772	2,639.65	79.1624	2,639.65	76.976	2,639.65	78.3267	2,639.65	78.0638	2,639.65	77.4457	2,639.65	75.4426	2,639.65	72.0242	2,639.65	74.977	2,639.65	68.3384	2,639.65	74.7978	2,639.65	73.5966	2,639.65	72.4072	2,639.65	74.3836	2,639.65	73.3552	2,639.65	68.9394
2,731.93	88.1803	2,731.93	88.0351	2,731.93	87.0922	2,731.93	88.2453	2,731.93	88.6126	2,731.93	88.333	2,731.93	87.9665	2,731.93	86.5067	2,731.93	87.2675	2,731.93	88.1327	2,731.93	88.0044	2,731.93	88.5399	2,731.93	87.0435	2,731.93	86.105	2,731.93	84.5572	2,731.93	82.8379	2,731.93	80.5363	2,731.93	80.3197	2,731.93	79.7352	2,731.93	80.6028	2,731.93	79.8881	2,731.93	77.9484	2,731.93	79.0728	2,731.93	77.2919	2,731.93	78.4374	2,731.93	75.9808	2,731.93	74.666	2,731.93	71.9693	2,731.93	72.4825	2,731.93	72.9228	2,731.93	74.6045	2,731.93	73.8241	2,731.93	72.1517	2,731.93	76.0588	2,731.93	72.3168	2,731.93	70.1644
2,828.61	89.2811	2,828.61	88.7445	2,828.61	88.2851	2,828.61	89.0103	2,828.61	89.9484	2,828.61	89.1431	2,828.61	89.5472	2,828.61	87.3454	2,828.61	88.7968	2,828.61	89.0671	2,828.61	89.5729	2,828.61	89.0082	2,828.61	88.7738	2,828.61	87.08	2,828.61	86	2,828.61	82.4725	2,828.61	81.9837	2,828.61	79.8921	2,828.61	80.3403	2,828.61	79.8607	2,828.61	80.6153	2,828.61	79.7872	2,828.61	81.1066	2,828.61	77.2933	2,828.61	78.6827	2,828.61	77.4255	2,828.61	75.3932	2,828.61	67.6097	2,828.61	71.6747	2,828.61	72.7721	2,828.61	75.9336	2,828.61	74.5412	2,828.61	73.7412	2,828.61	72.1124	2,828.61	74.4403	2,828.61	70.5211
2,928.22	89.5417	2,928.22	89.702	2,928.22	89.1702	2,928.22	90.0595	2,928.22	90.8675	2,928.22	89.9928	2,928.22	90.2734	2,928.22	89.1631	2,928.22	88.7027	2,928.22	89.7069	2,928.22	90.2831	2,928.22	90.0276	2,928.22	90.208	2,928.22	88.7376	2,928.22	88.3708	2,928.22	84.0617	2,928.22	84.4925	2,928.22	80.8065	2,928.22	82.1918	2,928.22	80.8625	2,928.22	79.5507	2,928.22	79.3976	2,928.22	81.9883	2,928.22	77.99	2,928.22	79.1194	2,928.22	77.6443	2,928.22	77.9161	2,928.22	75.2461	2,928.22	72.3836	2,928.22	71.3685	2,928.22	78.2393	2,928.22	76.2646	2,928.22	74.6665	2,928.22	70.3462	2,928.22	71.2242	2,928.22	76.2322
3,030.76	88.8626	3,030.76	89.8463	3,030.76	90.5691	3,030.76	90.192	3,030.76	90.0883	3,030.76	90.3779	3,030.76	90.1025	3,030.76	89.6838	3,030.76	88.2467	3,030.76	89.2313	3,030.76	90.231	3,030.76	90.4815	3,030.76	90.6467	3,030.76	89.2021	3,030.76	89.4271	3,030.76	86.0864	3,030.76	85.7305	3,030.76	82.7305	3,030.76	83.8066	3,030.76	81.7128	3,030.76	80.9998	3,030.76	81.5755	3,030.76	81.4192	3,030.76	78.6758	3,030.76	78.6897	3,030.76	77.7259	3,030.76	79.0032	3,030.76	76.2311	3,030.76	75.4783	3,030.76	72.2148	3,030.76	79.0738	3,030.76	78.6436	3,030.76	76.5746	3,030.76	70.7661	3,030.76	72.004	3,030.76	76.4652
3,137.7	88.3158	3,137.7	89.8052	3,137.7	90.0632	3,137.7	89.2679	3,137.7	89.0328	3,137.7	90.3335	3,137.7	89.7962	3,137.7	89.4366	3,137.7	88.1782	3,137.7	89.9318	3,137.7	90.0117	3,137.7	91.3049	3,137.7	91.3312	3,137.7	90.6855	3,137.7	89.4946	3,137.7	86.9948	3,137.7	86.1164	3,137.7	83.1148	3,137.7	82.7554	3,137.7	81.9322	3,137.7	81.6039	3,137.7	81.7261	3,137.7	82.4219	3,137.7	80.0936	3,137.7	79.6303	3,137.7	78.966	3,137.7	77.537	3,137.7	76.7974	3,137.7	74.8674	3,137.7	75.4874	3,137.7	78.0772	3,137.7	77.2757	3,137.7	75.59	3,137.7	69.4673	3,137.7	68.1886	3,137.7	76.2675
3,249.02	87.2946	3,249.02	89.3059	3,249.02	89.5199	3,249.02	88.4712	3,249.02	88.0296	3,249.02	90.1281	3,249.02	89.4576	3,249.02	90.103	3,249.02	87.3562	3,249.02	88.7713	3,249.02	89.2487	3,249.02	91.3288	3,249.02	91.3654	3,249.02	90.0105	3,249.02	89.7152	3,249.02	86.3392	3,249.02	86.1927	3,249.02	82.874	3,249.02	82.8264	3,249.02	81.4986	3,249.02	81.7731	3,249.02	81.7239	3,249.02	81.8722	3,249.02	80.5954	3,249.02	80.393	3,249.02	77.8083	3,249.02	75.0624	3,249.02	74.6737	3,249.02	72.7214	3,249.02	75.4706	3,249.02	78.2231	3,249.02	74.4615	3,249.02	72.8339	3,249.02	67.4771	3,249.02	58.9855	3,249.02	77.1812
3,363.28	88.5042	3,363.28	89.1004	3,363.28	89.7346	3,363.28	89.0938	3,363.28	89.2577	3,363.28	89.4832	3,363.28	89.7671	3,363.28	89.009	3,363.28	88.5738	3,363.28	89.029	3,363.28	90.4208	3,363.28	91.1294	3,363.28	91.5543	3,363.28	90.0771	3,363.28	89.2389	3,363.28	87.4009	3,363.28	85.6956	3,363.28	82.2206	3,363.28	83.1967	3,363.28	80.456	3,363.28	81.0809	3,363.28	80.3115	3,363.28	80.2852	3,363.28	80.0212	3,363.28	80.6904	3,363.28	77.6321	3,363.28	76.929	3,363.28	73.6054	3,363.28	67.1497	3,363.28	77.3192	3,363.28	79.5365	3,363.28	70.4701	3,363.28	62.6589	3,363.28	62.9317	3,363.28	59.8131	3,363.28	75.7687
3,481.93	89.0158	3,481.93	89.202	3,481.93	89.5748	3,481.93	90.5168	3,481.93	89.7774	3,481.93	89.1115	3,481.93	89.9522	3,481.93	89.7219	3,481.93	88.5386	3,481.93	89.009	3,481.93	90.0293	3,481.93	91.076	3,481.93	91.6725	3,481.93	90.2283	3,481.93	89.7256	3,481.93	88.2514	3,481.93	86.9265	3,481.93	84.165	3,481.93	82.4412	3,481.93	79.5927	3,481.93	81.3726	3,481.93	83.1264	3,481.93	80.8593	3,481.93	80.2699	3,481.93	80.6437	3,481.93	75.8567	3,481.93	76.333	3,481.93	70.2717	3,481.93	63.1076	3,481.93	76.5659	3,481.93	80.9682	3,481.93	66.7751	3,481.93	68.0885	3,481.93	67.2702	3,481.93	67.7771	3,481.93	73.3335
3,604.98	90.3877	3,604.98	88.8044	3,604.98	90.5332	3,604.98	91.1244	3,604.98	90.2256	3,604.98	89.6865	3,604.98	89.3016	3,604.98	88.8203	3,604.98	88.7012	3,604.98	87.8456	3,604.98	89.6262	3,604.98	90.7138	3,604.98	92.5797	3,604.98	89.5971	3,604.98	91.2253	3,604.98	89.0823	3,604.98	88.4346	3,604.98	84.5038	3,604.98	84.0411	3,604.98	81.5398	3,604.98	83.4339	3,604.98	82.2033	3,604.98	83.3852	3,604.98	80.3895	3,604.98	82.6871	3,604.98	75.8048	3,604.98	75.1733	3,604.98	71.206	3,604.98	68.3943	3,604.98	78.0436	3,604.98	81.7804	3,604.98	65.0942	3,604.98	70.6687	3,604.98	69.6855	3,604.98	73.3517	3,604.98	71.7792
3,732.42	90.7081	3,732.42	90.1234	3,732.42	91.246	3,732.42	91.1716	3,732.42	91.3318	3,732.42	89.9966	3,732.42	89.3858	3,732.42	89.7318	3,732.42	89.6034	3,732.42	88.2455	3,732.42	90.3621	3,732.42	91.5434	3,732.42	93.3788	3,732.42	91.8307	3,732.42	91.6886	3,732.42	89.9444	3,732.42	88.3176	3,732.42	85.5786	3,732.42	84.1948	3,732.42	82.026	3,732.42	81.5826	3,732.42	82.3195	3,732.42	83.5232	3,732.42	82.0992	3,732.42	82.631	3,732.42	74.047	3,732.42	72.1029	3,732.42	70.2119	3,732.42	74.2922	3,732.42	79.0439	3,732.42	81.2813	3,732.42	60.5183	3,732.42	72.2363	3,732.42	66.0003	3,732.42	74.2902	3,732.42	67.9013
3,864.26	89.9628	3,864.26	89.2337	3,864.26	90.0849	3,864.26	90.7486	3,864.26	90.9219	3,864.26	89.1557	3,864.26	88.6933	3,864.26	87.998	3,864.26	89.0134	3,864.26	87.443	3,864.26	89.3602	3,864.26	91.5567	3,864.26	92.7264	3,864.26	91.953	3,864.26	90.557	3,864.26	89.1243	3,864.26	86.6466	3,864.26	84.9597	3,864.26	81.5678	3,864.26	83.5647	3,864.26	80.1874	3,864.26	80.979	3,864.26	83.0387	3,864.26	81.9805	3,864.26	81.0423	3,864.26	76.6114	3,864.26	65.6238	3,864.26	72.2046	3,864.26	74.8422	3,864.26	79.1236	3,864.26	79.771	3,864.26	71.5551	3,864.26	74.8342	3,864.26	67.0165	3,864.26	75.1762	3,864.26	56.373
4,000.49	90.7044	4,000.49	90.4324	4,000.49	90.2628	4,000.49	90.9561	4,000.49	91.2535	4,000.49	89.1894	4,000.49	89.987	4,000.49	87.464	4,000.49	88.7387	4,000.49	87.7594	4,000.49	89.9204	4,000.49	91.3036	4,000.49	92.213	4,000.49	91.6256	4,000.49	90.7374	4,000.49	87.6155	4,000.49	86.0995	4,000.49	83.8456	4,000.49	83.2788	4,000.49	80.3088	4,000.49	81.7971	4,000.49	81.0542	4,000.49	83.2098	4,000.49	82.3582	4,000.49	79.8793	4,000.49	77.8543	4,000.49	73.4802	4,000.49	66.6286	4,000.49	73.5848	4,000.49	78.4894	4,000.49	76.6816	4,000.49	74.4858	4,000.49	76.4966	4,000.49	62.3938	4,000.49	67.0118	4,000.49	65.2126
4,141.11	91.6065	4,141.11	91.9987	4,141.11	91.5434	4,141.11	92.0935	4,141.11	92.3608	4,141.11	91.0148	4,141.11	90.8358	4,141.11	89.5163	4,141.11	89.6719	4,141.11	89.366	4,141.11	90.1992	4,141.11	91.2743	4,141.11	92.286	4,141.11	92.1961	4,141.11	90.9727	4,141.11	87.6655	4,141.11	87.1862	4,141.11	84.7744	4,141.11	82.4359	4,141.11	80.3692	4,141.11	83.1516	4,141.11	81.7	4,141.11	82.6575	4,141.11	81.6969	4,141.11	79.4135	4,141.11	76.3635	4,141.11	76.4183	4,141.11	69.5945	4,141.11	75.8099	4,141.11	76.6366	4,141.11	77.5388	4,141.11	75.0277	4,141.11	78.2311	4,141.11	52.0909	4,141.11	70.1884	4,141.11	69.0795
4,287.6	90.5407	4,287.6	92.3856	4,287.6	90.5913	4,287.6	91.7921	4,287.6	92.1657	4,287.6	91.2537	4,287.6	90.5227	4,287.6	90.2157	4,287.6	89.8397	4,287.6	88.8062	4,287.6	88.4725	4,287.6	89.6049	4,287.6	91.5133	4,287.6	92.1534	4,287.6	90.0604	4,287.6	86.5022	4,287.6	86.8003	4,287.6	85.0699	4,287.6	82.405	4,287.6	80.5126	4,287.6	81.8928	4,287.6	82.0297	4,287.6	81.6244	4,287.6	81.8364	4,287.6	76.8185	4,287.6	74.5825	4,287.6	74.6013	4,287.6	74.1237	4,287.6	75.5471	4,287.6	78.1906	4,287.6	75.5335	4,287.6	72.3356	4,287.6	78.1239	4,287.6	63.8503	4,287.6	72.8302	4,287.6	60.6704
4,438.48	91.506	4,438.48	92.763	4,438.48	91.9963	4,438.48	92.0235	4,438.48	92.1884	4,438.48	91.5503	4,438.48	90.4868	4,438.48	90.9528	4,438.48	89.7573	4,438.48	87.7656	4,438.48	87.9144	4,438.48	88.6665	4,438.48	90.8186	4,438.48	90.0333	4,438.48	89.6741	4,438.48	86.357	4,438.48	85.9229	4,438.48	82.7213	4,438.48	82.9727	4,438.48	80.9721	4,438.48	81.4072	4,438.48	79.5322	4,438.48	81.7326	4,438.48	82.1731	4,438.48	78.5714	4,438.48	73.5218	4,438.48	74.757	4,438.48	73.8865	4,438.48	72.7133	4,438.48	77.4822	4,438.48	72.5507	4,438.48	69.7781	4,438.48	76.3026	4,438.48	67.1598	4,438.48	76.4012	4,438.48	63.1834
4,595.21	91.4699	4,595.21	92.0812	4,595.21	92.9696	4,595.21	91.5722	4,595.21	91.2762	4,595.21	91.5588	4,595.21	90.9904	4,595.21	90.684	4,595.21	88.7375	4,595.21	87.9465	4,595.21	87.1464	4,595.21	89.4632	4,595.21	89.6255	4,595.21	89.9897	4,595.21	89.2013	4,595.21	88.6671	4,595.21	85.8675	4,595.21	83.1051	4,595.21	81.2579	4,595.21	83.4017	4,595.21	81.3558	4,595.21	80.6301	4,595.21	80.8094	4,595.21	78.5727	4,595.21	78.3875	4,595.21	74.9256	4,595.21	74.7711	4,595.21	69.2677	4,595.21	74.2008	4,595.21	73.7357	4,595.21	72.3028	4,595.21	66.6287	4,595.21	75.6942	4,595.21	67.8464	4,595.21	74.8707	4,595.21	62.8914
4,756.35	92.7613	4,756.35	92.6491	4,756.35	93.7124	4,756.35	93.5174	4,756.35	91.6627	4,756.35	92.2727	4,756.35	91.18	4,756.35	88.2487	4,756.35	90.546	4,756.35	87.812	4,756.35	88.4001	4,756.35	88.4476	4,756.35	90.0205	4,756.35	90.6824	4,756.35	90.205	4,756.35	88.9005	4,756.35	85.6891	4,756.35	82.9773	4,756.35	81.0438	4,756.35	82.3941	4,756.35	82.1372	4,756.35	81.8222	4,756.35	82.7038	4,756.35	79.8943	4,756.35	79.0556	4,756.35	74.2776	4,756.35	71.731	4,756.35	69.8979	4,756.35	77.7741	4,756.35	74.1024	4,756.35	72.0447	4,756.35	71.2651	4,756.35	71.2454	4,756.35	65.0414	4,756.35	73.7997	4,756.35	67.8759
4,924.8	92.1145	4,924.8	93.2318	4,924.8	92.8874	4,924.8	93.9486	4,924.8	92.0695	4,924.8	92.3911	4,924.8	90.8798	4,924.8	88.5281	4,924.8	90.7105	4,924.8	88.1676	4,924.8	89.9616	4,924.8	88.4065	4,924.8	89.4697	4,924.8	92.0107	4,924.8	89.4031	4,924.8	89.5526	4,924.8	86.1418	4,924.8	85.4703	4,924.8	82.0748	4,924.8	79.272	4,924.8	82.1003	4,924.8	79.4132	4,924.8	82.7812	4,924.8	75.3784	4,924.8	77.1005	4,924.8	77.6866	4,924.8	68.5373	4,924.8	73.132	4,924.8	79.6154	4,924.8	75.5242	4,924.8	70.9641	4,924.8	67.6363	4,924.8	72.5082	4,924.8	60.3986	4,924.8	73.3795	4,924.8	64.1163
5,097.66	90.6411	5,097.66	92.8789	5,097.66	91.3137	5,097.66	91.3927	5,097.66	92.3718	5,097.66	90.0679	5,097.66	90.5639	5,097.66	88.0643	5,097.66	90.9302	5,097.66	85.7893	5,097.66	89.6607	5,097.66	87.0107	5,097.66	88.8969	5,097.66	90.2206	5,097.66	89.4498	5,097.66	85.9739	5,097.66	84.3284	5,097.66	81.7939	5,097.66	78.7486	5,097.66	77.2736	5,097.66	80.9617	5,097.66	80.2332	5,097.66	78.9091	5,097.66	78.7656	5,097.66	75.0661	5,097.66	76.8845	5,097.66	70.1444	5,097.66	71.4786	5,097.66	74.758	5,097.66	73.7344	5,097.66	68.6488	5,097.66	71.3643	5,097.66	74.4391	5,097.66	55.042	5,097.66	71.176	5,097.66	58.3296
5,277.83	91.9506	5,277.83	92.5204	5,277.83	91.7852	5,277.83	91.7646	5,277.83	92.2322	5,277.83	90.5069	5,277.83	91.46	5,277.83	90.1606	5,277.83	90.2519	5,277.83	89.5214	5,277.83	86.7744	5,277.83	86.2117	5,277.83	87.5439	5,277.83	88.947	5,277.83	90.0264	5,277.83	86.6221	5,277.83	86.7803	5,277.83	82.7535	5,277.83	82.3907	5,277.83	79.9953	5,277.83	80.2327	5,277.83	80.3774	5,277.83	80.4896	5,277.83	77.8065	5,277.83	79.2355	5,277.83	69.4176	5,277.83	67.9182	5,277.83	73.526	5,277.83	70.4508	5,277.83	72.067	5,277.83	69.2864	5,277.83	72.8577	5,277.83	75.0752	5,277.83	55.5756	5,277.83	67.8383	5,277.83	62.5004
5,463.87	92.0213	5,463.87	90.9903	5,463.87	93.0038	5,463.87	92.1489	5,463.87	90.9571	5,463.87	91.2119	5,463.87	91.5058	5,463.87	90.7943	5,463.87	89.2129	5,463.87	90.5759	5,463.87	82.8487	5,463.87	85.1198	5,463.87	87.2844	5,463.87	89.0875	5,463.87	89.9082	5,463.87	86.6926	5,463.87	87.4948	5,463.87	82.7454	5,463.87	83.427	5,463.87	82.623	5,463.87	79.3661	5,463.87	81.4263	5,463.87	81.6113	5,463.87	75.8613	5,463.87	80.3343	5,463.87	75.586	5,463.87	70.1555	5,463.87	72.6494	5,463.87	64.0378	5,463.87	59.5239	5,463.87	71.6491	5,463.87	75.9833	5,463.87	74.894	5,463.87	50.0128	5,463.87	70.0847	5,463.87	65.1919
5,657.23	92.3755	5,657.23	90.7042	5,657.23	92.7863	5,657.23	93.1569	5,657.23	91.7366	5,657.23	91.5875	5,657.23	89.7526	5,657.23	91.6822	5,657.23	89.8788	5,657.23	89.3876	5,657.23	85.7813	5,657.23	85.3645	5,657.23	86.1177	5,657.23	87.2315	5,657.23	88.6075	5,657.23	86.1244	5,657.23	87.4258	5,657.23	80.7316	5,657.23	81.8573	5,657.23	79.2989	5,657.23	79.5372	5,657.23	79.6763	5,657.23	80.7008	5,657.23	76.7573	5,657.23	78.6701	5,657.23	72.5066	5,657.23	72.0057	5,657.23	62.973	5,657.23	73.6413	5,657.23	69.1797	5,657.23	70.9533	5,657.23	75.2574	5,657.23	71.6291	5,657.23	64.6255	5,657.23	76.6186	5,657.23	65.3924
5,856.45	92.0794	5,856.45	90.8231	5,856.45	90.1273	5,856.45	91.9856	5,856.45	91.6541	5,856.45	90.4815	5,856.45	89.4425	5,856.45	90.8702	5,856.45	90.266	5,856.45	86.3035	5,856.45	87.5802	5,856.45	86.5245	5,856.45	86.2914	5,856.45	87.8023	5,856.45	89.3905	5,856.45	86.6954	5,856.45	86.4867	5,856.45	82.5113	5,856.45	79.2095	5,856.45	75.0427	5,856.45	79.8834	5,856.45	73.0723	5,856.45	78.4722	5,856.45	75.9123	5,856.45	76.3958	5,856.45	73.8264	5,856.45	75.4309	5,856.45	69.3092	5,856.45	72.7478	5,856.45	67.9506	5,856.45	69.3336	5,856.45	70.2667	5,856.45	69.7357	5,856.45	64.8599	5,856.45	72.251	5,856.45	66.258
6,062.99	92.4564	6,062.99	92.6093	6,062.99	91.457	6,062.99	91.1037	6,062.99	91.3063	6,062.99	89.2002	6,062.99	90.493	6,062.99	88.7016	6,062.99	89.4994	6,062.99	86.3078	6,062.99	86.8096	6,062.99	85.1657	6,062.99	87.9119	6,062.99	87.9938	6,062.99	90.6555	6,062.99	86.4035	6,062.99	83.9361	6,062.99	82.312	6,062.99	76.1809	6,062.99	73.5579	6,062.99	79.7676	6,062.99	75.8021	6,062.99	80.6385	6,062.99	76.4308	6,062.99	79.4646	6,062.99	72.6956	6,062.99	69.3622	6,062.99	63.2026	6,062.99	70.9184	6,062.99	64.0989	6,062.99	65.0541	6,062.99	60.0295	6,062.99	68.0514	6,062.99	68.8089	6,062.99	72.6222	6,062.99	66.2333
6,276.86	90.8818	6,276.86	91.8924	6,276.86	93.419	6,276.86	89.0979	6,276.86	89.3432	6,276.86	89.4466	6,276.86	92.2558	6,276.86	87.1862	6,276.86	87.7237	6,276.86	86.6113	6,276.86	85.6692	6,276.86	81.196	6,276.86	85.7166	6,276.86	87.515	6,276.86	89.0205	6,276.86	84.884	6,276.86	83.7391	6,276.86	80.3346	6,276.86	77.1929	6,276.86	76.9928	6,276.86	78.5626	6,276.86	75.275	6,276.86	79.1338	6,276.86	77.3149	6,276.86	75.0124	6,276.86	73.9536	6,276.86	68.3422	6,276.86	61.2956	6,276.86	66.4793	6,276.86	62.7145	6,276.86	65.566	6,276.86	61.3104	6,276.86	71.5104	6,276.86	64.1665	6,276.86	68.5499	6,276.86	62.6551
6,498.05	91.918	6,498.05	92.0859	6,498.05	93.8392	6,498.05	90.1623	6,498.05	89.0807	6,498.05	91.3963	6,498.05	92.1345	6,498.05	90.1157	6,498.05	88.9049	6,498.05	88.5819	6,498.05	86.2295	6,498.05	78.0416	6,498.05	84.1104	6,498.05	86.8432	6,498.05	85.6549	6,498.05	84.2333	6,498.05	83.6679	6,498.05	76.4903	6,498.05	79.8066	6,498.05	75.3961	6,498.05	79.3666	6,498.05	77.0083	6,498.05	78.1737	6,498.05	77.7393	6,498.05	74.4657	6,498.05	72.8019	6,498.05	71.0507	6,498.05	69.0642	6,498.05	70.9599	6,498.05	62.6165	6,498.05	72.5241	6,498.05	67.7456	6,498.05	72.5742	6,498.05	51.8938	6,498.05	65.849	6,498.05	61.0764
6,726.56	93.1177	6,726.56	92.1143	6,726.56	91.4314	6,726.56	91.8747	6,726.56	91.0111	6,726.56	90.8287	6,726.56	89.4253	6,726.56	90.5442	6,726.56	89.69	6,726.56	87.5837	6,726.56	87.6872	6,726.56	83.1122	6,726.56	82.4573	6,726.56	83.8509	6,726.56	84.9214	6,726.56	84.2562	6,726.56	81.931	6,726.56	76.977	6,726.56	78.8765	6,726.56	75.4906	6,726.56	72.8256	6,726.56	78.0925	6,726.56	75.4361	6,726.56	74.8917	6,726.56	71.8007	6,726.56	69.0354	6,726.56	70.5129	6,726.56	68.5558	6,726.56	69.6746	6,726.56	60.0399	6,726.56	72.1487	6,726.56	65.2232	6,726.56	68.3215	6,726.56	59.722	6,726.56	55.7918	6,726.56	66.3916
6,963.87	93.0241	6,963.87	92.3673	6,963.87	90.1672	6,963.87	91.7237	6,963.87	91.848	6,963.87	88.7986	6,963.87	89.3367	6,963.87	89.0853	6,963.87	88.4939	6,963.87	84.4106	6,963.87	88.0146	6,963.87	84.6735	6,963.87	82.6318	6,963.87	81.0234	6,963.87	84.3835	6,963.87	83.4347	6,963.87	82.9449	6,963.87	77.6604	6,963.87	78.537	6,963.87	68.7047	6,963.87	66.9593	6,963.87	75.2626	6,963.87	72.4007	6,963.87	70.2037	6,963.87	74.3808	6,963.87	62.6881	6,963.87	70.0223	6,963.87	59.6685	6,963.87	64.365	6,963.87	61.6541	6,963.87	67.1131	6,963.87	60.8272	6,963.87	64.6255	6,963.87	63.1089	6,963.87	63.6201	6,963.87	62.1081
7,209.96	92.5793	7,209.96	92.6073	7,209.96	92.4623	7,209.96	90.7	7,209.96	91.0975	7,209.96	89.7611	7,209.96	91.3496	7,209.96	88.2692	7,209.96	87.0372	7,209.96	86.6058	7,209.96	86.1185	7,209.96	83.9336	7,209.96	83.42	7,209.96	83.3289	7,209.96	85.9686	7,209.96	84.2761	7,209.96	83.2784	7,209.96	77.8811	7,209.96	75.5411	7,209.96	71.5634	7,209.96	74.5933	7,209.96	74.5539	7,209.96	74.2786	7,209.96	70.3744	7,209.96	73.6722	7,209.96	68.5629	7,209.96	67.8245	7,209.96	66.3612	7,209.96	63.4291	7,209.96	67.5183	7,209.96	66.8858	7,209.96	61.0914	7,209.96	63.0908	7,209.96	59.4367	7,209.96	66.3449	7,209.96	63.8557
7,464.84	91.7824	7,464.84	92.4595	7,464.84	92.8216	7,464.84	90.1627	7,464.84	89.8468	7,464.84	90.5739	7,464.84	91.1193	7,464.84	88.6492	7,464.84	87.2448	7,464.84	86.8854	7,464.84	84.3686	7,464.84	80.7623	7,464.84	81.6545	7,464.84	82.7848	7,464.84	83.6046	7,464.84	82.6746	7,464.84	80.8861	7,464.84	76.9102	7,464.84	72.674	7,464.84	70.976	7,464.84	71.8046	7,464.84	70.1214	7,464.84	75.6803	7,464.84	72.8208	7,464.84	73.9678	7,464.84	65.2975	7,464.84	67.2914	7,464.84	66.375	7,464.84	68.216	7,464.84	62.7967	7,464.84	66.9305	7,464.84	63.7431	7,464.84	64.5986	7,464.84	60.6166	7,464.84	68.5155	7,464.84	67.1076
7,727.05	92.0514	7,727.05	92.3726	7,727.05	92.4064	7,727.05	90.4167	7,727.05	90.4622	7,727.05	90.0191	7,727.05	90.5651	7,727.05	88.5742	7,727.05	88.7297	7,727.05	85.9418	7,727.05	86.6982	7,727.05	78.9515	7,727.05	81.9866	7,727.05	82.3815	7,727.05	82.8284	7,727.05	80.3936	7,727.05	81.4982	7,727.05	74.6751	7,727.05	73.489	7,727.05	71.5636	7,727.05	73.0062	7,727.05	66.4859	7,727.05	73.7229	7,727.05	72.7374	7,727.05	71.0792	7,727.05	68.7909	7,727.05	71.5396	7,727.05	57.6126	7,727.05	68.5315	7,727.05	57.252	7,727.05	64.2926	7,727.05	60.2502	7,727.05	52.1304	7,727.05	60.928	7,727.05	64.9365	7,727.05	59.8663
7,999.51	91.7797	7,999.51	92.0411	7,999.51	90.9322	7,999.51	90.8609	7,999.51	90.5229	7,999.51	89.6965	7,999.51	88.4972	7,999.51	88.0815	7,999.51	87.6837	7,999.51	85.382	7,999.51	86.726	7,999.51	80.6187	7,999.51	80.2756	7,999.51	83.0344	7,999.51	82.9369	7,999.51	79.4421	7,999.51	79.2536	7,999.51	77.135	7,999.51	73.2901	7,999.51	68.3568	7,999.51	69.9295	7,999.51	64.3686	7,999.51	69.7932	7,999.51	67.6951	7,999.51	71.5523	7,999.51	68.1617	7,999.51	72.3921	7,999.51	66.8372	7,999.51	68.1436	7,999.51	65.4978	7,999.51	67.6521	7,999.51	60.5434	7,999.51	52.7113	7,999.51	65.01	7,999.51	51.6897	7,999.51	57.4345
8,282.23	91.7871	8,282.23	92.4334	8,282.23	91.9817	8,282.23	89.7375	8,282.23	89.9002	8,282.23	90.0662	8,282.23	88.9723	8,282.23	86.3671	8,282.23	86.702	8,282.23	85.1648	8,282.23	86.8996	8,282.23	81.6315	8,282.23	78.0917	8,282.23	80.8817	8,282.23	82.4454	8,282.23	79.9757	8,282.23	80.238	8,282.23	75.619	8,282.23	74.9098	8,282.23	60.456	8,282.23	68.6089	8,282.23	68.3368	8,282.23	70.6435	8,282.23	67.9892	8,282.23	71.3048	8,282.23	60.9882	8,282.23	71.0258	8,282.23	67.5827	8,282.23	65.2743	8,282.23	65.7517	8,282.23	61.8681	8,282.23	50.2939	8,282.23	57.9571	8,282.23	65.3587	8,282.23	59.9702	8,282.23	57.3433
8,573.73	91.6693	8,573.73	92.4294	8,573.73	92.4819	8,573.73	90.5068	8,573.73	90.5559	8,573.73	90.2899	8,573.73	89.4275	8,573.73	85.6109	8,573.73	86.0475	8,573.73	86.8672	8,573.73	84.7094	8,573.73	80.1918	8,573.73	75.6904	8,573.73	77.844	8,573.73	82.519	8,573.73	80.2546	8,573.73	78.7226	8,573.73	74.4095	8,573.73	74.6595	8,573.73	64.986	8,573.73	65.2367	8,573.73	70.5692	8,573.73	70.7139	8,573.73	70.2611	8,573.73	66.4483	8,573.73	63.6731	8,573.73	67.9676	8,573.73	60.7271	8,573.73	65.8641	8,573.73	64.6347	8,573.73	53.856	8,573.73	49.8824	8,573.73	54.8426	8,573.73	60.4083	8,573.73	58.7095	8,573.73	61.7965
8,876.95	92.183	8,876.95	91.8847	8,876.95	91.7557	8,876.95	91.256	8,876.95	91.2558	8,876.95	87.983	8,876.95	88.5188	8,876.95	85.8783	8,876.95	87.2098	8,876.95	85.9708	8,876.95	84.3169	8,876.95	77.5529	8,876.95	78.4442	8,876.95	76.9802	8,876.95	80.6621	8,876.95	79.6853	8,876.95	78.2392	8,876.95	73.8426	8,876.95	73.702	8,876.95	67.4355	8,876.95	64.6153	8,876.95	64.11	8,876.95	68.9574	8,876.95	66.2942	8,876.95	71.6054	8,876.95	68.26	8,876.95	62.4246	8,876.95	64.4095	8,876.95	66.3528	8,876.95	63.7384	8,876.95	63.089	8,876.95	56.3904	8,876.95	57.7176	8,876.95	65.1594	8,876.95	51.8743	8,876.95	58.4556
9,188.96	91.8444	9,188.96	92.0303	9,188.96	91.8566	9,188.96	90.0168	9,188.96	90.0986	9,188.96	88.8111	9,188.96	87.1392	9,188.96	86.6679	9,188.96	86.848	9,188.96	84.4864	9,188.96	84.5199	9,188.96	81.0518	9,188.96	77.3308	9,188.96	79.2268	9,188.96	80.7161	9,188.96	77.0495	9,188.96	77.1176	9,188.96	73.3246	9,188.96	73.7715	9,188.96	67.2536	9,188.96	65.4103	9,188.96	63.2131	9,188.96	68.3629	9,188.96	67.6329	9,188.96	70.1564	9,188.96	66.021	9,188.96	67.4615	9,188.96	63.5215	9,188.96	64.88	9,188.96	63.943	9,188.96	58.6374	9,188.96	63.3216	9,188.96	52.2173	9,188.96	65.9835	9,188.96	59.4519	9,188.96	54.583
9,514.16	91.9085	9,514.16	92.3837	9,514.16	91.518	9,514.16	91.0298	9,514.16	90.8595	9,514.16	89.1556	9,514.16	87.3622	9,514.16	86.6325	9,514.16	85.4551	9,514.16	84.3746	9,514.16	82.6534	9,514.16	82.2791	9,514.16	74.5328	9,514.16	77.5951	9,514.16	79.6061	9,514.16	78.7529	9,514.16	78.8041	9,514.16	72.0784	9,514.16	73.5196	9,514.16	62.8353	9,514.16	61.7075	9,514.16	65.4477	9,514.16	67.5475	9,514.16	66.1858	9,514.16	69.4591	9,514.16	62.5549	9,514.16	69.7789	9,514.16	58.009	9,514.16	60.4387	9,514.16	61.475	9,514.16	61.9391	9,514.16	58.8039	9,514.16	61.6263	9,514.16	58.0211	9,514.16	57.0985	9,514.16	53.2006
9,849.61	92.6464	9,849.61	91.8192	9,849.61	91.4828	9,849.61	91.4056	9,849.61	90.702	9,849.61	87.6223	9,849.61	87.8453	9,849.61	86.457	9,849.61	85.68	9,849.61	83.494	9,849.61	81.7348	9,849.61	80.4862	9,849.61	75.4932	9,849.61	74.036	9,849.61	77.1176	9,849.61	79.6713	9,849.61	78.1284	9,849.61	73.1046	9,849.61	71.4753	9,849.61	64.7535	9,849.61	61.5204	9,849.61	62.6042	9,849.61	64.5974	9,849.61	65.4331	9,849.61	68.2013	9,849.61	64.2643	9,849.61	65.2523	9,849.61	62.87	9,849.61	58.5325	9,849.61	59.9632	9,849.61	64.832	9,849.61	58.6218	9,849.61	61.8556	9,849.61	52.4776	9,849.61	44.4319	9,849.61	57.9772
10,196.8	92.1359	10,196.8	91.6077	10,196.8	91.8102	10,196.8	90.4621	10,196.8	88.9754	10,196.8	87.8998	10,196.8	86.9993	10,196.8	85.6013	10,196.8	85.7103	10,196.8	82.8114	10,196.8	82.0471	10,196.8	80.7354	10,196.8	76.5156	10,196.8	73.7216	10,196.8	79.7923	10,196.8	78.6577	10,196.8	74.3874	10,196.8	74.7896	10,196.8	71.9641	10,196.8	67.304	10,196.8	60.3094	10,196.8	55.9498	10,196.8	62.0062	10,196.8	66.4858	10,196.8	68.1966	10,196.8	65.941	10,196.8	60.7683	10,196.8	62.9346	10,196.8	60.5503	10,196.8	57.7747	10,196.8	64.3101	10,196.8	60.079	10,196.8	60.1569	10,196.8	51.2828	10,196.8	57.9127	10,196.8	49.0377
10,555.7	91.7277	10,555.7	91.5013	10,555.7	91.4635	10,555.7	90.1739	10,555.7	89.3187	10,555.7	87.9614	10,555.7	86.5399	10,555.7	84.5239	10,555.7	83.8048	10,555.7	82.6531	10,555.7	81.4423	10,555.7	81.2883	10,555.7	75.4559	10,555.7	72.3363	10,555.7	76.1855	10,555.7	78.9556	10,555.7	76.0898	10,555.7	72.3117	10,555.7	72.1484	10,555.7	66.2527	10,555.7	59.7733	10,555.7	64.0508	10,555.7	62.1441	10,555.7	60.1786	10,555.7	65.235	10,555.7	64.1276	10,555.7	60.4837	10,555.7	62.4419	10,555.7	54.3409	10,555.7	60.243	10,555.7	62.9134	10,555.7	54.5109	10,555.7	59.2157	10,555.7	42.4835	10,555.7	54.8025	10,555.7	54.822
10,927.7	92.291	10,927.7	91.9351	10,927.7	91.1381	10,927.7	90.684	10,927.7	90.1639	10,927.7	87.145	10,927.7	86.4971	10,927.7	83.8291	10,927.7	83.6608	10,927.7	82.1571	10,927.7	80.8441	10,927.7	80.6009	10,927.7	78.0047	10,927.7	73.1487	10,927.7	74.8865	10,927.7	78.7019	10,927.7	77.8528	10,927.7	71.4161	10,927.7	70.6599	10,927.7	66.2597	10,927.7	64.2435	10,927.7	59.6659	10,927.7	61.5637	10,927.7	50.55	10,927.7	64.642	10,927.7	60.2156	10,927.7	54.522	10,927.7	65.5035	10,927.7	60.6859	10,927.7	61.9942	10,927.7	60.6093	10,927.7	61.4228	10,927.7	64.2151	10,927.7	52.6995	10,927.7	57.7902	10,927.7	58.0053
11,313	92.2829	11,313	91.7454	11,313	91.2235	11,313	90.1574	11,313	89.1598	11,313	86.8631	11,313	86.4213	11,313	83.1709	11,313	82.8362	11,313	81.6066	11,313	81.3455	11,313	81.0689	11,313	79.4226	11,313	75.2094	11,313	77.8258	11,313	77.0275	11,313	76.3457	11,313	74.7606	11,313	72.2821	11,313	66.218	11,313	60.3235	11,313	55.2794	11,313	63.5039	11,313	47.5595	11,313	65.6839	11,313	61.9441	11,313	49.3326	11,313	64.7459	11,313	61.5763	11,313	62.5493	11,313	61.2139	11,313	57.865	11,313	55.071	11,313	56.8151	11,313	56.6321	11,313	58.9989
11,712.9	92.1012	11,712.9	91.372	11,712.9	90.9112	11,712.9	89.5992	11,712.9	88.7813	11,712.9	86.28	11,712.9	84.6584	11,712.9	81.9084	11,712.9	80.1612	11,712.9	80.4863	11,712.9	80.8134	11,712.9	81.6581	11,712.9	78.0553	11,712.9	76.4704	11,712.9	74.2441	11,712.9	77.4565	11,712.9	77.9782	11,712.9	74.2992	11,712.9	71.7879	11,712.9	63.0304	11,712.9	61.9451	11,712.9	58.8078	11,712.9	62.4256	11,712.9	52.3328	11,712.9	61.164	11,712.9	61.0957	11,712.9	62.5216	11,712.9	63.0774	11,712.9	59.2207	11,712.9	64.6377	11,712.9	62.0052	11,712.9	62.085	11,712.9	56.9813	11,712.9	54.6555	11,712.9	62.0124	11,712.9	52.956
12,126	91.7488	12,126	91.0634	12,126	90.3851	12,126	89.1792	12,126	88.4777	12,126	85.0872	12,126	84.1542	12,126	81.8239	12,126	80.8676	12,126	79.8881	12,126	80.8066	12,126	82.433	12,126	80.2786	12,126	73.6693	12,126	72.672	12,126	77.8086	12,126	77.9922	12,126	73.4537	12,126	71.4772	12,126	65.4409	12,126	65.6988	12,126	58.2807	12,126	62.317	12,126	51.9765	12,126	58.9295	12,126	63.7996	12,126	62.3127	12,126	57.9751	12,126	60.4285	12,126	64.1286	12,126	62.9841	12,126	60.0079	12,126	59.9797	12,126	53.9111	12,126	59.7159	12,126	56.3697
12,553.7	91.4065	12,553.7	90.8395	12,553.7	90.4421	12,553.7	88.7161	12,553.7	87.5846	12,553.7	84.7467	12,553.7	83.6135	12,553.7	79.7052	12,553.7	78.6027	12,553.7	79.893	12,553.7	81.204	12,553.7	82.1495	12,553.7	80.1664	12,553.7	76.5766	12,553.7	73.5807	12,553.7	77.8413	12,553.7	78.6951	12,553.7	74.9765	12,553.7	71.1899	12,553.7	67.0542	12,553.7	64.8982	12,553.7	67.1474	12,553.7	55.16	12,553.7	58.1819	12,553.7	51.6569	12,553.7	66.2573	12,553.7	62.3069	12,553.7	57.0789	12,553.7	59.0642	12,553.7	55.7818	12,553.7	65.1022	12,553.7	62.105	12,553.7	58.2065	12,553.7	57.3838	12,553.7	60.458	12,553.7	52.6305
12,996.1	91.3431	12,996.1	90.9188	12,996.1	90.173	12,996.1	88.5125	12,996.1	87.0975	12,996.1	84.7612	12,996.1	82.006	12,996.1	79.2201	12,996.1	79.6067	12,996.1	81.6839	12,996.1	80.8559	12,996.1	81.5507	12,996.1	79.6833	12,996.1	78.0394	12,996.1	76.1475	12,996.1	77.8593	12,996.1	76.41	12,996.1	74.9457	12,996.1	68.7669	12,996.1	61.674	12,996.1	61.567	12,996.1	64.2754	12,996.1	47.333	12,996.1	62.4669	12,996.1	58.1659	12,996.1	64.5229	12,996.1	67.8563	12,996.1	58.4399	12,996.1	31.7159	12,996.1	58.6389	12,996.1	61.9562	12,996.1	58.491	12,996.1	55.2964	12,996.1	59.7933	12,996.1	57.0446	12,996.1	52.5636
13,454.6	91.1513	13,454.6	90.5033	13,454.6	89.5471	13,454.6	87.9115	13,454.6	86.948	13,454.6	84.7578	13,454.6	82.0589	13,454.6	82.0297	13,454.6	79.83	13,454.6	80.7442	13,454.6	81.4548	13,454.6	82.1344	13,454.6	80.6563	13,454.6	79.037	13,454.6	76.4301	13,454.6	77.3141	13,454.6	75.9306	13,454.6	73.9347	13,454.6	70.8666	13,454.6	62.3536	13,454.6	66.9051	13,454.6	67.6343	13,454.6	55.5465	13,454.6	60.949	13,454.6	60.7577	13,454.6	55.7421	13,454.6	66.7923	13,454.6	63.9297	13,454.6	47.4033	13,454.6	58.8221	13,454.6	60.9551	13,454.6	58.8698	13,454.6	55.5991	13,454.6	51.1792	13,454.6	53.7888	13,454.6	54.0609
13,929.2	90.7797	13,929.2	90.5158	13,929.2	89.5555	13,929.2	87.2139	13,929.2	85.8858	13,929.2	84.5197	13,929.2	83.1113	13,929.2	80.6134	13,929.2	79.4271	13,929.2	81.3531	13,929.2	81.7529	13,929.2	81.8311	13,929.2	80.7825	13,929.2	79.4471	13,929.2	72.9474	13,929.2	72.9354	13,929.2	75.2074	13,929.2	72.4918	13,929.2	69.1602	13,929.2	59.8737	13,929.2	67.0233	13,929.2	62.6448	13,929.2	54.8766	13,929.2	58.9968	13,929.2	55.9762	13,929.2	55.7349	13,929.2	59.3972	13,929.2	59.8857	13,929.2	53.5834	13,929.2	60.1086	13,929.2	58.9119	13,929.2	55.2065	13,929.2	54.7409	13,929.2	57.7584	13,929.2	56.9882	13,929.2	54.8351
14,419.9	90.765	14,419.9	89.7071	14,419.9	88.8716	14,419.9	86.497	14,419.9	85.382	14,419.9	83.3605	14,419.9	81.5594	14,419.9	82.0324	14,419.9	80.3748	14,419.9	80.1895	14,419.9	81.9121	14,419.9	81.5329	14,419.9	79.9498	14,419.9	76.8559	14,419.9	73.2265	14,419.9	75.5407	14,419.9	76.1161	14,419.9	74.5041	14,419.9	69.5919	14,419.9	65.5382	14,419.9	68.7231	14,419.9	64.5575	14,419.9	48.2199	14,419.9	62.6524	14,419.9	58.8439	14,419.9	57.6295	14,419.9	61.0318	14,419.9	59.9065	14,419.9	48.5491	14,419.9	50.7876	14,419.9	56.6225	14,419.9	50.2079	14,419.9	53.8711	14,419.9	52.8694	14,419.9	51.5571	14,419.9	50.7377
14,928.2	89.4834	14,928.2	89.5637	14,928.2	88.247	14,928.2	85.2816	14,928.2	83.9428	14,928.2	84.1134	14,928.2	81.4285	14,928.2	82.0198	14,928.2	80.6873	14,928.2	81.481	14,928.2	81.0582	14,928.2	81.581	14,928.2	80.5256	14,928.2	79.5355	14,928.2	72.094	14,928.2	75.3177	14,928.2	76.1089	14,928.2	73.9137	14,928.2	68.497	14,928.2	63.1264	14,928.2	63.896	14,928.2	67.5109	14,928.2	54.5834	14,928.2	57.4034	14,928.2	58.5102	14,928.2	56.2174	14,928.2	61.1058	14,928.2	55.757	14,928.2	53.2752	14,928.2	55.3731	14,928.2	56.8633	14,928.2	54.5081	14,928.2	58.2907	14,928.2	60.4715	14,928.2	55.7317	14,928.2	55.3065
15,455.6	89.3799	15,455.6	87.8244	15,455.6	86.8973	15,455.6	84.9265	15,455.6	83.5326	15,455.6	82.2097	15,455.6	81.1673	15,455.6	82.1238	15,455.6	81.5321	15,455.6	81.2101	15,455.6	80.8695	15,455.6	80.329	15,455.6	80.2197	15,455.6	77.4226	15,455.6	73.468	15,455.6	74.1848	15,455.6	75.4157	15,455.6	70.6292	15,455.6	66.2483	15,455.6	57.8661	15,455.6	61.332	15,455.6	64.1616	15,455.6	48.9217	15,455.6	58.6977	15,455.6	55.4854	15,455.6	57.6443	15,455.6	62.1606	15,455.6	51.5872	15,455.6	51.8401	15,455.6	56.8339	15,455.6	45.5741	15,455.6	52.7768	15,455.6	51.222	15,455.6	58.4053	15,455.6	46.3277	15,455.6	50.9617
16,000.5	87.5264	16,000.5	87.6661	16,000.5	85.3198	16,000.5	83.5185	16,000.5	81.5875	16,000.5	83.4613	16,000.5	82.5688	16,000.5	83.4857	16,000.5	82.066	16,000.5	82.0487	16,000.5	81.1072	16,000.5	81.696	16,000.5	80.2243	16,000.5	77.1915	16,000.5	71.7473	16,000.5	72.9802	16,000.5	74.4297	16,000.5	71.1373	16,000.5	66.6551	16,000.5	63.6229	16,000.5	63.7022	16,000.5	63.6785	16,000.5	57.8605	16,000.5	55.7491	16,000.5	42.738	16,000.5	56.4297	16,000.5	54.3763	16,000.5	58.3264	16,000.5	59.0602	16,000.5	45.0653	16,000.5	56.826	16,000.5	52.6565	16,000.5	57.4762	16,000.5	51.0881	16,000.5	48.3455	16,000.5	52.837
16,564.5	86.5171	16,564.5	84.3745	16,564.5	84.106	16,564.5	82.208	16,564.5	81.6896	16,564.5	83.1148	16,564.5	82.696	16,564.5	83.5421	16,564.5	83.1278	16,564.5	82	16,564.5	80.2322	16,564.5	79.5747	16,564.5	78.8392	16,564.5	75.5528	16,564.5	71.8393	16,564.5	73.4812	16,564.5	74.4908	16,564.5	71.2726	16,564.5	65.2877	16,564.5	61.743	16,564.5	61.3627	16,564.5	62.2201	16,564.5	55.7692	16,564.5	53.6025	16,564.5	47.1383	16,564.5	55.9445	16,564.5	55.7444	16,564.5	59.2118	16,564.5	58.4419	16,564.5	50.2331	16,564.5	57.6684	16,564.5	48.7834	16,564.5	54.105	16,564.5	45.9832	16,564.5	39.9411	16,564.5	43.8026
17,148.9	84.6634	17,148.9	84.2577	17,148.9	81.9895	17,148.9	82.6291	17,148.9	80.8157	17,148.9	83.4128	17,148.9	84.0533	17,148.9	84.1031	17,148.9	82.8844	17,148.9	81.1576	17,148.9	80.648	17,148.9	79.4414	17,148.9	79.4018	17,148.9	75.7549	17,148.9	72.7542	17,148.9	72.1196	17,148.9	72.4279	17,148.9	69.7683	17,148.9	66.0264	17,148.9	57.9188	17,148.9	59.2377	17,148.9	60.2264	17,148.9	58.4816	17,148.9	37.128	17,148.9	50.0114	17,148.9	55.0116	17,148.9	55.6505	17,148.9	44.9068	17,148.9	52.1137	17,148.9	38.9474	17,148.9	59.0389	17,148.9	44.6888	17,148.9	53.3125	17,148.9	42.8052	17,148.9	47.419	17,148.9	47.6705
17,752.4	82.892	17,752.4	82.3366	17,752.4	81.1707	17,752.4	82.2788	17,752.4	81.9746	17,752.4	83.6485	17,752.4	84.1278	17,752.4	83.4882	17,752.4	83.127	17,752.4	80.4972	17,752.4	80.055	17,752.4	78.3342	17,752.4	77.8603	17,752.4	73.3078	17,752.4	71.3667	17,752.4	71.082	17,752.4	71.8427	17,752.4	67.1281	17,752.4	65.0718	17,752.4	58.912	17,752.4	59.7586	17,752.4	57.9525	17,752.4	56.6452	17,752.4	41.5819	17,752.4	41.202	17,752.4	50.902	17,752.4	57.2595	17,752.4	42.2191	17,752.4	37.9698	17,752.4	50.5389	17,752.4	52.688	17,752.4	41.9678	17,752.4	49.142	17,752.4	52.3981	17,752.4	40.1965	17,752.4	46.5902
18,379.4	81.5871	18,379.4	81.6785	18,379.4	81.3229	18,379.4	83.2491	18,379.4	83.3356	18,379.4	84.7238	18,379.4	84.6003	18,379.4	84.2194	18,379.4	83.0302	18,379.4	80.2305	18,379.4	79.2945	18,379.4	78.1313	18,379.4	78.1738	18,379.4	73.0408	18,379.4	72.5306	18,379.4	70.3071	18,379.4	71.0206	18,379.4	67.4925	18,379.4	64.5433	18,379.4	59.1399	18,379.4	55.4355	18,379.4	59.4489	18,379.4	57.198	18,379.4	47.1854	18,379.4	43.3793	18,379.4	49.675	18,379.4	54.7441	18,379.4	55.4463	18,379.4	43.0639	18,379.4	55.3428	18,379.4	56.4394	18,379.4	42.7978	18,379.4	56.8728	18,379.4	49.675	18,379.4	48.2056	18,379.4	46.4432
19,026.9	81.1181	19,026.9	82.3324	19,026.9	81.9114	19,026.9	84.2429	19,026.9	84.8054	19,026.9	85.5846	19,026.9	85.2204	19,026.9	83.9948	19,026.9	83.3696	19,026.9	79.904	19,026.9	80.2164	19,026.9	77.05	19,026.9	77.5194	19,026.9	72.6685	19,026.9	72.0099	19,026.9	68.7924	19,026.9	69.4561	19,026.9	66.4784	19,026.9	62.4792	19,026.9	56.1198	19,026.9	46.6509	19,026.9	56.6136	19,026.9	51.0548	19,026.9	47.8672	19,026.9	39.3984	19,026.9	47.2504	19,026.9	46.6144	19,026.9	48.3861	19,026.9	45.2044	19,026.9	52.9054	19,026.9	41.2998	19,026.9	30.7448	19,026.9	51.1777	19,026.9	54.0766	19,026.9	42.3562	19,026.9	37.2021
19,697.8	81.9603	19,697.8	83.7313	19,697.8	83.6636	19,697.8	85.5252	19,697.8	86.167	19,697.8	86.5041	19,697.8	86.0078	19,697.8	84.7839	19,697.8	83.7608	19,697.8	79.9798	19,697.8	79.3676	19,697.8	75.4263	19,697.8	75.9539	19,697.8	70.8739	19,697.8	68.9976	19,697.8	65.2301	19,697.8	64.6411	19,697.8	63.603	19,697.8	58.7164	19,697.8	57.2207	19,697.8	50.9259	19,697.8	51.6223	19,697.8	46.8194	19,697.8	45.5526	19,697.8	41.5706	19,697.8	50.0697	19,697.8	51.1791	19,697.8	50.4552	19,697.8	47.1177	19,697.8	52.8885	19,697.8	35.6108	19,697.8	27.7859	19,697.8	53.4327	19,697.8	48.8522	19,697.8	41.1858	19,697.8	40.2285
19,999.5	82.814	19,999.5	84.423	19,999.5	84.7501	19,999.5	86.2691	19,999.5	86.5899	19,999.5	86.6342	19,999.5	86.5219	19,999.5	84.6914	19,999.5	83.5281	19,999.5	79.2955	19,999.5	79.1847	19,999.5	74.5434	19,999.5	74.9939	19,999.5	69.8403	19,999.5	66.9964	19,999.5	61.8656	19,999.5	66.0678	19,999.5	63.0177	19,999.5	57.4486	19,999.5	44.7039	19,999.5	59.7907	19,999.5	57.8911	19,999.5	60.1012	19,999.5	60.1919	19,999.5	53.8102	19,999.5	39.532	19,999.5	56.5352	19,999.5	62.3012	19,999.5	55.4549	19,999.5	55.969	19,999.5	55.5083	19,999.5	53.9112	19,999.5	48.3757	19,999.5	46.8356	19,999.5	41.6885	19,999.5	48.1187
