"SPL Horizontal"
"On-Axis"		"10°"		"-10°"		"20°"		"-20°"		"30°"		"-30°"		"40°"		"-40°"		"50°"		"-50°"		"60°"		"-60°"		"70°"		"-70°"		"80°"		"-80°"		"90°"		"-90°"		"100°"		"-100°"		"110°"		"-110°"		"120°"		"-120°"		"130°"		"-130°"		"140°"		"-140°"		"150°"		"-150°"		"160°"		"-160°"		"170°"		"-170°"		"180°"
"Frequency / Hz"	"Sound Pressure Level / dB (re 20 µPa/V)  [2.83V at 1m]"	"Frequency / Hz"	"Sound Pressure Level / dB (re 20 µPa/V)  [2.83V at 1m]"	"Frequency / Hz"	"Sound Pressure Level / dB (re 20 µPa/V)  [2.83V at 1m]"	"Frequency / Hz"	"Sound Pressure Level / dB (re 20 µPa/V)  [2.83V at 1m]"	"Frequency / Hz"	"Sound Pressure Level / dB (re 20 µPa/V)  [2.83V at 1m]"	"Frequency / Hz"	"Sound Pressure Level / dB (re 20 µPa/V)  [2.83V at 1m]"	"Frequency / Hz"	"Sound Pressure Level / dB (re 20 µPa/V)  [2.83V at 1m]"	"Frequency / Hz"	"Sound Pressure Level / dB (re 20 µPa/V)  [2.83V at 1m]"	"Frequency / Hz"	"Sound Pressure Level / dB (re 20 µPa/V)  [2.83V at 1m]"	"Frequency / Hz"	"Sound Pressure Level / dB (re 20 µPa/V)  [2.83V at 1m]"	"Frequency / Hz"	"Sound Pressure Level / dB (re 20 µPa/V)  [2.83V at 1m]"	"Frequency / Hz"	"Sound Pressure Level / dB (re 20 µPa/V)  [2.83V at 1m]"	"Frequency / Hz"	"Sound Pressure Level / dB (re 20 µPa/V)  [2.83V at 1m]"	"Frequency / Hz"	"Sound Pressure Level / dB (re 20 µPa/V)  [2.83V at 1m]"	"Frequency / Hz"	"Sound Pressure Level / dB (re 20 µPa/V)  [2.83V at 1m]"	"Frequency / Hz"	"Sound Pressure Level / dB (re 20 µPa/V)  [2.83V at 1m]"	"Frequency / Hz"	"Sound Pressure Level / dB (re 20 µPa/V)  [2.83V at 1m]"	"Frequency / Hz"	"Sound Pressure Level / dB (re 20 µPa/V)  [2.83V at 1m]"	"Frequency / Hz"	"Sound Pressure Level / dB (re 20 µPa/V)  [2.83V at 1m]"	"Frequency / Hz"	"Sound Pressure Level / dB (re 20 µPa/V)  [2.83V at 1m]"	"Frequency / Hz"	"Sound Pressure Level / dB (re 20 µPa/V)  [2.83V at 1m]"	"Frequency / Hz"	"Sound Pressure Level / dB (re 20 µPa/V)  [2.83V at 1m]"	"Frequency / Hz"	"Sound Pressure Level / dB (re 20 µPa/V)  [2.83V at 1m]"	"Frequency / Hz"	"Sound Pressure Level / dB (re 20 µPa/V)  [2.83V at 1m]"	"Frequency / Hz"	"Sound Pressure Level / dB (re 20 µPa/V)  [2.83V at 1m]"	"Frequency / Hz"	"Sound Pressure Level / dB (re 20 µPa/V)  [2.83V at 1m]"	"Frequency / Hz"	"Sound Pressure Level / dB (re 20 µPa/V)  [2.83V at 1m]"	"Frequency / Hz"	"Sound Pressure Level / dB (re 20 µPa/V)  [2.83V at 1m]"	"Frequency / Hz"	"Sound Pressure Level / dB (re 20 µPa/V)  [2.83V at 1m]"	"Frequency / Hz"	"Sound Pressure Level / dB (re 20 µPa/V)  [2.83V at 1m]"	"Frequency / Hz"	"Sound Pressure Level / dB (re 20 µPa/V)  [2.83V at 1m]"	"Frequency / Hz"	"Sound Pressure Level / dB (re 20 µPa/V)  [2.83V at 1m]"	"Frequency / Hz"	"Sound Pressure Level / dB (re 20 µPa/V)  [2.83V at 1m]"	"Frequency / Hz"	"Sound Pressure Level / dB (re 20 µPa/V)  [2.83V at 1m]"	"Frequency / Hz"	"Sound Pressure Level / dB (re 20 µPa/V)  [2.83V at 1m]"	"Frequency / Hz"	"Sound Pressure Level / dB (re 20 µPa/V)  [2.83V at 1m]"
20.5078	56.1958	20.5078	56.1928	20.5078	56.1738	20.5078	56.165	20.5078	56.1274	20.5078	56.1136	20.5078	56.0579	20.5078	56.0404	20.5078	55.9674	20.5078	55.948	20.5078	55.859	20.5078	55.8396	20.5078	55.7363	20.5078	55.719	20.5078	55.6035	20.5078	55.5903	20.5078	55.4652	20.5078	55.4579	20.5078	55.3264	20.5078	55.3261	20.5078	55.1919	20.5078	55.1989	20.5078	55.0664	20.5078	55.08	20.5078	54.9538	20.5078	54.9725	20.5078	54.8575	20.5078	54.8787	20.5078	54.7798	20.5078	54.8007	20.5078	54.7221	20.5078	54.7397	20.5078	54.6851	20.5078	54.6968	20.5078	54.6688	20.5078	54.673
21.9727	55.3231	21.9727	55.3143	21.9727	55.2983	21.9727	55.2721	21.9727	55.2409	21.9727	55.1978	21.9727	55.1527	21.9727	55.0937	21.9727	55.0366	21.9727	54.963	21.9727	54.8962	21.9727	54.8104	21.9727	54.7366	21.9727	54.6413	21.9727	54.5632	21.9727	54.4621	21.9727	54.3823	21.9727	54.2795	21.9727	54.2008	21.9727	54.1006	21.9727	54.0251	21.9727	53.9319	21.9727	53.8616	21.9727	53.7787	21.9727	53.7154	21.9727	53.6453	21.9727	53.5905	21.9727	53.5344	21.9727	53.4891	21.9727	53.4471	21.9727	53.4122	21.9727	53.3835	21.9727	53.3598	21.9727	53.3432	21.9727	53.3313	21.9727	53.3259
23.4375	56.1175	23.4375	56.1043	23.4375	56.0895	23.4375	56.0503	23.4375	56.021	23.4375	55.9568	23.4375	55.9134	23.4375	55.8263	23.4375	55.7696	23.4375	55.6623	23.4375	55.5932	23.4375	55.4696	23.4375	55.3893	23.4375	55.2542	23.4375	55.1642	23.4375	55.0232	23.4375	54.9253	23.4375	54.7847	23.4375	54.681	23.4375	54.5472	23.4375	54.4406	23.4375	54.3193	23.4375	54.2129	23.4375	54.1087	23.4375	54.0062	23.4375	53.9217	23.4375	53.8273	23.4375	53.7631	23.4375	53.681	23.4375	53.6357	23.4375	53.5698	23.4375	53.5408	23.4375	53.4947	23.4375	53.4788	23.4375	53.4551	23.4375	53.4501
24.9023	57.437	24.9023	57.4239	24.9023	57.4135	24.9023	57.3745	24.9023	57.3539	24.9023	57.29	24.9023	57.2601	24.9023	57.1729	24.9023	57.1346	24.9023	57.0266	24.9023	56.9811	24.9023	56.8556	24.9023	56.8046	24.9023	56.6657	24.9023	56.6109	24.9023	56.4636	24.9023	56.4068	24.9023	56.2566	24.9023	56.1997	24.9023	56.0524	24.9023	55.9971	24.9023	55.8585	24.9023	55.8065	24.9023	55.6814	24.9023	55.6343	24.9023	55.5264	24.9023	55.4854	24.9023	55.397	24.9023	55.3632	24.9023	55.2953	24.9023	55.2693	24.9023	55.2216	24.9023	55.204	24.9023	55.1759	24.9023	55.1671	24.9023	55.1578
26.3672	57.402	26.3672	57.3822	26.3672	57.373	26.3672	57.3141	26.3672	57.2958	26.3672	57.1993	26.3672	57.1719	26.3672	57.0407	26.3672	57.0044	26.3672	56.8426	26.3672	56.7976	26.3672	56.6106	26.3672	56.5572	26.3672	56.3521	26.3672	56.2909	26.3672	56.076	26.3672	56.0078	26.3672	55.7923	26.3672	55.7185	26.3672	55.5122	26.3672	55.4346	26.3672	55.2464	26.3672	55.1674	26.3672	55.0046	26.3672	54.9272	26.3672	54.7943	26.3672	54.7221	26.3672	54.6202	26.3672	54.5567	26.3672	54.4842	26.3672	54.4329	26.3672	54.3859	26.3672	54.3499	26.3672	54.3239	26.3672	54.3054	26.3672	54.2971
27.832	58.8451	27.832	58.8231	27.832	58.8173	27.832	58.7519	27.832	58.7403	27.832	58.633	27.832	58.6155	27.832	58.469	27.832	58.4453	27.832	58.2636	27.832	58.2335	27.832	58.022	27.832	57.9853	27.832	57.7508	27.832	57.7074	27.832	57.4584	27.832	57.4083	27.832	57.1544	27.832	57.098	27.832	56.8495	27.832	56.7876	27.832	56.5549	27.832	56.4892	27.832	56.2811	27.832	56.2141	27.832	56.0373	27.832	55.9724	27.832	55.8305	27.832	55.7716	27.832	55.6653	27.832	55.6164	27.832	55.5437	27.832	55.5087	27.832	55.4668	27.832	55.4485	27.832	55.4349
29.2969	59.2906	29.2969	59.2642	29.2969	59.2635	29.2969	59.1846	29.2969	59.1832	29.2969	59.0538	29.2969	59.0512	29.2969	58.8744	29.2969	58.8702	29.2969	58.6508	29.2969	58.6444	29.2969	58.3888	29.2969	58.3795	29.2969	58.0961	29.2969	58.0829	29.2969	57.7819	29.2969	57.7643	29.2969	57.4576	29.2969	57.4349	29.2969	57.1352	29.2969	57.1074	29.2969	56.8274	29.2969	56.7951	29.2969	56.5457	29.2969	56.5103	29.2969	56.2997	29.2969	56.2634	29.2969	56.0956	29.2969	56.0612	29.2969	55.9365	29.2969	55.9071	29.2969	55.8225	29.2969	55.801	29.2969	55.7526	29.2969	55.7413	29.2969	55.7256
30.7617	59.3798	30.7617	59.341	30.7617	59.3581	30.7617	59.2424	30.7617	59.2761	30.7617	59.0864	30.7617	59.1353	30.7617	58.8764	30.7617	58.9385	30.7617	58.6177	30.7617	58.6904	30.7617	58.3178	30.7617	58.3975	30.7617	57.9862	30.7617	58.0687	30.7617	57.635	30.7617	57.7154	30.7617	57.2782	30.7617	57.3518	30.7617	56.9314	30.7617	56.9936	30.7617	56.6096	30.7617	56.657	30.7617	56.3257	30.7617	56.357	30.7617	56.0885	30.7617	56.1046	30.7617	55.9017	30.7617	55.9056	30.7617	55.7638	30.7617	55.7604	30.7617	55.6704	30.7617	55.6646	30.7617	55.616	30.7617	55.6119	30.7617	55.5967
32.2266	59.3408	32.2266	59.3043	32.2266	59.3045	32.2266	59.1953	32.2266	59.1959	32.2266	59.0154	32.2266	59.0166	32.2266	58.7671	32.2266	58.7695	32.2266	58.4551	32.2266	58.459	32.2266	58.0861	32.2266	58.092	32.2266	57.6702	32.2266	57.6781	32.2266	57.2209	32.2266	57.2308	32.2266	56.7561	32.2266	56.7673	32.2266	56.2969	32.2266	56.3085	32.2266	55.8663	32.2266	55.877	32.2266	55.4856	32.2266	55.4943	32.2266	55.1708	32.2266	55.1766	32.2266	54.9288	32.2266	54.9318	32.2266	54.7575	32.2266	54.7583	32.2266	54.6477	32.2266	54.6472	32.2266	54.5877	32.2266	54.5872	32.2266	54.5686
33.6914	60.1676	33.6914	60.1256	33.6914	60.1305	33.6914	60.0052	33.6914	60.0148	33.6914	59.8076	33.6914	59.8214	33.6914	59.5354	33.6914	59.5526	33.6914	59.1929	33.6914	59.2121	33.6914	58.7866	33.6914	58.8058	33.6914	58.3265	33.6914	58.3428	33.6914	57.8266	33.6914	57.8364	33.6914	57.3055	33.6914	57.3047	33.6914	56.7865	33.6914	56.7711	33.6914	56.2956	33.6914	56.2629	33.6914	55.8578	33.6914	55.8076	33.6914	55.4922	33.6914	55.4285	33.6914	55.2081	33.6914	55.1384	33.6914	55.0032	33.6914	54.9377	33.6914	54.867	33.6914	54.8162	33.6914	54.7861	33.6914	54.7584	33.6914	54.7506
35.1562	59.5491	35.1562	59.4895	35.1562	59.5116	35.1562	59.3329	35.1562	59.3769	35.1562	59.0803	35.1562	59.1458	35.1562	58.7337	35.1562	58.8197	35.1562	58.297	35.1562	58.4017	35.1562	57.7774	35.1562	57.8977	35.1562	57.1873	35.1562	57.3178	35.1562	56.5465	35.1562	56.6793	35.1562	55.8847	35.1562	56.0086	35.1562	55.2413	35.1562	55.3431	35.1562	54.6627	35.1562	54.7292	35.1562	54.1916	35.1562	54.2147	35.1562	53.8539	35.1562	53.8349	35.1562	53.6481	35.1562	53.5988	35.1562	53.5468	35.1562	53.4858	35.1562	53.5093	35.1562	53.456	35.1562	53.4971	35.1562	53.4665	35.1562	53.4849
36.6211	58.772	36.6211	58.6912	36.6211	58.7274	36.6211	58.4844	36.6211	58.5572	36.6211	58.1497	36.6211	58.26	36.6211	57.6846	36.6211	57.8333	36.6211	57.0867	36.6211	57.2749	36.6211	56.3558	36.6211	56.5834	36.6211	55.4965	36.6211	55.7614	36.6211	54.5246	36.6211	54.8201	36.6211	53.4773	36.6211	53.7882	36.6211	52.4263	36.6211	52.7248	36.6211	51.4861	36.6211	51.7311	36.6211	50.7928	36.6211	50.9427	36.6211	50.4363	36.6211	50.4747	36.6211	50.3933	36.6211	50.3446	36.6211	50.5428	36.6211	50.4549	36.6211	50.7439	36.6211	50.6615	36.6211	50.8915	36.6211	50.8436	36.6211	50.9292
38.0859	58.4415	38.0859	58.3508	38.0859	58.3809	38.0859	58.1062	38.0859	58.1675	38.0859	57.7018	38.0859	57.7962	38.0859	57.1269	38.0859	57.2578	38.0859	56.3659	38.0859	56.5382	38.0859	55.3969	38.0859	55.6171	38.0859	54.1902	38.0859	54.4674	38.0859	52.7076	38.0859	53.0532	38.0859	50.9063	38.0859	51.3332	38.0859	48.765	38.0859	49.2788	38.0859	46.3964	38.0859	46.9577	38.0859	44.3763	38.0859	44.8024	38.0859	43.8064	38.0859	43.8472	38.0859	44.7348	38.0859	44.5076	38.0859	46.043	38.0859	45.7884	38.0859	47.0849	38.0859	46.8993	38.0859	47.7009	38.0859	47.6065	38.0859	47.8739
39.5508	58.1281	39.5508	58.0193	39.5508	58.0628	39.5508	57.7326	39.5508	57.8214	39.5508	57.2578	39.5508	57.3956	39.5508	56.5766	39.5508	56.7696	39.5508	55.6601	39.5508	55.9179	39.5508	54.4624	39.5508	54.7999	39.5508	52.9095	39.5508	53.351	39.5508	50.8741	39.5508	51.4617	39.5508	48.1113	39.5508	48.9281	39.5508	44.0588	39.5508	45.3038	39.5508	36.9895	39.5508	39.2891	39.5508	32.2518	39.5508	28.9204	39.5508	40.7669	39.5508	38.8793	39.5508	44.8898	39.5508	43.9366	39.5508	47.2285	39.5508	46.67	39.5508	48.6066	39.5508	48.2832	39.5508	49.326	39.5508	49.1758	39.5508	49.5068
41.0156	61.1315	41.0156	61.0678	41.0156	61.0876	41.0156	60.9011	41.0156	60.9396	41.0156	60.6458	41.0156	60.7003	41.0156	60.3295	41.0156	60.3954	41.0156	59.9975	41.0156	60.0674	41.0156	59.7155	41.0156	59.7793	41.0156	59.5624	41.0156	59.6089	41.0156	59.6073	41.0156	59.6277	41.0156	59.8772	41.0156	59.8694	41.0156	60.3416	41.0156	60.3107	41.0156	60.929	41.0156	60.8839	41.0156	61.5587	41.0156	61.5086	41.0156	62.164	41.0156	62.1156	41.0156	62.6982	41.0156	62.656	41.0156	63.1322	41.0156	63.099	41.0156	63.4492	41.0156	63.4265	41.0156	63.64	41.0156	63.6284	41.0156	63.7001
42.4805	62.7891	42.4805	62.7503	42.4805	62.7573	42.4805	62.6462	42.4805	62.6587	42.4805	62.4914	42.4805	62.5063	42.4805	62.3111	42.4805	62.3236	42.4805	62.1418	42.4805	62.146	42.4805	62.0285	42.4805	62.0185	42.4805	62.0174	42.4805	61.9887	42.4805	62.1417	42.4805	62.0934	42.4805	62.4091	42.4805	62.3445	42.4805	62.7976	42.4805	62.7231	42.4805	63.2643	42.4805	63.1871	42.4805	63.7596	42.4805	63.686	42.4805	64.2383	42.4805	64.173	42.4805	64.6654	42.4805	64.6112	42.4805	65.0161	42.4805	64.9747	42.4805	65.2742	42.4805	65.2463	42.4805	65.4298	42.4805	65.4157	42.4805	65.4775
43.9453	64.3948	43.9453	64.3719	43.9453	64.372	43.9453	64.3079	43.9453	64.3071	43.9453	64.2154	43.9453	64.2113	43.9453	64.1149	43.9453	64.1046	43.9453	64.0339	43.9453	64.0142	43.9453	64.004	43.9453	63.9721	43.9453	64.0544	43.9453	64.009	43.9453	64.204	43.9453	64.1461	43.9453	64.4548	43.9453	64.3877	43.9453	64.7905	43.9453	64.7191	43.9453	65.1818	43.9453	65.1109	43.9453	65.5935	43.9453	65.5275	43.9453	65.9923	43.9453	65.9343	43.9453	66.3502	43.9453	66.3023	43.9453	66.6461	43.9453	66.6095	43.9453	66.865	43.9453	66.8404	43.9453	66.9974	43.9453	66.9851	43.9453	67.038
45.4102	65.9523	45.4102	65.9424	45.4102	65.9374	45.4102	65.9113	45.4102	65.9009	45.4102	65.869	45.4102	65.8519	45.4102	65.8309	45.4102	65.8058	45.4102	65.8166	45.4102	65.7824	45.4102	65.8473	45.4102	65.8033	45.4102	65.9406	45.4102	65.8875	45.4102	66.1067	45.4102	66.0463	45.4102	66.3443	45.4102	66.2797	45.4102	66.6411	45.4102	66.5756	45.4102	66.9758	45.4102	66.9128	45.4102	67.3232	45.4102	67.2657	45.4102	67.6585	45.4102	67.6085	45.4102	67.9599	45.4102	67.9188	45.4102	68.2098	45.4102	68.1784	45.4102	68.3953	45.4102	68.3742	45.4102	68.5078	45.4102	68.4972	45.4102	68.5423
46.875	67.4548	46.875	67.451	46.875	67.4447	46.875	67.4363	46.875	67.4231	46.875	67.4184	46.875	67.3969	46.875	67.4091	46.875	67.3776	46.875	67.4227	46.875	67.3797	46.875	67.4741	46.875	67.4189	46.875	67.5751	46.875	67.5081	46.875	67.732	46.875	67.6551	46.875	67.9432	46.875	67.8596	46.875	68.199	46.875	68.1128	46.875	68.4833	46.875	68.399	46.875	68.777	46.875	68.6984	46.875	69.0602	46.875	68.9906	46.875	69.3151	46.875	69.2569	46.875	69.5265	46.875	69.4816	46.875	69.6831	46.875	69.6527	46.875	69.7771	46.875	69.7617	46.875	69.8037
48.3398	69.0203	48.3398	69.0271	48.3398	69.0082	48.3398	69.0299	48.3398	68.9929	48.3398	69.0337	48.3398	68.9804	48.3398	69.0465	48.3398	68.9793	48.3398	69.078	48.3398	69.0003	48.3398	69.1381	48.3398	69.054	48.3398	69.2349	48.3398	69.1487	48.3398	69.3729	48.3398	69.2888	48.3398	69.5511	48.3398	69.4726	48.3398	69.763	48.3398	69.6927	48.3398	69.9974	48.3398	69.9369	48.3398	70.2399	48.3398	70.1897	48.3398	70.4754	48.3398	70.4351	48.3398	70.689	48.3398	70.6582	48.3398	70.868	48.3398	70.8458	48.3398	71.0023	48.3398	70.988	48.3398	71.0845	48.3398	71.0775	48.3398	71.1101
51.2695	71.1573	51.2695	71.1536	51.2695	71.1613	51.2695	71.1518	51.2695	71.1665	51.2695	71.1557	51.2695	71.1764	51.2695	71.1712	51.2695	71.1965	51.2695	71.2052	51.2695	71.2333	51.2695	71.2645	51.2695	71.2934	51.2695	71.3541	51.2695	71.3821	51.2695	71.4765	51.2695	71.502	51.2695	71.6301	51.2695	71.6522	51.2695	71.8098	51.2695	71.8277	51.2695	72.0065	51.2695	72.0204	51.2695	72.2092	51.2695	72.2193	51.2695	72.4058	51.2695	72.4128	51.2695	72.5845	51.2695	72.5891	51.2695	72.735	51.2695	72.7378	51.2695	72.8488	51.2695	72.8503	51.2695	72.9196	51.2695	72.9202	51.2695	72.9438
52.7344	72.068	52.7344	72.0695	52.7344	72.0706	52.7344	72.0763	52.7344	72.0781	52.7344	72.0914	52.7344	72.0932	52.7344	72.1192	52.7344	72.1203	52.7344	72.1648	52.7344	72.1642	52.7344	72.2331	52.7344	72.23	52.7344	72.3276	52.7344	72.3214	52.7344	72.4493	52.7344	72.4399	52.7344	72.5965	52.7344	72.5842	52.7344	72.7643	52.7344	72.7496	52.7344	72.9449	52.7344	72.9288	52.7344	73.1289	52.7344	73.1125	52.7344	73.3061	52.7344	73.2905	52.7344	73.4663	52.7344	73.4525	52.7344	73.6004	52.7344	73.5893	52.7344	73.7012	52.7344	73.6934	52.7344	73.763	52.7344	73.759	52.7344	73.7826
54.1992	73.0952	54.1992	73.0999	54.1992	73.0971	54.1992	73.1118	54.1992	73.1062	54.1992	73.1332	54.1992	73.1246	54.1992	73.1674	54.1992	73.1556	54.1992	73.218	54.1992	73.203	54.1992	73.2885	54.1992	73.2703	54.1992	73.3811	54.1992	73.3599	54.1992	73.4964	54.1992	73.4728	54.1992	73.6324	54.1992	73.6071	54.1992	73.7848	54.1992	73.7588	54.1992	73.9473	54.1992	73.9216	54.1992	74.1117	54.1992	74.0874	54.1992	74.2693	54.1992	74.2475	54.1992	74.4116	54.1992	74.3931	54.1992	74.5306	54.1992	74.516	54.1992	74.6197	54.1992	74.6097	54.1992	74.6741	54.1992	74.669	54.1992	74.6909
55.6641	73.9815	55.6641	73.9862	55.6641	73.984	55.6641	73.9988	55.6641	73.9945	55.6641	74.0211	55.6641	74.0146	55.6641	74.0555	55.6641	74.0468	55.6641	74.1051	55.6641	74.094	55.6641	74.1724	55.6641	74.1591	55.6641	74.2591	55.6641	74.2439	55.6641	74.3655	55.6641	74.3487	55.6641	74.4897	55.6641	74.4718	55.6641	74.6281	55.6641	74.6098	55.6641	74.7749	55.6641	74.757	55.6641	74.9233	55.6641	74.9064	55.6641	75.0656	55.6641	75.0504	55.6641	75.1941	55.6641	75.1811	55.6641	75.3017	55.6641	75.2915	55.6641	75.3825	55.6641	75.3755	55.6641	75.4321	55.6641	75.4286	55.6641	75.4477
58.5938	75.5388	58.5938	75.5435	58.5938	75.5421	58.5938	75.5567	58.5938	75.5538	58.5938	75.5795	58.5938	75.5751	58.5938	75.6134	58.5938	75.6074	58.5938	75.6602	58.5938	75.6526	58.5938	75.7214	58.5938	75.7122	58.5938	75.798	58.5938	75.7873	58.5938	75.8896	58.5938	75.8776	58.5938	75.9948	58.5938	75.9818	58.5938	76.1103	58.5938	76.097	58.5938	76.232	58.5938	76.2187	58.5938	76.3543	58.5938	76.3416	58.5938	76.4713	58.5938	76.4597	58.5938	76.5768	58.5938	76.5669	58.5938	76.6652	58.5938	76.6574	58.5938	76.7316	58.5938	76.7262	58.5938	76.7724	58.5938	76.7697	58.5938	76.7853
60.0586	76.2485	60.0586	76.2528	60.0586	76.2523	60.0586	76.2657	60.0586	76.2646	60.0586	76.288	60.0586	76.2862	60.0586	76.3209	60.0586	76.3184	60.0586	76.3658	60.0586	76.3625	60.0586	76.4238	60.0586	76.4197	60.0586	76.4956	60.0586	76.4907	60.0586	76.5808	60.0586	76.575	60.0586	76.6778	60.0586	76.6714	60.0586	76.7839	60.0586	76.7772	60.0586	76.8952	60.0586	76.8885	60.0586	77.007	60.0586	77.0004	60.0586	77.1137	60.0586	77.1077	60.0586	77.2101	60.0586	77.2049	60.0586	77.2909	60.0586	77.2868	60.0586	77.3518	60.0586	77.349	60.0586	77.3895	60.0586	77.388	60.0586	77.4018
62.9883	77.5308	62.9883	77.5336	62.9883	77.536	62.9883	77.5446	62.9883	77.5493	62.9883	77.5643	62.9883	77.5712	62.9883	77.5936	62.9883	77.6023	62.9883	77.6333	62.9883	77.6433	62.9883	77.684	62.9883	77.6949	62.9883	77.7459	62.9883	77.7573	62.9883	77.8185	62.9883	77.8299	62.9883	77.9004	62.9883	77.9115	62.9883	77.9895	62.9883	77.9999	62.9883	78.0825	62.9883	78.092	62.9883	78.1757	62.9883	78.184	62.9883	78.2647	62.9883	78.2718	62.9883	78.3452	62.9883	78.3509	62.9883	78.4129	62.9883	78.4172	62.9883	78.4644	62.9883	78.4672	62.9883	78.4967	62.9883	78.4981	62.9883	78.5081
64.4531	78.0751	64.4531	78.0781	64.4531	78.0798	64.4531	78.089	64.4531	78.0922	64.4531	78.1082	64.4531	78.1126	64.4531	78.1364	64.4531	78.1418	64.4531	78.1741	64.4531	78.1801	64.4531	78.2218	64.4531	78.2281	64.4531	78.2796	64.4531	78.2857	64.4531	78.3469	64.4531	78.3526	64.4531	78.4224	64.4531	78.4275	64.4531	78.5041	64.4531	78.5085	64.4531	78.5892	64.4531	78.5927	64.4531	78.6742	64.4531	78.6768	64.4531	78.7552	64.4531	78.7571	64.4531	78.8282	64.4531	78.8295	64.4531	78.8896	64.4531	78.8904	64.4531	78.936	64.4531	78.9365	64.4531	78.9649	64.4531	78.9651	64.4531	78.9748
67.3828	78.9979	67.3828	79.0012	67.3828	79.0021	67.3828	79.0121	67.3828	79.0138	67.3828	79.0307	67.3828	79.0331	67.3828	79.0576	67.3828	79.0602	67.3828	79.0928	67.3828	79.0956	67.3828	79.1366	67.3828	79.1391	67.3828	79.1887	67.3828	79.1906	67.3828	79.2485	67.3828	79.2496	67.3828	79.3147	67.3828	79.315	67.3828	79.3855	67.3828	79.385	67.3828	79.4586	67.3828	79.4574	67.3828	79.5311	67.3828	79.5294	67.3828	79.5998	67.3828	79.5978	67.3828	79.6616	67.3828	79.6596	67.3828	79.7132	67.3828	79.7115	67.3828	79.7521	67.3828	79.7508	67.3828	79.7762	67.3828	79.7755	67.3828	79.7841
68.8477	79.4832	68.8477	79.4869	68.8477	79.4869	68.8477	79.4979	68.8477	79.498	68.8477	79.5166	68.8477	79.5165	68.8477	79.5429	68.8477	79.5426	68.8477	79.5772	68.8477	79.5764	68.8477	79.6193	68.8477	79.618	68.8477	79.6689	68.8477	79.6669	68.8477	79.7254	68.8477	79.7227	68.8477	79.7876	68.8477	79.7843	68.8477	79.8538	68.8477	79.8499	68.8477	79.9218	68.8477	79.9176	68.8477	79.9891	68.8477	79.9848	68.8477	80.0527	68.8477	80.0485	68.8477	80.1097	68.8477	80.106	68.8477	80.1573	68.8477	80.1543	68.8477	80.1931	68.8477	80.191	68.8477	80.2151	68.8477	80.214	68.8477	80.2222
71.7773	80.5117	71.7773	80.5152	71.7773	80.5151	71.7773	80.5257	71.7773	80.5254	71.7773	80.5431	71.7773	80.5425	71.7773	80.5674	71.7773	80.5665	71.7773	80.5986	71.7773	80.5973	71.7773	80.6365	71.7773	80.6346	71.7773	80.6805	71.7773	80.6781	71.7773	80.73	71.7773	80.7271	71.7773	80.784	71.7773	80.7805	71.7773	80.8409	71.7773	80.837	71.7773	80.899	71.7773	80.8949	71.7773	80.956	71.7773	80.9519	71.7773	81.0098	71.7773	81.0059	71.7773	81.0579	71.7773	81.0544	71.7773	81.0979	71.7773	81.0951	71.7773	81.1279	71.7773	81.126	71.7773	81.1464	71.7773	81.1454	71.7773	81.1523
74.707	81.2707	74.707	81.2739	74.707	81.2739	74.707	81.2836	74.707	81.2835	74.707	81.2996	74.707	81.2994	74.707	81.3218	74.707	81.3215	74.707	81.35	74.707	81.3494	74.707	81.3839	74.707	81.3829	74.707	81.4228	74.707	81.4215	74.707	81.4661	74.707	81.4644	74.707	81.5128	74.707	81.5108	74.707	81.5616	74.707	81.5593	74.707	81.6111	74.707	81.6086	74.707	81.6594	74.707	81.6569	74.707	81.7048	74.707	81.7023	74.707	81.7451	74.707	81.743	74.707	81.7787	74.707	81.777	74.707	81.8039	74.707	81.8027	74.707	81.8194	74.707	81.8188	74.707	81.8245
77.6367	81.8418	77.6367	81.8444	77.6367	81.8451	77.6367	81.8527	77.6367	81.8542	77.6367	81.8668	77.6367	81.869	77.6367	81.8864	77.6367	81.8891	77.6367	81.9112	77.6367	81.9143	77.6367	81.9408	77.6367	81.9441	77.6367	81.9746	77.6367	81.9779	77.6367	82.0119	77.6367	82.0152	77.6367	82.0519	77.6367	82.055	77.6367	82.0934	77.6367	82.0963	77.6367	82.1353	77.6367	82.1379	77.6367	82.1761	77.6367	82.1783	77.6367	82.2143	77.6367	82.2161	77.6367	82.2483	77.6367	82.2498	77.6367	82.2767	77.6367	82.2777	77.6367	82.298	77.6367	82.2987	77.6367	82.3113	77.6367	82.3117	77.6367	82.3159
79.1016	82.2345	79.1016	82.2364	79.1016	82.2381	79.1016	82.2438	79.1016	82.2473	79.1016	82.2567	79.1016	82.2618	79.1016	82.2748	79.1016	82.2813	79.1016	82.2978	79.1016	82.3054	79.1016	82.3253	79.1016	82.3337	79.1016	82.3566	79.1016	82.3657	79.1016	82.3912	79.1016	82.4006	79.1016	82.4283	79.1016	82.4376	79.1016	82.4667	79.1016	82.4758	79.1016	82.5054	79.1016	82.514	79.1016	82.5432	79.1016	82.5509	79.1016	82.5785	79.1016	82.5853	79.1016	82.6101	79.1016	82.6158	79.1016	82.6365	79.1016	82.6409	79.1016	82.6565	79.1016	82.6595	79.1016	82.6693	79.1016	82.6708	79.1016	82.6741
82.0312	82.9838	82.0312	82.9847	82.0312	82.988	82.0312	82.9904	82.0312	82.997	82.0312	83.001	82.0312	83.0107	82.0312	83.0162	82.0312	83.0286	82.0312	83.0356	82.0312	83.0505	82.0312	83.0588	82.0312	83.0757	82.0312	83.0854	82.0312	83.1038	82.0312	83.1146	82.0312	83.1341	82.0312	83.1459	82.0312	83.1658	82.0312	83.1783	82.0312	83.1981	82.0312	83.211	82.0312	83.23	82.0312	83.243	82.0312	83.2606	82.0312	83.273	82.0312	83.2887	82.0312	83.3	82.0312	83.3133	82.0312	83.3228	82.0312	83.3332	82.0312	83.3405	82.0312	83.3476	82.0312	83.3522	82.0312	83.3558	82.0312	83.3573
84.9609	84.144	84.9609	84.1467	84.9609	84.1489	84.9609	84.157	84.9609	84.1613	84.9609	84.1743	84.9609	84.1807	84.9609	84.198	84.9609	84.2064	84.9609	84.2271	84.9609	84.2373	84.9609	84.2607	84.9609	84.2723	84.9609	84.2976	84.9609	84.3104	84.9609	84.3368	84.9609	84.3504	84.9609	84.3773	84.9609	84.3912	84.9609	84.418	84.9609	84.4318	84.9609	84.458	84.9609	84.4711	84.9609	84.4962	84.9609	84.5082	84.9609	84.5314	84.9609	84.5419	84.9609	84.5625	84.9609	84.5712	84.9609	84.5884	84.9609	84.595	84.9609	84.608	84.9609	84.6125	84.9609	84.6206	84.9609	84.6229	84.9609	84.6256
87.8906	84.5373	87.8906	84.5415	87.8906	84.5407	87.8906	84.5531	87.8906	84.5517	87.8906	84.5717	87.8906	84.5697	87.8906	84.5963	87.8906	84.5939	87.8906	84.6258	87.8906	84.6232	87.8906	84.6592	87.8906	84.6564	87.8906	84.6952	87.8906	84.6923	87.8906	84.7327	87.8906	84.7298	87.8906	84.7706	87.8906	84.7677	87.8906	84.8079	87.8906	84.805	87.8906	84.8436	87.8906	84.8408	87.8906	84.8769	87.8906	84.8742	87.8906	84.907	87.8906	84.9044	87.8906	84.9329	87.8906	84.9306	87.8906	84.9539	87.8906	84.952	87.8906	84.9694	87.8906	84.9681	87.8906	84.9788	87.8906	84.9781	87.8906	84.9817
90.8203	85.1552	90.8203	85.1586	90.8203	85.1583	90.8203	85.1683	90.8203	85.1677	90.8203	85.1838	90.8203	85.1829	90.8203	85.2041	90.8203	85.2032	90.8203	85.2282	90.8203	85.2273	90.8203	85.2551	90.8203	85.2542	90.8203	85.2835	90.8203	85.2827	90.8203	85.3124	90.8203	85.3116	90.8203	85.3409	90.8203	85.3401	90.8203	85.3682	90.8203	85.3674	90.8203	85.3937	90.8203	85.3928	90.8203	85.4168	90.8203	85.4159	90.8203	85.4372	90.8203	85.4363	90.8203	85.4545	90.8203	85.4536	90.8203	85.4684	90.8203	85.4675	90.8203	85.4784	90.8203	85.4778	90.8203	85.4844	90.8203	85.4841	90.8203	85.4864
95.2148	85.5812	95.2148	85.5837	95.2148	85.5843	95.2148	85.5915	95.2148	85.5927	95.2148	85.604	95.2148	85.6058	95.2148	85.6204	95.2148	85.623	95.2148	85.6396	95.2148	85.643	95.2148	85.6606	95.2148	85.6648	95.2148	85.6821	95.2148	85.6871	95.2148	85.7033	95.2148	85.7089	95.2148	85.7233	95.2148	85.7294	95.2148	85.7417	95.2148	85.7479	95.2148	85.7581	95.2148	85.7642	95.2148	85.7723	95.2148	85.778	95.2148	85.7842	95.2148	85.7893	95.2148	85.794	95.2148	85.7983	95.2148	85.8016	95.2148	85.8049	95.2148	85.8072	95.2148	85.8094	95.2148	85.8107	95.2148	85.8119	95.2148	85.8123
98.1445	85.7915	98.1445	85.7933	98.1445	85.7947	98.1445	85.7998	98.1445	85.8027	98.1445	85.8105	98.1445	85.8148	98.1445	85.8245	98.1445	85.8304	98.1445	85.8407	98.1445	85.8482	98.1445	85.8581	98.1445	85.8671	98.1445	85.8756	98.1445	85.886	98.1445	85.8923	98.1445	85.9038	98.1445	85.9075	98.1445	85.9198	98.1445	85.9208	98.1445	85.9334	98.1445	85.932	98.1445	85.9444	98.1445	85.9411	98.1445	85.9529	98.1445	85.9484	98.1445	85.959	98.1445	85.954	98.1445	85.963	98.1445	85.9582	98.1445	85.9654	98.1445	85.9615	98.1445	85.9664	98.1445	85.9638	98.1445	85.9663	98.1445	85.9655
101.074	86.0491	101.074	86.049	101.074	86.0532	101.074	86.0527	101.074	86.0611	101.074	86.0597	101.074	86.0723	101.074	86.0692	101.074	86.0858	101.074	86.0804	101.074	86.1006	101.074	86.0921	101.074	86.1156	101.074	86.1034	101.074	86.1297	101.074	86.1136	101.074	86.142	101.074	86.1222	101.074	86.1518	101.074	86.1288	101.074	86.1587	101.074	86.1336	101.074	86.1628	101.074	86.1367	101.074	86.1641	101.074	86.1385	101.074	86.1633	101.074	86.1397	101.074	86.1607	101.074	86.1406	101.074	86.1572	101.074	86.1419	101.074	86.1533	101.074	86.1437	101.074	86.1495	101.074	86.1462
105.469	86.284	105.469	86.2856	105.469	86.2856	105.469	86.2902	105.469	86.2904	105.469	86.2973	105.469	86.2977	105.469	86.3059	105.469	86.307	105.469	86.3152	105.469	86.3173	105.469	86.3242	105.469	86.3274	105.469	86.332	105.469	86.3365	105.469	86.3378	105.469	86.3438	105.469	86.3413	105.469	86.3486	105.469	86.3424	105.469	86.3506	105.469	86.3412	105.469	86.3501	105.469	86.3382	105.469	86.3472	105.469	86.3341	105.469	86.3427	105.469	86.3295	105.469	86.3372	105.469	86.3253	105.469	86.3315	105.469	86.3221	105.469	86.3265	105.469	86.3205	105.469	86.3227	105.469	86.3207
108.398	86.2412	108.398	86.2442	108.398	86.2421	108.398	86.2508	108.398	86.2468	108.398	86.2604	108.398	86.2548	108.398	86.272	108.398	86.2652	108.398	86.2846	108.398	86.2772	108.398	86.297	108.398	86.2895	108.398	86.3083	108.398	86.3012	108.398	86.3176	108.398	86.3112	108.398	86.3244	108.398	86.3188	108.398	86.3284	108.398	86.3239	108.398	86.3297	108.398	86.3262	108.398	86.3287	108.398	86.3261	108.398	86.3259	108.398	86.3242	108.398	86.3222	108.398	86.3211	108.398	86.3183	108.398	86.3176	108.398	86.3149	108.398	86.3146	108.398	86.3126	108.398	86.3125	108.398	86.3118
112.793	86.5027	112.793	86.5045	112.793	86.5035	112.793	86.5088	112.793	86.507	112.793	86.5149	112.793	86.5125	112.793	86.5221	112.793	86.5195	112.793	86.5295	112.793	86.527	112.793	86.536	112.793	86.5341	112.793	86.5409	112.793	86.5397	112.793	86.5434	112.793	86.5432	112.793	86.5431	112.793	86.544	112.793	86.5401	112.793	86.5419	112.793	86.5345	112.793	86.537	112.793	86.527	112.793	86.5299	112.793	86.5182	112.793	86.5213	112.793	86.5093	112.793	86.5122	112.793	86.5012	112.793	86.5036	112.793	86.4948	112.793	86.4966	112.793	86.4908	112.793	86.4917	112.793	86.4898
117.188	86.4212	117.188	86.4221	117.188	86.4213	117.188	86.4239	117.188	86.4224	117.188	86.426	117.188	86.4241	117.188	86.4276	117.188	86.4258	117.188	86.4281	117.188	86.4266	117.188	86.4266	117.188	86.4258	117.188	86.4223	117.188	86.4226	117.188	86.4149	117.188	86.4164	117.188	86.4043	117.188	86.4069	117.188	86.3905	117.188	86.3941	117.188	86.3743	117.188	86.3786	117.188	86.3565	117.188	86.3612	117.188	86.3383	117.188	86.343	117.188	86.3211	117.188	86.3253	117.188	86.306	117.188	86.3096	117.188	86.2945	117.188	86.2971	117.188	86.2875	117.188	86.2888	117.188	86.2855
120.117	86.5124	120.117	86.5141	120.117	86.5113	120.117	86.5163	120.117	86.5109	120.117	86.5184	120.117	86.5107	120.117	86.5198	120.117	86.5101	120.117	86.5196	120.117	86.5084	120.117	86.5169	120.117	86.5047	120.117	86.5111	120.117	86.4983	120.117	86.5016	120.117	86.4887	120.117	86.4884	120.117	86.4757	120.117	86.4716	120.117	86.4594	120.117	86.4518	120.117	86.4406	120.117	86.4302	120.117	86.4201	120.117	86.4079	120.117	86.3991	120.117	86.3866	120.117	86.3793	120.117	86.3677	120.117	86.3622	120.117	86.3528	120.117	86.349	120.117	86.3429	120.117	86.341	120.117	86.3389
124.512	86.7115	124.512	86.7092	124.512	86.7146	124.512	86.7075	124.512	86.7181	124.512	86.7059	124.512	86.7216	124.512	86.7039	124.512	86.7245	124.512	86.7007	124.512	86.7257	124.512	86.6955	124.512	86.7245	124.512	86.6877	124.512	86.72	124.512	86.6769	124.512	86.7116	124.512	86.6629	124.512	86.699	124.512	86.6462	124.512	86.6825	124.512	86.6272	124.512	86.6626	124.512	86.607	124.512	86.6402	124.512	86.5869	124.512	86.6168	124.512	86.5684	124.512	86.5938	124.512	86.5529	124.512	86.5728	124.512	86.5418	124.512	86.5555	124.512	86.5361	124.512	86.5431	124.512	86.5365
128.906	86.5909	128.906	86.5874	128.906	86.5944	128.906	86.5837	128.906	86.5977	128.906	86.5794	128.906	86.6004	128.906	86.574	128.906	86.6019	128.906	86.5667	128.906	86.6011	128.906	86.5569	128.906	86.5974	128.906	86.5441	128.906	86.5899	128.906	86.528	128.906	86.578	128.906	86.5087	128.906	86.5615	128.906	86.4867	128.906	86.5407	128.906	86.4629	128.906	86.5161	128.906	86.4384	128.906	86.489	128.906	86.4148	128.906	86.4606	128.906	86.3935	128.906	86.4329	128.906	86.3764	128.906	86.4075	128.906	86.3647	128.906	86.3862	128.906	86.3595	128.906	86.3705	128.906	86.3614
133.301	86.5691	133.301	86.5651	133.301	86.5723	133.301	86.5601	133.301	86.5746	133.301	86.5535	133.301	86.5755	133.301	86.5449	133.301	86.5746	133.301	86.5336	133.301	86.571	133.301	86.519	133.301	86.5639	133.301	86.5006	133.301	86.5525	133.301	86.4785	133.301	86.5364	133.301	86.4528	133.301	86.5153	133.301	86.4244	133.301	86.4895	133.301	86.3942	133.301	86.4598	133.301	86.3638	133.301	86.4272	133.301	86.3349	133.301	86.3934	133.301	86.3094	133.301	86.3603	133.301	86.2892	133.301	86.3299	133.301	86.2758	133.301	86.3042	133.301	86.2704	133.301	86.2849	133.301	86.2734
139.16	86.3659	139.16	86.3657	139.16	86.3651	139.16	86.3644	139.16	86.3636	139.16	86.3613	139.16	86.361	139.16	86.3557	139.16	86.3569	139.16	86.3471	139.16	86.3508	139.16	86.3346	139.16	86.3418	139.16	86.318	139.16	86.3294	139.16	86.2971	139.16	86.3131	139.16	86.2722	139.16	86.2927	139.16	86.244	139.16	86.2683	139.16	86.2135	139.16	86.2406	139.16	86.1823	139.16	86.2107	139.16	86.1521	139.16	86.18	139.16	86.1249	139.16	86.1503	139.16	86.1025	139.16	86.1235	139.16	86.0865	139.16	86.1015	139.16	86.0781	139.16	86.0859	139.16	86.0779
143.555	86.2612	143.555	86.2638	143.555	86.257	143.555	86.2645	143.555	86.2514	143.555	86.2627	143.555	86.2444	143.555	86.2577	143.555	86.2357	143.555	86.249	143.555	86.2249	143.555	86.236	143.555	86.2115	143.555	86.2183	143.555	86.1951	143.555	86.1959	143.555	86.1754	143.555	86.1692	143.555	86.1524	143.555	86.1388	143.555	86.1263	143.555	86.106	143.555	86.0978	143.555	86.0723	143.555	86.0681	143.555	86.0394	143.555	86.0383	143.555	86.0092	143.555	86.0104	143.555	85.9837	143.555	85.9859	143.555	85.9645	143.555	85.9666	143.555	85.9528	143.555	85.9541	143.555	85.9493
147.949	86.2543	147.949	86.2624	147.949	86.2438	147.949	86.2674	147.949	86.2311	147.949	86.269	147.949	86.2165	147.949	86.2664	147.949	86.1999	147.949	86.2591	147.949	86.1813	147.949	86.2467	147.949	86.1608	147.949	86.2291	147.949	86.1381	147.949	86.2062	147.949	86.1135	147.949	86.1785	147.949	86.0872	147.949	86.1467	147.949	86.0596	147.949	86.1121	147.949	86.0316	147.949	86.0761	147.949	86.0042	147.949	86.0403	147.949	85.9786	147.949	86.0066	147.949	85.9562	147.949	85.9767	147.949	85.9384	147.949	85.9522	147.949	85.9265	147.949	85.9344	147.949	85.9215	147.949	85.9241
153.809	86.2797	153.809	86.2723	153.809	86.2848	153.809	86.2629	153.809	86.2871	153.809	86.2513	153.809	86.2857	153.809	86.2371	153.809	86.2794	153.809	86.2194	153.809	86.2672	153.809	86.1976	153.809	86.248	153.809	86.171	153.809	86.221	153.809	86.1389	153.809	86.1859	153.809	86.1013	153.809	86.1431	153.809	86.0587	153.809	86.0937	153.809	86.0121	153.809	86.0396	153.809	85.9633	153.809	85.9832	153.809	85.9146	153.809	85.9276	153.809	85.8687	153.809	85.8762	153.809	85.8288	153.809	85.8323	153.809	85.7975	153.809	85.7988	153.809	85.7776	153.809	85.7778	153.809	85.7707
159.668	86.0322	159.668	86.0269	159.668	86.036	159.668	86.0201	159.668	86.0378	159.668	86.0114	159.668	86.0369	159.668	86.0002	159.668	86.0321	159.668	85.9855	159.668	86.0221	159.668	85.9662	159.668	86.0059	159.668	85.9413	159.668	85.9821	159.668	85.91	159.668	85.9502	159.668	85.8719	159.668	85.9101	159.668	85.8275	159.668	85.8624	159.668	85.7779	159.668	85.8087	159.668	85.7251	159.668	85.7512	159.668	85.6719	159.668	85.6931	159.668	85.6216	159.668	85.6381	159.668	85.5779	159.668	85.5898	159.668	85.5442	159.668	85.5519	159.668	85.5234	159.668	85.5271	159.668	85.5174
165.527	85.667	165.527	85.657	165.527	85.6718	165.527	85.6422	165.527	85.6712	165.527	85.6227	165.527	85.6647	165.527	85.5991	165.527	85.6521	165.527	85.5715	165.527	85.6331	165.527	85.5401	165.527	85.6074	165.527	85.5049	165.527	85.5746	165.527	85.4661	165.527	85.5348	165.527	85.4238	165.527	85.4883	165.527	85.3783	165.527	85.436	165.527	85.3304	165.527	85.3795	165.527	85.2815	165.527	85.321	165.527	85.2334	165.527	85.2633	165.527	85.1885	165.527	85.2097	165.527	85.1496	165.527	85.1635	165.527	85.1196	165.527	85.1278	165.527	85.101	165.527	85.1047	165.527	85.0957
171.387	85.7063	171.387	85.7096	171.387	85.6974	171.387	85.7073	171.387	85.6825	171.387	85.6994	171.387	85.6615	171.387	85.6859	171.387	85.634	171.387	85.6667	171.387	85.6	171.387	85.6414	171.387	85.5597	171.387	85.61	171.387	85.5133	171.387	85.5726	171.387	85.4619	171.387	85.5292	171.387	85.4068	171.387	85.4807	171.387	85.3498	171.387	85.428	171.387	85.2933	171.387	85.3727	171.387	85.2397	171.387	85.3168	171.387	85.1918	171.387	85.2626	171.387	85.1523	171.387	85.2126	171.387	85.1233	171.387	85.1695	171.387	85.1066	171.387	85.1356	171.387	85.1031	171.387	85.113
177.246	85.4264	177.246	85.4119	177.246	85.4348	177.246	85.3919	177.246	85.4365	177.246	85.3669	177.246	85.4312	177.246	85.3375	177.246	85.4184	177.246	85.3042	177.246	85.3979	177.246	85.2675	177.246	85.3697	177.246	85.2278	177.246	85.334	177.246	85.1855	177.246	85.2913	177.246	85.1411	177.246	85.2424	177.246	85.0954	177.246	85.1887	177.246	85.0493	177.246	85.132	177.246	85.0042	177.246	85.0745	177.246	84.9617	177.246	85.0189	177.246	84.9236	177.246	84.9678	177.246	84.8921	177.246	84.924	177.246	84.8691	177.246	84.8896	177.246	84.8564	177.246	84.8663	177.246	84.8552
183.105	85.4383	183.105	85.4233	183.105	85.4444	183.105	85.4001	183.105	85.4412	183.105	85.3693	183.105	85.4285	183.105	85.3318	183.105	85.4062	183.105	85.2886	183.105	85.3745	183.105	85.2405	183.105	85.3338	183.105	85.1887	183.105	85.2849	183.105	85.134	183.105	85.2289	183.105	85.0776	183.105	85.1672	183.105	85.0205	183.105	85.1017	183.105	84.9641	183.105	85.0347	183.105	84.9099	183.105	84.9687	183.105	84.8597	183.105	84.9065	183.105	84.8154	183.105	84.8507	183.105	84.7789	183.105	84.8038	183.105	84.7522	183.105	84.7679	183.105	84.7368	183.105	84.7444	183.105	84.734
188.965	85.4025	188.965	85.3916	188.965	85.4033	188.965	85.3711	188.965	85.394	188.965	85.3416	188.965	85.3747	188.965	85.3041	188.965	85.3457	188.965	85.2598	188.965	85.3076	188.965	85.2098	188.965	85.2611	188.965	85.1557	188.965	85.2074	188.965	85.0989	188.965	85.1478	188.965	85.0409	188.965	85.084	188.965	84.983	188.965	85.0182	188.965	84.9266	188.965	84.9527	188.965	84.8732	188.965	84.89	188.965	84.8241	188.965	84.8327	188.965	84.7808	188.965	84.783	188.965	84.7445	188.965	84.7429	188.965	84.7168	188.965	84.714	188.965	84.699	188.965	84.697	188.965	84.6921
196.289	85.1798	196.289	85.1668	196.289	85.1813	196.289	85.1428	196.289	85.1712	196.289	85.1091	196.289	85.15	196.289	85.0671	196.289	85.1187	196.289	85.0188	196.289	85.0785	196.289	84.9664	196.289	85.031	196.289	84.9119	196.289	84.9782	196.289	84.8575	196.289	84.9219	196.289	84.8049	196.289	84.8644	196.289	84.7557	196.289	84.8077	196.289	84.7107	196.289	84.7538	196.289	84.671	196.289	84.7045	196.289	84.6368	196.289	84.6612	196.289	84.6086	196.289	84.625	196.289	84.5865	196.289	84.5966	196.289	84.5707	196.289	84.5762	196.289	84.5614	196.289	84.5637	196.289	84.5589
203.613	85.0617	203.613	85.041	203.613	85.0634	203.613	85.002	203.613	85.046	203.613	84.9464	203.613	85.0104	203.613	84.8765	203.613	84.9579	203.613	84.7956	203.613	84.8908	203.613	84.7074	203.613	84.8119	203.613	84.6158	203.613	84.7245	203.613	84.5251	203.613	84.6324	203.613	84.439	203.613	84.5397	203.613	84.3608	203.613	84.4504	203.613	84.2928	203.613	84.368	203.613	84.2361	203.613	84.2955	203.613	84.1909	203.613	84.2348	203.613	84.1567	203.613	84.1867	203.613	84.1322	203.613	84.151	203.613	84.1161	203.613	84.1266	203.613	84.1075	203.613	84.1121	203.613	84.1061
210.938	84.9312	210.938	84.9293	210.938	84.9115	210.938	84.9055	210.938	84.8707	210.938	84.8602	210.938	84.8102	210.938	84.7946	210.938	84.7317	210.938	84.7108	210.938	84.6375	210.938	84.6116	210.938	84.5305	210.938	84.5005	210.938	84.4143	210.938	84.382	210.938	84.293	210.938	84.2609	210.938	84.1714	210.938	84.1421	210.938	84.0542	210.938	84.0301	210.938	83.9461	210.938	83.9289	210.938	83.8509	210.938	83.841	210.938	83.7714	210.938	83.7681	210.938	83.709	210.938	83.7104	210.938	83.664	210.938	83.6676	210.938	83.6356	210.938	83.6389	210.938	83.6227	210.938	83.624
218.262	84.9488	218.262	84.9369	218.262	84.9407	218.262	84.9055	218.262	84.9123	218.262	84.8553	218.262	84.864	218.262	84.7878	218.262	84.7964	218.262	84.7047	218.262	84.7108	218.262	84.6085	218.262	84.6095	218.262	84.5023	218.262	84.4952	218.262	84.3898	218.262	84.3721	218.262	84.275	218.262	84.2449	218.262	84.1623	218.262	84.1192	218.262	84.0554	218.262	84.0006	218.262	83.9579	218.262	83.8944	218.262	83.8722	218.262	83.8048	218.262	83.7996	218.262	83.7345	218.262	83.7406	218.262	83.6843	218.262	83.6952	218.262	83.6537	218.262	83.6632	218.262	83.6412	218.262	83.6449
225.586	84.7183	225.586	84.7191	225.586	84.6988	225.586	84.7015	225.586	84.6606	225.586	84.6664	225.586	84.604	225.586	84.6149	225.586	84.5299	225.586	84.5484	225.586	84.4399	225.586	84.4689	225.586	84.3361	225.586	84.3789	225.586	84.2218	225.586	84.2812	225.586	84.101	225.586	84.1792	225.586	83.9789	225.586	84.0763	225.586	83.861	225.586	83.976	225.586	83.7532	225.586	83.8815	225.586	83.6607	225.586	83.7952	225.586	83.5873	225.586	83.7187	225.586	83.5351	225.586	83.6528	225.586	83.5042	225.586	83.5976	225.586	83.4931	225.586	83.5531	225.586	83.4992	225.586	83.5199
232.91	84.5872	232.91	84.568	232.91	84.5824	232.91	84.5257	232.91	84.5534	232.91	84.4618	232.91	84.5006	232.91	84.3782	232.91	84.4248	232.91	84.2778	232.91	84.3279	232.91	84.1638	232.91	84.2124	232.91	84.0401	232.91	84.0818	232.91	83.9111	232.91	83.9407	232.91	83.7814	232.91	83.7944	232.91	83.6555	232.91	83.6494	232.91	83.5377	232.91	83.5122	232.91	83.4312	232.91	83.389	232.91	83.3383	232.91	83.2847	232.91	83.2603	232.91	83.2028	232.91	83.1973	232.91	83.1442	232.91	83.149	232.91	83.1083	232.91	83.1152	232.91	83.0931	232.91	83.0961
241.699	84.2268	241.699	84.2248	241.699	84.1996	241.699	84.1952	241.699	84.1426	241.699	84.1403	241.699	84.0566	241.699	84.0635	241.699	83.9435	241.699	83.9684	241.699	83.8067	241.699	83.859	241.699	83.6507	241.699	83.7395	241.699	83.4813	241.699	83.6141	241.699	83.3058	241.699	83.4865	241.699	83.1321	241.699	83.3605	241.699	82.9687	241.699	83.2388	241.699	82.8237	241.699	83.1237	241.699	82.7043	241.699	83.0165	241.699	82.6154	241.699	82.9178	241.699	82.5591	241.699	82.8277	241.699	82.5347	241.699	82.7463	241.699	82.5389	241.699	82.6743	241.699	82.5668	241.699	82.6135
250.488	84.3287	250.488	84.2896	250.488	84.3345	250.488	84.2187	250.488	84.3062	250.488	84.1191	250.488	84.2447	250.488	83.995	250.488	84.1518	250.488	83.8515	250.488	84.03	250.488	83.6946	250.488	83.8831	250.488	83.5304	250.488	83.7157	250.488	83.3653	250.488	83.5337	250.488	83.2055	250.488	83.3441	250.488	83.0563	250.488	83.1552	250.488	82.9221	250.488	82.9761	250.488	82.8057	250.488	82.8156	250.488	82.7082	250.488	82.6814	250.488	82.6288	250.488	82.5781	250.488	82.5658	250.488	82.5074	250.488	82.5171	250.488	82.467	250.488	82.4812	250.488	82.4526	250.488	82.4589
259.277	84.5206	259.277	84.4995	259.277	84.5068	259.277	84.4441	259.277	84.4591	259.277	84.3562	259.277	84.3797	259.277	84.2395	259.277	84.272	259.277	84.0989	259.277	84.1401	259.277	83.9401	259.277	83.9889	259.277	83.7698	259.277	83.8237	259.277	83.5947	259.277	83.6501	259.277	83.4215	259.277	83.474	259.277	83.2563	259.277	83.3018	259.277	83.1044	259.277	83.1395	259.277	82.9698	259.277	82.993	259.277	82.8554	259.277	82.867	259.277	82.7624	259.277	82.7647	259.277	82.691	259.277	82.6876	259.277	82.6403	259.277	82.6352	259.277	82.6094	259.277	82.6059	259.277	82.5978
268.066	84.2271	268.066	84.206	268.066	84.2195	268.066	84.1581	268.066	84.1836	268.066	84.0879	268.066	84.1225	268.066	84.0013	268.066	84.0417	268.066	83.9057	268.066	83.9478	268.066	83.8084	268.066	83.8484	268.066	83.7161	268.066	83.7509	268.066	83.6339	268.066	83.6612	268.066	83.5652	268.066	83.5837	268.066	83.5115	268.066	83.5206	268.066	83.4722	268.066	83.4726	268.066	83.4456	268.066	83.4386	268.066	83.4292	268.066	83.4167	268.066	83.4199	268.066	83.4046	268.066	83.4149	268.066	83.3998	268.066	83.4118	268.066	83.3998	268.066	83.409	268.066	83.4023	268.066	83.4058
276.855	83.7889	276.855	83.7379	276.855	83.7861	276.855	83.6369	276.855	83.7303	276.855	83.4935	276.855	83.626	276.855	83.3197	276.855	83.4814	276.855	83.1312	276.855	83.3081	276.855	82.9459	276.855	83.1207	276.855	82.7814	276.855	82.9354	276.855	82.6525	276.855	82.7687	276.855	82.5682	276.855	82.6348	276.855	82.53	276.855	82.5437	276.855	82.5328	276.855	82.4988	276.855	82.5662	276.855	82.4969	276.855	82.6177	276.855	82.5291	276.855	82.6747	276.855	82.5833	276.855	82.7265	276.855	82.646	276.855	82.7644	276.855	82.7054	276.855	82.7827	276.855	82.7516	276.855	82.7785
287.109	83.9099	287.109	83.8496	287.109	83.9088	287.109	83.7269	287.109	83.851	287.109	83.5444	287.109	83.7437	287.109	83.31	287.109	83.5967	287.109	83.0382	287.109	83.4222	287.109	82.7502	287.109	83.2347	287.109	82.4741	287.109	83.0496	287.109	82.2411	287.109	82.8826	287.109	82.0795	287.109	82.7471	287.109	82.0063	287.109	82.6527	287.109	82.0221	287.109	82.6029	287.109	82.111	287.109	82.595	287.109	82.2462	287.109	82.6206	287.109	82.3986	287.109	82.6672	287.109	82.5431	287.109	82.7204	287.109	82.6615	287.109	82.7661	287.109	82.7436	287.109	82.7914	287.109	82.7862
297.363	84.5883	297.363	84.5946	297.363	84.517	297.363	84.5361	297.363	84.3824	297.363	84.4154	297.363	84.189	297.363	84.2372	297.363	83.9449	297.363	84.0087	297.363	83.6623	297.363	83.7408	297.363	83.3585	297.363	83.4487	297.363	83.0554	297.363	83.1524	297.363	82.7779	297.363	82.8755	297.363	82.5506	297.363	82.6432	297.363	82.3926	297.363	82.4762	297.363	82.3124	297.363	82.3858	297.363	82.3058	297.363	82.3696	297.363	82.3565	297.363	82.4117	297.363	82.441	297.363	82.4874	297.363	82.534	297.363	82.5699	297.363	82.6128	297.363	82.6358	297.363	82.6608	297.363	82.6688
307.617	84.3916	307.617	84.3749	307.617	84.346	307.617	84.2991	307.617	84.2376	307.617	84.1699	307.617	84.0689	307.617	83.9956	307.617	83.8465	307.617	83.7878	307.617	83.5822	307.617	83.5607	307.617	83.2939	307.617	83.3317	307.617	83.0059	307.617	83.1202	307.617	82.7476	307.617	82.9452	307.617	82.5487	307.617	82.8222	307.617	82.4328	307.617	82.7604	307.617	82.4097	307.617	82.7596	307.617	82.4717	307.617	82.8104	307.617	82.596	307.617	82.8953	307.617	82.7516	307.617	82.993	307.617	82.907	307.617	83.0815	307.617	83.0366	307.617	83.1412	307.617	83.1229	307.617	83.1577
319.336	84.2444	319.336	84.1931	319.336	84.2161	319.336	84.0649	319.336	84.1075	319.336	83.864	319.336	83.9191	319.336	83.5977	319.336	83.654	319.336	83.2775	319.336	83.319	319.336	82.9206	319.336	82.9269	319.336	82.5509	319.336	82.499	319.336	82.1991	319.336	82.067	319.336	81.8993	319.336	81.6731	319.336	81.6827	319.336	81.364	319.336	81.5684	319.336	81.1789	319.336	81.5564	319.336	81.1343	319.336	81.6268	319.336	81.2162	319.336	81.7459	319.336	81.385	319.336	81.8756	319.336	81.5905	319.336	81.981	319.336	81.7861	319.336	82.0354	319.336	81.937	319.336	82.0225
329.59	84.4244	329.59	84.351	329.59	84.4206	329.59	84.2032	329.59	84.3374	329.59	83.9855	329.59	84.1739	329.59	83.7045	329.59	83.9302	329.59	83.3705	329.59	83.6093	329.59	82.9988	329.59	83.2181	329.59	82.6115	329.59	82.7707	329.59	82.2373	329.59	82.2909	329.59	81.9095	329.59	81.815	329.59	81.6599	329.59	81.3915	329.59	81.5094	329.59	81.0725	329.59	81.4606	329.59	80.8984	329.59	81.4952	329.59	80.8796	329.59	81.5794	329.59	80.9901	329.59	81.6737	329.59	81.1789	329.59	81.7415	329.59	81.389	329.59	81.7553	329.59	81.5729	329.59	81.6997
341.309	84.6811	341.309	84.6056	341.309	84.6826	341.309	84.4559	341.309	84.6102	341.309	84.2326	341.309	84.4645	341.309	83.9376	341.309	84.2471	341.309	83.5763	341.309	83.9617	341.309	83.1593	341.309	83.6154	341.309	82.7053	341.309	83.2212	341.309	82.243	341.309	82.7992	341.309	81.8112	341.309	82.3774	341.309	81.454	341.309	81.9908	341.309	81.2094	341.309	81.6754	341.309	81.0958	341.309	81.4594	341.309	81.1026	341.309	81.3526	341.309	81.1944	341.309	81.3421	341.309	81.3243	341.309	81.3962	341.309	81.4484	341.309	81.475	341.309	81.5342	341.309	81.5407	341.309	81.5652
353.027	84.8514	353.027	84.776	353.027	84.8428	353.027	84.6144	353.027	84.7516	353.027	84.3636	353.027	84.5782	353.027	84.0212	353.027	84.3227	353.027	83.587	353.027	83.9862	353.027	83.0652	353.027	83.5726	353.027	82.469	353.027	83.0916	353.027	81.8256	353.027	82.5621	353.027	81.1823	353.027	82.0155	353.027	80.6075	353.027	81.4978	353.027	80.1804	353.027	81.0643	353.027	79.9609	353.027	80.7647	353.027	79.9574	353.027	80.622	353.027	80.1185	353.027	80.6191	353.027	80.3609	353.027	80.7042	353.027	80.6033	353.027	80.8124	353.027	80.7878	353.027	80.8856	353.027	80.8836
366.211	85.1618	366.211	85.1755	366.211	85.0735	366.211	85.1105	366.211	84.9141	366.211	84.9625	366.211	84.6866	366.211	84.7275	366.211	84.3943	366.211	84.4031	366.211	84.0421	366.211	83.9898	366.211	83.6375	366.211	83.4941	366.211	83.1938	366.211	82.9319	366.211	82.7315	366.211	82.3335	366.211	82.2802	366.211	81.7466	366.211	81.8768	366.211	81.2353	366.211	81.5588	366.211	80.8653	366.211	81.3521	366.211	80.6789	366.211	81.2596	366.211	80.6721	366.211	81.2574	366.211	80.7958	366.211	81.3024	366.211	80.9796	366.211	81.3466	366.211	81.1585	366.211	81.35	366.211	81.2886
379.395	84.8904	379.395	84.869	379.395	84.8343	379.395	84.7723	379.395	84.6969	379.395	84.6018	379.395	84.4738	379.395	84.358	379.395	84.1605	379.395	84.0422	379.395	83.7543	379.395	83.6576	379.395	83.257	379.395	83.2127	379.395	82.6783	379.395	82.724	379.395	82.0426	379.395	82.2202	379.395	81.395	379.395	81.7438	379.395	80.8057	379.395	81.3471	379.395	80.3612	379.395	81.0779	379.395	80.1337	379.395	80.9594	379.395	80.141	379.395	80.975	379.395	80.3325	379.395	81.0734	379.395	80.6163	379.395	81.1882	379.395	80.9015	379.395	81.2589	379.395	81.1221	379.395	81.2433
392.578	85.0197	392.578	84.9761	392.578	84.9856	392.578	84.8553	392.578	84.8714	392.578	84.6553	392.578	84.6728	392.578	84.3731	392.578	84.3839	392.578	84.0058	392.578	83.9995	392.578	83.5528	392.578	83.5165	392.578	83.0194	392.578	82.9376	392.578	82.422	392.578	82.2766	392.578	81.7941	392.578	81.5663	392.578	81.1919	392.578	80.8668	392.578	80.6909	392.578	80.2681	392.578	80.3644	392.578	79.8697	392.578	80.2475	392.578	79.7331	392.578	80.3117	392.578	79.8388	392.578	80.4774	392.578	80.0947	392.578	80.6522	392.578	80.3876	392.578	80.7605	392.578	80.6263	392.578	80.7566
405.762	84.8113	405.762	84.7284	405.762	84.8216	405.762	84.5741	405.762	84.756	405.762	84.3478	405.762	84.6095	405.762	84.0478	405.762	84.3762	405.762	83.673	405.762	84.0505	405.762	83.2257	405.762	83.6287	405.762	82.7152	405.762	83.1127	405.762	82.1634	405.762	82.5143	405.762	81.6099	405.762	81.8632	405.762	81.1139	405.762	81.2152	405.762	80.7445	405.762	80.6549	405.762	80.5555	405.762	80.2779	405.762	80.5551	405.762	80.1472	405.762	80.697	405.762	80.2498	405.762	80.9015	405.762	80.5017	405.762	81.0869	405.762	80.7945	405.762	81.1909	405.762	81.0382	405.762	81.1774
420.41	85.1	420.41	85.0525	420.41	85.0541	420.41	84.9073	420.41	84.9177	420.41	84.659	420.41	84.6921	420.41	84.3017	420.41	84.3769	420.41	83.8302	420.41	83.9717	420.41	83.2426	420.41	83.4769	420.41	82.5443	420.41	82.8976	420.41	81.7566	420.41	82.2481	420.41	80.9289	420.41	81.5596	420.41	80.1526	420.41	80.8869	420.41	79.5571	420.41	80.3097	420.41	79.2626	420.41	79.9151	420.41	79.2988	420.41	79.7584	420.41	79.5758	420.41	79.8257	420.41	79.9461	420.41	80.0377	420.41	80.2807	420.41	80.2889	420.41	80.4994	420.41	80.4868	420.41	80.5677
435.059	85.1756	435.059	85.1479	435.059	85.1251	435.059	85.0372	435.059	84.9976	435.059	84.8362	435.059	84.7915	435.059	84.5355	435.059	84.5022	435.059	84.1254	435.059	84.1242	435.059	83.598	435.059	83.6531	435.059	82.9508	435.059	83.089	435.059	82.1938	435.059	82.4427	435.059	81.3605	435.059	81.7436	435.059	80.5239	435.059	81.0495	435.059	79.807	435.059	80.4501	435.059	79.3574	435.059	80.0478	435.059	79.2656	435.059	79.9077	435.059	79.4889	435.059	80.0091	435.059	79.8799	435.059	80.2524	435.059	80.2803	435.059	80.5132	435.059	80.5793	435.059	80.6901	435.059	80.7203
451.172	84.574	451.172	84.5685	451.172	84.5067	451.172	84.4857	451.172	84.3668	451.172	84.3172	451.172	84.1498	451.172	84.052	451.172	83.8478	451.172	83.6775	451.172	83.4505	451.172	83.1817	451.172	82.9476	451.172	82.5564	451.172	82.3336	451.172	81.8039	451.172	81.6132	451.172	80.9479	451.172	80.8127	451.172	80.0523	451.172	79.994	451.172	79.239	451.172	79.2671	451.172	78.6756	451.172	78.7728	451.172	78.4899	451.172	78.6127	451.172	78.663	451.172	78.7679	451.172	79.0373	451.172	79.1058	451.172	79.4301	451.172	79.4659	451.172	79.7118	451.172	79.7259	451.172	79.8161
465.82	84.4782	465.82	84.4692	465.82	84.4202	465.82	84.3923	465.82	84.2919	465.82	84.2427	465.82	84.087	465.82	84.0113	465.82	83.796	465.82	83.6866	465.82	83.4079	465.82	83.2564	465.82	82.9105	465.82	82.711	465.82	82.2933	465.82	82.0488	465.82	81.5519	465.82	81.2852	465.82	80.6985	465.82	80.4667	465.82	79.7807	465.82	79.6846	465.82	78.9059	465.82	79.0726	465.82	78.2468	465.82	78.7536	465.82	77.9706	465.82	78.7531	465.82	78.1042	465.82	78.9694	465.82	78.4983	465.82	79.2426	465.82	78.9464	465.82	79.4353	465.82	79.2943	465.82	79.4633
483.398	84.6028	483.398	84.5663	483.398	84.57	483.398	84.459	483.398	84.4708	483.398	84.2807	483.398	84.3076	483.398	84.0313	483.398	84.0809	483.398	83.7088	483.398	83.787	483.398	83.3092	483.398	83.4178	483.398	82.8267	483.398	82.9621	483.398	82.2573	483.398	82.4099	483.398	81.6061	483.398	81.7594	483.398	80.8969	483.398	81.0274	483.398	80.1848	483.398	80.2631	483.398	79.5605	483.398	79.5588	483.398	79.1287	483.398	79.0371	483.398	78.9507	483.398	78.792	483.398	78.9927	483.398	78.8159	483.398	79.1415	483.398	78.9965	483.398	79.2713	483.398	79.1913	483.398	79.2963
499.512	84.786	499.512	84.7076	499.512	84.7538	499.512	84.5182	499.512	84.6147	499.512	84.2207	499.512	84.3754	499.512	83.8216	499.512	84.0456	499.512	83.3319	499.512	83.6377	499.512	82.7688	499.512	83.1665	499.512	82.1577	499.512	82.6493	499.512	81.5354	499.512	82.1067	499.512	80.9515	499.512	81.5647	499.512	80.4653	499.512	81.0583	499.512	80.1323	499.512	80.6311	499.512	79.9836	499.512	80.3291	499.512	80.0087	499.512	80.1838	499.512	80.1572	499.512	80.1923	499.512	80.3582	499.512	80.3122	499.512	80.5439	499.512	80.4767	499.512	80.6634	499.512	80.6188	499.512	80.6891
517.09	85.9596	517.09	85.9006	517.09	85.8896	517.09	85.7122	517.09	85.6881	517.09	85.3903	517.09	85.3505	517.09	84.9291	517.09	84.8733	517.09	84.3235	517.09	84.2568	517.09	83.5749	517.09	83.5112	517.09	82.7012	517.09	82.6633	517.09	81.7536	517.09	81.7676	517.09	80.8399	517.09	80.9176	517.09	80.131	517.09	80.2426	517.09	79.8017	517.09	79.8689	517.09	79.904	517.09	79.8481	517.09	80.3164	517.09	80.1201	517.09	80.8448	517.09	80.5564	517.09	81.3336	517.09	81.0298	517.09	81.6942	517.09	81.4474	517.09	81.8876	517.09	81.7506	517.09	81.904
536.133	86.3997	536.133	86.3623	536.133	86.3387	536.133	86.2203	536.133	86.1797	536.133	85.9623	536.133	85.916	536.133	85.573	536.133	85.5342	536.133	85.0345	536.133	85.0155	536.133	84.3282	536.133	84.3388	536.133	83.4399	536.133	83.4869	536.133	82.3733	536.133	82.4617	536.133	81.1824	536.133	81.3157	536.133	80.0324	536.133	80.2091	536.133	79.2462	536.133	79.4489	536.133	79.1498	536.133	79.3422	536.133	79.7214	536.133	79.874	536.133	80.6091	536.133	80.7172	536.133	81.4828	536.133	81.5545	536.133	82.1689	536.133	82.2125	536.133	82.5987	536.133	82.6194	536.133	82.7503
555.176	86.0775	555.176	86.0586	555.176	86.0301	555.176	85.9698	555.176	85.9124	555.176	85.7993	555.176	85.7132	555.176	85.5278	555.176	85.4142	555.176	85.1292	555.176	84.9909	555.176	84.5735	555.176	84.4136	555.176	83.8305	555.176	83.6502	555.176	82.8771	555.176	82.6725	555.176	81.7149	555.176	81.475	555.176	80.4133	555.176	80.1221	555.176	79.1935	555.176	78.8496	555.176	78.4707	555.176	78.1283	555.176	78.5752	555.176	78.3271	555.176	79.332	555.176	79.2073	555.176	80.2795	555.176	80.2402	555.176	81.0887	555.176	81.0883	555.176	81.6119	555.176	81.6192	555.176	81.7946
574.219	85.9883	574.219	85.9396	574.219	85.9609	574.219	85.8111	574.219	85.8553	574.219	85.5933	574.219	85.6633	574.219	85.2704	574.219	85.3696	574.219	84.8204	574.219	84.9515	574.219	84.2152	574.219	84.3785	574.219	83.4228	574.219	83.6133	574.219	82.4124	574.219	82.6144	574.219	81.1693	574.219	81.3455	574.219	79.741	574.219	79.8109	574.219	78.3457	574.219	78.1623	574.219	77.4812	574.219	76.9072	574.219	77.611	574.219	76.7772	574.219	78.5195	574.219	77.7409	574.219	79.6077	574.219	79.032	574.219	80.4895	574.219	80.125	574.219	81.0151	574.219	80.8399	574.219	81.1368
594.727	85.9924	594.727	85.9361	594.727	85.996	594.727	85.8219	594.727	85.9466	594.727	85.6386	594.727	85.8367	594.727	85.3689	594.727	85.6497	594.727	84.9885	594.727	85.3599	594.727	84.4659	594.727	84.9327	594.727	83.764	594.727	84.3274	594.727	82.8437	594.727	83.5002	594.727	81.6738	594.727	82.4116	594.727	80.2631	594.727	81.0455	594.727	78.7477	594.727	79.4718	594.727	77.547	594.727	77.9965	594.727	77.2743	594.727	77.2617	594.727	77.9948	594.727	77.6674	594.727	79.0949	594.727	78.7295	594.727	80.0518	594.727	79.7838	594.727	80.644	594.727	80.5079	594.727	80.8012
615.234	85.6721	615.234	85.6833	615.234	85.5841	615.234	85.615	615.234	85.426	615.234	85.4652	615.234	85.2074	615.234	85.2255	615.234	84.9344	615.234	84.8766	615.234	84.6006	615.234	84.386	615.234	84.1818	615.234	83.7101	615.234	83.6363	615.234	82.7983	615.234	82.9107	615.234	81.6022	615.234	81.9526	615.234	80.1035	615.234	80.736	615.234	78.4049	615.234	79.3266	615.234	76.9501	615.234	78.025	615.234	76.5569	615.234	77.4314	615.234	77.4147	615.234	77.8835	615.234	78.7297	615.234	78.9189	615.234	79.8585	615.234	79.9231	615.234	80.5715	615.234	80.5897	615.234	80.8155
637.207	85.8098	637.207	85.7896	637.207	85.7757	637.207	85.7151	637.207	85.6871	637.207	85.585	637.207	85.5408	637.207	85.3928	637.207	85.3263	637.207	85.1227	637.207	85.0219	637.207	84.7468	637.207	84.5934	637.207	84.2251	637.207	83.996	637.207	83.508	637.207	83.1767	637.207	82.5404	637.207	82.0789	637.207	81.2733	637.207	80.6569	637.207	79.7025	637.207	78.9302	637.207	77.9946	637.207	77.1611	637.207	76.7323	637.207	76.1258	637.207	76.6969	637.207	76.5252	637.207	77.7033	637.207	77.7805	637.207	78.8738	637.207	78.9899	637.207	79.6944	637.207	79.7641	637.207	80.003
659.18	85.3156	659.18	85.2006	659.18	85.3457	659.18	85.0135	659.18	85.2927	659.18	84.7758	659.18	85.1697	659.18	84.5063	659.18	84.9895	659.18	84.2078	659.18	84.7519	659.18	83.8591	659.18	84.4334	659.18	83.4162	659.18	83.9871	659.18	82.8217	659.18	83.349	659.18	82.0178	659.18	82.4476	659.18	80.9667	659.18	81.2182	659.18	79.6985	659.18	79.643	659.18	78.4191	659.18	77.8888	659.18	77.6215	659.18	76.6044	659.18	77.7696	659.18	76.6826	659.18	78.6355	659.18	77.8624	659.18	79.5967	659.18	79.1565	659.18	80.2463	659.18	80.0526	659.18	80.4173
682.617	85.3395	682.617	85.3276	682.617	85.2645	682.617	85.2234	682.617	85.1231	682.617	85.0343	682.617	84.9432	682.617	84.7715	682.617	84.7453	682.617	84.4369	682.617	84.5265	682.617	84.0121	682.617	84.2526	682.617	83.4544	682.617	83.8632	682.617	82.6998	682.617	83.2828	682.617	81.6713	682.617	82.4316	682.617	80.2975	682.617	81.2356	682.617	78.5708	682.617	79.6575	682.617	76.7521	682.617	77.8221	682.617	75.734	682.617	76.3494	682.617	76.3358	682.617	76.2839	682.617	77.809	682.617	77.4937	682.617	79.1445	682.617	78.871	682.617	79.9678	682.617	79.8236	682.617	80.1975
707.52	86.0182	707.52	85.9588	707.52	85.9314	707.52	85.7681	707.52	85.6997	707.52	85.4726	707.52	85.3443	707.52	85.1024	707.52	84.9039	707.52	84.6816	707.52	84.4224	707.52	84.2154	707.52	83.9251	707.52	83.6788	707.52	83.3944	707.52	83.0127	707.52	82.7623	707.52	82.1281	707.52	81.9219	707.52	80.914	707.52	80.7479	707.52	79.2587	707.52	79.1242	707.52	77.1409	707.52	77.0373	707.52	75.028	707.52	74.9772	707.52	74.4314	707.52	74.4472	707.52	75.7852	707.52	75.8185	707.52	77.4566	707.52	77.4796	707.52	78.5643	707.52	78.5752	707.52	78.9416
732.422	85.4599	732.422	85.3917	732.422	85.3677	732.422	85.1663	732.422	85.1405	732.422	84.8137	732.422	84.8264	732.422	84.3823	732.422	84.4821	732.422	83.9203	732.422	84.147	732.422	83.4492	732.422	83.8168	732.422	82.9431	732.422	83.4342	732.422	82.3288	732.422	82.9013	732.422	81.5053	732.422	82.0992	732.422	80.371	732.422	80.9015	732.422	78.8767	732.422	79.1936	732.422	77.186	732.422	76.9885	732.422	76.0232	732.422	74.9574	732.422	76.3297	732.422	74.8636	732.422	77.6743	732.422	76.603	732.422	78.9974	732.422	78.3867	732.422	79.8197	732.422	79.5482	732.422	80.0166
757.324	85.5747	757.324	85.4594	757.324	85.5068	757.324	85.1847	757.324	85.2593	757.324	84.7943	757.324	84.8684	757.324	84.3413	757.324	84.4008	757.324	83.8707	757.324	83.9341	757.324	83.3969	757.324	83.5158	757.324	82.8863	757.324	83.1248	757.324	82.2553	757.324	82.6669	757.324	81.383	757.324	82.0053	757.324	80.1238	757.324	80.9888	757.324	78.3254	757.324	79.4668	757.324	75.9364	757.324	77.3356	757.324	73.6325	757.324	74.865	757.324	73.6039	757.324	73.6967	757.324	75.6511	757.324	75.1047	757.324	77.5676	757.324	77.1045	757.324	78.6948	757.324	78.46	757.324	78.9892
785.156	86.0324	785.156	85.9517	785.156	85.9161	785.156	85.6851	785.156	85.6112	785.156	85.2661	785.156	85.1454	785.156	84.7514	785.156	84.5673	785.156	84.2095	785.156	83.9428	785.156	83.6907	785.156	83.336	785.156	83.1895	785.156	82.7717	785.156	82.6271	785.156	82.2028	785.156	81.8657	785.156	81.5082	785.156	80.7298	785.156	80.5199	785.156	79.0078	785.156	79.0469	785.156	76.4438	785.156	76.8998	785.156	72.9611	785.156	74.0954	785.156	70.755	785.156	72.053	785.156	73.003	785.156	73.2568	785.156	75.7059	785.156	75.5904	785.156	77.2655	785.156	77.1621	785.156	77.7242
811.523	85.6512	811.523	85.5104	811.523	85.5496	811.523	85.1434	811.523	85.2235	811.523	84.602	811.523	84.729	811.523	83.974	811.523	84.1619	811.523	83.3682	811.523	83.6366	811.523	82.8664	811.523	83.228	811.523	82.4622	811.523	82.9102	811.523	82.0444	811.523	82.5537	811.523	81.4391	811.523	81.9784	811.523	80.4565	811.523	80.9948	811.523	78.9112	811.523	79.4079	811.523	76.6773	811.523	77.0273	811.523	74.1305	811.523	73.9789	811.523	73.3635	811.523	72.3939	811.523	75.2267	811.523	74.3512	811.523	77.2705	811.523	76.7691	811.523	78.5025	811.523	78.2787	811.523	78.8385
840.82	86.4405	840.82	86.2881	840.82	86.3517	840.82	85.91	840.82	86.0308	840.82	85.3504	840.82	85.5176	840.82	84.6919	840.82	84.8929	840.82	84.054	840.82	84.2755	840.82	83.5488	840.82	83.7773	840.82	83.1963	840.82	83.4214	840.82	82.8808	840.82	83.1024	840.82	82.3987	840.82	82.6344	840.82	81.5248	840.82	81.8172	840.82	80.0277	840.82	80.4545	840.82	77.6515	840.82	78.3386	840.82	74.296	840.82	75.3364	840.82	71.9123	840.82	72.4763	840.82	73.9291	840.82	73.2827	840.82	76.6076	840.82	75.9575	840.82	78.1346	840.82	77.7965	840.82	78.5116
870.117	86.7986	870.117	86.6709	870.117	86.6351	870.117	86.2626	870.117	86.1992	870.117	85.6166	870.117	85.5446	870.117	84.8198	870.117	84.7712	870.117	84.008	870.117	84.0236	870.117	83.3321	870.117	83.4415	870.117	82.863	870.117	83.063	870.117	82.5144	870.117	82.7749	870.117	82.0811	870.117	82.3731	870.117	81.3301	870.117	81.6444	870.117	80.037	870.117	80.3905	870.117	77.9767	870.117	78.421	870.117	75.0334	870.117	75.6646	870.117	72.3757	870.117	73.1103	870.117	73.3435	870.117	73.6232	870.117	75.8849	870.117	75.9003	870.117	77.544	870.117	77.5212	870.117	78.0753
900.879	87.1592	900.879	86.9898	900.879	87.0549	900.879	86.558	900.879	86.6758	900.879	85.89	900.879	86.0384	900.879	85.0404	900.879	85.1949	900.879	84.1107	900.879	84.2526	900.879	83.2434	900.879	83.3696	900.879	82.5547	900.879	82.6794	900.879	82.0267	900.879	82.1718	900.879	81.4814	900.879	81.666	900.879	80.6615	900.879	80.9002	900.879	79.3015	900.879	79.6008	900.879	77.1471	900.879	77.4757	900.879	74.1666	900.879	74.2991	900.879	72.1791	900.879	71.4583	900.879	74.0503	900.879	73.2107	900.879	76.6735	900.879	76.2476	900.879	78.2696	900.879	78.1006	900.879	78.7418
933.105	87.2918	933.105	87.1786	933.105	87.1283	933.105	86.7866	933.105	86.6938	933.105	86.1261	933.105	86.0059	933.105	85.2478	933.105	85.1175	933.105	84.2808	933.105	84.1435	933.105	83.4278	933.105	83.2598	933.105	82.8427	933.105	82.622	933.105	82.4658	933.105	82.2272	933.105	82.0468	933.105	81.8827	933.105	81.3022	933.105	81.3147	933.105	79.9835	933.105	80.2547	933.105	77.8541	933.105	78.4443	933.105	74.802	933.105	75.6865	933.105	72.2772	933.105	72.7583	933.105	73.8065	933.105	73.2846	933.105	76.5507	933.105	76.0575	933.105	78.2332	933.105	77.9923	933.105	78.7049
965.332	88.0822	965.332	87.9625	965.332	87.9077	965.332	87.5513	965.332	87.4466	965.332	86.8657	965.332	86.7242	965.332	85.9536	965.332	85.8023	965.332	84.9193	965.332	84.7994	965.332	83.9332	965.332	83.8818	965.332	83.1594	965.332	83.1828	965.332	82.6031	965.332	82.687	965.332	82.0517	965.332	82.2116	965.332	81.1899	965.332	81.4926	965.332	79.6997	965.332	80.2481	965.332	77.2738	965.332	78.1659	965.332	73.8964	965.332	74.966	965.332	72.2434	965.332	71.9084	965.332	74.901	965.332	73.6555	965.332	77.6039	965.332	76.8349	965.332	79.1145	965.332	78.7787	965.332	79.4981
1000.49	88.4622	1000.49	88.3051	1000.49	88.3486	1000.49	87.8781	1000.49	87.9566	1000.49	87.1807	1000.49	87.2857	1000.49	86.2426	1000.49	86.3676	1000.49	85.1794	1000.49	85.3003	1000.49	84.2266	1000.49	84.2718	1000.49	83.6268	1000.49	83.5017	1000.49	83.3677	1000.49	83.057	1000.49	83.1364	1000.49	82.7414	1000.49	82.5529	1000.49	82.2271	1000.49	81.2983	1000.49	81.2036	1000.49	79.07	1000.49	79.3855	1000.49	75.6039	1000.49	76.482	1000.49	72.3118	1000.49	72.8283	1000.49	74.0871	1000.49	72.6515	1000.49	77.0794	1000.49	75.8443	1000.49	78.7256	1000.49	78.1245	1000.49	79.0542
1035.64	88.853	1035.64	88.6797	1035.64	88.7829	1035.64	88.2584	1035.64	88.4456	1035.64	87.5616	1035.64	87.804	1035.64	86.5694	1035.64	86.8374	1035.64	85.3228	1035.64	85.5842	1035.64	83.9918	1035.64	84.2044	1035.64	82.8868	1035.64	83.0184	1035.64	82.2431	1035.64	82.3373	1035.64	81.9087	1035.64	82.1001	1035.64	81.4422	1035.64	81.8847	1035.64	80.4044	1035.64	81.2377	1035.64	78.4013	1035.64	79.775	1035.64	75.0112	1035.64	77.0942	1035.64	71.09	1035.64	73.1118	1035.64	72.94	1035.64	72.1999	1035.64	76.6053	1035.64	75.823	1035.64	78.6609	1035.64	78.3214	1035.64	79.212
1072.27	88.8325	1072.27	88.6047	1072.27	88.7903	1072.27	88.1273	1072.27	88.4461	1072.27	87.3994	1072.27	87.7801	1072.27	86.4203	1072.27	86.8102	1072.27	85.2507	1072.27	85.6149	1072.27	84.0896	1072.27	84.3546	1072.27	83.2429	1072.27	83.2552	1072.27	82.8294	1072.27	82.4869	1072.27	82.5651	1072.27	81.997	1072.27	82.0036	1072.27	81.5157	1072.27	80.77	1072.27	80.7045	1072.27	78.5249	1072.27	79.2401	1072.27	74.9127	1072.27	76.8772	1072.27	71.2241	1072.27	74.1376	1072.27	73.3854	1072.27	74.1583	1072.27	76.8167	1072.27	76.7186	1072.27	78.7484	1072.27	78.6427	1072.27	79.3216
1108.89	88.7516	1108.89	88.6072	1108.89	88.6406	1108.89	88.1925	1108.89	88.2636	1108.89	87.4694	1108.89	87.5944	1108.89	86.3961	1108.89	86.6079	1108.89	84.9696	1108.89	85.3072	1108.89	83.3045	1108.89	83.7811	1108.89	81.7499	1108.89	82.2998	1108.89	80.8199	1108.89	81.3026	1108.89	80.5964	1108.89	80.97	1108.89	80.4923	1108.89	80.8752	1108.89	79.8487	1108.89	80.3908	1108.89	78.162	1108.89	79.0315	1108.89	74.9143	1108.89	76.4259	1108.89	70.6565	1108.89	72.9005	1108.89	72.6083	1108.89	72.9576	1108.89	76.5871	1108.89	76.313	1108.89	78.75	1108.89	78.5735	1108.89	79.3613
1148.44	88.6597	1148.44	88.5181	1148.44	88.5599	1148.44	88.1397	1148.44	88.1963	1148.44	87.5064	1148.44	87.5351	1148.44	86.5812	1148.44	86.5408	1148.44	85.3396	1148.44	85.2049	1148.44	83.8528	1148.44	83.6253	1148.44	82.428	1148.44	82.1534	1148.44	81.5797	1148.44	81.3416	1148.44	81.4407	1148.44	81.2678	1148.44	81.4622	1148.44	81.3021	1148.44	80.9922	1148.44	80.7892	1148.44	79.5059	1148.44	79.2486	1148.44	76.32	1148.44	76.1162	1148.44	70.2039	1148.44	70.7528	1148.44	69.4234	1148.44	70.0049	1148.44	75.0655	1148.44	74.8152	1148.44	77.6679	1148.44	77.4494	1148.44	78.3275
1189.45	88.0615	1189.45	88.0039	1189.45	87.9086	1189.45	87.7086	1189.45	87.5533	1189.45	87.1407	1189.45	86.9722	1189.45	86.2591	1189.45	86.1159	1189.45	85.0239	1189.45	84.9389	1189.45	83.4371	1189.45	83.453	1189.45	81.6666	1189.45	81.8251	1189.45	80.2418	1189.45	80.4843	1189.45	79.7795	1189.45	79.8815	1189.45	80.0201	1189.45	79.8557	1189.45	80.0957	1189.45	79.7553	1189.45	79.3489	1189.45	78.9897	1189.45	77.2533	1189.45	77.0369	1189.45	73.0175	1189.45	73.2179	1189.45	67.4136	1189.45	68.5574	1189.45	71.4092	1189.45	71.649	1189.45	74.9976	1189.45	75.0115	1189.45	76.0495
1230.47	88.0253	1230.47	87.888	1230.47	87.9128	1230.47	87.5024	1230.47	87.538	1230.47	86.8646	1230.47	86.8715	1230.47	85.9644	1230.47	85.8732	1230.47	84.7935	1230.47	84.5193	1230.47	83.3875	1230.47	82.856	1230.47	81.9106	1230.47	81.099	1230.47	80.7187	1230.47	79.7143	1230.47	80.1347	1230.47	79.1225	1230.47	79.9781	1230.47	79.1173	1230.47	79.6542	1230.47	79.0462	1230.47	78.5582	1230.47	78.2965	1230.47	76.0635	1230.47	76.2996	1230.47	71.2575	1230.47	72.482	1230.47	67.6412	1230.47	69.5354	1230.47	72.7383	1230.47	73.1032	1230.47	75.8302	1230.47	75.915	1230.47	76.7623
1274.41	87.9755	1274.41	87.8555	1274.41	87.7773	1274.41	87.4023	1274.41	87.2919	1274.41	86.6291	1274.41	86.5337	1274.41	85.5541	1274.41	85.4861	1274.41	84.1738	1274.41	84.1342	1274.41	82.4851	1274.41	82.5393	1274.41	80.6019	1274.41	80.9333	1274.41	78.957	1274.41	79.7083	1274.41	78.1971	1274.41	79.0937	1274.41	78.2824	1274.41	78.8597	1274.41	78.3797	1274.41	78.5432	1274.41	77.7413	1274.41	77.6964	1274.41	75.8658	1274.41	75.8728	1274.41	72.5714	1274.41	72.7282	1274.41	70.521	1274.41	70.0719	1274.41	72.9596	1274.41	72.1812	1274.41	75.1245	1274.41	74.7176	1274.41	75.7004
1319.82	87.5527	1319.82	87.4735	1319.82	87.439	1319.82	87.1125	1319.82	87.1513	1319.82	86.3904	1319.82	86.6084	1319.82	85.2848	1319.82	85.6858	1319.82	83.8311	1319.82	84.3067	1319.82	82.1323	1319.82	82.5244	1319.82	80.4452	1319.82	80.6308	1319.82	79.2498	1319.82	79.1709	1319.82	78.8603	1319.82	78.4578	1319.82	78.8765	1319.82	78.1282	1319.82	78.5684	1319.82	77.613	1319.82	77.3363	1319.82	76.4818	1319.82	74.6323	1319.82	74.337	1319.82	70.234	1319.82	71.1479	1319.82	69.595	1319.82	70.406	1319.82	73.5644	1319.82	73.5634	1319.82	75.9566	1319.82	75.8964	1319.82	76.6712
1366.7	87.7645	1366.7	87.7111	1366.7	87.6834	1366.7	87.4445	1366.7	87.454	1366.7	86.8657	1366.7	86.9617	1366.7	85.9142	1366.7	86.0595	1366.7	84.5753	1366.7	84.6466	1366.7	82.8826	1366.7	82.736	1366.7	80.9864	1366.7	80.6276	1366.7	79.3109	1366.7	79.1346	1366.7	78.4196	1366.7	78.7996	1366.7	78.1656	1366.7	78.8488	1366.7	77.6601	1366.7	78.3332	1366.7	76.0707	1366.7	76.7275	1366.7	72.7004	1366.7	73.735	1366.7	68.8095	1366.7	70.8491	1366.7	72.0842	1366.7	72.8525	1366.7	75.8949	1366.7	75.9374	1366.7	77.833	1366.7	77.7505	1366.7	78.3714
1413.57	87.3606	1413.57	87.286	1413.57	87.3102	1413.57	87.1385	1413.57	87.1098	1413.57	86.8856	1413.57	86.7396	1413.57	86.3248	1413.57	86.1132	1413.57	85.1641	1413.57	85.0585	1413.57	83.1406	1413.57	83.3658	1413.57	80.2307	1413.57	80.9688	1413.57	77.7023	1413.57	78.6469	1413.57	77.9881	1413.57	78.3292	1413.57	79.2808	1413.57	79.3303	1413.57	79.5329	1413.57	79.5928	1413.57	78.1564	1413.57	78.1709	1413.57	74.2147	1413.57	73.801	1413.57	64.0985	1413.57	60.6037	1413.57	71.7085	1413.57	72.2278	1413.57	77.4884	1413.57	77.6025	1413.57	79.881	1413.57	79.8485	1413.57	80.5284
1463.38	87.2001	1463.38	87.0981	1463.38	87.0183	1463.38	86.7878	1463.38	86.6219	1463.38	86.4089	1463.38	86.1403	1463.38	85.9586	1463.38	85.6031	1463.38	85.2146	1463.38	84.8494	1463.38	83.8542	1463.38	83.5726	1463.38	81.5837	1463.38	81.4261	1463.38	78.482	1463.38	78.3493	1463.38	76.6193	1463.38	76.3006	1463.38	77.9152	1463.38	77.7129	1463.38	79.2646	1463.38	79.2297	1463.38	79.0729	1463.38	79.0112	1463.38	76.5859	1463.38	76.2931	1463.38	68.7567	1463.38	67.9397	1463.38	66.4719	1463.38	66.3288	1463.38	76.2205	1463.38	75.6852	1463.38	79.334	1463.38	78.9506	1463.38	80.0192
1516.11	87.3225	1516.11	87.0758	1516.11	87.0785	1516.11	86.4198	1516.11	86.3855	1516.11	85.5744	1516.11	85.4075	1516.11	84.7794	1516.11	84.4123	1516.11	84.0182	1516.11	83.5644	1516.11	82.956	1516.11	82.6483	1516.11	81.1523	1516.11	81.1373	1516.11	78.2879	1516.11	78.4784	1516.11	75.2849	1516.11	74.9261	1516.11	75.8022	1516.11	74.6985	1516.11	77.8225	1516.11	77.2062	1516.11	78.4016	1516.11	78.2323	1516.11	76.8751	1516.11	77.0286	1516.11	71.7851	1516.11	72.3987	1516.11	51.746	1516.11	47.2181	1516.11	72.4702	1516.11	71.4656	1516.11	76.7927	1516.11	76.3702	1516.11	77.7732
1568.85	87.1627	1568.85	86.8279	1568.85	86.9039	1568.85	86.0023	1568.85	86.079	1568.85	84.9075	1568.85	84.8818	1568.85	83.8436	1568.85	83.66	1568.85	82.9802	1568.85	82.688	1568.85	82.0941	1568.85	81.8101	1568.85	80.662	1568.85	80.478	1568.85	78.1666	1568.85	78.1234	1568.85	74.8092	1568.85	74.7344	1568.85	74.19	1568.85	73.4691	1568.85	76.4936	1568.85	75.8355	1568.85	77.6616	1568.85	77.3939	1568.85	76.7691	1568.85	76.8615	1568.85	72.7253	1568.85	73.2743	1568.85	55.4834	1568.85	60.0141	1568.85	69.9143	1568.85	68.5269	1568.85	75.0603	1568.85	74.5434	1568.85	76.1435
1624.51	87.1639	1624.51	86.9269	1624.51	86.8785	1624.51	86.1805	1624.51	86.0806	1624.51	85.0014	1624.51	84.8455	1624.51	83.6206	1624.51	83.3974	1624.51	82.4101	1624.51	82.0947	1624.51	81.5009	1624.51	81.1001	1624.51	80.4359	1624.51	80.0452	1624.51	78.4935	1624.51	78.2938	1624.51	75.09	1624.51	75.4204	1624.51	71.9866	1624.51	72.8659	1624.51	74.2515	1624.51	74.332	1624.51	76.5418	1624.51	76.2889	1624.51	76.5514	1624.51	76.2579	1624.51	73.6084	1624.51	73.4598	1624.51	63.472	1624.51	64.6225	1624.51	65.9596	1624.51	63.7844	1624.51	72.7949	1624.51	71.9809	1624.51	74.027
1681.64	87.1795	1681.64	87.0384	1681.64	86.9008	1681.64	86.4589	1681.64	86.1888	1681.64	85.4328	1681.64	85.0385	1681.64	84.0592	1681.64	83.5592	1681.64	82.6191	1681.64	82.0633	1681.64	81.4211	1681.64	80.9102	1681.64	80.3738	1681.64	79.9763	1681.64	78.9309	1681.64	78.5673	1681.64	76.536	1681.64	75.9809	1681.64	73.7793	1681.64	72.8014	1681.64	74.1496	1681.64	73.5822	1681.64	76.1843	1681.64	76.107	1681.64	76.7896	1681.64	76.7904	1681.64	75.1831	1681.64	74.9918	1681.64	69.8129	1681.64	69.1583	1681.64	53.9651	1681.64	54.7243	1681.64	69.1147	1681.64	69.2175	1681.64	71.6491
1741.7	86.8202	1741.7	86.6546	1741.7	86.5028	1741.7	86.0298	1741.7	85.7503	1741.7	84.9926	1741.7	84.6588	1741.7	83.6184	1741.7	83.3185	1741.7	82.153	1741.7	81.8573	1741.7	81.0041	1741.7	80.5175	1741.7	80.1901	1741.7	79.3956	1741.7	79.0631	1741.7	78.0287	1741.7	76.9139	1741.7	75.6597	1741.7	73.9445	1741.7	72.3807	1741.7	73.4374	1741.7	72.4973	1741.7	75.4826	1741.7	75.1439	1741.7	76.3156	1741.7	76.1559	1741.7	74.8517	1741.7	74.9264	1741.7	69.8557	1741.7	70.2436	1741.7	61.6262	1741.7	57.0031	1741.7	69.9927	1741.7	69.2934	1741.7	72.2038
1803.22	86.4228	1803.22	86.1939	1803.22	86.2085	1803.22	85.5071	1803.22	85.5594	1803.22	84.388	1803.22	84.4632	1803.22	82.903	1803.22	82.9909	1803.22	81.2073	1803.22	81.3907	1803.22	79.6845	1803.22	80.0014	1803.22	78.7294	1803.22	78.9698	1803.22	77.9988	1803.22	77.9471	1803.22	76.5254	1803.22	76.1656	1803.22	73.6882	1803.22	73.0421	1803.22	71.9475	1803.22	71.0083	1803.22	74.2664	1803.22	73.2402	1803.22	75.6073	1803.22	74.8189	1803.22	74.2827	1803.22	74.1861	1803.22	69.1922	1803.22	70.4142	1803.22	63.6217	1803.22	63.0236	1803.22	70.8664	1803.22	69.831	1803.22	72.6861
1866.21	86.8961	1866.21	86.5988	1866.21	86.7203	1866.21	85.8785	1866.21	86.1209	1866.21	84.8432	1866.21	85.1375	1866.21	83.5243	1866.21	83.7633	1866.21	81.9216	1866.21	82.0806	1866.21	80.208	1866.21	80.3845	1866.21	78.7631	1866.21	78.9806	1866.21	77.7382	1866.21	77.7337	1866.21	76.5685	1866.21	76.174	1866.21	74.4454	1866.21	73.9905	1866.21	72.1578	1866.21	72.0886	1866.21	73.2129	1866.21	72.893	1866.21	74.8558	1866.21	74.4374	1866.21	74.1167	1866.21	74.0733	1866.21	69.7224	1866.21	70.2371	1866.21	64.1345	1866.21	63.9892	1866.21	70.6718	1866.21	70.7723	1866.21	72.9071
1932.13	87.0815	1932.13	86.858	1932.13	86.8578	1932.13	86.2193	1932.13	86.2222	1932.13	85.2412	1932.13	85.2197	1932.13	83.9751	1932.13	83.8856	1932.13	82.4926	1932.13	82.3082	1932.13	80.9666	1932.13	80.6831	1932.13	79.5792	1932.13	79.1441	1932.13	78.3692	1932.13	77.5616	1932.13	77.1427	1932.13	75.8025	1932.13	75.3952	1932.13	74.1225	1932.13	72.9758	1932.13	73.0616	1932.13	72.4193	1932.13	73.0931	1932.13	74.0556	1932.13	73.8319	1932.13	73.9181	1932.13	73.5848	1932.13	70.2612	1932.13	70.5243	1932.13	64.7591	1932.13	64.5963	1932.13	70.082	1932.13	69.9669	1932.13	72.2678
1999.51	86.4502	1999.51	86.3061	1999.51	86.2537	1999.51	85.8013	1999.51	85.7192	1999.51	84.9464	1999.51	84.7829	1999.51	83.7506	1999.51	83.4092	1999.51	82.3147	1999.51	81.6825	1999.51	80.9354	1999.51	79.8507	1999.51	79.7597	1999.51	78.1506	1999.51	78.6162	1999.51	76.448	1999.51	77.4312	1999.51	74.6444	1999.51	76.1698	1999.51	73.0638	1999.51	74.4645	1999.51	71.7503	1999.51	72.8338	1999.51	71.0705	1999.51	72.9418	1999.51	72.0201	1999.51	72.9131	1999.51	72.4285	1999.51	70.4558	1999.51	69.7918	1999.51	67.4558	1999.51	66.4021	1999.51	70.8959	1999.51	71.4596	1999.51	73.0846
2069.82	86.1783	2069.82	86.0644	2069.82	86.0067	2069.82	85.678	2069.82	85.5825	2069.82	85.0869	2069.82	84.8058	2069.82	84.1775	2069.82	83.6225	2069.82	82.7959	2069.82	82.1368	2069.82	81.1754	2069.82	80.4836	2069.82	79.8607	2069.82	78.8802	2069.82	78.7881	2069.82	77.584	2069.82	77.2462	2069.82	76.265	2069.82	75.5569	2069.82	74.6055	2069.82	75.435	2069.82	73.6845	2069.82	75.8776	2069.82	73.2162	2069.82	75.6035	2069.82	72.3476	2069.82	74.7322	2069.82	72.7515	2069.82	71.9375	2069.82	71.2134	2069.82	65.9725	2069.82	62.7942	2069.82	70.2213	2069.82	69.6535	2069.82	72.9648
2143.07	86.6204	2143.07	86.5888	2143.07	86.1534	2143.07	86.1329	2143.07	85.4059	2143.07	85.5212	2143.07	84.5677	2143.07	84.8023	2143.07	83.613	2143.07	83.7798	2143.07	82.446	2143.07	82.3932	2143.07	81.0538	2143.07	81.032	2143.07	79.6381	2143.07	79.9635	2143.07	78.5919	2143.07	78.3732	2143.07	77.5224	2143.07	75.8192	2143.07	75.6046	2143.07	74.7476	2143.07	73.744	2143.07	75.2855	2143.07	73.2685	2143.07	74.6977	2143.07	73.4514	2143.07	73.5297	2143.07	73.9764	2143.07	71.5022	2143.07	72.4218	2143.07	68.0776	2143.07	67.3203	2143.07	71.5256	2143.07	71.4628	2143.07	73.9365
2219.24	86.7289	2219.24	86.6833	2219.24	86.4248	2219.24	86.2711	2219.24	85.9772	2219.24	85.6947	2219.24	85.3401	2219.24	85.0043	2219.24	84.3888	2219.24	83.9858	2219.24	83.2806	2219.24	82.4843	2219.24	82.1016	2219.24	80.8116	2219.24	80.6166	2219.24	79.418	2219.24	78.7487	2219.24	78.0103	2219.24	76.6195	2219.24	76.1639	2219.24	74.5033	2219.24	74.8889	2219.24	73.1896	2219.24	75.0051	2219.24	72.7534	2219.24	74.9499	2219.24	72.7605	2219.24	73.8595	2219.24	72.813	2219.24	70.9033	2219.24	70.1846	2219.24	67.0202	2219.24	63.0776	2219.24	71.3461	2219.24	70.5844	2219.24	73.4241
2296.88	86.3123	2296.88	86.1319	2296.88	86.2291	2296.88	85.7135	2296.88	85.9451	2296.88	85.1442	2296.88	85.4478	2296.88	84.3868	2296.88	84.6755	2296.88	83.2974	2296.88	83.5863	2296.88	81.8486	2296.88	82.1351	2296.88	80.3319	2296.88	80.4503	2296.88	78.958	2296.88	78.8405	2296.88	77.391	2296.88	77.1562	2296.88	75.4551	2296.88	75.0141	2296.88	73.8271	2296.88	73.374	2296.88	73.331	2296.88	72.7198	2296.88	73.4866	2296.88	71.9107	2296.88	73.4114	2296.88	72.2548	2296.88	71.738	2296.88	71.5643	2296.88	67.823	2296.88	66.5711	2296.88	70.4739	2296.88	68.4403	2296.88	72.1148
2378.91	86.6848	2378.91	86.5079	2378.91	86.6573	2378.91	86.22	2378.91	86.3245	2378.91	85.6614	2378.91	85.838	2378.91	84.8788	2378.91	85.2346	2378.91	83.9495	2378.91	84.2622	2378.91	82.4779	2378.91	82.7621	2378.91	80.4566	2378.91	81.0353	2378.91	78.7559	2378.91	79.3689	2378.91	77.0507	2378.91	77.3584	2378.91	74.3657	2378.91	74.7271	2378.91	72.6916	2378.91	72.9065	2378.91	72.4078	2378.91	72.7435	2378.91	71.6898	2378.91	71.712	2378.91	71.8978	2378.91	70.8195	2378.91	70.7757	2378.91	70.6032	2378.91	66.7696	2378.91	67.4491	2378.91	70.474	2378.91	70.2518	2378.91	72.9572
2462.4	86.297	2462.4	86.1781	2462.4	86.2446	2462.4	86.0089	2462.4	85.8608	2462.4	85.6355	2462.4	85.2004	2462.4	85.0399	2462.4	84.4128	2462.4	84.2787	2462.4	83.5225	2462.4	82.9671	2462.4	82.2292	2462.4	81.1016	2462.4	80.3203	2462.4	79.7528	2462.4	78.4957	2462.4	78.4668	2462.4	77.1961	2462.4	75.6289	2462.4	74.7413	2462.4	72.9616	2462.4	71.4571	2462.4	72.6944	2462.4	72.3029	2462.4	71.7695	2462.4	72.1273	2462.4	70.7687	2462.4	70.8341	2462.4	69.9061	2462.4	69.9063	2462.4	67.4197	2462.4	66.1971	2462.4	70.6624	2462.4	71.3029	2462.4	73.6066
2548.83	85.3042	2548.83	85.3427	2548.83	85.2428	2548.83	85.3283	2548.83	85.0658	2548.83	85.0751	2548.83	84.6654	2548.83	84.4923	2548.83	84.0341	2548.83	83.7273	2548.83	83.2246	2548.83	82.6658	2548.83	81.9915	2548.83	80.9253	2548.83	80.0004	2548.83	79.0609	2548.83	77.7896	2548.83	77.994	2548.83	76.5018	2548.83	76.2928	2548.83	74.8475	2548.83	73.0443	2548.83	71.2318	2548.83	72.2499	2548.83	70.0779	2548.83	72.7926	2548.83	71.3528	2548.83	71.0537	2548.83	70.8615	2548.83	68.7763	2548.83	69.1615	2548.83	66.2711	2548.83	64.2872	2548.83	71.4074	2548.83	70.2943	2548.83	73.849
2639.65	85.0891	2639.65	85.1456	2639.65	85.1502	2639.65	85.3781	2639.65	85.224	2639.65	85.3976	2639.65	85.173	2639.65	84.8143	2639.65	84.6849	2639.65	83.8261	2639.65	83.6776	2639.65	82.624	2639.65	82.3773	2639.65	80.8424	2639.65	80.6299	2639.65	78.646	2639.65	78.2276	2639.65	77.0897	2639.65	76.3466	2639.65	75.3102	2639.65	74.7222	2639.65	72.0936	2639.65	71.211	2639.65	70.9053	2639.65	69.7201	2639.65	72.0568	2639.65	70.9201	2639.65	71.6801	2639.65	70.9244	2639.65	69.2925	2639.65	69.8291	2639.65	63.9209	2639.65	62.6074	2639.65	69.8111	2639.65	69.7599	2639.65	72.9939
2731.93	84.913	2731.93	85.2018	2731.93	84.8844	2731.93	85.471	2731.93	85.0112	2731.93	85.4933	2731.93	85.0325	2731.93	85.1036	2731.93	84.6167	2731.93	84.1421	2731.93	83.5591	2731.93	82.8146	2731.93	82.1596	2731.93	81.1759	2731.93	80.5615	2731.93	78.8906	2731.93	78.4506	2731.93	76.9398	2731.93	76.3959	2731.93	75.9961	2731.93	75.0232	2731.93	73.8564	2731.93	72.8655	2731.93	70.7084	2731.93	69.861	2731.93	71.0869	2731.93	70.3015	2731.93	72.1725	2731.93	71.6828	2731.93	70.3924	2731.93	70.4207	2731.93	61.8842	2731.93	61.5801	2731.93	69.8344	2731.93	68.7199	2731.93	73.0626
2828.61	84.1081	2828.61	84.5233	2828.61	84.2336	2828.61	85.0852	2828.61	84.4842	2828.61	85.198	2828.61	84.4834	2828.61	84.8533	2828.61	84.1133	2828.61	84.0089	2828.61	83.2444	2828.61	82.5429	2828.61	81.7692	2828.61	80.7772	2828.61	79.8899	2828.61	78.865	2828.61	77.8518	2828.61	76.7164	2828.61	75.7	2828.61	74.9539	2828.61	73.8584	2828.61	73.2716	2828.61	72.215	2828.61	71.4676	2828.61	69.9211	2828.61	70.4485	2828.61	68.2475	2828.61	71.7839	2828.61	70.8886	2828.61	72.0155	2828.61	71.6056	2828.61	65.0876	2828.61	63.9914	2828.61	66.8296	2828.61	67.126	2828.61	71.4903
2928.22	83.7451	2928.22	84.2659	2928.22	83.8241	2928.22	84.9482	2928.22	84.2496	2928.22	85.1375	2928.22	84.4051	2928.22	84.5215	2928.22	83.9315	2928.22	83.4894	2928.22	82.884	2928.22	82.1934	2928.22	81.4288	2928.22	80.2236	2928.22	79.3884	2928.22	78.1633	2928.22	77.0279	2928.22	76.5633	2928.22	75.2342	2928.22	74.4427	2928.22	73.2051	2928.22	72.3424	2928.22	70.8246	2928.22	71.5266	2928.22	69.71	2928.22	69.3483	2928.22	67.352	2928.22	69.9347	2928.22	68.9672	2928.22	71.8987	2928.22	71.8121	2928.22	66.1002	2928.22	66.6023	2928.22	66.9092	2928.22	65.5968	2928.22	71.5667
3030.76	84.1107	3030.76	84.5909	3030.76	84.1796	3030.76	85.2971	3030.76	84.5692	3030.76	85.755	3030.76	84.8332	3030.76	85.3497	3030.76	84.3383	3030.76	84.0253	3030.76	83.0481	3030.76	82.5589	3030.76	81.665	3030.76	80.7113	3030.76	79.9419	3030.76	77.9351	3030.76	77.2849	3030.76	76.0308	3030.76	75.0192	3030.76	75.0947	3030.76	73.5543	3030.76	71.7738	3030.76	69.9964	3030.76	70.0707	3030.76	69.1057	3030.76	70.1253	3030.76	68.959	3030.76	66.71	3030.76	65.4601	3030.76	70.9719	3030.76	71.1227	3030.76	68.5816	3030.76	68.3537	3030.76	64.4918	3030.76	65.9299	3030.76	70.7654
3137.7	83.7958	3137.7	84.2643	3137.7	83.8053	3137.7	84.9256	3137.7	84.0873	3137.7	85.2449	3137.7	84.2842	3137.7	84.9703	3137.7	83.9098	3137.7	83.864	3137.7	82.6708	3137.7	82.1927	3137.7	80.8226	3137.7	80.5587	3137.7	79.0375	3137.7	78.5548	3137.7	76.8486	3137.7	76.1412	3137.7	74.244	3137.7	75.1003	3137.7	73.394	3137.7	73.2155	3137.7	71.3639	3137.7	69.6503	3137.7	67.3535	3137.7	70.7656	3137.7	68.6364	3137.7	68.1735	3137.7	66.4713	3137.7	70.361	3137.7	68.6833	3137.7	68.6692	3137.7	67.2262	3137.7	67.1629	3137.7	64.526	3137.7	70.8921
3249.02	84.2076	3249.02	84.5904	3249.02	84.3466	3249.02	85.046	3249.02	84.6357	3249.02	85.1626	3249.02	84.7148	3249.02	84.7991	3249.02	84.184	3249.02	83.5039	3249.02	82.7928	3249.02	81.48	3249.02	80.7698	3249.02	79.6042	3249.02	78.7614	3249.02	77.5974	3249.02	76.7734	3249.02	74.7707	3249.02	73.9642	3249.02	73.5145	3249.02	72.2448	3249.02	72.246	3249.02	70.7823	3249.02	68.7245	3249.02	66.136	3249.02	70.014	3249.02	68.1261	3249.02	67.9184	3249.02	65.7958	3249.02	69.543	3249.02	68.8534	3249.02	67.2282	3249.02	67.965	3249.02	66.3387	3249.02	65.5927	3249.02	70.4202
3363.28	84.5701	3363.28	84.9287	3363.28	84.4398	3363.28	85.2524	3363.28	84.4996	3363.28	85.264	3363.28	84.3633	3363.28	84.7782	3363.28	83.7037	3363.28	83.6732	3363.28	82.3701	3363.28	82.079	3363.28	80.1529	3363.28	80.3288	3363.28	77.9522	3363.28	78.6043	3363.28	76.2518	3363.28	76.1068	3363.28	73.4642	3363.28	74.0577	3363.28	71.8424	3363.28	72.853	3363.28	70.9057	3363.28	68.4705	3363.28	65.5113	3363.28	69.4383	3363.28	67.708	3363.28	68.0783	3363.28	65.759	3363.28	68.6229	3363.28	67.654	3363.28	67.7176	3363.28	67.6503	3363.28	66.1374	3363.28	65.4559	3363.28	71.3235
3481.93	85.0778	3481.93	85.1321	3481.93	85.1972	3481.93	85.2699	3481.93	85.1658	3481.93	85.0468	3481.93	84.8762	3481.93	84.3071	3481.93	83.971	3481.93	83.0629	3481.93	82.5374	3481.93	81.3921	3481.93	80.5184	3481.93	79.4152	3481.93	78.1933	3481.93	77.597	3481.93	76.4938	3481.93	75.2907	3481.93	74.1786	3481.93	73.2927	3481.93	72.0533	3481.93	73.4035	3481.93	71.7023	3481.93	68.9122	3481.93	67.4166	3481.93	68.8272	3481.93	66.6598	3481.93	68.3765	3481.93	68.1003	3481.93	67.2915	3481.93	66.0421	3481.93	67.6131	3481.93	68.0651	3481.93	66.5145	3481.93	63.7581	3481.93	71.2934
3604.98	85.2736	3604.98	85.3833	3604.98	85.0968	3604.98	85.3852	3604.98	84.9022	3604.98	85.1081	3604.98	84.4695	3604.98	84.3964	3604.98	83.4343	3604.98	83.3722	3604.98	81.931	3604.98	81.7412	3604.98	80.1321	3604.98	79.8385	3604.98	78.1551	3604.98	78.0252	3604.98	76.0348	3604.98	76.0067	3604.98	73.8527	3604.98	73.3561	3604.98	70.6536	3604.98	72.1474	3604.98	69.9326	3604.98	69.6709	3604.98	67.9854	3604.98	67.8627	3604.98	65.0921	3604.98	69.3009	3604.98	67.6359	3604.98	67.2534	3604.98	65.674	3604.98	68.1861	3604.98	67.2947	3604.98	66.5059	3604.98	63.727	3604.98	70.3891
3732.42	86.2779	3732.42	86.052	3732.42	86.2233	3732.42	85.744	3732.42	85.8487	3732.42	85.1025	3732.42	85.1981	3732.42	84.0206	3732.42	84.0992	3732.42	82.9278	3732.42	82.678	3732.42	81.481	3732.42	80.9976	3732.42	79.5183	3732.42	79.2462	3732.42	77.5464	3732.42	77.3975	3732.42	75.6676	3732.42	75.6237	3732.42	73.6517	3732.42	73.582	3732.42	72.2884	3732.42	71.648	3732.42	69.8919	3732.42	69.5904	3732.42	67.3822	3732.42	65.7137	3732.42	69.3839	3732.42	69.1733	3732.42	68.2718	3732.42	66.5479	3732.42	68.4186	3732.42	69.3765	3732.42	65.1064	3732.42	65.8626	3732.42	71.4844
3864.26	85.856	3864.26	85.5699	3864.26	85.6283	3864.26	85.2628	3864.26	85.0647	3864.26	84.8489	3864.26	84.3788	3864.26	83.9172	3864.26	83.1651	3864.26	82.973	3864.26	81.9886	3864.26	81.7675	3864.26	80.7635	3864.26	80.1082	3864.26	79.2922	3864.26	78.3103	3864.26	77.4943	3864.26	76.3044	3864.26	75.1895	3864.26	73.9808	3864.26	72.3807	3864.26	71.4161	3864.26	70.9998	3864.26	70.6541	3864.26	70.5117	3864.26	66.1248	3864.26	61.3098	3864.26	69.3239	3864.26	68.4671	3864.26	66.3627	3864.26	65.3629	3864.26	68.8893	3864.26	68.2118	3864.26	65.9882	3864.26	63.6376	3864.26	71.0939
4000.49	86.6622	4000.49	86.0943	4000.49	86.3058	4000.49	85.1402	4000.49	85.3732	4000.49	84.3303	4000.49	84.4823	4000.49	83.3825	4000.49	83.384	4000.49	82.3296	4000.49	82.2803	4000.49	81.3056	4000.49	80.9806	4000.49	79.7599	4000.49	79.3788	4000.49	78.1595	4000.49	77.7035	4000.49	76.1035	4000.49	75.9042	4000.49	74.5488	4000.49	73.8606	4000.49	72.2359	4000.49	70.8994	4000.49	71.511	4000.49	70.5829	4000.49	65.9241	4000.49	66.2615	4000.49	69.5994	4000.49	68.4786	4000.49	66.2406	4000.49	65.4485	4000.49	68.595	4000.49	69.3421	4000.49	65.2121	4000.49	64.7799	4000.49	71.4766
4141.11	87.117	4141.11	86.4466	4141.11	86.4943	4141.11	85.2438	4141.11	85.1127	4141.11	84.3397	4141.11	84.0539	4141.11	83.7426	4141.11	83.1859	4141.11	82.9793	4141.11	82.3787	4141.11	82.1068	4141.11	81.5328	4141.11	80.442	4141.11	80.2098	4141.11	78.6467	4141.11	77.9361	4141.11	76.1156	4141.11	75.8356	4141.11	74.3056	4141.11	73.9223	4141.11	70.8865	4141.11	71.041	4141.11	71.0477	4141.11	70.6301	4141.11	65.1751	4141.11	63.7044	4141.11	69.4606	4141.11	70.6749	4141.11	67.636	4141.11	65.6405	4141.11	68.3309	4141.11	68.5567	4141.11	67.2701	4141.11	64.4151	4141.11	71.9173
4287.6	87.4371	4287.6	86.6721	4287.6	86.9352	4287.6	85.0617	4287.6	85.3848	4287.6	83.6855	4287.6	83.8589	4287.6	83.303	4287.6	83.2138	4287.6	82.8041	4287.6	82.8459	4287.6	82.1231	4287.6	81.8308	4287.6	80.483	4287.6	80.2551	4287.6	78.3781	4287.6	78.9899	4287.6	76.825	4287.6	76.6346	4287.6	74.2893	4287.6	73.9628	4287.6	72.4512	4287.6	71.3547	4287.6	70.781	4287.6	70.4072	4287.6	67.8835	4287.6	68.4256	4287.6	68.0414	4287.6	65.2617	4287.6	66.2126	4287.6	68.3768	4287.6	68.163	4287.6	67.9102	4287.6	64.395	4287.6	63.358	4287.6	72.1156
4438.48	87.796	4438.48	86.8904	4438.48	87.0899	4438.48	85.3854	4438.48	85.4094	4438.48	84.0952	4438.48	83.9157	4438.48	83.9588	4438.48	83.2529	4438.48	83.7293	4438.48	82.7883	4438.48	82.8949	4438.48	82.2141	4438.48	81.5567	4438.48	80.7984	4438.48	79.3657	4438.48	78.2822	4438.48	77.2049	4438.48	76.3939	4438.48	74.1046	4438.48	73.9611	4438.48	71.4892	4438.48	71.9476	4438.48	70.7248	4438.48	68.5182	4438.48	68.1839	4438.48	66.9754	4438.48	66.2164	4438.48	68.0528	4438.48	66.7812	4438.48	68.2591	4438.48	65.694	4438.48	68.3984	4438.48	61.2061	4438.48	64.3912	4438.48	71.6654
4595.21	87.791	4595.21	86.8841	4595.21	86.9674	4595.21	85.1198	4595.21	85.1408	4595.21	84.0163	4595.21	83.6277	4595.21	83.9479	4595.21	83.2748	4595.21	84.0013	4595.21	83.3193	4595.21	82.7362	4595.21	82.2502	4595.21	80.8521	4595.21	80.763	4595.21	78.4343	4595.21	78.5904	4595.21	76.3683	4595.21	75.8695	4595.21	73.588	4595.21	73.3263	4595.21	72.1837	4595.21	71.6382	4595.21	69.3177	4595.21	70.2686	4595.21	68.632	4595.21	69.1916	4595.21	66.3206	4595.21	65.6734	4595.21	68.0766	4595.21	68.0782	4595.21	68.1433	4595.21	68.1333	4595.21	62.1437	4595.21	57.8112	4595.21	71.5113
4756.35	87.8244	4756.35	86.8539	4756.35	87.139	4756.35	85.2723	4756.35	85.2779	4756.35	84.629	4756.35	84.272	4756.35	84.6974	4756.35	83.885	4756.35	84.4993	4756.35	83.586	4756.35	83.2419	4756.35	82.6421	4756.35	81.4045	4756.35	80.9004	4756.35	78.7616	4756.35	78.2963	4756.35	76.7813	4756.35	75.6996	4756.35	73.9233	4756.35	73.4187	4756.35	71.3799	4756.35	71.0044	4756.35	69.4528	4756.35	68.7585	4756.35	67.7448	4756.35	68.8553	4756.35	64.788	4756.35	64.2686	4756.35	65.1225	4756.35	68.4605	4756.35	66.5611	4756.35	66.65	4756.35	61.2709	4756.35	61.7123	4756.35	71.4352
4924.8	87.686	4924.8	86.8541	4924.8	86.998	4924.8	85.4742	4924.8	85.1956	4924.8	84.903	4924.8	84.1129	4924.8	84.8646	4924.8	84.0447	4924.8	84.3753	4924.8	83.8351	4924.8	83.2276	4924.8	82.6874	4924.8	80.8732	4924.8	80.6387	4924.8	78.2239	4924.8	78.008	4924.8	75.345	4924.8	75.1182	4924.8	72.9652	4924.8	72.8833	4924.8	70.1181	4924.8	70.332	4924.8	70.3435	4924.8	68.7997	4924.8	67.9719	4924.8	68.2221	4924.8	65.2421	4924.8	65.9217	4924.8	68.4835	4924.8	66.7506	4924.8	63.263	4924.8	65.7735	4924.8	57.5911	4924.8	63.2171	4924.8	70.0248
5097.66	87.6363	5097.66	87.0025	5097.66	86.9752	5097.66	85.7282	5097.66	85.5482	5097.66	85.1855	5097.66	84.666	5097.66	85.1569	5097.66	84.7009	5097.66	84.4731	5097.66	84.1562	5097.66	83.0213	5097.66	82.923	5097.66	80.7136	5097.66	80.6855	5097.66	78.4122	5097.66	78.2749	5097.66	76.0313	5097.66	75.4192	5097.66	74.1952	5097.66	73.1848	5097.66	70.9076	5097.66	69.6541	5097.66	70.292	5097.66	68.4562	5097.66	67.3765	5097.66	66.2563	5097.66	63.5254	5097.66	63.7315	5097.66	64.4247	5097.66	65.7119	5097.66	64.6025	5097.66	64.3744	5097.66	60.99	5097.66	44.8541	5097.66	71.0861
5277.83	87.2355	5277.83	86.6273	5277.83	86.6163	5277.83	85.8276	5277.83	85.5396	5277.83	85.4231	5277.83	84.6425	5277.83	85.1584	5277.83	84.7377	5277.83	84.319	5277.83	84.0129	5277.83	82.8057	5277.83	82.2885	5277.83	80.615	5277.83	79.8878	5277.83	78.5391	5277.83	77.4139	5277.83	75.4099	5277.83	74.4365	5277.83	73.0193	5277.83	71.9939	5277.83	69.9653	5277.83	68.8882	5277.83	68.8302	5277.83	68.4914	5277.83	66.6573	5277.83	64.6946	5277.83	64.1808	5277.83	64.644	5277.83	65.5769	5277.83	65.175	5277.83	62.4965	5277.83	62.5243	5277.83	54.9083	5277.83	60.2375	5277.83	66.9903
5463.87	87.3675	5463.87	87.0495	5463.87	86.7498	5463.87	86.4045	5463.87	85.8101	5463.87	86.0055	5463.87	84.9963	5463.87	85.2671	5463.87	84.5946	5463.87	84.3699	5463.87	83.7306	5463.87	82.6113	5463.87	81.7215	5463.87	80.5897	5463.87	79.4728	5463.87	78.0075	5463.87	77.107	5463.87	75.1701	5463.87	74.1975	5463.87	72.387	5463.87	72.0232	5463.87	70.0189	5463.87	68.7895	5463.87	69.2226	5463.87	66.2882	5463.87	67.7341	5463.87	64.7284	5463.87	64.158	5463.87	60.9312	5463.87	67.707	5463.87	66.4539	5463.87	60.7963	5463.87	58.7812	5463.87	63.2191	5463.87	54.3462	5463.87	66.4712
5657.23	86.8625	5657.23	86.7455	5657.23	86.4563	5657.23	86.4165	5657.23	85.7235	5657.23	85.6016	5657.23	84.9314	5657.23	84.9782	5657.23	84.2196	5657.23	83.8533	5657.23	83.2641	5657.23	81.9881	5657.23	80.9459	5657.23	79.2356	5657.23	78.3108	5657.23	77.296	5657.23	75.868	5657.23	75.1995	5657.23	73.1101	5657.23	73.0363	5657.23	71.1423	5657.23	70.8816	5657.23	68.2055	5657.23	68.5757	5657.23	65.8871	5657.23	65.2106	5657.23	65.7849	5657.23	64.6	5657.23	58.9503	5657.23	67.8897	5657.23	65.3422	5657.23	58.745	5657.23	54.7707	5657.23	59.34	5657.23	61.5546	5657.23	66.5959
5856.45	86.4392	5856.45	86.6309	5856.45	86.1741	5856.45	86.2086	5856.45	85.7586	5856.45	85.7537	5856.45	84.8633	5856.45	84.7633	5856.45	83.6888	5856.45	83.7189	5856.45	82.3785	5856.45	82.239	5856.45	80.2257	5856.45	80.3895	5856.45	78.154	5856.45	78.0702	5856.45	75.524	5856.45	75.7899	5856.45	73.0208	5856.45	73.0761	5856.45	71.1016	5856.45	71.4035	5856.45	68.4308	5856.45	68.0816	5856.45	64.7476	5856.45	64.8867	5856.45	65.2503	5856.45	64.7525	5856.45	60.9683	5856.45	67.6211	5856.45	64.0169	5856.45	57.1221	5856.45	50.2283	5856.45	59.1739	5856.45	57.4471	5856.45	66.2898
6062.99	86.2439	6062.99	86.4987	6062.99	86.1406	6062.99	86.5594	6062.99	85.8135	6062.99	85.503	6062.99	84.7985	6062.99	84.6824	6062.99	83.4691	6062.99	83.7341	6062.99	81.9116	6062.99	82.261	6062.99	80.0799	6062.99	80.2915	6062.99	77.7436	6062.99	77.9987	6062.99	75.2675	6062.99	75.702	6062.99	72.9901	6062.99	72.5787	6062.99	70.0865	6062.99	70.6483	6062.99	68.4536	6062.99	68.3284	6062.99	64.9562	6062.99	66.2627	6062.99	64.6693	6062.99	64.1541	6062.99	63.184	6062.99	66.1775	6062.99	64.8587	6062.99	54.2697	6062.99	50.6606	6062.99	57.1219	6062.99	57.3674	6062.99	66.401
6276.86	85.8648	6276.86	86.6053	6276.86	85.8414	6276.86	86.504	6276.86	86.0238	6276.86	85.6615	6276.86	84.7876	6276.86	84.3496	6276.86	83.1559	6276.86	83.505	6276.86	81.3928	6276.86	82.3039	6276.86	79.9734	6276.86	80.7939	6276.86	78.3728	6276.86	78.4805	6276.86	75.7598	6276.86	75.706	6276.86	72.7819	6276.86	73.2743	6276.86	70.4406	6276.86	71.2732	6276.86	67.9956	6276.86	69.1759	6276.86	64.8462	6276.86	67.4046	6276.86	63.225	6276.86	63.3151	6276.86	64.5786	6276.86	66.9206	6276.86	64.943	6276.86	58.4942	6276.86	56.1762	6276.86	57.3823	6276.86	56.1562	6276.86	65.8937
6498.05	85.7855	6498.05	86.6563	6498.05	86.061	6498.05	86.73	6498.05	86.2099	6498.05	85.3495	6498.05	84.8069	6498.05	84.0696	6498.05	83.1014	6498.05	83.5482	6498.05	81.9289	6498.05	82.6422	6498.05	80.1763	6498.05	80.9284	6498.05	78.0284	6498.05	78.4832	6498.05	75.7546	6498.05	76.0441	6498.05	73.4166	6498.05	72.8851	6498.05	70.0918	6498.05	70.8921	6498.05	69.2632	6498.05	68.3255	6498.05	66.2454	6498.05	67.9199	6498.05	62.5655	6498.05	63.5855	6498.05	62.2171	6498.05	67.4469	6498.05	65.0629	6498.05	60.4253	6498.05	58.6376	6498.05	58.3133	6498.05	57.3273	6498.05	65.3117
6726.56	85.212	6726.56	86.4325	6726.56	85.8266	6726.56	86.622	6726.56	86.0845	6726.56	85.0849	6726.56	84.291	6726.56	84.0651	6726.56	82.5588	6726.56	83.5495	6726.56	81.6115	6726.56	82.5389	6726.56	80.3557	6726.56	80.6034	6726.56	78.3613	6726.56	78.4175	6726.56	75.8821	6726.56	75.5639	6726.56	72.8526	6726.56	72.4295	6726.56	70.0865	6726.56	70.1064	6726.56	68.2246	6726.56	67.232	6726.56	64.9743	6726.56	66.6714	6726.56	62.0694	6726.56	64.4851	6726.56	60.3292	6726.56	66.6397	6726.56	62.7845	6726.56	62.3575	6726.56	59.2594	6726.56	56.5499	6726.56	58.7008	6726.56	65.4548
6963.87	85.0069	6963.87	86.062	6963.87	85.4413	6963.87	86.0736	6963.87	85.577	6963.87	84.7707	6963.87	83.5477	6963.87	83.716	6963.87	82.3472	6963.87	83.5848	6963.87	81.5788	6963.87	82.3222	6963.87	80.1443	6963.87	80.4284	6963.87	78.1389	6963.87	78.079	6963.87	75.3865	6963.87	75.1807	6963.87	72.7343	6963.87	71.834	6963.87	70.3238	6963.87	69.7015	6963.87	67.3313	6963.87	67.2619	6963.87	64.7391	6963.87	66.6771	6963.87	64.5551	6963.87	65.0062	6963.87	61.9488	6963.87	65.3905	6963.87	63.2176	6963.87	62.8052	6963.87	61.9634	6963.87	54.5591	6963.87	57.8768	6963.87	63.6006
7209.96	84.8208	7209.96	86.052	7209.96	85.2409	7209.96	86.062	7209.96	85.4888	7209.96	84.8412	7209.96	83.5409	7209.96	84.0141	7209.96	82.268	7209.96	83.729	7209.96	81.6381	7209.96	82.5608	7209.96	80.393	7209.96	80.6216	7209.96	78.7442	7209.96	78.2931	7209.96	75.6991	7209.96	75.2188	7209.96	72.9965	7209.96	72.374	7209.96	70.4487	7209.96	69.1804	7209.96	66.3403	7209.96	66.9441	7209.96	64.6969	7209.96	65.5812	7209.96	64.908	7209.96	64.8636	7209.96	62.0355	7209.96	65.2894	7209.96	62.6217	7209.96	63.153	7209.96	61.738	7209.96	56.3091	7209.96	56.9925	7209.96	62.9201
7464.84	84.8106	7464.84	86.1384	7464.84	85.3878	7464.84	86.4924	7464.84	85.6818	7464.84	85.0852	7464.84	83.6824	7464.84	84.147	7464.84	82.1625	7464.84	83.5556	7464.84	81.548	7464.84	82.8227	7464.84	80.6158	7464.84	80.7393	7464.84	79.1049	7464.84	78.436	7464.84	75.761	7464.84	75.0125	7464.84	73.0544	7464.84	72.0211	7464.84	70.8241	7464.84	68.6517	7464.84	67.0177	7464.84	66.8253	7464.84	63.8251	7464.84	65.8562	7464.84	63.8489	7464.84	65.2018	7464.84	62.708	7464.84	66.081	7464.84	62.716	7464.84	63.1296	7464.84	61.8175	7464.84	53.6575	7464.84	54.908	7464.84	64.1841
7727.05	85.1921	7727.05	86.215	7727.05	85.7133	7727.05	86.6151	7727.05	85.5104	7727.05	85.0283	7727.05	83.5136	7727.05	83.764	7727.05	81.6409	7727.05	83.3622	7727.05	81.2978	7727.05	82.7694	7727.05	80.5434	7727.05	80.6379	7727.05	78.5018	7727.05	78.4012	7727.05	75.4633	7727.05	74.6263	7727.05	73.1626	7727.05	71.5577	7727.05	70.3453	7727.05	69.0124	7727.05	66.5678	7727.05	67.0935	7727.05	64.1452	7727.05	66.2776	7727.05	62.2088	7727.05	64.9911	7727.05	61.6266	7727.05	66.0332	7727.05	63.9244	7727.05	64.268	7727.05	62.4958	7727.05	51.6063	7727.05	52.6519	7727.05	63.7492
7999.51	85.2831	7999.51	85.8523	7999.51	85.7113	7999.51	86.3498	7999.51	85.1737	7999.51	84.9054	7999.51	83.1723	7999.51	83.4935	7999.51	81.1785	7999.51	83.3498	7999.51	80.9551	7999.51	82.6874	7999.51	80.4077	7999.51	80.4375	7999.51	78.5246	7999.51	77.9257	7999.51	75.0862	7999.51	73.8964	7999.51	72.6588	7999.51	70.8688	7999.51	69.4779	7999.51	68.2794	7999.51	65.0747	7999.51	66.7587	7999.51	63.7347	7999.51	65.0802	7999.51	60.6553	7999.51	64.9273	7999.51	60.9298	7999.51	66.4633	7999.51	64.03	7999.51	63.768	7999.51	60.7308	7999.51	50.3943	7999.51	53.5747	7999.51	63.7501
8282.23	86.1555	8282.23	85.8362	8282.23	85.6439	8282.23	85.9609	8282.23	84.5457	8282.23	85.2267	8282.23	83.1723	8282.23	83.563	8282.23	81.4478	8282.23	83.0966	8282.23	80.4218	8282.23	82.5149	8282.23	79.7174	8282.23	80.2439	8282.23	77.7114	8282.23	76.7366	8282.23	73.6686	8282.23	73.5989	8282.23	70.7836	8282.23	69.8405	8282.23	67.4469	8282.23	68.0129	8282.23	63.7122	8282.23	66.1105	8282.23	62.3187	8282.23	63.5788	8282.23	60.2842	8282.23	62.9477	8282.23	59.9961	8282.23	65.9747	8282.23	62.8692	8282.23	62.9939	8282.23	59.6409	8282.23	49.1501	8282.23	49.31	8282.23	63.4265
8573.73	86.9191	8573.73	85.9657	8573.73	85.5847	8573.73	85.7145	8573.73	84.0688	8573.73	85.3966	8573.73	83.4194	8573.73	83.4653	8573.73	81.343	8573.73	82.5228	8573.73	79.8479	8573.73	81.8635	8573.73	78.8698	8573.73	79.4795	8573.73	76.3074	8573.73	76.16	8573.73	72.2469	8573.73	73.0339	8573.73	68.8197	8573.73	68.5134	8573.73	64.5416	8573.73	66.9103	8573.73	62.057	8573.73	64.4472	8573.73	60.2977	8573.73	61.9273	8573.73	57.8541	8573.73	61.9501	8573.73	59.5953	8573.73	66.2961	8573.73	63.0509	8573.73	60.9387	8573.73	57.8432	8573.73	40.2729	8573.73	48.6427	8573.73	62.9343
8876.95	87.1194	8876.95	86.0246	8876.95	85.7914	8876.95	85.7233	8876.95	84.0821	8876.95	85.4273	8876.95	83.627	8876.95	83.4394	8876.95	81.1922	8876.95	81.9272	8876.95	79.2253	8876.95	80.9424	8876.95	78.0956	8876.95	78.357	8876.95	75.3664	8876.95	75.6078	8876.95	72.0091	8876.95	72.2561	8876.95	68.8909	8876.95	67.5736	8876.95	63.9085	8876.95	65.3453	8876.95	61.6645	8876.95	62.8277	8876.95	57.216	8876.95	60.0405	8876.95	55.3141	8876.95	61.386	8876.95	59.8577	8876.95	65.0639	8876.95	61.7947	8876.95	59.6205	8876.95	54.2104	8876.95	39.1476	8876.95	41.1673	8876.95	60.7357
9188.96	87.3619	9188.96	86.4746	9188.96	86.0922	9188.96	85.7691	9188.96	84.5423	9188.96	85.5093	9188.96	83.5572	9188.96	83.451	9188.96	81.2889	9188.96	81.4601	9188.96	78.5018	9188.96	79.9453	9188.96	76.9067	9188.96	77.0741	9188.96	73.9737	9188.96	73.4788	9188.96	69.2781	9188.96	70.196	9188.96	66.0752	9188.96	66.8731	9188.96	61.0955	9188.96	64.3473	9188.96	59.141	9188.96	62.01	9188.96	53.6083	9188.96	58.4274	9188.96	51.1775	9188.96	59.331	9188.96	57.774	9188.96	63.8582	9188.96	58.744	9188.96	56.7805	9188.96	51.1131	9188.96	32.2535	9188.96	6.45892	9188.96	57.7982
9514.16	87.8523	9514.16	87.042	9514.16	86.4801	9514.16	85.7854	9514.16	85.1833	9514.16	85.3316	9514.16	83.8682	9514.16	83.0646	9514.16	81.4532	9514.16	81.0765	9514.16	78.6284	9514.16	79.398	9514.16	75.3808	9514.16	77.0893	9514.16	71.4065	9514.16	72.751	9514.16	66.76	9514.16	70.397	9514.16	62.4808	9514.16	65.7562	9514.16	58.6643	9514.16	64.2313	9514.16	55.7929	9514.16	60.8904	9514.16	52.6242	9514.16	55.2943	9514.16	47.1942	9514.16	60.2108	9514.16	56.6821	9514.16	62.8663	9514.16	55.2488	9514.16	54.9628	9514.16	50.8237	9514.16	39.3941	9514.16	42.7844	9514.16	55.5605
9849.61	88.0859	9849.61	87.443	9849.61	87.0854	9849.61	86.2621	9849.61	85.7013	9849.61	85.3495	9849.61	84.2938	9849.61	82.9418	9849.61	81.7704	9849.61	80.4351	9849.61	78.7024	9849.61	78.864	9849.61	75.2621	9849.61	76.3903	9849.61	70.5857	9849.61	73.4194	9849.61	69.1897	9849.61	70.1517	9849.61	66.47	9849.61	64.6277	9849.61	62.2096	9849.61	62.4845	9849.61	56.6432	9849.61	58.8153	9849.61	54.8334	9849.61	56.1988	9849.61	49.652	9849.61	59.1985	9849.61	58.1383	9849.61	61.5619	9849.61	51.4777	9849.61	53.6008	9849.61	51.5133	9849.61	33.0721	9849.61	42.7115	9849.61	51.9399
10196.8	88.4198	10196.8	87.7414	10196.8	87.5964	10196.8	86.5351	10196.8	85.9299	10196.8	85.529	10196.8	84.3884	10196.8	83.1883	10196.8	81.994	10196.8	79.7286	10196.8	77.7246	10196.8	77.7501	10196.8	75.2873	10196.8	75.3345	10196.8	72.5675	10196.8	72.1247	10196.8	69.807	10196.8	68.3883	10196.8	65.0541	10196.8	63.9538	10196.8	62.3626	10196.8	60.2532	10196.8	57.0251	10196.8	59.8156	10196.8	58.1397	10196.8	57.5664	10196.8	53.3902	10196.8	56.9168	10196.8	57.7188	10196.8	59.4907	10196.8	48.8539	10196.8	51.6461	10196.8	50.5398	10196.8	42.1623	10196.8	30.952	10196.8	47.7558
10555.7	88.1483	10555.7	87.7682	10555.7	87.6193	10555.7	86.3273	10555.7	86.2426	10555.7	85.3011	10555.7	84.6319	10555.7	83.0457	10555.7	81.6875	10555.7	79.457	10555.7	77.7367	10555.7	77.5158	10555.7	74.7557	10555.7	75.4614	10555.7	72.7534	10555.7	71.6287	10555.7	67.9362	10555.7	67.9127	10555.7	63.0099	10555.7	62.7204	10555.7	59.6787	10555.7	59.5017	10555.7	55.2192	10555.7	59.4824	10555.7	57.6267	10555.7	57.613	10555.7	52.6847	10555.7	56.966	10555.7	55.8641	10555.7	57.5188	10555.7	45.1128	10555.7	51.7873	10555.7	49.3995	10555.7	46.2966	10555.7	37.0518	10555.7	50.1319
10927.7	88.1613	10927.7	87.6904	10927.7	87.4886	10927.7	86.3682	10927.7	86.2355	10927.7	84.9402	10927.7	84.5612	10927.7	82.3494	10927.7	81.5958	10927.7	78.9878	10927.7	78.3801	10927.7	77.4325	10927.7	75.2785	10927.7	74.7618	10927.7	71.1523	10927.7	71.7521	10927.7	67.2356	10927.7	66.6064	10927.7	64.6431	10927.7	61.3587	10927.7	58.2181	10927.7	56.7671	10927.7	54.9991	10927.7	57.54	10927.7	54.0443	10927.7	54.9986	10927.7	47.4318	10927.7	56.7818	10927.7	55.1695	10927.7	54.1849	10927.7	47.1139	10927.7	52.186	10927.7	42.6076	10927.7	46.9093	10927.7	46.2691	10927.7	45.2819
11313	87.9197	11313	87.7433	11313	87.3432	11313	86.5682	11313	86.0696	11313	85.1164	11313	83.9683	11313	82.8324	11313	81.2119	11313	79.2442	11313	77.4861	11313	77.0254	11313	74.7335	11313	73.2875	11313	70.0249	11313	69.9628	11313	64.8277	11313	64.5319	11313	62.1071	11313	61.0072	11313	55.3104	11313	54.4577	11313	51.9514	11313	56.8342	11313	51.7393	11313	53.3149	11313	44.5647	11313	54.0747	11313	54.6446	11313	50.3684	11313	49.483	11313	51.0724	11313	37.6792	11313	43.1288	11313	48.028	11313	37.8867
11712.9	87.9547	11712.9	87.5923	11712.9	87.4811	11712.9	86.5404	11712.9	86.2727	11712.9	84.7316	11712.9	84.2314	11712.9	82.4702	11712.9	81.4564	11712.9	79.4071	11712.9	77.7885	11712.9	76.7337	11712.9	74.3672	11712.9	73.1524	11712.9	69.4207	11712.9	68.3829	11712.9	63.2234	11712.9	63.6153	11712.9	60.3498	11712.9	59.842	11712.9	56.9338	11712.9	53.6235	11712.9	54.0693	11712.9	56.1869	11712.9	54.0058	11712.9	54.8029	11712.9	45.1334	11712.9	50.5238	11712.9	54.5782	11712.9	49.7238	11712.9	50.0718	11712.9	51.3259	11712.9	33.4291	11712.9	42.6693	11712.9	47.6505	11712.9	27.0945
12126	87.939	12126	87.7396	12126	87.5337	12126	86.8467	12126	86.4128	12126	84.8087	12126	84.1923	12126	82.4785	12126	82.1289	12126	79.2681	12126	78.3928	12126	75.9173	12126	74.6473	12126	72.0036	12126	69.6192	12126	67.8951	12126	66.1069	12126	63.3575	12126	62.1061	12126	58.5967	12126	59.9789	12126	51.2598	12126	55.3765	12126	55.0961	12126	54.5725	12126	52.6207	12126	47.7748	12126	48.3301	12126	55.5776	12126	49.1779	12126	48.4667	12126	48.01	12126	40.9549	12126	41.6225	12126	48.5092	12126	38.6658
12553.7	88.3328	12553.7	88.0851	12553.7	88.0179	12553.7	87.0801	12553.7	86.7313	12553.7	84.8567	12553.7	84.4071	12553.7	82.5549	12553.7	82.6133	12553.7	78.7794	12553.7	78.5637	12553.7	75.1607	12553.7	74.6592	12553.7	71.2279	12553.7	70.4335	12553.7	67.4307	12553.7	67.1869	12553.7	63.0234	12553.7	63.23	12553.7	56.4399	12553.7	60.4675	12553.7	49.1958	12553.7	54.7416	12553.7	54.0165	12553.7	55.0215	12553.7	50.4895	12553.7	47.7873	12553.7	45.7482	12553.7	55.9836	12553.7	44.1037	12553.7	49.1361	12553.7	45.724	12553.7	47.8763	12553.7	43.3959	12553.7	46.2798	12553.7	44.0671
12996.1	88.6743	12996.1	88.5604	12996.1	88.3483	12996.1	87.3244	12996.1	87.094	12996.1	85.1826	12996.1	84.7967	12996.1	82.6582	12996.1	82.6524	12996.1	78.3413	12996.1	78.6425	12996.1	74.3625	12996.1	74.6713	12996.1	69.6717	12996.1	70.7459	12996.1	65.8653	12996.1	67.5371	12996.1	61.0416	12996.1	62.8742	12996.1	53.9576	12996.1	59.7721	12996.1	44.9802	12996.1	54.463	12996.1	52.882	12996.1	54.4158	12996.1	46.806	12996.1	46.9921	12996.1	45.0082	12996.1	56.6584	12996.1	42.1704	12996.1	46.9536	12996.1	39.057	12996.1	49.7356	12996.1	41.8333	12996.1	44.5155	12996.1	45.7391
13454.6	89.1199	13454.6	88.8917	13454.6	88.568	13454.6	87.4335	13454.6	87.1458	13454.6	85.3045	13454.6	84.9339	13454.6	82.0654	13454.6	82.1165	13454.6	77.545	13454.6	78.1832	13454.6	72.9031	13454.6	73.8724	13454.6	68.1982	13454.6	69.6775	13454.6	62.8843	13454.6	66.4297	13454.6	57.9032	13454.6	61.8781	13454.6	47.4793	13454.6	58.5279	13454.6	40.5017	13454.6	54.1293	13454.6	50.1296	13454.6	51.4698	13454.6	40.3523	13454.6	48.0421	13454.6	42.6673	13454.6	56.6723	13454.6	39.1414	13454.6	48.3908	13454.6	23.6067	13454.6	50.3858	13454.6	44.2313	13454.6	42.1747	13454.6	43.7159
13929.2	89.4837	13929.2	89.1788	13929.2	88.9288	13929.2	87.5985	13929.2	87.3803	13929.2	85.1463	13929.2	84.9028	13929.2	81.3822	13929.2	81.4865	13929.2	76.6102	13929.2	77.455	13929.2	71.2109	13929.2	72.2553	13929.2	66.2631	13929.2	67.4806	13929.2	57.8466	13929.2	64.177	13929.2	54.3391	13929.2	60.2162	13929.2	33.6969	13929.2	56.7906	13929.2	42.2861	13929.2	52.5462	13929.2	46.4855	13929.2	48.5026	13929.2	33.9899	13929.2	50.6696	13929.2	38.7809	13929.2	55.9982	13929.2	43.7011	13929.2	49.6246	13929.2	31.2418	13929.2	48.392	13929.2	45.0814	13929.2	43.6376	13929.2	38.7994
14419.9	89.8374	14419.9	89.2899	14419.9	89.016	14419.9	87.6424	14419.9	87.616	14419.9	84.9735	14419.9	84.795	14419.9	80.9006	14419.9	80.9928	14419.9	75.6042	14419.9	76.4227	14419.9	69.6831	14419.9	70.8612	14419.9	63.3342	14419.9	65.4311	14419.9	50.4527	14419.9	62.3117	14419.9	48.1586	14419.9	57.3132	14419.9	45.8835	14419.9	55.4609	14419.9	48.9753	14419.9	50.5491	14419.9	43.3135	14419.9	45.2387	14419.9	41.9053	14419.9	51.1304	14419.9	45.4096	14419.9	54.8501	14419.9	42.5193	14419.9	50.505	14419.9	41.3933	14419.9	44.5409	14419.9	47.4099	14419.9	44.2756	14419.9	33.4067
14928.2	90.0207	14928.2	89.3235	14928.2	89.0748	14928.2	87.5823	14928.2	87.6731	14928.2	84.5606	14928.2	84.472	14928.2	80.2935	14928.2	80.1164	14928.2	74.8114	14928.2	74.7654	14928.2	66.9049	14928.2	68.3226	14928.2	59.544	14928.2	63.5858	14928.2	50.6977	14928.2	60.9471	14928.2	41.5588	14928.2	55.5727	14928.2	49.4059	14928.2	53.7413	14928.2	52.0046	14928.2	50.6957	14928.2	33.6517	14928.2	45.7948	14928.2	45.0735	14928.2	53.0041	14928.2	47.8676	14928.2	55.1277	14928.2	42.4273	14928.2	48.612	14928.2	42.3966	14928.2	46.3897	14928.2	47.7794	14928.2	38.929	14928.2	39.0503
15455.6	89.6626	15455.6	89.0845	15455.6	88.8092	15455.6	87.3779	15455.6	87.2123	15455.6	84.2374	15455.6	83.7894	15455.6	80.4095	15455.6	79.3001	15455.6	75.5358	15455.6	73.4942	15455.6	68.7982	15455.6	67.343	15455.6	63.7567	15455.6	60.9435	15455.6	57.3557	15455.6	57.9054	15455.6	52.9581	15455.6	54.2768	15455.6	52.5291	15455.6	53.8694	15455.6	53.7085	15455.6	48.3378	15455.6	39.7657	15455.6	47.8492	15455.6	47.0397	15455.6	54.9527	15455.6	48.3005	15455.6	54.4628	15455.6	44.5023	15455.6	47.5936	15455.6	44.2337	15455.6	51.5759	15455.6	43.0803	15455.6	38.3458	15455.6	44.3617
16000.5	89.1862	16000.5	88.614	16000.5	88.4272	16000.5	86.9198	16000.5	86.6333	16000.5	83.9562	16000.5	83.1467	16000.5	80.3071	16000.5	78.5547	16000.5	76.6746	16000.5	73.1433	16000.5	70.9573	16000.5	65.7675	16000.5	66.4994	16000.5	61.3491	16000.5	60.2276	16000.5	51.1454	16000.5	55.8855	16000.5	51.3941	16000.5	52.7776	16000.5	50.2643	16000.5	53.689	16000.5	41.8708	16000.5	39.2941	16000.5	50.4479	16000.5	47.8588	16000.5	54.075	16000.5	39.4415	16000.5	52.54	16000.5	47.503	16000.5	44.0759	16000.5	22.4146	16000.5	55.9214	16000.5	46.4882	16000.5	41.7681	16000.5	49.2234
16564.5	88.3524	16564.5	88.0692	16564.5	87.7392	16564.5	86.1001	16564.5	85.8811	16564.5	83.7777	16564.5	82.5482	16564.5	79.705	16564.5	77.7623	16564.5	76.106	16564.5	72.5876	16564.5	71.2198	16564.5	66.3081	16564.5	67.2214	16564.5	63.2079	16564.5	61.9117	16564.5	54.8272	16564.5	54.3385	16564.5	51.9948	16564.5	51.9399	16564.5	50.0679	16564.5	53.6929	16564.5	40.7521	16564.5	48.6302	16564.5	52.7053	16564.5	51.0877	16564.5	52.7459	16564.5	44.5891	16564.5	50.2039	16564.5	50.645	16564.5	40.0449	16564.5	46.6107	16564.5	57.4138	16564.5	49.3727	16564.5	47.5059	16564.5	53.4058
17148.9	87.4966	17148.9	87.5128	17148.9	87.0245	17148.9	85.3549	17148.9	85.0643	17148.9	83.5217	17148.9	82.1715	17148.9	79.0708	17148.9	76.9013	17148.9	75.2405	17148.9	72.3751	17148.9	70.2181	17148.9	67.2417	17148.9	67.0737	17148.9	64.2129	17148.9	62.0804	17148.9	58.1116	17148.9	56.1917	17148.9	56.3222	17148.9	51.1967	17148.9	52.5894	17148.9	52.3093	17148.9	44.0989	17148.9	49.6862	17148.9	52.3579	17148.9	51.784	17148.9	48.9967	17148.9	44.0791	17148.9	50.0618	17148.9	50.9576	17148.9	46.0149	17148.9	48.299	17148.9	56.069	17148.9	49.0426	17148.9	49.1381	17148.9	53.7525
17752.4	86.596	17752.4	86.8351	17752.4	86.2066	17752.4	84.4261	17752.4	84.0011	17752.4	82.7409	17752.4	81.3826	17752.4	77.8006	17752.4	75.7568	17752.4	74.2197	17752.4	72.1601	17752.4	68.4815	17752.4	67.3148	17752.4	67.4088	17752.4	65.1983	17752.4	62.8162	17752.4	61.1076	17752.4	57.8773	17752.4	60.6745	17752.4	52.654	17752.4	55.9995	17752.4	51.0961	17752.4	46.8772	17752.4	48.974	17752.4	52.8633	17752.4	49.5319	17752.4	44.1836	17752.4	41.7431	17752.4	50.8897	17752.4	49.6264	17752.4	48.7207	17752.4	46.2434	17752.4	54.5159	17752.4	48.945	17752.4	50.398	17752.4	50.265
18379.4	85.6532	18379.4	85.8657	18379.4	85.2415	18379.4	83.29	18379.4	82.9907	18379.4	81.4713	18379.4	80.3398	18379.4	76.31	18379.4	74.8013	18379.4	72.3769	18379.4	70.727	18379.4	66.0807	18379.4	65.6424	18379.4	67.2968	18379.4	66.4341	18379.4	62.7949	18379.4	62.5406	18379.4	59.1543	18379.4	61.2569	18379.4	54.0768	18379.4	56.9341	18379.4	50.5665	18379.4	48.7746	18379.4	49.5507	18379.4	51.3861	18379.4	50.2718	18379.4	42.5277	18379.4	39.2809	18379.4	51.7979	18379.4	45.7415	18379.4	47.1899	18379.4	47.8196	18379.4	47.1245	18379.4	50.4141	18379.4	47.8765	18379.4	41.5878
19026.9	85.1195	19026.9	85.163	19026.9	84.5236	19026.9	82.6389	19026.9	82.406	19026.9	80.2191	19026.9	79.2869	19026.9	74.7144	19026.9	74.0257	19026.9	70.3382	19026.9	68.2702	19026.9	63.9098	19026.9	64.3805	19026.9	66.5924	19026.9	66.2531	19026.9	62.8567	19026.9	62.1456	19026.9	60.1539	19026.9	61.1414	19026.9	54.3316	19026.9	55.5263	19026.9	49.7567	19026.9	48.9678	19026.9	49.9752	19026.9	47.7327	19026.9	49.8383	19026.9	48.7771	19026.9	42.3046	19026.9	50.4919	19026.9	38.3488	19026.9	40.6651	19026.9	45.7856	19026.9	36.1572	19026.9	48.8617	19026.9	35.6287	19026.9	46.7825
19697.8	85.2177	19697.8	85.0398	19697.8	84.3812	19697.8	82.5423	19697.8	82.3133	19697.8	79.5782	19697.8	78.2366	19697.8	73.9431	19697.8	73.2205	19697.8	69.0009	19697.8	66.4847	19697.8	59.0917	19697.8	61.9713	19697.8	64.4643	19697.8	65.1155	19697.8	59.514	19697.8	60.0711	19697.8	57.4604	19697.8	60.8052	19697.8	50.1708	19697.8	53.2661	19697.8	47.7355	19697.8	50.6949	19697.8	49.5587	19697.8	48.923	19697.8	50.8095	19697.8	50.0171	19697.8	44.4428	19697.8	45.707	19697.8	33.359	19697.8	41.1714	19697.8	35.4784	19697.8	44.2373	19697.8	48.8637	19697.8	41.3529	19697.8	49.1593
19999.5	85.6296	19999.5	84.827	19999.5	84.4271	19999.5	82.0457	19999.5	82.3089	19999.5	78.965	19999.5	77.5154	19999.5	74.0933	19999.5	73.0794	19999.5	69.3759	19999.5	66.7721	19999.5	56.9359	19999.5	60.553	19999.5	63.39	19999.5	63.8424	19999.5	57.425	19999.5	57.8815	19999.5	53.9144	19999.5	59.1132	19999.5	48.6709	19999.5	50.4651	19999.5	40.7808	19999.5	50.5951	19999.5	41.6405	19999.5	48.1922	19999.5	53.3729	19999.5	46.1811	19999.5	46.5724	19999.5	47.2375	19999.5	45.4051	19999.5	43.2279	19999.5	50.3817	19999.5	40.5794	19999.5	48.3402	19999.5	48.7916	19999.5	41.9801
