"SPL Vertical"
"On-Axis"		"10°"		"-10°"		"20°"		"-20°"		"30°"		"-30°"		"40°"		"-40°"		"50°"		"-50°"		"60°"		"-60°"		"70°"		"-70°"		"80°"		"-80°"		"90°"		"-90°"		"100°"		"-100°"		"110°"		"-110°"		"120°"		"-120°"		"130°"		"-130°"		"140°"		"-140°"		"150°"		"-150°"		"160°"		"-160°"		"170°"		"-170°"		"180°"
"Frequency / Hz"	"Sound Pressure Level / dB (re 20 µPa/V)  [2.83V at 1m]"	"Frequency / Hz"	"Sound Pressure Level / dB (re 20 µPa/V)  [2.83V at 1m]"	"Frequency / Hz"	"Sound Pressure Level / dB (re 20 µPa/V)  [2.83V at 1m]"	"Frequency / Hz"	"Sound Pressure Level / dB (re 20 µPa/V)  [2.83V at 1m]"	"Frequency / Hz"	"Sound Pressure Level / dB (re 20 µPa/V)  [2.83V at 1m]"	"Frequency / Hz"	"Sound Pressure Level / dB (re 20 µPa/V)  [2.83V at 1m]"	"Frequency / Hz"	"Sound Pressure Level / dB (re 20 µPa/V)  [2.83V at 1m]"	"Frequency / Hz"	"Sound Pressure Level / dB (re 20 µPa/V)  [2.83V at 1m]"	"Frequency / Hz"	"Sound Pressure Level / dB (re 20 µPa/V)  [2.83V at 1m]"	"Frequency / Hz"	"Sound Pressure Level / dB (re 20 µPa/V)  [2.83V at 1m]"	"Frequency / Hz"	"Sound Pressure Level / dB (re 20 µPa/V)  [2.83V at 1m]"	"Frequency / Hz"	"Sound Pressure Level / dB (re 20 µPa/V)  [2.83V at 1m]"	"Frequency / Hz"	"Sound Pressure Level / dB (re 20 µPa/V)  [2.83V at 1m]"	"Frequency / Hz"	"Sound Pressure Level / dB (re 20 µPa/V)  [2.83V at 1m]"	"Frequency / Hz"	"Sound Pressure Level / dB (re 20 µPa/V)  [2.83V at 1m]"	"Frequency / Hz"	"Sound Pressure Level / dB (re 20 µPa/V)  [2.83V at 1m]"	"Frequency / Hz"	"Sound Pressure Level / dB (re 20 µPa/V)  [2.83V at 1m]"	"Frequency / Hz"	"Sound Pressure Level / dB (re 20 µPa/V)  [2.83V at 1m]"	"Frequency / Hz"	"Sound Pressure Level / dB (re 20 µPa/V)  [2.83V at 1m]"	"Frequency / Hz"	"Sound Pressure Level / dB (re 20 µPa/V)  [2.83V at 1m]"	"Frequency / Hz"	"Sound Pressure Level / dB (re 20 µPa/V)  [2.83V at 1m]"	"Frequency / Hz"	"Sound Pressure Level / dB (re 20 µPa/V)  [2.83V at 1m]"	"Frequency / Hz"	"Sound Pressure Level / dB (re 20 µPa/V)  [2.83V at 1m]"	"Frequency / Hz"	"Sound Pressure Level / dB (re 20 µPa/V)  [2.83V at 1m]"	"Frequency / Hz"	"Sound Pressure Level / dB (re 20 µPa/V)  [2.83V at 1m]"	"Frequency / Hz"	"Sound Pressure Level / dB (re 20 µPa/V)  [2.83V at 1m]"	"Frequency / Hz"	"Sound Pressure Level / dB (re 20 µPa/V)  [2.83V at 1m]"	"Frequency / Hz"	"Sound Pressure Level / dB (re 20 µPa/V)  [2.83V at 1m]"	"Frequency / Hz"	"Sound Pressure Level / dB (re 20 µPa/V)  [2.83V at 1m]"	"Frequency / Hz"	"Sound Pressure Level / dB (re 20 µPa/V)  [2.83V at 1m]"	"Frequency / Hz"	"Sound Pressure Level / dB (re 20 µPa/V)  [2.83V at 1m]"	"Frequency / Hz"	"Sound Pressure Level / dB (re 20 µPa/V)  [2.83V at 1m]"	"Frequency / Hz"	"Sound Pressure Level / dB (re 20 µPa/V)  [2.83V at 1m]"	"Frequency / Hz"	"Sound Pressure Level / dB (re 20 µPa/V)  [2.83V at 1m]"	"Frequency / Hz"	"Sound Pressure Level / dB (re 20 µPa/V)  [2.83V at 1m]"	"Frequency / Hz"	"Sound Pressure Level / dB (re 20 µPa/V)  [2.83V at 1m]"
20.5078	56.1958	20.5078	56.1137	20.5078	56.2532	20.5078	56.0103	20.5078	56.2834	20.5078	55.8893	20.5078	56.2848	20.5078	55.7551	20.5078	56.2571	20.5078	55.6123	20.5078	56.201	20.5078	55.4656	20.5078	56.1183	20.5078	55.3196	20.5078	56.0122	20.5078	55.1788	20.5078	55.8868	20.5078	55.0472	20.5078	55.7472	20.5078	54.9286	20.5078	55.599	20.5078	54.8259	20.5078	55.4479	20.5078	54.7415	20.5078	55.2992	20.5078	54.6772	20.5078	55.158	20.5078	54.6338	20.5078	55.0282	20.5078	54.6119	20.5078	54.913	20.5078	54.6113	20.5078	54.8144	20.5078	54.6318	20.5078	54.7341	20.5078	54.673
21.9727	55.3231	21.9727	55.2251	21.9727	55.388	21.9727	55.0979	21.9727	55.4168	21.9727	54.9464	21.9727	55.4079	21.9727	54.7758	21.9727	55.3607	21.9727	54.5922	21.9727	55.2766	21.9727	54.4015	21.9727	55.1582	21.9727	54.2102	21.9727	55.0101	21.9727	54.0245	21.9727	54.8382	21.9727	53.8502	21.9727	54.6498	21.9727	53.6927	21.9727	54.453	21.9727	53.5562	21.9727	54.256	21.9727	53.4442	21.9727	54.0662	21.9727	53.3585	21.9727	53.8902	21.9727	53.3	21.9727	53.7327	21.9727	53.2684	21.9727	53.5964	21.9727	53.2629	21.9727	53.483	21.9727	53.2824	21.9727	53.3928	21.9727	53.3259
23.4375	56.1175	23.4375	56.0167	23.4375	56.1771	23.4375	55.8786	23.4375	56.1925	23.4375	55.708	23.4375	56.162	23.4375	55.5103	23.4375	56.0855	23.4375	55.2917	23.4375	55.9642	23.4375	55.0588	23.4375	55.8015	23.4375	54.8187	23.4375	55.6024	23.4375	54.5787	23.4375	55.374	23.4375	54.3462	23.4375	55.1253	23.4375	54.1284	23.4375	54.8664	23.4375	53.9319	23.4375	54.6078	23.4375	53.7623	23.4375	54.36	23.4375	53.6237	23.4375	54.1317	23.4375	53.5189	23.4375	53.9301	23.4375	53.4492	23.4375	53.7594	23.4375	53.4148	23.4375	53.6222	23.4375	53.4153	23.4375	53.519	23.4375	53.4501
24.9023	57.437	24.9023	57.3396	24.9023	57.4976	24.9023	57.2094	24.9023	57.5185	24.9023	57.0509	24.9023	57.4981	24.9023	56.8698	24.9023	57.4362	24.9023	56.6719	24.9023	57.334	24.9023	56.4638	24.9023	57.1947	24.9023	56.252	24.9023	57.0233	24.9023	56.0434	24.9023	56.8262	24.9023	55.8445	24.9023	56.6117	24.9023	55.6615	24.9023	56.3888	24.9023	55.4996	24.9023	56.1666	24.9023	55.3632	24.9023	55.954	24.9023	55.255	24.9023	55.7582	24.9023	55.1767	24.9023	55.5847	24.9023	55.1284	24.9023	55.4369	24.9023	55.1098	24.9023	55.3163	24.9023	55.1198	24.9023	55.2233	24.9023	55.1578
26.3672	57.402	26.3672	57.3025	26.3672	57.4524	26.3672	57.1579	26.3672	57.4508	26.3672	56.9735	26.3672	57.3954	26.3672	56.7551	26.3672	57.2863	26.3672	56.5095	26.3672	57.1256	26.3672	56.2444	26.3672	56.9175	26.3672	55.9681	26.3672	56.6686	26.3672	55.6893	26.3672	56.3883	26.3672	55.4172	26.3672	56.088	26.3672	55.1609	26.3672	55.7811	26.3672	54.9285	26.3672	55.4814	26.3672	54.727	26.3672	55.2018	26.3672	54.5611	26.3672	54.9531	26.3672	54.4334	26.3672	54.742	26.3672	54.3444	26.3672	54.5718	26.3672	54.293	26.3672	54.4423	26.3672	54.2777	26.3672	54.3515	26.3672	54.2971
27.832	58.8451	27.832	58.7392	27.832	58.901	27.832	58.5875	27.832	58.904	27.832	58.3949	27.832	58.8521	27.832	58.1671	27.832	58.7449	27.832	57.9106	27.832	58.5837	27.832	57.6325	27.832	58.3719	27.832	57.3407	27.832	58.1151	27.832	57.0435	27.832	57.8216	27.832	56.7497	27.832	57.5019	27.832	56.4685	27.832	57.1689	27.832	56.2085	27.832	56.8366	27.832	55.9774	27.832	56.5192	27.832	55.7815	27.832	56.2296	27.832	55.6254	27.832	55.9779	27.832	55.5117	27.832	55.7706	27.832	55.4417	27.832	55.6111	27.832	55.416	27.832	55.4995	27.832	55.4349
29.2969	59.2906	29.2969	59.1859	29.2969	59.3415	29.2969	59.0313	29.2969	59.3353	29.2969	58.832	29.2969	59.2704	29.2969	58.594	29.2969	59.1467	29.2969	58.3241	29.2969	58.9658	29.2969	58.0301	29.2969	58.7319	29.2969	57.7206	29.2969	58.4517	29.2969	57.4052	29.2969	58.1345	29.2969	57.0938	29.2969	57.7928	29.2969	56.7967	29.2969	57.441	29.2969	56.5237	29.2969	57.0948	29.2969	56.2832	29.2969	56.7699	29.2969	56.0817	29.2969	56.4792	29.2969	55.9231	29.2969	56.2322	29.2969	55.8088	29.2969	56.0338	29.2969	55.7385	29.2969	55.8846	29.2969	55.711	29.2969	55.7828	29.2969	55.7256
30.7617	59.3798	30.7617	59.2653	30.7617	59.4336	30.7617	59.0945	30.7617	59.4234	30.7617	58.8728	30.7617	59.3475	30.7617	58.607	30.7617	59.2061	30.7617	58.3049	30.7617	59.0014	30.7617	57.9757	30.7617	58.7383	30.7617	57.6298	30.7617	58.425	30.7617	57.2792	30.7617	58.0728	30.7617	56.9365	30.7617	57.6969	30.7617	56.6148	30.7617	57.315	30.7617	56.3262	30.7617	56.9461	30.7617	56.0805	30.7617	56.6079	30.7617	55.8838	30.7617	56.3142	30.7617	55.7381	30.7617	56.073	30.7617	55.6413	30.7617	55.8853	30.7617	55.5886	30.7617	55.7475	30.7617	55.575	30.7617	55.6532	30.7617	55.5967
32.2266	59.3408	32.2266	59.2294	32.2266	59.3786	32.2266	59.0488	32.2266	59.3398	32.2266	58.8042	32.2266	59.2224	32.2266	58.5017	32.2266	59.0263	32.2266	58.1489	32.2266	58.7533	32.2266	57.755	32.2266	58.4086	32.2266	57.3309	32.2266	58.0012	32.2266	56.8904	32.2266	57.5447	32.2266	56.4493	32.2266	57.0583	32.2266	56.0255	32.2266	56.5659	32.2266	55.6373	32.2266	56.0946	32.2266	55.3008	32.2266	55.6705	32.2266	55.0278	32.2266	55.3137	32.2266	54.8226	32.2266	55.0344	32.2266	54.6827	32.2266	54.8312	32.2266	54.6	32.2266	54.6942	32.2266	54.5645	32.2266	54.6103	32.2266	54.5686
33.6914	60.1676	33.6914	60.0547	33.6914	60.2009	33.6914	59.8664	33.6914	60.1512	33.6914	59.6078	33.6914	60.0162	33.6914	59.2847	33.6914	59.7952	33.6914	58.9044	33.6914	59.4894	33.6914	58.4755	33.6914	59.1032	33.6914	58.009	33.6914	58.6449	33.6914	57.5186	33.6914	58.1282	33.6914	57.0213	33.6914	57.5732	33.6914	56.5367	33.6914	57.0065	33.6914	56.0859	33.6914	56.4599	33.6914	55.689	33.6914	55.9661	33.6914	55.3611	33.6914	55.5518	33.6914	55.1095	33.6914	55.2318	33.6914	54.9323	33.6914	55.0057	33.6914	54.8208	33.6914	54.8611	33.6914	54.7632	33.6914	54.781	33.6914	54.7506
35.1562	59.5491	35.1562	59.4297	35.1562	59.5705	35.1562	59.2165	35.1562	59.49	35.1562	58.9143	35.1562	59.3048	35.1562	58.5286	35.1562	59.0132	35.1562	58.0665	35.1562	58.6159	35.1562	57.5374	35.1562	58.117	35.1562	56.9545	35.1562	57.5268	35.1562	56.3365	35.1562	56.8638	35.1562	55.709	35.1562	56.1585	35.1562	55.1053	35.1562	55.4548	35.1562	54.5632	35.1562	54.8077	35.1562	54.1186	35.1562	54.2717	35.1562	53.7949	35.1562	53.8836	35.1562	53.5945	35.1562	53.6473	35.1562	53.4975	35.1562	53.5334	35.1562	53.4698	35.1562	53.4954	35.1562	53.4747	35.1562	53.4889	35.1562	53.4849
36.6211	58.772	36.6211	58.6478	36.6211	58.7696	36.6211	58.4009	36.6211	58.6359	36.6211	58.0339	36.6211	58.3651	36.6211	57.5488	36.6211	57.9512	36.6211	56.9475	36.6211	57.3881	36.6211	56.2332	36.6211	56.6718	36.6211	55.4125	36.6211	55.8034	36.6211	54.5007	36.6211	54.7957	36.6211	53.5284	36.6211	53.6847	36.6211	52.5516	36.6211	52.5468	36.6211	51.6584	36.6211	51.5131	36.6211	50.9584	36.6211	50.7481	36.6211	50.5397	36.6211	50.3645	36.6211	50.4134	36.6211	50.3336	36.6211	50.5014	36.6211	50.5091	36.6211	50.6831	36.6211	50.7303	36.6211	50.8499	36.6211	50.8876	36.6211	50.9292
38.0859	58.4415	38.0859	58.3163	38.0859	58.4135	38.0859	58.0409	38.0859	58.2258	38.0859	57.6143	38.0859	57.8681	38.0859	57.0317	38.0859	57.3258	38.0859	56.2838	38.0859	56.5789	38.0859	55.3555	38.0859	55.6005	38.0859	54.2256	38.0859	54.3545	38.0859	52.8665	38.0859	52.7936	38.0859	51.2479	38.0859	50.8614	38.0859	49.3552	38.0859	48.5206	38.0859	47.2566	38.0859	45.9011	38.0859	45.2925	38.0859	43.7826	38.0859	44.2449	38.0859	43.5497	38.0859	44.588	38.0859	44.8368	38.0859	45.6769	38.0859	46.2544	38.0859	46.7571	38.0859	47.2658	38.0859	47.5177	38.0859	47.7984	38.0859	47.8739
39.5508	58.1281	39.5508	58.0168	39.5508	58.0628	39.5508	57.7318	39.5508	57.8123	39.5508	57.2696	39.5508	57.3613	39.5508	56.6199	39.5508	56.6861	39.5508	55.7629	39.5508	55.7511	39.5508	54.6657	39.5508	54.5011	39.5508	53.2744	39.5508	52.847	39.5508	51.4983	39.5508	50.6305	39.5508	49.1747	39.5508	47.5287	39.5508	45.9753	39.5508	42.6962	39.5508	41.1168	39.5508	32.2702	39.5508	33.4746	39.5508	34.926	39.5508	37.3555	39.5508	42.5339	39.5508	42.8373	39.5508	46.0111	39.5508	45.9348	39.5508	47.9718	39.5508	47.8235	39.5508	49.0698	39.5508	48.9531	39.5508	49.5496	39.5508	49.5068
41.0156	61.1315	41.0156	60.9999	41.0156	61.1532	41.0156	60.7667	41.0156	61.0655	41.0156	60.4489	41.0156	60.8797	41.0156	60.0751	41.0156	60.6226	41.0156	59.689	41.0156	60.3422	41.0156	59.3517	41.0156	60.1107	41.0156	59.1365	41.0156	60.014	41.0156	59.1117	41.0156	60.1229	41.0156	59.3125	41.0156	60.4552	41.0156	59.7239	41.0156	60.9645	41.0156	60.2879	41.0156	61.5662	41.0156	60.9303	41.0156	62.1752	41.0156	61.5834	41.0156	62.7266	41.0156	62.1962	41.0156	63.1792	41.0156	62.7336	41.0156	63.5102	41.0156	63.1725	41.0156	63.7089	41.0156	63.4981	41.0156	63.7718	41.0156	63.7001
42.4805	62.7891	42.4805	62.685	42.4805	62.8208	42.4805	62.5155	42.4805	62.7829	42.4805	62.2961	42.4805	62.6886	42.4805	62.0519	42.4805	62.5643	42.4805	61.8179	42.4805	62.4498	42.4805	61.637	42.4805	62.3952	42.4805	61.5545	42.4805	62.4494	42.4805	61.6071	42.4805	62.6428	42.4805	61.811	42.4805	62.9732	42.4805	62.1553	42.4805	63.4057	42.4805	62.6065	42.4805	63.8875	42.4805	63.1195	42.4805	64.3644	42.4805	63.6489	42.4805	64.7927	42.4805	64.1562	42.4805	65.1415	42.4805	64.6117	42.4805	65.3916	42.4805	64.9935	42.4805	65.5328	42.4805	65.2857	42.4805	65.5612	42.4805	65.4775
43.9453	64.3948	43.9453	64.3058	43.9453	64.4369	43.9453	64.1751	43.9453	64.4356	43.9453	64.0156	43.9453	64.4034	43.9453	63.8474	43.9453	64.3624	43.9453	63.6975	43.9453	64.3431	43.9453	63.5965	43.9453	64.3796	43.9453	63.5749	43.9453	64.5008	43.9453	63.6559	43.9453	64.7208	43.9453	63.849	43.9453	65.0321	43.9453	64.1466	43.9453	65.4081	43.9453	64.5266	43.9453	65.8111	43.9453	64.958	43.9453	66.2027	43.9453	65.4075	43.9453	66.5502	43.9453	65.8448	43.9453	66.8294	43.9453	66.2442	43.9453	67.0242	43.9453	66.5858	43.9453	67.1255	43.9453	66.8541	43.9453	67.1299	43.9453	67.038
45.4102	65.9523	45.4102	65.8758	45.4102	66.0034	45.4102	65.7777	45.4102	66.0327	45.4102	65.6676	45.4102	66.0506	45.4102	65.5609	45.4102	66.0744	45.4102	65.4772	45.4102	66.1255	45.4102	65.4377	45.4102	66.2257	45.4102	65.4623	45.4102	66.3907	45.4102	65.5651	45.4102	66.625	45.4102	65.7514	45.4102	66.9192	45.4102	66.0154	45.4102	67.2519	45.4102	66.3419	45.4102	67.5955	45.4102	66.7093	45.4102	67.9219	45.4102	67.0935	45.4102	68.2066	45.4102	67.4708	45.4102	68.4307	45.4102	67.8203	45.4102	68.5816	45.4102	68.1242	45.4102	68.6516	45.4102	68.3685	45.4102	68.6382	45.4102	68.5423
46.875	67.4548	46.875	67.384	46.875	67.5115	46.875	67.3017	46.875	67.5573	46.875	67.2151	46.875	67.6007	46.875	67.1357	46.875	67.6544	46.875	67.0782	46.875	67.7341	46.875	67.0581	46.875	67.8542	46.875	67.09	46.875	68.0241	46.875	67.1843	46.875	68.2448	46.875	67.3453	46.875	68.5075	46.875	67.5695	46.875	68.7952	46.875	67.8466	46.875	69.0863	46.875	68.1605	46.875	69.3586	46.875	68.4925	46.875	69.5925	46.875	68.8231	46.875	69.7726	46.875	69.1342	46.875	69.888	46.875	69.4098	46.875	69.9325	46.875	69.6365	46.875	69.904	46.875	69.8037
48.3398	69.0203	48.3398	68.9521	48.3398	69.0836	48.3398	68.8804	48.3398	69.1444	48.3398	68.8102	48.3398	69.209	48.3398	68.75	48.3398	69.2867	48.3398	68.71	48.3398	69.3876	48.3398	68.7015	48.3398	69.5204	48.3398	68.735	48.3398	69.69	48.3398	68.8182	48.3398	69.8948	48.3398	68.9546	48.3398	70.1267	48.3398	69.1426	48.3398	70.3721	48.3398	69.3752	48.3398	70.6142	48.3398	69.6408	48.3398	70.8359	48.3398	69.9254	48.3398	71.0217	48.3398	70.2132	48.3398	71.1594	48.3398	70.4888	48.3398	71.2402	48.3398	70.738	48.3398	71.2593	48.3398	70.9484	48.3398	71.2153	48.3398	71.1101
51.2695	71.1573	51.2695	71.0896	51.2695	71.226	51.2695	71.0238	51.2695	71.2977	51.2695	70.9633	51.2695	71.3767	51.2695	70.9139	51.2695	71.4688	51.2695	70.8827	51.2695	71.5803	51.2695	70.8777	51.2695	71.7158	51.2695	70.9064	51.2695	71.8768	51.2695	70.9745	51.2695	72.0605	51.2695	71.085	51.2695	72.2596	51.2695	71.2374	51.2695	72.4632	51.2695	71.4273	51.2695	72.6583	51.2695	71.647	51.2695	72.8318	51.2695	71.8859	51.2695	72.9719	51.2695	72.1319	51.2695	73.0691	51.2695	72.3724	51.2695	73.1168	51.2695	72.595	51.2695	73.1117	51.2695	72.7886	51.2695	73.0532	51.2695	72.9438
52.7344	72.068	52.7344	72.0021	52.7344	72.1391	52.7344	71.9419	52.7344	72.217	52.7344	71.8898	52.7344	72.3051	52.7344	71.8504	52.7344	72.4078	52.7344	71.8292	52.7344	72.5294	52.7344	71.8325	52.7344	72.6724	52.7344	71.8661	52.7344	72.8365	52.7344	71.9345	52.7344	73.0178	52.7344	72.0402	52.7344	73.209	52.7344	72.1827	52.7344	73.3999	52.7344	72.3585	52.7344	73.579	52.7344	72.5611	52.7344	73.7348	52.7344	72.7819	52.7344	73.8571	52.7344	73.0103	52.7344	73.9381	52.7344	73.2352	52.7344	73.9723	52.7344	73.4456	52.7344	73.9572	52.7344	73.631	52.7344	73.8931	52.7344	73.7826
54.1992	73.0952	54.1992	73.0271	54.1992	73.1712	54.1992	72.9673	54.1992	73.2562	54.1992	72.9178	54.1992	73.3527	54.1992	72.882	54.1992	73.4634	54.1992	72.8644	54.1992	73.5909	54.1992	72.8697	54.1992	73.7361	54.1992	72.9027	54.1992	73.8974	54.1992	72.9669	54.1992	74.0705	54.1992	73.0644	54.1992	74.2483	54.1992	73.1947	54.1992	74.4217	54.1992	73.3552	54.1992	74.5808	54.1992	73.5406	54.1992	74.7158	54.1992	73.7435	54.1992	74.818	54.1992	73.955	54.1992	74.8809	54.1992	74.1652	54.1992	74.9001	54.1992	74.3641	54.1992	74.874	54.1992	74.5421	54.1992	74.8032	54.1992	74.6909
55.6641	73.9815	55.6641	73.9124	55.6641	74.0594	55.6641	73.8526	55.6641	74.1471	55.6641	73.8037	55.6641	74.2462	55.6641	73.7685	55.6641	74.3588	55.6641	73.7506	55.6641	74.4863	55.6641	73.754	55.6641	74.6286	55.6641	73.7828	55.6641	74.7836	55.6641	73.84	55.6641	74.9468	55.6641	73.9275	55.6641	75.1116	55.6641	74.0452	55.6641	75.2695	55.6641	74.1909	55.6641	75.4118	55.6641	74.3605	55.6641	75.5296	55.6641	74.5474	55.6641	75.6156	55.6641	74.744	55.6641	75.6641	55.6641	74.9414	55.6641	75.6716	55.6641	75.1303	55.6641	75.6369	55.6641	75.3018	55.6641	75.5612	55.6641	75.4477
58.5938	75.5388	58.5938	75.4669	58.5938	75.6208	58.5938	75.4055	58.5938	75.7132	58.5938	75.3558	58.5938	75.8167	58.5938	75.3196	58.5938	75.9319	58.5938	75.2995	58.5938	76.0586	58.5938	75.2984	58.5938	76.1956	58.5938	75.3191	58.5938	76.3397	58.5938	75.3642	58.5938	76.4864	58.5938	75.4351	58.5938	76.6294	58.5938	75.5323	58.5938	76.7617	58.5938	75.6543	58.5938	76.876	58.5938	75.7984	58.5938	76.9653	58.5938	75.9598	58.5938	77.0241	58.5938	76.1325	58.5938	77.0483	58.5938	76.3092	58.5938	77.0356	58.5938	76.4822	58.5938	76.986	58.5938	76.6434	58.5938	76.9013	58.5938	76.7853
60.0586	76.2485	60.0586	76.1753	60.0586	76.3321	60.0586	76.1129	60.0586	76.4263	60.0586	76.0624	60.0586	76.5313	60.0586	76.0253	60.0586	76.6472	60.0586	76.0039	60.0586	76.7731	60.0586	76.0005	60.0586	76.9074	60.0586	76.0177	60.0586	77.0467	60.0586	76.0576	60.0586	77.1862	60.0586	76.1216	60.0586	77.3202	60.0586	76.2103	60.0586	77.4419	60.0586	76.3227	60.0586	77.5446	60.0586	76.4563	60.0586	77.6223	60.0586	76.6072	60.0586	77.6698	60.0586	76.7701	60.0586	77.6839	60.0586	76.9383	60.0586	77.6629	60.0586	77.1046	60.0586	77.6071	60.0586	77.2615	60.0586	77.5188	60.0586	77.4018
62.9883	77.5308	62.9883	77.4535	62.9883	77.6187	62.9883	77.3873	62.9883	77.7167	62.9883	77.3331	62.9883	77.8244	62.9883	77.2921	62.9883	77.9409	62.9883	77.266	62.9883	78.0646	62.9883	77.2567	62.9883	78.193	62.9883	77.266	62.9883	78.3223	62.9883	77.2957	62.9883	78.4481	62.9883	77.3472	62.9883	78.5647	62.9883	77.421	62.9883	78.6665	62.9883	77.5166	62.9883	78.7478	62.9883	77.6324	62.9883	78.8038	62.9883	77.7656	62.9883	78.8308	62.9883	77.9117	62.9883	78.8264	62.9883	78.0655	62.9883	78.79	62.9883	78.2206	62.9883	78.7228	62.9883	78.3704	62.9883	78.6274	62.9883	78.5081
64.4531	78.0751	64.4531	77.9987	64.4531	78.1619	64.4531	77.9332	64.4531	78.2585	64.4531	77.8795	64.4531	78.3643	64.4531	77.8387	64.4531	78.4781	64.4531	77.8121	64.4531	78.5982	64.4531	77.8015	64.4531	78.7218	64.4531	77.8084	64.4531	78.8453	64.4531	77.8344	64.4531	78.964	64.4531	77.8807	64.4531	79.0729	64.4531	77.9479	64.4531	79.1664	64.4531	78.0358	64.4531	79.2395	64.4531	78.143	64.4531	79.2877	64.4531	78.267	64.4531	79.3077	64.4531	78.4041	64.4531	79.2976	64.4531	78.5494	64.4531	79.2571	64.4531	78.6972	64.4531	79.1877	64.4531	78.8411	64.4531	79.0921	64.4531	78.9748
67.3828	78.9979	67.3828	78.9211	67.3828	79.0853	67.3828	78.8555	67.3828	79.1825	67.3828	78.8015	67.3828	79.2886	67.3828	78.76	67.3828	79.402	67.3828	78.7318	67.3828	79.5204	67.3828	78.7183	67.3828	79.6405	67.3828	78.7205	67.3828	79.7584	67.3828	78.7399	67.3828	79.8694	67.3828	78.7775	67.3828	79.9683	67.3828	78.8342	67.3828	80.0502	67.3828	78.91	67.3828	80.1105	67.3828	79.0042	67.3828	80.1454	67.3828	79.1152	67.3828	80.1525	67.3828	79.2399	67.3828	80.1305	67.3828	79.3745	67.3828	80.08	67.3828	79.5139	67.3828	80.0029	67.3828	79.6525	67.3828	79.9028	67.3828	79.7841
68.8477	79.4832	68.8477	79.4047	68.8477	79.5724	68.8477	79.3373	68.8477	79.6714	68.8477	79.2819	68.8477	79.7789	68.8477	79.2389	68.8477	79.8931	68.8477	79.2093	68.8477	80.0114	68.8477	79.194	68.8477	80.1304	68.8477	79.1941	68.8477	80.2459	68.8477	79.2109	68.8477	80.3534	68.8477	79.2454	68.8477	80.4478	68.8477	79.2983	68.8477	80.5242	68.8477	79.3699	68.8477	80.5785	68.8477	79.4596	68.8477	80.6072	68.8477	79.566	68.8477	80.6082	68.8477	79.6865	68.8477	80.5806	68.8477	79.8174	68.8477	80.5253	68.8477	79.954	68.8477	80.4446	68.8477	80.091	68.8477	80.342	68.8477	80.2222
71.7773	80.5117	71.7773	80.431	71.7773	80.603	71.7773	80.3615	71.7773	80.7038	71.7773	80.304	71.7773	80.8124	71.7773	80.2588	71.7773	80.9265	71.7773	80.2267	71.7773	81.0431	71.7773	80.2083	71.7773	81.1586	71.7773	80.2043	71.7773	81.2685	71.7773	80.2158	71.7773	81.3683	71.7773	80.2437	71.7773	81.4532	71.7773	80.2888	71.7773	81.5188	71.7773	80.3514	71.7773	81.5613	71.7773	80.4313	71.7773	81.5781	71.7773	80.5277	71.7773	81.5677	71.7773	80.6386	71.7773	81.5299	71.7773	80.761	71.7773	81.4661	71.7773	80.8907	71.7773	81.3791	71.7773	81.023	71.7773	81.2728	71.7773	81.1523
74.707	81.2707	74.707	81.1877	74.707	81.3642	74.707	81.116	74.707	81.4669	74.707	81.0563	74.707	81.5766	74.707	81.009	74.707	81.6909	74.707	80.9745	74.707	81.8062	74.707	80.9531	74.707	81.9186	74.707	80.9456	74.707	82.0237	74.707	80.9525	74.707	82.1167	74.707	80.9747	74.707	82.1932	74.707	81.013	74.707	82.2492	74.707	81.0679	74.707	82.2813	74.707	81.1395	74.707	82.2875	74.707	81.2273	74.707	82.2668	74.707	81.3298	74.707	82.2197	74.707	81.4447	74.707	82.1482	74.707	81.5686	74.707	82.0555	74.707	81.6968	74.707	81.9458	74.707	81.8245
77.6367	81.8418	77.6367	81.7563	77.6367	81.9376	77.6367	81.6822	77.6367	82.042	77.6367	81.62	77.6367	82.1528	77.6367	81.5701	77.6367	82.267	77.6367	81.5327	77.6367	82.3809	77.6367	81.5082	77.6367	82.4904	77.6367	81.4969	77.6367	82.5908	77.6367	81.4994	77.6367	82.6776	77.6367	81.5164	77.6367	82.7465	77.6367	81.5486	77.6367	82.7937	77.6367	81.5967	77.6367	82.8164	77.6367	81.661	77.6367	82.813	77.6367	81.7414	77.6367	82.7831	77.6367	81.8369	77.6367	82.7277	77.6367	81.9455	77.6367	82.6492	77.6367	82.0644	77.6367	82.5512	77.6367	82.1895	77.6367	82.4383	77.6367	82.3159
79.1016	82.2345	79.1016	82.148	79.1016	82.3311	79.1016	82.0728	79.1016	82.4363	79.1016	82.0096	79.1016	82.5475	79.1016	81.9586	79.1016	82.6616	79.1016	81.9202	79.1016	82.7749	79.1016	81.8944	79.1016	82.883	79.1016	81.8816	79.1016	82.9814	79.1016	81.8822	79.1016	83.0655	79.1016	81.897	79.1016	83.1311	79.1016	81.9266	79.1016	83.1745	79.1016	81.9717	79.1016	83.1932	79.1016	82.0329	79.1016	83.1856	79.1016	82.11	79.1016	83.1517	79.1016	82.2023	79.1016	83.0927	79.1016	82.3082	79.1016	83.0112	79.1016	82.4248	79.1016	82.911	79.1016	82.5483	79.1016	82.7968	79.1016	82.6741
82.0312	82.9838	82.0312	82.8931	82.0312	83.0846	82.0312	82.8137	82.0312	83.1933	82.0312	82.7464	82.0312	83.3073	82.0312	82.6916	82.0312	83.4231	82.0312	82.6493	82.0312	83.5366	82.0312	82.6198	82.0312	83.6433	82.0312	82.6031	82.0312	83.7385	82.0312	82.5998	82.0312	83.8178	82.0312	82.6102	82.0312	83.877	82.0312	82.6351	82.0312	83.9129	82.0312	82.6754	82.0312	83.9231	82.0312	82.7315	82.0312	83.9067	82.0312	82.8037	82.0312	83.8639	82.0312	82.8916	82.0312	83.7965	82.0312	82.9939	82.0312	83.7076	82.0312	83.1081	82.0312	83.6013	82.0312	83.2307	82.0312	83.4827	82.0312	83.3573
84.9609	84.144	84.9609	84.0486	84.9609	84.2516	84.9609	83.9668	84.9609	84.3697	84.9609	83.8989	84.9609	84.4952	84.9609	83.845	84.9609	84.6247	84.9609	83.8049	84.9609	84.7533	84.9609	83.7786	84.9609	84.8762	84.9609	83.766	84.9609	84.9879	84.9609	83.7673	84.9609	85.0829	84.9609	83.7831	84.9609	85.1565	84.9609	83.8142	84.9609	85.2045	84.9609	83.8615	84.9609	85.2239	84.9609	83.9259	84.9609	85.2132	84.9609	84.0077	84.9609	85.1724	84.9609	84.1065	84.9609	85.1032	84.9609	84.221	84.9609	85.0088	84.9609	84.3486	84.9609	84.8938	84.9609	84.4852	84.9609	84.764	84.9609	84.6256
87.8906	84.5373	87.8906	84.4442	87.8906	84.643	87.8906	84.365	87.8906	84.7594	87.8906	84.3001	87.8906	84.8833	87.8906	84.2493	87.8906	85.0109	87.8906	84.2124	87.8906	85.1374	87.8906	84.1887	87.8906	85.2574	87.8906	84.1781	87.8906	85.3655	87.8906	84.1803	87.8906	85.4564	87.8906	84.1956	87.8906	85.5253	87.8906	84.2248	87.8906	85.5682	87.8906	84.2685	87.8906	85.5826	87.8906	84.3275	87.8906	85.5674	87.8906	84.4026	87.8906	85.5228	87.8906	84.4936	87.8906	85.4511	87.8906	84.5998	87.8906	85.3559	87.8906	84.7189	87.8906	85.2419	87.8906	84.8478	87.8906	85.1151	87.8906	84.9817
90.8203	85.1552	90.8203	85.0608	90.8203	85.2617	90.8203	84.9797	90.8203	85.378	90.8203	84.9126	90.8203	85.5009	90.8203	84.8592	90.8203	85.626	90.8203	84.8189	90.8203	85.7484	90.8203	84.7911	90.8203	85.8627	90.8203	84.7754	90.8203	85.9633	90.8203	84.7714	90.8203	86.045	90.8203	84.7792	90.8203	86.1033	90.8203	84.7996	90.8203	86.1346	90.8203	84.8335	90.8203	86.1368	90.8203	84.8819	90.8203	86.1095	90.8203	84.9459	90.8203	86.0535	90.8203	85.0261	90.8203	85.9718	90.8203	85.1223	90.8203	85.8684	90.8203	85.2331	90.8203	85.7489	90.8203	85.3558	90.8203	85.6194	90.8203	85.4864
95.2148	85.5812	95.2148	85.4819	95.2148	85.6922	95.2148	85.3959	95.2148	85.8121	95.2148	85.3238	95.2148	85.9374	95.2148	85.2655	95.2148	86.0634	95.2148	85.2204	95.2148	86.1847	95.2148	85.1877	95.2148	86.2958	95.2148	85.1668	95.2148	86.3909	95.2148	85.1572	95.2148	86.465	95.2148	85.1589	95.2148	86.5136	95.2148	85.1725	95.2148	86.5338	95.2148	85.1989	95.2148	86.5239	95.2148	85.2394	95.2148	86.4839	95.2148	85.2954	95.2148	86.4155	95.2148	85.3679	95.2148	86.3223	95.2148	85.4573	95.2148	86.2092	95.2148	85.5628	95.2148	86.082	95.2148	85.6824	95.2148	85.9475	95.2148	85.8123
98.1445	85.7915	98.1445	85.6902	98.1445	85.9043	98.1445	85.6021	98.1445	86.0257	98.1445	85.528	98.1445	86.1519	98.1445	85.4677	98.1445	86.2778	98.1445	85.4207	98.1445	86.398	98.1445	85.3861	98.1445	86.5068	98.1445	85.3631	98.1445	86.5984	98.1445	85.3509	98.1445	86.6678	98.1445	85.3496	98.1445	86.7107	98.1445	85.3596	98.1445	86.7243	98.1445	85.3817	98.1445	86.7073	98.1445	85.4175	98.1445	86.6601	98.1445	85.4683	98.1445	86.5849	98.1445	85.5355	98.1445	86.4856	98.1445	85.6199	98.1445	86.3675	98.1445	85.721	98.1445	86.2369	98.1445	85.8373	98.1445	86.1006	98.1445	85.9655
101.074	86.0491	101.074	85.9461	101.074	86.163	101.074	85.856	101.074	86.2848	101.074	85.7796	101.074	86.4104	101.074	85.7168	101.074	86.5346	101.074	85.667	101.074	86.652	101.074	85.6293	101.074	86.7566	101.074	85.6027	101.074	86.8428	101.074	85.5865	101.074	86.9055	101.074	85.5805	101.074	86.9408	101.074	85.5851	101.074	86.9463	101.074	85.6013	101.074	86.9207	101.074	85.6305	101.074	86.8652	101.074	85.6745	101.074	86.7822	101.074	85.7349	101.074	86.6761	101.074	85.8129	101.074	86.5527	101.074	85.9086	101.074	86.4186	101.074	86.0206	101.074	86.2809	101.074	86.1462
105.469	86.284	105.469	86.1785	105.469	86.4005	105.469	86.0861	105.469	86.5246	105.469	86.0076	105.469	86.652	105.469	85.9431	105.469	86.7772	105.469	85.8918	105.469	86.8944	105.469	85.8525	105.469	86.9975	105.469	85.8242	105.469	87.0806	105.469	85.8059	105.469	87.1388	105.469	85.7971	105.469	87.1681	105.469	85.7982	105.469	87.1663	105.469	85.81	105.469	87.1327	105.469	85.834	105.469	87.0686	105.469	85.8722	105.469	86.9773	105.469	85.9265	105.469	86.8636	105.469	85.9986	105.469	86.7339	105.469	86.089	105.469	86.5954	105.469	86.1972	105.469	86.4553	105.469	86.3207
108.398	86.2412	108.398	86.134	108.398	86.3606	108.398	86.0411	108.398	86.4886	108.398	85.9637	108.398	86.6204	108.398	85.9015	108.398	86.7504	108.398	85.8536	108.398	86.8721	108.398	85.8186	108.398	86.9794	108.398	85.7951	108.398	87.066	108.398	85.7818	108.398	87.1269	108.398	85.7779	108.398	87.1582	108.398	85.7833	108.398	87.1574	108.398	85.7987	108.398	87.1242	108.398	85.8254	108.398	87.0599	108.398	85.8653	108.398	86.9682	108.398	85.9203	108.398	86.854	108.398	85.9923	108.398	86.7239	108.398	86.082	108.398	86.5854	108.398	86.1892	108.398	86.4457	108.398	86.3118
112.793	86.5027	112.793	86.3914	112.793	86.626	112.793	86.2946	112.793	86.7571	112.793	86.2137	112.793	86.891	112.793	86.1487	112.793	87.0213	112.793	86.0985	112.793	87.1415	112.793	86.0617	112.793	87.245	112.793	86.0363	112.793	87.3258	112.793	86.0209	112.793	87.3787	112.793	86.0142	112.793	87.4003	112.793	86.0158	112.793	87.3885	112.793	86.0263	112.793	87.3436	112.793	86.0468	112.793	87.2677	112.793	86.0793	112.793	87.1652	112.793	86.1262	112.793	87.0418	112.793	86.1897	112.793	86.9049	112.793	86.2715	112.793	86.7623	112.793	86.372	112.793	86.6216	112.793	86.4898
117.188	86.4212	117.188	86.2951	117.188	86.558	117.188	86.183	117.188	86.7008	117.188	86.0868	117.188	86.8437	117.188	86.0073	117.188	86.9801	117.188	85.9437	117.188	87.1031	117.188	85.8947	117.188	87.2058	117.188	85.8586	117.188	87.2824	117.188	85.8338	117.188	87.3277	117.188	85.819	117.188	87.3384	117.188	85.8136	117.188	87.3131	117.188	85.8181	117.188	87.2524	117.188	85.8337	117.188	87.1591	117.188	85.8626	117.188	87.0381	117.188	85.9073	117.188	86.8963	117.188	85.9706	117.188	86.7416	117.188	86.0544	117.188	86.5828	117.188	86.1598	117.188	86.4283	117.188	86.2855
120.117	86.5124	120.117	86.3846	120.117	86.6501	120.117	86.2702	120.117	86.793	120.117	86.1712	120.117	86.9353	120.117	86.0884	120.117	87.0705	120.117	86.0213	120.117	87.1918	120.117	85.9688	120.117	87.2925	120.117	85.9294	120.117	87.3665	120.117	85.9014	120.117	87.409	120.117	85.8837	120.117	87.4167	120.117	85.8758	120.117	87.388	120.117	85.878	120.117	87.3239	120.117	85.8917	120.117	87.227	120.117	85.9189	120.117	87.1026	120.117	85.9622	120.117	86.9575	120.117	86.0244	120.117	86.8	120.117	86.1076	120.117	86.6389	120.117	86.2128	120.117	86.4828	120.117	86.3389
124.512	86.7115	124.512	86.5843	124.512	86.8494	124.512	86.4712	124.512	86.9931	124.512	86.3742	124.512	87.1365	124.512	86.2939	124.512	87.2729	124.512	86.2298	124.512	87.3952	124.512	86.1805	124.512	87.4965	124.512	86.1441	124.512	87.5705	124.512	86.1189	124.512	87.6124	124.512	86.1033	124.512	87.6188	124.512	86.0966	124.512	87.5883	124.512	86.099	124.512	87.5219	124.512	86.1116	124.512	87.4227	124.512	86.1367	124.512	87.2962	124.512	86.1768	124.512	87.1497	124.512	86.235	124.512	86.9918	124.512	86.3137	124.512	86.8314	124.512	86.4144	124.512	86.6773	124.512	86.5365
128.906	86.5909	128.906	86.4599	128.906	86.7321	128.906	86.3428	128.906	86.8784	128.906	86.2419	128.906	87.0235	128.906	86.1578	128.906	87.1605	128.906	86.0903	128.906	87.2821	128.906	86.0378	128.906	87.3813	128.906	85.9986	128.906	87.4519	128.906	85.9707	128.906	87.4891	128.906	85.9525	128.906	87.4895	128.906	85.9432	128.906	87.4522	128.906	85.9428	128.906	87.3785	128.906	85.9525	128.906	87.2719	128.906	85.9744	128.906	87.1383	128.906	86.0112	128.906	86.9855	128.906	86.0661	128.906	86.8224	128.906	86.1419	128.906	86.6585	128.906	86.2404	128.906	86.5024	128.906	86.3614
133.301	86.5691	133.301	86.4424	133.301	86.7058	133.301	86.3291	133.301	86.8472	133.301	86.2315	133.301	86.9872	133.301	86.1502	133.301	87.1186	133.301	86.0845	133.301	87.2341	133.301	86.0329	133.301	87.3269	133.301	85.9934	133.301	87.3906	133.301	85.9638	133.301	87.4205	133.301	85.9425	133.301	87.4135	133.301	85.9286	133.301	87.3689	133.301	85.9221	133.301	87.2884	133.301	85.9242	133.301	87.1759	133.301	85.9371	133.301	87.038	133.301	85.964	133.301	86.8828	133.301	86.0083	133.301	86.7196	133.301	86.0734	133.301	86.5582	133.301	86.1616	133.301	86.4071	133.301	86.2734
139.16	86.3659	139.16	86.2358	139.16	86.5072	139.16	86.121	139.16	86.654	139.16	86.0239	139.16	86.7994	139.16	85.9451	139.16	86.9359	139.16	85.8836	139.16	87.0555	139.16	85.8375	139.16	87.1509	139.16	85.8042	139.16	87.2156	139.16	85.7808	139.16	87.2448	139.16	85.7652	139.16	87.2355	139.16	85.7557	139.16	87.1872	139.16	85.7519	139.16	87.102	139.16	85.7548	139.16	86.9846	139.16	85.7665	139.16	86.8419	139.16	85.7902	139.16	86.6831	139.16	85.8298	139.16	86.5179	139.16	85.8892	139.16	86.3565	139.16	85.9714	139.16	86.2075	139.16	86.0779
143.555	86.2612	143.555	86.125	143.555	86.4084	143.555	86.0045	143.555	86.5608	143.555	85.9024	143.555	86.7109	143.555	85.8195	143.555	86.851	143.555	85.7552	143.555	86.973	143.555	85.7075	143.555	87.0694	143.555	85.6735	143.555	87.1336	143.555	85.6504	143.555	87.1608	143.555	85.6355	143.555	87.1482	143.555	85.627	143.555	87.0954	143.555	85.6242	143.555	87.0048	143.555	85.6277	143.555	86.8813	143.555	85.6395	143.555	86.7325	143.555	85.6629	143.555	86.5678	143.555	85.7019	143.555	86.3975	143.555	85.7606	143.555	86.2321	143.555	85.8424	143.555	86.0804	143.555	85.9493
147.949	86.2543	147.949	86.1176	147.949	86.4018	147.949	85.9963	147.949	86.5538	147.949	85.8933	147.949	86.703	147.949	85.8097	147.949	86.8415	147.949	85.7449	147.949	86.9613	147.949	85.697	147.949	87.0547	147.949	85.6632	147.949	87.1154	147.949	85.6407	147.949	87.1386	147.949	85.6267	147.949	87.1217	147.949	85.619	147.949	87.0647	147.949	85.6169	147.949	86.9703	147.949	85.6206	147.949	86.8439	147.949	85.6319	147.949	86.6934	147.949	85.6538	147.949	86.5285	147.949	85.6901	147.949	86.3598	147.949	85.7451	147.949	86.1975	147.949	85.8223	147.949	86.0502	147.949	85.9241
153.809	86.2797	153.809	86.1334	153.809	86.4357	153.809	86.0021	153.809	86.5944	153.809	85.8896	153.809	86.7476	153.809	85.7974	153.809	86.8867	153.809	85.7252	153.809	87.0031	153.809	85.6711	153.809	87.0888	153.809	85.632	153.809	87.1372	153.809	85.6047	153.809	87.1434	153.809	85.5856	153.809	87.1054	153.809	85.5722	153.809	87.0239	153.809	85.5626	153.809	86.9029	153.809	85.5568	153.809	86.7496	153.809	85.5561	153.809	86.5741	153.809	85.5635	153.809	86.3884	153.809	85.5834	153.809	86.205	153.809	85.6211	153.809	86.0356	153.809	85.6821	153.809	85.889	153.809	85.7707
159.668	86.0322	159.668	85.8856	159.668	86.1907	159.668	85.7565	159.668	86.3536	159.668	85.6486	159.668	86.5122	159.668	85.563	159.668	86.657	159.668	85.4988	159.668	86.7787	159.668	85.4533	159.668	86.8688	159.668	85.4226	159.668	86.9199	159.668	85.4022	159.668	86.9269	159.668	85.388	159.668	86.8874	159.668	85.3768	159.668	86.8021	159.668	85.3666	159.668	86.6752	159.668	85.357	159.668	86.5147	159.668	85.3498	159.668	86.3314	159.668	85.3484	159.668	86.1383	159.668	85.358	159.668	85.9494	159.668	85.3851	159.668	85.7771	159.668	85.4364	159.668	85.6313	159.668	85.5174
165.527	85.667	165.527	85.5029	165.527	85.8407	165.527	85.3553	165.527	86.0156	165.527	85.2293	165.527	86.1826	165.527	85.1274	165.527	86.3322	165.527	85.0499	165.527	86.4554	165.527	84.9947	165.527	86.5441	165.527	84.9581	165.527	86.5914	165.527	84.9354	165.527	86.5929	165.527	84.9217	165.527	86.5464	165.527	84.9131	165.527	86.4532	165.527	84.9067	165.527	86.3176	165.527	84.9017	165.527	86.1479	165.527	84.8993	165.527	85.955	165.527	84.9028	165.527	85.7522	165.527	84.9175	165.527	85.5536	165.527	84.9501	165.527	85.3721	165.527	85.0076	165.527	85.2175	165.527	85.0957
171.387	85.7063	171.387	85.5546	171.387	85.8688	171.387	85.4197	171.387	86.034	171.387	85.3059	171.387	86.1928	171.387	85.2149	171.387	86.3353	171.387	85.146	171.387	86.452	171.387	85.0967	171.387	86.5342	171.387	85.0631	171.387	86.5748	171.387	85.0409	171.387	86.569	171.387	85.0255	171.387	86.515	171.387	85.0135	171.387	86.4146	171.387	85.0024	171.387	86.2733	171.387	84.9916	171.387	86.1004	171.387	84.982	171.387	85.9082	171.387	84.9768	171.387	85.7106	171.387	84.9808	171.387	85.522	171.387	85.0003	171.387	85.3545	171.387	85.0422	171.387	85.2169	171.387	85.113
177.246	85.4264	177.246	85.2584	177.246	85.6066	177.246	85.1106	177.246	85.789	177.246	84.9889	177.246	85.9628	177.246	84.896	177.246	86.1172	177.246	84.8315	177.246	86.2419	177.246	84.7921	177.246	86.3278	177.246	84.7726	177.246	86.3679	177.246	84.7666	177.246	86.3577	177.246	84.7678	177.246	86.2961	177.246	84.7709	177.246	86.1855	177.246	84.7719	177.246	86.0325	177.246	84.7691	177.246	85.8478	177.246	84.763	177.246	85.645	177.246	84.7564	177.246	85.4398	177.246	84.7546	177.246	85.2477	177.246	84.7649	177.246	85.0815	177.246	84.7957	177.246	84.9497	177.246	84.8552
183.105	85.4383	183.105	85.2588	183.105	85.6275	183.105	85.0976	183.105	85.816	183.105	84.9616	183.105	85.9929	183.105	84.8544	183.105	86.1473	183.105	84.7764	183.105	86.2689	183.105	84.7252	183.105	86.3489	183.105	84.6959	183.105	86.3803	183.105	84.6822	183.105	86.3587	183.105	84.6776	183.105	86.2831	183.105	84.6762	183.105	86.1566	183.105	84.6737	183.105	85.9863	183.105	84.6678	183.105	85.7838	183.105	84.6585	183.105	85.5638	183.105	84.6484	183.105	85.3435	183.105	84.6427	183.105	85.1393	183.105	84.6491	183.105	84.965	183.105	84.6764	183.105	84.829	183.105	84.734
188.965	85.4025	188.965	85.2152	188.965	85.5994	188.965	85.0472	188.965	85.7952	188.965	84.9059	188.965	85.9782	188.965	84.7955	188.965	86.1371	188.965	84.7168	188.965	86.2615	188.965	84.6672	188.965	86.3422	188.965	84.6416	188.965	86.3721	188.965	84.633	188.965	86.3468	188.965	84.6344	188.965	86.2658	188.965	84.6389	188.965	86.1322	188.965	84.6418	188.965	85.9542	188.965	84.6399	188.965	85.7439	188.965	84.6329	188.965	85.5175	188.965	84.6232	188.965	85.2927	188.965	84.6158	188.965	85.0868	188.965	84.6183	188.965	84.9138	188.965	84.6404	188.965	84.7817	188.965	84.6921
196.289	85.1798	196.289	84.9802	196.289	85.3898	196.289	84.8025	196.289	85.5977	196.289	84.6558	196.289	85.791	196.289	84.5458	196.289	85.9576	196.289	84.474	196.289	86.0866	196.289	84.4377	196.289	86.1687	196.289	84.4305	196.289	86.1971	196.289	84.444	196.289	86.1679	196.289	84.4686	196.289	86.0809	196.289	84.4959	196.289	85.9406	196.289	84.519	196.289	85.7562	196.289	84.5333	196.289	85.5417	196.289	84.5372	196.289	85.3147	196.289	84.5323	196.289	85.0946	196.289	84.523	196.289	84.8991	196.289	84.5173	196.289	84.7416	196.289	84.5254	196.289	84.6286	196.289	84.5589
203.613	85.0617	203.613	84.8407	203.613	85.2864	203.613	84.6361	203.613	85.5018	203.613	84.4588	203.613	85.6951	203.613	84.3168	203.613	85.8545	203.613	84.2142	203.613	85.9693	203.613	84.1503	203.613	86.0306	203.613	84.1201	203.613	86.0317	203.613	84.1153	203.613	85.9692	203.613	84.1263	203.613	85.8438	203.613	84.1433	203.613	85.6609	203.613	84.158	203.613	85.432	203.613	84.1643	203.613	85.1738	203.613	84.1592	203.613	84.9075	203.613	84.1431	203.613	84.6561	203.613	84.12	203.613	84.4402	203.613	84.098	203.613	84.2745	203.613	84.0887	203.613	84.1644	203.613	84.1061
210.938	84.9312	210.938	84.703	210.938	85.1598	210.938	84.4879	210.938	85.3755	210.938	84.2977	210.938	85.5655	210.938	84.1413	210.938	85.7179	210.938	84.0233	210.938	85.8218	210.938	83.9439	210.938	85.8679	210.938	83.8982	210.938	85.8491	210.938	83.878	210.938	85.7612	210.938	83.8732	210.938	85.6043	210.938	83.8731	210.938	85.3839	210.938	83.8688	210.938	85.1122	210.938	83.8534	210.938	84.8079	210.938	83.8234	210.938	84.4958	210.938	83.7791	210.938	84.2039	210.938	83.7251	210.938	83.9583	210.938	83.6711	210.938	83.7773	210.938	83.6313	210.938	83.6677	210.938	83.624
218.262	84.9488	218.262	84.6971	218.262	85.2025	218.262	84.4609	218.262	85.4443	218.262	84.2527	218.262	85.6614	218.262	84.0827	218.262	85.8414	218.262	83.9562	218.262	85.973	218.262	83.8736	218.262	86.046	218.262	83.8297	218.262	86.0521	218.262	83.8152	218.262	85.9856	218.262	83.8182	218.262	85.8445	218.262	83.8269	218.262	85.6323	218.262	83.8307	218.262	85.3589	218.262	83.822	218.262	85.0415	218.262	83.7971	218.262	84.7045	218.262	83.7567	218.262	84.3773	218.262	83.7069	218.262	84.0898	218.262	83.6596	218.262	83.866	218.262	83.632	218.262	83.7183	218.262	83.6449
225.586	84.7183	225.586	84.4365	225.586	85.0016	225.586	84.1711	225.586	85.2723	225.586	83.9364	225.586	85.517	225.586	83.7447	225.586	85.7235	225.586	83.6035	225.586	85.8806	225.586	83.5147	225.586	85.9779	225.586	83.4734	225.586	86.0067	225.586	83.4691	225.586	85.9608	225.586	83.4886	225.586	85.8375	225.586	83.5175	225.586	85.639	225.586	83.5433	225.586	85.3738	225.586	83.5569	225.586	85.0578	225.586	83.5536	225.586	84.7138	225.586	83.5343	225.586	84.3707	225.586	83.5057	225.586	84.059	225.586	83.4808	225.586	83.8052	225.586	83.4784	225.586	83.625	225.586	83.5199
232.91	84.5872	232.91	84.2897	232.91	84.873	232.91	83.9937	232.91	85.1354	232.91	83.7137	232.91	85.3642	232.91	83.4641	232.91	85.5502	232.91	83.2571	232.91	85.6846	232.91	83.1003	232.91	85.7595	232.91	82.995	232.91	85.7681	232.91	82.936	232.91	85.7055	232.91	82.9127	232.91	85.5701	232.91	82.9124	232.91	85.3642	232.91	82.9223	232.91	85.0958	232.91	82.9326	232.91	84.7785	232.91	82.938	232.91	84.4324	232.91	82.9389	232.91	84.0818	232.91	82.9415	232.91	83.7533	232.91	82.9576	232.91	83.4707	232.91	83.0034	232.91	83.2499	232.91	83.0961
241.699	84.2268	241.699	83.9689	241.699	84.4737	241.699	83.7116	241.699	84.6986	241.699	83.4668	241.699	84.8913	241.699	83.2459	241.699	85.0417	241.699	83.0584	241.699	85.1404	241.699	82.9103	241.699	85.1784	241.699	82.8028	241.699	85.1486	241.699	82.7324	241.699	85.0469	241.699	82.6914	241.699	84.8732	241.699	82.6701	241.699	84.6333	241.699	82.6584	241.699	84.3394	241.699	82.6479	241.699	84.0107	241.699	82.6334	241.699	83.6719	241.699	82.6133	241.699	83.3503	241.699	82.591	241.699	83.0711	241.699	82.5745	241.699	82.8523	241.699	82.5767	241.699	82.7012	241.699	82.6135
250.488	84.3287	250.488	84.0571	250.488	84.5771	250.488	83.773	250.488	84.7926	250.488	83.4884	250.488	84.9667	250.488	83.2161	250.488	85.0911	250.488	82.9686	250.488	85.1585	250.488	82.7569	250.488	85.1624	250.488	82.5881	250.488	85.0982	250.488	82.465	250.488	84.9639	250.488	82.3849	250.488	84.7622	250.488	82.3406	250.488	84.5007	250.488	82.3225	250.488	84.1935	250.488	82.3206	250.488	83.86	250.488	82.3265	250.488	83.5238	250.488	82.3352	250.488	83.2092	250.488	82.3462	250.488	82.937	250.488	82.3639	250.488	82.7203	250.488	82.3972	250.488	82.5627	250.488	82.4589
259.277	84.5206	259.277	84.2823	259.277	84.7414	259.277	84.0373	259.277	84.9337	259.277	83.7965	259.277	85.0873	259.277	83.5697	259.277	85.1922	259.277	83.3653	259.277	85.2394	259.277	83.1889	259.277	85.2211	259.277	83.0436	259.277	85.1321	259.277	82.9291	259.277	84.9709	259.277	82.8426	259.277	84.7412	259.277	82.7791	259.277	84.4536	259.277	82.7326	259.277	84.1261	259.277	82.697	259.277	83.7828	259.277	82.6669	259.277	83.4516	259.277	82.6392	259.277	83.1588	259.277	82.6133	259.277	82.9237	259.277	82.5923	259.277	82.755	259.277	82.5833	259.277	82.6501	259.277	82.5978
268.066	84.2271	268.066	83.9846	268.066	84.4683	268.066	83.7578	268.066	84.6919	268.066	83.5622	268.066	84.8828	268.066	83.41	268.066	85.028	268.066	83.3079	268.066	85.1167	268.066	83.2558	268.066	85.1408	268.066	83.2478	268.066	85.0954	268.066	83.2735	268.066	84.9807	268.066	83.3204	268.066	84.8027	268.066	83.376	268.066	84.5748	268.066	83.4295	268.066	84.3175	268.066	83.4724	268.066	84.0565	268.066	83.4991	268.066	83.8187	268.066	83.5066	268.066	83.6265	268.066	83.4955	268.066	83.4927	268.066	83.4693	268.066	83.4184	268.066	83.4357	268.066	83.3945	268.066	83.4058
276.855	83.7889	276.855	83.4475	276.855	84.1063	276.855	83.1063	276.855	84.3804	276.855	82.7924	276.855	84.596	276.855	82.5327	276.855	84.7419	276.855	82.3485	276.855	84.8098	276.855	82.2504	276.855	84.7942	276.855	82.2353	276.855	84.6934	276.855	82.2886	276.855	84.511	276.855	82.3885	276.855	84.2575	276.855	82.5113	276.855	83.9524	276.855	82.6361	276.855	83.6244	276.855	82.7464	276.855	83.3089	276.855	82.8304	276.855	83.041	276.855	82.8815	276.855	82.8472	276.855	82.8972	276.855	82.7376	276.855	82.8796	276.855	82.7043	276.855	82.8358	276.855	82.7266	276.855	82.7785
287.109	83.9099	287.109	83.546	287.109	84.2356	287.109	83.1666	287.109	84.5064	287.109	82.8002	287.109	84.7102	287.109	82.4784	287.109	84.838	287.109	82.2312	287.109	84.8834	287.109	82.0793	287.109	84.8421	287.109	82.028	287.109	84.7132	287.109	82.0665	287.109	84.5012	287.109	82.1714	287.109	84.2186	287.109	82.3148	287.109	83.8881	287.109	82.4699	287.109	83.5424	287.109	82.6149	287.109	83.2209	287.109	82.7342	287.109	82.9607	287.109	82.8182	287.109	82.7862	287.109	82.8625	287.109	82.7015	287.109	82.8673	287.109	82.6913	287.109	82.8382	287.109	82.729	287.109	82.7862
297.363	84.5883	297.363	84.2341	297.363	84.8957	297.363	83.8512	297.363	85.1425	297.363	83.464	297.363	85.3186	297.363	83.1013	297.363	85.4154	297.363	82.7937	297.363	85.4255	297.363	82.5668	297.363	85.3419	297.363	82.435	297.363	85.1601	297.363	82.3968	297.363	84.8801	297.363	82.4359	297.363	84.5103	297.363	82.5269	297.363	84.0719	297.363	82.6419	297.363	83.6023	297.363	82.7553	297.363	83.1538	297.363	82.8468	297.363	82.7843	297.363	82.9017	297.363	82.5397	297.363	82.9108	297.363	82.4352	297.363	82.871	297.363	82.451	297.363	82.7859	297.363	82.5445	297.363	82.6688
307.617	84.3916	307.617	84.0475	307.617	84.6966	307.617	83.6844	307.617	84.9475	307.617	83.3279	307.617	85.1326	307.617	83.0078	307.617	85.2427	307.617	82.7543	307.617	85.2695	307.617	82.5911	307.617	85.2061	307.617	82.5288	307.617	85.0486	307.617	82.5614	307.617	84.7984	307.617	82.6682	307.617	84.4664	307.617	82.8207	307.617	84.077	307.617	82.989	307.617	83.67	307.617	83.1471	307.617	83.2979	307.617	83.2746	307.617	83.0138	307.617	83.3573	307.617	82.8534	307.617	83.3866	307.617	82.8209	307.617	83.3594	307.617	82.8897	307.617	83.2793	307.617	83.0165	307.617	83.1577
319.336	84.2444	319.336	83.8399	319.336	84.5909	319.336	83.3969	319.336	84.8661	319.336	82.9424	319.336	85.0596	319.336	82.5116	319.336	85.1625	319.336	82.1443	319.336	85.1654	319.336	81.8772	319.336	85.0586	319.336	81.733	319.336	84.833	319.336	81.712	319.336	84.4841	319.336	81.7928	319.336	84.0163	319.336	81.9395	319.336	83.4511	319.336	82.1128	319.336	82.8344	319.336	82.2774	319.336	82.2408	319.336	82.4052	319.336	81.7637	319.336	82.4756	319.336	81.4831	319.336	82.475	319.336	81.4246	319.336	82.3963	319.336	81.5475	319.336	82.2409	319.336	81.7727	319.336	82.0225
329.59	84.4244	329.59	84.0107	329.59	84.7751	329.59	83.5506	329.59	85.0511	329.59	83.0682	329.59	85.2431	329.59	82.5962	329.59	85.3425	329.59	82.1744	329.59	85.3396	329.59	81.843	329.59	85.2237	329.59	81.632	329.59	84.9846	329.59	81.5506	329.59	84.6154	329.59	81.5835	329.59	84.1183	329.59	81.6967	329.59	83.5114	329.59	81.8488	329.59	82.8378	329.59	82.0004	329.59	82.1726	329.59	82.1197	329.59	81.6153	329.59	82.1832	329.59	81.2593	329.59	82.1754	329.59	81.1443	329.59	82.0887	329.59	81.2351	329.59	81.925	329.59	81.4489	329.59	81.6997
341.309	84.6811	341.309	84.2726	341.309	85.0264	341.309	83.8162	341.309	85.2981	341.309	83.3347	341.309	85.4881	341.309	82.859	341.309	85.5885	341.309	82.4266	341.309	85.5905	341.309	82.0763	341.309	85.4834	341.309	81.8374	341.309	85.2561	341.309	81.7205	341.309	84.8999	341.309	81.7131	341.309	84.4134	341.309	81.7845	341.309	83.8088	341.309	81.8961	341.309	83.1211	341.309	82.01	341.309	82.4158	341.309	82.095	341.309	81.788	341.309	82.1273	341.309	81.339	341.309	82.0913	341.309	81.1307	341.309	81.9802	341.309	81.1508	341.309	81.798	341.309	81.3256	341.309	81.5652
353.027	84.8514	353.027	84.434	353.027	85.1845	353.027	83.942	353.027	85.4285	353.027	83.3924	353.027	85.5799	353.027	82.814	353.027	85.6342	353.027	82.2486	353.027	85.5842	353.027	81.7488	353.027	85.4195	353.027	81.3678	353.027	85.1268	353.027	81.1416	353.027	84.6934	353.027	81.0732	353.027	84.1119	353.027	81.1315	353.027	83.3889	353.027	81.2642	353.027	82.5565	353.027	81.4159	353.027	81.6883	353.027	81.5392	353.027	80.9071	353.027	81.5983	353.027	80.3603	353.027	81.5687	353.027	80.1454	353.027	81.4368	353.027	80.2417	353.027	81.2021	353.027	80.5319	353.027	80.8836
366.211	85.1618	366.211	84.8113	366.211	85.4413	366.211	84.3976	366.211	85.6451	366.211	83.9345	366.211	85.7695	366.211	83.4441	366.211	85.8092	366.211	82.958	366.211	85.7562	366.211	82.5154	366.211	85.5987	366.211	82.1566	366.211	85.3231	366.211	81.9114	366.211	84.9169	366.211	81.7878	366.211	84.3742	366.211	81.7687	366.211	83.704	366.211	81.8181	366.211	82.9405	366.211	81.8931	366.211	82.154	366.211	81.9537	366.211	81.4523	366.211	81.9676	366.211	80.9553	366.211	81.9126	366.211	80.7376	366.211	81.7771	366.211	80.7831	366.211	81.5625	366.211	81.002	366.211	81.2886
379.395	84.8904	379.395	84.5519	379.395	85.1532	379.395	84.1439	379.395	85.3363	379.395	83.6777	379.395	85.436	379.395	83.1719	379.395	85.4471	379.395	82.6554	379.395	85.3611	379.395	82.168	379.395	85.1664	379.395	81.7563	379.395	84.8488	379.395	81.4632	379.395	84.3958	379.395	81.3122	379.395	83.803	379.395	81.2967	379.395	83.0845	379.395	81.3822	379.395	82.2863	379.395	81.5188	379.395	81.4992	379.395	81.6555	379.395	80.8543	379.395	81.7493	379.395	80.4778	379.395	81.7683	379.395	80.4154	379.395	81.6922	379.395	80.6022	379.395	81.5139	379.395	80.9154	379.395	81.2433
392.578	85.0197	392.578	84.6842	392.578	85.2673	392.578	84.2622	392.578	85.4267	392.578	83.7592	392.578	85.497	392.578	83.1879	392.578	85.4747	392.578	82.5738	392.578	85.3523	392.578	81.959	392.578	85.1185	392.578	81.403	392.578	84.7591	392.578	80.9721	392.578	84.2615	392.578	80.7167	392.578	83.6209	392.578	80.6467	392.578	82.8518	392.578	80.7255	392.578	82.0013	392.578	80.8873	392.578	81.1623	392.578	81.0626	392.578	80.4695	392.578	81.1945	392.578	80.0531	392.578	81.2436	392.578	79.9618	392.578	81.1878	392.578	80.1307	392.578	81.021	392.578	80.4343	392.578	80.7566
405.762	84.8113	405.762	84.4664	405.762	85.0907	405.762	84.0644	405.762	85.2965	405.762	83.616	405.762	85.4203	405.762	83.1357	405.762	85.4522	405.762	82.6446	405.762	85.3792	405.762	82.1729	405.762	85.1848	405.762	81.7597	405.762	84.8503	405.762	81.4463	405.762	84.3579	405.762	81.2634	405.762	83.6991	405.762	81.2168	405.762	82.8867	405.762	81.283	405.762	81.9747	405.762	81.4165	405.762	81.0789	405.762	81.5643	405.762	80.3749	405.762	81.6775	405.762	80.0259	405.762	81.7167	405.762	80.0658	405.762	81.6542	405.762	80.376	405.762	81.4743	405.762	80.7887	405.762	81.1774
420.41	85.1	420.41	84.7419	420.41	85.3652	420.41	84.294	420.41	85.5358	420.41	83.7636	420.41	85.61	420.41	83.1651	420.41	85.5838	420.41	82.5252	420.41	85.449	420.41	81.887	420.41	85.1923	420.41	81.311	420.41	84.7959	420.41	80.8651	420.41	84.2412	420.41	80.601	420.41	83.5169	420.41	80.5287	420.41	82.6318	420.41	80.6103	420.41	81.6352	420.41	80.7783	420.41	80.6417	420.41	80.961	420.41	79.8364	420.41	81.0991	420.41	79.4062	420.41	81.1494	420.41	79.4063	420.41	81.0839	420.41	79.7164	420.41	80.8889	420.41	80.151	420.41	80.5677
435.059	85.1756	435.059	84.8515	435.059	85.41	435.059	84.4408	435.059	85.5532	435.059	83.9499	435.059	85.6033	435.059	83.3914	435.059	85.5565	435.059	82.7881	435.059	85.4046	435.059	82.1779	435.059	85.1334	435.059	81.6155	435.059	84.7238	435.059	81.1655	435.059	84.1558	435.059	80.8823	435.059	83.4165	435.059	80.7842	435.059	82.5151	435.059	80.8428	435.059	81.5051	435.059	80.9953	435.059	80.5107	435.059	81.1698	435.059	79.7295	435.059	81.3033	435.059	79.3522	435.059	81.3486	435.059	79.4189	435.059	81.2743	435.059	79.7895	435.059	81.0644	435.059	80.2705	435.059	80.7203
451.172	84.574	451.172	84.2159	451.172	84.8516	451.172	83.783	451.172	85.0454	451.172	83.2842	451.172	85.1521	451.172	82.7342	451.172	85.167	451.172	82.1557	451.172	85.0798	451.172	81.5833	451.172	84.8735	451.172	81.0648	451.172	84.5234	451.172	80.6545	451.172	84.0005	451.172	80.3967	451.172	83.2779	451.172	80.3051	451.172	82.3422	451.172	80.3533	451.172	81.2143	451.172	80.4843	451.172	79.9878	451.172	80.6304	451.172	78.8766	451.172	80.7288	451.172	78.1933	451.172	80.7279	451.172	78.1338	451.172	80.589	451.172	78.5715	451.172	80.287	451.172	79.2082	451.172	79.8161
465.82	84.4782	465.82	84.126	465.82	84.7391	465.82	83.6855	465.82	84.9087	465.82	83.1641	465.82	84.9876	465.82	82.5766	465.82	84.9752	465.82	81.9489	465.82	84.8667	465.82	81.3226	465.82	84.6517	465.82	80.7563	465.82	84.3138	465.82	80.3164	465.82	83.8344	465.82	80.054	465.82	83.198	465.82	79.9791	465.82	82.4012	465.82	80.0522	465.82	81.4645	465.82	80.2022	465.82	80.451	465.82	80.3521	465.82	79.4871	465.82	80.4363	465.82	78.7601	465.82	80.4068	465.82	78.442	465.82	80.2344	465.82	78.5583	465.82	79.9117	465.82	78.964	465.82	79.4633
483.398	84.6028	483.398	84.2952	483.398	84.7979	483.398	83.8762	483.398	84.8849	483.398	83.3555	483.398	84.8706	483.398	82.7546	483.398	84.7611	483.398	82.1109	483.398	84.5593	483.398	81.4793	483.398	84.2626	483.398	80.9272	483.398	83.8646	483.398	80.5188	483.398	83.3586	483.398	80.2889	483.398	82.7436	483.398	80.2267	483.398	82.0304	483.398	80.28	483.398	81.2454	483.398	80.3783	483.398	80.4351	483.398	80.4537	483.398	79.6709	483.398	80.452	483.398	79.0527	483.398	80.3368	483.398	78.6908	483.398	80.0921	483.398	78.6491	483.398	79.7289	483.398	78.8914	483.398	79.2963
499.512	84.786	499.512	84.5022	499.512	84.9537	499.512	84.106	499.512	85.0054	499.512	83.608	499.512	84.9428	499.512	83.0298	499.512	84.766	499.512	82.41	499.512	84.4722	499.512	81.808	499.512	84.0541	499.512	81.2989	499.512	83.5038	499.512	80.9536	499.512	82.8227	499.512	80.8065	499.512	82.0389	499.512	80.8363	499.512	81.226	499.512	80.9784	499.512	80.5037	499.512	81.1555	499.512	79.9951	499.512	81.3016	499.512	79.7539	499.512	81.371	499.512	79.7413	499.512	81.3391	499.512	79.8789	499.512	81.2019	499.512	80.106	499.512	80.9745	499.512	80.3866	499.512	80.6891
517.09	85.9596	517.09	85.6778	517.09	86.1058	517.09	85.2527	517.09	86.1262	517.09	84.6829	517.09	86.0285	517.09	83.9818	517.09	85.8159	517.09	83.1899	517.09	85.4837	517.09	82.3898	517.09	85.0179	517.09	81.7084	517.09	84.3999	517.09	81.2806	517.09	83.619	517.09	81.1722	517.09	82.6983	517.09	81.3333	517.09	81.7305	517.09	81.6407	517.09	80.8968	517.09	81.9722	517.09	80.4017	517.09	82.2433	517.09	80.318	517.09	82.4075	517.09	80.5315	517.09	82.4463	517.09	80.8737	517.09	82.3617	517.09	81.2385	517.09	82.1716	517.09	81.5867	517.09	81.904
536.133	86.3997	536.133	86.1192	536.133	86.5476	536.133	85.7026	536.133	86.5654	536.133	85.1464	536.133	86.4531	536.133	84.4515	536.133	86.2066	536.133	83.6324	536.133	85.8139	536.133	82.7355	536.133	85.2528	536.133	81.8627	536.133	84.4929	536.133	81.1778	536.133	83.51	536.133	80.8496	536.133	82.324	536.133	80.9337	536.133	81.0724	536.133	81.3239	536.133	80.0828	536.133	81.8421	536.133	79.7361	536.133	82.34	536.133	80.06	536.133	82.7289	536.133	80.7132	536.133	82.9671	536.133	81.3888	536.133	83.0433	536.133	81.9624	536.133	82.9653	536.133	82.4145	536.133	82.7503
555.176	86.0775	555.176	85.8536	555.176	86.1955	555.176	85.5197	555.176	86.2101	555.176	85.0697	555.176	86.1226	555.176	84.4954	555.176	85.9301	555.176	83.7918	555.176	85.6201	555.176	82.9705	555.176	85.1646	555.176	82.0806	555.176	84.519	555.176	81.2326	555.176	83.6296	555.176	80.5967	555.176	82.4564	555.176	80.331	555.176	81.0256	555.176	80.4627	555.176	79.5373	555.176	80.8629	555.176	78.4714	555.176	81.3494	555.176	78.3108	555.176	81.7787	555.176	78.9305	555.176	82.0661	555.176	79.8206	555.176	82.1713	555.176	80.6523	555.176	82.0807	555.176	81.3172	555.176	81.7946
574.219	85.9883	574.219	85.7274	574.219	86.1029	574.219	85.317	574.219	86.0779	574.219	84.7563	574.219	85.9221	574.219	84.0466	574.219	85.6429	574.219	83.1954	574.219	85.2405	574.219	82.2303	574.219	84.7021	574.219	81.2259	574.219	84.0027	574.219	80.333	574.219	83.1173	574.219	79.7621	574.219	82.0492	574.219	79.6633	574.219	80.8717	574.219	79.9893	574.219	79.7646	574.219	80.5381	574.219	78.9768	574.219	81.1028	574.219	78.6716	574.219	81.5452	574.219	78.8153	574.219	81.7896	574.219	79.2649	574.219	81.8013	574.219	79.881	574.219	81.5756	574.219	80.542	574.219	81.1368
594.727	85.9924	594.727	85.8438	594.727	86.031	594.727	85.5761	594.727	85.9667	594.727	85.177	594.727	85.804	594.727	84.6303	594.727	85.5401	594.727	83.9209	594.727	85.159	594.727	83.0459	594.727	84.6253	594.727	82.0383	594.727	83.8841	594.727	80.9992	594.727	82.8745	594.727	80.1203	594.727	81.5642	594.727	79.6309	594.727	80.0285	594.727	79.6328	594.727	78.5842	594.727	80.0009	594.727	77.7836	594.727	80.5006	594.727	77.875	594.727	80.94	594.727	78.4814	594.727	81.2111	594.727	79.1783	594.727	81.2716	594.727	79.8071	594.727	81.1239	594.727	80.3504	594.727	80.8012
615.234	85.6721	615.234	85.4255	615.234	85.7972	615.234	85.0685	615.234	85.7937	615.234	84.6107	615.234	85.6597	615.234	84.0532	615.234	85.3944	615.234	83.3863	615.234	84.9901	615.234	82.6021	615.234	84.4221	615.234	81.7194	615.234	83.6451	615.234	80.8196	615.234	82.6046	615.234	80.0683	615.234	81.2751	615.234	79.6667	615.234	79.7425	615.234	79.7096	615.234	78.3282	615.234	80.0918	615.234	77.5513	615.234	80.6007	615.234	77.6211	615.234	81.0508	615.234	78.1983	615.234	81.3291	615.234	78.9136	615.234	81.3834	615.234	79.6184	615.234	81.2041	615.234	80.2675	615.234	80.8155
637.207	85.8098	637.207	85.5863	637.207	85.9062	637.207	85.2341	637.207	85.881	637.207	84.7533	637.207	85.7418	637.207	84.1419	637.207	85.4921	637.207	83.3954	637.207	85.1211	637.207	82.5156	637.207	84.5933	637.207	81.5349	637.207	83.846	637.207	80.5502	637.207	82.8035	637.207	79.7448	637.207	81.4175	637.207	79.3293	637.207	79.7566	637.207	79.3832	637.207	78.1627	637.207	79.7704	637.207	77.2424	637.207	80.2577	637.207	77.2335	637.207	80.654	637.207	77.7066	637.207	80.8479	637.207	78.2659	637.207	80.7926	637.207	78.8274	637.207	80.4931	637.207	79.4165	637.207	80.003
659.18	85.3156	659.18	85.101	659.18	85.4226	659.18	84.7896	659.18	85.4154	659.18	84.3875	659.18	85.2941	659.18	83.8854	659.18	85.0604	659.18	83.2561	659.18	84.7058	659.18	82.4695	659.18	84.1967	659.18	81.5243	659.18	83.4662	659.18	80.4945	659.18	82.4269	659.18	79.5739	659.18	81.0146	659.18	79.0424	659.18	79.2936	659.18	79.0656	659.18	77.663	659.18	79.5198	659.18	76.8707	659.18	80.1223	659.18	77.1483	659.18	80.6421	659.18	77.893	659.18	80.9539	659.18	78.6365	659.18	81.0103	659.18	79.2905	659.18	80.8161	659.18	79.8872	659.18	80.4173
682.617	85.3395	682.617	85.0513	682.617	85.4933	682.617	84.6515	682.617	85.5063	682.617	84.1707	682.617	85.386	682.617	83.6252	682.617	85.143	682.617	82.9975	682.617	84.7752	682.617	82.2407	682.617	84.2502	682.617	81.313	682.617	83.4986	682.617	80.233	682.617	82.4304	682.617	79.147	682.617	80.988	682.617	78.3609	682.617	79.2656	682.617	78.1865	682.617	77.7114	682.617	78.6203	682.617	77.0302	682.617	79.3436	682.617	77.2983	682.617	80.0332	682.617	77.9203	682.617	80.5044	682.617	78.5321	682.617	80.683	682.617	79.1059	682.617	80.5643	682.617	79.6764	682.617	80.1975
707.52	86.0182	707.52	85.7541	707.52	86.0844	707.52	85.2988	707.52	85.9699	707.52	84.6856	707.52	85.7031	707.52	83.962	707.52	85.3063	707.52	83.1636	707.52	84.7756	707.52	82.2894	707.52	84.0681	707.52	81.3077	707.52	83.1022	707.52	80.1994	707.52	81.7873	707.52	79.0303	707.52	80.1075	707.52	78.0286	707.52	78.3044	707.52	77.5544	707.52	77.0127	707.52	77.7883	707.52	76.6413	707.52	78.483	707.52	76.7122	707.52	79.2303	707.52	76.7229	707.52	79.7477	707.52	76.751	707.52	79.8952	707.52	77.1623	707.52	79.6192	707.52	78.0105	707.52	78.9416
732.422	85.4599	732.422	85.1795	732.422	85.5639	732.422	84.7383	732.422	85.5056	732.422	84.1851	732.422	85.3096	732.422	83.5784	732.422	84.9882	732.422	82.9424	732.422	84.5228	732.422	82.2384	732.422	83.8528	732.422	81.3889	732.422	82.8753	732.422	80.343	732.422	81.4691	732.422	79.1579	732.422	79.5924	732.422	78.0969	732.422	77.6066	732.422	77.6203	732.422	76.6474	732.422	77.9742	732.422	77.1994	732.422	78.8391	732.422	78.1163	732.422	79.727	732.422	78.6653	732.422	80.3473	732.422	78.8778	732.422	80.5904	732.422	79.0714	732.422	80.452	732.422	79.4757	732.422	80.0166
757.324	85.5747	757.324	85.3213	757.324	85.631	757.324	84.8732	757.324	85.519	757.324	84.2743	757.324	85.2768	757.324	83.5971	757.324	84.9264	757.324	82.8986	757.324	84.4538	757.324	82.1724	757.324	83.7975	757.324	81.3507	757.324	82.849	757.324	80.3659	757.324	81.4714	757.324	79.2373	757.324	79.5688	757.324	78.1609	757.324	77.3128	757.324	77.5298	757.324	75.5939	757.324	77.6473	757.324	75.3742	757.324	78.3331	757.324	75.9311	757.324	79.1313	757.324	76.3579	757.324	79.7056	757.324	76.6558	757.324	79.8956	757.324	77.1943	757.324	79.6474	757.324	78.0691	757.324	78.9892
785.156	86.0324	785.156	85.7368	785.156	86.1096	785.156	85.2205	785.156	86.0023	785.156	84.526	785.156	85.7554	785.156	83.7361	785.156	85.4041	785.156	82.9318	785.156	84.951	785.156	82.1275	785.156	84.3465	785.156	81.2495	785.156	83.48	785.156	80.1956	785.156	82.1986	785.156	78.934	785.156	80.3762	785.156	77.6184	785.156	78.1071	785.156	76.6933	785.156	76.1224	785.156	76.6488	785.156	75.4328	785.156	77.3664	785.156	75.5424	785.156	78.2568	785.156	75.4614	785.156	78.8794	785.156	75.1861	785.156	79.0343	785.156	75.4205	785.156	78.6457	785.156	76.4637	785.156	77.7242
811.523	85.6512	811.523	85.3617	811.523	85.6788	811.523	84.82	811.523	85.4906	811.523	84.1206	811.523	85.1518	811.523	83.4308	811.523	84.7104	811.523	82.8816	811.523	84.167	811.523	82.4292	811.523	83.4592	811.523	81.881	811.523	82.4628	811.523	81.0521	811.523	81.0216	811.523	79.8739	811.523	79.0508	811.523	78.4614	811.523	76.8599	811.523	77.2287	811.523	75.5802	811.523	76.819	811.523	75.8085	811.523	77.3848	811.523	76.4241	811.523	78.3381	811.523	76.7195	811.523	79.1206	811.523	76.8585	811.523	79.4883	811.523	77.2627	811.523	79.3804	811.523	78.0255	811.523	78.8385
840.82	86.4405	840.82	86.1431	840.82	86.4434	840.82	85.5149	840.82	86.2232	840.82	84.5898	840.82	85.8565	840.82	83.5075	840.82	85.3963	840.82	82.4982	840.82	84.8494	840.82	81.7288	840.82	84.1583	840.82	81.1348	840.82	83.1891	840.82	80.5127	840.82	81.7408	840.82	79.7415	840.82	79.6106	840.82	78.8921	840.82	76.8499	840.82	78.2271	840.82	74.5895	840.82	78.0576	840.82	74.4602	840.82	78.4311	840.82	75.194	840.82	79.0496	840.82	75.4802	840.82	79.5506	840.82	75.5358	840.82	79.6939	840.82	76.0981	840.82	79.3572	840.82	77.2821	840.82	78.5116
870.117	86.7986	870.117	86.7106	870.117	86.5633	870.117	86.234	870.117	86.1138	870.117	85.3686	870.117	85.5753	870.117	84.2099	870.117	85.0432	870.117	82.9673	870.117	84.5331	870.117	81.8798	870.117	83.9547	870.117	81.0158	870.117	83.1188	870.117	80.232	870.117	81.7744	870.117	79.39	870.117	79.6803	870.117	78.5406	870.117	76.8437	870.117	77.9484	870.117	74.42	870.117	77.9075	870.117	74.3082	870.117	78.3966	870.117	75.1339	870.117	79.0583	870.117	75.4016	870.117	79.5224	870.117	75.2837	870.117	79.5646	870.117	75.6145	870.117	79.0819	870.117	76.7365	870.117	78.0753
900.879	87.1592	900.879	87.1674	900.879	86.8551	900.879	86.7887	900.879	86.3764	900.879	85.9801	900.879	85.8485	900.879	84.7738	900.879	85.3612	900.879	83.3242	900.879	84.927	900.879	81.9176	900.879	84.4557	900.879	80.8122	900.879	83.7547	900.879	80.0088	900.879	82.5659	900.879	79.3479	900.879	80.6257	900.879	78.7935	900.879	77.7833	900.879	78.5033	900.879	74.543	900.879	78.6487	900.879	73.0154	900.879	79.1719	900.879	73.5534	900.879	79.7914	900.879	74.1983	900.879	80.2102	900.879	74.757	900.879	80.2304	900.879	75.8067	900.879	79.7488	900.879	77.3115	900.879	78.7418
933.105	87.2918	933.105	87.5409	933.105	86.7538	933.105	87.4082	933.105	86.0713	933.105	86.8583	933.105	85.3998	933.105	85.9196	933.105	84.8174	933.105	84.6961	933.105	84.2708	933.105	83.3492	933.105	83.6221	933.105	82.0097	933.105	82.7152	933.105	80.6814	933.105	81.4083	933.105	79.2788	933.105	79.6251	933.105	77.7913	933.105	77.4803	933.105	76.5074	933.105	75.459	933.105	76.1148	933.105	74.3757	933.105	76.9049	933.105	74.5864	933.105	78.1574	933.105	75.4656	933.105	79.1385	933.105	76.3307	933.105	79.5535	933.105	77.0603	933.105	79.3664	933.105	77.8462	933.105	78.7049
965.332	88.0822	965.332	88.2297	965.332	87.6612	965.332	87.9567	965.332	87.1506	965.332	87.1777	965.332	86.699	965.332	85.8984	965.332	86.3286	965.332	84.3012	965.332	85.9428	965.332	82.829	965.332	85.4181	965.332	81.9358	965.332	84.6432	965.332	81.5524	965.332	83.5013	965.332	81.2672	965.332	81.8759	965.332	80.8316	965.332	79.6563	965.332	80.242	965.332	76.6506	965.332	79.6925	965.332	72.6793	965.332	79.4834	965.332	70.4355	965.332	79.7124	965.332	73.3145	965.332	80.1007	965.332	76.0624	965.332	80.2825	965.332	77.6759	965.332	80.0726	965.332	78.6995	965.332	79.4981
1000.49	88.4622	1000.49	88.7903	1000.49	87.9076	1000.49	88.7289	1000.49	87.3128	1000.49	88.1602	1000.49	86.8083	1000.49	87.0197	1000.49	86.3846	1000.49	85.3344	1000.49	85.9281	1000.49	83.3229	1000.49	85.3243	1000.49	81.4815	1000.49	84.4954	1000.49	80.3089	1000.49	83.4082	1000.49	79.7829	1000.49	82.1282	1000.49	79.5795	1000.49	80.7443	1000.49	79.555	1000.49	79.0332	1000.49	79.7506	1000.49	76.4459	1000.49	80.1665	1000.49	73.3955	1000.49	80.6204	1000.49	73.6974	1000.49	80.8413	1000.49	76.0615	1000.49	80.6298	1000.49	77.4998	1000.49	79.9593	1000.49	78.2667	1000.49	79.0542
1035.64	88.853	1035.64	89.2361	1035.64	88.3148	1035.64	89.2836	1035.64	87.7926	1035.64	88.839	1035.64	87.3584	1035.64	87.7685	1035.64	86.9382	1035.64	85.9669	1035.64	86.3992	1035.64	83.4117	1035.64	85.6611	1035.64	80.3782	1035.64	84.7133	1035.64	77.9227	1035.64	83.6332	1035.64	77.2954	1035.64	82.6531	1035.64	77.9473	1035.64	81.889	1035.64	78.8939	1035.64	80.8338	1035.64	79.815	1035.64	78.5894	1035.64	80.6133	1035.64	74.4426	1035.64	81.1763	1035.64	71.5576	1035.64	81.3645	1035.64	74.6318	1035.64	81.0654	1035.64	76.957	1035.64	80.2776	1035.64	78.1749	1035.64	79.212
1072.27	88.8325	1072.27	89.1026	1072.27	88.4165	1072.27	89.0907	1072.27	87.9738	1072.27	88.6808	1072.27	87.542	1072.27	87.7914	1072.27	87.0459	1072.27	86.3875	1072.27	86.3596	1072.27	84.4918	1072.27	85.3785	1072.27	82.1842	1072.27	84.0068	1072.27	79.5777	1072.27	82.209	1072.27	76.8117	1072.27	80.4465	1072.27	74.2895	1072.27	79.6856	1072.27	73.4277	1072.27	79.3478	1072.27	75.0837	1072.27	77.8171	1072.27	77.3831	1072.27	74.7154	1072.27	79.0839	1072.27	74.3164	1072.27	79.9591	1072.27	77.2141	1072.27	80.0745	1072.27	78.8441	1072.27	79.6928	1072.27	79.2352	1072.27	79.3216
1108.89	88.7516	1108.89	88.9263	1108.89	88.3534	1108.89	88.7741	1108.89	87.8447	1108.89	88.2054	1108.89	87.3098	1108.89	87.1607	1108.89	86.7375	1108.89	85.649	1108.89	86.0306	1108.89	83.7897	1108.89	85.0832	1108.89	81.7977	1108.89	83.7701	1108.89	79.8664	1108.89	81.9569	1108.89	78.033	1108.89	80.0345	1108.89	76.1858	1108.89	79.3535	1108.89	74.5664	1108.89	79.4753	1108.89	74.6912	1108.89	78.3328	1108.89	76.795	1108.89	74.6957	1108.89	78.8843	1108.89	71.0114	1108.89	80.1141	1108.89	74.7566	1108.89	80.4388	1108.89	77.5134	1108.89	80.0562	1108.89	78.6634	1108.89	79.3613
1148.44	88.6597	1148.44	88.7179	1148.44	88.336	1148.44	88.4215	1148.44	87.8735	1148.44	87.7273	1148.44	87.3835	1148.44	86.6297	1148.44	86.8831	1148.44	85.1701	1148.44	86.2689	1148.44	83.4814	1148.44	85.3717	1148.44	81.8068	1148.44	83.993	1148.44	80.3668	1148.44	81.9416	1148.44	79.1096	1148.44	79.5329	1148.44	77.6824	1148.44	78.4441	1148.44	75.7865	1148.44	78.5929	1148.44	74.1692	1148.44	77.5629	1148.44	75.0574	1148.44	74.4257	1148.44	77.4018	1148.44	72.4401	1148.44	79.0819	1148.44	74.9744	1148.44	79.662	1148.44	76.7416	1148.44	79.2659	1148.44	77.5052	1148.44	78.3275
1189.45	88.0615	1189.45	88.2401	1189.45	87.6693	1189.45	88.0727	1189.45	87.216	1189.45	87.4971	1189.45	86.7966	1189.45	86.5163	1189.45	86.3914	1189.45	85.175	1189.45	85.8671	1189.45	83.5707	1189.45	85.0466	1189.45	81.9033	1189.45	83.7482	1189.45	80.4417	1189.45	81.7709	1189.45	79.2989	1189.45	79.273	1189.45	78.275	1189.45	77.888	1189.45	77.1126	1189.45	78.1668	1189.45	76.012	1189.45	77.6838	1189.45	75.8464	1189.45	75.4132	1189.45	76.8023	1189.45	72.762	1189.45	77.7994	1189.45	73.0176	1189.45	78.055	1189.45	74.1174	1189.45	77.3785	1189.45	74.865	1189.45	76.0495
1230.47	88.0253	1230.47	88.2376	1230.47	87.5511	1230.47	88.0598	1230.47	87.0033	1230.47	87.4569	1230.47	86.5439	1230.47	86.4834	1230.47	86.1711	1230.47	85.2321	1230.47	85.7113	1230.47	83.7694	1230.47	85.0063	1230.47	82.1451	1230.47	83.9652	1230.47	80.467	1230.47	82.3945	1230.47	78.9096	1230.47	80.1204	1230.47	77.6261	1230.47	77.8007	1230.47	76.7422	1230.47	76.5846	1230.47	76.4768	1230.47	75.1621	1230.47	76.966	1230.47	71.7856	1230.47	77.8577	1230.47	69.2764	1230.47	78.5488	1230.47	72.1914	1230.47	78.6275	1230.47	74.35	1230.47	77.965	1230.47	75.5364	1230.47	76.7623
1274.41	87.9755	1274.41	88.2119	1274.41	87.4972	1274.41	88.0307	1274.41	86.9823	1274.41	87.3637	1274.41	86.5286	1274.41	86.27	1274.41	86.0524	1274.41	84.8995	1274.41	85.4071	1274.41	83.3845	1274.41	84.535	1274.41	81.7743	1274.41	83.3816	1274.41	80.1249	1274.41	81.7109	1274.41	78.5842	1274.41	79.5382	1274.41	77.3312	1274.41	78.164	1274.41	76.5482	1274.41	77.9242	1274.41	76.464	1274.41	76.4405	1274.41	77.0594	1274.41	71.7371	1274.41	77.837	1274.41	67.3759	1274.41	78.2311	1274.41	72.5941	1274.41	77.9189	1274.41	74.8092	1274.41	76.8928	1274.41	75.2065	1274.41	75.7004
1319.82	87.5527	1319.82	87.9568	1319.82	86.9381	1319.82	87.8636	1319.82	86.3847	1319.82	87.0947	1319.82	85.9925	1319.82	85.6563	1319.82	85.6443	1319.82	83.8221	1319.82	85.136	1319.82	82.064	1319.82	84.3555	1319.82	80.6026	1319.82	83.2452	1319.82	79.2665	1319.82	81.5364	1319.82	77.9832	1319.82	78.9251	1319.82	76.9743	1319.82	76.544	1319.82	76.5823	1319.82	76.3772	1319.82	76.9089	1319.82	75.7906	1319.82	77.5976	1319.82	71.8745	1319.82	78.179	1319.82	59.6485	1319.82	78.3516	1319.82	70.2642	1319.82	78.0058	1319.82	74.7437	1319.82	77.3004	1319.82	76.1606	1319.82	76.6712
1366.7	87.7645	1366.7	88.2457	1366.7	87.0768	1366.7	88.1785	1366.7	86.4782	1366.7	87.2913	1366.7	86.0449	1366.7	85.449	1366.7	85.6114	1366.7	82.8623	1366.7	84.9714	1366.7	80.4517	1366.7	84.0804	1366.7	78.9873	1366.7	82.9452	1366.7	77.7462	1366.7	81.2529	1366.7	76.0748	1366.7	78.6066	1366.7	74.1981	1366.7	76.2293	1366.7	73.5304	1366.7	76.2905	1366.7	75.2174	1366.7	75.8521	1366.7	77.4164	1366.7	71.8397	1366.7	78.8745	1366.7	44.7847	1366.7	79.4386	1366.7	71.3751	1366.7	79.2681	1366.7	76.2444	1366.7	78.7594	1366.7	77.8901	1366.7	78.3714
1413.57	87.3606	1413.57	87.8462	1413.57	86.9639	1413.57	87.9746	1413.57	86.6995	1413.57	87.2511	1413.57	86.2792	1413.57	85.2786	1413.57	85.529	1413.57	81.8175	1413.57	84.5014	1413.57	77.5692	1413.57	83.3635	1413.57	75.6613	1413.57	82.2561	1413.57	75.759	1413.57	80.8756	1413.57	75.1459	1413.57	78.2776	1413.57	72.9832	1413.57	73.8533	1413.57	70.2917	1413.57	73.6381	1413.57	72.7698	1413.57	76.2397	1413.57	76.6282	1413.57	75.1818	1413.57	78.9916	1413.57	67.3285	1413.57	80.1284	1413.57	70.3399	1413.57	80.5014	1413.57	77.3844	1413.57	80.5803	1413.57	79.8429	1413.57	80.5284
1463.38	87.2001	1463.38	87.2624	1463.38	86.9955	1463.38	87.1579	1463.38	86.5539	1463.38	86.6757	1463.38	85.8155	1463.38	85.4747	1463.38	84.8053	1463.38	83.2145	1463.38	83.5618	1463.38	79.791	1463.38	82.2159	1463.38	76.1749	1463.38	81.0831	1463.38	75.0256	1463.38	80.1695	1463.38	75.2996	1463.38	78.7837	1463.38	74.1363	1463.38	75.7172	1463.38	69.9772	1463.38	70.6683	1463.38	66.8368	1463.38	73.3567	1463.38	73.6913	1463.38	75.7538	1463.38	77.6222	1463.38	73.3609	1463.38	79.417	1463.38	66.4349	1463.38	80.0739	1463.38	74.4739	1463.38	80.2514	1463.38	78.6285	1463.38	80.0192
1516.11	87.3225	1516.11	87.2191	1516.11	86.9561	1516.11	86.7046	1516.11	86.1958	1516.11	85.8991	1516.11	85.1824	1516.11	84.7285	1516.11	83.9986	1516.11	82.8239	1516.11	82.6382	1516.11	79.8462	1516.11	81.1925	1516.11	76.2991	1516.11	79.9125	1516.11	74.929	1516.11	78.7841	1516.11	75.7201	1516.11	77.5153	1516.11	75.5018	1516.11	75.5757	1516.11	72.926	1516.11	72.1947	1516.11	66.2912	1516.11	72.5074	1516.11	67.9101	1516.11	75.6501	1516.11	74.3936	1516.11	75.1955	1516.11	77.3271	1516.11	69.0162	1516.11	78.5084	1516.11	66.8918	1516.11	78.6515	1516.11	74.9729	1516.11	77.7732
1568.85	87.1627	1568.85	86.9969	1568.85	86.712	1568.85	86.1702	1568.85	85.801	1568.85	84.9119	1568.85	84.5837	1568.85	83.5777	1568.85	83.1844	1568.85	82.0058	1568.85	81.6906	1568.85	79.5553	1568.85	80.2206	1568.85	75.9536	1568.85	79.0049	1568.85	73.0447	1568.85	78.1676	1568.85	73.7391	1568.85	77.697	1568.85	74.4554	1568.85	76.7286	1568.85	73.1203	1568.85	72.7534	1568.85	69.907	1568.85	66.781	1568.85	70.1598	1568.85	73.827	1568.85	74.1025	1568.85	74.9842	1568.85	76.5039	1568.85	70.2109	1568.85	77.4043	1568.85	62.2531	1568.85	77.2947	1568.85	72.7993	1568.85	76.1435
1624.51	87.1639	1624.51	86.9477	1624.51	86.6574	1624.51	85.9794	1624.51	85.5138	1624.51	84.4084	1624.51	83.9217	1624.51	82.7063	1624.51	82.2512	1624.51	81.2093	1624.51	80.8534	1624.51	79.5224	1624.51	79.6993	1624.51	77.1734	1624.51	78.6073	1624.51	74.1914	1624.51	77.6153	1624.51	71.129	1624.51	77.2963	1624.51	68.4098	1624.51	77.2291	1624.51	65.3233	1624.51	74.7597	1624.51	65.2508	1624.51	65.0222	1624.51	69.96	1624.51	69.5999	1624.51	73.4125	1624.51	73.1338	1624.51	75.2355	1624.51	70.0991	1624.51	75.9028	1624.51	60.6335	1624.51	75.6079	1624.51	69.8126	1624.51	74.027
1681.64	87.1795	1681.64	87.1468	1681.64	86.2523	1681.64	86.1087	1681.64	84.5165	1681.64	84.1711	1681.64	82.4	1681.64	81.8053	1681.64	80.7364	1681.64	79.7216	1681.64	79.963	1681.64	78.0556	1681.64	79.5107	1681.64	76.6139	1681.64	78.8456	1681.64	75.4936	1681.64	77.8399	1681.64	74.3921	1681.64	77.2258	1681.64	72.1741	1681.64	77.2012	1681.64	67.4801	1681.64	75.1004	1681.64	64.1991	1681.64	66.8366	1681.64	69.2057	1681.64	69.0924	1681.64	72.6506	1681.64	72.8935	1681.64	74.4625	1681.64	70.3975	1681.64	75.0086	1681.64	57.9096	1681.64	74.2252	1681.64	65.1911	1681.64	71.6491
1741.7	86.8202	1741.7	87.0069	1741.7	85.6476	1741.7	86.1293	1741.7	83.6494	1741.7	84.1723	1741.7	81.2312	1741.7	81.3617	1741.7	79.62	1741.7	78.5907	1741.7	79.9289	1741.7	77.0162	1741.7	80.4584	1741.7	76.2919	1741.7	79.8806	1741.7	75.3644	1741.7	78.5347	1741.7	73.4818	1741.7	77.6002	1741.7	69.9407	1741.7	76.8688	1741.7	64.7965	1741.7	73.4385	1741.7	64.8933	1741.7	59.5273	1741.7	69.512	1741.7	70.3474	1741.7	72.6992	1741.7	72.7864	1741.7	74.3158	1741.7	68.9788	1741.7	74.6812	1741.7	42.6688	1741.7	74.0356	1741.7	67.5727	1741.7	72.2038
1803.22	86.4228	1803.22	86.8634	1803.22	85.3053	1803.22	86.4084	1803.22	83.3015	1803.22	84.6572	1803.22	80.1774	1803.22	81.377	1803.22	78.6258	1803.22	77.6032	1803.22	80.7325	1803.22	76.3898	1803.22	81.9566	1803.22	76.3047	1803.22	81.5191	1803.22	75.2484	1803.22	80.2621	1803.22	73.2505	1803.22	79.156	1803.22	70.0774	1803.22	78.054	1803.22	64.488	1803.22	75.0514	1803.22	63.1487	1803.22	66.704	1803.22	69.2824	1803.22	68.1861	1803.22	72.3582	1803.22	71.9518	1803.22	73.5175	1803.22	69.7418	1803.22	73.9783	1803.22	55.273	1803.22	74.0701	1803.22	67.2372	1803.22	72.6861
1866.21	86.8961	1866.21	86.9622	1866.21	85.7163	1866.21	86.1225	1866.21	82.9651	1866.21	84.1037	1866.21	79.1965	1866.21	80.4887	1866.21	79.3225	1866.21	76.2355	1866.21	81.5965	1866.21	74.9808	1866.21	82.3313	1866.21	74.7834	1866.21	81.6737	1866.21	73.3499	1866.21	80.4865	1866.21	70.7726	1866.21	79.1953	1866.21	67.6576	1866.21	76.9453	1866.21	65.1192	1866.21	72.2736	1866.21	63.1436	1866.21	69.2281	1866.21	64.3077	1866.21	71.1078	1866.21	68.1186	1866.21	71.5417	1866.21	69.8427	1866.21	69.731	1866.21	71.3008	1866.21	58.5868	1866.21	73.166	1866.21	67.6593	1866.21	72.9071
1932.13	87.0815	1932.13	86.9681	1932.13	85.5796	1932.13	85.4863	1932.13	82.2881	1932.13	82.625	1932.13	78.5983	1932.13	78.1312	1932.13	79.533	1932.13	73.55	1932.13	82.1122	1932.13	73.6336	1932.13	83.0896	1932.13	74.9508	1932.13	82.4592	1932.13	74.8652	1932.13	81.0833	1932.13	73.5662	1932.13	79.823	1932.13	72.4041	1932.13	78.0387	1932.13	71.2334	1932.13	73.4347	1932.13	68.3782	1932.13	69.4593	1932.13	60.3309	1932.13	71.6027	1932.13	62.7023	1932.13	70.8848	1932.13	66.9166	1932.13	69.0046	1932.13	69.0944	1932.13	59.0734	1932.13	72.0225	1932.13	66.7591	1932.13	72.2678
1999.51	86.4502	1999.51	86.4642	1999.51	84.6798	1999.51	85.1356	1999.51	80.4657	1999.51	82.3926	1999.51	76.9804	1999.51	77.7277	1999.51	80.5515	1999.51	71.8623	1999.51	83.0512	1999.51	73.7369	1999.51	83.5798	1999.51	76.7275	1999.51	82.5313	1999.51	76.6947	1999.51	80.8841	1999.51	73.9082	1999.51	79.8985	1999.51	70.7119	1999.51	78.8631	1999.51	69.5516	1999.51	74.6675	1999.51	68.9352	1999.51	69.1983	1999.51	68.8096	1999.51	71.4865	1999.51	68.7169	1999.51	70.0067	1999.51	67.2335	1999.51	68.6749	1999.51	69.3555	1999.51	60.0748	1999.51	73.095	1999.51	66.721	1999.51	73.0846
2069.82	86.1783	2069.82	86.4413	2069.82	84.3408	2069.82	84.8249	2069.82	81.1012	2069.82	81.2593	2069.82	78.3787	2069.82	76.6615	2069.82	82.0022	2069.82	74.6529	2069.82	84.7373	2069.82	75.0391	2069.82	85.1142	2069.82	74.4566	2069.82	83.8758	2069.82	72.0709	2069.82	82.2274	2069.82	69.9588	2069.82	82.0255	2069.82	72.3172	2069.82	81.4534	2069.82	74.3049	2069.82	76.3634	2069.82	74.4927	2069.82	64.7854	2069.82	72.8008	2069.82	74.3857	2069.82	68.13	2069.82	73.0084	2069.82	66.7183	2069.82	68.8172	2069.82	72.2351	2069.82	59.9639	2069.82	74.1998	2069.82	66.4372	2069.82	72.9648
2143.07	86.6204	2143.07	86.7448	2143.07	85.4294	2143.07	85.614	2143.07	81.278	2143.07	82.2451	2143.07	76.6749	2143.07	74.8837	2143.07	83.4605	2143.07	72.4688	2143.07	84.9196	2143.07	79.1295	2143.07	83.5042	2143.07	81.3515	2143.07	81.6642	2143.07	80.8244	2143.07	80.3182	2143.07	77.9246	2143.07	80.5508	2143.07	72.9016	2143.07	80.2631	2143.07	68.9314	2143.07	74.9315	2143.07	70.1298	2143.07	67.8063	2143.07	71.1325	2143.07	73.2412	2143.07	70.0148	2143.07	69.5763	2143.07	66.6386	2143.07	70.1262	2143.07	67.5376	2143.07	64.0443	2143.07	72.9732	2143.07	67.5729	2143.07	73.9365
2219.24	86.7289	2219.24	86.9838	2219.24	83.9271	2219.24	84.6761	2219.24	78.3863	2219.24	79.2944	2219.24	76.0078	2219.24	71.3966	2219.24	80.5979	2219.24	73.1272	2219.24	83.2473	2219.24	74.5453	2219.24	84.1628	2219.24	74.0291	2219.24	83.8256	2219.24	73.0982	2219.24	83.179	2219.24	72.443	2219.24	82.8499	2219.24	72.3721	2219.24	81.0382	2219.24	72.5278	2219.24	74.0291	2219.24	72.136	2219.24	71.0767	2219.24	71.2753	2219.24	72.6558	2219.24	69.4642	2219.24	65.288	2219.24	63.4026	2219.24	68.7876	2219.24	67.4644	2219.24	64.1275	2219.24	73.3096	2219.24	66.4436	2219.24	73.4241
2296.88	86.3123	2296.88	86.5025	2296.88	83.3433	2296.88	83.7367	2296.88	77.9272	2296.88	76.4024	2296.88	76.9837	2296.88	64.8984	2296.88	81.4897	2296.88	74.6512	2296.88	83.8986	2296.88	77.2875	2296.88	84.5499	2296.88	78.8672	2296.88	84.4006	2296.88	79.7946	2296.88	84.3379	2296.88	79.4289	2296.88	84.1678	2296.88	77.3171	2296.88	81.6184	2296.88	74.5388	2296.88	71.6657	2296.88	73.1051	2296.88	73.0661	2296.88	72.8861	2296.88	74.6191	2296.88	71.5373	2296.88	68.8983	2296.88	65.0271	2296.88	66.8537	2296.88	63.4711	2296.88	61.4228	2296.88	71.8993	2296.88	64.6442	2296.88	72.1148
2378.91	86.6848	2378.91	86.3989	2378.91	84.2765	2378.91	83.1724	2378.91	79.3585	2378.91	75.7551	2378.91	77.9587	2378.91	60.4406	2378.91	82.2246	2378.91	76.7782	2378.91	84.7851	2378.91	80.5378	2378.91	85.2492	2378.91	80.5684	2378.91	84.5246	2378.91	77.8029	2378.91	84.3528	2378.91	73.5546	2378.91	83.7634	2378.91	71.7379	2378.91	79.6189	2378.91	73.5495	2378.91	63.2958	2378.91	74.4312	2378.91	73.2648	2378.91	73.3474	2378.91	72.3243	2378.91	71.2534	2378.91	71.6953	2378.91	65.1913	2378.91	66.1336	2378.91	64.5541	2378.91	56.7801	2378.91	73.2403	2378.91	63.2061	2378.91	72.9572
2462.4	86.297	2462.4	86.3939	2462.4	83.5448	2462.4	83.2753	2462.4	78.1571	2462.4	73.4713	2462.4	74.204	2462.4	73.1802	2462.4	80.4697	2462.4	80.2852	2462.4	83.9486	2462.4	81.2864	2462.4	84.6015	2462.4	79.6389	2462.4	83.4428	2462.4	77.6429	2462.4	82.2732	2462.4	77.5024	2462.4	81.4386	2462.4	77.464	2462.4	78.6049	2462.4	75.9402	2462.4	61.7476	2462.4	74.5241	2462.4	73.2201	2462.4	74.0325	2462.4	72.8506	2462.4	72.3167	2462.4	72.3225	2462.4	64.5144	2462.4	69.6803	2462.4	66.147	2462.4	61.6385	2462.4	73.8443	2462.4	65.8185	2462.4	73.6066
2548.83	85.3042	2548.83	85.7172	2548.83	81.977	2548.83	82.5072	2548.83	75.386	2548.83	71.8043	2548.83	69.531	2548.83	77.0535	2548.83	79.8157	2548.83	80.9124	2548.83	83.5906	2548.83	80.2466	2548.83	84.1554	2548.83	78.2495	2548.83	83.2963	2548.83	77.5377	2548.83	82.6299	2548.83	77.0293	2548.83	82.1491	2548.83	75.1798	2548.83	79.4944	2548.83	73.8235	2548.83	67.6247	2548.83	73.3899	2548.83	70.2855	2548.83	72.831	2548.83	71.8779	2548.83	72.2276	2548.83	72.0197	2548.83	67.7107	2548.83	69.5735	2548.83	63.0831	2548.83	66.1131	2548.83	73.541	2548.83	66.1589	2548.83	73.849
2639.65	85.0891	2639.65	85.2911	2639.65	81.9888	2639.65	81.6244	2639.65	75.4271	2639.65	73.4069	2639.65	68.8682	2639.65	78.153	2639.65	80.5977	2639.65	80.6303	2639.65	84.1224	2639.65	80.962	2639.65	84.4964	2639.65	80.5754	2639.65	83.0481	2639.65	78.9374	2639.65	81.4659	2639.65	76.5237	2639.65	80.4404	2639.65	74.1924	2639.65	77.1512	2639.65	72.9064	2639.65	66.0085	2639.65	72.6236	2639.65	70.3066	2639.65	73.2289	2639.65	68.7889	2639.65	73.3936	2639.65	70.1813	2639.65	69.1951	2639.65	65.5246	2639.65	59.3193	2639.65	65.8399	2639.65	72.4481	2639.65	66.1051	2639.65	72.9939
2731.93	84.913	2731.93	84.9602	2731.93	81.8905	2731.93	81.2924	2731.93	75.0968	2731.93	75.0303	2731.93	68.5927	2731.93	79.1983	2731.93	81.2168	2731.93	81.8602	2731.93	84.5038	2731.93	81.4989	2731.93	84.4269	2731.93	79.099	2731.93	82.204	2731.93	76.9053	2731.93	79.9992	2731.93	76.4726	2731.93	79.9119	2731.93	75.7245	2731.93	77.3293	2731.93	74.1445	2731.93	62.2395	2731.93	72.8855	2731.93	71.8792	2731.93	71.5676	2731.93	71.6217	2731.93	71.8787	2731.93	67.8911	2731.93	70.9714	2731.93	63.1773	2731.93	62.5909	2731.93	65.1006	2731.93	70.2081	2731.93	67.9813	2731.93	73.0626
2828.61	84.1081	2828.61	84.7823	2828.61	80.7258	2828.61	81.5364	2828.61	73.4352	2828.61	77.5075	2828.61	72.6086	2828.61	81.178	2828.61	81.8513	2828.61	82.3872	2828.61	84.3351	2828.61	81.5942	2828.61	84.0116	2828.61	80.1915	2828.61	82.4093	2828.61	78.5899	2828.61	80.6729	2828.61	76.5167	2828.61	78.931	2828.61	74.3396	2828.61	74.9324	2828.61	74.1341	2828.61	67.2049	2828.61	73.581	2828.61	70.075	2828.61	71.0021	2828.61	71.9672	2828.61	71.8566	2828.61	70.8473	2828.61	71.6381	2828.61	57.4244	2828.61	65.0755	2828.61	63.9695	2828.61	69.6025	2828.61	66.3804	2828.61	71.4903
2928.22	83.7451	2928.22	84.0482	2928.22	81.2514	2928.22	81.3974	2928.22	74.7771	2928.22	79.0915	2928.22	74.1971	2928.22	81.5423	2928.22	82.2082	2928.22	81.8218	2928.22	84.3863	2928.22	81.0189	2928.22	83.5381	2928.22	80.0831	2928.22	81.2711	2928.22	77.7166	2928.22	79.2641	2928.22	74.9563	2928.22	76.6146	2928.22	73.3379	2928.22	69.0437	2928.22	71.6757	2928.22	66.7835	2928.22	72.1799	2928.22	69.4828	2928.22	71.8833	2928.22	71.1961	2928.22	69.1343	2928.22	71.1356	2928.22	70.212	2928.22	54.3655	2928.22	68.6684	2928.22	63.7262	2928.22	69.2513	2928.22	66.9785	2928.22	71.5667
3030.76	84.1107	3030.76	84.4051	3030.76	81.4265	3030.76	81.7555	3030.76	75.5227	3030.76	79.7876	3030.76	76.7477	3030.76	81.7239	3030.76	82.4558	3030.76	82.4447	3030.76	83.7608	3030.76	82.3813	3030.76	82.5213	3030.76	81.0805	3030.76	80.8073	3030.76	77.6405	3030.76	79.5568	3030.76	74.6539	3030.76	76.3316	3030.76	74.5431	3030.76	68.5197	3030.76	73.0491	3030.76	65.4625	3030.76	72.2381	3030.76	69.3614	3030.76	72.9573	3030.76	69.5195	3030.76	70.431	3030.76	70.9433	3030.76	68.1518	3030.76	64.4775	3030.76	68.0002	3030.76	51.1494	3030.76	69.6673	3030.76	64.5505	3030.76	70.7654
3137.7	83.7958	3137.7	84.1208	3137.7	81.4931	3137.7	82.0247	3137.7	76.5094	3137.7	80.2519	3137.7	78.8544	3137.7	82.4151	3137.7	83.38	3137.7	83.4127	3137.7	84.0175	3137.7	82.2344	3137.7	82.7673	3137.7	80.1474	3137.7	81.6826	3137.7	79.308	3137.7	79.9881	3137.7	78.5062	3137.7	74.4986	3137.7	76.113	3137.7	66.1015	3137.7	73.0854	3137.7	66.5722	3137.7	71.2191	3137.7	69.8014	3137.7	71.8248	3137.7	66.795	3137.7	71.0674	3137.7	69.4566	3137.7	67.9407	3137.7	65.0218	3137.7	67.8034	3137.7	53.6618	3137.7	69.9356	3137.7	66.3428	3137.7	70.8921
3249.02	84.2076	3249.02	84.5061	3249.02	81.5623	3249.02	81.662	3249.02	77.986	3249.02	79.8624	3249.02	80.4202	3249.02	83.2988	3249.02	83.3586	3249.02	83.9452	3249.02	83.7021	3249.02	82.4967	3249.02	82.782	3249.02	80.8409	3249.02	81.6299	3249.02	78.7339	3249.02	79.3523	3249.02	75.2575	3249.02	73.5084	3249.02	72.896	3249.02	64.7361	3249.02	72.2883	3249.02	66.1983	3249.02	70.9423	3249.02	68.641	3249.02	71.6677	3249.02	67.6999	3249.02	70.8209	3249.02	68.9798	3249.02	68.0639	3249.02	66.5176	3249.02	67.6843	3249.02	44.513	3249.02	69.3729	3249.02	65.2994	3249.02	70.4202
3363.28	84.5701	3363.28	85.0277	3363.28	81.6808	3363.28	81.9585	3363.28	78.5232	3363.28	81.4355	3363.28	82.0894	3363.28	84.2951	3363.28	83.7496	3363.28	84.1906	3363.28	82.6433	3363.28	82.754	3363.28	81.5072	3363.28	80.3523	3363.28	80.9569	3363.28	76.8396	3363.28	78.0954	3363.28	75.0263	3363.28	72.2176	3363.28	74.2783	3363.28	65.1911	3363.28	73.1917	3363.28	67.5122	3363.28	70.6474	3363.28	68.2976	3363.28	71.8744	3363.28	67.2524	3363.28	72.1318	3363.28	70.0685	3363.28	68.1359	3363.28	67.9703	3363.28	67.9857	3363.28	52.9351	3363.28	70.4035	3363.28	65.8673	3363.28	71.3235
3481.93	85.0778	3481.93	84.5299	3481.93	83.0222	3481.93	81.3864	3481.93	79.9959	3481.93	82.4031	3481.93	82.6485	3481.93	84.9723	3481.93	84.0316	3481.93	84.3402	3481.93	82.5266	3481.93	82.5878	3481.93	80.8607	3481.93	80.3987	3481.93	79.7563	3481.93	77.1959	3481.93	75.8463	3481.93	74.3942	3481.93	69.6954	3481.93	72.4419	3481.93	59.0263	3481.93	71.7919	3481.93	66.3231	3481.93	69.4282	3481.93	68.3037	3481.93	69.4258	3481.93	66.5181	3481.93	71.8195	3481.93	68.109	3481.93	68.4679	3481.93	67.9605	3481.93	67.138	3481.93	58.8063	3481.93	70.1921	3481.93	67.0939	3481.93	71.2934
3604.98	85.2736	3604.98	85.0518	3604.98	82.4033	3604.98	81.8863	3604.98	81.1519	3604.98	83.7849	3604.98	84.5487	3604.98	85.3392	3604.98	84.5155	3604.98	83.9922	3604.98	82.3068	3604.98	82.0543	3604.98	81.7979	3604.98	79.6658	3604.98	79.887	3604.98	76.8752	3604.98	74.5145	3604.98	74.5344	3604.98	72.0353	3604.98	72.8354	3604.98	67.2023	3604.98	71.5834	3604.98	66.5316	3604.98	69.5858	3604.98	68.2047	3604.98	68.7369	3604.98	71.1262	3604.98	69.1453	3604.98	66.9376	3604.98	69.3239	3604.98	69.1142	3604.98	65.9268	3604.98	61.5347	3604.98	70.1929	3604.98	66.4027	3604.98	70.3891
3732.42	86.2779	3732.42	85.1891	3732.42	83.7571	3732.42	82.6134	3732.42	81.9377	3732.42	84.8339	3732.42	85.4302	3732.42	85.4108	3732.42	84.9874	3732.42	84.0221	3732.42	81.7658	3732.42	82.3922	3732.42	82.7348	3732.42	79.1101	3732.42	81.8282	3732.42	78.0947	3732.42	76.8827	3732.42	77.3914	3732.42	76.7491	3732.42	74.5264	3732.42	72.7222	3732.42	72.7489	3732.42	72.0087	3732.42	69.5945	3732.42	63.4393	3732.42	69.699	3732.42	70.343	3732.42	68.1215	3732.42	65.113	3732.42	68.7756	3732.42	70.579	3732.42	66.4241	3732.42	64.2015	3732.42	70.8115	3732.42	66.9581	3732.42	71.4844
3864.26	85.856	3864.26	85.3053	3864.26	83.3701	3864.26	83.4961	3864.26	82.1008	3864.26	85.0892	3864.26	85.2418	3864.26	85.4291	3864.26	84.9493	3864.26	83.3379	3864.26	81.6818	3864.26	81.1234	3864.26	82.5509	3864.26	79.4346	3864.26	82.9134	3864.26	77.6148	3864.26	80.1753	3864.26	75.6239	3864.26	79.8063	3864.26	73.4255	3864.26	74.6678	3864.26	72.1809	3864.26	73.2322	3864.26	69.7967	3864.26	66.5854	3864.26	67.9874	3864.26	71.0727	3864.26	68.7749	3864.26	62.2242	3864.26	67.5721	3864.26	69.8714	3864.26	65.6154	3864.26	63.0502	3864.26	69.83	3864.26	66.8042	3864.26	71.0939
4000.49	86.6622	4000.49	85.6496	4000.49	83.809	4000.49	83.4558	4000.49	82.3109	4000.49	85.3945	4000.49	85.8425	4000.49	85.3985	4000.49	85.3907	4000.49	83.4738	4000.49	81.605	4000.49	82.6175	4000.49	83.3438	4000.49	80.6705	4000.49	84.2152	4000.49	78.577	4000.49	81.0122	4000.49	76.5456	4000.49	77.8797	4000.49	73.73	4000.49	69.186	4000.49	72.1132	4000.49	73.1733	4000.49	70.6999	4000.49	65.3946	4000.49	69.481	4000.49	72.4201	4000.49	68.1901	4000.49	66.0864	4000.49	68.1163	4000.49	70.7577	4000.49	66.1749	4000.49	65.1585	4000.49	70.6444	4000.49	66.0409	4000.49	71.4766
4141.11	87.117	4141.11	86.2883	4141.11	84.4317	4141.11	84.3425	4141.11	82.7713	4141.11	85.7325	4141.11	85.6562	4141.11	85.3061	4141.11	85.1039	4141.11	83.5418	4141.11	81.1393	4141.11	82.1998	4141.11	83.8227	4141.11	79.7602	4141.11	84.7732	4141.11	77.8231	4141.11	82.4252	4141.11	75.0038	4141.11	80.4518	4141.11	72.4313	4141.11	69.8168	4141.11	71.0312	4141.11	69.7638	4141.11	68.026	4141.11	68.179	4141.11	67.4995	4141.11	73.7211	4141.11	68.651	4141.11	66.4523	4141.11	67.7541	4141.11	71.1167	4141.11	66.6169	4141.11	66.5982	4141.11	70.09	4141.11	65.9434	4141.11	71.9173
4287.6	87.4371	4287.6	86.4714	4287.6	84.9738	4287.6	85.0976	4287.6	83.095	4287.6	85.9971	4287.6	86.0229	4287.6	85.1738	4287.6	85.3441	4287.6	83.9549	4287.6	79.9731	4287.6	82.3277	4287.6	82.9921	4287.6	79.0352	4287.6	84.6343	4287.6	76.5554	4287.6	82.0319	4287.6	73.1952	4287.6	80.4055	4287.6	72.3535	4287.6	72.0098	4287.6	72.0923	4287.6	64.5422	4287.6	68.4989	4287.6	57.4758	4287.6	66.9919	4287.6	70.897	4287.6	67.785	4287.6	62.914	4287.6	67.9633	4287.6	66.6082	4287.6	66.0143	4287.6	64.4103	4287.6	70.2463	4287.6	66.75	4287.6	72.1156
4438.48	87.796	4438.48	87.0787	4438.48	85.5163	4438.48	85.871	4438.48	83.3657	4438.48	86.2108	4438.48	85.8784	4438.48	84.9994	4438.48	85.8879	4438.48	83.5932	4438.48	80.6917	4438.48	81.2611	4438.48	81.7938	4438.48	78.1325	4438.48	83.1055	4438.48	77.5219	4438.48	77.8615	4438.48	73.6214	4438.48	76.6453	4438.48	69.4671	4438.48	72.2851	4438.48	69.1141	4438.48	68.4648	4438.48	65.2029	4438.48	51.1039	4438.48	64.6315	4438.48	69.232	4438.48	65.9565	4438.48	64.5012	4438.48	67.2907	4438.48	66.9404	4438.48	66.1429	4438.48	66.059	4438.48	69.8366	4438.48	65.7895	4438.48	71.6654
4595.21	87.791	4595.21	87.3064	4595.21	85.8824	4595.21	86.0634	4595.21	84.3444	4595.21	86.1961	4595.21	85.8751	4595.21	85.6293	4595.21	85.8704	4595.21	83.3327	4595.21	81.9314	4595.21	80.1967	4595.21	82.2342	4595.21	78.0811	4595.21	82.9659	4595.21	75.6045	4595.21	74.8431	4595.21	73.9836	4595.21	71.2206	4595.21	73.5196	4595.21	72.0083	4595.21	70.6092	4595.21	70.569	4595.21	65.8389	4595.21	64.129	4595.21	64.6767	4595.21	65.4914	4595.21	65.9283	4595.21	61.3401	4595.21	64.7273	4595.21	68.0359	4595.21	65.8928	4595.21	68.1956	4595.21	70.0046	4595.21	65.6517	4595.21	71.5113
4756.35	87.8244	4756.35	87.6753	4756.35	85.7403	4756.35	86.3675	4756.35	84.7156	4756.35	86.7943	4756.35	86.3592	4756.35	85.4226	4756.35	85.9979	4756.35	82.2728	4756.35	82.1704	4756.35	81.0195	4756.35	82.5782	4756.35	78.911	4756.35	82.7209	4756.35	75.7214	4756.35	78.3678	4756.35	71.9687	4756.35	74.305	4756.35	68.7726	4756.35	68.204	4756.35	69.5726	4756.35	70.8845	4756.35	66.8695	4756.35	68.3908	4756.35	60.9193	4756.35	68.3907	4756.35	63.3744	4756.35	67.1068	4756.35	64.5755	4756.35	66.727	4756.35	64.6811	4756.35	67.8602	4756.35	69.5194	4756.35	65.3558	4756.35	71.4352
4924.8	87.686	4924.8	87.5888	4924.8	85.8697	4924.8	86.8271	4924.8	85.2899	4924.8	86.9747	4924.8	86.9414	4924.8	84.7939	4924.8	86.1602	4924.8	82.2122	4924.8	81.4098	4924.8	80.8935	4924.8	82.2883	4924.8	76.3031	4924.8	83.7207	4924.8	75.0902	4924.8	80.5759	4924.8	74.1416	4924.8	75.8573	4924.8	69.9007	4924.8	68.4103	4924.8	66.5449	4924.8	69.7954	4924.8	65.702	4924.8	71.3187	4924.8	59.8449	4924.8	69.7548	4924.8	61.6624	4924.8	69.3213	4924.8	60.6913	4924.8	65.0415	4924.8	65.2284	4924.8	64.8545	4924.8	67.5894	4924.8	63.6256	4924.8	70.0248
5097.66	87.6363	5097.66	87.3454	5097.66	86.3297	5097.66	87.0848	5097.66	85.8394	5097.66	86.9345	5097.66	87.1223	5097.66	84.2047	5097.66	86.5468	5097.66	82.057	5097.66	83.1042	5097.66	80.1362	5097.66	81.4089	5097.66	75.5613	5097.66	82.8026	5097.66	74.4071	5097.66	81.1102	5097.66	71.9273	5097.66	76.6705	5097.66	69.2889	5097.66	69.4679	5097.66	68.1521	5097.66	66.3439	5097.66	65.5712	5097.66	71.6538	5097.66	59.8986	5097.66	69.2845	5097.66	61.7041	5097.66	68.1219	5097.66	62.256	5097.66	64.3256	5097.66	63.9522	5097.66	66.8909	5097.66	68.1385	5097.66	65.4164	5097.66	71.0861
5277.83	87.2355	5277.83	87.7707	5277.83	86.0686	5277.83	87.6193	5277.83	86.0119	5277.83	86.6031	5277.83	86.9121	5277.83	83.8596	5277.83	85.9556	5277.83	82.1003	5277.83	83.4985	5277.83	79.6565	5277.83	81.878	5277.83	76.497	5277.83	81.8221	5277.83	76.2358	5277.83	81.2229	5277.83	72.8207	5277.83	76.4193	5277.83	68.8293	5277.83	62.0038	5277.83	67.9527	5277.83	54.5319	5277.83	62.3106	5277.83	68.9256	5277.83	59.5636	5277.83	65.4591	5277.83	61.7017	5277.83	67.4494	5277.83	64.227	5277.83	63.6533	5277.83	65.0965	5277.83	66.3486	5277.83	66.4642	5277.83	60.1727	5277.83	66.9903
5463.87	87.3675	5463.87	87.9894	5463.87	85.6859	5463.87	87.4138	5463.87	85.898	5463.87	86.5746	5463.87	86.8966	5463.87	83.8435	5463.87	85.732	5463.87	81.6114	5463.87	82.8107	5463.87	79.971	5463.87	82.7013	5463.87	76.6938	5463.87	82.2637	5463.87	73.6102	5463.87	79.8912	5463.87	69.5335	5463.87	77.525	5463.87	67.7999	5463.87	69.3975	5463.87	66.1639	5463.87	48.7984	5463.87	58.9881	5463.87	65.3678	5463.87	55.533	5463.87	66.1968	5463.87	58.8511	5463.87	64.34	5463.87	63.0291	5463.87	64.2971	5463.87	65.6735	5463.87	65.8462	5463.87	68.653	5463.87	58.5321	5463.87	66.4712
5657.23	86.8625	5657.23	87.5166	5657.23	85.3886	5657.23	87.3962	5657.23	85.5497	5657.23	86.5252	5657.23	86.7003	5657.23	83.6406	5657.23	85.7431	5657.23	81.9291	5657.23	82.6964	5657.23	79.1323	5657.23	82.3745	5657.23	74.2381	5657.23	81.9025	5657.23	72.6716	5657.23	79.4638	5657.23	68.5908	5657.23	77.4021	5657.23	66.4819	5657.23	68.7986	5657.23	65.9045	5657.23	55.4476	5657.23	62.2162	5657.23	63.7896	5657.23	55.0674	5657.23	69.1862	5657.23	56.81	5657.23	68.0707	5657.23	61.3721	5657.23	62.3743	5657.23	63.3586	5657.23	67.0617	5657.23	67.7896	5657.23	58.1584	5657.23	66.5959
5856.45	86.4392	5856.45	87.2993	5856.45	85.1782	5856.45	87.2506	5856.45	85.1982	5856.45	85.892	5856.45	86.2335	5856.45	83.5483	5856.45	85.7266	5856.45	81.9309	5856.45	83.0549	5856.45	78.4908	5856.45	82.1941	5856.45	74.7142	5856.45	82.038	5856.45	74.003	5856.45	79.7719	5856.45	69.436	5856.45	78.0304	5856.45	67.9364	5856.45	71.9605	5856.45	67.8953	5856.45	55.2163	5856.45	63.7529	5856.45	63.154	5856.45	60.1392	5856.45	68.3741	5856.45	53.6289	5856.45	69.6094	5856.45	59.0163	5856.45	61.7215	5856.45	63.3892	5856.45	64.2206	5856.45	66.885	5856.45	56.9507	5856.45	66.2898
6062.99	86.2439	6062.99	87.1766	6062.99	84.7863	6062.99	86.8164	6062.99	84.9365	6062.99	85.5546	6062.99	86.2759	6062.99	83.5917	6062.99	85.7859	6062.99	81.2021	6062.99	83.6822	6062.99	78.6826	6062.99	82.455	6062.99	76.9066	6062.99	81.5991	6062.99	74.5411	6062.99	78.4869	6062.99	70.8939	6062.99	75.9273	6062.99	69.2857	6062.99	68.4621	6062.99	66.6436	6062.99	59.2979	6062.99	65.0382	6062.99	61.3257	6062.99	62.8665	6062.99	63.5756	6062.99	51.8299	6062.99	65.6044	6062.99	59.0307	6062.99	59.8479	6062.99	64.1711	6062.99	61.0434	6062.99	67.6463	6062.99	51.2986	6062.99	66.401
6276.86	85.8648	6276.86	86.8358	6276.86	84.0215	6276.86	86.2794	6276.86	84.3622	6276.86	85.178	6276.86	86.0236	6276.86	82.7997	6276.86	85.9238	6276.86	80.8085	6276.86	83.6258	6276.86	79.3929	6276.86	81.9162	6276.86	75.9913	6276.86	79.674	6276.86	73.778	6276.86	75.5401	6276.86	69.6861	6276.86	73.899	6276.86	66.534	6276.86	65.8245	6276.86	66.665	6276.86	63.1818	6276.86	64.4911	6276.86	60.632	6276.86	63.8513	6276.86	62.564	6276.86	48.2947	6276.86	63.6661	6276.86	58.0662	6276.86	59.3969	6276.86	63.8161	6276.86	62.4378	6276.86	66.7854	6276.86	52.8812	6276.86	65.8937
6498.05	85.7855	6498.05	86.5681	6498.05	83.463	6498.05	85.9162	6498.05	83.5694	6498.05	84.762	6498.05	85.8195	6498.05	82.2072	6498.05	85.9705	6498.05	80.993	6498.05	83.4103	6498.05	79.0953	6498.05	79.8701	6498.05	74.6763	6498.05	75.5068	6498.05	75.0318	6498.05	74.3983	6498.05	72.2947	6498.05	76.3144	6498.05	68.9871	6498.05	70.5596	6498.05	67.4551	6498.05	65.0711	6498.05	65.0257	6498.05	60.3796	6498.05	65.344	6498.05	62.9377	6498.05	53.3615	6498.05	64.7889	6498.05	56.3728	6498.05	58.8105	6498.05	63.1369	6498.05	61.9409	6498.05	66.1696	6498.05	50.7086	6498.05	65.3117
6726.56	85.212	6726.56	86.1938	6726.56	82.5985	6726.56	85.7707	6726.56	82.4074	6726.56	83.5487	6726.56	85.1895	6726.56	81.2646	6726.56	86.2051	6726.56	81.3034	6726.56	83.9169	6726.56	79.0653	6726.56	79.8943	6726.56	77.4643	6726.56	75.8856	6726.56	76.3401	6726.56	74.5819	6726.56	72.4363	6726.56	76.2015	6726.56	70.5771	6726.56	71.9432	6726.56	68.632	6726.56	61.5344	6726.56	65.9298	6726.56	63.6769	6726.56	66.0665	6726.56	56.0674	6726.56	56.3188	6726.56	65.7051	6726.56	56.6557	6726.56	60.0446	6726.56	64.5637	6726.56	63.2065	6726.56	66.3384	6726.56	53.5716	6726.56	65.4548
6963.87	85.0069	6963.87	86.5278	6963.87	81.9172	6963.87	85.3623	6963.87	82.4986	6963.87	82.0338	6963.87	84.567	6963.87	81.067	6963.87	85.626	6963.87	81.3272	6963.87	84.0653	6963.87	79.6435	6963.87	79.5709	6963.87	78.7262	6963.87	76.1466	6963.87	75.3432	6963.87	74.228	6963.87	71.2968	6963.87	72.9116	6963.87	69.3094	6963.87	69.0893	6963.87	67.8931	6963.87	49.0766	6963.87	66.1313	6963.87	63.5761	6963.87	65.6553	6963.87	46.3369	6963.87	57.3961	6963.87	63.5477	6963.87	52.9665	6963.87	63.6007	6963.87	62.469	6963.87	60.1679	6963.87	66.0378	6963.87	55.5527	6963.87	63.6006
7209.96	84.8208	7209.96	86.8223	7209.96	80.9216	7209.96	84.7195	7209.96	82.3666	7209.96	80.8537	7209.96	84.0028	7209.96	80.6238	7209.96	84.8515	7209.96	81.1318	7209.96	83.1949	7209.96	80.0231	7209.96	78.9115	7209.96	77.89	7209.96	76.0865	7209.96	74.5891	7209.96	76.6822	7209.96	73.456	7209.96	74.6677	7209.96	69.8441	7209.96	71.0977	7209.96	68.8976	7209.96	61.448	7209.96	66.6623	7209.96	58.0887	7209.96	65.8525	7209.96	56.4045	7209.96	59.8404	7209.96	61.095	7209.96	43.1678	7209.96	60.704	7209.96	59.9573	7209.96	59.9965	7209.96	64.5605	7209.96	51.1368	7209.96	62.9201
7464.84	84.8106	7464.84	87.1599	7464.84	81.2159	7464.84	84.924	7464.84	82.5167	7464.84	79.7773	7464.84	83.9358	7464.84	79.4968	7464.84	84.3272	7464.84	81.2062	7464.84	81.756	7464.84	80.9705	7464.84	78.9365	7464.84	78.9648	7464.84	74.8381	7464.84	76.247	7464.84	74.9925	7464.84	74.0511	7464.84	76.7674	7464.84	69.6005	7464.84	75.1413	7464.84	69.9816	7464.84	66.3649	7464.84	68.2833	7464.84	56.6195	7464.84	66.7292	7464.84	57.9965	7464.84	62.5638	7464.84	62.0119	7464.84	55.5292	7464.84	58.3346	7464.84	54.7334	7464.84	59.2928	7464.84	64.4114	7464.84	54.5994	7464.84	64.1841
7727.05	85.1921	7727.05	87.6207	7727.05	81.835	7727.05	85.704	7727.05	82.8762	7727.05	79.4779	7727.05	84.3115	7727.05	78.3457	7727.05	83.7805	7727.05	81.3509	7727.05	80.1365	7727.05	81.7388	7727.05	77.803	7727.05	79.098	7727.05	72.97	7727.05	75.366	7727.05	72.8293	7727.05	72.0023	7727.05	75.9836	7727.05	68.3062	7727.05	77.0683	7727.05	69.2651	7727.05	68.39	7727.05	67.874	7727.05	43.2977	7727.05	66.954	7727.05	59.4724	7727.05	62.6522	7727.05	59.1867	7727.05	57.9053	7727.05	63.323	7727.05	45.5728	7727.05	56.8503	7727.05	63.2664	7727.05	50.5131	7727.05	63.7492
7999.51	85.2831	7999.51	87.839	7999.51	82.5988	7999.51	86.3561	7999.51	83.5827	7999.51	79.7976	7999.51	84.8959	7999.51	77.3874	7999.51	83.2234	7999.51	81.5054	7999.51	79.0507	7999.51	81.3708	7999.51	76.3859	7999.51	78.5002	7999.51	73.2626	7999.51	76.0321	7999.51	66.2161	7999.51	72.5583	7999.51	74.2323	7999.51	69.353	7999.51	78.4591	7999.51	68.7466	7999.51	69.8746	7999.51	67.4714	7999.51	43.4198	7999.51	67.2777	7999.51	50.6436	7999.51	63.3402	7999.51	55.2522	7999.51	60.4162	7999.51	61.2704	7999.51	53.4628	7999.51	54.731	7999.51	61.3156	7999.51	49.8167	7999.51	63.7501
8282.23	86.1555	8282.23	88.2738	8282.23	83.368	8282.23	86.7358	8282.23	84.4436	8282.23	80.2974	8282.23	85.8949	8282.23	76.7674	8282.23	83.2473	8282.23	81.1543	8282.23	76.8805	8282.23	81.1229	8282.23	72.9947	8282.23	79.2396	8282.23	72.1426	8282.23	76.2094	8282.23	68.6301	8282.23	72.5364	8282.23	74.9525	8282.23	68.9019	8282.23	80.2187	8282.23	68.1574	8282.23	70.7994	8282.23	67.1056	8282.23	44.8544	8282.23	66.74	8282.23	57.7048	8282.23	63.7358	8282.23	35.8066	8282.23	60.6422	8282.23	58.7533	8282.23	58.689	8282.23	56.6731	8282.23	58.6839	8282.23	55.1722	8282.23	63.4265
8573.73	86.9191	8573.73	88.6612	8573.73	83.4588	8573.73	86.9155	8573.73	85.4441	8573.73	80.7161	8573.73	86.6416	8573.73	77.2374	8573.73	83.2356	8573.73	81.0284	8573.73	75.2759	8573.73	81.1769	8573.73	72.2738	8573.73	78.3142	8573.73	73.2704	8573.73	75.1885	8573.73	73.3739	8573.73	71.7816	8573.73	75.7996	8573.73	68.2326	8573.73	81.5142	8573.73	66.7864	8573.73	71.6505	8573.73	66.4743	8573.73	55.4688	8573.73	65.8317	8573.73	57.7339	8573.73	63.3521	8573.73	48.7022	8573.73	61.5916	8573.73	56.507	8573.73	60.7379	8573.73	57.4146	8573.73	54.2838	8573.73	53.9567	8573.73	62.9343
8876.95	87.1194	8876.95	89.0227	8876.95	83.632	8876.95	87.0981	8876.95	86.5004	8876.95	80.2888	8876.95	86.9599	8876.95	77.2571	8876.95	83.0442	8876.95	81.4715	8876.95	77.1633	8876.95	80.7438	8876.95	73.5236	8876.95	78.0318	8876.95	74.9763	8876.95	75.2758	8876.95	73.838	8876.95	71.0366	8876.95	76.611	8876.95	67.7792	8876.95	82.3253	8876.95	65.6363	8876.95	71.1166	8876.95	65.4411	8876.95	61.7932	8876.95	64.6617	8876.95	54.0117	8876.95	63.3046	8876.95	49.166	8876.95	61.225	8876.95	57.1689	8876.95	61.2619	8876.95	56.6438	8876.95	52.6408	8876.95	54.8656	8876.95	60.7357
9188.96	87.3619	9188.96	89.3669	9188.96	84.0872	9188.96	87.0474	9188.96	87.2265	9188.96	80.1876	9188.96	87.1192	9188.96	78.445	9188.96	83.1928	9188.96	81.6829	9188.96	78.4541	9188.96	80.3447	9188.96	74.3595	9188.96	77.9608	9188.96	72.8477	9188.96	74.2316	9188.96	69.1394	9188.96	70.4418	9188.96	76.9021	9188.96	66.2276	9188.96	83.3054	9188.96	64.6147	9188.96	71.446	9188.96	63.9447	9188.96	61.0779	9188.96	63.1816	9188.96	56.5942	9188.96	63.1146	9188.96	40.7444	9188.96	60.8384	9188.96	56.8558	9188.96	61.0061	9188.96	57.0874	9188.96	51.9217	9188.96	52.8923	9188.96	57.7982
9514.16	87.8523	9514.16	89.6579	9514.16	84.6742	9514.16	87.1642	9514.16	87.72	9514.16	80.1625	9514.16	87.0368	9514.16	78.948	9514.16	83.4386	9514.16	81.7189	9514.16	79.5915	9514.16	80.3726	9514.16	76.6755	9514.16	77.3404	9514.16	71.7071	9514.16	73.1573	9514.16	70.2707	9514.16	69.0177	9514.16	76.7147	9514.16	65.7615	9514.16	84.6431	9514.16	64.0857	9514.16	72.9706	9514.16	62.6807	9514.16	54.9411	9514.16	61.0892	9514.16	51.1477	9514.16	61.7114	9514.16	50.7837	9514.16	60.7701	9514.16	58.2596	9514.16	59.4057	9514.16	57.5948	9514.16	49.2827	9514.16	54.5636	9514.16	55.5605
9849.61	88.0859	9849.61	89.8987	9849.61	84.9437	9849.61	86.9459	9849.61	88.1577	9849.61	79.5928	9849.61	87.0975	9849.61	79.4753	9849.61	83.082	9849.61	82.1788	9849.61	79.7601	9849.61	79.744	9849.61	77.2602	9849.61	76.4472	9849.61	71.9341	9849.61	71.031	9849.61	74.4519	9849.61	68.2247	9849.61	75.3337	9849.61	64.5322	9849.61	85.7081	9849.61	63.0649	9849.61	74.1917	9849.61	61.8702	9849.61	63.3348	9849.61	59.3888	9849.61	39.6133	9849.61	60.6981	9849.61	49.3557	9849.61	60.0099	9849.61	55.9464	9849.61	58.9837	9849.61	54.8465	9849.61	53.4265	9849.61	53.9831	9849.61	51.9399
10196.8	88.4198	10196.8	90.1152	10196.8	85.0136	10196.8	86.5708	10196.8	88.441	10196.8	79.9462	10196.8	87.036	10196.8	80.6014	10196.8	82.6499	10196.8	81.8971	10196.8	78.4309	10196.8	78.5761	10196.8	76.0959	10196.8	75.4795	10196.8	72.517	10196.8	69.877	10196.8	74.3426	10196.8	66.9949	10196.8	78.0437	10196.8	63.7628	10196.8	87.1377	10196.8	61.6203	10196.8	76.2473	10196.8	59.305	10196.8	66.558	10196.8	57.1245	10196.8	56.4713	10196.8	59.6998	10196.8	49.7651	10196.8	58.6896	10196.8	49.5956	10196.8	57.8509	10196.8	54.1325	10196.8	52.8193	10196.8	57.1163	10196.8	47.7558
10555.7	88.1483	10555.7	89.8885	10555.7	84.9064	10555.7	85.9052	10555.7	88.3565	10555.7	80.4277	10555.7	86.9275	10555.7	81.4335	10555.7	81.9865	10555.7	81.0968	10555.7	77.294	10555.7	77.9182	10555.7	76.4918	10555.7	74.503	10555.7	71.9582	10555.7	67.7527	10555.7	71.7876	10555.7	65.4969	10555.7	79.6722	10555.7	61.2564	10555.7	87.4748	10555.7	58.2531	10555.7	76.6148	10555.7	55.4468	10555.7	64.4098	10555.7	53.0732	10555.7	58.9207	10555.7	56.7684	10555.7	48.1041	10555.7	58.0475	10555.7	51.8399	10555.7	56.7869	10555.7	50.081	10555.7	51.0671	10555.7	57.1412	10555.7	50.1319
10927.7	88.1613	10927.7	89.6209	10927.7	84.7935	10927.7	85.1483	10927.7	88.4352	10927.7	81.0025	10927.7	86.9314	10927.7	81.9411	10927.7	80.3257	10927.7	80.524	10927.7	77.9413	10927.7	77.2571	10927.7	77.4106	10927.7	72.0934	10927.7	71.794	10927.7	64.4545	10927.7	75.0901	10927.7	60.9098	10927.7	79.9324	10927.7	57.1285	10927.7	87.5417	10927.7	52.146	10927.7	77.584	10927.7	48.5227	10927.7	62.5299	10927.7	48.2526	10927.7	60.7839	10927.7	53.998	10927.7	51.4325	10927.7	55.445	10927.7	43.3701	10927.7	56.3454	10927.7	41.3672	10927.7	47.3503	10927.7	57.3617	10927.7	45.2819
11313	87.9197	11313	89.4275	11313	84.4546	11313	84.5211	11313	88.3079	11313	81.6399	11313	86.3955	11313	82.4001	11313	78.779	11313	80.2462	11313	77.7	11313	75.387	11313	77.6503	11313	68.1892	11313	73.1659	11313	60.833	11313	75.5697	11313	55.591	11313	80.3906	11313	53.2473	11313	87.9657	11313	49.1431	11313	78.333	11313	43.9167	11313	63.3215	11313	35.3405	11313	56.9994	11313	51.5611	11313	51.1067	11313	51.5999	11313	52.5093	11313	56.888	11313	42.4203	11313	45.3712	11313	55.1254	11313	37.8867
11712.9	87.9547	11712.9	89.2681	11712.9	83.942	11712.9	83.6492	11712.9	88.2442	11712.9	82.4146	11712.9	85.6416	11712.9	82.8261	11712.9	77.0383	11712.9	79.7221	11712.9	78.7865	11712.9	71.6195	11712.9	78.2751	11712.9	64.512	11712.9	71.8501	11712.9	56.0323	11712.9	72.7766	11712.9	49.7953	11712.9	81.1947	11712.9	47.4596	11712.9	88.2575	11712.9	43.8187	11712.9	78.6297	11712.9	40.0539	11712.9	64.1099	11712.9	36.0058	11712.9	59.2987	11712.9	46.9681	11712.9	49.576	11712.9	48.6175	11712.9	52.7623	11712.9	55.7542	11712.9	51.0932	11712.9	44.6563	11712.9	55.2686	11712.9	27.0945
12126	87.939	12126	89.1831	12126	83.7509	12126	82.6347	12126	88.2237	12126	82.8551	12126	84.6784	12126	83.1094	12126	75.6491	12126	78.4534	12126	79.0851	12126	67.784	12126	78.6043	12126	62.3086	12126	70.0346	12126	54.7678	12126	72.5334	12126	35.1904	12126	81.0344	12126	44.5423	12126	88.2363	12126	39.22	12126	78.7706	12126	46.9799	12126	64.8203	12126	46.3758	12126	56.4494	12126	41.1259	12126	50.1487	12126	40.9618	12126	54.4235	12126	54.4897	12126	53.0627	12126	45.6318	12126	50.7011	12126	38.6658
12553.7	88.3328	12553.7	89.2129	12553.7	83.993	12553.7	81.9042	12553.7	88.4162	12553.7	83.3617	12553.7	83.635	12553.7	82.9996	12553.7	76.1124	12553.7	76.817	12553.7	79.0293	12553.7	64.1981	12553.7	76.7655	12553.7	58.1925	12553.7	66.4714	12553.7	56.3016	12553.7	71.8067	12553.7	49.6661	12553.7	80.6471	12553.7	50.2217	12553.7	87.8391	12553.7	45.8671	12553.7	78.594	12553.7	49.4895	12553.7	63.5598	12553.7	46.7505	12553.7	56.8096	12553.7	39.5023	12553.7	49.6679	12553.7	44.9112	12553.7	52.9239	12553.7	53.3802	12553.7	50.8378	12553.7	49.1595	12553.7	50.0329	12553.7	44.0671
12996.1	88.6743	12996.1	89.3594	12996.1	84.4427	12996.1	81.7256	12996.1	88.6426	12996.1	83.9352	12996.1	82.6241	12996.1	82.6711	12996.1	77.6898	12996.1	74.9554	12996.1	79.0682	12996.1	57.0058	12996.1	76.2736	12996.1	59.6596	12996.1	65.2583	12996.1	58.2451	12996.1	70.204	12996.1	54.4577	12996.1	79.9304	12996.1	52.9779	12996.1	87.1992	12996.1	50.4342	12996.1	78.1908	12996.1	47.8676	12996.1	65.0625	12996.1	49.5668	12996.1	55.9429	12996.1	46.4853	12996.1	50.4071	12996.1	44.8143	12996.1	52.0836	12996.1	51.5055	12996.1	48.8641	12996.1	49.5781	12996.1	49.5882	12996.1	45.7391
13454.6	89.1199	13454.6	89.4192	13454.6	84.9755	13454.6	81.6897	13454.6	88.9333	13454.6	84.5699	13454.6	82.2942	13454.6	82.1025	13454.6	79.0012	13454.6	72.1973	13454.6	78.6198	13454.6	50.4915	13454.6	74.8833	13454.6	61.7122	13454.6	63.8274	13454.6	59.8062	13454.6	68.0476	13454.6	57.5733	13454.6	78.7183	13454.6	56.7259	13454.6	86.1756	13454.6	51.2164	13454.6	77.3363	13454.6	49.7648	13454.6	65.1478	13454.6	50.452	13454.6	56.0319	13454.6	45.5714	13454.6	50.2367	13454.6	48.0336	13454.6	51.2406	13454.6	51.8679	13454.6	41.2079	13454.6	48.9688	13454.6	51.927	13454.6	43.7159
13929.2	89.4837	13929.2	89.0036	13929.2	85.2216	13929.2	81.795	13929.2	88.9789	13929.2	84.7761	13929.2	81.8507	13929.2	81.201	13929.2	80.0165	13929.2	68.5735	13929.2	78.0627	13929.2	56.3968	13929.2	71.7101	13929.2	64.6679	13929.2	55.0641	13929.2	62.4141	13929.2	68.1048	13929.2	59.7413	13929.2	76.6097	13929.2	58.7808	13929.2	84.3341	13929.2	53.3889	13929.2	75.831	13929.2	51.9908	13929.2	63.7818	13929.2	52.1542	13929.2	56.2745	13929.2	47.2559	13929.2	48.6825	13929.2	51.7773	13929.2	51.5642	13929.2	51.9288	13929.2	29.4987	13929.2	47.645	13929.2	54.5097	13929.2	38.7994
14419.9	89.8374	14419.9	88.6714	14419.9	85.1761	14419.9	82.1534	14419.9	88.9748	14419.9	84.6409	14419.9	81.2609	14419.9	80.1792	14419.9	80.6361	14419.9	64.7746	14419.9	77.2949	14419.9	59.0837	14419.9	68.9537	14419.9	66.2682	14419.9	54.9132	14419.9	64.7656	14419.9	68.0569	14419.9	61.1623	14419.9	74.3844	14419.9	60.7116	14419.9	82.0969	14419.9	54.1462	14419.9	74.2039	14419.9	54.4517	14419.9	61.7646	14419.9	51.2572	14419.9	56.6676	14419.9	48.0371	14419.9	52.7858	14419.9	54.0718	14419.9	52.4499	14419.9	55.2449	14419.9	32.234	14419.9	41.4425	14419.9	54.5188	14419.9	33.4067
14928.2	90.0207	14928.2	88.0558	14928.2	84.8233	14928.2	82.4641	14928.2	88.69	14928.2	84.0859	14928.2	80.8159	14928.2	79.1648	14928.2	80.7113	14928.2	60.8819	14928.2	75.3888	14928.2	64.3291	14928.2	65.3404	14928.2	69.3688	14928.2	62.3563	14928.2	67.4354	14928.2	68.789	14928.2	63.0967	14928.2	71.8351	14928.2	62.5552	14928.2	79.2524	14928.2	55.3794	14928.2	72.5762	14928.2	57.1048	14928.2	57.4124	14928.2	48.7133	14928.2	54.7889	14928.2	48.6036	14928.2	51.2841	14928.2	56.8963	14928.2	51.3105	14928.2	57.6666	14928.2	43.2114	14928.2	31.4731	14928.2	52.8303	14928.2	39.0503
15455.6	89.6626	15455.6	87.2874	15455.6	84.225	15455.6	82.7513	15455.6	88.2976	15455.6	83.1954	15455.6	79.4787	15455.6	77.8389	15455.6	80.5435	15455.6	59.3443	15455.6	73.557	15455.6	68.045	15455.6	64.8075	15455.6	71.7556	15455.6	64.4771	15455.6	67.9019	15455.6	69.2948	15455.6	64.3299	15455.6	70.0066	15455.6	62.9006	15455.6	76.9973	15455.6	54.2534	15455.6	72.5438	15455.6	55.7454	15455.6	60.1166	15455.6	43.2286	15455.6	55.653	15455.6	49.6817	15455.6	53.7691	15455.6	56.453	15455.6	53.1527	15455.6	57.7817	15455.6	44.4764	15455.6	38.0018	15455.6	47.6766	15455.6	44.3617
16000.5	89.1862	16000.5	86.4093	16000.5	83.5376	16000.5	83.1347	16000.5	87.6905	16000.5	82.1784	16000.5	77.6843	16000.5	75.634	16000.5	80.639	16000.5	65.0175	16000.5	71.0178	16000.5	70.9873	16000.5	69.2264	16000.5	72.0398	16000.5	65.9772	16000.5	67.6629	16000.5	68.7014	16000.5	64.264	16000.5	69.0995	16000.5	62.839	16000.5	76.6355	16000.5	52.6597	16000.5	73.3729	16000.5	53.5004	16000.5	61.6557	16000.5	39.368	16000.5	61.4047	16000.5	49.4228	16000.5	59.3536	16000.5	56.2752	16000.5	56.713	16000.5	56.3115	16000.5	47.5045	16000.5	49.7668	16000.5	51.0051	16000.5	49.2234
16564.5	88.3524	16564.5	85.275	16564.5	82.632	16564.5	83.3777	16564.5	87.081	16564.5	80.9835	16564.5	74.6768	16564.5	73.1619	16564.5	79.9981	16564.5	70.5541	16564.5	67.7197	16564.5	71.8501	16564.5	72.5607	16564.5	71.6921	16564.5	69.4283	16564.5	66.9299	16564.5	67.3528	16564.5	62.9807	16564.5	67.3736	16564.5	61.6563	16564.5	76.6098	16564.5	52.388	16564.5	73.808	16564.5	49.6743	16564.5	65.9481	16564.5	37.2183	16564.5	66.1705	16564.5	48.8578	16564.5	61.9748	16564.5	55.7136	16564.5	58.9497	16564.5	52.6499	16564.5	52.7865	16564.5	53.3717	16564.5	55.5661	16564.5	53.4058
17148.9	87.4966	17148.9	84.0124	17148.9	81.5309	17148.9	83.422	17148.9	86.1405	17148.9	79.3803	17148.9	70.5224	17148.9	69.8972	17148.9	79.0703	17148.9	73.4232	17148.9	62.2271	17148.9	71.8167	17148.9	75.7655	17148.9	70.9784	17148.9	69.6089	17148.9	64.93	17148.9	65.7127	17148.9	59.8127	17148.9	63.5907	17148.9	59.5417	17148.9	76.7563	17148.9	50.5178	17148.9	73.7576	17148.9	43.8435	17148.9	67.9061	17148.9	33.2661	17148.9	68.3547	17148.9	48.1489	17148.9	63.2044	17148.9	53.9082	17148.9	60.6679	17148.9	44.6271	17148.9	57.085	17148.9	53.687	17148.9	57.3509	17148.9	53.7525
17752.4	86.596	17752.4	82.0965	17752.4	79.9124	17752.4	83.3402	17752.4	85.1287	17752.4	77.4403	17752.4	67.2571	17752.4	65.9782	17752.4	78.0591	17752.4	74.9898	17752.4	63.2457	17752.4	70.943	17752.4	76.4602	17752.4	68.8526	17752.4	62.9112	17752.4	63.3447	17752.4	66.6259	17752.4	55.6053	17752.4	53.4856	17752.4	57.8965	17752.4	76.5009	17752.4	49.7381	17752.4	72.3866	17752.4	42.4064	17752.4	69.2703	17752.4	26.0035	17752.4	69.1107	17752.4	47.2806	17752.4	64.2219	17752.4	51.6444	17752.4	61.5202	17752.4	43.1272	17752.4	56.7283	17752.4	51.1004	17752.4	58.9499	17752.4	50.265
18379.4	85.6532	18379.4	79.0915	18379.4	77.3762	18379.4	83.1978	18379.4	83.9752	18379.4	75.4004	18379.4	68.2721	18379.4	63.7095	18379.4	77.5267	18379.4	75.9543	18379.4	67.0098	18379.4	68.7947	18379.4	77.7292	18379.4	65.8744	18379.4	56.3501	18379.4	62.5804	18379.4	66.3008	18379.4	50.3087	18379.4	55.4589	18379.4	55.4256	18379.4	75.8633	18379.4	49.0638	18379.4	69.2164	18379.4	45.9285	18379.4	70.0306	18379.4	39.8318	18379.4	68.9584	18379.4	48.5373	18379.4	64.1508	18379.4	50.7833	18379.4	61.1394	18379.4	48.9939	18379.4	55.2554	18379.4	47.8123	18379.4	58.7225	18379.4	41.5878
19026.9	85.1195	19026.9	74.6221	19026.9	74.2894	19026.9	83.2818	19026.9	82.9882	19026.9	73.5194	19026.9	71.059	19026.9	65.2764	19026.9	76.6513	19026.9	76.5745	19026.9	70.2274	19026.9	65.7538	19026.9	78.1607	19026.9	63.2247	19026.9	48.4081	19026.9	62.0843	19026.9	64.7861	19026.9	50.12	19026.9	61.1485	19026.9	53.8146	19026.9	75.2488	19026.9	49.0497	19026.9	62.9984	19026.9	48.0134	19026.9	70.2358	19026.9	44.0103	19026.9	68.6841	19026.9	48.9936	19026.9	63.2334	19026.9	50.5362	19026.9	60.8126	19026.9	48.5744	19026.9	55.1563	19026.9	37.6311	19026.9	57.4617	19026.9	46.7825
19697.8	85.2177	19697.8	70.9199	19697.8	75.2886	19697.8	83.4767	19697.8	82.7213	19697.8	71.4109	19697.8	73.7415	19697.8	69.7118	19697.8	74.7657	19697.8	75.9189	19697.8	72.4614	19697.8	62.8619	19697.8	76.989	19697.8	62.3553	19697.8	56.4678	19697.8	60.7213	19697.8	63.8746	19697.8	48.1481	19697.8	63.4932	19697.8	53.9251	19697.8	74.41	19697.8	49.1009	19697.8	57.8573	19697.8	47.5789	19697.8	70.2372	19697.8	45.7668	19697.8	68.9797	19697.8	49.5316	19697.8	63.4515	19697.8	49.2862	19697.8	61.7971	19697.8	44.5212	19697.8	54.1714	19697.8	42.673	19697.8	54.5032	19697.8	49.1593
19999.5	85.6296	19999.5	71.4171	19999.5	76.3284	19999.5	83.5822	19999.5	82.6789	19999.5	71.5184	19999.5	74.7945	19999.5	70.2991	19999.5	73.9471	19999.5	75.8638	19999.5	72.4494	19999.5	61.3416	19999.5	75.5276	19999.5	60.4725	19999.5	57.3837	19999.5	60.4978	19999.5	63.4596	19999.5	47.3673	19999.5	65.6163	19999.5	54.2981	19999.5	73.8129	19999.5	48.7658	19999.5	59.6425	19999.5	47.223	19999.5	70.2067	19999.5	43.7862	19999.5	69.4451	19999.5	49.7124	19999.5	63.7855	19999.5	46.0053	19999.5	61.9287	19999.5	35.2627	19999.5	56.7103	19999.5	51.3147	19999.5	55.022	19999.5	41.9801
