"SPL Horizontal"
"On-Axis"		"10°"		"-10°"		"20°"		"-20°"		"30°"		"-30°"		"40°"		"-40°"		"50°"		"-50°"		"60°"		"-60°"		"70°"		"-70°"		"80°"		"-80°"		"90°"		"-90°"		"100°"		"-100°"		"110°"		"-110°"		"120°"		"-120°"		"130°"		"-130°"		"140°"		"-140°"		"150°"		"-150°"		"160°"		"-160°"		"170°"		"-170°"		"180°"
"Frequency [Hz]"	"Sound Pessure Level [dB]  / [2.83V 1m] "	"Frequency [Hz]"	"Sound Pessure Level [dB]  / [2.83V 1m] "	"Frequency [Hz]"	"Sound Pessure Level [dB]  / [2.83V 1m] "	"Frequency [Hz]"	"Sound Pessure Level [dB]  / [2.83V 1m] "	"Frequency [Hz]"	"Sound Pessure Level [dB]  / [2.83V 1m] "	"Frequency [Hz]"	"Sound Pessure Level [dB]  / [2.83V 1m] "	"Frequency [Hz]"	"Sound Pessure Level [dB]  / [2.83V 1m] "	"Frequency [Hz]"	"Sound Pessure Level [dB]  / [2.83V 1m] "	"Frequency [Hz]"	"Sound Pessure Level [dB]  / [2.83V 1m] "	"Frequency [Hz]"	"Sound Pessure Level [dB]  / [2.83V 1m] "	"Frequency [Hz]"	"Sound Pessure Level [dB]  / [2.83V 1m] "	"Frequency [Hz]"	"Sound Pessure Level [dB]  / [2.83V 1m] "	"Frequency [Hz]"	"Sound Pessure Level [dB]  / [2.83V 1m] "	"Frequency [Hz]"	"Sound Pessure Level [dB]  / [2.83V 1m] "	"Frequency [Hz]"	"Sound Pessure Level [dB]  / [2.83V 1m] "	"Frequency [Hz]"	"Sound Pessure Level [dB]  / [2.83V 1m] "	"Frequency [Hz]"	"Sound Pessure Level [dB]  / [2.83V 1m] "	"Frequency [Hz]"	"Sound Pessure Level [dB]  / [2.83V 1m] "	"Frequency [Hz]"	"Sound Pessure Level [dB]  / [2.83V 1m] "	"Frequency [Hz]"	"Sound Pessure Level [dB]  / [2.83V 1m] "	"Frequency [Hz]"	"Sound Pessure Level [dB]  / [2.83V 1m] "	"Frequency [Hz]"	"Sound Pessure Level [dB]  / [2.83V 1m] "	"Frequency [Hz]"	"Sound Pessure Level [dB]  / [2.83V 1m] "	"Frequency [Hz]"	"Sound Pessure Level [dB]  / [2.83V 1m] "	"Frequency [Hz]"	"Sound Pessure Level [dB]  / [2.83V 1m] "	"Frequency [Hz]"	"Sound Pessure Level [dB]  / [2.83V 1m] "	"Frequency [Hz]"	"Sound Pessure Level [dB]  / [2.83V 1m] "	"Frequency [Hz]"	"Sound Pessure Level [dB]  / [2.83V 1m] "	"Frequency [Hz]"	"Sound Pessure Level [dB]  / [2.83V 1m] "	"Frequency [Hz]"	"Sound Pessure Level [dB]  / [2.83V 1m] "	"Frequency [Hz]"	"Sound Pessure Level [dB]  / [2.83V 1m] "	"Frequency [Hz]"	"Sound Pessure Level [dB]  / [2.83V 1m] "	"Frequency [Hz]"	"Sound Pessure Level [dB]  / [2.83V 1m] "	"Frequency [Hz]"	"Sound Pessure Level [dB]  / [2.83V 1m] "	"Frequency [Hz]"	"Sound Pessure Level [dB]  / [2.83V 1m] "	"Frequency [Hz]"	"Sound Pessure Level [dB]  / [2.83V 1m] "
20.5078	59.2356	20.5078	59.2425	20.5078	59.252	20.5078	59.2664	20.5078	59.2954	20.5078	59.3007	20.5078	59.3651	20.5078	59.3406	20.5078	59.4558	20.5078	59.3842	20.5078	59.5584	20.5078	59.4314	20.5078	59.6626	20.5078	59.4829	20.5078	59.7584	20.5078	59.5388	20.5078	59.8375	20.5078	59.5983	20.5078	59.8944	20.5078	59.6583	20.5078	59.9266	20.5078	59.7142	20.5078	59.935	20.5078	59.76	20.5078	59.9232	20.5078	59.7903	20.5078	59.8972	20.5078	59.803	20.5078	59.8636	20.5078	59.8002	20.5078	59.8289	20.5078	59.7885	20.5078	59.799	20.5078	59.7763	20.5078	59.7789	20.5078	59.7715
21.9727	64.7562	21.9727	64.7293	21.9727	64.7951	21.9727	64.7122	21.9727	64.8465	21.9727	64.7021	21.9727	64.9086	21.9727	64.6963	21.9727	64.9773	21.9727	64.6931	21.9727	65.0466	21.9727	64.6912	21.9727	65.11	21.9727	64.6905	21.9727	65.1609	21.9727	64.691	21.9727	65.1942	21.9727	64.6937	21.9727	65.2072	21.9727	64.6996	21.9727	65.1999	21.9727	64.7097	21.9727	65.1752	21.9727	64.7251	21.9727	65.1382	21.9727	64.7463	21.9727	65.0949	21.9727	64.7729	21.9727	65.0507	21.9727	64.8038	21.9727	65.0093	21.9727	64.8372	21.9727	64.9718	21.9727	64.8711	21.9727	64.9374	21.9727	64.9044
23.4375	67.2328	23.4375	67.203	23.4375	67.2761	23.4375	67.1873	23.4375	67.3307	23.4375	67.1856	23.4375	67.394	23.4375	67.1971	23.4375	67.4625	23.4375	67.2205	23.4375	67.533	23.4375	67.2542	23.4375	67.6022	23.4375	67.2965	23.4375	67.6673	23.4375	67.3452	23.4375	67.7257	23.4375	67.3979	23.4375	67.7753	23.4375	67.4514	23.4375	67.8139	23.4375	67.5021	23.4375	67.8397	23.4375	67.5466	23.4375	67.8509	23.4375	67.5823	23.4375	67.8463	23.4375	67.6085	23.4375	67.8267	23.4375	67.6273	23.4375	67.7951	23.4375	67.6429	23.4375	67.7568	23.4375	67.6609	23.4375	67.7185	23.4375	67.6857
24.9023	72.6797	24.9023	72.6627	24.9023	72.7003	24.9023	72.6487	24.9023	72.7241	24.9023	72.637	24.9023	72.75	24.9023	72.6266	24.9023	72.7764	24.9023	72.6169	24.9023	72.8016	24.9023	72.6077	24.9023	72.8237	24.9023	72.5991	24.9023	72.8414	24.9023	72.5911	24.9023	72.8539	24.9023	72.5842	24.9023	72.8605	24.9023	72.5786	24.9023	72.8606	24.9023	72.5744	24.9023	72.8538	24.9023	72.572	24.9023	72.8399	24.9023	72.572	24.9023	72.8187	24.9023	72.5751	24.9023	72.7907	24.9023	72.5828	24.9023	72.7569	24.9023	72.5966	24.9023	72.7194	24.9023	72.6179	24.9023	72.6814	24.9023	72.6466
26.3672	73.3555	26.3672	73.3263	26.3672	73.3849	26.3672	73.2983	26.3672	73.4135	26.3672	73.2717	26.3672	73.4397	26.3672	73.2469	26.3672	73.462	26.3672	73.2241	26.3672	73.479	26.3672	73.2033	26.3672	73.4897	26.3672	73.1846	26.3672	73.4936	26.3672	73.1679	26.3672	73.4905	26.3672	73.1527	26.3672	73.4803	26.3672	73.1389	26.3672	73.463	26.3672	73.1263	26.3672	73.4383	26.3672	73.1151	26.3672	73.4062	26.3672	73.1063	26.3672	73.3673	26.3672	73.1012	26.3672	73.323	26.3672	73.1015	26.3672	73.2758	26.3672	73.1091	26.3672	73.2291	26.3672	73.1255	26.3672	73.1867	26.3672	73.1515
27.832	74.3876	27.832	74.3801	27.832	74.3897	27.832	74.3665	27.832	74.3869	27.832	74.3465	27.832	74.3793	27.832	74.32	27.832	74.3672	27.832	74.2875	27.832	74.3507	27.832	74.2497	27.832	74.33	27.832	74.2075	27.832	74.3055	27.832	74.1618	27.832	74.2776	27.832	74.1135	27.832	74.2468	27.832	74.0638	27.832	74.2131	27.832	74.014	27.832	74.1762	27.832	73.9665	27.832	74.1355	27.832	73.9239	27.832	74.0911	27.832	73.8893	27.832	74.0437	27.832	73.8656	27.832	73.9952	27.832	73.8552	27.832	73.9488	27.832	73.8591	27.832	73.9082	27.832	73.8774
29.2969	74.5107	29.2969	74.5066	29.2969	74.5104	29.2969	74.4981	29.2969	74.5059	29.2969	74.4848	29.2969	74.4969	29.2969	74.4667	29.2969	74.483	29.2969	74.4437	29.2969	74.464	29.2969	74.4161	29.2969	74.4398	29.2969	74.384	29.2969	74.4105	29.2969	74.3476	29.2969	74.3766	29.2969	74.3068	29.2969	74.3388	29.2969	74.2624	29.2969	74.2976	29.2969	74.2152	29.2969	74.2538	29.2969	74.1672	29.2969	74.2081	29.2969	74.121	29.2969	74.162	29.2969	74.0794	29.2969	74.1174	29.2969	74.0454	29.2969	74.0769	29.2969	74.0211	29.2969	74.0435	29.2969	74.0083	29.2969	74.0198	29.2969	74.0078
30.7617	74.9699	30.7617	74.9668	30.7617	74.9671	30.7617	74.9576	30.7617	74.9589	30.7617	74.9416	30.7617	74.9449	30.7617	74.9183	30.7617	74.9251	30.7617	74.8876	30.7617	74.899	30.7617	74.8495	30.7617	74.8667	30.7617	74.8042	30.7617	74.8285	30.7617	74.7523	30.7617	74.7851	30.7617	74.6946	30.7617	74.7377	30.7617	74.6327	30.7617	74.6871	30.7617	74.5687	30.7617	74.6343	30.7617	74.5057	30.7617	74.5803	30.7617	74.4472	30.7617	74.5259	30.7617	74.397	30.7617	74.4728	30.7617	74.3583	30.7617	74.4235	30.7617	74.3333	30.7617	74.3809	30.7617	74.3233	30.7617	74.3484	30.7617	74.3286
32.2266	75.0351	32.2266	75.0266	32.2266	75.0351	32.2266	75.0095	32.2266	75.0264	32.2266	74.9842	32.2266	75.009	32.2266	74.9508	32.2266	74.9829	32.2266	74.9099	32.2266	74.9483	32.2266	74.862	32.2266	74.9058	32.2266	74.8079	32.2266	74.8562	32.2266	74.7481	32.2266	74.8007	32.2266	74.6836	32.2266	74.7406	32.2266	74.6155	32.2266	74.6772	32.2266	74.5453	32.2266	74.6118	32.2266	74.4756	32.2266	74.5457	32.2266	74.4096	32.2266	74.4802	32.2266	74.3512	32.2266	74.4176	32.2266	74.3042	32.2266	74.3607	32.2266	74.2718	32.2266	74.3129	32.2266	74.2562	32.2266	74.2779	32.2266	74.2584
33.6914	75.8828	33.6914	75.8808	33.6914	75.8755	33.6914	75.8694	33.6914	75.8589	33.6914	75.8486	33.6914	75.8333	33.6914	75.8183	33.6914	75.799	33.6914	75.7791	33.6914	75.7562	33.6914	75.7313	33.6914	75.7056	33.6914	75.6757	33.6914	75.6483	33.6914	75.6132	33.6914	75.5853	33.6914	75.5452	33.6914	75.5181	33.6914	75.4733	33.6914	75.4483	33.6914	75.3995	33.6914	75.3776	33.6914	75.3262	33.6914	75.3079	33.6914	75.2562	33.6914	75.2413	33.6914	75.1925	33.6914	75.1804	33.6914	75.138	33.6914	75.1286	33.6914	75.0957	33.6914	75.089	33.6914	75.0682	33.6914	75.0647	33.6914	75.0576
35.1562	76.0955	35.1562	76.0896	35.1562	76.0931	35.1562	76.0752	35.1562	76.0827	35.1562	76.0525	35.1562	76.0648	35.1562	76.0215	35.1562	76.0397	35.1562	75.9829	35.1562	76.008	35.1562	75.9374	35.1562	75.9703	35.1562	75.886	35.1562	75.9273	35.1562	75.83	35.1562	75.8798	35.1562	75.7711	35.1562	75.8288	35.1562	75.7109	35.1562	75.7754	35.1562	75.6516	35.1562	75.7207	35.1562	75.5953	35.1562	75.6664	35.1562	75.5447	35.1562	75.614	35.1562	75.5021	35.1562	75.5655	35.1562	75.4698	35.1562	75.5228	35.1562	75.4493	35.1562	75.4876	35.1562	75.4413	35.1562	75.4614	35.1562	75.4456
36.6211	76.4876	36.6211	76.4707	36.6211	76.4945	36.6211	76.4441	36.6211	76.4913	36.6211	76.4083	36.6211	76.4782	36.6211	76.3639	36.6211	76.4557	36.6211	76.312	36.6211	76.4243	36.6211	76.2534	36.6211	76.3848	36.6211	76.1892	36.6211	76.3381	36.6211	76.1206	36.6211	76.2851	36.6211	76.0491	36.6211	76.2267	36.6211	75.9767	36.6211	76.1638	36.6211	75.9058	36.6211	76.0974	36.6211	75.8395	36.6211	76.0289	36.6211	75.7811	36.6211	75.96	36.6211	75.7338	36.6211	75.8929	36.6211	75.7005	36.6211	75.8304	36.6211	75.6832	36.6211	75.7754	36.6211	75.6829	36.6211	75.7307	36.6211	75.6992
38.0859	76.7301	38.0859	76.7164	38.0859	76.7309	38.0859	76.6898	38.0859	76.7188	38.0859	76.6509	38.0859	76.6945	38.0859	76.6005	38.0859	76.6582	38.0859	76.5399	38.0859	76.6107	38.0859	76.4706	38.0859	76.5528	38.0859	76.394	38.0859	76.4855	38.0859	76.3117	38.0859	76.4103	38.0859	76.2253	38.0859	76.3288	38.0859	76.1369	38.0859	76.2429	38.0859	76.0492	38.0859	76.1547	38.0859	75.9656	38.0859	76.0671	38.0859	75.8899	38.0859	75.9832	38.0859	75.8256	38.0859	75.9065	38.0859	75.7759	38.0859	75.8403	38.0859	75.7427	38.0859	75.7875	38.0859	75.7272	38.0859	75.7501	38.0859	75.7298
39.5508	77.6087	39.5508	77.5797	39.5508	77.6185	39.5508	77.5323	39.5508	77.609	39.5508	77.4676	39.5508	77.5803	39.5508	77.3876	39.5508	77.5326	39.5508	77.2947	39.5508	77.4663	39.5508	77.1917	39.5508	77.3822	39.5508	77.0814	39.5508	77.2813	39.5508	76.9667	39.5508	77.1658	39.5508	76.8511	39.5508	77.039	39.5508	76.7378	39.5508	76.9051	39.5508	76.6302	39.5508	76.7696	39.5508	76.5307	39.5508	76.6387	39.5508	76.4416	39.5508	76.5185	39.5508	76.3649	39.5508	76.4148	39.5508	76.3027	39.5508	76.3319	39.5508	76.257	39.5508	76.272	39.5508	76.2296	39.5508	76.2357	39.5508	76.222
41.0156	80.3176	41.0156	80.2708	41.0156	80.3449	41.0156	80.2042	41.0156	80.3531	41.0156	80.1169	41.0156	80.3421	41.0156	80.0076	41.0156	80.3121	41.0156	79.8749	41.0156	80.2632	41.0156	79.7171	41.0156	80.1956	41.0156	79.5325	41.0156	80.1097	41.0156	79.3207	41.0156	80.0053	41.0156	79.0835	41.0156	79.8819	41.0156	78.8269	41.0156	79.7385	41.0156	78.563	41.0156	79.5736	41.0156	78.3107	41.0156	79.3857	41.0156	78.0927	41.0156	79.1748	41.0156	77.9311	41.0156	78.9437	41.0156	77.8423	41.0156	78.6998	41.0156	77.8333	41.0156	78.4559	41.0156	77.9019	41.0156	78.2293	41.0156	78.0387
42.4805	79.4759	42.4805	79.4955	42.4805	79.4497	42.4805	79.5072	42.4805	79.4182	42.4805	79.5107	42.4805	79.383	42.4805	79.5056	42.4805	79.3461	42.4805	79.4922	42.4805	79.3091	42.4805	79.4711	42.4805	79.2735	42.4805	79.443	42.4805	79.2406	42.4805	79.4088	42.4805	79.2112	42.4805	79.3699	42.4805	79.1857	42.4805	79.3277	42.4805	79.1642	42.4805	79.284	42.4805	79.1464	42.4805	79.2411	42.4805	79.1314	42.4805	79.2013	42.4805	79.1186	42.4805	79.1667	42.4805	79.1075	42.4805	79.1383	42.4805	79.0983	42.4805	79.1165	42.4805	79.0919	42.4805	79.1013	42.4805	79.0896	42.4805	79.0925
43.9453	79.8931	43.9453	79.9138	43.9453	79.8656	43.9453	79.9273	43.9453	79.8322	43.9453	79.9334	43.9453	79.7943	43.9453	79.9319	43.9453	79.7534	43.9453	79.923	43.9453	79.7113	43.9453	79.907	43.9453	79.6698	43.9453	79.8845	43.9453	79.6307	43.9453	79.8562	43.9453	79.5951	43.9453	79.8232	43.9453	79.5642	43.9453	79.7865	43.9453	79.5384	43.9453	79.7476	43.9453	79.5182	43.9453	79.7081	43.9453	79.5035	43.9453	79.6696	43.9453	79.4942	43.9453	79.6332	43.9453	79.49	43.9453	79.5999	43.9453	79.491	43.9453	79.5703	43.9453	79.497	43.9453	79.5449	43.9453	79.508	43.9453	79.5241
45.4102	80.0818	45.4102	80.1008	45.4102	80.0527	45.4102	80.1092	45.4102	80.0144	45.4102	80.1068	45.4102	79.9681	45.4102	80.0937	45.4102	79.9154	45.4102	80.0704	45.4102	79.8581	45.4102	80.0376	45.4102	79.7985	45.4102	79.9966	45.4102	79.7385	45.4102	79.9487	45.4102	79.6804	45.4102	79.896	45.4102	79.6263	45.4102	79.8407	45.4102	79.5781	45.4102	79.785	45.4102	79.5374	45.4102	79.731	45.4102	79.5056	45.4102	79.6805	45.4102	79.4834	45.4102	79.6345	45.4102	79.4709	45.4102	79.5936	45.4102	79.4676	45.4102	79.558	45.4102	79.4726	45.4102	79.5278	45.4102	79.4848	45.4102	79.5034
46.875	80.4442	46.875	80.4567	46.875	80.4229	46.875	80.4603	46.875	80.3931	46.875	80.4552	46.875	80.3557	46.875	80.4418	46.875	80.312	46.875	80.4206	46.875	80.2635	46.875	80.3922	46.875	80.212	46.875	80.3576	46.875	80.1597	46.875	80.3178	46.875	80.1083	46.875	80.2742	46.875	80.06	46.875	80.2282	46.875	80.0163	46.875	80.1815	46.875	79.979	46.875	80.1357	46.875	79.9492	46.875	80.092	46.875	79.9275	46.875	80.0517	46.875	79.9144	46.875	80.0155	46.875	79.9093	46.875	79.984	46.875	79.9118	46.875	79.9575	46.875	79.9211	46.875	79.9365
48.3398	80.9557	48.3398	80.9632	48.3398	80.9369	48.3398	80.9595	48.3398	80.9075	48.3398	80.9447	48.3398	80.8683	48.3398	80.9193	48.3398	80.8206	48.3398	80.8843	48.3398	80.7662	48.3398	80.8407	48.3398	80.707	48.3398	80.7898	48.3398	80.6452	48.3398	80.7332	48.3398	80.583	48.3398	80.673	48.3398	80.5225	48.3398	80.6112	48.3398	80.4657	48.3398	80.5501	48.3398	80.4144	48.3398	80.4919	48.3398	80.37	48.3398	80.4386	48.3398	80.3335	48.3398	80.3915	48.3398	80.3054	48.3398	80.3517	48.3398	80.2861	48.3398	80.3198	48.3398	80.2756	48.3398	80.2961	48.3398	80.2738	48.3398	80.2807
51.2695	81.9569	51.2695	81.964	51.2695	81.9369	51.2695	81.958	51.2695	81.9044	51.2695	81.939	51.2695	81.8605	51.2695	81.9076	51.2695	81.8065	51.2695	81.8647	51.2695	81.7441	51.2695	81.8112	51.2695	81.6752	51.2695	81.7488	51.2695	81.6021	51.2695	81.6794	51.2695	81.5272	51.2695	81.6051	51.2695	81.4527	51.2695	81.5286	51.2695	81.3813	51.2695	81.4527	51.2695	81.3151	51.2695	81.3801	51.2695	81.2564	51.2695	81.3136	51.2695	81.2068	51.2695	81.255	51.2695	81.1676	51.2695	81.2061	51.2695	81.1396	51.2695	81.1675	51.2695	81.1229	51.2695	81.1399	51.2695	81.1175	51.2695	81.1232
52.7344	82.4876	52.7344	82.4991	52.7344	82.4621	52.7344	82.4965	52.7344	82.4234	52.7344	82.4799	52.7344	82.3727	52.7344	82.4501	52.7344	82.3114	52.7344	82.408	52.7344	82.2418	52.7344	82.3551	52.7344	82.1662	52.7344	82.2931	52.7344	82.087	52.7344	82.2242	52.7344	82.0071	52.7344	82.1507	52.7344	81.9291	52.7344	82.0751	52.7344	81.8556	52.7344	82.0002	52.7344	81.7893	52.7344	81.9283	52.7344	81.7323	52.7344	81.8615	52.7344	81.6865	52.7344	81.8013	52.7344	81.6532	52.7344	81.7489	52.7344	81.6328	52.7344	81.705	52.7344	81.6251	52.7344	81.6701	52.7344	81.6294	52.7344	81.6446
54.1992	82.8635	54.1992	82.8767	54.1992	82.8368	54.1992	82.8762	54.1992	82.7974	54.1992	82.8624	54.1992	82.7463	54.1992	82.8361	54.1992	82.6851	54.1992	82.7983	54.1992	82.6159	54.1992	82.7507	54.1992	82.541	54.1992	82.695	54.1992	82.4629	54.1992	82.6332	54.1992	82.3843	54.1992	82.5677	54.1992	82.308	54.1992	82.5004	54.1992	82.2367	54.1992	82.4333	54.1992	82.1732	54.1992	82.3679	54.1992	82.1199	54.1992	82.3053	54.1992	82.0787	54.1992	82.2465	54.1992	82.051	54.1992	82.1923	54.1992	82.037	54.1992	82.144	54.1992	82.0364	54.1992	82.103	54.1992	82.0479	54.1992	82.0705
55.6641	83.2742	55.6641	83.2848	55.6641	83.2497	55.6641	83.2816	55.6641	83.2117	55.6641	83.2649	55.6641	83.1612	55.6641	83.2358	55.6641	83.0998	55.6641	83.1955	55.6641	83.0293	55.6641	83.1458	55.6641	82.9522	55.6641	83.0888	55.6641	82.871	55.6641	83.0268	55.6641	82.7887	55.6641	82.9624	55.6641	82.7086	55.6641	82.8979	55.6641	82.6341	55.6641	82.8354	55.6641	82.5687	55.6641	82.7761	55.6641	82.5154	55.6641	82.7202	55.6641	82.4768	55.6641	82.6676	55.6641	82.454	55.6641	82.618	55.6641	82.4466	55.6641	82.5722	55.6641	82.4527	55.6641	82.5313	55.6641	82.47	55.6641	82.4968
58.5938	84.401	58.5938	84.4017	58.5938	84.3871	58.5938	84.3894	58.5938	84.36	58.5938	84.3648	58.5938	84.3203	58.5938	84.3287	58.5938	84.2689	58.5938	84.2825	58.5938	84.2071	58.5938	84.2276	58.5938	84.137	58.5938	84.1661	58.5938	84.0606	58.5938	84.1003	58.5938	83.9808	58.5938	84.0329	58.5938	83.9006	58.5938	83.9663	58.5938	83.8233	58.5938	83.9031	58.5938	83.7523	58.5938	83.845	58.5938	83.6909	58.5938	83.7928	58.5938	83.642	58.5938	83.7463	58.5938	83.6075	58.5938	83.7049	58.5938	83.5881	58.5938	83.668	58.5938	83.5832	58.5938	83.6358	58.5938	83.5911	58.5938	83.6094
60.0586	84.7729	60.0586	84.7668	60.0586	84.7666	60.0586	84.7488	60.0586	84.748	60.0586	84.7197	60.0586	84.7173	60.0586	84.6808	60.0586	84.6753	60.0586	84.6337	60.0586	84.6232	60.0586	84.5805	60.0586	84.5625	60.0586	84.5236	60.0586	84.4953	60.0586	84.4655	60.0586	84.424	60.0586	84.4087	60.0586	84.3516	60.0586	84.3554	60.0586	84.2814	60.0586	84.307	60.0586	84.2168	60.0586	84.2642	60.0586	84.161	60.0586	84.2265	60.0586	84.1166	60.0586	84.1931	60.0586	84.0856	60.0586	84.1628	60.0586	84.0685	60.0586	84.1348	60.0586	84.0644	60.0586	84.1093	60.0586	84.0716	60.0586	84.0874
62.9883	85.6384	62.9883	85.6336	62.9883	85.629	62.9883	85.6151	62.9883	85.6058	62.9883	85.5837	62.9883	85.5692	62.9883	85.5407	62.9883	85.5206	62.9883	85.4882	62.9883	85.4616	62.9883	85.4286	62.9883	85.3943	62.9883	85.3647	62.9883	85.3212	62.9883	85.2994	62.9883	85.2455	62.9883	85.2356	62.9883	85.1702	62.9883	85.1758	62.9883	85.0989	62.9883	85.1215	62.9883	85.0346	62.9883	85.0738	62.9883	84.98	62.9883	85.0326	62.9883	84.9372	62.9883	84.9972	62.9883	84.9072	62.9883	84.9666	62.9883	84.8899	62.9883	84.9402	62.9883	84.8842	62.9883	84.9178	62.9883	84.8883	62.9883	84.9001
64.4531	86.0361	64.4531	86.0257	64.4531	86.0312	64.4531	86.0001	64.4531	86.011	64.4531	85.9607	64.4531	85.9761	64.4531	85.9088	64.4531	85.9279	64.4531	85.847	64.4531	85.868	64.4531	85.778	64.4531	85.7986	64.4531	85.7051	64.4531	85.7225	64.4531	85.6317	64.4531	85.6429	64.4531	85.5614	64.4531	85.563	64.4531	85.4967	64.4531	85.4865	64.4531	85.4399	64.4531	85.4166	64.4531	85.3917	64.4531	85.3563	64.4531	85.3519	64.4531	85.3078	64.4531	85.3196	64.4531	85.2722	64.4531	85.2934	64.4531	85.2493	64.4531	85.272	64.4531	85.2381	64.4531	85.2551	64.4531	85.2367	64.4531	85.243
67.3828	86.7327	67.3828	86.7111	67.3828	86.739	67.3828	86.6747	67.3828	86.73	67.3828	86.6248	67.3828	86.7062	67.3828	86.5633	67.3828	86.6687	67.3828	86.4926	67.3828	86.6188	67.3828	86.4159	67.3828	86.5586	67.3828	86.3366	67.3828	86.4904	67.3828	86.2588	67.3828	86.4172	67.3828	86.1861	67.3828	86.3421	67.3828	86.1219	67.3828	86.2686	67.3828	86.0687	67.3828	86.1998	67.3828	86.0276	67.3828	86.1387	67.3828	85.9986	67.3828	86.0874	67.3828	85.9805	67.3828	86.0469	67.3828	85.9712	67.3828	86.017	67.3828	85.9683	67.3828	85.9965	67.3828	85.9697	67.3828	85.983	67.3828	85.9746
68.8477	87.1218	68.8477	87.0958	68.8477	87.1319	68.8477	87.0545	68.8477	87.1259	68.8477	86.9992	68.8477	87.1045	68.8477	86.932	68.8477	87.0686	68.8477	86.8555	68.8477	87.0198	68.8477	86.7734	68.8477	86.96	68.8477	86.6894	68.8477	86.8917	68.8477	86.6079	68.8477	86.8177	68.8477	86.533	68.8477	86.7412	68.8477	86.4681	68.8477	86.6656	68.8477	86.4157	68.8477	86.5942	68.8477	86.3767	68.8477	86.5298	68.8477	86.3507	68.8477	86.4746	68.8477	86.3358	68.8477	86.4297	68.8477	86.3295	68.8477	86.3952	68.8477	86.3294	68.8477	86.3702	68.8477	86.3336	68.8477	86.3529	68.8477	86.3412
71.7773	87.735	71.7773	87.6998	71.7773	87.7537	71.7773	87.6483	71.7773	87.756	71.7773	87.5816	71.7773	87.7431	71.7773	87.5019	71.7773	87.7161	71.7773	87.4123	71.7773	87.6771	71.7773	87.3169	71.7773	87.628	71.7773	87.2206	71.7773	87.5713	71.7773	87.129	71.7773	87.5097	71.7773	87.0476	71.7773	87.4458	71.7773	86.9811	71.7773	87.3821	71.7773	86.9329	71.7773	87.3209	71.7773	86.9043	71.7773	87.2637	71.7773	86.8945	71.7773	87.2117	71.7773	86.9009	71.7773	87.165	71.7773	86.9196	71.7773	87.1229	71.7773	86.9466	71.7773	87.0843	71.7773	86.9783	71.7773	87.0478	71.7773	87.0125
74.707	88.346	74.707	88.321	74.707	88.3533	74.707	88.2781	74.707	88.3438	74.707	88.2179	74.707	88.319	74.707	88.1418	74.707	88.2808	74.707	88.0524	74.707	88.2315	74.707	87.9534	74.707	88.1736	74.707	87.8494	74.707	88.11	74.707	87.7462	74.707	88.0435	74.707	87.6496	74.707	87.977	74.707	87.5657	74.707	87.913	74.707	87.4995	74.707	87.8534	74.707	87.4544	74.707	87.7994	74.707	87.4314	74.707	87.751	74.707	87.4292	74.707	87.7074	74.707	87.4443	74.707	87.6671	74.707	87.4722	74.707	87.628	74.707	87.5082	74.707	87.5883	74.707	87.5479
77.6367	88.8834	77.6367	88.8752	77.6367	88.8738	77.6367	88.849	77.6367	88.8473	77.6367	88.8054	77.6367	88.8055	77.6367	88.746	77.6367	88.7506	77.6367	88.6732	77.6367	88.6855	77.6367	88.5904	77.6367	88.6136	77.6367	88.5019	77.6367	88.5387	77.6367	88.4125	77.6367	88.4646	77.6367	88.3276	77.6367	88.3952	77.6367	88.2519	77.6367	88.3336	77.6367	88.1897	77.6367	88.282	77.6367	88.1437	77.6367	88.2415	77.6367	88.1145	77.6367	88.2115	77.6367	88.1012	77.6367	88.1903	77.6367	88.1008	77.6367	88.1751	77.6367	88.1093	77.6367	88.1628	77.6367	88.1226	77.6367	88.1506	77.6367	88.1371
79.1016	89.0916	79.1016	89.0855	79.1016	89.079	79.1016	89.0607	79.1016	89.0486	79.1016	89.0178	79.1016	89.0019	79.1016	88.9586	79.1016	88.9414	79.1016	88.8859	79.1016	88.8701	79.1016	88.8033	79.1016	88.7918	79.1016	88.7152	79.1016	88.7104	79.1016	88.6269	79.1016	88.6306	79.1016	88.5435	79.1016	88.5565	79.1016	88.47	79.1016	88.492	79.1016	88.4102	79.1016	88.4396	79.1016	88.3665	79.1016	88.4008	79.1016	88.3391	79.1016	88.3752	79.1016	88.3264	79.1016	88.3607	79.1016	88.3249	79.1016	88.3541	79.1016	88.3302	79.1016	88.3515	79.1016	88.338	79.1016	88.3492	79.1016	88.3448
82.0312	89.4674	82.0312	89.459	82.0312	89.454	82.0312	89.4289	82.0312	89.4196	82.0312	89.3783	82.0312	89.3659	82.0312	89.3092	82.0312	89.2953	82.0312	89.225	82.0312	89.2113	82.0312	89.13	82.0312	89.1179	82.0312	89.0296	82.0312	89.0202	82.0312	88.9299	82.0312	88.9234	82.0312	88.8368	82.0312	88.8332	82.0312	88.7559	82.0312	88.7543	82.0312	88.6911	82.0312	88.6907	82.0312	88.6443	82.0312	88.6444	82.0312	88.6153	82.0312	88.6153	82.0312	88.6014	82.0312	88.6012	82.0312	88.5984	82.0312	88.598	82.0312	88.6012	82.0312	88.6009	82.0312	88.6052	82.0312	88.6049	82.0312	88.6068
84.9609	89.857	84.9609	89.8527	84.9609	89.8375	84.9609	89.8245	84.9609	89.7953	84.9609	89.7731	84.9609	89.732	84.9609	89.7003	84.9609	89.6501	84.9609	89.6092	84.9609	89.5529	84.9609	89.504	84.9609	89.4446	84.9609	89.3901	84.9609	89.3302	84.9609	89.2738	84.9609	89.2154	84.9609	89.1618	84.9609	89.1062	84.9609	89.0605	84.9609	89.0085	84.9609	88.975	84.9609	88.9271	84.9609	88.9084	84.9609	88.865	84.9609	88.8615	84.9609	88.823	84.9609	88.8321	84.9609	88.7994	84.9609	88.8163	84.9609	88.7903	84.9609	88.8088	84.9609	88.7906	84.9609	88.8047	84.9609	88.7953	84.9609	88.8006
87.8906	89.9153	87.8906	89.9145	87.8906	89.8942	87.8906	89.8917	87.8906	89.8515	87.8906	89.8481	87.8906	89.7886	87.8906	89.7855	87.8906	89.7072	87.8906	89.7067	87.8906	89.6102	87.8906	89.6155	87.8906	89.5013	87.8906	89.5168	87.8906	89.3851	87.8906	89.4159	87.8906	89.2674	87.8906	89.3186	87.8906	89.1542	87.8906	89.23	87.8906	89.052	87.8906	89.1539	87.8906	88.9664	87.8906	89.0922	87.8906	88.9018	87.8906	89.0443	87.8906	88.86	87.8906	89.0078	87.8906	88.8404	87.8906	88.9788	87.8906	88.84	87.8906	88.9533	87.8906	88.8538	87.8906	88.9281	87.8906	88.8761	87.8906	88.9021
90.8203	89.8839	90.8203	89.8713	90.8203	89.8751	90.8203	89.8373	90.8203	89.8458	90.8203	89.7833	90.8203	89.798	90.8203	89.7118	90.8203	89.7343	90.8203	89.6268	90.8203	89.6584	90.8203	89.5334	90.8203	89.5746	90.8203	89.4381	90.8203	89.4879	90.8203	89.3479	90.8203	89.4036	90.8203	89.2695	90.8203	89.327	90.8203	89.2089	90.8203	89.263	90.8203	89.1697	90.8203	89.2153	90.8203	89.1525	90.8203	89.1856	90.8203	89.1544	90.8203	89.1735	90.8203	89.1699	90.8203	89.1762	90.8203	89.1914	90.8203	89.1889	90.8203	89.2116	90.8203	89.2055	90.8203	89.2246	90.8203	89.22	90.8203	89.2274
95.2148	90.114	95.2148	90.1193	95.2148	90.0808	95.2148	90.0967	95.2148	90.0206	95.2148	90.0478	95.2148	89.9354	95.2148	89.9748	95.2148	89.8284	95.2148	89.8817	95.2148	89.704	95.2148	89.7735	95.2148	89.568	95.2148	89.6567	95.2148	89.4276	95.2148	89.5388	95.2148	89.2908	95.2148	89.4275	95.2148	89.1665	95.2148	89.3302	95.2148	89.0629	95.2148	89.2523	95.2148	88.9868	95.2148	89.1966	95.2148	88.942	95.2148	89.1621	95.2148	88.9284	95.2148	89.1443	95.2148	88.9415	95.2148	89.136	95.2148	88.9735	95.2148	89.1289	95.2148	89.0151	95.2148	89.1156	95.2148	89.057	95.2148	89.0917
98.1445	90.0774	98.1445	90.0792	98.1445	90.0471	98.1445	90.0527	98.1445	89.9889	98.1445	89.9994	98.1445	89.9043	98.1445	89.9219	98.1445	89.7959	98.1445	89.8241	98.1445	89.6674	98.1445	89.7113	98.1445	89.5238	98.1445	89.5902	98.1445	89.3715	98.1445	89.4681	98.1445	89.2182	98.1445	89.3527	98.1445	89.0726	98.1445	89.2507	98.1445	88.9438	98.1445	89.1666	98.1445	88.8399	98.1445	89.102	98.1445	88.7669	98.1445	89.0545	98.1445	88.7273	98.1445	89.0192	98.1445	88.7196	98.1445	88.9891	98.1445	88.7385	98.1445	88.9573	98.1445	88.7764	98.1445	88.9194	98.1445	88.8243	98.1445	88.8741
101.074	89.768	101.074	89.7601	101.074	89.747	101.074	89.7239	101.074	89.6979	101.074	89.6611	101.074	89.622	101.074	89.5747	101.074	89.5222	101.074	89.4694	101.074	89.4021	101.074	89.3512	101.074	89.2668	101.074	89.2274	101.074	89.1228	101.074	89.1064	101.074	88.9776	101.074	88.9964	101.074	88.84	101.074	88.9045	101.074	88.7191	101.074	88.8352	101.074	88.6229	101.074	88.7892	101.074	88.5577	101.074	88.7632	101.074	88.5259	101.074	88.7507	101.074	88.5254	101.074	88.743	101.074	88.55	101.074	88.7319	101.074	88.5905	101.074	88.7113	101.074	88.6365	101.074	88.6788
105.469	89.9419	105.469	89.903	105.469	89.9449	105.469	89.8281	105.469	89.9134	105.469	89.7193	105.469	89.8504	105.469	89.5805	105.469	89.76	105.469	89.4186	105.469	89.6474	105.469	89.2426	105.469	89.5185	105.469	89.0643	105.469	89.38	105.469	88.8969	105.469	89.239	105.469	88.754	105.469	89.1029	105.469	88.6469	105.469	88.979	105.469	88.5825	105.469	88.8738	105.469	88.5609	105.469	88.7927	105.469	88.5749	105.469	88.7386	105.469	88.612	105.469	88.711	105.469	88.6573	105.469	88.7055	105.469	88.6974	105.469	88.7142	105.469	88.7234	105.469	88.7266	105.469	88.7322
108.398	90.0476	108.398	90.0448	108.398	90.0134	108.398	90.0031	108.398	89.9453	108.398	89.9219	108.398	89.8477	108.398	89.8025	108.398	89.7262	108.398	89.6487	108.398	89.5872	108.398	89.467	108.398	89.4388	108.398	89.2675	108.398	89.2894	108.398	89.0635	108.398	89.1478	108.398	88.871	108.398	89.0221	108.398	88.7062	108.398	88.9186	108.398	88.583	108.398	88.8405	108.398	88.5091	108.398	88.788	108.398	88.4841	108.398	88.7574	108.398	88.4994	108.398	88.7426	108.398	88.5413	108.398	88.7356	108.398	88.5943	108.398	88.7282	108.398	88.6454	108.398	88.7133	108.398	88.6862
112.793	89.8263	112.793	89.8275	112.793	89.7896	112.793	89.7931	112.793	89.7182	112.793	89.7245	112.793	89.6141	112.793	89.6236	112.793	89.4809	112.793	89.4939	112.793	89.3238	112.793	89.3404	112.793	89.1501	112.793	89.1701	112.793	88.9692	112.793	88.9925	112.793	88.792	112.793	88.8192	112.793	88.6308	112.793	88.6631	112.793	88.4968	112.793	88.5362	112.793	88.3988	112.793	88.4466	112.793	88.3408	112.793	88.3967	112.793	88.3205	112.793	88.3816	112.793	88.33	112.793	88.3905	112.793	88.3576	112.793	88.4095	112.793	88.3902	112.793	88.4255	112.793	88.4165	112.793	88.429
117.188	89.69	117.188	89.68	117.188	89.6616	117.188	89.6324	117.188	89.5956	117.188	89.5488	117.188	89.4936	117.188	89.4323	117.188	89.359	117.188	89.2873	117.188	89.1968	117.188	89.1201	117.188	89.0142	117.188	88.9391	117.188	88.8208	117.188	88.7546	117.188	88.6282	117.188	88.5786	117.188	88.4493	117.188	88.4238	117.188	88.2971	117.188	88.3009	117.188	88.1817	117.188	88.2166	117.188	88.1089	117.188	88.1713	117.188	88.0777	117.188	88.1586	117.188	88.0809	117.188	88.1668	117.188	88.1066	117.188	88.1823	117.188	88.1409	117.188	88.1927	117.188	88.1716	117.188	88.19
120.117	89.6029	120.117	89.5796	120.117	89.5894	120.117	89.5207	120.117	89.5387	120.117	89.4285	120.117	89.4514	120.117	89.3062	120.117	89.3296	120.117	89.1587	120.117	89.1767	120.117	88.9924	120.117	88.9986	120.117	88.8158	120.117	88.8037	120.117	88.6392	120.117	88.6032	120.117	88.4738	120.117	88.4109	120.117	88.3309	120.117	88.2416	120.117	88.2198	120.117	88.1091	120.117	88.1456	120.117	88.0226	120.117	88.1079	120.117	87.9842	120.117	88.1003	120.117	87.9876	120.117	88.1115	120.117	88.0198	120.117	88.1282	120.117	88.0641	120.117	88.1376	120.117	88.1049	120.117	88.1308
124.512	89.3659	124.512	89.2975	124.512	89.3989	124.512	89.1951	124.512	89.3961	124.512	89.0611	124.512	89.3581	124.512	88.8997	124.512	89.2863	124.512	88.7173	124.512	89.1832	124.512	88.5225	124.512	89.053	124.512	88.3268	124.512	88.9016	124.512	88.1436	124.512	88.7374	124.512	87.9871	124.512	88.571	124.512	87.87	124.512	88.4144	124.512	87.8006	124.512	88.28	124.512	87.7801	124.512	88.1774	124.512	87.8024	124.512	88.1116	124.512	87.855	124.512	88.0805	124.512	87.9222	124.512	88.0751	124.512	87.9885	124.512	88.0816	124.512	88.0414	124.512	88.0852	124.512	88.0739
128.906	89.2261	128.906	89.1756	128.906	89.2365	128.906	89.0843	128.906	89.2085	128.906	88.9534	128.906	89.1451	128.906	88.786	128.906	89.0508	128.906	88.5882	128.906	88.931	128.906	88.3692	128.906	88.7929	128.906	88.1425	128.906	88.6448	128.906	87.9252	128.906	88.4965	128.906	87.7368	128.906	88.3581	128.906	87.596	128.906	88.2393	128.906	87.516	128.906	88.1477	128.906	87.5012	128.906	88.0869	128.906	87.5444	128.906	88.0557	128.906	87.6297	128.906	88.0471	128.906	87.7361	128.906	88.0502	128.906	87.8431	128.906	88.0514	128.906	87.9345	128.906	88.038	128.906	88.0004
133.301	89.1121	133.301	89.1065	133.301	89.0707	133.301	89.0535	133.301	88.9845	133.301	88.954	133.301	88.8571	133.301	88.8107	133.301	88.694	133.301	88.6285	133.301	88.5033	133.301	88.4156	133.301	88.2958	133.301	88.1837	133.301	88.085	133.301	87.9491	133.301	87.8871	133.301	87.7319	133.301	87.7191	133.301	87.5537	133.301	87.5961	133.301	87.4333	133.301	87.5285	133.301	87.3815	133.301	87.5179	133.301	87.3973	133.301	87.5564	133.301	87.4668	133.301	87.6271	133.301	87.5672	133.301	87.7079	133.301	87.6722	133.301	87.7762	133.301	87.7581	133.301	87.8133	133.301	87.8079
139.16	88.9595	139.16	88.9565	139.16	88.9149	139.16	88.9072	139.16	88.8228	139.16	88.8134	139.16	88.6837	139.16	88.6786	139.16	88.4997	139.16	88.5079	139.16	88.2749	139.16	88.309	139.16	88.0163	139.16	88.092	139.16	87.7348	139.16	87.8702	139.16	87.4462	139.16	87.6587	139.16	87.1711	139.16	87.4729	139.16	86.9334	139.16	87.3257	139.16	86.756	139.16	87.2239	139.16	86.6549	139.16	87.1663	139.16	86.6338	139.16	87.1435	139.16	86.6814	139.16	87.1397	139.16	86.7747	139.16	87.1363	139.16	86.8858	139.16	87.1166	139.16	86.9897	139.16	87.0688
143.555	88.6038	143.555	88.5465	143.555	88.6155	143.555	88.4451	143.555	88.581	143.555	88.3024	143.555	88.5006	143.555	88.123	143.555	88.3752	143.555	87.9143	143.555	88.2074	143.555	87.6869	143.555	88.0019	143.555	87.4552	143.555	87.7664	143.555	87.2366	143.555	87.5123	143.555	87.0494	143.555	87.2558	143.555	86.9092	143.555	87.0167	143.555	86.8245	143.555	86.8163	143.555	86.7939	143.555	86.6733	143.555	86.8057	143.555	86.5987	143.555	86.8413	143.555	86.5909	143.555	86.8799	143.555	86.6361	143.555	86.903	143.555	86.712	143.555	86.8981	143.555	86.7938	143.555	86.8602
147.949	88.318	147.949	88.2473	147.949	88.339	147.949	88.1265	147.949	88.3116	147.949	87.9566	147.949	88.2384	147.949	87.7408	147.949	88.123	147.949	87.4858	147.949	87.9704	147.949	87.2032	147.949	87.7881	147.949	86.9106	147.949	87.5856	147.949	86.6324	147.949	87.3756	147.949	86.3972	147.949	87.1727	147.949	86.2323	147.949	86.9926	147.949	86.1554	147.949	86.8494	147.949	86.167	147.949	86.7523	147.949	86.25	147.949	86.7033	147.949	86.3749	147.949	86.6957	147.949	86.5098	147.949	86.7157	147.949	86.628	147.949	86.7448	147.949	86.7125	147.949	86.764	147.949	86.7568
153.809	88.4645	153.809	88.43	153.809	88.4481	153.809	88.3438	153.809	88.3821	153.809	88.205	153.809	88.2676	153.809	88.0138	153.809	88.1064	153.809	87.772	153.809	87.9018	153.809	87.4845	153.809	87.6592	153.809	87.1616	153.809	87.3882	153.809	86.8208	153.809	87.1032	153.809	86.4883	153.809	86.8242	153.809	86.1975	153.809	86.5751	153.809	85.9823	153.809	86.3783	153.809	85.866	153.809	86.249	153.809	85.8506	153.809	86.1888	153.809	85.9145	153.809	86.1851	153.809	86.021	153.809	86.2153	153.809	86.1323	153.809	86.2538	153.809	86.22	153.809	86.2773	153.809	86.269
159.668	88.5698	159.668	88.519	159.668	88.5648	159.668	88.4131	159.668	88.5042	159.668	88.2536	159.668	88.3885	159.668	88.0443	159.668	88.219	159.668	87.7914	159.668	87.9984	159.668	87.5054	159.668	87.732	159.668	87.202	159.668	87.4295	159.668	86.9025	159.668	87.1065	159.668	86.6328	159.668	86.7854	159.668	86.419	159.668	86.4951	159.668	86.2811	159.668	86.2658	159.668	86.2262	159.668	86.1215	159.668	86.2443	159.668	86.0709	159.668	86.3107	159.668	86.1037	159.668	86.3935	159.668	86.1929	159.668	86.4615	159.668	86.3044	159.668	86.4917	159.668	86.4058	159.668	86.4727
165.527	88.5347	165.527	88.513	165.527	88.4984	165.527	88.4319	165.527	88.4059	165.527	88.2899	165.527	88.2593	165.527	88.0868	165.527	88.0611	165.527	87.824	165.527	87.8154	165.527	87.5063	165.527	87.5288	165.527	87.1437	165.527	87.2121	165.527	86.7545	165.527	86.8811	165.527	86.3672	165.527	86.5577	165.527	86.0201	165.527	86.2677	165.527	85.7542	165.527	86.0366	165.527	85.5997	165.527	85.883	165.527	85.5626	165.527	85.8119	165.527	85.6198	165.527	85.8119	165.527	85.7294	165.527	85.8584	165.527	85.8462	165.527	85.9203	165.527	85.9349	165.527	85.9673	165.527	85.9761
171.387	88.3262	171.387	88.2439	171.387	88.3549	171.387	88.1091	171.387	88.3287	171.387	87.9239	171.387	88.2461	171.387	87.6912	171.387	88.1053	171.387	87.4165	171.387	87.9047	171.387	87.1089	171.387	87.6444	171.387	86.7821	171.387	87.3284	171.387	86.456	171.387	86.9675	171.387	86.1555	171.387	86.5829	171.387	85.9088	171.387	86.2076	171.387	85.7402	171.387	85.8843	171.387	85.6629	171.387	85.6552	171.387	85.6723	171.387	85.5458	171.387	85.7447	171.387	85.5525	171.387	85.8439	171.387	85.6426	171.387	85.9313	171.387	85.7691	171.387	85.976	171.387	85.8864	171.387	85.9611
177.246	87.9633	177.246	87.9144	177.246	87.957	177.246	87.8068	177.246	87.9	177.246	87.6377	177.246	87.7968	177.246	87.4066	177.246	87.6523	177.246	87.1163	177.246	87.4717	177.246	86.775	177.246	87.261	177.246	86.3989	177.246	87.0277	177.246	86.0149	177.246	86.7822	177.246	85.6606	177.246	86.5388	177.246	85.3802	177.246	86.3159	177.246	85.2133	177.246	86.1344	177.246	85.179	177.246	86.0126	177.246	85.2661	177.246	85.9596	177.246	85.437	177.246	85.9689	177.246	85.6426	177.246	86.018	177.246	85.8376	177.246	86.0739	177.246	85.9889	177.246	86.1025	177.246	86.0782
183.105	88.0308	183.105	88.0202	183.105	87.9806	183.105	87.9472	183.105	87.8709	183.105	87.8095	183.105	87.703	183.105	87.6058	183.105	87.4783	183.105	87.3366	183.105	87.2003	183.105	87.0072	183.105	86.8754	183.105	86.6306	183.105	86.5155	183.105	86.2315	183.105	86.1404	183.105	85.8486	183.105	85.7798	183.105	85.5321	183.105	85.4721	183.105	85.3309	183.105	85.2573	183.105	85.2726	183.105	85.1644	183.105	85.3471	183.105	85.1971	183.105	85.5085	183.105	85.3299	183.105	85.6953	183.105	85.5175	183.105	85.852	183.105	85.7091	183.105	85.9408	183.105	85.8615	183.105	85.944
188.965	88.4169	188.965	88.3629	188.965	88.4051	188.965	88.2426	188.965	88.3274	188.965	88.0553	188.965	88.183	188.965	87.8003	188.965	87.9713	188.965	87.4786	188.965	87.6928	188.965	87.0951	188.965	87.3507	188.965	86.6617	188.965	86.9533	188.965	86.202	188.965	86.517	188.965	85.7555	188.965	86.0694	188.965	85.3771	188.965	85.6509	188.965	85.1246	188.965	85.3107	188.965	85.035	188.965	85.0941	188.965	85.1006	188.965	85.0243	188.965	85.2692	188.965	85.0896	188.965	85.468	188.965	85.2467	188.965	85.6317	188.965	85.4372	188.965	85.7171	188.965	85.6048	188.965	85.7065
196.289	88.9348	196.289	88.8712	196.289	88.9438	196.289	88.7521	196.289	88.8962	196.289	88.5733	196.289	88.7871	196.289	88.3282	196.289	88.6103	196.289	88.009	196.289	88.3583	196.289	87.6102	196.289	88.0249	196.289	87.133	196.289	87.6072	196.289	86.5922	196.289	87.1105	196.289	86.0228	196.289	86.5551	196.289	85.485	196.289	85.9852	196.289	85.0582	196.289	85.4734	196.289	84.8156	196.289	85.1072	196.289	84.7866	196.289	84.9495	196.289	84.9353	196.289	84.9958	196.289	85.177	196.289	85.1747	196.289	85.4167	196.289	85.3896	196.289	85.5812	196.289	85.5591	196.289	85.6307
203.613	88.5328	203.613	88.4154	203.613	88.5909	203.613	88.2421	203.613	88.5863	203.613	88.0165	203.613	88.5153	203.613	87.7424	203.613	88.3745	203.613	87.4242	203.613	88.161	203.613	87.0667	203.613	87.8741	203.613	86.6765	203.613	87.517	203.613	86.2642	203.613	87.0993	203.613	85.8491	203.613	86.64	203.613	85.4626	203.613	86.1686	203.613	85.1464	203.613	85.7247	203.613	84.9389	203.613	85.3516	203.613	84.8555	203.613	85.086	203.613	84.8757	203.613	84.9442	203.613	84.9524	203.613	84.9135	203.613	85.0333	203.613	84.9564	203.613	85.0799	203.613	85.0247	203.613	85.075
210.938	88.4944	210.938	88.4409	210.938	88.4965	210.938	88.3252	210.938	88.4538	210.938	88.1341	210.938	88.3673	210.938	87.8542	210.938	88.2328	210.938	87.4745	210.938	88.0414	210.938	86.9903	210.938	87.7832	210.938	86.4091	210.938	87.4507	210.938	85.76	210.938	87.0457	210.938	85.1056	210.938	86.586	210.938	84.5488	210.938	86.1132	210.938	84.2119	210.938	85.6932	210.938	84.1757	210.938	85.4021	210.938	84.4182	210.938	85.291	210.938	84.8251	210.938	85.3533	210.938	85.2604	210.938	85.5267	210.938	85.6209	210.938	85.7274	210.938	85.8505	210.938	85.8808	210.938	85.9331
218.262	89.2871	218.262	89.3111	218.262	89.2209	218.262	89.2852	218.262	89.118	218.262	89.199	218.262	88.9812	218.262	89.04	218.262	88.8116	218.262	88.7948	218.262	88.608	218.262	88.4508	218.262	88.368	218.262	87.9988	218.262	88.0881	218.262	87.4376	218.262	87.7668	218.262	86.782	218.262	87.4076	218.262	86.0763	218.262	87.0233	218.262	85.408	218.262	86.6417	218.262	84.9025	218.262	86.3061	218.262	84.6729	218.262	86.0658	218.262	84.7422	218.262	85.951	218.262	85.0224	218.262	85.9456	218.262	85.3776	218.262	85.9868	218.262	85.694	218.262	85.9944	218.262	85.9055
225.586	90.6459	225.586	90.6942	225.586	90.535	225.586	90.6769	225.586	90.3642	225.586	90.5901	225.586	90.1359	225.586	90.4287	225.586	89.8522	225.586	90.1869	225.586	89.5151	225.586	89.8597	225.586	89.1272	225.586	89.4465	225.586	88.6938	225.586	88.9557	225.586	88.2279	225.586	88.4116	225.586	87.7556	225.586	87.8593	225.586	87.3202	225.586	87.3655	225.586	86.978	225.586	87.0045	225.586	86.78	225.586	86.828	225.586	86.7458	225.586	86.8349	225.586	86.8484	225.586	86.9688	225.586	87.0256	225.586	87.1474	225.586	87.206	225.586	87.2954	225.586	87.3304	225.586	87.3631
232.91	91.4707	232.91	91.4689	232.91	91.4011	232.91	91.3962	232.91	91.2603	232.91	91.2523	232.91	91.0492	232.91	91.0349	232.91	90.7701	232.91	90.7385	232.91	90.4263	232.91	90.3563	232.91	90.0224	232.91	89.8831	232.91	89.5655	232.91	89.3227	232.91	89.0668	232.91	88.6983	232.91	88.546	232.91	88.064	232.91	88.0364	232.91	87.5087	232.91	87.5889	232.91	87.134	232.91	87.2661	232.91	87.0016	232.91	87.1176	232.91	87.0882	232.91	87.1475	232.91	87.2997	232.91	87.3039	232.91	87.5266	232.91	87.503	232.91	87.686	232.91	87.665	232.91	87.7345
241.699	91.998	241.699	91.9053	241.699	92.0421	241.699	91.7679	241.699	92.0308	241.699	91.5873	241.699	91.9543	241.699	91.3629	241.699	91.7988	241.699	91.0916	241.699	91.5464	241.699	90.7683	241.699	91.1772	241.699	90.3876	241.699	90.6721	241.699	89.948	241.699	90.0207	241.699	89.4593	241.699	89.2341	241.699	88.9533	241.699	88.3668	241.699	88.492	241.699	87.5403	241.699	88.1598	241.699	86.9395	241.699	88.0224	241.699	86.7265	241.699	88.0749	241.699	86.9096	241.699	88.2354	241.699	87.3327	241.699	88.396	241.699	87.8011	241.699	88.4702	241.699	88.1794	241.699	88.4057
250.488	92.4468	250.488	92.3234	250.488	92.5262	250.488	92.1572	250.488	92.5592	250.488	91.9479	250.488	92.5427	250.488	91.6927	250.488	92.4732	250.488	91.3867	250.488	92.3453	250.488	91.0246	250.488	92.1498	250.488	90.604	250.488	91.8729	250.488	90.1321	250.488	91.4971	250.488	89.6344	250.488	91.0057	250.488	89.1606	250.488	90.3942	250.488	88.7777	250.488	89.6892	250.488	88.5462	250.488	88.9713	250.488	88.4895	250.488	88.3819	250.488	88.5789	250.488	88.0707	250.488	88.743	250.488	88.0859	250.488	88.8921	250.488	88.3273	250.488	88.9459	250.488	88.629	250.488	88.8572
259.277	94.1692	259.277	94.0694	259.277	94.2002	259.277	93.8969	259.277	94.1625	259.277	93.6443	259.277	94.0528	259.277	93.3009	259.277	93.8659	259.277	92.8539	259.277	93.5965	259.277	92.2906	259.277	93.2417	259.277	91.6038	259.277	92.8033	259.277	90.8035	259.277	92.2908	259.277	89.9359	259.277	91.7242	259.277	89.1098	259.277	91.138	259.277	88.5037	259.277	90.5835	259.277	88.2925	259.277	90.1237	259.277	88.5015	259.277	89.8158	259.277	88.9665	259.277	89.6879	259.277	89.4685	259.277	89.7218	259.277	89.8561	259.277	89.8575	259.277	90.0673	259.277	90.0127	259.277	90.1052
268.066	93.9674	268.066	94.0666	268.066	93.8271	268.066	94.1164	268.066	93.6477	268.066	94.1	268.066	93.4267	268.066	93.992	268.066	93.1578	268.066	93.76	268.066	92.832	268.066	93.3698	268.066	92.4388	268.066	92.7924	268.066	91.969	268.066	92.0137	268.066	91.4206	268.066	91.0503	268.066	90.8073	268.066	89.9766	268.066	90.1728	268.066	88.9573	268.066	89.6035	268.066	88.2422	268.066	89.2167	268.066	88.0371	268.066	89.1016	268.066	88.3215	268.066	89.2475	268.066	88.8699	268.066	89.5448	268.066	89.4374	268.066	89.8531	268.066	89.8626	268.066	90.0552	268.066	90.0715
276.855	93.2626	276.855	93.3485	276.855	93.1765	276.855	93.4257	276.855	93.0964	276.855	93.4833	276.855	93.023	276.855	93.5038	276.855	92.945	276.855	93.4605	276.855	92.8335	276.855	93.3174	276.855	92.6431	276.855	93.035	276.855	92.3202	276.855	92.5797	276.855	91.8162	276.855	91.9383	276.855	91.1036	276.855	91.1379	276.855	90.1976	276.855	90.2738	276.855	89.1941	276.855	89.5218	276.855	88.3147	276.855	89.0767	276.855	87.8622	276.855	89.0069	276.855	87.9763	276.855	89.1949	276.855	88.4669	276.855	89.4516	276.855	89.0226	276.855	89.6293	276.855	89.4387	276.855	89.6402
287.109	93.7067	287.109	93.5878	287.109	93.7474	287.109	93.407	287.109	93.6993	287.109	93.1812	287.109	93.5618	287.109	92.9224	287.109	93.3463	287.109	92.6344	287.109	93.0748	287.109	92.3093	287.109	92.7727	287.109	91.927	287.109	92.4549	287.109	91.4589	287.109	92.1116	287.109	90.8796	287.109	91.706	287.109	90.1863	287.109	91.1928	287.109	89.4314	287.109	90.5505	287.109	88.7549	287.109	89.8178	287.109	88.3642	287.109	89.12	287.109	88.3817	287.109	88.6459	287.109	88.6955	287.109	88.5267	287.109	89.0533	287.109	88.7115	287.109	89.257	287.109	89.0102	287.109	89.2319
297.363	93.2801	297.363	93.2777	297.363	93.2293	297.363	93.2194	297.363	93.1233	297.363	93.1008	297.363	92.9532	297.363	92.9159	297.363	92.7032	297.363	92.6541	297.363	92.3543	297.363	92.2969	297.363	91.89	297.363	91.8193	297.363	91.3051	297.363	91.1984	297.363	90.6149	297.363	90.4295	297.363	89.8651	297.363	89.5485	297.363	89.1344	297.363	88.6563	297.363	88.5254	297.363	87.919	297.363	88.1374	297.363	87.5055	297.363	88.0274	297.363	87.4788	297.363	88.1686	297.363	87.7534	297.363	88.4477	297.363	88.1648	297.363	88.7171	297.363	88.5526	297.363	88.8564	297.363	88.8022
307.617	93.0413	307.617	92.9145	307.617	93.1071	307.617	92.7296	307.617	93.1105	307.617	92.4906	307.617	93.0499	307.617	92.2011	307.617	92.9197	307.617	91.8602	307.617	92.7066	307.617	91.4591	307.617	92.3876	307.617	90.9776	307.617	91.9316	307.617	90.3889	307.617	91.3062	307.617	89.6765	307.617	90.4925	307.617	88.8705	307.617	89.5102	307.617	88.0885	307.617	88.4525	307.617	87.5285	307.617	87.5111	307.617	87.3408	307.617	86.9266	307.617	87.4793	307.617	86.8225	307.617	87.7555	307.617	87.0912	307.617	88.0007	307.617	87.5025	307.617	88.123	307.617	87.8658	307.617	88.0819
319.336	91.9204	319.336	91.9993	319.336	91.8253	319.336	92.0388	319.336	91.7349	319.336	92.012	319.336	91.6643	319.336	91.8872	319.336	91.6145	319.336	91.6292	319.336	91.5654	319.336	91.2053	319.336	91.4771	319.336	90.5926	319.336	91.2962	319.336	89.7868	319.336	90.9638	319.336	88.8149	319.336	90.4245	319.336	87.7557	319.336	89.6411	319.336	86.7719	319.336	88.6248	319.336	86.1238	319.336	87.4894	319.336	86.0485	319.336	86.512	319.336	86.5076	319.336	86.0623	319.336	87.1822	319.336	86.2743	319.336	87.7461	319.336	86.882	319.336	88.0152	319.336	87.5144	319.336	87.9295
329.59	91.5847	329.59	91.6274	329.59	91.4972	329.59	91.6275	329.59	91.3675	329.59	91.5877	329.59	91.2029	329.59	91.5025	329.59	91.0121	329.59	91.3487	329.59	90.7988	329.59	91.0816	329.59	90.5542	329.59	90.6406	329.59	90.2539	329.59	89.9587	329.59	89.8651	329.59	88.9784	329.59	89.3594	329.59	87.6914	329.59	88.7298	329.59	86.2466	329.59	88.0135	329.59	85.1143	329.59	87.3229	329.59	84.8879	329.59	86.8423	329.59	85.5012	329.59	86.7168	329.59	86.3478	329.59	86.9051	329.59	87.0285	329.59	87.2173	329.59	87.431	329.59	87.4729	329.59	87.5647
341.309	91.2464	341.309	91.2008	341.309	91.2411	341.309	91.1359	341.309	91.1704	341.309	91.0896	341.309	91.0372	341.309	91.088	341.309	90.8524	341.309	91.1238	341.309	90.6202	341.309	91.1463	341.309	90.3272	341.309	91.0714	341.309	89.9392	341.309	90.8067	341.309	89.4073	341.309	90.2772	341.309	88.6797	341.309	89.4422	341.309	87.7299	341.309	88.3196	341.309	86.6126	341.309	87.0614	341.309	85.5504	341.309	86.0816	341.309	84.9465	341.309	85.9019	341.309	85.0854	341.309	86.4733	341.309	85.7887	341.309	87.2072	341.309	86.6429	341.309	87.6671	341.309	87.3386	341.309	87.7081
353.027	91.6959	353.027	91.5887	353.027	91.7713	353.027	91.4571	353.027	91.8049	353.027	91.3048	353.027	91.7894	353.027	91.132	353.027	91.7221	353.027	90.9353	353.027	91.5979	353.027	90.7052	353.027	91.3931	353.027	90.418	353.027	91.0553	353.027	90.027	353.027	90.5085	353.027	89.4615	353.027	89.6673	353.027	88.6501	353.027	88.4537	353.027	87.5814	353.027	86.83	353.027	86.4103	353.027	84.9159	353.027	85.5389	353.027	83.2902	353.027	85.3683	353.027	82.941	353.027	85.7874	353.027	83.8508	353.027	86.3184	353.027	85.0471	353.027	86.6054	353.027	85.9777	353.027	86.503
366.211	90.5827	366.211	90.3815	366.211	90.6794	366.211	90.065	366.211	90.7003	366.211	89.649	366.211	90.6739	366.211	89.1733	366.211	90.6177	366.211	88.6848	366.211	90.5394	366.211	88.2146	366.211	90.4442	366.211	87.7635	366.211	90.3292	366.211	87.3072	366.211	90.1616	366.211	86.8152	366.211	89.8626	366.211	86.267	366.211	89.3204	366.211	85.6734	366.211	88.4206	366.211	85.1172	366.211	87.0846	366.211	84.7774	366.211	85.3439	366.211	84.8216	366.211	83.5703	366.211	85.1894	366.211	82.7311	366.211	85.5898	366.211	83.3468	366.211	85.7165	366.211	84.5055	366.211	85.3728
379.395	90.8421	379.395	90.8396	379.395	90.6948	379.395	90.7245	379.395	90.3866	379.395	90.5426	379.395	89.95	379.395	90.3331	379.395	89.4698	379.395	90.1146	379.395	89.0668	379.395	89.8705	379.395	88.8363	379.395	89.5425	379.395	88.772	379.395	89.0405	379.395	88.7556	379.395	88.2721	379.395	88.6283	379.395	87.1813	379.395	88.2683	379.395	85.7974	379.395	87.6345	379.395	84.3245	379.395	86.7988	379.395	83.2494	379.395	85.9747	379.395	83.0893	379.395	85.4548	379.395	83.7175	379.395	85.3679	379.395	84.5534	379.395	85.5328	379.395	85.2162	379.395	85.6666	379.395	85.5865
392.578	90.2474	392.578	90.0993	392.578	90.3363	392.578	89.9265	392.578	90.3401	392.578	89.7684	392.578	90.2424	392.578	89.6561	392.578	90.0376	392.578	89.5875	392.578	89.7331	392.578	89.5087	392.578	89.3449	392.578	89.3213	392.578	88.8862	392.578	88.9141	392.578	88.356	392.578	88.1943	392.578	87.7382	392.578	87.115	392.578	87.0101	392.578	85.7178	392.578	86.1559	392.578	84.2206	392.578	85.192	392.578	83.09	392.578	84.2274	392.578	82.7666	392.578	83.5176	392.578	83.1241	392.578	83.3205	392.578	83.665	392.578	83.5727	392.578	84.043	392.578	83.9364	392.578	84.1325
405.762	89.9454	405.762	89.9535	405.762	89.8592	405.762	89.8566	405.762	89.7245	405.762	89.6519	405.762	89.5551	405.762	89.3776	405.762	89.3454	405.762	89.1035	405.762	89.0864	405.762	88.8795	405.762	88.7908	405.762	88.6708	405.762	88.4912	405.762	88.356	405.762	88.1883	405.762	87.8028	405.762	87.7981	405.762	86.9477	405.762	87.1768	405.762	85.8403	405.762	86.2149	405.762	84.6718	405.762	84.9823	405.762	83.7812	405.762	83.9448	405.762	83.5078	405.762	83.8176	405.762	83.8655	405.762	84.5365	405.762	84.5367	405.762	85.3238	405.762	85.1974	405.762	85.7134	405.762	85.6388
420.41	89.8414	420.41	89.9009	420.41	89.6798	420.41	89.8324	420.41	89.47	420.41	89.637	420.41	89.2892	420.41	89.3359	420.41	89.2042	420.41	88.9537	420.41	89.2049	420.41	88.4979	420.41	89.1722	420.41	87.9442	420.41	88.9408	420.41	87.2232	420.41	88.3998	420.41	86.2087	420.41	87.5518	420.41	84.7409	420.41	86.4971	420.41	82.7726	420.41	85.3255	420.41	80.8951	420.41	83.9925	420.41	80.6769	420.41	82.4015	420.41	82.06	420.41	80.7972	420.41	83.4655	420.41	80.1499	420.41	84.2639	420.41	81.0542	420.41	84.3674	420.41	82.5684	420.41	83.7795
435.059	89.7518	435.059	89.6143	435.059	89.743	435.059	89.3734	435.059	89.5732	435.059	89.077	435.059	89.2814	435.059	88.7642	435.059	88.9719	435.059	88.458	435.059	88.7865	435.059	88.1556	435.059	88.8078	435.059	87.8155	435.059	88.9592	435.059	87.3552	435.059	89.027	435.059	86.6617	435.059	88.7736	435.059	85.6011	435.059	88.0048	435.059	84.0376	435.059	86.5843	435.059	81.9776	435.059	84.4896	435.059	80.2228	435.059	82.1049	435.059	80.5657	435.059	80.761	435.059	82.3678	435.059	81.3728	435.059	83.8562	435.059	82.7419	435.059	84.5604	435.059	83.8856	435.059	84.5301
451.172	90.1466	451.172	89.9489	451.172	90.1426	451.172	89.625	451.172	89.9016	451.172	89.2851	451.172	89.4425	451.172	89.0602	451.172	88.8476	451.172	89.037	451.172	88.2534	451.172	89.1735	451.172	87.8127	451.172	89.3066	451.172	87.6288	451.172	89.2443	451.172	87.6804	451.172	88.8262	451.172	87.7958	451.172	87.9197	451.172	87.717	451.172	86.3968	451.172	87.1967	451.172	84.1836	451.172	86.0684	451.172	81.72	451.172	84.3254	451.172	80.9723	451.172	82.3781	451.172	82.5215	451.172	81.4395	451.172	84.1238	451.172	82.2428	451.172	84.8525	451.172	83.6542	451.172	84.6495
465.82	89.9513	465.82	89.6712	465.82	90.0183	465.82	89.2131	465.82	89.8354	465.82	88.6369	465.82	89.3678	465.82	88.0567	465.82	88.6307	465.82	87.6428	465.82	87.7731	465.82	87.5324	465.82	87.1041	465.82	87.6708	465.82	86.8504	465.82	87.8023	465.82	86.83	465.82	87.6558	465.82	86.6311	465.82	87.0704	465.82	85.9655	465.82	85.986	465.82	84.7499	465.82	84.3883	465.82	83.1093	465.82	82.346	465.82	81.5555	465.82	80.5479	465.82	81.0524	465.82	80.6927	465.82	81.8403	465.82	82.3422	465.82	83.0159	465.82	83.6733	465.82	83.8853	465.82	84.163
483.398	89.8718	483.398	89.8114	483.398	89.7631	483.398	89.5133	483.398	89.5357	483.398	88.9259	483.398	89.2106	483.398	88.0577	483.398	88.8009	483.398	87.0226	483.398	88.3466	483.398	86.0712	483.398	87.935	483.398	85.4907	483.398	87.6661	483.398	85.3095	483.398	87.556	483.398	85.1901	483.398	87.4805	483.398	84.6978	483.398	87.2321	483.398	83.5416	483.398	86.6003	483.398	81.7668	483.398	85.4005	483.398	80.2421	483.398	83.5077	483.398	80.3339	483.398	81.0927	483.398	81.5059	483.398	79.4752	483.398	82.5349	483.398	80.2311	483.398	83.0102	483.398	81.8119	483.398	82.8028
499.512	89.441	499.512	89.3665	499.512	89.331	499.512	89.1059	499.512	89.0498	499.512	88.6766	499.512	88.6001	499.512	88.1167	499.512	87.9695	499.512	87.5039	499.512	87.1755	499.512	86.97	499.512	86.3491	499.512	86.6315	499.512	85.7606	499.512	86.4463	499.512	85.6018	499.512	86.197	499.512	85.6863	499.512	85.646	499.512	85.598	499.512	84.6415	499.512	85.0291	499.512	83.0723	499.512	83.8801	499.512	80.8174	499.512	82.2999	499.512	78.2216	499.512	80.8936	499.512	77.5959	499.512	80.5948	499.512	79.5698	499.512	81.3364	499.512	81.3999	499.512	82.1068	499.512	82.2258
517.09	89.1876	517.09	89.0567	517.09	89.048	517.09	88.6087	517.09	88.6739	517.09	87.8031	517.09	88.0813	517.09	86.6638	517.09	87.2641	517.09	85.4257	517.09	86.2404	517.09	84.648	517.09	85.1715	517.09	84.7518	517.09	84.4217	517.09	85.3839	517.09	84.2437	517.09	85.8984	517.09	84.4131	517.09	85.8286	517.09	84.4922	517.09	84.8422	517.09	84.1357	517.09	82.7568	517.09	83.1021	517.09	80.1118	517.09	81.3718	517.09	79.3323	517.09	79.8539	517.09	80.652	517.09	80.2222	517.09	81.6964	517.09	81.486	517.09	82.0863	517.09	82.1586	517.09	82.2266
536.133	87.8015	536.133	87.542	536.133	87.9303	536.133	87.2542	536.133	87.8025	536.133	86.8919	536.133	87.3734	536.133	86.2482	536.133	86.6838	536.133	85.081	536.133	85.773	536.133	83.3316	536.133	84.6029	536.133	81.469	536.133	83.1316	536.133	80.3879	536.133	81.5424	536.133	79.9621	536.133	80.308	536.133	79.2159	536.133	79.591	536.133	77.5296	536.133	78.8292	536.133	74.322	536.133	77.2152	536.133	68.5376	536.133	73.5317	536.133	70.1122	536.133	63.1954	536.133	76.8377	536.133	70.4652	536.133	80.5436	536.133	77.372	536.133	82.1873	536.133	80.6612	536.133	82.1799
555.176	89.0313	555.176	89.0378	555.176	88.9905	555.176	88.9309	555.176	88.8721	555.176	88.5789	555.176	88.552	555.176	87.8893	555.176	87.9332	555.176	86.8529	555.176	87.028	555.176	85.5497	555.176	86.0122	555.176	84.1885	555.176	85.2118	555.176	83.2311	555.176	84.8708	555.176	83.1696	555.176	84.8724	555.176	83.6667	555.176	84.862	555.176	83.798	555.176	84.5077	555.176	82.9571	555.176	83.5886	555.176	80.9217	555.176	81.99	555.176	77.9258	555.176	79.7103	555.176	75.9525	555.176	77.0698	555.176	76.6354	555.176	75.3721	555.176	77.3959	555.176	75.8837	555.176	77.0527
574.219	92.5617	574.219	92.4349	574.219	92.5153	574.219	92.13	574.219	92.3457	574.219	91.6887	574.219	92.0838	574.219	91.1534	574.219	91.6888	574.219	90.5181	574.219	91.0659	574.219	89.7124	574.219	90.0982	574.219	88.6603	574.219	88.6819	574.219	87.4627	574.219	86.9474	574.219	86.471	574.219	85.7081	574.219	85.7786	574.219	85.6889	574.219	84.8491	574.219	86.0024	574.219	83.0701	574.219	85.6277	574.219	80.3936	574.219	84.1815	574.219	78.3558	574.219	81.7081	574.219	79.1888	574.219	79.6457	574.219	81.3603	574.219	80.5345	574.219	82.9374	574.219	82.412	574.219	83.3195
594.727	92.9053	594.727	92.9291	594.727	92.9366	594.727	92.9689	594.727	93.0001	594.727	92.9081	594.727	93.0306	594.727	92.5931	594.727	92.9031	594.727	91.8909	594.727	92.473	594.727	90.7563	594.727	91.7087	594.727	89.3515	594.727	90.7899	594.727	88.1122	594.727	90.0064	594.727	87.3611	594.727	89.451	594.727	86.7667	594.727	88.8836	594.727	85.693	594.727	87.9509	594.727	83.8248	594.727	86.3593	594.727	81.4075	594.727	83.8191	594.727	79.3046	594.727	80.0186	594.727	79.1575	594.727	76.4379	594.727	81.1075	594.727	78.402	594.727	82.7335	594.727	81.4323	594.727	82.8987
615.234	90.9998	615.234	91.0678	615.234	90.8863	615.234	91.1056	615.234	90.7377	615.234	91.1321	615.234	90.6256	615.234	91.135	615.234	90.6642	615.234	91.0409	615.234	90.8475	615.234	90.7496	615.234	90.948	615.234	90.2069	615.234	90.6902	615.234	89.4587	615.234	90.005	615.234	88.6678	615.234	89.1501	615.234	87.966	615.234	88.4942	615.234	87.1519	615.234	88.0246	615.234	85.6969	615.234	87.3717	615.234	83.1135	615.234	86.1677	615.234	79.3871	615.234	84.156	615.234	75.1901	615.234	81.2504	615.234	70.701	615.234	77.7937	615.234	66.6395	615.234	74.4557	615.234	70.3275
637.207	91.2259	637.207	91.0819	637.207	91.0398	637.207	90.6863	637.207	90.5633	637.207	90.1345	637.207	89.9123	637.207	89.5018	637.207	89.1616	637.207	88.9875	637.207	88.4326	637.207	88.9107	637.207	88.0248	637.207	89.2449	637.207	88.0883	637.207	89.5167	637.207	88.3966	637.207	89.3185	637.207	88.6817	637.207	88.4607	637.207	88.7272	637.207	86.829	637.207	88.2874	637.207	84.3503	637.207	87.1596	637.207	81.1172	637.207	85.2937	637.207	78.36	637.207	82.8661	637.207	79.7246	637.207	80.4	637.207	82.359	637.207	79.0749	637.207	83.1416	637.207	79.9937	637.207	82.0112
659.18	90.9859	659.18	90.6502	659.18	91.172	659.18	90.1634	659.18	91.1189	659.18	89.5023	659.18	90.7141	659.18	88.7073	659.18	89.8957	659.18	87.7554	659.18	88.6543	659.18	86.5865	659.18	87.0841	659.18	85.613	659.18	85.5916	659.18	85.6327	659.18	84.898	659.18	86.3734	659.18	85.1433	659.18	86.8066	659.18	85.5996	659.18	86.3783	659.18	85.622	659.18	84.9351	659.18	84.8009	659.18	82.565	659.18	82.7533	659.18	80.324	659.18	79.2504	659.18	80.5064	659.18	76.3753	659.18	82.15	659.18	78.9135	659.18	83.2645	659.18	81.9009	659.18	83.2802
682.617	92.7357	682.617	92.6446	682.617	92.5992	682.617	92.4151	682.617	92.2111	682.617	92.0002	682.617	91.7253	682.617	91.2613	682.617	91.2584	682.617	90.1672	682.617	90.6922	682.617	88.8737	682.617	89.853	682.617	87.6019	682.617	88.7052	682.617	86.6288	682.617	87.4028	682.617	86.5584	682.617	86.575	682.617	87.2326	682.617	86.8861	682.617	87.5145	682.617	87.5903	682.617	86.7564	682.617	87.5319	682.617	84.7922	682.617	86.1152	682.617	81.6773	682.617	83.1353	682.617	80.047	682.617	79.666	682.617	82.7821	682.617	80.4109	682.617	84.7905	682.617	83.2522	682.617	84.8693
707.52	92.0003	707.52	92.0998	707.52	91.8645	707.52	92.0221	707.52	91.7922	707.52	91.6584	707.52	91.7494	707.52	91.0106	707.52	91.5751	707.52	90.1632	707.52	91.0574	707.52	89.0691	707.52	90.0052	707.52	87.6781	707.52	88.5126	707.52	86.5311	707.52	87.3389	707.52	86.4243	707.52	87.1199	707.52	86.9018	707.52	87.2054	707.52	86.8607	707.52	86.9339	707.52	85.5027	707.52	86.2008	707.52	82.4135	707.52	84.6985	707.52	78.291	707.52	81.8646	707.52	76.55	707.52	78.4251	707.52	77.9565	707.52	78.3284	707.52	80.3893	707.52	80.4903	707.52	81.3646
732.422	92.3709	732.422	92.035	732.422	92.563	732.422	91.6287	732.422	92.4886	732.422	91.2311	732.422	91.9921	732.422	90.8089	732.422	91.1078	732.422	90.222	732.422	90.2155	732.422	89.4375	732.422	89.6655	732.422	88.508	732.422	89.1159	732.422	87.4505	732.422	87.9733	732.422	86.5728	732.422	86.4849	732.422	86.4092	732.422	85.9428	732.422	86.4013	732.422	86.2498	732.422	85.3415	732.422	86.0953	732.422	82.3711	732.422	84.9981	732.422	77.2811	732.422	82.7858	732.422	78.0304	732.422	79.0241	732.422	81.269	732.422	78.4088	732.422	82.111	732.422	81.0504	732.422	81.7475
757.324	92.2661	757.324	92.1893	757.324	92.1137	757.324	91.8453	757.324	91.7917	757.324	91.1914	757.324	91.4402	757.324	90.4194	757.324	90.9787	757.324	89.6425	757.324	90.1851	757.324	88.4527	757.324	89.125	757.324	86.718	757.324	88.0011	757.324	85.5723	757.324	86.7022	757.324	85.606	757.324	85.5288	757.324	85.7068	757.324	85.5912	757.324	85.5311	757.324	86.0605	757.324	84.9055	757.324	85.7161	757.324	82.8133	757.324	84.5968	757.324	78.3182	757.324	83.0285	757.324	76.8178	757.324	80.6949	757.324	80.496	757.324	79.2958	757.324	82.6307	757.324	81.4258	757.324	82.967
785.156	91.7478	785.156	91.4998	785.156	91.6591	785.156	91.1283	785.156	91.3326	785.156	90.8038	785.156	90.9787	785.156	90.2863	785.156	90.678	785.156	89.4054	785.156	90.3178	785.156	88.4064	785.156	89.6433	785.156	87.2873	785.156	88.4916	785.156	85.5299	785.156	86.9062	785.156	84.2022	785.156	85.0565	785.156	85.2517	785.156	83.8167	785.156	85.5814	785.156	84.4427	785.156	83.7464	785.156	85.354	785.156	80.8021	785.156	84.3901	785.156	79.0897	785.156	80.7538	785.156	78.9505	785.156	75.7881	785.156	83.0553	785.156	76.5996	785.156	84.9978	785.156	79.5381	785.156	83.1834
811.523	91.8348	811.523	91.8839	811.523	91.6743	811.523	91.5454	811.523	91.3167	811.523	90.7215	811.523	90.7545	811.523	89.7828	811.523	90.3358	811.523	88.9135	811.523	89.854	811.523	87.7997	811.523	88.7906	811.523	86.4588	811.523	87.3391	811.523	85.3569	811.523	86.0459	811.523	84.3626	811.523	84.7469	811.523	84.2462	811.523	83.8785	811.523	85.3977	811.523	84.4861	811.523	85.2615	811.523	84.9582	811.523	81.9483	811.523	83.9605	811.523	78.5928	811.523	81.17	811.523	79.5287	811.523	78.5158	811.523	78.7921	811.523	79.5259	811.523	81.6724	811.523	82.4888	811.523	83.7401
840.82	91.7948	840.82	91.367	840.82	92.0287	840.82	91.0014	840.82	91.9118	840.82	90.6812	840.82	91.4723	840.82	90.2039	840.82	90.7495	840.82	89.5017	840.82	90.0389	840.82	88.5208	840.82	89.5614	840.82	86.9683	840.82	88.6774	840.82	84.6758	840.82	86.6815	840.82	82.8844	840.82	84.3457	840.82	82.7569	840.82	84.1175	840.82	83.0783	840.82	84.2701	840.82	83.3747	840.82	83.1063	840.82	82.0892	840.82	81.4988	840.82	76.0004	840.82	80.4404	840.82	69.4992	840.82	78.3163	840.82	75.6854	840.82	77.9557	840.82	77.1292	840.82	81.3936	840.82	79.9091
870.117	91.5246	870.117	91.2773	870.117	91.4074	870.117	90.7776	870.117	91.0171	870.117	90.1765	870.117	90.4845	870.117	89.5058	870.117	89.7186	870.117	88.603	870.117	88.8341	870.117	87.5592	870.117	88.0435	870.117	86.6899	870.117	87.1201	870.117	85.6168	870.117	86.035	870.117	84.1891	870.117	85.0399	870.117	83.86	870.117	83.6068	870.117	84.2369	870.117	82.3853	870.117	83.2744	870.117	83.2613	870.117	80.8907	870.117	83.6571	870.117	76.9936	870.117	81.958	870.117	69.8563	870.117	78.0734	870.117	74.9907	870.117	72.9774	870.117	78.5657	870.117	73.5966	870.117	76.0815
900.879	91.489	900.879	91.6618	900.879	91.114	900.879	91.5621	900.879	90.9283	900.879	90.9476	900.879	90.8911	900.879	89.8168	900.879	90.3152	900.879	88.9852	900.879	89.2973	900.879	88.2737	900.879	88.4229	900.879	86.9619	900.879	87.5844	900.879	85.1747	900.879	86.1027	900.879	83.2458	900.879	84.1457	900.879	81.6501	900.879	82.4715	900.879	82.6618	900.879	81.6052	900.879	83.6645	900.879	82.4068	900.879	82.2046	900.879	83.0248	900.879	78.962	900.879	79.8576	900.879	78.1808	900.879	67.5577	900.879	79.1393	900.879	75.0819	900.879	83.1753	900.879	81.6986	900.879	83.933
933.105	92.0299	933.105	91.6007	933.105	92.3019	933.105	91.0757	933.105	91.5807	933.105	90.2993	933.105	89.9761	933.105	89.3182	933.105	89.0902	933.105	88.3739	933.105	88.7977	933.105	87.6871	933.105	87.6624	933.105	86.7563	933.105	86.7292	933.105	84.6398	933.105	85.9332	933.105	82.3452	933.105	83.137	933.105	81.6683	933.105	80.6391	933.105	81.3705	933.105	82.3971	933.105	82.6583	933.105	82.5352	933.105	83.4836	933.105	81.3145	933.105	79.8106	933.105	80.2743	933.105	77.14	933.105	77.5126	933.105	79.1213	933.105	73.609	933.105	78.9821	933.105	80.4974	933.105	81.194
965.332	91.0504	965.332	91.2895	965.332	90.4481	965.332	90.6229	965.332	90.259	965.332	89.4182	965.332	90.0759	965.332	88.5016	965.332	88.8774	965.332	87.7194	965.332	87.5739	965.332	87.0011	965.332	87.2592	965.332	86.999	965.332	86.4243	965.332	86.079	965.332	85.0052	965.332	83.2088	965.332	84.4448	965.332	82.0696	965.332	82.9098	965.332	83.7804	965.332	81.9818	965.332	82.4338	965.332	83.7491	965.332	79.354	965.332	82.5201	965.332	76.9527	965.332	76.3885	965.332	70.79	965.332	72.1225	965.332	70.4445	965.332	72.9043	965.332	78.9053	965.332	75.5783	965.332	76.7312
1,000.49	90.5449	1,000.49	90.2619	1,000.49	90.1884	1,000.49	90.0559	1,000.49	89.8391	1,000.49	89.9662	1,000.49	89.744	1,000.49	88.9728	1,000.49	89.0118	1,000.49	88.006	1,000.49	87.5709	1,000.49	87.4792	1,000.49	86.0408	1,000.49	85.566	1,000.49	85.0388	1,000.49	83.2533	1,000.49	83.8921	1,000.49	82.7048	1,000.49	82.1884	1,000.49	81.0114	1,000.49	81.2923	1,000.49	81.5552	1,000.49	80.5882	1,000.49	83.6162	1,000.49	79.8179	1,000.49	81.9383	1,000.49	81.6375	1,000.49	74.7579	1,000.49	81.5716	1,000.49	78.1445	1,000.49	70.9895	1,000.49	81.6574	1,000.49	64.205	1,000.49	83.51	1,000.49	74.7604	1,000.49	82.0929
1,035.64	90.6163	1,035.64	89.9905	1,035.64	90.4734	1,035.64	88.9263	1,035.64	89.9024	1,035.64	88.4027	1,035.64	88.643	1,035.64	87.8116	1,035.64	87.1149	1,035.64	86.5394	1,035.64	86.2515	1,035.64	85.7481	1,035.64	84.9538	1,035.64	85.7512	1,035.64	83.9239	1,035.64	85.0074	1,035.64	84.3127	1,035.64	82.383	1,035.64	82.7614	1,035.64	79.4139	1,035.64	78.3313	1,035.64	80.2416	1,035.64	77.7854	1,035.64	82.5959	1,035.64	80.4914	1,035.64	81.9876	1,035.64	80.9586	1,035.64	78.344	1,035.64	80.2561	1,035.64	71.5303	1,035.64	77.8423	1,035.64	76.4787	1,035.64	69.3442	1,035.64	80.32	1,035.64	77.1866	1,035.64	79.7616
1,072.27	89.6815	1,072.27	89.8541	1,072.27	88.76	1,072.27	88.7189	1,072.27	88.8365	1,072.27	87.3821	1,072.27	88.5403	1,072.27	85.931	1,072.27	87.1253	1,072.27	84.222	1,072.27	85.9006	1,072.27	83.0277	1,072.27	84.0007	1,072.27	82.1274	1,072.27	82.2924	1,072.27	80.5306	1,072.27	83.0686	1,072.27	79.3002	1,072.27	83.1485	1,072.27	78.9247	1,072.27	81.3165	1,072.27	78.3271	1,072.27	78.2389	1,072.27	78.8105	1,072.27	76.0781	1,072.27	77.2513	1,072.27	78.1967	1,072.27	67.7034	1,072.27	79.19	1,072.27	64.1659	1,072.27	75.3693	1,072.27	71.4772	1,072.27	68.6867	1,072.27	74.1559	1,072.27	75.4978	1,072.27	72.7859
1,108.89	90.2716	1,108.89	90.5998	1,108.89	90.8839	1,108.89	91.0415	1,108.89	89.6849	1,108.89	89.2566	1,108.89	88.7673	1,108.89	87.6618	1,108.89	88.5459	1,108.89	86.6046	1,108.89	86.4097	1,108.89	84.8817	1,108.89	84.2154	1,108.89	85.0831	1,108.89	83.6145	1,108.89	84.5155	1,108.89	82.0416	1,108.89	82.0843	1,108.89	82.3254	1,108.89	81.0468	1,108.89	81.1665	1,108.89	78.4882	1,108.89	76.4265	1,108.89	77.3027	1,108.89	77.6433	1,108.89	79.3313	1,108.89	79.4334	1,108.89	79.1715	1,108.89	80.67	1,108.89	77.7299	1,108.89	79.0801	1,108.89	79.6239	1,108.89	64.1278	1,108.89	83.3344	1,108.89	68.2784	1,108.89	82.0109
1,148.44	90.9713	1,148.44	90.4309	1,148.44	90.9607	1,148.44	89.5884	1,148.44	90.7527	1,148.44	88.8993	1,148.44	90.2165	1,148.44	88.2892	1,148.44	88.8262	1,148.44	86.6167	1,148.44	87.8137	1,148.44	85.2906	1,148.44	87.0143	1,148.44	84.8216	1,148.44	84.7166	1,148.44	84.3361	1,148.44	83.3289	1,148.44	83.2948	1,148.44	83.0706	1,148.44	79.0944	1,148.44	82.0205	1,148.44	77.5574	1,148.44	81.1387	1,148.44	80.98	1,148.44	79.0266	1,148.44	81.4852	1,148.44	78.5157	1,148.44	78.0707	1,148.44	78.3942	1,148.44	74.2075	1,148.44	76.2963	1,148.44	79.856	1,148.44	74.3826	1,148.44	81.2681	1,148.44	76.4649	1,148.44	81.2593
1,189.45	90.8152	1,189.45	90.8655	1,189.45	90.3995	1,189.45	89.7417	1,189.45	90.2191	1,189.45	88.8578	1,189.45	89.8107	1,189.45	88.1992	1,189.45	89.1179	1,189.45	86.9782	1,189.45	87.2647	1,189.45	84.8496	1,189.45	85.7855	1,189.45	82.6016	1,189.45	85.3925	1,189.45	82.1919	1,189.45	83.1026	1,189.45	80.2247	1,189.45	81.4009	1,189.45	77.525	1,189.45	80.8916	1,189.45	78.5799	1,189.45	76.8256	1,189.45	78.171	1,189.45	75.941	1,189.45	76.8105	1,189.45	79.023	1,189.45	71.4704	1,189.45	81.2861	1,189.45	67.8055	1,189.45	78.7449	1,189.45	70.6202	1,189.45	66.9256	1,189.45	74.7644	1,189.45	72.7274	1,189.45	66.1662
1,230.47	91.2138	1,230.47	90.4552	1,230.47	91.2399	1,230.47	90.036	1,230.47	90.8411	1,230.47	89.7003	1,230.47	89.9034	1,230.47	88.4367	1,230.47	88.124	1,230.47	87.2318	1,230.47	87.3381	1,230.47	85.7681	1,230.47	86.4295	1,230.47	83.3047	1,230.47	84.5202	1,230.47	81.1755	1,230.47	83.5907	1,230.47	80.7177	1,230.47	82.6588	1,230.47	80.107	1,230.47	81.6611	1,230.47	78.1994	1,230.47	79.2465	1,230.47	78.8839	1,230.47	76.1611	1,230.47	79.9032	1,230.47	76.6982	1,230.47	77.3955	1,230.47	78.1721	1,230.47	72.3447	1,230.47	74.716	1,230.47	79.2185	1,230.47	72.5544	1,230.47	82.7632	1,230.47	72.2962	1,230.47	81.1286
1,274.41	91.6878	1,274.41	91.1229	1,274.41	91.9236	1,274.41	90.4702	1,274.41	91.4469	1,274.41	89.1223	1,274.41	90.0814	1,274.41	87.6785	1,274.41	88.9849	1,274.41	87.1608	1,274.41	87.9267	1,274.41	85.672	1,274.41	86.4224	1,274.41	84.0348	1,274.41	84.8035	1,274.41	83.0112	1,274.41	83.0351	1,274.41	82.4153	1,274.41	83.2256	1,274.41	81.4923	1,274.41	82.9017	1,274.41	78.3603	1,274.41	80.6537	1,274.41	76.8093	1,274.41	79.4518	1,274.41	78.032	1,274.41	80.1196	1,274.41	78.0136	1,274.41	79.1386	1,274.41	72.6226	1,274.41	77.637	1,274.41	75.1079	1,274.41	77.1298	1,274.41	70.8222	1,274.41	75.2329	1,274.41	75.1349
1,319.82	91.2932	1,319.82	91.3541	1,319.82	90.9903	1,319.82	91.3133	1,319.82	91.0498	1,319.82	90.4547	1,319.82	90.6371	1,319.82	88.5689	1,319.82	89.5168	1,319.82	87.3239	1,319.82	88.5643	1,319.82	86.0646	1,319.82	87.199	1,319.82	83.6111	1,319.82	85.6904	1,319.82	82.7463	1,319.82	84.4195	1,319.82	80.8073	1,319.82	82.1422	1,319.82	77.5817	1,319.82	80.7336	1,319.82	79.8339	1,319.82	80.1484	1,319.82	78.6543	1,319.82	78.6217	1,319.82	80.1774	1,319.82	77.5791	1,319.82	78.8057	1,319.82	80.9397	1,319.82	75.2133	1,319.82	80.9044	1,319.82	76.996	1,319.82	68.7423	1,319.82	80.7232	1,319.82	63.7978	1,319.82	74.1217
1,366.7	91.2493	1,366.7	91.1213	1,366.7	90.8451	1,366.7	90.1946	1,366.7	89.596	1,366.7	88.8657	1,366.7	89.4273	1,366.7	88.3205	1,366.7	88.8525	1,366.7	86.0275	1,366.7	86.3062	1,366.7	83.0717	1,366.7	84.5385	1,366.7	82.9938	1,366.7	83.2622	1,366.7	81.7537	1,366.7	80.8551	1,366.7	81.2097	1,366.7	81.1474	1,366.7	80.6247	1,366.7	80.2943	1,366.7	75.6512	1,366.7	79.4455	1,366.7	78.6155	1,366.7	78.6843	1,366.7	77.9756	1,366.7	77.8823	1,366.7	78.5033	1,366.7	78.7904	1,366.7	67.6839	1,366.7	75.2755	1,366.7	71.3944	1,366.7	77.7165	1,366.7	69.948	1,366.7	72.3659	1,366.7	77.612
1,413.57	90.999	1,413.57	90.7111	1,413.57	90.8176	1,413.57	90.0531	1,413.57	90.0645	1,413.57	89.4595	1,413.57	89.2821	1,413.57	88.0238	1,413.57	87.5566	1,413.57	86.1673	1,413.57	85.8027	1,413.57	85.5877	1,413.57	85.1517	1,413.57	83.1906	1,413.57	83.3973	1,413.57	79.8589	1,413.57	82.3457	1,413.57	79.6217	1,413.57	80.8006	1,413.57	78.5451	1,413.57	78.6451	1,413.57	76.558	1,413.57	76.3759	1,413.57	73.058	1,413.57	73.0514	1,413.57	78.1193	1,413.57	76.9981	1,413.57	76.7155	1,413.57	79.268	1,413.57	74.0504	1,413.57	78.1082	1,413.57	72.7045	1,413.57	68.9836	1,413.57	74.3011	1,413.57	69.7021	1,413.57	57.6898
1,463.38	89.3042	1,463.38	89.5888	1,463.38	88.5866	1,463.38	88.3656	1,463.38	88.8045	1,463.38	86.7711	1,463.38	87.4634	1,463.38	85.4613	1,463.38	86.1562	1,463.38	84.7237	1,463.38	85.6667	1,463.38	83.6501	1,463.38	84.0711	1,463.38	82.0346	1,463.38	82.5365	1,463.38	80.3038	1,463.38	81.2216	1,463.38	79.6826	1,463.38	80.0246	1,463.38	79.8228	1,463.38	77.7799	1,463.38	75.6104	1,463.38	78.6014	1,463.38	73.724	1,463.38	75.6258	1,463.38	74.1573	1,463.38	74.2472	1,463.38	76.1053	1,463.38	76.1652	1,463.38	71.3769	1,463.38	75.6839	1,463.38	68.9134	1,463.38	72.6377	1,463.38	76.5528	1,463.38	68.0927	1,463.38	75.1763
1,516.11	87.3785	1,516.11	87.2257	1,516.11	87.8112	1,516.11	86.9599	1,516.11	86.6488	1,516.11	85.9963	1,516.11	86.2196	1,516.11	83.911	1,516.11	85.3029	1,516.11	82.2188	1,516.11	83.8459	1,516.11	82.1532	1,516.11	82.3481	1,516.11	79.9069	1,516.11	80.2047	1,516.11	77.0389	1,516.11	78.0332	1,516.11	78.886	1,516.11	77.3222	1,516.11	74.5261	1,516.11	77.2314	1,516.11	75.1644	1,516.11	74.777	1,516.11	74.9814	1,516.11	74.7082	1,516.11	73.6441	1,516.11	70.1892	1,516.11	75.8373	1,516.11	74.2348	1,516.11	69.3405	1,516.11	73.8017	1,516.11	59.8818	1,516.11	72.6851	1,516.11	71.0648	1,516.11	69.3387	1,516.11	70.9535
1,568.85	88.2029	1,568.85	87.5882	1,568.85	87.6155	1,568.85	86.5307	1,568.85	87.3476	1,568.85	84.4791	1,568.85	86.4043	1,568.85	83.3307	1,568.85	85.4642	1,568.85	83.7863	1,568.85	83.8495	1,568.85	81.2797	1,568.85	82.1044	1,568.85	76.5476	1,568.85	80.1093	1,568.85	77.7403	1,568.85	79.8599	1,568.85	75.6019	1,568.85	77.2032	1,568.85	74.0169	1,568.85	75.0282	1,568.85	72.7024	1,568.85	77.1474	1,568.85	73.8157	1,568.85	74.5818	1,568.85	75.0598	1,568.85	71.9893	1,568.85	75.0384	1,568.85	73.9354	1,568.85	73.0136	1,568.85	75.2657	1,568.85	75.6451	1,568.85	71.5055	1,568.85	78.5232	1,568.85	63.6704	1,568.85	74.6671
1,624.51	90.8724	1,624.51	90.6517	1,624.51	90.8958	1,624.51	89.253	1,624.51	90.6128	1,624.51	88.5692	1,624.51	89.4539	1,624.51	86.8294	1,624.51	87.5406	1,624.51	83.1599	1,624.51	86.0529	1,624.51	82.5798	1,624.51	85.059	1,624.51	81.5744	1,624.51	83.1574	1,624.51	77.1665	1,624.51	80.6147	1,624.51	77.8988	1,624.51	79.9292	1,624.51	76.8991	1,624.51	78.4087	1,624.51	75.8784	1,624.51	75.9059	1,624.51	68.8529	1,624.51	75.7553	1,624.51	71.4956	1,624.51	73.6713	1,624.51	76.9975	1,624.51	74.1655	1,624.51	71.7518	1,624.51	75.2409	1,624.51	74.6761	1,624.51	72.4639	1,624.51	71.9085	1,624.51	71.6458	1,624.51	73.0655
1,681.64	91.2859	1,681.64	90.904	1,681.64	91.7136	1,681.64	90.5438	1,681.64	90.5491	1,681.64	88.9152	1,681.64	89.9179	1,681.64	87.2443	1,681.64	88.2789	1,681.64	86.0073	1,681.64	86.9908	1,681.64	83.3598	1,681.64	84.3755	1,681.64	82.0185	1,681.64	83.4193	1,681.64	80.349	1,681.64	81.4801	1,681.64	78.1643	1,681.64	79.9154	1,681.64	76.0377	1,681.64	78.7695	1,681.64	76.3667	1,681.64	78.2086	1,681.64	73.3155	1,681.64	78.1504	1,681.64	75.7261	1,681.64	76.547	1,681.64	75.7104	1,681.64	77.2858	1,681.64	76.6586	1,681.64	76.9454	1,681.64	73.8968	1,681.64	75.4943	1,681.64	72.7983	1,681.64	62.799	1,681.64	75.0821
1,741.7	91.7818	1,741.7	91.3963	1,741.7	91.6404	1,741.7	90.1913	1,741.7	91.013	1,741.7	89.0358	1,741.7	90.1065	1,741.7	87.5173	1,741.7	89.3507	1,741.7	85.1609	1,741.7	87.3126	1,741.7	83.2999	1,741.7	85.7673	1,741.7	81.4501	1,741.7	83.3621	1,741.7	79.4402	1,741.7	82.6099	1,741.7	77.3718	1,741.7	80.6793	1,741.7	77.8395	1,741.7	77.7216	1,741.7	74.7588	1,741.7	79.0365	1,741.7	75.2917	1,741.7	74.8421	1,741.7	71.8477	1,741.7	75.4347	1,741.7	76.8894	1,741.7	72.9017	1,741.7	72.948	1,741.7	75.4414	1,741.7	70.3694	1,741.7	75.8025	1,741.7	68.0449	1,741.7	70.694	1,741.7	72.6362
1,803.22	91.4162	1,803.22	91.0304	1,803.22	90.9327	1,803.22	90.0501	1,803.22	90.7619	1,803.22	89.0496	1,803.22	89.2837	1,803.22	87.3628	1,803.22	87.3074	1,803.22	85.5016	1,803.22	86.3275	1,803.22	83.8084	1,803.22	84.0749	1,803.22	81.2871	1,803.22	82.1977	1,803.22	78.7609	1,803.22	78.7349	1,803.22	78.1546	1,803.22	75.1387	1,803.22	75.1303	1,803.22	77.5424	1,803.22	75.1862	1,803.22	75.3308	1,803.22	73.0522	1,803.22	74.5987	1,803.22	74.2799	1,803.22	69.1795	1,803.22	73.4016	1,803.22	73.332	1,803.22	80.2209	1,803.22	77.5691	1,803.22	73.6281	1,803.22	70.0446	1,803.22	72.1749	1,803.22	75.4799	1,803.22	75.7439
1,866.21	90.5159	1,866.21	90.0829	1,866.21	90.4388	1,866.21	89.4909	1,866.21	89.5176	1,866.21	87.9912	1,866.21	88.4223	1,866.21	86.8458	1,866.21	87.495	1,866.21	84.7063	1,866.21	84.3545	1,866.21	82.6736	1,866.21	81.7953	1,866.21	81.0052	1,866.21	78.8785	1,866.21	79.8755	1,866.21	79.0067	1,866.21	74.4367	1,866.21	79.6429	1,866.21	75.5643	1,866.21	73.0079	1,866.21	74.7399	1,866.21	67.8026	1,866.21	71.9376	1,866.21	73.2945	1,866.21	71.904	1,866.21	73.1215	1,866.21	73.8024	1,866.21	71.0748	1,866.21	70.1379	1,866.21	67.9779	1,866.21	75.4719	1,866.21	72.8211	1,866.21	75.8807	1,866.21	73.1721	1,866.21	71.2135
1,932.13	90.3326	1,932.13	89.7201	1,932.13	90.558	1,932.13	88.2075	1,932.13	89.3117	1,932.13	86.3957	1,932.13	88.1328	1,932.13	83.6055	1,932.13	85.5322	1,932.13	81.9696	1,932.13	84.7128	1,932.13	79.8889	1,932.13	82.9231	1,932.13	77.025	1,932.13	81.4443	1,932.13	71.7053	1,932.13	78.2336	1,932.13	76.2581	1,932.13	69.87	1,932.13	74.6832	1,932.13	74.7493	1,932.13	73.1935	1,932.13	75.3607	1,932.13	73.7907	1,932.13	70.389	1,932.13	72.2894	1,932.13	71.9901	1,932.13	72.1646	1,932.13	69.1974	1,932.13	74.047	1,932.13	71.8572	1,932.13	71.2297	1,932.13	65.9371	1,932.13	70.6528	1,932.13	69.3889	1,932.13	75.8441
1,999.51	91.2238	1,999.51	90.4299	1,999.51	90.6712	1,999.51	89.1642	1,999.51	90.4173	1,999.51	86.5551	1,999.51	88.5051	1,999.51	83.4652	1,999.51	86.5587	1,999.51	79.8869	1,999.51	82.6904	1,999.51	76.2645	1,999.51	79.9341	1,999.51	74.9431	1,999.51	76.9432	1,999.51	75.9276	1,999.51	76.366	1,999.51	73.1917	1,999.51	76.8327	1,999.51	73.211	1,999.51	73.5212	1,999.51	67.533	1,999.51	76.4522	1,999.51	71.2331	1,999.51	72.5643	1,999.51	71.7401	1,999.51	67.7337	1,999.51	75.8421	1,999.51	71.1433	1,999.51	75.8315	1,999.51	75.6294	1,999.51	75.7875	1,999.51	75.9906	1,999.51	77.7693	1,999.51	65.8123	1,999.51	73.9051
2,069.82	91.8379	2,069.82	91.1831	2,069.82	91.7744	2,069.82	89.4636	2,069.82	90.3507	2,069.82	88.3486	2,069.82	89.4975	2,069.82	86.7113	2,069.82	87.373	2,069.82	84.1631	2,069.82	85.8382	2,069.82	82.3541	2,069.82	83.6252	2,069.82	80.1019	2,069.82	81.6923	2,069.82	77.3054	2,069.82	81.4139	2,069.82	73.7804	2,069.82	79.3691	2,069.82	74.8764	2,069.82	77.8818	2,069.82	76.841	2,069.82	73.7582	2,069.82	73.5834	2,069.82	76.6893	2,069.82	73.3194	2,069.82	78.0062	2,069.82	75.1166	2,069.82	75.2829	2,069.82	75.8838	2,069.82	76.6373	2,069.82	71.1117	2,069.82	76.677	2,069.82	72.248	2,069.82	76.3182	2,069.82	72.4643
2,143.07	90.5817	2,143.07	90.5163	2,143.07	90.5227	2,143.07	90.0633	2,143.07	89.9293	2,143.07	88.1629	2,143.07	88.1241	2,143.07	86.6891	2,143.07	87.0553	2,143.07	86.0706	2,143.07	85.6031	2,143.07	83.8363	2,143.07	84.0716	2,143.07	82.4342	2,143.07	83.2358	2,143.07	81.2816	2,143.07	80.1716	2,143.07	79.821	2,143.07	78.6851	2,143.07	77.9169	2,143.07	77.0185	2,143.07	76.5056	2,143.07	78.3228	2,143.07	75.9491	2,143.07	73.8843	2,143.07	74.3063	2,143.07	74.2231	2,143.07	73.7071	2,143.07	74.5827	2,143.07	77.747	2,143.07	77.8851	2,143.07	71.7107	2,143.07	75.8168	2,143.07	73.8235	2,143.07	71.1874	2,143.07	75.2408
2,219.24	89.0157	2,219.24	88.1663	2,219.24	88.4898	2,219.24	87.6908	2,219.24	88.5197	2,219.24	87.1383	2,219.24	87.168	2,219.24	85.7649	2,219.24	86.263	2,219.24	84.182	2,219.24	84.5739	2,219.24	83.7506	2,219.24	82.876	2,219.24	81.9565	2,219.24	80.3958	2,219.24	82.5283	2,219.24	80.0765	2,219.24	79.3595	2,219.24	78.3977	2,219.24	75.5925	2,219.24	75.3424	2,219.24	75.7259	2,219.24	76.1433	2,219.24	72.8079	2,219.24	74.9985	2,219.24	76.582	2,219.24	67.5843	2,219.24	76.0204	2,219.24	71.8811	2,219.24	76.7484	2,219.24	72.2316	2,219.24	76.2766	2,219.24	75.6322	2,219.24	78.7267	2,219.24	52.1777	2,219.24	71.7098
2,296.88	88.1181	2,296.88	88.6484	2,296.88	88.4678	2,296.88	87.1731	2,296.88	86.6659	2,296.88	86.1208	2,296.88	87.1919	2,296.88	84.5119	2,296.88	85.3498	2,296.88	83.1642	2,296.88	84.5365	2,296.88	81.9197	2,296.88	82.5845	2,296.88	79.1243	2,296.88	81.7282	2,296.88	76.1016	2,296.88	77.4557	2,296.88	75.535	2,296.88	79.8988	2,296.88	76.5439	2,296.88	77.5343	2,296.88	74.3963	2,296.88	72.4771	2,296.88	74.6075	2,296.88	73.053	2,296.88	72.856	2,296.88	75.7817	2,296.88	73.9954	2,296.88	73.1777	2,296.88	75.0608	2,296.88	69.61	2,296.88	64.9706	2,296.88	72.6549	2,296.88	68.3252	2,296.88	73.2603	2,296.88	73.0041
2,378.91	89.0748	2,378.91	88.1275	2,378.91	89.2759	2,378.91	87.1995	2,378.91	89.444	2,378.91	86.7505	2,378.91	88.4022	2,378.91	85.6284	2,378.91	87.8637	2,378.91	83.3577	2,378.91	86.2995	2,378.91	80.2532	2,378.91	84.6039	2,378.91	79.7618	2,378.91	81.7899	2,378.91	78.0444	2,378.91	82.0272	2,378.91	76.3754	2,378.91	76.0322	2,378.91	71.0755	2,378.91	75.2202	2,378.91	74.3715	2,378.91	74.3218	2,378.91	70.0323	2,378.91	74.6838	2,378.91	70.4517	2,378.91	71.9483	2,378.91	68.2925	2,378.91	73.5144	2,378.91	72.396	2,378.91	73.2434	2,378.91	67.4232	2,378.91	73.5408	2,378.91	72.0251	2,378.91	70.4682	2,378.91	73.755
2,462.4	90.4359	2,462.4	90.1923	2,462.4	90.0708	2,462.4	89.4826	2,462.4	89.4269	2,462.4	87.6499	2,462.4	89.0574	2,462.4	86.4241	2,462.4	87.4148	2,462.4	84.8723	2,462.4	86.6152	2,462.4	82.904	2,462.4	84.8777	2,462.4	79.7467	2,462.4	82.3991	2,462.4	77.3141	2,462.4	79.5181	2,462.4	74.9906	2,462.4	79.7968	2,462.4	73.5055	2,462.4	77.2528	2,462.4	68.8538	2,462.4	73.4546	2,462.4	67.7788	2,462.4	74.9583	2,462.4	72.6658	2,462.4	71.9675	2,462.4	69.4484	2,462.4	72.3253	2,462.4	71.6893	2,462.4	70.4947	2,462.4	68.3584	2,462.4	72.9363	2,462.4	69.6672	2,462.4	70.0888	2,462.4	67.8789
2,548.83	89.5793	2,548.83	89.3152	2,548.83	89.9836	2,548.83	88.6887	2,548.83	89.4131	2,548.83	88.3504	2,548.83	88.2204	2,548.83	86.824	2,548.83	87.489	2,548.83	85.6691	2,548.83	85.572	2,548.83	82.575	2,548.83	83.6524	2,548.83	81.0514	2,548.83	81.6207	2,548.83	78.0383	2,548.83	79.3699	2,548.83	75.0328	2,548.83	74.9261	2,548.83	73.6976	2,548.83	76.1559	2,548.83	72.5227	2,548.83	72.8377	2,548.83	72.5194	2,548.83	70.6619	2,548.83	70.5824	2,548.83	70.5206	2,548.83	69.7022	2,548.83	71.8038	2,548.83	68.2477	2,548.83	65.4979	2,548.83	68.8822	2,548.83	70.1424	2,548.83	70.513	2,548.83	69.0858	2,548.83	67.8236
2,639.65	87.6671	2,639.65	87.4232	2,639.65	87.1358	2,639.65	87.2432	2,639.65	87.3136	2,639.65	85.5228	2,639.65	87.249	2,639.65	84.6432	2,639.65	85.5158	2,639.65	82.5791	2,639.65	84.6408	2,639.65	81.457	2,639.65	82.6561	2,639.65	79.0123	2,639.65	79.5691	2,639.65	77.8938	2,639.65	79.5622	2,639.65	76.1828	2,639.65	76.3825	2,639.65	73.932	2,639.65	72.1854	2,639.65	71.6324	2,639.65	72.6341	2,639.65	67.9491	2,639.65	71.2618	2,639.65	69.2944	2,639.65	69.1404	2,639.65	69.8158	2,639.65	73.0746	2,639.65	71.5068	2,639.65	69.8099	2,639.65	69.6728	2,639.65	72.6788	2,639.65	63.833	2,639.65	67.6748	2,639.65	67.9733
2,731.93	87.1178	2,731.93	87.0768	2,731.93	87.987	2,731.93	86.4126	2,731.93	87.3781	2,731.93	86.4815	2,731.93	86.5121	2,731.93	83.9384	2,731.93	85.9314	2,731.93	82.448	2,731.93	83.45	2,731.93	79.9893	2,731.93	82.2535	2,731.93	77.2013	2,731.93	81.0816	2,731.93	74.4687	2,731.93	74.9476	2,731.93	70.3464	2,731.93	75.9511	2,731.93	70.7651	2,731.93	74.6909	2,731.93	67.3954	2,731.93	70.21	2,731.93	70.738	2,731.93	69.478	2,731.93	69.137	2,731.93	68.3588	2,731.93	70.0614	2,731.93	67.385	2,731.93	69.2673	2,731.93	65.2211	2,731.93	66.2852	2,731.93	68.4897	2,731.93	65.2962	2,731.93	66.2514	2,731.93	69.9037
2,828.61	88.6096	2,828.61	88.5078	2,828.61	87.5895	2,828.61	88.2509	2,828.61	87.986	2,828.61	86.6185	2,828.61	87.4352	2,828.61	86.1301	2,828.61	86.519	2,828.61	83.0646	2,828.61	85.5746	2,828.61	81.1122	2,828.61	82.2617	2,828.61	77.7612	2,828.61	79.1336	2,828.61	75.9343	2,828.61	79.7852	2,828.61	73.9941	2,828.61	74.6556	2,828.61	72.3756	2,828.61	72.6655	2,828.61	71.3058	2,828.61	72.4806	2,828.61	68.8603	2,828.61	70.0012	2,828.61	67.5113	2,828.61	68.4839	2,828.61	67.0191	2,828.61	68.1818	2,828.61	68.7925	2,828.61	69.5787	2,828.61	66.8309	2,828.61	69.4468	2,828.61	64.852	2,828.61	66.9291	2,828.61	65.6244
2,928.22	89.1738	2,928.22	89.0915	2,928.22	89.3473	2,928.22	89.2176	2,928.22	88.493	2,928.22	88.7825	2,928.22	87.9136	2,928.22	86.5365	2,928.22	86.6287	2,928.22	85.1347	2,928.22	84.4346	2,928.22	81.9941	2,928.22	83.2879	2,928.22	79.8826	2,928.22	81.9062	2,928.22	76.618	2,928.22	75.1971	2,928.22	73.698	2,928.22	75.7434	2,928.22	69.6017	2,928.22	71.576	2,928.22	66.0983	2,928.22	71.3128	2,928.22	69.7121	2,928.22	69.138	2,928.22	66.5272	2,928.22	67.984	2,928.22	69.1709	2,928.22	69.7249	2,928.22	71.3625	2,928.22	67.8891	2,928.22	64.2259	2,928.22	70.2776	2,928.22	68.1733	2,928.22	66.066	2,928.22	62.2009
3,030.76	89.798	3,030.76	89.6528	3,030.76	88.7976	3,030.76	88.9384	3,030.76	88.4283	3,030.76	87.9853	3,030.76	87.2542	3,030.76	87.3041	3,030.76	85.9917	3,030.76	84.1571	3,030.76	84.587	3,030.76	82.0584	3,030.76	80.7834	3,030.76	79.0967	3,030.76	77.2054	3,030.76	75.0985	3,030.76	77.0198	3,030.76	72.6325	3,030.76	71.8482	3,030.76	71.4425	3,030.76	72.3145	3,030.76	70.555	3,030.76	68.7685	3,030.76	67.2644	3,030.76	66.8841	3,030.76	68.5615	3,030.76	69.5753	3,030.76	64.6957	3,030.76	64.2476	3,030.76	66.2662	3,030.76	68.2012	3,030.76	68.1676	3,030.76	69.3122	3,030.76	64.8476	3,030.76	65.9133	3,030.76	63.7438
3,137.7	90.1804	3,137.7	90.3917	3,137.7	90.2862	3,137.7	89.6887	3,137.7	89.1957	3,137.7	87.9496	3,137.7	87.076	3,137.7	85.5988	3,137.7	84.6726	3,137.7	83.9818	3,137.7	81.1663	3,137.7	81.1282	3,137.7	78.7331	3,137.7	77.5584	3,137.7	75.6466	3,137.7	75.5355	3,137.7	71.5385	3,137.7	72.4259	3,137.7	71.1736	3,137.7	67.7002	3,137.7	66.4874	3,137.7	65.8922	3,137.7	61.4196	3,137.7	65.1738	3,137.7	57.9256	3,137.7	64.6437	3,137.7	58.9889	3,137.7	65.7419	3,137.7	62.7741	3,137.7	71.9706	3,137.7	61.824	3,137.7	67.1353	3,137.7	67.7058	3,137.7	69.9452	3,137.7	61.625	3,137.7	59.4091
3,249.02	92.4248	3,249.02	90.6806	3,249.02	92.0625	3,249.02	89.24	3,249.02	91.3534	3,249.02	87.603	3,249.02	89.8992	3,249.02	85.2562	3,249.02	86.8158	3,249.02	81.2558	3,249.02	82.6956	3,249.02	77.4684	3,249.02	78.721	3,249.02	74.6863	3,249.02	74.0526	3,249.02	68.6657	3,249.02	70.3181	3,249.02	69.2292	3,249.02	62.3245	3,249.02	65.8288	3,249.02	62.764	3,249.02	67.4286	3,249.02	62.5935	3,249.02	65.2145	3,249.02	57.8885	3,249.02	66.1001	3,249.02	62.5512	3,249.02	66.0939	3,249.02	62.9624	3,249.02	68.1077	3,249.02	61.0449	3,249.02	66.5932	3,249.02	67.4299	3,249.02	66.1267	3,249.02	66.9655	3,249.02	62.1031
3,363.28	92.5232	3,363.28	92.407	3,363.28	92.5494	3,363.28	90.2485	3,363.28	91.246	3,363.28	87.6194	3,363.28	89.1817	3,363.28	83.475	3,363.28	86.8252	3,363.28	80.212	3,363.28	84.7981	3,363.28	73.6351	3,363.28	79.2529	3,363.28	65.4911	3,363.28	77.5012	3,363.28	64.5027	3,363.28	69.3355	3,363.28	56.8068	3,363.28	64.712	3,363.28	64.9037	3,363.28	60.9024	3,363.28	60.2788	3,363.28	63.8141	3,363.28	54.7185	3,363.28	53.8284	3,363.28	66.0188	3,363.28	61.3762	3,363.28	62.181	3,363.28	60.824	3,363.28	67.9748	3,363.28	62.3447	3,363.28	64.6856	3,363.28	65.1266	3,363.28	69.912	3,363.28	66.1219	3,363.28	65.559
3,481.93	91.5921	3,481.93	90.7912	3,481.93	91.5951	3,481.93	90.003	3,481.93	91.4384	3,481.93	87.2788	3,481.93	90.1669	3,481.93	85.2499	3,481.93	87.5134	3,481.93	80.9565	3,481.93	84.4083	3,481.93	78.4959	3,481.93	81.8852	3,481.93	76.5608	3,481.93	76.6027	3,481.93	76.7382	3,481.93	77.8587	3,481.93	66.6947	3,481.93	74.0028	3,481.93	71.0183	3,481.93	71.2675	3,481.93	66.3764	3,481.93	63.3053	3,481.93	59.5227	3,481.93	69.378	3,481.93	62.0799	3,481.93	66.4033	3,481.93	63.0783	3,481.93	59.6795	3,481.93	63.1213	3,481.93	65.947	3,481.93	69.9382	3,481.93	66.2851	3,481.93	68.0446	3,481.93	70.0441	3,481.93	68.901
3,604.98	91.3642	3,604.98	90.8402	3,604.98	91.4261	3,604.98	89.9446	3,604.98	90.8569	3,604.98	88.3016	3,604.98	89.7042	3,604.98	85.659	3,604.98	88.2727	3,604.98	83.3886	3,604.98	85.469	3,604.98	81.0645	3,604.98	83.5604	3,604.98	77.756	3,604.98	80.859	3,604.98	74.7979	3,604.98	77.8019	3,604.98	74.5736	3,604.98	74.0434	3,604.98	69.0508	3,604.98	73.9056	3,604.98	69.6663	3,604.98	72.6543	3,604.98	70.0043	3,604.98	70.1561	3,604.98	64.4727	3,604.98	63.2626	3,604.98	68.8147	3,604.98	68.8347	3,604.98	71.524	3,604.98	69.1753	3,604.98	70.1715	3,604.98	70.1862	3,604.98	71.3381	3,604.98	69.8749	3,604.98	67.0644
3,732.42	90.7581	3,732.42	90.7674	3,732.42	90.5359	3,732.42	89.6048	3,732.42	89.8206	3,732.42	89.3918	3,732.42	89.2538	3,732.42	87.4224	3,732.42	87.7583	3,732.42	85.7043	3,732.42	86.5735	3,732.42	83.6218	3,732.42	83.7124	3,732.42	81.7125	3,732.42	82.2859	3,732.42	78.8139	3,732.42	80.6455	3,732.42	74.2478	3,732.42	78.5665	3,732.42	74.64	3,732.42	76.325	3,732.42	71.1457	3,732.42	71.6608	3,732.42	68.2561	3,732.42	72.8885	3,732.42	71.0295	3,732.42	70.1343	3,732.42	68.2574	3,732.42	67.8712	3,732.42	71.5732	3,732.42	71.4494	3,732.42	71.9508	3,732.42	73.5397	3,732.42	69.1289	3,732.42	73.0544	3,732.42	66.6041
3,864.26	89.0365	3,864.26	89.3319	3,864.26	88.0106	3,864.26	88.8952	3,864.26	86.8053	3,864.26	88.1876	3,864.26	85.6853	3,864.26	87.847	3,864.26	85.247	3,864.26	86.8674	3,864.26	84.8036	3,864.26	85.0792	3,864.26	83.2478	3,864.26	82.8063	3,864.26	81.8256	3,864.26	81.2068	3,864.26	79.2149	3,864.26	77.8977	3,864.26	75.7714	3,864.26	74.546	3,864.26	74.7063	3,864.26	73.9225	3,864.26	74.4499	3,864.26	73.4767	3,864.26	71.3151	3,864.26	69.9086	3,864.26	65.4473	3,864.26	71.8942	3,864.26	67.3364	3,864.26	73.6785	3,864.26	72.1161	3,864.26	73.642	3,864.26	71.6558	3,864.26	68.1575	3,864.26	72.4403	3,864.26	64.7783
4,000.49	89.1021	4,000.49	87.622	4,000.49	89.1621	4,000.49	87.3219	4,000.49	87.7993	4,000.49	87.2063	4,000.49	85.8857	4,000.49	87.397	4,000.49	85.6551	4,000.49	85.9169	4,000.49	85.154	4,000.49	85.1772	4,000.49	84.4437	4,000.49	82.937	4,000.49	82.3095	4,000.49	80.4173	4,000.49	80.7866	4,000.49	77.6822	4,000.49	78.5492	4,000.49	77.1759	4,000.49	76.9737	4,000.49	74.3518	4,000.49	74.0095	4,000.49	71.2841	4,000.49	73.4057	4,000.49	73.403	4,000.49	72.4556	4,000.49	71.2189	4,000.49	69.8137	4,000.49	74.6774	4,000.49	71.7949	4,000.49	75.1384	4,000.49	72.6725	4,000.49	65.9894	4,000.49	73.2084	4,000.49	57.4923
4,141.11	91.1518	4,141.11	89.32	4,141.11	90.7193	4,141.11	87.073	4,141.11	88.7129	4,141.11	87.1306	4,141.11	86.5693	4,141.11	87.6198	4,141.11	85.671	4,141.11	87.4151	4,141.11	85.3064	4,141.11	84.9925	4,141.11	83.9929	4,141.11	82.8606	4,141.11	82.3936	4,141.11	80.9145	4,141.11	81.3205	4,141.11	77.5893	4,141.11	78.2816	4,141.11	76.2341	4,141.11	76.0533	4,141.11	75.4521	4,141.11	74.3888	4,141.11	73.8824	4,141.11	73.1884	4,141.11	72.4854	4,141.11	67.3342	4,141.11	73.1554	4,141.11	65.4426	4,141.11	74.013	4,141.11	72.3539	4,141.11	74.6466	4,141.11	71.2013	4,141.11	68.0781	4,141.11	72.8809	4,141.11	65.7965
4,287.6	92.2769	4,287.6	90.3609	4,287.6	91.7866	4,287.6	86.7429	4,287.6	89.1743	4,287.6	84.9056	4,287.6	86.6643	4,287.6	85.0872	4,287.6	85.7575	4,287.6	85.2412	4,287.6	84.6669	4,287.6	84.6432	4,287.6	83.6939	4,287.6	82.8822	4,287.6	82.1037	4,287.6	80.0404	4,287.6	79.4293	4,287.6	77.4372	4,287.6	76.5979	4,287.6	73.8559	4,287.6	75.9797	4,287.6	73.0405	4,287.6	74.2951	4,287.6	72.8403	4,287.6	72.3737	4,287.6	73.2868	4,287.6	67.7211	4,287.6	70.4866	4,287.6	71.9288	4,287.6	73.1909	4,287.6	70.2447	4,287.6	75.8403	4,287.6	71.8064	4,287.6	66.1569	4,287.6	73.7467	4,287.6	64.6639
4,438.48	92.4483	4,438.48	90.6616	4,438.48	91.8831	4,438.48	86.9217	4,438.48	89.8318	4,438.48	83.9783	4,438.48	86.8413	4,438.48	82.379	4,438.48	85.9228	4,438.48	81.5318	4,438.48	85.3369	4,438.48	81.1599	4,438.48	83.8216	4,438.48	78.0642	4,438.48	81.8194	4,438.48	75.6449	4,438.48	79.3208	4,438.48	72.4435	4,438.48	77.2307	4,438.48	72.8207	4,438.48	75.2792	4,438.48	71.4904	4,438.48	73.3964	4,438.48	67.756	4,438.48	73.1433	4,438.48	67.0877	4,438.48	68.3554	4,438.48	70.1657	4,438.48	69.192	4,438.48	69.2644	4,438.48	70.6294	4,438.48	69.844	4,438.48	71.9781	4,438.48	66.7618	4,438.48	72.0765	4,438.48	59.8106
4,595.21	91.7607	4,595.21	90.5884	4,595.21	90.8928	4,595.21	87.974	4,595.21	88.4632	4,595.21	85.8243	4,595.21	85.9973	4,595.21	84.1633	4,595.21	85.0091	4,595.21	82.3964	4,595.21	84.8816	4,595.21	79.2911	4,595.21	82.9906	4,595.21	76.1335	4,595.21	81.157	4,595.21	73.6941	4,595.21	79.4509	4,595.21	71.6266	4,595.21	75.5063	4,595.21	70.5421	4,595.21	74.454	4,595.21	68.2537	4,595.21	72.1096	4,595.21	66.7326	4,595.21	71.9561	4,595.21	66.5206	4,595.21	65.6151	4,595.21	66.7291	4,595.21	67.3603	4,595.21	69.7284	4,595.21	70.0385	4,595.21	71.9723	4,595.21	71.8165	4,595.21	58.0632	4,595.21	71.5935	4,595.21	62.4988
4,756.35	90.8381	4,756.35	89.7752	4,756.35	90.1809	4,756.35	87.6701	4,756.35	87.1686	4,756.35	86.4497	4,756.35	85.2965	4,756.35	85.4502	4,756.35	84.7467	4,756.35	84.0854	4,756.35	85.1725	4,756.35	81.3584	4,756.35	83.5604	4,756.35	79.5317	4,756.35	82.3018	4,756.35	77.1425	4,756.35	80.4048	4,756.35	74.6583	4,756.35	77.4753	4,756.35	71.3548	4,756.35	75.1212	4,756.35	68.3921	4,756.35	74.3332	4,756.35	67.9782	4,756.35	71.5664	4,756.35	68.1589	4,756.35	69.0959	4,756.35	62.9491	4,756.35	71.0483	4,756.35	69.3624	4,756.35	68.5765	4,756.35	71.5241	4,756.35	70.1314	4,756.35	65.2942	4,756.35	71.6943	4,756.35	62.6436
4,924.8	90.5757	4,924.8	89.4635	4,924.8	89.9341	4,924.8	87.3405	4,924.8	87.2936	4,924.8	86.9191	4,924.8	84.831	4,924.8	86.5889	4,924.8	84.9376	4,924.8	85.2301	4,924.8	85.3877	4,924.8	83.1486	4,924.8	84.4446	4,924.8	80.5096	4,924.8	82.3514	4,924.8	78.1903	4,924.8	79.814	4,924.8	75.5199	4,924.8	77.4399	4,924.8	71.9619	4,924.8	74.6954	4,924.8	70.6395	4,924.8	73.5764	4,924.8	68.4187	4,924.8	72.4086	4,924.8	67.0699	4,924.8	68.7049	4,924.8	67.1251	4,924.8	68.4664	4,924.8	71.862	4,924.8	70.5808	4,924.8	71.5597	4,924.8	72.0504	4,924.8	62.4465	4,924.8	70.9963	4,924.8	57.5107
5,097.66	89.8209	5,097.66	87.8938	5,097.66	89.5277	5,097.66	85.5194	5,097.66	87.62	5,097.66	85.572	5,097.66	85.1125	5,097.66	85.8431	5,097.66	84.8215	5,097.66	85.045	5,097.66	84.6329	5,097.66	83.5598	5,097.66	83.3186	5,097.66	81.8317	5,097.66	81.2872	5,097.66	79.3548	5,097.66	79.1097	5,097.66	76.7093	5,097.66	76.4672	5,097.66	75.3302	5,097.66	74.4631	5,097.66	73.4318	5,097.66	72.3428	5,097.66	71.1241	5,097.66	71.3887	5,097.66	70.9765	5,097.66	66.4874	5,097.66	70.0792	5,097.66	66.9403	5,097.66	72.7183	5,097.66	68.2872	5,097.66	73.1085	5,097.66	70.1772	5,097.66	63.8093	5,097.66	70.7649	5,097.66	61.2497
5,277.83	90.3477	5,277.83	88.4218	5,277.83	90.4372	5,277.83	84.9639	5,277.83	88.7839	5,277.83	83.5308	5,277.83	86.156	5,277.83	84.0435	5,277.83	85.1644	5,277.83	84.0652	5,277.83	84.3087	5,277.83	83.0609	5,277.83	83.3207	5,277.83	81.0511	5,277.83	81.1557	5,277.83	78.6837	5,277.83	79.5546	5,277.83	75.4162	5,277.83	76.644	5,277.83	73.1505	5,277.83	75.0358	5,277.83	70.4415	5,277.83	72.3817	5,277.83	68.6814	5,277.83	70.3623	5,277.83	69.0706	5,277.83	67.3145	5,277.83	67.6958	5,277.83	67.0765	5,277.83	72.2602	5,277.83	68.2946	5,277.83	71.1223	5,277.83	70.6329	5,277.83	56.9491	5,277.83	70.1712	5,277.83	55.2323
5,463.87	90.1732	5,463.87	89.0188	5,463.87	90.0031	5,463.87	86.4673	5,463.87	88.2785	5,463.87	83.3909	5,463.87	85.6986	5,463.87	82.4638	5,463.87	84.4279	5,463.87	82.3347	5,463.87	83.998	5,463.87	81.0544	5,463.87	82.7397	5,463.87	78.8584	5,463.87	80.9875	5,463.87	76.526	5,463.87	79.2435	5,463.87	72.8229	5,463.87	76.0689	5,463.87	72.8019	5,463.87	74.9442	5,463.87	69.2732	5,463.87	72.7522	5,463.87	68.0631	5,463.87	71.3378	5,463.87	68.0906	5,463.87	67.2109	5,463.87	65.8591	5,463.87	65.6162	5,463.87	70.8233	5,463.87	68.6239	5,463.87	69.6958	5,463.87	68.834	5,463.87	60.2977	5,463.87	70.6313	5,463.87	58.7462
5,657.23	89.7938	5,657.23	89.0758	5,657.23	89.7368	5,657.23	86.615	5,657.23	88.2976	5,657.23	84.1504	5,657.23	85.5168	5,657.23	83.0509	5,657.23	83.5362	5,657.23	82.229	5,657.23	83.1598	5,657.23	80.6485	5,657.23	82.083	5,657.23	78.2611	5,657.23	80.4729	5,657.23	75.6679	5,657.23	78.6951	5,657.23	72.7505	5,657.23	75.9493	5,657.23	69.3081	5,657.23	74.0543	5,657.23	67.4427	5,657.23	72.5767	5,657.23	64.3074	5,657.23	70.1588	5,657.23	63.1029	5,657.23	67.2861	5,657.23	65.9347	5,657.23	66.4796	5,657.23	69.1564	5,657.23	66.5542	5,657.23	69.5334	5,657.23	70.2475	5,657.23	62.3545	5,657.23	70.6582	5,657.23	57.6846
5,856.45	89.0624	5,856.45	88.7337	5,856.45	88.984	5,856.45	87.2675	5,856.45	87.7782	5,856.45	84.8091	5,856.45	85.4555	5,856.45	83.0643	5,856.45	83.6205	5,856.45	82.1158	5,856.45	82.8976	5,856.45	80.5662	5,856.45	82.2546	5,856.45	78.2563	5,856.45	80.9194	5,856.45	75.8836	5,856.45	78.2908	5,856.45	72.3214	5,856.45	75.4181	5,856.45	71.4358	5,856.45	72.7148	5,856.45	68.5479	5,856.45	70.5958	5,856.45	66.2818	5,856.45	69.8592	5,856.45	60.5834	5,856.45	64.0858	5,856.45	66.1342	5,856.45	65.0893	5,856.45	69.0559	5,856.45	66.412	5,856.45	67.8859	5,856.45	70.5366	5,856.45	53.7489	5,856.45	70.1971	5,856.45	55.2243
6,062.99	89.3345	6,062.99	89.1201	6,062.99	89.1504	6,062.99	88.0335	6,062.99	88.6426	6,062.99	85.9655	6,062.99	86.3736	6,062.99	84.967	6,062.99	84.4892	6,062.99	83.8521	6,062.99	83.977	6,062.99	82.4389	6,062.99	82.7838	6,062.99	78.6611	6,062.99	80.664	6,062.99	75.9463	6,062.99	78.8038	6,062.99	73.115	6,062.99	75.0712	6,062.99	70.5703	6,062.99	73.4712	6,062.99	67.2919	6,062.99	71.2707	6,062.99	66.4535	6,062.99	68.0443	6,062.99	62.9452	6,062.99	64.1369	6,062.99	64.9869	6,062.99	61.0997	6,062.99	69.4776	6,062.99	65.7488	6,062.99	66.0829	6,062.99	70.4351	6,062.99	47.8946	6,062.99	69.5034	6,062.99	53.8216
6,276.86	90.0595	6,276.86	89.8681	6,276.86	89.8378	6,276.86	88.6335	6,276.86	88.8751	6,276.86	86.0943	6,276.86	86.1912	6,276.86	84.598	6,276.86	83.9264	6,276.86	83.7899	6,276.86	83.3804	6,276.86	81.3882	6,276.86	82.6297	6,276.86	79.0827	6,276.86	80.5946	6,276.86	76.2929	6,276.86	77.3962	6,276.86	73.1814	6,276.86	74.502	6,276.86	70.4718	6,276.86	70.8653	6,276.86	67.7999	6,276.86	69.8142	6,276.86	65.1499	6,276.86	66.88	6,276.86	65.2049	6,276.86	63.9602	6,276.86	65.254	6,276.86	62.1385	6,276.86	68.6837	6,276.86	65.4102	6,276.86	66.0639	6,276.86	69.8169	6,276.86	59.3267	6,276.86	70.0085	6,276.86	55.538
6,498.05	89.8638	6,498.05	89.6858	6,498.05	89.8602	6,498.05	88.0676	6,498.05	89.3108	6,498.05	85.3398	6,498.05	86.3932	6,498.05	84.4969	6,498.05	84.2401	6,498.05	83.6098	6,498.05	83.9163	6,498.05	81.7167	6,498.05	82.3507	6,498.05	78.3471	6,498.05	79.9158	6,498.05	76.1257	6,498.05	76.6734	6,498.05	72.4381	6,498.05	72.6518	6,498.05	69.3575	6,498.05	71.0764	6,498.05	67.1935	6,498.05	69.3386	6,498.05	65.0634	6,498.05	67.2344	6,498.05	60.4037	6,498.05	62.0783	6,498.05	62.5613	6,498.05	59.7093	6,498.05	68.0031	6,498.05	65.9736	6,498.05	63.7954	6,498.05	68.8055	6,498.05	54.8649	6,498.05	69.1152	6,498.05	57.599
6,726.56	90.1079	6,726.56	89.8768	6,726.56	89.7798	6,726.56	88.798	6,726.56	88.8432	6,726.56	86.1745	6,726.56	85.7615	6,726.56	84.8623	6,726.56	84.132	6,726.56	84.0448	6,726.56	83.4559	6,726.56	81.9339	6,726.56	81.8137	6,726.56	78.5734	6,726.56	79.089	6,726.56	75.4201	6,726.56	77.2719	6,726.56	72.1188	6,726.56	73.8291	6,726.56	69.1138	6,726.56	72.312	6,726.56	64.7287	6,726.56	69.0134	6,726.56	64.463	6,726.56	68.0258	6,726.56	61.2578	6,726.56	59.4671	6,726.56	61.4655	6,726.56	56.2725	6,726.56	67.6669	6,726.56	64.3989	6,726.56	62.3167	6,726.56	69.0151	6,726.56	52.6661	6,726.56	69.7971	6,726.56	58.7999
6,963.87	90.3262	6,963.87	89.4859	6,963.87	90.3359	6,963.87	87.9243	6,963.87	89.3776	6,963.87	85.1385	6,963.87	87.1802	6,963.87	83.934	6,963.87	85.6004	6,963.87	82.8772	6,963.87	84.7202	6,963.87	80.3615	6,963.87	83.2176	6,963.87	76.5856	6,963.87	80.833	6,963.87	74.4569	6,963.87	78.5253	6,963.87	71.4705	6,963.87	75.5438	6,963.87	67.8485	6,963.87	73.587	6,963.87	64.9459	6,963.87	70.6155	6,963.87	63.6616	6,963.87	69.4737	6,963.87	56.9318	6,963.87	62.8671	6,963.87	59.539	6,963.87	59.3573	6,963.87	66.0946	6,963.87	64.2642	6,963.87	59.046	6,963.87	68.3941	6,963.87	52.8422	6,963.87	69.6119	6,963.87	59.9647
7,209.96	90.0973	7,209.96	89.303	7,209.96	90.3893	7,209.96	87.0999	7,209.96	90.2118	7,209.96	84.9797	7,209.96	88.3756	7,209.96	83.2868	7,209.96	87.0386	7,209.96	81.3717	7,209.96	86.058	7,209.96	79.271	7,209.96	84.3589	7,209.96	75.2321	7,209.96	82.1233	7,209.96	73.5772	7,209.96	79.745	7,209.96	71.2598	7,209.96	76.2811	7,209.96	67.5373	7,209.96	74.4835	7,209.96	63.5005	7,209.96	71.3311	7,209.96	62.9516	7,209.96	70.3504	7,209.96	54.2496	7,209.96	61.3529	7,209.96	57.6105	7,209.96	62.3394	7,209.96	63.7997	7,209.96	64.5033	7,209.96	58.9083	7,209.96	67.7953	7,209.96	55.0956	7,209.96	69.3263	7,209.96	58.7697
7,464.84	89.9141	7,464.84	89.0615	7,464.84	89.7773	7,464.84	87.5817	7,464.84	89.0608	7,464.84	85.1957	7,464.84	87.5054	7,464.84	82.7756	7,464.84	85.8112	7,464.84	80.827	7,464.84	84.0097	7,464.84	79.0202	7,464.84	82.4319	7,464.84	75.658	7,464.84	80.1692	7,464.84	73.6301	7,464.84	78.4606	7,464.84	70.6221	7,464.84	74.2738	7,464.84	66.7563	7,464.84	72.161	7,464.84	62.5874	7,464.84	68.8175	7,464.84	60.9959	7,464.84	68.5201	7,464.84	58.8852	7,464.84	54.8126	7,464.84	58.9505	7,464.84	58.6935	7,464.84	62.161	7,464.84	60.7447	7,464.84	59.9007	7,464.84	66.0964	7,464.84	59.7763	7,464.84	67.694	7,464.84	54.3874
7,727.05	90.7157	7,727.05	89.7831	7,727.05	90.7407	7,727.05	88.32	7,727.05	90.1117	7,727.05	85.5149	7,727.05	88.5548	7,727.05	82.4314	7,727.05	86.3183	7,727.05	80.3386	7,727.05	84.1261	7,727.05	78.2431	7,727.05	82.676	7,727.05	75.2173	7,727.05	80.8099	7,727.05	71.0074	7,727.05	77.8308	7,727.05	69.8651	7,727.05	74.2413	7,727.05	64.688	7,727.05	71.7501	7,727.05	63.91	7,727.05	68.1784	7,727.05	59.9234	7,727.05	67.1319	7,727.05	61.5908	7,727.05	59.996	7,727.05	55.0341	7,727.05	54.3643	7,727.05	62.4542	7,727.05	59.1994	7,727.05	60.4753	7,727.05	65.5014	7,727.05	50.701	7,727.05	66.334	7,727.05	54.0304
7,999.51	90.6292	7,999.51	89.6038	7,999.51	90.3996	7,999.51	88.6025	7,999.51	89.8882	7,999.51	86.176	7,999.51	88.6846	7,999.51	83.8019	7,999.51	86.2103	7,999.51	81.3917	7,999.51	84.0549	7,999.51	78.8408	7,999.51	82.3725	7,999.51	75.6661	7,999.51	80.4336	7,999.51	70.8988	7,999.51	76.5885	7,999.51	68.1404	7,999.51	73.2555	7,999.51	65.7358	7,999.51	70.6659	7,999.51	64.406	7,999.51	68.2589	7,999.51	59.7484	7,999.51	66.1573	7,999.51	55.7589	7,999.51	54.2099	7,999.51	55.8606	7,999.51	58.292	7,999.51	61.3477	7,999.51	60.23	7,999.51	57.6048	7,999.51	66.5924	7,999.51	57.3086	7,999.51	65.8387	7,999.51	53.6395
8,282.23	90.5024	8,282.23	89.5632	8,282.23	90.5716	8,282.23	88.8018	8,282.23	90.0352	8,282.23	86.5432	8,282.23	89.147	8,282.23	84.2141	8,282.23	86.7348	8,282.23	81.9451	8,282.23	84.697	8,282.23	79.1224	8,282.23	82.77	8,282.23	75.1061	8,282.23	80.0135	8,282.23	70.7239	8,282.23	75.9762	8,282.23	68.7701	8,282.23	72.8085	8,282.23	63.2338	8,282.23	70.7866	8,282.23	63.3146	8,282.23	68.1657	8,282.23	58.8309	8,282.23	66.8266	8,282.23	59.9525	8,282.23	60.928	8,282.23	49.6082	8,282.23	56.4247	8,282.23	61.4211	8,282.23	55.1777	8,282.23	60.2212	8,282.23	64.1156	8,282.23	57.2877	8,282.23	64.8489	8,282.23	49.0289
8,573.73	90.8194	8,573.73	89.7582	8,573.73	90.6878	8,573.73	89.1655	8,573.73	90.0153	8,573.73	86.7136	8,573.73	89.0262	8,573.73	84.2961	8,573.73	86.7678	8,573.73	82.0079	8,573.73	84.8909	8,573.73	78.6431	8,573.73	82.5896	8,573.73	74.3699	8,573.73	79.1091	8,573.73	70.706	8,573.73	76.269	8,573.73	67.7514	8,573.73	72.406	8,573.73	66.69	8,573.73	69.7517	8,573.73	64.5683	8,573.73	67.537	8,573.73	61.5128	8,573.73	64.7801	8,573.73	57.4709	8,573.73	62.4554	8,573.73	54.9292	8,573.73	59.2293	8,573.73	58.2018	8,573.73	56.3446	8,573.73	56.8612	8,573.73	64.7176	8,573.73	57.8486	8,573.73	62.3262	8,573.73	42.9548
8,876.95	90.4829	8,876.95	89.5057	8,876.95	90.517	8,876.95	88.5882	8,876.95	90.067	8,876.95	86.2421	8,876.95	89.1042	8,876.95	83.957	8,876.95	86.643	8,876.95	81.1627	8,876.95	85.0395	8,876.95	77.6284	8,876.95	82.0081	8,876.95	74.7008	8,876.95	79.0239	8,876.95	71.2223	8,876.95	75.9892	8,876.95	68.2268	8,876.95	72.5174	8,876.95	65.1154	8,876.95	70.4052	8,876.95	63.4394	8,876.95	67.1904	8,876.95	60.4676	8,876.95	65.6627	8,876.95	58.3712	8,876.95	59.4937	8,876.95	51.9604	8,876.95	54.5943	8,876.95	57.5778	8,876.95	56.4854	8,876.95	61.0749	8,876.95	60.5059	8,876.95	59.2995	8,876.95	63.3616	8,876.95	48.134
9,188.96	90.4128	9,188.96	89.5472	9,188.96	90.377	9,188.96	88.6398	9,188.96	89.7155	9,188.96	86.4187	9,188.96	88.7277	9,188.96	83.6525	9,188.96	86.3816	9,188.96	80.9609	9,188.96	84.1057	9,188.96	78.1678	9,188.96	81.554	9,188.96	75.7287	9,188.96	78.263	9,188.96	72.0411	9,188.96	75.8533	9,188.96	69.0634	9,188.96	72.3081	9,188.96	65.4857	9,188.96	70.0658	9,188.96	63.4419	9,188.96	66.8695	9,188.96	60.5079	9,188.96	65.1349	9,188.96	57.2002	9,188.96	59.1053	9,188.96	47.0652	9,188.96	59.3771	9,188.96	58.8388	9,188.96	52.2277	9,188.96	54.9075	9,188.96	63.8411	9,188.96	57.5905	9,188.96	62.2133	9,188.96	48.7633
9,514.16	90.6033	9,514.16	89.8384	9,514.16	90.5796	9,514.16	88.4447	9,514.16	89.9054	9,514.16	86.048	9,514.16	88.8454	9,514.16	83.5713	9,514.16	86.457	9,514.16	80.2922	9,514.16	83.9105	9,514.16	78.3015	9,514.16	81.2215	9,514.16	75.4287	9,514.16	78.3329	9,514.16	71.194	9,514.16	75.6239	9,514.16	66.1652	9,514.16	71.3631	9,514.16	66.8775	9,514.16	67.9124	9,514.16	61.1529	9,514.16	67.069	9,514.16	57.3529	9,514.16	63.4371	9,514.16	56.9143	9,514.16	62.3279	9,514.16	51.7674	9,514.16	60.0237	9,514.16	56.9538	9,514.16	54.0292	9,514.16	53.4795	9,514.16	63.9682	9,514.16	56.5453	9,514.16	61.2651	9,514.16	45.9479
9,849.61	90.6116	9,849.61	89.9218	9,849.61	90.713	9,849.61	88.6183	9,849.61	89.7854	9,849.61	86.0436	9,849.61	88.4562	9,849.61	83.3014	9,849.61	86.1969	9,849.61	80.4285	9,849.61	83.2751	9,849.61	77.87	9,849.61	81.2371	9,849.61	74.7286	9,849.61	77.8732	9,849.61	70.9799	9,849.61	74.6517	9,849.61	66.984	9,849.61	71.5138	9,849.61	64.4745	9,849.61	68.3104	9,849.61	60.4794	9,849.61	67.2482	9,849.61	59.258	9,849.61	62.6314	9,849.61	56.9326	9,849.61	60.0966	9,849.61	49.2294	9,849.61	57.0473	9,849.61	55.9809	9,849.61	53.5847	9,849.61	51.0746	9,849.61	62.1536	9,849.61	57.7118	9,849.61	61.1489	9,849.61	48.9266
10,196.8	90.987	10,196.8	90.302	10,196.8	91.243	10,196.8	88.7161	10,196.8	90.2286	10,196.8	86.1555	10,196.8	88.9011	10,196.8	83.1413	10,196.8	86.2131	10,196.8	80.3655	10,196.8	83.1873	10,196.8	77.6815	10,196.8	81.0139	10,196.8	74.737	10,196.8	77.951	10,196.8	71.8817	10,196.8	74.1733	10,196.8	67.9411	10,196.8	71.5644	10,196.8	65.6626	10,196.8	67.8001	10,196.8	60.8078	10,196.8	65.5457	10,196.8	59.139	10,196.8	61.8448	10,196.8	55.9569	10,196.8	61.3231	10,196.8	48.7191	10,196.8	58.4895	10,196.8	55.4757	10,196.8	57.0418	10,196.8	53.7339	10,196.8	61.7753	10,196.8	55.7268	10,196.8	62.1288	10,196.8	53.5259
10,555.7	91.1377	10,555.7	90.4681	10,555.7	91.444	10,555.7	88.8156	10,555.7	90.4092	10,555.7	85.9361	10,555.7	88.8981	10,555.7	82.8166	10,555.7	86.0836	10,555.7	79.9174	10,555.7	82.9566	10,555.7	77.7945	10,555.7	80.9695	10,555.7	74.9861	10,555.7	77.7633	10,555.7	72.1617	10,555.7	74.6232	10,555.7	68.9836	10,555.7	71.0304	10,555.7	64.6925	10,555.7	67.8956	10,555.7	60.0195	10,555.7	66.0837	10,555.7	59.995	10,555.7	62.3845	10,555.7	58.4926	10,555.7	61.1065	10,555.7	43.6076	10,555.7	59.4115	10,555.7	54.5435	10,555.7	57.2796	10,555.7	53.5307	10,555.7	62.1021	10,555.7	54.4873	10,555.7	60.1106	10,555.7	51.8073
10,927.7	91.4146	10,927.7	90.6541	10,927.7	91.7781	10,927.7	89.0517	10,927.7	90.6702	10,927.7	85.868	10,927.7	89.0333	10,927.7	82.8423	10,927.7	86.0146	10,927.7	80.1178	10,927.7	82.9184	10,927.7	77.9913	10,927.7	80.9029	10,927.7	75.6979	10,927.7	78.2628	10,927.7	71.8975	10,927.7	74.6617	10,927.7	69.0094	10,927.7	71.8352	10,927.7	63.9945	10,927.7	69.334	10,927.7	61.0977	10,927.7	66.2544	10,927.7	61.3769	10,927.7	65.2872	10,927.7	51.2492	10,927.7	61.5963	10,927.7	51.189	10,927.7	59.646	10,927.7	51.2527	10,927.7	53.6224	10,927.7	56.386	10,927.7	61.2286	10,927.7	51.7407	10,927.7	62.4457	10,927.7	52.5298
11,313	91.7084	11,313	90.7727	11,313	91.9009	11,313	89.0656	11,313	90.8104	11,313	85.8058	11,313	89.1032	11,313	82.9055	11,313	85.904	11,313	79.8274	11,313	82.7968	11,313	78.5916	11,313	80.2285	11,313	75.7084	11,313	78.3235	11,313	72.0069	11,313	75.1199	11,313	68.1285	11,313	71.3938	11,313	65.3527	11,313	68.3608	11,313	61.4959	11,313	65.5655	11,313	58.9272	11,313	64.747	11,313	55.4022	11,313	58.9618	11,313	53.293	11,313	59.9653	11,313	52.7585	11,313	54.9291	11,313	46.5241	11,313	52.2653	11,313	48.8342	11,313	60.9669	11,313	51.6272
11,712.9	91.8412	11,712.9	90.8792	11,712.9	91.9285	11,712.9	89.2407	11,712.9	90.849	11,712.9	85.9406	11,712.9	89.0006	11,712.9	83.1517	11,712.9	85.8801	11,712.9	80.5449	11,712.9	82.468	11,712.9	78.9483	11,712.9	80.5843	11,712.9	75.3403	11,712.9	77.5935	11,712.9	71.4428	11,712.9	74.8579	11,712.9	68.6862	11,712.9	70.7821	11,712.9	64.3317	11,712.9	68.035	11,712.9	61.2221	11,712.9	64.79	11,712.9	58.9578	11,712.9	64.3305	11,712.9	55.2715	11,712.9	60.8181	11,712.9	44.0389	11,712.9	58.287	11,712.9	47.3566	11,712.9	56.9366	11,712.9	51.9718	11,712.9	60.3891	11,712.9	50.8019	11,712.9	55.2941	11,712.9	52.7664
12,126	92.0095	12,126	91.0214	12,126	91.9967	12,126	89.2198	12,126	90.9294	12,126	86.1327	12,126	89.0317	12,126	82.8798	12,126	86.2379	12,126	80.0647	12,126	82.3926	12,126	77.4962	12,126	80.3111	12,126	73.9391	12,126	76.8427	12,126	69.8572	12,126	73.1823	12,126	67.4989	12,126	69.9845	12,126	62.0101	12,126	66.5124	12,126	59.3826	12,126	62.9161	12,126	59.4534	12,126	62.3093	12,126	58.2291	12,126	59.3698	12,126	46.333	12,126	58.0957	12,126	41.6001	12,126	53.386	12,126	35.0999	12,126	52.7018	12,126	35.1807	12,126	60.1252	12,126	54.0033
12,553.7	92.0658	12,553.7	90.9899	12,553.7	92.0755	12,553.7	88.8149	12,553.7	90.8134	12,553.7	85.1668	12,553.7	88.4778	12,553.7	81.6525	12,553.7	85.2516	12,553.7	78.3043	12,553.7	81.1741	12,553.7	75.5488	12,553.7	78.6538	12,553.7	72.5667	12,553.7	74.9233	12,553.7	68.1037	12,553.7	72.5127	12,553.7	66.6492	12,553.7	68.037	12,553.7	61.3973	12,553.7	64.2106	12,553.7	59.5387	12,553.7	61.6033	12,553.7	56.982	12,553.7	60.524	12,553.7	53.2378	12,553.7	51.241	12,553.7	49.7086	12,553.7	54.2017	12,553.7	49.2983	12,553.7	52.6066	12,553.7	39.8249	12,553.7	57.252	12,553.7	39.4543	12,553.7	55.502	12,553.7	50.0495
12,996.1	92.0081	12,996.1	90.8664	12,996.1	91.9735	12,996.1	88.3795	12,996.1	90.5572	12,996.1	84.645	12,996.1	87.9648	12,996.1	80.8981	12,996.1	84.3837	12,996.1	77.9822	12,996.1	80.212	12,996.1	75.8922	12,996.1	77.6501	12,996.1	72.2838	12,996.1	74.2906	12,996.1	67.3646	12,996.1	70.7271	12,996.1	65.605	12,996.1	67.1004	12,996.1	60.0311	12,996.1	64.0385	12,996.1	57.1031	12,996.1	61.3068	12,996.1	57.3259	12,996.1	59.9871	12,996.1	55.4292	12,996.1	52.9451	12,996.1	48.7135	12,996.1	54.4298	12,996.1	44.184	12,996.1	56.0608	12,996.1	39.874	12,996.1	56.3424	12,996.1	49.4769	12,996.1	51.2928	12,996.1	49.1383
13,454.6	91.791	13,454.6	90.7114	13,454.6	91.7609	13,454.6	88.1219	13,454.6	90.2109	13,454.6	84.4092	13,454.6	87.3876	13,454.6	80.9197	13,454.6	83.7295	13,454.6	78.0955	13,454.6	80.0229	13,454.6	76.4505	13,454.6	76.8676	13,454.6	72.8776	13,454.6	73.9955	13,454.6	67.9731	13,454.6	71.3107	13,454.6	66.6737	13,454.6	66.4278	13,454.6	58.972	13,454.6	63.4561	13,454.6	58.4314	13,454.6	60.1639	13,454.6	58.5869	13,454.6	58.5708	13,454.6	58.1427	13,454.6	51.1221	13,454.6	43.3112	13,454.6	54.8907	13,454.6	45.3157	13,454.6	53.7152	13,454.6	44.42	13,454.6	54.2376	13,454.6	45.6795	13,454.6	48.4243	13,454.6	48.2547
13,929.2	91.4976	13,929.2	90.3814	13,929.2	91.4869	13,929.2	87.8532	13,929.2	89.8395	13,929.2	84.3399	13,929.2	86.8853	13,929.2	81.2186	13,929.2	83.5192	13,929.2	78.2758	13,929.2	79.483	13,929.2	76.325	13,929.2	77.1774	13,929.2	73.3966	13,929.2	74.0408	13,929.2	69.1737	13,929.2	70.5926	13,929.2	65.871	13,929.2	67.4282	13,929.2	60.5492	13,929.2	63.1645	13,929.2	60.2086	13,929.2	61.3237	13,929.2	59.2936	13,929.2	57.5809	13,929.2	57.0749	13,929.2	59.2563	13,929.2	46.8676	13,929.2	55.6056	13,929.2	39.6039	13,929.2	51.8242	13,929.2	46.9609	13,929.2	55.0587	13,929.2	47.7863	13,929.2	52.9894	13,929.2	49.6098
14,419.9	91.1405	14,419.9	89.9456	14,419.9	91.1269	14,419.9	87.5421	14,419.9	89.3708	14,419.9	84.3887	14,419.9	86.508	14,419.9	81.3492	14,419.9	83.3368	14,419.9	78.4314	14,419.9	79.285	14,419.9	76.1762	14,419.9	76.9276	14,419.9	73.3897	14,419.9	73.5624	14,419.9	69.3752	14,419.9	70.7589	14,419.9	64.9223	14,419.9	67.5366	14,419.9	61.8927	14,419.9	62.7507	14,419.9	61.1283	14,419.9	60.8921	14,419.9	58.045	14,419.9	57.9246	14,419.9	54.9387	14,419.9	56.7629	14,419.9	48.7375	14,419.9	54.6752	14,419.9	46.56	14,419.9	49.1765	14,419.9	46.8009	14,419.9	52.7366	14,419.9	48.8636	14,419.9	54.6453	14,419.9	52.1655
14,928.2	90.7453	14,928.2	89.576	14,928.2	90.6631	14,928.2	87.3779	14,928.2	88.8189	14,928.2	84.4213	14,928.2	86.0813	14,928.2	81.5065	14,928.2	82.9713	14,928.2	77.8085	14,928.2	79.2039	14,928.2	76.0195	14,928.2	75.8673	14,928.2	72.8257	14,928.2	73.2614	14,928.2	68.8738	14,928.2	70.4803	14,928.2	63.9805	14,928.2	66.438	14,928.2	60.439	14,928.2	62.6082	14,928.2	59.8582	14,928.2	59.796	14,928.2	57.4759	14,928.2	58.474	14,928.2	56.4361	14,928.2	53.4682	14,928.2	45.0525	14,928.2	52.7667	14,928.2	49.6967	14,928.2	54.0307	14,928.2	44.161	14,928.2	50.0577	14,928.2	53.1239	14,928.2	48.472	14,928.2	46.6255
15,455.6	90.5165	15,455.6	89.3965	15,455.6	90.2689	15,455.6	87.1423	15,455.6	88.2252	15,455.6	84.1884	15,455.6	85.355	15,455.6	81.1786	15,455.6	81.9463	15,455.6	77.2097	15,455.6	77.9886	15,455.6	75.2411	15,455.6	74.2698	15,455.6	72.1171	15,455.6	72.9379	15,455.6	68.0356	15,455.6	68.3618	15,455.6	62.485	15,455.6	65.3239	15,455.6	61.5894	15,455.6	61.7565	15,455.6	58.6666	15,455.6	59.0967	15,455.6	54.4267	15,455.6	53.9227	15,455.6	54.0756	15,455.6	58.9306	15,455.6	47.5931	15,455.6	50.4161	15,455.6	51.3872	15,455.6	50.4493	15,455.6	44.3362	15,455.6	54.1187	15,455.6	49.8795	15,455.6	41.6537	15,455.6	49.5827
16,000.5	90.0908	16,000.5	89.174	16,000.5	89.4654	16,000.5	87.1448	16,000.5	87.1616	16,000.5	84.5499	16,000.5	84.5496	16,000.5	82.5457	16,000.5	82.4504	16,000.5	79.1239	16,000.5	79.277	16,000.5	77.5281	16,000.5	76.6554	16,000.5	74.814	16,000.5	74.8144	16,000.5	70.9455	16,000.5	72.4211	16,000.5	64.6777	16,000.5	68.4866	16,000.5	63.2587	16,000.5	63.5099	16,000.5	59.4124	16,000.5	61.7086	16,000.5	53.474	16,000.5	55.7408	16,000.5	56.3648	16,000.5	60.4481	16,000.5	44.6021	16,000.5	56.0802	16,000.5	51.7405	16,000.5	54.4519	16,000.5	30.181	16,000.5	55.497	16,000.5	50.9455	16,000.5	49.7648	16,000.5	47.4084
16,564.5	88.416	16,564.5	88.0102	16,564.5	88.6706	16,564.5	87.3578	16,564.5	88.3837	16,564.5	85.6456	16,564.5	87.6921	16,564.5	83.4353	16,564.5	86.0735	16,564.5	80.2011	16,564.5	82.6671	16,564.5	77.5239	16,564.5	79.3586	16,564.5	74.5367	16,564.5	77.252	16,564.5	70.0238	16,564.5	73.7202	16,564.5	63.6134	16,564.5	69.5411	16,564.5	61.5177	16,564.5	64.5409	16,564.5	57.0322	16,564.5	62.3125	16,564.5	54.5828	16,564.5	56.2091	16,564.5	57.4725	16,564.5	60.8235	16,564.5	50.393	16,564.5	58.6976	16,564.5	51.4285	16,564.5	56.2552	16,564.5	40.7548	16,564.5	51.7889	16,564.5	46.9246	16,564.5	48.9114	16,564.5	42.4506
17,148.9	89.0542	17,148.9	88.2721	17,148.9	89.0636	17,148.9	86.735	17,148.9	87.9672	17,148.9	83.7995	17,148.9	86.2148	17,148.9	80.3219	17,148.9	83.3897	17,148.9	75.5475	17,148.9	79.1319	17,148.9	71.8357	17,148.9	75.195	17,148.9	67.4099	17,148.9	72.7928	17,148.9	62.0729	17,148.9	67.7361	17,148.9	56.5321	17,148.9	63.6585	17,148.9	55.3495	17,148.9	58.8147	17,148.9	47.9416	17,148.9	55.8023	17,148.9	50.1992	17,148.9	49.7315	17,148.9	55.7722	17,148.9	57.4396	17,148.9	46.5648	17,148.9	53.7262	17,148.9	49.4889	17,148.9	51.2397	17,148.9	44.1589	17,148.9	40.6075	17,148.9	50.8201	17,148.9	46.2206	17,148.9	37.2755
17,752.4	89.1275	17,752.4	88.1414	17,752.4	88.8256	17,752.4	86.1061	17,752.4	87.294	17,752.4	82.3483	17,752.4	84.8001	17,752.4	78.4419	17,752.4	81.497	17,752.4	73.3954	17,752.4	76.863	17,752.4	68.51	17,752.4	72.5622	17,752.4	63.4311	17,752.4	69.3773	17,752.4	58.7292	17,752.4	65.6238	17,752.4	50.1391	17,752.4	60.9131	17,752.4	51.8685	17,752.4	53.8079	17,752.4	48.4364	17,752.4	50.507	17,752.4	46.0221	17,752.4	46.2344	17,752.4	52.6336	17,752.4	53.5121	17,752.4	43.2839	17,752.4	50.137	17,752.4	50.4474	17,752.4	42.7317	17,752.4	52.3327	17,752.4	44.1869	17,752.4	52.3102	17,752.4	48.7749	17,752.4	34.5139
18,379.4	88.6253	18,379.4	87.6607	18,379.4	88.1385	18,379.4	85.0942	18,379.4	86.1656	18,379.4	80.5292	18,379.4	83.1405	18,379.4	76.4308	18,379.4	79.4988	18,379.4	70.62	18,379.4	74.9105	18,379.4	63.4728	18,379.4	70.5403	18,379.4	59.2887	18,379.4	66.6051	18,379.4	53.7951	18,379.4	62.5763	18,379.4	44.2053	18,379.4	57.8044	18,379.4	49.304	18,379.4	52.0932	18,379.4	42.88	18,379.4	47.7743	18,379.4	41.6536	18,379.4	45.6151	18,379.4	45.8805	18,379.4	40.8328	18,379.4	48.2427	18,379.4	38.996	18,379.4	52.8932	18,379.4	47.0576	18,379.4	47.386	18,379.4	45.5371	18,379.4	52.1021	18,379.4	46.283	18,379.4	46.5501
19,026.9	88.126	19,026.9	86.9101	19,026.9	87.5425	19,026.9	83.8186	19,026.9	85.0056	19,026.9	78.7555	19,026.9	81.5157	19,026.9	74.6003	19,026.9	77.8906	19,026.9	68.6219	19,026.9	73.8307	19,026.9	62.4166	19,026.9	69.0172	19,026.9	58.6212	19,026.9	65.2698	19,026.9	52.5443	19,026.9	61.0886	19,026.9	39.9188	19,026.9	57.84	19,026.9	46.3951	19,026.9	50.9545	19,026.9	40.8363	19,026.9	47.1581	19,026.9	43.8082	19,026.9	46.8609	19,026.9	49.622	19,026.9	48.8629	19,026.9	47.4086	19,026.9	43.9018	19,026.9	53.3479	19,026.9	37.0119	19,026.9	55.1796	19,026.9	39.7654	19,026.9	51.9204	19,026.9	46.5412	19,026.9	38.0729
19,697.8	87.3066	19,697.8	85.8587	19,697.8	86.698	19,697.8	82.0237	19,697.8	83.5392	19,697.8	76.6244	19,697.8	79.1687	19,697.8	72.7247	19,697.8	75.9161	19,697.8	67.0345	19,697.8	72.4482	19,697.8	61.9132	19,697.8	67.7889	19,697.8	60.4643	19,697.8	64.4775	19,697.8	53.7353	19,697.8	61.6724	19,697.8	48.8371	19,697.8	57.8257	19,697.8	44.8409	19,697.8	49.1694	19,697.8	37.2892	19,697.8	48.6876	19,697.8	37.1272	19,697.8	44.1745	19,697.8	48.0421	19,697.8	46.3287	19,697.8	40.1025	19,697.8	40.0547	19,697.8	51.7503	19,697.8	40.4187	19,697.8	56.2109	19,697.8	39.3761	19,697.8	53.9452	19,697.8	47.072	19,697.8	36.7379
19,999.5	87.0244	19,999.5	85.0049	19,999.5	86.0295	19,999.5	81.1909	19,999.5	82.5162	19,999.5	75.6106	19,999.5	78.2471	19,999.5	72.3682	19,999.5	74.3205	19,999.5	67.5181	19,999.5	70.2297	19,999.5	61.0305	19,999.5	66.772	19,999.5	61.9235	19,999.5	62.6984	19,999.5	56.5642	19,999.5	62.7217	19,999.5	52.0933	19,999.5	60.2481	19,999.5	53.0732	19,999.5	46.4952	19,999.5	32	19,999.5	50.5023	19,999.5	48.2334	19,999.5	47.0057	19,999.5	50.1088	19,999.5	46.0425	19,999.5	52.8009	19,999.5	50.5671	19,999.5	54.0573	19,999.5	45.8126	19,999.5	57.9363	19,999.5	46.1294	19,999.5	57.1548	19,999.5	43.2063	19,999.5	51.5057
