"SPL Vertical"
"On-Axis"		"10°"		"-10°"		"20°"		"-20°"		"30°"		"-30°"		"40°"		"-40°"		"50°"		"-50°"		"60°"		"-60°"		"70°"		"-70°"		"80°"		"-80°"		"90°"		"-90°"		"100°"		"-100°"		"110°"		"-110°"		"120°"		"-120°"		"130°"		"-130°"		"140°"		"-140°"		"150°"		"-150°"		"160°"		"-160°"		"170°"		"-170°"		"180°"
"Frequency [Hz]"	"Sound Pessure Level [dB]  / [2.83V 1m] "	"Frequency [Hz]"	"Sound Pessure Level [dB]  / [2.83V 1m] "	"Frequency [Hz]"	"Sound Pessure Level [dB]  / [2.83V 1m] "	"Frequency [Hz]"	"Sound Pessure Level [dB]  / [2.83V 1m] "	"Frequency [Hz]"	"Sound Pessure Level [dB]  / [2.83V 1m] "	"Frequency [Hz]"	"Sound Pessure Level [dB]  / [2.83V 1m] "	"Frequency [Hz]"	"Sound Pessure Level [dB]  / [2.83V 1m] "	"Frequency [Hz]"	"Sound Pessure Level [dB]  / [2.83V 1m] "	"Frequency [Hz]"	"Sound Pessure Level [dB]  / [2.83V 1m] "	"Frequency [Hz]"	"Sound Pessure Level [dB]  / [2.83V 1m] "	"Frequency [Hz]"	"Sound Pessure Level [dB]  / [2.83V 1m] "	"Frequency [Hz]"	"Sound Pessure Level [dB]  / [2.83V 1m] "	"Frequency [Hz]"	"Sound Pessure Level [dB]  / [2.83V 1m] "	"Frequency [Hz]"	"Sound Pessure Level [dB]  / [2.83V 1m] "	"Frequency [Hz]"	"Sound Pessure Level [dB]  / [2.83V 1m] "	"Frequency [Hz]"	"Sound Pessure Level [dB]  / [2.83V 1m] "	"Frequency [Hz]"	"Sound Pessure Level [dB]  / [2.83V 1m] "	"Frequency [Hz]"	"Sound Pessure Level [dB]  / [2.83V 1m] "	"Frequency [Hz]"	"Sound Pessure Level [dB]  / [2.83V 1m] "	"Frequency [Hz]"	"Sound Pessure Level [dB]  / [2.83V 1m] "	"Frequency [Hz]"	"Sound Pessure Level [dB]  / [2.83V 1m] "	"Frequency [Hz]"	"Sound Pessure Level [dB]  / [2.83V 1m] "	"Frequency [Hz]"	"Sound Pessure Level [dB]  / [2.83V 1m] "	"Frequency [Hz]"	"Sound Pessure Level [dB]  / [2.83V 1m] "	"Frequency [Hz]"	"Sound Pessure Level [dB]  / [2.83V 1m] "	"Frequency [Hz]"	"Sound Pessure Level [dB]  / [2.83V 1m] "	"Frequency [Hz]"	"Sound Pessure Level [dB]  / [2.83V 1m] "	"Frequency [Hz]"	"Sound Pessure Level [dB]  / [2.83V 1m] "	"Frequency [Hz]"	"Sound Pessure Level [dB]  / [2.83V 1m] "	"Frequency [Hz]"	"Sound Pessure Level [dB]  / [2.83V 1m] "	"Frequency [Hz]"	"Sound Pessure Level [dB]  / [2.83V 1m] "	"Frequency [Hz]"	"Sound Pessure Level [dB]  / [2.83V 1m] "	"Frequency [Hz]"	"Sound Pessure Level [dB]  / [2.83V 1m] "	"Frequency [Hz]"	"Sound Pessure Level [dB]  / [2.83V 1m] "	"Frequency [Hz]"	"Sound Pessure Level [dB]  / [2.83V 1m] "	"Frequency [Hz]"	"Sound Pessure Level [dB]  / [2.83V 1m] "
20.5078	59.2356	20.5078	59.3778	20.5078	59.2823	20.5078	59.5858	20.5078	59.6642	20.5078	59.7856	20.5078	60.4643	20.5078	59.9425	20.5078	61.6208	20.5078	60.0449	20.5078	62.9542	20.5078	60.0927	20.5078	64.2664	20.5078	60.0911	20.5078	65.4028	20.5078	60.0473	20.5078	66.2607	20.5078	59.9689	20.5078	66.7771	20.5078	59.8638	20.5078	66.9187	20.5078	59.7398	20.5078	66.6766	20.5078	59.6051	20.5078	66.0665	20.5078	59.4697	20.5078	65.1336	20.5078	59.3482	20.5078	63.9614	20.5078	59.2646	20.5078	62.6789	20.5078	59.2598	20.5078	61.4544	20.5078	59.3997	20.5078	60.4534	20.5078	59.7715
21.9727	64.7562	21.9727	64.315	21.9727	65.3399	21.9727	63.9992	21.9727	66.065	21.9727	63.7825	21.9727	66.9075	21.9727	63.6371	21.9727	67.8206	21.9727	63.5391	21.9727	68.741	21.9727	63.4704	21.9727	69.5971	21.9727	63.4192	21.9727	70.3182	21.9727	63.3793	21.9727	70.8412	21.9727	63.3493	21.9727	71.1165	21.9727	63.3319	21.9727	71.1121	21.9727	63.333	21.9727	70.8171	21.9727	63.3613	21.9727	70.2458	21.9727	63.4277	21.9727	69.4406	21.9727	63.5453	21.9727	68.4741	21.9727	63.7295	21.9727	67.4443	21.9727	63.9996	21.9727	66.4563	21.9727	64.3811	21.9727	65.5957	21.9727	64.9044
23.4375	67.2328	23.4375	66.7952	23.4375	67.8009	23.4375	66.4691	23.4375	68.5045	23.4375	66.2303	23.4375	69.3281	23.4375	66.0553	23.4375	70.2337	23.4375	65.9258	23.4375	71.1629	23.4375	65.8287	23.4375	72.0456	23.4375	65.7568	23.4375	72.8087	23.4375	65.7072	23.4375	73.3855	23.4375	65.6805	23.4375	73.7227	23.4375	65.68	23.4375	73.7849	23.4375	65.7112	23.4375	73.5582	23.4375	65.7805	23.4375	73.0523	23.4375	65.8962	23.4375	72.3039	23.4375	66.0683	23.4375	71.3769	23.4375	66.3106	23.4375	70.3599	23.4375	66.6429	23.4375	69.3526	23.4375	67.0916	23.4375	68.4433	23.4375	67.6857
24.9023	72.6797	24.9023	72.1799	24.9023	73.2657	24.9023	71.7625	24.9023	73.9346	24.9023	71.4204	24.9023	74.6715	24.9023	71.1454	24.9023	75.4469	24.9023	70.9302	24.9023	76.2151	24.9023	70.7681	24.9023	76.918	24.9023	70.6544	24.9023	77.4923	24.9023	70.5854	24.9023	77.8794	24.9023	70.5593	24.9023	78.0354	24.9023	70.5756	24.9023	77.9382	24.9023	70.6351	24.9023	77.5927	24.9023	70.7406	24.9023	77.0321	24.9023	70.8959	24.9023	76.3144	24.9023	71.1066	24.9023	75.5125	24.9023	71.3794	24.9023	74.6991	24.9023	71.7217	24.9023	73.9314	24.9023	72.1416	24.9023	73.243	24.9023	72.6466
26.3672	73.3555	26.3672	72.86	26.3672	73.9275	26.3672	72.4387	26.3672	74.5723	26.3672	72.0864	26.3672	75.276	26.3672	71.7967	26.3672	76.0115	26.3672	71.5637	26.3672	76.7371	26.3672	71.3827	26.3672	77.3993	26.3672	71.2499	26.3672	77.9384	26.3672	71.1628	26.3672	78.2984	26.3672	71.1201	26.3672	78.4363	26.3672	71.1218	26.3672	78.3299	26.3672	71.1693	26.3672	77.9836	26.3672	71.2653	26.3672	77.43	26.3672	71.4139	26.3672	76.7263	26.3672	71.6207	26.3672	75.9442	26.3672	71.8917	26.3672	75.1536	26.3672	72.2334	26.3672	74.4079	26.3672	72.6516	26.3672	73.7369	26.3672	73.1515
27.832	74.3876	27.832	73.9047	27.832	74.9306	27.832	73.4828	27.832	75.5279	27.832	73.1204	27.832	76.1662	27.832	72.8148	27.832	76.8216	27.832	72.5631	27.832	77.4587	27.832	72.3626	27.832	78.0314	27.832	72.211	27.832	78.4881	27.832	72.1065	27.832	78.7795	27.832	72.048	27.832	78.8676	27.832	72.0354	27.832	78.7333	27.832	72.0694	27.832	78.3822	27.832	72.1518	27.832	77.8459	27.832	72.2857	27.832	77.1787	27.832	72.4748	27.832	76.4471	27.832	72.7237	27.832	75.7146	27.832	73.0373	27.832	75.028	27.832	73.4202	27.832	74.4129	27.832	73.8774
29.2969	74.5107	29.2969	74.0409	29.2969	75.0379	29.2969	73.629	29.2969	75.6177	29.2969	73.2732	29.2969	76.2379	29.2969	72.971	29.2969	76.8762	29.2969	72.72	29.2969	77.4982	29.2969	72.5181	29.2969	78.0587	29.2969	72.3639	29.2969	78.5064	29.2969	72.2565	29.2969	78.7923	29.2969	72.1956	29.2969	78.8784	29.2969	72.1813	29.2969	78.7458	29.2969	72.2148	29.2969	78.4005	29.2969	72.2976	29.2969	77.8746	29.2969	72.4323	29.2969	77.2223	29.2969	72.6221	29.2969	76.5089	29.2969	72.8707	29.2969	75.7961	29.2969	73.1819	29.2969	75.1288	29.2969	73.5596	29.2969	74.5303	29.2969	74.0078
30.7617	74.9699	30.7617	74.5193	30.7617	75.4711	30.7617	74.121	30.7617	76.0176	30.7617	73.7743	30.7617	76.5975	30.7617	73.4775	30.7617	77.1898	30.7617	73.2291	30.7617	77.7631	30.7617	73.0273	30.7617	78.2766	30.7617	72.871	30.7617	78.6835	30.7617	72.7594	30.7617	78.9389	30.7617	72.6921	30.7617	79.008	30.7617	72.6692	30.7617	78.8732	30.7617	72.6913	30.7617	78.54	30.7617	72.7598	30.7617	78.0374	30.7617	72.8769	30.7617	77.4148	30.7617	73.0456	30.7617	76.732	30.7617	73.27	30.7617	76.047	30.7617	73.5549	30.7617	75.4037	30.7617	73.9059	30.7617	74.8277	30.7617	74.3286
32.2266	75.0351	32.2266	74.5573	32.2266	75.5586	32.2266	74.1291	32.2266	76.1198	32.2266	73.7525	32.2266	76.7053	32.2266	73.428	32.2266	77.2934	32.2266	73.1554	32.2266	77.8532	32.2266	72.9338	32.2266	78.3447	32.2266	72.7621	32.2266	78.7236	32.2266	72.6391	32.2266	78.9476	32.2266	72.5641	32.2266	78.9856	32.2266	72.5366	32.2266	78.8241	32.2266	72.5568	32.2266	78.4722	32.2266	72.6258	32.2266	77.9616	32.2266	72.7459	32.2266	77.3413	32.2266	72.9206	32.2266	76.6677	32.2266	73.1544	32.2266	75.9919	32.2266	73.4524	32.2266	75.3519	32.2266	73.8193	32.2266	74.7704	32.2266	74.2584
33.6914	75.8828	33.6914	75.4401	33.6914	76.3649	33.6914	75.0399	33.6914	76.8794	33.6914	74.6836	33.6914	77.4143	33.6914	74.3719	33.6914	77.9496	33.6914	74.1049	33.6914	78.4566	33.6914	73.8825	33.6914	78.8989	33.6914	73.7047	33.6914	79.2356	33.6914	73.5714	33.6914	79.4284	33.6914	73.4828	33.6914	79.449	33.6914	73.4395	33.6914	79.2864	33.6914	73.4428	33.6914	78.9511	33.6914	73.4951	33.6914	78.4749	33.6914	73.5998	33.6914	77.9042	33.6914	73.7616	33.6914	77.2896	33.6914	73.9854	33.6914	76.6738	33.6914	74.2753	33.6914	76.0863	33.6914	74.6331	33.6914	75.5442	33.6914	75.0576
35.1562	76.0955	35.1562	75.6442	35.1562	76.5834	35.1562	75.2345	35.1562	77.1	35.1562	74.8698	35.1562	77.6329	35.1562	74.5524	35.1562	78.1633	35.1562	74.2838	35.1562	78.6645	35.1562	74.0651	35.1562	79.1024	35.1562	73.8965	35.1562	79.4385	35.1562	73.778	35.1562	79.6359	35.1562	73.7093	35.1562	79.6668	35.1562	73.6903	35.1562	79.5195	35.1562	73.7209	35.1562	79.2031	35.1562	73.8021	35.1562	78.7476	35.1562	73.9352	35.1562	78.1981	35.1562	74.1224	35.1562	77.6043	35.1562	74.366	35.1562	77.0093	35.1562	74.6677	35.1562	76.442	35.1562	75.028	35.1562	75.9183	35.1562	75.4456
36.6211	76.4876	36.6211	76.0345	36.6211	76.9749	36.6211	75.6205	36.6211	77.4884	36.6211	75.2492	36.6211	78.0159	36.6211	74.9231	36.6211	78.5386	36.6211	74.644	36.6211	79.0302	36.6211	74.4136	36.6211	79.4568	36.6211	74.2327	36.6211	79.7807	36.6211	74.1019	36.6211	79.9655	36.6211	74.0213	36.6211	79.9843	36.6211	73.991	36.6211	79.8262	36.6211	74.0114	36.6211	79.5008	36.6211	74.0832	36.6211	79.038	36.6211	74.2077	36.6211	78.4824	36.6211	74.3873	36.6211	77.8826	36.6211	74.6245	36.6211	77.2809	36.6211	74.9217	36.6211	76.7064	36.6211	75.2801	36.6211	76.1762	36.6211	75.6992
38.0859	76.7301	38.0859	76.249	38.0859	77.2395	38.0859	75.8027	38.0859	77.7679	38.0859	75.3967	38.0859	78.3022	38.0859	75.0351	38.0859	78.823	38.0859	74.7219	38.0859	79.304	38.0859	74.4598	38.0859	79.7124	38.0859	74.2509	38.0859	80.012	38.0859	74.0965	38.0859	80.1689	38.0859	73.9969	38.0859	80.1594	38.0859	73.9526	38.0859	79.9762	38.0859	73.9636	38.0859	79.6321	38.0859	74.0307	38.0859	79.158	38.0859	74.1555	38.0859	78.5964	38.0859	74.3405	38.0859	77.9915	38.0859	74.5888	38.0859	77.38	38.0859	74.9031	38.0859	76.7884	38.0859	75.2841	38.0859	76.2342	38.0859	75.7298
39.5508	77.6087	39.5508	77.0733	39.5508	78.1665	39.5508	76.569	39.5508	78.7365	39.5508	76.1034	39.5508	79.3049	39.5508	75.6833	39.5508	79.8529	39.5508	75.3147	39.5508	80.3541	39.5508	75.0025	39.5508	80.7742	39.5508	74.7504	39.5508	81.0738	39.5508	74.5606	39.5508	81.2149	39.5508	74.4344	39.5508	81.17	39.5508	74.3723	39.5508	80.9317	39.5508	74.3741	39.5508	80.5167	39.5508	74.4396	39.5508	79.9643	39.5508	74.5691	39.5508	79.3264	39.5508	74.7635	39.5508	78.6536	39.5508	75.0244	39.5508	77.9854	39.5508	75.3539	39.5508	77.3474	39.5508	75.7533	39.5508	76.7559	39.5508	76.222
41.0156	80.3176	41.0156	79.9635	41.0156	80.6844	41.0156	79.6238	41.0156	81.0607	41.0156	79.2997	41.0156	81.4389	41.0156	78.9922	41.0156	81.805	41.0156	78.7026	41.0156	82.135	41.0156	78.4326	41.0156	82.3953	41.0156	78.1842	41.0156	82.5456	41.0156	77.96	41.0156	82.5473	41.0156	77.7634	41.0156	82.3744	41.0156	77.5986	41.0156	82.0235	41.0156	77.4711	41.0156	81.5196	41.0156	77.3873	41.0156	80.9151	41.0156	77.3534	41.0156	80.2789	41.0156	77.375	41.0156	79.6764	41.0156	77.4552	41.0156	79.1489	41.0156	77.5943	41.0156	78.7073	41.0156	77.7897	41.0156	78.3419	41.0156	78.0387
42.4805	79.4759	42.4805	79.1235	42.4805	79.8646	42.4805	78.81	42.4805	80.2841	42.4805	78.537	42.4805	80.7251	42.4805	78.3052	42.4805	81.1717	42.4805	78.1149	42.4805	81.6004	42.4805	77.9658	42.4805	81.9791	42.4805	77.8576	42.4805	82.2704	42.4805	77.7897	42.4805	82.4378	42.4805	77.7612	42.4805	82.4542	42.4805	77.771	42.4805	82.3097	42.4805	77.8183	42.4805	82.0173	42.4805	77.9016	42.4805	81.6113	42.4805	78.0197	42.4805	81.1405	42.4805	78.1708	42.4805	80.6551	42.4805	78.3537	42.4805	80.1938	42.4805	78.5674	42.4805	79.7777	42.4805	78.8127	42.4805	79.412	42.4805	79.0925
43.9453	79.8931	43.9453	79.5271	43.9453	80.2961	43.9453	79.2011	43.9453	80.7306	43.9453	78.9168	43.9453	81.1867	43.9453	78.6748	43.9453	81.6483	43.9453	78.4757	43.9453	82.0909	43.9453	78.3193	43.9453	82.4819	43.9453	78.2055	43.9453	82.7833	43.9453	78.1339	43.9453	82.9583	43.9453	78.1037	43.9453	82.9798	43.9453	78.1142	43.9453	82.8382	43.9453	78.1643	43.9453	82.5462	43.9453	78.2527	43.9453	82.1376	43.9453	78.3783	43.9453	81.6602	43.9453	78.5393	43.9453	81.1634	43.9453	78.7344	43.9453	80.6862	43.9453	78.9628	43.9453	80.2508	43.9453	79.2252	43.9453	79.8642	43.9453	79.5241
45.4102	80.0818	45.4102	79.6874	45.4102	80.5104	45.4102	79.3315	45.4102	80.9658	45.4102	79.0168	45.4102	81.4365	45.4102	78.7453	45.4102	81.9047	45.4102	78.5181	45.4102	82.3447	45.4102	78.3362	45.4102	82.7235	45.4102	78.1999	45.4102	83.0039	45.4102	78.1093	45.4102	83.1509	45.4102	78.0639	45.4102	83.1401	45.4102	78.063	45.4102	82.9654	45.4102	78.1056	45.4102	82.6426	45.4102	78.1901	45.4102	82.2081	45.4102	78.315	45.4102	81.7105	45.4102	78.4786	45.4102	81.1982	45.4102	78.6795	45.4102	80.7077	45.4102	78.9167	45.4102	80.259	45.4102	79.1907	45.4102	79.8581	45.4102	79.5034
46.875	80.4442	46.875	80.0429	46.875	80.8783	46.875	79.6799	46.875	81.337	46.875	79.359	46.875	81.8085	46.875	79.0828	46.875	82.2748	46.875	78.8534	46.875	82.7113	46.875	78.6717	46.875	83.0864	46.875	78.5383	46.875	83.3645	46.875	78.4531	46.875	83.512	46.875	78.4153	46.875	83.5057	46.875	78.4236	46.875	83.3395	46.875	78.4764	46.875	83.0289	46.875	78.5718	46.875	82.6089	46.875	78.7075	46.875	82.1259	46.875	78.8813	46.875	81.6257	46.875	79.0915	46.875	81.143	46.875	79.337	46.875	80.6973	46.875	79.6181	46.875	80.2952	46.875	79.9365
48.3398	80.9557	48.3398	80.5506	48.3398	81.3896	48.3398	80.1804	48.3398	81.8439	48.3398	79.8498	48.3398	82.3062	48.3398	79.562	48.3398	82.7592	48.3398	79.3195	48.3398	83.179	48.3398	79.1239	48.3398	83.5352	48.3398	78.9763	48.3398	83.7937	48.3398	78.8769	48.3398	83.9224	48.3398	78.8253	48.3398	83.8993	48.3398	78.8204	48.3398	83.7194	48.3398	78.8609	48.3398	83.3987	48.3398	78.945	48.3398	82.9722	48.3398	79.0707	48.3398	82.4854	48.3398	79.2362	48.3398	81.9826	48.3398	79.4401	48.3398	81.4972	48.3398	79.6817	48.3398	81.0479	48.3398	79.9613	48.3398	80.6422	48.3398	80.2807
51.2695	81.9569	51.2695	81.5525	51.2695	82.386	51.2695	81.179	51.2695	82.8309	51.2695	80.8416	51.2695	83.2797	51.2695	80.544	51.2695	83.7155	51.2695	80.2895	51.2695	84.1152	51.2695	80.0801	51.2695	84.4494	51.2695	79.9174	51.2695	84.6851	51.2695	79.8022	51.2695	84.7919	51.2695	79.7345	51.2695	84.7492	51.2695	79.7141	51.2695	84.554	51.2695	79.7401	51.2695	84.2241	51.2695	79.8112	51.2695	83.795	51.2695	79.9263	51.2695	83.3115	51.2695	80.0838	51.2695	82.8152	51.2695	80.2827	51.2695	82.3361	51.2695	80.5223	51.2695	81.8908	51.2695	80.8022	51.2695	81.4859	51.2695	81.1232
52.7344	82.4876	52.7344	82.0853	52.7344	82.9124	52.7344	81.7122	52.7344	83.3509	52.7344	81.3738	52.7344	83.791	52.7344	81.0745	52.7344	84.2162	52.7344	80.8179	52.7344	84.6038	52.7344	80.6065	52.7344	84.9249	52.7344	80.4421	52.7344	85.1475	52.7344	80.3255	52.7344	85.2423	52.7344	80.257	52.7344	85.19	52.7344	80.2363	52.7344	84.9892	52.7344	80.2625	52.7344	84.6588	52.7344	80.3346	52.7344	84.2353	52.7344	80.4512	52.7344	83.7631	52.7344	80.6105	52.7344	83.2822	52.7344	80.8109	52.7344	82.82	52.7344	81.0507	52.7344	82.3905	52.7344	81.3288	52.7344	81.9984	52.7344	81.6446
54.1992	82.8635	54.1992	82.4674	54.1992	83.2832	54.1992	82.1016	54.1992	83.7177	54.1992	81.7711	54.1992	84.1548	54.1992	81.4802	54.1992	84.5778	54.1992	81.2319	54.1992	84.9636	54.1992	81.0287	54.1992	85.2834	54.1992	80.8719	54.1992	85.505	54.1992	80.7623	54.1992	85.5991	54.1992	80.7002	54.1992	85.5465	54.1992	80.6849	54.1992	85.3461	54.1992	80.7157	54.1992	85.0171	54.1992	80.791	54.1992	84.5967	54.1992	80.9091	54.1992	84.1299	54.1992	81.0679	54.1992	83.6569	54.1992	81.2649	54.1992	83.2053	54.1992	81.4983	54.1992	82.7886	54.1992	81.7668	54.1992	82.4105	54.1992	82.0705
55.6641	83.2742	55.6641	82.8727	55.6641	83.7	55.6641	82.5029	55.6641	84.1405	55.6641	82.1705	55.6641	84.5825	55.6641	81.8799	55.6641	85.0079	55.6641	81.6346	55.6641	85.393	55.6641	81.4369	55.6641	85.7082	55.6641	81.2883	55.6641	85.9215	55.6641	81.1891	55.6641	86.0039	55.6641	81.139	55.6641	85.9375	55.6641	81.1365	55.6641	85.7226	55.6641	81.1796	55.6641	85.3804	55.6641	81.2654	55.6641	84.9502	55.6641	81.3905	55.6641	84.479	55.6641	81.5509	55.6641	84.0088	55.6641	81.7433	55.6641	83.5678	55.6641	81.965	55.6641	83.1685	55.6641	82.2156	55.6641	82.8128	55.6641	82.4968
58.5938	84.401	58.5938	83.9931	58.5938	84.8337	58.5938	83.6171	58.5938	85.2816	58.5938	83.2782	58.5938	85.7317	58.5938	82.9804	58.5938	86.1661	58.5938	82.7267	58.5938	86.5612	58.5938	82.5192	58.5938	86.8875	58.5938	82.3596	58.5938	87.1119	58.5938	82.2488	58.5938	87.2039	58.5938	82.1869	58.5938	87.1441	58.5938	82.1737	58.5938	86.9323	58.5938	82.208	58.5938	86.5912	58.5938	82.2881	58.5938	86.1617	58.5938	82.4118	58.5938	85.6908	58.5938	82.5766	58.5938	85.2173	58.5938	82.7801	58.5938	84.7647	58.5938	83.0205	58.5938	84.3438	58.5938	83.297	58.5938	83.9584	58.5938	83.6094
60.0586	84.7729	60.0586	84.3613	60.0586	85.2108	60.0586	83.9838	60.0586	85.6645	60.0586	83.6458	60.0586	86.1204	60.0586	83.3514	60.0586	86.5601	60.0586	83.1034	60.0586	86.9599	60.0586	82.9037	60.0586	87.2907	60.0586	82.7533	60.0586	87.5203	60.0586	82.6527	60.0586	87.6186	60.0586	82.6016	60.0586	87.5667	60.0586	82.599	60.0586	87.364	60.0586	82.6435	60.0586	87.0329	60.0586	82.733	60.0586	86.6136	60.0586	82.8651	60.0586	86.1522	60.0586	83.037	60.0586	85.6866	60.0586	83.2466	60.0586	85.2397	60.0586	83.492	60.0586	84.8221	60.0586	83.7723	60.0586	84.4375	60.0586	84.0874
62.9883	85.6384	62.9883	85.2195	62.9883	86.0803	62.9883	84.8321	62.9883	86.5342	62.9883	84.4829	62.9883	86.9864	62.9883	84.177	62.9883	87.4189	62.9883	83.9181	62.9883	87.8088	62.9883	83.7088	62.9883	88.1277	62.9883	83.5507	62.9883	88.3441	62.9883	83.4443	62.9883	88.4292	62.9883	83.3895	62.9883	88.3649	62.9883	83.3852	62.9883	88.1527	62.9883	83.4297	62.9883	87.8164	62.9883	83.521	62.9883	87.3969	62.9883	83.6563	62.9883	86.9399	62.9883	83.8327	62.9883	86.4813	62.9883	84.0475	62.9883	86.042	62.9883	84.2981	62.9883	85.6305	62.9883	84.5826	62.9883	85.2496	62.9883	84.9001
64.4531	86.0361	64.4531	85.6151	64.4531	86.4791	64.4531	85.2248	64.4531	86.9328	64.4531	84.8723	64.4531	87.3831	64.4531	84.563	64.4531	87.8119	64.4531	84.3009	64.4531	88.196	64.4531	84.0888	64.4531	88.5071	64.4531	83.9282	64.4531	88.714	64.4531	83.8198	64.4531	88.7884	64.4531	83.7634	64.4531	88.7132	64.4531	83.7576	64.4531	88.4909	64.4531	83.8007	64.4531	88.1464	64.4531	83.8902	64.4531	87.7216	64.4531	84.0232	64.4531	87.2625	64.4531	84.1966	64.4531	86.8048	64.4531	84.4073	64.4531	86.3686	64.4531	84.6529	64.4531	85.9617	64.4531	84.9317	64.4531	85.5864	64.4531	85.243
67.3828	86.7327	67.3828	86.3032	67.3828	87.1814	67.3828	85.9024	67.3828	87.6381	67.3828	85.5383	67.3828	88.0889	67.3828	85.2176	67.3828	88.5162	67.3828	84.9455	67.3828	88.898	67.3828	84.726	67.3828	89.2072	67.3828	84.5614	67.3828	89.4139	67.3828	84.4528	67.3828	89.4907	67.3828	84.3999	67.3828	89.4212	67.3828	84.4011	67.3828	89.2071	67.3828	84.4539	67.3828	88.8723	67.3828	84.555	67.3828	88.4567	67.3828	84.7006	67.3828	88.0045	67.3828	84.8866	67.3828	87.5505	67.3828	85.1095	67.3828	87.1145	67.3828	85.3662	67.3828	86.7051	67.3828	85.6549	67.3828	86.3248	67.3828	85.9746
68.8477	87.1218	68.8477	86.6972	68.8477	87.5644	68.8477	86.2996	68.8477	88.0139	68.8477	85.9369	68.8477	88.4566	68.8477	85.6157	68.8477	88.8757	68.8477	85.3413	68.8477	89.2495	68.8477	85.1179	68.8477	89.552	68.8477	84.9482	68.8477	89.7542	68.8477	84.8338	68.8477	89.8299	68.8477	84.7747	68.8477	89.7629	68.8477	84.7699	68.8477	89.5554	68.8477	84.8171	68.8477	89.2301	68.8477	84.9134	68.8477	88.8252	68.8477	85.0554	68.8477	88.3822	68.8477	85.2395	68.8477	87.9336	68.8477	85.4624	68.8477	87.4984	68.8477	85.7216	68.8477	87.0854	68.8477	86.015	68.8477	86.6987	68.8477	86.3412
71.7773	87.735	71.7773	87.3214	71.7773	88.1657	71.7773	86.934	71.7773	88.6025	71.7773	86.5804	71.7773	89.0319	71.7773	86.2669	71.7773	89.4371	71.7773	85.9988	71.7773	89.797	71.7773	85.7802	71.7773	90.0858	71.7773	85.614	71.7773	90.2752	71.7773	85.5018	71.7773	90.34	71.7773	85.444	71.7773	90.2659	71.7773	85.4399	71.7773	90.0568	71.7773	85.4879	71.7773	89.7377	71.7773	85.5854	71.7773	89.3479	71.7773	85.7294	71.7773	88.9282	71.7773	85.9162	71.7773	88.5085	71.7773	86.142	71.7773	88.1039	71.7773	86.4026	71.7773	87.719	71.7773	86.694	71.7773	87.3549	71.7773	87.0125
74.707	88.346	74.707	87.9275	74.707	88.7792	74.707	87.5333	74.707	89.216	74.707	87.1712	74.707	89.6428	74.707	86.8482	74.707	90.0425	74.707	86.5702	74.707	90.3941	74.707	86.3421	74.707	90.6723	74.707	86.1677	74.707	90.8498	74.707	86.0495	74.707	90.9029	74.707	85.9884	74.707	90.8187	74.707	85.9838	74.707	90.6026	74.707	86.0334	74.707	90.2794	74.707	86.1337	74.707	89.8874	74.707	86.2804	74.707	89.4655	74.707	86.4684	74.707	89.0429	74.707	86.6929	74.707	88.6353	74.707	86.9496	74.707	88.2489	74.707	87.2353	74.707	87.8861	74.707	87.5479
77.6367	88.8834	77.6367	88.4711	77.6367	89.3106	77.6367	88.0833	77.6367	89.741	77.6367	87.7279	77.6367	90.1604	77.6367	87.4117	77.6367	90.5512	77.6367	87.1399	77.6367	90.892	77.6367	86.9171	77.6367	91.1576	77.6367	86.7465	77.6367	91.3218	77.6367	86.6304	77.6367	91.3626	77.6367	86.5697	77.6367	91.2702	77.6367	86.5641	77.6367	91.0534	77.6367	86.6121	77.6367	90.7399	77.6367	86.7109	77.6367	90.3677	77.6367	86.8569	77.6367	89.9725	77.6367	87.0458	77.6367	89.5778	77.6367	87.2729	77.6367	89.1943	77.6367	87.5335	77.6367	88.8252	77.6367	87.823	77.6367	88.4722	77.6367	88.1371
79.1016	89.0916	79.1016	88.6753	79.1016	89.5229	79.1016	88.284	79.1016	89.9566	79.1016	87.9264	79.1016	90.3779	79.1016	87.6094	79.1016	90.7684	79.1016	87.3384	79.1016	91.1065	79.1016	87.1179	79.1016	91.3666	79.1016	86.9507	79.1016	91.5227	79.1016	86.8387	79.1016	91.5533	79.1016	86.7823	79.1016	91.4499	79.1016	86.7808	79.1016	91.223	79.1016	86.8323	79.1016	90.9022	79.1016	86.9337	79.1016	90.5274	79.1016	87.0813	79.1016	90.1346	79.1016	87.2704	79.1016	89.7467	79.1016	87.4962	79.1016	89.3725	79.1016	87.7537	79.1016	89.0138	79.1016	88.0379	79.1016	88.6709	79.1016	88.3448
82.0312	89.4674	82.0312	89.0441	82.0312	89.9016	82.0312	88.6429	82.0312	90.3338	82.0312	88.2733	82.0312	90.7488	82.0312	87.9434	82.0312	91.1286	82.0312	87.6599	82.0312	91.4521	82.0312	87.428	82.0312	91.6949	82.0312	87.2514	82.0312	91.8322	82.0312	87.1323	82.0312	91.844	82.0312	87.0711	82.0312	91.7228	82.0312	87.0669	82.0312	91.4805	82.0312	87.1171	82.0312	91.1478	82.0312	87.2181	82.0312	90.7655	82.0312	87.3652	82.0312	90.3702	82.0312	87.553	82.0312	89.9838	82.0312	87.776	82.0312	89.6139	82.0312	88.0289	82.0312	89.2613	82.0312	88.3071	82.0312	88.9254	82.0312	88.6068
84.9609	89.857	84.9609	89.4411	84.9609	90.2805	84.9609	89.0437	84.9609	90.6988	84.9609	88.6747	84.9609	91.0973	84.9609	88.3423	84.9609	91.4586	84.9609	88.0537	84.9609	91.7621	84.9609	87.8142	84.9609	91.984	84.9609	87.628	84.9609	92.0998	84.9609	87.4974	84.9609	92.0896	84.9609	87.423	84.9609	91.9463	84.9609	87.404	84.9609	91.6823	84.9609	87.4381	84.9609	91.33	84.9609	87.5218	84.9609	90.9322	84.9609	87.6507	84.9609	90.5272	84.9609	87.8198	84.9609	90.1375	84.9609	88.0239	84.9609	89.7709	84.9609	88.2581	84.9609	89.4269	84.9609	88.518	84.9609	89.1037	84.9609	88.8006
87.8906	89.9153	87.8906	89.4962	87.8906	90.3449	87.8906	89.0984	87.8906	90.7722	87.8906	88.7306	87.8906	91.1819	87.8906	88.4006	87.8906	91.556	87.8906	88.1142	87.8906	91.8736	87.8906	87.8763	87.8906	92.1106	87.8906	87.6904	87.8906	92.2427	87.8906	87.5586	87.8906	92.2501	87.8906	87.4816	87.8906	92.1253	87.8906	87.4592	87.8906	91.8793	87.8906	87.4897	87.8906	91.5415	87.8906	87.5705	87.8906	91.1508	87.8906	87.6983	87.8906	90.7425	87.8906	87.8692	87.8906	90.3391	87.8906	88.079	87.8906	89.9505	87.8906	88.3235	87.8906	89.5801	87.8906	88.599	87.8906	89.2299	87.8906	88.9021
90.8203	89.8839	90.8203	89.4478	90.8203	90.3314	90.8203	89.0361	90.8203	90.7754	90.8203	88.6596	90.8203	91.1992	90.8203	88.3275	90.8203	91.5842	90.8203	88.0469	90.8203	91.9093	90.8203	87.8229	90.8203	92.1514	90.8203	87.6585	90.8203	92.288	90.8203	87.5548	90.8203	92.3021	90.8203	87.5113	90.8203	92.1904	90.8203	87.5256	90.8203	91.9685	90.8203	87.5947	90.8203	91.6683	90.8203	87.7144	90.8203	91.3271	90.8203	87.8801	90.8203	90.9726	90.8203	88.0869	90.8203	90.6175	90.8203	88.33	90.8203	90.2638	90.8203	88.6045	90.8203	89.912	90.8203	88.9054	90.8203	89.5649	90.8203	89.2274
95.2148	90.114	95.2148	89.6609	95.2148	90.5679	95.2148	89.2232	95.2148	91.0077	95.2148	88.8143	95.2148	91.4175	95.2148	88.4467	95.2148	91.7801	95.2148	88.1309	95.2148	92.076	95.2148	87.875	95.2148	92.2835	95.2148	87.6846	95.2148	92.3803	95.2148	87.5619	95.2148	92.349	95.2148	87.5063	95.2148	92.1856	95.2148	87.5146	95.2148	91.9056	95.2148	87.5813	95.2148	91.5448	95.2148	87.6996	95.2148	91.1478	95.2148	87.8619	95.2148	90.7521	95.2148	88.0607	95.2148	90.3777	95.2148	88.2886	95.2148	90.0283	95.2148	88.5394	95.2148	89.7001	95.2148	88.8082	95.2148	89.3889	95.2148	89.0917
98.1445	90.0774	98.1445	89.633	98.1445	90.5218	98.1445	89.2026	98.1445	90.9512	98.1445	88.7991	98.1445	91.3496	98.1445	88.4339	98.1445	91.6997	98.1445	88.1166	98.1445	91.9821	98.1445	87.8545	98.1445	92.1754	98.1445	87.6521	98.1445	92.2584	98.1445	87.5113	98.1445	92.2155	98.1445	87.4319	98.1445	92.0446	98.1445	87.4115	98.1445	91.7632	98.1445	87.4469	98.1445	91.4063	98.1445	87.5336	98.1445	91.0151	98.1445	87.6671	98.1445	90.6218	98.1445	87.8427	98.1445	90.2417	98.1445	88.0556	98.1445	89.8775	98.1445	88.3014	98.1445	89.5278	98.1445	88.5757	98.1445	89.1926	98.1445	88.8741
101.074	89.768	101.074	89.3018	101.074	90.2318	101.074	88.849	101.074	90.6777	101.074	88.4243	101.074	91.0891	101.074	88.0417	101.074	91.4486	101.074	87.7133	101.074	91.737	101.074	87.4481	101.074	91.9333	101.074	87.2518	101.074	92.0171	101.074	87.126	101.074	91.9739	101.074	87.0687	101.074	91.8028	101.074	87.0755	101.074	91.5222	101.074	87.1401	101.074	91.1675	101.074	87.2556	101.074	90.7799	101.074	87.4153	101.074	90.3913	101.074	87.613	101.074	90.0173	101.074	87.8431	101.074	89.6608	101.074	88.1004	101.074	89.3198	101.074	88.3804	101.074	88.9925	101.074	88.6788
105.469	89.9419	105.469	89.4513	105.469	90.4164	105.469	88.9605	105.469	90.859	105.469	88.4857	105.469	91.2543	105.469	88.0432	105.469	91.5867	105.469	87.6486	105.469	91.8398	105.469	87.3159	105.469	91.9972	105.469	87.0565	105.469	92.044	105.469	86.8783	105.469	91.9726	105.469	86.7844	105.469	91.79	105.469	86.7739	105.469	91.5211	105.469	86.8418	105.469	91.2025	105.469	86.98	105.469	90.8668	105.469	87.1785	105.469	90.5288	105.469	87.4269	105.469	90.1866	105.469	87.7148	105.469	89.8337	105.469	88.0333	105.469	89.4694	105.469	88.3746	105.469	89.0996	105.469	88.7322
108.398	90.0476	108.398	89.5778	108.398	90.4986	108.398	89.104	108.398	90.9167	108.398	88.6416	108.398	91.2877	108.398	88.2062	108.398	91.597	108.398	87.813	108.398	91.8288	108.398	87.4756	108.398	91.9656	108.398	87.2053	108.398	91.9906	108.398	87.0103	108.398	91.8938	108.398	86.8948	108.398	91.681	108.398	86.8592	108.398	91.3798	108.398	86.9003	108.398	91.0343	108.398	87.0125	108.398	90.6865	108.398	87.1879	108.398	90.3567	108.398	87.4174	108.398	90.0399	108.398	87.6917	108.398	89.7204	108.398	88.0012	108.398	89.3874	108.398	88.3362	108.398	89.0401	108.398	88.6862
112.793	89.8263	112.793	89.3743	112.793	90.2587	112.793	88.9166	112.793	90.6576	112.793	88.468	112.793	91.0091	112.793	88.0438	112.793	91.2985	112.793	87.6591	112.793	91.5097	112.793	87.3278	112.793	91.6252	112.793	87.0615	112.793	91.6289	112.793	86.8683	112.793	91.5124	112.793	86.7525	112.793	91.2832	112.793	86.7143	112.793	90.971	112.793	86.7506	112.793	90.6212	112.793	86.8555	112.793	90.2764	112.793	87.0213	112.793	89.9567	112.793	87.2393	112.793	89.6581	112.793	87.4999	112.793	89.3647	112.793	87.7925	112.793	89.0638	112.793	88.106	112.793	88.7509	112.793	88.429
117.188	89.69	117.188	89.2268	117.188	90.133	117.188	88.7573	117.188	90.5422	117.188	88.2958	117.188	90.9033	117.188	87.857	117.188	91.2012	117.188	87.456	117.188	91.4191	117.188	87.1074	117.188	91.5381	117.188	86.8239	117.188	91.5403	117.188	86.6149	117.188	91.4146	117.188	86.486	117.188	91.1676	117.188	86.4382	117.188	90.8306	117.188	86.4688	117.188	90.4539	117.188	86.5719	117.188	90.0863	117.188	86.7397	117.188	89.7519	117.188	86.9627	117.188	89.4456	117.188	87.2308	117.188	89.1477	117.188	87.5326	117.188	88.8417	117.188	87.8565	117.188	88.5214	117.188	88.19
120.117	89.6029	120.117	89.135	120.117	90.0499	120.117	88.6595	120.117	90.4625	120.117	88.1899	120.117	90.8269	120.117	87.7409	120.117	91.1274	120.117	87.3278	120.117	91.3462	120.117	86.9661	120.117	91.4638	120.117	86.67	120.117	91.4612	120.117	86.4513	120.117	91.3282	120.117	86.3174	120.117	91.0727	120.117	86.2711	120.117	90.7273	120.117	86.3101	120.117	90.3432	120.117	86.428	120.117	89.97	120.117	86.615	120.117	89.6337	120.117	86.8594	120.117	89.3318	120.117	87.1477	120.117	89.0457	120.117	87.4656	120.117	88.7564	120.117	87.7981	120.117	88.4522	120.117	88.1308
124.512	89.3659	124.512	88.8647	124.512	89.851	124.512	88.3647	124.512	90.3017	124.512	87.8821	124.512	90.6987	124.512	87.4322	124.512	91.0224	124.512	87.0292	124.512	91.2528	124.512	86.6864	124.512	91.3704	124.512	86.4154	124.512	91.3593	124.512	86.2256	124.512	91.2137	124.512	86.1226	124.512	90.9474	124.512	86.108	124.512	90.5986	124.512	86.1782	124.512	90.2214	124.512	86.3256	124.512	89.8625	124.512	86.5384	124.512	89.541	124.512	86.8025	124.512	89.2486	124.512	87.1027	124.512	88.9672	124.512	87.4236	124.512	88.6819	124.512	87.7511	124.512	88.385	124.512	88.0739
128.906	89.2261	128.906	88.7133	128.906	89.7161	128.906	88.1973	128.906	90.1642	128.906	87.6972	128.906	90.5514	128.906	87.2315	128.906	90.8594	128.906	86.8169	128.906	91.0706	128.906	86.4684	128.906	91.1683	128.906	86.1978	128.906	91.1392	128.906	86.0138	128.906	90.9806	128.906	85.9211	128.906	90.7086	128.906	85.9199	128.906	90.364	128.906	86.0058	128.906	90.0023	128.906	86.1699	128.906	89.6696	128.906	86.4	128.906	89.3805	128.906	86.6813	128.906	89.1208	128.906	86.9975	128.906	88.8664	128.906	87.3325	128.906	88.5995	128.906	87.6711	128.906	88.3113	128.906	88.0004
133.301	89.1121	133.301	88.5707	133.301	89.6227	133.301	88.0202	133.301	90.0821	133.301	87.4824	133.301	90.4713	133.301	86.9788	133.301	90.7724	133.301	86.5296	133.301	90.9691	133.301	86.1526	133.301	91.0461	133.301	85.8616	133.301	90.9921	133.301	85.6667	133.301	90.8056	133.301	85.5728	133.301	90.5054	133.301	85.5798	133.301	90.1361	133.301	85.6824	133.301	89.7575	133.301	85.8702	133.301	89.4172	133.301	86.1283	133.301	89.1285	133.301	86.4383	133.301	88.8749	133.301	86.7802	133.301	88.632	133.301	87.1337	133.301	88.3803	133.301	87.4808	133.301	88.1077	133.301	87.8079
139.16	88.9595	139.16	88.4054	139.16	89.4772	139.16	87.8364	139.16	89.9384	139.16	87.2746	139.16	90.3248	139.16	86.7421	139.16	90.6191	139.16	86.2601	139.16	90.8055	139.16	85.847	139.16	90.8686	139.16	85.5177	139.16	90.7957	139.16	85.2826	139.16	90.5833	139.16	85.1469	139.16	90.249	139.16	85.1104	139.16	89.8375	139.16	85.168	139.16	89.4099	139.16	85.3096	139.16	89.0144	139.16	85.5214	139.16	88.6638	139.16	85.7867	139.16	88.3419	139.16	86.0882	139.16	88.0287	139.16	86.4101	139.16	87.7136	139.16	86.7397	139.16	87.3938	139.16	87.0688
143.555	88.6038	143.555	88.0217	143.555	89.1493	143.555	87.4267	143.555	89.6359	143.555	86.8438	143.555	90.0435	143.555	86.2976	143.555	90.3538	143.555	85.8111	143.555	90.5502	143.555	85.4037	143.555	90.6177	143.555	85.0895	143.555	90.5447	143.555	84.8767	143.555	90.331	143.555	84.7671	143.555	89.9985	143.555	84.7571	143.555	89.5978	143.555	84.8386	143.555	89.194	143.555	85	143.555	88.8323	143.555	85.2273	143.555	88.5144	143.555	85.5054	143.555	88.2118	143.555	85.8192	143.555	87.8978	143.555	86.1559	143.555	87.5639	143.555	86.5053	143.555	87.2153	143.555	86.8602
147.949	88.318	147.949	87.6956	147.949	88.8933	147.949	87.0527	147.949	89.398	147.949	86.4184	147.949	89.8124	147.949	85.8227	147.949	90.1202	147.949	85.2944	147.949	90.3081	147.949	84.8582	147.949	90.3655	147.949	84.5318	147.949	90.2851	147.949	84.3245	147.949	90.0705	147.949	84.2371	147.949	89.746	147.949	84.2625	147.949	89.3628	147.949	84.3884	147.949	88.9855	147.949	84.5992	147.949	88.658	147.949	84.878	147.949	88.3788	147.949	85.2079	147.949	88.1136	147.949	85.5733	147.949	87.827	147.949	85.9609	147.949	87.5027	147.949	86.3591	147.949	87.1423	147.949	86.7568
153.809	88.4645	153.809	87.8164	153.809	89.0368	153.809	87.1183	153.809	89.5126	153.809	86.4006	153.809	89.8757	153.809	85.698	153.809	90.1146	153.809	85.0474	153.809	90.2211	153.809	84.4856	153.809	90.1896	153.809	84.0441	153.809	90.0185	153.809	83.7447	153.809	89.7173	153.809	83.5952	153.809	89.3185	153.809	83.5894	153.809	88.8821	153.809	83.7103	153.809	88.477	153.809	83.9347	153.809	88.1433	153.809	84.2381	153.809	87.8712	153.809	84.5982	153.809	87.6189	153.809	84.9963	153.809	87.3463	153.809	85.417	153.809	87.031	153.809	85.8462	153.809	86.669	153.809	86.269
159.668	88.5698	159.668	87.9337	159.668	89.1207	159.668	87.2375	159.668	89.5673	159.668	86.5115	159.668	89.896	159.668	85.7908	159.668	90.0984	159.668	85.1141	159.668	90.17	159.668	84.5202	159.668	90.1088	159.668	84.0449	159.668	89.9171	159.668	83.715	159.668	89.6097	159.668	83.5445	159.668	89.2252	159.668	83.5325	159.668	88.8281	159.668	83.6648	159.668	88.4823	159.668	83.9181	159.668	88.21	159.668	84.2647	159.668	87.9828	159.668	84.6766	159.668	87.7555	159.668	85.1268	159.668	87.4987	159.668	85.5906	159.668	87.2014	159.668	86.0455	159.668	86.8597	159.668	86.4727
165.527	88.5347	165.527	87.9093	165.527	89.0724	165.527	87.2146	165.527	89.5091	165.527	86.4753	165.527	89.835	165.527	85.7216	165.527	90.0403	165.527	84.988	165.527	90.1138	165.527	84.3114	165.527	90.0418	165.527	83.7287	165.527	89.8134	165.527	83.2733	165.527	89.4342	165.527	82.9713	165.527	88.9493	165.527	82.8377	165.527	88.4553	165.527	82.8734	165.527	88.0653	165.527	83.066	165.527	87.8269	165.527	83.3921	165.527	87.6818	165.527	83.8219	165.527	87.5255	165.527	84.324	165.527	87.2832	165.527	84.8682	165.527	86.9327	165.527	85.4274	165.527	86.4877	165.527	85.9761
171.387	88.3262	171.387	87.631	171.387	88.9438	171.387	86.8759	171.387	89.4671	171.387	86.0822	171.387	89.879	171.387	85.2768	171.387	90.1625	171.387	84.4945	171.387	90.3022	171.387	83.7774	171.387	90.2865	171.387	83.172	171.387	90.1111	171.387	82.7232	171.387	89.7857	171.387	82.4641	171.387	89.3458	171.387	82.4084	171.387	88.8568	171.387	82.5466	171.387	88.3951	171.387	82.8503	171.387	88.0067	171.387	83.2802	171.387	87.6868	171.387	83.7937	171.387	87.3993	171.387	84.3509	171.387	87.1069	171.387	84.9165	171.387	86.7811	171.387	85.461	171.387	86.4022	171.387	85.9611
177.246	87.9633	177.246	87.2136	177.246	88.6342	177.246	86.4167	177.246	89.1972	177.246	85.6051	177.246	89.6273	177.246	84.8114	177.246	89.9054	177.246	84.067	177.246	90.0195	177.246	83.403	177.246	89.9648	177.246	82.8498	177.246	89.7462	177.246	82.4377	177.246	89.3872	177.246	82.1937	177.246	88.9459	177.246	82.1357	177.246	88.5192	177.246	82.2664	177.246	88.202	177.246	82.5701	177.246	88.0156	177.246	83.0158	177.246	87.8923	177.246	83.5648	177.246	87.7365	177.246	84.1778	177.246	87.4843	177.246	84.8203	177.246	87.1152	177.246	85.4628	177.246	86.6386	177.246	86.0782
183.105	88.0308	183.105	87.1457	183.105	88.7911	183.105	86.1758	183.105	89.3953	183.105	85.1692	183.105	89.8209	183.105	84.179	183.105	90.0537	183.105	83.2578	183.105	90.0877	183.105	82.4517	183.105	89.9269	183.105	81.7969	183.105	89.5898	183.105	81.3197	183.105	89.1218	183.105	81.0401	183.105	88.6138	183.105	80.9731	183.105	88.1934	183.105	81.1254	183.105	87.9542	183.105	81.489	183.105	87.875	183.105	82.0384	183.105	87.8437	183.105	82.7321	183.105	87.7492	183.105	83.5202	183.105	87.5263	183.105	84.351	183.105	87.148	183.105	85.1749	183.105	86.6137	183.105	85.944
188.965	88.4169	188.965	87.4701	188.965	89.2013	188.965	86.393	188.965	89.801	188.965	85.2304	188.965	90.2014	188.965	84.0419	188.965	90.3944	188.965	82.9014	188.965	90.3765	188.965	81.8905	188.965	90.1496	188.965	81.0837	188.965	89.724	188.965	80.5311	188.965	89.135	188.965	80.2513	188.965	88.4747	188.965	80.2366	188.965	87.9036	188.965	80.465	188.965	87.5721	188.965	80.907	188.965	87.4852	188.965	81.5278	188.965	87.5023	188.965	82.2859	188.965	87.4688	188.965	83.1343	188.965	87.2924	188.965	84.0221	188.965	86.9366	188.965	84.8971	188.965	86.4001	188.965	85.7065
196.289	88.9348	196.289	87.9844	196.289	89.7167	196.289	86.8829	196.289	90.3163	196.289	85.6518	196.289	90.7233	196.289	84.3209	196.289	90.9304	196.289	82.9341	196.289	90.9336	196.289	81.5612	196.289	90.7331	196.289	80.3088	196.289	90.3393	196.289	79.3184	196.289	89.7875	196.289	78.735	196.289	89.1626	196.289	78.6419	196.289	88.5992	196.289	79.0173	196.289	88.2018	196.289	79.7559	196.289	87.9451	196.289	80.7268	196.289	87.7131	196.289	81.812	196.289	87.4269	196.289	82.9144	196.289	87.083	196.289	83.9552	196.289	86.6918	196.289	84.8731	196.289	86.2252	196.289	85.6307
203.613	88.5328	203.613	87.3989	203.613	89.5024	203.613	86.1391	203.613	90.2764	203.613	84.7973	203.613	90.8302	203.613	83.4196	203.613	91.1459	203.613	82.0501	203.613	91.2123	203.613	80.7311	203.613	91.0252	203.613	79.5062	203.613	90.5912	203.613	78.4297	203.613	89.9444	203.613	77.5766	203.613	89.189	203.613	77.0493	203.613	88.5344	203.613	76.9647	203.613	88.2	203.613	77.3964	203.613	88.1892	203.613	78.3049	203.613	88.2708	203.613	79.5439	203.613	88.2007	203.613	80.9436	203.613	87.8471	203.613	82.3777	203.613	87.1802	203.613	83.7714	203.613	86.234	203.613	85.075
210.938	88.4944	210.938	87.2107	210.938	89.6197	210.938	85.8186	210.938	90.5505	210.938	84.3825	210.938	91.263	210.938	82.979	210.938	91.743	210.938	81.6878	210.938	91.9829	210.938	80.5774	210.938	91.9778	210.938	79.6889	210.938	91.722	210.938	79.0304	210.938	91.2195	210.938	78.5879	210.938	90.5247	210.938	78.3502	210.938	89.7962	210.938	78.3369	210.938	89.2622	210.938	78.609	210.938	89.0241	210.938	79.243	210.938	88.9486	210.938	80.264	210.938	88.8248	210.938	81.5958	210.938	88.5096	210.938	83.0868	210.938	87.9326	210.938	84.5757	210.938	87.0692	210.938	85.9331
218.262	89.2871	218.262	88.3198	218.262	90.18	218.262	87.3179	218.262	90.9643	218.262	86.3253	218.262	91.6116	218.262	85.3867	218.262	92.0984	218.262	84.5427	218.262	92.4042	218.262	83.8241	218.262	92.5074	218.262	83.2472	218.262	92.3827	218.262	82.8131	218.262	92.0086	218.262	82.5127	218.262	91.3975	218.262	82.3346	218.262	90.6377	218.262	82.2719	218.262	89.8932	218.262	82.3272	218.262	89.3081	218.262	82.5153	218.262	88.8909	218.262	82.8614	218.262	88.5322	218.262	83.3917	218.262	88.1069	218.262	84.1108	218.262	87.5328	218.262	84.9779	218.262	86.7863	218.262	85.9055
225.586	90.6459	225.586	89.752	225.586	91.3963	225.586	88.7502	225.586	91.9762	225.586	87.6858	225.586	92.3673	225.586	86.6151	225.586	92.5607	225.586	85.604	225.586	92.5584	225.586	84.7225	225.586	92.3735	225.586	84.0329	225.586	92.0303	225.586	83.574	225.586	91.5674	225.586	83.353	225.586	91.0438	225.586	83.3487	225.586	90.5341	225.586	83.5258	225.586	90.0967	225.586	83.8482	225.586	89.7404	225.586	84.2869	225.586	89.4325	225.586	84.8191	225.586	89.131	225.586	85.4231	225.586	88.7998	225.586	86.0724	225.586	88.4065	225.586	86.7323	225.586	87.9283	225.586	87.3631
232.91	91.4707	232.91	90.6267	232.91	92.1348	232.91	89.6414	232.91	92.5907	232.91	88.5625	232.91	92.8205	232.91	87.4468	232.91	92.8175	232.91	86.359	232.91	92.5876	232.91	85.3698	232.91	92.1522	232.91	84.551	232.91	91.555	232.91	83.9654	232.91	90.8781	232.91	83.653	232.91	90.2542	232.91	83.6179	232.91	89.823	232.91	83.8283	232.91	89.619	232.91	84.2286	232.91	89.5315	232.91	84.7584	232.91	89.4184	232.91	85.3636	232.91	89.2132	232.91	85.9992	232.91	88.9242	232.91	86.6264	232.91	88.5794	232.91	87.2124	232.91	88.1868	232.91	87.7345
241.699	91.998	241.699	91.1516	241.699	92.6702	241.699	90.169	241.699	93.137	241.699	89.0961	241.699	93.3753	241.699	87.9864	241.699	93.3697	241.699	86.9021	241.699	93.1159	241.699	85.9139	241.699	92.6271	241.699	85.0977	241.699	91.9465	241.699	84.5227	241.699	91.1659	241.699	84.2336	241.699	90.4302	241.699	84.2315	241.699	89.8851	241.699	84.4723	241.699	89.5789	241.699	84.8854	241.699	89.4482	241.699	85.4012	241.699	89.4119	241.699	85.9718	241.699	89.4115	241.699	86.5738	241.699	89.3743	241.699	87.1967	241.699	89.216	241.699	87.8213	241.699	88.8888	241.699	88.4057
250.488	92.4468	250.488	91.6151	250.488	93.0854	250.488	90.6435	250.488	93.4868	250.488	89.5914	250.488	93.6173	250.488	88.5177	250.488	93.4557	250.488	87.475	250.488	92.9982	250.488	86.5062	250.488	92.2708	250.488	85.6491	250.488	91.354	250.488	84.9491	250.488	90.4236	250.488	84.4715	250.488	89.7622	250.488	84.2974	250.488	89.6011	250.488	84.4817	250.488	89.856	250.488	84.9973	250.488	90.195	250.488	85.73	250.488	90.3482	250.488	86.5364	250.488	90.2346	250.488	87.2997	250.488	89.9242	250.488	87.9496	250.488	89.5488	250.488	88.462	250.488	89.1964	250.488	88.8572
259.277	94.1692	259.277	93.4013	259.277	94.6976	259.277	92.441	259.277	94.9468	259.277	91.3434	259.277	94.8864	259.277	90.173	259.277	94.4972	259.277	89.0049	259.277	93.7776	259.277	87.9228	259.277	92.754	259.277	87.0112	259.277	91.5078	259.277	86.3406	259.277	90.2245	259.277	85.9533	259.277	89.2227	259.277	85.859	259.277	88.7925	259.277	86.0382	259.277	88.9017	259.277	86.4462	259.277	89.2859	259.277	87.0172	259.277	89.7503	259.277	87.6761	259.277	90.1905	259.277	88.3567	259.277	90.5032	259.277	89.0117	259.277	90.6	259.277	89.6067	259.277	90.4558	259.277	90.1052
268.066	93.9674	268.066	93.3757	268.066	94.3353	268.066	92.5998	268.066	94.4472	268.066	91.6847	268.066	94.2798	268.066	90.6785	268.066	93.8183	268.066	89.6314	268.066	93.059	268.066	88.5973	268.066	92.0213	268.066	87.6366	268.066	90.7814	268.066	86.82	268.066	89.5399	268.066	86.2254	268.066	88.6622	268.066	85.926	268.066	88.4491	268.066	85.9691	268.066	88.7541	268.066	86.352	268.066	89.1772	268.066	87.0064	268.066	89.4967	268.066	87.8083	268.066	89.7141	268.066	88.6146	268.066	89.8968	268.066	89.3037	268.066	90.057	268.066	89.7985	268.066	90.1398	268.066	90.0715
276.855	93.2626	276.855	92.7653	276.855	93.5912	276.855	92.154	276.855	93.6997	276.855	91.4809	276.855	93.5411	276.855	90.787	276.855	93.0738	276.855	90.096	276.855	92.2658	276.855	89.4147	276.855	91.1127	276.855	88.7426	276.855	89.6832	276.855	88.0868	276.855	88.2141	276.855	87.4779	276.855	87.188	276.855	86.9788	276.855	87.0323	276.855	86.6754	276.855	87.5704	276.855	86.6442	276.855	88.2974	276.855	86.9088	276.855	88.9167	276.855	87.4183	276.855	89.363	276.855	88.0642	276.855	89.6566	276.855	88.7173	276.855	89.8128	276.855	89.2662	276.855	89.8172	276.855	89.6402
287.109	93.7067	287.109	93.3196	287.109	93.8721	287.109	92.7602	287.109	93.7716	287.109	92.0801	287.109	93.3665	287.109	91.3298	287.109	92.6222	287.109	90.5539	287.109	91.5104	287.109	89.7881	287.109	90.0244	287.109	89.0588	287.109	88.2356	287.109	88.3877	287.109	86.446	287.109	87.8026	287.109	85.347	287.109	87.3486	287.109	85.4708	287.109	87.0894	287.109	86.3409	287.109	87.0812	287.109	87.2251	287.109	87.3292	287.109	87.8476	287.109	87.7655	287.109	88.2635	287.109	88.276	287.109	88.6109	287.109	88.7456	287.109	88.9357	287.109	89.0838	287.109	89.1709	287.109	89.2319
297.363	93.2801	297.363	92.961	297.363	93.3382	297.363	92.4239	297.363	93.0882	297.363	91.7136	297.363	92.4755	297.363	90.8824	297.363	91.4383	297.363	89.995	297.363	89.914	297.363	89.1301	297.363	87.864	297.363	88.3724	297.363	85.3623	297.363	87.7925	297.363	82.8672	297.363	87.4214	297.363	81.4816	297.363	87.241	297.363	81.7629	297.363	87.2054	297.363	82.8616	297.363	87.2773	297.363	84.1003	297.363	87.4498	297.363	85.3082	297.363	87.7299	297.363	86.4343	297.363	88.0942	297.363	87.4065	297.363	88.4645	297.363	88.1487	297.363	88.7319	297.363	88.6163	297.363	88.8022
307.617	93.0413	307.617	92.6507	307.617	93.1647	307.617	92.0519	307.617	92.9685	307.617	91.3118	307.617	92.4026	307.617	90.5009	307.617	91.4151	307.617	89.6834	307.617	89.9512	307.617	88.9071	307.617	87.9651	307.617	88.2002	307.617	85.4687	307.617	87.5823	307.617	82.6847	307.617	87.0819	307.617	80.3567	307.617	86.7459	307.617	79.5553	307.617	86.6227	307.617	80.272	307.617	86.7239	307.617	81.6422	307.617	87.0028	307.617	83.1574	307.617	87.3729	307.617	84.6358	307.617	87.7431	307.617	85.9536	307.617	88.0332	307.617	86.997	307.617	88.1697	307.617	87.7056	307.617	88.0819
319.336	91.9204	319.336	91.7955	319.336	91.7068	319.336	91.3889	319.336	91.0995	319.336	90.7592	319.336	90.0443	319.336	89.9666	319.336	88.4863	319.336	89.0733	319.336	86.3685	319.336	88.1459	319.336	83.6485	319.336	87.2554	319.336	80.4027	319.336	86.4764	319.336	77.2217	319.336	85.885	319.336	75.6143	319.336	85.553	319.336	76.3036	319.336	85.5318	319.336	78.2889	319.336	85.8235	319.336	80.5042	319.336	86.3577	319.336	82.3446	319.336	87.0044	319.336	83.7619	319.336	87.6127	319.336	85.0109	319.336	88.0433	319.336	86.2228	319.336	88.1788	319.336	87.2565	319.336	87.9295
329.59	91.5847	329.59	91.2925	329.59	91.5244	329.59	90.7225	329.59	91.0377	329.59	89.9548	329.59	90.0452	329.59	89.075	329.59	88.4563	329.59	88.1677	329.59	86.1695	329.59	87.3049	329.59	83.0982	329.59	86.5391	329.59	79.3225	329.59	85.9086	329.59	75.6955	329.59	85.45	329.59	74.4837	329.59	85.2029	329.59	76.236	329.59	85.1945	329.59	79.0165	329.59	85.4152	329.59	81.6854	329.59	85.8121	329.59	83.864	329.59	86.3055	329.59	85.449	329.59	86.8066	329.59	86.4811	329.59	87.228	329.59	87.095	329.59	87.4948	329.59	87.4329	329.59	87.5647
341.309	91.2464	341.309	91.1671	341.309	90.925	341.309	90.772	341.309	90.1259	341.309	90.1446	341.309	88.7827	341.309	89.357	341.309	86.8289	341.309	88.4655	341.309	84.1736	341.309	87.518	341.309	80.6772	341.309	86.5702	341.309	76.2493	341.309	85.6982	341.309	71.9371	341.309	84.9936	341.309	71.8589	341.309	84.5391	341.309	75.0371	341.309	84.3872	341.309	78.4456	341.309	84.5619	341.309	81.2985	341.309	85.0541	341.309	83.3873	341.309	85.787	341.309	84.8074	341.309	86.5996	341.309	85.8214	341.309	87.2927	341.309	86.6555	341.309	87.6956	341.309	87.3276	341.309	87.7081
353.027	91.6959	353.027	91.5735	353.027	91.4154	353.027	91.0946	353.027	90.6917	353.027	90.3177	353.027	89.4769	353.027	89.3188	353.027	87.6903	353.027	88.1932	353.027	85.1908	353.027	87.0475	353.027	81.7648	353.027	85.9754	353.027	77.1926	353.027	85.0344	353.027	72.0028	353.027	84.2505	353.027	70.2398	353.027	83.6554	353.027	72.5564	353.027	83.3127	353.027	75.5387	353.027	83.2883	353.027	78.6436	353.027	83.5812	353.027	81.637	353.027	84.1062	353.027	84.0995	353.027	84.7469	353.027	85.7559	353.027	85.4056	353.027	86.5897	353.027	86.0126	353.027	86.7616	353.027	86.503
366.211	90.5827	366.211	90.4908	366.211	90.2538	366.211	90.0586	366.211	89.4384	366.211	89.377	366.211	88.0825	366.211	88.535	366.211	86.1484	366.211	87.6057	366.211	83.6483	366.211	86.6438	366.211	80.745	366.211	85.6985	366.211	77.9112	366.211	84.8368	366.211	75.8614	366.211	84.1583	366.211	75.0084	366.211	83.7749	366.211	75.2652	366.211	83.7383	366.211	76.2702	366.211	83.9833	366.211	77.6207	366.211	84.3737	366.211	79.1114	366.211	84.7919	366.211	80.7101	366.211	85.1682	366.211	82.334	366.211	85.4478	366.211	83.7628	366.211	85.5525	366.211	84.796	366.211	85.3728
379.395	90.8421	379.395	90.6048	379.395	90.591	379.395	89.9668	379.395	89.7767	379.395	89.0448	379.395	88.3115	379.395	87.9732	379.395	86.0838	379.395	86.8705	379.395	82.9897	379.395	85.8134	379.395	79.1122	379.395	84.8383	379.395	75.4393	379.395	83.9597	379.395	74.0039	379.395	83.19	379.395	74.1662	379.395	82.5754	379.395	74.1322	379.395	82.2487	379.395	73.4326	379.395	82.4233	379.395	72.7142	379.395	83.1906	379.395	73.2871	379.395	84.3143	379.395	75.3409	379.395	85.3893	379.395	78.4606	379.395	86.0886	379.395	81.6615	379.395	86.2043	379.395	84.1004	379.395	85.5865
392.578	90.2474	392.578	90.0861	392.578	89.8705	392.578	89.4865	392.578	88.8529	392.578	88.5599	392.578	87.0973	392.578	87.4493	392.578	84.5638	392.578	86.3273	392.578	81.5135	392.578	85.3468	392.578	79.2131	392.578	84.5669	392.578	79.0083	392.578	83.9372	392.578	79.5017	392.578	83.3669	392.578	79.216	392.578	82.8101	392.578	77.6282	392.578	82.3167	392.578	74.417	392.578	82.0462	392.578	70.3981	392.578	82.2002	392.578	70.9049	392.578	82.822	392.578	74.0508	392.578	83.6673	392.578	77.3697	392.578	84.3608	392.578	80.5038	392.578	84.5901	392.578	82.8097	392.578	84.1325
405.762	89.9454	405.762	89.9032	405.762	89.2253	405.762	89.2662	405.762	87.5377	405.762	88.201	405.762	84.5748	405.762	86.8931	405.762	79.9034	405.762	85.5432	405.762	75.4272	405.762	84.3342	405.762	77.658	405.762	83.3923	405.762	79.7732	405.762	82.7684	405.762	79.8377	405.762	82.4488	405.762	78.6165	405.762	82.3631	405.762	77.0317	405.762	82.3872	405.762	74.4484	405.762	82.4131	405.762	73.7798	405.762	82.4928	405.762	78.8208	405.762	82.8872	405.762	81.8531	405.762	83.759	405.762	83.0814	405.762	84.8178	405.762	83.946	405.762	85.5619	405.762	84.9775	405.762	85.6388
420.41	89.8414	420.41	89.4297	420.41	89.6113	420.41	88.5538	420.41	88.562	420.41	87.3996	420.41	86.4235	420.41	86.1401	420.41	82.5035	420.41	84.9164	420.41	73.8855	420.41	83.8336	420.41	70.2811	420.41	82.9644	420.41	79.0537	420.41	82.3441	420.41	81.0505	420.41	81.967	420.41	80.1119	420.41	81.8166	420.41	76.9696	420.41	81.8761	420.41	73.0194	420.41	82.0642	420.41	74.4806	420.41	82.2188	420.41	78.8911	420.41	82.2249	420.41	81.8854	420.41	82.1813	420.41	83.54	420.41	82.3948	420.41	84.2591	420.41	83.0176	420.41	84.2817	420.41	83.7795
435.059	89.7518	435.059	89.3203	435.059	89.6219	435.059	88.4284	435.059	88.8228	435.059	87.2033	435.059	87.1727	435.059	85.8041	435.059	84.2752	435.059	84.4035	435.059	79.0463	435.059	83.1549	435.059	64.9643	435.059	82.1648	435.059	72.0377	435.059	81.4811	435.059	77.6135	435.059	81.0888	435.059	79.2541	435.059	80.9359	435.059	79.5131	435.059	81.0031	435.059	79.0736	435.059	81.3464	435.059	78.6012	435.059	82.0128	435.059	79.2267	435.059	82.8993	435.059	80.6449	435.059	83.7736	435.059	81.9531	435.059	84.4161	435.059	83.0452	435.059	84.6897	435.059	83.9467	435.059	84.5301
451.172	90.1466	451.172	89.8146	451.172	89.7731	451.172	88.8941	451.172	88.5546	451.172	87.4988	451.172	86.3127	451.172	85.7697	451.172	82.8376	451.172	83.9027	451.172	78.3738	451.172	82.1259	451.172	76.0021	451.172	80.6004	451.172	76.4274	451.172	79.3575	451.172	75.5843	451.172	78.4132	451.172	73.6612	451.172	77.9366	451.172	74.1194	451.172	78.1309	451.172	74.5914	451.172	78.8851	451.172	71.6311	451.172	79.8736	451.172	69.0618	451.172	80.9356	451.172	76.6982	451.172	82.0744	451.172	81.2644	451.172	83.212	451.172	83.5995	451.172	84.1373	451.172	84.5667	451.172	84.6495
465.82	89.9513	465.82	89.5833	465.82	89.4203	465.82	88.4809	465.82	87.7672	465.82	86.8327	465.82	84.5393	465.82	84.8892	465.82	78.724	465.82	82.9519	465.82	74.2464	465.82	81.2956	465.82	78.9438	465.82	80.0363	465.82	80.5172	465.82	79.066	465.82	78.9304	465.82	78.1879	465.82	74.3505	465.82	77.3867	465.82	69.577	465.82	77.046	465.82	67.2068	465.82	77.6534	465.82	68.3979	465.82	78.9986	465.82	74.1147	465.82	80.4558	465.82	77.4286	465.82	81.7152	465.82	80.315	465.82	82.771	465.82	82.7281	465.82	83.6406	465.82	83.9865	465.82	84.163
483.398	89.8718	483.398	89.0455	483.398	89.8991	483.398	87.6324	483.398	88.9059	483.398	85.8826	483.398	86.5268	483.398	84.0726	483.398	81.7899	483.398	82.4582	483.398	69.4175	483.398	81.2602	483.398	74.6327	483.398	80.6079	483.398	80.0557	483.398	80.3375	483.398	80.5198	483.398	80.0379	483.398	78.1357	483.398	79.3843	483.398	74.6198	483.398	78.3735	483.398	73.2535	483.398	77.6479	483.398	72.6882	483.398	78.3502	483.398	72.3922	483.398	80.1912	483.398	72.7891	483.398	81.9251	483.398	75.081	483.398	82.9996	483.398	78.6571	483.398	83.3089	483.398	81.3291	483.398	82.8028
499.512	89.441	499.512	89.1671	499.512	88.7517	499.512	88.045	499.512	86.953	499.512	86.2182	499.512	83.7503	499.512	83.9076	499.512	78.2714	499.512	81.4381	499.512	66.3408	499.512	79.1901	499.512	71.7468	499.512	77.4986	499.512	77.0397	499.512	76.6468	499.512	78.345	499.512	76.8086	499.512	77.2026	499.512	77.6691	499.512	74.7534	499.512	78.5246	499.512	73.7604	499.512	78.8526	499.512	72.3366	499.512	78.6048	499.512	70.3205	499.512	78.5646	499.512	73.4125	499.512	79.8077	499.512	75.2544	499.512	81.5941	499.512	77.0308	499.512	82.6098	499.512	80.1614	499.512	82.2258
517.09	89.1876	517.09	88.0546	517.09	89.3904	517.09	86.1641	517.09	88.5082	517.09	83.8748	517.09	86.2269	517.09	81.7192	517.09	81.626	517.09	80.0065	517.09	68.8683	517.09	78.7949	517.09	76.0195	517.09	78.1462	517.09	82.2369	517.09	77.6736	517.09	83.4001	517.09	76.9484	517.09	80.8258	517.09	76.4475	517.09	75.0219	517.09	77.033	517.09	74.8671	517.09	78.2876	517.09	73.2185	517.09	79.2014	517.09	73.2567	517.09	79.3844	517.09	78.6861	517.09	79.3394	517.09	81.1806	517.09	80.0417	517.09	82.2409	517.09	81.2901	517.09	82.5565	517.09	82.2266
536.133	87.8015	536.133	87.7843	536.133	88.6336	536.133	88.3676	536.133	89.1923	536.133	88.4699	536.133	88.617	536.133	87.3703	536.133	86.2575	536.133	84.7422	536.133	79.3102	536.133	81.1128	536.133	79.7497	536.133	78.5603	536.133	88.6387	536.133	76.4685	536.133	91.2152	536.133	74.6348	536.133	89.6465	536.133	76.022	536.133	82.4654	536.133	76.4931	536.133	77.5364	536.133	76.525	536.133	78.6515	536.133	78.2816	536.133	70.4302	536.133	78.9577	536.133	80.7545	536.133	77.0979	536.133	82.8709	536.133	73.6218	536.133	83.385	536.133	77.6306	536.133	83.7826	536.133	82.1799
555.176	89.0313	555.176	89.4702	555.176	87.2928	555.176	88.6617	555.176	84.8234	555.176	86.6604	555.176	83.3046	555.176	82.9088	555.176	82.638	555.176	74.4213	555.176	79.2137	555.176	71.8022	555.176	67.3958	555.176	79.3642	555.176	84.2553	555.176	81.1809	555.176	88.5554	555.176	81.8773	555.176	87.9693	555.176	82.5563	555.176	80.9739	555.176	81.9428	555.176	77.1469	555.176	78.887	555.176	82.0475	555.176	71.7631	555.176	77.2091	555.176	67.162	555.176	73.8746	555.176	76.0667	555.176	79.0553	555.176	79.2293	555.176	78.3699	555.176	79.266	555.176	75.9121	555.176	77.0527
574.219	92.5617	574.219	91.9205	574.219	91.6032	574.219	89.5036	574.219	89.0569	574.219	84.8435	574.219	85.1349	574.219	77.3936	574.219	82.155	574.219	77.2937	574.219	81.6929	574.219	81.9579	574.219	77.5785	574.219	84.1669	574.219	73.9996	574.219	84.4164	574.219	84.6454	574.219	83.3867	574.219	86.31	574.219	82.3301	574.219	82.3102	574.219	81.8991	574.219	78.2871	574.219	81.1776	574.219	81.4692	574.219	78.6844	574.219	81.7454	574.219	71.8662	574.219	80.7178	574.219	75.1364	574.219	78.0704	574.219	81.3222	574.219	79.0271	574.219	83.4869	574.219	81.7093	574.219	83.3195
594.727	92.9053	594.727	91.531	594.727	92.8843	594.727	88.5635	594.727	91.4583	594.727	84.1342	594.727	88.4062	594.727	81.3355	594.727	83.4674	594.727	81.8015	594.727	78.8577	594.727	82.7682	594.727	76.4935	594.727	83.8259	594.727	55.9788	594.727	83.9178	594.727	78.4121	594.727	82.6185	594.727	81.7214	594.727	80.8875	594.727	80.286	594.727	80.6835	594.727	82.1978	594.727	81.7081	594.727	85.3963	594.727	81.8237	594.727	86.6368	594.727	79.6946	594.727	85.599	594.727	76.5317	594.727	82.1101	594.727	79.8602	594.727	78.8516	594.727	82.8215	594.727	80.6507	594.727	82.8987
615.234	90.9998	615.234	89.1318	615.234	91.3211	615.234	85.5389	615.234	90.3054	615.234	81.3195	615.234	88.2153	615.234	80.5417	615.234	85.7696	615.234	80.623	615.234	84.1042	615.234	79.7496	615.234	81.3969	615.234	79.4881	615.234	71.3236	615.234	79.0099	615.234	77.6453	615.234	77.156	615.234	81.2016	615.234	75.8654	615.234	80.3809	615.234	77.7683	615.234	80.7937	615.234	80.4016	615.234	83.2395	615.234	81.4943	615.234	85.5252	615.234	80.4572	615.234	84.5655	615.234	77.8727	615.234	78.5592	615.234	76.4064	615.234	64.8797	615.234	75.5149	615.234	60.7299	615.234	70.3275
637.207	91.2259	637.207	89.3935	637.207	91.6113	637.207	86.533	637.207	90.3005	637.207	84.1031	637.207	86.9706	637.207	83.3664	637.207	82.7295	637.207	82.6501	637.207	82.8032	637.207	80.8984	637.207	83.2228	637.207	78.8537	637.207	81.0158	637.207	77.6872	637.207	75.7727	637.207	77.187	637.207	67.5887	637.207	76.4018	637.207	76.9764	637.207	74.2119	637.207	78.8804	637.207	72.755	637.207	79.8343	637.207	75.9232	637.207	81.5655	637.207	78.2326	637.207	80.1588	637.207	79.0914	637.207	78.3911	637.207	79.8404	637.207	80.527	637.207	81.0533	637.207	81.9981	637.207	82.0112
659.18	90.9859	659.18	89.1749	659.18	91.4407	659.18	86.7647	659.18	90.3041	659.18	85.17	659.18	87.4409	659.18	84.4423	659.18	82.5183	659.18	83.1542	659.18	79.1405	659.18	80.7119	659.18	81.9325	659.18	77.739	659.18	82.5472	659.18	76.0272	659.18	79.6139	659.18	76.4015	659.18	70.1068	659.18	77.3247	659.18	71.1378	659.18	77.4828	659.18	72.1098	659.18	76.7409	659.18	64.2539	659.18	75.4363	659.18	60.1042	659.18	74.1301	659.18	71.3565	659.18	75.1355	659.18	77.0684	659.18	78.8991	659.18	80.1741	659.18	82.0274	659.18	82.5065	659.18	83.2802
682.617	92.7357	682.617	91.333	682.617	93.2805	682.617	89.7455	682.617	92.8285	682.617	88.6543	682.617	91.3672	682.617	87.6867	682.617	88.9442	682.617	86.1477	682.617	86.9062	682.617	83.929	682.617	86.6931	682.617	81.4918	682.617	86.3237	682.617	79.6352	682.617	83.5521	682.617	79.0527	682.617	79.3866	682.617	79.5112	682.617	82.5331	682.617	79.8238	682.617	82.9448	682.617	79.7405	682.617	81.0418	682.617	80.8082	682.617	81.7524	682.617	82.7704	682.617	83.945	682.617	83.798	682.617	84.3551	682.617	83.4434	682.617	84.6887	682.617	83.2545	682.617	85.6675	682.617	84.8693
707.52	92.0003	707.52	91.4533	707.52	92.06	707.52	90.6509	707.52	91.2622	707.52	89.5105	707.52	89.0855	707.52	87.7009	707.52	86.361	707.52	85.1465	707.52	87.3262	707.52	82.6607	707.52	89.2214	707.52	81.4188	707.52	88.917	707.52	81.2141	707.52	85.025	707.52	82.057	707.52	68.8339	707.52	83.0449	707.52	80.035	707.52	82.6979	707.52	83.3756	707.52	80.2006	707.52	82.7381	707.52	75.7759	707.52	83.5194	707.52	79.1091	707.52	83.8142	707.52	83.5722	707.52	81.1102	707.52	85.1072	707.52	75.6502	707.52	84.2937	707.52	76.5487	707.52	81.3646
732.422	92.3709	732.422	91.0497	732.422	92.6145	732.422	88.8523	732.422	91.4202	732.422	86.1548	732.422	88.5329	732.422	83.9735	732.422	85.4566	732.422	82.7411	732.422	86.1203	732.422	81.6468	732.422	87.8006	732.422	80.278	732.422	87.6751	732.422	78.6865	732.422	84.6636	732.422	77.7449	732.422	76.7589	732.422	78.8432	732.422	80.4671	732.422	80.607	732.422	83.0017	732.422	80.7931	732.422	80.6669	732.422	78.2233	732.422	77.6016	732.422	74.0339	732.422	76.8417	732.422	77.3608	732.422	78.8587	732.422	80.7137	732.422	81.2421	732.422	81.7551	732.422	81.8446	732.422	81.7475
757.324	92.2661	757.324	90.9559	757.324	92.2683	757.324	88.5945	757.324	90.8247	757.324	85.8305	757.324	87.6556	757.324	83.8661	757.324	83.1604	757.324	83.252	757.324	84.3653	757.324	83.5814	757.324	87.478	757.324	84.0276	757.324	87.9644	757.324	83.6179	757.324	85.3	757.324	81.9542	757.324	75.9404	757.324	79.0745	757.324	79.7308	757.324	78.9109	757.324	81.5803	757.324	81.1045	757.324	76.6823	757.324	80.6333	757.324	72.5639	757.324	77.2201	757.324	77.2101	757.324	75.373	757.324	79.6762	757.324	78.9596	757.324	81.0699	757.324	81.6874	757.324	82.7271	757.324	82.967
785.156	91.7478	785.156	90.5247	785.156	91.8195	785.156	88.1285	785.156	91.0035	785.156	85.6958	785.156	89.4723	785.156	85.1614	785.156	87.4491	785.156	85.2065	785.156	85.36	785.156	83.7072	785.156	83.9262	785.156	80.103	785.156	83.7621	785.156	76.6324	785.156	83.7514	785.156	77.2431	785.156	81.4465	785.156	77.9931	785.156	72.8099	785.156	76.4837	785.156	75.4216	785.156	74.1352	785.156	82.2928	785.156	75.6108	785.156	84.0579	785.156	77.728	785.156	83.3571	785.156	78.7724	785.156	82.3128	785.156	79.9634	785.156	82.5161	785.156	81.8467	785.156	83.2671	785.156	83.1834
811.523	91.8348	811.523	89.6222	811.523	92.4719	811.523	86.9191	811.523	91.2998	811.523	86.1504	811.523	88.4056	811.523	86.4033	811.523	86.5498	811.523	85.6687	811.523	88.3711	811.523	83.8249	811.523	89.4932	811.523	82.0514	811.523	88.6527	811.523	82.0102	811.523	85.6042	811.523	83.4278	811.523	81.9173	811.523	83.7646	811.523	85.1054	811.523	82.4129	811.523	86.1472	811.523	81.583	811.523	85.867	811.523	82.6473	811.523	85.1746	811.523	82.0798	811.523	80.4023	811.523	77.1244	811.523	70.3815	811.523	77.2625	811.523	72.9292	811.523	82.7552	811.523	80.7366	811.523	83.7401
840.82	91.7948	840.82	90.0269	840.82	92.5437	840.82	88.8366	840.82	91.6574	840.82	88.8721	840.82	89.0631	840.82	89.0715	840.82	85.1888	840.82	88.7996	840.82	84.6913	840.82	87.8385	840.82	86.66	840.82	85.8386	840.82	87.6465	840.82	82.4078	840.82	85.4842	840.82	77.9944	840.82	84.0341	840.82	77.4622	840.82	87.8644	840.82	80.6853	840.82	86.557	840.82	81.7891	840.82	81.8251	840.82	80.8215	840.82	79.9139	840.82	79.7901	840.82	74.1417	840.82	80.5444	840.82	71.948	840.82	81.3423	840.82	76.2517	840.82	80.9684	840.82	78.5699	840.82	79.9091
870.117	91.5246	870.117	90.4242	870.117	91.9421	870.117	89.1697	870.117	91.7265	870.117	88.6025	870.117	90.6328	870.117	88.2291	870.117	88.9956	870.117	86.8971	870.117	88.4266	870.117	84.3349	870.117	89.0118	870.117	82.4927	870.117	88.1616	870.117	83.4453	870.117	82.5976	870.117	84.5705	870.117	74.551	870.117	83.6854	870.117	83.277	870.117	80.3805	870.117	82.4346	870.117	76.3951	870.117	77.5906	870.117	78.545	870.117	78.6569	870.117	81.9129	870.117	83.014	870.117	82.6222	870.117	83.8021	870.117	80.2507	870.117	81.9173	870.117	75.7056	870.117	79.2923	870.117	76.0815
900.879	91.489	900.879	90.4144	900.879	91.5194	900.879	89.5737	900.879	90.0208	900.879	89.4981	900.879	87.0215	900.879	88.8187	900.879	85.9288	900.879	87.0544	900.879	88.499	900.879	84.5669	900.879	89.9514	900.879	82.4369	900.879	87.9714	900.879	80.4835	900.879	82.7816	900.879	77.728	900.879	75.1125	900.879	78.1092	900.879	75.2439	900.879	79.3906	900.879	82.0973	900.879	79.2009	900.879	83.5062	900.879	77.3059	900.879	82.7846	900.879	76.4101	900.879	82.1899	900.879	78.2975	900.879	82.4507	900.879	80.1081	900.879	83.3606	900.879	82.1597	900.879	84.2719	900.879	83.933
933.105	92.0299	933.105	91.5182	933.105	91.7966	933.105	90.5707	933.105	90.537	933.105	89.2094	933.105	88.5447	933.105	87.5173	933.105	86.5109	933.105	86.0483	933.105	85.0127	933.105	85.3379	933.105	83.5833	933.105	84.3711	933.105	84.1298	933.105	81.925	933.105	86.3305	933.105	79.4521	933.105	84.1931	933.105	78.5992	933.105	74.5589	933.105	78.8567	933.105	78.6534	933.105	79.2143	933.105	76.8015	933.105	79.516	933.105	65.1898	933.105	79.5697	933.105	74.9862	933.105	79.6889	933.105	71.1292	933.105	80.0849	933.105	72.2353	933.105	80.6211	933.105	79.5134	933.105	81.194
965.332	91.0504	965.332	90.1912	965.332	91.0626	965.332	89.3067	965.332	90.0655	965.332	88.7401	965.332	88.3147	965.332	87.6951	965.332	86.7401	965.332	85.9099	965.332	86.6501	965.332	84.3709	965.332	87.8449	965.332	83.6596	965.332	87.9723	965.332	82.7371	965.332	84.3493	965.332	81.5571	965.332	79.837	965.332	82.4389	965.332	77.9034	965.332	84.2125	965.332	74.2997	965.332	84.2126	965.332	77.123	965.332	82.3824	965.332	80.7226	965.332	80.225	965.332	81.7462	965.332	80.6496	965.332	81.5821	965.332	81.9405	965.332	78.9072	965.332	80.9954	965.332	73.9908	965.332	76.7312
1,000.49	90.5449	1,000.49	90.9801	1,000.49	89.3748	1,000.49	90.2381	1,000.49	88.4176	1,000.49	88.0518	1,000.49	88.2401	1,000.49	85.7422	1,000.49	87.8161	1,000.49	85.7047	1,000.49	88.2981	1,000.49	86.0073	1,000.49	89.3596	1,000.49	83.8248	1,000.49	87.5817	1,000.49	79.9195	1,000.49	79.1882	1,000.49	78.346	1,000.49	76.1696	1,000.49	77.9903	1,000.49	81.255	1,000.49	71.568	1,000.49	78.4894	1,000.49	70.7804	1,000.49	72.8206	1,000.49	79.2062	1,000.49	75.5545	1,000.49	80.9957	1,000.49	74.9833	1,000.49	79.5712	1,000.49	77.7387	1,000.49	78.5227	1,000.49	81.3927	1,000.49	80.0466	1,000.49	82.7769	1,000.49	82.0929
1,035.64	90.6163	1,035.64	90.2269	1,035.64	89.7798	1,035.64	89.1931	1,035.64	88.5749	1,035.64	88.809	1,035.64	88.2275	1,035.64	88.7061	1,035.64	88.6373	1,035.64	87.1493	1,035.64	88.7903	1,035.64	84.0717	1,035.64	87.6265	1,035.64	82.341	1,035.64	85.123	1,035.64	82.6424	1,035.64	81.9228	1,035.64	81.8884	1,035.64	73.9138	1,035.64	79.5766	1,035.64	74.2498	1,035.64	77.3289	1,035.64	78.0595	1,035.64	75.836	1,035.64	77.8306	1,035.64	74.791	1,035.64	77.3989	1,035.64	75.6782	1,035.64	75.7443	1,035.64	77.3295	1,035.64	62.4042	1,035.64	78.8908	1,035.64	73.3853	1,035.64	79.7957	1,035.64	78.3507	1,035.64	79.7616
1,072.27	89.6815	1,072.27	89.2561	1,072.27	89.633	1,072.27	88.8801	1,072.27	88.8576	1,072.27	88.8379	1,072.27	87.8026	1,072.27	88.1767	1,072.27	87.412	1,072.27	86.0957	1,072.27	86.9967	1,072.27	82.7664	1,072.27	85.93	1,072.27	79.35	1,072.27	86.4104	1,072.27	76.3871	1,072.27	86.4465	1,072.27	73.1908	1,072.27	81.6881	1,072.27	76.236	1,072.27	78.402	1,072.27	79.4317	1,072.27	83.142	1,072.27	79.1471	1,072.27	81.2816	1,072.27	73.4937	1,072.27	81.7138	1,072.27	74.3295	1,072.27	83.4887	1,072.27	79.388	1,072.27	81.0266	1,072.27	79.2198	1,072.27	78.9066	1,072.27	77.4079	1,072.27	73.8795	1,072.27	72.7859
1,108.89	90.2716	1,108.89	90.9709	1,108.89	89.2052	1,108.89	90.4913	1,108.89	89.7343	1,108.89	89.344	1,108.89	90.5455	1,108.89	87.9691	1,108.89	90.4974	1,108.89	85.7731	1,108.89	90.4886	1,108.89	82.443	1,108.89	90.3541	1,108.89	81.658	1,108.89	88.8625	1,108.89	83.5291	1,108.89	85.7032	1,108.89	82.2686	1,108.89	80.6984	1,108.89	82.4946	1,108.89	76.3779	1,108.89	83.1128	1,108.89	79.0681	1,108.89	80.1035	1,108.89	74.22	1,108.89	77.1125	1,108.89	77.6772	1,108.89	77.7389	1,108.89	75.8667	1,108.89	77.5404	1,108.89	70.0374	1,108.89	74.2336	1,108.89	80.067	1,108.89	77.5356	1,108.89	82.757	1,108.89	82.0109
1,148.44	90.9713	1,148.44	90.9754	1,148.44	90.1781	1,148.44	91.0342	1,148.44	88.5874	1,148.44	90.5907	1,148.44	88.593	1,148.44	88.4955	1,148.44	90.2517	1,148.44	86.571	1,148.44	90.6578	1,148.44	86.9177	1,148.44	89.9681	1,148.44	83.9956	1,148.44	89.2241	1,148.44	82.3179	1,148.44	87.2919	1,148.44	81.5573	1,148.44	77.5791	1,148.44	80.7902	1,148.44	78.2443	1,148.44	73.2921	1,148.44	81.2594	1,148.44	79.9086	1,148.44	83.6947	1,148.44	81.0214	1,148.44	85.3255	1,148.44	78.3336	1,148.44	84.3609	1,148.44	79.6261	1,148.44	78.0543	1,148.44	81.8383	1,148.44	75.8619	1,148.44	82.8706	1,148.44	70.8527	1,148.44	81.2593
1,189.45	90.8152	1,189.45	90.5215	1,189.45	90.0066	1,189.45	89.7917	1,189.45	88.4038	1,189.45	89.4066	1,189.45	88.521	1,189.45	89.1947	1,189.45	89.983	1,189.45	87.9423	1,189.45	90.4504	1,189.45	86.2126	1,189.45	89.0973	1,189.45	85.4784	1,189.45	85.7711	1,189.45	84.279	1,189.45	82.8925	1,189.45	81.3246	1,189.45	79.3787	1,189.45	79.2808	1,189.45	74.9922	1,189.45	78.0357	1,189.45	78.609	1,189.45	75.8862	1,189.45	69.4984	1,189.45	78.3845	1,189.45	69.6988	1,189.45	79.1514	1,189.45	74.6888	1,189.45	78.1709	1,189.45	77.6367	1,189.45	78.6837	1,189.45	79.0397	1,189.45	75.4342	1,189.45	73.3767	1,189.45	66.1662
1,230.47	91.2138	1,230.47	90.1648	1,230.47	90.9694	1,230.47	89.2318	1,230.47	89.5116	1,230.47	89.0404	1,230.47	88.8439	1,230.47	89.4666	1,230.47	89.7086	1,230.47	88.8626	1,230.47	91.1228	1,230.47	85.856	1,230.47	90.372	1,230.47	82.0234	1,230.47	87.0309	1,230.47	81.5354	1,230.47	86.1393	1,230.47	81.1482	1,230.47	86.066	1,230.47	75.5719	1,230.47	80.1412	1,230.47	78.003	1,230.47	71.5204	1,230.47	76.7641	1,230.47	83.2706	1,230.47	77.1194	1,230.47	85.7039	1,230.47	79.9448	1,230.47	83.7909	1,230.47	75.6635	1,230.47	77.0158	1,230.47	73.0778	1,230.47	59.2284	1,230.47	79.6214	1,230.47	75.3881	1,230.47	81.1286
1,274.41	91.6878	1,274.41	91.0322	1,274.41	91.2886	1,274.41	89.8794	1,274.41	90.2077	1,274.41	89.8415	1,274.41	89.5992	1,274.41	88.6996	1,274.41	89.9811	1,274.41	85.5611	1,274.41	89.2223	1,274.41	84.4346	1,274.41	87.924	1,274.41	84.6042	1,274.41	88.7487	1,274.41	80.8647	1,274.41	84.8296	1,274.41	72.6948	1,274.41	75.2016	1,274.41	77.058	1,274.41	82.0053	1,274.41	77.5629	1,274.41	75.5639	1,274.41	75.7527	1,274.41	76.8034	1,274.41	72.5921	1,274.41	70.6027	1,274.41	78.6825	1,274.41	72.7393	1,274.41	80.655	1,274.41	75.8069	1,274.41	80.3182	1,274.41	73.1695	1,274.41	80.6403	1,274.41	65.4531	1,274.41	75.1349
1,319.82	91.2932	1,319.82	90.5597	1,319.82	92.1978	1,319.82	90.6311	1,319.82	91.5578	1,319.82	89.4585	1,319.82	90.4922	1,319.82	86.8002	1,319.82	90.2168	1,319.82	87.0228	1,319.82	89.3303	1,319.82	87.1192	1,319.82	88.6439	1,319.82	83.0238	1,319.82	87.7248	1,319.82	81.8827	1,319.82	84.8774	1,319.82	83.3966	1,319.82	81.6238	1,319.82	82.4731	1,319.82	67.3466	1,319.82	78.8871	1,319.82	75.1416	1,319.82	74.2106	1,319.82	80.2947	1,319.82	75.5103	1,319.82	82.9413	1,319.82	74.8609	1,319.82	82.3076	1,319.82	77.7378	1,319.82	77.355	1,319.82	77.6222	1,319.82	75.9272	1,319.82	69.0065	1,319.82	79.788	1,319.82	74.1217
1,366.7	91.2493	1,366.7	91.2503	1,366.7	90.904	1,366.7	90.1141	1,366.7	90.5285	1,366.7	89.0854	1,366.7	90.6851	1,366.7	88.5897	1,366.7	90.1078	1,366.7	87.1632	1,366.7	89.7167	1,366.7	85.9156	1,366.7	88.6606	1,366.7	83.8763	1,366.7	85.71	1,366.7	76.9018	1,366.7	84.6737	1,366.7	75.294	1,366.7	81.5778	1,366.7	78.1344	1,366.7	72.723	1,366.7	76.6478	1,366.7	77.8327	1,366.7	80.5066	1,366.7	77.6221	1,366.7	79.0965	1,366.7	64.6995	1,366.7	75.4174	1,366.7	67.3857	1,366.7	77.2177	1,366.7	80.9444	1,366.7	78.4156	1,366.7	77.5459	1,366.7	79.7329	1,366.7	70.6505	1,366.7	77.612
1,413.57	90.999	1,413.57	90.6271	1,413.57	90.6957	1,413.57	89.9113	1,413.57	90.6512	1,413.57	89.8969	1,413.57	91.0963	1,413.57	89.3181	1,413.57	90.2425	1,413.57	85.3511	1,413.57	87.9585	1,413.57	80.6732	1,413.57	87.09	1,413.57	83.4085	1,413.57	87.9127	1,413.57	84.9188	1,413.57	84.304	1,413.57	84.779	1,413.57	79.1431	1,413.57	76.0668	1,413.57	77.5351	1,413.57	61.7794	1,413.57	74.7559	1,413.57	57.0421	1,413.57	77.9507	1,413.57	71.6258	1,413.57	82.7531	1,413.57	74.7527	1,413.57	81.7427	1,413.57	77.3606	1,413.57	69.9836	1,413.57	77.0427	1,413.57	76.0941	1,413.57	69.3123	1,413.57	78.747	1,413.57	57.6898
1,463.38	89.3042	1,463.38	89.32	1,463.38	89.3732	1,463.38	89.3278	1,463.38	90.0407	1,463.38	88.569	1,463.38	90.4285	1,463.38	85.7948	1,463.38	89.9751	1,463.38	84.9286	1,463.38	87.7243	1,463.38	84.9171	1,463.38	86.0862	1,463.38	82.3189	1,463.38	84.7145	1,463.38	79.3616	1,463.38	79.2536	1,463.38	75.5471	1,463.38	80.4819	1,463.38	79.7033	1,463.38	67.0599	1,463.38	81.8249	1,463.38	77.2461	1,463.38	80.5165	1,463.38	71.3363	1,463.38	76.9389	1,463.38	69.688	1,463.38	73.1688	1,463.38	72.9182	1,463.38	77.0072	1,463.38	75.2851	1,463.38	73.9802	1,463.38	77.6502	1,463.38	74.1297	1,463.38	70.5384	1,463.38	75.1763
1,516.11	87.3785	1,516.11	86.9033	1,516.11	88.5699	1,516.11	87.9077	1,516.11	88.8218	1,516.11	87.9544	1,516.11	89.1607	1,516.11	86.8709	1,516.11	89.0118	1,516.11	84.9971	1,516.11	87.0237	1,516.11	83.0478	1,516.11	86.8345	1,516.11	83.3859	1,516.11	84.6453	1,516.11	81.5519	1,516.11	80.0952	1,516.11	76.8532	1,516.11	82.1965	1,516.11	76.4239	1,516.11	74.7214	1,516.11	74.7996	1,516.11	71.566	1,516.11	75.2612	1,516.11	68.1456	1,516.11	74.7393	1,516.11	75.6518	1,516.11	64.606	1,516.11	77.8829	1,516.11	63.5476	1,516.11	73.3032	1,516.11	75.5405	1,516.11	59.8178	1,516.11	77.2706	1,516.11	64.6788	1,516.11	70.9535
1,568.85	88.2029	1,568.85	87.2572	1,568.85	89.6326	1,568.85	87.6468	1,568.85	88.8948	1,568.85	88.5899	1,568.85	88.8217	1,568.85	86.5621	1,568.85	90.0976	1,568.85	85.0211	1,568.85	87.9676	1,568.85	84.3488	1,568.85	85.4188	1,568.85	81.3488	1,568.85	82.3767	1,568.85	80.086	1,568.85	84.1735	1,568.85	81.4312	1,568.85	68.3871	1,568.85	77.5545	1,568.85	74.2745	1,568.85	64.3161	1,568.85	75.4413	1,568.85	76.1633	1,568.85	78.1876	1,568.85	70.6113	1,568.85	64.3042	1,568.85	73.1222	1,568.85	60.4886	1,568.85	80.8614	1,568.85	68.4183	1,568.85	79.5951	1,568.85	74.2498	1,568.85	63.2174	1,568.85	74.6105	1,568.85	74.6671
1,624.51	90.8724	1,624.51	88.7503	1,624.51	91.879	1,624.51	88.9246	1,624.51	90.936	1,624.51	88.9041	1,624.51	90.5379	1,624.51	88.3619	1,624.51	89.2352	1,624.51	86.6618	1,624.51	88.448	1,624.51	84.7136	1,624.51	85.0146	1,624.51	82.9043	1,624.51	86.8272	1,624.51	77.7551	1,624.51	79.5794	1,624.51	74.1537	1,624.51	82.103	1,624.51	77.7576	1,624.51	75.6659	1,624.51	76.7193	1,624.51	75.0763	1,624.51	75.7041	1,624.51	68.4408	1,624.51	77.8696	1,624.51	78.5405	1,624.51	68.1684	1,624.51	74.0569	1,624.51	67.7736	1,624.51	78.219	1,624.51	77.0738	1,624.51	76.6044	1,624.51	79.2163	1,624.51	68.0289	1,624.51	73.0655
1,681.64	91.2859	1,681.64	89.9194	1,681.64	92.4701	1,681.64	89.4161	1,681.64	92.0017	1,681.64	89.4709	1,681.64	90.0798	1,681.64	89.3878	1,681.64	91.0448	1,681.64	88.2436	1,681.64	89.1307	1,681.64	85.1581	1,681.64	87.2782	1,681.64	83.218	1,681.64	81.0349	1,681.64	83.0296	1,681.64	85.1086	1,681.64	77.2045	1,681.64	82.8457	1,681.64	70.9513	1,681.64	72.2071	1,681.64	79.9862	1,681.64	77.8799	1,681.64	76.9808	1,681.64	71.2554	1,681.64	72.3706	1,681.64	72.4659	1,681.64	76.9783	1,681.64	73.1047	1,681.64	76.3469	1,681.64	72.0905	1,681.64	77.7672	1,681.64	72.019	1,681.64	62.2663	1,681.64	79.8501	1,681.64	75.0821
1,741.7	91.7818	1,741.7	90.1814	1,741.7	92.3253	1,741.7	88.7302	1,741.7	91.5404	1,741.7	88.9133	1,741.7	89.7728	1,741.7	88.4355	1,741.7	86.7553	1,741.7	87.062	1,741.7	86.7027	1,741.7	85.6197	1,741.7	83.4631	1,741.7	84.0359	1,741.7	83.5006	1,741.7	83.0994	1,741.7	80.5434	1,741.7	82.64	1,741.7	71.9588	1,741.7	80.371	1,741.7	75.9913	1,741.7	69.6414	1,741.7	63.6487	1,741.7	77.9558	1,741.7	71.4425	1,741.7	73.3892	1,741.7	66.7026	1,741.7	73.4856	1,741.7	67.1313	1,741.7	75.2066	1,741.7	76.5215	1,741.7	73.0058	1,741.7	75.2695	1,741.7	76.4355	1,741.7	66.2968	1,741.7	72.6362
1,803.22	91.4162	1,803.22	90.0416	1,803.22	91.4225	1,803.22	89.8301	1,803.22	91.1814	1,803.22	88.142	1,803.22	89.2683	1,803.22	87.0131	1,803.22	85.2099	1,803.22	86.9655	1,803.22	83.1612	1,803.22	86.8032	1,803.22	84.0245	1,803.22	83.8313	1,803.22	78.6352	1,803.22	80.9243	1,803.22	82.3851	1,803.22	82.5506	1,803.22	79.051	1,803.22	79.9206	1,803.22	57.0435	1,803.22	75.5856	1,803.22	69.043	1,803.22	72.9472	1,803.22	72.3142	1,803.22	78.1304	1,803.22	70.6458	1,803.22	73.5605	1,803.22	65.3051	1,803.22	70.8205	1,803.22	75.7591	1,803.22	72.0151	1,803.22	70.8968	1,803.22	63.8974	1,803.22	77.0941	1,803.22	75.7439
1,866.21	90.5159	1,866.21	89.9501	1,866.21	90.8972	1,866.21	88.6337	1,866.21	90.8721	1,866.21	87.9403	1,866.21	88.9581	1,866.21	87.5725	1,866.21	86.2511	1,866.21	86.9973	1,866.21	84.307	1,866.21	83.8449	1,866.21	84.9677	1,866.21	82.149	1,866.21	84.3908	1,866.21	79.3003	1,866.21	80.2244	1,866.21	73.2514	1,866.21	64.0347	1,866.21	65.7578	1,866.21	75.8055	1,866.21	76.9165	1,866.21	64.238	1,866.21	77.8363	1,866.21	71.0454	1,866.21	69.1501	1,866.21	72.3073	1,866.21	71.1518	1,866.21	72.29	1,866.21	76.0723	1,866.21	71.9883	1,866.21	72.9609	1,866.21	62.8542	1,866.21	74.4624	1,866.21	71.9712	1,866.21	71.2135
1,932.13	90.3326	1,932.13	89.0052	1,932.13	91.1715	1,932.13	89.2981	1,932.13	89.4012	1,932.13	88.2203	1,932.13	88.7183	1,932.13	85.5108	1,932.13	86.1133	1,932.13	84.9783	1,932.13	84.8898	1,932.13	84.3333	1,932.13	85.5814	1,932.13	82.0182	1,932.13	84.3274	1,932.13	78.7755	1,932.13	81.0259	1,932.13	76.8849	1,932.13	80.3125	1,932.13	74.6304	1,932.13	64.4296	1,932.13	71.5424	1,932.13	65.9198	1,932.13	67.2985	1,932.13	62.3281	1,932.13	62.6807	1,932.13	61.9937	1,932.13	73.8134	1,932.13	63.6966	1,932.13	56.5082	1,932.13	56.868	1,932.13	67.373	1,932.13	72.3929	1,932.13	68.5458	1,932.13	68.7149	1,932.13	75.8441
1,999.51	91.2238	1,999.51	87.9637	1,999.51	91.8819	1,999.51	86.6923	1,999.51	89.9502	1,999.51	87.5517	1,999.51	88.3201	1,999.51	85.7979	1,999.51	87.9924	1,999.51	83.2843	1,999.51	86.2332	1,999.51	82.7239	1,999.51	86.3643	1,999.51	77.239	1,999.51	85.593	1,999.51	75.1545	1,999.51	82.8894	1,999.51	76.9035	1,999.51	57.4089	1,999.51	75.1179	1,999.51	76.9419	1,999.51	69.2378	1,999.51	69.6995	1,999.51	73.2855	1,999.51	67.1456	1,999.51	69.3229	1,999.51	70.2327	1,999.51	71.3481	1,999.51	57.1028	1,999.51	68.6602	1,999.51	65.2196	1,999.51	68.7247	1,999.51	70.1748	1,999.51	63.7476	1,999.51	71.677	1,999.51	73.9051
2,069.82	91.8379	2,069.82	88.5826	2,069.82	92.2688	2,069.82	84.9706	2,069.82	91.3539	2,069.82	84.8775	2,069.82	88.5635	2,069.82	84.9804	2,069.82	87.4342	2,069.82	82.9441	2,069.82	88.5629	2,069.82	78.8408	2,069.82	87.6897	2,069.82	79.0269	2,069.82	88.8369	2,069.82	77.0894	2,069.82	84.1124	2,069.82	74.1904	2,069.82	82.1904	2,069.82	66.9527	2,069.82	75.6755	2,069.82	72.5639	2,069.82	75.5513	2,069.82	70.3583	2,069.82	65.8878	2,069.82	74.6429	2,069.82	70.1883	2,069.82	70.0327	2,069.82	73.3222	2,069.82	74.1522	2,069.82	70.5884	2,069.82	66.093	2,069.82	68.581	2,069.82	74.7238	2,069.82	69.0542	2,069.82	72.4643
2,143.07	90.5817	2,143.07	88.3603	2,143.07	91.604	2,143.07	84.4962	2,143.07	90.9112	2,143.07	84.3338	2,143.07	88.3718	2,143.07	85.6147	2,143.07	86.4379	2,143.07	84.507	2,143.07	87.1499	2,143.07	82.0563	2,143.07	88.0419	2,143.07	81.2869	2,143.07	87.8474	2,143.07	78.3346	2,143.07	88.1167	2,143.07	76.7513	2,143.07	76.7582	2,143.07	72.8152	2,143.07	74.3523	2,143.07	74.6884	2,143.07	75.5729	2,143.07	71.3381	2,143.07	70.249	2,143.07	60.8074	2,143.07	71.8645	2,143.07	65.1383	2,143.07	66.1042	2,143.07	64.4034	2,143.07	71.8252	2,143.07	75.34	2,143.07	69.6704	2,143.07	67.1024	2,143.07	75.8971	2,143.07	75.2408
2,219.24	89.0157	2,219.24	87.5975	2,219.24	89.1709	2,219.24	84.6242	2,219.24	88.7714	2,219.24	83.5234	2,219.24	86.8036	2,219.24	84.6924	2,219.24	86.2528	2,219.24	84.8235	2,219.24	85.7417	2,219.24	83.8698	2,219.24	88.2691	2,219.24	78.3246	2,219.24	89.4891	2,219.24	76.0073	2,219.24	83.6522	2,219.24	75.3396	2,219.24	82.7175	2,219.24	75.5591	2,219.24	74.2666	2,219.24	72.926	2,219.24	72.9343	2,219.24	66.0207	2,219.24	65.971	2,219.24	69.6932	2,219.24	69.0466	2,219.24	73.5273	2,219.24	68.5275	2,219.24	63.6748	2,219.24	72.1279	2,219.24	68.8128	2,219.24	61.6566	2,219.24	68.5719	2,219.24	72.2973	2,219.24	71.7098
2,296.88	88.1181	2,296.88	86.1054	2,296.88	87.9068	2,296.88	83.5348	2,296.88	86.6683	2,296.88	82.3008	2,296.88	86.4641	2,296.88	84.0901	2,296.88	86.25	2,296.88	84.332	2,296.88	85.3121	2,296.88	81.4418	2,296.88	86.3287	2,296.88	79.1372	2,296.88	84.9222	2,296.88	79.1006	2,296.88	88.0421	2,296.88	79.8193	2,296.88	74.4276	2,296.88	73.8664	2,296.88	65.2712	2,296.88	53.1133	2,296.88	70.0784	2,296.88	65.948	2,296.88	64.3193	2,296.88	69.4681	2,296.88	72.0708	2,296.88	65.2738	2,296.88	68.3501	2,296.88	72.1864	2,296.88	64.6115	2,296.88	68.1357	2,296.88	68.6582	2,296.88	71.4003	2,296.88	68.4688	2,296.88	73.0041
2,378.91	89.0748	2,378.91	86.7239	2,378.91	87.9921	2,378.91	82.244	2,378.91	83.7387	2,378.91	81.3706	2,378.91	83.5821	2,378.91	82.5863	2,378.91	86.3212	2,378.91	82.6793	2,378.91	85.5863	2,378.91	81.81	2,378.91	84.1163	2,378.91	80.8827	2,378.91	88.0256	2,378.91	74.9086	2,378.91	84.4457	2,378.91	72.1998	2,378.91	82.5391	2,378.91	71.1529	2,378.91	67.0617	2,378.91	73.3043	2,378.91	65.7618	2,378.91	73.3767	2,378.91	71.7602	2,378.91	65.9419	2,378.91	66.0832	2,378.91	64.6426	2,378.91	68.2943	2,378.91	70.9506	2,378.91	67.1343	2,378.91	69.2993	2,378.91	61.174	2,378.91	69.3236	2,378.91	65.1296	2,378.91	73.755
2,462.4	90.4359	2,462.4	87.6921	2,462.4	88.9204	2,462.4	81.2775	2,462.4	84.9505	2,462.4	80.9257	2,462.4	82.4335	2,462.4	82.1682	2,462.4	83.919	2,462.4	81.68	2,462.4	85.5044	2,462.4	82.3205	2,462.4	84.5793	2,462.4	75.8346	2,462.4	84.2378	2,462.4	78.1505	2,462.4	85.8972	2,462.4	78.4209	2,462.4	73.4038	2,462.4	74.4169	2,462.4	70.3075	2,462.4	65.7817	2,462.4	67.914	2,462.4	65.2309	2,462.4	67.6146	2,462.4	69.0875	2,462.4	70.1315	2,462.4	59.1099	2,462.4	63.6494	2,462.4	61.4084	2,462.4	62.9022	2,462.4	63.0819	2,462.4	55.5435	2,462.4	59.6268	2,462.4	68.9431	2,462.4	67.8789
2,548.83	89.5793	2,548.83	88.4794	2,548.83	87.8487	2,548.83	81.2361	2,548.83	84.5833	2,548.83	76.9872	2,548.83	82.8716	2,548.83	83.1866	2,548.83	83.8148	2,548.83	83.0377	2,548.83	84.0482	2,548.83	79.7075	2,548.83	82.9751	2,548.83	80.3464	2,548.83	84.0143	2,548.83	78.2786	2,548.83	80.9479	2,548.83	72.0724	2,548.83	79.4033	2,548.83	74.5362	2,548.83	71.5676	2,548.83	73.7383	2,548.83	65.0252	2,548.83	65.5971	2,548.83	70.7451	2,548.83	57.4646	2,548.83	57.8007	2,548.83	62.3935	2,548.83	62.2531	2,548.83	65.5358	2,548.83	61.2497	2,548.83	61.8962	2,548.83	48.4377	2,548.83	61.7907	2,548.83	67.3853	2,548.83	67.8236
2,639.65	87.6671	2,639.65	87.0385	2,639.65	85.7376	2,639.65	81.506	2,639.65	83.1536	2,639.65	77.522	2,639.65	82.0115	2,639.65	82.5507	2,639.65	83.0772	2,639.65	82.4087	2,639.65	82.2239	2,639.65	82.564	2,639.65	84.3506	2,639.65	80.3625	2,639.65	81.2118	2,639.65	75.178	2,639.65	80.088	2,639.65	75.8026	2,639.65	68.0216	2,639.65	70.9008	2,639.65	65.1801	2,639.65	68.4795	2,639.65	61.5905	2,639.65	65.5161	2,639.65	64.6999	2,639.65	66.2148	2,639.65	69.9495	2,639.65	57.983	2,639.65	60.578	2,639.65	63.4097	2,639.65	44.1475	2,639.65	63.8184	2,639.65	59.5654	2,639.65	59.7924	2,639.65	67.1509	2,639.65	67.9733
2,731.93	87.1178	2,731.93	86.0167	2,731.93	84.0469	2,731.93	79.0238	2,731.93	77.5602	2,731.93	75.6956	2,731.93	80.5833	2,731.93	83.0438	2,731.93	82.3299	2,731.93	84.3909	2,731.93	81.9426	2,731.93	82.2987	2,731.93	82.7832	2,731.93	77.185	2,731.93	80.5905	2,731.93	78.7977	2,731.93	77.1778	2,731.93	72.9633	2,731.93	72.8429	2,731.93	73.6133	2,731.93	65.4959	2,731.93	67.1503	2,731.93	60.5787	2,731.93	65.721	2,731.93	64.0714	2,731.93	61.9435	2,731.93	62.2556	2,731.93	54.2245	2,731.93	64.6513	2,731.93	62.59	2,731.93	49.8561	2,731.93	64.6923	2,731.93	54.9951	2,731.93	62.4854	2,731.93	64.3822	2,731.93	69.9037
2,828.61	88.6096	2,828.61	87.1352	2,828.61	85.4378	2,828.61	80.7315	2,828.61	78.8542	2,828.61	75.3912	2,828.61	79.4956	2,828.61	83.2976	2,828.61	83.0998	2,828.61	83.8175	2,828.61	81.5853	2,828.61	81.0573	2,828.61	80.223	2,828.61	80.0488	2,828.61	78.9337	2,828.61	75.1678	2,828.61	76.7436	2,828.61	71.3149	2,828.61	66.2889	2,828.61	72.7199	2,828.61	50.0135	2,828.61	70.5054	2,828.61	51.9886	2,828.61	62.7152	2,828.61	54.9997	2,828.61	48.7562	2,828.61	64.659	2,828.61	61.338	2,828.61	60.8368	2,828.61	61.9078	2,828.61	56.8145	2,828.61	56.6748	2,828.61	56.5658	2,828.61	43.9049	2,828.61	66.0768	2,828.61	65.6244
2,928.22	89.1738	2,928.22	88.4789	2,928.22	83.4446	2,928.22	80.5204	2,928.22	77.1917	2,928.22	76.7446	2,928.22	83.0212	2,928.22	83.1284	2,928.22	84.253	2,928.22	83.0408	2,928.22	81.2971	2,928.22	81.5582	2,928.22	78.4877	2,928.22	76.2438	2,928.22	76.2077	2,928.22	73.338	2,928.22	76.7446	2,928.22	73.2993	2,928.22	72.1498	2,928.22	67.5749	2,928.22	60.957	2,928.22	68.3175	2,928.22	60.2899	2,928.22	60.0107	2,928.22	57.8701	2,928.22	62.6238	2,928.22	56.2201	2,928.22	59.1799	2,928.22	63.2754	2,928.22	59.9256	2,928.22	56.2421	2,928.22	61.841	2,928.22	58.4787	2,928.22	60.2934	2,928.22	67.9625	2,928.22	62.2009
3,030.76	89.798	3,030.76	89.5371	3,030.76	85.0271	3,030.76	83.8196	3,030.76	80.0836	3,030.76	73.3243	3,030.76	85.3783	3,030.76	81.4788	3,030.76	85.9233	3,030.76	81.835	3,030.76	82.9025	3,030.76	79.2656	3,030.76	76.4523	3,030.76	75.1899	3,030.76	76.8296	3,030.76	75.7528	3,030.76	77.4745	3,030.76	69.0938	3,030.76	69.5888	3,030.76	74.1669	3,030.76	62.9638	3,030.76	70.7755	3,030.76	60.2882	3,030.76	61.2118	3,030.76	62.9428	3,030.76	62.9427	3,030.76	61.7603	3,030.76	56.158	3,030.76	63.0333	3,030.76	61.4372	3,030.76	59.3171	3,030.76	60.2523	3,030.76	63.6322	3,030.76	61.9765	3,030.76	67.6725	3,030.76	63.7438
3,137.7	90.1804	3,137.7	90.9491	3,137.7	85.3251	3,137.7	83.053	3,137.7	82.3273	3,137.7	76.2552	3,137.7	86.4593	3,137.7	83.8171	3,137.7	85.6286	3,137.7	81.5768	3,137.7	81.909	3,137.7	78.1363	3,137.7	71.6523	3,137.7	76.9877	3,137.7	77.6421	3,137.7	71.1257	3,137.7	80.3965	3,137.7	77.377	3,137.7	65.9797	3,137.7	69.6557	3,137.7	59.5558	3,137.7	67.5861	3,137.7	57.8227	3,137.7	63.9222	3,137.7	65.6475	3,137.7	58.0466	3,137.7	63.9309	3,137.7	52.933	3,137.7	62.5836	3,137.7	48.8776	3,137.7	64.0291	3,137.7	63.9009	3,137.7	67.1834	3,137.7	65.6693	3,137.7	70.9757	3,137.7	59.4091
3,249.02	92.4248	3,249.02	90.9046	3,249.02	86.509	3,249.02	83.9651	3,249.02	84.3694	3,249.02	74.6818	3,249.02	89.0024	3,249.02	82.9809	3,249.02	86.5615	3,249.02	81.0646	3,249.02	79.7772	3,249.02	79.3273	3,249.02	70.8333	3,249.02	78.1317	3,249.02	80.9633	3,249.02	79.4096	3,249.02	82.6597	3,249.02	74.2595	3,249.02	72.644	3,249.02	72.1516	3,249.02	60.6972	3,249.02	72.0697	3,249.02	63.5735	3,249.02	65.3563	3,249.02	63.8309	3,249.02	64.9707	3,249.02	62.0703	3,249.02	52.868	3,249.02	56.1545	3,249.02	61.6678	3,249.02	68.3441	3,249.02	58.8822	3,249.02	67.2574	3,249.02	66.6526	3,249.02	69.1791	3,249.02	62.1031
3,363.28	92.5232	3,363.28	91.3666	3,363.28	87.5896	3,363.28	83.026	3,363.28	84.9506	3,363.28	78.1018	3,363.28	90.2371	3,363.28	83.5532	3,363.28	88.2157	3,363.28	83.8825	3,363.28	80.5731	3,363.28	81.1882	3,363.28	78.1169	3,363.28	82.0374	3,363.28	83.6769	3,363.28	73.5943	3,363.28	85.6586	3,363.28	78.3871	3,363.28	79.5315	3,363.28	68.3045	3,363.28	63.1349	3,363.28	71.2032	3,363.28	63.3698	3,363.28	63.9725	3,363.28	66.4536	3,363.28	53.5449	3,363.28	64.3973	3,363.28	53.7547	3,363.28	64.2333	3,363.28	63.075	3,363.28	68.3096	3,363.28	63.9912	3,363.28	69.3997	3,363.28	64.9127	3,363.28	70.1344	3,363.28	65.559
3,481.93	91.5921	3,481.93	90.8932	3,481.93	86.2139	3,481.93	80.1243	3,481.93	81.8975	3,481.93	82.9468	3,481.93	89.4358	3,481.93	85.7588	3,481.93	88.9411	3,481.93	85.0884	3,481.93	77.1584	3,481.93	83.5225	3,481.93	81.5095	3,481.93	80.6089	3,481.93	87.3472	3,481.93	81.3254	3,481.93	85.415	3,481.93	78.7162	3,481.93	78.5015	3,481.93	75.7952	3,481.93	67.254	3,481.93	65.8341	3,481.93	68.838	3,481.93	65.0295	3,481.93	63.0803	3,481.93	58.9823	3,481.93	63.5309	3,481.93	63.4391	3,481.93	66.6352	3,481.93	58.5134	3,481.93	68.6619	3,481.93	58.1022	3,481.93	63.396	3,481.93	65.9914	3,481.93	67.3786	3,481.93	68.901
3,604.98	91.3642	3,604.98	89.0006	3,604.98	85.0592	3,604.98	82.3147	3,604.98	81.3399	3,604.98	82.0169	3,604.98	89.235	3,604.98	84.6717	3,604.98	89.143	3,604.98	86.7557	3,604.98	79.3332	3,604.98	83.3533	3,604.98	82.2348	3,604.98	82.819	3,604.98	86.5142	3,604.98	75.358	3,604.98	81.1074	3,604.98	80.0302	3,604.98	78.2385	3,604.98	58.2368	3,604.98	64.7777	3,604.98	73.2972	3,604.98	66.4483	3,604.98	59.338	3,604.98	66.7669	3,604.98	60.8691	3,604.98	66.2971	3,604.98	61.6978	3,604.98	65.4264	3,604.98	64.0961	3,604.98	66.6199	3,604.98	64.3108	3,604.98	60.5488	3,604.98	53.8435	3,604.98	67.1664	3,604.98	67.0644
3,732.42	90.7581	3,732.42	89.9182	3,732.42	82.5277	3,732.42	84.7988	3,732.42	83.5679	3,732.42	84.82	3,732.42	88.6821	3,732.42	86.7351	3,732.42	87.1968	3,732.42	85.7617	3,732.42	80.4855	3,732.42	83.8877	3,732.42	83.0056	3,732.42	79.5915	3,732.42	85.8144	3,732.42	79.9459	3,732.42	78.9381	3,732.42	75.1339	3,732.42	71.1245	3,732.42	76.125	3,732.42	57.8331	3,732.42	67.7846	3,732.42	68.1597	3,732.42	68.5225	3,732.42	64.9708	3,732.42	52.3813	3,732.42	69.9063	3,732.42	59.5872	3,732.42	63.8901	3,732.42	66.2901	3,732.42	66.0881	3,732.42	64.4313	3,732.42	60.1233	3,732.42	65.9815	3,732.42	68.5114	3,732.42	66.6041
3,864.26	89.0365	3,864.26	89.971	3,864.26	78.4823	3,864.26	84.5941	3,864.26	88.557	3,864.26	84.297	3,864.26	89.4028	3,864.26	86.2594	3,864.26	85.8175	3,864.26	85.0975	3,864.26	81.3606	3,864.26	81.8392	3,864.26	82.8014	3,864.26	81.8187	3,864.26	83.2099	3,864.26	75.6744	3,864.26	73.0888	3,864.26	78.9657	3,864.26	74.6357	3,864.26	73.8849	3,864.26	61.8473	3,864.26	69.2546	3,864.26	64.778	3,864.26	64.1533	3,864.26	68.562	3,864.26	60.0713	3,864.26	68.1412	3,864.26	65.2345	3,864.26	66.2054	3,864.26	56.3298	3,864.26	64.0342	3,864.26	54.4107	3,864.26	56.5106	3,864.26	56.9077	3,864.26	69.2358	3,864.26	64.7783
4,000.49	89.1021	4,000.49	91.3427	4,000.49	72.6433	4,000.49	86.0737	4,000.49	89.0705	4,000.49	84.7555	4,000.49	90.4122	4,000.49	87.0569	4,000.49	83.6794	4,000.49	84.831	4,000.49	83.4405	4,000.49	83.0809	4,000.49	82.6741	4,000.49	80.9516	4,000.49	81.3781	4,000.49	80.1384	4,000.49	77.78	4,000.49	74.052	4,000.49	74.8287	4,000.49	73.8221	4,000.49	53.9058	4,000.49	65.8422	4,000.49	58.3771	4,000.49	63.5681	4,000.49	68.1318	4,000.49	56.2172	4,000.49	67.5182	4,000.49	64.3496	4,000.49	69.1513	4,000.49	66.3107	4,000.49	63.243	4,000.49	66.6794	4,000.49	52.9258	4,000.49	64.1465	4,000.49	71.8703	4,000.49	57.4923
4,141.11	91.1518	4,141.11	92.4286	4,141.11	75.7456	4,141.11	86.4469	4,141.11	90.8302	4,141.11	85.2874	4,141.11	89.8915	4,141.11	85.471	4,141.11	84.0507	4,141.11	85.9862	4,141.11	83.4147	4,141.11	83.5607	4,141.11	82.2074	4,141.11	82.2024	4,141.11	77.6076	4,141.11	79.4819	4,141.11	76.7758	4,141.11	81.3126	4,141.11	75.504	4,141.11	70.8549	4,141.11	60.6185	4,141.11	70.0861	4,141.11	53.635	4,141.11	61.6063	4,141.11	68.5047	4,141.11	62.2283	4,141.11	67.0893	4,141.11	60.9564	4,141.11	64.9222	4,141.11	61.7406	4,141.11	64.8611	4,141.11	55.8222	4,141.11	53.1746	4,141.11	64.0273	4,141.11	69.2	4,141.11	65.7965
4,287.6	92.2769	4,287.6	92.6576	4,287.6	71.888	4,287.6	84.2946	4,287.6	91.4425	4,287.6	85.4122	4,287.6	89.2875	4,287.6	86.7383	4,287.6	85.0701	4,287.6	85.9936	4,287.6	83.224	4,287.6	84.5655	4,287.6	80.2267	4,287.6	83.1058	4,287.6	72.5749	4,287.6	78.0652	4,287.6	77.5862	4,287.6	76.8375	4,287.6	72.6909	4,287.6	66.9528	4,287.6	61.7285	4,287.6	70.1199	4,287.6	58.6489	4,287.6	63.449	4,287.6	64.1485	4,287.6	63.236	4,287.6	67.5378	4,287.6	58.5514	4,287.6	66.2021	4,287.6	64.1174	4,287.6	63.6145	4,287.6	64.8955	4,287.6	62.1249	4,287.6	67.7179	4,287.6	70.3958	4,287.6	64.6639
4,438.48	92.4483	4,438.48	91.4919	4,438.48	78.0473	4,438.48	83.9263	4,438.48	91.5384	4,438.48	85.3674	4,438.48	88.7706	4,438.48	85.9838	4,438.48	84.676	4,438.48	86.6175	4,438.48	84.5493	4,438.48	83.9407	4,438.48	80.5193	4,438.48	81.7389	4,438.48	76.7289	4,438.48	78.8671	4,438.48	76.3469	4,438.48	75.8449	4,438.48	69.1702	4,438.48	73.7782	4,438.48	62.5658	4,438.48	62.0112	4,438.48	58.4836	4,438.48	64.4273	4,438.48	63.6659	4,438.48	59.9667	4,438.48	67.23	4,438.48	63.9672	4,438.48	63.6501	4,438.48	61.8121	4,438.48	62.2252	4,438.48	58.9199	4,438.48	54.3687	4,438.48	61.2285	4,438.48	70.2255	4,438.48	59.8106
4,595.21	91.7607	4,595.21	91.1958	4,595.21	82.3668	4,595.21	83.0683	4,595.21	90.9137	4,595.21	86.3492	4,595.21	87.5995	4,595.21	86.4658	4,595.21	85.201	4,595.21	85.361	4,595.21	84.1642	4,595.21	81.6007	4,595.21	79.9189	4,595.21	78.6422	4,595.21	76.7382	4,595.21	76.4324	4,595.21	76.56	4,595.21	75.1166	4,595.21	72.0901	4,595.21	69.7894	4,595.21	64.7293	4,595.21	62.6054	4,595.21	62.7699	4,595.21	51.6333	4,595.21	54.0046	4,595.21	58.8944	4,595.21	63.8399	4,595.21	64.1795	4,595.21	64.7896	4,595.21	56.9442	4,595.21	62.1508	4,595.21	59.311	4,595.21	58.9815	4,595.21	50.0117	4,595.21	65.5141	4,595.21	62.4988
4,756.35	90.8381	4,756.35	90.8654	4,756.35	84.8211	4,756.35	85.1464	4,756.35	91.2264	4,756.35	87.1987	4,756.35	86.3198	4,756.35	86.7687	4,756.35	85.5745	4,756.35	83.7079	4,756.35	83.8879	4,756.35	79.9367	4,756.35	74.6576	4,756.35	78.8942	4,756.35	78.0333	4,756.35	73.8937	4,756.35	79.5683	4,756.35	73.4655	4,756.35	71.6685	4,756.35	71.699	4,756.35	67.4178	4,756.35	54.9425	4,756.35	63.4506	4,756.35	59.99	4,756.35	61.6815	4,756.35	62.2481	4,756.35	64.7829	4,756.35	42.0068	4,756.35	60.5006	4,756.35	57.3715	4,756.35	62.0042	4,756.35	57.3222	4,756.35	55.4944	4,756.35	64.943	4,756.35	59.7997	4,756.35	62.6436
4,924.8	90.5757	4,924.8	90.9137	4,924.8	87.1938	4,924.8	85.9121	4,924.8	91.6065	4,924.8	87.0655	4,924.8	83.8173	4,924.8	84.4196	4,924.8	86.565	4,924.8	83.7756	4,924.8	84.0014	4,924.8	82.2651	4,924.8	78.5476	4,924.8	80.4385	4,924.8	80.1545	4,924.8	77.137	4,924.8	81.8412	4,924.8	74.1076	4,924.8	80.4067	4,924.8	71.0939	4,924.8	43.1419	4,924.8	65.6713	4,924.8	62.7075	4,924.8	51.5464	4,924.8	59.4439	4,924.8	60.2317	4,924.8	59.7791	4,924.8	63.7862	4,924.8	59.7053	4,924.8	42.0481	4,924.8	64.9939	4,924.8	60.1532	4,924.8	51.2245	4,924.8	54.5377	4,924.8	67.2167	4,924.8	57.5107
5,097.66	89.8209	5,097.66	90.9074	5,097.66	86.675	5,097.66	85.8298	5,097.66	92.4213	5,097.66	86.8942	5,097.66	84.5779	5,097.66	85.091	5,097.66	86.7955	5,097.66	83.522	5,097.66	83.1285	5,097.66	82.6307	5,097.66	76.8107	5,097.66	77.562	5,097.66	79.9367	5,097.66	73.4381	5,097.66	84.259	5,097.66	71.7344	5,097.66	81.9508	5,097.66	67.4826	5,097.66	66.3739	5,097.66	57.7645	5,097.66	60.7934	5,097.66	59.2302	5,097.66	55.5433	5,097.66	61.7328	5,097.66	62.5668	5,097.66	57.4248	5,097.66	61.8618	5,097.66	55.3132	5,097.66	63.0821	5,097.66	61.6914	5,097.66	48.2721	5,097.66	58.255	5,097.66	64.4547	5,097.66	61.2497
5,277.83	90.3477	5,277.83	91.153	5,277.83	86.6204	5,277.83	85.7059	5,277.83	91.7117	5,277.83	86.7413	5,277.83	84.8551	5,277.83	84.8705	5,277.83	86.4015	5,277.83	84.0456	5,277.83	83.0993	5,277.83	78.5939	5,277.83	78.0095	5,277.83	73.2384	5,277.83	83.2114	5,277.83	71.1873	5,277.83	84.6444	5,277.83	68.1747	5,277.83	80.9993	5,277.83	64.6928	5,277.83	67.1933	5,277.83	65.3964	5,277.83	59.4508	5,277.83	60.9172	5,277.83	54.1606	5,277.83	56.0636	5,277.83	62.3648	5,277.83	62.1787	5,277.83	59.8925	5,277.83	52.1287	5,277.83	62.2765	5,277.83	58.0337	5,277.83	53.5968	5,277.83	54.1625	5,277.83	62.5726	5,277.83	55.2323
5,463.87	90.1732	5,463.87	90.5327	5,463.87	86.4413	5,463.87	86.3437	5,463.87	90.8339	5,463.87	87.4745	5,463.87	85.6346	5,463.87	84.8306	5,463.87	86.7967	5,463.87	83.2193	5,463.87	82.1352	5,463.87	77.8662	5,463.87	79.8086	5,463.87	75.1126	5,463.87	83.7333	5,463.87	73.3671	5,463.87	82.9048	5,463.87	71.4842	5,463.87	79.275	5,463.87	72.2707	5,463.87	57.5167	5,463.87	59.9125	5,463.87	53.1513	5,463.87	61.9058	5,463.87	63.3683	5,463.87	42.2991	5,463.87	63.7001	5,463.87	61.45	5,463.87	52.6402	5,463.87	61.2374	5,463.87	65.4502	5,463.87	65.4229	5,463.87	46.1921	5,463.87	55.2153	5,463.87	61.0642	5,463.87	58.7462
5,657.23	89.7938	5,657.23	90.3482	5,657.23	88.2945	5,657.23	86.7901	5,657.23	90.9352	5,657.23	87.6607	5,657.23	84.9704	5,657.23	85.7143	5,657.23	87.1838	5,657.23	82.5873	5,657.23	81.0467	5,657.23	79.284	5,657.23	79.7867	5,657.23	77.0103	5,657.23	83.1375	5,657.23	75.9382	5,657.23	80.3206	5,657.23	73.3421	5,657.23	72.7734	5,657.23	67.8921	5,657.23	65.4785	5,657.23	62.1286	5,657.23	58.6842	5,657.23	62.1249	5,657.23	53.032	5,657.23	57.3726	5,657.23	67.3548	5,657.23	64.1417	5,657.23	53.7276	5,657.23	64.6185	5,657.23	62.2801	5,657.23	65.7751	5,657.23	51.9058	5,657.23	59.2703	5,657.23	61.6394	5,657.23	57.6846
5,856.45	89.0624	5,856.45	90.797	5,856.45	88.7498	5,856.45	86.7673	5,856.45	90.2125	5,856.45	87.744	5,856.45	86.3913	5,856.45	85.4696	5,856.45	86.5324	5,856.45	83.2721	5,856.45	83.8575	5,856.45	80.4993	5,856.45	79.1673	5,856.45	77.8597	5,856.45	80.9221	5,856.45	73.9378	5,856.45	75.8697	5,856.45	70.8671	5,856.45	65.6959	5,856.45	69.3471	5,856.45	63.802	5,856.45	66.2945	5,856.45	58.9984	5,856.45	62.1482	5,856.45	57.1449	5,856.45	61.8172	5,856.45	57.964	5,856.45	63.0516	5,856.45	61.3364	5,856.45	60.2145	5,856.45	62.3609	5,856.45	60.3244	5,856.45	57.0933	5,856.45	54.0967	5,856.45	62.1663	5,856.45	55.2243
6,062.99	89.3345	6,062.99	91.2954	6,062.99	89.4153	6,062.99	86.1215	6,062.99	88.9531	6,062.99	87.9449	6,062.99	87.3015	6,062.99	85.5661	6,062.99	85.6658	6,062.99	83.8638	6,062.99	84.752	6,062.99	79.9035	6,062.99	78.4753	6,062.99	75.2231	6,062.99	79.2844	6,062.99	75.5513	6,062.99	76.0556	6,062.99	67.9958	6,062.99	75.475	6,062.99	68.7882	6,062.99	65.9859	6,062.99	67.6733	6,062.99	56.8569	6,062.99	62.7128	6,062.99	57.9942	6,062.99	62.6392	6,062.99	64.2313	6,062.99	62.4013	6,062.99	54.2449	6,062.99	54.0416	6,062.99	62.6558	6,062.99	63.8948	6,062.99	55.6169	6,062.99	60.7572	6,062.99	57.6495	6,062.99	53.8216
6,276.86	90.0595	6,276.86	90.5114	6,276.86	89.2251	6,276.86	86.9849	6,276.86	88.9996	6,276.86	87.6116	6,276.86	87.032	6,276.86	86.4689	6,276.86	85.85	6,276.86	83.4383	6,276.86	85.1358	6,276.86	78.921	6,276.86	81.7892	6,276.86	77.1604	6,276.86	76.9473	6,276.86	76.3393	6,276.86	77.4234	6,276.86	71.0338	6,276.86	75.7192	6,276.86	70.1593	6,276.86	64.1186	6,276.86	61.2478	6,276.86	55.5592	6,276.86	62.2567	6,276.86	64.7743	6,276.86	63.2777	6,276.86	65.7076	6,276.86	63.9602	6,276.86	58.7505	6,276.86	62.5833	6,276.86	59.9836	6,276.86	68.4834	6,276.86	58.2752	6,276.86	61.8537	6,276.86	52.2732	6,276.86	55.538
6,498.05	89.8638	6,498.05	90.0326	6,498.05	88.4326	6,498.05	87.4019	6,498.05	87.854	6,498.05	86.695	6,498.05	86.8627	6,498.05	86.4991	6,498.05	85.7277	6,498.05	82.2519	6,498.05	85.7239	6,498.05	80.0937	6,498.05	81.6347	6,498.05	77.0652	6,498.05	76.5467	6,498.05	75.1148	6,498.05	78.7976	6,498.05	68.0902	6,498.05	75.0783	6,498.05	67.8216	6,498.05	65.4361	6,498.05	62.0733	6,498.05	49.1909	6,498.05	61.5098	6,498.05	63.4323	6,498.05	67.3138	6,498.05	66.8227	6,498.05	64.0239	6,498.05	62.1275	6,498.05	63.2632	6,498.05	56.1668	6,498.05	66.0177	6,498.05	60.3351	6,498.05	63.0163	6,498.05	51.8962	6,498.05	57.599
6,726.56	90.1079	6,726.56	89.516	6,726.56	88.8044	6,726.56	87.5766	6,726.56	87.3147	6,726.56	87.0126	6,726.56	87.1943	6,726.56	85.2596	6,726.56	85.2826	6,726.56	82.4294	6,726.56	86.0748	6,726.56	80.1504	6,726.56	81.0057	6,726.56	77.0933	6,726.56	78.065	6,726.56	76.0041	6,726.56	78.6637	6,726.56	69.4048	6,726.56	75.7164	6,726.56	66.3773	6,726.56	57.138	6,726.56	63.1148	6,726.56	58.3527	6,726.56	57.8388	6,726.56	55.2596	6,726.56	68.7322	6,726.56	66.2871	6,726.56	63.2539	6,726.56	63.0385	6,726.56	62.6055	6,726.56	32.2494	6,726.56	60.5106	6,726.56	62.9547	6,726.56	62.7916	6,726.56	54.2509	6,726.56	58.7999
6,963.87	90.3262	6,963.87	88.0878	6,963.87	88.1995	6,963.87	87.5105	6,963.87	88.4429	6,963.87	86.1421	6,963.87	86.2375	6,963.87	84.247	6,963.87	85.6519	6,963.87	82.2716	6,963.87	85.6129	6,963.87	80.0853	6,963.87	81.7372	6,963.87	74.0659	6,963.87	79.7615	6,963.87	72.3087	6,963.87	76.6195	6,963.87	68.4279	6,963.87	69.778	6,963.87	64.7264	6,963.87	62.5644	6,963.87	62.473	6,963.87	63.2615	6,963.87	53.3599	6,963.87	60.951	6,963.87	69.1559	6,963.87	65.1126	6,963.87	62.4416	6,963.87	58.7134	6,963.87	61.9339	6,963.87	53.4894	6,963.87	62.3136	6,963.87	62.8593	6,963.87	63.1355	6,963.87	52.2352	6,963.87	59.9647
7,209.96	90.0973	7,209.96	88.2896	7,209.96	88.0603	7,209.96	87.7929	7,209.96	87.9923	7,209.96	85.577	7,209.96	86.3227	7,209.96	83.9408	7,209.96	85.9543	7,209.96	81.6637	7,209.96	84.858	7,209.96	79.6639	7,209.96	80.8524	7,209.96	74.9897	7,209.96	77.4256	7,209.96	74.2733	7,209.96	73.0788	7,209.96	67.3804	7,209.96	72.1986	7,209.96	66.7032	7,209.96	58.7598	7,209.96	59.743	7,209.96	62.1895	7,209.96	48.2127	7,209.96	55.3669	7,209.96	68.8528	7,209.96	57.9424	7,209.96	61.1019	7,209.96	62.2017	7,209.96	57.2948	7,209.96	56.7639	7,209.96	63.6432	7,209.96	60.8466	7,209.96	63.4369	7,209.96	54.856	7,209.96	58.7697
7,464.84	89.9141	7,464.84	88.0535	7,464.84	88.5867	7,464.84	87.6405	7,464.84	87.9959	7,464.84	85.99	7,464.84	86.0566	7,464.84	83.7397	7,464.84	85.2413	7,464.84	80.7667	7,464.84	83.5673	7,464.84	80.7636	7,464.84	79.0775	7,464.84	75.5854	7,464.84	75.6501	7,464.84	72.6799	7,464.84	75.2654	7,464.84	68.3428	7,464.84	71.049	7,464.84	65.7724	7,464.84	64.2896	7,464.84	58.6396	7,464.84	63.6637	7,464.84	55.1898	7,464.84	60.1103	7,464.84	66.4582	7,464.84	57.4212	7,464.84	62.2352	7,464.84	64.5989	7,464.84	57.9225	7,464.84	56.851	7,464.84	63.2674	7,464.84	60.2588	7,464.84	65.0638	7,464.84	58.0068	7,464.84	54.3874
7,727.05	90.7157	7,727.05	88.2417	7,727.05	88.104	7,727.05	88.5028	7,727.05	88.1585	7,727.05	85.8864	7,727.05	86.1796	7,727.05	82.724	7,727.05	85.2468	7,727.05	82.2696	7,727.05	83.1707	7,727.05	79.6306	7,727.05	78.6148	7,727.05	73.3336	7,727.05	73.384	7,727.05	69.6502	7,727.05	77.2184	7,727.05	66.1136	7,727.05	69.0114	7,727.05	63.4893	7,727.05	62.4343	7,727.05	60.0843	7,727.05	64.493	7,727.05	58.5979	7,727.05	60.2354	7,727.05	66.3642	7,727.05	53.7635	7,727.05	64.277	7,727.05	64.9039	7,727.05	60.1058	7,727.05	55.745	7,727.05	63.7129	7,727.05	60.2812	7,727.05	62.8625	7,727.05	58.6027	7,727.05	54.0304
7,999.51	90.6292	7,999.51	88.2971	7,999.51	89.0884	7,999.51	88.9084	7,999.51	88.2062	7,999.51	85.2578	7,999.51	86.4197	7,999.51	83.7342	7,999.51	85.0985	7,999.51	81.8829	7,999.51	82.0163	7,999.51	78.6578	7,999.51	80.9377	7,999.51	74.1955	7,999.51	75.312	7,999.51	70.6309	7,999.51	77.3342	7,999.51	68.2135	7,999.51	70.8029	7,999.51	63.8083	7,999.51	55.7561	7,999.51	62.6144	7,999.51	62.8063	7,999.51	60.2944	7,999.51	55.2439	7,999.51	68.1722	7,999.51	61.2377	7,999.51	64.2003	7,999.51	64.5595	7,999.51	61.4077	7,999.51	49.0743	7,999.51	62.0506	7,999.51	60.9446	7,999.51	63.5822	7,999.51	55.8877	7,999.51	53.6395
8,282.23	90.5024	8,282.23	89.432	8,282.23	89.1789	8,282.23	88.998	8,282.23	88.7335	8,282.23	86.11	8,282.23	87.0808	8,282.23	83.6369	8,282.23	84.4767	8,282.23	81.3527	8,282.23	81.4176	8,282.23	78.3981	8,282.23	80.4343	8,282.23	73.0741	8,282.23	76.1109	8,282.23	70.7679	8,282.23	78.7948	8,282.23	65.0222	8,282.23	75.5695	8,282.23	65.7411	8,282.23	59.0304	8,282.23	59.491	8,282.23	60.6349	8,282.23	51.204	8,282.23	54.6654	8,282.23	61.7629	8,282.23	53.3816	8,282.23	66.5539	8,282.23	62.8898	8,282.23	61.6498	8,282.23	53.3175	8,282.23	60.8436	8,282.23	58.5809	8,282.23	63.3896	8,282.23	55.6401	8,282.23	49.0289
8,573.73	90.8194	8,573.73	89.8186	8,573.73	89.9438	8,573.73	88.8474	8,573.73	88.3419	8,573.73	86.4195	8,573.73	87.8532	8,573.73	83.7508	8,573.73	83.9461	8,573.73	80.74	8,573.73	81.4915	8,573.73	78.9319	8,573.73	81.1728	8,573.73	73.6895	8,573.73	76.6549	8,573.73	69.7623	8,573.73	76.9776	8,573.73	67.5302	8,573.73	72.9543	8,573.73	64.3483	8,573.73	57.7603	8,573.73	63.2288	8,573.73	57.3529	8,573.73	62.5434	8,573.73	45.1022	8,573.73	66.1663	8,573.73	57.7511	8,573.73	65.7715	8,573.73	62.8802	8,573.73	61.6236	8,573.73	49.1264	8,573.73	61.7512	8,573.73	58.1114	8,573.73	63.1814	8,573.73	57.0347	8,573.73	42.9548
8,876.95	90.4829	8,876.95	90.1009	8,876.95	90.0717	8,876.95	89.0132	8,876.95	89.1369	8,876.95	86.3288	8,876.95	87.5954	8,876.95	83.8599	8,876.95	84.1395	8,876.95	79.9546	8,876.95	80.6442	8,876.95	77.9495	8,876.95	81.0126	8,876.95	72.679	8,876.95	73.6784	8,876.95	68.8988	8,876.95	73.7013	8,876.95	64.0367	8,876.95	70.3258	8,876.95	64.9295	8,876.95	59.3165	8,876.95	62.6033	8,876.95	54.4309	8,876.95	58.8404	8,876.95	53.0975	8,876.95	63.1099	8,876.95	52.6881	8,876.95	67.0709	8,876.95	59.1816	8,876.95	58.5212	8,876.95	55.3147	8,876.95	57.7966	8,876.95	57.2017	8,876.95	61.9694	8,876.95	55.0414	8,876.95	48.134
9,188.96	90.4128	9,188.96	90.1057	9,188.96	90.5258	9,188.96	88.957	9,188.96	88.9677	9,188.96	86.4878	9,188.96	87.8213	9,188.96	83.8298	9,188.96	83.3413	9,188.96	80.2229	9,188.96	80.9326	9,188.96	77.354	9,188.96	78.6182	9,188.96	72.2921	9,188.96	71.0707	9,188.96	68.4024	9,188.96	68.1086	9,188.96	66.9606	9,188.96	68.6531	9,188.96	63.5009	9,188.96	46.7403	9,188.96	51.2519	9,188.96	56.7345	9,188.96	62.2144	9,188.96	50.0002	9,188.96	59.967	9,188.96	57.9289	9,188.96	66.9289	9,188.96	61.9275	9,188.96	58.434	9,188.96	53.4451	9,188.96	60.0002	9,188.96	55.6127	9,188.96	61.3156	9,188.96	57.5931	9,188.96	48.7633
9,514.16	90.6033	9,514.16	90.2177	9,514.16	90.4332	9,514.16	89.3131	9,514.16	89.5522	9,514.16	86.0955	9,514.16	87.3636	9,514.16	84.0249	9,514.16	84.3221	9,514.16	79.3971	9,514.16	80.9401	9,514.16	76.7468	9,514.16	78.1036	9,514.16	72.9452	9,514.16	67.9888	9,514.16	68.8836	9,514.16	71.1675	9,514.16	67.2202	9,514.16	68.9697	9,514.16	61.3177	9,514.16	49.5655	9,514.16	58.6604	9,514.16	47.5699	9,514.16	62.7613	9,514.16	42.7952	9,514.16	60.9596	9,514.16	54.2997	9,514.16	66.5687	9,514.16	60.5496	9,514.16	59.0622	9,514.16	55.7511	9,514.16	62.4396	9,514.16	54.4115	9,514.16	61.8365	9,514.16	57.1028	9,514.16	45.9479
9,849.61	90.6116	9,849.61	90.3608	9,849.61	90.697	9,849.61	89.0787	9,849.61	89.319	9,849.61	86.1144	9,849.61	87.5695	9,849.61	83.7151	9,849.61	84.4063	9,849.61	78.8972	9,849.61	80.7667	9,849.61	76.8064	9,849.61	76.8849	9,849.61	72.6635	9,849.61	68.3651	9,849.61	69.0089	9,849.61	73.4713	9,849.61	65.2535	9,849.61	69.5762	9,849.61	59.5429	9,849.61	51.6801	9,849.61	62.8327	9,849.61	43.7781	9,849.61	63.2717	9,849.61	53.5664	9,849.61	58.5225	9,849.61	57.9124	9,849.61	66.9305	9,849.61	56.3465	9,849.61	59.7459	9,849.61	54.7343	9,849.61	62.2094	9,849.61	55.8783	9,849.61	62.1139	9,849.61	55.7827	9,849.61	48.9266
10,196.8	90.987	10,196.8	90.6796	10,196.8	90.7923	10,196.8	89.3445	10,196.8	89.5738	10,196.8	86.0898	10,196.8	87.3076	10,196.8	83.2028	10,196.8	85.1545	10,196.8	78.4854	10,196.8	80.8625	10,196.8	76.7169	10,196.8	75.4116	10,196.8	71.8212	10,196.8	74.1966	10,196.8	66.7756	10,196.8	72.92	10,196.8	66.418	10,196.8	64.8237	10,196.8	59.0865	10,196.8	44.5427	10,196.8	63.858	10,196.8	51.9297	10,196.8	65.0805	10,196.8	54.4404	10,196.8	54.3911	10,196.8	55.5862	10,196.8	65.5517	10,196.8	57.2921	10,196.8	59.6834	10,196.8	53.2408	10,196.8	60.2335	10,196.8	56.3248	10,196.8	60.6369	10,196.8	54.3808	10,196.8	53.5259
10,555.7	91.1377	10,555.7	90.7226	10,555.7	91.0756	10,555.7	89.3745	10,555.7	89.5836	10,555.7	85.9354	10,555.7	87.2147	10,555.7	82.9354	10,555.7	84.6299	10,555.7	78.7155	10,555.7	80.5305	10,555.7	76.3001	10,555.7	75.6585	10,555.7	71.2169	10,555.7	71.6226	10,555.7	67.647	10,555.7	69.3749	10,555.7	65.1896	10,555.7	66.6154	10,555.7	57.7368	10,555.7	52.0351	10,555.7	57.8787	10,555.7	47.4864	10,555.7	62.7493	10,555.7	49.579	10,555.7	60.0154	10,555.7	54.5504	10,555.7	65.735	10,555.7	57.5636	10,555.7	55.7631	10,555.7	55.8145	10,555.7	59.8279	10,555.7	52.8757	10,555.7	58.7737	10,555.7	54.1083	10,555.7	51.8073
10,927.7	91.4146	10,927.7	91.0107	10,927.7	91.2041	10,927.7	89.3404	10,927.7	89.7298	10,927.7	85.8928	10,927.7	87.2894	10,927.7	82.8434	10,927.7	84.0067	10,927.7	78.3853	10,927.7	79.8502	10,927.7	75.882	10,927.7	75.8829	10,927.7	70.5969	10,927.7	70.7535	10,927.7	66.9936	10,927.7	66.2501	10,927.7	66.1153	10,927.7	63.3035	10,927.7	64.0109	10,927.7	48.0406	10,927.7	50.01	10,927.7	49.6485	10,927.7	60.5415	10,927.7	52.5361	10,927.7	55.2836	10,927.7	52.9866	10,927.7	64.0743	10,927.7	53.6144	10,927.7	61.0703	10,927.7	55.837	10,927.7	57.8554	10,927.7	52.2005	10,927.7	57.1097	10,927.7	55.7661	10,927.7	52.5298
11,313	91.7084	11,313	91.1478	11,313	91.4322	11,313	89.4488	11,313	89.957	11,313	85.4872	11,313	87.109	11,313	82.5655	11,313	83.4533	11,313	77.9067	11,313	79.7922	11,313	75.1977	11,313	75.6124	11,313	70.6183	11,313	67.6497	11,313	65.8771	11,313	67.6617	11,313	62.5579	11,313	65.6627	11,313	55.5353	11,313	46.8628	11,313	61.2717	11,313	45.4495	11,313	60.6594	11,313	48.5463	11,313	52.9927	11,313	53.5105	11,313	62.7544	11,313	54.2854	11,313	61.9105	11,313	54.4141	11,313	52.5811	11,313	48.3007	11,313	55.4219	11,313	55.6695	11,313	51.6272
11,712.9	91.8412	11,712.9	91.0738	11,712.9	91.479	11,712.9	89.3437	11,712.9	89.7352	11,712.9	85.1176	11,712.9	86.8591	11,712.9	81.618	11,712.9	82.3021	11,712.9	76.9053	11,712.9	78.3912	11,712.9	73.3105	11,712.9	74.3786	11,712.9	69.4129	11,712.9	67.6076	11,712.9	65.0032	11,712.9	66.7416	11,712.9	61.7832	11,712.9	62.7539	11,712.9	47.0706	11,712.9	52.6477	11,712.9	57.9416	11,712.9	41.7989	11,712.9	61.1083	11,712.9	49.1896	11,712.9	53.8185	11,712.9	53.7641	11,712.9	63.6132	11,712.9	48.6542	11,712.9	60.8676	11,712.9	53.79	11,712.9	52.3785	11,712.9	52.7904	11,712.9	54.264	11,712.9	52.9452	11,712.9	52.7664
12,126	92.0095	12,126	91.0024	12,126	91.4373	12,126	89.2746	12,126	89.7294	12,126	84.4981	12,126	86.0623	12,126	81.1221	12,126	81.2085	12,126	76.8703	12,126	77.1748	12,126	74.0361	12,126	73.6107	12,126	70.6475	12,126	67.9177	12,126	65.0346	12,126	62.9419	12,126	61.0433	12,126	59.9534	12,126	58.5454	12,126	48.0481	12,126	60.682	12,126	45.3422	12,126	58.9948	12,126	41.5594	12,126	51.3575	12,126	49.7603	12,126	61.9726	12,126	42.0852	12,126	60.6391	12,126	50.5465	12,126	40.3248	12,126	51.5639	12,126	52.6252	12,126	47.553	12,126	54.0033
12,553.7	92.0658	12,553.7	91.0963	12,553.7	91.4577	12,553.7	89.2333	12,553.7	89.9676	12,553.7	84.5295	12,553.7	86.2565	12,553.7	82.1257	12,553.7	81.4071	12,553.7	77.6988	12,553.7	77.9442	12,553.7	74.8153	12,553.7	73.8405	12,553.7	70.2729	12,553.7	67.8042	12,553.7	64.7359	12,553.7	62.5113	12,553.7	62.4475	12,553.7	62.1084	12,553.7	59.7339	12,553.7	49.4065	12,553.7	51.1992	12,553.7	41.6724	12,553.7	51.9362	12,553.7	45.2243	12,553.7	54.101	12,553.7	49.4279	12,553.7	61.8265	12,553.7	36.9989	12,553.7	63.4857	12,553.7	53.4211	12,553.7	51.1402	12,553.7	46.6415	12,553.7	43.8883	12,553.7	48.0602	12,553.7	50.0495
12,996.1	92.0081	12,996.1	91.084	12,996.1	91.4819	12,996.1	89.265	12,996.1	89.6743	12,996.1	84.2843	12,996.1	86.1554	12,996.1	81.6913	12,996.1	81.2847	12,996.1	77.2982	12,996.1	77.5636	12,996.1	72.9476	12,996.1	72.2206	12,996.1	69.6297	12,996.1	67.3872	12,996.1	64.0088	12,996.1	65.7167	12,996.1	58.9594	12,996.1	59.8479	12,996.1	52.1678	12,996.1	54.8531	12,996.1	53.9878	12,996.1	38.9529	12,996.1	52.7347	12,996.1	40.2191	12,996.1	55.7286	12,996.1	49.1425	12,996.1	61.9593	12,996.1	42.4853	12,996.1	64.2992	12,996.1	50.2425	12,996.1	54.4851	12,996.1	48.9529	12,996.1	52.0447	12,996.1	46.9175	12,996.1	49.1383
13,454.6	91.791	13,454.6	90.9569	13,454.6	91.2641	13,454.6	88.8349	13,454.6	89.1952	13,454.6	83.8652	13,454.6	85.5913	13,454.6	81.0404	13,454.6	80.7103	13,454.6	75.5444	13,454.6	76.4255	13,454.6	71.6729	13,454.6	71.1868	13,454.6	67.5336	13,454.6	65.1734	13,454.6	63.039	13,454.6	62.0405	13,454.6	56.6263	13,454.6	59.0391	13,454.6	50.9126	13,454.6	51.7512	13,454.6	56.2443	13,454.6	34.6214	13,454.6	51.9034	13,454.6	44.5078	13,454.6	60.0238	13,454.6	49.1381	13,454.6	62.2475	13,454.6	44.0281	13,454.6	63.3749	13,454.6	43.4081	13,454.6	51.0092	13,454.6	48.3415	13,454.6	51.8773	13,454.6	45.5032	13,454.6	48.2547
13,929.2	91.4976	13,929.2	90.7949	13,929.2	90.7693	13,929.2	88.4021	13,929.2	88.5156	13,929.2	83.1966	13,929.2	84.8383	13,929.2	80.1726	13,929.2	79.6152	13,929.2	73.8161	13,929.2	74.491	13,929.2	69.356	13,929.2	68.6969	13,929.2	65.6442	13,929.2	60.2538	13,929.2	61.8632	13,929.2	58.7072	13,929.2	54.7849	13,929.2	56.6907	13,929.2	47.4454	13,929.2	50.377	13,929.2	56.7944	13,929.2	40.2731	13,929.2	40.1306	13,929.2	33.5417	13,929.2	62.7489	13,929.2	50.8684	13,929.2	62.4023	13,929.2	48.0065	13,929.2	63.071	13,929.2	38.2857	13,929.2	49.9635	13,929.2	49.6133	13,929.2	50.3216	13,929.2	37.449	13,929.2	49.6098
14,419.9	91.1405	14,419.9	90.288	14,419.9	90.3208	14,419.9	87.7645	14,419.9	87.8109	14,419.9	81.9082	14,419.9	83.7172	14,419.9	79.144	14,419.9	77.7917	14,419.9	72.3666	14,419.9	71.4299	14,419.9	67.0919	14,419.9	64.854	14,419.9	62.5775	14,419.9	58.2183	14,419.9	59.7145	14,419.9	51.3246	14,419.9	54.636	14,419.9	47.9145	14,419.9	52.361	14,419.9	50.7228	14,419.9	56.3528	14,419.9	46.0991	14,419.9	55.2485	14,419.9	46.9018	14,419.9	64.2506	14,419.9	47.6474	14,419.9	62.3396	14,419.9	44.2886	14,419.9	62.3371	14,419.9	42.7018	14,419.9	53.1044	14,419.9	49.4703	14,419.9	46.5501	14,419.9	37.984	14,419.9	52.1655
14,928.2	90.7453	14,928.2	90.0089	14,928.2	89.8493	14,928.2	87.1758	14,928.2	86.8727	14,928.2	80.6247	14,928.2	81.9942	14,928.2	77.4865	14,928.2	74.7295	14,928.2	70.4228	14,928.2	67.9579	14,928.2	65.0779	14,928.2	53.8255	14,928.2	61.1986	14,928.2	53.5771	14,928.2	58.0881	14,928.2	57.0433	14,928.2	52.872	14,928.2	27.3305	14,928.2	48.6841	14,928.2	52.965	14,928.2	55.565	14,928.2	40.9063	14,928.2	58.0793	14,928.2	45.2404	14,928.2	64.0787	14,928.2	45.4726	14,928.2	61.8408	14,928.2	45.974	14,928.2	59.145	14,928.2	31.6598	14,928.2	56.7122	14,928.2	42.7781	14,928.2	53.0852	14,928.2	47.7806	14,928.2	46.6255
15,455.6	90.5165	15,455.6	89.8732	15,455.6	89.4615	15,455.6	86.8022	15,455.6	85.897	15,455.6	79.4726	15,455.6	80.0369	15,455.6	76.7909	15,455.6	71.1292	15,455.6	69.2053	15,455.6	62.4924	15,455.6	64.8278	15,455.6	60.3604	15,455.6	62.4433	15,455.6	58.1423	15,455.6	56.5698	15,455.6	50.286	15,455.6	55.2703	15,455.6	47.1846	15,455.6	54.6797	15,455.6	50.0256	15,455.6	55.7546	15,455.6	47.4476	15,455.6	60.4265	15,455.6	46.9587	15,455.6	63.9655	15,455.6	46.3601	15,455.6	59.9459	15,455.6	46.3458	15,455.6	60.0927	15,455.6	32.1081	15,455.6	53.856	15,455.6	46.3176	15,455.6	45.8671	15,455.6	46.5583	15,455.6	49.5827
16,000.5	90.0908	16,000.5	89.5469	16,000.5	88.8159	16,000.5	86.4029	16,000.5	84.9614	16,000.5	78.602	16,000.5	78.5296	16,000.5	76.1483	16,000.5	69.1422	16,000.5	68.5425	16,000.5	61.6092	16,000.5	61.5868	16,000.5	64.2505	16,000.5	59.3638	16,000.5	56.6467	16,000.5	54.5863	16,000.5	51.7233	16,000.5	53.0107	16,000.5	48.3695	16,000.5	45.8231	16,000.5	51.7836	16,000.5	55.1471	16,000.5	44.2323	16,000.5	61.0616	16,000.5	47.573	16,000.5	62.5535	16,000.5	43.637	16,000.5	55.5686	16,000.5	46.6393	16,000.5	59.4865	16,000.5	36.8587	16,000.5	53.581	16,000.5	51.3585	16,000.5	46.3026	16,000.5	51.4689	16,000.5	47.4084
16,564.5	88.416	16,564.5	87.1844	16,564.5	87.2001	16,564.5	82.7851	16,564.5	83.0703	16,564.5	71.8715	16,564.5	75.1979	16,564.5	64.5405	16,564.5	59.5391	16,564.5	62.0087	16,564.5	52.1597	16,564.5	64.9257	16,564.5	65.2693	16,564.5	63.5182	16,564.5	55.9312	16,564.5	55.3977	16,564.5	52.2759	16,564.5	46.3864	16,564.5	55.5969	16,564.5	49.7525	16,564.5	46.0037	16,564.5	50.5108	16,564.5	44.4521	16,564.5	59.9308	16,564.5	42.5082	16,564.5	60.8721	16,564.5	44.3648	16,564.5	53.9846	16,564.5	47.9778	16,564.5	56.9832	16,564.5	46.8906	16,564.5	50.223	16,564.5	46.0686	16,564.5	48.4265	16,564.5	49.9651	16,564.5	42.4506
17,148.9	89.0542	17,148.9	87.9459	17,148.9	87.374	17,148.9	83.1097	17,148.9	82.6488	17,148.9	71.5607	17,148.9	74.8949	17,148.9	70.6725	17,148.9	68.6641	17,148.9	69.1717	17,148.9	65.6353	17,148.9	68.4396	17,148.9	68.6145	17,148.9	66.4902	17,148.9	61.0156	17,148.9	59.8005	17,148.9	57.9378	17,148.9	49.6583	17,148.9	55.3196	17,148.9	51.9814	17,148.9	45.3553	17,148.9	52.5172	17,148.9	47.5516	17,148.9	60.1802	17,148.9	40.7654	17,148.9	59.1931	17,148.9	48.4077	17,148.9	51.3883	17,148.9	41.5993	17,148.9	57.6884	17,148.9	48.1108	17,148.9	49.2136	17,148.9	36.824	17,148.9	44.2964	17,148.9	44.6864	17,148.9	37.2755
17,752.4	89.1275	17,752.4	87.8992	17,752.4	87.3549	17,752.4	82.7774	17,752.4	82.553	17,752.4	70.849	17,752.4	75.5749	17,752.4	72.5732	17,752.4	69.8595	17,752.4	70.0366	17,752.4	67.9628	17,752.4	68.533	17,752.4	68.6244	17,752.4	67.1966	17,752.4	61.6187	17,752.4	61.3727	17,752.4	55.6348	17,752.4	51.6474	17,752.4	58.0308	17,752.4	49.6351	17,752.4	48.0332	17,752.4	53.8102	17,752.4	51.3205	17,752.4	58.3672	17,752.4	47.3823	17,752.4	57.6928	17,752.4	53.126	17,752.4	51.7715	17,752.4	47.9347	17,752.4	57.4327	17,752.4	48.6933	17,752.4	54.8658	17,752.4	38.9433	17,752.4	48.6666	17,752.4	39.7917	17,752.4	34.5139
18,379.4	88.6253	18,379.4	87.2805	18,379.4	87.0149	18,379.4	81.9645	18,379.4	82.0949	18,379.4	69.7091	18,379.4	76.4643	18,379.4	72.1804	18,379.4	70.5425	18,379.4	69.0957	18,379.4	68.8982	18,379.4	66.7267	18,379.4	68.0742	18,379.4	67.0816	18,379.4	57.2369	18,379.4	62.2728	18,379.4	52.7104	18,379.4	53.5811	18,379.4	56.4956	18,379.4	49.6267	18,379.4	44.5205	18,379.4	53.0494	18,379.4	52.2663	18,379.4	54.0911	18,379.4	48.0514	18,379.4	57.1734	18,379.4	53.5521	18,379.4	54.746	18,379.4	51.1609	18,379.4	56.7439	18,379.4	50.4715	18,379.4	48.3851	18,379.4	50.8961	18,379.4	46.811	18,379.4	44.0224	18,379.4	46.5501
19,026.9	88.126	19,026.9	86.4427	19,026.9	86.269	19,026.9	81.0651	19,026.9	81.8708	19,026.9	67.1086	19,026.9	76.2928	19,026.9	71.8303	19,026.9	71.2177	19,026.9	68.282	19,026.9	67.368	19,026.9	66.208	19,026.9	64.4544	19,026.9	66.4566	19,026.9	58.6073	19,026.9	62.3409	19,026.9	55.2405	19,026.9	55.4428	19,026.9	57.643	19,026.9	33.7258	19,026.9	49.7984	19,026.9	53.3782	19,026.9	54.0753	19,026.9	54.8364	19,026.9	51.7425	19,026.9	54.6364	19,026.9	55.159	19,026.9	56.5895	19,026.9	51.8834	19,026.9	55.8794	19,026.9	53.3456	19,026.9	48.9561	19,026.9	50.0459	19,026.9	46.2226	19,026.9	35.9733	19,026.9	38.0729
19,697.8	87.3066	19,697.8	85.3683	19,697.8	85.5668	19,697.8	79.8725	19,697.8	81.5312	19,697.8	64.938	19,697.8	74.8928	19,697.8	70.9632	19,697.8	69.9324	19,697.8	65.7654	19,697.8	64.5568	19,697.8	63.8361	19,697.8	61.5414	19,697.8	65.0175	19,697.8	57.8615	19,697.8	61.7521	19,697.8	52.3758	19,697.8	55.3422	19,697.8	55.7566	19,697.8	43.85	19,697.8	51.5974	19,697.8	48.2846	19,697.8	52.9147	19,697.8	53.8943	19,697.8	52.0716	19,697.8	48.474	19,697.8	55.4176	19,697.8	56.4108	19,697.8	52.9852	19,697.8	55.5588	19,697.8	53.8822	19,697.8	44.4101	19,697.8	50.9988	19,697.8	43.5943	19,697.8	45.0804	19,697.8	36.7379
19,999.5	87.0244	19,999.5	84.649	19,999.5	85.3255	19,999.5	79.403	19,999.5	80.8922	19,999.5	60.5834	19,999.5	73.6127	19,999.5	69.9211	19,999.5	69.5887	19,999.5	66.9735	19,999.5	61.6796	19,999.5	62.8432	19,999.5	61.0688	19,999.5	63.3349	19,999.5	54.2642	19,999.5	61.1148	19,999.5	54.3302	19,999.5	59.2893	19,999.5	47.6721	19,999.5	53.2415	19,999.5	51.2788	19,999.5	50.1212	19,999.5	49.6724	19,999.5	40.1978	19,999.5	55.1305	19,999.5	48.7973	19,999.5	55.8067	19,999.5	56.8232	19,999.5	50.4286	19,999.5	55.7605	19,999.5	56.1592	19,999.5	52.0499	19,999.5	53.0948	19,999.5	41.0116	19,999.5	33.0515	19,999.5	51.5057
