"SPL Vertical"
"On-Axis"		"10°"		"-10°"		"20°"		"-20°"		"30°"		"-30°"		"40°"		"-40°"		"50°"		"-50°"		"60°"		"-60°"		"70°"		"-70°"		"80°"		"-80°"		"90°"		"-90°"		"100°"		"-100°"		"110°"		"-110°"		"120°"		"-120°"		"130°"		"-130°"		"140°"		"-140°"		"150°"		"-150°"		"160°"		"-160°"		"170°"		"-170°"		"180°"
"Frequency / Hz"	"Sound Pressure Level / dB (re 20 µPa/V)  [2.83  V @ 1. m]"	"Frequency / Hz"	"Sound Pressure Level / dB (re 20 µPa/V)  [2.83  V @ 1. m]"	"Frequency / Hz"	"Sound Pressure Level / dB (re 20 µPa/V)  [2.83  V @ 1. m]"	"Frequency / Hz"	"Sound Pressure Level / dB (re 20 µPa/V)  [2.83  V @ 1. m]"	"Frequency / Hz"	"Sound Pressure Level / dB (re 20 µPa/V)  [2.83  V @ 1. m]"	"Frequency / Hz"	"Sound Pressure Level / dB (re 20 µPa/V)  [2.83  V @ 1. m]"	"Frequency / Hz"	"Sound Pressure Level / dB (re 20 µPa/V)  [2.83  V @ 1. m]"	"Frequency / Hz"	"Sound Pressure Level / dB (re 20 µPa/V)  [2.83  V @ 1. m]"	"Frequency / Hz"	"Sound Pressure Level / dB (re 20 µPa/V)  [2.83  V @ 1. m]"	"Frequency / Hz"	"Sound Pressure Level / dB (re 20 µPa/V)  [2.83  V @ 1. m]"	"Frequency / Hz"	"Sound Pressure Level / dB (re 20 µPa/V)  [2.83  V @ 1. m]"	"Frequency / Hz"	"Sound Pressure Level / dB (re 20 µPa/V)  [2.83  V @ 1. m]"	"Frequency / Hz"	"Sound Pressure Level / dB (re 20 µPa/V)  [2.83  V @ 1. m]"	"Frequency / Hz"	"Sound Pressure Level / dB (re 20 µPa/V)  [2.83  V @ 1. m]"	"Frequency / Hz"	"Sound Pressure Level / dB (re 20 µPa/V)  [2.83  V @ 1. m]"	"Frequency / Hz"	"Sound Pressure Level / dB (re 20 µPa/V)  [2.83  V @ 1. m]"	"Frequency / Hz"	"Sound Pressure Level / dB (re 20 µPa/V)  [2.83  V @ 1. m]"	"Frequency / Hz"	"Sound Pressure Level / dB (re 20 µPa/V)  [2.83  V @ 1. m]"	"Frequency / Hz"	"Sound Pressure Level / dB (re 20 µPa/V)  [2.83  V @ 1. m]"	"Frequency / Hz"	"Sound Pressure Level / dB (re 20 µPa/V)  [2.83  V @ 1. m]"	"Frequency / Hz"	"Sound Pressure Level / dB (re 20 µPa/V)  [2.83  V @ 1. m]"	"Frequency / Hz"	"Sound Pressure Level / dB (re 20 µPa/V)  [2.83  V @ 1. m]"	"Frequency / Hz"	"Sound Pressure Level / dB (re 20 µPa/V)  [2.83  V @ 1. m]"	"Frequency / Hz"	"Sound Pressure Level / dB (re 20 µPa/V)  [2.83  V @ 1. m]"	"Frequency / Hz"	"Sound Pressure Level / dB (re 20 µPa/V)  [2.83  V @ 1. m]"	"Frequency / Hz"	"Sound Pressure Level / dB (re 20 µPa/V)  [2.83  V @ 1. m]"	"Frequency / Hz"	"Sound Pressure Level / dB (re 20 µPa/V)  [2.83  V @ 1. m]"	"Frequency / Hz"	"Sound Pressure Level / dB (re 20 µPa/V)  [2.83  V @ 1. m]"	"Frequency / Hz"	"Sound Pressure Level / dB (re 20 µPa/V)  [2.83  V @ 1. m]"	"Frequency / Hz"	"Sound Pressure Level / dB (re 20 µPa/V)  [2.83  V @ 1. m]"	"Frequency / Hz"	"Sound Pressure Level / dB (re 20 µPa/V)  [2.83  V @ 1. m]"	"Frequency / Hz"	"Sound Pressure Level / dB (re 20 µPa/V)  [2.83  V @ 1. m]"	"Frequency / Hz"	"Sound Pressure Level / dB (re 20 µPa/V)  [2.83  V @ 1. m]"	"Frequency / Hz"	"Sound Pressure Level / dB (re 20 µPa/V)  [2.83  V @ 1. m]"	"Frequency / Hz"	"Sound Pressure Level / dB (re 20 µPa/V)  [2.83  V @ 1. m]"	"Frequency / Hz"	"Sound Pressure Level / dB (re 20 µPa/V)  [2.83  V @ 1. m]"
20.5078	46.9394	20.5078	46.8505	20.5078	47.008	20.5078	46.7587	20.5078	47.0424	20.5078	46.6842	20.5078	47.0343	20.5078	46.6484	20.5078	46.9836	20.5078	46.6723	20.5078	46.9019	20.5078	46.7746	20.5078	46.8169	20.5078	46.9687	20.5078	46.7751	20.5078	47.2601	20.5078	46.8373	20.5078	47.6437	20.5078	47.0607	20.5078	48.1045	20.5078	47.472	20.5078	48.6188	20.5078	48.0479	20.5078	49.1579	20.5078	48.7227	20.5078	49.6908	20.5078	49.4147	20.5078	50.187	20.5078	50.0508	20.5078	50.6172	20.5078	50.5776	20.5078	50.9546	20.5078	50.9626	20.5078	51.1751	20.5078	51.1903	20.5078	51.2586
21.9727	52.56	21.9727	52.3572	21.9727	52.6947	21.9727	52.0921	21.9727	52.7549	21.9727	51.7699	21.9727	52.7339	21.9727	51.3958	21.9727	52.6256	21.9727	50.9753	21.9727	52.4252	21.9727	50.5159	21.9727	52.1305	21.9727	50.0284	21.9727	51.7435	21.9727	49.5287	21.9727	51.2724	21.9727	49.0392	21.9727	50.7351	21.9727	48.5895	21.9727	50.1622	21.9727	48.2131	21.9727	49.5983	21.9727	47.9411	21.9727	49.0966	21.9727	47.791	21.9727	48.705	21.9727	47.7585	21.9727	48.4456	21.9727	47.8164	21.9727	48.3036	21.9727	47.9233	21.9727	48.2355	21.9727	48.0375	21.9727	48.1903	21.9727	48.1295
23.4375	42.252	23.4375	42.2162	23.4375	42.2359	23.4375	42.1751	23.4375	42.1448	23.4375	42.1975	23.4375	41.9836	23.4375	42.3645	23.4375	41.7954	23.4375	42.7469	23.4375	41.6795	23.4375	43.3753	23.4375	41.7959	23.4375	44.2241	23.4375	42.31	23.4375	45.2271	23.4375	43.2749	23.4375	46.3064	23.4375	44.5765	23.4375	47.3948	23.4375	46.0227	23.4375	48.4418	23.4375	47.4508	23.4375	49.4121	23.4375	48.7594	23.4375	50.2801	23.4375	49.8948	23.4375	51.0259	23.4375	50.8308	23.4375	51.6325	23.4375	51.5562	23.4375	52.0843	23.4375	52.0681	23.4375	52.3664	23.4375	52.369	23.4375	52.4652
24.9023	45.9364	24.9023	45.6794	24.9023	46.0583	24.9023	45.3009	24.9023	46.0326	24.9023	44.8207	24.9023	45.8459	24.9023	44.2723	24.9023	45.4838	24.9023	43.7165	24.9023	44.9341	24.9023	43.2539	24.9023	44.196	24.9023	43.0214	24.9023	43.3075	24.9023	43.1439	24.9023	42.4048	24.9023	43.6544	24.9023	41.7984	24.9023	44.4654	24.9023	41.8928	24.9023	45.4291	24.9023	42.7884	24.9023	46.4113	24.9023	44.1405	24.9023	47.3194	24.9023	45.5536	24.9023	48.0961	24.9023	46.8099	24.9023	48.7062	24.9023	47.8269	24.9023	49.1263	24.9023	48.583	24.9023	49.3385	24.9023	49.08	24.9023	49.3277
26.3672	48.8857	26.3672	48.7362	26.3672	49.0371	26.3672	48.627	26.3672	49.1685	26.3672	48.6091	26.3672	49.2758	26.3672	48.7364	26.3672	49.3747	26.3672	49.049	26.3672	49.5015	26.3672	49.5575	26.3672	49.7115	26.3672	50.238	26.3672	50.0662	26.3672	51.0423	26.3672	50.6089	26.3672	51.9144	26.3672	51.3398	26.3672	52.8034	26.3672	52.2116	26.3672	53.6682	26.3672	53.1494	26.3672	54.4772	26.3672	54.0764	26.3672	55.2059	26.3672	54.9304	26.3672	55.8346	26.3672	55.667	26.3672	56.3461	26.3672	56.2578	26.3672	56.7253	26.3672	56.6866	26.3672	56.9587	26.3672	56.9458	26.3672	57.035
27.832	54.8806	27.832	54.813	27.832	54.9449	27.832	54.7638	27.832	54.9921	27.832	54.76	27.832	55.0175	27.832	54.8309	27.832	55.0276	27.832	55.0028	27.832	55.0418	27.832	55.2923	27.832	55.0937	27.832	55.7019	27.832	55.2283	27.832	56.2181	27.832	55.4912	27.832	56.8148	27.832	55.9113	27.832	57.4587	27.832	56.4848	27.832	58.115	27.832	57.1728	27.832	58.7509	27.832	57.9149	27.832	59.3368	27.832	58.6473	27.832	59.8469	27.832	59.3157	27.832	60.2589	27.832	59.8797	27.832	60.5537	27.832	60.3127	27.832	60.7157	27.832	60.5992	27.832	60.7332
29.2969	59.56	29.2969	59.4964	29.2969	59.6172	29.2969	59.441	29.2969	59.659	29.2969	59.4128	29.2969	59.6826	29.2969	59.433	29.2969	59.6932	29.2969	59.5226	29.2969	59.7046	29.2969	59.6988	29.2969	59.7405	29.2969	59.9704	29.2969	59.8326	29.2969	60.3359	29.2969	60.015	29.2969	60.7824	29.2969	60.3138	29.2969	61.288	29.2969	60.7353	29.2969	61.825	29.2969	61.2599	29.2969	62.3639	29.2969	61.8463	29.2969	62.8756	29.2969	62.4431	29.2969	63.3328	29.2969	63.0005	29.2969	63.7114	29.2969	63.4774	29.2969	63.9905	29.2969	63.8444	29.2969	64.1529	29.2969	64.0834	29.2969	64.1862
30.7617	62.4248	30.7617	62.3517	30.7617	62.4888	30.7617	62.2828	30.7617	62.5353	30.7617	62.2353	30.7617	62.5614	30.7617	62.2289	30.7617	62.571	30.7617	62.2835	30.7617	62.576	30.7617	62.4162	30.7617	62.5969	30.7617	62.6379	30.7617	62.6617	30.7617	62.9498	30.7617	62.8014	30.7617	63.3427	30.7617	63.0418	30.7617	63.7979	30.7617	63.393	30.7617	64.2901	30.7617	63.8428	30.7617	64.7908	30.7617	64.3582	30.7617	65.2708	30.7617	64.8939	30.7617	65.7029	30.7617	65.4029	30.7617	66.0621	30.7617	65.8446	30.7617	66.3273	30.7617	66.1884	30.7617	66.4815	30.7617	66.4143	30.7617	66.5124
32.2266	64.7994	32.2266	64.7447	32.2266	64.8515	32.2266	64.6985	32.2266	64.8943	32.2266	64.675	32.2266	64.9258	32.2266	64.6906	32.2266	64.9499	32.2266	64.7619	32.2266	64.9769	32.2266	64.9029	32.2266	65.0239	32.2266	65.1224	32.2266	65.1135	32.2266	65.4214	32.2266	65.2703	32.2266	65.7919	32.2266	65.5142	32.2266	66.218	32.2266	65.8523	32.2266	66.6776	32.2266	66.2742	32.2266	67.1452	32.2266	66.7521	32.2266	67.5941	32.2266	67.2474	32.2266	67.9988	32.2266	67.7189	32.2266	68.3356	32.2266	68.1297	32.2266	68.5841	32.2266	68.4509	32.2266	68.7281	32.2266	68.6632	32.2266	68.7562
33.6914	67.2994	33.6914	67.2271	33.6914	67.3649	33.6914	67.1576	33.6914	67.4177	33.6914	67.1036	33.6914	67.4559	33.6914	67.0798	33.6914	67.4823	33.6914	67.1024	33.6914	67.5049	33.6914	67.186	33.6914	67.5378	33.6914	67.3418	33.6914	67.6003	33.6914	67.5746	33.6914	67.7141	33.6914	67.8809	33.6914	67.899	33.6914	68.2487	33.6914	68.1654	33.6914	68.659	33.6914	68.5094	33.6914	69.0876	33.6914	68.9108	33.6914	69.5082	33.6914	69.3369	33.6914	69.8945	33.6914	69.7501	33.6914	70.2219	33.6914	70.1141	33.6914	70.4689	33.6914	70.3992	33.6914	70.6183	33.6914	70.5846	33.6914	70.6586
35.1562	68.9266	35.1562	68.8654	35.1562	68.9875	35.1562	68.8131	35.1562	69.0423	35.1562	68.7813	35.1562	69.0887	35.1562	68.7833	35.1562	69.1292	35.1562	68.8328	35.1562	69.171	35.1562	68.9419	35.1562	69.2267	35.1562	69.119	35.1562	69.3133	35.1562	69.3663	35.1562	69.4499	35.1562	69.6793	35.1562	69.6526	35.1562	70.0461	35.1562	69.9294	35.1562	70.4487	35.1562	70.2752	35.1562	70.8651	35.1562	70.6706	35.1562	71.2709	35.1562	71.0858	35.1562	71.6421	35.1562	71.4862	35.1562	71.9555	35.1562	71.8383	35.1562	72.191	35.1562	72.1146	35.1562	72.3324	35.1562	72.2951	35.1562	72.3686
36.6211	70.895	36.6211	70.8399	36.6211	70.9519	36.6211	70.7943	36.6211	71.0059	36.6211	70.7679	36.6211	71.0552	36.6211	70.7717	36.6211	71.1017	36.6211	70.8173	36.6211	71.1515	36.6211	70.915	36.6211	71.2146	36.6211	71.0723	36.6211	71.3049	36.6211	71.2921	36.6211	71.4377	36.6211	71.5714	36.6211	71.6263	36.6211	71.9009	36.6211	71.8777	36.6211	72.2655	36.6211	72.1881	36.6211	72.6461	36.6211	72.542	36.6211	73.0205	36.6211	72.9141	36.6211	73.3659	36.6211	73.274	36.6211	73.6605	36.6211	73.5912	36.6211	73.8845	36.6211	73.8397	36.6211	74.0219	36.6211	74.0003	36.6211	74.062
38.0859	72.6839	38.0859	72.6308	38.0859	72.7406	38.0859	72.5874	38.0859	72.7968	38.0859	72.5618	38.0859	72.851	38.0859	72.563	38.0859	72.9045	38.0859	72.6007	38.0859	72.9621	38.0859	72.6838	38.0859	73.0317	38.0859	72.819	38.0859	73.1244	38.0859	73.0097	38.0859	73.2523	38.0859	73.2543	38.0859	73.4261	38.0859	73.546	38.0859	73.6516	38.0859	73.8725	38.0859	73.9262	38.0859	74.2173	38.0859	74.2373	38.0859	74.5607	38.0859	74.564	38.0859	74.8814	38.0859	74.8799	38.0859	75.1585	38.0859	75.1579	38.0859	75.3729	38.0859	75.3741	38.0859	75.5092	38.0859	75.5105	38.0859	75.5565
39.5508	74.1625	39.5508	74.1102	39.5508	74.2197	39.5508	74.0683	39.5508	74.2785	39.5508	74.0435	39.5508	74.3372	39.5508	74.0437	39.5508	74.3969	39.5508	74.0771	39.5508	74.461	39.5508	74.1516	39.5508	74.5359	39.5508	74.273	39.5508	74.6301	39.5508	74.4448	39.5508	74.7534	39.5508	74.6659	39.5508	74.9146	39.5508	74.9309	39.5508	75.1185	39.5508	75.2293	39.5508	75.3636	39.5508	75.5464	39.5508	75.64	39.5508	75.8642	39.5508	75.9302	39.5508	76.163	39.5508	76.2113	39.5508	76.4231	39.5508	76.459	39.5508	76.6264	39.5508	76.6511	39.5508	76.7578	39.5508	76.7707	39.5508	76.8072
41.0156	75.4031	41.0156	75.3465	41.0156	75.4655	41.0156	75.3008	41.0156	75.5299	41.0156	75.272	41.0156	75.5945	41.0156	75.2672	41.0156	75.6595	41.0156	75.2937	41.0156	75.7271	41.0156	75.3581	41.0156	75.8025	41.0156	75.4658	41.0156	75.8925	41.0156	75.6199	41.0156	76.0053	41.0156	75.8199	41.0156	76.1487	41.0156	76.0611	41.0156	76.3276	41.0156	76.3344	41.0156	76.5415	41.0156	76.6267	41.0156	76.7832	41.0156	76.9214	41.0156	77.0382	41.0156	77.2003	41.0156	77.2868	41.0156	77.4445	41.0156	77.507	41.0156	77.6367	41.0156	77.6781	41.0156	77.7627	41.0156	77.7835	41.0156	77.8128
42.4805	76.4888	42.4805	76.4429	42.4805	76.5412	42.4805	76.4073	42.4805	76.5972	42.4805	76.387	42.4805	76.6556	42.4805	76.3876	42.4805	76.7164	42.4805	76.4151	42.4805	76.7818	42.4805	76.4755	42.4805	76.8555	42.4805	76.5735	42.4805	76.9432	42.4805	76.712	42.4805	77.0515	42.4805	76.8914	42.4805	77.1868	42.4805	77.108	42.4805	77.3532	42.4805	77.3546	42.4805	77.5506	42.4805	77.6198	42.4805	77.7727	42.4805	77.889	42.4805	78.0069	42.4805	78.1455	42.4805	78.2354	42.4805	78.3716	42.4805	78.438	42.4805	78.5508	42.4805	78.5953	42.4805	78.6691	42.4805	78.6917	42.4805	78.7173
43.9453	77.3829	43.9453	77.3387	43.9453	77.4348	43.9453	77.3055	43.9453	77.4917	43.9453	77.2877	43.9453	77.5524	43.9453	77.2902	43.9453	77.6166	43.9453	77.318	43.9453	77.686	43.9453	77.3761	43.9453	77.7635	43.9453	77.4685	43.9453	77.8534	43.9453	77.5979	43.9453	77.9611	43.9453	77.7643	43.9453	78.0917	43.9453	77.9649	43.9453	78.2484	43.9453	78.1932	43.9453	78.431	43.9453	78.4391	43.9453	78.6339	43.9453	78.6897	43.9453	78.8463	43.9453	78.9296	43.9453	79.0524	43.9453	79.1424	43.9453	79.2343	43.9453	79.3126	43.9453	79.3744	43.9453	79.427	43.9453	79.4583	43.9453	79.4767
45.4102	78.002	45.4102	77.9582	45.4102	78.0563	45.4102	77.928	45.4102	78.1188	45.4102	77.9151	45.4102	78.1879	45.4102	77.9233	45.4102	78.2631	45.4102	77.9566	45.4102	78.3451	45.4102	78.0188	45.4102	78.4356	45.4102	78.1131	45.4102	78.5378	45.4102	78.2411	45.4102	78.6551	45.4102	78.4027	45.4102	78.7911	45.4102	78.5952	45.4102	78.9476	45.4102	78.8128	45.4102	79.1238	45.4102	79.0468	45.4102	79.3144	45.4102	79.2854	45.4102	79.5099	45.4102	79.5146	45.4102	79.6965	45.4102	79.7197	45.4102	79.8585	45.4102	79.8861	45.4102	79.9803	45.4102	80.0014	45.4102	80.0491	45.4102	80.0569
46.875	78.7054	46.875	78.6608	46.875	78.7593	46.875	78.6279	46.875	78.8207	46.875	78.6094	46.875	78.888	46.875	78.6081	46.875	78.9606	46.875	78.6274	46.875	79.0382	46.875	78.6704	46.875	79.1216	46.875	78.7399	46.875	79.2124	46.875	78.8382	46.875	79.313	46.875	78.9657	46.875	79.4258	46.875	79.1211	46.875	79.5526	46.875	79.3006	46.875	79.6931	46.875	79.4974	46.875	79.844	46.875	79.7019	46.875	79.9981	46.875	79.9021	46.875	80.1447	46.875	80.0847	46.875	80.2707	46.875	80.2366	46.875	80.3629	46.875	80.3461	46.875	80.4101	46.875	80.4051
48.3398	79.0542	48.3398	79.0076	48.3398	79.1092	48.3398	78.9717	48.3398	79.171	48.3398	78.949	48.3398	79.2382	48.3398	78.9426	48.3398	79.3099	48.3398	78.9554	48.3398	79.3862	48.3398	78.9905	48.3398	79.4675	48.3398	79.0508	48.3398	79.5551	48.3398	79.1382	48.3398	79.6507	48.3398	79.2535	48.3398	79.7564	48.3398	79.3957	48.3398	79.8732	48.3398	79.5612	48.3398	80.0009	48.3398	79.744	48.3398	80.1363	48.3398	79.9354	48.3398	80.2733	48.3398	80.1242	48.3398	80.4023	48.3398	80.298	48.3398	80.5117	48.3398	80.4443	48.3398	80.5896	48.3398	80.5523	48.3398	80.6258	48.3398	80.6139
51.2695	79.6029	51.2695	79.5604	51.2695	79.6559	51.2695	79.5301	51.2695	79.718	51.2695	79.5135	51.2695	79.7877	51.2695	79.5123	51.2695	79.8637	51.2695	79.5284	51.2695	79.9448	51.2695	79.5633	51.2695	80.0303	51.2695	79.6184	51.2695	80.1195	51.2695	79.6949	51.2695	80.2123	51.2695	79.793	51.2695	80.3087	51.2695	79.9116	51.2695	80.4089	51.2695	80.0485	51.2695	80.5121	51.2695	80.1991	51.2695	80.6166	51.2695	80.3569	51.2695	80.7184	51.2695	80.5136	51.2695	80.8116	51.2695	80.6594	51.2695	80.8881	51.2695	80.7843	51.2695	80.9393	51.2695	80.8794	51.2695	80.9576	51.2695	80.9381
52.7344	79.8619	52.7344	79.8196	52.7344	79.9153	52.7344	79.7896	52.7344	79.9784	52.7344	79.7732	52.7344	80.0499	52.7344	79.7716	52.7344	80.1281	52.7344	79.7863	52.7344	80.2117	52.7344	79.8182	52.7344	80.2992	52.7344	79.8687	52.7344	80.3894	52.7344	79.9383	52.7344	80.4814	52.7344	80.0274	52.7344	80.5745	52.7344	80.1353	52.7344	80.6685	52.7344	80.2601	52.7344	80.7625	52.7344	80.3981	52.7344	80.855	52.7344	80.5438	52.7344	80.9429	52.7344	80.6898	52.7344	81.0212	52.7344	80.8274	52.7344	81.0832	52.7344	80.9475	52.7344	81.1215	52.7344	81.0415	52.7344	81.1296	52.7344	81.1031
54.1992	79.993	54.1992	79.9557	54.1992	80.0426	54.1992	79.9319	54.1992	80.1036	54.1992	79.9221	54.1992	80.1742	54.1992	79.9269	54.1992	80.2527	54.1992	79.9466	54.1992	80.3372	54.1992	79.9817	54.1992	80.4253	54.1992	80.0322	54.1992	80.5154	54.1992	80.0986	54.1992	80.6056	54.1992	80.1807	54.1992	80.6949	54.1992	80.278	54.1992	80.7823	54.1992	80.3889	54.1992	80.8672	54.1992	80.5106	54.1992	80.9481	54.1992	80.6388	54.1992	81.0228	54.1992	80.7674	54.1992	81.0874	54.1992	80.8893	54.1992	81.1369	54.1992	80.9966	54.1992	81.1653	54.1992	81.0819	54.1992	81.1674	54.1992	81.1397
55.6641	80.1938	55.6641	80.1546	55.6641	80.2433	55.6641	80.1264	55.6641	80.3019	55.6641	80.1096	55.6641	80.3679	55.6641	80.1046	55.6641	80.4395	55.6641	80.1115	55.6641	80.5143	55.6641	80.1306	55.6641	80.5901	55.6641	80.1622	55.6641	80.6648	55.6641	80.2068	55.6641	80.7366	55.6641	80.2647	55.6641	80.8046	55.6641	80.3361	55.6641	80.868	55.6641	80.4202	55.6641	80.9266	55.6641	80.5153	55.6641	80.98	55.6641	80.6183	55.6641	81.0271	55.6641	80.7245	55.6641	81.0655	55.6641	80.8279	55.6641	81.0918	55.6641	80.9218	55.6641	81.1016	55.6641	80.9998	55.6641	81.0908	55.6641	81.057
58.5938	80.2572	58.5938	80.2173	58.5938	80.3075	58.5938	80.188	58.5938	80.3672	58.5938	80.1696	58.5938	80.4354	58.5938	80.1621	58.5938	80.5103	58.5938	80.1658	58.5938	80.5899	58.5938	80.1806	58.5938	80.6715	58.5938	80.2068	58.5938	80.7524	58.5938	80.2446	58.5938	80.8298	58.5938	80.2942	58.5938	80.9013	58.5938	80.3557	58.5938	80.965	58.5938	80.4288	58.5938	81.0194	58.5938	80.5124	58.5938	81.0636	58.5938	80.6042	58.5938	81.0966	58.5938	80.701	58.5938	81.1172	58.5938	80.7981	58.5938	81.1235	58.5938	80.89	58.5938	81.1134	58.5938	80.9712	58.5938	81.0848	58.5938	81.0371
60.0586	80.2868	60.0586	80.2487	60.0586	80.3357	60.0586	80.2218	60.0586	80.3949	60.0586	80.2059	60.0586	80.4631	60.0586	80.2007	60.0586	80.5385	60.0586	80.2057	60.0586	80.6183	60.0586	80.2206	60.0586	80.6995	60.0586	80.2451	60.0586	80.7789	60.0586	80.2792	60.0586	80.8531	60.0586	80.3229	60.0586	80.9193	60.0586	80.3762	60.0586	80.9754	60.0586	80.4391	60.0586	81.0202	60.0586	80.5108	60.0586	81.053	60.0586	80.59	60.0586	81.0737	60.0586	80.6741	60.0586	81.0822	60.0586	80.7594	60.0586	81.0779	60.0586	80.8415	60.0586	81.0598	60.0586	80.9158	60.0586	81.0267	60.0586	80.9784
62.9883	80.4747	62.9883	80.4341	62.9883	80.5262	62.9883	80.4045	62.9883	80.5876	62.9883	80.3858	62.9883	80.6575	62.9883	80.3772	62.9883	80.7337	62.9883	80.3779	62.9883	80.8132	62.9883	80.3873	62.9883	80.8924	62.9883	80.4045	62.9883	80.9678	62.9883	80.4291	62.9883	81.0356	62.9883	80.461	62.9883	81.0925	62.9883	80.5002	62.9883	81.1362	62.9883	80.5469	62.9883	81.1654	62.9883	80.6011	62.9883	81.1797	62.9883	80.6622	62.9883	81.1798	62.9883	80.7291	62.9883	81.1669	62.9883	80.7997	62.9883	81.1419	62.9883	80.871	62.9883	81.1059	62.9883	80.9401	62.9883	81.0595	62.9883	81.0037
64.4531	80.4715	64.4531	80.4306	64.4531	80.5234	64.4531	80.4009	64.4531	80.5855	64.4531	80.382	64.4531	80.6563	64.4531	80.3733	64.4531	80.7335	64.4531	80.374	64.4531	80.8143	64.4531	80.3831	64.4531	80.8951	64.4531	80.3999	64.4531	80.9719	64.4531	80.4236	64.4531	81.0409	64.4531	80.4541	64.4531	81.0984	64.4531	80.4911	64.4531	81.1419	64.4531	80.535	64.4531	81.1697	64.4531	80.5858	64.4531	81.1814	64.4531	80.6433	64.4531	81.1776	64.4531	80.7068	64.4531	81.1598	64.4531	80.7745	64.4531	81.1296	64.4531	80.8442	64.4531	81.0883	64.4531	80.9131	64.4531	81.0374	64.4531	80.9784
67.3828	80.5618	67.3828	80.5202	67.3828	80.613	67.3828	80.4883	67.3828	80.6733	67.3828	80.4656	67.3828	80.7414	67.3828	80.4516	67.3828	80.8154	67.3828	80.4451	67.3828	80.8925	67.3828	80.4453	67.3828	80.9694	67.3828	80.4513	67.3828	81.0421	67.3828	80.4626	67.3828	81.1063	67.3828	80.479	67.3828	81.1581	67.3828	80.5007	67.3828	81.1944	67.3828	80.5285	67.3828	81.213	67.3828	80.5632	67.3828	81.2131	67.3828	80.6057	67.3828	81.1954	67.3828	80.6562	67.3828	81.1616	67.3828	80.7147	67.3828	81.1142	67.3828	80.7797	67.3828	81.0562	67.3828	80.8492	67.3828	80.9906	67.3828	80.9206
68.8477	80.5292	68.8477	80.4892	68.8477	80.578	68.8477	80.4583	68.8477	80.6353	68.8477	80.4359	68.8477	80.7	68.8477	80.4214	68.8477	80.7702	68.8477	80.414	68.8477	80.8435	68.8477	80.4125	68.8477	80.9167	68.8477	80.4161	68.8477	80.9857	68.8477	80.4241	68.8477	81.0463	68.8477	80.4363	68.8477	81.0944	68.8477	80.4528	68.8477	81.1267	68.8477	80.4742	68.8477	81.1407	68.8477	80.5017	68.8477	81.1356	68.8477	80.5362	68.8477	81.1122	68.8477	80.5787	68.8477	81.0725	68.8477	80.6293	68.8477	81.0198	68.8477	80.6875	68.8477	80.9577	68.8477	80.7519	68.8477	80.89	68.8477	80.8204
71.7773	80.2988	71.7773	80.2644	71.7773	80.3462	71.7773	80.2428	71.7773	80.4062	71.7773	80.2331	71.7773	80.4775	71.7773	80.2339	71.7773	80.5577	71.7773	80.2436	71.7773	80.6436	71.7773	80.2602	71.7773	80.731	71.7773	80.282	71.7773	80.815	71.7773	80.3074	71.7773	80.8905	71.7773	80.3352	71.7773	80.9525	71.7773	80.365	71.7773	80.9968	71.7773	80.3967	71.7773	81.0207	71.7773	80.4309	71.7773	81.0231	71.7773	80.4686	71.7773	81.0051	71.7773	80.5109	71.7773	80.9694	71.7773	80.5586	71.7773	80.92	71.7773	80.612	71.7773	80.8613	71.7773	80.6706	71.7773	80.7978	71.7773	80.7333
74.707	80.3869	74.707	80.3522	74.707	80.4356	74.707	80.331	74.707	80.4974	74.707	80.3221	74.707	80.5708	74.707	80.3236	74.707	80.6529	74.707	80.3334	74.707	80.7399	74.707	80.349	74.707	80.827	74.707	80.3681	74.707	80.9091	74.707	80.389	74.707	80.9808	74.707	80.4101	74.707	81.0371	74.707	80.4311	74.707	81.0737	74.707	80.4523	74.707	81.0882	74.707	80.4747	74.707	81.0797	74.707	80.5002	74.707	81.0499	74.707	80.5308	74.707	81.002	74.707	80.5685	74.707	80.941	74.707	80.6147	74.707	80.8723	74.707	80.6697	74.707	80.8013	74.707	80.7326
77.6367	80.4143	77.6367	80.38	77.6367	80.4618	77.6367	80.3583	77.6367	80.5219	77.6367	80.3481	77.6367	80.5929	77.6367	80.3475	77.6367	80.6722	77.6367	80.3543	77.6367	80.7562	77.6367	80.3659	77.6367	80.8405	77.6367	80.38	77.6367	80.9198	77.6367	80.3946	77.6367	80.9888	77.6367	80.4083	77.6367	81.042	77.6367	80.4208	77.6367	81.0752	77.6367	80.4325	77.6367	81.0853	77.6367	80.4452	77.6367	81.0712	77.6367	80.4611	77.6367	81.0344	77.6367	80.4832	77.6367	80.9783	77.6367	80.5143	77.6367	80.9082	77.6367	80.5567	77.6367	80.8305	77.6367	80.6111	77.6367	80.7515	77.6367	80.6769
79.1016	80.4038	79.1016	80.3689	79.1016	80.4512	79.1016	80.3461	79.1016	80.5105	79.1016	80.3345	79.1016	80.5799	79.1016	80.332	79.1016	80.6569	79.1016	80.3365	79.1016	80.7378	79.1016	80.3453	79.1016	80.8183	79.1016	80.356	79.1016	80.8933	79.1016	80.3666	79.1016	80.9573	79.1016	80.3756	79.1016	81.0053	79.1016	80.3825	79.1016	81.0328	79.1016	80.3882	79.1016	81.0368	79.1016	80.3941	79.1016	81.0164	79.1016	80.4032	79.1016	80.9733	79.1016	80.4186	79.1016	80.911	79.1016	80.4436	79.1016	80.8355	79.1016	80.481	79.1016	80.7534	79.1016	80.5321	79.1016	80.6718	79.1016	80.5965
82.0312	80.3649	82.0312	80.3259	82.0312	80.4141	82.0312	80.2973	82.0312	80.4725	82.0312	80.2781	82.0312	80.5378	82.0312	80.2664	82.0312	80.607	82.0312	80.2599	82.0312	80.6764	82.0312	80.256	82.0312	80.742	82.0312	80.2521	82.0312	80.7992	82.0312	80.2463	82.0312	80.8437	82.0312	80.2374	82.0312	80.8709	82.0312	80.2253	82.0312	80.8772	82.0312	80.2111	82.0312	80.8604	82.0312	80.1972	82.0312	80.8198	82.0312	80.1871	82.0312	80.7575	82.0312	80.1848	82.0312	80.6778	82.0312	80.1946	82.0312	80.5873	82.0312	80.2204	82.0312	80.4935	82.0312	80.2642	82.0312	80.4043	82.0312	80.3262
84.9609	80.2279	84.9609	80.2172	84.9609	80.2492	84.9609	80.2155	84.9609	80.2824	84.9609	80.2205	84.9609	80.3278	84.9609	80.2299	84.9609	80.3846	84.9609	80.2412	84.9609	80.4509	84.9609	80.2521	84.9609	80.5235	84.9609	80.2607	84.9609	80.5979	84.9609	80.2653	84.9609	80.668	84.9609	80.2655	84.9609	80.7275	84.9609	80.2612	84.9609	80.7697	84.9609	80.2538	84.9609	80.7895	84.9609	80.2458	84.9609	80.7836	84.9609	80.2405	84.9609	80.7518	84.9609	80.2421	84.9609	80.697	84.9609	80.2549	84.9609	80.6251	84.9609	80.2825	84.9609	80.544	84.9609	80.327	84.9609	80.4623	84.9609	80.388
87.8906	80.0566	87.8906	80.0494	87.8906	80.0808	87.8906	80.0558	87.8906	80.1245	87.8906	80.0723	87.8906	80.1889	87.8906	80.0954	87.8906	80.2736	87.8906	80.1219	87.8906	80.3757	87.8906	80.149	87.8906	80.4902	87.8906	80.1746	87.8906	80.6102	87.8906	80.1973	87.8906	80.7273	87.8906	80.2166	87.8906	80.8326	87.8906	80.2332	87.8906	80.9177	87.8906	80.2489	87.8906	80.9755	87.8906	80.2664	87.8906	81.0014	87.8906	80.2896	87.8906	80.9936	87.8906	80.3227	87.8906	80.9537	87.8906	80.3695	87.8906	80.8865	87.8906	80.4322	87.8906	80.7995	87.8906	80.5111	87.8906	80.7018	87.8906	80.6029
90.8203	80.962	90.8203	80.9171	90.8203	81.0017	90.8203	80.8666	90.8203	81.036	90.8203	80.8103	90.8203	81.0647	90.8203	80.7475	90.8203	81.0869	90.8203	80.6775	90.8203	81.1012	90.8203	80.5999	90.8203	81.1054	90.8203	80.5139	90.8203	81.0963	90.8203	80.4197	90.8203	81.0702	90.8203	80.3177	90.8203	81.0228	90.8203	80.2098	90.8203	80.9506	90.8203	80.0992	90.8203	80.851	90.8203	79.9907	90.8203	80.7244	90.8203	79.8914	90.8203	80.5741	90.8203	79.8095	90.8203	80.4075	90.8203	79.7542	90.8203	80.2357	90.8203	79.7343	90.8203	80.072	90.8203	79.7562	90.8203	79.9303	90.8203	79.8224
95.2148	80.0548	95.2148	80.0282	95.2148	80.0965	95.2148	80.0156	95.2148	80.1535	95.2148	80.0161	95.2148	80.2255	95.2148	80.0276	95.2148	80.3115	95.2148	80.0479	95.2148	80.4085	95.2148	80.074	95.2148	80.5125	95.2148	80.1027	95.2148	80.617	95.2148	80.1308	95.2148	80.7145	95.2148	80.1555	95.2148	80.7967	95.2148	80.1751	95.2148	80.8554	95.2148	80.1893	95.2148	80.8845	95.2148	80.1995	95.2148	80.8802	95.2148	80.2086	95.2148	80.8428	95.2148	80.2212	95.2148	80.7764	95.2148	80.2428	95.2148	80.6891	95.2148	80.2786	95.2148	80.591	95.2148	80.3322	95.2148	80.493	95.2148	80.4046
98.1445	80.2749	98.1445	80.2469	98.1445	80.3198	98.1445	80.2348	98.1445	80.3813	98.1445	80.2367	98.1445	80.4582	98.1445	80.2501	98.1445	80.5474	98.1445	80.2717	98.1445	80.6449	98.1445	80.2981	98.1445	80.745	98.1445	80.3256	98.1445	80.8412	98.1445	80.3509	98.1445	80.9262	98.1445	80.3712	98.1445	80.9929	98.1445	80.3849	98.1445	81.035	98.1445	80.3919	98.1445	81.0477	98.1445	80.3937	98.1445	81.0292	98.1445	80.3937	98.1445	80.9807	98.1445	80.3968	98.1445	80.9073	98.1445	80.4085	98.1445	80.8169	98.1445	80.4346	98.1445	80.7196	98.1445	80.479	98.1445	80.6255	98.1445	80.5434
101.074	80.1995	101.074	80.178	101.074	80.24	101.074	80.1745	101.074	80.2992	101.074	80.1871	101.074	80.3758	101.074	80.2132	101.074	80.4674	101.074	80.2493	101.074	80.5703	101.074	80.2918	101.074	80.6798	101.074	80.3369	101.074	80.7903	101.074	80.3808	101.074	80.895	101.074	80.4206	101.074	80.9868	101.074	80.4546	101.074	81.0584	101.074	80.4821	101.074	81.1036	101.074	80.5046	101.074	81.1183	101.074	80.5249	101.074	81.1018	101.074	80.5473	101.074	81.0566	101.074	80.5765	101.074	80.9891	101.074	80.6172	101.074	80.9077	101.074	80.6721	101.074	80.8223	101.074	80.7416
105.469	80.6855	105.469	80.6733	105.469	80.7026	105.469	80.6653	105.469	80.7249	105.469	80.6601	105.469	80.7519	105.469	80.6557	105.469	80.783	105.469	80.6496	105.469	80.8168	105.469	80.6394	105.469	80.8516	105.469	80.6226	105.469	80.8848	105.469	80.5974	105.469	80.9131	105.469	80.5629	105.469	80.9321	105.469	80.5199	105.469	80.9372	105.469	80.4705	105.469	80.9239	105.469	80.419	105.469	80.8893	105.469	80.3712	105.469	80.8327	105.469	80.334	105.469	80.7568	105.469	80.3143	105.469	80.667	105.469	80.3178	105.469	80.5717	105.469	80.3477	105.469	80.4806	105.469	80.4034
108.398	80.9971	108.398	80.9751	108.398	81.0217	108.398	80.9555	108.398	81.0484	108.398	80.9378	108.398	81.0761	108.398	80.9206	108.398	81.1037	108.398	80.9019	108.398	81.1295	108.398	80.8793	108.398	81.1515	108.398	80.8504	108.398	81.1668	108.398	80.8127	108.398	81.172	108.398	80.7648	108.398	81.1625	108.398	80.7064	108.398	81.1342	108.398	80.6388	108.398	81.0836	108.398	80.5656	108.398	81.0095	108.398	80.4925	108.398	80.9138	108.398	80.4271	108.398	80.8022	108.398	80.3777	108.398	80.6836	108.398	80.3529	108.398	80.5693	108.398	80.359	108.398	80.4712	108.398	80.399
112.793	81.148	112.793	81.1186	112.793	81.1797	112.793	81.0919	112.793	81.2133	112.793	81.0675	112.793	81.2479	112.793	81.0442	112.793	81.2829	112.793	81.0202	112.793	81.3172	112.793	80.993	112.793	81.3493	112.793	80.9598	112.793	81.3763	112.793	80.9183	112.793	81.3943	112.793	80.8672	112.793	81.3978	112.793	80.8067	112.793	81.3812	112.793	80.7386	112.793	81.3396	112.793	80.6674	112.793	81.2703	112.793	80.5993	112.793	81.1743	112.793	80.5425	112.793	81.0567	112.793	80.5059	112.793	80.9266	112.793	80.4975	112.793	80.796	112.793	80.5232	112.793	80.6781	112.793	80.5845
117.188	81.3105	117.188	81.2666	117.188	81.3511	117.188	81.2203	117.188	81.387	117.188	81.1722	117.188	81.417	117.188	81.1224	117.188	81.4402	117.188	81.07	117.188	81.4559	117.188	81.0138	117.188	81.4634	117.188	80.9523	117.188	81.4614	117.188	80.8841	117.188	81.4477	117.188	80.8088	117.188	81.4192	117.188	80.727	117.188	81.372	117.188	80.6413	117.188	81.3029	117.188	80.556	117.188	81.2101	117.188	80.4775	117.188	81.0949	117.188	80.4139	117.188	80.9619	117.188	80.3736	117.188	80.82	117.188	80.3644	117.188	80.6803	117.188	80.3916	117.188	80.5554	117.188	80.4565
120.117	81.6369	120.117	81.5919	120.117	81.6727	120.117	81.5389	120.117	81.6978	120.117	81.4785	120.117	81.7105	120.117	81.4103	120.117	81.7096	120.117	81.3335	120.117	81.6937	120.117	81.2465	120.117	81.6617	120.117	81.1476	120.117	81.6121	120.117	81.0357	120.117	81.5432	120.117	80.9107	120.117	81.4527	120.117	80.774	120.117	81.3388	120.117	80.6295	120.117	81.2009	120.117	80.4833	120.117	81.0408	120.117	80.344	120.117	80.8637	120.117	80.222	120.117	80.6784	120.117	80.1286	120.117	80.4969	120.117	80.074	120.117	80.3329	120.117	80.0661	120.117	80.1998	120.117	80.1086
124.512	81.7351	124.512	81.702	124.512	81.7635	124.512	81.664	124.512	81.787	124.512	81.6202	124.512	81.8056	124.512	81.5693	124.512	81.8185	124.512	81.5093	124.512	81.8247	124.512	81.4378	124.512	81.8219	124.512	81.3525	124.512	81.8068	124.512	81.2514	124.512	81.7742	124.512	81.1336	124.512	81.7181	124.512	81.0003	124.512	81.6326	124.512	80.8548	124.512	81.5131	124.512	80.7033	124.512	81.359	124.512	80.555	124.512	81.1746	124.512	80.4217	124.512	80.9702	124.512	80.3172	124.512	80.7617	124.512	80.2552	124.512	80.568	124.512	80.2469	124.512	80.4084	124.512	80.2983
128.906	81.6187	128.906	81.5834	128.906	81.6582	128.906	81.5519	128.906	81.7018	128.906	81.5234	128.906	81.7488	128.906	81.4964	128.906	81.798	128.906	81.4686	128.906	81.8472	128.906	81.4375	128.906	81.8931	128.906	81.3997	128.906	81.931	128.906	81.3525	128.906	81.9546	128.906	81.2936	128.906	81.9564	128.906	81.2221	128.906	81.929	128.906	81.1395	128.906	81.8664	128.906	81.0497	128.906	81.7662	128.906	80.9597	128.906	81.631	128.906	80.8792	128.906	81.4696	128.906	80.8197	128.906	81.2958	128.906	80.793	128.906	81.1269	128.906	80.8087	128.906	80.9808	128.906	80.8718
133.301	81.8317	133.301	81.7881	133.301	81.8826	133.301	81.7524	133.301	81.9392	133.301	81.724	133.301	81.9994	133.301	81.7013	133.301	82.0607	133.301	81.6814	133.301	82.1209	133.301	81.661	133.301	82.1771	133.301	81.6361	133.301	82.2259	133.301	81.603	133.301	82.2621	133.301	81.559	133.301	82.2793	133.301	81.5029	133.301	82.27	133.301	81.4356	133.301	82.2272	133.301	81.3613	133.301	82.1468	133.301	81.2867	133.301	82.0292	133.301	81.2218	133.301	81.8807	133.301	81.1779	133.301	81.7138	133.301	81.1668	133.301	81.5452	133.301	81.1975	133.301	81.3934	133.301	81.274
139.16	82.1387	139.16	82.087	139.16	82.1846	139.16	82.0312	139.16	82.2231	139.16	81.9732	139.16	82.2539	139.16	81.9141	139.16	82.2778	139.16	81.8541	139.16	82.2968	139.16	81.7929	139.16	82.3127	139.16	81.7293	139.16	82.3259	139.16	81.6622	139.16	82.3345	139.16	81.5911	139.16	82.3333	139.16	81.5165	139.16	82.3153	139.16	81.4403	139.16	82.2729	139.16	81.3668	139.16	82.2004	139.16	81.3021	139.16	82.0962	139.16	81.2544	139.16	81.9639	139.16	81.2324	139.16	81.8126	139.16	81.244	139.16	81.6556	139.16	81.2945	139.16	81.508	139.16	81.3842
143.555	82.2888	143.555	82.2381	143.555	82.3326	143.555	82.1821	143.555	82.3687	143.555	82.1228	143.555	82.3977	143.555	82.0618	143.555	82.4211	143.555	82.0003	143.555	82.4411	143.555	81.9381	143.555	82.4591	143.555	81.8748	143.555	82.475	143.555	81.809	143.555	82.4858	143.555	81.74	143.555	82.4863	143.555	81.6681	143.555	82.4694	143.555	81.5953	143.555	82.4284	143.555	81.5257	143.555	82.3585	143.555	81.4657	143.555	82.2587	143.555	81.4236	143.555	82.1325	143.555	81.4077	143.555	81.9881	143.555	81.4252	143.555	81.8376	143.555	81.4802	143.555	81.6944	143.555	81.5718
147.949	82.4934	147.949	82.4312	147.949	82.5471	147.949	82.3624	147.949	82.5912	147.949	82.2896	147.949	82.6263	147.949	82.2149	147.949	82.6539	147.949	82.14	147.949	82.6762	147.949	82.0654	147.949	82.6949	147.949	81.9909	147.949	82.7093	147.949	81.9153	147.949	82.7163	147.949	81.8376	147.949	82.7097	147.949	81.7577	147.949	82.6817	147.949	81.6774	147.949	82.6249	147.949	81.6006	147.949	82.535	147.949	81.5339	147.949	82.4121	147.949	81.4856	147.949	82.2616	147.949	81.465	147.949	82.0941	147.949	81.48	147.949	81.9235	147.949	81.5357	147.949	81.765	147.949	81.6324
153.809	82.6843	153.809	82.6262	153.809	82.7315	153.809	82.5599	153.809	82.7666	153.809	82.4885	153.809	82.7907	153.809	82.415	153.809	82.8068	153.809	82.3413	153.809	82.8194	153.809	82.2678	153.809	82.8323	153.809	82.1936	153.809	82.8471	153.809	82.1173	153.809	82.8613	153.809	82.0374	153.809	82.8681	153.809	81.9539	153.809	82.8578	153.809	81.8687	153.809	82.8202	153.809	81.7868	153.809	82.7476	153.809	81.7158	153.809	82.6375	153.809	81.6653	153.809	82.4937	153.809	81.6457	153.809	82.3262	153.809	81.6655	153.809	82.1498	153.809	81.7296	153.809	81.9815	153.809	81.8373
159.668	82.957	159.668	82.9138	159.668	82.9922	159.668	82.8648	159.668	83.0187	159.668	82.8123	159.668	83.0379	159.668	82.7581	159.668	83.0531	159.668	82.7026	159.668	83.0689	159.668	82.645	159.668	83.0893	159.668	82.5831	159.668	83.1158	159.668	82.5149	159.668	83.1457	159.668	82.4388	159.668	83.1715	159.668	82.3554	159.668	83.1827	159.668	82.2677	159.668	83.1676	159.668	82.1821	159.668	83.1171	159.668	82.1079	159.668	83.0268	159.668	82.0561	159.668	82.8986	159.668	82.0381	159.668	82.7412	159.668	82.0626	159.668	82.5688	159.668	82.1337	159.668	82.3988	159.668	82.2488
165.527	83.1436	165.527	83.0886	165.527	83.1914	165.527	83.0306	165.527	83.2292	165.527	82.9738	165.527	83.2567	165.527	82.9219	165.527	83.2759	165.527	82.877	165.527	83.2907	165.527	82.8393	165.527	83.306	165.527	82.8067	165.527	83.3249	165.527	82.7762	165.527	83.3475	165.527	82.7442	165.527	83.3694	165.527	82.7083	165.527	83.3827	165.527	82.6681	165.527	83.3781	165.527	82.6259	165.527	83.3472	165.527	82.5872	165.527	83.2855	165.527	82.5597	165.527	83.1938	165.527	82.5524	165.527	83.0785	165.527	82.5731	165.527	82.9506	165.527	82.6265	165.527	82.8239	165.527	82.7122
171.387	83.7288	171.387	83.665	171.387	83.7797	171.387	83.5931	171.387	83.8129	171.387	83.5173	171.387	83.8253	171.387	83.4403	171.387	83.8166	171.387	83.3631	171.387	83.7895	171.387	83.2858	171.387	83.7491	171.387	83.2076	171.387	83.7009	171.387	83.1281	171.387	83.649	171.387	83.0471	171.387	83.595	171.387	82.9658	171.387	83.5374	171.387	82.8868	171.387	83.4731	171.387	82.8144	171.387	83.3987	171.387	82.754	171.387	83.3125	171.387	82.7119	171.387	83.2148	171.387	82.6939	171.387	83.1091	171.387	82.704	171.387	83.0012	171.387	82.7435	171.387	82.8987	171.387	82.8103
177.246	84.1633	177.246	84.1044	177.246	84.187	177.246	84.013	177.246	84.1748	177.246	83.8925	177.246	84.1283	177.246	83.7468	177.246	84.0524	177.246	83.5798	177.246	83.9537	177.246	83.3958	177.246	83.8393	177.246	83.1999	177.246	83.7147	177.246	82.9984	177.246	83.5822	177.246	82.7989	177.246	83.4418	177.246	82.6103	177.246	83.2927	177.246	82.4421	177.246	83.1356	177.246	82.3031	177.246	82.9748	177.246	82.2005	177.246	82.8175	177.246	82.1379	177.246	82.6707	177.246	82.1155	177.246	82.5391	177.246	82.1294	177.246	82.424	177.246	82.1732	177.246	82.3244	177.246	82.24
183.105	83.6501	183.105	83.6223	183.105	83.6632	183.105	83.5801	183.105	83.6634	183.105	83.525	183.105	83.6559	183.105	83.4583	183.105	83.6492	183.105	83.3805	183.105	83.6537	183.105	83.2906	183.105	83.6771	183.105	83.187	183.105	83.721	183.105	83.068	183.105	83.7772	183.105	82.9334	183.105	83.8285	183.105	82.7859	183.105	83.8526	183.105	82.6322	183.105	83.8289	183.105	82.4835	183.105	83.7442	183.105	82.3544	183.105	83.5961	183.105	82.2616	183.105	83.3942	183.105	82.2201	183.105	83.1572	183.105	82.2406	183.105	82.9092	183.105	82.3269	183.105	82.6747	183.105	82.4751
188.965	84.0775	188.965	84.0308	188.965	84.0908	188.965	83.9546	188.965	84.0697	188.965	83.8538	188.965	84.0173	188.965	83.7336	188.965	83.942	188.965	83.5989	188.965	83.8564	188.965	83.4544	188.965	83.7747	188.965	83.3048	188.965	83.7085	188.965	83.1546	188.965	83.6634	188.965	83.0082	188.965	83.6363	188.965	82.8705	188.965	83.6175	188.965	82.7469	188.965	83.5933	188.965	82.6437	188.965	83.5506	188.965	82.5682	188.965	83.4801	188.965	82.528	188.965	83.3783	188.965	82.5295	188.965	83.248	188.965	82.5759	188.965	83.0977	188.965	82.6657	188.965	82.9403	188.965	82.7913
196.289	84.3301	196.289	84.3192	196.289	84.3043	196.289	84.2722	196.289	84.2442	196.289	84.1917	196.289	84.1572	196.289	84.0805	196.289	84.0563	196.289	83.9414	196.289	83.9576	196.289	83.7776	196.289	83.8756	196.289	83.593	196.289	83.8181	196.289	83.3927	196.289	83.7821	196.289	83.183	196.289	83.7547	196.289	82.972	196.289	83.7169	196.289	82.7694	196.289	83.6511	196.289	82.5865	196.289	83.5464	196.289	82.4356	196.289	83.4016	196.289	82.3293	196.289	83.2242	196.289	82.2777	196.289	83.0274	196.289	82.2865	196.289	82.8267	196.289	82.355	196.289	82.6379	196.289	82.476
203.613	84.1588	203.613	84.1301	203.613	84.1402	203.613	84.0574	203.613	84.0751	203.613	83.9471	203.613	83.9707	203.613	83.8064	203.613	83.8402	203.613	83.6433	203.613	83.7015	203.613	83.4657	203.613	83.5726	203.613	83.2815	203.613	83.4668	203.613	83.0984	203.613	83.3883	203.613	82.9231	203.613	83.331	203.613	82.7617	203.613	83.2816	203.613	82.6191	203.613	83.2247	203.613	82.4995	203.613	83.1489	203.613	82.4069	203.613	83.0502	203.613	82.3452	203.613	82.9317	203.613	82.3177	203.613	82.802	203.613	82.3264	203.613	82.6715	203.613	82.3708	203.613	82.5502	203.613	82.4474
210.938	84.0783	210.938	84.0786	210.938	84.0347	210.938	84.0362	210.938	83.9523	210.938	83.9551	210.938	83.8426	210.938	83.8408	210.938	83.7225	210.938	83.699	210.938	83.6109	210.938	83.5353	210.938	83.523	210.938	83.355	210.938	83.4651	210.938	83.1633	210.938	83.4324	210.938	82.9664	210.938	83.4102	210.938	82.7712	210.938	83.3792	210.938	82.5861	210.938	83.3223	210.938	82.4213	210.938	83.2295	210.938	82.2874	210.938	83.1011	210.938	82.1949	210.938	82.9457	210.938	82.1513	210.938	82.7766	210.938	82.1597	210.938	82.6077	210.938	82.2176	210.938	82.4512	210.938	82.3178
218.262	83.8973	218.262	83.8452	218.262	83.9089	218.262	83.7539	218.262	83.885	218.262	83.6297	218.262	83.8362	218.262	83.4825	218.262	83.776	218.262	83.3237	218.262	83.7179	218.262	83.1637	218.262	83.6714	218.262	83.011	218.262	83.6405	218.262	82.8709	218.262	83.6224	218.262	82.7454	218.262	83.6078	218.262	82.6342	218.262	83.5834	218.262	82.5366	218.262	83.5354	218.262	82.4529	218.262	83.4543	218.262	82.3864	218.262	83.3374	218.262	82.3433	218.262	83.1893	218.262	82.3318	218.262	83.0209	218.262	82.3589	218.262	82.8464	218.262	82.4281	218.262	82.6808	218.262	82.5377
225.586	84.0343	225.586	83.9867	225.586	84.0372	225.586	83.8936	225.586	84.0013	225.586	83.759	225.586	83.9356	225.586	83.5914	225.586	83.8504	225.586	83.4022	225.586	83.7557	225.586	83.2041	225.586	83.6602	225.586	83.0095	225.586	83.5706	225.586	82.8289	225.586	83.4914	225.586	82.67	225.586	83.4228	225.586	82.5373	225.586	83.3612	225.586	82.4332	225.586	83.3	225.586	82.3587	225.586	83.2323	225.586	82.3147	225.586	83.1525	225.586	82.3031	225.586	83.058	225.586	82.3254	225.586	82.9488	225.586	82.3816	225.586	82.828	225.586	82.4683	225.586	82.7015	225.586	82.5782
232.91	84.1621	232.91	84.1137	232.91	84.1603	232.91	84.0179	232.91	84.1092	232.91	83.8806	232.91	84.0132	232.91	83.7099	232.91	83.8801	232.91	83.5147	232.91	83.7195	232.91	83.3033	232.91	83.5429	232.91	83.0831	232.91	83.3613	232.91	82.8608	232.91	83.1844	232.91	82.6428	232.91	83.0189	232.91	82.4363	232.91	82.8688	232.91	82.2499	232.91	82.7359	232.91	82.0931	232.91	82.6199	232.91	81.975	232.91	82.5185	232.91	81.9029	232.91	82.4266	232.91	81.8799	232.91	82.3373	232.91	81.9032	232.91	82.2446	232.91	81.9643	232.91	82.1472	232.91	82.0501
241.699	83.7078	241.699	83.6193	241.699	83.7538	241.699	83.4913	241.699	83.7606	241.699	83.3325	241.699	83.7362	241.699	83.1551	241.699	83.6906	241.699	82.9716	241.699	83.6318	241.699	82.7919	241.699	83.5622	241.699	82.6204	241.699	83.4764	241.699	82.4563	241.699	83.3613	241.699	82.2952	241.699	83.2008	241.699	82.1321	241.699	82.9832	241.699	81.9645	241.699	82.7094	241.699	81.7948	241.699	82.398	241.699	81.6314	241.699	82.0833	241.699	81.4873	241.699	81.8038	241.699	81.3757	241.699	81.5862	241.699	81.3055	241.699	81.4357	241.699	81.2785	241.699	81.3418	241.699	81.2912
250.488	83.6046	250.488	83.4723	250.488	83.6853	250.488	83.2937	250.488	83.7168	250.488	83.0821	250.488	83.7086	250.488	82.8567	250.488	83.6742	250.488	82.6384	250.488	83.6293	250.488	82.4447	250.488	83.5868	250.488	82.2843	250.488	83.5517	250.488	82.1549	250.488	83.5172	250.488	82.0447	250.488	83.4637	250.488	81.937	250.488	83.3658	250.488	81.817	250.488	83.2007	250.488	81.6776	250.488	82.9586	250.488	81.5228	250.488	82.6476	250.488	81.3682	250.488	82.295	250.488	81.2374	250.488	81.9405	250.488	81.156	250.488	81.6247	250.488	81.1448	250.488	81.3784	250.488	81.2172
259.277	82.8587	259.277	82.6861	259.277	82.9922	259.277	82.4863	259.277	83.0828	259.277	82.2793	259.277	83.135	259.277	82.0907	259.277	83.1609	259.277	81.9478	259.277	83.1766	259.277	81.8721	259.277	83.1963	259.277	81.8715	259.277	83.225	259.277	81.9348	259.277	83.2542	259.277	82.0335	259.277	83.2642	259.277	82.1306	259.277	83.2308	259.277	82.1909	259.277	83.133	259.277	82.1899	259.277	82.9606	259.277	82.1191	259.277	82.7185	259.277	81.9882	259.277	82.4278	259.277	81.8242	259.277	82.1239	259.277	81.6677	259.277	81.8504	259.277	81.5643	259.277	81.65	259.277	81.5522
268.066	81.8756	268.066	81.7449	268.066	81.8252	268.066	81.4314	268.066	81.6222	268.066	80.9598	268.066	81.3309	268.066	80.389	268.066	81.0601	268.066	79.824	268.066	80.9509	268.066	79.4125	268.066	81.1192	268.066	79.2943	268.066	81.5765	268.066	79.5162	268.066	82.2163	268.066	80.0015	268.066	82.8864	268.066	80.6132	268.066	83.4631	268.066	81.2313	268.066	83.8775	268.066	81.7818	268.066	84.109	268.066	82.2312	268.066	84.1714	268.066	82.575	268.066	84.0999	268.066	82.8289	268.066	83.9405	268.066	83.021	268.066	83.7401	268.066	83.185	268.066	83.5364	268.066	83.3509
276.855	85.5264	276.855	85.4623	276.855	85.4174	276.855	85.2227	276.855	85.1377	276.855	84.8056	276.855	84.6905	276.855	84.2127	276.855	84.0868	276.855	83.4537	276.855	83.364	276.855	82.5558	276.855	82.619	276.855	81.5844	276.855	82.0368	276.855	80.6732	276.855	81.8419	276.855	80.0418	276.855	82.131	276.855	79.9169	276.855	82.7737	276.855	80.3502	276.855	83.5414	276.855	81.164	276.855	84.2605	276.855	82.1152	276.855	84.8441	276.855	83.0337	276.855	85.2626	276.855	83.8358	276.855	85.514	276.855	84.4905	276.855	85.6062	276.855	84.9918	276.855	85.5477	276.855	85.343
287.109	85.5446	287.109	85.4818	287.109	85.4767	287.109	85.2889	287.109	85.2787	287.109	84.9681	287.109	84.9538	287.109	84.5243	287.109	84.5098	287.109	83.967	287.109	83.9658	287.109	83.3137	287.109	83.3633	287.109	82.5955	287.109	82.7805	287.109	81.8664	287.109	82.3357	287.109	81.2129	287.109	82.15	287.109	80.751	287.109	82.273	287.109	80.5914	287.109	82.6407	287.109	80.7753	287.109	83.1223	287.109	81.2418	287.109	83.5944	287.109	81.8668	287.109	83.9755	287.109	82.5285	287.109	84.2216	287.109	83.1393	287.109	84.3137	287.109	83.6465	287.109	84.246	287.109	84.0208
297.363	85.8072	297.363	85.779	297.363	85.7223	297.363	85.6372	297.363	85.5223	297.363	85.3798	297.363	85.2032	297.363	85.0038	297.363	84.7616	297.363	84.5073	297.363	84.2026	297.363	83.8935	297.363	83.5536	297.363	83.1775	297.363	82.8826	297.363	82.3977	297.363	82.3067	297.363	81.6306	297.363	81.964	297.363	80.9973	297.363	81.9388	297.363	80.6369	297.363	82.1996	297.363	80.6343	297.363	82.6244	297.363	80.9584	297.363	83.0778	297.363	81.4882	297.363	83.4599	297.363	82.0899	297.363	83.7125	297.363	82.6648	297.363	83.8089	297.363	83.1529	297.363	83.7425	297.363	83.5192
307.617	85.6311	307.617	85.5204	307.617	85.6383	307.617	85.3088	307.617	85.5385	307.617	84.9992	307.617	85.3258	307.617	84.5968	307.617	84.9927	307.617	84.1095	307.617	84.5338	307.617	83.5491	307.617	83.9545	307.617	82.9316	307.617	83.2845	307.617	82.2793	307.617	82.592	307.617	81.6257	307.617	81.9882	307.617	81.0241	307.617	81.6014	307.617	80.5539	307.617	81.513	307.617	80.3096	307.617	81.701	307.617	80.3576	307.617	82.0543	307.617	80.6855	307.617	82.4383	307.617	81.1985	307.617	82.7446	307.617	81.7688	307.617	82.9041	307.617	82.2847	307.617	82.882	307.617	82.6701
319.336	85.5169	319.336	85.4395	319.336	85.4758	319.336	85.2419	319.336	85.3194	319.336	84.927	319.336	85.0499	319.336	84.5044	319.336	84.6681	319.336	83.992	319.336	84.1764	319.336	83.4147	319.336	83.5866	319.336	82.8042	319.336	82.9315	319.336	82.1986	319.336	82.2785	319.336	81.6455	319.336	81.7317	319.336	81.2021	319.336	81.4074	319.336	80.9261	319.336	81.3745	319.336	80.8538	319.336	81.6039	319.336	80.981	319.336	81.9826	319.336	81.2634	319.336	82.3772	319.336	81.6366	319.336	82.684	319.336	82.0348	319.336	82.8447	319.336	82.4001	319.336	82.8406	319.336	82.6825
329.59	85.1569	329.59	85.0705	329.59	85.1511	329.59	84.8958	329.59	85.048	329.59	84.6363	329.59	84.8398	329.59	84.2948	329.59	84.5165	329.59	83.8726	329.59	84.0706	329.59	83.3693	329.59	83.5051	329.59	82.7866	329.59	82.8425	329.59	82.1369	329.59	82.1321	329.59	81.4577	329.59	81.4539	329.59	80.8248	329.59	80.9178	329.59	80.3494	329.59	80.643	329.59	80.1417	329.59	80.7008	329.59	80.247	329.59	81.051	329.59	80.6136	329.59	81.5495	329.59	81.1251	329.59	82.0291	329.59	81.6566	329.59	82.3654	329.59	82.1064	329.59	82.4945	329.59	82.4015
341.309	85.1153	341.309	85.008	341.309	85.1103	341.309	84.7891	341.309	84.9954	341.309	84.4645	341.309	84.7729	341.309	84.045	341.309	84.4439	341.309	83.5441	341.309	84.0113	341.309	82.9766	341.309	83.4874	341.309	82.36	341.309	82.9014	341.309	81.7194	341.309	82.3	341.309	81.0967	341.309	81.7404	341.309	80.5558	341.309	81.2814	341.309	80.1748	341.309	80.9802	341.309	80.0198	341.309	80.8852	341.309	80.1125	341.309	81.0088	341.309	80.4151	341.309	81.2968	341.309	80.8447	341.309	81.6366	341.309	81.3017	341.309	81.9072	341.309	81.6939	341.309	82.0232	341.309	81.9492
353.027	84.9139	353.027	84.8127	353.027	84.9066	353.027	84.6142	353.027	84.7791	353.027	84.3293	353.027	84.5215	353.027	83.9655	353.027	84.1308	353.027	83.5235	353.027	83.6217	353.027	82.9946	353.027	83.0369	353.027	82.3644	353.027	82.4471	353.027	81.6247	353.027	81.9323	353.027	80.7939	353.027	81.5487	353.027	79.9447	353.027	81.3081	353.027	79.2264	353.027	81.1909	353.027	78.8409	353.027	81.183	353.027	78.9262	353.027	81.289	353.027	79.431	353.027	81.5014	353.027	80.1542	353.027	81.7621	353.027	80.8861	353.027	81.9707	353.027	81.4841	353.027	82.0287	353.027	81.873
366.211	85.1067	366.211	85.0432	366.211	85.0588	366.211	84.8763	366.211	84.8919	366.211	84.6133	366.211	84.5993	366.211	84.258	366.211	84.1772	366.211	83.8094	366.211	83.629	366.211	83.2616	366.211	82.9726	366.211	82.609	366.211	82.247	366.211	81.8552	366.211	81.522	366.211	81.0253	366.211	80.9038	366.211	80.1795	366.211	80.518	366.211	79.4242	366.211	80.4474	366.211	78.9052	366.211	80.6638	366.211	78.7549	366.211	81.0383	366.211	79.0044	366.211	81.4202	366.211	79.5501	366.211	81.6951	366.211	80.2209	366.211	81.795	366.211	80.8621	366.211	81.6882	366.211	81.3699
379.395	85.0886	379.395	84.9927	379.395	85.0986	379.395	84.8173	379.395	85.0129	379.395	84.5651	379.395	84.8193	379.395	84.235	379.395	84.507	379.395	83.8228	379.395	84.0732	379.395	83.3235	379.395	83.528	379.395	82.7373	379.395	82.8926	379.395	82.076	379.395	82.1935	379.395	81.3695	379.395	81.4624	379.395	80.671	379.395	80.7588	379.395	80.0597	379.395	80.2088	379.395	79.636	379.395	79.9972	379.395	79.4938	379.395	80.2227	379.395	79.6704	379.395	80.7513	379.395	80.1086	379.395	81.3144	379.395	80.6775	379.395	81.6989	379.395	81.2281	379.395	81.8082	379.395	81.6349
392.578	84.8808	392.578	84.7859	392.578	84.8684	392.578	84.5937	392.578	84.7359	392.578	84.3133	392.578	84.4692	392.578	83.9515	392.578	84.0609	392.578	83.5114	392.578	83.5223	392.578	82.9904	392.578	82.8918	392.578	82.3844	392.578	82.2302	392.578	81.697	392.578	81.5998	392.578	80.9518	392.578	81.0405	392.578	80.2029	392.578	80.5684	392.578	79.5406	392.578	80.2071	392.578	79.085	392.578	80.0206	392.578	78.9506	392.578	80.0871	392.578	79.1778	392.578	80.4032	392.578	79.6847	392.578	80.8351	392.578	80.304	392.578	81.197	392.578	80.8633	392.578	81.3503	392.578	81.2355
405.762	84.9994	405.762	84.9376	405.762	84.9244	405.762	84.7575	405.762	84.6947	405.762	84.4707	405.762	84.3057	405.762	84.0816	405.762	83.7813	405.762	83.5896	405.762	83.1799	405.762	82.9945	405.762	82.5768	405.762	82.303	405.762	82.0235	405.762	81.5341	405.762	81.5189	405.762	80.7218	405.762	81.0313	405.762	79.9159	405.762	80.5545	405.762	79.1891	405.762	80.1497	405.762	78.6534	405.762	79.933	405.762	78.4484	405.762	79.9911	405.762	78.6535	405.762	80.2873	405.762	79.1924	405.762	80.6704	405.762	79.868	405.762	80.9701	405.762	80.482	405.762	81.066	405.762	80.9022
420.41	84.513	420.41	84.5374	420.41	84.3507	420.41	84.4268	420.41	84.0587	420.41	84.1899	420.41	83.6617	420.41	83.8388	420.41	83.2029	420.41	83.3881	420.41	82.7337	420.41	82.8547	420.41	82.2921	420.41	82.2565	420.41	81.8799	420.41	81.6107	420.41	81.4597	420.41	80.9335	420.41	80.9792	420.41	80.2502	420.41	80.4202	420.41	79.6147	420.41	79.863	420.41	79.1268	420.41	79.5137	420.41	78.9108	420.41	79.5792	420.41	79.0411	420.41	80.0275	420.41	79.472	420.41	80.5933	420.41	80.0556	420.41	81.0181	420.41	80.6194	420.41	81.1694	420.41	81.0222
435.059	84.2233	435.059	84.1795	435.059	84.1286	435.059	83.9955	435.059	83.9074	435.059	83.6777	435.059	83.5864	435.059	83.2417	435.059	83.2087	435.059	82.7133	435.059	82.8261	435.059	82.1262	435.059	82.4792	435.059	81.5138	435.059	82.1738	435.059	80.8978	435.059	81.8684	435.059	80.284	435.059	81.4851	435.059	79.6724	435.059	80.9579	435.059	79.0858	435.059	80.3183	435.059	78.6046	435.059	79.7811	435.059	78.3717	435.059	79.6716	435.059	78.5175	435.059	80.0681	435.059	79.0341	435.059	80.6626	435.059	79.7544	435.059	81.1047	435.059	80.4633	435.059	81.222	435.059	80.9897
451.172	84.7074	451.172	84.5751	451.172	84.6907	451.172	84.3016	451.172	84.5242	451.172	83.9016	451.172	84.2126	451.172	83.392	451.172	83.7646	451.172	82.7851	451.172	83.1931	451.172	82.0845	451.172	82.5249	451.172	81.2887	451.172	81.8153	451.172	80.4026	451.172	81.1483	451.172	79.454	451.172	80.5854	451.172	78.5131	451.172	80.0944	451.172	77.7103	451.172	79.5616	451.172	77.2181	451.172	78.9142	451.172	77.1655	451.172	78.2755	451.172	77.5352	451.172	78.0007	451.172	78.1651	451.172	78.3143	451.172	78.8407	451.172	78.9415	451.172	79.3672	451.172	79.4454	451.172	79.5966
465.82	84.5105	465.82	84.4669	465.82	84.4002	465.82	84.2668	465.82	84.1452	465.82	83.9161	465.82	83.7629	465.82	83.431	465.82	83.2816	465.82	82.836	465.82	82.7397	465.82	82.1575	465.82	82.1787	465.82	81.4139	465.82	81.6301	465.82	80.6081	465.82	81.1059	465.82	79.7296	465.82	80.5994	465.82	78.7771	465.82	80.1012	465.82	77.8129	465.82	79.631	465.82	77.0392	465.82	79.2741	465.82	76.7847	465.82	79.1696	465.82	77.2226	465.82	79.3939	465.82	78.1276	465.82	79.8386	465.82	79.1121	465.82	80.2718	465.82	79.905	465.82	80.4889	465.82	80.3768
483.398	83.4725	483.398	83.5406	483.398	83.2791	483.398	83.4993	483.398	82.9573	483.398	83.3672	483.398	82.5274	483.398	83.1596	483.398	82.0331	483.398	82.8836	483.398	81.5263	483.398	82.5366	483.398	81.0531	483.398	82.1043	483.398	80.6611	483.398	81.5592	483.398	80.4066	483.398	80.8652	483.398	80.3127	483.398	80.0005	483.398	80.3174	483.398	78.998	483.398	80.2962	483.398	77.9956	483.398	80.1538	483.398	77.2613	483.398	79.9112	483.398	77.0896	483.398	79.7218	483.398	77.5396	483.398	79.7311	483.398	78.3448	483.398	79.8793	483.398	79.1503	483.398	79.9375	483.398	79.7126
499.512	83.0758	499.512	82.9307	499.512	83.0209	499.512	82.6236	499.512	82.7568	499.512	82.2165	499.512	82.3042	499.512	81.7858	499.512	81.7127	499.512	81.3995	499.512	81.0526	499.512	81.0858	499.512	80.407	499.512	80.8141	499.512	79.8639	499.512	80.5021	499.512	79.4931	499.512	80.0466	499.512	79.3065	499.512	79.3611	499.512	79.2457	499.512	78.4255	499.512	79.2331	499.512	77.3738	499.512	79.2513	499.512	76.6151	499.512	79.3762	499.512	76.6888	499.512	79.6982	499.512	77.6157	499.512	80.1751	499.512	78.8445	499.512	80.6106	499.512	79.8987	499.512	80.7867	499.512	80.5643
517.09	83.9036	517.09	83.4903	517.09	84.0201	517.09	82.8041	517.09	83.8565	517.09	81.936	517.09	83.454	517.09	81.0718	517.09	82.8612	517.09	80.4657	517.09	82.1159	517.09	80.2841	517.09	81.2505	517.09	80.4484	517.09	80.3424	517.09	80.7112	517.09	79.5734	517.09	80.8366	517.09	79.1858	517.09	80.6683	517.09	79.2773	517.09	80.1124	517.09	79.6763	517.09	79.117	517.09	80.0887	517.09	77.6986	517.09	80.2834	517.09	76.0884	517.09	80.1559	517.09	74.9934	517.09	79.7236	517.09	75.169	517.09	79.0819	517.09	76.2266	517.09	78.3046	517.09	77.3641
536.133	85.1928	536.133	85.0037	536.133	85.0859	536.133	84.4981	536.133	84.7233	536.133	83.676	536.133	84.1571	536.133	82.5687	536.133	83.423	536.133	81.2671	536.133	82.5169	536.133	79.9657	536.133	81.4322	536.133	78.9763	536.133	80.2576	536.133	78.5689	536.133	79.2353	536.133	78.6818	536.133	78.6323	536.133	78.9768	536.133	78.4621	536.133	79.1703	536.133	78.4848	536.133	79.1668	536.133	78.5829	536.133	79.029	536.133	78.9553	536.133	78.9371	536.133	79.7513	536.133	79.1189	536.133	80.6823	536.133	79.6757	536.133	81.3281	536.133	80.4493	536.133	81.4791	536.133	81.1373
555.176	84.385	555.176	84.3797	555.176	84.1542	555.176	84.1034	555.176	83.7462	555.176	83.5575	555.176	83.2124	555.176	82.7769	555.176	82.561	555.176	81.816	555.176	81.7561	555.176	80.7395	555.176	80.7588	555.176	79.6398	555.176	79.5698	555.176	78.6657	555.176	78.2744	555.176	77.9778	555.176	77.1741	555.176	77.6203	555.176	76.8654	555.176	77.4895	555.176	77.5972	555.176	77.4635	555.176	78.7755	555.176	77.5211	555.176	79.7887	555.176	77.759	555.176	80.443	555.176	78.2901	555.176	80.7936	555.176	79.0755	555.176	80.9353	555.176	79.9003	555.176	80.8722	555.176	80.5353
574.219	83.9146	574.219	83.7927	574.219	83.8808	574.219	83.4923	574.219	83.7097	574.219	82.996	574.219	83.3934	574.219	82.2902	574.219	82.8968	574.219	81.3783	574.219	82.1945	574.219	80.3199	574.219	81.2948	574.219	79.2628	574.219	80.1946	574.219	78.4058	574.219	78.811	574.219	77.8651	574.219	77.0678	574.219	77.562	574.219	75.3544	574.219	77.2905	574.219	75.0109	574.219	76.9117	574.219	76.4008	574.219	76.5048	574.219	78.1173	574.219	76.3895	574.219	79.4121	574.219	76.8918	574.219	80.205	574.219	77.9321	574.219	80.5547	574.219	79.0845	574.219	80.486	574.219	79.988
594.727	83.3457	594.727	83.328	594.727	83.169	594.727	83.101	594.727	82.836	594.727	82.6758	594.727	82.3899	594.727	82.0826	594.727	81.8613	594.727	81.3599	594.727	81.2716	594.727	80.5378	594.727	80.6413	594.727	79.6213	594.727	79.9695	594.727	78.6109	594.727	79.2015	594.727	77.5757	594.727	78.2436	594.727	76.6993	594.727	77.0086	594.727	76.1586	594.727	75.4743	594.727	75.9249	594.727	74.1099	594.727	75.8506	594.727	74.5397	594.727	75.9813	594.727	76.8031	594.727	76.597	594.727	78.9378	594.727	77.7526	594.727	80.1766	594.727	79.0567	594.727	80.5044	594.727	80.0677
615.234	83.2655	615.234	83.3016	615.234	82.9931	615.234	83.1043	615.234	82.5014	615.234	82.6874	615.234	81.8318	615.234	82.0608	615.234	81.0708	615.234	81.2397	615.234	80.3663	615.234	80.2876	615.234	79.8374	615.234	79.3453	615.234	79.398	615.234	78.5607	615.234	78.7659	615.234	77.9434	615.234	77.7175	615.234	77.3433	615.234	76.4129	615.234	76.6368	615.234	75.6297	615.234	75.9152	615.234	75.9534	615.234	75.4777	615.234	76.7207	615.234	75.6113	615.234	77.3244	615.234	76.346	615.234	77.9163	615.234	77.4253	615.234	78.6342	615.234	78.4585	615.234	79.1402	615.234	79.0959
637.207	82.9897	637.207	82.8468	637.207	82.8375	637.207	82.4192	637.207	82.4589	637.207	81.7789	637.207	81.9905	637.207	81.0294	637.207	81.5407	637.207	80.2516	637.207	81.0514	637.207	79.4617	637.207	80.3313	637.207	78.6593	637.207	79.275	637.207	77.9484	637.207	78.0374	637.207	77.5118	637.207	76.9694	637.207	77.3287	637.207	76.2593	637.207	77.0889	637.207	75.7803	637.207	76.4854	637.207	75.5882	637.207	75.4698	637.207	76.0437	637.207	74.4343	637.207	76.9873	637.207	74.2048	637.207	77.8263	637.207	75.1104	637.207	78.2419	637.207	76.4539	637.207	78.1607	637.207	77.5553
659.18	82.7225	659.18	82.7594	659.18	82.4142	659.18	82.4917	659.18	81.9127	659.18	81.9527	659.18	81.2859	659.18	81.2133	659.18	80.5784	659.18	80.3371	659.18	79.8565	659.18	79.368	659.18	79.1719	659.18	78.3614	659.18	78.4025	659.18	77.4186	659.18	77.2478	659.18	76.6667	659.18	75.5264	659.18	76.1488	659.18	73.6159	659.18	75.7351	659.18	72.7098	659.18	75.2317	659.18	73.1982	659.18	74.5849	659.18	74.1337	659.18	74.0831	659.18	75.5014	659.18	74.3763	659.18	77.2163	659.18	75.6566	659.18	78.4893	659.18	77.2267	659.18	78.8901	659.18	78.4148
682.617	82.5342	682.617	82.773	682.617	81.9602	682.617	82.6651	682.617	81.1488	682.617	82.2091	682.617	80.3181	682.617	81.4052	682.617	79.6691	682.617	80.3212	682.617	79.2229	682.617	79.1495	682.617	78.9243	682.617	78.127	682.617	78.7486	682.617	77.3349	682.617	78.538	682.617	76.6801	682.617	77.8874	682.617	76.142	682.617	76.3758	682.617	75.808	682.617	74.4864	682.617	75.6081	682.617	74.8603	682.617	75.2979	682.617	76.7783	682.617	74.7614	682.617	77.7747	682.617	74.4002	682.617	77.8581	682.617	75.0217	682.617	77.814	682.617	76.388	682.617	77.8523	682.617	77.4706
707.52	82.6745	707.52	83.1075	707.52	82.0278	707.52	83.1726	707.52	81.434	707.52	82.8743	707.52	81.0483	707.52	82.309	707.52	80.7862	707.52	81.5324	707.52	80.4995	707.52	80.4711	707.52	80.084	707.52	79.0705	707.52	79.387	707.52	77.6233	707.52	78.2103	707.52	76.7877	707.52	76.3948	707.52	76.8354	707.52	73.6474	707.52	77.2944	707.52	70.4431	707.52	77.5948	707.52	72.5624	707.52	77.4124	707.52	76.4859	707.52	76.6358	707.52	78.4345	707.52	75.4806	707.52	78.7534	707.52	74.8315	707.52	78.1823	707.52	75.4332	707.52	77.4054	707.52	76.5207
732.422	80.7624	732.422	81.7772	732.422	79.3113	732.422	82.3887	732.422	77.3995	732.422	82.5882	732.422	75.4006	732.422	82.3209	732.422	74.725	732.422	81.4251	732.422	75.9909	732.422	79.7133	732.422	77.6949	732.422	77.3833	732.422	78.9532	732.422	75.5885	732.422	79.4289	732.422	75.4753	732.422	78.5766	732.422	76.41	732.422	75.3554	732.422	77.627	732.422	65.5999	732.422	78.7626	732.422	69.7497	732.422	79.4265	732.422	77.4103	732.422	79.3558	732.422	80.6601	732.422	78.6912	732.422	82.0124	732.422	78.1073	732.422	82.0735	732.422	78.4292	732.422	81.1565	732.422	79.6965
757.324	84.6393	757.324	82.2459	757.324	85.9236	757.324	80.4143	757.324	85.8455	757.324	81.3193	757.324	84.6803	757.324	83.2197	757.324	82.8995	757.324	84.3978	757.324	80.2863	757.324	84.3556	757.324	75.7938	757.324	82.7624	757.324	74.6824	757.324	79.0131	757.324	79.4098	757.324	70.5604	757.324	82.4113	757.324	65.4756	757.324	83.6126	757.324	73.9241	757.324	82.5942	757.324	76.0782	757.324	77.7013	757.324	77.8044	757.324	62.9654	757.324	80.5038	757.324	79.7803	757.324	83.0917	757.324	84.5359	757.324	84.9808	757.324	86.635	757.324	86.336	757.324	87.3933	757.324	87.2125
785.156	87.2468	785.156	87.1763	785.156	86.3476	785.156	86.0089	785.156	85.1902	785.156	83.9592	785.156	84.7662	785.156	82.095	785.156	84.4696	785.156	81.9116	785.156	83.1112	785.156	82.5422	785.156	80.4422	785.156	82.6305	785.156	77.6215	785.156	81.7901	785.156	78.2219	785.156	79.9939	785.156	80.6848	785.156	77.1015	785.156	81.563	785.156	73.0096	785.156	80.0983	785.156	74.0995	785.156	75.3921	785.156	77.828	785.156	51.8982	785.156	79.7301	785.156	74.9316	785.156	80.7678	785.156	80.8941	785.156	81.5308	785.156	83.4384	785.156	82.3987	785.156	84.06	785.156	83.4488
811.523	86.6151	811.523	85.6489	811.523	87.194	811.523	84.9107	811.523	86.8915	811.523	84.5703	811.523	85.5019	811.523	84.3365	811.523	83.2397	811.523	83.9814	811.523	80.9562	811.523	83.4399	811.523	78.6931	811.523	82.5875	811.523	74.9613	811.523	81.111	811.523	72.4635	811.523	78.3328	811.523	76.666	811.523	73.2923	811.523	80.2673	811.523	68.2533	811.523	82.0583	811.523	66.6219	811.523	81.6917	811.523	66.42	811.523	77.9023	811.523	71.7398	811.523	59.2597	811.523	77.7507	811.523	76.5856	811.523	81.9296	811.523	82.3868	811.523	84.3547	811.523	84.779	811.523	85.3159
840.82	87.2505	840.82	86.5539	840.82	86.5918	840.82	84.8383	840.82	84.7764	840.82	83.0043	840.82	83.0356	840.82	82.4113	840.82	82.5125	840.82	82.9209	840.82	81.9758	840.82	83.0664	840.82	80.4882	840.82	82.3262	840.82	78.6473	840.82	81.1573	840.82	77.3486	840.82	80.3226	840.82	76.2563	840.82	79.9676	840.82	73.8785	840.82	79.2915	840.82	67.5721	840.82	78.6244	840.82	57.7865	840.82	80.0919	840.82	72.9962	840.82	81.6753	840.82	78.1052	840.82	81.9806	840.82	79.999	840.82	81.5038	840.82	79.8673	840.82	80.5626	840.82	79.0984	840.82	79.3864
870.117	85.8025	870.117	87.1266	870.117	84.6242	870.117	87.4105	870.117	84.8113	870.117	86.3133	870.117	85.2412	870.117	83.5241	870.117	84.7969	870.117	78.626	870.117	83.1455	870.117	73.7442	870.117	80.095	870.117	74.692	870.117	76.0205	870.117	76.0868	870.117	73.6511	870.117	75.9151	870.117	76.3965	870.117	74.6993	870.117	79.1367	870.117	73.0439	870.117	80.1652	870.117	72.4857	870.117	79.4384	870.117	74.9343	870.117	75.8328	870.117	76.1641	870.117	61.2785	870.117	76.4723	870.117	73.9968	870.117	77.9271	870.117	79.6092	870.117	80.2196	870.117	81.6633	870.117	81.7462
900.879	87.0979	900.879	86.7776	900.879	86.473	900.879	85.6163	900.879	85.1281	900.879	84.014	900.879	83.8106	900.879	82.7117	900.879	83.5299	900.879	82.5669	900.879	83.9065	900.879	83.4801	900.879	83.6777	900.879	84.7515	900.879	82.5076	900.879	85.8442	900.879	82.0927	900.879	86.1699	900.879	83.5483	900.879	85.4394	900.879	84.8987	900.879	84.5545	900.879	85.3373	900.879	84.1715	900.879	84.7478	900.879	82.6923	900.879	82.2343	900.879	78.4512	900.879	73.194	900.879	68.9469	900.879	75.9127	900.879	71.0952	900.879	83.3337	900.879	78.7257	900.879	84.8047	900.879	83.1336
933.105	86.7042	933.105	86.6105	933.105	86.4905	933.105	86.1726	933.105	86.1777	933.105	85.0593	933.105	85.8486	933.105	82.4796	933.105	84.7704	933.105	78.0212	933.105	81.5885	933.105	76.9107	933.105	73.5115	933.105	80.4615	933.105	64.5457	933.105	82.4147	933.105	74.5278	933.105	82.2483	933.105	77.2593	933.105	80.952	933.105	79.1554	933.105	80.4352	933.105	80.4302	933.105	80.2102	933.105	80.2005	933.105	77.6705	933.105	77.7863	933.105	70.475	933.105	74.2084	933.105	78.1657	933.105	77.3995	933.105	82.445	933.105	82.4947	933.105	84.453	933.105	85.2991	933.105	85.721
965.332	87.4016	965.332	88.1667	965.332	85.2783	965.332	87.6432	965.332	82.7545	965.332	85.7564	965.332	82.9967	965.332	82.2581	965.332	84.3888	965.332	77.2251	965.332	83.8524	965.332	73.8707	965.332	81.6192	965.332	77.219	965.332	80.3487	965.332	80.073	965.332	79.1798	965.332	79.643	965.332	77.4928	965.332	72.7452	965.332	77.6367	965.332	74.5927	965.332	79.7033	965.332	79.2605	965.332	80.6643	965.332	78.227	965.332	78.3747	965.332	76.9248	965.332	68.7536	965.332	82.1274	965.332	81.8266	965.332	86.272	965.332	87.2256	965.332	88.2685	965.332	89.0517	965.332	89.1347
1,000.49	85.3773	1,000.49	86.9061	1,000.49	82.9954	1,000.49	87.5252	1,000.49	80.9487	1,000.49	87.4016	1,000.49	79.3003	1,000.49	86.2577	1,000.49	78.499	1,000.49	83.7897	1,000.49	80.7095	1,000.49	79.5108	1,000.49	83.8831	1,000.49	72.3501	1,000.49	86.1886	1,000.49	74.3356	1,000.49	87.4313	1,000.49	75.5005	1,000.49	86.7616	1,000.49	74.1848	1,000.49	82.9795	1,000.49	83.3708	1,000.49	72.6921	1,000.49	86.4336	1,000.49	70.9846	1,000.49	84.5554	1,000.49	73.6397	1,000.49	74.5477	1,000.49	73.0073	1,000.49	79.5299	1,000.49	77.9832	1,000.49	87.2864	1,000.49	85.1354	1,000.49	90.3048	1,000.49	89.4108	1,000.49	90.97
1,035.64	83.4926	1,035.64	85.6206	1,035.64	84.9113	1,035.64	87.2861	1,035.64	86.6079	1,035.64	87.3923	1,035.64	85.4054	1,035.64	86.0213	1,035.64	81.0184	1,035.64	83.3075	1,035.64	76.0272	1,035.64	79.4882	1,035.64	77.6681	1,035.64	74.9013	1,035.64	81.2493	1,035.64	67.3967	1,035.64	82.806	1,035.64	64.1095	1,035.64	82.4947	1,035.64	74.099	1,035.64	80.4285	1,035.64	79.8119	1,035.64	75.4904	1,035.64	82.2823	1,035.64	80.1206	1,035.64	80.9386	1,035.64	83.2344	1,035.64	72.0842	1,035.64	82.2484	1,035.64	76.0705	1,035.64	77.8204	1,035.64	82.68	1,035.64	75.459	1,035.64	84.4039	1,035.64	79.9063	1,035.64	83.329
1,072.27	86.3916	1,072.27	86.0449	1,072.27	85.9399	1,072.27	85.1064	1,072.27	85.3898	1,072.27	84.5043	1,072.27	85.4404	1,072.27	84.8141	1,072.27	85.2	1,072.27	85.5031	1,072.27	83.8139	1,072.27	85.9477	1,072.27	81.1105	1,072.27	85.6604	1,072.27	77.9655	1,072.27	83.9955	1,072.27	76.7179	1,072.27	81.139	1,072.27	76.2509	1,072.27	80.9671	1,072.27	75.6807	1,072.27	82.473	1,072.27	78.0437	1,072.27	82.347	1,072.27	80.8054	1,072.27	79.6439	1,072.27	80.7179	1,072.27	72.1519	1,072.27	78.6684	1,072.27	70.0448	1,072.27	76.8327	1,072.27	76.1678	1,072.27	71.2681	1,072.27	75.8927	1,072.27	54.4938	1,072.27	71.7172
1,108.89	83.9655	1,108.89	83.9398	1,108.89	85.4919	1,108.89	85.1718	1,108.89	86.1494	1,108.89	85.6508	1,108.89	84.824	1,108.89	84.4623	1,108.89	82.2179	1,108.89	81.454	1,108.89	80.8308	1,108.89	77.8394	1,108.89	80.8278	1,108.89	76.8451	1,108.89	80.9409	1,108.89	77.8278	1,108.89	81.0311	1,108.89	78.0193	1,108.89	80.7162	1,108.89	76.8143	1,108.89	78.246	1,108.89	72.3207	1,108.89	73.3126	1,108.89	67.2383	1,108.89	74.2466	1,108.89	68.1555	1,108.89	77.4253	1,108.89	70.1275	1,108.89	77.7492	1,108.89	71.5029	1,108.89	73.6182	1,108.89	71.5248	1,108.89	70.5024	1,108.89	74.7835	1,108.89	75.7792	1,108.89	76.774
1,148.44	85.8164	1,148.44	85.0985	1,148.44	85.4923	1,148.44	83.3504	1,148.44	84.8605	1,148.44	82.2858	1,148.44	84.3061	1,148.44	82.7211	1,148.44	83.3652	1,148.44	82.5688	1,148.44	81.872	1,148.44	81.4312	1,148.44	80.3896	1,148.44	78.8365	1,148.44	79.1728	1,148.44	74.0317	1,148.44	77.5012	1,148.44	66.6787	1,148.44	75.466	1,148.44	67.4124	1,148.44	74.0422	1,148.44	73.1344	1,148.44	75.3881	1,148.44	73.9129	1,148.44	79.1958	1,148.44	70.6879	1,148.44	79.6395	1,148.44	67.0625	1,148.44	75.2282	1,148.44	69.0362	1,148.44	73.152	1,148.44	75.1176	1,148.44	68.377	1,148.44	78.9257	1,148.44	72.5105	1,148.44	78.7309
1,189.45	87.289	1,189.45	86.1518	1,189.45	87.1783	1,189.45	84.3246	1,189.45	86.2801	1,189.45	82.8179	1,189.45	85.3616	1,189.45	81.9425	1,189.45	83.6632	1,189.45	81.6548	1,189.45	81.0851	1,189.45	81.5964	1,189.45	79.1457	1,189.45	80.0756	1,189.45	78.784	1,189.45	77.0161	1,189.45	80.175	1,189.45	77.2589	1,189.45	80.924	1,189.45	79.673	1,189.45	78.4559	1,189.45	80.9777	1,189.45	69.554	1,189.45	80.3172	1,189.45	72.628	1,189.45	77.4914	1,189.45	80.9604	1,189.45	73.804	1,189.45	82.5995	1,189.45	69.5856	1,189.45	78.4773	1,189.45	68.325	1,189.45	55.6239	1,189.45	74.3433	1,189.45	75.7424	1,189.45	76.5759
1,230.47	88.5006	1,230.47	88.3759	1,230.47	88.3046	1,230.47	87.1658	1,230.47	88.1477	1,230.47	84.3864	1,230.47	87.3335	1,230.47	81.7957	1,230.47	84.9604	1,230.47	82.9813	1,230.47	80.9376	1,230.47	84.4041	1,230.47	78.1923	1,230.47	83.1219	1,230.47	79.6256	1,230.47	79.0069	1,230.47	79.3519	1,230.47	73.0096	1,230.47	75.9128	1,230.47	54.9494	1,230.47	74.6968	1,230.47	59.3528	1,230.47	75.9208	1,230.47	74.2281	1,230.47	78.9888	1,230.47	78.0291	1,230.47	80.1567	1,230.47	76.6399	1,230.47	77.9861	1,230.47	75.9153	1,230.47	77.7937	1,230.47	69.8032	1,230.47	77.5427	1,230.47	62.7296	1,230.47	74.05	1,230.47	70.4363
1,274.41	87.9539	1,274.41	87.8037	1,274.41	87.9837	1,274.41	86.7423	1,274.41	88.2327	1,274.41	84.5398	1,274.41	87.0542	1,274.41	82.0472	1,274.41	83.9571	1,274.41	82.0131	1,274.41	81.8708	1,274.41	83.7108	1,274.41	81.7525	1,274.41	83.8012	1,274.41	82.6212	1,274.41	82.6092	1,274.41	82.6569	1,274.41	82.6282	1,274.41	82.0008	1,274.41	83.3537	1,274.41	80.9316	1,274.41	82.1797	1,274.41	76.4134	1,274.41	80.6734	1,274.41	64.2127	1,274.41	80.8353	1,274.41	74.8628	1,274.41	78.5715	1,274.41	81.2993	1,274.41	75.4514	1,274.41	79.8082	1,274.41	75.3259	1,274.41	59.5549	1,274.41	72.7084	1,274.41	75.7973	1,274.41	69.4546
1,319.82	88.5681	1,319.82	87.3153	1,319.82	89.3672	1,319.82	86.8209	1,319.82	88.4337	1,319.82	86.0029	1,319.82	85.6909	1,319.82	83.199	1,319.82	83.8055	1,319.82	78.649	1,319.82	84.1007	1,319.82	81.0994	1,319.82	84.3613	1,319.82	82.973	1,319.82	84.2048	1,319.82	83.1386	1,319.82	83.2242	1,319.82	83.4387	1,319.82	82.2054	1,319.82	82.3155	1,319.82	81.8756	1,319.82	79.4423	1,319.82	81.002	1,319.82	77.1465	1,319.82	75.9239	1,319.82	75.4579	1,319.82	71.071	1,319.82	74.5193	1,319.82	80.3706	1,319.82	74.3985	1,319.82	79.5632	1,319.82	72.16	1,319.82	73.7441	1,319.82	68.4911	1,319.82	74.2711	1,319.82	71.9604
1,366.7	88.7356	1,366.7	87.8321	1,366.7	89.0986	1,366.7	86.4988	1,366.7	88.9907	1,366.7	84.7011	1,366.7	87.6673	1,366.7	82.7911	1,366.7	85.7194	1,366.7	81.1225	1,366.7	84.6128	1,366.7	79.3831	1,366.7	82.8142	1,366.7	78.7217	1,366.7	79.1449	1,366.7	79.9823	1,366.7	74.7082	1,366.7	79.9987	1,366.7	73.9148	1,366.7	79.9712	1,366.7	76.6052	1,366.7	78.8785	1,366.7	79.5357	1,366.7	74.8623	1,366.7	80.4902	1,366.7	69.0369	1,366.7	78.7855	1,366.7	62.1227	1,366.7	69.2861	1,366.7	74.318	1,366.7	77.1706	1,366.7	74.9419	1,366.7	78.1397	1,366.7	66.232	1,366.7	71.4856	1,366.7	68.6327
1,413.57	87.9525	1,413.57	87.3573	1,413.57	88.4365	1,413.57	85.4447	1,413.57	88.8967	1,413.57	82.8417	1,413.57	87.5328	1,413.57	81.6775	1,413.57	85.1672	1,413.57	79.9725	1,413.57	83.7056	1,413.57	75.7333	1,413.57	82.2053	1,413.57	77.4008	1,413.57	78.7336	1,413.57	80.5964	1,413.57	72.1069	1,413.57	79.7466	1,413.57	72.5129	1,413.57	75.9107	1,413.57	74.6116	1,413.57	65.2287	1,413.57	72.7035	1,413.57	69.8902	1,413.57	74.1216	1,413.57	75.1787	1,413.57	74.0167	1,413.57	70.0781	1,413.57	79.9486	1,413.57	74.7424	1,413.57	79.014	1,413.57	71.9715	1,413.57	71.2934	1,413.57	70.2186	1,413.57	73.4533	1,413.57	69.5719
1,463.38	86.7877	1,463.38	85.5337	1,463.38	88.2962	1,463.38	84.8821	1,463.38	88.4085	1,463.38	83.0387	1,463.38	86.8722	1,463.38	77.4232	1,463.38	85.5726	1,463.38	70.7158	1,463.38	82.3787	1,463.38	71.0212	1,463.38	76.0628	1,463.38	74.1725	1,463.38	75.2786	1,463.38	74.0612	1,463.38	79.3193	1,463.38	70.0566	1,463.38	79.89	1,463.38	73.8372	1,463.38	75.4719	1,463.38	72.5921	1,463.38	68.7537	1,463.38	70.8451	1,463.38	70.3746	1,463.38	73.7173	1,463.38	72.2162	1,463.38	73.6059	1,463.38	77.8723	1,463.38	72.7297	1,463.38	77.9138	1,463.38	73.1191	1,463.38	76.8329	1,463.38	72.6494	1,463.38	75.6543	1,463.38	70.5564
1,516.11	85.4142	1,516.11	84.2617	1,516.11	86.6345	1,516.11	83.8333	1,516.11	86.9546	1,516.11	82.7025	1,516.11	86.2839	1,516.11	77.7849	1,516.11	85.3432	1,516.11	72.4085	1,516.11	81.4961	1,516.11	76.0871	1,516.11	75.6126	1,516.11	75.5713	1,516.11	72.1845	1,516.11	71.3881	1,516.11	72.3307	1,516.11	71.2303	1,516.11	72.5026	1,516.11	69.7638	1,516.11	72.8298	1,516.11	72.2335	1,516.11	72.2855	1,516.11	69.951	1,516.11	76.3183	1,516.11	68.7928	1,516.11	77.8078	1,516.11	66.1265	1,516.11	71.3606	1,516.11	70.1769	1,516.11	68.0622	1,516.11	73.6331	1,516.11	72.9188	1,516.11	70.7677	1,516.11	67.1996	1,516.11	65.3148
1,568.85	85.1564	1,568.85	83.4136	1,568.85	85.2458	1,568.85	81.5936	1,568.85	84.2074	1,568.85	81.3233	1,568.85	84.4444	1,568.85	80.1317	1,568.85	83.3425	1,568.85	75.8365	1,568.85	77.4188	1,568.85	67.1544	1,568.85	74.4641	1,568.85	70.1195	1,568.85	72.2623	1,568.85	74.0102	1,568.85	70.7996	1,568.85	76.5329	1,568.85	65.9721	1,568.85	78.0124	1,568.85	56.232	1,568.85	75.7625	1,568.85	70.5126	1,568.85	70.3917	1,568.85	76.9351	1,568.85	68.9053	1,568.85	76.7545	1,568.85	69.7559	1,568.85	69.5693	1,568.85	68.4719	1,568.85	72.6934	1,568.85	70.621	1,568.85	69.5112	1,568.85	68.8043	1,568.85	62.491	1,568.85	65.6556
1,624.51	83.7496	1,624.51	83.0821	1,624.51	84.4472	1,624.51	82.26	1,624.51	83.703	1,624.51	80.2354	1,624.51	82.0576	1,624.51	77.7262	1,624.51	79.8362	1,624.51	76.3281	1,624.51	73.808	1,624.51	73.3028	1,624.51	73.2544	1,624.51	69.0399	1,624.51	72.6813	1,624.51	65.9729	1,624.51	72.7358	1,624.51	60.7412	1,624.51	69.3849	1,624.51	67.8881	1,624.51	71.4765	1,624.51	68.5835	1,624.51	69.2614	1,624.51	67.4909	1,624.51	68.9679	1,624.51	53.7417	1,624.51	70.5762	1,624.51	70.4483	1,624.51	71.6288	1,624.51	74.3139	1,624.51	71.8698	1,624.51	74.958	1,624.51	64.8085	1,624.51	71.4836	1,624.51	69.6699	1,624.51	67.2274
1,681.64	84.3064	1,681.64	83.1482	1,681.64	84.2287	1,681.64	80.7433	1,681.64	83.0584	1,681.64	79.4228	1,681.64	80.0609	1,681.64	79.507	1,681.64	73.7867	1,681.64	76.7622	1,681.64	71.4897	1,681.64	75.8991	1,681.64	64.6271	1,681.64	77.0484	1,681.64	62.068	1,681.64	73.184	1,681.64	63.0895	1,681.64	71.2349	1,681.64	63.5211	1,681.64	73.5547	1,681.64	64.2162	1,681.64	74.9382	1,681.64	68.0308	1,681.64	74.0801	1,681.64	72.2632	1,681.64	65.6873	1,681.64	76.071	1,681.64	72.869	1,681.64	75.566	1,681.64	72.4285	1,681.64	62.7831	1,681.64	71.6095	1,681.64	64.3089	1,681.64	73.2919	1,681.64	63.5865	1,681.64	72.311
1,741.7	86.5801	1,741.7	85.9648	1,741.7	85.8878	1,741.7	83.9746	1,741.7	83.833	1,741.7	80.2666	1,741.7	80.3259	1,741.7	78.2416	1,741.7	75.5532	1,741.7	79.5383	1,741.7	76.6138	1,741.7	78.5138	1,741.7	60.835	1,741.7	75.483	1,741.7	70.7852	1,741.7	74.8186	1,741.7	71.9647	1,741.7	72.9294	1,741.7	71.1799	1,741.7	66.3302	1,741.7	62.1123	1,741.7	67.7081	1,741.7	63.2322	1,741.7	71.34	1,741.7	69.042	1,741.7	69.582	1,741.7	63.5656	1,741.7	62.4116	1,741.7	70.9676	1,741.7	67.0941	1,741.7	74.5155	1,741.7	68.8114	1,741.7	72.0049	1,741.7	66.0658	1,741.7	67.9424	1,741.7	64.7101
1,803.22	85.2911	1,803.22	85.0325	1,803.22	85.0129	1,803.22	83.3923	1,803.22	83.6285	1,803.22	81.2701	1,803.22	80.2732	1,803.22	77.7368	1,803.22	74.8538	1,803.22	74.8868	1,803.22	68.6149	1,803.22	77.0034	1,803.22	66.63	1,803.22	76.9257	1,803.22	65.4277	1,803.22	73.3607	1,803.22	63.2549	1,803.22	72.1768	1,803.22	65.3911	1,803.22	71.8385	1,803.22	64.6746	1,803.22	73.4053	1,803.22	65.9638	1,803.22	74.6266	1,803.22	60.602	1,803.22	69.7393	1,803.22	67.0967	1,803.22	62.6694	1,803.22	70.9456	1,803.22	62.546	1,803.22	67.6624	1,803.22	65.7431	1,803.22	67.0934	1,803.22	68.1569	1,803.22	68.028	1,803.22	67.0235
1,866.21	84.784	1,866.21	84.5423	1,866.21	84.4687	1,866.21	83.6373	1,866.21	82.9757	1,866.21	82.3673	1,866.21	79.0948	1,866.21	78.7575	1,866.21	72.877	1,866.21	73.6343	1,866.21	70.9847	1,866.21	72.5904	1,866.21	70.3365	1,866.21	74.7166	1,866.21	70.3503	1,866.21	74.2271	1,866.21	66.4747	1,866.21	72.2482	1,866.21	64.8806	1,866.21	70.9262	1,866.21	62.8991	1,866.21	72.1692	1,866.21	64.0718	1,866.21	74.7043	1,866.21	65.0353	1,866.21	74.1695	1,866.21	66.1444	1,866.21	71.2193	1,866.21	68.5165	1,866.21	68.9437	1,866.21	73.988	1,866.21	68.6087	1,866.21	72.5552	1,866.21	69.6261	1,866.21	65.0772	1,866.21	66.2752
1,932.13	85.2327	1,932.13	84.4652	1,932.13	84.6141	1,932.13	84.0643	1,932.13	81.5826	1,932.13	82.8763	1,932.13	76.5493	1,932.13	79.2548	1,932.13	73.748	1,932.13	76.5605	1,932.13	73.8279	1,932.13	74.9491	1,932.13	74.3807	1,932.13	74.1128	1,932.13	73.1388	1,932.13	74.0524	1,932.13	71.2147	1,932.13	69.4564	1,932.13	67.7643	1,932.13	69.8634	1,932.13	65.6186	1,932.13	73.4541	1,932.13	68.8101	1,932.13	70.4778	1,932.13	35.2652	1,932.13	69.9744	1,932.13	70.9631	1,932.13	72.1019	1,932.13	71.1426	1,932.13	73.5289	1,932.13	61.3548	1,932.13	74.9735	1,932.13	72.533	1,932.13	73.9343	1,932.13	72.6473	1,932.13	72.3191
1,999.51	85.3064	1,999.51	84.6074	1,999.51	84.9336	1,999.51	84.1549	1,999.51	81.4663	1,999.51	82.2681	1,999.51	76.582	1,999.51	80.0074	1,999.51	72.2707	1,999.51	78.6778	1,999.51	73.9742	1,999.51	75.8791	1,999.51	75.8559	1,999.51	76.4951	1,999.51	74.0735	1,999.51	77.8616	1,999.51	71.7623	1,999.51	75.9813	1,999.51	70.0377	1,999.51	73.1413	1,999.51	61.0784	1,999.51	73.0221	1,999.51	65.3862	1,999.51	74.0434	1,999.51	65.0323	1,999.51	71.8935	1,999.51	62.4362	1,999.51	67.173	1,999.51	71.4109	1,999.51	69.2243	1,999.51	73.0746	1,999.51	73.432	1,999.51	66.7288	1,999.51	72.0764	1,999.51	65.5974	1,999.51	68.4817
2,069.82	85.4621	2,069.82	85.0332	2,069.82	84.8968	2,069.82	83.3919	2,069.82	81.4833	2,069.82	81.2527	2,069.82	75.3817	2,069.82	80.0418	2,069.82	71.5534	2,069.82	78.0646	2,069.82	74.1612	2,069.82	77.4783	2,069.82	75.2024	2,069.82	76.6927	2,069.82	73.9684	2,069.82	74.2011	2,069.82	73.145	2,069.82	72.4093	2,069.82	72.9153	2,069.82	69.0999	2,069.82	70.3429	2,069.82	72.8404	2,069.82	59.1305	2,069.82	73.6966	2,069.82	61.0156	2,069.82	71.868	2,069.82	53.1967	2,069.82	72.2507	2,069.82	63.0063	2,069.82	66.6048	2,069.82	71.9982	2,069.82	67.5429	2,069.82	69.2645	2,069.82	66.8706	2,069.82	54.0846	2,069.82	60.5446
2,143.07	85.4649	2,143.07	85.6973	2,143.07	84.9362	2,143.07	83.6973	2,143.07	82.033	2,143.07	80.546	2,143.07	77.3548	2,143.07	79.671	2,143.07	75.3913	2,143.07	78.6276	2,143.07	76.7469	2,143.07	77.2235	2,143.07	75.8298	2,143.07	75.8811	2,143.07	73.6397	2,143.07	77.0611	2,143.07	72.8543	2,143.07	76.8387	2,143.07	73.4711	2,143.07	72.4733	2,143.07	72.2674	2,143.07	71.6917	2,143.07	71.0204	2,143.07	74.5994	2,143.07	64.8795	2,143.07	72.0421	2,143.07	63.1494	2,143.07	72.8173	2,143.07	54.1292	2,143.07	70.995	2,143.07	71.6026	2,143.07	68.3622	2,143.07	72.9922	2,143.07	66.0419	2,143.07	66.6023	2,143.07	55.7306
2,219.24	84.3793	2,219.24	85.4253	2,219.24	83.8141	2,219.24	84.9444	2,219.24	81.5302	2,219.24	81.5403	2,219.24	79.0341	2,219.24	77.2163	2,219.24	77.7977	2,219.24	77.3269	2,219.24	78.8914	2,219.24	77.7106	2,219.24	78.3516	2,219.24	76.4446	2,219.24	74.5795	2,219.24	76.265	2,219.24	65.675	2,219.24	75.5925	2,219.24	72.7127	2,219.24	73.4454	2,219.24	74.2747	2,219.24	71.5301	2,219.24	72.6883	2,219.24	74.4407	2,219.24	69.9326	2,219.24	72.5944	2,219.24	65.0177	2,219.24	70.267	2,219.24	64.7701	2,219.24	72.5509	2,219.24	66.2028	2,219.24	68.0713	2,219.24	71.2991	2,219.24	64.8659	2,219.24	64.6277	2,219.24	53.0156
2,296.88	83.852	2,296.88	84.6516	2,296.88	82.6353	2,296.88	85.104	2,296.88	80.5279	2,296.88	82.5543	2,296.88	77.6692	2,296.88	75.4058	2,296.88	78.3649	2,296.88	76.7431	2,296.88	79.1281	2,296.88	78.0811	2,296.88	78.8592	2,296.88	77.2167	2,296.88	77.3956	2,296.88	76.7244	2,296.88	70.2855	2,296.88	75.3478	2,296.88	68.3981	2,296.88	73.7315	2,296.88	72.8017	2,296.88	71.1542	2,296.88	73.2557	2,296.88	73.2009	2,296.88	73.0002	2,296.88	74.6609	2,296.88	67.2901	2,296.88	70.8601	2,296.88	66.8716	2,296.88	71.9617	2,296.88	67.3883	2,296.88	70.4917	2,296.88	73.1043	2,296.88	67.8089	2,296.88	66.1529	2,296.88	58.1305
2,378.91	83.9455	2,378.91	84.558	2,378.91	82.1803	2,378.91	84.2807	2,378.91	78.4981	2,378.91	81.6265	2,378.91	75.9356	2,378.91	75.7491	2,378.91	78.1487	2,378.91	76.6779	2,378.91	79.672	2,378.91	78.8638	2,378.91	79.4006	2,378.91	79.3507	2,378.91	77.1357	2,378.91	76.7301	2,378.91	73.9101	2,378.91	72.2702	2,378.91	71.2213	2,378.91	72.4244	2,378.91	73.5833	2,378.91	72.7299	2,378.91	66.19	2,378.91	71.2423	2,378.91	71.2688	2,378.91	74.3402	2,378.91	66.258	2,378.91	68.763	2,378.91	66.5616	2,378.91	70.5546	2,378.91	64.1229	2,378.91	69.2467	2,378.91	69.3387	2,378.91	66.5512	2,378.91	57.7726	2,378.91	52.7478
2,462.4	85.2061	2,462.4	85.7379	2,462.4	83.1703	2,462.4	83.6	2,462.4	78.5404	2,462.4	80.327	2,462.4	73.9379	2,462.4	76.1283	2,462.4	78.0418	2,462.4	76.9137	2,462.4	79.341	2,462.4	80.0177	2,462.4	79.0102	2,462.4	78.506	2,462.4	76.4689	2,462.4	77.6425	2,462.4	71.4841	2,462.4	77.1171	2,462.4	72.3218	2,462.4	72.7689	2,462.4	70.3741	2,462.4	72.0623	2,462.4	69.0822	2,462.4	69.6641	2,462.4	66.2234	2,462.4	72.021	2,462.4	66.3116	2,462.4	72.9907	2,462.4	66.5642	2,462.4	71.489	2,462.4	59.5511	2,462.4	68.8271	2,462.4	68.7808	2,462.4	62.9602	2,462.4	67.5806	2,462.4	67.1226
2,548.83	85.0309	2,548.83	86.4731	2,548.83	83.0009	2,548.83	84.1765	2,548.83	79.4953	2,548.83	79.7671	2,548.83	75.9542	2,548.83	76.2583	2,548.83	79.0565	2,548.83	75.7921	2,548.83	78.8501	2,548.83	79.7925	2,548.83	77.809	2,548.83	78.7575	2,548.83	74.7755	2,548.83	77.2982	2,548.83	73.8598	2,548.83	76.4177	2,548.83	75.5311	2,548.83	75.1886	2,548.83	72.074	2,548.83	73.4986	2,548.83	63.2121	2,548.83	73.0078	2,548.83	65.3081	2,548.83	70.9277	2,548.83	63.9132	2,548.83	72.749	2,548.83	68.6351	2,548.83	70.1386	2,548.83	66.4776	2,548.83	70.4989	2,548.83	70.6705	2,548.83	66.5034	2,548.83	67.7744	2,548.83	60.2138
2,639.65	84.2741	2,639.65	85.4071	2,639.65	81.0885	2,639.65	84.2561	2,639.65	77.6784	2,639.65	79.294	2,639.65	75.441	2,639.65	76.3278	2,639.65	80.6313	2,639.65	76.6912	2,639.65	80.1063	2,639.65	79.3181	2,639.65	79.6076	2,639.65	79.8478	2,639.65	75.0186	2,639.65	79.3612	2,639.65	69.3898	2,639.65	77.7769	2,639.65	72.5088	2,639.65	75.4865	2,639.65	73.593	2,639.65	72.8582	2,639.65	64.8062	2,639.65	73.9583	2,639.65	67.6849	2,639.65	72.9648	2,639.65	43.659	2,639.65	71.5497	2,639.65	70.1952	2,639.65	72.3644	2,639.65	63.5624	2,639.65	70.9794	2,639.65	72.3839	2,639.65	66.5735	2,639.65	69.1638	2,639.65	66.1036
2,731.93	83.2987	2,731.93	84.9343	2,731.93	79.8141	2,731.93	84.499	2,731.93	73.3834	2,731.93	75.6904	2,731.93	75.0157	2,731.93	74.144	2,731.93	80.4195	2,731.93	79.4175	2,731.93	80.4224	2,731.93	79.6985	2,731.93	78.9495	2,731.93	81.0183	2,731.93	75.772	2,731.93	78.1839	2,731.93	71.4277	2,731.93	76.7942	2,731.93	68.7996	2,731.93	73.8621	2,731.93	68.3844	2,731.93	72.4143	2,731.93	67.216	2,731.93	73.1276	2,731.93	69.6966	2,731.93	74.27	2,731.93	64.8473	2,731.93	71.7356	2,731.93	66.45	2,731.93	72.1386	2,731.93	58.2354	2,731.93	71.1926	2,731.93	68.5627	2,731.93	69.6655	2,731.93	64.1583	2,731.93	61.6448
2,828.61	83.1945	2,828.61	85.5094	2,828.61	79.4377	2,828.61	83.5265	2,828.61	71.8813	2,828.61	75.4544	2,828.61	76.955	2,828.61	72.2219	2,828.61	80.1176	2,828.61	79.3902	2,828.61	81.4926	2,828.61	81.1057	2,828.61	78.351	2,828.61	81.373	2,828.61	76.8372	2,828.61	78.6872	2,828.61	70.6198	2,828.61	75.0135	2,828.61	66.6198	2,828.61	74.3657	2,828.61	68.0024	2,828.61	72.5651	2,828.61	70.3785	2,828.61	72.0825	2,828.61	68.5164	2,828.61	73.3464	2,828.61	58.1889	2,828.61	70.6006	2,828.61	65.6939	2,828.61	71.1161	2,828.61	63.6937	2,828.61	69.6668	2,828.61	69.1225	2,828.61	68.9276	2,828.61	67.5325	2,828.61	47.5914
2,928.22	84.0318	2,928.22	86.1395	2,928.22	79.0183	2,928.22	83.2734	2,928.22	73.817	2,928.22	75.8801	2,928.22	77.376	2,928.22	72.7456	2,928.22	80.8305	2,928.22	79.639	2,928.22	82.5887	2,928.22	82.5853	2,928.22	79.3171	2,928.22	81.6083	2,928.22	77.3732	2,928.22	79.167	2,928.22	66.8234	2,928.22	76.7172	2,928.22	60.2706	2,928.22	74.8451	2,928.22	74.5032	2,928.22	71.8485	2,928.22	72.583	2,928.22	69.8902	2,928.22	58.8766	2,928.22	71.5125	2,928.22	62.2499	2,928.22	71.1165	2,928.22	55.9433	2,928.22	66.6416	2,928.22	67.1254	2,928.22	67.0664	2,928.22	69.0869	2,928.22	67.1258	2,928.22	66.4614	2,928.22	56.6999
3,030.76	84.4224	3,030.76	85.9905	3,030.76	79.5889	3,030.76	83.7842	3,030.76	73.1169	3,030.76	74.1944	3,030.76	78.562	3,030.76	74.2491	3,030.76	82.7173	3,030.76	80.0408	3,030.76	83.2508	3,030.76	81.7636	3,030.76	80.2387	3,030.76	80.117	3,030.76	78.262	3,030.76	79.0959	3,030.76	65.7829	3,030.76	74.9984	3,030.76	65.4087	3,030.76	72.0638	3,030.76	77.4815	3,030.76	70.5088	3,030.76	70.5723	3,030.76	69.2982	3,030.76	59.2557	3,030.76	68.4835	3,030.76	64.55	3,030.76	70.1598	3,030.76	60.5348	3,030.76	68.5724	3,030.76	62.5287	3,030.76	68.9533	3,030.76	69.8039	3,030.76	65.1683	3,030.76	69.8761	3,030.76	59.4414
3,137.7	84.2819	3,137.7	85.3568	3,137.7	79.0676	3,137.7	83.2873	3,137.7	72.53	3,137.7	73.9741	3,137.7	78.9931	3,137.7	74.2965	3,137.7	83.1621	3,137.7	80.4127	3,137.7	83.012	3,137.7	81.7372	3,137.7	80.1581	3,137.7	80.6487	3,137.7	79.2036	3,137.7	77.6301	3,137.7	73.8767	3,137.7	70.9227	3,137.7	68.5362	3,137.7	70.8935	3,137.7	77.3329	3,137.7	68.3871	3,137.7	71.3162	3,137.7	68.0748	3,137.7	65.1563	3,137.7	67.5732	3,137.7	65.2317	3,137.7	68.4323	3,137.7	61.3217	3,137.7	66.4356	3,137.7	61.9935	3,137.7	67.338	3,137.7	68.4533	3,137.7	64.0489	3,137.7	68.4048	3,137.7	58.8686
3,249.02	83.9461	3,249.02	84.6762	3,249.02	78.7062	3,249.02	82.2232	3,249.02	70.3119	3,249.02	74.0012	3,249.02	80.0389	3,249.02	74.1692	3,249.02	83.1754	3,249.02	80.7245	3,249.02	82.5613	3,249.02	80.6414	3,249.02	80.9091	3,249.02	79.1104	3,249.02	80.1062	3,249.02	75.0273	3,249.02	76.263	3,249.02	74.7764	3,249.02	70.6093	3,249.02	70.4063	3,249.02	75.9104	3,249.02	67.8385	3,249.02	62.5764	3,249.02	64.4554	3,249.02	68.4992	3,249.02	65.9003	3,249.02	65.4595	3,249.02	67.0502	3,249.02	58.9669	3,249.02	65.5003	3,249.02	62.5239	3,249.02	66.8543	3,249.02	66.7757	3,249.02	60.473	3,249.02	67.1823	3,249.02	61.0697
3,363.28	84.3902	3,363.28	85.0655	3,363.28	79.7083	3,363.28	82.0156	3,363.28	71.9369	3,363.28	72.471	3,363.28	80.0126	3,363.28	73.0044	3,363.28	82.9757	3,363.28	80.0524	3,363.28	82.3915	3,363.28	80.1258	3,363.28	81.9314	3,363.28	77.5365	3,363.28	79.7003	3,363.28	76.6855	3,363.28	75.404	3,363.28	70.9018	3,363.28	74.7853	3,363.28	69.1185	3,363.28	72.5824	3,363.28	69.8912	3,363.28	68.2954	3,363.28	68.9094	3,363.28	66.3227	3,363.28	66.2496	3,363.28	61.1374	3,363.28	68.3957	3,363.28	55.8495	3,363.28	65.3322	3,363.28	64.0365	3,363.28	60.0317	3,363.28	66.8115	3,363.28	63.5467	3,363.28	65.9645	3,363.28	56.1666
3,481.93	84.0844	3,481.93	85.464	3,481.93	79.0248	3,481.93	83.2134	3,481.93	71.7644	3,481.93	69.9407	3,481.93	80.3316	3,481.93	74.5796	3,481.93	83.0294	3,481.93	81.0222	3,481.93	81.6219	3,481.93	80.6013	3,481.93	82.5903	3,481.93	79.6967	3,481.93	77.9927	3,481.93	74.9894	3,481.93	74.1154	3,481.93	74.3918	3,481.93	75.1914	3,481.93	71.2328	3,481.93	75.2	3,481.93	70.237	3,481.93	72.7057	3,481.93	68.4537	3,481.93	59.4363	3,481.93	66.8431	3,481.93	52.8992	3,481.93	70.132	3,481.93	51.25	3,481.93	67.8669	3,481.93	64.4202	3,481.93	60.1769	3,481.93	65.0004	3,481.93	63.8572	3,481.93	66.5062	3,481.93	62.0508
3,604.98	83.948	3,604.98	85.3207	3,604.98	76.8845	3,604.98	83.1064	3,604.98	71.0153	3,604.98	71.687	3,604.98	79.7316	3,604.98	76.5738	3,604.98	83.4161	3,604.98	80.6825	3,604.98	81.6685	3,604.98	81.164	3,604.98	82.7045	3,604.98	78.6512	3,604.98	77.9715	3,604.98	77.2807	3,604.98	67.8852	3,604.98	73.8298	3,604.98	71.174	3,604.98	70.6978	3,604.98	76.4002	3,604.98	69.3908	3,604.98	73.4755	3,604.98	69.6641	3,604.98	61.5996	3,604.98	65.0423	3,604.98	57.3571	3,604.98	68.4237	3,604.98	49.4233	3,604.98	67.9573	3,604.98	60.5594	3,604.98	63.7187	3,604.98	65.8898	3,604.98	61.6177	3,604.98	68.2464	3,604.98	63.6374
3,732.42	84.6513	3,732.42	85.706	3,732.42	77.7473	3,732.42	82.6757	3,732.42	71.7686	3,732.42	73.1407	3,732.42	79.6514	3,732.42	77.7718	3,732.42	82.2407	3,732.42	81.2005	3,732.42	81.1332	3,732.42	81.0872	3,732.42	80.6475	3,732.42	79.2746	3,732.42	75.3542	3,732.42	77.1934	3,732.42	59.0015	3,732.42	71.7771	3,732.42	70.2998	3,732.42	70.246	3,732.42	76.3277	3,732.42	66.6411	3,732.42	71.9747	3,732.42	67.7667	3,732.42	63.4946	3,732.42	64.5332	3,732.42	52.8335	3,732.42	66.993	3,732.42	61.0213	3,732.42	64.7357	3,732.42	51.469	3,732.42	62.7727	3,732.42	64.0504	3,732.42	60.3032	3,732.42	66.8672	3,732.42	62.8546
3,864.26	84.0929	3,864.26	85.7404	3,864.26	76.2491	3,864.26	82.5259	3,864.26	75.1009	3,864.26	72.6662	3,864.26	81.0476	3,864.26	79.3925	3,864.26	81.2416	3,864.26	81.8656	3,864.26	81.7121	3,864.26	81.372	3,864.26	79.7201	3,864.26	78.6147	3,864.26	74.9148	3,864.26	74.4329	3,864.26	55.8669	3,864.26	70.2403	3,864.26	71.0358	3,864.26	66.1237	3,864.26	75.4203	3,864.26	65.3418	3,864.26	74.8197	3,864.26	65.6406	3,864.26	54.327	3,864.26	63.6096	3,864.26	56.9838	3,864.26	64.0292	3,864.26	61.7014	3,864.26	64.4028	3,864.26	58.2032	3,864.26	53.9128	3,864.26	61.2483	3,864.26	61.4574	3,864.26	63.3665	3,864.26	61.6514
4,000.49	84.4339	4,000.49	85.6177	4,000.49	74.9083	4,000.49	82.7413	4,000.49	77.7514	4,000.49	70.3366	4,000.49	81.927	4,000.49	80.285	4,000.49	80.4743	4,000.49	82.4366	4,000.49	80.4588	4,000.49	81.6684	4,000.49	78.4937	4,000.49	77.4329	4,000.49	72.2297	4,000.49	73.718	4,000.49	51.1913	4,000.49	65.7263	4,000.49	69.5261	4,000.49	63.1224	4,000.49	78.0521	4,000.49	65.1504	4,000.49	74.5803	4,000.49	65.0305	4,000.49	58.1892	4,000.49	64.2423	4,000.49	60.2036	4,000.49	60.4515	4,000.49	61.7548	4,000.49	60.8043	4,000.49	58.5231	4,000.49	40.3709	4,000.49	62.14	4,000.49	59.6993	4,000.49	61.9936	4,000.49	56.9628
4,141.11	85.5843	4,141.11	86.7708	4,141.11	77.2439	4,141.11	82.2118	4,141.11	78.886	4,141.11	75.2305	4,141.11	83.0802	4,141.11	81.6545	4,141.11	80.5433	4,141.11	83.6999	4,141.11	81.01	4,141.11	80.4176	4,141.11	76.5066	4,141.11	76.1761	4,141.11	71.4804	4,141.11	66.2117	4,141.11	66.7622	4,141.11	69.4965	4,141.11	73.4092	4,141.11	66.1803	4,141.11	78.4617	4,141.11	64.3224	4,141.11	72.614	4,141.11	64.2269	4,141.11	49.6338	4,141.11	64.9416	4,141.11	62.1955	4,141.11	61.6633	4,141.11	60.3322	4,141.11	64.853	4,141.11	57.6021	4,141.11	57.0152	4,141.11	58.8673	4,141.11	59.1235	4,141.11	60.3659	4,141.11	56.7176
4,287.6	85.4372	4,287.6	87.2168	4,287.6	77.4413	4,287.6	82.4448	4,287.6	78.6107	4,287.6	78.9124	4,287.6	82.9994	4,287.6	82.6556	4,287.6	80.4989	4,287.6	83.0567	4,287.6	81.1678	4,287.6	78.8126	4,287.6	74.6889	4,287.6	67.9339	4,287.6	74.4328	4,287.6	69.0342	4,287.6	72.0879	4,287.6	62.3125	4,287.6	74.4844	4,287.6	64.9874	4,287.6	75.6152	4,287.6	66.194	4,287.6	72.4621	4,287.6	64.237	4,287.6	62.3496	4,287.6	66.265	4,287.6	59.0731	4,287.6	61.9477	4,287.6	57.5137	4,287.6	64.9117	4,287.6	60.4184	4,287.6	59.5533	4,287.6	55.454	4,287.6	54.3649	4,287.6	62.467	4,287.6	55.6678
4,438.48	86.2547	4,438.48	86.4838	4,438.48	74.4308	4,438.48	80.8798	4,438.48	81.4146	4,438.48	79.1309	4,438.48	84.3712	4,438.48	84.0285	4,438.48	80.6766	4,438.48	81.4585	4,438.48	78.814	4,438.48	73.4682	4,438.48	72.7573	4,438.48	68.9978	4,438.48	76.738	4,438.48	67.2266	4,438.48	73.5634	4,438.48	71.253	4,438.48	76.0812	4,438.48	66.5298	4,438.48	77.1446	4,438.48	65.5746	4,438.48	74.6526	4,438.48	65.0172	4,438.48	66.5986	4,438.48	66.6765	4,438.48	60.8903	4,438.48	62.6258	4,438.48	46.6477	4,438.48	66.3049	4,438.48	57.3849	4,438.48	63.9827	4,438.48	60.5778	4,438.48	53.8963	4,438.48	56.3113	4,438.48	62.5579
4,595.21	86.8101	4,595.21	89.1135	4,595.21	75.1486	4,595.21	80.4057	4,595.21	82.7883	4,595.21	82.9259	4,595.21	83.3924	4,595.21	85.0363	4,595.21	77.8959	4,595.21	80.1191	4,595.21	76.5546	4,595.21	72.5822	4,595.21	75.7477	4,595.21	70.8311	4,595.21	76.1641	4,595.21	71.2363	4,595.21	67.2894	4,595.21	69.0678	4,595.21	72.4967	4,595.21	66.0917	4,595.21	77.5273	4,595.21	63.2019	4,595.21	73.4572	4,595.21	59.7791	4,595.21	65.8788	4,595.21	62.1823	4,595.21	65.9212	4,595.21	62.2284	4,595.21	61.6276	4,595.21	62.3317	4,595.21	49.652	4,595.21	61.0618	4,595.21	59.7137	4,595.21	51.847	4,595.21	53.3992	4,595.21	60.1146
4,756.35	87.2804	4,756.35	88.6667	4,756.35	78.3282	4,756.35	81.196	4,756.35	81.6029	4,756.35	83.9574	4,756.35	81.8319	4,756.35	84.6577	4,756.35	76.4897	4,756.35	79.1889	4,756.35	74.7687	4,756.35	72.899	4,756.35	79.7788	4,756.35	75.0661	4,756.35	76.165	4,756.35	71.5699	4,756.35	69.1883	4,756.35	70.9565	4,756.35	65.7757	4,756.35	65.391	4,756.35	78.0815	4,756.35	63.7064	4,756.35	73.1848	4,756.35	60.1887	4,756.35	69.6207	4,756.35	60.8642	4,756.35	69.8453	4,756.35	60.7397	4,756.35	67.2537	4,756.35	59.3275	4,756.35	60.1555	4,756.35	61.9337	4,756.35	56.353	4,756.35	44.8406	4,756.35	54.7856	4,756.35	55.4831
4,924.8	87.3319	4,924.8	87.5377	4,924.8	77.9922	4,924.8	76.9206	4,924.8	80.8938	4,924.8	83.6451	4,924.8	80.8688	4,924.8	83.6169	4,924.8	72.2328	4,924.8	79.1036	4,924.8	73.2888	4,924.8	71.146	4,924.8	81.8635	4,924.8	74.5356	4,924.8	77.384	4,924.8	72.86	4,924.8	72.2456	4,924.8	65.4986	4,924.8	67.0176	4,924.8	62.1704	4,924.8	73.9527	4,924.8	55.928	4,924.8	67.6547	4,924.8	59.0768	4,924.8	67.614	4,924.8	56.7172	4,924.8	68.8496	4,924.8	60.521	4,924.8	61.8714	4,924.8	39.7388	4,924.8	64.2732	4,924.8	57.1499	4,924.8	56.3146	4,924.8	56.4318	4,924.8	64.0561	4,924.8	61.3015
5,097.66	86.1895	5,097.66	87.0004	5,097.66	75.1467	5,097.66	75.0039	5,097.66	81.1922	5,097.66	84.1511	5,097.66	81.5536	5,097.66	82.6459	5,097.66	64.343	5,097.66	76.2106	5,097.66	75.3254	5,097.66	72.2363	5,097.66	83.0474	5,097.66	73.5075	5,097.66	74.3947	5,097.66	58.6908	5,097.66	73.9315	5,097.66	47.5735	5,097.66	68.4568	5,097.66	61.8996	5,097.66	70.0362	5,097.66	58.1901	5,097.66	69.4976	5,097.66	61.1318	5,097.66	63.8928	5,097.66	61.6772	5,097.66	62.4133	5,097.66	66.2898	5,097.66	65.2555	5,097.66	62.5442	5,097.66	59.0481	5,097.66	64.6575	5,097.66	59.828	5,097.66	58.8575	5,097.66	61.7108	5,097.66	57.6898
5,277.83	86.1917	5,277.83	86.6688	5,277.83	75.1111	5,277.83	75.5439	5,277.83	82.3896	5,277.83	83.8497	5,277.83	79.6129	5,277.83	81.6317	5,277.83	65.6914	5,277.83	74.4475	5,277.83	79.1775	5,277.83	74.3356	5,277.83	81.0262	5,277.83	66.6133	5,277.83	74.6946	5,277.83	58.7096	5,277.83	74.3172	5,277.83	66.686	5,277.83	69.4563	5,277.83	64.4718	5,277.83	68.71	5,277.83	61.9208	5,277.83	68.7845	5,277.83	63.7871	5,277.83	65.0166	5,277.83	64.8022	5,277.83	63.4256	5,277.83	68.4591	5,277.83	66.0365	5,277.83	68.3013	5,277.83	56.1881	5,277.83	63.9038	5,277.83	57.1	5,277.83	60.2882	5,277.83	62.2926	5,277.83	59.7158
5,463.87	86.6322	5,463.87	86.4246	5,463.87	74.998	5,463.87	73.5296	5,463.87	82.9662	5,463.87	83.9475	5,463.87	80.0655	5,463.87	81.6225	5,463.87	68.3511	5,463.87	72.8703	5,463.87	80.9364	5,463.87	73.1954	5,463.87	78.7921	5,463.87	67.2734	5,463.87	75.0798	5,463.87	71.0458	5,463.87	74.7342	5,463.87	68.9878	5,463.87	69.029	5,463.87	67.9558	5,463.87	70.6879	5,463.87	67.5565	5,463.87	68.5973	5,463.87	62.836	5,463.87	61.7102	5,463.87	66.0848	5,463.87	56.6633	5,463.87	67.8913	5,463.87	68.9283	5,463.87	69.2714	5,463.87	56.4051	5,463.87	67.56	5,463.87	54.8311	5,463.87	62.1677	5,463.87	63.8738	5,463.87	61.5374
5,657.23	87.3212	5,657.23	86.9227	5,657.23	77.6617	5,657.23	76.9367	5,657.23	82.7261	5,657.23	84.5021	5,657.23	83.4773	5,657.23	80.3164	5,657.23	65.3837	5,657.23	74.6761	5,657.23	80.3429	5,657.23	71.8287	5,657.23	77.6599	5,657.23	72.8977	5,657.23	77.3898	5,657.23	72.6414	5,657.23	73.336	5,657.23	71.7563	5,657.23	71.8325	5,657.23	68.6993	5,657.23	73.6436	5,657.23	67.4977	5,657.23	70.7447	5,657.23	66.2569	5,657.23	49.6883	5,657.23	65.9627	5,657.23	58.6057	5,657.23	67.5289	5,657.23	66.4861	5,657.23	69.2255	5,657.23	52.7099	5,657.23	67.8036	5,657.23	58.3678	5,657.23	54.7996	5,657.23	60.2528	5,657.23	61.9063
5,856.45	88.555	5,856.45	87.6356	5,856.45	81.7282	5,856.45	80.1101	5,856.45	83.7569	5,856.45	85.2311	5,856.45	84.0727	5,856.45	80.0885	5,856.45	60.3769	5,856.45	73.6306	5,856.45	79.0616	5,856.45	71.3131	5,856.45	77.5105	5,856.45	75.3278	5,856.45	76.8149	5,856.45	76.0247	5,856.45	74.5248	5,856.45	71.9296	5,856.45	74.465	5,856.45	69.3564	5,856.45	72.273	5,856.45	67.0679	5,856.45	72.2281	5,856.45	66.3255	5,856.45	54.3981	5,856.45	63.8403	5,856.45	59.012	5,856.45	67.1225	5,856.45	66.2244	5,856.45	66.8746	5,856.45	55.7896	5,856.45	70.599	5,856.45	57.4022	5,856.45	56.9593	5,856.45	61.2343	5,856.45	62.1746
6,062.99	90.3518	6,062.99	87.9471	6,062.99	83.4928	6,062.99	83.7664	6,062.99	85.0528	6,062.99	86.7961	6,062.99	82.9256	6,062.99	77.9796	6,062.99	56.9579	6,062.99	70.1946	6,062.99	75.907	6,062.99	75.7852	6,062.99	77.5804	6,062.99	77.2853	6,062.99	76.5873	6,062.99	76.745	6,062.99	74.1023	6,062.99	73.4293	6,062.99	73.1724	6,062.99	68.6871	6,062.99	77.0523	6,062.99	67.5613	6,062.99	75.2399	6,062.99	66.232	6,062.99	64.9503	6,062.99	66.5476	6,062.99	58.5279	6,062.99	66.3024	6,062.99	58.8019	6,062.99	65.9179	6,062.99	58.9434	6,062.99	70.2834	6,062.99	51.0667	6,062.99	56.254	6,062.99	55.9096	6,062.99	60.5191
6,276.86	90.3612	6,276.86	86.8125	6,276.86	84.0858	6,276.86	86.4744	6,276.86	82.4272	6,276.86	86.6356	6,276.86	81.9395	6,276.86	70.9235	6,276.86	68.8426	6,276.86	75.3822	6,276.86	72.9391	6,276.86	78.0753	6,276.86	77.5498	6,276.86	77.7495	6,276.86	76.0451	6,276.86	75.74	6,276.86	72.2845	6,276.86	72.1	6,276.86	72.5789	6,276.86	66.6235	6,276.86	77.2379	6,276.86	65.2183	6,276.86	74.7948	6,276.86	63.8928	6,276.86	61.1544	6,276.86	65.6313	6,276.86	58.1745	6,276.86	63.5347	6,276.86	61.5138	6,276.86	64.0165	6,276.86	55.1955	6,276.86	67.8352	6,276.86	60.7642	6,276.86	59.7262	6,276.86	55.6908	6,276.86	55.3913
6,498.05	89.2954	6,498.05	83.1377	6,498.05	83.7674	6,498.05	87.2943	6,498.05	75.6827	6,498.05	84.5425	6,498.05	80.8808	6,498.05	68.267	6,498.05	71.2	6,498.05	78.1802	6,498.05	72.4633	6,498.05	77.6896	6,498.05	76.6649	6,498.05	77.2447	6,498.05	73.6441	6,498.05	73.9309	6,498.05	68.9544	6,498.05	68.9302	6,498.05	69.1722	6,498.05	63.8699	6,498.05	70.4385	6,498.05	62.2497	6,498.05	68.4958	6,498.05	62.8752	6,498.05	45.6882	6,498.05	63.6543	6,498.05	53.4302	6,498.05	61.2811	6,498.05	58.0392	6,498.05	61.6155	6,498.05	52.4143	6,498.05	62.0788	6,498.05	58.2977	6,498.05	64.3553	6,498.05	57.7532	6,498.05	48.5674
6,726.56	87.4843	6,726.56	77.4388	6,726.56	82.4998	6,726.56	86.5772	6,726.56	77.1745	6,726.56	81.5111	6,726.56	81.1064	6,726.56	75.0075	6,726.56	73.7833	6,726.56	78.7999	6,726.56	72.5966	6,726.56	77.6666	6,726.56	76.3455	6,726.56	75.6471	6,726.56	70.3696	6,726.56	72.7181	6,726.56	64.8513	6,726.56	67.0064	6,726.56	64.5649	6,726.56	61.1241	6,726.56	52.9187	6,726.56	62.8053	6,726.56	54.435	6,726.56	61.8624	6,726.56	47.2747	6,726.56	63.2876	6,726.56	55.3357	6,726.56	58.9239	6,726.56	56.1589	6,726.56	61.4637	6,726.56	58.9008	6,726.56	57.7276	6,726.56	58.6109	6,726.56	63.3895	6,726.56	61.4612	6,726.56	53.7417
6,963.87	85.6266	6,963.87	67.7684	6,963.87	79.471	6,963.87	85.8679	6,963.87	76.7469	6,963.87	78.1678	6,963.87	80.7518	6,963.87	77.996	6,963.87	76.7402	6,963.87	78.6879	6,963.87	74.5658	6,963.87	77.4747	6,963.87	75.2057	6,963.87	74.4744	6,963.87	68.8553	6,963.87	70.3519	6,963.87	70.4295	6,963.87	65.5799	6,963.87	61.1176	6,963.87	59.7258	6,963.87	63.4422	6,963.87	58.8694	6,963.87	63.5413	6,963.87	62.4526	6,963.87	51.9219	6,963.87	62.949	6,963.87	53.6001	6,963.87	62.1171	6,963.87	55.6454	6,963.87	62.662	6,963.87	58.5977	6,963.87	59.4459	6,963.87	57.8592	6,963.87	62.4168	6,963.87	60.1977	6,963.87	56.3686
7,209.96	84.701	7,209.96	60.9781	7,209.96	79.6599	7,209.96	85.1468	7,209.96	76.9073	7,209.96	72.4634	7,209.96	80.1517	7,209.96	79.5375	7,209.96	78.5667	7,209.96	78.7708	7,209.96	75.7108	7,209.96	77.8161	7,209.96	72.8373	7,209.96	73.5565	7,209.96	71.853	7,209.96	71.1672	7,209.96	72.1596	7,209.96	69.1626	7,209.96	64.5785	7,209.96	62.9279	7,209.96	66.0518	7,209.96	63.6133	7,209.96	62.1985	7,209.96	64.319	7,209.96	51.6769	7,209.96	64.7569	7,209.96	57.2839	7,209.96	63.138	7,209.96	58.0465	7,209.96	63.909	7,209.96	57.376	7,209.96	62.9378	7,209.96	61.6134	7,209.96	63.0833	7,209.96	54.7289	7,209.96	60.0731
7,464.84	83.6958	7,464.84	61.7321	7,464.84	79.4225	7,464.84	83.9465	7,464.84	78.9159	7,464.84	70.308	7,464.84	79.5421	7,464.84	79.5852	7,464.84	79.5545	7,464.84	79.2867	7,464.84	76.0643	7,464.84	78.0055	7,464.84	60.9044	7,464.84	71.9536	7,464.84	78.3602	7,464.84	72.7028	7,464.84	71.5643	7,464.84	69.7032	7,464.84	69.4121	7,464.84	63.3206	7,464.84	66.6894	7,464.84	60.2216	7,464.84	64.7967	7,464.84	64.7848	7,464.84	52.9681	7,464.84	64.7085	7,464.84	60.2693	7,464.84	63.7132	7,464.84	61.1943	7,464.84	64.2094	7,464.84	58.5226	7,464.84	61.3424	7,464.84	57.174	7,464.84	63.9263	7,464.84	57.5953	7,464.84	57.9265
7,727.05	83.0488	7,727.05	68.4421	7,727.05	79.7622	7,727.05	83.3853	7,727.05	79.55	7,727.05	73.695	7,727.05	79.3345	7,727.05	77.5864	7,727.05	79.4655	7,727.05	80.8267	7,727.05	75.1629	7,727.05	78.1603	7,727.05	68.9391	7,727.05	73.3011	7,727.05	78.3196	7,727.05	72.0975	7,727.05	70.9117	7,727.05	71.0594	7,727.05	67.0485	7,727.05	64.9787	7,727.05	66.6313	7,727.05	63.6948	7,727.05	67.8483	7,727.05	65.5289	7,727.05	49.8617	7,727.05	66.2795	7,727.05	62.1475	7,727.05	63.7481	7,727.05	58.2469	7,727.05	63.5485	7,727.05	49.4667	7,727.05	63.6487	7,727.05	60.0418	7,727.05	63.4138	7,727.05	58.0073	7,727.05	62.4126
7,999.51	80.7332	7,999.51	74.6803	7,999.51	80.0703	7,999.51	82.9399	7,999.51	80.7902	7,999.51	73.7053	7,999.51	79.0263	7,999.51	77.6553	7,999.51	79.7105	7,999.51	81.1647	7,999.51	75.4663	7,999.51	77.9817	7,999.51	74.8262	7,999.51	73.8897	7,999.51	76.1995	7,999.51	74.5338	7,999.51	73.4995	7,999.51	72.9228	7,999.51	59.1604	7,999.51	68.2511	7,999.51	66.9758	7,999.51	64.01	7,999.51	68.3853	7,999.51	67.1726	7,999.51	57.8704	7,999.51	67.7862	7,999.51	59.9373	7,999.51	64.3419	7,999.51	60.5384	7,999.51	65.6865	7,999.51	54.1154	7,999.51	64.887	7,999.51	63.1148	7,999.51	63.3574	7,999.51	55.5742	7,999.51	64.1068
8,282.23	80.9732	8,282.23	79.5568	8,282.23	80.2092	8,282.23	83.4921	8,282.23	81.054	8,282.23	78.5509	8,282.23	80.7414	8,282.23	79.4059	8,282.23	78.2433	8,282.23	79.6254	8,282.23	76.7946	8,282.23	77.7551	8,282.23	73.9233	8,282.23	75.3401	8,282.23	69.4561	8,282.23	74.9919	8,282.23	74.0293	8,282.23	72.863	8,282.23	58.0977	8,282.23	67.6215	8,282.23	68.3588	8,282.23	64.8389	8,282.23	68.0809	8,282.23	65.2738	8,282.23	63.6412	8,282.23	66.3832	8,282.23	59.2278	8,282.23	60.8962	8,282.23	57.5546	8,282.23	63.5857	8,282.23	54.8149	8,282.23	63.7431	8,282.23	60.1805	8,282.23	62.2601	8,282.23	57.5632	8,282.23	60.8371
8,573.73	83.3991	8,573.73	82.4599	8,573.73	82.8864	8,573.73	85.0028	8,573.73	81.8193	8,573.73	80.0984	8,573.73	79.7135	8,573.73	81.0096	8,573.73	77.7782	8,573.73	78.4073	8,573.73	76.8125	8,573.73	77.2288	8,573.73	69.0217	8,573.73	74.1351	8,573.73	69.5916	8,573.73	72.7923	8,573.73	69.7941	8,573.73	69.1431	8,573.73	57.5316	8,573.73	63.5902	8,573.73	70.1553	8,573.73	58.9234	8,573.73	66.1743	8,573.73	62.5157	8,573.73	57.5545	8,573.73	61.7459	8,573.73	49.6836	8,573.73	53.9095	8,573.73	57.4187	8,573.73	57.7801	8,573.73	47.3352	8,573.73	57.2643	8,573.73	56.6975	8,573.73	58.2753	8,573.73	48.7912	8,573.73	58.6994
8,876.95	84.8057	8,876.95	83.3323	8,876.95	82.6207	8,876.95	85.6735	8,876.95	82.453	8,876.95	80.756	8,876.95	78.5178	8,876.95	81.094	8,876.95	78.1083	8,876.95	78.2981	8,876.95	75.0747	8,876.95	77.2576	8,876.95	64.8713	8,876.95	72.625	8,876.95	70.8542	8,876.95	70.429	8,876.95	68.7884	8,876.95	66.37	8,876.95	57.4563	8,876.95	59.5815	8,876.95	68.6494	8,876.95	58.4973	8,876.95	65.0782	8,876.95	57.8699	8,876.95	50.6899	8,876.95	61.3375	8,876.95	52.0268	8,876.95	51.8444	8,876.95	58.7343	8,876.95	49.83	8,876.95	37.4803	8,876.95	53.5832	8,876.95	53.0167	8,876.95	54.1701	8,876.95	49.7862	8,876.95	55.4045
9,188.96	85.3545	9,188.96	83.4803	9,188.96	82.8622	9,188.96	86.0141	9,188.96	82.7391	9,188.96	81.3443	9,188.96	79.8382	9,188.96	80.9201	9,188.96	76.6857	9,188.96	78.4057	9,188.96	74.6204	9,188.96	77.1968	9,188.96	68.3718	9,188.96	71.9278	9,188.96	65.0717	9,188.96	67.7169	9,188.96	67.8022	9,188.96	64.963	9,188.96	54.7705	9,188.96	57.1186	9,188.96	68.6659	9,188.96	54.5854	9,188.96	64.8467	9,188.96	54.575	9,188.96	57.6302	9,188.96	59.5605	9,188.96	54.2677	9,188.96	43.8957	9,188.96	54.39	9,188.96	54.0409	9,188.96	41.4828	9,188.96	53.8586	9,188.96	53.7768	9,188.96	50.2664	9,188.96	52.1091	9,188.96	51.2278
9,514.16	85.4034	9,514.16	84.1198	9,514.16	82.4745	9,514.16	85.8755	9,514.16	82.3997	9,514.16	81.7852	9,514.16	80.2051	9,514.16	80.3728	9,514.16	74.774	9,514.16	78.2791	9,514.16	73.5945	9,514.16	77.3272	9,514.16	68.983	9,514.16	70.876	9,514.16	58.9489	9,514.16	65.9475	9,514.16	65.4144	9,514.16	60.4613	9,514.16	61.4745	9,514.16	55.5118	9,514.16	68.0482	9,514.16	53.0057	9,514.16	64.4712	9,514.16	45.8938	9,514.16	58.6297	9,514.16	56.5717	9,514.16	54.6899	9,514.16	48.8727	9,514.16	49.0492	9,514.16	54.7098	9,514.16	48.1356	9,514.16	48.8067	9,514.16	56.4998	9,514.16	42.7539	9,514.16	40.0662	9,514.16	53.1676
9,849.61	85.3371	9,849.61	84.4824	9,849.61	82.4068	9,849.61	85.7798	9,849.61	81.6843	9,849.61	82.2494	9,849.61	79.0554	9,849.61	80.4458	9,849.61	75.9115	9,849.61	78.403	9,849.61	71.1171	9,849.61	76.833	9,849.61	68.0593	9,849.61	71.148	9,849.61	60.4061	9,849.61	65.9794	9,849.61	61.5734	9,849.61	58.7627	9,849.61	60.8035	9,849.61	53.4359	9,849.61	69.4799	9,849.61	55.3121	9,849.61	64.7461	9,849.61	52.0923	9,849.61	59.1162	9,849.61	56.3453	9,849.61	54.2664	9,849.61	52.4196	9,849.61	42.8778	9,849.61	52.2027	9,849.61	43.8819	9,849.61	50.365	9,849.61	52.0115	9,849.61	46.651	9,849.61	45.7401	9,849.61	54.0068
10,196.8	85.4132	10,196.8	84.9416	10,196.8	82.5117	10,196.8	85.9218	10,196.8	81.6464	10,196.8	82.7741	10,196.8	78.4749	10,196.8	80.2917	10,196.8	74.0507	10,196.8	78.6379	10,196.8	70.0673	10,196.8	76.2937	10,196.8	64.8849	10,196.8	70.3824	10,196.8	55.7552	10,196.8	65.1411	10,196.8	59.9692	10,196.8	59.6861	10,196.8	61.6002	10,196.8	55.5573	10,196.8	69.4941	10,196.8	47.5059	10,196.8	66.7464	10,196.8	56.8514	10,196.8	58.7621	10,196.8	55.9461	10,196.8	52.8676	10,196.8	54.7989	10,196.8	41.1958	10,196.8	53.2799	10,196.8	46.0377	10,196.8	50.4701	10,196.8	43.3698	10,196.8	45.4677	10,196.8	45.9439	10,196.8	53.1284
10,555.7	85.8545	10,555.7	84.8324	10,555.7	81.9099	10,555.7	86.4318	10,555.7	80.8694	10,555.7	82.7432	10,555.7	78.9289	10,555.7	80.8497	10,555.7	72.6984	10,555.7	78.6245	10,555.7	69.6287	10,555.7	76.4284	10,555.7	63.3906	10,555.7	70.2374	10,555.7	51.1934	10,555.7	64.0198	10,555.7	58.7223	10,555.7	60.7496	10,555.7	60.5825	10,555.7	55.3649	10,555.7	69.0547	10,555.7	48.5023	10,555.7	65.6314	10,555.7	57.8245	10,555.7	59.5756	10,555.7	53.8663	10,555.7	53.2026	10,555.7	57.4376	10,555.7	37.6171	10,555.7	52.9401	10,555.7	42.5206	10,555.7	50.0608	10,555.7	42.6648	10,555.7	45.7625	10,555.7	48.797	10,555.7	47.6305
10,927.7	85.9213	10,927.7	85.1773	10,927.7	81.4346	10,927.7	86.7988	10,927.7	80.4032	10,927.7	83.4586	10,927.7	79.0047	10,927.7	81.189	10,927.7	71.9647	10,927.7	78.2317	10,927.7	68.935	10,927.7	77.1004	10,927.7	64.1284	10,927.7	70.4047	10,927.7	53.6756	10,927.7	65.5749	10,927.7	41.2925	10,927.7	61.147	10,927.7	58.8398	10,927.7	56.7374	10,927.7	68.6622	10,927.7	53.0619	10,927.7	66.1797	10,927.7	57.8742	10,927.7	60.8381	10,927.7	56.0476	10,927.7	54.1803	10,927.7	57.6005	10,927.7	46.3082	10,927.7	53.6311	10,927.7	50.0354	10,927.7	49.4484	10,927.7	49.1979	10,927.7	44.4711	10,927.7	47.9445	10,927.7	52.5956
11,313	85.6912	11,313	85.9064	11,313	82.7086	11,313	86.7323	11,313	81.3944	11,313	83.8141	11,313	77.9938	11,313	81.7322	11,313	73.6301	11,313	77.734	11,313	69.3341	11,313	76.4695	11,313	64.7456	11,313	70.5065	11,313	60.494	11,313	65.6574	11,313	57.4672	11,313	61.9551	11,313	59.1501	11,313	58.5837	11,313	68.575	11,313	54.2067	11,313	65.8436	11,313	58.9895	11,313	60.4715	11,313	56.6273	11,313	53.9571	11,313	56.874	11,313	43.7429	11,313	54.3731	11,313	48.6894	11,313	29.0617	11,313	45.1289	11,313	27.8498	11,313	47.8372	11,313	47.6395
11,712.9	85.5969	11,712.9	86.33	11,712.9	83.6072	11,712.9	86.5725	11,712.9	82.015	11,712.9	83.7665	11,712.9	78.415	11,712.9	81.5003	11,712.9	73.2409	11,712.9	77.7699	11,712.9	68.2845	11,712.9	74.6506	11,712.9	62.7062	11,712.9	68.5317	11,712.9	60.3853	11,712.9	64.0497	11,712.9	55.3227	11,712.9	58.7712	11,712.9	55.1855	11,712.9	57.4303	11,712.9	68.4658	11,712.9	50.7229	11,712.9	65.4645	11,712.9	56.4314	11,712.9	59.1292	11,712.9	56.0201	11,712.9	49.6428	11,712.9	55.0461	11,712.9	43.1349	11,712.9	54.1447	11,712.9	47.6805	11,712.9	24.9672	11,712.9	37.8696	11,712.9	43.9945	11,712.9	45.3407	11,712.9	38.5652
12,126	85.6723	12,126	86.3718	12,126	83.3095	12,126	86.6699	12,126	81.595	12,126	82.9442	12,126	78.6038	12,126	81.6712	12,126	72.4989	12,126	77.0455	12,126	67.2714	12,126	73.5279	12,126	63.4903	12,126	69.4267	12,126	61.48	12,126	63.7014	12,126	51.6816	12,126	57.5609	12,126	38.1014	12,126	51.4884	12,126	67.8351	12,126	55.2105	12,126	66.0839	12,126	56.5354	12,126	57.4781	12,126	58.2464	12,126	44.2485	12,126	56.5448	12,126	45.9323	12,126	54.6842	12,126	48.8668	12,126	51.0413	12,126	42.0525	12,126	52.6789	12,126	51.3878	12,126	50.2795
12,553.7	85.1556	12,553.7	86.6424	12,553.7	83.1162	12,553.7	86.6615	12,553.7	81.3698	12,553.7	82.991	12,553.7	77.1373	12,553.7	81.7581	12,553.7	73.2275	12,553.7	77.598	12,553.7	71.1334	12,553.7	73.9265	12,553.7	66.9551	12,553.7	69.6034	12,553.7	61.4277	12,553.7	65.36	12,553.7	56.1769	12,553.7	60.7216	12,553.7	52.2131	12,553.7	50.4651	12,553.7	67.4716	12,553.7	54.5186	12,553.7	66.5797	12,553.7	58.0141	12,553.7	57.3552	12,553.7	58.6276	12,553.7	36.0696	12,553.7	56.9945	12,553.7	49.641	12,553.7	53.0015	12,553.7	44.4626	12,553.7	56.2021	12,553.7	38.649	12,553.7	56.7024	12,553.7	52.7035	12,553.7	51.156
12,996.1	84.4855	12,996.1	86.7678	12,996.1	83.3258	12,996.1	86.223	12,996.1	82.3058	12,996.1	83.3587	12,996.1	78.5308	12,996.1	81.8259	12,996.1	73.2362	12,996.1	77.8033	12,996.1	73.0419	12,996.1	75.4219	12,996.1	71.768	12,996.1	70.0532	12,996.1	65.1328	12,996.1	66.5469	12,996.1	54.4412	12,996.1	62.7539	12,996.1	50.2507	12,996.1	57.5466	12,996.1	67.1422	12,996.1	50.4999	12,996.1	67.9261	12,996.1	59.4561	12,996.1	58.1915	12,996.1	60.6752	12,996.1	48.9018	12,996.1	57.7907	12,996.1	49.4931	12,996.1	50.9786	12,996.1	31.8738	12,996.1	57.9227	12,996.1	41.1401	12,996.1	59.1734	12,996.1	49.2003	12,996.1	54.8219
13,454.6	85.0479	13,454.6	86.6836	13,454.6	83.2142	13,454.6	85.917	13,454.6	81.9852	13,454.6	83.6565	13,454.6	78.1835	13,454.6	81.9388	13,454.6	74.1242	13,454.6	78.3435	13,454.6	73.2542	13,454.6	74.6182	13,454.6	69.7078	13,454.6	70.8567	13,454.6	65.4066	13,454.6	67.5743	13,454.6	53.1206	13,454.6	65.376	13,454.6	50.434	13,454.6	60.0591	13,454.6	65.9024	13,454.6	48.7398	13,454.6	67.4886	13,454.6	60.514	13,454.6	57.5718	13,454.6	62.7357	13,454.6	54.575	13,454.6	57.475	13,454.6	53.0922	13,454.6	54.8512	13,454.6	48.2751	13,454.6	59.587	13,454.6	46.343	13,454.6	59.9616	13,454.6	44.4445	13,454.6	53.0389
13,929.2	85.5823	13,929.2	87.1454	13,929.2	83.407	13,929.2	86.1597	13,929.2	82.1301	13,929.2	83.3526	13,929.2	78.3902	13,929.2	81.8275	13,929.2	73.0338	13,929.2	77.6775	13,929.2	71.4094	13,929.2	73.4442	13,929.2	68.0332	13,929.2	69.9798	13,929.2	65.6135	13,929.2	67.9579	13,929.2	56.4504	13,929.2	65.2244	13,929.2	46.9532	13,929.2	61.4743	13,929.2	66.2908	13,929.2	46.5758	13,929.2	66.4059	13,929.2	59.7824	13,929.2	58.9853	13,929.2	62.3892	13,929.2	54.1572	13,929.2	54.73	13,929.2	52.3619	13,929.2	57.3317	13,929.2	49.3097	13,929.2	59.2651	13,929.2	53.0568	13,929.2	57.2137	13,929.2	45.4565	13,929.2	47.6735
14,419.9	85.8089	14,419.9	87.0698	14,419.9	83.6517	14,419.9	86.4149	14,419.9	82.2643	14,419.9	82.7204	14,419.9	78.4796	14,419.9	81.6998	14,419.9	72.6335	14,419.9	77.7405	14,419.9	71.5141	14,419.9	72.8012	14,419.9	66.7254	14,419.9	69.5228	14,419.9	65.0787	14,419.9	68.1436	14,419.9	59.5065	14,419.9	65.48	14,419.9	52.1233	14,419.9	59.5928	14,419.9	67.6955	14,419.9	48.624	14,419.9	66.4365	14,419.9	57.6051	14,419.9	57.0821	14,419.9	63.1789	14,419.9	54.2339	14,419.9	51.2146	14,419.9	52.3004	14,419.9	58.6611	14,419.9	49.6003	14,419.9	59.2183	14,419.9	55.9474	14,419.9	58.7009	14,419.9	42.834	14,419.9	48.1862
14,928.2	86.0643	14,928.2	86.8425	14,928.2	84.3163	14,928.2	86.6242	14,928.2	83.0382	14,928.2	82.7153	14,928.2	78.5851	14,928.2	81.5973	14,928.2	71.8771	14,928.2	77.2036	14,928.2	71.6023	14,928.2	71.9467	14,928.2	68.7647	14,928.2	69.8253	14,928.2	67.8103	14,928.2	67.2937	14,928.2	60.8296	14,928.2	64.7356	14,928.2	47.7617	14,928.2	58.6937	14,928.2	68.4616	14,928.2	43.8964	14,928.2	65.4511	14,928.2	58.6747	14,928.2	55.5484	14,928.2	62.4031	14,928.2	53.3835	14,928.2	52.3773	14,928.2	53.4467	14,928.2	59.4506	14,928.2	53.6155	14,928.2	57.984	14,928.2	58.0651	14,928.2	58.7502	14,928.2	46.0901	14,928.2	46.3696
15,455.6	86.4703	15,455.6	87.1899	15,455.6	84.3924	15,455.6	87.1684	15,455.6	82.7456	15,455.6	82.9845	15,455.6	78.8532	15,455.6	81.9936	15,455.6	72.5742	15,455.6	76.9486	15,455.6	69.6061	15,455.6	72.0952	15,455.6	64.8164	15,455.6	69.6325	15,455.6	65.8515	15,455.6	66.9773	15,455.6	62.0308	15,455.6	65.2548	15,455.6	52.453	15,455.6	60.2618	15,455.6	69.1371	15,455.6	38.3465	15,455.6	64.6156	15,455.6	62.1238	15,455.6	54.1096	15,455.6	61.7602	15,455.6	54.6511	15,455.6	56.6798	15,455.6	53.6258	15,455.6	60.8519	15,455.6	54.9036	15,455.6	58.0014	15,455.6	57.6636	15,455.6	58.5696	15,455.6	48.5326	15,455.6	42.7669
16,000.5	87.0767	16,000.5	87.7244	16,000.5	84.7571	16,000.5	87.8434	16,000.5	83.117	16,000.5	83.5777	16,000.5	78.0839	16,000.5	82.5855	16,000.5	69.7623	16,000.5	76.7671	16,000.5	70.213	16,000.5	72.8215	16,000.5	66.8493	16,000.5	69.3977	16,000.5	64.2294	16,000.5	66.5799	16,000.5	60.2362	16,000.5	65.5494	16,000.5	55.1184	16,000.5	61.6233	16,000.5	70.3661	16,000.5	45.5941	16,000.5	64.0458	16,000.5	63.2901	16,000.5	40.6155	16,000.5	60.4111	16,000.5	53.0323	16,000.5	58.0176	16,000.5	54.9643	16,000.5	60.8278	16,000.5	55.1468	16,000.5	56.0426	16,000.5	57.4439	16,000.5	58.1666	16,000.5	50.1071	16,000.5	40.2279
16,564.5	87.6072	16,564.5	88.1813	16,564.5	85.6173	16,564.5	88.3585	16,564.5	83.9677	16,564.5	84.1905	16,564.5	78.3975	16,564.5	83.0962	16,564.5	72.2013	16,564.5	77.6211	16,564.5	70.4094	16,564.5	72.226	16,564.5	66.9316	16,564.5	68.3706	16,564.5	67.2979	16,564.5	64.8484	16,564.5	63.0913	16,564.5	64.5201	16,564.5	53.6663	16,564.5	61.2101	16,564.5	71.0886	16,564.5	46.5608	16,564.5	63.0997	16,564.5	62.8114	16,564.5	47.2194	16,564.5	59.6826	16,564.5	56.9917	16,564.5	58.7648	16,564.5	58.926	16,564.5	59.8305	16,564.5	58.0535	16,564.5	51.8322	16,564.5	59.5717	16,564.5	58.0757	16,564.5	54.3888	16,564.5	40.5659
17,148.9	87.8145	17,148.9	88.4726	17,148.9	85.8981	17,148.9	88.4977	17,148.9	83.4468	17,148.9	84.1808	17,148.9	77.3831	17,148.9	82.155	17,148.9	69.9145	17,148.9	75.9956	17,148.9	67.7267	17,148.9	68.9079	17,148.9	65.1651	17,148.9	64.7259	17,148.9	64.0469	17,148.9	60.7115	17,148.9	61.066	17,148.9	61.2873	17,148.9	49.642	17,148.9	57.5685	17,148.9	70.1244	17,148.9	47.5631	17,148.9	62.6902	17,148.9	60.807	17,148.9	41.8482	17,148.9	55.7059	17,148.9	55.6798	17,148.9	56.6325	17,148.9	56.6458	17,148.9	56.0749	17,148.9	57.329	17,148.9	47.2433	17,148.9	60.2606	17,148.9	52.201	17,148.9	57.8456	17,148.9	46.0092
17,752.4	87.4744	17,752.4	88.1754	17,752.4	85.1348	17,752.4	88.1089	17,752.4	81.4168	17,752.4	83.3663	17,752.4	74.6363	17,752.4	81.0906	17,752.4	65.8771	17,752.4	73.5846	17,752.4	60.365	17,752.4	63.441	17,752.4	56.1734	17,752.4	57.1912	17,752.4	57.7694	17,752.4	54.8432	17,752.4	54.323	17,752.4	58.2133	17,752.4	49.7296	17,752.4	54.8101	17,752.4	68.0107	17,752.4	50.8716	17,752.4	60.8323	17,752.4	56.3067	17,752.4	52.417	17,752.4	53.0162	17,752.4	51.2447	17,752.4	49.2184	17,752.4	55.1905	17,752.4	49.7573	17,752.4	54.9015	17,752.4	56.4571	17,752.4	58.9895	17,752.4	45.8962	17,752.4	55.7095	17,752.4	47.5136
18,379.4	87.3295	18,379.4	87.9627	18,379.4	84.4698	18,379.4	87.9003	18,379.4	79.7272	18,379.4	82.7169	18,379.4	71.1412	18,379.4	79.328	18,379.4	58.1078	18,379.4	69.9585	18,379.4	50.2774	18,379.4	52.8555	18,379.4	51.9816	18,379.4	54.5225	18,379.4	56.1929	18,379.4	52.4445	18,379.4	56.7087	18,379.4	59.4461	18,379.4	50.5613	18,379.4	59.3489	18,379.4	66.2863	18,379.4	57.5623	18,379.4	60.0591	18,379.4	58.2532	18,379.4	56.5132	18,379.4	55.0892	18,379.4	52.9941	18,379.4	57.2756	18,379.4	54.5613	18,379.4	58.4213	18,379.4	55.0114	18,379.4	60.2856	18,379.4	57.1414	18,379.4	54.7433	18,379.4	55.5044	18,379.4	48.3604
19,026.9	86.8363	19,026.9	87.6344	19,026.9	83.57	19,026.9	87.5446	19,026.9	77.2495	19,026.9	81.6782	19,026.9	66.8382	19,026.9	77.1752	19,026.9	58.2116	19,026.9	66.588	19,026.9	58.7432	19,026.9	59.6069	19,026.9	59.2231	19,026.9	60.3373	19,026.9	61.8663	19,026.9	56.2802	19,026.9	60.6918	19,026.9	62.8784	19,026.9	52.9983	19,026.9	62.7023	19,026.9	64.4952	19,026.9	61.6403	19,026.9	59.3849	19,026.9	61.8353	19,026.9	58.4555	19,026.9	58.65	19,026.9	55.5167	19,026.9	61.7843	19,026.9	55.2346	19,026.9	61.346	19,026.9	55.3596	19,026.9	62.0884	19,026.9	59.3045	19,026.9	59.6076	19,026.9	54.8197	19,026.9	50.6676
19,697.8	86.2275	19,697.8	87.089	19,697.8	82.6479	19,697.8	86.9109	19,697.8	76.0051	19,697.8	80.2142	19,697.8	64.1787	19,697.8	75.1483	19,697.8	56.8653	19,697.8	64.0257	19,697.8	62.1763	19,697.8	61.647	19,697.8	62.6544	19,697.8	60.6268	19,697.8	63.178	19,697.8	56.7485	19,697.8	61.9252	19,697.8	63.7757	19,697.8	53.8471	19,697.8	62.1766	19,697.8	63.0292	19,697.8	62.5916	19,697.8	58.418	19,697.8	61.2415	19,697.8	58.0838	19,697.8	60.021	19,697.8	56.6912	19,697.8	61.8445	19,697.8	55.3297	19,697.8	61.7034	19,697.8	56.0045	19,697.8	63.3746	19,697.8	61.9869	19,697.8	62.2041	19,697.8	56.7323	19,697.8	52.734
19,999.5	86.0244	19,999.5	87.0198	19,999.5	82.4765	19,999.5	86.6341	19,999.5	75.8442	19,999.5	79.7118	19,999.5	65.3311	19,999.5	74.3674	19,999.5	58.4002	19,999.5	64.6299	19,999.5	61.6298	19,999.5	61.928	19,999.5	64.5408	19,999.5	59.1514	19,999.5	62.4278	19,999.5	56.3022	19,999.5	63.5283	19,999.5	63.7579	19,999.5	52.6844	19,999.5	61.2345	19,999.5	61.7498	19,999.5	64.3257	19,999.5	56.7259	19,999.5	60.9686	19,999.5	56.3693	19,999.5	59.9432	19,999.5	52.6896	19,999.5	61.5484	19,999.5	58.9194	19,999.5	61.4445	19,999.5	52.3561	19,999.5	63.4676	19,999.5	61.445	19,999.5	62.9369	19,999.5	57.6655	19,999.5	55.0191
