"SPL Horizontal"
"On-Axis"		"10°"		"-10°"		"20°"		"-20°"		"30°"		"-30°"		"40°"		"-40°"		"50°"		"-50°"		"60°"		"-60°"		"70°"		"-70°"		"80°"		"-80°"		"90°"		"-90°"		"100°"		"-100°"		"110°"		"-110°"		"120°"		"-120°"		"130°"		"-130°"		"140°"		"-140°"		"150°"		"-150°"		"160°"		"-160°"		"170°"		"-170°"		"180°"
"Frequency / Hz"	"Sound Pressure Level / dB (re 20 µPa/V)  [2.83  V @ 1. m]"	"Frequency / Hz"	"Sound Pressure Level / dB (re 20 µPa/V)  [2.83  V @ 1. m]"	"Frequency / Hz"	"Sound Pressure Level / dB (re 20 µPa/V)  [2.83  V @ 1. m]"	"Frequency / Hz"	"Sound Pressure Level / dB (re 20 µPa/V)  [2.83  V @ 1. m]"	"Frequency / Hz"	"Sound Pressure Level / dB (re 20 µPa/V)  [2.83  V @ 1. m]"	"Frequency / Hz"	"Sound Pressure Level / dB (re 20 µPa/V)  [2.83  V @ 1. m]"	"Frequency / Hz"	"Sound Pressure Level / dB (re 20 µPa/V)  [2.83  V @ 1. m]"	"Frequency / Hz"	"Sound Pressure Level / dB (re 20 µPa/V)  [2.83  V @ 1. m]"	"Frequency / Hz"	"Sound Pressure Level / dB (re 20 µPa/V)  [2.83  V @ 1. m]"	"Frequency / Hz"	"Sound Pressure Level / dB (re 20 µPa/V)  [2.83  V @ 1. m]"	"Frequency / Hz"	"Sound Pressure Level / dB (re 20 µPa/V)  [2.83  V @ 1. m]"	"Frequency / Hz"	"Sound Pressure Level / dB (re 20 µPa/V)  [2.83  V @ 1. m]"	"Frequency / Hz"	"Sound Pressure Level / dB (re 20 µPa/V)  [2.83  V @ 1. m]"	"Frequency / Hz"	"Sound Pressure Level / dB (re 20 µPa/V)  [2.83  V @ 1. m]"	"Frequency / Hz"	"Sound Pressure Level / dB (re 20 µPa/V)  [2.83  V @ 1. m]"	"Frequency / Hz"	"Sound Pressure Level / dB (re 20 µPa/V)  [2.83  V @ 1. m]"	"Frequency / Hz"	"Sound Pressure Level / dB (re 20 µPa/V)  [2.83  V @ 1. m]"	"Frequency / Hz"	"Sound Pressure Level / dB (re 20 µPa/V)  [2.83  V @ 1. m]"	"Frequency / Hz"	"Sound Pressure Level / dB (re 20 µPa/V)  [2.83  V @ 1. m]"	"Frequency / Hz"	"Sound Pressure Level / dB (re 20 µPa/V)  [2.83  V @ 1. m]"	"Frequency / Hz"	"Sound Pressure Level / dB (re 20 µPa/V)  [2.83  V @ 1. m]"	"Frequency / Hz"	"Sound Pressure Level / dB (re 20 µPa/V)  [2.83  V @ 1. m]"	"Frequency / Hz"	"Sound Pressure Level / dB (re 20 µPa/V)  [2.83  V @ 1. m]"	"Frequency / Hz"	"Sound Pressure Level / dB (re 20 µPa/V)  [2.83  V @ 1. m]"	"Frequency / Hz"	"Sound Pressure Level / dB (re 20 µPa/V)  [2.83  V @ 1. m]"	"Frequency / Hz"	"Sound Pressure Level / dB (re 20 µPa/V)  [2.83  V @ 1. m]"	"Frequency / Hz"	"Sound Pressure Level / dB (re 20 µPa/V)  [2.83  V @ 1. m]"	"Frequency / Hz"	"Sound Pressure Level / dB (re 20 µPa/V)  [2.83  V @ 1. m]"	"Frequency / Hz"	"Sound Pressure Level / dB (re 20 µPa/V)  [2.83  V @ 1. m]"	"Frequency / Hz"	"Sound Pressure Level / dB (re 20 µPa/V)  [2.83  V @ 1. m]"	"Frequency / Hz"	"Sound Pressure Level / dB (re 20 µPa/V)  [2.83  V @ 1. m]"	"Frequency / Hz"	"Sound Pressure Level / dB (re 20 µPa/V)  [2.83  V @ 1. m]"	"Frequency / Hz"	"Sound Pressure Level / dB (re 20 µPa/V)  [2.83  V @ 1. m]"	"Frequency / Hz"	"Sound Pressure Level / dB (re 20 µPa/V)  [2.83  V @ 1. m]"	"Frequency / Hz"	"Sound Pressure Level / dB (re 20 µPa/V)  [2.83  V @ 1. m]"	"Frequency / Hz"	"Sound Pressure Level / dB (re 20 µPa/V)  [2.83  V @ 1. m]"
20.5078	46.9394	20.5078	46.3396	20.5078	47.5236	20.5078	45.7321	20.5078	48.081	20.5078	45.124	20.5078	48.5984	20.5078	44.5285	20.5078	49.0623	20.5078	43.9771	20.5078	49.4625	20.5078	43.5355	20.5078	49.7965	20.5078	43.3101	20.5078	50.0715	20.5078	43.4164	20.5078	50.3048	20.5078	43.9067	20.5078	50.5185	20.5078	44.7213	20.5078	50.7315	20.5078	45.7269	20.5078	50.9525	20.5078	46.792	20.5078	51.1753	20.5078	47.825	20.5078	51.3817	20.5078	48.772	20.5078	51.5463	20.5078	49.603	20.5078	51.6409	20.5078	50.3004	20.5078	51.6388	20.5078	50.8538	20.5078	51.517	20.5078	51.2586
21.9727	52.56	21.9727	52.0959	21.9727	52.9641	21.9727	51.5777	21.9727	53.2988	21.9727	51.0082	21.9727	53.552	21.9727	50.3888	21.9727	53.7099	21.9727	49.7215	21.9727	53.7593	21.9727	49.0135	21.9727	53.6899	21.9727	48.2817	21.9727	53.4973	21.9727	47.5581	21.9727	53.1842	21.9727	46.8942	21.9727	52.7622	21.9727	46.3584	21.9727	52.2512	21.9727	46.0207	21.9727	51.6786	21.9727	45.924	21.9727	51.077	21.9727	46.0613	21.9727	50.4808	21.9727	46.3777	21.9727	49.92	21.9727	46.7979	21.9727	49.4126	21.9727	47.2544	21.9727	48.9585	21.9727	47.7037	21.9727	48.5399	21.9727	48.1295
23.4375	42.252	23.4375	41.8027	23.4375	42.6539	23.4375	41.3521	23.4375	42.9942	23.4375	40.9886	23.4375	43.2809	23.4375	40.8416	23.4375	43.5399	23.4375	41.0445	23.4375	43.8145	23.4375	41.6599	23.4375	44.1649	23.4375	42.6355	23.4375	44.6575	23.4375	43.8429	23.4375	45.3403	23.4375	45.1494	23.4375	46.2133	23.4375	46.4568	23.4375	47.2232	23.4375	47.7016	23.4375	48.2868	23.4375	48.8447	23.4375	49.3218	23.4375	49.8604	23.4375	50.2639	23.4375	50.73	23.4375	51.0686	23.4375	51.4379	23.4375	51.7062	23.4375	51.9705	23.4375	52.1581	23.4375	52.316	23.4375	52.4128	23.4375	52.4652
24.9023	45.9364	24.9023	45.5924	24.9023	46.1785	24.9023	45.1475	24.9023	46.3151	24.9023	44.6051	24.9023	46.3381	24.9023	43.9796	24.9023	46.2352	24.9023	43.3131	24.9023	45.9931	24.9023	42.7024	24.9023	45.6073	24.9023	42.3183	24.9023	45.0993	24.9023	42.3619	24.9023	44.5446	24.9023	42.9226	24.9023	44.101	24.9023	43.886	24.9023	43.9865	24.9023	45.0313	24.9023	44.3484	24.9023	46.1712	24.9023	45.1256	24.9023	47.1941	24.9023	46.1073	24.9023	48.0431	24.9023	47.0916	24.9023	48.6914	24.9023	47.9527	24.9023	49.1258	24.9023	48.628	24.9023	49.3392	24.9023	49.0898	24.9023	49.3277
26.3672	48.8857	26.3672	48.6879	26.3672	49.0724	26.3672	48.5107	26.3672	49.2334	26.3672	48.4036	26.3672	49.3696	26.3672	48.4289	26.3672	49.4982	26.3672	48.6463	26.3672	49.6542	26.3672	49.0897	26.3672	49.8896	26.3672	49.7503	26.3672	50.262	26.3672	50.5787	26.3672	50.811	26.3672	51.5056	26.3672	51.5344	26.3672	52.4636	26.3672	52.3855	26.3672	53.3984	26.3672	53.2934	26.3672	54.2709	26.3672	54.1873	26.3672	55.0542	26.3672	55.0104	26.3672	55.7283	26.3672	55.7221	26.3672	56.277	26.3672	56.2947	26.3672	56.6858	26.3672	56.7103	26.3672	56.942	26.3672	56.9584	26.3672	57.035
27.832	54.8806	27.832	54.8995	27.832	54.8531	27.832	54.9135	27.832	54.8224	27.832	54.934	27.832	54.8028	27.832	54.9801	27.832	54.8181	27.832	55.0764	27.832	54.8993	27.832	55.2502	27.832	55.0795	27.832	55.5257	27.832	55.3857	27.832	55.9165	27.832	55.8281	27.832	56.4192	27.832	56.3942	27.832	57.0127	27.832	57.0509	27.832	57.6623	27.832	57.7526	27.832	58.3269	27.832	58.4518	27.832	58.9658	27.832	59.1056	27.832	59.543	27.832	59.6787	27.832	60.0285	27.832	60.1443	27.832	60.399	27.832	60.4827	27.832	60.6375	27.832	60.6813	27.832	60.7332
29.2969	59.56	29.2969	59.5352	29.2969	59.5756	29.2969	59.5042	29.2969	59.5854	29.2969	59.4764	29.2969	59.5987	29.2969	59.4672	29.2969	59.63	29.2969	59.4974	29.2969	59.6984	29.2969	59.5903	29.2969	59.8252	29.2969	59.7684	29.2969	60.03	29.2969	60.0467	29.2969	60.3259	29.2969	60.4283	29.2969	60.7147	29.2969	60.901	29.2969	61.1839	29.2969	61.439	29.2969	61.7084	29.2969	62.0077	29.2969	62.2547	29.2969	62.5692	29.2969	62.7861	29.2969	63.0872	29.2969	63.2678	29.2969	63.53	29.2969	63.6695	29.2969	63.872	29.2969	63.9669	29.2969	64.0946	29.2969	64.1426	29.2969	64.1862
30.7617	62.4248	30.7617	62.4053	30.7617	62.4331	30.7617	62.3759	30.7617	62.4341	30.7617	62.3436	30.7617	62.4365	30.7617	62.3208	30.7617	62.4534	30.7617	62.3255	30.7617	62.5018	30.7617	62.3796	30.7617	62.6005	30.7617	62.5058	30.7617	62.7676	30.7617	62.7228	30.7617	63.0165	30.7617	63.0387	30.7617	63.3509	30.7617	63.4473	30.7617	63.7626	30.7617	63.9278	30.7617	64.2309	30.7617	64.4481	30.7617	64.7258	30.7617	64.9711	30.7617	65.213	30.7617	65.4597	30.7617	65.6585	30.7617	65.8811	30.7617	66.0323	30.7617	66.2085	30.7617	66.31	30.7617	66.4228	30.7617	66.4736	30.7617	66.5124
32.2266	64.7994	32.2266	64.7843	32.2266	64.8082	32.2266	64.7649	32.2266	64.8137	32.2266	64.7485	32.2266	64.8234	32.2266	64.7468	32.2266	64.8494	32.2266	64.7761	32.2266	64.9072	32.2266	64.855	32.2266	65.0142	32.2266	65.0011	32.2266	65.1867	32.2266	65.2278	32.2266	65.436	32.2266	65.5394	32.2266	65.7645	32.2266	65.9288	32.2266	66.1631	32.2266	66.3775	32.2266	66.6113	32.2266	66.8582	32.2266	67.0809	32.2266	67.3391	32.2266	67.5403	32.2266	67.7877	32.2266	67.9585	32.2266	68.1748	32.2266	68.3082	32.2266	68.4761	32.2266	68.5673	32.2266	68.6736	32.2266	68.7199	32.2266	68.7562
33.6914	67.2994	33.6914	67.2964	33.6914	67.2931	33.6914	67.2843	33.6914	67.2816	33.6914	67.2675	33.6914	67.2729	33.6914	67.2547	33.6914	67.2787	33.6914	67.2585	33.6914	67.3133	33.6914	67.2952	33.6914	67.3925	33.6914	67.3822	33.6914	67.5308	33.6914	67.5356	33.6914	67.7385	33.6914	67.7655	33.6914	68.018	33.6914	68.0728	33.6914	68.3622	33.6914	68.4462	33.6914	68.7541	33.6914	68.8641	33.6914	69.1692	33.6914	69.2969	33.6914	69.5792	33.6914	69.7124	33.6914	69.9551	33.6914	70.0796	33.6914	70.2704	33.6914	70.3718	33.6914	70.5028	33.6914	70.5691	33.6914	70.6355	33.6914	70.6586
35.1562	68.9266	35.1562	68.9194	35.1562	68.93	35.1562	68.9094	35.1562	68.9326	35.1562	68.9016	35.1562	68.9411	35.1562	68.9046	35.1562	68.9652	35.1562	68.9311	35.1562	69.0175	35.1562	68.9958	35.1562	69.1117	35.1562	69.1141	35.1562	69.2603	35.1562	69.2986	35.1562	69.4722	35.1562	69.5554	35.1562	69.7496	35.1562	69.8816	35.1562	70.0864	35.1562	70.2638	35.1562	70.4679	35.1562	70.6795	35.1562	70.8722	35.1562	71.1012	35.1562	71.2733	35.1562	71.4991	35.1562	71.6438	35.1562	71.8455	35.1562	71.9579	35.1562	72.1167	35.1562	72.1934	35.1562	72.2949	35.1562	72.3337	35.1562	72.3686
36.6211	70.895	36.6211	70.8953	36.6211	70.8931	36.6211	70.8947	36.6211	70.8926	36.6211	70.8971	36.6211	70.8993	36.6211	70.9098	36.6211	70.922	36.6211	70.9428	36.6211	70.9714	36.6211	71.0084	36.6211	71.0594	36.6211	71.1194	36.6211	71.1969	36.6211	71.2864	36.6211	71.3916	36.6211	71.5154	36.6211	71.6457	36.6211	71.8048	36.6211	71.9544	36.6211	72.1446	36.6211	72.3047	36.6211	72.5166	36.6211	72.6773	36.6211	72.8969	36.6211	73.048	36.6211	73.2588	36.6211	73.3912	36.6211	73.5764	36.6211	73.6825	36.6211	73.8269	36.6211	73.9009	36.6211	73.9926	36.6211	74.0306	36.6211	74.062
38.0859	72.6839	38.0859	72.6857	38.0859	72.6828	38.0859	72.6882	38.0859	72.6848	38.0859	72.6946	38.0859	72.695	38.0859	72.7105	38.0859	72.7208	38.0859	72.7441	38.0859	72.7712	38.0859	72.8055	38.0859	72.8562	38.0859	72.9052	38.0859	72.9846	38.0859	73.0526	38.0859	73.1629	38.0859	73.2535	38.0859	73.3929	38.0859	73.5078	38.0859	73.6701	38.0859	73.808	38.0859	73.9838	38.0859	74.1394	38.0859	74.3174	38.0859	74.4812	38.0859	74.6498	38.0859	74.8097	38.0859	74.9583	38.0859	75.1009	38.0859	75.2204	38.0859	75.333	38.0859	75.4166	38.0859	75.4887	38.0859	75.5317	38.0859	75.5565
39.5508	74.1625	39.5508	74.1638	39.5508	74.1638	39.5508	74.1681	39.5508	74.1698	39.5508	74.178	39.5508	74.1844	39.5508	74.1982	39.5508	74.2135	39.5508	74.2357	39.5508	74.2645	39.5508	74.2989	39.5508	74.3454	39.5508	74.3965	39.5508	74.4635	39.5508	74.5365	39.5508	74.6244	39.5508	74.7232	39.5508	74.83	39.5508	74.9565	39.5508	75.0774	39.5508	75.2297	39.5508	75.3583	39.5508	75.53	39.5508	75.6586	39.5508	75.8395	39.5508	75.9605	39.5508	76.1369	39.5508	76.2432	39.5508	76.4004	39.5508	76.4859	39.5508	76.6099	39.5508	76.6698	39.5508	76.7491	39.5508	76.7799	39.5508	76.8072
41.0156	75.4031	41.0156	75.3998	41.0156	75.4094	41.0156	75.3995	41.0156	75.4202	41.0156	75.4046	41.0156	75.4388	41.0156	75.4192	41.0156	75.4701	41.0156	75.4494	41.0156	75.5202	41.0156	75.5027	41.0156	75.596	41.0156	75.5872	41.0156	75.7041	41.0156	75.7103	41.0156	75.8494	41.0156	75.877	41.0156	76.0342	41.0156	76.0876	41.0156	76.2561	41.0156	76.3369	41.0156	76.5081	41.0156	76.6135	41.0156	76.7781	41.0156	76.9007	41.0156	77.0501	41.0156	77.1784	41.0156	77.3056	41.0156	77.4257	41.0156	77.5254	41.0156	77.6233	41.0156	77.6918	41.0156	77.7557	41.0156	77.7906	41.0156	77.8128
42.4805	76.4888	42.4805	76.502	42.4805	76.4801	42.4805	76.5198	42.4805	76.4772	42.4805	76.544	42.4805	76.483	42.4805	76.5778	42.4805	76.5018	42.4805	76.6258	42.4805	76.539	42.4805	76.6934	42.4805	76.6005	42.4805	76.7864	42.4805	76.6922	42.4805	76.9097	42.4805	76.8187	42.4805	77.0665	42.4805	76.9825	42.4805	77.2567	42.4805	77.1826	42.4805	77.4762	42.4805	77.4141	42.4805	77.7161	42.4805	77.667	42.4805	77.9632	42.4805	77.9271	42.4805	78.2009	42.4805	78.1766	42.4805	78.4111	42.4805	78.3966	42.4805	78.5764	42.4805	78.5688	42.4805	78.6818	42.4805	78.6788	42.4805	78.7173
43.9453	77.3829	43.9453	77.3886	43.9453	77.383	43.9453	77.4004	43.9453	77.3897	43.9453	77.42	43.9453	77.4054	43.9453	77.4502	43.9453	77.4336	43.9453	77.4949	43.9453	77.4786	43.9453	77.5586	43.9453	77.5454	43.9453	77.6461	43.9453	77.6389	43.9453	77.7615	43.9453	77.7629	43.9453	77.9077	43.9453	77.9195	43.9453	78.0846	43.9453	78.1075	43.9453	78.2889	43.9453	78.322	43.9453	78.5127	43.9453	78.5538	43.9453	78.7443	43.9453	78.7897	43.9453	78.9685	43.9453	79.0138	43.9453	79.1688	43.9453	79.2089	43.9453	79.3288	43.9453	79.3589	43.9453	79.4347	43.9453	79.4508	43.9453	79.4767
45.4102	78.002	45.4102	78.0071	45.4102	78.0055	45.4102	78.0213	45.4102	78.0182	45.4102	78.0459	45.4102	78.0419	45.4102	78.0833	45.4102	78.0791	45.4102	78.1363	45.4102	78.1333	45.4102	78.2085	45.4102	78.2084	45.4102	78.3031	45.4102	78.308	45.4102	78.4232	45.4102	78.4351	45.4102	78.5703	45.4102	78.5907	45.4102	78.744	45.4102	78.7735	45.4102	78.9408	45.4102	78.9787	45.4102	79.1536	45.4102	79.1978	45.4102	79.3719	45.4102	79.419	45.4102	79.5822	45.4102	79.6279	45.4102	79.7694	45.4102	79.8091	45.4102	79.9187	45.4102	79.9481	45.4102	80.0175	45.4102	80.0331	45.4102	80.0569
46.875	78.7054	46.875	78.711	46.875	78.7081	46.875	78.7252	46.875	78.7194	46.875	78.7487	46.875	78.7404	46.875	78.7829	46.875	78.7729	46.875	78.8295	46.875	78.8191	46.875	78.8908	46.875	78.8816	46.875	78.9692	46.875	78.9634	46.875	79.0667	46.875	79.0667	46.875	79.1851	46.875	79.1927	46.875	79.3245	46.875	79.3406	46.875	79.4828	46.875	79.5074	46.875	79.6552	46.875	79.6867	46.875	79.8336	46.875	79.8692	46.875	80.0071	46.875	80.043	46.875	80.163	46.875	80.195	46.875	80.2884	46.875	80.3125	46.875	80.3718	46.875	80.3847	46.875	80.4051
48.3398	79.0542	48.3398	79.0595	48.3398	79.0567	48.3398	79.073	48.3398	79.0675	48.3398	79.0952	48.3398	79.0874	48.3398	79.1272	48.3398	79.1179	48.3398	79.1705	48.3398	79.1609	48.3398	79.2271	48.3398	79.2187	48.3398	79.2989	48.3398	79.2936	48.3398	79.3881	48.3398	79.3878	48.3398	79.496	48.3398	79.5024	48.3398	79.6229	48.3398	79.637	48.3398	79.7671	48.3398	79.7889	48.3398	79.9245	48.3398	79.9526	48.3398	80.0877	48.3398	80.1196	48.3398	80.247	48.3398	80.2793	48.3398	80.3906	48.3398	80.4193	48.3398	80.5063	48.3398	80.5279	48.3398	80.5833	48.3398	80.5949	48.3398	80.6139
51.2695	79.6029	51.2695	79.6101	51.2695	79.6059	51.2695	79.6275	51.2695	79.6193	51.2695	79.6551	51.2695	79.6433	51.2695	79.6931	51.2695	79.6784	51.2695	79.7418	51.2695	79.7251	51.2695	79.8017	51.2695	79.7841	51.2695	79.8733	51.2695	79.8563	51.2695	79.9571	51.2695	79.9423	51.2695	80.0532	51.2695	80.0423	51.2695	80.1614	51.2695	80.1554	51.2695	80.28	51.2695	80.2797	51.2695	80.406	51.2695	80.4112	51.2695	80.5343	51.2695	80.544	51.2695	80.6581	51.2695	80.6704	51.2695	80.7687	51.2695	80.7813	51.2695	80.8574	51.2695	80.8676	51.2695	80.9158	51.2695	80.9216	51.2695	80.9381
52.7344	79.8619	52.7344	79.8691	52.7344	79.8654	52.7344	79.8867	52.7344	79.8797	52.7344	79.9147	52.7344	79.9047	52.7344	79.953	52.7344	79.9407	52.7344	80.0015	52.7344	79.9877	52.7344	80.0601	52.7344	80.046	52.7344	80.1292	52.7344	80.1158	52.7344	80.2086	52.7344	80.1972	52.7344	80.2986	52.7344	80.2903	52.7344	80.3985	52.7344	80.3942	52.7344	80.507	52.7344	80.5073	52.7344	80.6216	52.7344	80.6263	52.7344	80.7378	52.7344	80.7462	52.7344	80.8497	52.7344	80.8604	52.7344	80.9497	52.7344	80.9608	52.7344	81.03	52.7344	81.0391	52.7344	81.083	52.7344	81.0881	52.7344	81.1031
54.1992	79.993	54.1992	79.9972	54.1992	80.0005	54.1992	80.0131	54.1992	80.0197	54.1992	80.0405	54.1992	80.0503	54.1992	80.0788	54.1992	80.0919	54.1992	80.1277	54.1992	80.1439	54.1992	80.1865	54.1992	80.2058	54.1992	80.2545	54.1992	80.2768	54.1992	80.3313	54.1992	80.3565	54.1992	80.4161	54.1992	80.4443	54.1992	80.5082	54.1992	80.5393	54.1992	80.6063	54.1992	80.6399	54.1992	80.7083	54.1992	80.7437	54.1992	80.8109	54.1992	80.8467	54.1992	80.9095	54.1992	80.9435	54.1992	80.998	54.1992	81.0275	54.1992	81.0698	54.1992	81.0919	54.1992	81.1187	54.1992	81.1305	54.1992	81.1397
55.6641	80.1938	55.6641	80.2045	55.6641	80.1929	55.6641	80.2248	55.6641	80.2017	55.6641	80.2541	55.6641	80.22	55.6641	80.2917	55.6641	80.2473	55.6641	80.3367	55.6641	80.2829	55.6641	80.388	55.6641	80.3261	55.6641	80.4446	55.6641	80.3764	55.6641	80.5056	55.6641	80.4333	55.6641	80.5702	55.6641	80.4967	55.6641	80.6379	55.6641	80.5664	55.6641	80.708	55.6641	80.6416	55.6641	80.7793	55.6641	80.7208	55.6641	80.8499	55.6641	80.8013	55.6641	80.9167	55.6641	80.8788	55.6641	80.9755	55.6641	80.9483	55.6641	81.0214	55.6641	81.0042	55.6641	81.0497	55.6641	81.0415	55.6641	81.057
58.5938	80.2572	58.5938	80.2579	58.5938	80.2673	58.5938	80.2691	58.5938	80.2875	58.5938	80.2906	58.5938	80.3171	58.5938	80.3215	58.5938	80.355	58.5938	80.3606	58.5938	80.3997	58.5938	80.4067	58.5938	80.45	58.5938	80.4585	58.5938	80.5047	58.5938	80.5148	58.5938	80.5629	58.5938	80.5747	58.5938	80.6236	58.5938	80.6373	58.5938	80.6862	58.5938	80.7018	58.5938	80.7497	58.5938	80.7671	58.5938	80.8129	58.5938	80.8316	58.5938	80.8736	58.5938	80.8929	58.5938	80.9294	58.5938	80.9477	58.5938	80.9769	58.5938	80.9922	58.5938	81.0127	58.5938	81.023	58.5938	81.0335	58.5938	81.0371
60.0586	80.2868	60.0586	80.2883	60.0586	80.2966	60.0586	80.3012	60.0586	80.3173	60.0586	80.3249	60.0586	80.3479	60.0586	80.3582	60.0586	80.3868	60.0586	80.3996	60.0586	80.4324	60.0586	80.4472	60.0586	80.4828	60.0586	80.4993	60.0586	80.5363	60.0586	80.554	60.0586	80.5913	60.0586	80.61	60.0586	80.6464	60.0586	80.666	60.0586	80.7007	60.0586	80.7214	60.0586	80.7534	60.0586	80.7753	60.0586	80.8036	60.0586	80.8267	60.0586	80.8506	60.0586	80.8741	60.0586	80.8931	60.0586	80.9153	60.0586	80.9292	60.0586	80.9479	60.0586	80.9569	60.0586	80.9695	60.0586	80.9739	60.0586	80.9784
62.9883	80.4747	62.9883	80.4801	62.9883	80.4806	62.9883	80.4965	62.9883	80.4971	62.9883	80.523	62.9883	80.5232	62.9883	80.5582	62.9883	80.5572	62.9883	80.6	62.9883	80.5971	62.9883	80.6462	62.9883	80.6408	62.9883	80.6943	62.9883	80.6861	62.9883	80.7421	62.9883	80.7313	62.9883	80.7878	62.9883	80.7748	62.9883	80.8301	62.9883	80.8157	62.9883	80.8683	62.9883	80.8534	62.9883	80.9022	62.9883	80.8877	62.9883	80.9316	62.9883	80.9185	62.9883	80.9566	62.9883	80.9457	62.9883	80.9771	62.9883	80.9688	62.9883	80.9923	62.9883	80.9868	62.9883	81.0015	62.9883	80.9987	62.9883	81.0037
64.4531	80.4715	64.4531	80.4725	64.4531	80.4818	64.4531	80.4847	64.4531	80.5029	64.4531	80.5074	64.4531	80.5333	64.4531	80.539	64.4531	80.5715	64.4531	80.5777	64.4531	80.6151	64.4531	80.6211	64.4531	80.6619	64.4531	80.6669	64.4531	80.7096	64.4531	80.7128	64.4531	80.7562	64.4531	80.7569	64.4531	80.8	64.4531	80.7979	64.4531	80.8397	64.4531	80.835	64.4531	80.8746	64.4531	80.8679	64.4531	80.9045	64.4531	80.8967	64.4531	80.9293	64.4531	80.9216	64.4531	80.9493	64.4531	80.9427	64.4531	80.9644	64.4531	80.9595	64.4531	80.9745	64.4531	80.9716	64.4531	80.9793	64.4531	80.9784
67.3828	80.5618	67.3828	80.5549	67.3828	80.5781	67.3828	80.5576	67.3828	80.6032	67.3828	80.5694	67.3828	80.636	67.3828	80.5891	67.3828	80.6747	67.3828	80.6154	67.3828	80.7174	67.3828	80.6463	67.3828	80.7617	67.3828	80.6797	67.3828	80.805	67.3828	80.7136	67.3828	80.8452	67.3828	80.7462	67.3828	80.8801	67.3828	80.7762	67.3828	80.9085	67.3828	80.8028	67.3828	80.9294	67.3828	80.8259	67.3828	80.943	67.3828	80.8459	67.3828	80.9498	67.3828	80.8634	67.3828	80.9509	67.3828	80.8793	67.3828	80.9477	67.3828	80.894	67.3828	80.941	67.3828	80.9078	67.3828	80.9318	67.3828	80.9206
68.8477	80.5292	68.8477	80.5201	68.8477	80.5477	68.8477	80.521	68.8477	80.5747	68.8477	80.5314	68.8477	80.6089	68.8477	80.5504	68.8477	80.6483	68.8477	80.5766	68.8477	80.6905	68.8477	80.6076	68.8477	80.7329	68.8477	80.6411	68.8477	80.7731	68.8477	80.6745	68.8477	80.8084	68.8477	80.7054	68.8477	80.837	68.8477	80.7321	68.8477	80.8578	68.8477	80.7535	68.8477	80.8703	68.8477	80.7696	68.8477	80.875	68.8477	80.7811	68.8477	80.873	68.8477	80.7894	68.8477	80.866	68.8477	80.7961	68.8477	80.8557	68.8477	80.8028	68.8477	80.8437	68.8477	80.8107	68.8477	80.8316	68.8477	80.8204
71.7773	80.2988	71.7773	80.303	71.7773	80.3083	71.7773	80.3205	71.7773	80.331	71.7773	80.3501	71.7773	80.3657	71.7773	80.3899	71.7773	80.4105	71.7773	80.437	71.7773	80.4625	71.7773	80.4882	71.7773	80.5187	71.7773	80.5401	71.7773	80.5756	71.7773	80.5892	71.7773	80.6295	71.7773	80.6326	71.7773	80.6773	71.7773	80.6681	71.7773	80.7163	71.7773	80.6944	71.7773	80.7448	71.7773	80.7117	71.7773	80.7625	71.7773	80.7212	71.7773	80.7699	71.7773	80.7249	71.7773	80.7688	71.7773	80.7256	71.7773	80.7618	71.7773	80.7259	71.7773	80.7519	71.7773	80.728	71.7773	80.7416	71.7773	80.7333
74.707	80.3869	74.707	80.3891	74.707	80.3979	74.707	80.4041	74.707	80.4213	74.707	80.4308	74.707	80.4557	74.707	80.4673	74.707	80.499	74.707	80.5109	74.707	80.5481	74.707	80.5586	74.707	80.5997	74.707	80.6068	74.707	80.6503	74.707	80.6521	74.707	80.6963	74.707	80.6916	74.707	80.7345	74.707	80.7229	74.707	80.7626	74.707	80.7445	74.707	80.7796	74.707	80.7563	74.707	80.7855	74.707	80.7593	74.707	80.7819	74.707	80.7557	74.707	80.7718	74.707	80.7483	74.707	80.7585	74.707	80.7401	74.707	80.7458	74.707	80.7342	74.707	80.7366	74.707	80.7326
77.6367	80.4143	77.6367	80.4173	77.6367	80.4235	77.6367	80.4322	77.6367	80.4442	77.6367	80.4581	77.6367	80.4748	77.6367	80.4932	77.6367	80.5132	77.6367	80.535	77.6367	80.5566	77.6367	80.5805	77.6367	80.6016	77.6367	80.6262	77.6367	80.6449	77.6367	80.6686	77.6367	80.683	77.6367	80.7045	77.6367	80.7129	77.6367	80.7314	77.6367	80.7326	77.6367	80.7475	77.6367	80.7411	77.6367	80.7524	77.6367	80.7392	77.6367	80.7474	77.6367	80.7289	77.6367	80.7347	77.6367	80.7134	77.6367	80.7176	77.6367	80.697	77.6367	80.7	77.6367	80.6835	77.6367	80.6854	77.6367	80.6762	77.6367	80.6769
79.1016	80.4038	79.1016	80.4067	79.1016	80.4123	79.1016	80.421	79.1016	80.4316	79.1016	80.4455	79.1016	80.4605	79.1016	80.4785	79.1016	80.4967	79.1016	80.5176	79.1016	80.5376	79.1016	80.5598	79.1016	80.58	79.1016	80.6016	79.1016	80.6202	79.1016	80.6395	79.1016	80.6549	79.1016	80.6703	79.1016	80.6809	79.1016	80.6914	79.1016	80.696	79.1016	80.7011	79.1016	80.6994	79.1016	80.6992	79.1016	80.6915	79.1016	80.6871	79.1016	80.6747	79.1016	80.6676	79.1016	80.6525	79.1016	80.6444	79.1016	80.6293	79.1016	80.6221	79.1016	80.61	79.1016	80.605	79.1016	80.5982	79.1016	80.5965
82.0312	80.3649	82.0312	80.3758	82.0312	80.3636	82.0312	80.3959	82.0312	80.3717	82.0312	80.424	82.0312	80.3881	82.0312	80.4578	82.0312	80.4107	82.0312	80.4945	82.0312	80.437	82.0312	80.5307	82.0312	80.4641	82.0312	80.5626	82.0312	80.4885	82.0312	80.5863	82.0312	80.507	82.0312	80.5986	82.0312	80.5165	82.0312	80.5972	82.0312	80.5151	82.0312	80.5812	82.0312	80.5018	82.0312	80.5514	82.0312	80.4776	82.0312	80.5107	82.0312	80.4449	82.0312	80.4635	82.0312	80.4079	82.0312	80.4157	82.0312	80.3722	82.0312	80.3734	82.0312	80.3435	82.0312	80.3422	82.0312	80.327	82.0312	80.3262
84.9609	80.2279	84.9609	80.22	84.9609	80.2485	84.9609	80.2249	84.9609	80.281	84.9609	80.2416	84.9609	80.3233	84.9609	80.2681	84.9609	80.3726	84.9609	80.3014	84.9609	80.4255	84.9609	80.338	84.9609	80.478	84.9609	80.374	84.9609	80.5261	84.9609	80.4055	84.9609	80.566	84.9609	80.4294	84.9609	80.5944	84.9609	80.4434	84.9609	80.6088	84.9609	80.4467	84.9609	80.6081	84.9609	80.4402	84.9609	80.5926	84.9609	80.4263	84.9609	80.5644	84.9609	80.4084	84.9609	80.5269	84.9609	80.3913	84.9609	80.4853	84.9609	80.3796	84.9609	80.4449	84.9609	80.3777	84.9609	80.4111	84.9609	80.388
87.8906	80.0566	87.8906	80.0361	87.8906	80.0926	87.8906	80.0316	87.8906	80.1433	87.8906	80.0429	87.8906	80.2071	87.8906	80.0691	87.8906	80.2818	87.8906	80.1086	87.8906	80.3641	87.8906	80.1592	87.8906	80.45	87.8906	80.2177	87.8906	80.5345	87.8906	80.2802	87.8906	80.6125	87.8906	80.3427	87.8906	80.6786	87.8906	80.401	87.8906	80.7286	87.8906	80.4514	87.8906	80.7594	87.8906	80.4915	87.8906	80.7703	87.8906	80.5206	87.8906	80.7624	87.8906	80.5401	87.8906	80.7392	87.8906	80.5535	87.8906	80.7059	87.8906	80.5655	87.8906	80.6685	87.8906	80.5808	87.8906	80.6327	87.8906	80.6029
90.8203	80.962	90.8203	80.9781	90.8203	80.9418	90.8203	80.9893	90.8203	80.9175	90.8203	80.9945	90.8203	80.8891	90.8203	80.9922	90.8203	80.8558	90.8203	80.9805	90.8203	80.8166	90.8203	80.9571	90.8203	80.7702	90.8203	80.9198	90.8203	80.7146	90.8203	80.8662	90.8203	80.6479	90.8203	80.7945	90.8203	80.5683	90.8203	80.7037	90.8203	80.475	90.8203	80.594	90.8203	80.3692	90.8203	80.4683	90.8203	80.2542	90.8203	80.3318	90.8203	80.1362	90.8203	80.1927	90.8203	80.0237	90.8203	80.0614	90.8203	79.9267	90.8203	79.9494	90.8203	79.8555	90.8203	79.8671	90.8203	79.8189	90.8203	79.8224
95.2148	80.0548	95.2148	80.0598	95.2148	80.0672	95.2148	80.0825	95.2148	80.0953	95.2148	80.122	95.2148	80.1365	95.2148	80.1762	95.2148	80.1872	95.2148	80.2416	95.2148	80.2431	95.2148	80.3133	95.2148	80.2991	95.2148	80.386	95.2148	80.3504	95.2148	80.4538	95.2148	80.3923	95.2148	80.5114	95.2148	80.4216	95.2148	80.5542	95.2148	80.4369	95.2148	80.5794	95.2148	80.4387	95.2148	80.5859	95.2148	80.4296	95.2148	80.5748	95.2148	80.4137	95.2148	80.549	95.2148	80.3963	95.2148	80.5133	95.2148	80.3828	95.2148	80.4734	95.2148	80.378	95.2148	80.4354	95.2148	80.3849	95.2148	80.4046
98.1445	80.2749	98.1445	80.316	98.1445	80.2464	98.1445	80.3688	98.1445	80.2302	98.1445	80.4317	98.1445	80.2257	98.1445	80.502	98.1445	80.2314	98.1445	80.576	98.1445	80.2456	98.1445	80.6493	98.1445	80.2664	98.1445	80.717	98.1445	80.2918	98.1445	80.7742	98.1445	80.3197	98.1445	80.8165	98.1445	80.3482	98.1445	80.8407	98.1445	80.3753	98.1445	80.8452	98.1445	80.3992	98.1445	80.8302	98.1445	80.4192	98.1445	80.7979	98.1445	80.4351	98.1445	80.7523	98.1445	80.4486	98.1445	80.6985	98.1445	80.4627	98.1445	80.6423	98.1445	80.4812	98.1445	80.5892	98.1445	80.5074	98.1445	80.5434
101.074	80.1995	101.074	80.2185	101.074	80.1963	101.074	80.2523	101.074	80.2089	101.074	80.2994	101.074	80.2366	101.074	80.3579	101.074	80.2779	101.074	80.425	101.074	80.3302	101.074	80.4973	101.074	80.3904	101.074	80.5708	101.074	80.455	101.074	80.6412	101.074	80.5199	101.074	80.7038	101.074	80.5814	101.074	80.7545	101.074	80.6358	101.074	80.7904	101.074	80.68	101.074	80.81	101.074	80.712	101.074	80.8141	101.074	80.7315	101.074	80.8056	101.074	80.7399	101.074	80.789	101.074	80.7406	101.074	80.7697	101.074	80.7382	101.074	80.7527	101.074	80.7372	101.074	80.7416
105.469	80.6855	105.469	80.6871	105.469	80.689	105.469	80.6924	105.469	80.6985	105.469	80.7001	105.469	80.7144	105.469	80.7089	105.469	80.7358	105.469	80.7176	105.469	80.7607	105.469	80.7247	105.469	80.7859	105.469	80.7284	105.469	80.8075	105.469	80.7266	105.469	80.8212	105.469	80.7168	105.469	80.8227	105.469	80.6971	105.469	80.8087	105.469	80.6662	105.469	80.7775	105.469	80.6246	105.469	80.7295	105.469	80.5749	105.469	80.6678	105.469	80.5216	105.469	80.5982	105.469	80.471	105.469	80.5288	105.469	80.4301	105.469	80.4683	105.469	80.4059	105.469	80.4248	105.469	80.4034
108.398	80.9971	108.398	80.9973	108.398	80.9968	108.398	80.997	108.398	80.9968	108.398	80.9965	108.398	80.9973	108.398	80.9955	108.398	80.9982	108.398	80.994	108.398	80.9988	108.398	80.9907	108.398	80.9974	108.398	80.9839	108.398	80.9913	108.398	80.9706	108.398	80.977	108.398	80.9474	108.398	80.951	108.398	80.9111	108.398	80.9102	108.398	80.8597	108.398	80.8529	108.398	80.793	108.398	80.7801	108.398	80.7137	108.398	80.6957	108.398	80.6276	108.398	80.6066	108.398	80.5433	108.398	80.5226	108.398	80.4708	108.398	80.4541	108.398	80.4201	108.398	80.4108	108.398	80.399
112.793	81.148	112.793	81.1437	112.793	81.1514	112.793	81.1383	112.793	81.1542	112.793	81.1322	112.793	81.157	112.793	81.1257	112.793	81.16	112.793	81.119	112.793	81.163	112.793	81.1116	112.793	81.1647	112.793	81.102	112.793	81.1628	112.793	81.0879	112.793	81.154	112.793	81.0662	112.793	81.1347	112.793	81.0339	112.793	81.1014	112.793	80.9882	112.793	81.0515	112.793	80.9286	112.793	80.9851	112.793	80.857	112.793	80.9048	112.793	80.7787	112.793	80.8169	112.793	80.7022	112.793	80.7307	112.793	80.6379	112.793	80.6568	112.793	80.5962	112.793	80.6056	112.793	80.5845
117.188	81.3105	117.188	81.3057	117.188	81.3114	117.188	81.2964	117.188	81.3091	117.188	81.2827	117.188	81.3044	117.188	81.2647	117.188	81.2976	117.188	81.2429	117.188	81.288	117.188	81.217	117.188	81.274	117.188	81.1862	117.188	81.2528	117.188	81.1488	117.188	81.2211	117.188	81.1025	117.188	81.1754	117.188	81.0449	117.188	81.113	117.188	80.9743	117.188	81.0331	117.188	80.8906	117.188	80.9372	117.188	80.7965	117.188	80.8301	117.188	80.6982	117.188	80.7198	117.188	80.6045	117.188	80.6168	117.188	80.5263	117.188	80.5322	117.188	80.4742	117.188	80.4765	117.188	80.4565
120.117	81.6369	120.117	81.6511	120.117	81.614	120.117	81.6558	120.117	81.5832	120.117	81.65	120.117	81.5449	120.117	81.6326	120.117	81.4992	120.117	81.602	120.117	81.4452	120.117	81.5565	120.117	81.3814	120.117	81.4943	120.117	81.3055	120.117	81.4135	120.117	81.2146	120.117	81.3127	120.117	81.1066	120.117	81.1915	120.117	80.9809	120.117	81.0508	120.117	80.8389	120.117	80.8936	120.117	80.6855	120.117	80.7257	120.117	80.5288	120.117	80.5561	120.117	80.38	120.117	80.3965	120.117	80.252	120.117	80.2606	120.117	80.1577	120.117	80.1612	120.117	80.1077	120.117	80.1086
124.512	81.7351	124.512	81.7603	124.512	81.7067	124.512	81.7819	124.512	81.6748	124.512	81.799	124.512	81.6389	124.512	81.8098	124.512	81.5976	124.512	81.8114	124.512	81.5494	124.512	81.7999	124.512	81.4917	124.512	81.7709	124.512	81.4217	124.512	81.7194	124.512	81.3364	124.512	81.6413	124.512	81.2334	124.512	81.534	124.512	81.1116	124.512	81.397	124.512	80.9726	124.512	81.2334	124.512	80.8212	124.512	81.0501	124.512	80.6664	124.512	80.8577	124.512	80.5203	124.512	80.6705	124.512	80.3974	124.512	80.5049	124.512	80.3123	124.512	80.3766	124.512	80.2769	124.512	80.2983
128.906	81.6187	128.906	81.6341	128.906	81.607	128.906	81.6523	128.906	81.5993	128.906	81.672	128.906	81.595	128.906	81.6915	128.906	81.5924	128.906	81.7086	128.906	81.5885	128.906	81.7206	128.906	81.5791	128.906	81.7241	128.906	81.5595	128.906	81.7155	128.906	81.5252	128.906	81.6908	128.906	81.4728	128.906	81.6467	128.906	81.4013	128.906	81.5809	128.906	81.3124	128.906	81.493	128.906	81.2113	128.906	81.3856	128.906	81.1059	128.906	81.265	128.906	81.0064	128.906	81.141	128.906	80.924	128.906	81.0257	128.906	80.8693	128.906	80.9324	128.906	80.8504	128.906	80.8718
133.301	81.8317	133.301	81.8514	133.301	81.8173	133.301	81.8744	133.301	81.8096	133.301	81.8989	133.301	81.8095	133.301	81.9228	133.301	81.8165	133.301	81.9439	133.301	81.8285	133.301	81.9596	133.301	81.8415	133.301	81.9668	133.301	81.8499	133.301	81.9621	133.301	81.8474	133.301	81.9424	133.301	81.8279	133.301	81.9049	133.301	81.787	133.301	81.8483	133.301	81.7237	133.301	81.773	133.301	81.6408	133.301	81.6821	133.301	81.5454	133.301	81.5815	133.301	81.4483	133.301	81.4797	133.301	81.3622	133.301	81.3874	133.301	81.2991	133.301	81.3157	133.301	81.2682	133.301	81.274
139.16	82.1387	139.16	82.1493	139.16	82.1244	139.16	82.1559	139.16	82.107	139.16	82.1586	139.16	82.0868	139.16	82.1573	139.16	82.0643	139.16	82.1521	139.16	82.0391	139.16	82.1426	139.16	82.0106	139.16	82.1276	139.16	81.9774	139.16	82.1049	139.16	81.9373	139.16	82.0717	139.16	81.8883	139.16	82.0252	139.16	81.8285	139.16	81.9631	139.16	81.7574	139.16	81.8853	139.16	81.6768	139.16	81.7938	139.16	81.5915	139.16	81.694	139.16	81.5091	139.16	81.5936	139.16	81.4388	139.16	81.5022	139.16	81.3903	139.16	81.4297	139.16	81.3708	139.16	81.3842
143.555	82.2888	143.555	82.2826	143.555	82.292	143.555	82.2738	143.555	82.2918	143.555	82.2632	143.555	82.288	143.555	82.2514	143.555	82.2802	143.555	82.2387	143.555	82.2674	143.555	82.2243	143.555	82.2483	143.555	82.2065	143.555	82.2212	143.555	82.1826	143.555	82.1839	143.555	82.1494	143.555	82.1345	143.555	82.1041	143.555	82.0717	143.555	82.0454	143.555	81.9959	143.555	81.974	143.555	81.9097	143.555	81.893	143.555	81.8188	143.555	81.8078	143.555	81.731	143.555	81.7256	143.555	81.6553	143.555	81.6541	143.555	81.6	143.555	81.6008	143.555	81.5713	143.555	81.5718
147.949	82.4934	147.949	82.4878	147.949	82.4947	147.949	82.4781	147.949	82.4919	147.949	82.4654	147.949	82.4857	147.949	82.451	147.949	82.4762	147.949	82.4356	147.949	82.4627	147.949	82.4188	147.949	82.4434	147.949	82.3988	147.949	82.4154	147.949	82.372	147.949	82.3754	147.949	82.3345	147.949	82.32	147.949	82.2824	147.949	82.2472	147.949	82.2136	147.949	82.1572	147.949	82.1286	147.949	82.0532	147.949	82.0309	147.949	81.9417	147.949	81.9269	147.949	81.8327	147.949	81.8254	147.949	81.7377	147.949	81.7362	147.949	81.6679	147.949	81.6691	147.949	81.6316	147.949	81.6324
153.809	82.6843	153.809	82.669	153.809	82.693	153.809	82.6487	153.809	82.6945	153.809	82.6253	153.809	82.6888	153.809	82.6007	153.809	82.6763	153.809	82.5763	153.809	82.6572	153.809	82.5524	153.809	82.631	153.809	82.5279	153.809	82.5962	153.809	82.5005	153.809	82.5508	153.809	82.4666	153.809	82.4926	153.809	82.4225	153.809	82.4203	153.809	82.3652	153.809	82.3339	153.809	82.2934	153.809	82.236	153.809	82.2086	153.809	82.1318	153.809	82.1155	153.809	82.0295	153.809	82.0218	153.809	81.9396	153.809	81.9373	153.809	81.8725	153.809	81.8727	153.809	81.8369	153.809	81.8373
159.668	82.957	159.668	82.9563	159.668	82.9574	159.668	82.9548	159.668	82.9575	159.668	82.9515	159.668	82.9564	159.668	82.9446	159.668	82.9531	159.668	82.9322	159.668	82.9456	159.668	82.9121	159.668	82.9319	159.668	82.882	159.668	82.9095	159.668	82.8401	159.668	82.8766	159.668	82.7853	159.668	82.8317	159.668	82.7175	159.668	82.7744	159.668	82.6386	159.668	82.706	159.668	82.5525	159.668	82.6291	159.668	82.4652	159.668	82.5473	159.668	82.3839	159.668	82.4657	159.668	82.3164	159.668	82.3895	159.668	82.269	159.668	82.3246	159.668	82.246	159.668	82.2761	159.668	82.2488
165.527	83.1436	165.527	83.1225	165.527	83.157	165.527	83.0953	165.527	83.1624	165.527	83.0649	165.527	83.1609	165.527	83.0351	165.527	83.1538	165.527	83.0098	165.527	83.142	165.527	82.9914	165.527	83.1262	165.527	82.9803	165.527	83.1061	165.527	82.9743	165.527	83.0808	165.527	82.9693	165.527	83.0494	165.527	82.96	165.527	83.0109	165.527	82.9423	165.527	82.9659	165.527	82.9139	165.527	82.9158	165.527	82.8757	165.527	82.8639	165.527	82.8315	165.527	82.814	165.527	82.7873	165.527	82.7705	165.527	82.7495	165.527	82.7371	165.527	82.7234	165.527	82.717	165.527	82.7122
171.387	83.7288	171.387	83.6971	171.387	83.7414	171.387	83.6436	171.387	83.7385	171.387	83.5678	171.387	83.7239	171.387	83.4722	171.387	83.7005	171.387	83.3623	171.387	83.6701	171.387	83.2465	171.387	83.6329	171.387	83.134	171.387	83.5887	171.387	83.0331	171.387	83.5361	171.387	82.9496	171.387	83.4742	171.387	82.885	171.387	83.4028	171.387	82.8379	171.387	83.3226	171.387	82.8048	171.387	83.2361	171.387	82.7822	171.387	83.1471	171.387	82.7682	171.387	83.0602	171.387	82.7625	171.387	82.9799	171.387	82.7663	171.387	82.91	171.387	82.7817	171.387	82.853	171.387	82.8103
177.246	84.1633	177.246	84.195	177.246	84.1009	177.246	84.1949	177.246	84.0102	177.246	84.1628	177.246	83.8947	177.246	84.0997	177.246	83.759	177.246	84.0071	177.246	83.6085	177.246	83.8869	177.246	83.4493	177.246	83.7413	177.246	83.2879	177.246	83.5734	177.246	83.1307	177.246	83.3869	177.246	82.983	177.246	83.187	177.246	82.8485	177.246	82.9812	177.246	82.7291	177.246	82.7798	177.246	82.6249	177.246	82.5952	177.246	82.5344	177.246	82.4403	177.246	82.4555	177.246	82.3258	177.246	82.386	177.246	82.2565	177.246	82.3251	177.246	82.2306	177.246	82.2746	177.246	82.24
183.105	83.6501	183.105	83.6643	183.105	83.627	183.105	83.6694	183.105	83.5964	183.105	83.6662	183.105	83.5599	183.105	83.656	183.105	83.5186	183.105	83.6401	183.105	83.4717	183.105	83.6186	183.105	83.4165	183.105	83.5906	183.105	83.3483	183.105	83.5535	183.105	83.2624	183.105	83.5042	183.105	83.1554	183.105	83.4392	183.105	83.0278	183.105	83.3555	183.105	82.8852	183.105	83.2515	183.105	82.7383	183.105	83.1281	183.105	82.6016	183.105	82.9895	183.105	82.4906	183.105	82.8437	183.105	82.418	183.105	82.7016	183.105	82.3912	183.105	82.575	183.105	82.4115	183.105	82.4751
188.965	84.0775	188.965	84.0822	188.965	84.0491	188.965	84.0631	188.965	83.9977	188.965	84.0212	188.965	83.9245	188.965	83.9583	188.965	83.832	188.965	83.8778	188.965	83.7237	188.965	83.7838	188.965	83.6049	188.965	83.6813	188.965	83.4815	188.965	83.5751	188.965	83.3591	188.965	83.4694	188.965	83.2415	188.965	83.3677	188.965	83.1308	188.965	83.2725	188.965	83.0283	188.965	83.1849	188.965	82.9359	188.965	83.1045	188.965	82.8571	188.965	83.0301	188.965	82.7968	188.965	82.9605	188.965	82.7596	188.965	82.8959	188.965	82.7476	188.965	82.8383	188.965	82.7594	188.965	82.7913
196.289	84.3301	196.289	84.3267	196.289	84.2992	196.289	84.2887	196.289	84.2362	196.289	84.2187	196.289	84.1444	196.289	84.1222	196.289	84.028	196.289	84.0065	196.289	83.8915	196.289	83.8792	196.289	83.74	196.289	83.7465	196.289	83.5781	196.289	83.6122	196.289	83.4106	196.289	83.4778	196.289	83.2414	196.289	83.344	196.289	83.0742	196.289	83.2114	196.289	82.9134	196.289	83.0814	196.289	82.7645	196.289	82.9561	196.289	82.6343	196.289	82.8374	196.289	82.5309	196.289	82.7273	196.289	82.4614	196.289	82.6277	196.289	82.4299	196.289	82.5422	196.289	82.4363	196.289	82.476
203.613	84.1588	203.613	84.1227	203.613	84.1544	203.613	84.0478	203.613	84.111	203.613	83.9396	203.613	84.0333	203.613	83.807	203.613	83.928	203.613	83.6614	203.613	83.8035	203.613	83.5137	203.613	83.668	203.613	83.3728	203.613	83.5279	203.613	83.2438	203.613	83.3863	203.613	83.128	203.613	83.2434	203.613	83.0241	203.613	83.0983	203.613	82.9299	203.613	82.9512	203.613	82.8431	203.613	82.8063	203.613	82.7623	203.613	82.6717	203.613	82.6865	203.613	82.5582	203.613	82.6156	203.613	82.4762	203.613	82.55	203.613	82.4317	203.613	82.4921	203.613	82.4243	203.613	82.4474
210.938	84.0783	210.938	84.0121	210.938	84.1192	210.938	83.9222	210.938	84.1338	210.938	83.8115	210.938	84.1216	210.938	83.6834	210.938	84.0825	210.938	83.5413	210.938	84.0175	210.938	83.3874	210.938	83.9282	210.938	83.2227	210.938	83.8173	210.938	83.0485	210.938	83.6879	210.938	82.8679	210.938	83.5431	210.938	82.6882	210.938	83.3861	210.938	82.5217	210.938	83.2208	210.938	82.3823	210.938	83.0519	210.938	82.282	210.938	82.8861	210.938	82.2254	210.938	82.7313	210.938	82.2093	210.938	82.5946	210.938	82.2249	210.938	82.4805	210.938	82.2629	210.938	82.3893	210.938	82.3178
218.262	83.8973	218.262	83.9103	218.262	83.8538	218.262	83.8897	218.262	83.7873	218.262	83.8367	218.262	83.7093	218.262	83.7544	218.262	83.6319	218.262	83.6471	218.262	83.5644	218.262	83.519	218.262	83.5107	218.262	83.3747	218.262	83.4685	218.262	83.2196	218.262	83.4316	218.262	83.0606	218.262	83.3925	218.262	82.9057	218.262	83.3451	218.262	82.7632	218.262	83.2845	218.262	82.6411	218.262	83.2077	218.262	82.545	218.262	83.1128	218.262	82.4786	218.262	83.0007	218.262	82.4435	218.262	82.8764	218.262	82.4412	218.262	82.7495	218.262	82.4727	218.262	82.6327	218.262	82.5377
225.586	84.0343	225.586	84.0954	225.586	83.9394	225.586	84.1259	225.586	83.8104	225.586	84.129	225.586	83.6527	225.586	84.1056	225.586	83.4775	225.586	84.0537	225.586	83.3004	225.586	83.9695	225.586	83.1373	225.586	83.8497	225.586	82.9991	225.586	83.6941	225.586	82.8884	225.586	83.5083	225.586	82.7999	225.586	83.305	225.586	82.725	225.586	83.1036	225.586	82.6573	225.586	82.9257	225.586	82.5968	225.586	82.7882	225.586	82.549	225.586	82.697	225.586	82.5209	225.586	82.6451	225.586	82.5154	225.586	82.6176	225.586	82.5291	225.586	82.5989	225.586	82.5532	225.586	82.5782
232.91	84.1621	232.91	84.1442	232.91	84.1456	232.91	84.1008	232.91	84.088	232.91	84.0414	232.91	83.9866	232.91	83.9731	232.91	83.8424	232.91	83.8984	232.91	83.6597	232.91	83.8137	232.91	83.4454	232.91	83.7106	232.91	83.2081	232.91	83.578	232.91	82.9586	232.91	83.4079	232.91	82.7107	232.91	83.1996	232.91	82.4807	232.91	82.9644	232.91	82.2855	232.91	82.7245	232.91	82.1377	232.91	82.5071	232.91	82.0426	232.91	82.3333	232.91	81.9956	232.91	82.2108	232.91	81.9855	232.91	82.1327	232.91	81.9982	232.91	82.0841	232.91	82.0219	232.91	82.0501
241.699	83.7078	241.699	83.6947	241.699	83.6961	241.699	83.6567	241.699	83.6643	241.699	83.5986	241.699	83.6196	241.699	83.5283	241.699	83.569	241.699	83.4533	241.699	83.5158	241.699	83.3764	241.699	83.457	241.699	83.2924	241.699	83.3832	241.699	83.1877	241.699	83.2807	241.699	83.0445	241.699	83.1359	241.699	82.8484	241.699	82.9414	241.699	82.5965	241.699	82.7001	241.699	82.3025	241.699	82.4266	241.699	81.9963	241.699	82.1447	241.699	81.7156	241.699	81.8805	241.699	81.4942	241.699	81.6549	241.699	81.3505	241.699	81.4794	241.699	81.2858	241.699	81.3575	241.699	81.2912
250.488	83.6046	250.488	83.6237	250.488	83.5492	250.488	83.6061	250.488	83.4657	250.488	83.5589	250.488	83.3691	250.488	83.4942	250.488	83.2775	250.488	83.4255	250.488	83.2064	250.488	83.3632	250.488	83.1629	250.488	83.309	250.488	83.1421	250.488	83.2519	250.488	83.1277	250.488	83.17	250.488	83.0957	250.488	83.0374	250.488	83.0217	250.488	82.8342	250.488	82.8875	250.488	82.5565	250.488	82.6861	250.488	82.2225	250.488	82.4249	250.488	81.8717	250.488	82.1256	250.488	81.5567	250.488	81.8205	250.488	81.3262	250.488	81.546	250.488	81.2107	250.488	81.3357	250.488	81.2172
259.277	82.8587	259.277	82.8802	259.277	82.795	259.277	82.8591	259.277	82.7016	259.277	82.8077	259.277	82.601	259.277	82.7495	259.277	82.5196	259.277	82.7133	259.277	82.4796	259.277	82.7243	259.277	82.4898	259.277	82.7924	259.277	82.5396	259.277	82.9048	259.277	82.6014	259.277	83.0271	259.277	82.639	259.277	83.1151	259.277	82.6208	259.277	83.1288	259.277	82.5299	259.277	83.0434	259.277	82.3688	259.277	82.8552	259.277	82.1585	259.277	82.5829	259.277	81.9322	259.277	82.2656	259.277	81.7269	259.277	81.9556	259.277	81.5771	259.277	81.7051	259.277	81.5118	259.277	81.5522
268.066	81.8756	268.066	81.8565	268.066	81.7248	268.066	81.6621	268.066	81.4289	268.066	81.3104	268.066	81.0381	268.066	80.8572	268.066	80.6402	268.066	80.416	268.066	80.3663	268.066	80.1567	268.066	80.3582	268.066	80.2381	268.066	80.682	268.066	80.6894	268.066	81.266	268.066	81.3801	268.066	81.9493	268.066	82.1239	268.066	82.5799	268.066	82.7782	268.066	83.0641	268.066	83.267	268.066	83.3676	268.066	83.5667	268.066	83.5006	268.066	83.6894	268.066	83.5038	268.066	83.6727	268.066	83.4352	268.066	83.5711	268.066	83.357	268.066	83.4459	268.066	83.3199	268.066	83.3509
276.855	85.5264	276.855	85.4862	276.855	85.3913	276.855	85.2744	276.855	85.0793	276.855	84.8956	276.855	84.5903	276.855	84.3549	276.855	83.9271	276.855	83.6585	276.855	83.102	276.855	82.8235	276.855	82.1556	276.855	81.906	276.855	81.1934	276.855	81.051	276.855	80.4289	276.855	80.5222	276.855	80.1456	276.855	80.5776	276.855	80.4802	276.855	81.2127	276.855	81.2653	276.855	82.1583	276.855	82.2072	276.855	83.1357	276.855	83.0994	276.855	83.9847	276.855	83.854	276.855	84.6392	276.855	84.4523	276.855	85.0801	276.855	84.8999	276.855	85.3099	276.855	85.1999	276.855	85.343
287.109	85.5446	287.109	85.5243	287.109	85.4661	287.109	85.4077	287.109	85.2806	287.109	85.1918	287.109	84.9771	287.109	84.8683	287.109	84.5462	287.109	84.4285	287.109	83.9879	287.109	83.8698	287.109	83.3245	287.109	83.2068	287.109	82.6157	287.109	82.4889	287.109	81.9669	287.109	81.8202	287.109	81.5128	287.109	81.36	287.109	81.363	287.109	81.2569	287.109	81.5376	287.109	81.5342	287.109	81.9552	287.109	82.0637	287.109	82.4867	287.109	82.6687	287.109	83.0157	287.109	83.2171	287.109	83.4644	287.109	83.6393	287.109	83.7917	287.109	83.9087	287.109	83.9799	287.109	84.0208
297.363	85.8072	297.363	85.781	297.363	85.7407	297.363	85.6759	297.363	85.5638	297.363	85.5007	297.363	85.2568	297.363	85.2573	297.363	84.8001	297.363	84.9389	297.363	84.1798	297.363	84.5306	297.363	83.3994	297.363	84.0157	297.363	82.4986	297.363	83.3936	297.363	81.5804	297.363	82.71	297.363	80.822	297.363	82.0866	297.363	80.419	297.363	81.7062	297.363	80.4531	297.363	81.7019	297.363	80.8324	297.363	82.0348	297.363	81.3888	297.363	82.5288	297.363	81.9854	297.363	83.0057	297.363	82.5391	297.363	83.3549	297.363	83.0005	297.363	83.5291	297.363	83.3361	297.363	83.5192
307.617	85.6311	307.617	85.546	307.617	85.6261	307.617	85.3642	307.617	85.5378	307.617	85.0837	307.617	85.3684	307.617	84.711	307.617	85.1125	307.617	84.2618	307.617	84.7577	307.617	83.7586	307.617	84.2886	307.617	83.2245	307.617	83.6958	307.617	82.6796	307.617	82.9896	307.617	82.1478	307.617	82.2249	307.617	81.6721	307.617	81.5282	307.617	81.3229	307.617	81.083	307.617	81.1768	307.617	81.0184	307.617	81.2658	307.617	81.2876	307.617	81.5452	307.617	81.7145	307.617	81.9166	307.617	82.1353	307.617	82.2754	307.617	82.4576	307.617	82.5422	307.617	82.6413	307.617	82.6701
319.336	85.5169	319.336	85.4422	319.336	85.4851	319.336	85.2673	319.336	85.338	319.336	84.9936	319.336	85.0681	319.336	84.6179	319.336	84.6744	319.336	84.1358	319.336	84.166	319.336	83.5468	319.336	83.5642	319.336	82.8644	319.336	82.9055	319.336	82.1256	319.336	82.2488	319.336	81.4029	319.336	81.68	319.336	80.8143	319.336	81.2974	319.336	80.5059	319.336	81.1685	319.336	80.5685	319.336	81.2885	319.336	80.9457	319.336	81.5814	319.336	81.4656	319.336	81.9419	319.336	81.9615	319.336	82.2767	319.336	82.341	319.336	82.5261	319.336	82.5788	319.336	82.6635	319.336	82.6825
329.59	85.1569	329.59	85.142	329.59	85.1155	329.59	85.0671	329.59	85.0168	329.59	84.9238	329.59	84.8538	329.59	84.6981	329.59	84.6122	329.59	84.3718	329.59	84.2708	329.59	83.9278	329.59	83.8068	329.59	83.3594	329.59	83.2066	329.59	82.6817	329.59	82.4823	329.59	81.944	329.59	81.6913	329.59	81.2425	329.59	80.9502	329.59	80.7238	329.59	80.4189	329.59	80.5373	329.59	80.2315	329.59	80.7267	329.59	80.407	329.59	81.1752	329.59	80.8392	329.59	81.6906	329.59	81.3706	329.59	82.1164	329.59	81.8642	329.59	82.3648	329.59	82.2261	329.59	82.4015
341.309	85.1153	341.309	85.1095	341.309	85.0318	341.309	85.024	341.309	84.847	341.309	84.8598	341.309	84.5529	341.309	84.6071	341.309	84.1466	341.309	84.2496	341.309	83.6288	341.309	83.7732	341.309	83.0007	341.309	83.1735	341.309	82.2699	341.309	82.4627	341.309	81.4737	341.309	81.6791	341.309	80.7143	341.309	80.9034	341.309	80.1665	341.309	80.2701	341.309	79.9936	341.309	79.9362	341.309	80.2064	341.309	79.9844	341.309	80.6506	341.309	80.3477	341.309	81.142	341.309	80.8593	341.309	81.5604	341.309	81.3573	341.309	81.8493	341.309	81.7367	341.309	81.984	341.309	81.9492
353.027	84.9139	353.027	84.9589	353.027	84.8244	353.027	84.9462	353.027	84.6872	353.027	84.8474	353.027	84.4882	353.027	84.6253	353.027	84.2093	353.027	84.2475	353.027	83.8315	353.027	83.7039	353.027	83.3336	353.027	83.0198	353.027	82.6898	353.027	82.256	353.027	81.877	353.027	81.4912	353.027	80.9028	353.027	80.8021	353.027	79.8569	353.027	80.2668	353.027	78.9691	353.027	79.9866	353.027	78.5607	353.027	80.0569	353.027	78.783	353.027	80.4594	353.027	79.4564	353.027	81.0257	353.027	80.2804	353.027	81.5422	353.027	81.0349	353.027	81.8513	353.027	81.5905	353.027	81.873
366.211	85.1067	366.211	85.0239	366.211	85.1373	366.211	84.8773	366.211	85.1167	366.211	84.6518	366.211	85.0296	366.211	84.3359	366.211	84.8455	366.211	83.9226	366.211	84.5286	366.211	83.4056	366.211	84.0534	366.211	82.773	366.211	83.416	366.211	82.0128	366.211	82.6342	366.211	81.1416	366.211	81.7401	366.211	80.2621	366.211	80.7866	366.211	79.6076	366.211	79.8917	366.211	79.4269	366.211	79.2857	366.211	79.7176	366.211	79.2081	366.211	80.2291	366.211	79.6371	366.211	80.7269	366.211	80.2781	366.211	81.1025	366.211	80.849	366.211	81.3227	366.211	81.2195	366.211	81.3699
379.395	85.0886	379.395	85.1432	379.395	84.989	379.395	85.1318	379.395	84.8535	379.395	85.0249	379.395	84.6819	379.395	84.7923	379.395	84.4694	379.395	84.4148	379.395	84.207	379.395	83.8915	379.395	83.8778	379.395	83.2388	379.395	83.4542	379.395	82.4766	379.395	82.9081	379.395	81.6154	379.395	82.2369	379.395	80.671	379.395	81.4949	379.395	79.7341	379.395	80.807	379.395	79.0623	379.395	80.3322	379.395	78.9882	379.395	80.1802	379.395	79.5337	379.395	80.3472	379.395	80.3381	379.395	80.7262	379.395	81.0467	379.395	81.1615	379.395	81.4917	379.395	81.5021	379.395	81.6349
392.578	84.8808	392.578	84.8845	392.578	84.829	392.578	84.8484	392.578	84.7096	392.578	84.7645	392.578	84.5018	392.578	84.612	392.578	84.1913	392.578	84.3671	392.578	83.7758	392.578	84.0105	392.578	83.267	392.578	83.5288	392.578	82.6906	392.578	82.9118	392.578	82.0804	392.578	82.1599	392.578	81.4688	392.578	81.3024	392.578	80.8905	392.578	80.4236	392.578	80.4082	392.578	79.6884	392.578	80.1279	392.578	79.3217	392.578	80.1359	392.578	79.4558	392.578	80.395	392.578	79.9624	392.578	80.7549	392.578	80.5537	392.578	81.0671	392.578	81.0068	392.578	81.2437	392.578	81.2355
405.762	84.9994	405.762	84.9154	405.762	84.9681	405.762	84.7217	405.762	84.8244	405.762	84.4404	405.762	84.5689	405.762	84.1101	405.762	84.1898	405.762	83.7696	405.762	83.6596	405.762	83.4318	405.762	82.9446	405.762	83.0695	405.762	82.0276	405.762	82.6318	405.762	80.9418	405.762	82.0835	405.762	79.8214	405.762	81.4393	405.762	78.9509	405.762	80.7712	405.762	78.6541	405.762	80.1912	405.762	78.9641	405.762	79.8208	405.762	79.5777	405.762	79.7448	405.762	80.1883	405.762	79.9473	405.762	80.6463	405.762	80.3026	405.762	80.9131	405.762	80.6562	405.762	80.9939	405.762	80.9022
420.41	84.513	420.41	84.4824	420.41	84.4953	420.41	84.412	420.41	84.4145	420.41	84.2922	420.41	84.2644	420.41	84.0954	420.41	84.0558	420.41	83.7832	420.41	83.8035	420.41	83.3219	420.41	83.496	420.41	82.6949	420.41	83.0739	420.41	81.9024	420.41	82.4393	420.41	80.9519	420.41	81.4964	420.41	79.8785	420.41	80.215	420.41	78.8465	420.41	78.7431	420.41	78.2413	420.41	77.5688	420.41	78.3911	420.41	77.3572	420.41	79.1006	420.41	78.1231	420.41	79.9147	420.41	79.2242	420.41	80.558	420.41	80.169	420.41	80.938	420.41	80.7761	420.41	81.0222
435.059	84.2233	435.059	84.291	435.059	84.1216	435.059	84.2985	435.059	83.9986	435.059	84.219	435.059	83.8472	435.059	84.0359	435.059	83.6462	435.059	83.7403	435.059	83.3751	435.059	83.3193	435.059	83.0216	435.059	82.7459	435.059	82.5728	435.059	81.9816	435.059	81.9989	435.059	80.9935	435.059	81.2586	435.059	79.7912	435.059	80.3503	435.059	78.5037	435.059	79.399	435.059	77.5086	435.059	78.7129	435.059	77.3561	435.059	78.6201	435.059	78.1227	435.059	79.1045	435.059	79.2359	435.059	79.8227	435.059	80.1838	435.059	80.4624	435.059	80.7734	435.059	80.8717	435.059	80.9897
451.172	84.7074	451.172	84.5535	451.172	84.732	451.172	84.3017	451.172	84.6186	451.172	84.0047	451.172	84.3816	451.172	83.7242	451.172	84.0541	451.172	83.4944	451.172	83.6686	451.172	83.2818	451.172	83.2326	451.172	82.9918	451.172	82.7156	451.172	82.5243	451.172	82.0548	451.172	81.8255	451.172	81.1758	451.172	80.8992	451.172	80.0376	451.172	79.7881	451.172	78.7316	451.172	78.5926	451.172	77.6434	451.172	77.5986	451.172	77.3446	451.172	77.2986	451.172	77.8674	451.172	77.8107	451.172	78.649	451.172	78.6225	451.172	79.2682	451.172	79.27	451.172	79.5917	451.172	79.5966
465.82	84.5105	465.82	84.6141	465.82	84.4072	465.82	84.6708	465.82	84.3176	465.82	84.6214	465.82	84.218	465.82	84.4126	465.82	84.0715	465.82	84.0138	465.82	83.8481	465.82	83.4377	465.82	83.5213	465.82	82.7365	465.82	83.0566	465.82	81.9506	465.82	82.4184	465.82	81.0619	465.82	81.5911	465.82	80.0406	465.82	80.5941	465.82	78.9954	465.82	79.5052	465.82	78.2659	465.82	78.529	465.82	78.1557	465.82	78.0358	465.82	78.5497	465.82	78.2774	465.82	79.1317	465.82	79.0129	465.82	79.7043	465.82	79.7744	465.82	80.1569	465.82	80.261	465.82	80.3768
483.398	83.4725	483.398	83.4551	483.398	83.4892	483.398	83.4478	483.398	83.4861	483.398	83.4364	483.398	83.4551	483.398	83.3896	483.398	83.3903	483.398	83.2799	483.398	83.2671	483.398	83.087	483.398	83.0374	483.398	82.7803	483.398	82.6453	483.398	82.2947	483.398	82.0418	483.398	81.5277	483.398	81.1843	483.398	80.3641	483.398	80.041	483.398	78.7415	483.398	78.6533	483.398	76.8518	483.398	77.3115	483.398	75.594	483.398	76.6494	483.398	76.033	483.398	77.0101	483.398	77.4626	483.398	77.9185	483.398	78.7443	483.398	78.8178	483.398	79.5006	483.398	79.4543	483.398	79.7126
499.512	83.0758	499.512	83.0265	499.512	83.0979	499.512	82.9732	499.512	83.0577	499.512	82.9051	499.512	82.9492	499.512	82.8009	499.512	82.8058	499.512	82.6624	499.512	82.661	499.512	82.5033	499.512	82.5003	499.512	82.3086	499.512	82.2615	499.512	82.0103	499.512	81.8667	499.512	81.5005	499.512	81.237	499.512	80.6629	499.512	80.2974	499.512	79.4212	499.512	79.024	499.512	77.8687	499.512	77.6008	499.512	76.5934	499.512	76.68	499.512	76.6217	499.512	77.0216	499.512	77.8656	499.512	78.2767	499.512	79.2512	499.512	79.5358	499.512	80.1972	499.512	80.338	499.512	80.5643
517.09	83.9036	517.09	83.8329	517.09	83.762	517.09	83.5837	517.09	83.4241	517.09	83.2164	517.09	82.9439	517.09	82.7826	517.09	82.3794	517.09	82.3147	517.09	81.7791	517.09	81.8522	517.09	81.215	517.09	81.4702	517.09	80.7953	517.09	81.2573	517.09	80.5842	517.09	81.2248	517.09	80.5278	517.09	81.23	517.09	80.5116	517.09	81.0296	517.09	80.431	517.09	80.4193	517.09	80.1768	517.09	79.3565	517.09	79.6399	517.09	78.0953	517.09	78.8161	517.09	77.2321	517.09	77.9342	517.09	77.1094	517.09	77.3794	517.09	77.3045	517.09	77.2838	517.09	77.3641
536.133	85.1928	536.133	85.077	536.133	85.1495	536.133	84.8172	536.133	84.948	536.133	84.4338	536.133	84.6161	536.133	83.9683	536.133	84.1837	536.133	83.4839	536.133	83.6373	536.133	82.9965	536.133	82.9048	536.133	82.4054	536.133	81.8953	536.133	81.548	536.133	80.5527	536.133	80.3491	536.133	78.8819	536.133	78.9524	536.133	77.0261	536.133	77.8067	536.133	75.695	536.133	77.5242	536.133	76.1488	536.133	78.1799	536.133	77.9061	536.133	79.1508	536.133	79.5433	536.133	79.9448	536.133	80.5938	536.133	80.4832	536.133	81.114	536.133	80.8641	536.133	81.2533	536.133	81.1373
555.176	84.385	555.176	84.4211	555.176	84.3292	555.176	84.4129	555.176	84.2704	555.176	84.3413	555.176	84.1753	555.176	84.1517	555.176	83.9805	555.176	83.753	555.176	83.659	555.176	83.0905	555.176	83.2422	555.176	82.1965	555.176	82.7696	555.176	81.1302	555.176	82.2048	555.176	79.885	555.176	81.3841	555.176	78.4556	555.176	80.0628	555.176	77.0644	555.176	78.1109	555.176	76.233	555.176	76.0822	555.176	76.3438	555.176	75.7191	555.176	77.2426	555.176	77.1566	555.176	78.4749	555.176	78.7117	555.176	79.587	555.176	79.7684	555.176	80.2969	555.176	80.3515	555.176	80.5353
574.219	83.9146	574.219	83.9069	574.219	83.7666	574.219	83.767	574.219	83.5045	574.219	83.5615	574.219	83.2335	574.219	83.37	574.219	83.0484	574.219	83.2298	574.219	82.9315	574.219	83.0914	574.219	82.7493	574.219	82.8171	574.219	82.3439	574.219	82.211	574.219	81.6221	574.219	81.0961	574.219	80.5867	574.219	79.4376	574.219	79.3112	574.219	77.434	574.219	77.892	574.219	75.5526	574.219	76.5135	574.219	74.6319	574.219	75.6981	574.219	75.3279	574.219	76.0976	574.219	76.9148	574.219	77.4508	574.219	78.4322	574.219	78.8683	574.219	79.5051	574.219	79.7797	574.219	79.988
594.727	83.3457	594.727	83.3733	594.727	83.3034	594.727	83.3668	594.727	83.2301	594.727	83.2888	594.727	83.0875	594.727	83.1098	594.727	82.8349	594.727	82.8069	594.727	82.4368	594.727	82.3649	594.727	81.8665	594.727	81.8056	594.727	81.1293	594.727	81.1597	594.727	80.2743	594.727	80.344	594.727	79.3307	594.727	79.1426	594.727	78.2224	594.727	77.4023	594.727	76.8205	594.727	75.5095	594.727	75.3234	594.727	74.9747	594.727	74.9278	594.727	76.2989	594.727	76.3457	594.727	77.9404	594.727	78.1258	594.727	79.1405	594.727	79.3357	594.727	79.8253	594.727	79.929	594.727	80.0677
615.234	83.2655	615.234	83.1817	615.234	83.2699	615.234	83.0714	615.234	83.163	615.234	82.9291	615.234	82.9585	615.234	82.7104	615.234	82.6713	615.234	82.4071	615.234	82.3165	615.234	82.0287	615.234	81.9057	615.234	81.547	615.234	81.357	615.234	80.9062	615.234	80.4588	615.234	80.0152	615.234	78.9812	615.234	78.7428	615.234	76.8207	615.234	77.0804	615.234	74.3988	615.234	75.4245	615.234	73.2982	615.234	74.4476	615.234	74.1099	615.234	74.5432	615.234	75.5325	615.234	75.6779	615.234	77.0011	615.234	77.2206	615.234	78.2598	615.234	78.4717	615.234	79.013	615.234	79.0959
637.207	82.9897	637.207	82.9521	637.207	82.8504	637.207	82.7999	637.207	82.539	637.207	82.6183	637.207	82.1252	637.207	82.434	637.207	81.7238	637.207	82.1999	637.207	81.4217	637.207	81.8596	637.207	81.2056	637.207	81.4114	637.207	80.9679	637.207	80.8741	637.207	80.5236	637.207	80.1733	637.207	79.6685	637.207	79.0876	637.207	78.3347	637.207	77.2993	637.207	76.6616	637.207	74.6483	637.207	74.9223	637.207	72.0925	637.207	73.8753	637.207	72.3243	637.207	74.5118	637.207	74.413	637.207	75.9163	637.207	76.1803	637.207	76.9228	637.207	77.2076	637.207	77.424	637.207	77.5553
659.18	82.7225	659.18	82.6894	659.18	82.5824	659.18	82.4795	659.18	82.2583	659.18	82.1061	659.18	81.7847	659.18	81.6675	659.18	81.2717	659.18	81.3008	659.18	80.816	659.18	81.0415	659.18	80.4241	659.18	80.7235	659.18	80.0503	659.18	80.0751	659.18	79.6271	659.18	79.0179	659.18	78.9859	659.18	77.7854	659.18	77.8328	659.18	76.5604	659.18	75.9694	659.18	75.154	659.18	73.7998	659.18	73.6957	659.18	72.8001	659.18	73.7025	659.18	73.7148	659.18	75.5237	659.18	75.3691	659.18	77.3346	659.18	76.8486	659.18	78.3015	659.18	77.8824	659.18	78.4148
682.617	82.5342	682.617	82.6534	682.617	82.3334	682.617	82.6615	682.617	82.1252	682.617	82.4897	682.617	81.9752	682.617	82.0819	682.617	81.8025	682.617	81.5455	682.617	81.4515	682.617	81.0714	682.617	80.9001	682.617	80.7022	682.617	80.2368	682.617	80.3174	682.617	79.438	682.617	79.6468	682.617	78.3316	682.617	78.3051	682.617	76.826	682.617	76.2764	682.617	75.0959	682.617	74.4842	682.617	73.5929	682.617	73.854	682.617	73.1125	682.617	74.1836	682.617	74.0376	682.617	75.0079	682.617	75.686	682.617	75.8724	682.617	77.1135	682.617	76.7085	682.617	77.7315	682.617	77.4706
707.52	82.6745	707.52	82.5721	707.52	82.6301	707.52	82.3917	707.52	82.4029	707.52	82.2241	707.52	82.0041	707.52	82.0351	707.52	81.5403	707.52	81.66	707.52	81.1049	707.52	81.0692	707.52	80.6023	707.52	80.3639	707.52	79.8143	707.52	79.4868	707.52	78.6696	707.52	78.3302	707.52	77.4247	707.52	77.0028	707.52	76.2599	707.52	75.688	707.52	74.7479	707.52	74.5386	707.52	72.9338	707.52	73.8701	707.52	72.7643	707.52	74.1866	707.52	74.3441	707.52	75.1371	707.52	75.7322	707.52	75.8058	707.52	76.4951	707.52	76.1647	707.52	76.7243	707.52	76.5207
732.422	80.7624	732.422	80.526	732.422	80.8028	732.422	80.166	732.422	80.6836	732.422	79.8871	732.422	80.5604	732.422	80.0057	732.422	80.5467	732.422	80.5325	732.422	80.5893	732.422	81.0101	732.422	80.5316	732.422	80.8334	732.422	80.088	732.422	79.57	732.422	78.8045	732.422	77.0841	732.422	76.0925	732.422	73.073	732.422	71.1756	732.422	68.1973	732.422	65.4053	732.422	71.4289	732.422	69.9212	732.422	75.3636	732.422	74.5904	732.422	77.462	732.422	77.2801	732.422	78.7494	732.422	78.3701	732.422	79.6631	732.422	78.6142	732.422	80.0403	732.422	79.0069	732.422	79.6965
757.324	84.6393	757.324	84.6504	757.324	84.3733	757.324	84.2668	757.324	83.7829	757.324	83.2678	757.324	82.7617	757.324	81.6417	757.324	81.7364	757.324	80.5047	757.324	81.9836	757.324	81.8046	757.324	83.6064	757.324	83.9142	757.324	85.2181	757.324	85.0475	757.324	85.9602	757.324	84.9404	757.324	85.3803	757.324	83.6622	757.324	82.9278	757.324	81.0903	757.324	77.1333	757.324	76.9126	757.324	65.0009	757.324	75.9921	757.324	76.4875	757.324	80.2592	757.324	81.5242	757.324	83.1284	757.324	84.6101	757.324	84.9011	757.324	86.5461	757.324	86.2572	757.324	87.3945	757.324	87.2125
785.156	87.2468	785.156	86.9718	785.156	86.9859	785.156	86.1325	785.156	86.2382	785.156	85.034	785.156	84.9818	785.156	84.0972	785.156	83.5421	785.156	83.3748	785.156	82.7235	785.156	82.9998	785.156	82.9685	785.156	83.3859	785.156	83.9475	785.156	84.5304	785.156	85.1377	785.156	85.9432	785.156	85.9941	785.156	86.66	785.156	86.0785	785.156	85.6453	785.156	84.9672	785.156	82.1029	785.156	81.9147	785.156	73.7433	785.156	75.6733	785.156	68.2977	785.156	68.7831	785.156	78.3915	785.156	77.3297	785.156	81.4903	785.156	81.5655	785.156	82.8493	785.156	83.235	785.156	83.4488
811.523	86.6151	811.523	86.6617	811.523	86.2669	811.523	86.3425	811.523	85.6019	811.523	85.4652	811.523	84.7334	811.523	84.0397	811.523	83.5825	811.523	82.4786	811.523	81.6493	811.523	81.2502	811.523	79.5321	811.523	80.8035	811.523	79.8973	811.523	81.785	811.523	81.183	811.523	82.8652	811.523	82.1988	811.523	82.388	811.523	83.0687	811.523	79.9967	811.523	82.373	811.523	75.5221	811.523	77.8159	811.523	64.9722	811.523	66.4159	811.523	73.6397	811.523	75.1524	811.523	80.2398	811.523	79.6196	811.523	83.1678	811.523	82.772	811.523	84.6911	811.523	84.7826	811.523	85.3159
840.82	87.2505	840.82	87.1669	840.82	87.3951	840.82	86.9928	840.82	87.2569	840.82	86.1193	840.82	86.6221	840.82	84.3496	840.82	85.4113	840.82	82.3883	840.82	83.5395	840.82	81.1849	840.82	81.6517	840.82	80.615	840.82	81.3158	840.82	80.4514	840.82	82.266	840.82	81.1544	840.82	82.7631	840.82	82.3543	840.82	82.0514	840.82	82.478	840.82	80.4524	840.82	80.684	840.82	78.1515	840.82	77.6835	840.82	73.4248	840.82	75.5101	840.82	71.8578	840.82	76.0196	840.82	77.4681	840.82	78.3365	840.82	79.6038	840.82	79.3122	840.82	79.7611	840.82	79.3864
870.117	85.8025	870.117	85.94	870.117	85.2944	870.117	85.6442	870.117	84.6256	870.117	85.0893	870.117	83.7127	870.117	84.2739	870.117	82.4764	870.117	82.8619	870.117	81.0157	870.117	80.5719	870.117	79.1086	870.117	79.0458	870.117	78.3317	870.117	80.1786	870.117	80.9434	870.117	81.3853	870.117	82.9202	870.117	81.5704	870.117	83.3429	870.117	80.8362	870.117	82.3184	870.117	79.0883	870.117	79.743	870.117	75.4084	870.117	75.1185	870.117	65.921	870.117	62.6892	870.117	69.0246	870.117	71.3956	870.117	78.6586	870.117	77.1749	870.117	82.003	870.117	79.7152	870.117	81.7462
900.879	87.0979	900.879	86.8001	900.879	87.1784	900.879	86.3281	900.879	87.0383	900.879	85.749	900.879	86.5566	900.879	84.9112	900.879	85.7458	900.879	83.6024	900.879	85.0351	900.879	81.9426	900.879	84.4524	900.879	80.4597	900.879	83.546	900.879	79.7852	900.879	83.0016	900.879	80.3853	900.879	83.2199	900.879	81.6834	900.879	83.108	900.879	81.5827	900.879	81.644	900.879	78.7379	900.879	78.3938	900.879	75.6649	900.879	75.505	900.879	77.8006	900.879	77.3654	900.879	79.8173	900.879	80.0626	900.879	80.8103	900.879	81.9895	900.879	82.1297	900.879	83.0878	900.879	83.1336
933.105	86.7042	933.105	86.8694	933.105	86.2217	933.105	86.5222	933.105	85.6254	933.105	85.9132	933.105	84.5036	933.105	84.8809	933.105	82.245	933.105	82.8673	933.105	78.772	933.105	79.8734	933.105	75.5812	933.105	77.6911	933.105	75.4877	933.105	79.7917	933.105	76.7033	933.105	81.8357	933.105	77.2885	933.105	81.1068	933.105	77.8197	933.105	78.1671	933.105	77.4305	933.105	72.6913	933.105	73.1149	933.105	66.4906	933.105	69.3866	933.105	77.216	933.105	77.7982	933.105	81.8277	933.105	81.8931	933.105	84.3359	933.105	84.2744	933.105	85.4852	933.105	85.4295	933.105	85.721
965.332	87.4016	965.332	87.9819	965.332	86.8067	965.332	87.792	965.332	86.8659	965.332	87.2511	965.332	86.6885	965.332	86.5609	965.332	85.5878	965.332	84.7924	965.332	83.7368	965.332	80.9209	965.332	80.1822	965.332	75.2664	965.332	72.8612	965.332	77.1784	965.332	79.7704	965.332	81.8407	965.332	83.7947	965.332	83.9281	965.332	84.4786	965.332	83.1751	965.332	82.5835	965.332	80.915	965.332	78.9808	965.332	81.0107	965.332	78.8723	965.332	82.9035	965.332	83.3109	965.332	85.4661	965.332	86.8962	965.332	87.5313	965.332	88.6654	965.332	88.6697	965.332	89.1898	965.332	89.1347
1,000.49	85.3773	1,000.49	85.2235	1,000.49	85.3328	1,000.49	85.5884	1,000.49	85.5831	1,000.49	86.2558	1,000.49	86.7214	1,000.49	86.6071	1,000.49	87.2347	1,000.49	86.3305	1,000.49	86.0259	1,000.49	84.8383	1,000.49	83.4614	1,000.49	81.2497	1,000.49	80.2036	1,000.49	72.4637	1,000.49	77.9179	1,000.49	74.7556	1,000.49	75.4401	1,000.49	81.8844	1,000.49	79.0525	1,000.49	82.9636	1,000.49	81.2611	1,000.49	83.6116	1,000.49	82.8576	1,000.49	84.9865	1,000.49	83.9103	1,000.49	86.4217	1,000.49	84.931	1,000.49	87.8104	1,000.49	86.9085	1,000.49	88.9956	1,000.49	88.9178	1,000.49	90.4057	1,000.49	90.33	1,000.49	90.97
1,035.64	83.4926	1,035.64	82.907	1,035.64	84.0535	1,035.64	82.7948	1,035.64	83.6647	1,035.64	82.6777	1,035.64	83.0815	1,035.64	83.0558	1,035.64	83.1217	1,035.64	83.4364	1,035.64	83.2499	1,035.64	82.849	1,035.64	83.1357	1,035.64	81.7997	1,035.64	82.8331	1,035.64	79.7787	1,035.64	81.3937	1,035.64	74.8425	1,035.64	76.3232	1,035.64	48.762	1,035.64	71.634	1,035.64	76.4381	1,035.64	80.2242	1,035.64	82.1202	1,035.64	82.4958	1,035.64	83.9293	1,035.64	82.4855	1,035.64	83.7568	1,035.64	82.2259	1,035.64	82.8872	1,035.64	82.6568	1,035.64	83.0551	1,035.64	83.4086	1,035.64	83.3827	1,035.64	83.4519	1,035.64	83.329
1,072.27	86.3916	1,072.27	85.7144	1,072.27	86.4178	1,072.27	84.961	1,072.27	85.7811	1,072.27	84.2167	1,072.27	85.2119	1,072.27	83.4206	1,072.27	84.9205	1,072.27	82.8552	1,072.27	84.5035	1,072.27	82.6762	1,072.27	84.3815	1,072.27	82.4129	1,072.27	84.0126	1,072.27	81.322	1,072.27	82.2122	1,072.27	79.1355	1,072.27	79.3778	1,072.27	78.9987	1,072.27	78.5229	1,072.27	80.953	1,072.27	79.671	1,072.27	81.8105	1,072.27	81.6236	1,072.27	82.1613	1,072.27	81.9516	1,072.27	80.9227	1,072.27	79.4313	1,072.27	77.5811	1,072.27	75.7614	1,072.27	73.8501	1,072.27	71.9865	1,072.27	71.9765	1,072.27	70.9427	1,072.27	71.7172
1,108.89	83.9655	1,108.89	84.5733	1,108.89	84.204	1,108.89	84.9586	1,108.89	84.2388	1,108.89	84.4073	1,108.89	83.7278	1,108.89	83.6575	1,108.89	83.2833	1,108.89	83.2001	1,108.89	82.4355	1,108.89	82.296	1,108.89	81.1285	1,108.89	79.9962	1,108.89	79.4904	1,108.89	76.4969	1,108.89	77.1548	1,108.89	71.9598	1,108.89	73.0927	1,108.89	71.2582	1,108.89	70.9795	1,108.89	74.7357	1,108.89	75.3904	1,108.89	76.4226	1,108.89	75.6885	1,108.89	77.8125	1,108.89	73.1075	1,108.89	77.0678	1,108.89	72.7879	1,108.89	72.0638	1,108.89	73.4633	1,108.89	65.6305	1,108.89	74.4376	1,108.89	72.1891	1,108.89	76.7949	1,108.89	76.774
1,148.44	85.8164	1,148.44	85.2063	1,148.44	85.6544	1,148.44	84.4754	1,148.44	84.6018	1,148.44	83.3788	1,148.44	83.3648	1,148.44	82.2141	1,148.44	82.577	1,148.44	81.645	1,148.44	82.5901	1,148.44	81.6099	1,148.44	82.716	1,148.44	81.0252	1,148.44	81.7984	1,148.44	79.5116	1,148.44	79.0887	1,148.44	76.4135	1,148.44	75.6491	1,148.44	74.5173	1,148.44	73.741	1,148.44	78.5674	1,148.44	76.6869	1,148.44	79.8103	1,148.44	78.9526	1,148.44	79.5465	1,148.44	78.788	1,148.44	77.3599	1,148.44	76.9761	1,148.44	74.3837	1,148.44	75.8274	1,148.44	74.4111	1,148.44	76.4596	1,148.44	76.4218	1,148.44	78.4327	1,148.44	78.7309
1,189.45	87.289	1,189.45	86.8513	1,189.45	87.1469	1,189.45	85.8572	1,189.45	86.191	1,189.45	85.0923	1,189.45	84.8071	1,189.45	84.1567	1,189.45	83.6824	1,189.45	82.6882	1,189.45	82.1782	1,189.45	82.245	1,189.45	81.6652	1,189.45	81.7374	1,189.45	81.8571	1,189.45	78.8102	1,189.45	80.7889	1,189.45	74.0697	1,189.45	77.9777	1,189.45	64.4897	1,189.45	70.6749	1,189.45	72.2525	1,189.45	70.7809	1,189.45	77.8142	1,189.45	78.3627	1,189.45	78.665	1,189.45	80.2906	1,189.45	77.3237	1,189.45	79.6772	1,189.45	72.2867	1,189.45	76.9813	1,189.45	65.6617	1,189.45	72.9042	1,189.45	72.1479	1,189.45	73.8572	1,189.45	76.5759
1,230.47	88.5006	1,230.47	88.4967	1,230.47	88.2254	1,230.47	88.2194	1,230.47	87.5701	1,230.47	87.2135	1,230.47	86.634	1,230.47	86.235	1,230.47	85.4704	1,230.47	85.212	1,230.47	84.4445	1,230.47	83.7248	1,230.47	83.8968	1,230.47	82.714	1,230.47	83.6273	1,230.47	82.5698	1,230.47	83.0142	1,230.47	82.2077	1,230.47	82.457	1,230.47	78.3511	1,230.47	82.2717	1,230.47	76.6765	1,230.47	81.2613	1,230.47	77.3352	1,230.47	79.3464	1,230.47	79.4718	1,230.47	79.9283	1,230.47	79.4812	1,230.47	79.2541	1,230.47	75.8223	1,230.47	75.7978	1,230.47	73.5743	1,230.47	69.8811	1,230.47	71.5443	1,230.47	64.5355	1,230.47	70.4363
1,274.41	87.9539	1,274.41	88.3083	1,274.41	87.3015	1,274.41	88.2414	1,274.41	87.0952	1,274.41	87.8308	1,274.41	87.064	1,274.41	86.7977	1,274.41	86.2137	1,274.41	84.9908	1,274.41	84.747	1,274.41	83.3138	1,274.41	83.5492	1,274.41	83.4712	1,274.41	82.5781	1,274.41	82.8067	1,274.41	81.4024	1,274.41	80.8382	1,274.41	80.2734	1,274.41	79.2584	1,274.41	74.5986	1,274.41	72.7738	1,274.41	74.9011	1,274.41	75.2864	1,274.41	77.924	1,274.41	75.9248	1,274.41	77.1516	1,274.41	74.9748	1,274.41	76.8933	1,274.41	70.8394	1,274.41	74.0322	1,274.41	65.2251	1,274.41	52.9867	1,274.41	70.2858	1,274.41	69.9782	1,274.41	69.4546
1,319.82	88.5681	1,319.82	88.8594	1,319.82	87.7406	1,319.82	88.5994	1,319.82	87.2657	1,319.82	88.0655	1,319.82	86.9938	1,319.82	86.6868	1,319.82	86.2005	1,319.82	85.8263	1,319.82	85.1676	1,319.82	84.8825	1,319.82	83.2618	1,319.82	83.6495	1,319.82	82.341	1,319.82	82.8043	1,319.82	81.5129	1,319.82	81.4965	1,319.82	78.8713	1,319.82	78.4634	1,319.82	78.55	1,319.82	75.344	1,319.82	77.8032	1,319.82	76.116	1,319.82	78.8252	1,319.82	76.4546	1,319.82	78.1864	1,319.82	74.5674	1,319.82	75.7699	1,319.82	70.3363	1,319.82	72.4795	1,319.82	61.0681	1,319.82	53.5587	1,319.82	69.5113	1,319.82	71.1899	1,319.82	71.9604
1,366.7	88.7356	1,366.7	88.3678	1,366.7	88.2568	1,366.7	88.2131	1,366.7	87.1768	1,366.7	87.4397	1,366.7	87.3088	1,366.7	86.7454	1,366.7	86.0954	1,366.7	85.9067	1,366.7	84.0157	1,366.7	83.5051	1,366.7	83.8724	1,366.7	82.2577	1,366.7	81.9809	1,366.7	81.4985	1,366.7	80.2171	1,366.7	79.6023	1,366.7	79.3205	1,366.7	78.1381	1,366.7	77.6453	1,366.7	76.7298	1,366.7	78.7185	1,366.7	75.624	1,366.7	78.517	1,366.7	78.4922	1,366.7	77.2809	1,366.7	78.4058	1,366.7	77.4588	1,366.7	75.468	1,366.7	73.0527	1,366.7	71.3749	1,366.7	68.5639	1,366.7	67.7952	1,366.7	69.5888	1,366.7	68.6327
1,413.57	87.9525	1,413.57	87.6672	1,413.57	87.4076	1,413.57	87.246	1,413.57	86.4022	1,413.57	86.7115	1,413.57	86.1921	1,413.57	85.2346	1,413.57	84.6412	1,413.57	83.5676	1,413.57	82.8413	1,413.57	82.4719	1,413.57	81.6935	1,413.57	82.1005	1,413.57	80.465	1,413.57	81.5857	1,413.57	79.902	1,413.57	79.9663	1,413.57	79.8194	1,413.57	77.7	1,413.57	77.6752	1,413.57	73.4004	1,413.57	72.6886	1,413.57	71.6452	1,413.57	76.6503	1,413.57	74.5572	1,413.57	76.3804	1,413.57	76.307	1,413.57	75.0721	1,413.57	74.0161	1,413.57	72.2188	1,413.57	64.6858	1,413.57	58.5025	1,413.57	59.2844	1,413.57	70.9343	1,413.57	69.5719
1,463.38	86.7877	1,463.38	87.1548	1,463.38	86.4594	1,463.38	86.6697	1,463.38	86.0559	1,463.38	86.2201	1,463.38	84.6877	1,463.38	84.2711	1,463.38	84.2634	1,463.38	81.6838	1,463.38	83.2224	1,463.38	80.4473	1,463.38	82.2627	1,463.38	79.4269	1,463.38	80.2616	1,463.38	79.4138	1,463.38	78.9656	1,463.38	78.949	1,463.38	75.7069	1,463.38	76.5506	1,463.38	73.9575	1,463.38	74.1888	1,463.38	73.2365	1,463.38	75.4006	1,463.38	70.757	1,463.38	76.9296	1,463.38	73.5302	1,463.38	75.53	1,463.38	74.0951	1,463.38	72.7848	1,463.38	70.0761	1,463.38	64.7679	1,463.38	40.0142	1,463.38	68.8697	1,463.38	70.2919	1,463.38	70.5564
1,516.11	85.4142	1,516.11	85.355	1,516.11	85.7261	1,516.11	84.7331	1,516.11	85.5766	1,516.11	84.0301	1,516.11	84.5049	1,516.11	83.0516	1,516.11	83.3556	1,516.11	82.0742	1,516.11	81.7492	1,516.11	81.1527	1,516.11	79.3005	1,516.11	78.114	1,516.11	79.4577	1,516.11	77.4761	1,516.11	79.2822	1,516.11	78.3122	1,516.11	77.6358	1,516.11	75.5586	1,516.11	76.2002	1,516.11	74.9887	1,516.11	69.4879	1,516.11	74.8316	1,516.11	71.9063	1,516.11	75.9092	1,516.11	74.845	1,516.11	75.3106	1,516.11	72.8893	1,516.11	72.4282	1,516.11	69.3103	1,516.11	66.64	1,516.11	65.7133	1,516.11	66.6602	1,516.11	67.7503	1,516.11	65.3148
1,568.85	85.1564	1,568.85	84.4289	1,568.85	84.684	1,568.85	83.6328	1,568.85	83.7158	1,568.85	82.8386	1,568.85	83.0029	1,568.85	81.5582	1,568.85	81.4317	1,568.85	80.5574	1,568.85	79.4675	1,568.85	79.4788	1,568.85	78.2672	1,568.85	76.2106	1,568.85	78.9552	1,568.85	76.1746	1,568.85	77.9841	1,568.85	76.0717	1,568.85	77.0111	1,568.85	74.6578	1,568.85	76.1181	1,568.85	72.2266	1,568.85	73.4001	1,568.85	71.4353	1,568.85	73.4076	1,568.85	70.8994	1,568.85	76.2444	1,568.85	73.2708	1,568.85	72.4711	1,568.85	70.8321	1,568.85	60.3499	1,568.85	61.7588	1,568.85	58.7767	1,568.85	65.0197	1,568.85	61.6953	1,568.85	65.6556
1,624.51	83.7496	1,624.51	83.6633	1,624.51	84.0514	1,624.51	83.6743	1,624.51	84.1426	1,624.51	82.5565	1,624.51	82.2269	1,624.51	81.7947	1,624.51	81.5792	1,624.51	81.9086	1,624.51	80.65	1,624.51	78.4163	1,624.51	79.1679	1,624.51	78.4117	1,624.51	77.3503	1,624.51	77.6153	1,624.51	77.5777	1,624.51	77.2861	1,624.51	76.2406	1,624.51	75.5445	1,624.51	74.2739	1,624.51	70.9424	1,624.51	71.749	1,624.51	72.6305	1,624.51	76.1448	1,624.51	74.0861	1,624.51	74.9039	1,624.51	73.7663	1,624.51	74.129	1,624.51	67.7183	1,624.51	68.7199	1,624.51	53.688	1,624.51	61.5724	1,624.51	66.1571	1,624.51	65.6274	1,624.51	67.2274
1,681.64	84.3064	1,681.64	84.6774	1,681.64	84.3299	1,681.64	83.8634	1,681.64	83.8625	1,681.64	83.179	1,681.64	83.8248	1,681.64	83.1195	1,681.64	82.462	1,681.64	82.4034	1,681.64	81.4259	1,681.64	81.4114	1,681.64	78.9294	1,681.64	79.07	1,681.64	79.2384	1,681.64	77.9151	1,681.64	78.3858	1,681.64	77.9199	1,681.64	76.5585	1,681.64	76.7708	1,681.64	73.4832	1,681.64	73.915	1,681.64	70.8533	1,681.64	68.0998	1,681.64	70.1384	1,681.64	75.0605	1,681.64	76.5048	1,681.64	75.7742	1,681.64	76.2387	1,681.64	75.3319	1,681.64	74.4731	1,681.64	71.5496	1,681.64	71.2887	1,681.64	69.4076	1,681.64	70.4702	1,681.64	72.311
1,741.7	86.5801	1,741.7	86.3095	1,741.7	85.6232	1,741.7	85.2294	1,741.7	84.4333	1,741.7	85.1015	1,741.7	82.5746	1,741.7	83.8368	1,741.7	82.9545	1,741.7	82.1427	1,741.7	82.7041	1,741.7	81.1824	1,741.7	81.9301	1,741.7	81.491	1,741.7	79.3198	1,741.7	79.5084	1,741.7	76.1134	1,741.7	77.2985	1,741.7	76.4694	1,741.7	77.7634	1,741.7	75.2588	1,741.7	76.5312	1,741.7	72.578	1,741.7	73.3296	1,741.7	73.9955	1,741.7	68.6523	1,741.7	75.434	1,741.7	71.1156	1,741.7	76.6591	1,741.7	72.663	1,741.7	71.1775	1,741.7	73.1382	1,741.7	66.3843	1,741.7	66.5457	1,741.7	68.7981	1,741.7	64.7101
1,803.22	85.2911	1,803.22	85.1362	1,803.22	84.8287	1,803.22	84.7713	1,803.22	84.2257	1,803.22	84.3476	1,803.22	83.4655	1,803.22	83.635	1,803.22	82.8133	1,803.22	82.8984	1,803.22	81.7964	1,803.22	81.9122	1,803.22	80.5142	1,803.22	80.8625	1,803.22	78.9475	1,803.22	79.4975	1,803.22	77.3951	1,803.22	78.1218	1,803.22	76.1952	1,803.22	77.4942	1,803.22	75.3107	1,803.22	75.7367	1,803.22	73.8377	1,803.22	73.8829	1,803.22	70.4072	1,803.22	73.7667	1,803.22	72.8377	1,803.22	73.131	1,803.22	72.7982	1,803.22	72.8128	1,803.22	69.6273	1,803.22	62.5955	1,803.22	55.6631	1,803.22	61.6764	1,803.22	66.1232	1,803.22	67.0235
1,866.21	84.784	1,866.21	84.9679	1,866.21	84.6659	1,866.21	84.6702	1,866.21	83.8246	1,866.21	84.1397	1,866.21	83.0709	1,866.21	83.3577	1,866.21	82.1033	1,866.21	82.601	1,866.21	80.8131	1,866.21	81.2942	1,866.21	80.2522	1,866.21	80.3653	1,866.21	79.0028	1,866.21	79.3917	1,866.21	77.5794	1,866.21	78.1902	1,866.21	75.3912	1,866.21	76.2654	1,866.21	74.4726	1,866.21	76.0819	1,866.21	73.0034	1,866.21	74.0483	1,866.21	71.626	1,866.21	72.8719	1,866.21	71.3787	1,866.21	73.6488	1,866.21	72.4899	1,866.21	72.1872	1,866.21	70.9749	1,866.21	68.1955	1,866.21	60.0053	1,866.21	54.2455	1,866.21	58.6327	1,866.21	66.2752
1,932.13	85.2327	1,932.13	84.9077	1,932.13	85.0489	1,932.13	84.2946	1,932.13	84.4725	1,932.13	83.5759	1,932.13	83.6869	1,932.13	83.1624	1,932.13	82.7702	1,932.13	82.5177	1,932.13	81.7761	1,932.13	81.4694	1,932.13	80.5243	1,932.13	79.761	1,932.13	79.0745	1,932.13	78.0459	1,932.13	77.2187	1,932.13	78.0285	1,932.13	77.2122	1,932.13	76.7415	1,932.13	75.3664	1,932.13	72.9112	1,932.13	73.0269	1,932.13	72.6149	1,932.13	71.2503	1,932.13	74.7354	1,932.13	74.5355	1,932.13	74.9339	1,932.13	74.1562	1,932.13	70.0396	1,932.13	70.5012	1,932.13	56.6234	1,932.13	65.0255	1,932.13	69.896	1,932.13	69.4915	1,932.13	72.3191
1,999.51	85.3064	1,999.51	85.0846	1,999.51	85.0956	1,999.51	84.9625	1,999.51	85.0371	1,999.51	84.3955	1,999.51	84.5801	1,999.51	83.3937	1,999.51	83.3841	1,999.51	82.4005	1,999.51	82.245	1,999.51	81.63	1,999.51	81.1095	1,999.51	80.3717	1,999.51	80.3046	1,999.51	78.5703	1,999.51	78.5585	1,999.51	76.2288	1,999.51	75.5376	1,999.51	76.5933	1,999.51	76.4077	1,999.51	76.2754	1,999.51	75.2396	1,999.51	70.339	1,999.51	70.0751	1,999.51	71.4177	1,999.51	71.8197	1,999.51	75.2735	1,999.51	75.8334	1,999.51	75.985	1,999.51	75.9236	1,999.51	72.2404	1,999.51	70.8327	1,999.51	69.9226	1,999.51	68.1914	1,999.51	68.4817
2,069.82	85.4621	2,069.82	85.5887	2,069.82	85.3791	2,069.82	85.1966	2,069.82	84.7726	2,069.82	84.7605	2,069.82	84.4844	2,069.82	84.1312	2,069.82	83.5742	2,069.82	83.2085	2,069.82	82.6536	2,069.82	81.7361	2,069.82	81.4695	2,069.82	80.5315	2,069.82	80.3475	2,069.82	79.4791	2,069.82	78.9499	2,069.82	77.5792	2,069.82	76.7925	2,069.82	74.9672	2,069.82	75.8124	2,069.82	74.92	2,069.82	75.6079	2,069.82	75.2631	2,069.82	73.4605	2,069.82	68.742	2,069.82	67.8279	2,069.82	71.7551	2,069.82	73.0469	2,069.82	75.3333	2,069.82	74.6164	2,069.82	73.2049	2,069.82	71.9427	2,069.82	67.4629	2,069.82	65.8068	2,069.82	60.5446
2,143.07	85.4649	2,143.07	85.305	2,143.07	85.3257	2,143.07	84.9228	2,143.07	84.8697	2,143.07	84.6554	2,143.07	84.1864	2,143.07	83.9912	2,143.07	83.3199	2,143.07	83.1805	2,143.07	82.6717	2,143.07	82.0969	2,143.07	81.1871	2,143.07	80.7932	2,143.07	79.6247	2,143.07	79.5239	2,143.07	78.4573	2,143.07	78.5338	2,143.07	77.6549	2,143.07	76.3789	2,143.07	74.9182	2,143.07	74.2553	2,143.07	74.3925	2,143.07	73.5805	2,143.07	75.3857	2,143.07	73.1	2,143.07	71.4989	2,143.07	70.2185	2,143.07	70.2614	2,143.07	71.9919	2,143.07	71.7644	2,143.07	68.9241	2,143.07	67.2145	2,143.07	59.2548	2,143.07	61.22	2,143.07	55.7306
2,219.24	84.3793	2,219.24	84.1595	2,219.24	84.177	2,219.24	84.0953	2,219.24	83.8873	2,219.24	83.9839	2,219.24	83.2735	2,219.24	83.4076	2,219.24	82.5248	2,219.24	82.8806	2,219.24	81.5628	2,219.24	81.8361	2,219.24	80.2606	2,219.24	80.838	2,219.24	78.602	2,219.24	79.8096	2,219.24	77.8766	2,219.24	78.3555	2,219.24	76.048	2,219.24	76.9477	2,219.24	73.9218	2,219.24	75.5638	2,219.24	72.5546	2,219.24	74.7736	2,219.24	72.2009	2,219.24	71.6203	2,219.24	70.5319	2,219.24	71.7754	2,219.24	69.4443	2,219.24	72.0459	2,219.24	71.2166	2,219.24	69.9516	2,219.24	68.0198	2,219.24	64.0964	2,219.24	52.3368	2,219.24	53.0156
2,296.88	83.852	2,296.88	84.0617	2,296.88	83.5476	2,296.88	84.0637	2,296.88	83.4147	2,296.88	83.7862	2,296.88	82.8743	2,296.88	82.9128	2,296.88	82.3928	2,296.88	81.9488	2,296.88	81.3846	2,296.88	81.9289	2,296.88	80.5939	2,296.88	80.2494	2,296.88	79.1734	2,296.88	77.7272	2,296.88	77.0319	2,296.88	76.7332	2,296.88	74.8591	2,296.88	76.0718	2,296.88	74.958	2,296.88	73.7584	2,296.88	72.0109	2,296.88	73.2293	2,296.88	72.1941	2,296.88	73.4585	2,296.88	72.2018	2,296.88	70.2263	2,296.88	69.9664	2,296.88	69.1666	2,296.88	68.3119	2,296.88	68.0278	2,296.88	67.6056	2,296.88	59.3576	2,296.88	64.1733	2,296.88	58.1305
2,378.91	83.9455	2,378.91	84.2336	2,378.91	84.2907	2,378.91	84.3418	2,378.91	83.9283	2,378.91	83.4217	2,378.91	83.8655	2,378.91	82.6907	2,378.91	83.0132	2,378.91	82.0471	2,378.91	82.4692	2,378.91	81.0641	2,378.91	81.4417	2,378.91	79.7887	2,378.91	80.2993	2,378.91	78.6745	2,378.91	78.453	2,378.91	76.0226	2,378.91	77.6191	2,378.91	74.7657	2,378.91	75.7104	2,378.91	73.1088	2,378.91	73.9723	2,378.91	71.9858	2,378.91	72.8786	2,378.91	70.5952	2,378.91	72.3141	2,378.91	69.9595	2,378.91	71.0986	2,378.91	71.1481	2,378.91	69.2926	2,378.91	68.5056	2,378.91	66.9313	2,378.91	58.8163	2,378.91	58.9025	2,378.91	52.7478
2,462.4	85.2061	2,462.4	85.3185	2,462.4	85.3295	2,462.4	85.4942	2,462.4	85.3753	2,462.4	85.1701	2,462.4	85.0193	2,462.4	85.0076	2,462.4	84.1689	2,462.4	83.8948	2,462.4	83.2493	2,462.4	82.9372	2,462.4	81.997	2,462.4	81.7641	2,462.4	81.0168	2,462.4	80.7308	2,462.4	78.6717	2,462.4	78.2505	2,462.4	77.9344	2,462.4	76.1031	2,462.4	75.8885	2,462.4	74.2495	2,462.4	73.8288	2,462.4	71.3725	2,462.4	73.1168	2,462.4	74.1984	2,462.4	73.28	2,462.4	73.4199	2,462.4	71.0849	2,462.4	70.8932	2,462.4	68.8373	2,462.4	67.0832	2,462.4	66.1836	2,462.4	66.5698	2,462.4	62.9264	2,462.4	67.1226
2,548.83	85.0309	2,548.83	85.4782	2,548.83	84.8073	2,548.83	85.5559	2,548.83	85.2958	2,548.83	85.5544	2,548.83	84.7211	2,548.83	84.9213	2,548.83	84.2004	2,548.83	83.9999	2,548.83	82.7998	2,548.83	83.1658	2,548.83	81.3086	2,548.83	82.165	2,548.83	80.1212	2,548.83	79.5784	2,548.83	78.5887	2,548.83	78.9255	2,548.83	76.5383	2,548.83	77.2685	2,548.83	75.6629	2,548.83	75.0859	2,548.83	72.599	2,548.83	73.4054	2,548.83	72.3869	2,548.83	72.4668	2,548.83	73.1508	2,548.83	72.8701	2,548.83	72.2111	2,548.83	72.7115	2,548.83	69.8047	2,548.83	70.9859	2,548.83	68.0343	2,548.83	56.8067	2,548.83	64.6146	2,548.83	60.2138
2,639.65	84.2741	2,639.65	84.4175	2,639.65	83.9743	2,639.65	84.534	2,639.65	83.9647	2,639.65	84.1138	2,639.65	83.4688	2,639.65	83.7951	2,639.65	83.4618	2,639.65	83.0779	2,639.65	82.2769	2,639.65	81.7709	2,639.65	80.424	2,639.65	80.2229	2,639.65	79.0077	2,639.65	78.142	2,639.65	78.2345	2,639.65	76.5825	2,639.65	74.434	2,639.65	75.1714	2,639.65	74.8719	2,639.65	75.4419	2,639.65	72.6211	2,639.65	69.8527	2,639.65	68.5023	2,639.65	72.1824	2,639.65	73.5486	2,639.65	72.2486	2,639.65	71.3056	2,639.65	69.6687	2,639.65	68.8606	2,639.65	65.0489	2,639.65	62.5811	2,639.65	65.3948	2,639.65	62.006	2,639.65	66.1036
2,731.93	83.2987	2,731.93	83.2882	2,731.93	83.5238	2,731.93	83.9018	2,731.93	83.0256	2,731.93	83.4825	2,731.93	83.2352	2,731.93	83.3506	2,731.93	82.9786	2,731.93	82.6925	2,731.93	82.1217	2,731.93	80.8118	2,731.93	80.4658	2,731.93	78.7751	2,731.93	78.5002	2,731.93	77.6386	2,731.93	77.6299	2,731.93	74.7811	2,731.93	75.4002	2,731.93	74.5623	2,731.93	72.99	2,731.93	72.7413	2,731.93	71.1969	2,731.93	71.3092	2,731.93	70.4854	2,731.93	69.0925	2,731.93	69.5648	2,731.93	68.5489	2,731.93	71.4219	2,731.93	71.9668	2,731.93	70.7411	2,731.93	69.6805	2,731.93	65.5517	2,731.93	51.3329	2,731.93	57.4114	2,731.93	61.6448
2,828.61	83.1945	2,828.61	83.337	2,828.61	83.6809	2,828.61	83.6979	2,828.61	83.4236	2,828.61	83.7663	2,828.61	83.5346	2,828.61	83.866	2,828.61	83.0579	2,828.61	83.3117	2,828.61	82.1953	2,828.61	81.5928	2,828.61	80.9737	2,828.61	79.9962	2,828.61	78.951	2,828.61	78.2452	2,828.61	77.3868	2,828.61	75.9865	2,828.61	75.7764	2,828.61	74.1505	2,828.61	73.0954	2,828.61	72.6543	2,828.61	72.4338	2,828.61	70.0243	2,828.61	69.6684	2,828.61	68.2823	2,828.61	68.4968	2,828.61	69.7056	2,828.61	70.2785	2,828.61	68.9375	2,828.61	70.7676	2,828.61	68.7578	2,828.61	66.9525	2,828.61	54.1076	2,828.61	53.4249	2,828.61	47.5914
2,928.22	84.0318	2,928.22	84.0511	2,928.22	84.0815	2,928.22	84.0235	2,928.22	84.1805	2,928.22	84.4255	2,928.22	84.0459	2,928.22	84.41	2,928.22	83.4695	2,928.22	83.8528	2,928.22	82.4671	2,928.22	82.3714	2,928.22	81.1839	2,928.22	81.0707	2,928.22	79.5872	2,928.22	79.2289	2,928.22	77.858	2,928.22	75.9111	2,928.22	75.431	2,928.22	74.8885	2,928.22	74.5231	2,928.22	72.5574	2,928.22	72.4239	2,928.22	70.2155	2,928.22	69.7438	2,928.22	71.4138	2,928.22	70.7534	2,928.22	66.9163	2,928.22	65.9529	2,928.22	68.9751	2,928.22	69.3342	2,928.22	70.7488	2,928.22	68.1904	2,928.22	59.7145	2,928.22	62.7964	2,928.22	56.6999
3,030.76	84.4224	3,030.76	84.5589	3,030.76	84.3365	3,030.76	84.4836	3,030.76	84.5885	3,030.76	84.5615	3,030.76	84.4346	3,030.76	84.5094	3,030.76	83.9799	3,030.76	83.7705	3,030.76	82.7261	3,030.76	82.6794	3,030.76	81.2331	3,030.76	81.3971	3,030.76	79.2717	3,030.76	77.9477	3,030.76	77.4516	3,030.76	77.4983	3,030.76	75.4316	3,030.76	73.7026	3,030.76	72.9978	3,030.76	72.9861	3,030.76	72.34	3,030.76	69.6176	3,030.76	68.7396	3,030.76	68.1898	3,030.76	69.4082	3,030.76	69.0247	3,030.76	68.2938	3,030.76	67.0282	3,030.76	68.0035	3,030.76	67.6566	3,030.76	64.9239	3,030.76	63.0492	3,030.76	59.6836	3,030.76	59.4414
3,137.7	84.2819	3,137.7	84.5252	3,137.7	83.6743	3,137.7	84.3229	3,137.7	83.8867	3,137.7	84.633	3,137.7	83.7539	3,137.7	84.2973	3,137.7	83.2398	3,137.7	83.1042	3,137.7	82.2995	3,137.7	82.3995	3,137.7	80.909	3,137.7	80.3169	3,137.7	78.4438	3,137.7	78.2367	3,137.7	76.7811	3,137.7	76.1437	3,137.7	74.2548	3,137.7	73.4934	3,137.7	73.2004	3,137.7	70.8129	3,137.7	71.8134	3,137.7	69.7022	3,137.7	68.0231	3,137.7	68.0015	3,137.7	67.8174	3,137.7	67.8183	3,137.7	68.002	3,137.7	66.6061	3,137.7	66.3145	3,137.7	66.9811	3,137.7	66.1463	3,137.7	63.8519	3,137.7	56.6799	3,137.7	58.8686
3,249.02	83.9461	3,249.02	83.8624	3,249.02	83.6203	3,249.02	83.6198	3,249.02	83.9919	3,249.02	83.8301	3,249.02	83.9931	3,249.02	83.3119	3,249.02	83.0992	3,249.02	82.0019	3,249.02	82.303	3,249.02	80.9079	3,249.02	80.9799	3,249.02	78.5757	3,249.02	78.7004	3,249.02	76.3907	3,249.02	76.9616	3,249.02	74.7453	3,249.02	73.3252	3,249.02	71.666	3,249.02	72.8687	3,249.02	70.1013	3,249.02	71.6098	3,249.02	67.9584	3,249.02	69.3187	3,249.02	67.1043	3,249.02	67.638	3,249.02	65.7002	3,249.02	66.4069	3,249.02	64.2282	3,249.02	67.0965	3,249.02	66.1299	3,249.02	65.852	3,249.02	64.156	3,249.02	61.4458	3,249.02	61.0697
3,363.28	84.3902	3,363.28	83.9879	3,363.28	84.7299	3,363.28	84.1786	3,363.28	84.109	3,363.28	83.6545	3,363.28	84.1599	3,363.28	82.9233	3,363.28	83.3538	3,363.28	81.5831	3,363.28	82.4933	3,363.28	80.5234	3,363.28	80.7748	3,363.28	77.95	3,363.28	79.1732	3,363.28	76.7716	3,363.28	76.876	3,363.28	74.366	3,363.28	73.747	3,363.28	70.8831	3,363.28	71.3175	3,363.28	70.0207	3,363.28	70.6289	3,363.28	67.685	3,363.28	67.3546	3,363.28	66.7142	3,363.28	68.6756	3,363.28	67.7292	3,363.28	67.8495	3,363.28	64.2197	3,363.28	66.7432	3,363.28	66.9743	3,363.28	67.0439	3,363.28	62.5274	3,363.28	64.3601	3,363.28	56.1666
3,481.93	84.0844	3,481.93	84.0755	3,481.93	84.239	3,481.93	84.0243	3,481.93	84.0416	3,481.93	83.7759	3,481.93	83.9916	3,481.93	83.1103	3,481.93	83.4458	3,481.93	82.7792	3,481.93	82.3997	3,481.93	81.0355	3,481.93	80.1505	3,481.93	79.0756	3,481.93	78.3689	3,481.93	76.6543	3,481.93	76.5365	3,481.93	74.3571	3,481.93	73.7536	3,481.93	72.0041	3,481.93	70.3501	3,481.93	70.0927	3,481.93	69.6941	3,481.93	68.4927	3,481.93	66.684	3,481.93	66.8741	3,481.93	67.7324	3,481.93	68.6043	3,481.93	65.0721	3,481.93	66.1337	3,481.93	64.4032	3,481.93	68.707	3,481.93	66.4346	3,481.93	66.6149	3,481.93	63.1462	3,481.93	62.0508
3,604.98	83.948	3,604.98	83.9334	3,604.98	84.2836	3,604.98	83.7344	3,604.98	84.4834	3,604.98	83.4622	3,604.98	83.812	3,604.98	82.8977	3,604.98	83.185	3,604.98	82.6078	3,604.98	82.1267	3,604.98	80.5204	3,604.98	80.6292	3,604.98	78.9617	3,604.98	78.8609	3,604.98	76.5758	3,604.98	76.4339	3,604.98	74.5423	3,604.98	74.1847	3,604.98	70.6376	3,604.98	71.1916	3,604.98	69.7538	3,604.98	70.774	3,604.98	69.2801	3,604.98	69.2956	3,604.98	63.437	3,604.98	66.6311	3,604.98	68.8021	3,604.98	68.681	3,604.98	65.3557	3,604.98	65.4703	3,604.98	66.9304	3,604.98	65.161	3,604.98	66.796	3,604.98	62.3991	3,604.98	63.6374
3,732.42	84.6513	3,732.42	84.9487	3,732.42	84.357	3,732.42	84.4985	3,732.42	84.9791	3,732.42	83.6194	3,732.42	84.2991	3,732.42	83.6337	3,732.42	83.7795	3,732.42	82.3906	3,732.42	82.3784	3,732.42	80.7514	3,732.42	80.8051	3,732.42	78.9733	3,732.42	79.3137	3,732.42	77.0681	3,732.42	76.5554	3,732.42	74.0263	3,732.42	74.0096	3,732.42	71.9883	3,732.42	71.1375	3,732.42	69.182	3,732.42	70.4461	3,732.42	69.1114	3,732.42	68.1291	3,732.42	66.6141	3,732.42	67.7517	3,732.42	67.3707	3,732.42	68.8913	3,732.42	65.974	3,732.42	65.8683	3,732.42	68.8244	3,732.42	67.8892	3,732.42	67.1076	3,732.42	61.6153	3,732.42	62.8546
3,864.26	84.0929	3,864.26	84.2047	3,864.26	83.8177	3,864.26	83.7782	3,864.26	83.6167	3,864.26	83.1332	3,864.26	82.9019	3,864.26	82.5114	3,864.26	82.1888	3,864.26	80.9553	3,864.26	80.9348	3,864.26	79.769	3,864.26	80.0551	3,864.26	77.8525	3,864.26	77.8942	3,864.26	75.9784	3,864.26	74.6548	3,864.26	72.6492	3,864.26	73.2635	3,864.26	72.3217	3,864.26	70.5714	3,864.26	69.0711	3,864.26	68.8406	3,864.26	69.9488	3,864.26	67.9238	3,864.26	66.4145	3,864.26	62.7268	3,864.26	68.873	3,864.26	67.4141	3,864.26	65.1437	3,864.26	61.481	3,864.26	68.2238	3,864.26	67.2084	3,864.26	66.3071	3,864.26	65.0571	3,864.26	61.6514
4,000.49	84.4339	4,000.49	83.833	4,000.49	84.8109	4,000.49	83.5187	4,000.49	83.6608	4,000.49	82.801	4,000.49	83.2141	4,000.49	81.5754	4,000.49	82.17	4,000.49	80.7559	4,000.49	81.3824	4,000.49	79.2562	4,000.49	79.8155	4,000.49	77.8248	4,000.49	77.7825	4,000.49	75.841	4,000.49	75.7476	4,000.49	73.4464	4,000.49	73.3668	4,000.49	71.0363	4,000.49	70.3875	4,000.49	68.2593	4,000.49	68.8237	4,000.49	67.6883	4,000.49	66.8271	4,000.49	65.2274	4,000.49	66.0619	4,000.49	67.8061	4,000.49	67.6689	4,000.49	65.5552	4,000.49	64.2879	4,000.49	65.9467	4,000.49	66.3817	4,000.49	63.841	4,000.49	60.1593	4,000.49	56.9628
4,141.11	85.5843	4,141.11	85.1558	4,141.11	85.3083	4,141.11	84.2224	4,141.11	84.8278	4,141.11	83.1174	4,141.11	83.9931	4,141.11	82.0875	4,141.11	83.2331	4,141.11	81.2276	4,141.11	82.1333	4,141.11	79.8794	4,141.11	79.9168	4,141.11	77.8819	4,141.11	77.1787	4,141.11	75.6475	4,141.11	75.6083	4,141.11	73.5961	4,141.11	72.8262	4,141.11	71.2944	4,141.11	70.8844	4,141.11	69.2471	4,141.11	67.6649	4,141.11	67.554	4,141.11	68.7568	4,141.11	64.8634	4,141.11	64.6487	4,141.11	67.1893	4,141.11	67.4227	4,141.11	64.7339	4,141.11	64.2809	4,141.11	67.7803	4,141.11	67.2144	4,141.11	66.6424	4,141.11	61.7102	4,141.11	56.7176
4,287.6	85.4372	4,287.6	85.809	4,287.6	84.8802	4,287.6	84.4852	4,287.6	84.4658	4,287.6	83.9685	4,287.6	83.7132	4,287.6	83.2737	4,287.6	82.6318	4,287.6	81.7174	4,287.6	81.4401	4,287.6	80.3104	4,287.6	79.5724	4,287.6	78.1026	4,287.6	77.3205	4,287.6	75.293	4,287.6	75.3857	4,287.6	74.2414	4,287.6	71.6137	4,287.6	72.0546	4,287.6	70.8541	4,287.6	67.2462	4,287.6	68.251	4,287.6	68.3047	4,287.6	66.6505	4,287.6	64.4779	4,287.6	62.3178	4,287.6	68.6127	4,287.6	68.2718	4,287.6	66.155	4,287.6	60.8519	4,287.6	67.6602	4,287.6	66.5948	4,287.6	67.0527	4,287.6	64.3231	4,287.6	55.6678
4,438.48	86.2547	4,438.48	85.8778	4,438.48	86.0867	4,438.48	85.5778	4,438.48	84.822	4,438.48	84.2207	4,438.48	83.7747	4,438.48	82.5717	4,438.48	82.0284	4,438.48	81.4636	4,438.48	80.2837	4,438.48	79.3258	4,438.48	78.9461	4,438.48	76.7798	4,438.48	76.5829	4,438.48	74.8029	4,438.48	71.7125	4,438.48	70.5292	4,438.48	69.834	4,438.48	67.3228	4,438.48	68.2242	4,438.48	68.1899	4,438.48	65.9771	4,438.48	66.4172	4,438.48	66.8556	4,438.48	67.5009	4,438.48	60.3356	4,438.48	67.3412	4,438.48	69.7561	4,438.48	67.6724	4,438.48	61.3916	4,438.48	66.1342	4,438.48	66.3886	4,438.48	67.2528	4,438.48	63.1881	4,438.48	62.5579
4,595.21	86.8101	4,595.21	86.7456	4,595.21	86.2918	4,595.21	85.5251	4,595.21	85.5553	4,595.21	83.8655	4,595.21	83.4729	4,595.21	81.1508	4,595.21	81.8932	4,595.21	78.3117	4,595.21	79.5754	4,595.21	76.6652	4,595.21	75.0347	4,595.21	72.6872	4,595.21	70.6614	4,595.21	66.5874	4,595.21	68.3561	4,595.21	67.3674	4,595.21	63.4035	4,595.21	64.7541	4,595.21	61.1818	4,595.21	62.2039	4,595.21	62.6193	4,595.21	63.9382	4,595.21	60.0691	4,595.21	65.0138	4,595.21	63.4398	4,595.21	68.0835	4,595.21	67.3332	4,595.21	68.5873	4,595.21	65.8345	4,595.21	66.7674	4,595.21	66.3078	4,595.21	64.286	4,595.21	61.1278	4,595.21	60.1146
4,756.35	87.2804	4,756.35	87.1629	4,756.35	87.1908	4,756.35	85.877	4,756.35	86.2118	4,756.35	84.2432	4,756.35	84.3813	4,756.35	82.1768	4,756.35	82.0428	4,756.35	79.639	4,756.35	78.4101	4,756.35	74.6928	4,756.35	74.5949	4,756.35	69.5087	4,756.35	69.9951	4,756.35	68.6031	4,756.35	67.3255	4,756.35	67.9545	4,756.35	68.82	4,756.35	67.9037	4,756.35	65.6025	4,756.35	67.9083	4,756.35	64.6591	4,756.35	65.467	4,756.35	65.2198	4,756.35	64.1521	4,756.35	66.0351	4,756.35	66.4151	4,756.35	68.8938	4,756.35	67.377	4,756.35	67.7853	4,756.35	66.3764	4,756.35	66.4186	4,756.35	63.4553	4,756.35	65.2308	4,756.35	55.4831
4,924.8	87.3319	4,924.8	86.8405	4,924.8	87.1528	4,924.8	87.0168	4,924.8	85.4933	4,924.8	84.6471	4,924.8	83.9213	4,924.8	82.9233	4,924.8	80.6524	4,924.8	79.8975	4,924.8	76.4713	4,924.8	75.2398	4,924.8	72.2421	4,924.8	72.2412	4,924.8	71.2439	4,924.8	72.5014	4,924.8	71.7559	4,924.8	72.2501	4,924.8	69.843	4,924.8	70.3064	4,924.8	70.0183	4,924.8	70.6889	4,924.8	68.6988	4,924.8	67.1699	4,924.8	65.1849	4,924.8	68.5631	4,924.8	65.2493	4,924.8	62.4983	4,924.8	67.3671	4,924.8	71.9072	4,924.8	68.339	4,924.8	64.2921	4,924.8	66.8992	4,924.8	67.1198	4,924.8	61.4963	4,924.8	61.3015
5,097.66	86.1895	5,097.66	86.1835	5,097.66	85.0396	5,097.66	84.8441	5,097.66	84.6701	5,097.66	83.3239	5,097.66	82.0036	5,097.66	79.8443	5,097.66	79.4866	5,097.66	75.5448	5,097.66	76.2039	5,097.66	72.6944	5,097.66	72.5597	5,097.66	73.571	5,097.66	71.877	5,097.66	73.2563	5,097.66	72.9009	5,097.66	73.3574	5,097.66	72.2271	5,097.66	72.8264	5,097.66	71.5851	5,097.66	70.8291	5,097.66	70.7789	5,097.66	67.828	5,097.66	67.5667	5,097.66	68.3796	5,097.66	63.8928	5,097.66	66.7243	5,097.66	66.0228	5,097.66	70.7228	5,097.66	68.3666	5,097.66	65.7392	5,097.66	66.6334	5,097.66	62.6355	5,097.66	56.7481	5,097.66	57.6898
5,277.83	86.1917	5,277.83	86.3067	5,277.83	86.1731	5,277.83	84.2951	5,277.83	84.4609	5,277.83	82.6868	5,277.83	82.4802	5,277.83	79.5348	5,277.83	78.9008	5,277.83	75.8872	5,277.83	74.9591	5,277.83	74.3548	5,277.83	73.7518	5,277.83	73.2681	5,277.83	74.3635	5,277.83	75.6506	5,277.83	74.3824	5,277.83	73.5111	5,277.83	73.5351	5,277.83	73.6797	5,277.83	72.2761	5,277.83	70.5915	5,277.83	70.765	5,277.83	70.0891	5,277.83	68.8146	5,277.83	69.2593	5,277.83	67.9945	5,277.83	62.9111	5,277.83	66.1042	5,277.83	68.9505	5,277.83	68.1077	5,277.83	61.4128	5,277.83	62.3401	5,277.83	62.8109	5,277.83	54.4335	5,277.83	59.7158
5,463.87	86.6322	5,463.87	86.0551	5,463.87	86.5084	5,463.87	85.2929	5,463.87	84.6552	5,463.87	82.7202	5,463.87	82.2286	5,463.87	80.2438	5,463.87	78.3938	5,463.87	76.5836	5,463.87	76.4569	5,463.87	74.7838	5,463.87	75.1262	5,463.87	75.9647	5,463.87	75.6989	5,463.87	76.3418	5,463.87	76.4637	5,463.87	75.1039	5,463.87	73.6644	5,463.87	72.127	5,463.87	72.5255	5,463.87	71.3138	5,463.87	70.6467	5,463.87	70.3943	5,463.87	69.5122	5,463.87	70.0255	5,463.87	67.3695	5,463.87	66.5872	5,463.87	63.0802	5,463.87	66.9085	5,463.87	65.7202	5,463.87	66.3442	5,463.87	61.1762	5,463.87	58.5098	5,463.87	55.058	5,463.87	61.5374
5,657.23	87.3212	5,657.23	87.0027	5,657.23	86.2367	5,657.23	85.9148	5,657.23	85.1694	5,657.23	83.6863	5,657.23	81.6857	5,657.23	79.3856	5,657.23	79.377	5,657.23	77.7789	5,657.23	77.0626	5,657.23	77.061	5,657.23	77.3156	5,657.23	78.6687	5,657.23	77.7774	5,657.23	75.5681	5,657.23	74.2242	5,657.23	74.9038	5,657.23	74.1586	5,657.23	73.4102	5,657.23	70.9541	5,657.23	70.7636	5,657.23	69.6174	5,657.23	68.6328	5,657.23	68.1494	5,657.23	68.0394	5,657.23	63.9403	5,657.23	61.9097	5,657.23	64.44	5,657.23	66.3556	5,657.23	61.0558	5,657.23	63.7669	5,657.23	62.4479	5,657.23	56.3082	5,657.23	60.0896	5,657.23	61.9063
5,856.45	88.555	5,856.45	88.3782	5,856.45	88.0009	5,856.45	86.6204	5,856.45	85.8351	5,856.45	83.5103	5,856.45	84.0478	5,856.45	79.9321	5,856.45	80.3606	5,856.45	78.0485	5,856.45	77.8882	5,856.45	77.7481	5,856.45	78.1793	5,856.45	76.5726	5,856.45	76.945	5,856.45	76.1538	5,856.45	76.4479	5,856.45	74.1267	5,856.45	74.4615	5,856.45	73.7329	5,856.45	71.3712	5,856.45	71.8855	5,856.45	69.0871	5,856.45	68.621	5,856.45	63.9595	5,856.45	64.9322	5,856.45	62.692	5,856.45	64.1167	5,856.45	62.9527	5,856.45	65.5985	5,856.45	61.611	5,856.45	61.9534	5,856.45	60.9769	5,856.45	60.7532	5,856.45	64.2124	5,856.45	62.1746
6,062.99	90.3518	6,062.99	90.1273	6,062.99	89.3519	6,062.99	88.2648	6,062.99	87.4305	6,062.99	85.2531	6,062.99	84.1658	6,062.99	82.399	6,062.99	81.2513	6,062.99	79.9212	6,062.99	79.2636	6,062.99	78.9055	6,062.99	77.9835	6,062.99	77.7277	6,062.99	77.0985	6,062.99	76.8717	6,062.99	76.7557	6,062.99	74.5742	6,062.99	73.4927	6,062.99	72.2321	6,062.99	71.2289	6,062.99	70.1378	6,062.99	67.7779	6,062.99	65.6275	6,062.99	63.4327	6,062.99	64.0161	6,062.99	59.3887	6,062.99	59.398	6,062.99	59.9283	6,062.99	63.7178	6,062.99	60.651	6,062.99	57.5938	6,062.99	62.6883	6,062.99	59.5458	6,062.99	62.8384	6,062.99	60.5191
6,276.86	90.3612	6,276.86	89.7582	6,276.86	89.392	6,276.86	87.5185	6,276.86	87.5173	6,276.86	84.3397	6,276.86	83.7841	6,276.86	80.9384	6,276.86	80.5959	6,276.86	79.813	6,276.86	78.9302	6,276.86	78.3273	6,276.86	78.3086	6,276.86	77.9926	6,276.86	76.7835	6,276.86	75.9579	6,276.86	75.1303	6,276.86	74.26	6,276.86	71.6139	6,276.86	70.6018	6,276.86	69.5374	6,276.86	68.5119	6,276.86	64.859	6,276.86	64.6173	6,276.86	61.4554	6,276.86	65.0379	6,276.86	62.6494	6,276.86	57.6442	6,276.86	54.2412	6,276.86	61.7024	6,276.86	61.2064	6,276.86	56.4119	6,276.86	55.53	6,276.86	57.5873	6,276.86	60.3186	6,276.86	55.3913
6,498.05	89.2954	6,498.05	88.6459	6,498.05	88.33	6,498.05	86.5288	6,498.05	85.6073	6,498.05	83.6002	6,498.05	82.8488	6,498.05	81.1646	6,498.05	79.8639	6,498.05	79.3606	6,498.05	78.3234	6,498.05	78.9043	6,498.05	77.3541	6,498.05	77.5512	6,498.05	75.5714	6,498.05	76.1999	6,498.05	74.5507	6,498.05	73.2347	6,498.05	71.0931	6,498.05	71.0966	6,498.05	67.5033	6,498.05	65.1572	6,498.05	64.5749	6,498.05	63.8198	6,498.05	62.2211	6,498.05	58.0087	6,498.05	56.5609	6,498.05	57.3975	6,498.05	58.5129	6,498.05	60.5255	6,498.05	61.1929	6,498.05	60.2803	6,498.05	59.3954	6,498.05	61.8618	6,498.05	58.3234	6,498.05	48.5674
6,726.56	87.4843	6,726.56	86.8597	6,726.56	86.0492	6,726.56	84.5814	6,726.56	83.7278	6,726.56	81.6545	6,726.56	80.5061	6,726.56	79.9063	6,726.56	78.5526	6,726.56	78.5469	6,726.56	77.674	6,726.56	78.4317	6,726.56	76.4251	6,726.56	77.0753	6,726.56	75.3676	6,726.56	75.4005	6,726.56	74.1214	6,726.56	73.2105	6,726.56	70.6902	6,726.56	70.2014	6,726.56	67.9683	6,726.56	67.1083	6,726.56	65.917	6,726.56	63.3874	6,726.56	59.2884	6,726.56	60.5334	6,726.56	62.8002	6,726.56	61.2252	6,726.56	61.0502	6,726.56	60.4243	6,726.56	64.3162	6,726.56	61.4874	6,726.56	62.449	6,726.56	60.0474	6,726.56	60.2301	6,726.56	53.7417
6,963.87	85.6266	6,963.87	85.028	6,963.87	84.4903	6,963.87	82.9622	6,963.87	81.6266	6,963.87	80.9924	6,963.87	79.5852	6,963.87	79.5519	6,963.87	77.8169	6,963.87	79.4892	6,963.87	77.7436	6,963.87	77.9818	6,963.87	77.503	6,963.87	76.8808	6,963.87	76.7223	6,963.87	75.5985	6,963.87	74.022	6,963.87	73.6273	6,963.87	71.8551	6,963.87	70.1912	6,963.87	68.8222	6,963.87	66.1236	6,963.87	64.692	6,963.87	64.6284	6,963.87	62.9893	6,963.87	58.1235	6,963.87	61.0502	6,963.87	61.8234	6,963.87	58.829	6,963.87	60.9659	6,963.87	62.9798	6,963.87	61.5406	6,963.87	59.0039	6,963.87	59.9689	6,963.87	55.5297	6,963.87	56.3686
7,209.96	84.701	7,209.96	84.008	7,209.96	83.0304	7,209.96	82.2616	7,209.96	81.0159	7,209.96	80.1051	7,209.96	79.3468	7,209.96	79.7704	7,209.96	78.7152	7,209.96	78.7162	7,209.96	78.6274	7,209.96	78.9354	7,209.96	78.0022	7,209.96	77.9365	7,209.96	76.9203	7,209.96	76.0726	7,209.96	74.9666	7,209.96	74.4802	7,209.96	72.4846	7,209.96	71.5196	7,209.96	67.9922	7,209.96	70.1963	7,209.96	67.795	7,209.96	65.0739	7,209.96	61.8715	7,209.96	62.5724	7,209.96	60.3562	7,209.96	64.3367	7,209.96	61.7144	7,209.96	64.1109	7,209.96	65.5378	7,209.96	60.6439	7,209.96	57.0044	7,209.96	62.8363	7,209.96	57.4305	7,209.96	60.0731
7,464.84	83.6958	7,464.84	83.3963	7,464.84	82.4262	7,464.84	82.2067	7,464.84	79.9296	7,464.84	80.3259	7,464.84	78.5099	7,464.84	79.6295	7,464.84	78.2588	7,464.84	80.0138	7,464.84	78.5787	7,464.84	79.1433	7,464.84	78.0869	7,464.84	78.716	7,464.84	77.3731	7,464.84	77.0151	7,464.84	74.3732	7,464.84	74.4288	7,464.84	72.3738	7,464.84	71.8085	7,464.84	68.6717	7,464.84	69.0878	7,464.84	65.8754	7,464.84	66.0458	7,464.84	63.0122	7,464.84	60.8441	7,464.84	58.5906	7,464.84	61.4227	7,464.84	61.4825	7,464.84	59.0791	7,464.84	62.9751	7,464.84	62.9492	7,464.84	54.0065	7,464.84	57.6996	7,464.84	58.7706	7,464.84	57.9265
7,727.05	83.0488	7,727.05	82.9681	7,727.05	81.5041	7,727.05	82.226	7,727.05	80.5284	7,727.05	79.7868	7,727.05	79.0418	7,727.05	80.5305	7,727.05	79.1301	7,727.05	80.211	7,727.05	79.4083	7,727.05	79.5691	7,727.05	79.0451	7,727.05	78.7671	7,727.05	77.7563	7,727.05	76.9976	7,727.05	75.8795	7,727.05	73.3272	7,727.05	73.2411	7,727.05	71.8727	7,727.05	71.2933	7,727.05	67.7165	7,727.05	67.5202	7,727.05	64.8491	7,727.05	63.2314	7,727.05	60.0795	7,727.05	59.7414	7,727.05	62.6093	7,727.05	63.9522	7,727.05	62.288	7,727.05	64.3345	7,727.05	63.4207	7,727.05	57.7283	7,727.05	60.4871	7,727.05	57.1185	7,727.05	62.4126
7,999.51	80.7332	7,999.51	80.5918	7,999.51	80.6463	7,999.51	81.1367	7,999.51	80.0265	7,999.51	79.5004	7,999.51	78.884	7,999.51	80.3407	7,999.51	79.6168	7,999.51	81.2448	7,999.51	80.0356	7,999.51	80.2906	7,999.51	79.1473	7,999.51	78.9497	7,999.51	77.4008	7,999.51	77.2414	7,999.51	75.7414	7,999.51	73.4481	7,999.51	73.0393	7,999.51	72.1125	7,999.51	70.2744	7,999.51	68.3897	7,999.51	66.0797	7,999.51	65.37	7,999.51	63.1849	7,999.51	59.3024	7,999.51	60.8168	7,999.51	63.3157	7,999.51	62.9189	7,999.51	62.6763	7,999.51	63.9048	7,999.51	63.9603	7,999.51	59.7957	7,999.51	56.8211	7,999.51	52.1888	7,999.51	64.1068
8,282.23	80.9732	8,282.23	80.8977	8,282.23	82.0694	8,282.23	81.7493	8,282.23	81.0976	8,282.23	80.8267	8,282.23	80.7271	8,282.23	81.0593	8,282.23	80.7822	8,282.23	80.9147	8,282.23	80.902	8,282.23	79.6087	8,282.23	79.2817	8,282.23	77.6933	8,282.23	77.1751	8,282.23	76.2955	8,282.23	75.3147	8,282.23	73.7684	8,282.23	72.9636	8,282.23	71.2043	8,282.23	69.7048	8,282.23	68.7634	8,282.23	66.5641	8,282.23	64.8435	8,282.23	63.4488	8,282.23	60.4393	8,282.23	57.7991	8,282.23	61.8804	8,282.23	62.8769	8,282.23	59.9427	8,282.23	65.3656	8,282.23	62.1221	8,282.23	58.0328	8,282.23	55.1785	8,282.23	57.0518	8,282.23	60.8371
8,573.73	83.3991	8,573.73	83.3993	8,573.73	83.6454	8,573.73	83.5763	8,573.73	82.943	8,573.73	82.1669	8,573.73	82.0997	8,573.73	80.9964	8,573.73	80.9476	8,573.73	80.28	8,573.73	79.734	8,573.73	78.8076	8,573.73	77.9603	8,573.73	77.0088	8,573.73	75.6562	8,573.73	73.902	8,573.73	73.8839	8,573.73	71.7226	8,573.73	70.9123	8,573.73	68.3949	8,573.73	66.6408	8,573.73	66.974	8,573.73	63.4884	8,573.73	59.3827	8,573.73	58.1923	8,573.73	57.6891	8,573.73	57.9998	8,573.73	59.8125	8,573.73	61.0048	8,573.73	57.5474	8,573.73	61.0734	8,573.73	59.3421	8,573.73	54.3261	8,573.73	55.0461	8,573.73	52.5242	8,573.73	58.6994
8,876.95	84.8057	8,876.95	84.5987	8,876.95	84.6374	8,876.95	84.1021	8,876.95	83.4916	8,876.95	82.2705	8,876.95	82.3686	8,876.95	80.8885	8,876.95	80.6783	8,876.95	79.106	8,876.95	79.1004	8,876.95	77.1276	8,876.95	76.7249	8,876.95	74.383	8,876.95	74.7498	8,876.95	71.8383	8,876.95	71.3295	8,876.95	69.0994	8,876.95	68.3915	8,876.95	65.5959	8,876.95	64.1571	8,876.95	62.5865	8,876.95	61.3165	8,876.95	57.0978	8,876.95	55.5867	8,876.95	54.3141	8,876.95	54.2704	8,876.95	57.4926	8,876.95	58.314	8,876.95	56.7193	8,876.95	56.6138	8,876.95	54.57	8,876.95	51.2237	8,876.95	53.0465	8,876.95	54.2894	8,876.95	55.4045
9,188.96	85.3545	9,188.96	84.9735	9,188.96	84.6067	9,188.96	84.1442	9,188.96	83.6338	9,188.96	82.2181	9,188.96	81.8476	9,188.96	80.3381	9,188.96	79.6025	9,188.96	78.3183	9,188.96	77.6228	9,188.96	75.1737	9,188.96	74.5499	9,188.96	72.6887	9,188.96	71.6561	9,188.96	69.0763	9,188.96	68.9017	9,188.96	64.5207	9,188.96	65.3304	9,188.96	61.8899	9,188.96	60.0154	9,188.96	58.1498	9,188.96	57.8036	9,188.96	49.8929	9,188.96	50.7176	9,188.96	43.0599	9,188.96	55.4127	9,188.96	56.106	9,188.96	54.5967	9,188.96	53.1718	9,188.96	55.8869	9,188.96	55.6448	9,188.96	45.2549	9,188.96	51.8826	9,188.96	50.928	9,188.96	51.2278
9,514.16	85.4034	9,514.16	85.1745	9,514.16	84.7645	9,514.16	84.1852	9,514.16	83.5783	9,514.16	82.186	9,514.16	81.8472	9,514.16	80.488	9,514.16	79.5465	9,514.16	77.6774	9,514.16	76.7058	9,514.16	74.1329	9,514.16	73.8518	9,514.16	70.5592	9,514.16	70.8393	9,514.16	67.3928	9,514.16	66.7357	9,514.16	63.0669	9,514.16	63.6026	9,514.16	58.5475	9,514.16	57.9518	9,514.16	58.7804	9,514.16	54.7483	9,514.16	53.1452	9,514.16	48.5937	9,514.16	45.6101	9,514.16	40.4456	9,514.16	55.7268	9,514.16	51.9117	9,514.16	55.8966	9,514.16	52.3182	9,514.16	54.9377	9,514.16	32.2272	9,514.16	43.287	9,514.16	50.8659	9,514.16	53.1676
9,849.61	85.3371	9,849.61	84.9841	9,849.61	84.6056	9,849.61	84.0334	9,849.61	83.6121	9,849.61	81.9959	9,849.61	81.6398	9,849.61	80.2403	9,849.61	79.1384	9,849.61	77.561	9,849.61	76.5386	9,849.61	73.8941	9,849.61	74.003	9,849.61	70.5489	9,849.61	70.7089	9,849.61	66.5572	9,849.61	66.0126	9,849.61	62.4604	9,849.61	62.178	9,849.61	58.7457	9,849.61	55.8015	9,849.61	58.4527	9,849.61	54.2977	9,849.61	48.5392	9,849.61	43.8388	9,849.61	43.4558	9,849.61	51.5331	9,849.61	55.6322	9,849.61	54.3951	9,849.61	55.9864	9,849.61	46.0864	9,849.61	55.4202	9,849.61	47.528	9,849.61	31.1798	9,849.61	49.9626	9,849.61	54.0068
10,196.8	85.4132	10,196.8	84.9683	10,196.8	84.7962	10,196.8	83.9743	10,196.8	83.5782	10,196.8	81.7469	10,196.8	81.37	10,196.8	79.3313	10,196.8	78.9749	10,196.8	76.9512	10,196.8	76.5483	10,196.8	73.5422	10,196.8	73.0381	10,196.8	67.6909	10,196.8	68.7215	10,196.8	62.7916	10,196.8	61.8994	10,196.8	60.7271	10,196.8	60.4588	10,196.8	56.6215	10,196.8	58.8544	10,196.8	54.9711	10,196.8	53.26	10,196.8	47.6379	10,196.8	48.9387	10,196.8	43.9518	10,196.8	53.1435	10,196.8	51.2437	10,196.8	53.3556	10,196.8	53.0702	10,196.8	50.1273	10,196.8	55.483	10,196.8	50.6943	10,196.8	40.7429	10,196.8	38.4327	10,196.8	53.1284
10,555.7	85.8545	10,555.7	85.2665	10,555.7	84.7866	10,555.7	83.9415	10,555.7	83.6208	10,555.7	81.7042	10,555.7	81.4172	10,555.7	79.0506	10,555.7	79.2175	10,555.7	77.4144	10,555.7	76.4977	10,555.7	73.3141	10,555.7	72.9483	10,555.7	67.4092	10,555.7	69.685	10,555.7	62.7707	10,555.7	64.4601	10,555.7	60.228	10,555.7	62.0639	10,555.7	59.5282	10,555.7	60.7965	10,555.7	55.0624	10,555.7	56.5038	10,555.7	53.8363	10,555.7	53.1482	10,555.7	47.6134	10,555.7	53.2869	10,555.7	51.5337	10,555.7	50.133	10,555.7	55.8791	10,555.7	47.0773	10,555.7	55.5183	10,555.7	53.9326	10,555.7	46.2889	10,555.7	41.5729	10,555.7	47.6305
10,927.7	85.9213	10,927.7	85.1238	10,927.7	84.7148	10,927.7	84.2272	10,927.7	83.839	10,927.7	81.9635	10,927.7	81.4806	10,927.7	79.6892	10,927.7	79.4989	10,927.7	77.9195	10,927.7	77.2315	10,927.7	73.9916	10,927.7	73.959	10,927.7	69.1077	10,927.7	71.209	10,927.7	65.0257	10,927.7	66.6773	10,927.7	62.3999	10,927.7	64.0823	10,927.7	60.3652	10,927.7	63.2254	10,927.7	57.4863	10,927.7	58.5996	10,927.7	54.0398	10,927.7	56.1345	10,927.7	50.9205	10,927.7	53.3614	10,927.7	50.6706	10,927.7	49.8188	10,927.7	54.6925	10,927.7	52.9584	10,927.7	54.8548	10,927.7	56.694	10,927.7	22.9956	10,927.7	36.9831	10,927.7	52.5956
11,313	85.6912	11,313	84.8122	11,313	84.6814	11,313	84.4777	11,313	83.9198	11,313	82.2523	11,313	81.7663	11,313	80.3305	11,313	79.8538	11,313	78.2085	11,313	77.2905	11,313	74.2324	11,313	74.3504	11,313	69.7733	11,313	71.3021	11,313	65.0696	11,313	67.3466	11,313	61.6019	11,313	64.7139	11,313	60.9561	11,313	62.8839	11,313	56.2623	11,313	60.2816	11,313	55.2824	11,313	57.1794	11,313	47.9177	11,313	55.8968	11,313	48.7496	11,313	51.8414	11,313	55.2613	11,313	53.5685	11,313	55.9768	11,313	56.4198	11,313	45.9159	11,313	41.8891	11,313	47.6395
11,712.9	85.5969	11,712.9	85.1286	11,712.9	84.6826	11,712.9	84.7398	11,712.9	83.7282	11,712.9	82.5598	11,712.9	81.5645	11,712.9	80.2133	11,712.9	79.2427	11,712.9	77.7718	11,712.9	76.1231	11,712.9	73.6743	11,712.9	72.9802	11,712.9	68.5623	11,712.9	69.6068	11,712.9	63.397	11,712.9	65.45	11,712.9	58.0957	11,712.9	62.0226	11,712.9	58.0345	11,712.9	59.7356	11,712.9	56.7776	11,712.9	57.5483	11,712.9	53.3943	11,712.9	56.0303	11,712.9	50.8998	11,712.9	52.6099	11,712.9	52.1198	11,712.9	49.8671	11,712.9	55.3705	11,712.9	51.9507	11,712.9	48.4078	11,712.9	52.6851	11,712.9	43.9964	11,712.9	44.0771	11,712.9	38.5652
12,126	85.6723	12,126	85.2137	12,126	84.6303	12,126	84.5513	12,126	83.2876	12,126	82.3254	12,126	80.8724	12,126	79.5084	12,126	78.0595	12,126	76.492	12,126	74.5976	12,126	72.4538	12,126	70.684	12,126	66.556	12,126	68.191	12,126	60.8027	12,126	62.8463	12,126	58.7377	12,126	58.7831	12,126	60.3057	12,126	57.4381	12,126	56.8182	12,126	52.0731	12,126	57.3199	12,126	55.804	12,126	51.6435	12,126	35.0497	12,126	45.571	12,126	47.767	12,126	56.1954	12,126	51.8194	12,126	49.6621	12,126	52.3283	12,126	50.7854	12,126	47.53	12,126	50.2795
12,553.7	85.1556	12,553.7	84.9604	12,553.7	84.221	12,553.7	84.1303	12,553.7	83.0037	12,553.7	82.1533	12,553.7	80.8323	12,553.7	78.2857	12,553.7	77.6395	12,553.7	75.8443	12,553.7	75.1789	12,553.7	72.2566	12,553.7	72.1455	12,553.7	67.7418	12,553.7	69.677	12,553.7	64.1749	12,553.7	65.4778	12,553.7	59.7041	12,553.7	63.0856	12,553.7	61.6752	12,553.7	61.7724	12,553.7	58.6382	12,553.7	58.8484	12,553.7	58.4462	12,553.7	59.1023	12,553.7	51.0275	12,553.7	49.3096	12,553.7	45.5461	12,553.7	52.1333	12,553.7	58.6502	12,553.7	53.0539	12,553.7	46.7744	12,553.7	52.0099	12,553.7	51.1408	12,553.7	48.9627	12,553.7	51.156
12,996.1	84.4855	12,996.1	85.0822	12,996.1	84.4412	12,996.1	84.1455	12,996.1	82.9663	12,996.1	82.2984	12,996.1	81.4514	12,996.1	78.0502	12,996.1	78.2842	12,996.1	76.513	12,996.1	76.7785	12,996.1	72.7155	12,996.1	73.8587	12,996.1	69.219	12,996.1	71.0395	12,996.1	66.0391	12,996.1	66.6872	12,996.1	61.3293	12,996.1	64.2804	12,996.1	61.5407	12,996.1	63.7296	12,996.1	57.7829	12,996.1	60.3294	12,996.1	58.7048	12,996.1	60.5459	12,996.1	51.5188	12,996.1	52.0561	12,996.1	49.3597	12,996.1	53.2553	12,996.1	57.4853	12,996.1	54.0429	12,996.1	21.9081	12,996.1	49.0437	12,996.1	48.4707	12,996.1	51.0089	12,996.1	54.8219
13,454.6	85.0479	13,454.6	85.739	13,454.6	85.2926	13,454.6	84.5243	13,454.6	83.3411	13,454.6	82.374	13,454.6	81.7594	13,454.6	79.015	13,454.6	79.0891	13,454.6	76.6236	13,454.6	76.5738	13,454.6	71.9873	13,454.6	73.2953	13,454.6	68.956	13,454.6	70.6209	13,454.6	66.8063	13,454.6	67.8741	13,454.6	63.7195	13,454.6	63.1598	13,454.6	61.7129	13,454.6	63.1733	13,454.6	58.6858	13,454.6	57.8861	13,454.6	56.3472	13,454.6	58.4465	13,454.6	46.2484	13,454.6	50.5141	13,454.6	47.5384	13,454.6	52.9316	13,454.6	56.5822	13,454.6	53.823	13,454.6	46.6644	13,454.6	46.8729	13,454.6	46.8228	13,454.6	47.7858	13,454.6	53.0389
13,929.2	85.5823	13,929.2	85.9798	13,929.2	85.5522	13,929.2	84.6595	13,929.2	83.6394	13,929.2	82.0664	13,929.2	81.0589	13,929.2	79.1528	13,929.2	78.4156	13,929.2	75.6788	13,929.2	74.1646	13,929.2	72.3633	13,929.2	72.2941	13,929.2	70.6488	13,929.2	69.9757	13,929.2	68.7229	13,929.2	65.6318	13,929.2	63.6508	13,929.2	60.6123	13,929.2	61.6225	13,929.2	60.187	13,929.2	60.1248	13,929.2	57.1293	13,929.2	54.7362	13,929.2	55.5595	13,929.2	44.0843	13,929.2	50.9896	13,929.2	49.7253	13,929.2	50.575	13,929.2	56.3025	13,929.2	46.4086	13,929.2	49.7096	13,929.2	38.5096	13,929.2	52.8873	13,929.2	49.9198	13,929.2	47.6735
14,419.9	85.8089	14,419.9	86.0375	14,419.9	85.423	14,419.9	84.7514	14,419.9	83.9549	14,419.9	82.1865	14,419.9	80.8761	14,419.9	79.1243	14,419.9	77.6138	14,419.9	74.7327	14,419.9	73.4907	14,419.9	72.1488	14,419.9	72.2803	14,419.9	70.1035	14,419.9	68.654	14,419.9	68.2128	14,419.9	66.5074	14,419.9	64.1413	14,419.9	61.9252	14,419.9	59.9589	14,419.9	57.0368	14,419.9	59.5682	14,419.9	57.9483	14,419.9	52.4322	14,419.9	51.5468	14,419.9	49.9314	14,419.9	40.82	14,419.9	43.4753	14,419.9	46.7194	14,419.9	54.2725	14,419.9	44.7086	14,419.9	47.3549	14,419.9	33.9162	14,419.9	53.3346	14,419.9	50.2516	14,419.9	48.1862
14,928.2	86.0643	14,928.2	86.1206	14,928.2	85.7214	14,928.2	85.0107	14,928.2	84.2113	14,928.2	82.2749	14,928.2	80.896	14,928.2	78.1619	14,928.2	76.7923	14,928.2	73.9753	14,928.2	72.9134	14,928.2	70.6712	14,928.2	71.3404	14,928.2	68.7064	14,928.2	67.7902	14,928.2	67.1583	14,928.2	67.3977	14,928.2	64.8357	14,928.2	61.8521	14,928.2	60.0545	14,928.2	58.4782	14,928.2	57.8753	14,928.2	56.2598	14,928.2	51.8334	14,928.2	49.2149	14,928.2	52.358	14,928.2	44.12	14,928.2	38.5128	14,928.2	36.0936	14,928.2	51.3438	14,928.2	48.8682	14,928.2	49.1682	14,928.2	40.275	14,928.2	49.9619	14,928.2	48.2717	14,928.2	46.3696
15,455.6	86.4703	15,455.6	86.3848	15,455.6	86.295	15,455.6	85.1984	15,455.6	84.5158	15,455.6	82.1537	15,455.6	81.5302	15,455.6	77.2862	15,455.6	76.821	15,455.6	73.2629	15,455.6	73.1918	15,455.6	69.3886	15,455.6	69.674	15,455.6	69.0584	15,455.6	66.2284	15,455.6	68.0677	15,455.6	65.4305	15,455.6	64.095	15,455.6	60.0366	15,455.6	59.9107	15,455.6	56.8793	15,455.6	57.4518	15,455.6	54.9772	15,455.6	51.3369	15,455.6	45.599	15,455.6	51.6023	15,455.6	48.8215	15,455.6	38.3211	15,455.6	39.163	15,455.6	54.1552	15,455.6	45.6503	15,455.6	49.8202	15,455.6	44.9184	15,455.6	48.1658	15,455.6	44.7702	15,455.6	42.7669
16,000.5	87.0767	16,000.5	87.0057	16,000.5	86.8324	16,000.5	85.6229	16,000.5	84.8528	16,000.5	82.3283	16,000.5	81.6162	16,000.5	77.3686	16,000.5	76.5266	16,000.5	72.2584	16,000.5	71.4389	16,000.5	69.3379	16,000.5	67.8827	16,000.5	68.5192	16,000.5	61.2565	16,000.5	67.3095	16,000.5	58.7108	16,000.5	63.1883	16,000.5	54.9493	16,000.5	58.7425	16,000.5	50.1596	16,000.5	56.7127	16,000.5	51.8837	16,000.5	50.165	16,000.5	39.4309	16,000.5	55.2917	16,000.5	46.9362	16,000.5	25.0339	16,000.5	44.241	16,000.5	53.6506	16,000.5	35.4433	16,000.5	49.2579	16,000.5	49.9763	16,000.5	49.1204	16,000.5	41.0982	16,000.5	40.2279
16,564.5	87.6072	16,564.5	87.7312	16,564.5	87.3176	16,564.5	86.116	16,564.5	85.0194	16,564.5	82.7872	16,564.5	81.1362	16,564.5	77.5529	16,564.5	75.6246	16,564.5	72.5375	16,564.5	67.8364	16,564.5	69.7856	16,564.5	60.8243	16,564.5	67.0546	16,564.5	53.3078	16,564.5	65.1169	16,564.5	56.0785	16,564.5	63.5998	16,564.5	52.2028	16,564.5	58.9244	16,564.5	51.8501	16,564.5	55.9446	16,564.5	50.0982	16,564.5	48.7182	16,564.5	53.817	16,564.5	53.869	16,564.5	47.113	16,564.5	41.4884	16,564.5	46.2604	16,564.5	55.1634	16,564.5	44.7878	16,564.5	52.402	16,564.5	49.127	16,564.5	40.862	16,564.5	43.2843	16,564.5	40.5659
17,148.9	87.8145	17,148.9	87.8635	17,148.9	87.3325	17,148.9	86.099	17,148.9	84.7186	17,148.9	82.2964	17,148.9	79.8219	17,148.9	76.6631	17,148.9	72.0596	17,148.9	70.6049	17,148.9	59.9609	17,148.9	67.6403	17,148.9	61.4152	17,148.9	64.8914	17,148.9	67.3438	17,148.9	65.1691	17,148.9	65.6408	17,148.9	63.8308	17,148.9	60.4769	17,148.9	60.081	17,148.9	57.6021	17,148.9	58.6509	17,148.9	55.6204	17,148.9	51.8462	17,148.9	54.5677	17,148.9	55.3327	17,148.9	39.8054	17,148.9	38.2181	17,148.9	47.5136	17,148.9	52.6431	17,148.9	52.5092	17,148.9	54.0053	17,148.9	50.7046	17,148.9	42.6573	17,148.9	39.5165	17,148.9	46.0092
17,752.4	87.4744	17,752.4	87.5237	17,752.4	86.7071	17,752.4	85.6997	17,752.4	83.6522	17,752.4	81.6756	17,752.4	78.6533	17,752.4	75.579	17,752.4	68.8693	17,752.4	67.0426	17,752.4	63.844	17,752.4	62.2701	17,752.4	68.5023	17,752.4	65.517	17,752.4	68.533	17,752.4	63.5632	17,752.4	67.2018	17,752.4	61.9569	17,752.4	61.4817	17,752.4	58.4273	17,752.4	57.6489	17,752.4	59.2004	17,752.4	56.6892	17,752.4	53.7853	17,752.4	52.1791	17,752.4	54.89	17,752.4	44.4648	17,752.4	46.1384	17,752.4	49.4676	17,752.4	49.7624	17,752.4	53.3127	17,752.4	53.1832	17,752.4	52.2043	17,752.4	52.7031	17,752.4	46.1693	17,752.4	47.5136
18,379.4	87.3295	18,379.4	87.26	18,379.4	86.3674	18,379.4	84.973	18,379.4	82.8786	18,379.4	80.426	18,379.4	77.509	18,379.4	71.9467	18,379.4	68.0583	18,379.4	62.1778	18,379.4	66.8623	18,379.4	69.0337	18,379.4	70.5576	18,379.4	70.1463	18,379.4	69.1822	18,379.4	68.2306	18,379.4	67.8558	18,379.4	66.6861	18,379.4	62.9178	18,379.4	60.189	18,379.4	56.2854	18,379.4	61.0227	18,379.4	57.9926	18,379.4	56.3877	18,379.4	53.0976	18,379.4	56.2968	18,379.4	47.6855	18,379.4	46.4823	18,379.4	48.5537	18,379.4	49.4196	18,379.4	52.5815	18,379.4	49.6972	18,379.4	54.5282	18,379.4	54.7323	18,379.4	53.7197	18,379.4	48.3604
19,026.9	86.8363	19,026.9	86.7535	19,026.9	85.7573	19,026.9	84.1353	19,026.9	81.8513	19,026.9	79.1611	19,026.9	75.3133	19,026.9	67.9786	19,026.9	67.7315	19,026.9	69.8862	19,026.9	70.5935	19,026.9	72.7034	19,026.9	71.4248	19,026.9	72.4912	19,026.9	70.9275	19,026.9	70.8797	19,026.9	69.8177	19,026.9	68.8837	19,026.9	64.9779	19,026.9	62.0363	19,026.9	56.2433	19,026.9	61.2475	19,026.9	60.0759	19,026.9	59.123	19,026.9	53.7872	19,026.9	56.1783	19,026.9	46.0237	19,026.9	47.9834	19,026.9	47.7208	19,026.9	48.6298	19,026.9	53.846	19,026.9	43.5244	19,026.9	55.7166	19,026.9	55.7091	19,026.9	58.0699	19,026.9	50.6676
19,697.8	86.2275	19,697.8	86.016	19,697.8	84.8749	19,697.8	82.759	19,697.8	80.6301	19,697.8	77.4996	19,697.8	73.045	19,697.8	68.0643	19,697.8	67.8941	19,697.8	72.3468	19,697.8	70.9556	19,697.8	73.278	19,697.8	71.2949	19,697.8	72.8924	19,697.8	70.4448	19,697.8	70.2172	19,697.8	68.8775	19,697.8	67.6178	19,697.8	64.1433	19,697.8	61.0908	19,697.8	55.6236	19,697.8	58.2512	19,697.8	58.4203	19,697.8	58.0051	19,697.8	53.1495	19,697.8	52.7223	19,697.8	39.0708	19,697.8	49.6177	19,697.8	43.1435	19,697.8	49.2633	19,697.8	52.7302	19,697.8	47.4287	19,697.8	55.759	19,697.8	54.4465	19,697.8	58.2082	19,697.8	52.734
19,999.5	86.0244	19,999.5	85.6631	19,999.5	84.7197	19,999.5	82.4101	19,999.5	79.9607	19,999.5	77.0242	19,999.5	72.1049	19,999.5	68.763	19,999.5	68.107	19,999.5	72.5063	19,999.5	71.438	19,999.5	73.7042	19,999.5	71.4044	19,999.5	72.6903	19,999.5	69.3671	19,999.5	68.4989	19,999.5	68.2443	19,999.5	67.1129	19,999.5	64.0228	19,999.5	62.6713	19,999.5	51.5114	19,999.5	54.9282	19,999.5	52.2952	19,999.5	54.8251	19,999.5	53.2837	19,999.5	47.122	19,999.5	50.898	19,999.5	52.014	19,999.5	46.9478	19,999.5	41.9252	19,999.5	54.3793	19,999.5	50.1115	19,999.5	55.0116	19,999.5	55.1544	19,999.5	57.1401	19,999.5	55.0191
