"SPL Horizontal"
"On-Axis"		"10°"		"-10°"		"20°"		"-20°"		"30°"		"-30°"		"40°"		"-40°"		"50°"		"-50°"		"60°"		"-60°"		"70°"		"-70°"		"80°"		"-80°"		"90°"		"-90°"		"100°"		"-100°"		"110°"		"-110°"		"120°"		"-120°"		"130°"		"-130°"		"140°"		"-140°"		"150°"		"-150°"		"160°"		"-160°"		"170°"		"-170°"		"180°"
"Frequency [Hz]"	"Sound Pessure Level [dB]  / [2.83V 1m] "	"Frequency [Hz]"	"Sound Pessure Level [dB]  / [2.83V 1m] "	"Frequency [Hz]"	"Sound Pessure Level [dB]  / [2.83V 1m] "	"Frequency [Hz]"	"Sound Pessure Level [dB]  / [2.83V 1m] "	"Frequency [Hz]"	"Sound Pessure Level [dB]  / [2.83V 1m] "	"Frequency [Hz]"	"Sound Pessure Level [dB]  / [2.83V 1m] "	"Frequency [Hz]"	"Sound Pessure Level [dB]  / [2.83V 1m] "	"Frequency [Hz]"	"Sound Pessure Level [dB]  / [2.83V 1m] "	"Frequency [Hz]"	"Sound Pessure Level [dB]  / [2.83V 1m] "	"Frequency [Hz]"	"Sound Pessure Level [dB]  / [2.83V 1m] "	"Frequency [Hz]"	"Sound Pessure Level [dB]  / [2.83V 1m] "	"Frequency [Hz]"	"Sound Pessure Level [dB]  / [2.83V 1m] "	"Frequency [Hz]"	"Sound Pessure Level [dB]  / [2.83V 1m] "	"Frequency [Hz]"	"Sound Pessure Level [dB]  / [2.83V 1m] "	"Frequency [Hz]"	"Sound Pessure Level [dB]  / [2.83V 1m] "	"Frequency [Hz]"	"Sound Pessure Level [dB]  / [2.83V 1m] "	"Frequency [Hz]"	"Sound Pessure Level [dB]  / [2.83V 1m] "	"Frequency [Hz]"	"Sound Pessure Level [dB]  / [2.83V 1m] "	"Frequency [Hz]"	"Sound Pessure Level [dB]  / [2.83V 1m] "	"Frequency [Hz]"	"Sound Pessure Level [dB]  / [2.83V 1m] "	"Frequency [Hz]"	"Sound Pessure Level [dB]  / [2.83V 1m] "	"Frequency [Hz]"	"Sound Pessure Level [dB]  / [2.83V 1m] "	"Frequency [Hz]"	"Sound Pessure Level [dB]  / [2.83V 1m] "	"Frequency [Hz]"	"Sound Pessure Level [dB]  / [2.83V 1m] "	"Frequency [Hz]"	"Sound Pessure Level [dB]  / [2.83V 1m] "	"Frequency [Hz]"	"Sound Pessure Level [dB]  / [2.83V 1m] "	"Frequency [Hz]"	"Sound Pessure Level [dB]  / [2.83V 1m] "	"Frequency [Hz]"	"Sound Pessure Level [dB]  / [2.83V 1m] "	"Frequency [Hz]"	"Sound Pessure Level [dB]  / [2.83V 1m] "	"Frequency [Hz]"	"Sound Pessure Level [dB]  / [2.83V 1m] "	"Frequency [Hz]"	"Sound Pessure Level [dB]  / [2.83V 1m] "	"Frequency [Hz]"	"Sound Pessure Level [dB]  / [2.83V 1m] "	"Frequency [Hz]"	"Sound Pessure Level [dB]  / [2.83V 1m] "	"Frequency [Hz]"	"Sound Pessure Level [dB]  / [2.83V 1m] "	"Frequency [Hz]"	"Sound Pessure Level [dB]  / [2.83V 1m] "	"Frequency [Hz]"	"Sound Pessure Level [dB]  / [2.83V 1m] "
20.5078	59.038	20.5078	58.7883	20.5078	59.1336	20.5078	58.3934	20.5078	59.0633	20.5078	57.8602	20.5078	58.812	20.5078	57.1979	20.5078	58.3612	20.5078	56.4276	20.5078	57.6902	20.5078	55.5993	20.5078	56.7796	20.5078	54.82	20.5078	55.6235	20.5078	54.2707	20.5078	54.2712	20.5078	54.1553	20.5078	52.9363	20.5078	54.5552	20.5078	52.1382	20.5078	55.3469	20.5078	52.4295	20.5078	56.3088	20.5078	53.6468	20.5078	57.257	20.5078	55.1547	20.5078	58.0819	20.5078	56.5426	20.5078	58.7264	20.5078	57.6677	20.5078	59.1615	20.5078	58.5024	20.5078	59.3699	20.5078	59.0543	20.5078	59.3385
21.9727	54.4299	21.9727	54.1668	21.9727	54.3802	21.9727	53.5851	21.9727	54.0033	21.9727	52.6707	21.9727	53.2562	21.9727	51.4441	21.9727	52.0578	21.9727	50.1093	21.9727	50.2816	21.9727	49.3758	21.9727	47.8414	21.9727	50.1848	21.9727	45.5364	21.9727	52.2316	21.9727	46.5377	21.9727	54.523	21.9727	50.056	21.9727	56.5902	21.9727	53.3063	21.9727	58.3369	21.9727	55.8849	21.9727	59.7745	21.9727	57.9152	21.9727	60.9318	21.9727	59.519	21.9727	61.8335	21.9727	60.7772	21.9727	62.4965	21.9727	61.7413	21.9727	62.9316	21.9727	62.4436	21.9727	63.1442	21.9727	62.9045	21.9727	63.1359
23.4375	58.2095	23.4375	57.9667	23.4375	58.2711	23.4375	57.5461	23.4375	58.1539	23.4375	56.9661	23.4375	57.8656	23.4375	56.2838	23.4375	57.4265	23.4375	55.639	23.4375	56.8875	23.4375	55.2917	23.4375	56.362	23.4375	55.535	23.4375	56.0543	23.4375	56.4381	23.4375	56.2115	23.4375	57.7657	23.4375	56.9445	23.4375	59.2178	23.4375	58.1129	23.4375	60.6021	23.4375	59.4606	23.4375	61.8295	23.4375	60.7862	23.4375	62.8657	23.4375	61.9794	23.4375	63.7001	23.4375	62.9909	23.4375	64.33	23.4375	63.8016	23.4375	64.7552	23.4375	64.4056	23.4375	64.9759	23.4375	64.802	23.4375	64.9918
24.9023	60.2236	24.9023	60.0646	24.9023	60.2441	24.9023	59.7763	24.9023	60.126	24.9023	59.3837	24.9023	59.8787	24.9023	58.9422	24.9023	59.5268	24.9023	58.5569	24.9023	59.1235	24.9023	58.3881	24.9023	58.7684	24.9023	58.6003	24.9023	58.613	24.9023	59.252	24.9023	58.8165	24.9023	60.2431	24.9023	59.4441	24.9023	61.396	24.9023	60.41	24.9023	62.5569	24.9023	61.544	24.9023	63.629	24.9023	62.6915	24.9023	64.56	24.9023	63.7513	24.9023	65.3239	24.9023	64.6679	24.9023	65.9077	24.9023	65.4134	24.9023	66.3045	24.9023	65.9749	24.9023	66.5109	24.9023	66.3462	24.9023	66.5251
26.3672	61.9051	26.3672	61.7094	26.3672	61.9633	26.3672	61.3864	26.3672	61.8786	26.3672	60.9568	26.3672	61.6491	26.3672	60.464	26.3672	61.2799	26.3672	59.993	26.3672	60.7923	26.3672	59.6844	26.3672	60.2425	26.3672	59.7077	26.3672	59.748	26.3672	60.1666	26.3672	59.501	26.3672	61.0121	26.3672	59.7024	26.3672	62.0806	26.3672	60.4093	26.3672	63.2024	26.3672	61.4756	26.3672	64.2593	26.3672	62.6776	26.3672	65.1844	26.3672	63.8425	26.3672	65.9423	26.3672	64.8726	26.3672	66.5152	26.3672	65.7217	26.3672	66.8933	26.3672	66.3703	26.3672	67.0711	26.3672	66.8116	26.3672	67.0448
27.832	62.4911	27.832	62.3814	27.832	62.4478	27.832	62.1288	27.832	62.2461	27.832	61.7545	27.832	61.8867	27.832	61.3023	27.832	61.383	27.832	60.8592	27.832	60.7789	27.832	60.572	27.832	60.181	27.832	60.6219	27.832	59.7911	27.832	61.1231	27.832	59.8655	27.832	62.0253	27.832	60.5329	27.832	63.1549	27.832	61.6602	27.832	64.3336	27.832	62.984	27.832	65.4405	27.832	64.2942	27.832	66.409	27.832	65.476	27.832	67.2058	27.832	66.4783	27.832	67.8153	27.832	67.2816	27.832	68.2299	27.832	67.8799	27.832	68.4458	27.832	68.2725	27.832	68.4606
29.2969	62.8879	29.2969	62.7341	29.2969	62.8906	29.2969	62.4374	29.2969	62.7425	29.2969	62.0207	29.2969	62.4527	29.2969	61.5384	29.2969	62.0478	29.2969	61.1018	29.2969	61.589	29.2969	60.8948	29.2969	61.1975	29.2969	61.1196	29.2969	61.0612	29.2969	61.8525	29.2969	61.3663	29.2969	62.9684	29.2969	62.1572	29.2969	64.2503	29.2969	63.2912	29.2969	65.5217	29.2969	64.5592	29.2969	66.6799	29.2969	65.7993	29.2969	67.6752	29.2969	66.9188	29.2969	68.4855	29.2969	67.8723	29.2969	69.1019	29.2969	68.6397	29.2969	69.5212	29.2969	69.2125	29.2969	69.7421	29.2969	69.5878	29.2969	69.7644
30.7617	63.7981	30.7617	63.678	30.7617	63.7941	30.7617	63.4438	30.7617	63.6678	30.7617	63.1236	30.7617	63.4344	30.7617	62.7763	30.7617	63.1291	30.7617	62.5068	30.7617	62.8208	30.7617	62.4647	30.7617	62.6233	30.7617	62.79	30.7617	62.6825	30.7617	63.5183	30.7617	63.1112	30.7617	64.5485	30.7617	63.9093	30.7617	65.7172	30.7617	64.9601	30.7617	66.8839	30.7617	66.1101	30.7617	67.9588	30.7617	67.236	30.7617	68.8924	30.7617	68.26	30.7617	69.6594	30.7617	69.1392	30.7617	70.2475	30.7617	69.8509	30.7617	70.6508	30.7617	70.384	30.7617	70.8666	30.7617	70.7325	30.7617	70.8938
32.2266	65.9142	32.2266	65.8412	32.2266	65.8896	32.2266	65.6801	32.2266	65.7686	32.2266	65.4541	32.2266	65.5642	32.2266	65.2064	32.2266	65.3064	32.2266	65.0085	32.2266	65.0511	32.2266	64.958	32.2266	64.8856	32.2266	65.1542	32.2266	64.9189	32.2266	65.6482	32.2266	65.2408	32.2266	66.4072	32.2266	65.8674	32.2266	67.3332	32.2266	66.7274	32.2266	68.3136	32.2266	67.7049	32.2266	69.2574	32.2266	68.6913	32.2266	70.1037	32.2266	69.6084	32.2266	70.8154	32.2266	70.4073	32.2266	71.3712	32.2266	71.0595	32.2266	71.7591	32.2266	71.5489	32.2266	71.9726	32.2266	71.8669	32.2266	72.0087
33.6914	66.8553	33.6914	66.7842	33.6914	66.8279	33.6914	66.6227	33.6914	66.7037	33.6914	66.3918	33.6914	66.4959	33.6914	66.1328	33.6914	66.234	33.6914	65.9147	33.6914	65.9721	33.6914	65.835	33.6914	65.795	33.6914	65.997	33.6914	65.8096	33.6914	66.4593	33.6914	66.1061	33.6914	67.1957	33.6914	66.7048	33.6914	68.1092	33.6914	67.5397	33.6914	69.0845	33.6914	68.4977	33.6914	70.0269	33.6914	69.4705	33.6914	70.8731	33.6914	70.3788	33.6914	71.5847	33.6914	71.1724	33.6914	72.1398	33.6914	71.822	33.6914	72.5264	33.6914	72.3107	33.6914	72.7381	33.6914	72.6292	33.6914	72.7724
35.1562	67.4505	35.1562	67.3786	35.1562	67.4465	35.1562	67.2412	35.1562	67.3699	35.1562	67.0646	35.1562	67.2377	35.1562	66.8965	35.1562	67.0842	35.1562	66.8086	35.1562	66.9652	35.1562	66.8882	35.1562	66.9567	35.1562	67.2087	35.1562	67.1389	35.1562	67.7911	35.1562	67.5633	35.1562	68.5876	35.1562	68.2233	35.1562	69.5075	35.1562	69.0551	35.1562	70.4559	35.1562	69.9692	35.1562	71.3579	35.1562	70.8818	35.1562	72.1626	35.1562	71.73	35.1562	72.8381	35.1562	72.4715	35.1562	73.3652	35.1562	73.0795	35.1562	73.733	35.1562	73.5377	35.1562	73.9353	35.1562	73.8364	35.1562	73.9698
36.6211	68.8328	36.6211	68.7758	36.6211	68.8345	36.6211	68.671	36.6211	68.7854	36.6211	68.5394	36.6211	68.7023	36.6211	68.4193	36.6211	68.6162	36.6211	68.3665	36.6211	68.573	36.6211	68.4486	36.6211	68.6305	36.6211	68.7249	36.6211	68.845	36.6211	69.2192	36.6211	69.2504	36.6211	69.9045	36.6211	69.8403	36.6211	70.7139	36.6211	70.5687	36.6211	71.5687	36.6211	71.3686	36.6211	72.3991	36.6211	72.173	36.6211	73.1531	36.6211	72.9271	36.6211	73.7958	36.6211	73.591	36.6211	74.3045	36.6211	74.1373	36.6211	74.6659	36.6211	74.548	36.6211	74.8724	36.6211	74.8115	36.6211	74.9208
38.0859	69.9049	38.0859	69.8726	38.0859	69.8867	38.0859	69.7959	38.0859	69.8224	38.0859	69.6932	38.0859	69.7283	38.0859	69.5973	38.0859	69.6335	38.0859	69.5563	38.0859	69.5813	38.0859	69.6289	38.0859	69.626	38.0859	69.8687	38.0859	69.8207	38.0859	70.3022	38.0859	70.198	38.0859	70.9133	38.0859	70.7531	38.0859	71.6486	38.0859	71.4438	38.0859	72.4383	38.0859	72.2069	38.0859	73.2164	38.0859	72.978	38.0859	73.9306	38.0859	73.7035	38.0859	74.5443	38.0859	74.3438	38.0859	75.033	38.0859	74.8717	38.0859	75.3817	38.0859	75.2689	38.0859	75.5816	38.0859	75.5236	38.0859	75.629
39.5508	71.2505	39.5508	71.1891	39.5508	71.2665	39.5508	71.0882	39.5508	71.2402	39.5508	70.9647	39.5508	71.1842	39.5508	70.8481	39.5508	71.1213	39.5508	70.7817	39.5508	71.0849	39.5508	70.8178	39.5508	71.1168	39.5508	71.0061	39.5508	71.2603	39.5508	71.3735	39.5508	71.5469	39.5508	71.9103	39.5508	71.9829	39.5508	72.5719	39.5508	72.5453	39.5508	73.295	39.5508	73.1884	39.5508	74.0169	39.5508	73.8582	39.5508	74.686	39.5508	74.5046	39.5508	75.2644	39.5508	75.0866	39.5508	75.7265	39.5508	75.5742	39.5508	76.0564	39.5508	75.9457	39.5508	76.2447	39.5508	76.1867	39.5508	76.2879
41.0156	71.8945	41.0156	71.7927	41.0156	71.956	41.0156	71.6582	41.0156	71.9788	41.0156	71.5098	41.0156	71.9732	41.0156	71.3792	41.0156	71.9584	41.0156	71.3117	41.0156	71.9628	41.0156	71.3605	41.0156	72.0225	41.0156	71.5723	41.0156	72.1751	41.0156	71.9684	41.0156	72.4505	41.0156	72.532	41.0156	72.8582	41.0156	73.2137	41.0156	73.3825	41.0156	73.949	41.0156	73.9855	41.0156	74.6767	41.0156	74.619	41.0156	75.3472	41.0156	75.2352	41.0156	75.925	41.0156	75.7936	41.0156	76.3859	41.0156	76.2634	41.0156	76.7151	41.0156	76.6221	41.0156	76.9042	41.0156	76.8543	41.0156	76.9502
42.4805	72.1237	42.4805	72.1238	42.4805	72.1073	42.4805	72.1128	42.4805	72.0783	42.4805	72.1058	42.4805	72.0488	42.4805	72.1276	42.4805	72.0381	42.4805	72.211	42.4805	72.0725	42.4805	72.3912	42.4805	72.182	42.4805	72.6952	42.4805	72.3951	42.4805	73.1314	42.4805	72.7305	42.4805	73.684	42.4805	73.1891	42.4805	74.3166	42.4805	73.7514	42.4805	74.9822	42.4805	74.3818	42.4805	75.6335	42.4805	75.0369	42.4805	76.2299	42.4805	75.6743	42.4805	76.7395	42.4805	76.2571	42.4805	77.1392	42.4805	76.7556	42.4805	77.4136	42.4805	77.1476	42.4805	77.5533	42.4805	77.4172	42.4805	77.5542
43.9453	73.7563	43.9453	73.7451	43.9453	73.7503	43.9453	73.7215	43.9453	73.7291	43.9453	73.6979	43.9453	73.7017	43.9453	73.6946	43.9453	73.6838	43.9453	73.7383	43.9453	73.6979	43.9453	73.8589	43.9453	73.7712	43.9453	74.082	43.9453	73.9315	43.9453	74.4211	43.9453	74.1998	43.9453	74.8703	43.9453	74.5818	43.9453	75.4048	43.9453	75.0642	43.9453	75.9863	43.9453	75.6167	43.9453	76.5723	43.9453	76.1995	43.9453	77.1224	43.9453	76.7717	43.9453	77.6035	43.9453	77.2967	43.9453	77.9901	43.9453	77.7447	43.9453	78.2641	43.9453	78.0934	43.9453	78.4145	43.9453	78.327	43.9453	78.4355
45.4102	74.797	45.4102	74.7885	45.4102	74.7932	45.4102	74.7723	45.4102	74.7783	45.4102	74.7595	45.4102	74.7599	45.4102	74.7673	45.4102	74.7513	45.4102	74.8178	45.4102	74.7718	45.4102	74.9355	45.4102	74.845	45.4102	75.142	45.4102	74.9948	45.4102	75.4493	45.4102	75.2396	45.4102	75.8548	45.4102	75.5856	45.4102	76.3392	45.4102	76.0231	45.4102	76.8707	45.4102	76.5272	45.4102	77.4113	45.4102	77.0634	45.4102	77.9237	45.4102	77.5946	45.4102	78.3753	45.4102	78.0859	45.4102	78.7404	45.4102	78.5081	45.4102	79.0004	45.4102	78.8383	45.4102	79.1435	45.4102	79.0603	45.4102	79.1636
46.875	75.5533	46.875	75.5467	46.875	75.5568	46.875	75.5424	46.875	75.5574	46.875	75.5508	46.875	75.5609	46.875	75.587	46.875	75.5785	46.875	75.6695	46.875	75.6261	46.875	75.8174	46.875	75.7234	46.875	76.046	46.875	75.8902	46.875	76.3623	46.875	76.1411	46.875	76.7611	46.875	76.4808	46.875	77.2248	46.875	76.9005	46.875	77.7259	46.875	77.3787	46.875	78.2319	46.875	77.8851	46.875	78.7103	46.875	78.3862	46.875	79.1323	46.875	78.8502	46.875	79.474	46.875	79.2494	46.875	79.7179	46.875	79.5621	46.875	79.8522	46.875	79.7725	46.875	79.8707
48.3398	76.4271	48.3398	76.4345	48.3398	76.4197	48.3398	76.4459	48.3398	76.413	48.3398	76.4697	48.3398	76.4126	48.3398	76.5182	48.3398	76.4285	48.3398	76.6065	48.3398	76.4753	48.3398	76.7504	48.3398	76.5701	48.3398	76.9632	48.3398	76.7302	48.3398	77.2518	48.3398	76.9681	48.3398	77.6134	48.3398	77.2877	48.3398	78.0341	48.3398	77.681	48.3398	78.491	48.3398	78.1288	48.3398	78.9556	48.3398	78.6039	48.3398	79.398	48.3398	79.0753	48.3398	79.7906	48.3398	79.513	48.3398	80.1102	48.3398	79.8907	48.3398	80.3389	48.3398	80.1874	48.3398	80.4649	48.3398	80.3875	48.3398	80.4814
51.2695	78.1153	51.2695	78.127	51.2695	78.1105	51.2695	78.1477	51.2695	78.1139	51.2695	78.1826	51.2695	78.13	51.2695	78.24	51.2695	78.1664	51.2695	78.3304	51.2695	78.2332	51.2695	78.4649	51.2695	78.3416	51.2695	78.6532	51.2695	78.5023	51.2695	78.901	51.2695	78.7231	51.2695	79.2073	51.2695	79.0055	51.2695	79.5629	51.2695	79.3435	51.2695	79.951	51.2695	79.7231	51.2695	80.3494	51.2695	80.1238	51.2695	80.7331	51.2695	80.5218	51.2695	81.0777	51.2695	80.8923	51.2695	81.3619	51.2695	81.2129	51.2695	81.5686	51.2695	81.4644	51.2695	81.6861	51.2695	81.6324	51.2695	81.7077
52.7344	78.8221	52.7344	78.8326	52.7344	78.8177	52.7344	78.8507	52.7344	78.8209	52.7344	78.881	52.7344	78.8361	52.7344	78.9309	52.7344	78.8702	52.7344	79.0097	52.7344	78.9325	52.7344	79.128	52.7344	79.0333	52.7344	79.2956	52.7344	79.1826	52.7344	79.519	52.7344	79.3877	52.7344	79.7985	52.7344	79.6505	52.7344	80.1271	52.7344	79.9658	52.7344	80.4901	52.7344	80.3208	52.7344	80.8666	52.7344	80.6968	52.7344	81.2327	52.7344	81.0713	52.7344	81.5643	52.7344	81.4206	52.7344	81.84	52.7344	81.723	52.7344	82.0425	52.7344	81.9599	52.7344	82.1597	52.7344	82.117	52.7344	82.1849
54.1992	79.4713	54.1992	79.4818	54.1992	79.4709	54.1992	79.5038	54.1992	79.4818	54.1992	79.5414	54.1992	79.5078	54.1992	79.6009	54.1992	79.5547	54.1992	79.6904	54.1992	79.6301	54.1992	79.8182	54.1992	79.7423	54.1992	79.9917	54.1992	79.8989	54.1992	80.2152	54.1992	80.1048	54.1992	80.4878	54.1992	80.3607	54.1992	80.8028	54.1992	80.6616	54.1992	81.1467	54.1992	80.9963	54.1992	81.5013	54.1992	81.3483	54.1992	81.845	54.1992	81.6979	54.1992	82.1563	54.1992	82.0241	54.1992	82.4153	54.1992	82.3069	54.1992	82.6057	54.1992	82.5288	54.1992	82.7161	54.1992	82.6762	54.1992	82.74
55.6641	80.1207	55.6641	80.1294	55.6641	80.1248	55.6641	80.1523	55.6641	80.1423	55.6641	80.1928	55.6641	80.1758	55.6641	80.2561	55.6641	80.2298	55.6641	80.3481	55.6641	80.3101	55.6641	80.4753	55.6641	80.4233	55.6641	80.6432	55.6641	80.5754	55.6641	80.8547	55.6641	80.7704	55.6641	81.1093	55.6641	81.0087	55.6641	81.4009	55.6641	81.2862	55.6641	81.7184	55.6641	81.5935	55.6641	82.0459	55.6641	81.9164	55.6641	82.3643	55.6641	82.2378	55.6641	82.6537	55.6641	82.5385	55.6641	82.8955	55.6641	82.8	55.6641	83.074	55.6641	83.0058	55.6641	83.1781	55.6641	83.1425	55.6641	83.2013
58.5938	81.3313	58.5938	81.3453	58.5938	81.3336	58.5938	81.3765	58.5938	81.3524	58.5938	81.4274	58.5938	81.3894	58.5938	81.5012	58.5938	81.4475	58.5938	81.6017	58.5938	81.5305	58.5938	81.7326	58.5938	81.6426	58.5938	81.8968	58.5938	81.7879	58.5938	82.0956	58.5938	81.9686	58.5938	82.3273	58.5938	82.1847	58.5938	82.5869	58.5938	82.4327	58.5938	82.8652	58.5938	82.7051	58.5938	83.1494	58.5938	82.9906	58.5938	83.4243	58.5938	83.2747	58.5938	83.6735	58.5938	83.5414	58.5938	83.8812	58.5938	83.7743	58.5938	84.0339	58.5938	83.9587	58.5938	84.1215	58.5938	84.0827	58.5938	84.1381
60.0586	81.8538	60.0586	81.8692	60.0586	81.8563	60.0586	81.9032	60.0586	81.8771	60.0586	81.9572	60.0586	81.9179	60.0586	82.0337	60.0586	81.9809	60.0586	82.1355	60.0586	82.0693	60.0586	82.2654	60.0586	82.1862	60.0586	82.4258	60.0586	82.334	60.0586	82.6174	60.0586	82.5142	60.0586	82.8387	60.0586	82.7258	60.0586	83.0852	60.0586	82.9648	60.0586	83.3487	60.0586	83.2242	60.0586	83.6175	60.0586	83.4935	60.0586	83.8777	60.0586	83.7599	60.0586	84.114	60.0586	84.0088	60.0586	84.3114	60.0586	84.2255	60.0586	84.4574	60.0586	84.3964	60.0586	84.5421	60.0586	84.5105	60.0586	84.5602
62.9883	83.0299	62.9883	83.047	62.9883	83.0313	62.9883	83.0826	62.9883	83.0515	62.9883	83.1374	62.9883	83.0912	62.9883	83.2122	62.9883	83.1514	62.9883	83.3082	62.9883	83.2335	62.9883	83.4266	62.9883	83.3389	62.9883	83.5684	62.9883	83.469	62.9883	83.7335	62.9883	83.6243	62.9883	83.9208	62.9883	83.8041	62.9883	84.1269	62.9883	84.0057	62.9883	84.3459	62.9883	84.224	62.9883	84.5695	62.9883	84.4511	62.9883	84.7868	62.9883	84.6766	62.9883	84.9852	62.9883	84.8885	62.9883	85.1521	62.9883	85.074	62.9883	85.2761	62.9883	85.2211	62.9883	85.3482	62.9883	85.3198	62.9883	85.3632
64.4531	83.5429	64.4531	83.5607	64.4531	83.5443	64.4531	83.5976	64.4531	83.5653	64.4531	83.6539	64.4531	83.6063	64.4531	83.73	64.4531	83.6682	64.4531	83.8264	64.4531	83.7516	64.4531	83.9437	64.4531	83.8573	64.4531	84.0821	64.4531	83.9857	64.4531	84.2411	64.4531	84.1365	64.4531	84.4192	64.4531	84.3085	64.4531	84.613	64.4531	84.4989	64.4531	84.8174	64.4531	84.703	64.4531	85.0248	64.4531	84.9138	64.4531	85.2255	64.4531	85.1224	64.4531	85.4085	64.4531	85.318	64.4531	85.5624	64.4531	85.4893	64.4531	85.6767	64.4531	85.6253	64.4531	85.7432	64.4531	85.7166	64.4531	85.7569
67.3828	84.4788	67.3828	84.4923	67.3828	84.4859	67.3828	84.5261	67.3828	84.5134	67.3828	84.58	67.3828	84.5615	67.3828	84.6538	67.3828	84.6298	67.3828	84.7472	67.3828	84.7181	67.3828	84.8599	67.3828	84.8257	67.3828	84.9911	67.3828	84.9519	67.3828	85.1398	67.3828	85.0955	67.3828	85.3039	67.3828	85.2546	67.3828	85.4804	67.3828	85.4264	67.3828	85.6647	67.3828	85.6069	67.3828	85.8503	67.3828	85.7905	67.3828	86.0291	67.3828	85.9703	67.3828	86.1919	67.3828	86.1377	67.3828	86.329	67.3828	86.2835	67.3828	86.4314	67.3828	86.3985	67.3828	86.4922	67.3828	86.4749	67.3828	86.507
68.8477	84.8557	68.8477	84.8676	68.8477	84.8653	68.8477	84.9009	68.8477	84.8964	68.8477	84.9554	68.8477	84.9484	68.8477	85.0304	68.8477	85.0207	68.8477	85.125	68.8477	85.1122	68.8477	85.2384	68.8477	85.222	68.8477	85.3691	68.8477	85.3487	68.8477	85.5155	68.8477	85.4907	68.8477	85.6754	68.8477	85.6459	68.8477	85.8457	68.8477	85.8116	68.8477	86.0222	68.8477	85.9838	68.8477	86.1989	68.8477	86.1577	68.8477	86.3688	68.8477	86.3267	68.8477	86.5232	68.8477	86.4833	68.8477	86.6533	68.8477	86.619	68.8477	86.7509	68.8477	86.7257	68.8477	86.8094	68.8477	86.796	68.8477	86.8247
71.7773	85.7794	71.7773	85.7942	71.7773	85.7859	71.7773	85.8298	71.7773	85.8134	71.7773	85.8857	71.7773	85.8612	71.7773	85.9603	71.7773	85.9279	71.7773	86.0521	71.7773	86.0122	71.7773	86.1591	71.7773	86.1121	71.7773	86.2791	71.7773	86.2258	71.7773	86.4096	71.7773	86.3509	71.7773	86.5482	71.7773	86.485	71.7773	86.6919	71.7773	86.6255	71.7773	86.8373	71.7773	86.7692	71.7773	86.9803	71.7773	86.9126	71.7773	87.1157	71.7773	87.0512	71.7773	87.2376	71.7773	87.1795	71.7773	87.3392	71.7773	87.2914	71.7773	87.4145	71.7773	87.3803	71.7773	87.4581	71.7773	87.4402	71.7773	87.4669
74.707	86.6055	74.707	86.614	74.707	86.6164	74.707	86.6422	74.707	86.6456	74.707	86.6895	74.707	86.6921	74.707	86.7548	74.707	86.7542	74.707	86.8362	74.707	86.8307	74.707	86.9313	74.707	86.9199	74.707	87.0377	74.707	87.0198	74.707	87.1527	74.707	87.1282	74.707	87.2736	74.707	87.2426	74.707	87.3977	74.707	87.3603	74.707	87.5217	74.707	87.4788	74.707	87.6421	74.707	87.5954	74.707	87.7549	74.707	87.7071	74.707	87.8555	74.707	87.8103	74.707	87.9389	74.707	87.9002	74.707	88.0003	74.707	87.972	74.707	88.0356	74.707	88.0207	74.707	88.0425
77.6367	87.287	77.6367	87.3025	77.6367	87.2913	77.6367	87.3374	77.6367	87.3148	77.6367	87.3905	77.6367	87.3566	77.6367	87.4597	77.6367	87.4148	77.6367	87.5425	77.6367	87.4876	77.6367	87.6356	77.6367	87.5725	77.6367	87.7359	77.6367	87.6669	77.6367	87.8402	77.6367	87.7679	77.6367	87.9457	77.6367	87.8726	77.6367	88.05	77.6367	87.9782	77.6367	88.1508	77.6367	88.0826	77.6367	88.2462	77.6367	88.1834	77.6367	88.3339	77.6367	88.2782	77.6367	88.4112	77.6367	88.3643	77.6367	88.4751	77.6367	88.4383	77.6367	88.522	77.6367	88.4967	77.6367	88.549	77.6367	88.5361	77.6367	88.5539
79.1016	87.5827	79.1016	87.6019	79.1016	87.583	79.1016	87.6399	79.1016	87.6026	79.1016	87.695	79.1016	87.6408	79.1016	87.7652	79.1016	87.6961	79.1016	87.8477	79.1016	87.7663	79.1016	87.9394	79.1016	87.849	79.1016	88.037	79.1016	87.9411	79.1016	88.1374	79.1016	88.0395	79.1016	88.2377	79.1016	88.1412	79.1016	88.3355	79.1016	88.2431	79.1016	88.4286	79.1016	88.3429	79.1016	88.5152	79.1016	88.4384	79.1016	88.5936	79.1016	88.5274	79.1016	88.6618	79.1016	88.6073	79.1016	88.7174	79.1016	88.6757	79.1016	88.7577	79.1016	88.7294	79.1016	88.7802	79.1016	88.7659	79.1016	88.7831
82.0312	88.105	82.0312	88.1195	82.0312	88.1093	82.0312	88.1522	82.0312	88.1323	82.0312	88.2017	82.0312	88.173	82.0312	88.2661	82.0312	88.2296	82.0312	88.3428	82.0312	88.2999	82.0312	88.4289	82.0312	88.381	82.0312	88.521	82.0312	88.4698	82.0312	88.6159	82.0312	88.5628	82.0312	88.7104	82.0312	88.657	82.0312	88.8016	82.0312	88.7494	82.0312	88.8874	82.0312	88.8377	82.0312	88.9657	82.0312	88.9199	82.0312	89.0352	82.0312	88.9944	82.0312	89.0945	82.0312	89.0599	82.0312	89.142	82.0312	89.1146	82.0312	89.176	82.0312	89.1571	82.0312	89.1952	82.0312	89.1855	82.0312	89.1984
84.9609	88.5841	84.9609	88.6065	84.9609	88.5803	84.9609	88.6467	84.9609	88.5953	84.9609	88.703	84.9609	88.6283	84.9609	88.7731	84.9609	88.6776	84.9609	88.854	84.9609	88.741	84.9609	88.9423	84.9609	88.8156	84.9609	89.0341	84.9609	88.8978	84.9609	89.1257	84.9609	88.9841	84.9609	89.2135	84.9609	89.0709	84.9609	89.2943	84.9609	89.1551	84.9609	89.366	84.9609	89.2344	84.9609	89.4273	84.9609	89.3071	84.9609	89.4776	84.9609	89.3722	84.9609	89.5169	84.9609	89.429	84.9609	89.5452	84.9609	89.4772	84.9609	89.5622	84.9609	89.5159	84.9609	89.5678	84.9609	89.5443	84.9609	89.5618
87.8906	88.9604	87.8906	88.9836	87.8906	88.9554	87.8906	89.0238	87.8906	88.9688	87.8906	89.0792	87.8906	89	87.8906	89.1473	87.8906	89.0476	87.8906	89.225	87.8906	89.109	87.8906	89.3087	87.8906	89.1811	87.8906	89.3944	87.8906	89.2599	87.8906	89.478	87.8906	89.3413	87.8906	89.5555	87.8906	89.4212	87.8906	89.6237	87.8906	89.4959	87.8906	89.6804	87.8906	89.5628	87.8906	89.7249	87.8906	89.6203	87.8906	89.7575	87.8906	89.6681	87.8906	89.7794	87.8906	89.7066	87.8906	89.7922	87.8906	89.7371	87.8906	89.7975	87.8906	89.7605	87.8906	89.7965	87.8906	89.778	87.8906	89.7899
90.8203	89.2808	90.8203	89.2986	90.8203	89.2771	90.8203	89.3299	90.8203	89.2878	90.8203	89.3731	90.8203	89.312	90.8203	89.4261	90.8203	89.3486	90.8203	89.486	90.8203	89.3952	90.8203	89.5493	90.8203	89.4491	90.8203	89.6123	90.8203	89.5069	90.8203	89.671	90.8203	89.5649	90.8203	89.7222	90.8203	89.6195	90.8203	89.7632	90.8203	89.6678	90.8203	89.7928	90.8203	89.7076	90.8203	89.8111	90.8203	89.7382	90.8203	89.8198	90.8203	89.76	90.8203	89.8212	90.8203	89.7745	90.8203	89.818	90.8203	89.7839	90.8203	89.8126	90.8203	89.7903	90.8203	89.8065	90.8203	89.7955	90.8203	89.8008
95.2148	89.4617	95.2148	89.4741	95.2148	89.464	95.2148	89.5008	95.2148	89.4804	95.2148	89.5408	95.2148	89.5102	95.2148	89.5924	95.2148	89.5517	95.2148	89.653	95.2148	89.6027	95.2148	89.719	95.2148	89.6603	95.2148	89.7864	95.2148	89.721	95.2148	89.8507	95.2148	89.7811	95.2148	89.9076	95.2148	89.8366	95.2148	89.9537	95.2148	89.8843	95.2148	89.987	95.2148	89.9218	95.2148	90.0071	95.2148	89.9484	95.2148	90.0152	95.2148	89.9647	95.2148	90.014	95.2148	89.9727	95.2148	90.0068	95.2148	89.9754	95.2148	89.9972	95.2148	89.976	95.2148	89.988	95.2148	89.9773	95.2148	89.9811
98.1445	89.5553	98.1445	89.5708	98.1445	89.5528	98.1445	89.5989	98.1445	89.5631	98.1445	89.6387	98.1445	89.5856	98.1445	89.6883	98.1445	89.6191	98.1445	89.7452	98.1445	89.6618	98.1445	89.806	98.1445	89.7113	98.1445	89.8667	98.1445	89.7642	98.1445	89.9228	98.1445	89.8167	98.1445	89.9701	98.1445	89.8647	98.1445	90.0053	98.1445	89.9047	98.1445	90.0264	98.1445	89.9341	98.1445	90.0332	98.1445	89.952	98.1445	90.0277	98.1445	89.9594	98.1445	90.0133	98.1445	89.9588	98.1445	89.9944	98.1445	89.954	98.1445	89.9753	98.1445	89.9487	98.1445	89.9596	98.1445	89.9465	98.1445	89.9498
101.074	89.495	101.074	89.5111	101.074	89.4912	101.074	89.539	101.074	89.4996	101.074	89.5778	101.074	89.52	101.074	89.6256	101.074	89.5514	101.074	89.6799	101.074	89.5926	101.074	89.7372	101.074	89.6413	101.074	89.7935	101.074	89.6942	101.074	89.8445	101.074	89.7472	101.074	89.8862	101.074	89.7958	101.074	89.9154	101.074	89.8357	101.074	89.9305	101.074	89.8641	101.074	89.9318	101.074	89.8795	101.074	89.9215	101.074	89.8829	101.074	89.9035	101.074	89.8769	101.074	89.8825	101.074	89.8656	101.074	89.8631	101.074	89.8537	101.074	89.8493	101.074	89.8452	101.074	89.8432
105.469	89.5238	105.469	89.5363	105.469	89.5201	105.469	89.5565	105.469	89.5262	105.469	89.583	105.469	89.5429	105.469	89.6149	105.469	89.5704	105.469	89.6504	105.469	89.6076	105.469	89.6877	105.469	89.6521	105.469	89.7238	105.469	89.7005	105.469	89.7556	105.469	89.7478	105.469	89.7795	105.469	89.7888	105.469	89.7928	105.469	89.8187	105.469	89.7936	105.469	89.8337	105.469	89.7822	105.469	89.8323	105.469	89.7608	105.469	89.8155	105.469	89.7337	105.469	89.787	105.469	89.7063	105.469	89.7524	105.469	89.6845	105.469	89.7183	105.469	89.6731	105.469	89.6909	105.469	89.6751
108.398	89.6214	108.398	89.6239	108.398	89.6234	108.398	89.6301	108.398	89.6308	108.398	89.6399	108.398	89.6442	108.398	89.6531	108.398	89.6636	108.398	89.6691	108.398	89.6878	108.398	89.6868	108.398	89.7144	108.398	89.7039	108.398	89.7401	108.398	89.7173	108.398	89.7614	108.398	89.7239	108.398	89.7745	108.398	89.7208	108.398	89.7761	108.398	89.7063	108.398	89.7642	108.398	89.6807	108.398	89.738	108.398	89.6462	108.398	89.6994	108.398	89.607	108.398	89.6527	108.398	89.5686	108.398	89.6042	108.398	89.537	108.398	89.5611	108.398	89.5177	108.398	89.5298	108.398	89.5148
112.793	89.7973	112.793	89.7975	112.793	89.8003	112.793	89.8014	112.793	89.8062	112.793	89.809	112.793	89.8142	112.793	89.8197	112.793	89.8235	112.793	89.8317	112.793	89.8325	112.793	89.8419	112.793	89.8388	112.793	89.8457	112.793	89.8392	112.793	89.8381	112.793	89.8298	112.793	89.8141	112.793	89.8066	112.793	89.7698	112.793	89.766	112.793	89.7039	112.793	89.706	112.793	89.6183	112.793	89.627	112.793	89.5185	112.793	89.5329	112.793	89.4134	112.793	89.4311	112.793	89.3145	112.793	89.3323	112.793	89.234	112.793	89.2483	112.793	89.1826	112.793	89.1905	112.793	89.1674
117.188	89.6203	117.188	89.6173	117.188	89.6259	117.188	89.6182	117.188	89.6335	117.188	89.6241	117.188	89.6425	117.188	89.6355	117.188	89.6529	117.188	89.6517	117.188	89.6639	117.188	89.6708	117.188	89.6745	117.188	89.689	117.188	89.6824	117.188	89.7012	117.188	89.6843	117.188	89.7021	117.188	89.6762	117.188	89.687	117.188	89.6546	117.188	89.6529	117.188	89.6169	117.188	89.5995	117.188	89.5631	117.188	89.5301	117.188	89.4962	117.188	89.4513	117.188	89.4223	117.188	89.3729	117.188	89.3503	117.188	89.3054	117.188	89.2901	117.188	89.2587	117.188	89.251	117.188	89.2398
120.117	89.5613	120.117	89.5526	120.117	89.5703	120.117	89.5453	120.117	89.579	120.117	89.5408	120.117	89.587	120.117	89.5401	120.117	89.5946	120.117	89.5434	120.117	89.6015	120.117	89.5491	120.117	89.6067	120.117	89.5543	120.117	89.6084	120.117	89.5548	120.117	89.6037	120.117	89.5458	120.117	89.5891	120.117	89.523	120.117	89.5613	120.117	89.4839	120.117	89.5181	120.117	89.4283	120.117	89.4597	120.117	89.3596	120.117	89.3888	120.117	89.2844	120.117	89.3111	120.117	89.2119	120.117	89.2348	120.117	89.1522	120.117	89.1693	120.117	89.1143	120.117	89.1235	120.117	89.1041
124.512	89.4218	124.512	89.4142	124.512	89.4263	124.512	89.4045	124.512	89.4277	124.512	89.3945	124.512	89.4272	124.512	89.3865	124.512	89.4263	124.512	89.3816	124.512	89.426	124.512	89.3801	124.512	89.4267	124.512	89.38	124.512	89.427	124.512	89.3781	124.512	89.4244	124.512	89.37	124.512	89.4152	124.512	89.3513	124.512	89.3958	124.512	89.3191	124.512	89.3635	124.512	89.2728	124.512	89.3172	124.512	89.215	124.512	89.2587	124.512	89.1513	124.512	89.1926	124.512	89.0901	124.512	89.1258	124.512	89.0402	124.512	89.0668	124.512	89.0098	124.512	89.0241	124.512	89.0041
128.906	89.2482	128.906	89.2447	128.906	89.2469	128.906	89.2371	128.906	89.2412	128.906	89.2272	128.906	89.2329	128.906	89.2172	128.906	89.224	128.906	89.2088	128.906	89.2162	128.906	89.2024	128.906	89.21	128.906	89.1964	128.906	89.2043	128.906	89.1877	128.906	89.1967	128.906	89.1718	128.906	89.1833	128.906	89.1448	128.906	89.1603	128.906	89.1036	128.906	89.1246	128.906	89.048	128.906	89.0752	128.906	88.981	128.906	89.0134	128.906	88.909	128.906	88.9439	128.906	88.8407	128.906	88.8737	128.906	88.7857	128.906	88.8117	128.906	88.7523	128.906	88.7666	128.906	88.7456
133.301	89.126	133.301	89.1343	133.301	89.1089	133.301	89.134	133.301	89.0844	133.301	89.1269	133.301	89.0555	133.301	89.1159	133.301	89.0261	133.301	89.1035	133.301	88.9997	133.301	89.0912	133.301	88.9786	133.301	89.0788	133.301	88.9629	133.301	89.0643	133.301	88.9505	133.301	89.0439	133.301	88.9375	133.301	89.0137	133.301	88.9192	133.301	88.9704	133.301	88.8915	133.301	88.9131	133.301	88.8522	133.301	88.8441	133.301	88.8018	133.301	88.7693	133.301	88.7438	133.301	88.6972	133.301	88.6849	133.301	88.6372	133.301	88.6332	133.301	88.5979	133.301	88.5973	133.301	88.5843
139.16	88.8985	139.16	88.9172	139.16	88.8662	139.16	88.9222	139.16	88.8227	139.16	88.9154	139.16	88.7721	139.16	88.8997	139.16	88.7195	139.16	88.8789	139.16	88.6703	139.16	88.8559	139.16	88.6286	139.16	88.8323	139.16	88.5962	139.16	88.8076	139.16	88.5718	139.16	88.779	139.16	88.5519	139.16	88.7428	139.16	88.5316	139.16	88.6952	139.16	88.5061	139.16	88.6344	139.16	88.4722	139.16	88.5618	139.16	88.4295	139.16	88.4824	139.16	88.3809	139.16	88.4042	139.16	88.3323	139.16	88.3367	139.16	88.2916	139.16	88.2884	139.16	88.2669	139.16	88.2647
143.555	88.7143	143.555	88.7234	143.555	88.6894	143.555	88.7172	143.555	88.6504	143.555	88.6982	143.555	88.6013	143.555	88.6703	143.555	88.5475	143.555	88.6377	143.555	88.495	143.555	88.6039	143.555	88.4484	143.555	88.5707	143.555	88.4105	143.555	88.5381	143.555	88.3807	143.555	88.5035	143.555	88.3561	143.555	88.4636	143.555	88.332	143.555	88.4151	143.555	88.3036	143.555	88.3564	143.555	88.2675	143.555	88.289	143.555	88.223	143.555	88.2174	143.555	88.1725	143.555	88.1489	143.555	88.1214	143.555	88.0918	143.555	88.077	143.555	88.0533	143.555	88.0472	143.555	88.0382
147.949	88.6207	147.949	88.614	147.949	88.6059	147.949	88.5873	147.949	88.5708	147.949	88.5446	147.949	88.5201	147.949	88.4916	147.949	88.4601	147.949	88.4342	147.949	88.3981	147.949	88.3773	147.949	88.3404	147.949	88.3236	147.949	88.291	147.949	88.2736	147.949	88.251	147.949	88.2255	147.949	88.2179	147.949	88.1763	147.949	88.1875	147.949	88.1232	147.949	88.1545	147.949	88.0648	147.949	88.1145	147.949	88.0027	147.949	88.0656	147.949	87.9408	147.949	88.009	147.949	87.8855	147.949	87.9493	147.949	87.8441	147.949	87.8935	147.949	87.8226	147.949	87.8496	147.949	87.8245
153.809	88.4659	153.809	88.4476	153.809	88.4565	153.809	88.4043	153.809	88.4202	153.809	88.3421	153.809	88.3617	153.809	88.2687	153.809	88.2881	153.809	88.1919	153.809	88.208	153.809	88.118	153.809	88.1292	153.809	88.0506	153.809	88.0575	153.809	87.9898	153.809	87.9953	153.809	87.933	153.809	87.9414	153.809	87.8757	153.809	87.8918	153.809	87.8139	153.809	87.8409	153.809	87.7456	153.809	87.784	153.809	87.6715	153.809	87.7189	153.809	87.5964	153.809	87.6472	153.809	87.5275	153.809	87.5746	153.809	87.4732	153.809	87.5095	153.809	87.4415	153.809	87.4612	153.809	87.4373
159.668	88.3871	159.668	88.3674	159.668	88.3729	159.668	88.3174	159.668	88.3258	159.668	88.244	159.668	88.2511	159.668	88.1566	159.668	88.1575	159.668	88.0645	159.668	88.0554	159.668	87.9753	159.668	87.9546	159.668	87.8932	159.668	87.8622	159.668	87.8188	159.668	87.7815	159.668	87.7496	159.668	87.7114	159.668	87.6812	159.668	87.6481	159.668	87.6093	159.668	87.5865	159.668	87.5317	159.668	87.5223	159.668	87.4495	159.668	87.4538	159.668	87.3673	159.668	87.3826	159.668	87.2925	159.668	87.3133	159.668	87.2338	159.668	87.253	159.668	87.1983	159.668	87.2098	159.668	87.1902
165.527	88.5639	165.527	88.534	165.527	88.5567	165.527	88.4702	165.527	88.514	165.527	88.3799	165.527	88.4417	165.527	88.2734	165.527	88.3491	165.527	88.1624	165.527	88.2468	165.527	88.0572	165.527	88.1451	165.527	87.9652	165.527	88.0517	165.527	87.8896	165.527	87.9705	165.527	87.8294	165.527	87.9013	165.527	87.7809	165.527	87.841	165.527	87.7385	165.527	87.7855	165.527	87.6976	165.527	87.7312	165.527	87.6554	165.527	87.6766	165.527	87.6118	165.527	87.623	165.527	87.5696	165.527	87.574	165.527	87.5336	165.527	87.5344	165.527	87.509	165.527	87.5087	165.527	87.5
171.387	88.394	171.387	88.3501	171.387	88.3943	171.387	88.2663	171.387	88.3523	171.387	88.1516	171.387	88.2744	171.387	88.0182	171.387	88.1712	171.387	87.8801	171.387	88.0553	171.387	87.7505	171.387	87.9391	171.387	87.6389	171.387	87.8326	171.387	87.5502	171.387	87.7409	171.387	87.4842	171.387	87.6644	171.387	87.4365	171.387	87.5997	171.387	87.4008	171.387	87.542	171.387	87.3709	171.387	87.4868	171.387	87.3426	171.387	87.4321	171.387	87.3142	171.387	87.3789	171.387	87.2871	171.387	87.3302	171.387	87.2647	171.387	87.2902	171.387	87.2509	171.387	87.2625	171.387	87.2494
177.246	88.2918	177.246	88.2657	177.246	88.2676	177.246	88.1916	177.246	88.1965	177.246	88.0772	177.246	88.0867	177.246	87.934	177.246	87.9502	177.246	87.776	177.246	87.8008	177.246	87.6168	177.246	87.6522	177.246	87.4678	177.246	87.5154	177.246	87.3368	177.246	87.3975	177.246	87.2274	177.246	87.3007	177.246	87.1396	177.246	87.223	177.246	87.0707	177.246	87.1597	177.246	87.0167	177.246	87.1053	177.246	86.9739	177.246	87.0557	177.246	86.9396	177.246	87.0093	177.246	86.9129	177.246	86.9669	177.246	86.8946	177.246	86.9309	177.246	86.8861	177.246	86.9043	177.246	86.8891
183.105	88.0528	183.105	88.0403	183.105	88.0106	183.105	87.977	183.105	87.9162	183.105	87.872	183.105	87.7782	183.105	87.738	183.105	87.6097	183.105	87.5885	183.105	87.4264	183.105	87.4356	183.105	87.2441	183.105	87.2884	183.105	87.0763	183.105	87.1524	183.105	86.9329	183.105	87.0302	183.105	86.8188	183.105	86.9224	183.105	86.7339	183.105	86.8285	183.105	86.6738	183.105	86.7475	183.105	86.6317	183.105	86.6791	183.105	86.6009	183.105	86.6233	183.105	86.5762	183.105	86.5801	183.105	86.5554	183.105	86.5496	183.105	86.5386	183.105	86.5314	183.105	86.5276	183.105	86.5245
188.965	87.9394	188.965	87.948	188.965	87.8726	188.965	87.9023	188.965	87.7503	188.965	87.8112	188.965	87.5822	188.965	87.6868	188.965	87.3842	188.965	87.5422	188.965	87.1757	188.965	87.3901	188.965	86.9763	188.965	87.2406	188.965	86.8011	188.965	87.1005	188.965	86.6582	188.965	86.9734	188.965	86.5489	188.965	86.8601	188.965	86.47	188.965	86.7599	188.965	86.417	188.965	86.6721	188.965	86.3857	188.965	86.5971	188.965	86.3725	188.965	86.536	188.965	86.3733	188.965	86.4901	188.965	86.3832	188.965	86.4584	188.965	86.397	188.965	86.4379	188.965	86.4107	188.965	86.4236
196.289	88.0267	196.289	87.9683	196.289	88.0152	196.289	87.8442	196.289	87.9358	196.289	87.6653	196.289	87.7963	196.289	87.4492	196.289	87.61	196.289	87.2183	196.289	87.395	196.289	86.9957	196.289	87.1723	196.289	86.8009	196.289	86.9614	196.289	86.6456	196.289	86.7768	196.289	86.5322	196.289	86.6245	196.289	86.4554	196.289	86.5028	196.289	86.4063	196.289	86.4058	196.289	86.3749	196.289	86.3279	196.289	86.3527	196.289	86.2667	196.289	86.3334	196.289	86.2234	196.289	86.3126	196.289	86.1999	196.289	86.2884	196.289	86.1964	196.289	86.2611	196.289	86.2094	196.289	86.2331
203.613	87.9921	203.613	87.9317	203.613	87.9653	203.613	87.7912	203.613	87.8538	203.613	87.587	203.613	87.6688	203.613	87.3419	203.613	87.4282	203.613	87.0814	203.613	87.1535	203.613	86.8286	203.613	86.8681	203.613	86.601	203.613	86.5949	203.613	86.4085	203.613	86.3547	203.613	86.2536	203.613	86.1631	203.613	86.1341	203.613	86.0276	203.613	86.0464	203.613	85.946	203.613	85.9868	203.613	85.9078	203.613	85.9517	203.613	85.8984	203.613	85.9364	203.613	85.904	203.613	85.9343	203.613	85.915	203.613	85.9381	203.613	85.9263	203.613	85.9415	203.613	85.9354	203.613	85.9408
210.938	87.9809	210.938	87.9119	210.938	87.9651	210.938	87.7652	210.938	87.8656	210.938	87.5549	210.938	87.6922	210.938	87.2997	210.938	87.462	210.938	87.0208	210.938	87.1976	210.938	86.7388	210.938	86.923	210.938	86.4718	210.938	86.6604	210.938	86.2341	210.938	86.4262	210.938	86.0347	210.938	86.2299	210.938	85.8778	210.938	86.0742	210.938	85.7632	210.938	85.9575	210.938	85.6874	210.938	85.8753	210.938	85.6454	210.938	85.8221	210.938	85.6319	210.938	85.7909	210.938	85.641	210.938	85.7739	210.938	85.6655	210.938	85.7622	210.938	85.6966	210.938	85.7478	210.938	85.7258
218.262	87.9022	218.262	87.841	218.262	87.8696	218.262	87.6918	218.262	87.7485	218.262	87.4707	218.262	87.553	218.262	87.2029	218.262	87.3034	218.262	86.9176	218.262	87.0231	218.262	86.6422	218.262	86.7353	218.262	86.3964	218.262	86.4608	218.262	86.19	218.262	86.2164	218.262	86.024	218.262	86.0138	218.262	85.895	218.262	85.8588	218.262	85.7995	218.262	85.751	218.262	85.735	218.262	85.6846	218.262	85.6987	218.262	85.6507	218.262	85.6854	218.262	85.6397	218.262	85.6862	218.262	85.6436	218.262	85.691	218.262	85.6562	218.262	85.6919	218.262	85.6718	218.262	85.6851
225.586	87.7513	225.586	87.7237	225.586	87.6805	225.586	87.6011	225.586	87.5168	225.586	87.3959	225.586	87.2738	225.586	87.1296	225.586	86.9732	225.586	86.8308	225.586	86.6424	225.586	86.5313	225.586	86.3119	225.586	86.2594	225.586	86.0103	225.586	86.0345	225.586	85.7599	225.586	85.8648	225.586	85.5746	225.586	85.7497	225.586	85.4597	225.586	85.684	225.586	85.4137	225.586	85.6612	225.586	85.4294	225.586	85.6749	225.586	85.4939	225.586	85.7169	225.586	85.5891	225.586	85.7751	225.586	85.6942	225.586	85.8334	225.586	85.7885	225.586	85.8745	225.586	85.8552	225.586	85.8843
232.91	88.0064	232.91	87.9478	232.91	87.9563	232.91	87.7844	232.91	87.8008	232.91	87.5285	232.91	87.5505	232.91	87.2025	232.91	87.2238	232.91	86.8382	232.91	86.8469	232.91	86.4732	232.91	86.452	232.91	86.1427	232.91	86.0725	232.91	85.8711	232.91	85.7383	232.91	85.6676	232.91	85.4713	232.91	85.5286	232.91	85.2837	232.91	85.4457	232.91	85.1778	232.91	85.4111	232.91	85.1476	232.91	85.4184	232.91	85.18	232.91	85.4586	232.91	85.2568	232.91	85.5159	232.91	85.3568	232.91	85.5696	232.91	85.4582	232.91	85.599	232.91	85.5412	232.91	85.5906
241.699	87.973	241.699	87.9145	241.699	87.9133	241.699	87.7406	241.699	87.7413	241.699	87.4629	241.699	87.4715	241.699	87.1022	241.699	87.1257	241.699	86.6877	241.699	86.7314	241.699	86.2558	241.699	86.3185	241.699	85.8462	241.699	85.9162	241.699	85.4944	241.699	85.5493	241.699	85.2239	241.699	85.2377	241.699	85.042	241.699	84.9962	241.699	84.9414	241.699	84.8354	241.699	84.9072	241.699	84.7601	241.699	84.9236	241.699	84.7659	241.699	84.9758	241.699	84.8361	241.699	85.0475	241.699	84.9427	241.699	85.119	241.699	85.0527	241.699	85.1684	241.699	85.1372	241.699	85.1774
250.488	87.7885	250.488	87.699	250.488	87.7487	250.488	87.4843	250.488	87.5847	250.488	87.1583	250.488	87.3108	250.488	86.7448	250.488	86.9497	250.488	86.2769	250.488	86.5322	250.488	85.7952	250.488	86.0946	250.488	85.3422	250.488	85.6748	250.488	84.9558	250.488	85.3053	250.488	84.6617	250.488	85.007	250.488	84.4686	250.488	84.7865	250.488	84.3705	250.488	84.6395	250.488	84.3508	250.488	84.5575	250.488	84.3887	250.488	84.5318	250.488	84.4634	250.488	84.5525	250.488	84.5543	250.488	84.6047	250.488	84.6411	250.488	84.667	250.488	84.7045	250.488	84.7153	250.488	84.7306
259.277	88.4833	259.277	88.3878	259.277	88.43	259.277	88.1521	259.277	88.2311	259.277	87.7939	259.277	87.9027	259.277	87.3369	259.277	87.472	259.277	86.8102	259.277	86.9734	259.277	86.249	259.277	86.4436	259.277	85.6948	259.277	85.9181	259.277	85.1938	259.277	85.4289	259.277	84.7879	259.277	85.0041	259.277	84.5033	259.277	84.6664	259.277	84.3416	259.277	84.4324	259.277	84.2826	259.277	84.3095	259.277	84.2967	259.277	84.2913	259.277	84.3568	259.277	84.3545	259.277	84.4416	259.277	84.4601	259.277	84.5322	259.277	84.5646	259.277	84.6077	259.277	84.6325	259.277	84.6463
268.066	87.9209	268.066	87.8348	268.066	87.8685	268.066	87.6247	268.066	87.6747	268.066	87.3137	268.066	87.3511	268.066	86.9287	268.066	86.9226	268.066	86.4968	268.066	86.4252	268.066	86.0445	268.066	85.9019	268.066	85.5985	268.066	85.3977	268.066	85.1877	268.066	84.9532	268.066	84.8437	268.066	84.5977	268.066	84.5973	268.066	84.3438	268.066	84.4691	268.066	84.1887	268.066	84.4582	268.066	84.122	268.066	84.5378	268.066	84.1353	268.066	84.6636	268.066	84.2232	268.066	84.7893	268.066	84.3728	268.066	84.877	268.066	84.5544	268.066	84.9011	268.066	84.7262	268.066	84.8495
276.855	88.0197	276.855	87.8603	276.855	88.0343	276.855	87.5756	276.855	87.8964	276.855	87.1926	276.855	87.613	276.855	86.7409	276.855	87.205	276.855	86.2487	276.855	86.7046	276.855	85.7413	276.855	86.1498	276.855	85.2423	276.855	85.5798	276.855	84.7761	276.855	85.032	276.855	84.3692	276.855	84.5434	276.855	84.0506	276.855	84.15	276.855	83.848	276.855	83.8809	276.855	83.7789	276.855	83.7477	276.855	83.8388	276.855	83.7394	276.855	83.9926	276.855	83.8281	276.855	84.1818	276.855	83.9796	276.855	84.343	276.855	84.1561	276.855	84.4282	276.855	84.3157	276.855	84.4165
287.109	88.2837	287.109	88.2194	287.109	88.1953	287.109	88.008	287.109	87.9604	287.109	87.6687	287.109	87.5953	287.109	87.2339	287.109	87.126	287.109	86.7429	287.109	86.5874	287.109	86.2341	287.109	86.0205	287.109	85.7381	287.109	85.4658	287.109	85.2773	287.109	84.9566	287.109	84.8684	287.109	84.5161	287.109	84.5265	287.109	84.1615	287.109	84.2665	287.109	83.908	287.109	84.1028	287.109	83.7693	287.109	84.042	287.109	83.7505	287.109	84.0745	287.109	83.8383	287.109	84.1704	287.109	83.9961	287.109	84.2838	287.109	84.1714	287.109	84.3663	287.109	84.3119	287.109	84.3807
297.363	88.4121	297.363	88.282	297.363	88.3471	297.363	87.9706	297.363	88.0946	297.363	87.5118	297.363	87.6811	297.363	86.9564	297.363	87.1476	297.363	86.3629	297.363	86.5429	297.363	85.786	297.363	85.9173	297.363	85.2652	297.363	85.3175	297.363	84.8212	297.363	84.7852	297.363	84.4613	297.363	84.3557	297.363	84.1902	297.363	84.0535	297.363	84.0178	297.363	83.8867	297.363	83.957	297.363	83.8439	297.363	84.0116	297.363	83.8996	297.363	84.161	297.363	84.0253	297.363	84.356	297.363	84.1947	297.363	84.5329	297.363	84.379	297.363	84.6359	297.363	84.5406	297.363	84.6368
307.617	88.7688	307.617	88.6464	307.617	88.7157	307.617	88.35	307.617	88.4915	307.617	87.8898	307.617	88.1066	307.617	87.2908	307.617	87.5825	307.617	86.5974	307.617	86.9567	307.617	85.8733	307.617	86.2835	307.617	85.1924	307.617	85.6252	307.617	84.6205	307.617	85.035	307.617	84.1944	307.617	84.543	307.617	83.9116	307.617	84.1593	307.617	83.7434	307.617	83.8912	307.617	83.66	307.617	83.7507	307.617	83.6501	307.617	83.7408	307.617	83.7151	307.617	83.8356	307.617	83.8457	307.617	83.9816	307.617	84.0059	307.617	84.1207	307.617	84.1441	307.617	84.2079	307.617	84.2176
319.336	88.1199	319.336	88.0285	319.336	88.0254	319.336	87.7481	319.336	87.7582	319.336	87.2882	319.336	87.3395	319.336	86.6766	319.336	86.7996	319.336	85.9615	319.336	86.1785	319.336	85.2106	319.336	85.5252	319.336	84.5032	319.336	84.8932	319.336	83.9165	319.336	84.3313	319.336	83.5089	319.336	83.8748	319.336	83.3059	319.336	83.542	319.336	83.293	319.336	83.3414	319.336	83.4235	319.336	83.2803	319.336	83.6399	319.336	83.3624	319.336	83.8916	319.336	83.5706	319.336	84.1388	319.336	83.8554	319.336	84.3446	319.336	84.1451	319.336	84.4704	319.336	84.37	319.336	84.4835
329.59	88.1549	329.59	88.0123	329.59	88.1107	329.59	87.6944	329.59	87.8819	329.59	87.2248	329.59	87.4831	329.59	86.6363	329.59	86.9392	329.59	85.9651	329.59	86.283	329.59	85.2454	329.59	85.5542	329.59	84.5064	329.59	84.7999	329.59	83.7797	329.59	84.0755	329.59	83.1186	329.59	83.4418	329.59	82.6134	329.59	82.9525	329.59	82.3689	329.59	82.6423	329.59	82.434	329.59	82.527	329.59	82.7506	329.59	82.6097	329.59	83.1895	329.59	82.8733	329.59	83.6246	329.59	83.2599	329.59	83.9676	329.59	83.6712	329.59	84.1624	329.59	84.0018	329.59	84.176
341.309	87.812	341.309	87.7066	341.309	87.712	341.309	87.408	341.309	87.4183	341.309	86.9497	341.309	86.9633	341.309	86.3787	341.309	86.3905	341.309	85.7449	341.309	85.7445	341.309	85.0931	341.309	85.0651	341.309	84.4581	341.309	84.3905	341.309	83.8657	341.309	83.7643	341.309	83.3363	341.309	83.2402	341.309	82.8923	341.309	82.8735	341.309	82.5689	341.309	82.7026	341.309	82.4165	341.309	82.7293	341.309	82.4771	341.309	82.9152	341.309	82.7387	341.309	83.195	341.309	83.1188	341.309	83.497	341.309	83.5017	341.309	83.7551	341.309	83.7908	341.309	83.9139	341.309	83.9322
353.027	88.109	353.027	87.9181	353.027	88.0566	353.027	87.5112	353.027	87.753	353.027	86.9299	353.027	87.2162	353.027	86.2242	353.027	86.4905	353.027	85.4491	353.027	85.6414	353.027	84.6587	353.027	84.744	353.027	83.9015	353.027	83.8705	353.027	83.2171	353.027	83.085	353.027	82.6382	353.027	82.4442	353.027	82.1958	353.027	81.9971	353.027	81.922	353.027	81.7765	353.027	81.8441	353.027	81.7918	353.027	81.973	353.027	82.0277	353.027	82.2881	353.027	82.4351	353.027	82.7255	353.027	82.921	353.027	83.1814	353.027	83.3628	353.027	83.5408	353.027	83.6489	353.027	83.7118
366.211	88.1907	366.211	87.9932	366.211	88.1189	366.211	87.5437	366.211	87.783	366.211	86.8843	366.211	87.2103	366.211	86.083	366.211	86.452	366.211	85.2293	366.211	85.5835	366.211	84.421	366.211	84.6941	366.211	83.7392	366.211	83.8617	366.211	83.2202	366.211	83.1282	366.211	82.8455	366.211	82.5025	366.211	82.5666	366.211	81.9972	366.211	82.3527	366.211	81.658	366.211	82.2226	366.211	81.5396	366.211	82.2248	366.211	81.6424	366.211	82.3721	366.211	81.8936	366.211	82.6018	366.211	82.1996	366.211	82.8109	366.211	82.4942	366.211	82.9173	366.211	82.7363	366.211	82.8886
379.395	88.901	379.395	88.7606	379.395	88.7939	379.395	88.3652	379.395	88.4506	379.395	87.7174	379.395	87.8867	379.395	86.8384	379.395	87.1248	379.395	85.7782	379.395	86.2013	379.395	84.6235	379.395	85.1718	379.395	83.4984	379.395	84.1156	379.395	82.5465	379.395	83.1338	379.395	81.8872	379.395	82.3301	379.395	81.5606	379.395	81.7744	379.395	81.513	379.395	81.479	379.395	81.6468	379.395	81.4212	379.395	81.8865	379.395	81.58	379.395	82.2014	379.395	81.9298	379.395	82.5734	379.395	82.4	379.395	82.9491	379.395	82.869	379.395	83.2349	379.395	83.2095	379.395	83.3376
392.578	88.4359	392.578	88.2496	392.578	88.3788	392.578	87.8369	392.578	88.0831	392.578	87.2333	392.578	87.5745	392.578	86.4838	392.578	86.8944	392.578	85.6334	392.578	86.0902	392.578	84.7203	392.578	85.2059	392.578	83.782	392.578	84.2774	392.578	82.8716	392.578	83.3414	392.578	82.0741	392.578	82.4533	392.578	81.5058	392.578	81.7026	392.578	81.277	392.578	81.2069	392.578	81.4304	392.578	81.0722	392.578	81.9022	392.578	81.332	392.578	82.5498	392.578	81.9112	392.578	83.2128	392.578	82.6478	392.578	83.756	392.578	83.3547	392.578	84.0821	392.578	83.8788	392.578	84.1304
405.762	88.2327	405.762	87.9884	405.762	88.2012	405.762	87.4936	405.762	87.8881	405.762	86.7921	405.762	87.3056	405.762	85.9436	405.762	86.4849	405.762	85.018	405.762	85.4801	405.762	84.0876	405.762	84.3747	405.762	83.2196	405.762	83.2816	405.762	82.4702	405.762	82.3219	405.762	81.877	405.762	81.5877	405.762	81.453	405.762	81.1172	405.762	81.1913	405.762	80.907	405.762	81.0848	405.762	80.9422	405.762	81.1481	405.762	81.1979	405.762	81.4066	405.762	81.6161	405.762	81.8369	405.762	82.1012	405.762	82.3265	405.762	82.5421	405.762	82.7213	405.762	82.8355	405.762	82.9048
420.41	88.3422	420.41	88.1419	420.41	88.2086	420.41	87.6108	420.41	87.7656	420.41	86.7823	420.41	87.0657	420.41	85.7281	420.41	86.1848	420.41	84.5619	420.41	85.2047	420.41	83.4252	420.41	84.1896	420.41	82.4423	420.41	83.1714	420.41	81.6756	420.41	82.1607	420.41	81.1312	420.41	81.1795	420.41	80.8139	420.41	80.3021	420.41	80.7553	420.41	79.6781	420.41	80.9683	420.41	79.4768	420.41	81.3861	420.41	79.7487	420.41	81.8792	420.41	80.3644	420.41	82.3243	420.41	81.1143	420.41	82.6389	420.41	81.8193	420.41	82.771	420.41	82.3628	420.41	82.6848
435.059	87.2796	435.059	87.0309	435.059	87.1662	435.059	86.4425	435.059	86.7043	435.059	85.5636	435.059	85.9578	435.059	84.4738	435.059	85.0471	435.059	83.2992	435.059	84.1287	435.059	82.22	435.059	83.3345	435.059	81.4246	435.059	82.7049	435.059	80.9973	435.059	82.1863	435.059	80.8571	435.059	81.6969	435.059	80.838	435.059	81.1908	435.059	80.8131	435.059	80.6802	435.059	80.7496	435.059	80.2233	435.059	80.6916	435.059	79.8931	435.059	80.7015	435.059	79.7514	435.059	80.7949	435.059	79.8324	435.059	80.9101	435.059	80.1127	435.059	80.9384	435.059	80.4845	435.059	80.7952
451.172	90.1216	451.172	89.9364	451.172	89.948	451.172	89.3928	451.172	89.4116	451.172	88.4913	451.172	88.5057	451.172	87.2368	451.172	87.2349	451.172	85.648	451.172	85.6518	451.172	83.7785	451.172	83.9169	451.172	81.7591	451.172	82.3354	451.172	79.8908	451.172	81.2506	451.172	78.7567	451.172	80.7929	451.172	78.8936	451.172	80.8296	451.172	80.0561	451.172	81.1859	451.172	81.5715	451.172	81.7837	451.172	83.0178	451.172	82.592	451.172	84.2214	451.172	83.5213	451.172	85.115	451.172	84.4183	451.172	85.6819	451.172	85.1512	451.172	85.9402	451.172	85.6576	451.172	85.9235
465.82	89.8896	465.82	89.6044	465.82	89.7929	465.82	88.9587	465.82	89.3117	465.82	87.9987	465.82	88.4572	465.82	86.7981	465.82	87.2573	465.82	85.4491	465.82	85.7669	465.82	84.0384	465.82	84.0887	465.82	82.6235	465.82	82.3948	465.82	81.2388	465.82	80.938	465.82	79.9472	465.82	79.9914	465.82	78.9111	465.82	79.6594	465.82	78.407	465.82	79.7894	465.82	78.6558	465.82	80.1937	465.82	79.5669	465.82	80.8183	465.82	80.7915	465.82	81.6413	465.82	81.9937	465.82	82.5346	465.82	82.9683	465.82	83.2996	465.82	83.6149	465.82	83.7777	465.82	83.8894
483.398	89.8838	483.398	89.6821	483.398	89.7477	483.398	89.1411	483.398	89.2827	483.398	88.2746	483.398	88.5022	483.398	87.1161	483.398	87.4314	483.398	85.7128	483.398	86.1181	483.398	84.1131	483.398	84.6338	483.398	82.3649	483.398	83.0583	483.398	80.5511	483.398	81.4675	483.398	78.8908	483.398	79.9733	483.398	77.8417	483.398	78.8365	483.398	77.8553	483.398	78.478	483.398	78.819	483.398	79.0455	483.398	80.2078	483.398	80.1351	483.398	81.6101	483.398	81.3077	483.398	82.8154	483.398	82.393	483.398	83.7156	483.398	83.3291	483.398	84.2399	483.398	84.0168	483.398	84.3414
499.512	89.2771	499.512	89.0276	499.512	89.1649	499.512	88.4204	499.512	88.698	499.512	87.4786	499.512	87.8986	499.512	86.2601	499.512	86.8075	499.512	84.8593	499.512	85.4831	499.512	83.382	499.512	84.0038	499.512	81.91	499.512	82.4849	499.512	80.5045	499.512	81.082	499.512	79.2547	499.512	79.9352	499.512	78.3286	499.512	79.1047	499.512	77.9848	499.512	78.6437	499.512	78.439	499.512	78.7353	499.512	79.5996	499.512	79.5296	499.512	81.0893	499.512	80.8079	499.512	82.5221	499.512	82.1543	499.512	83.6362	499.512	83.2872	499.512	84.2882	499.512	84.0724	499.512	84.427
517.09	89.1492	517.09	88.8737	517.09	88.9991	517.09	88.2295	517.09	88.4142	517.09	87.2795	517.09	87.4487	517.09	86.0675	517.09	86.1982	517.09	84.6391	517.09	84.7551	517.09	83.0825	517.09	83.1828	517.09	81.5283	517.09	81.5331	517.09	80.0861	517.09	79.8939	517.09	78.8013	517.09	78.462	517.09	77.7579	517.09	77.5615	517.09	77.2913	517.09	77.4311	517.09	77.8589	517.09	78.0523	517.09	79.3451	517.09	79.3249	517.09	81.1084	517.09	81.0312	517.09	82.6685	517.09	82.732	517.09	83.8421	517.09	84.028	517.09	84.5946	517.09	84.7512	517.09	84.9148
536.133	88.275	536.133	87.9998	536.133	88.1179	536.133	87.2944	536.133	87.5426	536.133	86.1952	536.133	86.5733	536.133	84.7851	536.133	85.2573	536.133	83.1837	536.133	83.6779	536.133	81.5224	536.133	81.9498	536.133	79.918	536.133	80.1914	536.133	78.4532	536.133	78.5017	536.133	77.2036	536.133	76.9801	536.133	76.3803	536.133	75.8247	536.133	76.4317	536.133	75.4742	536.133	77.566	536.133	76.3676	536.133	79.3111	536.133	78.2108	536.133	81.1007	536.133	80.2477	536.133	82.6413	536.133	82.0086	536.133	83.7877	536.133	83.3401	536.133	84.4492	536.133	84.207	536.133	84.5862
555.176	89.7593	555.176	89.4447	555.176	89.5893	555.176	88.6529	555.176	88.9436	555.176	87.4132	555.176	87.8481	555.176	85.7892	555.176	86.3514	555.176	83.8811	555.176	84.5292	555.176	81.8128	555.176	82.4922	555.176	79.7317	555.176	80.3941	555.176	77.8344	555.176	78.4198	555.176	76.3211	555.176	76.7303	555.176	75.2446	555.176	75.4199	555.176	74.6038	555.176	74.6271	555.176	74.8608	555.176	74.6909	555.176	76.6314	555.176	75.8662	555.176	79.2116	555.176	77.8979	555.176	81.518	555.176	80.1825	555.176	83.1277	555.176	82.1533	555.176	83.9826	555.176	83.4925	555.176	84.1031
574.219	89.5804	574.219	89.3535	574.219	89.3587	574.219	88.6722	574.219	88.7017	574.219	87.5443	574.219	87.6384	574.219	86.0107	574.219	86.2149	574.219	84.1513	574.219	84.4838	574.219	82.0683	574.219	82.5091	574.219	79.8853	574.219	80.4147	574.219	77.7976	574.219	78.4578	574.219	76.0918	574.219	77.0399	574.219	75.0312	574.219	76.3729	574.219	74.8354	574.219	76.1811	574.219	75.8155	574.219	76.4193	574.219	77.8565	574.219	77.6099	574.219	80.1597	574.219	79.58	574.219	82.0764	574.219	81.4564	574.219	83.3729	574.219	82.8234	574.219	84.0283	574.219	83.6876	574.219	84.1035
594.727	89.2279	594.727	88.8295	594.727	89.0949	594.727	87.9585	594.727	88.3867	594.727	86.659	594.727	87.1072	594.727	84.9472	594.727	85.3354	594.727	82.8552	594.727	83.2132	594.727	80.5218	594.727	80.8824	594.727	78.2212	594.727	78.4285	594.727	76.2165	594.727	75.873	594.727	74.5649	594.727	73.2697	594.727	73.3871	594.727	71.336	594.727	73.4159	594.727	72.0886	594.727	75.1332	594.727	75.0321	594.727	77.811	594.727	78.0449	594.727	80.56	594.727	80.614	594.727	82.8345	594.727	82.7404	594.727	84.4184	594.727	84.3393	594.727	85.3236	594.727	85.3025	594.727	85.6168
615.234	90.6183	615.234	90.228	615.234	90.4236	615.234	89.2828	615.234	89.6736	615.234	87.8695	615.234	88.4291	615.234	86.1026	615.234	86.7498	615.234	84.0827	615.234	84.6946	615.234	81.8599	615.234	82.3499	615.234	79.4282	615.234	79.8478	615.234	76.7752	615.234	77.3127	615.234	73.9893	615.234	74.7251	615.234	71.3917	615.234	71.8057	615.234	70.0129	615.234	68.3277	615.234	71.7375	615.234	67.8943	615.234	75.4497	615.234	72.7917	615.234	78.9254	615.234	77.3443	615.234	81.5996	615.234	80.7992	615.234	83.5054	615.234	83.2469	615.234	84.7029	615.234	84.6854	615.234	85.1379
637.207	90.5954	637.207	90.2675	637.207	90.363	637.207	89.3778	637.207	89.5774	637.207	87.9366	637.207	88.2648	637.207	85.9983	637.207	86.4818	637.207	83.6851	637.207	84.3149	637.207	81.1543	637.207	81.8618	637.207	78.5224	637.207	79.2207	637.207	75.7963	637.207	76.5455	637.207	72.8038	637.207	74.0169	637.207	69.182	637.207	71.4247	637.207	65.7167	637.207	67.8166	637.207	69.2424	637.207	64.2901	637.207	74.9504	637.207	70.1908	637.207	79.2335	637.207	75.9679	637.207	82.2667	637.207	79.9164	637.207	84.2055	637.207	82.6235	637.207	85.142	637.207	84.3386	637.207	85.1687
659.18	88.9633	659.18	88.496	659.18	88.7243	659.18	87.3902	659.18	87.7887	659.18	85.8014	659.18	86.2482	659.18	83.9335	659.18	84.2747	659.18	81.9143	659.18	82.0651	659.18	79.7528	659.18	79.7652	659.18	77.4633	659.18	77.4542	659.18	75.1342	659.18	75.1735	659.18	72.8712	659.18	72.9992	659.18	70.7556	659.18	71.0902	659.18	68.8898	659.18	69.2023	659.18	67.7731	659.18	66.5187	659.18	69.6872	659.18	67.6543	659.18	74.557	659.18	73.8209	659.18	78.7971	659.18	78.3492	659.18	81.5679	659.18	81.2451	659.18	83.0631	659.18	82.9047	659.18	83.4909
682.617	89.4593	682.617	89.0117	682.617	89.0872	682.617	87.7293	682.617	87.9843	682.617	85.6768	682.617	86.2854	682.617	83.0232	682.617	84.1371	682.617	80.0761	682.617	81.6641	682.617	77.1158	682.617	78.866	682.617	74.0337	682.617	75.6731	682.617	70.6458	682.617	72.4605	682.617	67.7877	682.617	70.0927	682.617	66.9931	682.617	68.4052	682.617	67.7722	682.617	65.8863	682.617	69.2614	682.617	64.1586	682.617	72.4232	682.617	68.8314	682.617	76.532	682.617	74.2464	682.617	80.0743	682.617	78.6486	682.617	82.6165	682.617	81.7756	682.617	84.0628	682.617	83.648	682.617	84.3976
707.52	90.4062	707.52	89.9126	707.52	90.2347	707.52	88.8061	707.52	89.3053	707.52	87.0869	707.52	87.5504	707.52	84.7066	707.52	84.9977	707.52	81.598	707.52	81.7561	707.52	77.827	707.52	77.95	707.52	73.8945	707.52	73.8016	707.52	70.5127	707.52	69.8117	707.52	67.2842	707.52	66.4028	707.52	63.7424	707.52	63.4236	707.52	56.4175	707.52	58.56	707.52	58.5794	707.52	50.4575	707.52	69.4805	707.52	66.3112	707.52	75.6957	707.52	73.0993	707.52	80.064	707.52	77.804	707.52	82.9071	707.52	81.341	707.52	84.4288	707.52	83.6891	707.52	84.7115
732.422	89.363	732.422	88.8791	732.422	89.0471	732.422	87.5894	732.422	87.9723	732.422	85.5282	732.422	86.1919	732.422	82.7676	732.422	83.7416	732.422	79.338	732.422	80.6238	732.422	74.9294	732.422	76.7737	732.422	68.7066	732.422	71.9878	732.422	61.429	732.422	66.6742	732.422	59.7104	732.422	63.1566	732.422	61.2817	732.422	60.9268	732.422	60.1548	732.422	60.8371	732.422	54.4788	732.422	59.9685	732.422	68.5673	732.422	64.4216	732.422	74.2613	732.422	71.8973	732.422	77.198	732.422	76.1227	732.422	79.0302	732.422	78.3529	732.422	80.0852	732.422	79.6003	732.422	80.2382
757.324	89.4803	757.324	88.8656	757.324	89.214	757.324	87.4426	757.324	88.0728	757.324	85.2503	757.324	86.1495	757.324	82.2083	757.324	83.5348	757.324	78.1045	757.324	80.2717	757.324	72.6347	757.324	76.4076	757.324	67.1342	757.324	71.9986	757.324	67.7603	757.324	67.2775	757.324	69.5781	757.324	63.8693	757.324	68.8271	757.324	63.2879	757.324	64.6467	757.324	61.849	757.324	61.5817	757.324	36.1161	757.324	68.5296	757.324	67.0006	757.324	73.9959	757.324	73.9067	757.324	77.7196	757.324	77.5313	757.324	80.2548	757.324	79.9706	757.324	81.775	757.324	81.5969	757.324	82.2309
785.156	89.254	785.156	88.9079	785.156	88.9118	785.156	87.653	785.156	87.9935	785.156	85.3973	785.156	86.4289	785.156	82.2386	785.156	84.1493	785.156	78.3166	785.156	81.2045	785.156	74.2634	785.156	77.4374	785.156	72.4866	785.156	72.6911	785.156	72.5233	785.156	69.5954	785.156	72.1701	785.156	69.9288	785.156	70.8161	785.156	68.8354	785.156	68.3136	785.156	66.3005	785.156	67.9697	785.156	66.1218	785.156	72.17	785.156	70.0219	785.156	76.7151	785.156	74.8218	785.156	79.6332	785.156	78.2692	785.156	80.9693	785.156	80.2586	785.156	81.3354	785.156	81.1007	785.156	81.3074
811.523	88.3128	811.523	87.6752	811.523	88.2697	811.523	86.4287	811.523	87.4866	811.523	84.4615	811.523	86.3757	811.523	81.8219	811.523	85.44	811.523	78.7816	811.523	84.1585	811.523	75.3091	811.523	81.455	811.523	71.1921	811.523	76.6737	811.523	70.898	811.523	69.3263	811.523	73.4314	811.523	67.4901	811.523	74.9236	811.523	72.5693	811.523	76.8903	811.523	75.3494	811.523	79.2829	811.523	77.3053	811.523	81.668	811.523	79.2872	811.523	84.074	811.523	81.4303	811.523	86.0406	811.523	83.6676	811.523	87.2993	811.523	85.7833	811.523	88.0096	811.523	87.3801	811.523	88.1223
840.82	86.4969	840.82	85.2004	840.82	85.9569	840.82	83.154	840.82	84.1587	840.82	82.7684	840.82	83.1438	840.82	83.3709	840.82	83.5232	840.82	83.4634	840.82	83.3884	840.82	82.3261	840.82	81.9022	840.82	79.6673	840.82	79.4181	840.82	78.1664	840.82	77.8607	840.82	79.7906	840.82	78.6488	840.82	81.3063	840.82	80.3749	840.82	82.4191	840.82	81.7562	840.82	83.6744	840.82	82.4153	840.82	85.6131	840.82	83.602	840.82	88.6427	840.82	86.7587	840.82	91.9174	840.82	90.5269	840.82	94.4086	840.82	93.4057	840.82	95.7707	840.82	95.1958	840.82	96.0003
870.117	90.0666	870.117	89.298	870.117	89.2249	870.117	86.4318	870.117	86.0056	870.117	78.6653	870.117	77.5771	870.117	73.4181	870.117	76.5943	870.117	82.2056	870.117	83.0082	870.117	84.1592	870.117	84.2927	870.117	83.778	870.117	82.5136	870.117	81.7724	870.117	77.304	870.117	79.1958	870.117	65.2768	870.117	79.9939	870.117	67.4115	870.117	82.4994	870.117	75.3531	870.117	84.4652	870.117	81.1812	870.117	86.3287	870.117	84.7254	870.117	89.1747	870.117	87.241	870.117	92.5467	870.117	90.2536	870.117	95.2283	870.117	93.6084	870.117	96.821	870.117	96.0875	870.117	97.1535
900.879	92.9675	900.879	91.8519	900.879	92.3604	900.879	88.537	900.879	90.2311	900.879	81.5435	900.879	86.0217	900.879	77.651	900.879	76.235	900.879	83.5063	900.879	78.7939	900.879	84.7664	900.879	83.2333	900.879	82.6725	900.879	82.9198	900.879	75.8625	900.879	80.2748	900.879	69.4805	900.879	76.8512	900.879	77.0947	900.879	77.3277	900.879	81.8984	900.879	79.7104	900.879	84.9077	900.879	82.2539	900.879	86.5445	900.879	84.7091	900.879	88.4195	900.879	86.9497	900.879	91.6576	900.879	90.0283	900.879	94.863	900.879	93.4626	900.879	96.7989	900.879	96.038	900.879	97.2038
933.105	92.8485	933.105	92.2646	933.105	92.5873	933.105	90.7348	933.105	91.2379	933.105	87.8675	933.105	88.2963	933.105	83.4274	933.105	83.3552	933.105	81.0865	933.105	79.6747	933.105	82.2414	933.105	81.8125	933.105	82.1199	933.105	82.7556	933.105	80.4687	933.105	81.0081	933.105	77.4105	933.105	76.2298	933.105	72.6065	933.105	67.5278	933.105	67.4797	933.105	61.5581	933.105	71.8451	933.105	74.4976	933.105	79.4553	933.105	80.6074	933.105	85.6551	933.105	84.8963	933.105	90.3255	933.105	88.6695	933.105	93.6817	933.105	92.2142	933.105	95.7118	933.105	94.9243	933.105	96.1648
965.332	92.9091	965.332	92.5055	965.332	92.4748	965.332	91.0133	965.332	91.1191	965.332	88.0623	965.332	88.4793	965.332	83.6401	965.332	84.1147	965.332	80.0023	965.332	79.2078	965.332	80.2715	965.332	79.6415	965.332	80.4201	965.332	80.7679	965.332	78.3823	965.332	78.2667	965.332	75.4326	965.332	68.1866	965.332	72.8738	965.332	69.6589	965.332	65.7583	965.332	72.9925	965.332	68.7335	965.332	75.5375	965.332	77.5776	965.332	80.6286	965.332	83.3878	965.332	83.7772	965.332	87.2786	965.332	86.2052	965.332	90.307	965.332	88.8322	965.332	92.2558	965.332	91.2987	965.332	92.6017
1,000.49	91.7586	1,000.49	91.5038	1,000.49	91.2731	1,000.49	90.2338	1,000.49	90.0344	1,000.49	87.6658	1,000.49	87.4588	1,000.49	82.746	1,000.49	82.3854	1,000.49	70.9439	1,000.49	70.0254	1,000.49	78.6545	1,000.49	75.4133	1,000.49	82.0465	1,000.49	79.8463	1,000.49	81.4899	1,000.49	79.9357	1,000.49	78.3436	1,000.49	77.4846	1,000.49	74.0868	1,000.49	72.4853	1,000.49	72.4965	1,000.49	66.8361	1,000.49	65.0246	1,000.49	68.067	1,000.49	70.154	1,000.49	71.566	1,000.49	78.5173	1,000.49	75.5714	1,000.49	82.3462	1,000.49	79.3038	1,000.49	85.592	1,000.49	83.6304	1,000.49	88.246	1,000.49	87.4039	1,000.49	89.0243
1,035.64	90.5354	1,035.64	90.2677	1,035.64	89.9759	1,035.64	89.0257	1,035.64	88.4104	1,035.64	86.2803	1,035.64	85.405	1,035.64	81.2807	1,035.64	79.8189	1,035.64	74.3508	1,035.64	70.4382	1,035.64	75.7426	1,035.64	78.6156	1,035.64	77.5566	1,035.64	82.4386	1,035.64	76.1462	1,035.64	82.855	1,035.64	72.518	1,035.64	80.9882	1,035.64	73.3409	1,035.64	79.0888	1,035.64	75.5403	1,035.64	78.654	1,035.64	74.539	1,035.64	76.1151	1,035.64	68.0354	1,035.64	66.2056	1,035.64	73.9384	1,035.64	70.7388	1,035.64	79.2499	1,035.64	78.6949	1,035.64	83.1759	1,035.64	82.5773	1,035.64	85.8928	1,035.64	85.4704	1,035.64	86.7174
1,072.27	88.3734	1,072.27	88.0597	1,072.27	87.7846	1,072.27	86.7745	1,072.27	86.7141	1,072.27	84.5471	1,072.27	84.9679	1,072.27	79.5429	1,072.27	81.3499	1,072.27	56.1375	1,072.27	73.994	1,072.27	77.8475	1,072.27	76.6379	1,072.27	81.2983	1,072.27	81.3073	1,072.27	80.5016	1,072.27	82.4128	1,072.27	76.1867	1,072.27	80.7584	1,072.27	75.223	1,072.27	78.297	1,072.27	77.1458	1,072.27	79.2788	1,072.27	77.0433	1,072.27	78.6417	1,072.27	73.9461	1,072.27	73.2705	1,072.27	76.9224	1,072.27	69.2002	1,072.27	82.0371	1,072.27	78.1223	1,072.27	85.3352	1,072.27	82.6887	1,072.27	87.245	1,072.27	85.6946	1,072.27	87.3678
1,108.89	87.0568	1,108.89	85.82	1,108.89	86.3353	1,108.89	83.4712	1,108.89	83.3857	1,108.89	80.4022	1,108.89	79.6316	1,108.89	76.119	1,108.89	76.6079	1,108.89	63.4504	1,108.89	66.6945	1,108.89	74.0251	1,108.89	74.7099	1,108.89	78.0305	1,108.89	79.8333	1,108.89	78.1265	1,108.89	80.7962	1,108.89	74.241	1,108.89	80.0917	1,108.89	70.9713	1,108.89	78.0057	1,108.89	77.7119	1,108.89	78.8382	1,108.89	79.091	1,108.89	79.5988	1,108.89	75.6889	1,108.89	77.3488	1,108.89	70.2769	1,108.89	70.3488	1,108.89	76.5851	1,108.89	74.7032	1,108.89	78.9092	1,108.89	79.4937	1,108.89	80.0402	1,108.89	81.2296	1,108.89	81.2197
1,148.44	87.9967	1,148.44	86.5771	1,148.44	87.382	1,148.44	82.9943	1,148.44	84.9772	1,148.44	78.0653	1,148.44	80.8212	1,148.44	73.1791	1,148.44	73.7446	1,148.44	72.6635	1,148.44	63.9761	1,148.44	77.2825	1,148.44	74.6208	1,148.44	79.1013	1,148.44	77.6954	1,148.44	78.1667	1,148.44	77.4501	1,148.44	74.8058	1,148.44	77.301	1,148.44	72.7352	1,148.44	78.0552	1,148.44	76.263	1,148.44	79.6388	1,148.44	77.3654	1,148.44	79.6433	1,148.44	76.1455	1,148.44	77.2394	1,148.44	74.5882	1,148.44	72.0146	1,148.44	74.3207	1,148.44	70.267	1,148.44	75.0611	1,148.44	70.5543	1,148.44	77.1475	1,148.44	73.7864	1,148.44	77.3021
1,189.45	87.822	1,189.45	85.9519	1,189.45	87.3975	1,189.45	81.7103	1,189.45	84.7929	1,189.45	75.8842	1,189.45	80.6764	1,189.45	68.0014	1,189.45	75.6981	1,189.45	69.3699	1,189.45	54.5385	1,189.45	76.9624	1,189.45	75.2487	1,189.45	79.2129	1,189.45	79.8137	1,189.45	78.705	1,189.45	80.0098	1,189.45	74.3857	1,189.45	76.511	1,189.45	72.9277	1,189.45	73.5352	1,189.45	77.6154	1,189.45	79.5123	1,189.45	77.7148	1,189.45	81.333	1,189.45	74.562	1,189.45	79.9228	1,189.45	72.0237	1,189.45	75.8919	1,189.45	76.5704	1,189.45	69.8	1,189.45	79.1541	1,189.45	73.7184	1,189.45	82.5032	1,189.45	79.2455	1,189.45	82.8248
1,230.47	87.2722	1,230.47	85.0917	1,230.47	86.0676	1,230.47	79.324	1,230.47	81.9281	1,230.47	76.9991	1,230.47	77.5091	1,230.47	78.3552	1,230.47	76.565	1,230.47	74.9081	1,230.47	71.3091	1,230.47	78.0591	1,230.47	64.3968	1,230.47	82.241	1,230.47	76.0769	1,230.47	82.3423	1,230.47	78.0397	1,230.47	77.9571	1,230.47	74.6017	1,230.47	68.3585	1,230.47	65.9032	1,230.47	78.991	1,230.47	76.0855	1,230.47	81.6799	1,230.47	80.2488	1,230.47	79.2392	1,230.47	80.5085	1,230.47	73.207	1,230.47	77.7267	1,230.47	77.2887	1,230.47	77.2476	1,230.47	82.1061	1,230.47	80.1073	1,230.47	84.7366	1,230.47	83.5229	1,230.47	85.1908
1,274.41	87.4986	1,274.41	85.1036	1,274.41	86.5011	1,274.41	77.118	1,274.41	81.0543	1,274.41	72.1604	1,274.41	55.8725	1,274.41	77.5883	1,274.41	77.7256	1,274.41	71.6351	1,274.41	78.9711	1,274.41	73.1277	1,274.41	72.4912	1,274.41	79.9232	1,274.41	70.4598	1,274.41	81.5041	1,274.41	78.3895	1,274.41	78.4254	1,274.41	80.1046	1,274.41	63.764	1,274.41	75.2254	1,274.41	78.1906	1,274.41	68.0076	1,274.41	82.2445	1,274.41	79.2333	1,274.41	80.5797	1,274.41	82.0545	1,274.41	73.5555	1,274.41	80.954	1,274.41	79.5874	1,274.41	79.5415	1,274.41	84.5915	1,274.41	82.8358	1,274.41	86.8717	1,274.41	85.425	1,274.41	87.0281
1,319.82	89.2538	1,319.82	87.5866	1,319.82	88.381	1,319.82	83.7404	1,319.82	83.8613	1,319.82	78.6529	1,319.82	73.5515	1,319.82	77.8669	1,319.82	77.1011	1,319.82	77.2326	1,319.82	80.7397	1,319.82	71.0478	1,319.82	79.6225	1,319.82	69.5128	1,319.82	75.5756	1,319.82	78.6654	1,319.82	77.4567	1,319.82	79.6625	1,319.82	79.7119	1,319.82	74.056	1,319.82	74.1931	1,319.82	76.8543	1,319.82	69.745	1,319.82	82.826	1,319.82	79.6305	1,319.82	83.6045	1,319.82	82.8383	1,319.82	80.2612	1,319.82	81.9712	1,319.82	79.083	1,319.82	81.2999	1,319.82	82.867	1,319.82	83.6033	1,319.82	85.2478	1,319.82	84.6382	1,319.82	85.6934
1,366.7	88.9688	1,366.7	87.8643	1,366.7	87.9112	1,366.7	84.9709	1,366.7	84.8164	1,366.7	79.2554	1,366.7	76.9566	1,366.7	75.6432	1,366.7	76.1899	1,366.7	79.0331	1,366.7	81.5511	1,366.7	79.0912	1,366.7	80.2253	1,366.7	75.0991	1,366.7	75.4612	1,366.7	75.013	1,366.7	77.2034	1,366.7	79.9663	1,366.7	79.9662	1,366.7	78.823	1,366.7	78.5604	1,366.7	73.6901	1,366.7	65.4627	1,366.7	78.091	1,366.7	76.3867	1,366.7	80.2466	1,366.7	80.2445	1,366.7	77.3601	1,366.7	79.3031	1,366.7	77.4697	1,366.7	78.7302	1,366.7	81.2383	1,366.7	80.9328	1,366.7	82.9428	1,366.7	81.7757	1,366.7	82.8806
1,413.57	88.6931	1,413.57	87.9987	1,413.57	87.9691	1,413.57	85.5261	1,413.57	85.6727	1,413.57	79.95	1,413.57	79.6775	1,413.57	65.9612	1,413.57	70.9041	1,413.57	78.8998	1,413.57	77.0472	1,413.57	81.4056	1,413.57	79.3663	1,413.57	79.0123	1,413.57	75.8803	1,413.57	76.2082	1,413.57	70.6233	1,413.57	80.1909	1,413.57	78.0619	1,413.57	80.9618	1,413.57	79.5332	1,413.57	76.0741	1,413.57	74.4492	1,413.57	68.0716	1,413.57	67.5069	1,413.57	75.8509	1,413.57	74.8577	1,413.57	76.6563	1,413.57	76.9462	1,413.57	74.4911	1,413.57	76.0864	1,413.57	76.6438	1,413.57	77.9082	1,413.57	78.3716	1,413.57	77.5044	1,413.57	78.4464
1,463.38	88.2597	1,463.38	87.5031	1,463.38	87.1229	1,463.38	84.8415	1,463.38	84.0183	1,463.38	78.9793	1,463.38	78.5862	1,463.38	60.5976	1,463.38	64.8746	1,463.38	77.8736	1,463.38	74.0848	1,463.38	79.1314	1,463.38	78.1257	1,463.38	76.4981	1,463.38	77.0291	1,463.38	74.3092	1,463.38	68.8063	1,463.38	78.629	1,463.38	73.8982	1,463.38	79.6106	1,463.38	78.251	1,463.38	75.5718	1,463.38	74.3796	1,463.38	62.6012	1,463.38	51.7679	1,463.38	72.9367	1,463.38	72.2376	1,463.38	73.4983	1,463.38	75.8703	1,463.38	73.9029	1,463.38	74.0274	1,463.38	74.4116	1,463.38	72.3405	1,463.38	70.936	1,463.38	68.0131	1,463.38	66.3028
1,516.11	88.0199	1,516.11	86.5493	1,516.11	86.7046	1,516.11	82.8328	1,516.11	83.2263	1,516.11	76.0747	1,516.11	77.0313	1,516.11	69.4235	1,516.11	66.2358	1,516.11	77.117	1,516.11	71.8047	1,516.11	79.8153	1,516.11	79.1523	1,516.11	78.1082	1,516.11	79.7178	1,516.11	71.8892	1,516.11	74.9322	1,516.11	71.0969	1,516.11	66.7526	1,516.11	76.324	1,516.11	74.5798	1,516.11	75.9493	1,516.11	76.8623	1,516.11	64.2448	1,516.11	71.1582	1,516.11	69.0731	1,516.11	68.7103	1,516.11	72.6639	1,516.11	71.9741	1,516.11	74.694	1,516.11	74.3795	1,516.11	77.6815	1,516.11	77.3654	1,516.11	77.5178	1,516.11	76.3525	1,516.11	77.0988
1,568.85	87.1699	1,568.85	85.691	1,568.85	85.8461	1,568.85	81.5939	1,568.85	81.9418	1,568.85	75.73	1,568.85	74.2158	1,568.85	74.9974	1,568.85	68.6483	1,568.85	76.0447	1,568.85	75.1834	1,568.85	77.8553	1,568.85	78.3034	1,568.85	77.2192	1,568.85	78.3482	1,568.85	73.6514	1,568.85	76.6071	1,568.85	69.1281	1,568.85	72.7402	1,568.85	73.3855	1,568.85	74.3621	1,568.85	74.0836	1,568.85	76.2937	1,568.85	70.5456	1,568.85	73.8607	1,568.85	69.1552	1,568.85	68.571	1,568.85	68.3432	1,568.85	64.7534	1,568.85	60.1411	1,568.85	59.6834	1,568.85	70.4011	1,568.85	67.6683	1,568.85	73.2724	1,568.85	69.33	1,568.85	72.2176
1,624.51	87.3966	1,624.51	86.0853	1,624.51	86.3115	1,624.51	82.0757	1,624.51	82.4033	1,624.51	78.7266	1,624.51	76.7765	1,624.51	78.4386	1,624.51	76.6092	1,624.51	78.5656	1,624.51	78.7808	1,624.51	79.3064	1,624.51	79.9863	1,624.51	77.5247	1,624.51	79.5998	1,624.51	72.7151	1,624.51	78.4755	1,624.51	70.9268	1,624.51	75.9303	1,624.51	74.118	1,624.51	75.1063	1,624.51	73.7119	1,624.51	75.2224	1,624.51	61.9369	1,624.51	70.4976	1,624.51	70.943	1,624.51	71.06	1,624.51	73.2384	1,624.51	73.3648	1,624.51	68.1629	1,624.51	68.8348	1,624.51	66.7952	1,624.51	70.4128	1,624.51	56.4667	1,624.51	68.7207	1,624.51	59.3069
1,681.64	88.3107	1,681.64	86.7836	1,681.64	87.7254	1,681.64	81.3057	1,681.64	84.0865	1,681.64	77.828	1,681.64	76.5936	1,681.64	80.7503	1,681.64	78.9973	1,681.64	80.5644	1,681.64	81.4025	1,681.64	80.5763	1,681.64	79.9842	1,681.64	80.9715	1,681.64	81.2158	1,681.64	77.5602	1,681.64	79.1812	1,681.64	67.5966	1,681.64	73.8666	1,681.64	74.8334	1,681.64	75.8434	1,681.64	76.3602	1,681.64	78.6158	1,681.64	74.7416	1,681.64	76.3032	1,681.64	65.6178	1,681.64	60.5919	1,681.64	73.4645	1,681.64	73.173	1,681.64	71.933	1,681.64	68.1902	1,681.64	73.8184	1,681.64	72.5475	1,681.64	67.4526	1,681.64	73.2051	1,681.64	68.8848
1,741.7	88.4346	1,741.7	86.8838	1,741.7	87.2919	1,741.7	81.7687	1,741.7	83.4906	1,741.7	76.0246	1,741.7	76.3867	1,741.7	80.5583	1,741.7	80.29	1,741.7	81.7864	1,741.7	82.0839	1,741.7	79.5062	1,741.7	80.7344	1,741.7	78.1996	1,741.7	78.7478	1,741.7	75.3832	1,741.7	77.2853	1,741.7	72.3208	1,741.7	73.7581	1,741.7	71.2823	1,741.7	72.1347	1,741.7	74.9677	1,741.7	75.1953	1,741.7	72.9359	1,741.7	75.6313	1,741.7	62.9785	1,741.7	69.3111	1,741.7	68.438	1,741.7	71.4687	1,741.7	63.5543	1,741.7	67.9708	1,741.7	68.4461	1,741.7	69.433	1,741.7	67.004	1,741.7	66.7743	1,741.7	68.6062
1,803.22	87.702	1,803.22	86.5008	1,803.22	86.9893	1,803.22	82.1535	1,803.22	82.7591	1,803.22	77.2295	1,803.22	76.8928	1,803.22	81.6614	1,803.22	80.5312	1,803.22	82.353	1,803.22	82.8479	1,803.22	80.7751	1,803.22	81.2762	1,803.22	78.2803	1,803.22	79.3977	1,803.22	76.1351	1,803.22	76.3913	1,803.22	71.5887	1,803.22	71.5431	1,803.22	69.0879	1,803.22	68.8532	1,803.22	73.6227	1,803.22	72.0257	1,803.22	73.9692	1,803.22	73.3461	1,803.22	68.0386	1,803.22	67.5803	1,803.22	71.0237	1,803.22	71.144	1,803.22	68.2146	1,803.22	70.4308	1,803.22	62.0832	1,803.22	63.6234	1,803.22	60.4783	1,803.22	63.6449	1,803.22	67.2046
1,866.21	87.7684	1,866.21	85.8401	1,866.21	86.716	1,866.21	81.0762	1,866.21	82.2675	1,866.21	78.3192	1,866.21	74.5115	1,866.21	81.75	1,866.21	80.8177	1,866.21	82.3115	1,866.21	82.4701	1,866.21	80.0862	1,866.21	80.9776	1,866.21	77.184	1,866.21	78.1086	1,866.21	74.3255	1,866.21	75.2556	1,866.21	71.8681	1,866.21	72.8974	1,866.21	68.3692	1,866.21	68.3453	1,866.21	72.4269	1,866.21	70.6605	1,866.21	73.2285	1,866.21	72.6645	1,866.21	69.3891	1,866.21	68.9798	1,866.21	69.1116	1,866.21	69.2502	1,866.21	67.2684	1,866.21	70.1866	1,866.21	59.0605	1,866.21	60.6422	1,866.21	50.0359	1,866.21	55.1914	1,866.21	67.9957
1,932.13	87.1934	1,932.13	85.0523	1,932.13	86.6143	1,932.13	79.1016	1,932.13	82.1656	1,932.13	77.6565	1,932.13	74.7566	1,932.13	81.1621	1,932.13	80.0377	1,932.13	81.1187	1,932.13	82.046	1,932.13	78.7568	1,932.13	80.5665	1,932.13	75.604	1,932.13	78.2437	1,932.13	74.2804	1,932.13	75.5991	1,932.13	70.1403	1,932.13	70.7374	1,932.13	67.9302	1,932.13	67.1556	1,932.13	69.0761	1,932.13	69.0307	1,932.13	70.5986	1,932.13	71.2494	1,932.13	70.9693	1,932.13	70.3397	1,932.13	70.9533	1,932.13	70.1207	1,932.13	65.0574	1,932.13	68.7468	1,932.13	62.5392	1,932.13	57.1569	1,932.13	63.1252	1,932.13	54.4577	1,932.13	67.3294
1,999.51	88.1114	1,999.51	85.7257	1,999.51	87.5259	1,999.51	78.8028	1,999.51	83.2184	1,999.51	77.3856	1,999.51	76.4446	1,999.51	80.95	1,999.51	80.6154	1,999.51	80.5072	1,999.51	81.728	1,999.51	77.3682	1,999.51	79.3663	1,999.51	74.8103	1,999.51	75.9893	1,999.51	73.6	1,999.51	74.9527	1,999.51	71.4981	1,999.51	73.0955	1,999.51	64.8745	1,999.51	69.7092	1,999.51	67.4065	1,999.51	67.6506	1,999.51	71.8868	1,999.51	72.3903	1,999.51	67.8023	1,999.51	69.7948	1,999.51	73.0529	1,999.51	70.9591	1,999.51	70.3363	1,999.51	73.9428	1,999.51	57.3409	1,999.51	64.6651	1,999.51	58.2824	1,999.51	57.2076	1,999.51	68.7337
2,069.82	88.677	2,069.82	86.9974	2,069.82	88.0745	2,069.82	80.7978	2,069.82	83.5524	2,069.82	76.6029	2,069.82	78.9753	2,069.82	81.4223	2,069.82	81.7562	2,069.82	81.0204	2,069.82	82.4202	2,069.82	77.4118	2,069.82	79.5988	2,069.82	73.5031	2,069.82	75.2962	2,069.82	75.9526	2,069.82	75.0646	2,069.82	71.9939	2,069.82	74.7419	2,069.82	69.0415	2,069.82	71.8412	2,069.82	64.6676	2,069.82	69.1023	2,069.82	71.2268	2,069.82	72.3133	2,069.82	68.0153	2,069.82	72.5616	2,069.82	70.1138	2,069.82	69.8509	2,069.82	68.4572	2,069.82	74.9074	2,069.82	60.7567	2,069.82	66.4746	2,069.82	61.9006	2,069.82	65.6614	2,069.82	67.1974
2,143.07	89.1244	2,143.07	87.5108	2,143.07	87.906	2,143.07	82.3117	2,143.07	83.5438	2,143.07	79.9143	2,143.07	79.2755	2,143.07	81.6523	2,143.07	82.1989	2,143.07	81.1721	2,143.07	81.6836	2,143.07	78.4228	2,143.07	79.242	2,143.07	74.2175	2,143.07	76.0442	2,143.07	72.525	2,143.07	74.5686	2,143.07	75.149	2,143.07	75.1974	2,143.07	71.3617	2,143.07	73.148	2,143.07	68.9516	2,143.07	69.6098	2,143.07	69.3247	2,143.07	70.6582	2,143.07	72.5121	2,143.07	74.2507	2,143.07	60.4915	2,143.07	59.5605	2,143.07	72.2943	2,143.07	72.8599	2,143.07	62.9177	2,143.07	68.0834	2,143.07	56.22	2,143.07	65.0742	2,143.07	60.7617
2,219.24	88.6352	2,219.24	87.3461	2,219.24	87.3975	2,219.24	82.9244	2,219.24	82.4089	2,219.24	80.3777	2,219.24	78.4666	2,219.24	81.999	2,219.24	80.6724	2,219.24	80.1117	2,219.24	80.3901	2,219.24	78.2492	2,219.24	78.6413	2,219.24	78.1877	2,219.24	77.0429	2,219.24	72.8663	2,219.24	73.987	2,219.24	73.6439	2,219.24	73.5061	2,219.24	73.0987	2,219.24	73.8868	2,219.24	70.3857	2,219.24	70.578	2,219.24	69.5049	2,219.24	69.1928	2,219.24	74.5379	2,219.24	72.7866	2,219.24	71.6647	2,219.24	71.5675	2,219.24	63.0958	2,219.24	67.1039	2,219.24	62.5238	2,219.24	63.7681	2,219.24	58.885	2,219.24	65.6732	2,219.24	66.0279
2,296.88	87.7911	2,296.88	86.1138	2,296.88	86.7724	2,296.88	81.1317	2,296.88	82.1139	2,296.88	81.2729	2,296.88	77.3053	2,296.88	81.1752	2,296.88	81.4057	2,296.88	77.5894	2,296.88	79.5844	2,296.88	77.2265	2,296.88	77.4739	2,296.88	77.9804	2,296.88	77.6537	2,296.88	78.0394	2,296.88	75.6766	2,296.88	75.4614	2,296.88	74.0693	2,296.88	73.3176	2,296.88	72.7859	2,296.88	72.8648	2,296.88	72.0011	2,296.88	72.2078	2,296.88	70.7639	2,296.88	72.7127	2,296.88	69.4079	2,296.88	74.5008	2,296.88	71.3002	2,296.88	70.1436	2,296.88	69.4391	2,296.88	61.1921	2,296.88	58.5736	2,296.88	52.947	2,296.88	51.3875	2,296.88	68.1186
2,378.91	87.374	2,378.91	85.5856	2,378.91	86.8773	2,378.91	78.5647	2,378.91	83.092	2,378.91	79.3445	2,378.91	77.5094	2,378.91	80.2999	2,378.91	80.4376	2,378.91	79.0099	2,378.91	79.0803	2,378.91	80.583	2,378.91	79.8884	2,378.91	80.2691	2,378.91	80.9173	2,378.91	78.6608	2,378.91	79.3901	2,378.91	76.6469	2,378.91	78.1841	2,378.91	75.2782	2,378.91	75.7595	2,378.91	74.885	2,378.91	73.0931	2,378.91	71.3626	2,378.91	74.0489	2,378.91	72.4855	2,378.91	73.7307	2,378.91	73.0401	2,378.91	73.2654	2,378.91	71.3629	2,378.91	71.5685	2,378.91	57.7279	2,378.91	63.9474	2,378.91	66.0999	2,378.91	61.5397	2,378.91	68.5058
2,462.4	88.6975	2,462.4	86.9913	2,462.4	88.084	2,462.4	79.1511	2,462.4	83.658	2,462.4	78.433	2,462.4	76.8683	2,462.4	80.6747	2,462.4	80.6112	2,462.4	81.2684	2,462.4	80.736	2,462.4	83.2101	2,462.4	83.5158	2,462.4	82.1605	2,462.4	83.7345	2,462.4	80.0255	2,462.4	82.8731	2,462.4	76.8595	2,462.4	79.0099	2,462.4	75.4344	2,462.4	77.1069	2,462.4	72.4021	2,462.4	74.9671	2,462.4	74.2675	2,462.4	76.1815	2,462.4	72.6671	2,462.4	75.848	2,462.4	70.3531	2,462.4	74.6014	2,462.4	72.0718	2,462.4	71.6662	2,462.4	60.63	2,462.4	68.5247	2,462.4	65.9088	2,462.4	67.8667	2,462.4	68.9516
2,548.83	89.8957	2,548.83	88.2757	2,548.83	88.8678	2,548.83	81.221	2,548.83	83.2336	2,548.83	73.4531	2,548.83	70.1475	2,548.83	78.6357	2,548.83	77.4998	2,548.83	82.5619	2,548.83	82.112	2,548.83	84.9029	2,548.83	85.0706	2,548.83	83.4972	2,548.83	84.6532	2,548.83	82.0725	2,548.83	83.4278	2,548.83	79.0298	2,548.83	80.8826	2,548.83	79.0351	2,548.83	77.4868	2,548.83	76.1579	2,548.83	74.7242	2,548.83	73.6605	2,548.83	75.4273	2,548.83	74.9392	2,548.83	76.9329	2,548.83	74.1158	2,548.83	74.7493	2,548.83	64.9237	2,548.83	65.4428	2,548.83	64.4829	2,548.83	63.5971	2,548.83	68.344	2,548.83	73.5445	2,548.83	71.2907
2,639.65	88.4099	2,639.65	87.1549	2,639.65	87.8228	2,639.65	80.3281	2,639.65	83.0981	2,639.65	65.2613	2,639.65	67.747	2,639.65	73.9482	2,639.65	66.6984	2,639.65	84.5898	2,639.65	81.7608	2,639.65	86.2789	2,639.65	85.1224	2,639.65	84.9061	2,639.65	83.6833	2,639.65	81.5378	2,639.65	81.1152	2,639.65	79.0209	2,639.65	80.0154	2,639.65	77.0013	2,639.65	77.0052	2,639.65	78.1679	2,639.65	77.34	2,639.65	74.9929	2,639.65	70.6921	2,639.65	74.3202	2,639.65	74.9362	2,639.65	77.1361	2,639.65	77.3935	2,639.65	63.7584	2,639.65	69.3715	2,639.65	52.3241	2,639.65	56.1499	2,639.65	74.8922	2,639.65	70.622	2,639.65	75.9235
2,731.93	87.3375	2,731.93	85.2265	2,731.93	85.9607	2,731.93	78.8402	2,731.93	81.2307	2,731.93	72.7479	2,731.93	72.9818	2,731.93	79.8434	2,731.93	76.6314	2,731.93	83.7804	2,731.93	82.779	2,731.93	84.1016	2,731.93	84.073	2,731.93	83.2042	2,731.93	84.0191	2,731.93	77.9461	2,731.93	79.9917	2,731.93	77.1109	2,731.93	76.8109	2,731.93	73.3165	2,731.93	76.528	2,731.93	75.4552	2,731.93	74.9204	2,731.93	76.5067	2,731.93	75.3094	2,731.93	74.0769	2,731.93	72.3367	2,731.93	75.2802	2,731.93	74.5873	2,731.93	70.2077	2,731.93	73.6101	2,731.93	57.4893	2,731.93	65.9685	2,731.93	75.2214	2,731.93	65.3329	2,731.93	78.6919
2,828.61	87.2379	2,828.61	84.5381	2,828.61	85.3748	2,828.61	80.0251	2,828.61	82.1974	2,828.61	77.1151	2,828.61	77.9103	2,828.61	80.9461	2,828.61	78.9358	2,828.61	85.0637	2,828.61	84.6633	2,828.61	84.1018	2,828.61	85.5773	2,828.61	82.5848	2,828.61	83.8679	2,828.61	78.6977	2,828.61	81.459	2,828.61	74.6655	2,828.61	77.2962	2,828.61	72.8445	2,828.61	76.7596	2,828.61	73.9079	2,828.61	74.7921	2,828.61	75.1199	2,828.61	74.4361	2,828.61	74.749	2,828.61	75.6433	2,828.61	71.5291	2,828.61	73.8756	2,828.61	71.1157	2,828.61	70.4906	2,828.61	49.0299	2,828.61	66.8467	2,828.61	60.5616	2,828.61	64.7694	2,828.61	71.8536
2,928.22	88.6421	2,928.22	85.1241	2,928.22	87.1566	2,928.22	81.8858	2,928.22	81.9704	2,928.22	79.4421	2,928.22	80.6225	2,928.22	81.8453	2,928.22	80.4667	2,928.22	84.6297	2,928.22	84.7835	2,928.22	85.0877	2,928.22	86.0223	2,928.22	82.6603	2,928.22	85.1238	2,928.22	80.8101	2,928.22	82.0392	2,928.22	75.7565	2,928.22	79.414	2,928.22	74.5599	2,928.22	75.1808	2,928.22	73.8665	2,928.22	73.3128	2,928.22	75.1915	2,928.22	74.1726	2,928.22	75.1056	2,928.22	75.6097	2,928.22	74.7691	2,928.22	74.7296	2,928.22	63.0577	2,928.22	68.9874	2,928.22	62.625	2,928.22	63.8993	2,928.22	67.6003	2,928.22	63.2443	2,928.22	67.283
3,030.76	89.1434	3,030.76	86.0164	3,030.76	87.7213	3,030.76	83.0342	3,030.76	83.2492	3,030.76	82.1846	3,030.76	82.8154	3,030.76	81.8987	3,030.76	82.2593	3,030.76	85.3601	3,030.76	84.9405	3,030.76	85.186	3,030.76	85.4604	3,030.76	83.1633	3,030.76	84.16	3,030.76	81.925	3,030.76	82.3192	3,030.76	77.5884	3,030.76	79.3996	3,030.76	75.0855	3,030.76	76.4431	3,030.76	74.5087	3,030.76	73.3489	3,030.76	75.0466	3,030.76	73.4787	3,030.76	73.8577	3,030.76	73.8628	3,030.76	73.4113	3,030.76	75.181	3,030.76	62.7136	3,030.76	69.776	3,030.76	62.2275	3,030.76	60.7981	3,030.76	64.2458	3,030.76	67.8743	3,030.76	68.529
3,137.7	89.2008	3,137.7	85.5677	3,137.7	86.9622	3,137.7	84.0766	3,137.7	83.9585	3,137.7	83.0768	3,137.7	83.4285	3,137.7	83.4416	3,137.7	81.8975	3,137.7	85.3179	3,137.7	84.28	3,137.7	85.4962	3,137.7	85.2974	3,137.7	83.6329	3,137.7	84.1628	3,137.7	81.9094	3,137.7	82.3445	3,137.7	78.6099	3,137.7	77.8718	3,137.7	74.5609	3,137.7	76.169	3,137.7	73.0237	3,137.7	75.0482	3,137.7	74.6104	3,137.7	73.2426	3,137.7	74.4116	3,137.7	75.5026	3,137.7	74.1189	3,137.7	76.3117	3,137.7	64.7811	3,137.7	71.9262	3,137.7	61.9946	3,137.7	58.7659	3,137.7	63.2547	3,137.7	64.8856	3,137.7	62.5712
3,249.02	89.2006	3,249.02	86.0638	3,249.02	88.0055	3,249.02	84.6192	3,249.02	84.6156	3,249.02	82.5917	3,249.02	84.4071	3,249.02	81.8138	3,249.02	81.1749	3,249.02	84.7963	3,249.02	83.4873	3,249.02	85.348	3,249.02	85.4405	3,249.02	83.5423	3,249.02	84.2621	3,249.02	81.9356	3,249.02	81.5166	3,249.02	78.2065	3,249.02	78.5279	3,249.02	73.8	3,249.02	74.8164	3,249.02	73.9957	3,249.02	75.4537	3,249.02	74.4875	3,249.02	74.8192	3,249.02	74.7605	3,249.02	75.348	3,249.02	73.3807	3,249.02	75.9513	3,249.02	66.5863	3,249.02	71.9137	3,249.02	62.3636	3,249.02	63.2892	3,249.02	66.3389	3,249.02	64.8383	3,249.02	54.7937
3,363.28	88.1885	3,363.28	86.5587	3,363.28	87.4147	3,363.28	84.6489	3,363.28	85.6636	3,363.28	82.5086	3,363.28	84.3736	3,363.28	80.6222	3,363.28	81.8656	3,363.28	84.3727	3,363.28	83.4639	3,363.28	85.4264	3,363.28	85.4153	3,363.28	83.7961	3,363.28	84.1305	3,363.28	80.5202	3,363.28	80.3547	3,363.28	76.9422	3,363.28	77.1692	3,363.28	72.829	3,363.28	74.1658	3,363.28	73.319	3,363.28	72.9813	3,363.28	73.7396	3,363.28	76.2686	3,363.28	74.5667	3,363.28	71.8098	3,363.28	73.6461	3,363.28	72.1095	3,363.28	60.7619	3,363.28	69.3626	3,363.28	69.5566	3,363.28	67.4582	3,363.28	66.2529	3,363.28	65.9734	3,363.28	58.7814
3,481.93	87.7046	3,481.93	87.3543	3,481.93	87.7436	3,481.93	84.876	3,481.93	85.9891	3,481.93	83.4218	3,481.93	83.5855	3,481.93	80.8118	3,481.93	82.1833	3,481.93	84.8402	3,481.93	83.5467	3,481.93	85.8003	3,481.93	85.3076	3,481.93	84.6101	3,481.93	83.9344	3,481.93	80.6123	3,481.93	81.8347	3,481.93	77.4612	3,481.93	77.4349	3,481.93	75.2888	3,481.93	73.6046	3,481.93	72.6056	3,481.93	72.4821	3,481.93	74.1755	3,481.93	75.0513	3,481.93	75.4074	3,481.93	70.3982	3,481.93	73.0697	3,481.93	72.6996	3,481.93	61.1661	3,481.93	70.3313	3,481.93	68.3323	3,481.93	70.0986	3,481.93	65.3205	3,481.93	65.2219	3,481.93	58.3524
3,604.98	87.6567	3,604.98	88.168	3,604.98	87.5243	3,604.98	84.9255	3,604.98	87.2764	3,604.98	84.2612	3,604.98	84.4004	3,604.98	83.2699	3,604.98	83.2103	3,604.98	85.3294	3,604.98	83.4811	3,604.98	86.5644	3,604.98	85.9746	3,604.98	85.8674	3,604.98	85.1092	3,604.98	81.222	3,604.98	82.1453	3,604.98	78.6361	3,604.98	78.4908	3,604.98	76.2262	3,604.98	76.438	3,604.98	71.7757	3,604.98	73.7643	3,604.98	76.6714	3,604.98	75.3045	3,604.98	74.4321	3,604.98	75.6956	3,604.98	73.1224	3,604.98	74.6157	3,604.98	58.4694	3,604.98	69.9864	3,604.98	71.8916	3,604.98	72.3387	3,604.98	63.4097	3,604.98	66.6257	3,604.98	58.2436
3,732.42	87.0716	3,732.42	88.597	3,732.42	88.0123	3,732.42	85.1472	3,732.42	87.2042	3,732.42	84.7977	3,732.42	85.3685	3,732.42	84.229	3,732.42	84.27	3,732.42	84.7788	3,732.42	83.4813	3,732.42	86.3402	3,732.42	86.3943	3,732.42	85.7212	3,732.42	86.4483	3,732.42	80.5321	3,732.42	83.3127	3,732.42	79.2342	3,732.42	79.9509	3,732.42	74.3508	3,732.42	75.9277	3,732.42	72.5083	3,732.42	75.3295	3,732.42	76.0622	3,732.42	74.3327	3,732.42	75.2469	3,732.42	78.1642	3,732.42	70.4805	3,732.42	75.1911	3,732.42	45.3629	3,732.42	67.0862	3,732.42	68.8064	3,732.42	71.7415	3,732.42	66.2055	3,732.42	68.124	3,732.42	59.5148
3,864.26	86.6499	3,864.26	88.2819	3,864.26	87.1637	3,864.26	85.4943	3,864.26	85.7681	3,864.26	85.0843	3,864.26	85.1778	3,864.26	84.6404	3,864.26	84.3768	3,864.26	84.1759	3,864.26	83.1419	3,864.26	86.5964	3,864.26	86.0356	3,864.26	84.7965	3,864.26	85.6657	3,864.26	80.2572	3,864.26	82.4068	3,864.26	77.7229	3,864.26	77.9164	3,864.26	73.4332	3,864.26	72.8805	3,864.26	75.4035	3,864.26	71.8043	3,864.26	74.6391	3,864.26	73.9391	3,864.26	75.3628	3,864.26	74.747	3,864.26	71.851	3,864.26	73.9721	3,864.26	59.3385	3,864.26	59.5565	3,864.26	71.3221	3,864.26	70.8184	3,864.26	54.2803	3,864.26	64.1869	3,864.26	64.816
4,000.49	85.8966	4,000.49	87.1291	4,000.49	86.7876	4,000.49	84.7411	4,000.49	84.2397	4,000.49	85.2127	4,000.49	83.7982	4,000.49	83.6483	4,000.49	83.5818	4,000.49	83.5181	4,000.49	81.1099	4,000.49	84.7737	4,000.49	85.1775	4,000.49	82.349	4,000.49	84.9197	4,000.49	80.1192	4,000.49	80.2551	4,000.49	74.2146	4,000.49	77.9029	4,000.49	74.2087	4,000.49	74.4844	4,000.49	74.3599	4,000.49	70.3709	4,000.49	74.2884	4,000.49	74.1352	4,000.49	75.6303	4,000.49	74.7007	4,000.49	70.8408	4,000.49	72.6362	4,000.49	48.1382	4,000.49	57.6484	4,000.49	71.4531	4,000.49	69.4759	4,000.49	61.6771	4,000.49	59.1136	4,000.49	57.004
4,141.11	87.3441	4,141.11	86.8087	4,141.11	86.8551	4,141.11	84.1813	4,141.11	84.5575	4,141.11	84.9834	4,141.11	84.1062	4,141.11	84.2933	4,141.11	85.5325	4,141.11	82.8149	4,141.11	82.2319	4,141.11	85.3755	4,141.11	84.8684	4,141.11	83.4686	4,141.11	84.5569	4,141.11	82.1154	4,141.11	82.4434	4,141.11	75.8899	4,141.11	79.2784	4,141.11	73.6698	4,141.11	75.034	4,141.11	73.0235	4,141.11	74.1389	4,141.11	72.4903	4,141.11	74.2567	4,141.11	74.8289	4,141.11	74.6442	4,141.11	71.3086	4,141.11	69.4831	4,141.11	53.5023	4,141.11	59.9559	4,141.11	71.162	4,141.11	71.143	4,141.11	58.6932	4,141.11	55.7544	4,141.11	63.0026
4,287.6	89.2846	4,287.6	85.5438	4,287.6	87.7123	4,287.6	85.5311	4,287.6	85.5214	4,287.6	86.2688	4,287.6	85.6679	4,287.6	84.5575	4,287.6	86.7315	4,287.6	82.0949	4,287.6	82.3306	4,287.6	85.8513	4,287.6	85.1618	4,287.6	85.8675	4,287.6	84.8142	4,287.6	83.3365	4,287.6	82.8922	4,287.6	79.6015	4,287.6	79.7201	4,287.6	77.0831	4,287.6	74.2631	4,287.6	74.8714	4,287.6	75.1924	4,287.6	75.2728	4,287.6	72.6363	4,287.6	73.8726	4,287.6	72.7525	4,287.6	69.7961	4,287.6	68.3086	4,287.6	62.4139	4,287.6	59.5933	4,287.6	69.6149	4,287.6	71.1473	4,287.6	58.2481	4,287.6	63.0147	4,287.6	62.0589
4,438.48	90.4837	4,438.48	84.1111	4,438.48	87.4211	4,438.48	87.1508	4,438.48	86.0342	4,438.48	86.9152	4,438.48	86.97	4,438.48	84.894	4,438.48	87.4587	4,438.48	80.9582	4,438.48	82.8111	4,438.48	86.4811	4,438.48	84.7614	4,438.48	86.8163	4,438.48	86.0877	4,438.48	82.9405	4,438.48	84.1937	4,438.48	79.2763	4,438.48	80.341	4,438.48	74.363	4,438.48	76.532	4,438.48	75.7269	4,438.48	73.387	4,438.48	76.5221	4,438.48	77.0234	4,438.48	75.5164	4,438.48	77.0225	4,438.48	69.4919	4,438.48	72.9152	4,438.48	56.9068	4,438.48	61.2591	4,438.48	66.6168	4,438.48	72.3733	4,438.48	58.4667	4,438.48	61.4578	4,438.48	59.5399
4,595.21	89.816	4,595.21	84.6444	4,595.21	84.5832	4,595.21	86.793	4,595.21	86.704	4,595.21	86.9863	4,595.21	87.1138	4,595.21	85.837	4,595.21	87.1276	4,595.21	81.6516	4,595.21	82.8506	4,595.21	85.721	4,595.21	84.5526	4,595.21	85.5406	4,595.21	86.0234	4,595.21	81.9252	4,595.21	83.3698	4,595.21	77.4828	4,595.21	79.0607	4,595.21	65.0336	4,595.21	74.9376	4,595.21	72.1647	4,595.21	73.4909	4,595.21	77.2793	4,595.21	76.3844	4,595.21	77.066	4,595.21	75.5682	4,595.21	62.4601	4,595.21	72.3456	4,595.21	66.3013	4,595.21	57.9464	4,595.21	72.456	4,595.21	69.5704	4,595.21	64.7551	4,595.21	62.3218	4,595.21	57.7227
4,756.35	89.5538	4,756.35	86.2132	4,756.35	86.586	4,756.35	85.5595	4,756.35	85.8699	4,756.35	87.8339	4,756.35	88.3215	4,756.35	86.8845	4,756.35	86.4034	4,756.35	82.3832	4,756.35	82.6348	4,756.35	84.8854	4,756.35	84.7552	4,756.35	84.0371	4,756.35	86.0393	4,756.35	81.179	4,756.35	83.3391	4,756.35	76.4307	4,756.35	77.3353	4,756.35	75.4695	4,756.35	74.7386	4,756.35	74.7348	4,756.35	76.2588	4,756.35	77.4756	4,756.35	76.2237	4,756.35	74.4619	4,756.35	73.2586	4,756.35	65.3464	4,756.35	66.9124	4,756.35	64.6706	4,756.35	58.9234	4,756.35	71.3381	4,756.35	68.546	4,756.35	65.9076	4,756.35	57.5191	4,756.35	51.8092
4,924.8	90.8434	4,924.8	87.6986	4,924.8	89.5608	4,924.8	88.9699	4,924.8	86.994	4,924.8	89.4873	4,924.8	89.6217	4,924.8	88.2826	4,924.8	86.0086	4,924.8	84.0186	4,924.8	80.4622	4,924.8	85.9398	4,924.8	84.8928	4,924.8	85.7141	4,924.8	86.9227	4,924.8	83.2211	4,924.8	83.399	4,924.8	78.623	4,924.8	79.3752	4,924.8	77.2332	4,924.8	75.8786	4,924.8	72.821	4,924.8	73.8334	4,924.8	76.6268	4,924.8	75.6187	4,924.8	72.9307	4,924.8	72.4445	4,924.8	67.8785	4,924.8	68.4739	4,924.8	57.8046	4,924.8	53.8899	4,924.8	70	4,924.8	66.4526	4,924.8	63.1049	4,924.8	54.3151	4,924.8	59.2739
5,097.66	90.9495	5,097.66	87.1263	5,097.66	89.7573	5,097.66	89.5832	5,097.66	85.7836	5,097.66	89.1145	5,097.66	88.4262	5,097.66	87.1605	5,097.66	86.9622	5,097.66	82.7922	5,097.66	82.0455	5,097.66	85.7756	5,097.66	82.9353	5,097.66	86.2578	5,097.66	86.8468	5,097.66	84.3342	5,097.66	83.6969	5,097.66	78.8941	5,097.66	80.6323	5,097.66	75.5473	5,097.66	75.5072	5,097.66	72.4861	5,097.66	68.7131	5,097.66	74.8524	5,097.66	75.1287	5,097.66	71.9328	5,097.66	71.8874	5,097.66	64.7014	5,097.66	66.775	5,097.66	65.7794	5,097.66	63.4849	5,097.66	68.656	5,097.66	69.5322	5,097.66	65.5978	5,097.66	43.8033	5,097.66	59.4748
5,277.83	90.6754	5,277.83	88.7001	5,277.83	89.254	5,277.83	87.8236	5,277.83	86.9127	5,277.83	89.3354	5,277.83	86.9351	5,277.83	86.4564	5,277.83	87.4635	5,277.83	79.5336	5,277.83	84.5507	5,277.83	85.225	5,277.83	81.3934	5,277.83	86.4976	5,277.83	85.4688	5,277.83	82.3873	5,277.83	84.1748	5,277.83	76.7935	5,277.83	79.9928	5,277.83	65.2392	5,277.83	73.86	5,277.83	71.5851	5,277.83	71.8818	5,277.83	76.3929	5,277.83	73.9561	5,277.83	73.1588	5,277.83	70.6041	5,277.83	64.2014	5,277.83	68.734	5,277.83	65.2549	5,277.83	62.2754	5,277.83	66.9526	5,277.83	68.3922	5,277.83	65.7799	5,277.83	47.8939	5,277.83	60.7878
5,463.87	90.0049	5,463.87	88.826	5,463.87	88.2002	5,463.87	85.1572	5,463.87	86.8252	5,463.87	88.9761	5,463.87	87.9692	5,463.87	85.8015	5,463.87	88.1022	5,463.87	81.7249	5,463.87	85.5105	5,463.87	85.1921	5,463.87	81.994	5,463.87	86.616	5,463.87	85.1729	5,463.87	82.7641	5,463.87	82.9944	5,463.87	79.9915	5,463.87	79.3555	5,463.87	77.6836	5,463.87	73.3735	5,463.87	71.7573	5,463.87	71.4439	5,463.87	76.0468	5,463.87	72.4152	5,463.87	73.2151	5,463.87	72.0944	5,463.87	59.2559	5,463.87	64.5216	5,463.87	69.8654	5,463.87	62.7641	5,463.87	65.8873	5,463.87	64.5753	5,463.87	59.7586	5,463.87	51.4964	5,463.87	60.0543
5,657.23	88.4977	5,657.23	88.9711	5,657.23	89.7263	5,657.23	85.158	5,657.23	85.7791	5,657.23	88.0754	5,657.23	89.9227	5,657.23	87.1523	5,657.23	87.4288	5,657.23	82.8302	5,657.23	84.0407	5,657.23	82.0812	5,657.23	81.858	5,657.23	84.1678	5,657.23	85.5004	5,657.23	81.3883	5,657.23	81.365	5,657.23	77.7129	5,657.23	78.8598	5,657.23	78.9174	5,657.23	76.116	5,657.23	75.5497	5,657.23	71.5028	5,657.23	76.2803	5,657.23	71.1786	5,657.23	71.8797	5,657.23	74.6461	5,657.23	54.7414	5,657.23	61.4009	5,657.23	62.6973	5,657.23	65.1793	5,657.23	66.4906	5,657.23	48.2572	5,657.23	58.1193	5,657.23	56.9016	5,657.23	56.1829
5,856.45	86.6644	5,856.45	87.8819	5,856.45	89.9201	5,856.45	86.7869	5,856.45	85.3752	5,856.45	88.0361	5,856.45	88.8166	5,856.45	88.4603	5,856.45	87.2406	5,856.45	84.009	5,856.45	83.7011	5,856.45	81.6628	5,856.45	78.9709	5,856.45	83.8325	5,856.45	84.5778	5,856.45	82.834	5,856.45	82.7272	5,856.45	76.884	5,856.45	78.5233	5,856.45	77.1052	5,856.45	75.8912	5,856.45	69.7592	5,856.45	68.6756	5,856.45	73.5628	5,856.45	71.1922	5,856.45	70.4464	5,856.45	75.4254	5,856.45	54.7464	5,856.45	64.2697	5,856.45	56.333	5,856.45	62.921	5,856.45	66.3835	5,856.45	63.986	5,856.45	63.4061	5,856.45	44.8922	5,856.45	64.6376
6,062.99	87.6968	6,062.99	88.1145	6,062.99	89.6371	6,062.99	87.5429	6,062.99	88.5132	6,062.99	88.3038	6,062.99	87.702	6,062.99	88.3681	6,062.99	88.4002	6,062.99	84.4557	6,062.99	85.1558	6,062.99	80.5583	6,062.99	79.0131	6,062.99	83.4299	6,062.99	83.8561	6,062.99	81.8285	6,062.99	83.8466	6,062.99	78.1789	6,062.99	79.7537	6,062.99	73.5499	6,062.99	73.9597	6,062.99	70.8095	6,062.99	66.263	6,062.99	72.2091	6,062.99	67.2883	6,062.99	70.1365	6,062.99	75.638	6,062.99	64.9462	6,062.99	64.7861	6,062.99	66.4457	6,062.99	63.782	6,062.99	58.5399	6,062.99	62.6652	6,062.99	66.9252	6,062.99	51.6939	6,062.99	60.8385
6,276.86	88.4361	6,276.86	87.3201	6,276.86	87.0524	6,276.86	87.1973	6,276.86	89.0669	6,276.86	87.1452	6,276.86	86.2391	6,276.86	87.7504	6,276.86	88.6519	6,276.86	84.4722	6,276.86	85.7305	6,276.86	81.6305	6,276.86	80.8531	6,276.86	84.4759	6,276.86	84.639	6,276.86	80.024	6,276.86	83.1645	6,276.86	78.903	6,276.86	79.6172	6,276.86	61.4845	6,276.86	70.9465	6,276.86	69.6225	6,276.86	66.889	6,276.86	65.1592	6,276.86	68.9095	6,276.86	70.3209	6,276.86	77.6196	6,276.86	65.5561	6,276.86	64.0113	6,276.86	67.7873	6,276.86	60.0198	6,276.86	63.249	6,276.86	58.9815	6,276.86	61.6167	6,276.86	60.3401	6,276.86	59.9038
6,498.05	88.7906	6,498.05	87.1857	6,498.05	88.0673	6,498.05	87.3414	6,498.05	88.162	6,498.05	86.5451	6,498.05	87.2867	6,498.05	86.3278	6,498.05	87.8493	6,498.05	83.7185	6,498.05	84.8782	6,498.05	77.7844	6,498.05	81.2457	6,498.05	85.0718	6,498.05	85.3338	6,498.05	80.0405	6,498.05	80.1814	6,498.05	76.454	6,498.05	79.3566	6,498.05	68.6076	6,498.05	68.8888	6,498.05	65.6263	6,498.05	70.6039	6,498.05	67.0441	6,498.05	71.3321	6,498.05	69.7597	6,498.05	76.0554	6,498.05	66.7317	6,498.05	65.0709	6,498.05	62.9738	6,498.05	58.5275	6,498.05	59.3814	6,498.05	57.947	6,498.05	64.5372	6,498.05	55.5865	6,498.05	46.3864
6,726.56	89.8411	6,726.56	87.9733	6,726.56	88.4775	6,726.56	89.4641	6,726.56	88.411	6,726.56	87.1456	6,726.56	87.6643	6,726.56	87.9099	6,726.56	88.5925	6,726.56	83.825	6,726.56	85.8813	6,726.56	77.7225	6,726.56	81.3756	6,726.56	84.5869	6,726.56	83.5238	6,726.56	82.4045	6,726.56	83.5002	6,726.56	74.0451	6,726.56	78.5813	6,726.56	73.6721	6,726.56	74.0172	6,726.56	69.926	6,726.56	69.271	6,726.56	68.9843	6,726.56	68.7804	6,726.56	70.4441	6,726.56	75.7087	6,726.56	62.3289	6,726.56	62.5382	6,726.56	64.9239	6,726.56	65.9571	6,726.56	59.4327	6,726.56	58.2369	6,726.56	62.9473	6,726.56	55.0969	6,726.56	58.525
6,963.87	89.9738	6,963.87	88.754	6,963.87	86.9474	6,963.87	89.23	6,963.87	89.4091	6,963.87	85.3674	6,963.87	85.4774	6,963.87	86.8639	6,963.87	88.5707	6,963.87	82.0279	6,963.87	87.308	6,963.87	79.1606	6,963.87	82.3549	6,963.87	79.4974	6,963.87	80.3918	6,963.87	81.6173	6,963.87	82.5207	6,963.87	72.1423	6,963.87	78.2496	6,963.87	73.6959	6,963.87	74.3644	6,963.87	69.8432	6,963.87	70.1424	6,963.87	65.9352	6,963.87	71.8259	6,963.87	70.828	6,963.87	74.4659	6,963.87	65.6426	6,963.87	56.7723	6,963.87	64.7769	6,963.87	68.3126	6,963.87	59.6325	6,963.87	63.2913	6,963.87	66.5795	6,963.87	53.9212	6,963.87	54.4316
7,209.96	89.9215	7,209.96	89.3753	7,209.96	89.3311	7,209.96	88.5172	7,209.96	89.9649	7,209.96	85.9968	7,209.96	86.6603	7,209.96	86.7394	7,209.96	87.7113	7,209.96	84.157	7,209.96	87.6655	7,209.96	80.0077	7,209.96	83.1186	7,209.96	80.7364	7,209.96	83.508	7,209.96	79.9156	7,209.96	82.4388	7,209.96	74.336	7,209.96	77.0573	7,209.96	67.2197	7,209.96	74.9014	7,209.96	69.9266	7,209.96	69.7672	7,209.96	66.6234	7,209.96	68.3865	7,209.96	66.7061	7,209.96	72.7858	7,209.96	66.1043	7,209.96	56.8043	7,209.96	46.9604	7,209.96	66.5683	7,209.96	61.476	7,209.96	48.3316	7,209.96	61.8398	7,209.96	55.5151	7,209.96	49.9823
7,464.84	89.9156	7,464.84	89.4082	7,464.84	91.0317	7,464.84	87.8119	7,464.84	89.6099	7,464.84	87.0493	7,464.84	88.448	7,464.84	85.9918	7,464.84	86.5781	7,464.84	84.2746	7,464.84	86.1993	7,464.84	77.0852	7,464.84	82.1245	7,464.84	79.8806	7,464.84	83.8654	7,464.84	77.7194	7,464.84	80.8214	7,464.84	73.9805	7,464.84	77.2937	7,464.84	68.3076	7,464.84	74.9209	7,464.84	66.7396	7,464.84	69.3466	7,464.84	64.9484	7,464.84	64.4511	7,464.84	68.1545	7,464.84	72.1396	7,464.84	58.5731	7,464.84	62.2505	7,464.84	56.6393	7,464.84	63.6718	7,464.84	57.8261	7,464.84	56.1157	7,464.84	54.3785	7,464.84	59.6771	7,464.84	55.6692
7,727.05	89.7471	7,727.05	88.9256	7,727.05	90.9563	7,727.05	88.2767	7,727.05	89.212	7,727.05	87.2465	7,727.05	89.207	7,727.05	86.3583	7,727.05	86.3865	7,727.05	82.5869	7,727.05	86.6896	7,727.05	75.6448	7,727.05	81.2521	7,727.05	79.8637	7,727.05	81.8291	7,727.05	77.7325	7,727.05	80.8499	7,727.05	75.3237	7,727.05	77.9783	7,727.05	70.6642	7,727.05	73.5252	7,727.05	63.8241	7,727.05	63.7181	7,727.05	62.1224	7,727.05	60.0896	7,727.05	69.843	7,727.05	73.4503	7,727.05	61.0879	7,727.05	56.9615	7,727.05	60.3325	7,727.05	61.2341	7,727.05	55.3039	7,727.05	58.9426	7,727.05	56.8458	7,727.05	53.2194	7,727.05	49.3831
7,999.51	90.5563	7,999.51	89.8309	7,999.51	90.1405	7,999.51	89.9176	7,999.51	90.2725	7,999.51	86.5348	7,999.51	88.6616	7,999.51	85.807	7,999.51	86.4485	7,999.51	81.4944	7,999.51	87.8295	7,999.51	78.4432	7,999.51	80.7642	7,999.51	80.5062	7,999.51	80.5472	7,999.51	77.9761	7,999.51	81.5361	7,999.51	73.3506	7,999.51	78.1967	7,999.51	64.8879	7,999.51	71.5149	7,999.51	54.7347	7,999.51	64.9755	7,999.51	60.3841	7,999.51	63.4288	7,999.51	64.814	7,999.51	73.9603	7,999.51	64.4535	7,999.51	65.7435	7,999.51	57.6722	7,999.51	57.4131	7,999.51	55.3534	7,999.51	57.3752	7,999.51	58.2423	7,999.51	53.8203	7,999.51	57.6844
8,282.23	89.8016	8,282.23	89.4506	8,282.23	89.7922	8,282.23	88.9198	8,282.23	89.6451	8,282.23	86.6796	8,282.23	88.4783	8,282.23	85.0386	8,282.23	85.452	8,282.23	82.1682	8,282.23	87.4512	8,282.23	79.3304	8,282.23	80.0614	8,282.23	78.2754	8,282.23	80.4763	8,282.23	75.2924	8,282.23	80.1683	8,282.23	72.478	8,282.23	77.079	8,282.23	63.369	8,282.23	70.6354	8,282.23	63.2586	8,282.23	67.3541	8,282.23	57.1245	8,282.23	65.9174	8,282.23	65.0798	8,282.23	73.3629	8,282.23	60.106	8,282.23	65.9849	8,282.23	60.0273	8,282.23	57.9606	8,282.23	47.67	8,282.23	48.9838	8,282.23	49.4782	8,282.23	48.8603	8,282.23	47.0507
8,573.73	89.3932	8,573.73	89.3681	8,573.73	90.4886	8,573.73	88.8426	8,573.73	89.5305	8,573.73	86.8169	8,573.73	90.0434	8,573.73	83.8418	8,573.73	85.9343	8,573.73	85.2667	8,573.73	86.293	8,573.73	77.4111	8,573.73	80.1832	8,573.73	78.2255	8,573.73	79.631	8,573.73	76.2736	8,573.73	80.996	8,573.73	73.0739	8,573.73	77.6568	8,573.73	61.2053	8,573.73	70.9496	8,573.73	64.9744	8,573.73	66.8718	8,573.73	64.9835	8,573.73	57.1243	8,573.73	65.7469	8,573.73	68.8846	8,573.73	63.1345	8,573.73	64.9748	8,573.73	54.0921	8,573.73	56.0218	8,573.73	55.9416	8,573.73	39.494	8,573.73	39.3159	8,573.73	35.9411	8,573.73	58.8698
8,876.95	88.7187	8,876.95	88.6157	8,876.95	89.1294	8,876.95	88.073	8,876.95	89.0436	8,876.95	86.0603	8,876.95	89.568	8,876.95	83.0931	8,876.95	85.3477	8,876.95	84.8143	8,876.95	85.129	8,876.95	77	8,876.95	80.6674	8,876.95	77.409	8,876.95	76.1006	8,876.95	77.2282	8,876.95	80.276	8,876.95	71.1812	8,876.95	75.5832	8,876.95	64.6553	8,876.95	71.2602	8,876.95	65.7593	8,876.95	65.354	8,876.95	65.9532	8,876.95	62.6602	8,876.95	64.4146	8,876.95	68.8274	8,876.95	61.2671	8,876.95	61.7059	8,876.95	50.4072	8,876.95	53.8927	8,876.95	54.9227	8,876.95	48.5773	8,876.95	35.2561	8,876.95	54.3945	8,876.95	60.5393
9,188.96	88.5066	9,188.96	89.3753	9,188.96	89.5444	9,188.96	87.3861	9,188.96	88.4357	9,188.96	86.8871	9,188.96	88.7814	9,188.96	84.3497	9,188.96	85.6335	9,188.96	84.0674	9,188.96	85.2692	9,188.96	79.0331	9,188.96	81.0813	9,188.96	75.5874	9,188.96	76.5744	9,188.96	76.5858	9,188.96	79.1846	9,188.96	69.8119	9,188.96	73.109	9,188.96	64.6493	9,188.96	70.4615	9,188.96	62.1127	9,188.96	65.4582	9,188.96	66.3696	9,188.96	64.177	9,188.96	63.3599	9,188.96	69.4957	9,188.96	47.5405	9,188.96	63.6896	9,188.96	54.7516	9,188.96	55.7045	9,188.96	48.2889	9,188.96	56.5562	9,188.96	56.8049	9,188.96	56.6931	9,188.96	56.7727
9,514.16	88.6955	9,514.16	88.7853	9,514.16	88.8339	9,514.16	87.9048	9,514.16	88.6419	9,514.16	85.984	9,514.16	87.9068	9,514.16	84.0713	9,514.16	85.2618	9,514.16	83.3212	9,514.16	83.1885	9,514.16	76.809	9,514.16	79.6988	9,514.16	75.0314	9,514.16	74.0782	9,514.16	76.3052	9,514.16	77.444	9,514.16	69.2577	9,514.16	70.68	9,514.16	64.419	9,514.16	67.5664	9,514.16	61.6897	9,514.16	61.2071	9,514.16	62.7731	9,514.16	58.9381	9,514.16	63.2711	9,514.16	68.0033	9,514.16	59.4207	9,514.16	60.9542	9,514.16	45.6378	9,514.16	56.4208	9,514.16	55.0263	9,514.16	61.2742	9,514.16	56.2165	9,514.16	56.9533	9,514.16	53.5811
9,849.61	89.2001	9,849.61	88.6284	9,849.61	89.1785	9,849.61	87.102	9,849.61	87.9573	9,849.61	86.5076	9,849.61	87.265	9,849.61	83.267	9,849.61	86.1519	9,849.61	83.291	9,849.61	82.6552	9,849.61	73.7649	9,849.61	80.7741	9,849.61	74.5082	9,849.61	72.042	9,849.61	75.6937	9,849.61	78.5059	9,849.61	69.3907	9,849.61	70.4416	9,849.61	64.3018	9,849.61	68.6847	9,849.61	62.8484	9,849.61	62.5605	9,849.61	58.6274	9,849.61	60.3442	9,849.61	53.805	9,849.61	68.1376	9,849.61	54.9238	9,849.61	57.0888	9,849.61	49.5236	9,849.61	50.8259	9,849.61	53.7574	9,849.61	57.7687	9,849.61	54.4212	9,849.61	53.9485	9,849.61	52.2531
10,196.8	89.0731	10,196.8	88.6599	10,196.8	88.9552	10,196.8	87.522	10,196.8	88.0036	10,196.8	86.625	10,196.8	86.2785	10,196.8	83.9539	10,196.8	85.6506	10,196.8	82.891	10,196.8	82.873	10,196.8	76.3863	10,196.8	80.2022	10,196.8	73.0292	10,196.8	72.6243	10,196.8	75.0047	10,196.8	75.9565	10,196.8	69.9167	10,196.8	69.9917	10,196.8	62.713	10,196.8	67.4619	10,196.8	63.9456	10,196.8	59.5941	10,196.8	60.7928	10,196.8	53.7054	10,196.8	55.07	10,196.8	63.3306	10,196.8	58.9883	10,196.8	55.7657	10,196.8	51.3864	10,196.8	54.7882	10,196.8	60.3797	10,196.8	49.635	10,196.8	50.698	10,196.8	52.2367	10,196.8	47.8325
10,555.7	90.1526	10,555.7	89.1558	10,555.7	89.3219	10,555.7	88.2348	10,555.7	89.0764	10,555.7	86.2204	10,555.7	86.1516	10,555.7	83.9182	10,555.7	85.7436	10,555.7	82.9379	10,555.7	82.2817	10,555.7	75.4201	10,555.7	80.4628	10,555.7	72.2568	10,555.7	69.5353	10,555.7	75.4658	10,555.7	75.0784	10,555.7	67.878	10,555.7	68.8841	10,555.7	62.2898	10,555.7	67.1025	10,555.7	63.6145	10,555.7	60.3713	10,555.7	60.2888	10,555.7	48.6272	10,555.7	48.3607	10,555.7	63.1477	10,555.7	57.8681	10,555.7	53.8404	10,555.7	51.5707	10,555.7	58.0482	10,555.7	58.7241	10,555.7	48.8451	10,555.7	54.1272	10,555.7	38.1104	10,555.7	47.6219
10,927.7	90.4957	10,927.7	89.3232	10,927.7	90.1765	10,927.7	87.8899	10,927.7	88.6341	10,927.7	86.8412	10,927.7	86.6528	10,927.7	83.8437	10,927.7	86.4423	10,927.7	81.7076	10,927.7	80.9712	10,927.7	75.0535	10,927.7	80.8995	10,927.7	72.1732	10,927.7	70.4156	10,927.7	73.6891	10,927.7	73.9278	10,927.7	69.9526	10,927.7	69.1521	10,927.7	63.4982	10,927.7	66.158	10,927.7	61.3202	10,927.7	58.9801	10,927.7	57.0581	10,927.7	46.4966	10,927.7	51.6512	10,927.7	58.7014	10,927.7	57.9958	10,927.7	45.1452	10,927.7	50.4295	10,927.7	55.4907	10,927.7	54.6469	10,927.7	49.7274	10,927.7	51.9046	10,927.7	47.6263	10,927.7	50.636
11,313	90.353	11,313	89.2824	11,313	89.9012	11,313	87.9166	11,313	88.2208	11,313	86.325	11,313	86.3799	11,313	83.6469	11,313	85.097	11,313	80.0246	11,313	80.9865	11,313	76.4903	11,313	79.6399	11,313	71.1674	11,313	69.9438	11,313	74.9295	11,313	72.4891	11,313	68.7844	11,313	69.1864	11,313	61.304	11,313	63.8803	11,313	60.0014	11,313	57.8659	11,313	58.9749	11,313	50.3408	11,313	48.8891	11,313	44.6529	11,313	54.9792	11,313	43.8924	11,313	49.509	11,313	57.0213	11,313	50.3704	11,313	45.6204	11,313	48.6674	11,313	29.3214	11,313	52.388
11,712.9	90.694	11,712.9	89.8394	11,712.9	89.9411	11,712.9	88.4172	11,712.9	88.6924	11,712.9	86.7214	11,712.9	86.5147	11,712.9	84.9814	11,712.9	84.7858	11,712.9	78.4698	11,712.9	79.653	11,712.9	77.9674	11,712.9	78.7197	11,712.9	69.5578	11,712.9	69.5297	11,712.9	74.1588	11,712.9	70.6901	11,712.9	68.4859	11,712.9	66.9696	11,712.9	63.4165	11,712.9	62.2886	11,712.9	60.5892	11,712.9	58.425	11,712.9	57.3843	11,712.9	50.9402	11,712.9	51.983	11,712.9	46.7499	11,712.9	51.0075	11,712.9	49.8157	11,712.9	42.4611	11,712.9	55.4342	11,712.9	51.2245	11,712.9	45.837	11,712.9	55.907	11,712.9	39.6645	11,712.9	51.4419
12,126	90.8238	12,126	89.8926	12,126	90.0706	12,126	88.204	12,126	88.4165	12,126	86.3637	12,126	86.3673	12,126	84.2457	12,126	83.4935	12,126	78.1822	12,126	79.5889	12,126	77.0068	12,126	77.702	12,126	69.3	12,126	68.1204	12,126	72.015	12,126	68.7927	12,126	67.3835	12,126	65.908	12,126	60.9538	12,126	62.1201	12,126	58.3846	12,126	56.1314	12,126	53.7192	12,126	45.928	12,126	52.9742	12,126	53.1655	12,126	49.4728	12,126	48.8355	12,126	49.8216	12,126	51.5066	12,126	50.848	12,126	41.108	12,126	48.5773	12,126	40.7828	12,126	43.3929
12,553.7	90.9821	12,553.7	89.9051	12,553.7	90.2944	12,553.7	88.6113	12,553.7	88.8991	12,553.7	86.5775	12,553.7	86.4532	12,553.7	83.9821	12,553.7	82.7929	12,553.7	77.5531	12,553.7	78.9205	12,553.7	75.5696	12,553.7	75.5898	12,553.7	68.1188	12,553.7	66.6083	12,553.7	68.5367	12,553.7	64.1647	12,553.7	64.4382	12,553.7	63.6409	12,553.7	59.9278	12,553.7	55.4571	12,553.7	56.7836	12,553.7	52.4401	12,553.7	51.7443	12,553.7	38.3739	12,553.7	53.8914	12,553.7	51.9462	12,553.7	50.1324	12,553.7	50.0429	12,553.7	49.2358	12,553.7	43.7049	12,553.7	47.1534	12,553.7	46.0066	12,553.7	32.9922	12,553.7	47.2047	12,553.7	46.2398
12,996.1	91.4577	12,996.1	90.515	12,996.1	90.7909	12,996.1	88.6945	12,996.1	89.2498	12,996.1	86.1902	12,996.1	86.4593	12,996.1	82.7003	12,996.1	82.7776	12,996.1	75.8092	12,996.1	78.2997	12,996.1	72.8595	12,996.1	75.1897	12,996.1	62.8232	12,996.1	57.8841	12,996.1	66.9913	12,996.1	62.4365	12,996.1	61.9699	12,996.1	64.5308	12,996.1	55.0696	12,996.1	59.8067	12,996.1	49.4332	12,996.1	53.0454	12,996.1	52.7217	12,996.1	48.5569	12,996.1	50.5017	12,996.1	54.4606	12,996.1	49.1392	12,996.1	50.7444	12,996.1	46.5389	12,996.1	48.338	12,996.1	45.6041	12,996.1	44.895	12,996.1	47.4248	12,996.1	37.5699	12,996.1	42.2307
13,454.6	91.6992	13,454.6	90.5248	13,454.6	91.0462	13,454.6	88.6676	13,454.6	89.3389	13,454.6	85.661	13,454.6	86.4859	13,454.6	80.6172	13,454.6	82.076	13,454.6	72.8347	13,454.6	77.8059	13,454.6	64.6874	13,454.6	74.7109	13,454.6	56.9982	13,454.6	61.7746	13,454.6	54.2355	13,454.6	58.8054	13,454.6	61.2083	13,454.6	66.106	13,454.6	51.4218	13,454.6	61.071	13,454.6	53.7453	13,454.6	53.0999	13,454.6	53.6674	13,454.6	42.5586	13,454.6	49.2955	13,454.6	49.8201	13,454.6	50.5941	13,454.6	45.8128	13,454.6	47.955	13,454.6	52.6035	13,454.6	48.835	13,454.6	44.6841	13,454.6	49.264	13,454.6	47.1787	13,454.6	48.0502
13,929.2	91.6272	13,929.2	90.3808	13,929.2	91.1823	13,929.2	88.279	13,929.2	89.352	13,929.2	84.3415	13,929.2	86.1217	13,929.2	79.2569	13,929.2	81.7657	13,929.2	59.3607	13,929.2	77.4317	13,929.2	70.4592	13,929.2	72.8208	13,929.2	65.993	13,929.2	60.1322	13,929.2	63.1162	13,929.2	53.0347	13,929.2	62.4905	13,929.2	67.7406	13,929.2	55.8647	13,929.2	58.7754	13,929.2	32.2323	13,929.2	53.6012	13,929.2	54.0972	13,929.2	47.284	13,929.2	36.3019	13,929.2	55.9147	13,929.2	46.6144	13,929.2	49.7622	13,929.2	50.3368	13,929.2	60.1042	13,929.2	32.7472	13,929.2	55.4819	13,929.2	49.4731	13,929.2	39.6174	13,929.2	48.5344
14,419.9	91.447	14,419.9	90.1565	14,419.9	91.0311	14,419.9	87.7025	14,419.9	89.1113	14,419.9	82.4924	14,419.9	85.698	14,419.9	75.9113	14,419.9	81.653	14,419.9	69.6666	14,419.9	75.9125	14,419.9	73.4916	14,419.9	68.8964	14,419.9	70.4378	14,419.9	70.2687	14,419.9	55.596	14,419.9	60.2297	14,419.9	66.3904	14,419.9	67.2015	14,419.9	57.9752	14,419.9	62.4183	14,419.9	56.3355	14,419.9	54.2941	14,419.9	52.7146	14,419.9	49.9155	14,419.9	51.0374	14,419.9	57.1876	14,419.9	49.6952	14,419.9	51.0924	14,419.9	50.352	14,419.9	57.7658	14,419.9	45.107	14,419.9	55.1493	14,419.9	50.0914	14,419.9	47.8386	14,419.9	39.7259
14,928.2	91.1561	14,928.2	89.799	14,928.2	91.1203	14,928.2	86.6534	14,928.2	88.9774	14,928.2	81.2353	14,928.2	84.8336	14,928.2	72.1586	14,928.2	81.2222	14,928.2	75.1578	14,928.2	73.0567	14,928.2	76.9083	14,928.2	66.2985	14,928.2	73.3526	14,928.2	72.1723	14,928.2	64.4693	14,928.2	61.1415	14,928.2	68.2358	14,928.2	68.3895	14,928.2	57.5515	14,928.2	61.4761	14,928.2	52.636	14,928.2	55.3692	14,928.2	57.7371	14,928.2	45.0787	14,928.2	38.2298	14,928.2	60.3945	14,928.2	40.2289	14,928.2	52.7732	14,928.2	54.2242	14,928.2	56.092	14,928.2	47.3811	14,928.2	58.2201	14,928.2	44.0607	14,928.2	49.2691	14,928.2	43.1918
15,455.6	90.7567	15,455.6	89.7225	15,455.6	90.61	15,455.6	85.0342	15,455.6	88.4006	15,455.6	79.1645	15,455.6	84.8999	15,455.6	71.9981	15,455.6	80.693	15,455.6	77.449	15,455.6	70.7915	15,455.6	76.8177	15,455.6	68.3989	15,455.6	74.1319	15,455.6	73.8654	15,455.6	56.0447	15,455.6	65.4752	15,455.6	66.1529	15,455.6	67.6932	15,455.6	57.4355	15,455.6	56.7444	15,455.6	55.5705	15,455.6	50.6079	15,455.6	54.2778	15,455.6	51.467	15,455.6	47.1731	15,455.6	57.0134	15,455.6	31.7858	15,455.6	53.1315	15,455.6	45.2665	15,455.6	48.5755	15,455.6	44.8803	15,455.6	51.9322	15,455.6	49.2787	15,455.6	39.8029	15,455.6	40.5881
16,000.5	90.0648	16,000.5	89.2418	16,000.5	90.7306	16,000.5	83.7069	16,000.5	88.1998	16,000.5	78.3112	16,000.5	84.3031	16,000.5	73.9231	16,000.5	79.4945	16,000.5	77.6065	16,000.5	71.3344	16,000.5	77.4208	16,000.5	73.28	16,000.5	75.0398	16,000.5	74.5325	16,000.5	64.1403	16,000.5	67.6531	16,000.5	65.6616	16,000.5	67.0439	16,000.5	53.6182	16,000.5	60.8121	16,000.5	46.0357	16,000.5	53.9486	16,000.5	54.9889	16,000.5	56.3168	16,000.5	37.6129	16,000.5	58.768	16,000.5	48.5488	16,000.5	50.564	16,000.5	54.6326	16,000.5	52.6841	16,000.5	53.5897	16,000.5	54.1783	16,000.5	47.6451	16,000.5	47.6631	16,000.5	47.7593
16,564.5	89.8083	16,564.5	88.4895	16,564.5	90.2215	16,564.5	82.8622	16,564.5	87.7162	16,564.5	77.0338	16,564.5	84.2715	16,564.5	75.594	16,564.5	76.6715	16,564.5	76.6908	16,564.5	70.4648	16,564.5	76.0345	16,564.5	74.8543	16,564.5	75.3067	16,564.5	76.7067	16,564.5	66.1621	16,564.5	69.5882	16,564.5	63.5067	16,564.5	65.7733	16,564.5	54.4712	16,564.5	58.4583	16,564.5	42.1758	16,564.5	50.7119	16,564.5	50.4903	16,564.5	55.3503	16,564.5	46.9874	16,564.5	58.7786	16,564.5	52.6693	16,564.5	52.2002	16,564.5	57.077	16,564.5	56.1907	16,564.5	45.9786	16,564.5	53.7099	16,564.5	44.3346	16,564.5	44.5589	16,564.5	46.5653
17,148.9	89.2973	17,148.9	87.5242	17,148.9	89.4179	17,148.9	83.2021	17,148.9	86.8718	17,148.9	74.3709	17,148.9	82.2294	17,148.9	76.7203	17,148.9	74.7494	17,148.9	75.4069	17,148.9	74.6988	17,148.9	76.7412	17,148.9	78.5787	17,148.9	73.9658	17,148.9	78.7714	17,148.9	66.8163	17,148.9	70.3365	17,148.9	58.5754	17,148.9	64.8671	17,148.9	52.0552	17,148.9	53.19	17,148.9	38.0843	17,148.9	45.0442	17,148.9	50.5018	17,148.9	51.0037	17,148.9	37.1412	17,148.9	49.6605	17,148.9	47.1836	17,148.9	49.1157	17,148.9	51.0725	17,148.9	49.3717	17,148.9	37.1801	17,148.9	53.011	17,148.9	52.3499	17,148.9	39.4848	17,148.9	41.9177
17,752.4	88.8402	17,752.4	86.2752	17,752.4	88.9696	17,752.4	81.8098	17,752.4	86.5234	17,752.4	73.0098	17,752.4	80.0368	17,752.4	76.5698	17,752.4	73.1067	17,752.4	75.8109	17,752.4	76.1984	17,752.4	78.1428	17,752.4	78.7074	17,752.4	74.9119	17,752.4	79.1065	17,752.4	69.6121	17,752.4	70.5594	17,752.4	56.7966	17,752.4	64.0136	17,752.4	46.1482	17,752.4	54.3016	17,752.4	55.5741	17,752.4	48.052	17,752.4	47.6143	17,752.4	46.1416	17,752.4	47.9779	17,752.4	47.0146	17,752.4	54.1296	17,752.4	45.5555	17,752.4	41.955	17,752.4	37.6818	17,752.4	49.2213	17,752.4	44.4277	17,752.4	52.0018	17,752.4	31.0071	17,752.4	33.1066
18,379.4	87.984	18,379.4	85.5176	18,379.4	87.322	18,379.4	80.7989	18,379.4	84.9593	18,379.4	74.6799	18,379.4	77.4796	18,379.4	78.1932	18,379.4	71.7686	18,379.4	78.3559	18,379.4	77.1086	18,379.4	79.2269	18,379.4	79.9189	18,379.4	75.5711	18,379.4	79.3269	18,379.4	69.4485	18,379.4	70.5605	18,379.4	57.7343	18,379.4	60.736	18,379.4	53.8529	18,379.4	49.4321	18,379.4	56.6053	18,379.4	49.4108	18,379.4	47.4704	18,379.4	36.1407	18,379.4	50.0906	18,379.4	54.1814	18,379.4	48.6857	18,379.4	49.1206	18,379.4	50.4281	18,379.4	37.4112	18,379.4	41.8145	18,379.4	29.6586	18,379.4	50.7521	18,379.4	29.937	18,379.4	46.0613
19,026.9	86.829	19,026.9	83.813	19,026.9	85.9545	19,026.9	79.4805	19,026.9	83.4968	19,026.9	75.915	19,026.9	74.8033	19,026.9	79.4744	19,026.9	71.6421	19,026.9	78.9306	19,026.9	78.827	19,026.9	78.7242	19,026.9	79.6272	19,026.9	74.3758	19,026.9	78.5198	19,026.9	68.9789	19,026.9	68.7009	19,026.9	56.928	19,026.9	54.6297	19,026.9	48.9542	19,026.9	48.7353	19,026.9	55.039	19,026.9	44.5335	19,026.9	45.5593	19,026.9	43.8274	19,026.9	53.7246	19,026.9	57.3516	19,026.9	48.0247	19,026.9	48.4322	19,026.9	50.0554	19,026.9	33.0256	19,026.9	45.7857	19,026.9	43.634	19,026.9	49.3521	19,026.9	42.6339	19,026.9	46.8821
19,697.8	84.8233	19,697.8	82.5471	19,697.8	83.7064	19,697.8	78.6807	19,697.8	80.1705	19,697.8	76.1818	19,697.8	70.9554	19,697.8	79.5852	19,697.8	70.5673	19,697.8	78.8107	19,697.8	77.6243	19,697.8	77.6831	19,697.8	76.9585	19,697.8	73.3453	19,697.8	76.0021	19,697.8	69.1758	19,697.8	66.8991	19,697.8	50.172	19,697.8	47.7034	19,697.8	42.8823	19,697.8	45.3834	19,697.8	46.6134	19,697.8	44.2682	19,697.8	42.1838	19,697.8	49.3693	19,697.8	53.8246	19,697.8	52.5011	19,697.8	49.1475	19,697.8	46.6721	19,697.8	47.3731	19,697.8	45.9285	19,697.8	42.6604	19,697.8	40.9717	19,697.8	48.9108	19,697.8	45.3823	19,697.8	33.9191
19,999.5	83.9033	19,999.5	81.5235	19,999.5	82.7709	19,999.5	77.0274	19,999.5	78.4593	19,999.5	75.0532	19,999.5	68.0388	19,999.5	79.6399	19,999.5	70.673	19,999.5	77.7761	19,999.5	76.7162	19,999.5	77.2661	19,999.5	75.8333	19,999.5	74.3365	19,999.5	74.542	19,999.5	68.1347	19,999.5	68.7345	19,999.5	57.2933	19,999.5	49.4931	19,999.5	43.5756	19,999.5	46.202	19,999.5	50.8464	19,999.5	49.5074	19,999.5	43.9139	19,999.5	51.033	19,999.5	53.937	19,999.5	53.1286	19,999.5	43.9684	19,999.5	39.9755	19,999.5	46.852	19,999.5	46.4533	19,999.5	43.1827	19,999.5	47.5312	19,999.5	46.6599	19,999.5	51.3437	19,999.5	46.2583
