"SPL Vertical"
"On-Axis"		"10°"		"-10°"		"20°"		"-20°"		"30°"		"-30°"		"40°"		"-40°"		"50°"		"-50°"		"60°"		"-60°"		"70°"		"-70°"		"80°"		"-80°"		"90°"		"-90°"		"100°"		"-100°"		"110°"		"-110°"		"120°"		"-120°"		"130°"		"-130°"		"140°"		"-140°"		"150°"		"-150°"		"160°"		"-160°"		"170°"		"-170°"		"180°"
"Frequency [Hz]"	"Sound Pessure Level [dB]   [2.83V at 1m]"	"Frequency [Hz]"	"Sound Pessure Level [dB]   [2.83V at 1m]"	"Frequency [Hz]"	"Sound Pessure Level [dB]   [2.83V at 1m]"	"Frequency [Hz]"	"Sound Pessure Level [dB]   [2.83V at 1m]"	"Frequency [Hz]"	"Sound Pessure Level [dB]   [2.83V at 1m]"	"Frequency [Hz]"	"Sound Pessure Level [dB]   [2.83V at 1m]"	"Frequency [Hz]"	"Sound Pessure Level [dB]   [2.83V at 1m]"	"Frequency [Hz]"	"Sound Pessure Level [dB]   [2.83V at 1m]"	"Frequency [Hz]"	"Sound Pessure Level [dB]   [2.83V at 1m]"	"Frequency [Hz]"	"Sound Pessure Level [dB]   [2.83V at 1m]"	"Frequency [Hz]"	"Sound Pessure Level [dB]   [2.83V at 1m]"	"Frequency [Hz]"	"Sound Pessure Level [dB]   [2.83V at 1m]"	"Frequency [Hz]"	"Sound Pessure Level [dB]   [2.83V at 1m]"	"Frequency [Hz]"	"Sound Pessure Level [dB]   [2.83V at 1m]"	"Frequency [Hz]"	"Sound Pessure Level [dB]   [2.83V at 1m]"	"Frequency [Hz]"	"Sound Pessure Level [dB]   [2.83V at 1m]"	"Frequency [Hz]"	"Sound Pessure Level [dB]   [2.83V at 1m]"	"Frequency [Hz]"	"Sound Pessure Level [dB]   [2.83V at 1m]"	"Frequency [Hz]"	"Sound Pessure Level [dB]   [2.83V at 1m]"	"Frequency [Hz]"	"Sound Pessure Level [dB]   [2.83V at 1m]"	"Frequency [Hz]"	"Sound Pessure Level [dB]   [2.83V at 1m]"	"Frequency [Hz]"	"Sound Pessure Level [dB]   [2.83V at 1m]"	"Frequency [Hz]"	"Sound Pessure Level [dB]   [2.83V at 1m]"	"Frequency [Hz]"	"Sound Pessure Level [dB]   [2.83V at 1m]"	"Frequency [Hz]"	"Sound Pessure Level [dB]   [2.83V at 1m]"	"Frequency [Hz]"	"Sound Pessure Level [dB]   [2.83V at 1m]"	"Frequency [Hz]"	"Sound Pessure Level [dB]   [2.83V at 1m]"	"Frequency [Hz]"	"Sound Pessure Level [dB]   [2.83V at 1m]"	"Frequency [Hz]"	"Sound Pessure Level [dB]   [2.83V at 1m]"	"Frequency [Hz]"	"Sound Pessure Level [dB]   [2.83V at 1m]"	"Frequency [Hz]"	"Sound Pessure Level [dB]   [2.83V at 1m]"	"Frequency [Hz]"	"Sound Pessure Level [dB]   [2.83V at 1m]"	"Frequency [Hz]"	"Sound Pessure Level [dB]   [2.83V at 1m]"	"Frequency [Hz]"	"Sound Pessure Level [dB]   [2.83V at 1m]"	"Frequency [Hz]"	"Sound Pessure Level [dB]   [2.83V at 1m]"	"Frequency [Hz]"	"Sound Pessure Level [dB]   [2.83V at 1m]"
20.5078	50.9379	20.5078	50.5561	20.5078	51.4342	20.5078	50.2854	20.5078	52.0271	20.5078	50.1059	20.5078	52.6792	20.5078	49.9898	20.5078	53.3425	20.5078	49.9098	20.5078	53.9678	20.5078	49.8438	20.5078	54.5114	20.5078	49.7765	20.5078	54.9391	20.5078	49.7001	20.5078	55.2272	20.5078	49.6142	20.5078	55.3629	20.5078	49.5265	20.5078	55.3431	20.5078	49.453	20.5078	55.1735	20.5078	49.4188	20.5078	54.8671	20.5078	49.4551	20.5078	54.4421	20.5078	49.5942	20.5078	53.9201	20.5078	49.8592	20.5078	53.3248	20.5078	50.2559	20.5078	52.6818	20.5078	50.7697	20.5078	52.0194	20.5078	51.3699
21.9727	53.1134	21.9727	52.8037	21.9727	53.5251	21.9727	52.5898	21.9727	54.0266	21.9727	52.4524	21.9727	54.5877	21.9727	52.3671	21.9727	55.1662	21.9727	52.3104	21.9727	55.7157	21.9727	52.2641	21.9727	56.1931	21.9727	52.2164	21.9727	56.563	21.9727	52.1625	21.9727	56.8004	21.9727	52.1042	21.9727	56.8913	21.9727	52.0489	21.9727	56.8325	21.9727	52.0095	21.9727	56.6318	21.9727	52.002	21.9727	56.3059	21.9727	52.0433	21.9727	55.8796	21.9727	52.1483	21.9727	55.3831	21.9727	52.3272	21.9727	54.8494	21.9727	52.5846	21.9727	54.3108	21.9727	52.9195	21.9727	53.7956	21.9727	53.3266
23.4375	55.8282	23.4375	55.3136	23.4375	56.4413	23.4375	54.9128	23.4375	57.1228	23.4375	54.6253	23.4375	57.8333	23.4375	54.4385	23.4375	58.5306	23.4375	54.3348	23.4375	59.1759	23.4375	54.2973	23.4375	59.7366	23.4375	54.3143	23.4375	60.1886	23.4375	54.3808	23.4375	60.5166	23.4375	54.498	23.4375	60.714	23.4375	54.6717	23.4375	60.7822	23.4375	54.9097	23.4375	60.7296	23.4375	55.2181	23.4375	60.5695	23.4375	55.5981	23.4375	60.3173	23.4375	56.0437	23.4375	59.9888	23.4375	56.5412	23.4375	59.5977	23.4375	57.072	23.4375	59.1551	23.4375	57.6157	23.4375	58.6706	23.4375	58.1536
24.9023	58.1344	24.9023	57.8869	24.9023	58.4627	24.9023	57.719	24.9023	58.861	24.9023	57.6202	24.9023	59.3068	24.9023	57.5748	24.9023	59.7697	24.9023	57.5667	24.9023	60.2158	24.9023	57.5822	24.9023	60.6136	24.9023	57.6115	24.9023	60.9364	24.9023	57.6499	24.9023	61.1654	24.9023	57.6973	24.9023	61.2906	24.9023	57.758	24.9023	61.3103	24.9023	57.8387	24.9023	61.2311	24.9023	57.9473	24.9023	61.0663	24.9023	58.0901	24.9023	60.8337	24.9023	58.2701	24.9023	60.5536	24.9023	58.486	24.9023	60.2457	24.9023	58.7336	24.9023	59.9267	24.9023	59.007	24.9023	59.6089	24.9023	59.3004
26.3672	58.21	26.3672	57.7326	26.3672	58.7678	26.3672	57.3576	26.3672	59.3751	26.3672	57.0956	26.3672	59.9968	26.3672	56.9455	26.3672	60.5977	26.3672	56.8971	26.3672	61.1457	26.3672	56.9353	26.3672	61.6141	26.3672	57.0441	26.3672	61.9824	26.3672	57.2092	26.3672	62.2379	26.3672	57.4194	26.3672	62.3757	26.3672	57.6663	26.3672	62.3987	26.3672	57.9437	26.3672	62.3173	26.3672	58.2461	26.3672	62.1473	26.3672	58.5683	26.3672	61.9083	26.3672	58.9043	26.3672	61.6208	26.3672	59.2484	26.3672	61.3033	26.3672	59.5955	26.3672	60.9701	26.3672	59.9422	26.3672	60.6301	26.3672	60.2872
27.832	60.7176	27.832	60.3121	27.832	61.175	27.832	59.9753	27.832	61.6617	27.832	59.7164	27.832	62.1515	27.832	59.538	27.832	62.6166	27.832	59.4362	27.832	63.0302	27.832	59.4032	27.832	63.3687	27.832	59.4291	27.832	63.6132	27.832	59.5039	27.832	63.7515	27.832	59.6181	27.832	63.779	27.832	59.7638	27.832	63.6995	27.832	59.9341	27.832	63.5254	27.832	60.1232	27.832	63.276	27.832	60.326	27.832	62.9759	27.832	60.5383	27.832	62.6509	27.832	60.7571	27.832	62.3241	27.832	60.9816	27.832	62.0123	27.832	61.214	27.832	61.7239	27.832	61.4594
29.2969	63.5291	29.2969	63.161	29.2969	63.9131	29.2969	62.8181	29.2969	64.3007	29.2969	62.5063	29.2969	64.6761	29.2969	62.229	29.2969	65.0213	29.2969	61.9876	29.2969	65.3167	29.2969	61.7826	29.2969	65.543	29.2969	61.6131	29.2969	65.6832	29.2969	61.4783	29.2969	65.7239	29.2969	61.3768	29.2969	65.6574	29.2969	61.3078	29.2969	65.4829	29.2969	61.2708	29.2969	65.207	29.2969	61.2665	29.2969	64.8437	29.2969	61.2974	29.2969	64.4138	29.2969	61.3681	29.2969	63.943	29.2969	61.4855	29.2969	63.4597	29.2969	61.6576	29.2969	62.9922	29.2969	61.8926	29.2969	62.5649	29.2969	62.1954
30.7617	64.9566	30.7617	64.6456	30.7617	65.2922	30.7617	64.3656	30.7617	65.642	30.7617	64.1192	30.7617	65.9912	30.7617	63.9063	30.7617	66.3223	30.7617	63.7253	30.7617	66.6154	30.7617	63.5738	30.7617	66.851	30.7617	63.4496	30.7617	67.0116	30.7617	63.3512	30.7617	67.0839	30.7617	63.2783	30.7617	67.0601	30.7617	63.2318	30.7617	66.9395	30.7617	63.2138	30.7617	66.7282	30.7617	63.2274	30.7617	66.439	30.7617	63.2767	30.7617	66.0902	30.7617	63.366	30.7617	65.7034	30.7617	63.5	30.7617	65.3012	30.7617	63.6828	30.7617	64.9053	30.7617	63.9167	30.7617	64.5342	30.7617	64.2018
32.2266	66.2502	32.2266	65.9641	32.2266	66.5602	32.2266	65.7078	32.2266	66.884	32.2266	65.4842	32.2266	67.2082	32.2266	65.2933	32.2266	67.5161	32.2266	65.1338	32.2266	67.7896	32.2266	65.0036	32.2266	68.0104	32.2266	64.9008	32.2266	68.1624	32.2266	64.8237	32.2266	68.233	32.2266	64.7716	32.2266	68.2156	32.2266	64.7447	32.2266	68.1097	32.2266	64.7439	32.2266	67.9216	32.2266	64.771	32.2266	67.6635	32.2266	64.8284	32.2266	67.3527	32.2266	64.9194	32.2266	67.0089	32.2266	65.0474	32.2266	66.6525	32.2266	65.2156	32.2266	66.3026	32.2266	65.4265	32.2266	65.9748	32.2266	65.6805
33.6914	67.3749	33.6914	67.0658	33.6914	67.703	33.6914	66.7833	33.6914	68.0394	33.6914	66.5321	33.6914	68.3706	33.6914	66.3144	33.6914	68.6807	33.6914	66.131	33.6914	68.9526	33.6914	65.9812	33.6914	69.1693	33.6914	65.8642	33.6914	69.316	33.6914	65.779	33.6914	69.3812	33.6914	65.7247	33.6914	69.3586	33.6914	65.7012	33.6914	69.2482	33.6914	65.7088	33.6914	69.0561	33.6914	65.7483	33.6914	68.7943	33.6914	65.8214	33.6914	68.4793	33.6914	65.9301	33.6914	68.1303	33.6914	66.0767	33.6914	67.7671	33.6914	66.2634	33.6914	67.4083	33.6914	66.4918	33.6914	67.0693	33.6914	66.7615
35.1562	68.9607	35.1562	68.6696	35.1562	69.2677	35.1562	68.4007	35.1562	69.5819	35.1562	68.1578	35.1562	69.8917	35.1562	67.9432	35.1562	70.1831	35.1562	67.758	35.1562	70.4407	35.1562	67.6027	35.1562	70.649	35.1562	67.4773	35.1562	70.7938	35.1562	67.3821	35.1562	70.8643	35.1562	67.3175	35.1562	70.8543	35.1562	67.2843	35.1562	70.7631	35.1562	67.2842	35.1562	70.5956	35.1562	67.3193	35.1562	70.3615	35.1562	67.3922	35.1562	70.0741	35.1562	67.5058	35.1562	69.7492	35.1562	67.6626	35.1562	69.4032	35.1562	67.8638	35.1562	69.0523	35.1562	68.1087	35.1562	68.7114	35.1562	68.3935
36.6211	70.4095	36.6211	70.1342	36.6211	70.695	36.6211	69.8757	36.6211	70.982	36.6211	69.6387	36.6211	71.2598	36.6211	69.4264	36.6211	71.516	36.6211	69.2411	36.6211	71.7368	36.6211	69.0842	36.6211	71.9087	36.6211	68.9567	36.6211	72.0198	36.6211	68.8594	36.6211	72.061	36.6211	68.7931	36.6211	72.0279	36.6211	68.7584	36.6211	71.921	36.6211	68.7562	36.6211	71.7463	36.6211	68.7876	36.6211	71.5143	36.6211	68.8538	36.6211	71.239	36.6211	68.956	36.6211	70.936	36.6211	69.0951	36.6211	70.6206	36.6211	69.2713	36.6211	70.3071	36.6211	69.484	36.6211	70.0074	36.6211	69.7308
38.0859	71.4919	38.0859	71.241	38.0859	71.7537	38.0859	71.0068	38.0859	72.0186	38.0859	70.7932	38.0859	72.2763	38.0859	70.6026	38.0859	72.5148	38.0859	70.4363	38.0859	72.7212	38.0859	70.2948	38.0859	72.8823	38.0859	70.1785	38.0859	72.9867	38.0859	70.0877	38.0859	73.0258	38.0859	70.0232	38.0859	72.9952	38.0859	69.9859	38.0859	72.8956	38.0859	69.9774	38.0859	72.7327	38.0859	69.9995	38.0859	72.5165	38.0859	70.0542	38.0859	72.2602	38.0859	70.1433	38.0859	71.9782	38.0859	70.2684	38.0859	71.6847	38.0859	70.4298	38.0859	71.3929	38.0859	70.6265	38.0859	71.1137	38.0859	70.856
39.5508	72.4449	39.5508	72.2403	39.5508	72.6613	39.5508	72.0514	39.5508	72.8835	39.5508	71.8803	39.5508	73.1029	39.5508	71.7279	39.5508	73.3088	39.5508	71.5945	39.5508	73.4889	39.5508	71.4801	39.5508	73.6303	39.5508	71.3847	39.5508	73.7217	39.5508	71.3087	39.5508	73.7543	39.5508	71.2526	39.5508	73.7237	39.5508	71.2175	39.5508	73.6307	39.5508	71.2046	39.5508	73.481	39.5508	71.2155	39.5508	73.2848	39.5508	71.2518	39.5508	73.0552	39.5508	71.3155	39.5508	72.8065	39.5508	71.4079	39.5508	72.5525	39.5508	71.5302	39.5508	72.3049	39.5508	71.6827	39.5508	72.0734	39.5508	71.8645
41.0156	73.1402	41.0156	72.9233	41.0156	73.3698	41.0156	72.7241	41.0156	73.6048	41.0156	72.5456	41.0156	73.8359	41.0156	72.3897	41.0156	74.0515	41.0156	72.2569	41.0156	74.2393	41.0156	72.1476	41.0156	74.3869	41.0156	72.0619	41.0156	74.4833	41.0156	71.9999	41.0156	74.5208	41.0156	71.9617	41.0156	74.4958	41.0156	71.9477	41.0156	74.4097	41.0156	71.9581	41.0156	74.2689	41.0156	71.9933	41.0156	74.0837	41.0156	72.0535	41.0156	73.867	41.0156	72.1389	41.0156	73.6323	41.0156	72.2495	41.0156	73.392	41.0156	72.3852	41.0156	73.1565	41.0156	72.5453	41.0156	72.9337	41.0156	72.7288
42.4805	73.7166	42.4805	73.4612	42.4805	73.9827	42.4805	73.2237	42.4805	74.2503	42.4805	73.0096	42.4805	74.5084	42.4805	72.8225	42.4805	74.7447	42.4805	72.6647	42.4805	74.9465	42.4805	72.5372	42.4805	75.1015	42.4805	72.4402	42.4805	75.1995	42.4805	72.3734	42.4805	75.2332	42.4805	72.3362	42.4805	75.1996	42.4805	72.3278	42.4805	75.1007	42.4805	72.3471	42.4805	74.9431	42.4805	72.3936	42.4805	74.7377	42.4805	72.4666	42.4805	74.4977	42.4805	72.566	42.4805	74.2374	42.4805	72.692	42.4805	73.9702	42.4805	72.8446	42.4805	73.7076	42.4805	73.024	42.4805	73.4585	42.4805	73.2293
43.9453	74.9711	43.9453	74.7251	43.9453	75.2241	43.9453	74.4938	43.9453	75.4754	43.9453	74.2832	43.9453	75.7147	43.9453	74.0978	43.9453	75.9312	43.9453	73.9412	43.9453	76.1134	43.9453	73.8154	43.9453	76.2509	43.9453	73.7218	43.9453	76.3348	43.9453	73.6607	43.9453	76.3592	43.9453	73.6318	43.9453	76.3224	43.9453	73.6341	43.9453	76.227	43.9453	73.6662	43.9453	76.0803	43.9453	73.7262	43.9453	75.893	43.9453	73.8121	43.9453	75.6778	43.9453	73.9217	43.9453	75.4475	43.9453	74.0532	43.9453	75.2135	43.9453	74.2048	43.9453	74.9845	43.9453	74.3749	43.9453	74.7664	43.9453	74.5625
45.4102	75.6468	45.4102	75.4067	45.4102	75.8882	45.4102	75.1748	45.4102	76.123	45.4102	74.9569	45.4102	76.3418	45.4102	74.7575	45.4102	76.5345	45.4102	74.5803	45.4102	76.6904	45.4102	74.428	45.4102	76.7997	45.4102	74.3027	45.4102	76.8536	45.4102	74.2055	45.4102	76.8466	45.4102	74.137	45.4102	76.7766	45.4102	74.097	45.4102	76.6465	45.4102	74.0853	45.4102	76.4635	45.4102	74.101	45.4102	76.2388	45.4102	74.1436	45.4102	75.9862	45.4102	74.2127	45.4102	75.7204	45.4102	74.3085	45.4102	75.4552	45.4102	74.4314	45.4102	75.202	45.4102	74.5823	45.4102	74.9691	45.4102	74.7617
46.875	76.3596	46.875	76.1285	46.875	76.5912	46.875	75.9043	46.875	76.8159	46.875	75.6921	46.875	77.025	46.875	75.4959	46.875	77.2088	46.875	75.319	46.875	77.3571	46.875	75.1639	46.875	77.4603	46.875	75.0327	46.875	77.5101	46.875	74.9268	46.875	77.5006	46.875	74.8473	46.875	77.4299	46.875	74.7948	46.875	77.3002	46.875	74.7698	46.875	77.1183	46.875	74.7728	46.875	76.8948	46.875	74.804	46.875	76.6428	46.875	74.8639	46.875	76.3765	46.875	74.9535	46.875	76.1095	46.875	75.0734	46.875	75.8533	46.875	75.2243	46.875	75.6167	46.875	75.4059
48.3398	76.9842	48.3398	76.7583	48.3398	77.2116	48.3398	76.5403	48.3398	77.4332	48.3398	76.3353	48.3398	77.6405	48.3398	76.1476	48.3398	77.8242	48.3398	75.9804	48.3398	77.9748	48.3398	75.8365	48.3398	78.083	48.3398	75.7177	48.3398	78.141	48.3398	75.6253	48.3398	78.1435	48.3398	75.5602	48.3398	78.0885	48.3398	75.5227	48.3398	77.978	48.3398	75.5129	48.3398	77.818	48.3398	75.5307	48.3398	77.6177	48.3398	75.5762	48.3398	77.3888	48.3398	75.6491	48.3398	77.1436	48.3398	75.7496	48.3398	76.8942	48.3398	75.8778	48.3398	76.6513	48.3398	76.0335	48.3398	76.4232	48.3398	76.216
51.2695	78.0971	51.2695	77.8868	51.2695	78.3097	51.2695	77.6849	51.2695	78.5174	51.2695	77.4961	51.2695	78.7122	51.2695	77.3244	51.2695	78.8851	51.2695	77.1725	51.2695	79.0271	51.2695	77.0428	51.2695	79.1297	51.2695	76.9369	51.2695	79.1858	51.2695	76.8559	51.2695	79.1908	51.2695	76.8007	51.2695	79.1436	51.2695	76.7717	51.2695	79.0464	51.2695	76.7691	51.2695	78.9053	51.2695	76.7932	51.2695	78.729	51.2695	76.8438	51.2695	78.5276	51.2695	76.9206	51.2695	78.3117	51.2695	77.0232	51.2695	78.091	51.2695	77.1507	51.2695	77.8738	51.2695	77.3019	51.2695	77.6667	51.2695	77.4748
52.7344	78.5917	52.7344	78.3733	52.7344	78.8126	52.7344	78.164	52.7344	79.0284	52.7344	77.9693	52.7344	79.2306	52.7344	77.7939	52.7344	79.4102	52.7344	77.6414	52.7344	79.5585	52.7344	77.5144	52.7344	79.6671	52.7344	77.4149	52.7344	79.7296	52.7344	77.344	52.7344	79.742	52.7344	77.3024	52.7344	79.7036	52.7344	77.2899	52.7344	79.6171	52.7344	77.3061	52.7344	79.4886	52.7344	77.3502	52.7344	79.3262	52.7344	77.4209	52.7344	79.1392	52.7344	77.517	52.7344	78.9369	52.7344	77.6369	52.7344	78.7274	52.7344	77.7789	52.7344	78.5178	52.7344	77.9409	52.7344	78.3139	52.7344	78.1202
54.1992	79.204	54.1992	78.9818	54.1992	79.425	54.1992	78.7653	54.1992	79.6367	54.1992	78.5607	54.1992	79.8307	54.1992	78.3733	54.1992	79.9981	54.1992	78.2072	54.1992	80.1301	54.1992	78.0658	54.1992	80.219	54.1992	77.9515	54.1992	80.2589	54.1992	77.8658	54.1992	80.2463	54.1992	77.8094	54.1992	80.1814	54.1992	77.7824	54.1992	80.068	54.1992	77.7845	54.1992	79.9135	54.1992	77.8145	54.1992	79.7277	54.1992	77.8712	54.1992	79.5217	54.1992	77.9532	54.1992	79.3063	54.1992	78.0588	54.1992	79.0905	54.1992	78.1863	54.1992	78.8813	54.1992	78.334	54.1992	78.6835	54.1992	78.5004
55.6641	79.8024	55.6641	79.5916	55.6641	80.01	55.6641	79.3843	55.6641	80.207	55.6641	79.1863	55.6641	80.3855	55.6641	79.0027	55.6641	80.5373	55.6641	78.8374	55.6641	80.6544	55.6641	78.694	55.6641	80.7297	55.6641	78.5749	55.6641	80.7576	55.6641	78.4819	55.6641	80.7353	55.6641	78.416	55.6641	80.6628	55.6641	78.3775	55.6641	80.5439	55.6641	78.3665	55.6641	80.3855	55.6641	78.3824	55.6641	80.1973	55.6641	78.4243	55.6641	79.9899	55.6641	78.4911	55.6641	79.7741	55.6641	78.5818	55.6641	79.5594	55.6641	78.6952	55.6641	79.3532	55.6641	78.8302	55.6641	79.161	55.6641	78.9859
58.5938	80.6569	58.5938	80.4482	58.5938	80.8619	58.5938	80.2425	58.5938	81.0558	58.5938	80.0458	58.5938	81.231	58.5938	79.8635	58.5938	81.3796	58.5938	79.7001	58.5938	81.494	58.5938	79.5592	58.5938	81.5679	58.5938	79.4437	58.5938	81.5961	58.5938	79.3555	58.5938	81.5763	58.5938	79.2957	58.5938	81.509	58.5938	79.2645	58.5938	81.398	58.5938	79.2617	58.5938	81.2501	58.5938	79.286	58.5938	81.0741	58.5938	79.3362	58.5938	80.8798	58.5938	79.4106	58.5938	80.6769	58.5938	79.5076	58.5938	80.4736	58.5938	79.6255	58.5938	80.2765	58.5938	79.763	58.5938	80.0904	58.5938	79.9184
60.0586	81.1275	60.0586	80.9189	60.0586	81.3314	60.0586	80.7124	60.0586	81.5233	60.0586	80.514	60.0586	81.6956	60.0586	80.3294	60.0586	81.8408	60.0586	80.1632	60.0586	81.9516	60.0586	80.0193	60.0586	82.0217	60.0586	79.9009	60.0586	82.0466	60.0586	79.8099	60.0586	82.0241	60.0586	79.7477	60.0586	81.955	60.0586	79.7147	60.0586	81.8433	60.0586	79.7105	60.0586	81.6956	60.0586	79.7341	60.0586	81.5206	60.0586	79.784	60.0586	81.3279	60.0586	79.8587	60.0586	81.1265	60.0586	79.9564	60.0586	80.9245	60.0586	80.0752	60.0586	80.7282	60.0586	80.2136	60.0586	80.5422	60.0586	80.3699
62.9883	82.0295	62.9883	81.8242	62.9883	82.2278	62.9883	81.6186	62.9883	82.4121	62.9883	81.419	62.9883	82.5751	62.9883	81.2311	62.9883	82.7099	62.9883	81.0601	62.9883	82.8098	62.9883	80.9104	62.9883	82.8694	62.9883	80.7855	62.9883	82.8847	62.9883	80.6882	62.9883	82.8544	62.9883	80.6202	62.9883	82.7797	62.9883	80.5822	62.9883	82.665	62.9883	80.5743	62.9883	82.5171	62.9883	80.5954	62.9883	82.3442	62.9883	80.644	62.9883	82.1555	62.9883	80.7181	62.9883	81.9595	62.9883	80.8153	62.9883	81.7634	62.9883	80.9334	62.9883	81.5729	62.9883	81.0702	62.9883	81.392	62.9883	81.2237
64.4531	82.4445	64.4531	82.2434	64.4531	82.638	64.4531	82.0413	64.4531	82.8169	64.4531	81.8445	64.4531	82.9743	64.4531	81.6588	64.4531	83.1032	64.4531	81.4895	64.4531	83.1974	64.4531	81.3412	64.4531	83.2519	64.4531	81.2176	64.4531	83.2631	64.4531	81.1215	64.4531	83.2299	64.4531	81.0548	64.4531	83.1542	64.4531	81.0183	64.4531	83.0404	64.4531	81.0119	64.4531	82.8953	64.4531	81.0344	64.4531	82.7274	64.4531	81.084	64.4531	82.5453	64.4531	81.1584	64.4531	82.3571	64.4531	81.2549	64.4531	82.1694	64.4531	81.371	64.4531	81.9873	64.4531	81.5042	64.4531	81.8142	64.4531	81.6526
67.3828	83.2295	67.3828	83.0437	67.3828	83.4057	67.3828	82.8545	67.3828	83.5661	67.3828	82.6678	67.3828	83.7039	67.3828	82.4889	67.3828	83.8128	67.3828	82.3225	67.3828	83.8869	67.3828	82.1729	67.3828	83.9215	67.3828	82.0437	67.3828	83.9134	67.3828	81.9377	67.3828	83.862	67.3828	81.8569	67.3828	83.7692	67.3828	81.8025	67.3828	83.6398	67.3828	81.7748	67.3828	83.4812	67.3828	81.7735	67.3828	83.3024	67.3828	81.7974	67.3828	83.1125	67.3828	81.8453	67.3828	82.9203	67.3828	81.9154	67.3828	82.7331	67.3828	82.0064	67.3828	82.5561	67.3828	82.1171	67.3828	82.3931	67.3828	82.2463
68.8477	83.4799	68.8477	83.296	68.8477	83.6552	68.8477	83.1096	68.8477	83.8153	68.8477	82.9266	68.8477	83.9536	68.8477	82.7522	68.8477	84.0638	68.8477	82.5911	68.8477	84.1399	68.8477	82.4472	68.8477	84.1772	68.8477	82.3238	68.8477	84.1727	68.8477	82.2234	68.8477	84.1257	68.8477	82.1477	68.8477	84.0379	68.8477	82.0978	68.8477	83.9142	68.8477	82.0736	68.8477	83.7615	68.8477	82.0749	68.8477	83.5883	68.8477	82.1005	68.8477	83.4037	68.8477	82.1494	68.8477	83.216	68.8477	82.2201	68.8477	83.0324	68.8477	82.3113	68.8477	82.858	68.8477	82.4219	68.8477	82.6966	68.8477	82.5507
71.7773	83.9016	71.7773	83.7184	71.7773	84.0761	71.7773	83.5329	71.7773	84.2351	71.7773	83.3513	71.7773	84.372	71.7773	83.1791	71.7773	84.4805	71.7773	83.0215	71.7773	84.555	71.7773	82.8824	71.7773	84.5913	71.7773	82.7653	71.7773	84.5869	71.7773	82.6726	71.7773	84.5416	71.7773	82.6057	71.7773	84.458	71.7773	82.5654	71.7773	84.3409	71.7773	82.5512	71.7773	84.1974	71.7773	82.5624	71.7773	84.0356	71.7773	82.5972	71.7773	83.8639	71.7773	82.654	71.7773	83.6896	71.7773	82.7307	71.7773	83.5187	71.7773	82.8255	71.7773	83.3555	71.7773	82.9367	71.7773	83.203	71.7773	83.0629
74.707	84.2792	74.707	84.097	74.707	84.4511	74.707	83.9111	74.707	84.606	74.707	83.7277	74.707	84.7375	74.707	83.5527	74.707	84.8395	74.707	83.3915	74.707	84.9069	74.707	83.2486	74.707	84.9361	74.707	83.1275	74.707	84.925	74.707	83.031	74.707	84.8741	74.707	82.9608	74.707	84.7862	74.707	82.9176	74.707	84.6664	74.707	82.9011	74.707	84.5219	74.707	82.9103	74.707	84.3607	74.707	82.9436	74.707	84.1906	74.707	82.9989	74.707	84.0185	74.707	83.0742	74.707	83.8502	74.707	83.1675	74.707	83.6896	74.707	83.2771	74.707	83.5394	74.707	83.4014
77.6367	84.5073	77.6367	84.3293	77.6367	84.6739	77.6367	84.1462	77.6367	84.8227	77.6367	83.9645	77.6367	84.9475	77.6367	83.7899	77.6367	85.0426	77.6367	83.6278	77.6367	85.1032	77.6367	83.4828	77.6367	85.1262	77.6367	83.3589	77.6367	85.11	77.6367	83.259	77.6367	85.0555	77.6367	83.1851	77.6367	84.9659	77.6367	83.1381	77.6367	84.8465	77.6367	83.1182	77.6367	84.7043	77.6367	83.1244	77.6367	84.5469	77.6367	83.1553	77.6367	84.3816	77.6367	83.2089	77.6367	84.2145	77.6367	83.2832	77.6367	84.0507	77.6367	83.376	77.6367	83.8935	77.6367	83.4851	77.6367	83.7456	77.6367	83.6089
79.1016	84.5413	79.1016	84.3663	79.1016	84.7049	79.1016	84.1865	79.1016	84.8509	79.1016	84.0078	79.1016	84.9731	79.1016	83.8359	79.1016	85.0658	79.1016	83.6762	79.1016	85.1245	79.1016	83.533	79.1016	85.1459	79.1016	83.4101	79.1016	85.1289	79.1016	83.3103	79.1016	85.0744	79.1016	83.2357	79.1016	84.9858	79.1016	83.1872	79.1016	84.8686	79.1016	83.1653	79.1016	84.7295	79.1016	83.1692	79.1016	84.5759	79.1016	83.1981	79.1016	84.4146	79.1016	83.2502	79.1016	84.2514	79.1016	83.3236	79.1016	84.0904	79.1016	83.4164	79.1016	83.935	79.1016	83.5261	79.1016	83.7877	79.1016	83.6506
82.0312	84.5229	82.0312	84.3437	82.0312	84.6911	82.0312	84.1603	82.0312	84.8411	82.0312	83.9796	82.0312	84.9663	82.0312	83.8078	82.0312	85.0608	82.0312	83.6503	82.0312	85.1199	82.0312	83.5118	82.0312	85.1406	82.0312	83.3956	82.0312	85.122	82.0312	83.3042	82.0312	85.0657	82.0312	83.2391	82.0312	84.9756	82.0312	83.2005	82.0312	84.8579	82.0312	83.188	82.0312	84.7199	82.0312	83.2005	82.0312	84.5693	82.0312	83.2362	82.0312	84.4132	82.0312	83.2933	82.0312	84.2569	82.0312	83.3695	82.0312	84.1042	82.0312	83.4623	82.0312	83.9577	82.0312	83.5695	82.0312	83.8188	82.0312	83.6889
84.9609	84.5871	84.9609	84.4025	84.9609	84.7587	84.9609	84.2126	84.9609	84.91	84.9609	84.025	84.9609	85.0345	84.9609	83.8467	84.9609	85.1264	84.9609	83.6844	84.9609	85.1817	84.9609	83.5434	84.9609	85.1979	84.9609	83.4278	84.9609	85.175	84.9609	83.3402	84.9609	85.115	84.9609	83.2818	84.9609	85.0225	84.9609	83.2522	84.9609	84.9038	84.9609	83.25	84.9609	84.7664	84.9609	83.2728	84.9609	84.618	84.9609	83.3177	84.9609	84.4653	84.9609	83.3816	84.9609	84.3138	84.9609	83.4614	84.9609	84.1671	84.9609	83.5545	84.9609	84.0274	84.9609	83.6587	84.9609	83.8958	84.9609	83.7728
87.8906	84.6235	87.8906	84.444	87.8906	84.7882	87.8906	84.2571	87.8906	84.9313	87.8906	84.0706	87.8906	85.0465	87.8906	83.8919	87.8906	85.1292	87.8906	83.7282	87.8906	85.1758	87.8906	83.5857	87.8906	85.185	87.8906	83.4694	87.8906	85.1574	87.8906	83.3826	87.8906	85.096	87.8906	83.3272	87.8906	85.0059	87.8906	83.303	87.8906	84.8938	87.8906	83.3083	87.8906	84.7671	87.8906	83.3401	87.8906	84.6325	87.8906	83.3946	87.8906	84.4959	87.8906	83.4675	87.8906	84.3611	87.8906	83.5545	87.8906	84.2304	87.8906	83.652	87.8906	84.1047	87.8906	83.7571	87.8906	83.9839	87.8906	83.8681
90.8203	84.6837	90.8203	84.5091	90.8203	84.8419	90.8203	84.3256	90.8203	84.977	90.8203	84.1407	90.8203	85.0833	90.8203	83.9621	90.8203	85.1562	90.8203	83.7969	90.8203	85.1929	90.8203	83.6518	90.8203	85.1926	90.8203	83.532	90.8203	85.157	90.8203	83.4417	90.8203	85.09	90.8203	83.3832	90.8203	84.9979	90.8203	83.3571	90.8203	84.8879	90.8203	83.3623	90.8203	84.7678	90.8203	83.396	90.8203	84.6441	90.8203	83.4542	90.8203	84.5212	90.8203	83.5321	90.8203	84.4013	90.8203	83.6246	90.8203	84.2848	90.8203	83.727	90.8203	84.1707	90.8203	83.835	90.8203	84.0579	90.8203	83.9459
95.2148	84.6548	95.2148	84.4811	95.2148	84.81	95.2148	84.2963	95.2148	84.9398	95.2148	84.1085	95.2148	85.0381	95.2148	83.9255	95.2148	85.1005	95.2148	83.7547	95.2148	85.1242	95.2148	83.6029	95.2148	85.1086	95.2148	83.4758	95.2148	85.0556	95.2148	83.3776	95.2148	84.9699	95.2148	83.3106	95.2148	84.8584	95.2148	83.2757	95.2148	84.73	95.2148	83.2714	95.2148	84.5935	95.2148	83.2952	95.2148	84.457	95.2148	83.3429	95.2148	84.326	95.2148	83.4097	95.2148	84.2032	95.2148	83.4907	95.2148	84.0886	95.2148	83.5812	95.2148	83.9807	95.2148	83.6772	95.2148	83.8772	95.2148	83.7762
98.1445	84.5447	98.1445	84.367	98.1445	84.7025	98.1445	84.1772	98.1445	84.8333	98.1445	83.9836	98.1445	84.9311	98.1445	83.7948	98.1445	84.9917	98.1445	83.6189	98.1445	85.0126	98.1445	83.4634	98.1445	84.9933	98.1445	83.3345	98.1445	84.9364	98.1445	83.2368	98.1445	84.8467	98.1445	83.1725	98.1445	84.7317	98.1445	83.142	98.1445	84.6002	98.1445	83.1434	98.1445	84.4615	98.1445	83.1731	98.1445	84.3237	98.1445	83.2261	98.1445	84.1927	98.1445	83.2969	98.1445	84.0713	98.1445	83.3798	98.1445	83.9596	98.1445	83.4702	98.1445	83.8555	98.1445	83.5641	98.1445	83.7563	98.1445	83.6597
101.074	84.4296	101.074	84.2516	101.074	84.5852	101.074	84.0585	101.074	84.7117	101.074	83.8585	101.074	84.8035	101.074	83.6598	101.074	84.8567	101.074	83.4707	101.074	84.8689	101.074	83.299	101.074	84.8401	101.074	83.1519	101.074	84.7729	101.074	83.0351	101.074	84.6723	101.074	82.9525	101.074	84.546	101.074	82.9058	101.074	84.4032	101.074	82.8943	101.074	84.2535	101.074	82.9152	101.074	84.1056	101.074	82.9635	101.074	83.9655	101.074	83.0331	101.074	83.8365	101.074	83.1175	101.074	83.7187	101.074	83.2107	101.074	83.6099	101.074	83.3081	101.074	83.507	101.074	83.407
105.469	84.2833	105.469	84.1088	105.469	84.434	105.469	83.9179	105.469	84.5546	105.469	83.7184	105.469	84.6398	105.469	83.5184	105.469	84.6861	105.469	83.326	105.469	84.6914	105.469	83.149	105.469	84.6563	105.469	82.9942	105.469	84.5835	105.469	82.8672	105.469	84.4784	105.469	82.7721	105.469	84.3485	105.469	82.7112	105.469	84.2026	105.469	82.6846	105.469	84.0497	105.469	82.6905	105.469	83.8976	105.469	82.7252	105.469	83.7518	105.469	82.784	105.469	83.6153	105.469	82.8609	105.469	83.4886	105.469	82.9507	105.469	83.3704	105.469	83.0486	105.469	83.2587	105.469	83.1516
108.398	84.1815	108.398	84.0085	108.398	84.3303	108.398	83.8186	108.398	84.4483	108.398	83.62	108.398	84.5302	108.398	83.4212	108.398	84.5724	108.398	83.2306	108.398	84.5734	108.398	83.0558	108.398	84.5339	108.398	82.9038	108.398	84.4572	108.398	82.7801	108.398	84.3493	108.398	82.6884	108.398	84.2182	108.398	82.6307	108.398	84.0733	108.398	82.6067	108.398	83.9235	108.398	82.6144	108.398	83.7764	108.398	82.6499	108.398	83.6368	108.398	82.7083	108.398	83.507	108.398	82.7839	108.398	83.3867	108.398	82.8712	108.398	83.2743	108.398	82.9659	108.398	83.1676	108.398	83.0651
112.793	83.9693	112.793	83.7893	112.793	84.124	112.793	83.5921	112.793	84.2462	112.793	83.3868	112.793	84.3306	112.793	83.1828	112.793	84.3736	112.793	82.9896	112.793	84.3737	112.793	82.8159	112.793	84.3322	112.793	82.6692	112.793	84.2531	112.793	82.5552	112.793	84.1434	112.793	82.4773	112.793	84.012	112.793	82.4363	112.793	83.8693	112.793	82.4305	112.793	83.7252	112.793	82.4563	112.793	83.5874	112.793	82.5082	112.793	83.4605	112.793	82.58	112.793	83.3453	112.793	82.6652	112.793	83.24	112.793	82.758	112.793	83.1412	112.793	82.8538	112.793	83.0453	112.793	82.9499
117.188	83.6677	117.188	83.4734	117.188	83.8322	117.188	83.2575	117.188	83.9598	117.188	83.0301	117.188	84.0453	117.188	82.8017	117.188	84.0857	117.188	82.5835	117.188	84.0803	117.188	82.386	117.188	84.0306	117.188	82.2185	117.188	83.9413	117.188	82.0881	117.188	83.8193	117.188	81.9988	117.188	83.674	117.188	81.9516	117.188	83.5157	117.188	81.944	117.188	83.3548	117.188	81.9713	117.188	83.1997	117.188	82.0268	117.188	83.0559	117.188	82.1032	117.188	82.9255	117.188	82.1932	117.188	82.8074	117.188	82.2909	117.188	82.6984	117.188	82.3916	117.188	82.5946	117.188	82.4929
120.117	83.7344	120.117	83.547	120.117	83.8876	120.117	83.3325	120.117	84.0007	120.117	83.0995	120.117	84.0699	120.117	82.858	120.117	84.093	120.117	82.6186	120.117	84.07	120.117	82.3924	120.117	84.0033	120.117	82.1902	120.117	83.898	120.117	82.0211	120.117	83.7616	120.117	81.8922	120.117	83.6036	120.117	81.8073	120.117	83.4341	120.117	81.7669	120.117	83.2628	120.117	81.768	120.117	83.0969	120.117	81.8052	120.117	82.9409	120.117	81.8714	120.117	82.7957	120.117	81.9591	120.117	82.6603	120.117	82.0614	120.117	82.5321	120.117	82.1726	120.117	82.4088	120.117	82.289
124.512	83.6422	124.512	83.4696	124.512	83.784	124.512	83.2731	124.512	83.8897	124.512	83.0609	124.512	83.9553	124.512	82.8419	124.512	83.9789	124.512	82.6262	124.512	83.9606	124.512	82.4239	124.512	83.9033	124.512	82.245	124.512	83.8123	124.512	82.0981	124.512	83.6951	124.512	81.9898	124.512	83.5612	124.512	81.9241	124.512	83.4204	124.512	81.9014	124.512	83.2812	124.512	81.919	124.512	83.1496	124.512	81.9713	124.512	83.0281	124.512	82.0509	124.512	82.9156	124.512	82.1496	124.512	82.809	124.512	82.2595	124.512	82.7041	124.512	82.3736	124.512	82.5975	124.512	82.4872
128.906	83.4047	128.906	83.2274	128.906	83.5481	128.906	83.0235	128.906	83.6516	128.906	82.8023	128.906	83.7115	128.906	82.5741	128.906	83.7265	128.906	82.3502	128.906	83.6978	128.906	82.1425	128.906	83.6298	128.906	81.9623	128.906	83.5297	128.906	81.8194	128.906	83.4077	128.906	81.7211	128.906	83.2751	128.906	81.6714	128.906	83.1435	128.906	81.6701	128.906	83.0222	128.906	81.7131	128.906	82.9161	128.906	81.793	128.906	82.8255	128.906	81.9001	128.906	82.7459	128.906	82.0238	128.906	82.6702	128.906	82.1535	128.906	82.5906	128.906	82.2803	128.906	82.5008	128.906	82.3973
133.301	83.2942	133.301	83.1256	133.301	83.4235	133.301	82.9245	133.301	83.5083	133.301	82.6994	133.301	83.5452	133.301	82.4599	133.301	83.5331	133.301	82.2173	133.301	83.4735	133.301	81.9839	133.301	83.371	133.301	81.7724	133.301	83.2339	133.301	81.5949	133.301	83.074	133.301	81.4618	133.301	82.9053	133.301	81.38	133.301	82.7425	133.301	81.3519	133.301	82.5979	133.301	81.3749	133.301	82.4786	133.301	81.4415	133.301	82.3852	133.301	81.5408	133.301	82.3117	133.301	81.6599	133.301	82.248	133.301	81.7857	133.301	82.183	133.301	81.9071	133.301	82.1074	133.301	82.0156
139.16	83.0037	139.16	82.8501	139.16	83.1226	139.16	82.6684	139.16	83.2013	139.16	82.4662	139.16	83.2357	139.16	82.2517	139.16	83.2235	139.16	82.0339	139.16	83.1651	139.16	81.8221	139.16	83.0632	139.16	81.6259	139.16	82.9239	139.16	81.4544	139.16	82.7563	139.16	81.3154	139.16	82.5719	139.16	81.2146	139.16	82.3839	139.16	81.1548	139.16	82.2049	139.16	81.1351	139.16	82.045	139.16	81.1511	139.16	81.9097	139.16	81.1956	139.16	81.7994	139.16	81.2599	139.16	81.7095	139.16	81.3347	139.16	81.6326	139.16	81.4126	139.16	81.5609	139.16	81.4885
143.555	82.6464	143.555	82.4745	143.555	82.7797	143.555	82.2722	143.555	82.8679	143.555	82.0493	143.555	82.9073	143.555	81.8169	143.555	82.8965	143.555	81.5868	143.555	82.8372	143.555	81.3707	143.555	82.7345	143.555	81.1797	143.555	82.5966	143.555	81.0234	143.555	82.4347	143.555	80.9084	143.555	82.2616	143.555	80.8383	143.555	82.0906	143.555	80.8127	143.555	81.9331	143.555	80.8275	143.555	81.7967	143.555	80.8758	143.555	81.6842	143.555	80.9486	143.555	81.5934	143.555	81.0361	143.555	81.5179	143.555	81.1293	143.555	81.4494	143.555	81.2205	143.555	81.3802	143.555	81.3046
147.949	82.8532	147.949	82.6749	147.949	82.9839	147.949	82.456	147.949	83.0621	147.949	82.2054	147.949	83.0851	147.949	81.9342	147.949	83.053	147.949	81.6549	147.949	82.9689	147.949	81.3821	147.949	82.8398	147.949	81.1311	147.949	82.676	147.949	80.917	147.949	82.4914	147.949	80.7529	147.949	82.3014	147.949	80.6477	147.949	82.1207	147.949	80.6048	147.949	81.9607	147.949	80.6207	147.949	81.827	147.949	80.6863	147.949	81.7188	147.949	80.7887	147.949	81.6304	147.949	80.9129	147.949	81.5524	147.949	81.0448	147.949	81.4747	147.949	81.1726	147.949	81.3885	147.949	81.2883
153.809	82.837	153.809	82.6875	153.809	82.9438	153.809	82.5018	153.809	83.0029	153.809	82.2877	153.809	83.0114	153.809	82.0544	153.809	82.9686	153.809	81.8123	153.809	82.8767	153.809	81.573	153.809	82.7418	153.809	81.3494	153.809	82.5739	153.809	81.1546	153.809	82.387	153.809	81.0009	153.809	82.1983	153.809	80.898	153.809	82.0255	153.809	80.8517	153.809	81.8832	153.809	80.8615	153.809	81.7791	153.809	80.9211	153.809	81.7115	153.809	81.0185	153.809	81.6707	153.809	81.1386	153.809	81.6414	153.809	81.2651	153.809	81.6078	153.809	81.3834	153.809	81.5573	153.809	81.4827
159.668	82.2987	159.668	82.1471	159.668	82.4108	159.668	81.9632	159.668	82.4774	159.668	81.7553	159.668	82.4944	159.668	81.532	159.668	82.4599	159.668	81.3024	159.668	82.3749	159.668	81.076	159.668	82.2434	159.668	80.8623	159.668	82.0731	159.668	80.6711	159.668	81.8749	159.668	80.5113	159.668	81.6629	159.668	80.3906	159.668	81.4531	159.668	80.3141	159.668	81.2609	159.668	80.2828	159.668	81.0987	159.668	80.2938	159.668	80.9726	159.668	80.3395	159.668	80.8807	159.668	80.4092	159.668	80.8144	159.668	80.4905	159.668	80.7608	159.668	80.5721	159.668	80.7074	159.668	80.6455
165.527	82.0692	165.527	81.8867	165.527	82.2006	165.527	81.6625	165.527	82.2742	165.527	81.409	165.527	82.2873	165.527	81.1404	165.527	82.2408	165.527	80.8717	165.527	82.1402	165.527	80.6179	165.527	81.995	165.527	80.3924	165.527	81.8187	165.527	80.2062	165.527	81.6273	165.527	80.0666	165.527	81.4372	165.527	79.977	165.527	81.2626	165.527	79.9369	165.527	81.1125	165.527	79.9422	165.527	80.9896	165.527	79.9863	165.527	80.8906	165.527	80.0607	165.527	80.8079	165.527	80.1558	165.527	80.7324	165.527	80.2622	165.527	80.6553	165.527	80.3711	165.527	80.5705	165.527	80.4753
171.387	82.2856	171.387	82.1001	171.387	82.4102	171.387	81.8591	171.387	82.4696	171.387	81.57	171.387	82.4615	171.387	81.242	171.387	82.386	171.387	80.8873	171.387	82.2462	171.387	80.5217	171.387	82.0501	171.387	80.1653	171.387	81.8104	171.387	79.8413	171.387	81.5451	171.387	79.5733	171.387	81.2756	171.387	79.382	171.387	81.0238	171.387	79.2795	171.387	80.8075	171.387	79.2666	171.387	80.6367	171.387	79.3326	171.387	80.511	171.387	79.4576	171.387	80.4211	171.387	79.6178	171.387	80.351	171.387	79.789	171.387	80.2826	171.387	79.951	171.387	80.1991	171.387	80.0896
177.246	82.3261	177.246	82.1524	177.246	82.449	177.246	81.9366	177.246	82.5144	177.246	81.6888	177.246	82.5182	177.246	81.4196	177.246	82.4601	177.246	81.1403	177.246	82.3435	177.246	80.8622	177.246	82.1766	177.246	80.5966	177.246	81.9721	177.246	80.3557	177.246	81.747	177.246	80.1513	177.246	81.521	177.246	79.9948	177.246	81.3134	177.246	79.8956	177.246	81.1389	177.246	79.8586	177.246	81.0039	177.246	79.883	177.246	80.9049	177.246	79.9609	177.246	80.8304	177.246	80.0781	177.246	80.7648	177.246	80.217	177.246	80.6928	177.246	80.3599	177.246	80.6034	177.246	80.4917
183.105	82.3587	183.105	82.1709	183.105	82.488	183.105	81.9332	183.105	82.5536	183.105	81.6564	183.105	82.5535	183.105	81.3537	183.105	82.4897	183.105	81.0397	183.105	82.3682	183.105	80.7301	183.105	82.1992	183.105	80.4411	183.105	81.9964	183.105	80.1881	183.105	81.7768	183.105	79.9846	183.105	81.5586	183.105	79.8412	183.105	81.3587	183.105	79.7639	183.105	81.1897	183.105	79.7535	183.105	81.0569	183.105	79.8052	183.105	80.9569	183.105	79.9083	183.105	80.879	183.105	80.0479	183.105	80.8083	183.105	80.206	183.105	80.7298	183.105	80.3649	183.105	80.6321	183.105	80.5099
188.965	82.4378	188.965	82.2605	188.965	82.548	188.965	82.0241	188.965	82.5873	188.965	81.7393	188.965	82.5554	188.965	81.4196	188.965	82.457	188.965	81.0816	188.965	82.3015	188.965	80.744	188.965	82.1035	188.965	80.4281	188.965	81.8818	188.965	80.1555	188.965	81.658	188.965	79.9465	188.965	81.4538	188.965	79.8161	188.965	81.2874	188.965	79.7714	188.965	81.1692	188.965	79.8095	188.965	81.0995	188.965	79.9185	188.965	81.0677	188.965	80.08	188.965	81.0554	188.965	80.2717	188.965	81.0408	188.965	80.4711	188.965	81.0037	188.965	80.6572	188.965	80.9301	188.965	80.8137
196.289	82.774	196.289	82.6126	196.289	82.8643	196.289	82.3886	196.289	82.8789	196.289	82.1132	196.289	82.8173	196.289	81.8	196.289	82.6844	196.289	81.464	196.289	82.4905	196.289	81.1217	196.289	82.2522	196.289	80.7906	196.289	81.9915	196.289	80.4891	196.289	81.7342	196.289	80.2355	196.289	81.5061	196.289	80.0473	196.289	81.3277	196.289	79.9378	196.289	81.2088	196.289	79.9138	196.289	81.1456	196.289	79.9728	196.289	81.122	196.289	80.1017	196.289	81.115	196.289	80.2793	196.289	81.1004	196.289	80.4792	196.289	81.0579	196.289	80.675	196.289	80.9742	196.289	80.8448
203.613	82.7499	203.613	82.6025	203.613	82.8189	203.613	82.3843	203.613	82.8054	203.613	82.1063	203.613	82.7099	203.613	81.7821	203.613	82.5385	203.613	81.4278	203.613	82.304	203.613	81.0621	203.613	82.0263	203.613	80.7058	203.613	81.7326	203.613	80.3816	203.613	81.4548	203.613	80.1127	203.613	81.2249	203.613	79.9205	203.613	81.0671	203.613	79.8208	203.613	80.9911	203.613	79.8206	203.613	80.9883	203.613	79.9148	203.613	81.0341	203.613	80.0861	203.613	81.0955	203.613	80.3072	203.613	81.1396	203.613	80.5458	203.613	81.1396	203.613	80.7702	203.613	81.0793	203.613	80.9539
210.938	83.465	210.938	83.3534	210.938	83.495	210.938	83.1672	210.938	83.439	210.938	82.9153	210.938	83.2963	210.938	82.6076	210.938	83.0712	210.938	82.2554	210.938	82.7746	210.938	81.8714	210.938	82.4254	210.938	81.4713	210.938	82.0504	210.938	81.0746	210.938	81.6828	210.938	80.7056	210.938	81.3581	210.938	80.3921	210.938	81.1062	210.938	80.1619	210.938	80.944	210.938	80.0363	210.938	80.8703	210.938	80.0222	210.938	80.8665	210.938	80.1085	210.938	80.9019	210.938	80.2675	210.938	80.941	210.938	80.4618	210.938	80.9517	210.938	80.6531	210.938	80.911	210.938	80.8096
218.262	84.0102	218.262	83.9034	218.262	84.0431	218.262	83.7309	218.262	83.996	218.262	83.5031	218.262	83.8663	218.262	83.2312	218.262	83.6553	218.262	82.927	218.262	83.3696	218.262	82.6026	218.262	83.0222	218.262	82.2698	218.262	82.6341	218.262	81.9408	218.262	82.2345	218.262	81.6274	218.262	81.8592	218.262	81.3421	218.262	81.5447	218.262	81.0976	218.262	81.3176	218.262	80.907	218.262	81.1853	218.262	80.782	218.262	81.133	218.262	80.7293	218.262	81.1296	218.262	80.7459	218.262	81.1395	218.262	80.8167	218.262	81.133	218.262	80.9164	218.262	81.0927	218.262	81.0164
225.586	84.1447	225.586	84.0708	225.586	84.1415	225.586	83.9256	225.586	84.0596	225.586	83.719	225.586	83.9031	225.586	83.4632	225.586	83.6815	225.586	83.1728	225.586	83.4096	225.586	82.8638	225.586	83.1074	225.586	82.5537	225.586	82.7984	225.586	82.2621	225.586	82.5088	225.586	82.0091	225.586	82.2639	225.586	81.8139	225.586	82.0848	225.586	81.6908	225.586	81.9828	225.586	81.6454	225.586	81.9563	225.586	81.6725	225.586	81.9903	225.586	81.7565	225.586	82.06	225.586	81.8745	225.586	82.1368	225.586	82.0008	225.586	82.1945	225.586	82.1109	225.586	82.2139	225.586	82.1857
232.91	84.186	232.91	84.1475	232.91	84.1318	232.91	84.0209	232.91	83.9858	232.91	83.8149	232.91	83.7559	232.91	83.541	232.91	83.4577	232.91	83.2128	232.91	83.1148	232.91	82.8461	232.91	82.7575	232.91	82.4589	232.91	82.4195	232.91	82.0733	232.91	82.1329	232.91	81.7159	232.91	81.9235	232.91	81.4173	232.91	81.8052	232.91	81.2077	232.91	81.7776	232.91	81.11	232.91	81.8255	232.91	81.1303	232.91	81.9215	232.91	81.2541	232.91	82.0316	232.91	81.4484	232.91	82.1219	232.91	81.6708	232.91	82.1643	232.91	81.8801	232.91	82.1403	232.91	82.0433
241.699	84.7668	241.699	84.7877	241.699	84.647	241.699	84.7171	241.699	84.4251	241.699	84.5644	241.699	84.1036	241.699	84.3404	241.699	83.6936	241.699	84.0559	241.699	83.2188	241.699	83.7217	241.699	82.7175	241.699	83.3488	241.699	82.2428	241.699	82.9497	241.699	81.8536	241.699	82.5402	241.699	81.5977	241.699	82.1424	241.699	81.4924	241.699	81.7857	241.699	81.5185	241.699	81.5043	241.699	81.6317	241.699	81.3303	241.699	81.7805	241.699	81.2808	241.699	81.9195	241.699	81.3484	241.699	82.0139	241.699	81.5004	241.699	82.0406	241.699	81.6886	241.699	81.989	241.699	81.8643
250.488	84.4168	250.488	84.4661	250.488	84.2688	250.488	84.4227	250.488	84.0201	250.488	84.2944	250.488	83.6742	250.488	84.0909	250.488	83.2423	250.488	83.8221	250.488	82.7456	250.488	83.4991	250.488	82.2176	250.488	83.135	250.488	81.704	250.488	82.7464	250.488	81.2576	250.488	82.3541	250.488	80.927	250.488	81.9826	250.488	80.7412	250.488	81.6567	250.488	80.6992	250.488	81.3974	250.488	80.7716	250.488	81.2179	250.488	80.9122	250.488	81.1219	250.488	81.0716	250.488	81.1027	250.488	81.208	250.488	81.1425	250.488	81.2931	250.488	81.2135	250.488	81.3156	250.488	81.2818
259.277	84.6648	259.277	84.7257	259.277	84.5024	259.277	84.6925	259.277	84.2324	259.277	84.5731	259.277	83.8524	259.277	84.3757	259.277	83.3661	259.277	84.1086	259.277	82.7877	259.277	83.7805	259.277	82.1482	259.277	83.4016	259.277	81.5	259.277	82.9845	259.277	80.9167	259.277	82.5466	259.277	80.479	259.277	82.1121	259.277	80.2455	259.277	81.7132	259.277	80.2247	259.277	81.3871	259.277	80.373	259.277	81.1667	259.277	80.6182	259.277	81.067	259.277	80.8867	259.277	81.0762	259.277	81.1203	259.277	81.1574	259.277	81.2812	259.277	81.2612	259.277	81.3529	259.277	81.3389
268.066	84.9661	268.066	85.0525	268.066	84.7956	268.066	85.0588	268.066	84.5389	268.066	84.9911	268.066	84.1973	268.066	84.8557	268.066	83.7753	268.066	84.6585	268.066	83.2832	268.066	84.4046	268.066	82.7398	268.066	84.0992	268.066	82.1768	268.066	83.7486	268.066	81.641	268.066	83.3628	268.066	81.1886	268.066	82.9557	268.066	80.8692	268.066	82.5465	268.066	80.7049	268.066	82.1588	268.066	80.682	268.066	81.8186	268.066	80.7594	268.066	81.5493	268.066	80.887	268.066	81.3655	268.066	81.0196	268.066	81.2648	268.066	81.1244	268.066	81.2254	268.066	81.1865	268.066	81.2117
276.855	83.896	276.855	83.976	276.855	83.7195	276.855	83.9663	276.855	83.4438	276.855	83.8772	276.855	83.0728	276.855	83.7207	276.855	82.6179	276.855	83.5095	276.855	82.1018	276.855	83.2557	276.855	81.5621	276.855	82.9711	276.855	81.0564	276.855	82.6671	276.855	80.6594	276.855	82.3564	276.855	80.4448	276.855	82.0547	276.855	80.4501	276.855	81.7827	276.855	80.6505	276.855	81.5661	276.855	80.9696	276.855	81.4308	276.855	81.318	276.855	81.3945	276.855	81.6241	276.855	81.4554	276.855	81.8444	276.855	81.5882	276.855	81.9601	276.855	81.7496	276.855	81.9708	276.855	81.891
287.109	84.0288	287.109	84.1512	287.109	83.8023	287.109	84.171	287.109	83.4754	287.109	84.0948	287.109	83.057	287.109	83.9319	287.109	82.5604	287.109	83.6945	287.109	82.0008	287.109	83.3962	287.109	81.3968	287.109	83.0516	287.109	80.7762	287.109	82.6752	287.109	80.1883	287.109	82.2806	287.109	79.7121	287.109	81.8792	287.109	79.4401	287.109	81.4829	287.109	79.426	287.109	81.1075	287.109	79.6366	287.109	80.7771	287.109	79.9645	287.109	80.5238	287.109	80.2899	287.109	80.3783	287.109	80.5277	287.109	80.3524	287.109	80.6405	287.109	80.4244	287.109	80.6324	287.109	80.5403
297.363	84.1774	297.363	84.2885	297.363	83.9625	297.363	84.3067	297.363	83.6343	297.363	84.2413	297.363	83.189	297.363	84.0976	297.363	82.6335	297.363	83.8766	297.363	81.9901	297.363	83.5778	297.363	81.2977	297.363	83.2035	297.363	80.6071	297.363	82.7644	297.363	79.971	297.363	82.283	297.363	79.4356	297.363	81.7937	297.363	79.0441	297.363	81.3357	297.363	78.8403	297.363	80.9432	297.363	78.8506	297.363	80.6366	297.363	79.0493	297.363	80.4205	297.363	79.353	297.363	80.2861	297.363	79.662	297.363	80.2145	297.363	79.9059	297.363	80.1779	297.363	80.0607	297.363	80.14
307.617	83.9364	307.617	83.9894	307.617	83.7874	307.617	83.957	307.617	83.5368	307.617	83.8536	307.617	83.1838	307.617	83.6952	307.617	82.7336	307.617	83.4963	307.617	82.1997	307.617	83.266	307.617	81.6102	307.617	83.0076	307.617	81.0125	307.617	82.7207	307.617	80.4725	307.617	82.4065	307.617	80.0575	307.617	82.0727	307.617	79.8096	307.617	81.7359	307.617	79.7297	307.617	81.4191	307.617	79.7867	307.617	81.147	307.617	79.9382	307.617	80.9391	307.617	80.1405	307.617	80.8049	307.617	80.3495	307.617	80.7381	307.617	80.5244	307.617	80.7141	307.617	80.6395	307.617	80.6945
319.336	83.3697	319.336	83.4475	319.336	83.1955	319.336	83.4379	319.336	82.9184	319.336	83.352	319.336	82.5351	319.336	83.2017	319.336	82.0457	319.336	82.9965	319.336	81.4568	319.336	82.7423	319.336	80.7893	319.336	82.4399	319.336	80.0902	319.336	82.0868	319.336	79.4445	319.336	81.6832	319.336	78.9676	319.336	81.2396	319.336	78.7597	319.336	80.786	319.336	78.8416	319.336	80.3742	319.336	79.1378	319.336	80.0681	319.336	79.5286	319.336	79.9169	319.336	79.9084	319.336	79.9263	319.336	80.207	319.336	80.0531	319.336	80.3873	319.336	80.2261	319.336	80.4387	319.336	80.3734
329.59	83.4587	329.59	83.5399	329.59	83.2691	329.59	83.5211	329.59	82.9689	329.59	83.415	329.59	82.563	329.59	83.2366	329.59	82.0655	329.59	83.0016	329.59	81.5001	329.59	82.7242	329.59	80.9032	329.59	82.4161	329.59	80.3253	329.59	82.0851	329.59	79.8299	329.59	81.7356	329.59	79.4815	329.59	81.3714	329.59	79.3245	329.59	81.0018	329.59	79.3628	329.59	80.6493	329.59	79.5566	329.59	80.3533	329.59	79.8388	329.59	80.1629	329.59	80.1357	329.59	80.1117	329.59	80.3834	329.59	80.1905	329.59	80.5355	329.59	80.3433	329.59	80.5695	329.59	80.4923
341.309	83.3929	341.309	83.4326	341.309	83.2495	341.309	83.3806	341.309	82.9928	341.309	83.2506	341.309	82.6161	341.309	83.0562	341.309	82.1152	341.309	82.8095	341.309	81.4894	341.309	82.5202	341.309	80.7478	341.309	82.1953	341.309	79.9228	341.309	81.8399	341.309	79.0941	341.309	81.458	341.309	78.4066	341.309	81.0539	341.309	78.0359	341.309	80.635	341.309	78.0723	341.309	80.2181	341.309	78.4329	341.309	79.8358	341.309	78.9307	341.309	79.5395	341.309	79.3982	341.309	79.3856	341.309	79.735	341.309	79.4008	341.309	79.8988	341.309	79.5513	341.309	79.8902	341.309	79.7484
353.027	83.441	353.027	83.4913	353.027	83.2764	353.027	83.443	353.027	82.9847	353.027	83.3119	353.027	82.5595	353.027	83.1097	353.027	82.0045	353.027	82.8419	353.027	81.3386	353.027	82.508	353.027	80.6031	353.027	82.105	353.027	79.8672	353.027	81.6339	353.027	79.2254	353.027	81.1084	353.027	78.7791	353.027	80.5628	353.027	78.6021	353.027	80.0569	353.027	78.7076	353.027	79.6689	353.027	79.0398	353.027	79.47	353.027	79.4955	353.027	79.4878	353.027	79.961	353.027	79.6878	353.027	80.3416	353.027	79.9893	353.027	80.5762	353.027	80.2991	353.027	80.6389	353.027	80.5353
366.211	83.6811	366.211	83.6629	366.211	83.6227	366.211	83.5785	366.211	83.4792	366.211	83.4441	366.211	83.2376	366.211	83.2797	366.211	82.8777	366.211	83.1014	366.211	82.375	366.211	82.9115	366.211	81.7125	366.211	82.6951	366.211	80.8975	366.211	82.4245	366.211	79.9814	366.211	82.0708	366.211	79.0753	366.211	81.615	366.211	78.3415	366.211	81.0554	366.211	77.9341	366.211	80.4132	366.211	77.9045	366.211	79.7395	366.211	78.1628	366.211	79.1228	366.211	78.5382	366.211	78.6821	366.211	78.8661	366.211	78.513	366.211	79.0362	366.211	78.6047	366.211	79.0096	366.211	78.8261
379.395	83.1805	379.395	83.2114	379.395	83.0418	379.395	83.1455	379.395	82.7916	379.395	82.9997	379.395	82.4337	379.395	82.7949	379.395	81.9784	379.395	82.551	379.395	81.4401	379.395	82.28	379.395	80.8371	379.395	81.9801	379.395	80.1966	379.395	81.6366	379.395	79.5658	379.395	81.2301	379.395	79.0227	379.395	80.7511	379.395	78.6666	379.395	80.2128	379.395	78.5748	379.395	79.6612	379.395	78.7447	379.395	79.1743	379.395	79.0824	379.395	78.8468	379.395	79.4514	379.395	78.751	379.395	79.7307	379.395	78.8913	379.395	79.8431	379.395	79.1891	379.395	79.7635	379.395	79.5194
392.578	83.3425	392.578	83.3628	392.578	83.2129	392.578	83.2758	392.578	82.982	392.578	83.0942	392.578	82.6643	392.578	82.8389	392.578	82.2727	392.578	82.534	392.578	81.8122	392.578	82.2022	392.578	81.2788	392.578	81.8614	392.578	80.6688	392.578	81.5238	392.578	80.0005	392.578	81.1967	392.578	79.3429	392.578	80.8812	392.578	78.8292	392.578	80.5674	392.578	78.6082	392.578	80.2315	392.578	78.7269	392.578	79.8502	392.578	79.0721	392.578	79.4356	392.578	79.4543	392.578	79.0721	392.578	79.7165	392.578	78.9002	392.578	79.7725	392.578	79.0033	392.578	79.6107	392.578	79.3018
405.762	83.2646	405.762	83.2459	405.762	83.1601	405.762	83.1102	405.762	82.9376	405.762	82.8765	405.762	82.6062	405.762	82.5738	405.762	82.1706	405.762	82.2327	405.762	81.6287	405.762	81.8757	405.762	80.9812	405.762	81.5081	405.762	80.2501	405.762	81.116	405.762	79.4974	405.762	80.6784	405.762	78.835	405.762	80.1916	405.762	78.4077	405.762	79.6932	405.762	78.3325	405.762	79.2644	405.762	78.6111	405.762	78.9891	405.762	79.1037	405.762	78.8967	405.762	79.6071	405.762	78.9568	405.762	79.9561	405.762	79.1297	405.762	80.0705	405.762	79.3902	405.762	79.958	405.762	79.6955
420.41	83.3173	420.41	83.3137	420.41	83.2016	420.41	83.2076	420.41	82.9643	420.41	83.0243	420.41	82.6176	420.41	82.7856	420.41	82.1801	420.41	82.4999	420.41	81.6676	420.41	82.1575	420.41	81.0886	420.41	81.7362	420.41	80.4494	420.41	81.2136	420.41	79.7664	420.41	80.5834	420.41	79.0841	420.41	79.8678	420.41	78.4979	420.41	79.1204	420.41	78.1551	420.41	78.4146	420.41	78.1734	420.41	77.8247	420.41	78.505	420.41	77.4257	420.41	78.9375	420.41	77.3037	420.41	79.2458	420.41	77.5158	420.41	79.2964	420.41	78.0014	420.41	79.0569	420.41	78.5806
435.059	83.1863	435.059	83.1225	435.059	83.1172	435.059	82.9336	435.059	82.9213	435.059	82.6453	435.059	82.6128	435.059	82.3015	435.059	82.2065	435.059	81.9578	435.059	81.7122	435.059	81.6618	435.059	81.1373	435.059	81.4276	435.059	80.5004	435.059	81.2208	435.059	79.8526	435.059	80.9729	435.059	79.2907	435.059	80.6159	435.059	78.9349	435.059	80.1158	435.059	78.8627	435.059	79.4949	435.059	79.0519	435.059	78.8417	435.059	79.3927	435.059	78.3059	435.059	79.7431	435.059	78.0584	435.059	79.9712	435.059	78.1982	435.059	79.9783	435.059	78.659	435.059	79.7217	435.059	79.2377
451.172	83.1287	451.172	83.035	451.172	83.1063	451.172	82.8482	451.172	82.9639	451.172	82.6057	451.172	82.7128	451.172	82.3479	451.172	82.3705	451.172	82.1037	451.172	81.9477	451.172	81.8769	451.172	81.4427	451.172	81.6405	451.172	80.8482	451.172	81.3448	451.172	80.1697	451.172	80.9364	451.172	79.4533	451.172	80.3846	451.172	78.8127	451.172	79.7077	451.172	78.4175	451.172	78.9878	451.172	78.3867	451.172	78.3435	451.172	78.6524	451.172	77.8616	451.172	78.9865	451.172	77.5675	451.172	79.161	451.172	77.4891	451.172	79.0518	451.172	77.6852	451.172	78.6646	451.172	78.1353
465.82	83.0407	465.82	82.8901	465.82	83.0585	465.82	82.6268	465.82	82.9435	465.82	82.293	465.82	82.7066	465.82	81.9499	465.82	82.3546	465.82	81.667	465.82	81.8777	465.82	81.498	465.82	81.2499	465.82	81.4471	465.82	80.4479	465.82	81.451	465.82	79.4845	465.82	81.3967	465.82	78.4529	465.82	81.1618	465.82	77.5708	465.82	80.6537	465.82	77.1365	465.82	79.8428	465.82	77.2899	465.82	78.8052	465.82	77.8289	465.82	77.7695	465.82	78.4007	465.82	77.0812	465.82	78.7494	465.82	76.972	465.82	78.768	465.82	77.3501	465.82	78.4644	465.82	77.9336
483.398	83.256	483.398	83.219	483.398	83.1014	483.398	83.0103	483.398	82.7806	483.398	82.6815	483.398	82.365	483.398	82.2994	483.398	81.9417	483.398	81.9265	483.398	81.5518	483.398	81.6021	483.398	81.1556	483.398	81.3308	483.398	80.6742	483.398	81.0865	483.398	80.0666	483.398	80.8313	483.398	79.3789	483.398	80.5359	483.398	78.7485	483.398	80.19	483.398	78.3603	483.398	79.7957	483.398	78.355	483.398	79.3556	483.398	78.7217	483.398	78.8885	483.398	79.2708	483.398	78.4891	483.398	79.7356	483.398	78.3557	483.398	79.9049	483.398	78.6336	483.398	79.6962	483.398	79.1884
499.512	82.9745	499.512	82.8644	499.512	82.8797	499.512	82.5549	499.512	82.6074	499.512	82.0796	499.512	82.2167	499.512	81.5001	499.512	81.7773	499.512	80.9098	499.512	81.3307	499.512	80.4272	499.512	80.8644	499.512	80.1506	499.512	80.3323	499.512	80.0844	499.512	79.7074	499.512	80.1132	499.512	79.0315	499.512	80.0688	499.512	78.4399	499.512	79.8225	499.512	78.1362	499.512	79.344	499.512	78.2663	499.512	78.7304	499.512	78.7577	499.512	78.1924	499.512	79.3442	499.512	77.952	499.512	79.7569	499.512	78.0951	499.512	79.8465	499.512	78.5385	499.512	79.598	499.512	79.1057
517.09	83.8668	517.09	83.782	517.09	83.7036	517.09	83.4473	517.09	83.3285	517.09	82.8991	517.09	82.807	517.09	82.2171	517.09	82.2208	517.09	81.5213	517.09	81.6374	517.09	80.9374	517.09	81.0751	517.09	80.5307	517.09	80.4891	517.09	80.2614	517.09	79.7934	517.09	80.0232	517.09	78.9211	517.09	79.7218	517.09	77.9494	517.09	79.3182	517.09	77.2804	517.09	78.8168	517.09	77.475	517.09	78.2332	517.09	78.4394	517.09	77.6157	517.09	79.4959	517.09	77.1623	517.09	80.1762	517.09	77.2473	517.09	80.3219	517.09	78.0118	517.09	79.922	517.09	79.065
536.133	83.7321	536.133	83.4622	536.133	83.7315	536.133	82.9942	536.133	83.4296	536.133	82.4281	536.133	82.8551	536.133	81.8725	536.133	82.1166	536.133	81.4138	536.133	81.3919	536.133	81.0751	536.133	80.8339	536.133	80.7952	536.133	80.4404	536.133	80.4572	536.133	80.0661	536.133	79.9534	536.133	79.5772	536.133	79.2561	536.133	78.979	536.133	78.4761	536.133	78.4557	536.133	77.8533	536.133	78.2811	536.133	77.5608	536.133	78.5528	536.133	77.4958	536.133	79.0359	536.133	77.4467	536.133	79.3704	536.133	77.4042	536.133	79.3172	536.133	77.5935	536.133	78.8443	536.133	78.1492
555.176	84.0488	555.176	83.9203	555.176	83.9455	555.176	83.5824	555.176	83.6234	555.176	83.0825	555.176	83.1218	555.176	82.4722	555.176	82.4778	555.176	81.7956	555.176	81.7095	555.176	81.1054	555.176	80.859	555.176	80.502	555.176	80.0644	555.176	80.1222	555.176	79.4956	555.176	80.0018	555.176	79.1182	555.176	79.96	555.176	78.6891	555.176	79.71	555.176	78.1412	555.176	79.0562	555.176	77.8999	555.176	78.0143	555.176	78.4247	555.176	76.8923	555.176	79.3325	555.176	76.2385	555.176	79.9492	555.176	76.4283	555.176	79.9832	555.176	77.313	555.176	79.4352	555.176	78.4528
574.219	84.1741	574.219	83.9864	574.219	84.1193	574.219	83.5911	574.219	83.802	574.219	83.0247	574.219	83.2322	574.219	82.3202	574.219	82.4578	574.219	81.5135	574.219	81.5553	574.219	80.6709	574.219	80.605	574.219	79.9254	574.219	79.6796	574.219	79.4554	574.219	78.8615	574.219	79.3197	574.219	78.2421	574.219	79.3186	574.219	77.8716	574.219	79.1281	574.219	77.7773	574.219	78.5296	574.219	78.0777	574.219	77.5469	574.219	78.8394	574.219	76.5499	574.219	79.7698	574.219	76.1685	574.219	80.4117	574.219	76.6972	574.219	80.4968	574.219	77.8028	574.219	79.9904	574.219	79.0151
594.727	84.9196	594.727	84.6716	594.727	84.9015	594.727	84.1966	594.727	84.6183	594.727	83.5735	594.727	84.0998	594.727	82.9094	594.727	83.3869	594.727	82.309	594.727	82.5209	594.727	81.8248	594.727	81.5556	594.727	81.4216	594.727	80.573	594.727	81.0038	594.727	79.6313	594.727	80.4921	594.727	78.6489	594.727	79.8717	594.727	77.4481	594.727	79.1578	594.727	76.2344	594.727	78.3096	594.727	76.226	594.727	77.228	594.727	77.8518	594.727	75.9478	594.727	79.5995	594.727	75.018	594.727	80.5973	594.727	75.4034	594.727	80.7296	594.727	76.9941	594.727	80.076	594.727	78.7556
615.234	84.8751	615.234	84.6942	615.234	84.7773	615.234	84.2686	615.234	84.4072	615.234	83.6531	615.234	83.8354	615.234	82.9167	615.234	83.1904	615.234	82.1417	615.234	82.5832	615.234	81.4174	615.234	82.0101	615.234	80.8293	615.234	81.3664	615.234	80.4386	615.234	80.552	615.234	80.2333	615.234	79.5133	615.234	80.072	615.234	78.2057	615.234	79.7078	615.234	76.7298	615.234	78.8973	615.234	75.9713	615.234	77.5274	615.234	77.0706	615.234	75.815	615.234	78.934	615.234	74.6553	615.234	80.205	615.234	75.1364	615.234	80.5337	615.234	76.8278	615.234	79.9579	615.234	78.6316
637.207	84.7162	637.207	84.2436	637.207	84.8348	637.207	83.4525	637.207	84.5851	637.207	82.3988	637.207	83.9837	637.207	81.1645	637.207	83.1006	637.207	79.8849	637.207	82.0897	637.207	78.7902	637.207	81.1712	637.207	78.1481	637.207	80.4859	637.207	78.0201	637.207	79.9334	637.207	78.1909	637.207	79.233	637.207	78.4242	637.207	78.103	637.207	78.5766	637.207	76.4274	637.207	78.471	637.207	74.8758	637.207	77.8195	637.207	75.4719	637.207	76.3216	637.207	77.7157	637.207	74.0258	637.207	79.4481	637.207	72.8124	637.207	80.0313	637.207	74.93	637.207	79.4239	637.207	77.66
659.18	84.1637	659.18	83.7106	659.18	84.3371	659.18	83.0659	659.18	84.1821	659.18	82.3128	659.18	83.7134	659.18	81.4889	659.18	83.0103	659.18	80.5928	659.18	82.2094	659.18	79.6537	659.18	81.4833	659.18	78.8078	659.18	80.9593	659.18	78.2439	659.18	80.568	659.18	77.9543	659.18	79.9951	659.18	77.6549	659.18	78.7996	659.18	77.1189	659.18	76.556	659.18	76.4982	659.18	73.5626	659.18	76.1211	659.18	73.4803	659.18	75.8328	659.18	76.2484	659.18	75.2004	659.18	78.1188	659.18	74.4861	659.18	78.6497	659.18	74.9168	659.18	78.0399	659.18	76.5524
682.617	85.1236	682.617	84.7694	682.617	85.1137	682.617	84.1122	682.617	84.7182	682.617	83.2361	682.617	83.9673	682.617	82.2274	682.617	82.9534	682.617	81.1658	682.617	81.8434	682.617	80.163	682.617	80.9156	682.617	79.3894	682.617	80.5212	682.617	78.9316	682.617	80.7126	682.617	78.6144	682.617	80.9894	682.617	78.1565	682.617	80.6893	682.617	77.4124	682.617	79.2608	682.617	76.3698	682.617	76.3002	682.617	75.076	682.617	73.4888	682.617	73.6968	682.617	75.9057	682.617	72.5543	682.617	78.7528	682.617	72.4767	682.617	79.8091	682.617	74.4824	682.617	79.2315	682.617	77.27
707.52	85.1792	707.52	84.7251	707.52	85.4701	707.52	84.1758	707.52	85.5223	707.52	83.5547	707.52	85.2397	707.52	82.7937	707.52	84.4772	707.52	81.7537	707.52	83.0539	707.52	80.3489	707.52	80.8915	707.52	78.8277	707.52	78.7107	707.52	78.0385	707.52	78.679	707.52	78.4	707.52	80.2307	707.52	78.9057	707.52	81.0279	707.52	78.5787	707.52	80.1657	707.52	76.9696	707.52	77.1108	707.52	73.6828	707.52	73.4598	707.52	67.4189	707.52	76.753	707.52	62.24	707.52	80.0639	707.52	71.5964	707.52	81.3306	707.52	76.5606	707.52	81.0557	707.52	79.488
732.422	83.6786	732.422	83.5313	732.422	83.651	732.422	83.1837	732.422	83.5507	732.422	82.6276	732.422	83.5481	732.422	81.8597	732.422	83.6423	732.422	80.8753	732.422	83.4755	732.422	79.6142	732.422	82.5068	732.422	77.8833	732.422	80.1971	732.422	75.4555	732.422	76.64	732.422	73.4079	732.422	76.4883	732.422	75.0606	732.422	79.5109	732.422	77.813	732.422	80.7437	732.422	79.1122	732.422	79.4335	732.422	78.7181	732.422	74.1942	732.422	76.6667	732.422	58.2953	732.422	73.0615	732.422	74.8741	732.422	70.7409	732.422	78.6373	732.422	74.175	732.422	79.1423	732.422	77.5581
757.324	82.2228	757.324	81.5488	757.324	82.4854	757.324	80.6832	757.324	82.3041	757.324	79.9303	757.324	81.9167	757.324	79.5007	757.324	81.7533	757.324	79.3371	757.324	81.9287	757.324	79.1763	757.324	81.9571	757.324	78.7199	757.324	81.2284	757.324	77.695	757.324	79.4227	757.324	75.9785	757.324	77.3242	757.324	74.3428	757.324	77.6632	757.324	74.8915	757.324	79.215	757.324	76.8097	757.324	79.3019	757.324	78.0593	757.324	77.2066	757.324	78.1951	757.324	72.6	757.324	77.2272	757.324	67.5293	757.324	75.0312	757.324	67.869	757.324	71.2386	757.324	67.3201	757.324	66.8891
785.156	82.8533	785.156	81.8961	785.156	83.3448	785.156	80.6559	785.156	83.2678	785.156	79.4248	785.156	82.6286	785.156	78.5546	785.156	81.6672	785.156	78.2019	785.156	80.8819	785.156	78.1713	785.156	80.4763	785.156	78.1669	785.156	79.9415	785.156	78.0316	785.156	78.6731	785.156	77.5958	785.156	76.6971	785.156	76.4328	785.156	76.053	785.156	74.2007	785.156	77.9095	785.156	72.6709	785.156	79.2476	785.156	74.4898	785.156	78.7419	785.156	76.3613	785.156	76.2292	785.156	76.778	785.156	71.9235	785.156	75.6826	785.156	65.9498	785.156	72.7523	785.156	51.3497	785.156	66.4722
811.523	83.0578	811.523	82.153	811.523	83.3608	811.523	80.8111	811.523	83.0612	811.523	79.4109	811.523	82.345	811.523	78.4386	811.523	81.6312	811.523	78.082	811.523	81.3066	811.523	78.1147	811.523	81.2386	811.523	78.2926	811.523	80.9414	811.523	78.5419	811.523	79.9771	811.523	78.6489	811.523	78.0936	811.523	78.0411	811.523	76.1527	811.523	76.1673	811.523	76.7329	811.523	73.8118	811.523	78.1844	811.523	74.4439	811.523	78.1935	811.523	76.5076	811.523	76.6068	811.523	77.4697	811.523	73.7921	811.523	77.0774	811.523	69.2863	811.523	75.1138	811.523	64.0959	811.523	70.7059
840.82	83.7694	840.82	82.3593	840.82	84.5728	840.82	80.8287	840.82	84.5284	840.82	79.7669	840.82	83.5479	840.82	79.2391	840.82	81.7986	840.82	78.8344	840.82	80.1507	840.82	78.4454	840.82	79.7579	840.82	78.3588	840.82	80.0023	840.82	78.5305	840.82	79.733	840.82	78.4597	840.82	78.6792	840.82	77.9095	840.82	77.4556	840.82	76.9337	840.82	77.3365	840.82	75.1945	840.82	77.8917	840.82	72.3587	840.82	77.7385	840.82	71.4323	840.82	76.569	840.82	74.031	840.82	74.5479	840.82	75.6982	840.82	71.8196	840.82	75.3972	840.82	70.5075	840.82	73.1321
870.117	83.2851	870.117	81.8751	870.117	84.313	870.117	80.6166	870.117	84.6883	870.117	79.9089	870.117	84.3782	870.117	79.6055	870.117	83.48	870.117	79.3359	870.117	82.2078	870.117	78.8968	870.117	80.9491	870.117	78.3468	870.117	80.045	870.117	77.9282	870.117	79.2363	870.117	77.8032	870.117	77.8828	870.117	77.7845	870.117	75.978	870.117	77.3094	870.117	75.0784	870.117	75.7589	870.117	76.0463	870.117	73.0713	870.117	77.4696	870.117	71.5265	870.117	78.2921	870.117	73.1989	870.117	78.0056	870.117	74.8907	870.117	76.7165	870.117	75.3758	870.117	75.351	870.117	75.094
900.879	82.9097	900.879	81.6561	900.879	84.0282	900.879	80.8702	900.879	84.5068	900.879	80.5189	900.879	84.1669	900.879	80.0868	900.879	83.0517	900.879	79.3792	900.879	81.5324	900.879	78.7144	900.879	80.4626	900.879	78.39	900.879	80.2713	900.879	78.1642	900.879	80.2505	900.879	77.9246	900.879	79.7984	900.879	78.1286	900.879	78.9575	900.879	78.5648	900.879	77.8155	900.879	78.0988	900.879	76.0923	900.879	76.072	900.879	74.6016	900.879	73.277	900.879	74.8241	900.879	72.4804	900.879	75.2827	900.879	72.7696	900.879	74.6567	900.879	72.1497	900.879	72.9081	900.879	71.5823
933.105	82.6478	933.105	81.8207	933.105	83.7108	933.105	81.5195	933.105	84.4027	933.105	81.4558	933.105	84.3225	933.105	81.2261	933.105	83.4115	933.105	80.5632	933.105	81.9806	933.105	79.3377	933.105	80.4895	933.105	77.8015	933.105	78.9864	933.105	76.5983	933.105	77.6311	933.105	75.4642	933.105	77.1252	933.105	73.7521	933.105	77.0114	933.105	74.1644	933.105	77.1569	933.105	75.9131	933.105	77.7803	933.105	75.549	933.105	77.7629	933.105	73.6671	933.105	77.4055	933.105	73.8594	933.105	77.422	933.105	75.1919	933.105	76.4641	933.105	74.7963	933.105	73.9571	933.105	73.0804
965.332	82.6397	965.332	81.7971	965.332	83.726	965.332	81.3912	965.332	84.4915	965.332	81.1139	965.332	84.4973	965.332	80.6466	965.332	83.6213	965.332	79.918	965.332	82.1945	965.332	79.0186	965.332	80.9912	965.332	78.1505	965.332	80.1555	965.332	77.7937	965.332	78.9896	965.332	78.0679	965.332	77.8195	965.332	77.8403	965.332	77.5191	965.332	76.2808	965.332	76.8624	965.332	74.4776	965.332	75.4148	965.332	73.5065	965.332	75.0833	965.332	71.6721	965.332	76.1136	965.332	70.2057	965.332	77.0185	965.332	72.236	965.332	76.3285	965.332	73.0198	965.332	73.4917	965.332	71.8739
1000.49	82.6049	1000.49	82.0387	1000.49	83.4831	1000.49	81.7291	1000.49	84.2855	1000.49	81.3262	1000.49	84.5522	1000.49	80.7439	1000.49	83.9781	1000.49	80.2409	1000.49	82.5798	1000.49	79.8601	1000.49	81.0782	1000.49	79.1642	1000.49	80.3361	1000.49	77.8553	1000.49	79.6857	1000.49	76.9383	1000.49	78.2488	1000.49	77.5588	1000.49	76.7236	1000.49	77.6588	1000.49	76.5083	1000.49	76.1358	1000.49	76.4958	1000.49	74.5671	1000.49	76.0263	1000.49	73.7564	1000.49	76.2049	1000.49	72.1257	1000.49	76.5373	1000.49	72.8774	1000.49	75.1571	1000.49	74.6063	1000.49	72.0493	1000.49	73.1969
1035.64	82.8949	1035.64	82.4364	1035.64	83.6986	1035.64	82.1617	1035.64	84.4815	1035.64	81.7509	1035.64	84.7044	1035.64	81.1055	1035.64	84.0036	1035.64	80.2169	1035.64	82.3969	1035.64	78.9844	1035.64	80.8105	1035.64	77.3124	1035.64	80.3681	1035.64	75.2972	1035.64	80.0889	1035.64	73.7617	1035.64	79.166	1035.64	74.8141	1035.64	78.4884	1035.64	76.8511	1035.64	77.8117	1035.64	77.4256	1035.64	75.5581	1035.64	76.2361	1035.64	73.2329	1035.64	74.1301	1035.64	74.8653	1035.64	71.769	1035.64	76.1556	1035.64	70.7993	1035.64	74.7626	1035.64	72.5058	1035.64	72.0437	1035.64	72.4262
1072.27	82.8644	1072.27	82.8831	1072.27	83.1112	1072.27	82.5159	1072.27	83.9095	1072.27	81.7147	1072.27	84.4404	1072.27	80.6607	1072.27	84.043	1072.27	79.4035	1072.27	82.8899	1072.27	78.0442	1072.27	81.5316	1072.27	77.0544	1072.27	80.0873	1072.27	77.2788	1072.27	78.947	1072.27	77.8292	1072.27	78.495	1072.27	75.4843	1072.27	77.8716	1072.27	67.3709	1072.27	77.7037	1072.27	73.441	1072.27	77.7536	1072.27	75.7643	1072.27	76.0441	1072.27	74.6596	1072.27	73.1466	1072.27	73.9611	1072.27	73.1857	1072.27	73.4915	1072.27	73.0441	1072.27	72.1881	1072.27	71.8461	1072.27	71.7227
1108.89	84.148	1108.89	83.0223	1108.89	84.6425	1108.89	81.6865	1108.89	84.7112	1108.89	80.7507	1108.89	84.6502	1108.89	80.1719	1108.89	84.1621	1108.89	79.7748	1108.89	82.7115	1108.89	79.7722	1108.89	80.6616	1108.89	79.9006	1108.89	79.4907	1108.89	79.4297	1108.89	78.6545	1108.89	78.9659	1108.89	77.1067	1108.89	78.8138	1108.89	76.707	1108.89	76.8452	1108.89	77.2103	1108.89	72.7679	1108.89	76.6079	1108.89	71.5892	1108.89	75.2999	1108.89	71.6442	1108.89	74.4619	1108.89	70.5866	1108.89	74.2498	1108.89	72.2223	1108.89	72.7814	1108.89	74.4283	1108.89	72.0715	1108.89	74.2862
1148.44	83.213	1148.44	82.3341	1148.44	84.1626	1148.44	82.0613	1148.44	84.6914	1148.44	81.8694	1148.44	84.7141	1148.44	81.1696	1148.44	84.0851	1148.44	80.2557	1148.44	82.5897	1148.44	79.7995	1148.44	80.5978	1148.44	80.0202	1148.44	79.4824	1148.44	80.0759	1148.44	79.0775	1148.44	78.9278	1148.44	77.7055	1148.44	77.4257	1148.44	76.1454	1148.44	77.26	1148.44	76.0747	1148.44	76.5991	1148.44	75.1734	1148.44	74.6499	1148.44	73.7628	1148.44	72.9137	1148.44	73.4494	1148.44	72.4648	1148.44	73.5201	1148.44	71.9264	1148.44	73.4452	1148.44	72.0006	1148.44	73.1592	1148.44	72.8138
1189.45	83.0971	1189.45	82.5082	1189.45	84.0345	1189.45	82.3653	1189.45	84.8071	1189.45	82.0731	1189.45	85.1299	1189.45	81.4819	1189.45	84.5873	1189.45	80.8177	1189.45	82.7566	1189.45	80.0959	1189.45	80.1199	1189.45	79.3283	1189.45	78.8724	1189.45	78.6024	1189.45	78.5023	1189.45	77.6529	1189.45	76.4159	1189.45	76.8267	1189.45	73.7487	1189.45	76.595	1189.45	75.2373	1189.45	76.1147	1189.45	75.6357	1189.45	75.445	1189.45	73.1022	1189.45	74.3893	1189.45	72.3803	1189.45	72.3027	1189.45	73.6916	1189.45	71.9941	1189.45	73.3653	1189.45	72.269	1189.45	72.2394	1189.45	71.6287
1230.47	82.1838	1230.47	82.2941	1230.47	83.141	1230.47	82.6222	1230.47	84.553	1230.47	82.4935	1230.47	85.3363	1230.47	81.9632	1230.47	84.8732	1230.47	81.3103	1230.47	83.0478	1230.47	80.5002	1230.47	80.6278	1230.47	79.1091	1230.47	79.2897	1230.47	77.3791	1230.47	78.8877	1230.47	75.8875	1230.47	77.6346	1230.47	73.9227	1230.47	74.5466	1230.47	73.028	1230.47	71.9908	1230.47	74.9311	1230.47	72.9686	1230.47	75.9802	1230.47	73.4474	1230.47	74.8369	1230.47	73.5003	1230.47	72.3562	1230.47	74.6836	1230.47	71.4909	1230.47	74.2655	1230.47	72.2763	1230.47	71.5089	1230.47	71.3574
1274.41	82.3684	1274.41	82.7915	1274.41	82.9099	1274.41	83.3702	1274.41	83.9006	1274.41	83.2542	1274.41	84.5862	1274.41	82.4052	1274.41	84.4768	1274.41	81.0222	1274.41	83.2227	1274.41	79.3788	1274.41	80.8115	1274.41	77.7196	1274.41	78.8533	1274.41	76.0882	1274.41	78.6661	1274.41	75.6441	1274.41	77.4522	1274.41	74.9764	1274.41	75.0788	1274.41	71.2845	1274.41	74.219	1274.41	71.9909	1274.41	72.8752	1274.41	74.8608	1274.41	71.3502	1274.41	74.1119	1274.41	72.5543	1274.41	71.7668	1274.41	73.7415	1274.41	71.4752	1274.41	72.5046	1274.41	72.8172	1274.41	69.44	1274.41	71.6199
1319.82	82.6063	1319.82	83.2733	1319.82	82.5205	1319.82	83.5245	1319.82	83.1483	1319.82	82.9715	1319.82	83.9448	1319.82	81.9477	1319.82	84.2947	1319.82	80.7272	1319.82	83.4299	1319.82	79.2624	1319.82	80.8606	1319.82	78.1244	1319.82	77.8799	1319.82	76.7178	1319.82	77.3895	1319.82	74.3663	1319.82	76.9408	1319.82	76.3723	1319.82	75.1121	1319.82	77.1319	1319.82	75.2408	1319.82	73.395	1319.82	76.002	1319.82	72.1693	1319.82	72.8826	1319.82	73.7261	1319.82	70.678	1319.82	70.2196	1319.82	72.9724	1319.82	70.6006	1319.82	71.4928	1319.82	72.8667	1319.82	68.9553	1319.82	71.7241
1366.7	82.5346	1366.7	83.3454	1366.7	82.5006	1366.7	83.3626	1366.7	83.3985	1366.7	82.524	1366.7	83.9327	1366.7	81.5358	1366.7	83.99	1366.7	80.376	1366.7	83.4332	1366.7	78.9572	1366.7	81.4935	1366.7	77.1964	1366.7	78.714	1366.7	76.0081	1366.7	77.7654	1366.7	75.1914	1366.7	76.9469	1366.7	70.9145	1366.7	73.9439	1366.7	67.9427	1366.7	70.4933	1366.7	72.9287	1366.7	73.6554	1366.7	73.7358	1366.7	74.2474	1366.7	74.5526	1366.7	72.341	1366.7	71.5807	1366.7	72.8245	1366.7	65.5202	1366.7	71.2509	1366.7	72.2225	1366.7	69.4864	1366.7	73.346
1413.57	83.0138	1413.57	83.6236	1413.57	82.5981	1413.57	83.4432	1413.57	82.9161	1413.57	82.5891	1413.57	83.0575	1413.57	81.3731	1413.57	82.7836	1413.57	79.8403	1413.57	82.4287	1413.57	78.651	1413.57	81.2095	1413.57	79.3105	1413.57	78.4127	1413.57	79.9311	1413.57	77.1898	1413.57	78.4255	1413.57	77.4638	1413.57	77.1575	1413.57	74.7594	1413.57	75.5984	1413.57	73.0922	1413.57	70.8266	1413.57	73.3899	1413.57	69.0393	1413.57	71.6706	1413.57	72.1803	1413.57	71.2552	1413.57	72.0088	1413.57	72.236	1413.57	67.9007	1413.57	67.9772	1413.57	72.0211	1413.57	67.6235	1413.57	73.1333
1463.38	83.1796	1463.38	83.9535	1463.38	82.1878	1463.38	83.7186	1463.38	82.5075	1463.38	82.9336	1463.38	83.1398	1463.38	81.8352	1463.38	82.921	1463.38	80.2355	1463.38	82.1649	1463.38	78.1051	1463.38	80.6213	1463.38	76.2849	1463.38	77.1429	1463.38	77.0731	1463.38	75.1345	1463.38	76.0097	1463.38	77.1412	1463.38	74.4387	1463.38	76.5226	1463.38	76.8217	1463.38	74.1075	1463.38	76.1999	1463.38	74.5169	1463.38	69.6073	1463.38	72.1374	1463.38	69.5339	1463.38	67.941	1463.38	72.755	1463.38	70.4133	1463.38	69.5338	1463.38	67.1145	1463.38	70.4855	1463.38	71.0024	1463.38	74.6771
1516.11	82.7607	1516.11	83.7031	1516.11	81.4749	1516.11	83.4411	1516.11	82.192	1516.11	82.7587	1516.11	83.1264	1516.11	81.6236	1516.11	83.043	1516.11	79.7908	1516.11	82.3298	1516.11	78.4076	1516.11	80.8156	1516.11	76.9823	1516.11	78.6933	1516.11	75.0557	1516.11	75.6053	1516.11	75.355	1516.11	74.9292	1516.11	72.0485	1516.11	75.9473	1516.11	67.7279	1516.11	73.7709	1516.11	75.4203	1516.11	73.626	1516.11	73.4184	1516.11	73.7876	1516.11	66.1046	1516.11	70.8251	1516.11	71.609	1516.11	67.9997	1516.11	70.5154	1516.11	67.4056	1516.11	68.7724	1516.11	71.7911	1516.11	72.9624
1568.85	82.735	1568.85	83.3776	1568.85	81.6818	1568.85	83.3545	1568.85	81.5276	1568.85	82.6152	1568.85	82.5032	1568.85	80.8483	1568.85	83.2257	1568.85	79.0317	1568.85	82.4871	1568.85	77.918	1568.85	80.365	1568.85	76.6686	1568.85	78.193	1568.85	74.5503	1568.85	74.9804	1568.85	73.5878	1568.85	73.3652	1568.85	73.4458	1568.85	73.5866	1568.85	68.1636	1568.85	74.7427	1568.85	70.6433	1568.85	75.08	1568.85	72.6747	1568.85	72.6857	1568.85	66.9151	1568.85	69.1061	1568.85	68.6272	1568.85	67.7376	1568.85	71.6871	1568.85	66.7115	1568.85	68.3123	1568.85	71.164	1568.85	71.2494
1624.51	83.7767	1624.51	83.4965	1624.51	82.8031	1624.51	82.8887	1624.51	81.1573	1624.51	81.7595	1624.51	82.0515	1624.51	80.2721	1624.51	82.948	1624.51	79.6477	1624.51	82.3124	1624.51	79.0283	1624.51	80.6778	1624.51	76.8809	1624.51	78.4856	1624.51	74.3035	1624.51	76.3659	1624.51	71.6054	1624.51	74.2538	1624.51	72.0432	1624.51	73.5394	1624.51	73.527	1624.51	72.3375	1624.51	70.5119	1624.51	74.1989	1624.51	73.304	1624.51	74.3964	1624.51	71.2851	1624.51	69.0197	1624.51	67.4187	1624.51	68.4829	1624.51	69.8362	1624.51	68.4671	1624.51	69.5149	1624.51	70.2511	1624.51	71.7534
1681.64	84.0367	1681.64	83.6044	1681.64	83.1795	1681.64	82.5881	1681.64	81.3816	1681.64	81.5897	1681.64	81.6728	1681.64	80.5943	1681.64	82.7841	1681.64	79.7489	1681.64	81.666	1681.64	78.2508	1681.64	79.6505	1681.64	76.229	1681.64	77.8751	1681.64	74.1912	1681.64	75.8864	1681.64	74.2369	1681.64	74.3439	1681.64	72.3127	1681.64	74.5347	1681.64	65.8186	1681.64	75.3037	1681.64	68.5372	1681.64	73.0922	1681.64	69.8149	1681.64	73.3352	1681.64	71.9083	1681.64	69.305	1681.64	68.3906	1681.64	66.3765	1681.64	70.9352	1681.64	66.0831	1681.64	69.0487	1681.64	71.1186	1681.64	71.9558
1741.7	83.7704	1741.7	83.5556	1741.7	82.9024	1741.7	82.7953	1741.7	81.8605	1741.7	81.3435	1741.7	81.3762	1741.7	79.8967	1741.7	81.6202	1741.7	79.257	1741.7	81.5187	1741.7	77.2917	1741.7	79.9487	1741.7	75.2826	1741.7	77.07	1741.7	75.4445	1741.7	74.8594	1741.7	76.5586	1741.7	73.9975	1741.7	77.6606	1741.7	73.1865	1741.7	74.1739	1741.7	72.4156	1741.7	68.0982	1741.7	74.6491	1741.7	63.7135	1741.7	74.4366	1741.7	69.8388	1741.7	70.7436	1741.7	70.6828	1741.7	66.3571	1741.7	68.2217	1741.7	67.5461	1741.7	69.4276	1741.7	71.4324	1741.7	70.784
1803.22	83.0248	1803.22	83.3398	1803.22	81.9629	1803.22	82.9059	1803.22	81.115	1803.22	81.5749	1803.22	81.554	1803.22	80.1445	1803.22	81.7408	1803.22	77.6332	1803.22	80.9782	1803.22	76.0007	1803.22	79.914	1803.22	77.1218	1803.22	77.9395	1803.22	75.9277	1803.22	74.6031	1803.22	73.3649	1803.22	72.2357	1803.22	68.5849	1803.22	72.1476	1803.22	68.5029	1803.22	72.7461	1803.22	71.7338	1803.22	71.1264	1803.22	68.414	1803.22	71.9737	1803.22	66.0818	1803.22	68.0021	1803.22	69.6982	1803.22	66.7975	1803.22	69.7715	1803.22	68.251	1803.22	66.7409	1803.22	69.0412	1803.22	71.2905
1866.21	83.3523	1866.21	82.8299	1866.21	82.623	1866.21	82.0112	1866.21	80.9059	1866.21	81.631	1866.21	81.0151	1866.21	80.1745	1866.21	81.6226	1866.21	77.3041	1866.21	81.4792	1866.21	77.208	1866.21	80.3334	1866.21	75.7581	1866.21	77.6654	1866.21	73.1749	1866.21	75.4961	1866.21	67.8077	1866.21	71.9146	1866.21	67.8121	1866.21	69.4436	1866.21	66.4107	1866.21	69.997	1866.21	68.7695	1866.21	72.8571	1866.21	71.9091	1866.21	71.6938	1866.21	65.4763	1866.21	69.7905	1866.21	62.5345	1866.21	68.4618	1866.21	65.7035	1866.21	65.6248	1866.21	65.1223	1866.21	68.9043	1866.21	69.0877
1932.13	83.2084	1932.13	82.5638	1932.13	83.5066	1932.13	82.1899	1932.13	81.9783	1932.13	80.9639	1932.13	80.3942	1932.13	79.4712	1932.13	80.9908	1932.13	78.9869	1932.13	80.8702	1932.13	77.6357	1932.13	79.9504	1932.13	75.6911	1932.13	77.8806	1932.13	75.4376	1932.13	74.6795	1932.13	74.4765	1932.13	73.1803	1932.13	74.0817	1932.13	70.0228	1932.13	72.9712	1932.13	72.272	1932.13	56.0317	1932.13	70.8239	1932.13	70.4993	1932.13	71.2042	1932.13	70.2355	1932.13	69.3855	1932.13	64.1207	1932.13	68.4859	1932.13	64.7002	1932.13	65.7129	1932.13	63.266	1932.13	70.6253	1932.13	68.4132
1999.51	82.6241	1999.51	82.7068	1999.51	82.9922	1999.51	81.8267	1999.51	82.111	1999.51	79.371	1999.51	80.539	1999.51	77.9669	1999.51	80.3315	1999.51	78.1925	1999.51	80.4636	1999.51	77.8642	1999.51	80.3849	1999.51	77.3727	1999.51	77.444	1999.51	75.5904	1999.51	75.3797	1999.51	76.3602	1999.51	71.4622	1999.51	75.5238	1999.51	70.7457	1999.51	75.2684	1999.51	67.2868	1999.51	73.2665	1999.51	71.7673	1999.51	66.3768	1999.51	70.8948	1999.51	69.4571	1999.51	70.2414	1999.51	64.7956	1999.51	66.4227	1999.51	64.6122	1999.51	65.021	1999.51	64.9718	1999.51	70.3189	1999.51	68.2819
2069.82	82.5528	2069.82	83.1283	2069.82	81.665	2069.82	82.1997	2069.82	80.9764	2069.82	80.1947	2069.82	80.7292	2069.82	79.7238	2069.82	80.328	2069.82	79.4735	2069.82	80.0175	2069.82	77.8693	2069.82	79.4125	2069.82	77.3981	2069.82	77.7952	2069.82	76.5555	2069.82	72.5947	2069.82	73.7603	2069.82	72.9001	2069.82	72.6303	2069.82	70.0446	2069.82	72.712	2069.82	73.3247	2069.82	72.4069	2069.82	65.3002	2069.82	72.8722	2069.82	72.4361	2069.82	69.4556	2069.82	68.6087	2069.82	68.0174	2069.82	67.1826	2069.82	66.4299	2069.82	65.4858	2069.82	68.2953	2069.82	70.4566	2069.82	67.4309
2143.07	83.5323	2143.07	82.6794	2143.07	83.2298	2143.07	81.5112	2143.07	80.5449	2143.07	81.2546	2143.07	79.5362	2143.07	80.3745	2143.07	80.9767	2143.07	78.1357	2143.07	80.1747	2143.07	75.6814	2143.07	79.4903	2143.07	76.3935	2143.07	78.1392	2143.07	74.2179	2143.07	73.5917	2143.07	73.2126	2143.07	74.0042	2143.07	72.041	2143.07	67.4411	2143.07	63.8992	2143.07	67.9316	2143.07	68.4767	2143.07	70.3682	2143.07	69.4042	2143.07	69.3782	2143.07	67.176	2143.07	68.3604	2143.07	65.52	2143.07	50.0629	2143.07	66.2078	2143.07	60.5405	2143.07	67.3861	2143.07	70.4982	2143.07	68.8411
2219.24	83.5133	2219.24	82.4609	2219.24	82.9039	2219.24	81.9028	2219.24	81.8797	2219.24	80.8069	2219.24	79.3171	2219.24	80.3019	2219.24	80.1714	2219.24	79.9566	2219.24	80.9248	2219.24	77.3188	2219.24	79.2206	2219.24	75.8243	2219.24	77.569	2219.24	74.981	2219.24	74.2706	2219.24	74.533	2219.24	73.5582	2219.24	70.7222	2219.24	71.3958	2219.24	70.5657	2219.24	66.6869	2219.24	68.4914	2219.24	72.1745	2219.24	67.6763	2219.24	69.4166	2219.24	66.054	2219.24	69.0386	2219.24	68.5628	2219.24	56.6291	2219.24	65.3919	2219.24	67.3463	2219.24	69.8315	2219.24	72.7943	2219.24	67.8321
2296.88	82.9274	2296.88	82.2545	2296.88	82.4701	2296.88	82.1556	2296.88	81.1499	2296.88	81.1468	2296.88	79.9891	2296.88	81.0342	2296.88	79.7276	2296.88	79.795	2296.88	80.909	2296.88	77.2732	2296.88	80.3266	2296.88	75.818	2296.88	78.9654	2296.88	75.4544	2296.88	74.8903	2296.88	72.8082	2296.88	67.5982	2296.88	73.8165	2296.88	69.533	2296.88	70.2434	2296.88	69.3803	2296.88	68.715	2296.88	71.4831	2296.88	69.1245	2296.88	70.5075	2296.88	67.005	2296.88	67.356	2296.88	66.8481	2296.88	62.1904	2296.88	63.3005	2296.88	66.3814	2296.88	68.3074	2296.88	70.8147	2296.88	68.0072
2378.91	82.8056	2378.91	82.1525	2378.91	83.0365	2378.91	81.6942	2378.91	79.8937	2378.91	81.7173	2378.91	79.34	2378.91	80.7941	2378.91	79.3026	2378.91	78.8948	2378.91	81.1967	2378.91	77.8248	2378.91	80.6729	2378.91	77.0313	2378.91	79.5746	2378.91	73.2806	2378.91	76.1254	2378.91	72.9092	2378.91	69.8953	2378.91	71.5124	2378.91	68.6645	2378.91	70.4778	2378.91	70.5306	2378.91	69.8087	2378.91	68.6421	2378.91	67.8211	2378.91	71.1731	2378.91	67.7562	2378.91	67.5263	2378.91	66.268	2378.91	59.4628	2378.91	65.1346	2378.91	66.541	2378.91	68.7668	2378.91	70.2614	2378.91	69.234
2462.4	82.7525	2462.4	82.4691	2462.4	83.6384	2462.4	82.0059	2462.4	82.1635	2462.4	82.1021	2462.4	78.1888	2462.4	80.6264	2462.4	79.1173	2462.4	80.0144	2462.4	80.2403	2462.4	78.9516	2462.4	81.2206	2462.4	76.6861	2462.4	79.125	2462.4	76.895	2462.4	75.5405	2462.4	72.3872	2462.4	71.9632	2462.4	74.3797	2462.4	71.1446	2462.4	69.5725	2462.4	68.5619	2462.4	69.9525	2462.4	71.0461	2462.4	68.8221	2462.4	70.7112	2462.4	67.3363	2462.4	71.218	2462.4	65.3257	2462.4	58.6611	2462.4	65.643	2462.4	65.4231	2462.4	67.0378	2462.4	71.5381	2462.4	69.4632
2548.83	82.1972	2548.83	81.8583	2548.83	82.5361	2548.83	82.7308	2548.83	82.1856	2548.83	82.1046	2548.83	79.5673	2548.83	81.2533	2548.83	79.202	2548.83	79.0963	2548.83	79.9466	2548.83	77.2712	2548.83	79.7793	2548.83	75.7389	2548.83	79.2504	2548.83	73.5754	2548.83	76.0153	2548.83	75.1299	2548.83	70.4528	2548.83	70.2417	2548.83	72.3059	2548.83	72.2504	2548.83	70.0469	2548.83	67.1567	2548.83	71.1046	2548.83	69.7262	2548.83	70.2038	2548.83	67.4987	2548.83	69.3177	2548.83	64.5235	2548.83	50.5424	2548.83	66.1133	2548.83	67.4349	2548.83	64.7097	2548.83	70.6641	2548.83	69.6662
2639.65	82.1649	2639.65	82.3128	2639.65	82.8496	2639.65	82.8817	2639.65	82.1956	2639.65	82.5848	2639.65	79.534	2639.65	80.927	2639.65	78.9183	2639.65	79.2224	2639.65	80.1918	2639.65	77.9754	2639.65	79.6258	2639.65	77.1415	2639.65	77.849	2639.65	75.3425	2639.65	74.3027	2639.65	72.5891	2639.65	70.1763	2639.65	72.1488	2639.65	70.8792	2639.65	68.4277	2639.65	73.8206	2639.65	67.2539	2639.65	67.2949	2639.65	67.4027	2639.65	68.592	2639.65	68.6947	2639.65	68.1635	2639.65	64.7242	2639.65	57.3078	2639.65	65.7875	2639.65	64.6797	2639.65	64.9105	2639.65	70.0154	2639.65	68.4529
2731.93	82.2703	2731.93	82.8702	2731.93	82.911	2731.93	82.5994	2731.93	82.5695	2731.93	82.4127	2731.93	79.3689	2731.93	80.8746	2731.93	78.3391	2731.93	79.7398	2731.93	79.566	2731.93	78.0725	2731.93	80.2527	2731.93	76.735	2731.93	77.5891	2731.93	74.3326	2731.93	74.697	2731.93	73.0169	2731.93	73.2956	2731.93	70.3513	2731.93	71.1099	2731.93	70.4238	2731.93	71.4812	2731.93	69.191	2731.93	69.3823	2731.93	66.4321	2731.93	66.3409	2731.93	67.3096	2731.93	66.6044	2731.93	64.7137	2731.93	35.0483	2731.93	62.8374	2731.93	61.7806	2731.93	64.0494	2731.93	69.0442	2731.93	65.3425
2828.61	82.3134	2828.61	82.883	2828.61	82.1735	2828.61	83.2664	2828.61	82.6016	2828.61	82.1218	2828.61	79.6867	2828.61	80.6308	2828.61	77.6085	2828.61	78.7243	2828.61	79.7048	2828.61	77.7688	2828.61	79.9318	2828.61	75.8551	2828.61	78.2581	2828.61	72.5822	2828.61	73.2953	2828.61	71.7788	2828.61	71.3385	2828.61	71.8754	2828.61	71.5082	2828.61	68.6153	2828.61	70.8105	2828.61	65.6609	2828.61	64.9886	2828.61	63.5978	2828.61	67.6219	2828.61	67.0671	2828.61	66.668	2828.61	65.3137	2828.61	56.3199	2828.61	65.7216	2828.61	65.5121	2828.61	66.3527	2828.61	68.1384	2828.61	66.5502
2928.22	81.8042	2928.22	81.9552	2928.22	81.0611	2928.22	82.8955	2928.22	81.9877	2928.22	81.9285	2928.22	80.3171	2928.22	80.6342	2928.22	76.7992	2928.22	79.223	2928.22	79.4624	2928.22	76.6216	2928.22	80.3533	2928.22	74.7524	2928.22	79.0832	2928.22	74.2366	2928.22	72.9328	2928.22	72.7052	2928.22	71.5153	2928.22	69.8125	2928.22	73.2463	2928.22	69.3634	2928.22	71.6861	2928.22	68.8233	2928.22	67.4139	2928.22	67.0754	2928.22	68.274	2928.22	63.9091	2928.22	65.5373	2928.22	64.1758	2928.22	37.2454	2928.22	61.4496	2928.22	55.1252	2928.22	61.8657	2928.22	66.2165	2928.22	64.286
3030.76	81.7183	3030.76	82.7546	3030.76	81.8235	3030.76	82.6107	3030.76	81.3636	3030.76	81.6418	3030.76	81.0597	3030.76	80.1203	3030.76	77.6376	3030.76	78.7891	3030.76	79.2661	3030.76	76.9454	3030.76	80.4911	3030.76	75.9653	3030.76	78.6263	3030.76	72.7498	3030.76	76.4502	3030.76	70.5568	3030.76	76.4505	3030.76	71.3292	3030.76	75.2125	3030.76	69.0287	3030.76	65.1215	3030.76	66.1842	3030.76	68.2413	3030.76	65.7264	3030.76	69.0111	3030.76	66.6682	3030.76	66.3468	3030.76	65.6489	3030.76	59.6084	3030.76	64.8232	3030.76	61.3894	3030.76	63.4943	3030.76	64.5586	3030.76	67.5963
3137.7	81.1521	3137.7	83.1987	3137.7	81.7155	3137.7	83.2602	3137.7	81.7514	3137.7	81.2118	3137.7	81.0103	3137.7	80.4228	3137.7	78.1949	3137.7	78.4618	3137.7	79.4349	3137.7	76.9928	3137.7	80.8485	3137.7	74.5538	3137.7	79.6345	3137.7	74.3398	3137.7	77.5147	3137.7	73.5739	3137.7	74.2583	3137.7	72.5728	3137.7	71.2722	3137.7	67.3742	3137.7	63.7311	3137.7	69.5767	3137.7	67.728	3137.7	65.9598	3137.7	68.5096	3137.7	66.5547	3137.7	66.4786	3137.7	64.1689	3137.7	58.4553	3137.7	61.5619	3137.7	61.2599	3137.7	61.6089	3137.7	65.3208	3137.7	68.9191
3249.02	81.6825	3249.02	83.5673	3249.02	81.7324	3249.02	82.0273	3249.02	82.24	3249.02	82.4958	3249.02	80.7079	3249.02	80.5149	3249.02	78.1316	3249.02	78.4277	3249.02	79.4175	3249.02	77.3864	3249.02	80.7887	3249.02	75.6144	3249.02	78.2976	3249.02	74.4006	3249.02	75.9975	3249.02	71.7436	3249.02	69.7096	3249.02	70.6922	3249.02	69.1413	3249.02	71.5424	3249.02	66.1448	3249.02	68.4522	3249.02	69.5453	3249.02	66.7778	3249.02	67.8606	3249.02	65.8595	3249.02	62.0127	3249.02	67.8106	3249.02	60.5805	3249.02	62.5834	3249.02	58.2876	3249.02	61.7751	3249.02	65.7732	3249.02	65.8502
3363.28	82.6328	3363.28	83.3472	3363.28	80.5964	3363.28	82.2552	3363.28	82.2697	3363.28	82.0821	3363.28	81.9014	3363.28	80.4817	3363.28	77.1879	3363.28	79.452	3363.28	79.2657	3363.28	78.2888	3363.28	80.2767	3363.28	78.2294	3363.28	79.0267	3363.28	73.9102	3363.28	77.3956	3363.28	73.7334	3363.28	64.3361	3363.28	72.5465	3363.28	59.2188	3363.28	68.4154	3363.28	69.4673	3363.28	67.8165	3363.28	67.1254	3363.28	63.2063	3363.28	66.4101	3363.28	67.5658	3363.28	64.0044	3363.28	64.8853	3363.28	62.5883	3363.28	59.6732	3363.28	61.1675	3363.28	66.8717	3363.28	61.8841	3363.28	65.3013
3481.93	83.3414	3481.93	82.6322	3481.93	81.6278	3481.93	83.1306	3481.93	82.3783	3481.93	81.8356	3481.93	82.4304	3481.93	80.7508	3481.93	78.2576	3481.93	79.0949	3481.93	77.8445	3481.93	77.6495	3481.93	79.8351	3481.93	73.9329	3481.93	80.3054	3481.93	73.6142	3481.93	78.5037	3481.93	71.7286	3481.93	68.8952	3481.93	69.9101	3481.93	71.3596	3481.93	66.2642	3481.93	67.4051	3481.93	68.8668	3481.93	68.6113	3481.93	64.9452	3481.93	68.2683	3481.93	64.9648	3481.93	58.0998	3481.93	65.592	3481.93	62.3789	3481.93	59.6251	3481.93	56.5826	3481.93	62.9996	3481.93	63.6394	3481.93	66.1126
3604.98	83.4563	3604.98	83.5514	3604.98	82.0276	3604.98	82.8387	3604.98	82.6952	3604.98	82.2117	3604.98	82.7205	3604.98	80.2085	3604.98	78.6911	3604.98	79.4901	3604.98	77.5066	3604.98	77.4779	3604.98	79.9564	3604.98	75.2009	3604.98	80.8039	3604.98	69.896	3604.98	78.602	3604.98	68.636	3604.98	71.2219	3604.98	64.8396	3604.98	70.8811	3604.98	68.3313	3604.98	70.0341	3604.98	64.9087	3604.98	67.8574	3604.98	63.4918	3604.98	67.5244	3604.98	64.4711	3604.98	45.4882	3604.98	64.1932	3604.98	64.4842	3604.98	60.0533	3604.98	58.8361	3604.98	62.4993	3604.98	63.5746	3604.98	67.8265
3732.42	83.7577	3732.42	83.2239	3732.42	82.2706	3732.42	83.5553	3732.42	81.9873	3732.42	81.6901	3732.42	82.9521	3732.42	80.6677	3732.42	79.329	3732.42	78.816	3732.42	76.5954	3732.42	75.1647	3732.42	79.8895	3732.42	72.2904	3732.42	80.108	3732.42	72.208	3732.42	78.8543	3732.42	67.8837	3732.42	72.5156	3732.42	69.3539	3732.42	73.8472	3732.42	65.8775	3732.42	68.4373	3732.42	66.8148	3732.42	67.8135	3732.42	64.5003	3732.42	67.3636	3732.42	63.182	3732.42	57.5966	3732.42	62.2099	3732.42	62.3931	3732.42	62.047	3732.42	56.688	3732.42	59.9201	3732.42	64.8065	3732.42	67.0371
3864.26	83.9251	3864.26	84.0128	3864.26	82.965	3864.26	83.1233	3864.26	82.1891	3864.26	82.1819	3864.26	82.9342	3864.26	80.8401	3864.26	79.2342	3864.26	77.5086	3864.26	76.5074	3864.26	75.6944	3864.26	79.5459	3864.26	74.9452	3864.26	79.7996	3864.26	73.2344	3864.26	76.4407	3864.26	74.0835	3864.26	72.9471	3864.26	70.4791	3864.26	72.4407	3864.26	68.2613	3864.26	69.3359	3864.26	67.3116	3864.26	67.3624	3864.26	65.6361	3864.26	64.3786	3864.26	64.5513	3864.26	57.0885	3864.26	66.0937	3864.26	63.3601	3864.26	60.493	3864.26	56.5793	3864.26	59.0765	3864.26	64.9266	3864.26	65.6153
4000.49	84.0098	4000.49	83.3566	4000.49	83.1771	4000.49	83.4516	4000.49	82.0977	4000.49	82.1145	4000.49	82.9256	4000.49	80.8797	4000.49	79.8345	4000.49	77.4516	4000.49	75.158	4000.49	76.3324	4000.49	79.5265	4000.49	75.7849	4000.49	78.1063	4000.49	73.377	4000.49	71.3617	4000.49	72.3245	4000.49	71.2722	4000.49	69.8179	4000.49	72.219	4000.49	69.3388	4000.49	69.042	4000.49	65.4311	4000.49	62.6862	4000.49	66.819	4000.49	63.2814	4000.49	63.6074	4000.49	59.2094	4000.49	64.7214	4000.49	62.3122	4000.49	61.2503	4000.49	55.6684	4000.49	59.2079	4000.49	64.2633	4000.49	65.545
4141.11	84.0994	4141.11	84.2287	4141.11	83.872	4141.11	82.8702	4141.11	82.2286	4141.11	82.3795	4141.11	83.0559	4141.11	79.8055	4141.11	79.9795	4141.11	77.6221	4141.11	74.1531	4141.11	77.0739	4141.11	77.122	4141.11	75.4783	4141.11	76.8453	4141.11	71.2967	4141.11	74.0135	4141.11	68.7889	4141.11	71.9088	4141.11	65.2635	4141.11	72.1367	4141.11	67.2542	4141.11	63.982	4141.11	64.9788	4141.11	64.6479	4141.11	64.8968	4141.11	66.3381	4141.11	63.3136	4141.11	52.7996	4141.11	62.3128	4141.11	65.4169	4141.11	59.977	4141.11	57.8488	4141.11	58.7899	4141.11	62.6972	4141.11	65.8906
4287.6	83.6709	4287.6	83.3099	4287.6	84.01	4287.6	82.9732	4287.6	82.0991	4287.6	82.6352	4287.6	82.8554	4287.6	78.8491	4287.6	80.7129	4287.6	79.1213	4287.6	74.2456	4287.6	76.5309	4287.6	77.7725	4287.6	73.9349	4287.6	76.989	4287.6	71.2438	4287.6	73.8076	4287.6	68.5824	4287.6	70.9316	4287.6	69.6726	4287.6	65.7409	4287.6	65.8709	4287.6	60.4342	4287.6	65.6438	4287.6	61.6117	4287.6	64.5879	4287.6	66.1429	4287.6	62.1607	4287.6	52.4306	4287.6	63.6356	4287.6	63.7312	4287.6	60.764	4287.6	52.2125	4287.6	53.5824	4287.6	65.5878	4287.6	60.5909
4438.48	83.8512	4438.48	84.0263	4438.48	83.9088	4438.48	83.5246	4438.48	82.1772	4438.48	81.8553	4438.48	81.9889	4438.48	79.5637	4438.48	80.565	4438.48	78.3827	4438.48	71.8451	4438.48	75.7489	4438.48	77.3234	4438.48	73.1175	4438.48	76.1619	4438.48	72.004	4438.48	74.376	4438.48	71.246	4438.48	67.552	4438.48	69.1986	4438.48	63.56	4438.48	68.3153	4438.48	65.36	4438.48	66.2941	4438.48	64.7984	4438.48	63.57	4438.48	64.2337	4438.48	64.1222	4438.48	60.7665	4438.48	63.9153	4438.48	61.6541	4438.48	60.6418	4438.48	40.491	4438.48	54.7035	4438.48	65.1273	4438.48	61.2751
4595.21	83.4568	4595.21	83.463	4595.21	84.2981	4595.21	83.3823	4595.21	82.7891	4595.21	81.3932	4595.21	81.4962	4595.21	80.9031	4595.21	80.6752	4595.21	78.1885	4595.21	71.6583	4595.21	75.8395	4595.21	76.0949	4595.21	74.9204	4595.21	75.9529	4595.21	74.4486	4595.21	74.9763	4595.21	71.2874	4595.21	70.3717	4595.21	70.3004	4595.21	71.5741	4595.21	68.2709	4595.21	65.4846	4595.21	67.0405	4595.21	65.2308	4595.21	66.3377	4595.21	53.9922	4595.21	65.1723	4595.21	61.4434	4595.21	63.0281	4595.21	60.2586	4595.21	63.1198	4595.21	55.4964	4595.21	47.7969	4595.21	62.8044	4595.21	60.673
4756.35	83.5141	4756.35	84.2678	4756.35	83.934	4756.35	83.5981	4756.35	83.4515	4756.35	81.3992	4756.35	81.6275	4756.35	80.9096	4756.35	80.7894	4756.35	78.3041	4756.35	72.3371	4756.35	77.9576	4756.35	75.704	4756.35	76.3064	4756.35	77.7376	4756.35	73.4103	4756.35	75.665	4756.35	71.9939	4756.35	71.533	4756.35	69.1208	4756.35	70.7684	4756.35	68.5919	4756.35	66.623	4756.35	65.5865	4756.35	64.6099	4756.35	66.0983	4756.35	59.0031	4756.35	64.2704	4756.35	58.8299	4756.35	64.6963	4756.35	61.8305	4756.35	63.0152	4756.35	53.5385	4756.35	49.844	4756.35	61.6532	4756.35	63.0822
4924.8	84.0901	4924.8	84.3244	4924.8	84.0778	4924.8	82.9311	4924.8	83.6805	4924.8	82.0043	4924.8	81.6598	4924.8	80.8676	4924.8	81.45	4924.8	78.9298	4924.8	74.8304	4924.8	78.0317	4924.8	74.592	4924.8	75.8992	4924.8	78.9104	4924.8	71.8007	4924.8	74.9038	4924.8	70.0742	4924.8	70.9499	4924.8	66.5801	4924.8	68.219	4924.8	67.1059	4924.8	65.377	4924.8	64.8989	4924.8	64.4216	4924.8	66.1645	4924.8	65.474	4924.8	62.7789	4924.8	59.7782	4924.8	64.8117	4924.8	62.6935	4924.8	61.5129	4924.8	52.2661	4924.8	46.0087	4924.8	61.8078	4924.8	61.9498
5097.66	83.8274	5097.66	84.1987	5097.66	83.9749	5097.66	82.3827	5097.66	83.6042	5097.66	82.7094	5097.66	81.3227	5097.66	80.3542	5097.66	81.7691	5097.66	79.7177	5097.66	76.8822	5097.66	77.7635	5097.66	75.5046	5097.66	74.5012	5097.66	77.5994	5097.66	72.5262	5097.66	74.427	5097.66	71.5144	5097.66	70.649	5097.66	68.7403	5097.66	62.7744	5097.66	66.9817	5097.66	65.599	5097.66	65.5944	5097.66	66.1004	5097.66	65.3161	5097.66	64.1753	5097.66	63.6488	5097.66	58.8643	5097.66	63.8802	5097.66	62.4794	5097.66	61.8647	5097.66	46.0437	5097.66	48.4706	5097.66	61.1869	5097.66	60.5354
5277.83	83.7105	5277.83	84.2687	5277.83	83.9717	5277.83	82.2902	5277.83	83.7516	5277.83	82.7772	5277.83	81.4049	5277.83	80.2794	5277.83	81.6523	5277.83	80.2414	5277.83	77.8911	5277.83	77.3168	5277.83	75.8673	5277.83	75.7623	5277.83	77.2265	5277.83	73.058	5277.83	75.4965	5277.83	70.933	5277.83	71.9733	5277.83	70.2576	5277.83	68.2271	5277.83	68.1043	5277.83	68.3528	5277.83	66.2434	5277.83	61.6281	5277.83	64.7352	5277.83	60.2321	5277.83	64.6084	5277.83	56.0727	5277.83	64.4493	5277.83	60.4436	5277.83	62.1063	5277.83	54.255	5277.83	36.4219	5277.83	63.1791	5277.83	63.3316
5463.87	83.9777	5463.87	83.1264	5463.87	83.1463	5463.87	82.3992	5463.87	83.6361	5463.87	81.9212	5463.87	81.1028	5463.87	81.2335	5463.87	81.9631	5463.87	79.2314	5463.87	78.8438	5463.87	79.2079	5463.87	73.9546	5463.87	76.2853	5463.87	77.7362	5463.87	73.9961	5463.87	75.3979	5463.87	70.5694	5463.87	71.9893	5463.87	68.6277	5463.87	69.361	5463.87	67.2738	5463.87	67.7113	5463.87	67.924	5463.87	58.212	5463.87	63.547	5463.87	48.6841	5463.87	64.9746	5463.87	41.1579	5463.87	64.558	5463.87	61.2257	5463.87	63.4967	5463.87	53.0082	5463.87	46.6552	5463.87	57.0915	5463.87	61.3026
5657.23	83.2413	5657.23	81.6252	5657.23	82.6178	5657.23	82.3091	5657.23	83.5399	5657.23	81.0377	5657.23	79.6872	5657.23	81.5308	5657.23	81.2463	5657.23	79.8895	5657.23	79.0316	5657.23	79.1714	5657.23	70.64	5657.23	75.1784	5657.23	78.7186	5657.23	72.1619	5657.23	75.2139	5657.23	70.3754	5657.23	69.608	5657.23	67.6082	5657.23	68.893	5657.23	66.735	5657.23	67.3625	5657.23	63.5282	5657.23	53.9327	5657.23	64.1696	5657.23	61.8661	5657.23	63.5346	5657.23	56.7743	5657.23	62.9761	5657.23	59.3149	5657.23	62.6071	5657.23	53.7228	5657.23	46.6794	5657.23	61.3326	5657.23	59.5671
5856.45	82.4824	5856.45	80.7001	5856.45	82.0753	5856.45	81.5219	5856.45	82.4093	5856.45	81.4911	5856.45	79.538	5856.45	81.6347	5856.45	80.2107	5856.45	80.7811	5856.45	78.5841	5856.45	77.7755	5856.45	67.7128	5856.45	74.7555	5856.45	77.6195	5856.45	72.2476	5856.45	77.2115	5856.45	69.2926	5856.45	71.4025	5856.45	67.3526	5856.45	65.0085	5856.45	67.7879	5856.45	65.2707	5856.45	65.1114	5856.45	56.3081	5856.45	63.6458	5856.45	56.5715	5856.45	62.3488	5856.45	49.0312	5856.45	63.1727	5856.45	61.5219	5856.45	62.5512	5856.45	55.1232	5856.45	57.254	5856.45	60.1978	5856.45	60.88
6062.99	81.0284	6062.99	80.7941	6062.99	81.4569	6062.99	80.1358	6062.99	81.533	6062.99	82.1299	6062.99	79.2315	6062.99	81.93	6062.99	80.1016	6062.99	80.2589	6062.99	79.1424	6062.99	78.2631	6062.99	69.8096	6062.99	75.3746	6062.99	76.5634	6062.99	73.0305	6062.99	75.0735	6062.99	70.3067	6062.99	73.1356	6062.99	68.0407	6062.99	66.182	6062.99	67.3313	6062.99	65.5964	6062.99	66.5751	6062.99	58.5297	6062.99	65.4184	6062.99	53.3687	6062.99	62.9519	6062.99	51.3098	6062.99	63.0105	6062.99	58.7985	6062.99	63.7787	6062.99	48.5545	6062.99	57.0343	6062.99	56.5455	6062.99	56.4763
6276.86	80.5567	6276.86	79.9161	6276.86	80.8017	6276.86	79.5867	6276.86	80.5942	6276.86	82.219	6276.86	78.5204	6276.86	81.9554	6276.86	79.3774	6276.86	79.6563	6276.86	80.5124	6276.86	79.1803	6276.86	71.624	6276.86	74.5726	6276.86	76.2457	6276.86	73.6648	6276.86	72.6071	6276.86	67.9621	6276.86	70.3657	6276.86	68.4727	6276.86	66.6812	6276.86	67.1188	6276.86	66.8364	6276.86	66.684	6276.86	59.0651	6276.86	65.0914	6276.86	51.5975	6276.86	65.3074	6276.86	46.6267	6276.86	64.1986	6276.86	60.0763	6276.86	64.9445	6276.86	56.3402	6276.86	60.8709	6276.86	58.767	6276.86	57.197
6498.05	80.7734	6498.05	79.1565	6498.05	80.3811	6498.05	80.0002	6498.05	79.9519	6498.05	81.7853	6498.05	78.6707	6498.05	81.1642	6498.05	78.4058	6498.05	79.6049	6498.05	80.2342	6498.05	78.3401	6498.05	73.7966	6498.05	74.7155	6498.05	75.5908	6498.05	73.0137	6498.05	72.9641	6498.05	69.2055	6498.05	69.7544	6498.05	68.3	6498.05	63.0054	6498.05	66.3113	6498.05	65.5027	6498.05	65.6267	6498.05	56.8171	6498.05	63.8109	6498.05	50.0761	6498.05	64.8499	6498.05	49.0882	6498.05	62.8781	6498.05	59.6304	6498.05	64.1405	6498.05	51.7115	6498.05	60.6821	6498.05	55.3393	6498.05	54.7078
6726.56	80.5542	6726.56	79.4205	6726.56	80.6499	6726.56	80.2203	6726.56	79.536	6726.56	81.0013	6726.56	79.2383	6726.56	80.8776	6726.56	77.3535	6726.56	78.7633	6726.56	80.5703	6726.56	77.1551	6726.56	76.6363	6726.56	74.5038	6726.56	75.9378	6726.56	71.6571	6726.56	69.2294	6726.56	70.4898	6726.56	68.4238	6726.56	66.7601	6726.56	59.6097	6726.56	65.8171	6726.56	58.5628	6726.56	64.4014	6726.56	54.8108	6726.56	62.9366	6726.56	54.8662	6726.56	63.9853	6726.56	45.5857	6726.56	63.9647	6726.56	56.7363	6726.56	64.4628	6726.56	49.3859	6726.56	59.492	6726.56	55.7618	6726.56	49.4486
6963.87	80.5875	6963.87	80.3505	6963.87	81.0183	6963.87	80.0455	6963.87	79.5097	6963.87	80.7694	6963.87	79.92	6963.87	80.2982	6963.87	77.4085	6963.87	77.4595	6963.87	79.0986	6963.87	77.5473	6963.87	75.9324	6963.87	74.8546	6963.87	73.5557	6963.87	72.7699	6963.87	68.804	6963.87	69.7168	6963.87	66.8174	6963.87	67.3177	6963.87	60.5177	6963.87	66.1381	6963.87	58.9124	6963.87	64.0116	6963.87	48.6965	6963.87	64.2635	6963.87	47.3346	6963.87	63.5724	6963.87	51.9871	6963.87	63.8017	6963.87	57.5865	6963.87	64.5305	6963.87	46.7186	6963.87	60.5249	6963.87	56.5313	6963.87	52.3846
7209.96	80.7935	7209.96	80.8462	7209.96	80.7254	7209.96	80.5685	7209.96	79.8478	7209.96	80.6938	7209.96	80.1985	7209.96	78.9952	7209.96	76.9964	7209.96	77.9265	7209.96	77.7729	7209.96	77.8193	7209.96	74.6906	7209.96	75.4941	7209.96	67.5947	7209.96	72.5584	7209.96	72.2466	7209.96	69.9801	7209.96	67.8358	7209.96	65.8602	7209.96	37.0849	7209.96	65.3687	7209.96	36.3647	7209.96	62.1624	7209.96	53.0502	7209.96	63.4278	7209.96	54.4131	7209.96	61.6968	7209.96	54.6018	7209.96	63.0094	7209.96	53.3871	7209.96	64.8981	7209.96	50.8064	7209.96	57.8371	7209.96	53.0812	7209.96	46.0433
7464.84	80.9675	7464.84	81.5078	7464.84	80.6843	7464.84	81.6523	7464.84	80.4404	7464.84	80.094	7464.84	80.6478	7464.84	78.8199	7464.84	77.641	7464.84	78.307	7464.84	77.2681	7464.84	77.4202	7464.84	73.3451	7464.84	74.6525	7464.84	67.0665	7464.84	71.0536	7464.84	72.0028	7464.84	67.9413	7464.84	65.527	7464.84	64.7842	7464.84	56.208	7464.84	64.3003	7464.84	49.922	7464.84	60.6547	7464.84	51.2126	7464.84	60.1812	7464.84	54.2552	7464.84	61.2459	7464.84	52.9806	7464.84	62.2557	7464.84	47.8901	7464.84	63.2409	7464.84	45.4637	7464.84	59.8089	7464.84	53.756	7464.84	46.8437
7727.05	81.4881	7727.05	82.7028	7727.05	81.8083	7727.05	82.1301	7727.05	81.4114	7727.05	79.5418	7727.05	80.5398	7727.05	78.8818	7727.05	78.0739	7727.05	77.2408	7727.05	76.0052	7727.05	76.8692	7727.05	72.879	7727.05	72.773	7727.05	69.5079	7727.05	69.5774	7727.05	70.5034	7727.05	65.4281	7727.05	63.5404	7727.05	62.4917	7727.05	60.7685	7727.05	62.6407	7727.05	39.2643	7727.05	58.9618	7727.05	40.6678	7727.05	60.4471	7727.05	45.8089	7727.05	60.6954	7727.05	52.8533	7727.05	60.7247	7727.05	51.6139	7727.05	62.6415	7727.05	43.5999	7727.05	57.5213	7727.05	52.13	7727.05	46.5835
7999.51	82.6053	7999.51	83.6065	7999.51	82.635	7999.51	81.949	7999.51	82.5662	7999.51	79.345	7999.51	80.5235	7999.51	77.6668	7999.51	77.432	7999.51	76.6581	7999.51	75.6164	7999.51	75.6236	7999.51	73.5762	7999.51	72.1332	7999.51	70.0272	7999.51	68.9281	7999.51	69.2848	7999.51	65.5555	7999.51	64.3532	7999.51	61.4031	7999.51	63.9118	7999.51	61.5939	7999.51	54.8122	7999.51	58.9441	7999.51	51.0632	7999.51	58.4224	7999.51	51.3168	7999.51	59.8309	7999.51	53.7827	7999.51	58.9327	7999.51	44.5884	7999.51	61.0072	7999.51	48.1649	7999.51	57.0346	7999.51	49.2605	7999.51	48.1498
8282.23	82.3812	8282.23	83.2269	8282.23	82.1337	8282.23	81.7597	8282.23	82.4547	8282.23	79.4962	8282.23	81.5119	8282.23	78.3828	8282.23	79.0558	8282.23	77.2103	8282.23	76.6445	8282.23	75.117	8282.23	73.5606	8282.23	70.6561	8282.23	67.9963	8282.23	65.2021	8282.23	69.1744	8282.23	59.8904	8282.23	62.2439	8282.23	57.222	8282.23	59.5667	8282.23	57.4977	8282.23	53.6462	8282.23	54.3075	8282.23	50.6751	8282.23	55.0522	8282.23	50.6299	8282.23	54.6465	8282.23	54.0748	8282.23	56.8114	8282.23	41.9499	8282.23	59.2335	8282.23	47.6039	8282.23	55.0389	8282.23	43.7511	8282.23	47.1648
8573.73	81.9508	8573.73	82.6724	8573.73	81.6066	8573.73	81.6893	8573.73	81.9762	8573.73	79.389	8573.73	81.4681	8573.73	79.6573	8573.73	79.1546	8573.73	76.5674	8573.73	76.856	8573.73	74.2594	8573.73	73.1729	8573.73	67.2387	8573.73	66.4222	8573.73	64.3803	8573.73	68.3574	8573.73	58.6761	8573.73	53.78	8573.73	58.4396	8573.73	58.1853	8573.73	55.5278	8573.73	57.7467	8573.73	54.9121	8573.73	56.4864	8573.73	55.424	8573.73	51.7236	8573.73	55.7657	8573.73	49.3928	8573.73	53.8072	8573.73	38.5462	8573.73	59.1172	8573.73	48.9304	8573.73	55.8348	8573.73	47.6581	8573.73	41.8977
8876.95	81.2494	8876.95	82.5215	8876.95	80.9702	8876.95	81.3542	8876.95	81.5937	8876.95	80.667	8876.95	81.4827	8876.95	80.112	8876.95	79.2764	8876.95	77.1067	8876.95	76.9755	8876.95	73.376	8876.95	73.321	8876.95	68.0358	8876.95	64.5296	8876.95	64.4238	8876.95	66.7136	8876.95	60.7813	8876.95	58.696	8876.95	58.0708	8876.95	59.253	8876.95	57.4301	8876.95	60.3011	8876.95	54.9073	8876.95	53.8433	8876.95	54.1622	8876.95	49.4349	8876.95	55.2942	8876.95	38.4827	8876.95	54.5247	8876.95	43.3692	8876.95	59.4226	8876.95	45.662	8876.95	56.7927	8876.95	38.516	8876.95	38.9314
9188.96	81.6677	9188.96	82.8123	9188.96	81.222	9188.96	81.3311	9188.96	82.0023	9188.96	81.3193	9188.96	81.7977	9188.96	80.3389	9188.96	79.4668	9188.96	76.9882	9188.96	76.5542	9188.96	73.1751	9188.96	72.8895	9188.96	67.4809	9188.96	64.462	9188.96	65.2955	9188.96	66.6132	9188.96	60.5877	9188.96	56.7337	9188.96	59.9522	9188.96	57.8626	9188.96	58.4771	9188.96	59.8363	9188.96	54.6384	9188.96	48.5242	9188.96	53.8763	9188.96	35.6389	9188.96	55.7495	9188.96	16.7359	9188.96	55.6292	9188.96	40.1223	9188.96	58.9482	9188.96	33.5533	9188.96	55.3919	9188.96	41.6603	9188.96	39.6766
9514.16	82.2712	9514.16	82.6162	9514.16	82.0962	9514.16	81.7725	9514.16	82.451	9514.16	81.2256	9514.16	82.1655	9514.16	80.1906	9514.16	79.6275	9514.16	75.6669	9514.16	76.0835	9514.16	72.7095	9514.16	70.0734	9514.16	67.2834	9514.16	65.4564	9514.16	66.0488	9514.16	65.5839	9514.16	61.3686	9514.16	57.6198	9514.16	59.8657	9514.16	57.1836	9514.16	58.321	9514.16	59.8116	9514.16	55.0919	9514.16	55.0963	9514.16	54.4055	9514.16	45.3253	9514.16	55.088	9514.16	34.8174	9514.16	54.4484	9514.16	45.7658	9514.16	58.5426	9514.16	43.5656	9514.16	55.1842	9514.16	40.5897	9514.16	37.9831
9849.61	83.2432	9849.61	83.248	9849.61	82.9564	9849.61	82.5196	9849.61	82.6674	9849.61	81.6517	9849.61	81.8317	9849.61	79.1985	9849.61	79.1344	9849.61	74.7182	9849.61	74.1681	9849.61	71.388	9849.61	67.5682	9849.61	67.531	9849.61	65.7224	9849.61	63.8513	9849.61	63.6745	9849.61	59.4482	9849.61	59.1857	9849.61	56.82	9849.61	52.5316	9849.61	55.5455	9849.61	57.0279	9849.61	53.9832	9849.61	52.1307	9849.61	53.5313	9849.61	34.4728	9849.61	53.2737	9849.61	40.4122	9849.61	54.6729	9849.61	41.631	9849.61	56.5775	9849.61	38.6231	9849.61	54.1881	9849.61	35.9316	9849.61	34.2951
10196.8	83.8152	10196.8	83.5397	10196.8	83.2013	10196.8	82.7741	10196.8	82.7268	10196.8	81.5427	10196.8	81.4505	10196.8	78.176	10196.8	78.357	10196.8	74.2719	10196.8	72.2655	10196.8	71.8947	10196.8	68.8608	10196.8	67.0788	10196.8	66.0553	10196.8	64.0303	10196.8	61.0183	10196.8	59.1305	10196.8	55.5702	10196.8	58.2267	10196.8	50.275	10196.8	56.5423	10196.8	52.1849	10196.8	53.2096	10196.8	41.9068	10196.8	53.3837	10196.8	42.1855	10196.8	53.9534	10196.8	44.821	10196.8	55.2389	10196.8	36.6767	10196.8	56.0119	10196.8	41.9766	10196.8	53.5859	10196.8	38.5587	10196.8	41.1744
10555.7	83.4139	10555.7	83.0048	10555.7	82.8598	10555.7	83.2892	10555.7	82.7757	10555.7	81.6204	10555.7	81.704	10555.7	78.1407	10555.7	78.305	10555.7	74.2834	10555.7	72.9846	10555.7	72.6828	10555.7	72.348	10555.7	67.6198	10555.7	65.5217	10555.7	64.4452	10555.7	59.7836	10555.7	57.4313	10555.7	56.2268	10555.7	57.677	10555.7	49.4034	10555.7	54.9496	10555.7	53.8729	10555.7	51.8265	10555.7	49.1853	10555.7	52.1577	10555.7	37.5573	10555.7	52.9682	10555.7	47.6487	10555.7	54.8356	10555.7	28.6724	10555.7	55.9657	10555.7	42.395	10555.7	52.2774	10555.7	29.9238	10555.7	42.1483
10927.7	82.8822	10927.7	82.4118	10927.7	82.8944	10927.7	83.3809	10927.7	82.4976	10927.7	81.3949	10927.7	81.7893	10927.7	77.5442	10927.7	78.6841	10927.7	74.3205	10927.7	74.8434	10927.7	72.3097	10927.7	72.6419	10927.7	66.7357	10927.7	67.0413	10927.7	63.0558	10927.7	62.1514	10927.7	56.3493	10927.7	53.8701	10927.7	57.0312	10927.7	49.521	10927.7	54.4804	10927.7	54.7546	10927.7	52.336	10927.7	52.7922	10927.7	51.1496	10927.7	41.4896	10927.7	52.55	10927.7	48.7471	10927.7	54.67	10927.7	41.4316	10927.7	54.4686	10927.7	45.0788	10927.7	49.7153	10927.7	43.1333	10927.7	40.263
11313	83.0503	11313	82.6507	11313	83.2563	11313	83.5615	11313	82.7818	11313	81.1401	11313	81.5509	11313	77.6185	11313	78.0102	11313	74.5933	11313	74.8873	11313	72.6972	11313	71.7963	11313	67.6343	11313	67.2864	11313	63.5102	11313	58.5336	11313	57.3786	11313	55.1828	11313	56.8734	11313	52.283	11313	53.7632	11313	51.6157	11313	51.2691	11313	50.4173	11313	54.1002	11313	46.4764	11313	55.2918	11313	45.9263	11313	55.2604	11313	46.4097	11313	53.0711	11313	41.3817	11313	51.0595	11313	31.0207	11313	39.4243
11712.9	82.4803	11712.9	82.0936	11712.9	82.7186	11712.9	83.4365	11712.9	82.9734	11712.9	81.3287	11712.9	81.4444	11712.9	78.2766	11712.9	78.159	11712.9	75.0286	11712.9	74.7055	11712.9	73.2933	11712.9	68.9615	11712.9	67.8108	11712.9	63.9441	11712.9	63.2061	11712.9	50.25	11712.9	57.7974	11712.9	49.6316	11712.9	56.3136	11712.9	52.8637	11712.9	54.7578	11712.9	51.0914	11712.9	54.0481	11712.9	48.3246	11712.9	52.2996	11712.9	44.1282	11712.9	54.0397	11712.9	47.7778	11712.9	54.6877	11712.9	46.2326	11712.9	51.1615	11712.9	47.0083	11712.9	47.2958	11712.9	30.4145	11712.9	39.706
12126	82.6937	12126	82.3455	12126	82.8902	12126	83.133	12126	82.5865	12126	80.1956	12126	81.3745	12126	77.4788	12126	78.2977	12126	73.7435	12126	74.3719	12126	70.5662	12126	69.2215	12126	63.4568	12126	65.4557	12126	57.7596	12126	51.9404	12126	45.6881	12126	55.0127	12126	49.2101	12126	51.6755	12126	46.8856	12126	56.385	12126	45.6406	12126	47.0252	12126	47.4088	12126	40.2777	12126	49.2356	12126	38.541	12126	46.2796	12126	41.5871	12126	46.3744	12126	43.1963	12126	39.4134	12126	31.0388	12126	45.9281
12553.7	81.908	12553.7	82.7025	12553.7	82.0807	12553.7	82.7929	12553.7	81.6407	12553.7	79.7152	12553.7	80.2737	12553.7	76.9408	12553.7	78.1117	12553.7	72.4968	12553.7	75.8251	12553.7	69.3881	12553.7	71.6517	12553.7	60.0649	12553.7	66.4444	12553.7	55.9189	12553.7	52.8183	12553.7	51.8632	12553.7	54.5695	12553.7	49.547	12553.7	50.8798	12553.7	47.3672	12553.7	54.6953	12553.7	42.0493	12553.7	48.3656	12553.7	46.5593	12553.7	46.4923	12553.7	51.7525	12553.7	38.4135	12553.7	50.7465	12553.7	29.0648	12553.7	49.388	12553.7	39.6122	12553.7	28.0238	12553.7	37.3785	12553.7	44.7501
12996.1	81.5407	12996.1	81.9174	12996.1	82.4524	12996.1	81.7911	12996.1	82.0336	12996.1	79.098	12996.1	80.0241	12996.1	75.7125	12996.1	77.0277	12996.1	71.148	12996.1	73.3764	12996.1	67.1524	12996.1	67.5035	12996.1	57.3361	12996.1	58.0286	12996.1	50.4875	12996.1	40.8343	12996.1	44.0719	12996.1	48.854	12996.1	45.1566	12996.1	50.2127	12996.1	43.4428	12996.1	48.1521	12996.1	38.9527	12996.1	40.4545	12996.1	43.892	12996.1	39.6452	12996.1	46.9503	12996.1	47.0966	12996.1	44.0642	12996.1	44.8663	12996.1	45.9627	12996.1	44.4847	12996.1	42.9175	12996.1	45.1426	12996.1	47.5847
13454.6	82.0835	13454.6	81.6739	13454.6	82.7407	13454.6	80.7084	13454.6	81.9664	13454.6	78.1389	13454.6	80.0602	13454.6	74.6408	13454.6	76.9074	13454.6	70.3778	13454.6	72.2374	13454.6	66.541	13454.6	65.3876	13454.6	56.9727	13454.6	57.0984	13454.6	52.8038	13454.6	49.6177	13454.6	48.8303	13454.6	43.609	13454.6	47.0966	13454.6	48.1988	13454.6	46.1776	13454.6	44.3317	13454.6	39.9504	13454.6	38.0195	13454.6	41.6267	13454.6	36.9846	13454.6	46.8411	13454.6	45.5687	13454.6	46.7348	13454.6	43.3198	13454.6	47.5608	13454.6	41.2289	13454.6	36.1085	13454.6	42.6833	13454.6	49.2293
13929.2	82.6532	13929.2	82.2041	13929.2	82.9191	13929.2	81.5315	13929.2	82.0086	13929.2	78.8536	13929.2	79.6893	13929.2	75.1595	13929.2	75.5018	13929.2	70.1705	13929.2	70.2561	13929.2	66.3927	13929.2	62.0792	13929.2	57.7142	13929.2	54.9968	13929.2	52.3891	13929.2	42.7023	13929.2	39.2571	13929.2	36.9995	13929.2	42.4715	13929.2	44.4902	13929.2	40.713	13929.2	42.0441	13929.2	39.958	13929.2	38.3574	13929.2	34.9081	13929.2	31.0857	13929.2	39.1742	13929.2	43.6595	13929.2	40.8465	13929.2	42.0221	13929.2	38.148	13929.2	42.4512	13929.2	42.8328	13929.2	44.1753	13929.2	49.3173
14419.9	82.747	14419.9	82.6079	14419.9	83.0001	14419.9	82.2605	14419.9	82.0991	14419.9	79.0455	14419.9	79.2041	14419.9	75.1296	14419.9	73.8489	14419.9	69.0133	14419.9	67.4682	14419.9	64.5567	14419.9	57.8742	14419.9	57.4653	14419.9	53.4737	14419.9	52.8104	14419.9	47.2071	14419.9	45.8937	14419.9	42.0499	14419.9	40.7241	14419.9	50.9943	14419.9	35.7219	14419.9	49.5389	14419.9	40.7529	14419.9	45.184	14419.9	39.8444	14419.9	34.167	14419.9	35.629	14419.9	42.2178	14419.9	39.0991	14419.9	41.2494	14419.9	36.5129	14419.9	41.9869	14419.9	47.0854	14419.9	45.0873	14419.9	46.8138
14928.2	82.8901	14928.2	83.4544	14928.2	83.1843	14928.2	82.6563	14928.2	81.8488	14928.2	78.9649	14928.2	78.3891	14928.2	74.8645	14928.2	71.8134	14928.2	66.8303	14928.2	63.8806	14928.2	62.5072	14928.2	59.2906	14928.2	58.4012	14928.2	55.4759	14928.2	53.2175	14928.2	52.9454	14928.2	48.0261	14928.2	42.9437	14928.2	45.4889	14928.2	53.6819	14928.2	39.9519	14928.2	49.0737	14928.2	42.3475	14928.2	40.5702	14928.2	43.3162	14928.2	34.0192	14928.2	42.554	14928.2	37.1326	14928.2	41.8321	14928.2	42.8642	14928.2	40.6622	14928.2	44.1147	14928.2	46.2045	14928.2	43.7099	14928.2	44.569
15455.6	83.3178	15455.6	83.9071	15455.6	83.5266	15455.6	82.7735	15455.6	81.5708	15455.6	78.2833	15455.6	77.5207	15455.6	73.6211	15455.6	69.1463	15455.6	63.6803	15455.6	60.311	15455.6	63.1839	15455.6	62.2074	15455.6	59.3484	15455.6	59.0032	15455.6	54.1741	15455.6	53.7701	15455.6	47.6339	15455.6	36.0056	15455.6	46.4595	15455.6	54.785	15455.6	42.3295	15455.6	45.2122	15455.6	44.143	15455.6	31.6229	15455.6	45.6261	15455.6	33.5014	15455.6	45.1265	15455.6	31.5199	15455.6	42.0516	15455.6	39.0622	15455.6	43.4514	15455.6	44.6475	15455.6	47.3657	15455.6	44.262	15455.6	41.6018
16000.5	83.2813	16000.5	83.9234	16000.5	83.6174	16000.5	82.3002	16000.5	81.4417	16000.5	77.2984	16000.5	77.3914	16000.5	72.2415	16000.5	66.7465	16000.5	62.0115	16000.5	60.5519	16000.5	64.6264	16000.5	64.0244	16000.5	58.6235	16000.5	60.2053	16000.5	56.5278	16000.5	56.0374	16000.5	48.2965	16000.5	42.8495	16000.5	48.2568	16000.5	56.9294	16000.5	41.0882	16000.5	42.7433	16000.5	46.3988	16000.5	45.3397	16000.5	47.3211	16000.5	40.8757	16000.5	43.3643	16000.5	44.8024	16000.5	40.2385	16000.5	39.732	16000.5	43.9344	16000.5	44.3578	16000.5	45.6939	16000.5	43.8098	16000.5	40.9264
16564.5	82.6774	16564.5	83.18	16564.5	82.7564	16564.5	81.0459	16564.5	80.4116	16564.5	76.511	16564.5	76.4389	16564.5	69.1331	16564.5	61.7813	16564.5	63.646	16564.5	64.9862	16564.5	66.1603	16564.5	62.5877	16564.5	61.0748	16564.5	66.0523	16564.5	59.6603	16564.5	58.7031	16564.5	52.7498	16564.5	46.3027	16564.5	51.6886	16564.5	57.48	16564.5	46.1465	16564.5	46.2296	16564.5	48.4686	16564.5	50.7534	16564.5	47.9608	16564.5	45.2851	16564.5	42.7956	16564.5	47.158	16564.5	40.3083	16564.5	41.8942	16564.5	38.0196	16564.5	43.8584	16564.5	40.7733	16564.5	42.6836	16564.5	41.3627
17148.9	82.1999	17148.9	81.7063	17148.9	81.6537	17148.9	79.4085	17148.9	78.7738	17148.9	75.6682	17148.9	74.888	17148.9	62.9216	17148.9	40.2473	17148.9	63.4347	17148.9	69.6968	17148.9	67.205	17148.9	63.5548	17148.9	63.4289	17148.9	66.7646	17148.9	59.6469	17148.9	60.5606	17148.9	54.8807	17148.9	49.5542	17148.9	51.9254	17148.9	55.067	17148.9	46.4739	17148.9	47.9691	17148.9	48.233	17148.9	53.9131	17148.9	47.4256	17148.9	44.4538	17148.9	43.9287	17148.9	46.4577	17148.9	43.2015	17148.9	44.6837	17148.9	29.7829	17148.9	45.9336	17148.9	41.8233	17148.9	41.0664	17148.9	44.0051
17752.4	82.1972	17752.4	80.0343	17752.4	80.1632	17752.4	77.9521	17752.4	76.8174	17752.4	73.5711	17752.4	71.05	17752.4	53.929	17752.4	59.8207	17752.4	62.3229	17752.4	69.1468	17752.4	67.2413	17752.4	66.8649	17752.4	64.4191	17752.4	67.218	17752.4	59.1834	17752.4	58.5473	17752.4	55.5604	17752.4	47.3401	17752.4	50.939	17752.4	50.4175	17752.4	47.5263	17752.4	48.9486	17752.4	49.2992	17752.4	51.9761	17752.4	46.4657	17752.4	42.6255	17752.4	44.809	17752.4	46.3948	17752.4	41.135	17752.4	36.1601	17752.4	19.2834	17752.4	41.7961	17752.4	36.077	17752.4	32.0132	17752.4	43.2008
18379.4	81.4309	18379.4	78.1613	18379.4	78.2761	18379.4	76.5269	18379.4	75.5184	18379.4	69.0405	18379.4	65.9692	18379.4	55.8137	18379.4	63.8627	18379.4	62.8686	18379.4	65.7664	18379.4	65.3775	18379.4	66.2415	18379.4	63.7743	18379.4	63.2738	18379.4	57.9176	18379.4	59.7778	18379.4	53.706	18379.4	41.2214	18379.4	49.978	18379.4	48.6818	18379.4	46.789	18379.4	45.1357	18379.4	47.9862	18379.4	45.937	18379.4	45.0269	18379.4	35.7161	18379.4	44.3382	18379.4	39.7717	18379.4	43.7406	18379.4	33.822	18379.4	34.348	18379.4	40.01	18379.4	37.5227	18379.4	32.7441	18379.4	40.8417
19026.9	80.2327	19026.9	76.6312	19026.9	76.1695	19026.9	75.5929	19026.9	74.152	19026.9	64.2092	19026.9	63.0695	19026.9	50.6006	19026.9	61.9544	19026.9	61.8851	19026.9	65.2398	19026.9	63.5406	19026.9	67.2328	19026.9	62.3386	19026.9	62.8061	19026.9	55.8192	19026.9	53.9776	19026.9	50.6082	19026.9	30.1204	19026.9	44.7717	19026.9	50.3198	19026.9	42.2114	19026.9	47.4976	19026.9	44.0065	19026.9	32.6577	19026.9	42.0099	19026.9	31.1116	19026.9	39.4809	19026.9	41.2919	19026.9	41.4471	19026.9	32.3235	19026.9	38.7899	19026.9	39.9891	19026.9	34.3696	19026.9	31.3468	19026.9	40.3874
19697.8	79.4129	19697.8	75.9866	19697.8	75.1137	19697.8	75.2657	19697.8	72.8274	19697.8	62.0717	19697.8	61.5796	19697.8	53.4849	19697.8	59.7211	19697.8	60.3257	19697.8	64.6597	19697.8	64.9601	19697.8	66.0807	19697.8	59.7093	19697.8	59.9265	19697.8	52.0419	19697.8	53.3531	19697.8	45.2824	19697.8	33.3762	19697.8	39.4686	19697.8	49.4727	19697.8	38.1714	19697.8	42.2216	19697.8	38.5609	19697.8	45.6593	19697.8	33.2969	19697.8	39.3535	19697.8	35.4352	19697.8	39.5593	19697.8	40.2355	19697.8	41.0882	19697.8	37.6886	19697.8	41.489	19697.8	27.842	19697.8	34.9945	19697.8	41.0622
19999.5	79.1456	19999.5	75.8546	19999.5	75.0258	19999.5	74.7626	19999.5	72.6474	19999.5	61.9382	19999.5	59.6403	19999.5	57.8638	19999.5	59.3031	19999.5	60.8621	19999.5	64.5436	19999.5	65.2444	19999.5	65.6065	19999.5	58.3691	19999.5	58.8148	19999.5	47.6937	19999.5	48.6206	19999.5	47.5282	19999.5	38.5857	19999.5	31.7676	19999.5	51.1949	19999.5	32.9387	19999.5	43.0017	19999.5	20.4541	19999.5	46.6422	19999.5	31.7676	19999.5	39.6411	19999.5	32.693	19999.5	45.7589	19999.5	48.1335	19999.5	40.6735	19999.5	40.7965	19999.5	40.9757	19999.5	33.0274	19999.5	32.985	19999.5	37.7846
